# Temperatura_=_25.91
# Concentracion g/m^3_=_15500.0
# C_Vs_to_Am_M_A/Vsm_=_65563218390.804596
# pendiente_HvsI_1/m_=_3716.3
# ordenada_HvsI_A/m_=_1297.0
# frecuencia_Hz_=_300984.7303373348

Tiempo_(s)	Campo_(V.s)	Magnetizacion_(V.s)	Campo_(kA/m)	Magnetizacion_(A/m)
0.000000e+00	-2.861439e-06	-3.313084e-09	-1.978612e+01	-2.159799e+02
1.000000e-08	-2.861106e-06	-3.313962e-09	-1.978382e+01	-2.159791e+02
2.000000e-08	-2.859898e-06	-3.317734e-09	-1.977546e+01	-2.160306e+02
3.000000e-08	-2.857546e-06	-3.318869e-09	-1.975920e+01	-2.160306e+02
4.000000e-08	-2.853974e-06	-3.317195e-09	-1.973450e+01	-2.158782e+02
5.000000e-08	-2.849532e-06	-3.312857e-09	-1.970378e+01	-2.155586e+02
6.000000e-08	-2.844349e-06	-3.305066e-09	-1.966795e+01	-2.151634e+02
7.000000e-08	-2.838291e-06	-3.289711e-09	-1.962606e+01	-2.148266e+02
8.000000e-08	-2.831262e-06	-3.297344e-09	-1.957745e+01	-2.146171e+02
9.000000e-08	-2.823186e-06	-3.357256e-09	-1.952161e+01	-2.144710e+02
1.000000e-07	-2.813773e-06	-3.369553e-09	-1.945652e+01	-2.142213e+02
1.100000e-07	-2.802809e-06	-3.232740e-09	-1.938070e+01	-2.137160e+02
1.200000e-07	-2.790791e-06	-3.136486e-09	-1.929760e+01	-2.129417e+02
1.300000e-07	-2.778078e-06	-3.282300e-09	-1.920970e+01	-2.120601e+02
1.400000e-07	-2.764455e-06	-3.384026e-09	-1.911550e+01	-2.113184e+02
1.500000e-07	-2.749830e-06	-3.152087e-09	-1.901437e+01	-2.108858e+02
1.600000e-07	-2.734276e-06	-3.182814e-09	-1.890682e+01	-2.107273e+02
1.700000e-07	-2.717382e-06	-3.377636e-09	-1.879000e+01	-2.106087e+02
1.800000e-07	-2.699198e-06	-3.180141e-09	-1.866426e+01	-2.102388e+02
1.900000e-07	-2.680371e-06	-3.077109e-09	-1.853408e+01	-2.094585e+02
2.000000e-07	-2.660836e-06	-3.274443e-09	-1.839900e+01	-2.083499e+02
2.100000e-07	-2.640315e-06	-3.183090e-09	-1.825710e+01	-2.071854e+02
2.200000e-07	-2.618893e-06	-2.993781e-09	-1.810897e+01	-2.062490e+02
2.300000e-07	-2.596689e-06	-3.216498e-09	-1.795544e+01	-2.056473e+02
2.400000e-07	-2.573550e-06	-3.263421e-09	-1.779544e+01	-2.052391e+02
2.500000e-07	-2.549507e-06	-3.051368e-09	-1.762919e+01	-2.047305e+02
2.600000e-07	-2.524761e-06	-3.077203e-09	-1.745808e+01	-2.038725e+02
2.700000e-07	-2.499038e-06	-3.121718e-09	-1.728021e+01	-2.026246e+02
2.800000e-07	-2.472097e-06	-3.034114e-09	-1.709392e+01	-2.011768e+02
2.900000e-07	-2.444138e-06	-3.069020e-09	-1.690059e+01	-1.998173e+02
3.000000e-07	-2.415279e-06	-3.020673e-09	-1.670104e+01	-1.987400e+02
3.100000e-07	-2.385661e-06	-2.981030e-09	-1.649624e+01	-1.979234e+02
3.200000e-07	-2.355424e-06	-3.063538e-09	-1.628715e+01	-1.971586e+02
3.300000e-07	-2.324359e-06	-3.001141e-09	-1.607235e+01	-1.962006e+02
3.400000e-07	-2.292477e-06	-2.922222e-09	-1.585189e+01	-1.949340e+02
3.500000e-07	-2.260006e-06	-2.936448e-09	-1.562736e+01	-1.934387e+02
3.600000e-07	-2.226896e-06	-2.894263e-09	-1.539841e+01	-1.919180e+02
3.700000e-07	-2.192776e-06	-2.883889e-09	-1.516248e+01	-1.905482e+02
3.800000e-07	-2.157461e-06	-2.932405e-09	-1.491829e+01	-1.893573e+02
3.900000e-07	-2.121297e-06	-2.843290e-09	-1.466823e+01	-1.882169e+02
4.000000e-07	-2.084582e-06	-2.818705e-09	-1.441435e+01	-1.869451e+02
4.100000e-07	-2.047202e-06	-2.863323e-09	-1.415588e+01	-1.854396e+02
4.200000e-07	-2.009035e-06	-2.796240e-09	-1.389196e+01	-1.837461e+02
4.300000e-07	-1.970124e-06	-2.719117e-09	-1.362290e+01	-1.820160e+02
4.400000e-07	-1.930490e-06	-2.729267e-09	-1.334884e+01	-1.803903e+02
4.500000e-07	-1.890296e-06	-2.738823e-09	-1.307091e+01	-1.788972e+02
4.600000e-07	-1.849705e-06	-2.712944e-09	-1.279024e+01	-1.774344e+02
4.700000e-07	-1.808561e-06	-2.682254e-09	-1.250574e+01	-1.758466e+02
4.800000e-07	-1.766499e-06	-2.630606e-09	-1.221489e+01	-1.740373e+02
4.900000e-07	-1.723398e-06	-2.603680e-09	-1.191686e+01	-1.720346e+02
5.000000e-07	-1.679500e-06	-2.587100e-09	-1.161331e+01	-1.699681e+02
5.100000e-07	-1.635129e-06	-2.554394e-09	-1.130650e+01	-1.679767e+02
5.200000e-07	-1.590397e-06	-2.508012e-09	-1.099719e+01	-1.661160e+02
5.300000e-07	-1.545173e-06	-2.493403e-09	-1.068447e+01	-1.643286e+02
5.400000e-07	-1.499352e-06	-2.478835e-09	-1.036764e+01	-1.624919e+02
5.500000e-07	-1.452941e-06	-2.438769e-09	-1.004671e+01	-1.605045e+02
5.600000e-07	-1.406008e-06	-2.391119e-09	-9.722184e+00	-1.583479e+02
5.700000e-07	-1.358565e-06	-2.345571e-09	-9.394131e+00	-1.560853e+02
5.800000e-07	-1.310639e-06	-2.330766e-09	-9.062730e+00	-1.538061e+02
5.900000e-07	-1.262323e-06	-2.310695e-09	-8.728644e+00	-1.515622e+02
6.000000e-07	-1.213682e-06	-2.266748e-09	-8.392304e+00	-1.493410e+02
6.100000e-07	-1.164614e-06	-2.216257e-09	-8.053005e+00	-1.470893e+02
6.200000e-07	-1.114859e-06	-2.184024e-09	-7.708966e+00	-1.447629e+02
6.300000e-07	-1.064371e-06	-2.153085e-09	-7.359852e+00	-1.423589e+02
6.400000e-07	-1.013289e-06	-2.112370e-09	-7.006634e+00	-1.399090e+02
6.500000e-07	-9.617000e-07	-2.065912e-09	-6.649909e+00	-1.374425e+02
6.600000e-07	-9.097160e-07	-2.026196e-09	-6.290453e+00	-1.349521e+02
6.700000e-07	-8.574753e-07	-2.001810e-09	-5.929223e+00	-1.323928e+02
6.800000e-07	-8.049779e-07	-1.964724e-09	-5.566216e+00	-1.297155e+02
6.900000e-07	-7.521429e-07	-1.912215e-09	-5.200876e+00	-1.269081e+02
7.000000e-07	-6.989787e-07	-1.859231e-09	-4.833259e+00	-1.240119e+02
7.100000e-07	-6.455324e-07	-1.821756e-09	-4.463691e+00	-1.210976e+02
7.200000e-07	-5.918576e-07	-1.783503e-09	-4.092544e+00	-1.182169e+02
7.300000e-07	-5.380205e-07	-1.735911e-09	-3.720274e+00	-1.153648e+02
7.400000e-07	-4.840189e-07	-1.685248e-09	-3.346867e+00	-1.124792e+02
7.500000e-07	-4.298270e-07	-1.638231e-09	-2.972144e+00	-1.094806e+02
7.600000e-07	-3.755034e-07	-1.597018e-09	-2.596510e+00	-1.063223e+02
7.700000e-07	-3.211236e-07	-1.547541e-09	-2.220487e+00	-1.030183e+02
7.800000e-07	-2.666835e-07	-1.490453e-09	-1.844048e+00	-9.963041e+01
7.900000e-07	-2.121730e-07	-1.436281e-09	-1.467122e+00	-9.622375e+01
8.000000e-07	-1.575675e-07	-1.388283e-09	-1.089539e+00	-9.282311e+01
8.100000e-07	-1.029026e-07	-1.334568e-09	-7.115451e-01	-8.939816e+01
8.200000e-07	-4.820496e-08	-1.275252e-09	-3.333249e-01	-8.588612e+01
8.300000e-07	6.534791e-09	-1.216728e-09	4.518641e-02	-8.223406e+01
8.400000e-07	6.121738e-08	-1.163209e-09	4.233025e-01	-7.843158e+01
8.500000e-07	1.158285e-07	-1.110978e-09	8.009247e-01	-7.451274e+01
8.600000e-07	1.704366e-07	-1.051508e-09	1.178525e+00	-7.052863e+01
8.700000e-07	2.250517e-07	-9.865394e-10	1.556175e+00	-6.651059e+01
8.800000e-07	2.796111e-07	-9.219237e-10	1.933439e+00	-6.244901e+01
8.900000e-07	3.340495e-07	-8.609156e-10	2.309867e+00	-5.829983e+01
9.000000e-07	3.883685e-07	-7.950838e-10	2.685469e+00	-5.401175e+01
9.100000e-07	4.425594e-07	-7.250742e-10	3.060185e+00	-4.955465e+01
9.200000e-07	4.966165e-07	-6.552267e-10	3.433976e+00	-4.493104e+01
9.300000e-07	5.505899e-07	-5.856826e-10	3.807188e+00	-4.016559e+01
9.400000e-07	6.044161e-07	-5.135864e-10	4.179383e+00	-3.528232e+01
9.500000e-07	6.579218e-07	-4.358887e-10	4.549361e+00	-3.028542e+01
9.600000e-07	7.110787e-07	-3.551843e-10	4.916928e+00	-2.515478e+01
9.700000e-07	7.639275e-07	-2.744240e-10	5.282363e+00	-1.985601e+01
9.800000e-07	8.165058e-07	-1.951344e-10	5.645929e+00	-1.435556e+01
9.900000e-07	8.688501e-07	-1.069987e-10	6.007876e+00	-8.630461e+00
1.000000e-06	9.208731e-07	-1.048367e-11	6.367602e+00	-2.668709e+00
1.010000e-06	9.725274e-07	8.614659e-11	6.724778e+00	3.535893e+00
1.020000e-06	1.023710e-06	1.819653e-10	7.078692e+00	9.987339e+00
1.030000e-06	1.074274e-06	2.807740e-10	7.428333e+00	1.668565e+01
1.040000e-06	1.124226e-06	3.867696e-10	7.773736e+00	2.362236e+01
1.050000e-06	1.173590e-06	4.967700e-10	8.115078e+00	3.077931e+01
1.060000e-06	1.222439e-06	6.083959e-10	8.452854e+00	3.813425e+01
1.070000e-06	1.270918e-06	7.227574e-10	8.788072e+00	4.566965e+01
1.080000e-06	1.319101e-06	8.412359e-10	9.121245e+00	5.337606e+01
1.090000e-06	1.366918e-06	9.628226e-10	9.451888e+00	6.124305e+01
1.100000e-06	1.414231e-06	1.081592e-09	9.779048e+00	6.923982e+01
1.110000e-06	1.460989e-06	1.200154e-09	1.010237e+01	7.729724e+01
1.120000e-06	1.507197e-06	1.322192e-09	1.042188e+01	8.530623e+01
1.130000e-06	1.552853e-06	1.444328e-09	1.073758e+01	9.313968e+01
1.140000e-06	1.597962e-06	1.559514e-09	1.104950e+01	1.006897e+02
1.150000e-06	1.642635e-06	1.666627e-09	1.135840e+01	1.079008e+02
1.160000e-06	1.686994e-06	1.768988e-09	1.166513e+01	1.147776e+02
1.170000e-06	1.730940e-06	1.869635e-09	1.196900e+01	1.213623e+02
1.180000e-06	1.774214e-06	1.966808e-09	1.226824e+01	1.276932e+02
1.190000e-06	1.816484e-06	2.059395e-09	1.256052e+01	1.337708e+02
1.200000e-06	1.857761e-06	2.147708e-09	1.284594e+01	1.395517e+02
1.210000e-06	1.898408e-06	2.231147e-09	1.312701e+01	1.449754e+02
1.220000e-06	1.938544e-06	2.308502e-09	1.340453e+01	1.500043e+02
1.230000e-06	1.978072e-06	2.376256e-09	1.367786e+01	1.546504e+02
1.240000e-06	2.016922e-06	2.437356e-09	1.394650e+01	1.589717e+02
1.250000e-06	2.055133e-06	2.496397e-09	1.421072e+01	1.630400e+02
1.260000e-06	2.092605e-06	2.556114e-09	1.446983e+01	1.669046e+02
1.270000e-06	2.129357e-06	2.611150e-09	1.472396e+01	1.705752e+02
1.280000e-06	2.165627e-06	2.661261e-09	1.497476e+01	1.740332e+02
1.290000e-06	2.201239e-06	2.708223e-09	1.522101e+01	1.772608e+02
1.300000e-06	2.235874e-06	2.752900e-09	1.546050e+01	1.802627e+02
1.310000e-06	2.269443e-06	2.792326e-09	1.569261e+01	1.830642e+02
1.320000e-06	2.302125e-06	2.827418e-09	1.591861e+01	1.856892e+02
1.330000e-06	2.334110e-06	2.861463e-09	1.613977e+01	1.881383e+02
1.340000e-06	2.365333e-06	2.895477e-09	1.635567e+01	1.903892e+02
1.350000e-06	2.395755e-06	2.927775e-09	1.656603e+01	1.924233e+02
1.360000e-06	2.425336e-06	2.954662e-09	1.677058e+01	1.942573e+02
1.370000e-06	2.454178e-06	2.978318e-09	1.697001e+01	1.959540e+02
1.380000e-06	2.482403e-06	3.001573e-09	1.716518e+01	1.975973e+02
1.390000e-06	2.509766e-06	3.026529e-09	1.735439e+01	1.992440e+02
1.400000e-06	2.535924e-06	3.049865e-09	1.753526e+01	2.008856e+02
1.410000e-06	2.560930e-06	3.071046e-09	1.770818e+01	2.024526e+02
1.420000e-06	2.584992e-06	3.091236e-09	1.787456e+01	2.038604e+02
1.430000e-06	2.608154e-06	3.109719e-09	1.803472e+01	2.050699e+02
1.440000e-06	2.630435e-06	3.126278e-09	1.818878e+01	2.061196e+02
1.450000e-06	2.651835e-06	3.142023e-09	1.833676e+01	2.071032e+02
1.460000e-06	2.672496e-06	3.159067e-09	1.847962e+01	2.081086e+02
1.470000e-06	2.692458e-06	3.176587e-09	1.861766e+01	2.091579e+02
1.480000e-06	2.711432e-06	3.192458e-09	1.874886e+01	2.101944e+02
1.490000e-06	2.729354e-06	3.205365e-09	1.887278e+01	2.111243e+02
1.500000e-06	2.746283e-06	3.217120e-09	1.898984e+01	2.118861e+02
1.510000e-06	2.762150e-06	3.229473e-09	1.909956e+01	2.124953e+02
1.520000e-06	2.776954e-06	3.240622e-09	1.920192e+01	2.130335e+02
1.530000e-06	2.790739e-06	3.248437e-09	1.929724e+01	2.135888e+02
1.540000e-06	2.803577e-06	3.255301e-09	1.938602e+01	2.141927e+02
1.550000e-06	2.815348e-06	3.264907e-09	1.946741e+01	2.148002e+02
1.560000e-06	2.825830e-06	3.274508e-09	1.953989e+01	2.153282e+02
1.570000e-06	2.835053e-06	3.281911e-09	1.960367e+01	2.157207e+02
1.580000e-06	2.843343e-06	3.288230e-09	1.966099e+01	2.159924e+02
1.590000e-06	2.850750e-06	3.294820e-09	1.971220e+01	2.162151e+02
1.600000e-06	2.857185e-06	3.301251e-09	1.975670e+01	2.164589e+02
1.610000e-06	2.862644e-06	3.304565e-09	1.979445e+01	2.167341e+02
1.620000e-06	2.867228e-06	3.303970e-09	1.982615e+01	2.169820e+02
1.630000e-06	2.870885e-06	3.305819e-09	1.985143e+01	2.171221e+02
1.640000e-06	2.873307e-06	3.310442e-09	1.986818e+01	2.171213e+02
1.650000e-06	2.874540e-06	3.313794e-09	1.987671e+01	2.170273e+02
1.660000e-06	2.874799e-06	3.315882e-09	1.987850e+01	2.169377e+02
1.670000e-06	2.874158e-06	3.313156e-09	1.987407e+01	2.169247e+02
1.680000e-06	2.872623e-06	3.307646e-09	1.986345e+01	2.169736e+02
1.690000e-06	2.870199e-06	3.304277e-09	1.984669e+01	2.169880e+02
1.700000e-06	2.866958e-06	3.302465e-09	1.982428e+01	2.168607e+02
1.710000e-06	2.862996e-06	3.302747e-09	1.979688e+01	2.165612e+02
1.720000e-06	2.857994e-06	3.307088e-09	1.976230e+01	2.161682e+02
1.730000e-06	2.851759e-06	3.321837e-09	1.971918e+01	2.158159e+02
1.740000e-06	2.844600e-06	3.278604e-09	1.966968e+01	2.155887e+02
1.750000e-06	2.836508e-06	3.194079e-09	1.961373e+01	2.154421e+02
1.760000e-06	2.826939e-06	3.213022e-09	1.954756e+01	2.152181e+02
1.770000e-06	2.815751e-06	3.384682e-09	1.947020e+01	2.147541e+02
1.780000e-06	2.803864e-06	3.351543e-09	1.938800e+01	2.140117e+02
1.790000e-06	2.791928e-06	3.168779e-09	1.930547e+01	2.131304e+02
1.800000e-06	2.778989e-06	3.214930e-09	1.921600e+01	2.123545e+02
1.810000e-06	2.764276e-06	3.353553e-09	1.911426e+01	2.118741e+02
1.820000e-06	2.748618e-06	3.165575e-09	1.900599e+01	2.116869e+02
1.830000e-06	2.732433e-06	3.071905e-09	1.889408e+01	2.115810e+02
1.840000e-06	2.714941e-06	3.349298e-09	1.877312e+01	2.112613e+02
1.850000e-06	2.696205e-06	3.245015e-09	1.864357e+01	2.105403e+02
1.860000e-06	2.676923e-06	3.003023e-09	1.851024e+01	2.094645e+02
1.870000e-06	2.656778e-06	3.256238e-09	1.837094e+01	2.082883e+02
1.880000e-06	2.635323e-06	3.281360e-09	1.822259e+01	2.073068e+02
1.890000e-06	2.612911e-06	2.957537e-09	1.806761e+01	2.066602e+02
1.900000e-06	2.589522e-06	3.092077e-09	1.790588e+01	2.062404e+02
1.910000e-06	2.565056e-06	3.225268e-09	1.773670e+01	2.057645e+02
1.920000e-06	2.539940e-06	3.066613e-09	1.756303e+01	2.049646e+02
1.930000e-06	2.514003e-06	3.082749e-09	1.738369e+01	2.037650e+02
1.940000e-06	2.487134e-06	3.100841e-09	1.719789e+01	2.023280e+02
1.950000e-06	2.459697e-06	3.009957e-09	1.700818e+01	2.009396e+02
1.960000e-06	2.431311e-06	3.102364e-09	1.681189e+01	1.998176e+02
1.970000e-06	2.401622e-06	3.017311e-09	1.660660e+01	1.989732e+02
1.980000e-06	2.370973e-06	2.895790e-09	1.639467e+01	1.982168e+02
1.990000e-06	2.339564e-06	3.047041e-09	1.617748e+01	1.972977e+02
2.000000e-06	2.307455e-06	2.993651e-09	1.595546e+01	1.960744e+02
2.010000e-06	2.274636e-06	2.921769e-09	1.572853e+01	1.946004e+02
2.020000e-06	2.240955e-06	3.004944e-09	1.549563e+01	1.930700e+02
2.030000e-06	2.206490e-06	2.885611e-09	1.525732e+01	1.916725e+02
2.040000e-06	2.171456e-06	2.851675e-09	1.501506e+01	1.904606e+02
2.050000e-06	2.135794e-06	2.936525e-09	1.476847e+01	1.893242e+02
2.060000e-06	2.099425e-06	2.814232e-09	1.451699e+01	1.880803e+02
2.070000e-06	2.062000e-06	2.795182e-09	1.425820e+01	1.866086e+02
2.080000e-06	2.023419e-06	2.858449e-09	1.399142e+01	1.849339e+02
2.090000e-06	1.984188e-06	2.798444e-09	1.372015e+01	1.831984e+02
2.100000e-06	1.944446e-06	2.773270e-09	1.344535e+01	1.815525e+02
2.110000e-06	1.904023e-06	2.725276e-09	1.316583e+01	1.800439e+02
2.120000e-06	1.862928e-06	2.686457e-09	1.288167e+01	1.785860e+02
2.130000e-06	1.821278e-06	2.700803e-09	1.259367e+01	1.770242e+02
2.140000e-06	1.779066e-06	2.666842e-09	1.230179e+01	1.752476e+02
2.150000e-06	1.736250e-06	2.636652e-09	1.200572e+01	1.732659e+02
2.160000e-06	1.692966e-06	2.609803e-09	1.170642e+01	1.711988e+02
2.170000e-06	1.649270e-06	2.578651e-09	1.140428e+01	1.691904e+02
2.180000e-06	1.604954e-06	2.557070e-09	1.109785e+01	1.673118e+02
2.190000e-06	1.559967e-06	2.512452e-09	1.078677e+01	1.655205e+02
2.200000e-06	1.514386e-06	2.485496e-09	1.047159e+01	1.636982e+02
2.210000e-06	1.468279e-06	2.468545e-09	1.015277e+01	1.617355e+02
2.220000e-06	1.421762e-06	2.436938e-09	9.831121e+00	1.596004e+02
2.230000e-06	1.374763e-06	2.417788e-09	9.506138e+00	1.573470e+02
2.240000e-06	1.327175e-06	2.359524e-09	9.177073e+00	1.550654e+02
2.250000e-06	1.279008e-06	2.317350e-09	8.844010e+00	1.528155e+02
2.260000e-06	1.230268e-06	2.304316e-09	8.506988e+00	1.505936e+02
2.270000e-06	1.181050e-06	2.264348e-09	8.166660e+00	1.483494e+02
2.280000e-06	1.131462e-06	2.232909e-09	7.823767e+00	1.460347e+02
2.290000e-06	1.081508e-06	2.191595e-09	7.478352e+00	1.436400e+02
2.300000e-06	1.031081e-06	2.155677e-09	7.129658e+00	1.411941e+02
2.310000e-06	9.801840e-07	2.129084e-09	6.777722e+00	1.387291e+02
2.320000e-06	9.290276e-07	2.081594e-09	6.423988e+00	1.362439e+02
2.330000e-06	8.776848e-07	2.037526e-09	6.068966e+00	1.336977e+02
2.340000e-06	8.260769e-07	2.002072e-09	5.712111e+00	1.310389e+02
2.350000e-06	7.741178e-07	1.965102e-09	5.352827e+00	1.282485e+02
2.360000e-06	7.217361e-07	1.924168e-09	4.990620e+00	1.253606e+02
2.370000e-06	6.688890e-07	1.870970e-09	4.625196e+00	1.224445e+02
2.380000e-06	6.156213e-07	1.825948e-09	4.256864e+00	1.195575e+02
2.390000e-06	5.619907e-07	1.788430e-09	3.886022e+00	1.167037e+02
2.400000e-06	5.079937e-07	1.745941e-09	3.512647e+00	1.138277e+02
2.410000e-06	4.536443e-07	1.701765e-09	3.136834e+00	1.108491e+02
2.420000e-06	3.991215e-07	1.648508e-09	2.759823e+00	1.077139e+02
2.430000e-06	3.444240e-07	1.601211e-09	2.381604e+00	1.044274e+02
2.440000e-06	2.895244e-07	1.553449e-09	2.001987e+00	1.010468e+02
2.450000e-06	2.345507e-07	1.498323e-09	1.621858e+00	9.763975e+01
2.460000e-06	1.795046e-07	1.445983e-09	1.241229e+00	9.423865e+01
2.470000e-06	1.244318e-07	1.393782e-09	8.604144e-01	9.082043e+01
2.480000e-06	6.933048e-08	1.345347e-09	4.794025e-01	8.732449e+01
2.490000e-06	1.419448e-08	1.292329e-09	9.815118e-02	8.369399e+01
2.500000e-06	-4.093357e-08	1.231356e-09	-2.830451e-01	7.991148e+01
2.510000e-06	-9.609792e-08	1.170183e-09	-6.644925e-01	7.600586e+01
2.520000e-06	-1.512400e-07	1.109173e-09	-1.045786e+00	7.202809e+01
2.530000e-06	-2.062911e-07	1.046860e-09	-1.426450e+00	6.801420e+01
2.540000e-06	-2.612578e-07	9.835139e-10	-1.806531e+00	6.396070e+01
2.550000e-06	-3.161616e-07	9.208902e-10	-2.186176e+00	5.982709e+01
2.560000e-06	-3.709443e-07	8.599813e-10	-2.564985e+00	5.556116e+01
2.570000e-06	-4.255334e-07	7.944441e-10	-2.942455e+00	5.112853e+01
2.580000e-06	-4.799394e-07	7.221581e-10	-3.318658e+00	4.652723e+01
2.590000e-06	-5.341154e-07	6.481497e-10	-3.693271e+00	4.178003e+01
2.600000e-06	-5.879442e-07	5.716043e-10	-4.065483e+00	3.691248e+01
2.610000e-06	-6.412953e-07	4.945828e-10	-4.434393e+00	3.193227e+01
2.620000e-06	-6.941521e-07	4.161808e-10	-4.799884e+00	2.682241e+01
2.630000e-06	-7.466189e-07	3.353864e-10	-5.162678e+00	2.154962e+01
2.640000e-06	-7.987568e-07	2.524577e-10	-5.523199e+00	1.607942e+01
2.650000e-06	-8.505586e-07	1.678590e-10	-5.881395e+00	1.038709e+01
2.660000e-06	-9.020898e-07	8.183596e-11	-6.237720e+00	4.459333e+00
2.670000e-06	-9.533619e-07	-1.092787e-11	-6.592254e+00	-1.710551e+00
2.680000e-06	-1.004295e-06	-1.117238e-10	-6.944446e+00	-8.126854e+00
2.690000e-06	-1.054834e-06	-2.162867e-10	-7.293908e+00	-1.479044e+01
2.700000e-06	-1.104957e-06	-3.205372e-10	-7.640495e+00	-2.169428e+01
2.710000e-06	-1.154663e-06	-4.287213e-10	-7.984199e+00	-2.882139e+01
2.720000e-06	-1.203957e-06	-5.413832e-10	-8.325054e+00	-3.614958e+01
2.730000e-06	-1.252806e-06	-6.556822e-10	-8.662833e+00	-4.366020e+01
2.740000e-06	-1.300963e-06	-7.702589e-10	-8.995828e+00	-5.134287e+01
2.750000e-06	-1.348295e-06	-8.890465e-10	-9.323117e+00	-5.918836e+01
2.760000e-06	-1.394969e-06	-1.013943e-09	-9.645854e+00	-6.717008e+01
2.770000e-06	-1.441118e-06	-1.139889e-09	-9.964962e+00	-7.522497e+01
2.780000e-06	-1.486876e-06	-1.263565e-09	-1.028137e+01	-8.324887e+01
2.790000e-06	-1.532256e-06	-1.383050e-09	-1.059516e+01	-9.111514e+01
2.800000e-06	-1.577161e-06	-1.499530e-09	-1.090567e+01	-9.871081e+01
2.810000e-06	-1.621509e-06	-1.610835e-09	-1.121232e+01	-1.059716e+02
2.820000e-06	-1.665325e-06	-1.717411e-09	-1.151530e+01	-1.128942e+02
2.830000e-06	-1.708729e-06	-1.819304e-09	-1.181543e+01	-1.195180e+02
2.840000e-06	-1.751711e-06	-1.917492e-09	-1.211263e+01	-1.258844e+02
2.850000e-06	-1.794146e-06	-2.012451e-09	-1.240606e+01	-1.320002e+02
2.860000e-06	-1.835934e-06	-2.100855e-09	-1.269502e+01	-1.378275e+02
2.870000e-06	-1.877108e-06	-2.182612e-09	-1.297972e+01	-1.433057e+02
2.880000e-06	-1.917675e-06	-2.259990e-09	-1.326023e+01	-1.483918e+02
2.890000e-06	-1.957610e-06	-2.333858e-09	-1.353637e+01	-1.530902e+02
2.900000e-06	-1.997000e-06	-2.403521e-09	-1.380875e+01	-1.574536e+02
2.910000e-06	-2.035811e-06	-2.470480e-09	-1.407711e+01	-1.615544e+02
2.920000e-06	-2.073712e-06	-2.533518e-09	-1.433919e+01	-1.654469e+02
2.930000e-06	-2.110563e-06	-2.592076e-09	-1.459400e+01	-1.691463e+02
2.940000e-06	-2.146536e-06	-2.646365e-09	-1.484275e+01	-1.726363e+02
