# Temperatura_=_28.44
# Concentracion g/m^3_=_15500.0
# C_Vs_to_Am_M_A/Vsm_=_65563218390.804596
# pendiente_HvsI_1/m_=_3716.3
# ordenada_HvsI_A/m_=_1297.0
# frecuencia_Hz_=_300979.324915253

Tiempo_(s)	Campo_(V.s)	Magnetizacion_(V.s)	Campo_(kA/m)	Magnetizacion_(A/m)
0.000000e+00	-2.860020e-06	-3.322962e-09	-1.978063e+01	-2.182795e+02
1.000000e-08	-2.859148e-06	-3.326601e-09	-1.977460e+01	-2.183490e+02
2.000000e-08	-2.857298e-06	-3.326553e-09	-1.976180e+01	-2.183438e+02
3.000000e-08	-2.854176e-06	-3.322854e-09	-1.974021e+01	-2.181702e+02
4.000000e-08	-2.850016e-06	-3.316974e-09	-1.971144e+01	-2.178171e+02
5.000000e-08	-2.845052e-06	-3.309807e-09	-1.967711e+01	-2.173831e+02
6.000000e-08	-2.839218e-06	-3.301919e-09	-1.963676e+01	-2.170183e+02
7.000000e-08	-2.832469e-06	-3.299773e-09	-1.959008e+01	-2.168149e+02
8.000000e-08	-2.824703e-06	-3.339809e-09	-1.953637e+01	-2.167223e+02
9.000000e-08	-2.815686e-06	-3.364180e-09	-1.947401e+01	-2.165583e+02
1.000000e-07	-2.805181e-06	-3.300629e-09	-1.940135e+01	-2.161208e+02
1.100000e-07	-2.793446e-06	-3.167903e-09	-1.932019e+01	-2.153329e+02
1.200000e-07	-2.781000e-06	-3.236828e-09	-1.923411e+01	-2.143188e+02
1.300000e-07	-2.767750e-06	-3.354655e-09	-1.914247e+01	-2.133460e+02
1.400000e-07	-2.753492e-06	-3.239543e-09	-1.904386e+01	-2.126611e+02
1.500000e-07	-2.738315e-06	-3.177489e-09	-1.893889e+01	-2.123256e+02
1.600000e-07	-2.721900e-06	-3.332280e-09	-1.882536e+01	-2.121647e+02
1.700000e-07	-2.704095e-06	-3.320190e-09	-1.870222e+01	-2.118744e+02
1.800000e-07	-2.685496e-06	-3.131731e-09	-1.857358e+01	-2.112202e+02
1.900000e-07	-2.666267e-06	-3.243026e-09	-1.844058e+01	-2.101965e+02
2.000000e-07	-2.646113e-06	-3.278483e-09	-1.830120e+01	-2.090333e+02
2.100000e-07	-2.625012e-06	-3.081540e-09	-1.815526e+01	-2.080424e+02
2.200000e-07	-2.603128e-06	-3.169529e-09	-1.800390e+01	-2.074025e+02
2.300000e-07	-2.580321e-06	-3.314973e-09	-1.784616e+01	-2.070311e+02
2.400000e-07	-2.556522e-06	-3.170023e-09	-1.768156e+01	-2.066329e+02
2.500000e-07	-2.532019e-06	-3.108771e-09	-1.751210e+01	-2.058953e+02
2.600000e-07	-2.506678e-06	-3.135025e-09	-1.733683e+01	-2.046986e+02
2.700000e-07	-2.480125e-06	-3.098469e-09	-1.715318e+01	-2.031982e+02
2.800000e-07	-2.452428e-06	-3.108126e-09	-1.696162e+01	-2.017221e+02
2.900000e-07	-2.423876e-06	-3.084003e-09	-1.676415e+01	-2.005524e+02
3.000000e-07	-2.394533e-06	-3.036722e-09	-1.656121e+01	-1.997401e+02
3.100000e-07	-2.364415e-06	-3.089021e-09	-1.635290e+01	-1.990753e+02
3.200000e-07	-2.333570e-06	-3.089775e-09	-1.613957e+01	-1.982315e+02
3.300000e-07	-2.301979e-06	-2.982476e-09	-1.592107e+01	-1.969828e+02
3.400000e-07	-2.269692e-06	-2.985756e-09	-1.569777e+01	-1.953476e+02
3.500000e-07	-2.236815e-06	-2.956492e-09	-1.547039e+01	-1.935669e+02
3.600000e-07	-2.203104e-06	-2.921223e-09	-1.523723e+01	-1.919393e+02
3.700000e-07	-2.168216e-06	-2.974728e-09	-1.499594e+01	-1.906283e+02
3.800000e-07	-2.132289e-06	-2.925688e-09	-1.474746e+01	-1.895703e+02
3.900000e-07	-2.095743e-06	-2.860331e-09	-1.449470e+01	-1.885353e+02
4.000000e-07	-2.058616e-06	-2.903131e-09	-1.423792e+01	-1.872883e+02
4.100000e-07	-2.020693e-06	-2.881485e-09	-1.397563e+01	-1.857357e+02
4.200000e-07	-1.982006e-06	-2.780637e-09	-1.370807e+01	-1.839638e+02
4.300000e-07	-1.942629e-06	-2.772787e-09	-1.343572e+01	-1.821552e+02
4.400000e-07	-1.902605e-06	-2.780654e-09	-1.315890e+01	-1.804548e+02
4.500000e-07	-1.862130e-06	-2.764089e-09	-1.287897e+01	-1.788812e+02
4.600000e-07	-1.821264e-06	-2.735766e-09	-1.259633e+01	-1.773388e+02
4.700000e-07	-1.779692e-06	-2.691439e-09	-1.230880e+01	-1.757063e+02
4.800000e-07	-1.737011e-06	-2.651530e-09	-1.201361e+01	-1.739297e+02
4.900000e-07	-1.693296e-06	-2.636427e-09	-1.171127e+01	-1.720496e+02
5.000000e-07	-1.649017e-06	-2.615527e-09	-1.140502e+01	-1.701534e+02
5.100000e-07	-1.604350e-06	-2.569520e-09	-1.109610e+01	-1.682951e+02
5.200000e-07	-1.559194e-06	-2.548035e-09	-1.078379e+01	-1.664493e+02
5.300000e-07	-1.513516e-06	-2.532301e-09	-1.046787e+01	-1.645334e+02
5.400000e-07	-1.467277e-06	-2.506064e-09	-1.014806e+01	-1.624758e+02
5.500000e-07	-1.420500e-06	-2.450709e-09	-9.824541e+00	-1.602761e+02
5.600000e-07	-1.373235e-06	-2.398018e-09	-9.497645e+00	-1.580094e+02
5.700000e-07	-1.325455e-06	-2.374325e-09	-9.167189e+00	-1.557731e+02
5.800000e-07	-1.277271e-06	-2.366050e-09	-8.833931e+00	-1.536166e+02
5.900000e-07	-1.228770e-06	-2.334348e-09	-8.498486e+00	-1.515074e+02
6.000000e-07	-1.179844e-06	-2.285348e-09	-8.160104e+00	-1.493557e+02
6.100000e-07	-1.130223e-06	-2.250916e-09	-7.816911e+00	-1.470778e+02
6.200000e-07	-1.079902e-06	-2.216117e-09	-7.468879e+00	-1.446498e+02
6.300000e-07	-1.028965e-06	-2.179987e-09	-7.116589e+00	-1.421140e+02
6.400000e-07	-9.774816e-07	-2.130182e-09	-6.760514e+00	-1.395390e+02
6.500000e-07	-9.256300e-07	-2.085288e-09	-6.401895e+00	-1.369654e+02
6.600000e-07	-8.734308e-07	-2.056437e-09	-6.040872e+00	-1.343804e+02
6.700000e-07	-8.209478e-07	-2.028578e-09	-5.677886e+00	-1.317370e+02
6.800000e-07	-7.682008e-07	-1.980409e-09	-5.313074e+00	-1.289985e+02
6.900000e-07	-7.151336e-07	-1.923364e-09	-4.946048e+00	-1.261718e+02
7.000000e-07	-6.618012e-07	-1.881479e-09	-4.577187e+00	-1.233020e+02
7.100000e-07	-6.082416e-07	-1.845431e-09	-4.206755e+00	-1.204324e+02
7.200000e-07	-5.544915e-07	-1.803163e-09	-3.835005e+00	-1.175626e+02
7.300000e-07	-5.005716e-07	-1.749281e-09	-3.462081e+00	-1.146381e+02
7.400000e-07	-4.464482e-07	-1.699061e-09	-3.087750e+00	-1.115829e+02
7.500000e-07	-3.921996e-07	-1.653180e-09	-2.712553e+00	-1.083515e+02
7.600000e-07	-3.378605e-07	-1.604367e-09	-2.336730e+00	-1.049648e+02
7.700000e-07	-2.834224e-07	-1.545792e-09	-1.960222e+00	-1.015013e+02
7.800000e-07	-2.289157e-07	-1.488069e-09	-1.583240e+00	-9.804890e+01
7.900000e-07	-1.743545e-07	-1.441522e-09	-1.205881e+00	-9.464738e+01
8.000000e-07	-1.197568e-07	-1.393177e-09	-8.282685e-01	-9.126043e+01
8.100000e-07	-6.511755e-08	-1.337221e-09	-4.503697e-01	-8.779489e+01
8.200000e-07	-1.043716e-08	-1.274889e-09	-7.218608e-02	-8.415535e+01
8.300000e-07	4.426507e-08	-1.216510e-09	3.061486e-01	-8.029978e+01
8.400000e-07	9.894966e-08	-1.159436e-09	6.843612e-01	-7.626264e+01
8.500000e-07	1.535807e-07	-1.098857e-09	1.062204e+00	-7.213300e+01
8.600000e-07	2.081481e-07	-1.032058e-09	1.439606e+00	-6.800243e+01
8.700000e-07	2.626439e-07	-9.671666e-10	1.816513e+00	-6.391355e+01
8.800000e-07	3.170892e-07	-9.097659e-10	2.193070e+00	-5.983749e+01
8.900000e-07	3.714816e-07	-8.489103e-10	2.569262e+00	-5.568978e+01
9.000000e-07	4.257717e-07	-7.793162e-10	2.944747e+00	-5.137300e+01
9.100000e-07	4.799278e-07	-7.053907e-10	3.319304e+00	-4.682166e+01
9.200000e-07	5.339267e-07	-6.352216e-10	3.692774e+00	-4.202658e+01
9.300000e-07	5.877296e-07	-5.608568e-10	4.064889e+00	-3.702922e+01
9.400000e-07	6.412532e-07	-4.814736e-10	4.435072e+00	-3.189196e+01
9.500000e-07	6.945034e-07	-3.984550e-10	4.803364e+00	-2.666163e+01
9.600000e-07	7.475090e-07	-3.176608e-10	5.169965e+00	-2.134403e+01
9.700000e-07	8.002350e-07	-2.399878e-10	5.534631e+00	-1.590034e+01
9.800000e-07	8.526779e-07	-1.550887e-10	5.897339e+00	-1.026457e+01
9.900000e-07	9.048339e-07	-6.111003e-11	6.258064e+00	-4.371477e+00
1.000000e-06	9.566586e-07	3.789891e-11	6.616497e+00	1.819312e+00
1.010000e-06	1.008070e-06	1.360214e-10	6.972069e+00	8.313682e+00
1.020000e-06	1.058848e-06	2.373795e-10	7.323264e+00	1.509012e+01
1.030000e-06	1.108907e-06	3.428304e-10	7.669488e+00	2.211689e+01
1.040000e-06	1.158374e-06	4.555745e-10	8.011609e+00	2.936819e+01
1.050000e-06	1.207325e-06	5.710608e-10	8.350168e+00	3.683023e+01
1.060000e-06	1.255921e-06	6.860018e-10	8.686275e+00	4.449500e+01
1.070000e-06	1.304270e-06	8.063397e-10	9.020663e+00	5.234698e+01
1.080000e-06	1.352222e-06	9.296156e-10	9.352314e+00	6.035147e+01
1.090000e-06	1.399598e-06	1.051424e-09	9.679981e+00	6.845119e+01
1.100000e-06	1.446460e-06	1.171747e-09	1.000409e+01	7.657211e+01
1.110000e-06	1.492853e-06	1.294356e-09	1.032495e+01	8.463448e+01
1.120000e-06	1.538714e-06	1.416923e-09	1.064214e+01	9.256295e+01
1.130000e-06	1.584041e-06	1.536790e-09	1.095563e+01	1.002922e+02
1.140000e-06	1.628875e-06	1.648767e-09	1.126572e+01	1.077679e+02
1.150000e-06	1.673341e-06	1.754244e-09	1.157326e+01	1.149463e+02
1.160000e-06	1.717406e-06	1.856198e-09	1.187802e+01	1.217932e+02
1.170000e-06	1.760799e-06	1.953700e-09	1.217814e+01	1.282855e+02
1.180000e-06	1.803322e-06	2.047021e-09	1.247224e+01	1.344123e+02
1.190000e-06	1.844836e-06	2.135086e-09	1.275936e+01	1.401761e+02
1.200000e-06	1.885576e-06	2.218348e-09	1.304113e+01	1.455913e+02
1.210000e-06	1.925882e-06	2.295983e-09	1.331990e+01	1.506820e+02
1.220000e-06	1.965642e-06	2.368505e-09	1.359489e+01	1.554763e+02
1.230000e-06	2.004741e-06	2.435531e-09	1.386531e+01	1.599990e+02
1.240000e-06	2.043167e-06	2.498127e-09	1.413107e+01	1.642638e+02
1.250000e-06	2.080827e-06	2.557493e-09	1.439153e+01	1.682701e+02
1.260000e-06	2.117770e-06	2.613830e-09	1.464704e+01	1.720072e+02
1.270000e-06	2.154219e-06	2.664797e-09	1.489913e+01	1.754663e+02
1.280000e-06	2.190064e-06	2.711239e-09	1.514704e+01	1.786557e+02
1.290000e-06	2.224953e-06	2.755581e-09	1.538835e+01	1.816084e+02
1.300000e-06	2.258705e-06	2.796027e-09	1.562178e+01	1.843749e+02
1.310000e-06	2.291544e-06	2.832906e-09	1.584891e+01	1.870028e+02
1.320000e-06	2.323781e-06	2.866668e-09	1.607186e+01	1.895133e+02
1.330000e-06	2.355273e-06	2.900219e-09	1.628967e+01	1.918918e+02
1.340000e-06	2.385918e-06	2.933977e-09	1.650162e+01	1.940997e+02
1.350000e-06	2.415776e-06	2.965478e-09	1.670813e+01	1.961038e+02
1.360000e-06	2.444876e-06	2.993794e-09	1.690939e+01	1.979055e+02
1.370000e-06	2.473357e-06	3.018663e-09	1.710637e+01	1.995485e+02
1.380000e-06	2.501021e-06	3.041440e-09	1.729771e+01	2.011005e+02
1.390000e-06	2.527437e-06	3.062553e-09	1.748041e+01	2.026178e+02
1.400000e-06	2.552657e-06	3.082073e-09	1.765483e+01	2.041162e+02
1.410000e-06	2.577010e-06	3.102030e-09	1.782326e+01	2.055683e+02
1.420000e-06	2.600523e-06	3.123591e-09	1.798588e+01	2.069267e+02
1.430000e-06	2.623135e-06	3.143603e-09	1.814227e+01	2.081578e+02
1.440000e-06	2.644839e-06	3.161320e-09	1.829239e+01	2.092622e+02
1.450000e-06	2.665737e-06	3.178906e-09	1.843692e+01	2.102685e+02
1.460000e-06	2.685898e-06	3.194947e-09	1.857636e+01	2.112087e+02
1.470000e-06	2.705119e-06	3.207561e-09	1.870930e+01	2.120958e+02
1.480000e-06	2.723332e-06	3.218744e-09	1.883526e+01	2.129210e+02
1.490000e-06	2.740648e-06	3.230791e-09	1.895502e+01	2.136710e+02
1.500000e-06	2.756982e-06	3.244119e-09	1.906800e+01	2.143490e+02
1.510000e-06	2.772205e-06	3.256041e-09	1.917328e+01	2.149800e+02
1.520000e-06	2.786382e-06	3.265471e-09	1.927133e+01	2.155933e+02
1.530000e-06	2.799558e-06	3.274738e-09	1.936246e+01	2.161971e+02
1.540000e-06	2.811630e-06	3.284300e-09	1.944595e+01	2.167679e+02
1.550000e-06	2.822442e-06	3.292408e-09	1.952073e+01	2.172653e+02
1.560000e-06	2.831996e-06	3.298366e-09	1.958681e+01	2.176646e+02
1.570000e-06	2.840524e-06	3.304692e-09	1.964580e+01	2.179797e+02
1.580000e-06	2.848162e-06	3.312115e-09	1.969862e+01	2.182556e+02
1.590000e-06	2.854823e-06	3.319491e-09	1.974469e+01	2.185341e+02
1.600000e-06	2.860462e-06	3.324459e-09	1.978369e+01	2.188182e+02
1.610000e-06	2.865257e-06	3.325784e-09	1.981686e+01	2.190661e+02
1.620000e-06	2.869244e-06	3.327079e-09	1.984443e+01	2.192235e+02
1.630000e-06	2.872067e-06	3.330532e-09	1.986395e+01	2.192716e+02
1.640000e-06	2.873613e-06	3.334181e-09	1.987464e+01	2.192506e+02
1.650000e-06	2.874170e-06	3.337798e-09	1.987850e+01	2.192353e+02
1.660000e-06	2.873806e-06	3.339009e-09	1.987598e+01	2.192755e+02
1.670000e-06	2.872531e-06	3.335352e-09	1.986717e+01	2.193468e+02
1.680000e-06	2.870419e-06	3.330881e-09	1.985255e+01	2.193553e+02
1.690000e-06	2.867492e-06	3.326219e-09	1.983231e+01	2.192025e+02
1.700000e-06	2.863814e-06	3.322428e-09	1.980687e+01	2.188660e+02
1.710000e-06	2.859107e-06	3.322976e-09	1.977431e+01	2.184339e+02
1.720000e-06	2.853134e-06	3.330624e-09	1.973301e+01	2.180557e+02
1.730000e-06	2.846113e-06	3.323428e-09	1.968445e+01	2.178349e+02
1.740000e-06	2.838259e-06	3.253336e-09	1.963013e+01	2.177379e+02
1.750000e-06	2.829167e-06	3.233988e-09	1.956725e+01	2.175925e+02
1.760000e-06	2.818412e-06	3.335787e-09	1.949286e+01	2.171915e+02
1.770000e-06	2.806623e-06	3.382518e-09	1.941132e+01	2.164391e+02
1.780000e-06	2.794701e-06	3.274038e-09	1.932887e+01	2.154383e+02
1.790000e-06	2.782194e-06	3.179963e-09	1.924237e+01	2.144476e+02
1.800000e-06	2.768023e-06	3.316067e-09	1.914436e+01	2.137250e+02
1.810000e-06	2.752526e-06	3.248289e-09	1.903718e+01	2.133569e+02
1.820000e-06	2.736551e-06	3.114084e-09	1.892669e+01	2.131915e+02
1.830000e-06	2.719619e-06	3.291092e-09	1.880958e+01	2.129296e+02
1.840000e-06	2.701263e-06	3.343728e-09	1.868263e+01	2.123198e+02
1.850000e-06	2.682158e-06	3.146366e-09	1.855049e+01	2.113283e+02
1.860000e-06	2.662403e-06	3.187146e-09	1.841386e+01	2.101651e+02
1.870000e-06	2.641322e-06	3.335825e-09	1.826806e+01	2.091436e+02
1.880000e-06	2.619106e-06	3.129006e-09	1.811441e+01	2.084655e+02
1.890000e-06	2.596009e-06	3.047454e-09	1.795467e+01	2.080773e+02
1.900000e-06	2.571838e-06	3.232914e-09	1.778749e+01	2.076990e+02
1.910000e-06	2.546902e-06	3.193433e-09	1.761503e+01	2.070085e+02
1.920000e-06	2.521287e-06	3.120539e-09	1.743787e+01	2.058586e+02
1.930000e-06	2.494727e-06	3.149159e-09	1.725417e+01	2.043768e+02
1.940000e-06	2.467469e-06	3.067843e-09	1.706565e+01	2.028822e+02
1.950000e-06	2.439501e-06	3.116922e-09	1.687222e+01	2.016726e+02
1.960000e-06	2.410249e-06	3.106048e-09	1.666990e+01	2.008284e+02
1.970000e-06	2.379801e-06	2.962372e-09	1.645932e+01	2.001635e+02
1.980000e-06	2.348635e-06	3.038760e-09	1.624376e+01	1.993536e+02
1.990000e-06	2.316823e-06	3.085238e-09	1.602375e+01	1.981525e+02
2.000000e-06	2.284252e-06	2.977993e-09	1.579848e+01	1.965504e+02
2.010000e-06	2.250768e-06	3.015416e-09	1.556689e+01	1.947706e+02
2.020000e-06	2.216480e-06	2.974574e-09	1.532974e+01	1.931155e+02
2.030000e-06	2.181621e-06	2.874731e-09	1.508865e+01	1.917699e+02
2.040000e-06	2.146156e-06	2.948976e-09	1.484337e+01	1.906944e+02
2.050000e-06	2.109979e-06	2.898429e-09	1.459316e+01	1.896699e+02
2.060000e-06	2.072887e-06	2.816778e-09	1.433662e+01	1.884537e+02
2.070000e-06	2.034676e-06	2.879462e-09	1.407234e+01	1.869329e+02
2.080000e-06	1.995613e-06	2.863528e-09	1.380217e+01	1.851768e+02
2.090000e-06	1.956024e-06	2.810148e-09	1.352836e+01	1.833638e+02
2.100000e-06	1.915867e-06	2.780662e-09	1.325063e+01	1.816488e+02
2.110000e-06	1.875023e-06	2.722683e-09	1.296814e+01	1.800650e+02
2.120000e-06	1.833521e-06	2.720206e-09	1.268110e+01	1.785259e+02
2.130000e-06	1.791473e-06	2.718571e-09	1.239029e+01	1.769078e+02
2.140000e-06	1.748825e-06	2.680390e-09	1.209532e+01	1.751465e+02
2.150000e-06	1.705604e-06	2.659735e-09	1.179640e+01	1.732738e+02
2.160000e-06	1.661994e-06	2.626551e-09	1.149478e+01	1.713759e+02
2.170000e-06	1.617869e-06	2.603109e-09	1.118960e+01	1.695136e+02
2.180000e-06	1.573050e-06	2.565888e-09	1.087962e+01	1.676703e+02
2.190000e-06	1.527578e-06	2.523929e-09	1.056512e+01	1.657665e+02
2.200000e-06	1.481509e-06	2.506269e-09	1.024650e+01	1.637259e+02
2.210000e-06	1.435074e-06	2.483299e-09	9.925343e+00	1.615393e+02
2.220000e-06	1.388244e-06	2.462381e-09	9.601453e+00	1.592753e+02
2.230000e-06	1.340842e-06	2.414946e-09	9.273605e+00	1.570323e+02
2.240000e-06	1.292857e-06	2.361604e-09	8.941730e+00	1.548677e+02
2.250000e-06	1.244311e-06	2.340059e-09	8.605974e+00	1.527575e+02
2.260000e-06	1.195317e-06	2.313397e-09	8.267119e+00	1.506154e+02
2.270000e-06	1.145930e-06	2.277095e-09	7.925548e+00	1.483539e+02
2.280000e-06	1.096179e-06	2.242038e-09	7.581455e+00	1.459412e+02
2.290000e-06	1.046066e-06	2.200935e-09	7.234858e+00	1.434140e+02
2.300000e-06	9.954550e-07	2.172832e-09	6.884822e+00	1.408407e+02
2.310000e-06	9.444070e-07	2.133199e-09	6.531762e+00	1.382670e+02
2.320000e-06	8.930914e-07	2.078413e-09	6.176850e+00	1.356856e+02
2.330000e-06	8.415463e-07	2.040542e-09	5.820350e+00	1.330512e+02
2.340000e-06	7.896673e-07	2.005865e-09	5.461542e+00	1.303237e+02
2.350000e-06	7.373437e-07	1.969365e-09	5.099658e+00	1.275051e+02
2.360000e-06	6.846322e-07	1.920682e-09	4.735092e+00	1.246378e+02
2.370000e-06	6.314975e-07	1.872254e-09	4.367599e+00	1.217675e+02
2.380000e-06	5.779818e-07	1.834156e-09	3.997470e+00	1.188998e+02
2.390000e-06	5.241428e-07	1.793099e-09	3.625106e+00	1.159852e+02
2.400000e-06	4.699661e-07	1.747259e-09	3.250406e+00	1.129475e+02
2.410000e-06	4.155325e-07	1.695033e-09	2.873930e+00	1.097356e+02
2.420000e-06	3.609390e-07	1.645007e-09	2.496347e+00	1.063629e+02
2.430000e-06	3.061688e-07	1.596942e-09	2.117542e+00	1.029034e+02
2.440000e-06	2.512491e-07	1.543659e-09	1.737704e+00	9.944702e+01
2.450000e-06	1.962402e-07	1.488347e-09	1.357248e+00	9.604078e+01
2.460000e-06	1.411826e-07	1.435503e-09	9.764548e-01	9.265644e+01
2.470000e-06	8.610390e-08	1.384869e-09	5.955167e-01	8.920472e+01
2.480000e-06	3.100287e-08	1.333653e-09	2.144238e-01	8.558748e+01
2.490000e-06	-2.411382e-08	1.274160e-09	-1.667774e-01	8.175508e+01
2.500000e-06	-7.923418e-08	1.210253e-09	-5.480039e-01	7.773407e+01
2.510000e-06	-1.343112e-07	1.148352e-09	-9.289305e-01	7.360986e+01
2.520000e-06	-1.893598e-07	1.086149e-09	-1.309661e+00	6.947651e+01
2.530000e-06	-2.443215e-07	1.024006e-09	-1.689791e+00	6.538364e+01
2.540000e-06	-2.992037e-07	9.592286e-10	-2.069370e+00	6.130992e+01
2.550000e-06	-3.539880e-07	8.974889e-10	-2.448272e+00	5.717507e+01
2.560000e-06	-4.085781e-07	8.357178e-10	-2.825831e+00	5.288076e+01
2.570000e-06	-4.630052e-07	7.660713e-10	-3.202263e+00	4.835639e+01
2.580000e-06	-5.171788e-07	6.913885e-10	-3.576942e+00	4.358650e+01
2.590000e-06	-5.709895e-07	6.150214e-10	-3.949110e+00	3.860823e+01
2.600000e-06	-6.244088e-07	5.378847e-10	-4.318571e+00	3.348352e+01
2.610000e-06	-6.774369e-07	4.588388e-10	-4.685328e+00	2.826240e+01
2.620000e-06	-7.300779e-07	3.776538e-10	-5.049406e+00	2.295565e+01
2.630000e-06	-7.822991e-07	2.933609e-10	-5.410581e+00	1.752871e+01
2.640000e-06	-8.341689e-07	2.082232e-10	-5.769326e+00	1.191724e+01
2.650000e-06	-8.857865e-07	1.217174e-10	-6.126327e+00	6.054582e+00
2.660000e-06	-9.371114e-07	3.028159e-11	-6.481303e+00	-1.030779e-01
2.670000e-06	-9.880976e-07	-6.896953e-11	-6.833937e+00	-6.565244e+00
2.680000e-06	-1.038731e-06	-1.729849e-10	-7.184132e+00	-1.331261e+01
2.690000e-06	-1.088920e-06	-2.782990e-10	-7.531252e+00	-2.031364e+01
2.700000e-06	-1.138681e-06	-3.875540e-10	-7.875413e+00	-2.754140e+01
2.710000e-06	-1.188078e-06	-5.022791e-10	-8.217051e+00	-3.498089e+01
2.720000e-06	-1.237015e-06	-6.210071e-10	-8.555517e+00	-4.262408e+01
2.730000e-06	-1.285327e-06	-7.396811e-10	-8.889652e+00	-5.045691e+01
2.740000e-06	-1.332862e-06	-8.600006e-10	-9.218413e+00	-5.844707e+01
2.750000e-06	-1.379642e-06	-9.841210e-10	-9.541956e+00	-6.653957e+01
2.760000e-06	-1.425909e-06	-1.109684e-09	-9.861950e+00	-7.466168e+01
2.770000e-06	-1.471815e-06	-1.232723e-09	-1.017945e+01	-8.273372e+01
2.780000e-06	-1.517368e-06	-1.353544e-09	-1.049451e+01	-9.067952e+01
2.790000e-06	-1.562504e-06	-1.472248e-09	-1.080668e+01	-9.843252e+01
2.800000e-06	-1.607086e-06	-1.587965e-09	-1.111502e+01	-1.059374e+02
2.810000e-06	-1.651071e-06	-1.700598e-09	-1.141923e+01	-1.131491e+02
2.820000e-06	-1.694610e-06	-1.808034e-09	-1.172036e+01	-1.200324e+02
2.830000e-06	-1.737764e-06	-1.909185e-09	-1.201882e+01	-1.265631e+02
2.840000e-06	-1.780428e-06	-2.003321e-09	-1.231390e+01	-1.327289e+02
2.850000e-06	-1.822476e-06	-2.092786e-09	-1.260471e+01	-1.385307e+02
2.860000e-06	-1.863862e-06	-2.175926e-09	-1.289095e+01	-1.439819e+02
2.870000e-06	-1.904582e-06	-2.252147e-09	-1.317258e+01	-1.491057e+02
2.880000e-06	-1.944661e-06	-2.324832e-09	-1.344977e+01	-1.539301e+02
2.890000e-06	-1.984240e-06	-2.395964e-09	-1.372351e+01	-1.584806e+02
2.900000e-06	-2.023284e-06	-2.465372e-09	-1.399355e+01	-1.627725e+02
2.910000e-06	-2.061513e-06	-2.531900e-09	-1.425795e+01	-1.668066e+02
2.920000e-06	-2.098657e-06	-2.592867e-09	-1.451485e+01	-1.705727e+02
2.930000e-06	-2.134823e-06	-2.646870e-09	-1.476498e+01	-1.740612e+02
2.940000e-06	-2.170304e-06	-2.696132e-09	-1.501038e+01	-1.772781e+02
