# Temperatura_=_16.64
# Concentracion g/m^3_=_15500.0
# C_Vs_to_Am_M_A/Vsm_=_65563218390.804596
# pendiente_HvsI_1/m_=_3716.3
# ordenada_HvsI_A/m_=_1297.0
# frecuencia_Hz_=_301003.7956742952

Tiempo_(s)	Campo_(V.s)	Magnetizacion_(V.s)	Campo_(kA/m)	Magnetizacion_(A/m)
0.000000e+00	-2.862881e-06	-3.092774e-09	-1.978021e+01	-2.020710e+02
1.000000e-08	-2.862013e-06	-3.091957e-09	-1.977422e+01	-2.020384e+02
2.000000e-08	-2.860137e-06	-3.090323e-09	-1.976125e+01	-2.019463e+02
3.000000e-08	-2.856998e-06	-3.088751e-09	-1.973957e+01	-2.017337e+02
4.000000e-08	-2.852821e-06	-3.086007e-09	-1.971071e+01	-2.013954e+02
5.000000e-08	-2.847865e-06	-3.080491e-09	-1.967647e+01	-2.010086e+02
6.000000e-08	-2.842057e-06	-3.070764e-09	-1.963634e+01	-2.006909e+02
7.000000e-08	-2.835268e-06	-3.062075e-09	-1.958943e+01	-2.005119e+02
8.000000e-08	-2.827468e-06	-3.094317e-09	-1.953554e+01	-2.004226e+02
9.000000e-08	-2.818514e-06	-3.127059e-09	-1.947367e+01	-2.002618e+02
1.000000e-07	-2.808092e-06	-3.086441e-09	-1.940167e+01	-1.998523e+02
1.100000e-07	-2.796340e-06	-2.959554e-09	-1.932047e+01	-1.991277e+02
1.200000e-07	-2.783815e-06	-2.981696e-09	-1.923393e+01	-1.982015e+02
1.300000e-07	-2.770511e-06	-3.093454e-09	-1.914201e+01	-1.973206e+02
1.400000e-07	-2.756166e-06	-3.026546e-09	-1.904290e+01	-1.967208e+02
1.500000e-07	-2.740834e-06	-2.939967e-09	-1.893697e+01	-1.964744e+02
1.600000e-07	-2.724288e-06	-3.053210e-09	-1.882265e+01	-1.964342e+02
1.700000e-07	-2.706402e-06	-3.070483e-09	-1.869907e+01	-1.963147e+02
1.800000e-07	-2.687700e-06	-2.894552e-09	-1.856986e+01	-1.958656e+02
1.900000e-07	-2.668372e-06	-2.964927e-09	-1.843631e+01	-1.950231e+02
2.000000e-07	-2.648123e-06	-3.015087e-09	-1.829641e+01	-1.939399e+02
2.100000e-07	-2.626920e-06	-2.847605e-09	-1.814991e+01	-1.928755e+02
2.200000e-07	-2.604978e-06	-2.900756e-09	-1.799832e+01	-1.920222e+02
2.300000e-07	-2.582176e-06	-3.036543e-09	-1.784077e+01	-1.913834e+02
2.400000e-07	-2.558374e-06	-2.906581e-09	-1.767632e+01	-1.907851e+02
2.500000e-07	-2.533830e-06	-2.837185e-09	-1.750674e+01	-1.900067e+02
2.600000e-07	-2.508375e-06	-2.885082e-09	-1.733087e+01	-1.889370e+02
2.700000e-07	-2.481727e-06	-2.848563e-09	-1.714674e+01	-1.876471e+02
2.800000e-07	-2.454041e-06	-2.829436e-09	-1.695546e+01	-1.863343e+02
2.900000e-07	-2.425451e-06	-2.824571e-09	-1.675792e+01	-1.851806e+02
3.000000e-07	-2.396005e-06	-2.780054e-09	-1.655448e+01	-1.842285e+02
3.100000e-07	-2.365831e-06	-2.805541e-09	-1.634600e+01	-1.833588e+02
3.200000e-07	-2.334992e-06	-2.819850e-09	-1.613293e+01	-1.823807e+02
3.300000e-07	-2.303380e-06	-2.725091e-09	-1.591451e+01	-1.811664e+02
3.400000e-07	-2.271081e-06	-2.715881e-09	-1.569135e+01	-1.797332e+02
3.500000e-07	-2.238210e-06	-2.712367e-09	-1.546424e+01	-1.782222e+02
3.600000e-07	-2.204476e-06	-2.683475e-09	-1.523116e+01	-1.767927e+02
3.700000e-07	-2.169516e-06	-2.699868e-09	-1.498962e+01	-1.755142e+02
3.800000e-07	-2.133518e-06	-2.659943e-09	-1.474090e+01	-1.743276e+02
3.900000e-07	-2.096936e-06	-2.608457e-09	-1.448815e+01	-1.730986e+02
4.000000e-07	-2.059782e-06	-2.629808e-09	-1.423144e+01	-1.717148e+02
4.100000e-07	-2.021875e-06	-2.615214e-09	-1.396954e+01	-1.701571e+02
4.200000e-07	-1.983223e-06	-2.539347e-09	-1.370248e+01	-1.684973e+02
4.300000e-07	-1.943815e-06	-2.523610e-09	-1.343021e+01	-1.668342e+02
4.400000e-07	-1.903727e-06	-2.525990e-09	-1.315323e+01	-1.652214e+02
4.500000e-07	-1.863216e-06	-2.508080e-09	-1.287333e+01	-1.636405e+02
4.600000e-07	-1.822283e-06	-2.470747e-09	-1.259052e+01	-1.620317e+02
4.700000e-07	-1.780534e-06	-2.432045e-09	-1.230207e+01	-1.603511e+02
4.800000e-07	-1.737683e-06	-2.402690e-09	-1.200600e+01	-1.586039e+02
4.900000e-07	-1.693900e-06	-2.389753e-09	-1.170350e+01	-1.568300e+02
5.000000e-07	-1.649585e-06	-2.368758e-09	-1.139731e+01	-1.550569e+02
5.100000e-07	-1.604908e-06	-2.321420e-09	-1.108863e+01	-1.532649e+02
5.200000e-07	-1.559745e-06	-2.295518e-09	-1.077659e+01	-1.513954e+02
5.300000e-07	-1.514000e-06	-2.280044e-09	-1.046053e+01	-1.493977e+02
5.400000e-07	-1.467679e-06	-2.249651e-09	-1.014049e+01	-1.472781e+02
5.500000e-07	-1.420823e-06	-2.197561e-09	-9.816748e+00	-1.451074e+02
5.600000e-07	-1.373429e-06	-2.157624e-09	-9.489292e+00	-1.429768e+02
5.700000e-07	-1.325578e-06	-2.135586e-09	-9.158685e+00	-1.409315e+02
5.800000e-07	-1.277375e-06	-2.118769e-09	-8.825641e+00	-1.389313e+02
5.900000e-07	-1.228812e-06	-2.081930e-09	-8.490104e+00	-1.368693e+02
6.000000e-07	-1.179839e-06	-2.032931e-09	-8.151741e+00	-1.346395e+02
6.100000e-07	-1.130285e-06	-2.000450e-09	-7.809365e+00	-1.322064e+02
6.200000e-07	-1.079967e-06	-1.969383e-09	-7.461707e+00	-1.296302e+02
6.300000e-07	-1.028964e-06	-1.930989e-09	-7.109319e+00	-1.270284e+02
6.400000e-07	-9.774398e-07	-1.879703e-09	-6.753327e+00	-1.245006e+02
6.500000e-07	-9.254528e-07	-1.838444e-09	-6.394138e+00	-1.220671e+02
6.600000e-07	-8.731226e-07	-1.811460e-09	-6.032579e+00	-1.196598e+02
6.700000e-07	-8.205735e-07	-1.781764e-09	-5.669506e+00	-1.171689e+02
6.800000e-07	-7.677805e-07	-1.734727e-09	-5.304748e+00	-1.145124e+02
6.900000e-07	-7.146812e-07	-1.683730e-09	-4.937875e+00	-1.116815e+02
7.000000e-07	-6.612538e-07	-1.645535e-09	-4.568734e+00	-1.087373e+02
7.100000e-07	-6.075672e-07	-1.605877e-09	-4.197803e+00	-1.057652e+02
7.200000e-07	-5.537052e-07	-1.555647e-09	-3.825660e+00	-1.028211e+02
7.300000e-07	-4.996841e-07	-1.500016e-09	-3.452417e+00	-9.990325e+01
7.400000e-07	-4.455028e-07	-1.455176e-09	-3.078068e+00	-9.696319e+01
7.500000e-07	-3.911699e-07	-1.415592e-09	-2.702671e+00	-9.394291e+01
7.600000e-07	-3.367465e-07	-1.369948e-09	-2.326649e+00	-9.081085e+01
7.700000e-07	-2.822534e-07	-1.314745e-09	-1.950145e+00	-8.757496e+01
7.800000e-07	-2.277068e-07	-1.262734e-09	-1.573272e+00	-8.426884e+01
7.900000e-07	-1.730828e-07	-1.217665e-09	-1.195863e+00	-8.092435e+01
8.000000e-07	-1.183842e-07	-1.166996e-09	-8.179403e-01	-7.754976e+01
8.100000e-07	-6.366904e-08	-1.109175e-09	-4.399021e-01	-7.412577e+01
8.200000e-07	-8.964512e-09	-1.050634e-09	-6.193760e-02	-7.061960e+01
8.300000e-07	4.575879e-08	-9.999239e-10	3.161566e-01	-6.700658e+01
8.400000e-07	1.004885e-07	-9.485460e-10	6.942954e-01	-6.328677e+01
8.500000e-07	1.551348e-07	-8.909416e-10	1.071857e+00	-5.948739e+01
8.600000e-07	2.097133e-07	-8.283819e-10	1.448951e+00	-5.564977e+01
8.700000e-07	2.642823e-07	-7.698232e-10	1.825979e+00	-5.180675e+01
8.800000e-07	3.188025e-07	-7.158680e-10	2.202670e+00	-4.796112e+01
8.900000e-07	3.732134e-07	-6.565189e-10	2.578606e+00	-4.407671e+01
9.000000e-07	4.275256e-07	-5.922973e-10	2.953860e+00	-4.008877e+01
9.100000e-07	4.817263e-07	-5.290877e-10	3.328343e+00	-3.593177e+01
9.200000e-07	5.357482e-07	-4.682729e-10	3.701591e+00	-3.157174e+01
9.300000e-07	5.895535e-07	-4.010639e-10	4.073343e+00	-2.702587e+01
9.400000e-07	6.431190e-07	-3.273353e-10	4.443438e+00	-2.235567e+01
9.500000e-07	6.964087e-07	-2.521575e-10	4.811626e+00	-1.763442e+01
9.600000e-07	7.494311e-07	-1.820261e-10	5.177969e+00	-1.290481e+01
9.700000e-07	8.021856e-07	-1.139129e-10	5.542461e+00	-8.151062e+00
9.800000e-07	8.546793e-07	-3.959371e-11	5.905149e+00	-3.302698e+00
9.900000e-07	9.068981e-07	3.991462e-11	6.265940e+00	1.730662e+00
1.000000e-06	9.587836e-07	1.205754e-10	6.624427e+00	7.013144e+00
1.010000e-06	1.010209e-06	2.019209e-10	6.979734e+00	1.255194e+01
1.020000e-06	1.061078e-06	2.889479e-10	7.331199e+00	1.829931e+01
1.030000e-06	1.111320e-06	3.809137e-10	7.678334e+00	2.418433e+01
1.040000e-06	1.160846e-06	4.754313e-10	8.020520e+00	3.015348e+01
1.050000e-06	1.209789e-06	5.673866e-10	8.358675e+00	3.619546e+01
1.060000e-06	1.258341e-06	6.589544e-10	8.694128e+00	4.233714e+01
1.070000e-06	1.306605e-06	7.540474e-10	9.027594e+00	4.861655e+01
1.080000e-06	1.354552e-06	8.525329e-10	9.358867e+00	5.505135e+01
1.090000e-06	1.402029e-06	9.505944e-10	9.686897e+00	6.162138e+01
1.100000e-06	1.448975e-06	1.049451e-09	1.001126e+01	6.827206e+01
1.110000e-06	1.495393e-06	1.153213e-09	1.033197e+01	7.493204e+01
1.120000e-06	1.541307e-06	1.256852e-09	1.064920e+01	8.153227e+01
1.130000e-06	1.586697e-06	1.355450e-09	1.096280e+01	8.801695e+01
1.140000e-06	1.631579e-06	1.448041e-09	1.127291e+01	9.434527e+01
1.150000e-06	1.676090e-06	1.539369e-09	1.158044e+01	1.004888e+02
1.160000e-06	1.720225e-06	1.629201e-09	1.188537e+01	1.064295e+02
1.170000e-06	1.763777e-06	1.714601e-09	1.218629e+01	1.121584e+02
1.180000e-06	1.806417e-06	1.796899e-09	1.248090e+01	1.176741e+02
1.190000e-06	1.848003e-06	1.877776e-09	1.276822e+01	1.229776e+02
1.200000e-06	1.888804e-06	1.956027e-09	1.305012e+01	1.280674e+02
1.210000e-06	1.929117e-06	2.029740e-09	1.332865e+01	1.329374e+02
1.220000e-06	1.968908e-06	2.098052e-09	1.360358e+01	1.375809e+02
1.230000e-06	2.007999e-06	2.162399e-09	1.387366e+01	1.419955e+02
1.240000e-06	2.046423e-06	2.224846e-09	1.413914e+01	1.461857e+02
1.250000e-06	2.084188e-06	2.284472e-09	1.440007e+01	1.501577e+02
1.260000e-06	2.121210e-06	2.338646e-09	1.465586e+01	1.539116e+02
1.270000e-06	2.157656e-06	2.387877e-09	1.490768e+01	1.574375e+02
1.280000e-06	2.193513e-06	2.434665e-09	1.515542e+01	1.607221e+02
1.290000e-06	2.228438e-06	2.479456e-09	1.539672e+01	1.637627e+02
1.300000e-06	2.262257e-06	2.519096e-09	1.563038e+01	1.665784e+02
1.310000e-06	2.295117e-06	2.553984e-09	1.585742e+01	1.692093e+02
1.320000e-06	2.327276e-06	2.588120e-09	1.607961e+01	1.717004e+02
1.330000e-06	2.358770e-06	2.624131e-09	1.629721e+01	1.740805e+02
1.340000e-06	2.389504e-06	2.658893e-09	1.650956e+01	1.763501e+02
1.350000e-06	2.419445e-06	2.689870e-09	1.671643e+01	1.784872e+02
1.360000e-06	2.448558e-06	2.717744e-09	1.691758e+01	1.804677e+02
1.370000e-06	2.476966e-06	2.743682e-09	1.711385e+01	1.822864e+02
1.380000e-06	2.504620e-06	2.768052e-09	1.730492e+01	1.839632e+02
1.390000e-06	2.531112e-06	2.789629e-09	1.748796e+01	1.855326e+02
1.400000e-06	2.556367e-06	2.809711e-09	1.766245e+01	1.870255e+02
1.410000e-06	2.580660e-06	2.830148e-09	1.783029e+01	1.884559e+02
1.420000e-06	2.604110e-06	2.850385e-09	1.799231e+01	1.898224e+02
1.430000e-06	2.626744e-06	2.869637e-09	1.814870e+01	1.911187e+02
1.440000e-06	2.648502e-06	2.888771e-09	1.829903e+01	1.923419e+02
1.450000e-06	2.669402e-06	2.907256e-09	1.844343e+01	1.934905e+02
1.460000e-06	2.689589e-06	2.924456e-09	1.858291e+01	1.945568e+02
1.470000e-06	2.708886e-06	2.938532e-09	1.871623e+01	1.955236e+02
1.480000e-06	2.727135e-06	2.949688e-09	1.884232e+01	1.963743e+02
1.490000e-06	2.744397e-06	2.960564e-09	1.896159e+01	1.971129e+02
1.500000e-06	2.760600e-06	2.972741e-09	1.907354e+01	1.977755e+02
1.510000e-06	2.775719e-06	2.985535e-09	1.917800e+01	1.984198e+02
1.520000e-06	2.789823e-06	2.997009e-09	1.927544e+01	1.990934e+02
1.530000e-06	2.802922e-06	3.006947e-09	1.936595e+01	1.997996e+02
1.540000e-06	2.814948e-06	3.017188e-09	1.944904e+01	2.004877e+02
1.550000e-06	2.825714e-06	3.027255e-09	1.952342e+01	2.010800e+02
1.560000e-06	2.835197e-06	3.035017e-09	1.958894e+01	2.015203e+02
1.570000e-06	2.843699e-06	3.040645e-09	1.964769e+01	2.018123e+02
1.580000e-06	2.851303e-06	3.045739e-09	1.970022e+01	2.020183e+02
1.590000e-06	2.857938e-06	3.051318e-09	1.974606e+01	2.022183e+02
1.600000e-06	2.863642e-06	3.056359e-09	1.978547e+01	2.024564e+02
1.610000e-06	2.868478e-06	3.059009e-09	1.981889e+01	2.027147e+02
1.620000e-06	2.872422e-06	3.061200e-09	1.984614e+01	2.029332e+02
1.630000e-06	2.875158e-06	3.065889e-09	1.986504e+01	2.030595e+02
1.640000e-06	2.876612e-06	3.071123e-09	1.987509e+01	2.030896e+02
1.650000e-06	2.877106e-06	3.075025e-09	1.987850e+01	2.030667e+02
1.660000e-06	2.876741e-06	3.075288e-09	1.987598e+01	2.030382e+02
1.670000e-06	2.875462e-06	3.069893e-09	1.986714e+01	2.030079e+02
1.680000e-06	2.873274e-06	3.064628e-09	1.985202e+01	2.029254e+02
1.690000e-06	2.870236e-06	3.060606e-09	1.983103e+01	2.027273e+02
1.700000e-06	2.866483e-06	3.057267e-09	1.980510e+01	2.024000e+02
1.710000e-06	2.861803e-06	3.057351e-09	1.977277e+01	2.020127e+02
1.720000e-06	2.855882e-06	3.065048e-09	1.973186e+01	2.016825e+02
1.730000e-06	2.848912e-06	3.061996e-09	1.968370e+01	2.014886e+02
1.740000e-06	2.841079e-06	2.999553e-09	1.962958e+01	2.013958e+02
1.750000e-06	2.831967e-06	2.969134e-09	1.956662e+01	2.012519e+02
1.760000e-06	2.821220e-06	3.050593e-09	1.949237e+01	2.008750e+02
1.770000e-06	2.809423e-06	3.110228e-09	1.941086e+01	2.001818e+02
1.780000e-06	2.797494e-06	3.026118e-09	1.932845e+01	1.992667e+02
1.790000e-06	2.785043e-06	2.931131e-09	1.924242e+01	1.983680e+02
1.800000e-06	2.770894e-06	3.047160e-09	1.914466e+01	1.977306e+02
1.810000e-06	2.755330e-06	3.015411e-09	1.903712e+01	1.974497e+02
1.820000e-06	2.739247e-06	2.888817e-09	1.892601e+01	1.973997e+02
1.830000e-06	2.722222e-06	3.016979e-09	1.880837e+01	1.973027e+02
1.840000e-06	2.703813e-06	3.088417e-09	1.868118e+01	1.968960e+02
1.850000e-06	2.684642e-06	2.929386e-09	1.854873e+01	1.960916e+02
1.860000e-06	2.664851e-06	2.955757e-09	1.841199e+01	1.950221e+02
1.870000e-06	2.643796e-06	3.084160e-09	1.826651e+01	1.939438e+02
1.880000e-06	2.621570e-06	2.898033e-09	1.811295e+01	1.930639e+02
1.890000e-06	2.598443e-06	2.826898e-09	1.795316e+01	1.924080e+02
1.900000e-06	2.574238e-06	2.991883e-09	1.778592e+01	1.918164e+02
1.910000e-06	2.549262e-06	2.935100e-09	1.761336e+01	1.910655e+02
1.920000e-06	2.523634e-06	2.862358e-09	1.743629e+01	1.900266e+02
1.930000e-06	2.497039e-06	2.916889e-09	1.725254e+01	1.887520e+02
1.940000e-06	2.469708e-06	2.843379e-09	1.706370e+01	1.874313e+02
1.950000e-06	2.441671e-06	2.858710e-09	1.687000e+01	1.862554e+02
1.960000e-06	2.412387e-06	2.864364e-09	1.666766e+01	1.852848e+02
1.970000e-06	2.381947e-06	2.742750e-09	1.645735e+01	1.844151e+02
1.980000e-06	2.350745e-06	2.791942e-09	1.624177e+01	1.834568e+02
1.990000e-06	2.318814e-06	2.841294e-09	1.602115e+01	1.822696e+02
2.000000e-06	2.286152e-06	2.741919e-09	1.579548e+01	1.808546e+02
2.010000e-06	2.252662e-06	2.756387e-09	1.556409e+01	1.793434e+02
2.020000e-06	2.218363e-06	2.737209e-09	1.532711e+01	1.778996e+02
2.030000e-06	2.183455e-06	2.662405e-09	1.508593e+01	1.766054e+02
2.040000e-06	2.147919e-06	2.712278e-09	1.484040e+01	1.754148e+02
2.050000e-06	2.111643e-06	2.668607e-09	1.458976e+01	1.741968e+02
2.060000e-06	2.074442e-06	2.603102e-09	1.433273e+01	1.728323e+02
2.070000e-06	2.036094e-06	2.642523e-09	1.406778e+01	1.712909e+02
2.080000e-06	1.996957e-06	2.617068e-09	1.379737e+01	1.696370e+02
2.090000e-06	1.957325e-06	2.572070e-09	1.352355e+01	1.679704e+02
2.100000e-06	1.917009e-06	2.545674e-09	1.324500e+01	1.663518e+02
2.110000e-06	1.876074e-06	2.501414e-09	1.296217e+01	1.647699e+02
2.120000e-06	1.834615e-06	2.500935e-09	1.267572e+01	1.631668e+02
2.130000e-06	1.792520e-06	2.485867e-09	1.238488e+01	1.614945e+02
2.140000e-06	1.749786e-06	2.443127e-09	1.208962e+01	1.597527e+02
2.150000e-06	1.706546e-06	2.421061e-09	1.179087e+01	1.579796e+02
2.160000e-06	1.662923e-06	2.395290e-09	1.148946e+01	1.562063e+02
2.170000e-06	1.618793e-06	2.380568e-09	1.118457e+01	1.544187e+02
2.180000e-06	1.573968e-06	2.339201e-09	1.087486e+01	1.525604e+02
2.190000e-06	1.528468e-06	2.295745e-09	1.056049e+01	1.505773e+02
2.200000e-06	1.482425e-06	2.281348e-09	1.024237e+01	1.484682e+02
2.210000e-06	1.436002e-06	2.253612e-09	9.921624e+00	1.462984e+02
2.220000e-06	1.389185e-06	2.227669e-09	9.598153e+00	1.441599e+02
2.230000e-06	1.341788e-06	2.185619e-09	9.270683e+00	1.421056e+02
2.240000e-06	1.293685e-06	2.143441e-09	8.938328e+00	1.401048e+02
2.250000e-06	1.244988e-06	2.128373e-09	8.601868e+00	1.380552e+02
2.260000e-06	1.195901e-06	2.098594e-09	8.262719e+00	1.358466e+02
2.270000e-06	1.146500e-06	2.054512e-09	7.921395e+00	1.334339e+02
2.280000e-06	1.096714e-06	2.013664e-09	7.577414e+00	1.308677e+02
2.290000e-06	1.046446e-06	1.974598e-09	7.230101e+00	1.282628e+02
2.300000e-06	9.957155e-07	1.948059e-09	6.879597e+00	1.257243e+02
2.310000e-06	9.446173e-07	1.907678e-09	6.526550e+00	1.232826e+02
2.320000e-06	8.932778e-07	1.858244e-09	6.171835e+00	1.208774e+02
2.330000e-06	8.417132e-07	1.825469e-09	5.815565e+00	1.184004e+02
2.340000e-06	7.898058e-07	1.792419e-09	5.456926e+00	1.157633e+02
2.350000e-06	7.374033e-07	1.752657e-09	5.094866e+00	1.129490e+02
2.360000e-06	6.845260e-07	1.698649e-09	4.729526e+00	1.100127e+02
2.370000e-06	6.312332e-07	1.649563e-09	4.361316e+00	1.070399e+02
2.380000e-06	5.775183e-07	1.613822e-09	3.990189e+00	1.040918e+02
2.390000e-06	5.234848e-07	1.573458e-09	3.616861e+00	1.011728e+02
2.400000e-06	4.691531e-07	1.527379e-09	3.241472e+00	9.823795e+01
2.410000e-06	4.145803e-07	1.477772e-09	2.864418e+00	9.522835e+01
2.420000e-06	3.598801e-07	1.432954e-09	2.486484e+00	9.210845e+01
2.430000e-06	3.050003e-07	1.388224e-09	2.107308e+00	8.888221e+01
2.440000e-06	2.499578e-07	1.334944e-09	1.727008e+00	8.558172e+01
2.450000e-06	1.948595e-07	1.279753e-09	1.346323e+00	8.224033e+01
2.460000e-06	1.397487e-07	1.228797e-09	9.655515e-01	7.886936e+01
2.470000e-06	8.464259e-08	1.180135e-09	5.848125e-01	7.545207e+01
2.480000e-06	2.948989e-08	1.128966e-09	2.037515e-01	7.195609e+01
2.490000e-06	-2.569074e-08	1.070340e-09	-1.775025e-01	6.835493e+01
2.500000e-06	-8.081789e-08	1.011334e-09	-5.583869e-01	6.464558e+01
2.510000e-06	-1.359265e-07	9.550147e-10	-9.391432e-01	6.085272e+01
2.520000e-06	-1.910195e-07	8.967750e-10	-1.319792e+00	5.701717e+01
2.530000e-06	-2.460398e-07	8.375553e-10	-1.699938e+00	5.317382e+01
2.540000e-06	-3.009959e-07	7.771004e-10	-2.079641e+00	4.932943e+01
2.550000e-06	-3.558648e-07	7.208457e-10	-2.458741e+00	4.545184e+01
2.560000e-06	-4.105939e-07	6.621950e-10	-2.836875e+00	4.147830e+01
2.570000e-06	-4.651421e-07	5.950751e-10	-3.213760e+00	3.734172e+01
2.580000e-06	-5.194242e-07	5.249809e-10	-3.588805e+00	3.300348e+01
2.590000e-06	-5.733292e-07	4.552621e-10	-3.961246e+00	2.847506e+01
2.600000e-06	-6.268614e-07	3.851585e-10	-4.331110e+00	2.381442e+01
2.610000e-06	-6.800251e-07	3.141375e-10	-4.698429e+00	1.909562e+01
2.620000e-06	-7.327547e-07	2.430758e-10	-5.062748e+00	1.436643e+01
2.630000e-06	-7.850620e-07	1.698369e-10	-5.424150e+00	9.617779e+00
2.640000e-06	-8.369976e-07	9.458035e-11	-5.782984e+00	4.783812e+00
2.650000e-06	-8.886319e-07	1.708713e-11	-6.139735e+00	-2.259464e-01
2.660000e-06	-9.399876e-07	-6.429355e-11	-6.494562e+00	-5.480382e+00
2.670000e-06	-9.910483e-07	-1.487362e-10	-6.847350e+00	-1.099332e+01
2.680000e-06	-1.041781e-06	-2.342286e-10	-7.197871e+00	-1.672178e+01
2.690000e-06	-1.092093e-06	-3.209993e-10	-7.545490e+00	-2.259532e+01
2.700000e-06	-1.141931e-06	-4.101750e-10	-7.889828e+00	-2.855693e+01
2.710000e-06	-1.191342e-06	-5.034773e-10	-8.231217e+00	-3.459042e+01
2.720000e-06	-1.240381e-06	-5.982147e-10	-8.570042e+00	-4.071961e+01
2.730000e-06	-1.288824e-06	-6.924762e-10	-8.904739e+00	-4.698295e+01
2.740000e-06	-1.336464e-06	-7.905717e-10	-9.233895e+00	-5.340146e+01
2.750000e-06	-1.383364e-06	-8.923743e-10	-9.557940e+00	-5.995923e+01
2.760000e-06	-1.429586e-06	-9.929364e-10	-9.877294e+00	-6.660466e+01
2.770000e-06	-1.475395e-06	-1.090653e-09	-1.019380e+01	-7.326722e+01
2.780000e-06	-1.520922e-06	-1.189799e-09	-1.050835e+01	-7.987690e+01
2.790000e-06	-1.566030e-06	-1.291982e-09	-1.082001e+01	-8.637626e+01
2.800000e-06	-1.610581e-06	-1.391658e-09	-1.112783e+01	-9.272300e+01
2.810000e-06	-1.654538e-06	-1.486403e-09	-1.143153e+01	-9.888749e+01
2.820000e-06	-1.698070e-06	-1.578118e-09	-1.173230e+01	-1.048505e+02
2.830000e-06	-1.741215e-06	-1.668210e-09	-1.203040e+01	-1.106024e+02
2.840000e-06	-1.783848e-06	-1.754993e-09	-1.232496e+01	-1.161410e+02
2.850000e-06	-1.825880e-06	-1.836322e-09	-1.261537e+01	-1.214674e+02
2.860000e-06	-1.867302e-06	-1.911981e-09	-1.290156e+01	-1.265804e+02
2.870000e-06	-1.908100e-06	-1.985577e-09	-1.318345e+01	-1.314744e+02
2.880000e-06	-1.948252e-06	-2.059492e-09	-1.346086e+01	-1.361425e+02
2.890000e-06	-1.987826e-06	-2.130693e-09	-1.373429e+01	-1.405816e+02
2.900000e-06	-2.026854e-06	-2.197546e-09	-1.400394e+01	-1.447956e+02
2.910000e-06	-2.065086e-06	-2.261766e-09	-1.426809e+01	-1.487910e+02
2.920000e-06	-2.102274e-06	-2.324141e-09	-1.452503e+01	-1.525686e+02
2.930000e-06	-2.138491e-06	-2.381475e-09	-1.477526e+01	-1.561197e+02
2.940000e-06	-2.173980e-06	-2.432972e-09	-1.502046e+01	-1.594308e+02
