# Temperatura_=_22.15
# Concentracion g/m^3_=_15500.0
# C_Vs_to_Am_M_A/Vsm_=_65563218390.804596
# pendiente_HvsI_1/m_=_3716.3
# ordenada_HvsI_A/m_=_1297.0
# frecuencia_Hz_=_300994.1344407352

Tiempo_(s)	Campo_(V.s)	Magnetizacion_(V.s)	Campo_(kA/m)	Magnetizacion_(A/m)
0.000000e+00	-2.860362e-06	-3.238320e-09	-1.978161e+01	-2.109853e+02
1.000000e-08	-2.859342e-06	-3.238964e-09	-1.977455e+01	-2.110246e+02
2.000000e-08	-2.857360e-06	-3.239801e-09	-1.976085e+01	-2.110456e+02
3.000000e-08	-2.854100e-06	-3.240999e-09	-1.973830e+01	-2.109367e+02
4.000000e-08	-2.849778e-06	-3.240222e-09	-1.970841e+01	-2.106548e+02
5.000000e-08	-2.844693e-06	-3.234451e-09	-1.967324e+01	-2.102711e+02
6.000000e-08	-2.838770e-06	-3.223826e-09	-1.963228e+01	-2.099253e+02
7.000000e-08	-2.831880e-06	-3.225210e-09	-1.958463e+01	-2.097164e+02
8.000000e-08	-2.823957e-06	-3.258241e-09	-1.952984e+01	-2.096109e+02
9.000000e-08	-2.814850e-06	-3.284355e-09	-1.946686e+01	-2.094450e+02
1.000000e-07	-2.804276e-06	-3.213223e-09	-1.939373e+01	-2.090339e+02
1.100000e-07	-2.792427e-06	-3.118279e-09	-1.931179e+01	-2.083169e+02
1.200000e-07	-2.779825e-06	-3.155455e-09	-1.922463e+01	-2.074303e+02
1.300000e-07	-2.766438e-06	-3.254081e-09	-1.913205e+01	-2.066441e+02
1.400000e-07	-2.751993e-06	-3.175873e-09	-1.903215e+01	-2.061910e+02
1.500000e-07	-2.736505e-06	-3.110679e-09	-1.892504e+01	-2.061013e+02
1.600000e-07	-2.719849e-06	-3.225378e-09	-1.880985e+01	-2.061619e+02
1.700000e-07	-2.701907e-06	-3.177969e-09	-1.868577e+01	-2.060379e+02
1.800000e-07	-2.683101e-06	-3.061781e-09	-1.855572e+01	-2.054843e+02
1.900000e-07	-2.663684e-06	-3.116108e-09	-1.842143e+01	-2.045043e+02
2.000000e-07	-2.643374e-06	-3.112976e-09	-1.828097e+01	-2.033463e+02
2.100000e-07	-2.622136e-06	-3.011694e-09	-1.813409e+01	-2.023358e+02
2.200000e-07	-2.600139e-06	-3.075621e-09	-1.798196e+01	-2.016554e+02
2.300000e-07	-2.577239e-06	-3.166349e-09	-1.782359e+01	-2.012224e+02
2.400000e-07	-2.553335e-06	-3.069757e-09	-1.765828e+01	-2.007477e+02
2.500000e-07	-2.528649e-06	-2.992773e-09	-1.748756e+01	-1.999348e+02
2.600000e-07	-2.503126e-06	-3.018802e-09	-1.731105e+01	-1.986837e+02
2.700000e-07	-2.476505e-06	-3.001057e-09	-1.712694e+01	-1.971598e+02
2.800000e-07	-2.448764e-06	-2.981021e-09	-1.693509e+01	-1.956839e+02
2.900000e-07	-2.420060e-06	-2.960289e-09	-1.673658e+01	-1.945214e+02
3.000000e-07	-2.390510e-06	-2.932853e-09	-1.653222e+01	-1.937143e+02
3.100000e-07	-2.360226e-06	-2.970780e-09	-1.632278e+01	-1.930648e+02
3.200000e-07	-2.329295e-06	-2.949535e-09	-1.610887e+01	-1.922758e+02
3.300000e-07	-2.297622e-06	-2.875144e-09	-1.588983e+01	-1.911444e+02
3.400000e-07	-2.265234e-06	-2.855432e-09	-1.566584e+01	-1.896795e+02
3.500000e-07	-2.232206e-06	-2.851681e-09	-1.543743e+01	-1.880719e+02
3.600000e-07	-2.198354e-06	-2.839159e-09	-1.520331e+01	-1.865508e+02
3.700000e-07	-2.163373e-06	-2.840109e-09	-1.496139e+01	-1.852322e+02
3.800000e-07	-2.127353e-06	-2.802301e-09	-1.471229e+01	-1.840606e+02
3.900000e-07	-2.090647e-06	-2.764553e-09	-1.445843e+01	-1.828718e+02
4.000000e-07	-2.053338e-06	-2.779493e-09	-1.420042e+01	-1.815179e+02
4.100000e-07	-2.015302e-06	-2.751506e-09	-1.393736e+01	-1.799635e+02
4.200000e-07	-1.976494e-06	-2.686084e-09	-1.366898e+01	-1.782885e+02
4.300000e-07	-1.936953e-06	-2.668792e-09	-1.339552e+01	-1.766110e+02
4.400000e-07	-1.896799e-06	-2.680946e-09	-1.311783e+01	-1.749954e+02
4.500000e-07	-1.856225e-06	-2.658680e-09	-1.283723e+01	-1.734143e+02
4.600000e-07	-1.815212e-06	-2.617121e-09	-1.255359e+01	-1.717857e+02
4.700000e-07	-1.773433e-06	-2.576750e-09	-1.226466e+01	-1.700477e+02
4.800000e-07	-1.730625e-06	-2.549594e-09	-1.196861e+01	-1.682098e+02
4.900000e-07	-1.686873e-06	-2.534460e-09	-1.166603e+01	-1.663421e+02
5.000000e-07	-1.642513e-06	-2.506484e-09	-1.135924e+01	-1.645159e+02
5.100000e-07	-1.597823e-06	-2.467658e-09	-1.105018e+01	-1.627436e+02
5.200000e-07	-1.552676e-06	-2.441843e-09	-1.073795e+01	-1.609656e+02
5.300000e-07	-1.506913e-06	-2.427743e-09	-1.042146e+01	-1.590918e+02
5.400000e-07	-1.460578e-06	-2.390734e-09	-1.010102e+01	-1.570658e+02
5.500000e-07	-1.413703e-06	-2.340368e-09	-9.776845e+00	-1.549038e+02
5.600000e-07	-1.366363e-06	-2.301736e-09	-9.449456e+00	-1.526815e+02
5.700000e-07	-1.318570e-06	-2.283112e-09	-9.118925e+00	-1.504809e+02
5.800000e-07	-1.270285e-06	-2.262618e-09	-8.784999e+00	-1.483367e+02
5.900000e-07	-1.221624e-06	-2.222322e-09	-8.448471e+00	-1.462177e+02
6.000000e-07	-1.172614e-06	-2.179691e-09	-8.109532e+00	-1.440541e+02
6.100000e-07	-1.123055e-06	-2.146003e-09	-7.766788e+00	-1.417856e+02
6.200000e-07	-1.072788e-06	-2.115113e-09	-7.419158e+00	-1.393982e+02
6.300000e-07	-1.021930e-06	-2.074128e-09	-7.067433e+00	-1.369263e+02
6.400000e-07	-9.705218e-07	-2.026924e-09	-6.711906e+00	-1.344233e+02
6.500000e-07	-9.185653e-07	-1.985214e-09	-6.352587e+00	-1.319244e+02
6.600000e-07	-8.662958e-07	-1.957715e-09	-5.991103e+00	-1.294260e+02
6.700000e-07	-8.137850e-07	-1.926745e-09	-5.627951e+00	-1.268910e+02
6.800000e-07	-7.609995e-07	-1.878333e-09	-5.262898e+00	-1.242737e+02
6.900000e-07	-7.079126e-07	-1.829828e-09	-4.895761e+00	-1.215462e+02
7.000000e-07	-6.545214e-07	-1.791908e-09	-4.526520e+00	-1.187116e+02
7.100000e-07	-6.009131e-07	-1.753078e-09	-4.155778e+00	-1.157990e+02
7.200000e-07	-5.471027e-07	-1.701666e-09	-3.783637e+00	-1.128454e+02
7.300000e-07	-4.930655e-07	-1.647718e-09	-3.409928e+00	-1.098749e+02
7.400000e-07	-4.388557e-07	-1.601446e-09	-3.035025e+00	-1.068845e+02
7.500000e-07	-3.845527e-07	-1.561133e-09	-2.659478e+00	-1.038440e+02
7.600000e-07	-3.301676e-07	-1.513822e-09	-2.283363e+00	-1.007110e+02
7.700000e-07	-2.756948e-07	-1.457836e-09	-1.906642e+00	-9.745441e+01
7.800000e-07	-2.211482e-07	-1.404272e-09	-1.529410e+00	-9.407451e+01
7.900000e-07	-1.665170e-07	-1.355964e-09	-1.151593e+00	-9.060673e+01
8.000000e-07	-1.118154e-07	-1.303916e-09	-7.732895e-01	-8.710257e+01
8.100000e-07	-5.712148e-08	-1.244199e-09	-3.950391e-01	-8.359606e+01
8.200000e-07	-2.446995e-09	-1.186510e-09	-1.692286e-02	-8.007595e+01
8.300000e-07	5.222060e-08	-1.134897e-09	3.611457e-01	-7.648440e+01
8.400000e-07	1.068756e-07	-1.083385e-09	7.391269e-01	-7.274790e+01
8.500000e-07	1.615449e-07	-1.022950e-09	1.117207e+00	-6.882432e+01
8.600000e-07	2.161630e-07	-9.562506e-10	1.494934e+00	-6.473508e+01
8.700000e-07	2.706925e-07	-8.921366e-10	1.872047e+00	-6.055732e+01
8.800000e-07	3.251593e-07	-8.326267e-10	2.248727e+00	-5.637637e+01
8.900000e-07	3.795293e-07	-7.710289e-10	2.624737e+00	-5.222674e+01
9.000000e-07	4.337689e-07	-7.035456e-10	2.999846e+00	-4.806137e+01
9.100000e-07	4.878458e-07	-6.375458e-10	3.373830e+00	-4.377261e+01
9.200000e-07	5.417525e-07	-5.737370e-10	3.746636e+00	-3.925434e+01
9.300000e-07	5.954584e-07	-5.043846e-10	4.118054e+00	-3.446513e+01
9.400000e-07	6.489026e-07	-4.242154e-10	4.487662e+00	-2.945032e+01
9.500000e-07	7.020560e-07	-3.413591e-10	4.855259e+00	-2.430716e+01
9.600000e-07	7.549499e-07	-2.633227e-10	5.221060e+00	-1.911602e+01
9.700000e-07	8.076193e-07	-1.867333e-10	5.585310e+00	-1.388356e+01
9.800000e-07	8.600468e-07	-1.049461e-10	5.947887e+00	-8.535403e+00
9.900000e-07	9.121792e-07	-1.696069e-11	6.308422e+00	-2.961339e+00
1.000000e-06	9.638989e-07	7.283008e-11	6.666104e+00	2.918922e+00
1.010000e-06	1.015137e-06	1.645560e-10	7.020452e+00	9.113705e+00
1.020000e-06	1.065749e-06	2.602101e-10	7.370476e+00	1.556616e+01
1.030000e-06	1.115622e-06	3.625648e-10	7.715386e+00	2.220016e+01
1.040000e-06	1.164884e-06	4.691961e-10	8.056074e+00	2.897005e+01
1.050000e-06	1.213738e-06	5.760181e-10	8.393937e+00	3.588026e+01
1.060000e-06	1.262310e-06	6.823671e-10	8.729844e+00	4.296538e+01
1.070000e-06	1.310605e-06	7.930872e-10	9.063847e+00	5.024982e+01
1.080000e-06	1.358512e-06	9.073405e-10	9.395158e+00	5.771711e+01
1.090000e-06	1.405855e-06	1.019962e-09	9.722574e+00	6.530769e+01
1.100000e-06	1.452637e-06	1.132509e-09	1.004611e+01	7.294003e+01
1.110000e-06	1.498958e-06	1.247887e-09	1.036645e+01	8.053493e+01
1.120000e-06	1.544783e-06	1.365079e-09	1.068337e+01	8.802548e+01
1.130000e-06	1.590057e-06	1.478568e-09	1.099647e+01	9.535179e+01
1.140000e-06	1.634859e-06	1.586420e-09	1.130631e+01	1.024539e+02
1.150000e-06	1.679343e-06	1.688648e-09	1.161395e+01	1.092765e+02
1.160000e-06	1.723418e-06	1.785899e-09	1.191876e+01	1.157844e+02
1.170000e-06	1.766763e-06	1.878428e-09	1.221853e+01	1.219760e+02
1.180000e-06	1.809074e-06	1.966923e-09	1.251114e+01	1.278780e+02
1.190000e-06	1.850381e-06	2.052724e-09	1.279681e+01	1.335212e+02
1.200000e-06	1.891079e-06	2.135843e-09	1.307827e+01	1.389133e+02
1.210000e-06	1.931349e-06	2.215209e-09	1.335677e+01	1.440298e+02
1.220000e-06	1.971051e-06	2.288057e-09	1.363134e+01	1.488322e+02
1.230000e-06	2.010039e-06	2.354130e-09	1.390097e+01	1.533007e+02
1.240000e-06	2.048278e-06	2.414800e-09	1.416542e+01	1.574565e+02
1.250000e-06	2.085793e-06	2.470982e-09	1.442487e+01	1.613537e+02
1.260000e-06	2.122695e-06	2.523833e-09	1.468007e+01	1.650466e+02
1.270000e-06	2.159122e-06	2.574118e-09	1.493199e+01	1.685550e+02
1.280000e-06	2.194922e-06	2.621758e-09	1.517958e+01	1.718554e+02
1.290000e-06	2.229667e-06	2.666683e-09	1.541986e+01	1.749055e+02
1.300000e-06	2.263279e-06	2.706941e-09	1.565232e+01	1.776841e+02
1.310000e-06	2.296099e-06	2.741818e-09	1.587930e+01	1.802167e+02
1.320000e-06	2.328226e-06	2.773992e-09	1.610147e+01	1.825678e+02
1.330000e-06	2.359561e-06	2.805522e-09	1.631818e+01	1.848040e+02
1.340000e-06	2.390175e-06	2.836289e-09	1.652990e+01	1.869572e+02
1.350000e-06	2.420017e-06	2.866598e-09	1.673628e+01	1.890124e+02
1.360000e-06	2.449053e-06	2.895330e-09	1.693709e+01	1.909288e+02
1.370000e-06	2.477465e-06	2.920638e-09	1.713358e+01	1.926765e+02
1.380000e-06	2.504973e-06	2.943502e-09	1.732382e+01	1.942609e+02
1.390000e-06	2.531208e-06	2.964467e-09	1.750526e+01	1.957200e+02
1.400000e-06	2.556331e-06	2.983871e-09	1.767900e+01	1.970986e+02
1.410000e-06	2.580586e-06	3.002207e-09	1.784674e+01	1.984231e+02
1.420000e-06	2.603969e-06	3.019412e-09	1.800846e+01	1.996941e+02
1.430000e-06	2.626449e-06	3.036552e-09	1.816392e+01	2.008984e+02
1.440000e-06	2.648048e-06	3.054713e-09	1.831329e+01	2.020259e+02
1.450000e-06	2.668854e-06	3.072886e-09	1.845719e+01	2.030763e+02
1.460000e-06	2.688933e-06	3.088471e-09	1.859605e+01	2.040510e+02
1.470000e-06	2.708083e-06	3.100248e-09	1.872848e+01	2.049437e+02
1.480000e-06	2.726150e-06	3.111976e-09	1.885343e+01	2.057432e+02
1.490000e-06	2.743285e-06	3.124475e-09	1.897193e+01	2.064498e+02
1.500000e-06	2.759468e-06	3.135761e-09	1.908385e+01	2.070893e+02
1.510000e-06	2.774550e-06	3.145625e-09	1.918815e+01	2.077087e+02
1.520000e-06	2.788571e-06	3.154962e-09	1.928512e+01	2.083479e+02
1.530000e-06	2.801565e-06	3.165059e-09	1.937498e+01	2.090075e+02
1.540000e-06	2.813474e-06	3.175311e-09	1.945734e+01	2.096393e+02
1.550000e-06	2.824074e-06	3.182778e-09	1.953065e+01	2.101739e+02
1.560000e-06	2.833436e-06	3.188272e-09	1.959540e+01	2.105697e+02
1.570000e-06	2.841880e-06	3.195516e-09	1.965379e+01	2.108474e+02
1.580000e-06	2.849440e-06	3.203472e-09	1.970608e+01	2.110799e+02
1.590000e-06	2.856004e-06	3.209849e-09	1.975147e+01	2.113412e+02
1.600000e-06	2.861590e-06	3.213804e-09	1.979010e+01	2.116490e+02
1.610000e-06	2.866310e-06	3.215912e-09	1.982274e+01	2.119478e+02
1.620000e-06	2.870059e-06	3.217932e-09	1.984867e+01	2.121480e+02
1.630000e-06	2.872579e-06	3.219845e-09	1.986610e+01	2.121963e+02
1.640000e-06	2.873934e-06	3.222091e-09	1.987547e+01	2.121216e+02
1.650000e-06	2.874372e-06	3.225510e-09	1.987850e+01	2.120192e+02
1.660000e-06	2.873933e-06	3.226889e-09	1.987546e+01	2.119792e+02
1.670000e-06	2.872555e-06	3.224490e-09	1.986593e+01	2.120139e+02
1.680000e-06	2.870265e-06	3.219364e-09	1.985010e+01	2.120427e+02
1.690000e-06	2.867201e-06	3.214761e-09	1.982890e+01	2.119517e+02
1.700000e-06	2.863363e-06	3.212257e-09	1.980236e+01	2.116869e+02
1.710000e-06	2.858468e-06	3.213033e-09	1.976851e+01	2.113079e+02
1.720000e-06	2.852353e-06	3.220559e-09	1.972622e+01	2.109516e+02
1.730000e-06	2.845290e-06	3.199171e-09	1.967737e+01	2.107270e+02
1.740000e-06	2.837376e-06	3.145998e-09	1.962265e+01	2.106166e+02
1.750000e-06	2.828083e-06	3.126300e-09	1.955837e+01	2.104669e+02
1.760000e-06	2.817149e-06	3.218279e-09	1.948276e+01	2.100883e+02
1.770000e-06	2.805257e-06	3.263634e-09	1.940051e+01	2.094010e+02
1.780000e-06	2.793272e-06	3.152875e-09	1.931763e+01	2.085209e+02
1.790000e-06	2.780648e-06	3.130710e-09	1.923032e+01	2.077105e+02
1.800000e-06	2.766309e-06	3.194843e-09	1.913116e+01	2.072158e+02
1.810000e-06	2.750704e-06	3.132923e-09	1.902324e+01	2.070936e+02
1.820000e-06	2.734537e-06	3.050149e-09	1.891143e+01	2.071536e+02
1.830000e-06	2.717322e-06	3.163490e-09	1.879238e+01	2.070646e+02
1.840000e-06	2.698795e-06	3.212645e-09	1.866425e+01	2.065619e+02
1.850000e-06	2.679596e-06	3.070565e-09	1.853147e+01	2.056191e+02
1.860000e-06	2.659687e-06	3.113809e-09	1.839379e+01	2.044641e+02
1.870000e-06	2.638451e-06	3.183309e-09	1.824692e+01	2.034250e+02
1.880000e-06	2.616087e-06	3.019098e-09	1.809226e+01	2.027083e+02
1.890000e-06	2.592881e-06	2.990997e-09	1.793177e+01	2.022605e+02
1.900000e-06	2.568717e-06	3.097932e-09	1.776466e+01	2.018063e+02
1.910000e-06	2.543740e-06	3.072148e-09	1.759192e+01	2.010391e+02
1.920000e-06	2.517990e-06	3.029205e-09	1.741384e+01	1.998315e+02
1.930000e-06	2.491358e-06	3.011345e-09	1.722966e+01	1.983226e+02
1.940000e-06	2.464048e-06	2.985399e-09	1.704079e+01	1.968261e+02
1.950000e-06	2.435937e-06	3.000305e-09	1.684639e+01	1.956234e+02
1.960000e-06	2.406566e-06	2.957910e-09	1.664326e+01	1.947841e+02
1.970000e-06	2.376042e-06	2.881009e-09	1.643216e+01	1.941319e+02
1.980000e-06	2.344750e-06	2.938237e-09	1.621575e+01	1.933707e+02
1.990000e-06	2.312753e-06	2.959147e-09	1.599447e+01	1.922797e+02
2.000000e-06	2.280028e-06	2.894378e-09	1.576815e+01	1.908437e+02
2.010000e-06	2.246513e-06	2.892663e-09	1.553637e+01	1.892397e+02
2.020000e-06	2.212195e-06	2.855419e-09	1.529903e+01	1.877009e+02
2.030000e-06	2.177264e-06	2.810958e-09	1.505746e+01	1.863603e+02
2.040000e-06	2.141649e-06	2.830216e-09	1.481116e+01	1.851800e+02
2.050000e-06	2.105204e-06	2.789987e-09	1.455911e+01	1.840014e+02
2.060000e-06	2.067845e-06	2.746971e-09	1.430074e+01	1.826694e+02
2.070000e-06	2.029493e-06	2.771665e-09	1.403551e+01	1.811343e+02
2.080000e-06	1.990388e-06	2.754526e-09	1.376507e+01	1.794664e+02
2.090000e-06	1.950727e-06	2.706181e-09	1.349078e+01	1.777846e+02
2.100000e-06	1.910437e-06	2.668140e-09	1.321215e+01	1.761622e+02
2.110000e-06	1.869486e-06	2.637658e-09	1.292894e+01	1.745809e+02
2.120000e-06	1.827911e-06	2.629787e-09	1.264142e+01	1.729613e+02
2.130000e-06	1.785806e-06	2.612751e-09	1.235022e+01	1.712361e+02
2.140000e-06	1.743129e-06	2.579710e-09	1.205508e+01	1.694062e+02
2.150000e-06	1.699893e-06	2.550589e-09	1.175607e+01	1.675378e+02
2.160000e-06	1.656248e-06	2.527325e-09	1.145423e+01	1.657052e+02
2.170000e-06	1.612010e-06	2.500707e-09	1.114829e+01	1.639289e+02
2.180000e-06	1.567046e-06	2.465197e-09	1.083733e+01	1.621559e+02
2.190000e-06	1.521488e-06	2.434320e-09	1.052226e+01	1.602962e+02
2.200000e-06	1.475455e-06	2.416390e-09	1.020391e+01	1.582872e+02
2.210000e-06	1.429092e-06	2.394058e-09	9.883276e+00	1.561369e+02
2.220000e-06	1.382258e-06	2.357917e-09	9.559380e+00	1.539167e+02
2.230000e-06	1.334809e-06	2.312625e-09	9.231232e+00	1.517110e+02
2.240000e-06	1.286763e-06	2.272842e-09	8.898957e+00	1.495612e+02
2.250000e-06	1.238113e-06	2.249667e-09	8.562509e+00	1.474426e+02
2.260000e-06	1.189055e-06	2.221035e-09	8.223235e+00	1.452872e+02
2.270000e-06	1.139619e-06	2.184323e-09	7.881345e+00	1.430317e+02
2.280000e-06	1.089734e-06	2.148472e-09	7.536350e+00	1.406561e+02
2.290000e-06	1.039429e-06	2.115164e-09	7.188456e+00	1.381908e+02
2.300000e-06	9.886911e-07	2.083099e-09	6.837561e+00	1.356888e+02
2.310000e-06	9.376352e-07	2.040336e-09	6.484470e+00	1.331890e+02
2.320000e-06	8.863715e-07	1.994375e-09	6.129942e+00	1.306919e+02
2.330000e-06	8.348166e-07	1.959229e-09	5.773400e+00	1.281631e+02
2.340000e-06	7.829388e-07	1.927989e-09	5.414625e+00	1.255565e+02
2.350000e-06	7.306537e-07	1.886555e-09	5.053033e+00	1.228413e+02
2.360000e-06	6.778674e-07	1.838161e-09	4.687976e+00	1.200172e+02
2.370000e-06	6.245894e-07	1.793768e-09	4.319517e+00	1.171111e+02
2.380000e-06	5.709237e-07	1.755711e-09	3.948377e+00	1.141604e+02
2.390000e-06	5.169224e-07	1.713646e-09	3.574917e+00	1.111914e+02
2.400000e-06	4.626031e-07	1.664507e-09	3.199257e+00	1.082042e+02
2.410000e-06	4.080890e-07	1.616883e-09	2.822250e+00	1.051711e+02
2.420000e-06	3.534306e-07	1.572545e-09	2.444245e+00	1.020500e+02
2.430000e-06	2.986286e-07	1.526048e-09	2.065247e+00	9.880729e+01
2.440000e-06	2.437165e-07	1.472170e-09	1.685488e+00	9.543948e+01
2.450000e-06	1.887222e-07	1.416650e-09	1.305159e+00	9.197872e+01
2.460000e-06	1.336774e-07	1.365261e-09	9.244819e-01	8.847627e+01
2.470000e-06	7.860564e-08	1.315543e-09	5.436186e-01	8.496965e+01
2.480000e-06	2.353212e-08	1.262904e-09	1.627427e-01	8.145315e+01
2.490000e-06	-3.151173e-08	1.205880e-09	-2.179279e-01	7.787291e+01
2.500000e-06	-8.654296e-08	1.147414e-09	-5.985113e-01	7.415492e+01
2.510000e-06	-1.415805e-07	1.088572e-09	-9.791381e-01	7.025163e+01
2.520000e-06	-1.965909e-07	1.026742e-09	-1.359578e+00	6.617718e+01
2.530000e-06	-2.515526e-07	9.622100e-10	-1.739680e+00	6.200448e+01
2.540000e-06	-3.064478e-07	8.986218e-10	-2.119323e+00	5.782095e+01
2.550000e-06	-3.612213e-07	8.379356e-10	-2.498124e+00	5.366880e+01
2.560000e-06	-4.158489e-07	7.765331e-10	-2.875916e+00	4.950965e+01
2.570000e-06	-4.703231e-07	7.081466e-10	-3.252647e+00	4.523987e+01
2.580000e-06	-5.245464e-07	6.350855e-10	-3.627643e+00	4.074973e+01
2.590000e-06	-5.783832e-07	5.616514e-10	-3.999966e+00	3.598885e+01
2.600000e-06	-6.318915e-07	4.866053e-10	-4.370017e+00	3.099399e+01
2.610000e-06	-6.850143e-07	4.099347e-10	-4.737402e+00	2.585988e+01
2.620000e-06	-7.376696e-07	3.319998e-10	-5.101554e+00	2.067202e+01
2.630000e-06	-7.899436e-07	2.519154e-10	-5.463069e+00	1.544638e+01
2.640000e-06	-8.417947e-07	1.702698e-10	-5.821660e+00	1.011585e+01
2.650000e-06	-8.932888e-07	8.680945e-11	-6.177781e+00	4.570904e+00
2.660000e-06	-9.445316e-07	-2.319020e-12	-6.532164e+00	-1.274718e+00
2.670000e-06	-9.954923e-07	-9.755482e-11	-6.884597e+00	-7.437626e+00
2.680000e-06	-1.046099e-06	-1.954588e-10	-7.234584e+00	-1.386621e+01
2.690000e-06	-1.096309e-06	-2.942791e-10	-7.581821e+00	-2.048375e+01
2.700000e-06	-1.146095e-06	-3.967121e-10	-7.926127e+00	-2.723967e+01
2.710000e-06	-1.195460e-06	-5.036359e-10	-8.267529e+00	-3.413336e+01
2.720000e-06	-1.244376e-06	-6.117899e-10	-8.605821e+00	-4.119803e+01
2.730000e-06	-1.292724e-06	-7.214725e-10	-8.940182e+00	-4.846100e+01
2.740000e-06	-1.340300e-06	-8.344905e-10	-9.269205e+00	-5.591088e+01
2.750000e-06	-1.386998e-06	-9.518381e-10	-9.592159e+00	-6.349196e+01
2.760000e-06	-1.433095e-06	-1.069161e-09	-9.910954e+00	-7.112377e+01
2.770000e-06	-1.478824e-06	-1.183581e-09	-1.022721e+01	-7.872604e+01
2.780000e-06	-1.524232e-06	-1.297948e-09	-1.054124e+01	-8.623064e+01
2.790000e-06	-1.569285e-06	-1.411405e-09	-1.085281e+01	-9.357736e+01
2.800000e-06	-1.613806e-06	-1.521107e-09	-1.116071e+01	-1.007063e+02
2.810000e-06	-1.657694e-06	-1.625847e-09	-1.146423e+01	-1.075610e+02
2.820000e-06	-1.701103e-06	-1.726011e-09	-1.176444e+01	-1.141033e+02
2.830000e-06	-1.744162e-06	-1.822451e-09	-1.206223e+01	-1.203278e+02
2.840000e-06	-1.786716e-06	-1.914810e-09	-1.235652e+01	-1.262591e+02
2.850000e-06	-1.828625e-06	-2.002654e-09	-1.264635e+01	-1.319291e+02
2.860000e-06	-1.869960e-06	-2.084396e-09	-1.293221e+01	-1.373487e+02
2.870000e-06	-1.910670e-06	-2.161002e-09	-1.321376e+01	-1.424966e+02
2.880000e-06	-1.950654e-06	-2.234349e-09	-1.349028e+01	-1.473341e+02
2.890000e-06	-1.990083e-06	-2.305259e-09	-1.376296e+01	-1.518381e+02
2.900000e-06	-2.029025e-06	-2.373778e-09	-1.403227e+01	-1.560252e+02
2.910000e-06	-2.067177e-06	-2.438156e-09	-1.429612e+01	-1.599471e+02
2.920000e-06	-2.104235e-06	-2.498175e-09	-1.455240e+01	-1.636601e+02
2.930000e-06	-2.140262e-06	-2.554349e-09	-1.480156e+01	-1.671886e+02
2.940000e-06	-2.175599e-06	-2.607142e-09	-1.504595e+01	-1.705133e+02
