# Temperatura_=_21.97
# Concentracion g/m^3_=_15500.0
# C_Vs_to_Am_M_A/Vsm_=_65563218390.804596
# pendiente_HvsI_1/m_=_3716.3
# ordenada_HvsI_A/m_=_1297.0
# frecuencia_Hz_=_300992.4535087365

Tiempo_(s)	Campo_(V.s)	Magnetizacion_(V.s)	Campo_(kA/m)	Magnetizacion_(A/m)
0.000000e+00	-2.863608e-06	-3.236759e-09	-1.978351e+01	-2.120329e+02
1.000000e-08	-2.862952e-06	-3.236233e-09	-1.977897e+01	-2.119378e+02
2.000000e-08	-2.861417e-06	-3.236665e-09	-1.976837e+01	-2.119208e+02
3.000000e-08	-2.858612e-06	-3.235572e-09	-1.974899e+01	-2.118976e+02
4.000000e-08	-2.854648e-06	-3.234781e-09	-1.972161e+01	-2.117585e+02
5.000000e-08	-2.849882e-06	-3.231755e-09	-1.968868e+01	-2.114669e+02
6.000000e-08	-2.844325e-06	-3.223581e-09	-1.965029e+01	-2.110993e+02
7.000000e-08	-2.837849e-06	-3.208149e-09	-1.960555e+01	-2.107895e+02
8.000000e-08	-2.830373e-06	-3.215746e-09	-1.955390e+01	-2.106119e+02
9.000000e-08	-2.821844e-06	-3.278089e-09	-1.949498e+01	-2.104979e+02
1.000000e-07	-2.811965e-06	-3.300065e-09	-1.942672e+01	-2.102595e+02
1.100000e-07	-2.800607e-06	-3.176007e-09	-1.934826e+01	-2.097194e+02
1.200000e-07	-2.788328e-06	-3.052174e-09	-1.926343e+01	-2.088582e+02
1.300000e-07	-2.775337e-06	-3.180522e-09	-1.917368e+01	-2.078642e+02
1.400000e-07	-2.761324e-06	-3.297361e-09	-1.907687e+01	-2.070332e+02
1.500000e-07	-2.746246e-06	-3.114753e-09	-1.897270e+01	-2.065733e+02
1.600000e-07	-2.730107e-06	-3.095301e-09	-1.886120e+01	-2.064504e+02
1.700000e-07	-2.712642e-06	-3.277646e-09	-1.874055e+01	-2.063887e+02
1.800000e-07	-2.694128e-06	-3.176829e-09	-1.861264e+01	-2.060413e+02
1.900000e-07	-2.675040e-06	-3.019535e-09	-1.848077e+01	-2.052205e+02
2.000000e-07	-2.655144e-06	-3.143768e-09	-1.834332e+01	-2.040287e+02
2.100000e-07	-2.634225e-06	-3.119087e-09	-1.819879e+01	-2.027937e+02
2.200000e-07	-2.612506e-06	-2.968789e-09	-1.804875e+01	-2.018463e+02
2.300000e-07	-2.590021e-06	-3.133752e-09	-1.789340e+01	-2.012932e+02
2.400000e-07	-2.566558e-06	-3.203927e-09	-1.773131e+01	-2.009410e+02
2.500000e-07	-2.542229e-06	-3.010071e-09	-1.756323e+01	-2.004298e+02
2.600000e-07	-2.517130e-06	-2.987287e-09	-1.738983e+01	-1.994806e+02
2.700000e-07	-2.490920e-06	-3.039758e-09	-1.720876e+01	-1.980870e+02
2.800000e-07	-2.463518e-06	-2.989735e-09	-1.701945e+01	-1.965165e+02
2.900000e-07	-2.435229e-06	-2.979658e-09	-1.682401e+01	-1.951223e+02
3.000000e-07	-2.406127e-06	-2.947513e-09	-1.662296e+01	-1.940995e+02
3.100000e-07	-2.376208e-06	-2.956537e-09	-1.641626e+01	-1.933571e+02
3.200000e-07	-2.345622e-06	-3.009549e-09	-1.620495e+01	-1.925907e+02
3.300000e-07	-2.314301e-06	-2.921072e-09	-1.598857e+01	-1.915012e+02
3.400000e-07	-2.282201e-06	-2.839036e-09	-1.576680e+01	-1.900016e+02
3.500000e-07	-2.249487e-06	-2.877518e-09	-1.554079e+01	-1.882693e+02
3.600000e-07	-2.216051e-06	-2.848317e-09	-1.530980e+01	-1.866127e+02
3.700000e-07	-2.181548e-06	-2.831361e-09	-1.507143e+01	-1.852530e+02
3.800000e-07	-2.145888e-06	-2.867507e-09	-1.482507e+01	-1.841778e+02
3.900000e-07	-2.109480e-06	-2.792535e-09	-1.457354e+01	-1.831624e+02
4.000000e-07	-2.072512e-06	-2.764378e-09	-1.431815e+01	-1.819371e+02
4.100000e-07	-2.034803e-06	-2.795109e-09	-1.405763e+01	-1.803735e+02
4.200000e-07	-1.996322e-06	-2.725515e-09	-1.379178e+01	-1.785600e+02
4.300000e-07	-1.957160e-06	-2.655804e-09	-1.352123e+01	-1.767225e+02
4.400000e-07	-1.917342e-06	-2.680226e-09	-1.324614e+01	-1.750565e+02
4.500000e-07	-1.876959e-06	-2.684625e-09	-1.296715e+01	-1.735953e+02
4.600000e-07	-1.836140e-06	-2.647619e-09	-1.268515e+01	-1.722037e+02
4.700000e-07	-1.794713e-06	-2.607329e-09	-1.239895e+01	-1.706891e+02
4.800000e-07	-1.752252e-06	-2.566768e-09	-1.210560e+01	-1.689424e+02
4.900000e-07	-1.708737e-06	-2.546593e-09	-1.180497e+01	-1.670034e+02
5.000000e-07	-1.664562e-06	-2.527554e-09	-1.149979e+01	-1.650143e+02
5.100000e-07	-1.619958e-06	-2.490535e-09	-1.119163e+01	-1.631039e+02
5.200000e-07	-1.574916e-06	-2.451093e-09	-1.088046e+01	-1.612953e+02
5.300000e-07	-1.529354e-06	-2.439179e-09	-1.056569e+01	-1.595009e+02
5.400000e-07	-1.483230e-06	-2.418548e-09	-1.024704e+01	-1.576010e+02
5.500000e-07	-1.436542e-06	-2.375509e-09	-9.924485e+00	-1.555372e+02
5.600000e-07	-1.389298e-06	-2.326575e-09	-9.598100e+00	-1.533511e+02
5.700000e-07	-1.341500e-06	-2.292605e-09	-9.267877e+00	-1.511422e+02
5.800000e-07	-1.293320e-06	-2.279594e-09	-8.935027e+00	-1.489845e+02
5.900000e-07	-1.244875e-06	-2.253764e-09	-8.600334e+00	-1.468693e+02
6.000000e-07	-1.196055e-06	-2.205452e-09	-8.263063e+00	-1.447168e+02
6.100000e-07	-1.146684e-06	-2.161392e-09	-7.921975e+00	-1.424438e+02
6.200000e-07	-1.096613e-06	-2.135020e-09	-7.576055e+00	-1.400310e+02
6.300000e-07	-1.045841e-06	-2.102939e-09	-7.225291e+00	-1.375396e+02
6.400000e-07	-9.944843e-07	-2.059637e-09	-6.870489e+00	-1.350629e+02
6.500000e-07	-9.426862e-07	-2.012284e-09	-6.512637e+00	-1.326535e+02
6.600000e-07	-8.905351e-07	-1.978685e-09	-6.152347e+00	-1.302804e+02
6.700000e-07	-8.381115e-07	-1.953643e-09	-5.790173e+00	-1.278471e+02
6.800000e-07	-7.854601e-07	-1.913282e-09	-5.426426e+00	-1.252563e+02
6.900000e-07	-7.325442e-07	-1.861730e-09	-5.060851e+00	-1.224736e+02
7.000000e-07	-6.792984e-07	-1.816570e-09	-4.692997e+00	-1.195466e+02
7.100000e-07	-6.257137e-07	-1.782385e-09	-4.322803e+00	-1.165691e+02
7.200000e-07	-5.718788e-07	-1.740405e-09	-3.950879e+00	-1.136201e+02
7.300000e-07	-5.179018e-07	-1.688187e-09	-3.577974e+00	-1.107178e+02
7.400000e-07	-4.637936e-07	-1.636554e-09	-3.204162e+00	-1.078176e+02
7.500000e-07	-4.095080e-07	-1.593509e-09	-2.829125e+00	-1.048466e+02
7.600000e-07	-3.551186e-07	-1.550935e-09	-2.453371e+00	-1.017481e+02
7.700000e-07	-3.006520e-07	-1.498144e-09	-2.077083e+00	-9.850653e+01
7.800000e-07	-2.460719e-07	-1.442300e-09	-1.700011e+00	-9.514332e+01
7.900000e-07	-1.913964e-07	-1.393611e-09	-1.322280e+00	-9.169471e+01
8.000000e-07	-1.366661e-07	-1.347332e-09	-9.441705e-01	-8.818964e+01
8.100000e-07	-8.193017e-08	-1.291292e-09	-5.660223e-01	-8.463984e+01
8.200000e-07	-2.720291e-08	-1.230283e-09	-1.879339e-01	-8.104174e+01
8.300000e-07	2.751616e-08	-1.171558e-09	1.900980e-01	-7.738271e+01
8.400000e-07	8.222255e-08	-1.117585e-09	5.680423e-01	-7.364621e+01
8.500000e-07	1.368868e-07	-1.061013e-09	9.456955e-01	-6.981603e+01
8.600000e-07	1.915236e-07	-9.986458e-10	1.323159e+00	-6.588181e+01
8.700000e-07	2.461124e-07	-9.359931e-10	1.700291e+00	-6.184451e+01
8.800000e-07	3.006212e-07	-8.770721e-10	2.076870e+00	-5.771627e+01
8.900000e-07	3.550655e-07	-8.176234e-10	2.453003e+00	-5.351105e+01
9.000000e-07	4.094135e-07	-7.492884e-10	2.828472e+00	-4.922967e+01
9.100000e-07	4.636500e-07	-6.780086e-10	3.203170e+00	-4.485050e+01
9.200000e-07	5.177627e-07	-6.099997e-10	3.577013e+00	-4.033581e+01
9.300000e-07	5.716794e-07	-5.418899e-10	3.949501e+00	-3.565273e+01
9.400000e-07	6.253394e-07	-4.667087e-10	4.320217e+00	-3.079523e+01
9.500000e-07	6.787338e-07	-3.871671e-10	4.689097e+00	-2.578922e+01
9.600000e-07	7.318567e-07	-3.100288e-10	5.056101e+00	-2.067335e+01
9.700000e-07	7.846726e-07	-2.349635e-10	5.420985e+00	-1.546625e+01
9.800000e-07	8.372177e-07	-1.561958e-10	5.783998e+00	-1.014284e+01
9.900000e-07	8.895093e-07	-6.825194e-11	6.145259e+00	-4.638403e+00
1.000000e-06	9.415083e-07	2.434958e-11	6.504500e+00	1.119594e+00
1.010000e-06	9.931196e-07	1.164763e-10	6.861061e+00	7.171948e+00
1.020000e-06	1.044186e-06	2.102702e-10	7.213862e+00	1.350664e+01
1.030000e-06	1.094534e-06	3.107412e-10	7.561694e+00	2.006990e+01
1.040000e-06	1.144153e-06	4.170159e-10	7.904492e+00	2.680098e+01
1.050000e-06	1.193238e-06	5.233250e-10	8.243599e+00	3.366633e+01
1.060000e-06	1.241928e-06	6.278046e-10	8.579979e+00	4.067086e+01
1.070000e-06	1.290336e-06	7.368788e-10	8.914406e+00	4.784111e+01
1.080000e-06	1.338417e-06	8.518875e-10	9.246584e+00	5.519405e+01
1.090000e-06	1.386070e-06	9.665529e-10	9.575794e+00	6.271251e+01
1.100000e-06	1.433187e-06	1.079401e-09	9.901305e+00	7.034035e+01
1.110000e-06	1.479723e-06	1.194452e-09	1.022281e+01	7.799493e+01
1.120000e-06	1.525772e-06	1.312791e-09	1.054094e+01	8.558500e+01
1.130000e-06	1.571290e-06	1.429073e-09	1.085541e+01	9.302355e+01
1.140000e-06	1.616275e-06	1.537972e-09	1.116619e+01	1.002348e+02
1.150000e-06	1.660871e-06	1.639409e-09	1.147429e+01	1.071601e+02
1.160000e-06	1.705154e-06	1.736947e-09	1.178022e+01	1.137670e+02
1.170000e-06	1.748947e-06	1.831764e-09	1.208276e+01	1.200549e+02
1.180000e-06	1.791880e-06	1.922316e-09	1.237937e+01	1.260496e+02
1.190000e-06	1.833734e-06	2.009718e-09	1.266853e+01	1.317837e+02
1.200000e-06	1.874711e-06	2.094891e-09	1.295162e+01	1.372708e+02
1.210000e-06	1.915162e-06	2.176704e-09	1.323108e+01	1.424925e+02
1.220000e-06	1.955125e-06	2.251128e-09	1.350717e+01	1.474097e+02
1.230000e-06	1.994475e-06	2.316627e-09	1.377902e+01	1.519920e+02
1.240000e-06	2.033177e-06	2.376659e-09	1.404639e+01	1.562456e+02
1.250000e-06	2.071197e-06	2.434820e-09	1.430906e+01	1.602161e+02
1.260000e-06	2.108462e-06	2.491363e-09	1.456651e+01	1.639629e+02
1.270000e-06	2.145093e-06	2.542586e-09	1.481958e+01	1.675215e+02
1.280000e-06	2.181190e-06	2.590544e-09	1.506896e+01	1.708834e+02
1.290000e-06	2.216475e-06	2.637193e-09	1.531273e+01	1.740108e+02
1.300000e-06	2.250660e-06	2.680148e-09	1.554890e+01	1.768763e+02
1.310000e-06	2.283798e-06	2.716487e-09	1.577784e+01	1.794975e+02
1.320000e-06	2.316171e-06	2.748672e-09	1.600148e+01	1.819374e+02
1.330000e-06	2.347859e-06	2.780758e-09	1.622041e+01	1.842676e+02
1.340000e-06	2.378775e-06	2.814419e-09	1.643399e+01	1.865207e+02
1.350000e-06	2.408956e-06	2.846693e-09	1.664250e+01	1.886676e+02
1.360000e-06	2.438338e-06	2.874746e-09	1.684549e+01	1.906411e+02
1.370000e-06	2.466961e-06	2.900352e-09	1.704324e+01	1.923910e+02
1.380000e-06	2.494940e-06	2.923968e-09	1.723653e+01	1.939312e+02
1.390000e-06	2.521869e-06	2.945347e-09	1.742257e+01	1.953431e+02
1.400000e-06	2.547454e-06	2.964487e-09	1.759933e+01	1.967321e+02
1.410000e-06	2.572041e-06	2.984059e-09	1.776919e+01	1.981653e+02
1.420000e-06	2.595843e-06	3.005276e-09	1.793363e+01	1.996339e+02
1.430000e-06	2.618782e-06	3.026688e-09	1.809210e+01	2.010651e+02
1.440000e-06	2.640818e-06	3.046790e-09	1.824434e+01	2.023718e+02
1.450000e-06	2.661963e-06	3.064361e-09	1.839042e+01	2.035042e+02
1.460000e-06	2.682361e-06	3.080137e-09	1.853135e+01	2.044696e+02
1.470000e-06	2.702011e-06	3.094517e-09	1.866710e+01	2.053142e+02
1.480000e-06	2.720691e-06	3.106929e-09	1.879615e+01	2.060877e+02
1.490000e-06	2.738397e-06	3.117451e-09	1.891847e+01	2.068219e+02
1.500000e-06	2.755119e-06	3.127964e-09	1.903400e+01	2.075323e+02
1.510000e-06	2.770709e-06	3.140248e-09	1.914171e+01	2.082337e+02
1.520000e-06	2.785210e-06	3.152871e-09	1.924189e+01	2.089430e+02
1.530000e-06	2.798667e-06	3.163840e-09	1.933486e+01	2.096633e+02
1.540000e-06	2.811074e-06	3.173344e-09	1.942057e+01	2.103624e+02
1.550000e-06	2.822366e-06	3.182405e-09	1.949859e+01	2.109732e+02
1.560000e-06	2.832352e-06	3.190436e-09	1.956757e+01	2.114290e+02
1.570000e-06	2.841161e-06	3.196714e-09	1.962843e+01	2.117133e+02
1.580000e-06	2.849071e-06	3.201660e-09	1.968308e+01	2.118864e+02
1.590000e-06	2.856053e-06	3.206276e-09	1.973131e+01	2.120592e+02
1.600000e-06	2.862055e-06	3.211780e-09	1.977278e+01	2.123241e+02
1.610000e-06	2.867145e-06	3.216789e-09	1.980795e+01	2.126883e+02
1.620000e-06	2.871405e-06	3.220138e-09	1.983738e+01	2.130627e+02
1.630000e-06	2.874624e-06	3.224431e-09	1.985961e+01	2.133193e+02
1.640000e-06	2.876537e-06	3.229703e-09	1.987283e+01	2.133804e+02
1.650000e-06	2.877358e-06	3.233159e-09	1.987850e+01	2.132740e+02
1.660000e-06	2.877312e-06	3.233113e-09	1.987819e+01	2.131125e+02
1.670000e-06	2.876347e-06	3.227875e-09	1.987152e+01	2.130071e+02
1.680000e-06	2.874453e-06	3.220328e-09	1.985843e+01	2.129837e+02
1.690000e-06	2.871695e-06	3.216682e-09	1.983938e+01	2.129661e+02
1.700000e-06	2.868199e-06	3.215927e-09	1.981523e+01	2.128424e+02
1.710000e-06	2.863903e-06	3.216863e-09	1.978555e+01	2.125646e+02
1.720000e-06	2.858458e-06	3.225798e-09	1.974793e+01	2.121982e+02
1.730000e-06	2.851822e-06	3.241829e-09	1.970208e+01	2.118758e+02
1.740000e-06	2.844307e-06	3.199999e-09	1.965017e+01	2.116838e+02
1.750000e-06	2.835720e-06	3.102310e-09	1.959084e+01	2.115700e+02
1.760000e-06	2.825533e-06	3.120341e-09	1.952047e+01	2.113542e+02
1.770000e-06	2.813941e-06	3.286307e-09	1.944038e+01	2.108503e+02
1.780000e-06	2.801932e-06	3.280446e-09	1.935742e+01	2.100171e+02
1.790000e-06	2.789779e-06	3.095551e-09	1.927345e+01	2.090229e+02
1.800000e-06	2.776311e-06	3.093084e-09	1.918041e+01	2.081605e+02
1.810000e-06	2.761091e-06	3.249303e-09	1.907526e+01	2.076568e+02
1.820000e-06	2.745146e-06	3.111766e-09	1.896510e+01	2.075070e+02
1.830000e-06	2.728608e-06	3.009252e-09	1.885084e+01	2.074553e+02
1.840000e-06	2.710665e-06	3.254286e-09	1.872688e+01	2.071512e+02
1.850000e-06	2.691613e-06	3.232276e-09	1.859527e+01	2.063808e+02
1.860000e-06	2.672025e-06	3.022605e-09	1.845994e+01	2.052148e+02
1.870000e-06	2.651391e-06	3.177716e-09	1.831739e+01	2.039657e+02
1.880000e-06	2.629492e-06	3.219038e-09	1.816609e+01	2.029764e+02
1.890000e-06	2.606692e-06	2.942003e-09	1.800858e+01	2.023846e+02
1.900000e-06	2.582864e-06	3.012257e-09	1.784397e+01	2.020265e+02
1.910000e-06	2.558093e-06	3.176572e-09	1.767283e+01	2.015484e+02
1.920000e-06	2.532690e-06	3.056305e-09	1.749733e+01	2.006513e+02
1.930000e-06	2.506421e-06	3.021761e-09	1.731585e+01	1.992956e+02
1.940000e-06	2.479307e-06	3.053256e-09	1.712853e+01	1.977258e+02
1.950000e-06	2.451539e-06	2.996426e-09	1.693669e+01	1.962981e+02
1.960000e-06	2.422668e-06	3.026914e-09	1.673723e+01	1.952340e+02
1.970000e-06	2.392527e-06	2.936042e-09	1.652900e+01	1.944731e+02
1.980000e-06	2.361534e-06	2.875248e-09	1.631489e+01	1.937251e+02
1.990000e-06	2.329859e-06	3.020163e-09	1.609605e+01	1.926785e+02
2.000000e-06	2.297480e-06	2.956887e-09	1.587236e+01	1.912177e+02
2.010000e-06	2.264285e-06	2.861326e-09	1.564303e+01	1.894954e+02
2.020000e-06	2.230207e-06	2.927840e-09	1.540760e+01	1.878161e+02
2.030000e-06	2.195460e-06	2.836432e-09	1.516754e+01	1.864199e+02
2.040000e-06	2.160149e-06	2.790884e-09	1.492359e+01	1.853214e+02
2.050000e-06	2.124130e-06	2.858441e-09	1.467475e+01	1.843128e+02
2.060000e-06	2.087277e-06	2.765678e-09	1.442015e+01	1.831191e+02
2.070000e-06	2.049364e-06	2.750380e-09	1.415822e+01	1.815904e+02
2.080000e-06	2.010444e-06	2.801333e-09	1.388934e+01	1.797933e+02
2.090000e-06	1.970945e-06	2.734501e-09	1.361646e+01	1.779463e+02
2.100000e-06	1.930881e-06	2.694842e-09	1.333968e+01	1.762561e+02
2.110000e-06	1.890157e-06	2.660302e-09	1.305833e+01	1.747764e+02
2.120000e-06	1.848831e-06	2.632815e-09	1.277282e+01	1.733860e+02
2.130000e-06	1.806898e-06	2.645677e-09	1.248313e+01	1.718916e+02
2.140000e-06	1.764370e-06	2.608962e-09	1.218932e+01	1.701697e+02
2.150000e-06	1.721303e-06	2.575069e-09	1.189179e+01	1.682447e+02
2.160000e-06	1.677812e-06	2.559332e-09	1.159133e+01	1.662528e+02
2.170000e-06	1.633856e-06	2.526215e-09	1.128765e+01	1.643299e+02
2.180000e-06	1.589218e-06	2.496681e-09	1.097926e+01	1.625123e+02
2.190000e-06	1.543904e-06	2.453915e-09	1.066621e+01	1.607217e+02
2.200000e-06	1.498025e-06	2.428705e-09	1.034925e+01	1.588369e+02
2.210000e-06	1.451715e-06	2.416230e-09	1.002931e+01	1.567896e+02
2.220000e-06	1.404982e-06	2.383922e-09	9.706449e+00	1.546115e+02
2.230000e-06	1.357692e-06	2.353330e-09	9.379746e+00	1.523996e+02
2.240000e-06	1.309831e-06	2.301797e-09	9.049090e+00	1.502344e+02
2.250000e-06	1.261376e-06	2.269232e-09	8.714339e+00	1.481169e+02
2.260000e-06	1.212456e-06	2.256029e-09	8.376366e+00	1.459724e+02
2.270000e-06	1.163178e-06	2.213972e-09	8.035923e+00	1.437139e+02
2.280000e-06	1.113456e-06	2.173874e-09	7.692419e+00	1.413137e+02
2.290000e-06	1.063287e-06	2.136243e-09	7.345821e+00	1.388255e+02
2.300000e-06	1.012687e-06	2.104045e-09	6.996244e+00	1.363427e+02
2.310000e-06	9.616857e-07	2.075479e-09	6.643897e+00	1.339253e+02
2.320000e-06	9.103967e-07	2.027574e-09	6.289562e+00	1.315514e+02
2.330000e-06	8.588665e-07	1.985619e-09	5.933561e+00	1.291291e+02
2.340000e-06	8.070335e-07	1.956026e-09	5.575468e+00	1.265575e+02
2.350000e-06	7.547766e-07	1.917929e-09	5.214446e+00	1.237937e+02
2.360000e-06	7.020534e-07	1.871467e-09	4.850203e+00	1.208772e+02
2.370000e-06	6.489673e-07	1.817244e-09	4.483452e+00	1.178999e+02
2.380000e-06	5.955034e-07	1.773422e-09	4.114092e+00	1.149450e+02
2.390000e-06	5.416183e-07	1.736548e-09	3.741821e+00	1.120382e+02
2.400000e-06	4.874198e-07	1.692898e-09	3.367386e+00	1.091404e+02
2.410000e-06	4.329593e-07	1.647410e-09	2.991140e+00	1.061795e+02
2.420000e-06	3.782893e-07	1.599291e-09	2.613448e+00	1.030955e+02
2.430000e-06	3.234915e-07	1.554568e-09	2.234872e+00	9.986801e+01
2.440000e-06	2.685792e-07	1.504659e-09	1.855505e+00	9.651540e+01
2.450000e-06	2.135723e-07	1.444965e-09	1.475485e+00	9.307357e+01
2.460000e-06	1.585091e-07	1.387291e-09	1.095075e+00	8.957293e+01
2.470000e-06	1.034138e-07	1.334083e-09	7.144440e-01	8.602714e+01
2.480000e-06	4.828318e-08	1.284160e-09	3.335690e-01	8.243398e+01
2.490000e-06	-6.845377e-09	1.231132e-09	-4.729194e-02	7.878150e+01
2.500000e-06	-6.194963e-08	1.173068e-09	-4.279849e-01	7.505338e+01
2.510000e-06	-1.170511e-07	1.114554e-09	-8.086587e-01	7.123315e+01
2.520000e-06	-1.721411e-07	1.055017e-09	-1.189253e+00	6.730954e+01
2.530000e-06	-2.271900e-07	9.918596e-10	-1.569564e+00	6.328211e+01
2.540000e-06	-2.821727e-07	9.254814e-10	-1.949417e+00	5.916212e+01
2.550000e-06	-3.370508e-07	8.605889e-10	-2.328548e+00	5.496403e+01
2.560000e-06	-3.917747e-07	8.004712e-10	-2.706613e+00	5.069070e+01
2.570000e-06	-4.463528e-07	7.361069e-10	-3.083671e+00	4.632294e+01
2.580000e-06	-5.007602e-07	6.635200e-10	-3.459549e+00	4.182390e+01
2.590000e-06	-5.549327e-07	5.901695e-10	-3.833805e+00	3.715901e+01
2.600000e-06	-6.087696e-07	5.183174e-10	-4.205743e+00	3.231872e+01
2.610000e-06	-6.621796e-07	4.457735e-10	-4.574731e+00	2.732600e+01
2.620000e-06	-7.151977e-07	3.674852e-10	-4.941012e+00	2.221965e+01
2.630000e-06	-7.677614e-07	2.852400e-10	-5.304153e+00	1.702194e+01
2.640000e-06	-8.198117e-07	2.028448e-10	-5.663747e+00	1.171284e+01
2.650000e-06	-8.714963e-07	1.211596e-10	-6.020815e+00	6.230744e+00
2.660000e-06	-9.229072e-07	3.598196e-11	-6.375992e+00	5.019706e-01
2.670000e-06	-9.740577e-07	-5.709525e-11	-6.729370e+00	-5.519199e+00
2.680000e-06	-1.024877e-06	-1.544478e-10	-7.080458e+00	-1.182645e+01
2.690000e-06	-1.075273e-06	-2.512130e-10	-7.428627e+00	-1.836907e+01
2.700000e-06	-1.125219e-06	-3.500961e-10	-7.773683e+00	-2.508519e+01
2.710000e-06	-1.174749e-06	-4.563417e-10	-8.115864e+00	-3.193728e+01
2.720000e-06	-1.223865e-06	-5.651936e-10	-8.455188e+00	-3.892650e+01
2.730000e-06	-1.272453e-06	-6.727267e-10	-8.790859e+00	-4.607849e+01
2.740000e-06	-1.320316e-06	-7.814420e-10	-9.121531e+00	-5.341269e+01
2.750000e-06	-1.367440e-06	-8.967491e-10	-9.447090e+00	-6.091621e+01
2.760000e-06	-1.413875e-06	-1.016272e-09	-9.767888e+00	-6.853670e+01
2.770000e-06	-1.459795e-06	-1.133143e-09	-1.008513e+01	-7.619350e+01
2.780000e-06	-1.505434e-06	-1.247108e-09	-1.040043e+01	-8.379552e+01
2.790000e-06	-1.550752e-06	-1.360133e-09	-1.071352e+01	-9.125491e+01
2.800000e-06	-1.595571e-06	-1.471753e-09	-1.102316e+01	-9.849438e+01
2.810000e-06	-1.639764e-06	-1.579127e-09	-1.132847e+01	-1.054532e+02
2.820000e-06	-1.683427e-06	-1.681475e-09	-1.163011e+01	-1.120955e+02
2.830000e-06	-1.726698e-06	-1.779193e-09	-1.192906e+01	-1.184174e+02
2.840000e-06	-1.769544e-06	-1.874933e-09	-1.222507e+01	-1.244427e+02
2.850000e-06	-1.811778e-06	-1.965646e-09	-1.251684e+01	-1.302042e+02
2.860000e-06	-1.853365e-06	-2.048621e-09	-1.280415e+01	-1.357188e+02
2.870000e-06	-1.894403e-06	-2.125212e-09	-1.308767e+01	-1.409714e+02
2.880000e-06	-1.934758e-06	-2.198187e-09	-1.336646e+01	-1.459239e+02
2.890000e-06	-1.974430e-06	-2.270305e-09	-1.364054e+01	-1.505433e+02
2.900000e-06	-2.013661e-06	-2.340415e-09	-1.391157e+01	-1.548312e+02
2.910000e-06	-2.052276e-06	-2.407499e-09	-1.417834e+01	-1.588299e+02
2.920000e-06	-2.089901e-06	-2.470250e-09	-1.443828e+01	-1.625990e+02
2.930000e-06	-2.126386e-06	-2.527856e-09	-1.469034e+01	-1.661781e+02
2.940000e-06	-2.162019e-06	-2.579620e-09	-1.493651e+01	-1.695634e+02
