# Temperatura_=_25.01
# Concentracion g/m^3_=_15500.0
# C_Vs_to_Am_M_A/Vsm_=_65563218390.804596
# pendiente_HvsI_1/m_=_3716.3
# ordenada_HvsI_A/m_=_1297.0
# frecuencia_Hz_=_300987.2998137904

Tiempo_(s)	Campo_(V.s)	Magnetizacion_(V.s)	Campo_(kA/m)	Magnetizacion_(A/m)
0.000000e+00	-2.860402e-06	-3.283804e-09	-1.978181e+01	-2.148659e+02
1.000000e-08	-2.859523e-06	-3.285840e-09	-1.977573e+01	-2.149118e+02
2.000000e-08	-2.857651e-06	-3.284193e-09	-1.976278e+01	-2.148882e+02
3.000000e-08	-2.854587e-06	-3.279400e-09	-1.974159e+01	-2.147055e+02
4.000000e-08	-2.850473e-06	-3.273985e-09	-1.971314e+01	-2.143527e+02
5.000000e-08	-2.845554e-06	-3.268851e-09	-1.967912e+01	-2.139248e+02
6.000000e-08	-2.839786e-06	-3.261850e-09	-1.963923e+01	-2.135687e+02
7.000000e-08	-2.833075e-06	-3.264805e-09	-1.959282e+01	-2.133754e+02
8.000000e-08	-2.825355e-06	-3.300890e-09	-1.953943e+01	-2.132964e+02
9.000000e-08	-2.816364e-06	-3.307509e-09	-1.947725e+01	-2.131507e+02
1.000000e-07	-2.805844e-06	-3.232289e-09	-1.940450e+01	-2.127361e+02
1.100000e-07	-2.794093e-06	-3.154021e-09	-1.932323e+01	-2.119763e+02
1.200000e-07	-2.781604e-06	-3.225267e-09	-1.923686e+01	-2.110032e+02
1.300000e-07	-2.768323e-06	-3.296212e-09	-1.914501e+01	-2.101040e+02
1.400000e-07	-2.754021e-06	-3.155356e-09	-1.904610e+01	-2.095533e+02
1.500000e-07	-2.738817e-06	-3.177222e-09	-1.894096e+01	-2.094325e+02
1.600000e-07	-2.722456e-06	-3.310381e-09	-1.882781e+01	-2.095587e+02
1.700000e-07	-2.704697e-06	-3.205653e-09	-1.870499e+01	-2.095790e+02
1.800000e-07	-2.686012e-06	-3.120786e-09	-1.857577e+01	-2.091801e+02
1.900000e-07	-2.666673e-06	-3.233096e-09	-1.844202e+01	-2.082796e+02
2.000000e-07	-2.646493e-06	-3.184641e-09	-1.830247e+01	-2.070730e+02
2.100000e-07	-2.625370e-06	-3.038946e-09	-1.815639e+01	-2.059043e+02
2.200000e-07	-2.603417e-06	-3.161098e-09	-1.800456e+01	-2.050417e+02
2.300000e-07	-2.580564e-06	-3.225244e-09	-1.784652e+01	-2.045084e+02
2.400000e-07	-2.556787e-06	-3.106451e-09	-1.768209e+01	-2.040781e+02
2.500000e-07	-2.532296e-06	-3.095871e-09	-1.751271e+01	-2.034367e+02
2.600000e-07	-2.506934e-06	-3.090189e-09	-1.733731e+01	-2.023984e+02
2.700000e-07	-2.480414e-06	-3.031826e-09	-1.715391e+01	-2.010289e+02
2.800000e-07	-2.452817e-06	-3.074900e-09	-1.696305e+01	-1.995956e+02
2.900000e-07	-2.424303e-06	-3.029279e-09	-1.676586e+01	-1.983813e+02
3.000000e-07	-2.394912e-06	-2.979565e-09	-1.656260e+01	-1.974923e+02
3.100000e-07	-2.364803e-06	-3.043538e-09	-1.635437e+01	-1.967912e+02
3.200000e-07	-2.334028e-06	-3.023046e-09	-1.614154e+01	-1.959956e+02
3.300000e-07	-2.302452e-06	-2.952228e-09	-1.592317e+01	-1.948719e+02
3.400000e-07	-2.270159e-06	-2.942411e-09	-1.569984e+01	-1.933872e+02
3.500000e-07	-2.237220e-06	-2.901681e-09	-1.547204e+01	-1.917209e+02
3.600000e-07	-2.203456e-06	-2.884517e-09	-1.523854e+01	-1.901328e+02
3.700000e-07	-2.168578e-06	-2.930174e-09	-1.499733e+01	-1.887855e+02
3.800000e-07	-2.132683e-06	-2.870386e-09	-1.474909e+01	-1.876444e+02
3.900000e-07	-2.096137e-06	-2.833193e-09	-1.449635e+01	-1.865161e+02
4.000000e-07	-2.058968e-06	-2.865498e-09	-1.423930e+01	-1.851919e+02
4.100000e-07	-2.021108e-06	-2.829855e-09	-1.397747e+01	-1.835898e+02
4.200000e-07	-1.982503e-06	-2.751567e-09	-1.371049e+01	-1.817989e+02
4.300000e-07	-1.943122e-06	-2.736281e-09	-1.343813e+01	-1.800034e+02
4.400000e-07	-1.903134e-06	-2.737944e-09	-1.316159e+01	-1.783501e+02
4.500000e-07	-1.862726e-06	-2.723675e-09	-1.288214e+01	-1.768534e+02
4.600000e-07	-1.821844e-06	-2.702546e-09	-1.259940e+01	-1.754022e+02
4.700000e-07	-1.780121e-06	-2.655340e-09	-1.231086e+01	-1.738509e+02
4.800000e-07	-1.737303e-06	-2.619257e-09	-1.201474e+01	-1.721234e+02
4.900000e-07	-1.693603e-06	-2.599276e-09	-1.171253e+01	-1.702533e+02
5.000000e-07	-1.649344e-06	-2.577566e-09	-1.140644e+01	-1.683391e+02
5.100000e-07	-1.604658e-06	-2.538338e-09	-1.109741e+01	-1.664570e+02
5.200000e-07	-1.559528e-06	-2.515663e-09	-1.078530e+01	-1.646012e+02
5.300000e-07	-1.513853e-06	-2.494639e-09	-1.046942e+01	-1.626960e+02
5.400000e-07	-1.467604e-06	-2.462802e-09	-1.014958e+01	-1.606648e+02
5.500000e-07	-1.420830e-06	-2.415367e-09	-9.826099e+00	-1.584986e+02
5.600000e-07	-1.373521e-06	-2.361659e-09	-9.498918e+00	-1.562694e+02
5.700000e-07	-1.325732e-06	-2.339946e-09	-9.168422e+00	-1.540772e+02
5.800000e-07	-1.277576e-06	-2.328385e-09	-8.835391e+00	-1.519722e+02
5.900000e-07	-1.229054e-06	-2.297575e-09	-8.499825e+00	-1.499136e+02
6.000000e-07	-1.180031e-06	-2.251108e-09	-8.160792e+00	-1.477947e+02
6.100000e-07	-1.130338e-06	-2.212420e-09	-7.817125e+00	-1.455179e+02
6.200000e-07	-1.079961e-06	-2.175152e-09	-7.468732e+00	-1.430637e+02
6.300000e-07	-1.029005e-06	-2.138150e-09	-7.116335e+00	-1.405024e+02
6.400000e-07	-9.775772e-07	-2.094102e-09	-6.760673e+00	-1.379420e+02
6.500000e-07	-9.257530e-07	-2.049391e-09	-6.402270e+00	-1.354511e+02
6.600000e-07	-8.736187e-07	-2.020469e-09	-6.041723e+00	-1.330122e+02
6.700000e-07	-8.211973e-07	-1.991860e-09	-5.679190e+00	-1.305370e+02
6.800000e-07	-7.684728e-07	-1.948329e-09	-5.314561e+00	-1.279310e+02
6.900000e-07	-7.154577e-07	-1.895171e-09	-4.947922e+00	-1.251583e+02
7.000000e-07	-6.621351e-07	-1.852189e-09	-4.579156e+00	-1.222611e+02
7.100000e-07	-6.085423e-07	-1.813413e-09	-4.208522e+00	-1.193230e+02
7.200000e-07	-5.547416e-07	-1.772575e-09	-3.836451e+00	-1.164062e+02
7.300000e-07	-5.007556e-07	-1.724698e-09	-3.463098e+00	-1.135091e+02
7.400000e-07	-4.465912e-07	-1.674587e-09	-3.088510e+00	-1.105729e+02
7.500000e-07	-3.922881e-07	-1.629347e-09	-2.712964e+00	-1.075282e+02
7.600000e-07	-3.379335e-07	-1.580688e-09	-2.337062e+00	-1.043458e+02
7.700000e-07	-2.835655e-07	-1.525829e-09	-1.961066e+00	-1.010527e+02
7.800000e-07	-2.290889e-07	-1.471079e-09	-1.584320e+00	-9.770474e+01
7.900000e-07	-1.745066e-07	-1.423896e-09	-1.206843e+00	-9.433747e+01
8.000000e-07	-1.198782e-07	-1.375354e-09	-8.290466e-01	-9.093457e+01
8.100000e-07	-6.520718e-08	-1.320195e-09	-4.509561e-01	-8.743605e+01
8.200000e-07	-1.054993e-08	-1.260206e-09	-7.296062e-02	-8.378064e+01
8.300000e-07	4.406499e-08	-1.201957e-09	3.047422e-01	-7.995101e+01
8.400000e-07	9.866546e-08	-1.145218e-09	6.823450e-01	-7.598955e+01
8.500000e-07	1.532550e-07	-1.084621e-09	1.059872e+00	-7.197326e+01
8.600000e-07	2.078065e-07	-1.021131e-09	1.437137e+00	-6.796498e+01
8.700000e-07	2.623269e-07	-9.586417e-10	1.814186e+00	-6.397295e+01
8.800000e-07	3.167911e-07	-9.010052e-10	2.190846e+00	-5.994396e+01
8.900000e-07	3.711260e-07	-8.392288e-10	2.566612e+00	-5.579222e+01
9.000000e-07	4.253505e-07	-7.705000e-10	2.941615e+00	-5.144409e+01
9.100000e-07	4.794746e-07	-6.999668e-10	3.315923e+00	-4.687130e+01
9.200000e-07	5.334150e-07	-6.308359e-10	3.688961e+00	-4.209579e+01
9.300000e-07	5.871700e-07	-5.581035e-10	4.060717e+00	-3.716812e+01
9.400000e-07	6.407198e-07	-4.781479e-10	4.431054e+00	-3.213562e+01
9.500000e-07	6.939983e-07	-3.955002e-10	4.799514e+00	-2.701867e+01
9.600000e-07	7.469689e-07	-3.139319e-10	5.165846e+00	-2.180404e+01
9.700000e-07	7.996458e-07	-2.359955e-10	5.530145e+00	-1.645309e+01
9.800000e-07	8.520977e-07	-1.535724e-10	5.892889e+00	-1.091609e+01
9.900000e-07	9.043341e-07	-6.418998e-11	6.254143e+00	-5.145233e+00
1.000000e-06	9.561707e-07	2.871031e-11	6.612632e+00	8.960288e-01
1.010000e-06	1.007494e-06	1.237617e-10	6.967570e+00	7.226349e+00
1.020000e-06	1.058246e-06	2.231323e-10	7.318555e+00	1.384216e+01
1.030000e-06	1.108320e-06	3.294262e-10	7.664860e+00	2.071791e+01
1.040000e-06	1.157703e-06	4.421921e-10	8.006376e+00	2.781374e+01
1.050000e-06	1.206579e-06	5.556680e-10	8.344391e+00	3.508965e+01
1.060000e-06	1.255170e-06	6.658721e-10	8.680435e+00	4.252005e+01
1.070000e-06	1.303465e-06	7.783272e-10	9.014431e+00	5.009910e+01
1.080000e-06	1.351385e-06	8.953392e-10	9.345832e+00	5.783094e+01
1.090000e-06	1.398775e-06	1.013647e-09	9.673571e+00	6.570749e+01
1.100000e-06	1.445616e-06	1.133302e-09	9.997513e+00	7.368531e+01
1.110000e-06	1.492052e-06	1.256362e-09	1.031865e+01	8.167602e+01
1.120000e-06	1.538014e-06	1.378960e-09	1.063651e+01	8.955894e+01
1.130000e-06	1.583405e-06	1.496426e-09	1.095042e+01	9.721219e+01
1.140000e-06	1.628258e-06	1.606736e-09	1.126062e+01	1.045476e+02
1.150000e-06	1.672711e-06	1.710110e-09	1.156804e+01	1.115315e+02
1.160000e-06	1.716763e-06	1.808690e-09	1.187269e+01	1.181797e+02
1.170000e-06	1.760153e-06	1.904107e-09	1.217277e+01	1.245307e+02
1.180000e-06	1.802693e-06	1.997442e-09	1.246696e+01	1.306122e+02
1.190000e-06	1.844302e-06	2.086363e-09	1.275472e+01	1.364201e+02
1.200000e-06	1.885139e-06	2.170611e-09	1.303714e+01	1.419209e+02
1.210000e-06	1.925485e-06	2.249546e-09	1.331616e+01	1.470763e+02
1.220000e-06	1.965287e-06	2.320843e-09	1.359142e+01	1.518717e+02
1.230000e-06	2.004408e-06	2.386426e-09	1.386197e+01	1.563311e+02
1.240000e-06	2.042844e-06	2.448137e-09	1.412779e+01	1.605087e+02
1.250000e-06	2.080568e-06	2.507705e-09	1.438868e+01	1.644614e+02
1.260000e-06	2.117616e-06	2.564117e-09	1.464489e+01	1.682202e+02
1.270000e-06	2.154109e-06	2.616149e-09	1.489727e+01	1.717781e+02
1.280000e-06	2.189941e-06	2.663630e-09	1.514507e+01	1.751023e+02
1.290000e-06	2.224785e-06	2.706890e-09	1.538604e+01	1.781622e+02
1.300000e-06	2.258570e-06	2.745846e-09	1.561969e+01	1.809558e+02
1.310000e-06	2.291461e-06	2.781868e-09	1.584716e+01	1.835177e+02
1.320000e-06	2.323608e-06	2.814963e-09	1.606947e+01	1.859042e+02
1.330000e-06	2.355037e-06	2.846952e-09	1.628683e+01	1.881661e+02
1.340000e-06	2.385731e-06	2.879185e-09	1.649910e+01	1.903272e+02
1.350000e-06	2.415611e-06	2.910663e-09	1.670575e+01	1.923792e+02
1.360000e-06	2.444699e-06	2.939806e-09	1.690691e+01	1.942971e+02
1.370000e-06	2.473143e-06	2.964878e-09	1.710362e+01	1.960615e+02
1.380000e-06	2.500766e-06	2.987218e-09	1.729466e+01	1.976737e+02
1.390000e-06	2.527228e-06	3.008145e-09	1.747766e+01	1.991580e+02
1.400000e-06	2.552565e-06	3.028763e-09	1.765289e+01	2.005492e+02
1.410000e-06	2.576940e-06	3.048917e-09	1.782146e+01	2.018782e+02
1.420000e-06	2.600434e-06	3.068629e-09	1.798393e+01	2.031612e+02
1.430000e-06	2.623089e-06	3.088377e-09	1.814061e+01	2.043972e+02
1.440000e-06	2.644812e-06	3.107334e-09	1.829084e+01	2.055713e+02
1.450000e-06	2.665694e-06	3.125738e-09	1.843526e+01	2.066604e+02
1.460000e-06	2.685877e-06	3.141024e-09	1.857484e+01	2.076414e+02
1.470000e-06	2.705179e-06	3.152739e-09	1.870832e+01	2.085014e+02
1.480000e-06	2.723407e-06	3.163115e-09	1.883439e+01	2.092493e+02
1.490000e-06	2.740658e-06	3.173349e-09	1.895369e+01	2.099204e+02
1.500000e-06	2.756936e-06	3.184945e-09	1.906626e+01	2.105679e+02
1.510000e-06	2.772102e-06	3.197743e-09	1.917115e+01	2.112397e+02
1.520000e-06	2.786186e-06	3.211055e-09	1.926855e+01	2.119509e+02
1.530000e-06	2.799293e-06	3.223756e-09	1.935919e+01	2.126692e+02
1.540000e-06	2.811415e-06	3.234224e-09	1.944303e+01	2.133285e+02
1.550000e-06	2.822268e-06	3.241319e-09	1.951808e+01	2.138653e+02
1.560000e-06	2.831857e-06	3.246201e-09	1.958440e+01	2.142587e+02
1.570000e-06	2.840440e-06	3.251236e-09	1.964375e+01	2.145447e+02
1.580000e-06	2.848045e-06	3.257526e-09	1.969635e+01	2.147943e+02
1.590000e-06	2.854711e-06	3.263785e-09	1.974245e+01	2.150654e+02
1.600000e-06	2.860446e-06	3.270533e-09	1.978211e+01	2.153629e+02
1.610000e-06	2.865299e-06	3.276514e-09	1.981567e+01	2.156364e+02
1.620000e-06	2.869276e-06	3.280543e-09	1.984318e+01	2.158198e+02
1.630000e-06	2.872136e-06	3.281342e-09	1.986296e+01	2.158844e+02
1.640000e-06	2.873772e-06	3.280900e-09	1.987427e+01	2.158659e+02
1.650000e-06	2.874384e-06	3.283735e-09	1.987850e+01	2.158390e+02
1.660000e-06	2.874086e-06	3.287157e-09	1.987644e+01	2.158580e+02
1.670000e-06	2.872834e-06	3.286737e-09	1.986778e+01	2.159054e+02
1.680000e-06	2.870682e-06	3.282406e-09	1.985290e+01	2.158946e+02
1.690000e-06	2.867745e-06	3.277112e-09	1.983259e+01	2.157315e+02
1.700000e-06	2.863988e-06	3.274813e-09	1.980661e+01	2.153943e+02
1.710000e-06	2.859238e-06	3.275074e-09	1.977376e+01	2.149678e+02
1.720000e-06	2.853331e-06	3.279762e-09	1.973290e+01	2.145979e+02
1.730000e-06	2.846414e-06	3.257891e-09	1.968507e+01	2.143870e+02
1.740000e-06	2.838603e-06	3.207734e-09	1.963105e+01	2.143029e+02
1.750000e-06	2.829512e-06	3.207606e-09	1.956818e+01	2.141751e+02
1.760000e-06	2.818810e-06	3.306367e-09	1.949417e+01	2.137965e+02
1.770000e-06	2.807068e-06	3.291427e-09	1.941296e+01	2.130714e+02
1.780000e-06	2.795180e-06	3.198265e-09	1.933075e+01	2.121093e+02
1.790000e-06	2.782643e-06	3.205014e-09	1.924405e+01	2.111873e+02
1.800000e-06	2.768471e-06	3.270720e-09	1.914603e+01	2.105910e+02
1.810000e-06	2.753111e-06	3.158784e-09	1.903981e+01	2.104288e+02
1.820000e-06	2.737174e-06	3.101899e-09	1.892959e+01	2.105441e+02
1.830000e-06	2.720162e-06	3.288921e-09	1.881194e+01	2.105936e+02
1.840000e-06	2.701859e-06	3.240925e-09	1.868537e+01	2.102490e+02
1.850000e-06	2.682808e-06	3.083524e-09	1.855361e+01	2.093974e+02
1.860000e-06	2.663022e-06	3.222926e-09	1.841678e+01	2.082083e+02
1.870000e-06	2.642069e-06	3.246651e-09	1.827187e+01	2.070197e+02
1.880000e-06	2.619987e-06	3.040260e-09	1.811916e+01	2.061184e+02
1.890000e-06	2.596902e-06	3.080706e-09	1.795951e+01	2.055573e+02
1.900000e-06	2.572763e-06	3.154287e-09	1.779257e+01	2.051315e+02
1.910000e-06	2.547850e-06	3.096129e-09	1.762028e+01	2.045257e+02
1.920000e-06	2.522191e-06	3.113314e-09	1.744283e+01	2.035317e+02
1.930000e-06	2.495625e-06	3.093660e-09	1.725910e+01	2.021875e+02
1.940000e-06	2.468376e-06	3.014109e-09	1.707065e+01	2.007462e+02
1.950000e-06	2.440272e-06	3.091890e-09	1.687630e+01	1.994993e+02
1.960000e-06	2.410936e-06	3.042157e-09	1.667341e+01	1.985782e+02
1.970000e-06	2.380519e-06	2.927283e-09	1.646306e+01	1.978696e+02
1.980000e-06	2.349325e-06	3.019486e-09	1.624733e+01	1.970981e+02
1.990000e-06	2.317451e-06	3.010078e-09	1.602690e+01	1.960155e+02
2.000000e-06	2.284907e-06	2.953770e-09	1.580183e+01	1.945643e+02
2.010000e-06	2.251512e-06	2.996425e-09	1.557088e+01	1.929051e+02
2.020000e-06	2.217289e-06	2.913050e-09	1.533420e+01	1.912980e+02
2.030000e-06	2.182451e-06	2.866161e-09	1.509327e+01	1.899232e+02
2.040000e-06	2.146932e-06	2.922453e-09	1.484763e+01	1.887676e+02
2.050000e-06	2.110635e-06	2.841955e-09	1.459661e+01	1.876493e+02
2.060000e-06	2.073451e-06	2.803390e-09	1.433945e+01	1.863533e+02
2.070000e-06	2.035266e-06	2.845504e-09	1.407538e+01	1.847798e+02
2.080000e-06	1.996269e-06	2.813900e-09	1.380568e+01	1.830010e+02
2.090000e-06	1.956685e-06	2.781117e-09	1.353194e+01	1.811975e+02
2.100000e-06	1.916479e-06	2.736802e-09	1.325388e+01	1.795259e+02
2.110000e-06	1.875603e-06	2.691502e-09	1.297119e+01	1.780163e+02
2.120000e-06	1.834128e-06	2.686862e-09	1.268436e+01	1.765678e+02
2.130000e-06	1.792111e-06	2.673571e-09	1.239378e+01	1.750329e+02
2.140000e-06	1.749510e-06	2.653739e-09	1.209916e+01	1.733248e+02
2.150000e-06	1.706379e-06	2.628069e-09	1.180088e+01	1.714660e+02
2.160000e-06	1.662826e-06	2.595955e-09	1.149968e+01	1.695520e+02
2.170000e-06	1.618673e-06	2.567252e-09	1.119432e+01	1.676653e+02
2.180000e-06	1.573869e-06	2.526205e-09	1.088448e+01	1.658098e+02
2.190000e-06	1.528429e-06	2.493944e-09	1.057022e+01	1.639145e+02
2.200000e-06	1.482376e-06	2.472601e-09	1.025173e+01	1.618989e+02
2.210000e-06	1.435936e-06	2.450893e-09	9.930566e+00	1.597452e+02
2.220000e-06	1.389054e-06	2.434063e-09	9.606343e+00	1.575180e+02
2.230000e-06	1.341638e-06	2.381380e-09	9.278425e+00	1.553182e+02
2.240000e-06	1.293636e-06	2.336028e-09	8.946454e+00	1.532045e+02
2.250000e-06	1.245040e-06	2.314112e-09	8.610380e+00	1.511456e+02
2.260000e-06	1.196034e-06	2.280979e-09	8.271466e+00	1.490388e+02
2.270000e-06	1.146645e-06	2.252150e-09	7.929904e+00	1.467819e+02
2.280000e-06	1.096810e-06	2.214321e-09	7.585259e+00	1.443450e+02
2.290000e-06	1.046574e-06	2.176789e-09	7.237836e+00	1.417902e+02
2.300000e-06	9.959176e-07	2.147061e-09	6.887511e+00	1.392253e+02
2.310000e-06	9.448879e-07	2.105664e-09	6.534602e+00	1.367265e+02
2.320000e-06	8.935758e-07	2.059023e-09	6.179741e+00	1.342856e+02
2.330000e-06	8.419920e-07	2.021554e-09	5.823001e+00	1.318196e+02
2.340000e-06	7.901060e-07	1.989008e-09	5.464171e+00	1.292310e+02
2.350000e-06	7.378245e-07	1.952784e-09	5.102605e+00	1.264756e+02
2.360000e-06	6.851030e-07	1.904581e-09	4.737997e+00	1.235882e+02
2.370000e-06	6.319389e-07	1.855252e-09	4.370327e+00	1.206508e+02
2.380000e-06	5.784488e-07	1.811223e-09	4.000404e+00	1.177308e+02
2.390000e-06	5.246831e-07	1.768807e-09	3.628573e+00	1.148340e+02
2.400000e-06	4.705350e-07	1.726191e-09	3.254099e+00	1.119058e+02
2.410000e-06	4.161311e-07	1.677538e-09	2.877856e+00	1.088753e+02
2.420000e-06	3.615525e-07	1.633269e-09	2.500404e+00	1.057075e+02
2.430000e-06	3.067316e-07	1.588212e-09	2.121277e+00	1.024240e+02
2.440000e-06	2.517468e-07	1.536625e-09	1.741016e+00	9.907968e+01
2.450000e-06	1.967091e-07	1.482159e-09	1.360390e+00	9.571448e+01
2.460000e-06	1.416714e-07	1.426318e-09	9.797633e-01	9.231801e+01
2.470000e-06	8.661811e-08	1.374734e-09	5.990286e-01	8.883331e+01
2.480000e-06	3.155737e-08	1.322473e-09	2.182427e-01	8.519682e+01
2.490000e-06	-2.351430e-08	1.264880e-09	-1.626189e-01	8.138504e+01
2.500000e-06	-7.862073e-08	1.203228e-09	-5.437208e-01	7.743449e+01
2.510000e-06	-1.337201e-07	1.142093e-09	-9.247737e-01	7.342064e+01
2.520000e-06	-1.887760e-07	1.082993e-09	-1.305526e+00	6.941018e+01
2.530000e-06	-2.437982e-07	1.022639e-09	-1.686046e+00	6.541823e+01
2.540000e-06	-2.987511e-07	9.588198e-10	-2.066086e+00	6.139733e+01
2.550000e-06	-3.535800e-07	8.953893e-10	-2.445269e+00	5.726307e+01
2.560000e-06	-4.082360e-07	8.306386e-10	-2.823255e+00	5.293852e+01
2.570000e-06	-4.626920e-07	7.597674e-10	-3.199859e+00	4.838976e+01
2.580000e-06	-5.169129e-07	6.843554e-10	-3.574837e+00	4.363403e+01
2.590000e-06	-5.707365e-07	6.072994e-10	-3.947067e+00	3.872032e+01
2.600000e-06	-6.241155e-07	5.328267e-10	-4.316223e+00	3.369771e+01
2.610000e-06	-6.771658e-07	4.591780e-10	-4.683105e+00	2.859011e+01
2.620000e-06	-7.298936e-07	3.819141e-10	-5.047757e+00	2.338770e+01
2.630000e-06	-7.821895e-07	2.979570e-10	-5.409422e+00	1.805389e+01
2.640000e-06	-8.340496e-07	2.113075e-10	-5.768073e+00	1.253947e+01
2.650000e-06	-8.855947e-07	1.251476e-10	-6.124546e+00	6.795911e+00
2.660000e-06	-9.369024e-07	3.440062e-11	-6.479377e+00	7.851089e-01
2.670000e-06	-9.879593e-07	-6.340776e-11	-6.832473e+00	-5.513766e+00
2.680000e-06	-1.038625e-06	-1.653714e-10	-7.182864e+00	-1.209962e+01
2.690000e-06	-1.088812e-06	-2.653530e-10	-7.529946e+00	-1.894905e+01
2.700000e-06	-1.138571e-06	-3.677394e-10	-7.874062e+00	-2.602311e+01
2.710000e-06	-1.187968e-06	-4.794463e-10	-8.215682e+00	-3.328106e+01
2.720000e-06	-1.236946e-06	-5.974173e-10	-8.554400e+00	-4.069528e+01
2.730000e-06	-1.285266e-06	-7.153284e-10	-8.888567e+00	-4.825800e+01
2.740000e-06	-1.332837e-06	-8.331028e-10	-9.217562e+00	-5.597319e+01
2.750000e-06	-1.379686e-06	-9.540245e-10	-9.541556e+00	-6.383530e+01
2.760000e-06	-1.425951e-06	-1.076468e-09	-9.861510e+00	-7.180549e+01
2.770000e-06	-1.471813e-06	-1.198101e-09	-1.017868e+01	-7.980000e+01
2.780000e-06	-1.517346e-06	-1.316783e-09	-1.049357e+01	-8.770036e+01
2.790000e-06	-1.562506e-06	-1.433017e-09	-1.080589e+01	-9.538305e+01
2.800000e-06	-1.607088e-06	-1.547191e-09	-1.111421e+01	-1.027550e+02
2.810000e-06	-1.651039e-06	-1.658094e-09	-1.141816e+01	-1.097762e+02
2.820000e-06	-1.694543e-06	-1.763030e-09	-1.171902e+01	-1.164584e+02
2.830000e-06	-1.737700e-06	-1.861802e-09	-1.201749e+01	-1.228392e+02
2.840000e-06	-1.780342e-06	-1.955234e-09	-1.231239e+01	-1.289490e+02
2.850000e-06	-1.822326e-06	-2.043498e-09	-1.260274e+01	-1.347871e+02
2.860000e-06	-1.863708e-06	-2.126241e-09	-1.288893e+01	-1.403226e+02
2.870000e-06	-1.904470e-06	-2.203986e-09	-1.317083e+01	-1.455161e+02
2.880000e-06	-1.944534e-06	-2.278141e-09	-1.344790e+01	-1.503494e+02
2.890000e-06	-1.984048e-06	-2.349084e-09	-1.372117e+01	-1.548424e+02
2.900000e-06	-2.023096e-06	-2.417265e-09	-1.399121e+01	-1.590470e+02
2.910000e-06	-2.061381e-06	-2.481612e-09	-1.425598e+01	-1.630214e+02
2.920000e-06	-2.098569e-06	-2.542214e-09	-1.451316e+01	-1.668004e+02
2.930000e-06	-2.134732e-06	-2.598326e-09	-1.476326e+01	-1.703809e+02
2.940000e-06	-2.170190e-06	-2.650170e-09	-1.500848e+01	-1.737317e+02
