# Temperatura_=_17.72
# Concentracion g/m^3_=_15500.0
# C_Vs_to_Am_M_A/Vsm_=_65563218390.804596
# pendiente_HvsI_1/m_=_3716.3
# ordenada_HvsI_A/m_=_1297.0
# frecuencia_Hz_=_301001.8572472411

Tiempo_(s)	Campo_(V.s)	Magnetizacion_(V.s)	Campo_(kA/m)	Magnetizacion_(A/m)
0.000000e+00	-2.856019e-06	-3.212851e-09	-1.978322e+01	-2.087749e+02
1.000000e-08	-2.855267e-06	-3.212226e-09	-1.977801e+01	-2.087327e+02
2.000000e-08	-2.853545e-06	-3.212309e-09	-1.976609e+01	-2.086726e+02
3.000000e-08	-2.850592e-06	-3.211760e-09	-1.974563e+01	-2.085431e+02
4.000000e-08	-2.846569e-06	-3.209440e-09	-1.971776e+01	-2.083201e+02
5.000000e-08	-2.841675e-06	-3.204269e-09	-1.968386e+01	-2.080429e+02
6.000000e-08	-2.835918e-06	-3.196229e-09	-1.964399e+01	-2.077927e+02
7.000000e-08	-2.829252e-06	-3.191461e-09	-1.959781e+01	-2.076243e+02
8.000000e-08	-2.821579e-06	-3.216682e-09	-1.954466e+01	-2.075032e+02
9.000000e-08	-2.812809e-06	-3.244634e-09	-1.948391e+01	-2.073050e+02
1.000000e-07	-2.802646e-06	-3.210484e-09	-1.941352e+01	-2.068951e+02
1.100000e-07	-2.791098e-06	-3.108891e-09	-1.933352e+01	-2.062379e+02
1.200000e-07	-2.778731e-06	-3.110386e-09	-1.924786e+01	-2.054544e+02
1.300000e-07	-2.765652e-06	-3.201072e-09	-1.915727e+01	-2.047727e+02
1.400000e-07	-2.751576e-06	-3.160727e-09	-1.905976e+01	-2.043885e+02
1.500000e-07	-2.736423e-06	-3.096795e-09	-1.895480e+01	-2.043253e+02
1.600000e-07	-2.720144e-06	-3.168629e-09	-1.884204e+01	-2.043943e+02
1.700000e-07	-2.702578e-06	-3.169813e-09	-1.872036e+01	-2.042938e+02
1.800000e-07	-2.684000e-06	-3.043899e-09	-1.859167e+01	-2.037915e+02
1.900000e-07	-2.664760e-06	-3.068861e-09	-1.845840e+01	-2.028710e+02
2.000000e-07	-2.644690e-06	-3.104863e-09	-1.831938e+01	-2.017406e+02
2.100000e-07	-2.623696e-06	-2.995999e-09	-1.817395e+01	-2.006956e+02
2.200000e-07	-2.601897e-06	-3.021572e-09	-1.802296e+01	-1.999240e+02
2.300000e-07	-2.579209e-06	-3.123735e-09	-1.786580e+01	-1.993869e+02
2.400000e-07	-2.555563e-06	-3.047634e-09	-1.770201e+01	-1.988550e+02
2.500000e-07	-2.531143e-06	-2.970945e-09	-1.753286e+01	-1.980735e+02
2.600000e-07	-2.505955e-06	-2.981662e-09	-1.735838e+01	-1.969392e+02
2.700000e-07	-2.479638e-06	-2.968183e-09	-1.717609e+01	-1.955679e+02
2.800000e-07	-2.452124e-06	-2.964725e-09	-1.698550e+01	-1.942072e+02
2.900000e-07	-2.423705e-06	-2.943827e-09	-1.678865e+01	-1.930615e+02
3.000000e-07	-2.394501e-06	-2.901969e-09	-1.658636e+01	-1.921532e+02
3.100000e-07	-2.364581e-06	-2.926144e-09	-1.637911e+01	-1.913171e+02
3.200000e-07	-2.333930e-06	-2.925743e-09	-1.616679e+01	-1.903263e+02
3.300000e-07	-2.302478e-06	-2.841955e-09	-1.594892e+01	-1.890552e+02
3.400000e-07	-2.270255e-06	-2.822964e-09	-1.572572e+01	-1.875635e+02
3.500000e-07	-2.237428e-06	-2.824810e-09	-1.549833e+01	-1.860435e+02
3.600000e-07	-2.203886e-06	-2.800525e-09	-1.526599e+01	-1.846751e+02
3.700000e-07	-2.169274e-06	-2.813088e-09	-1.502624e+01	-1.834959e+02
3.800000e-07	-2.133572e-06	-2.783630e-09	-1.477894e+01	-1.823786e+02
3.900000e-07	-2.097113e-06	-2.726096e-09	-1.452639e+01	-1.811260e+02
4.000000e-07	-2.060057e-06	-2.731170e-09	-1.426971e+01	-1.796125e+02
4.100000e-07	-2.022285e-06	-2.721387e-09	-1.400807e+01	-1.778671e+02
4.200000e-07	-1.983764e-06	-2.650048e-09	-1.374124e+01	-1.760440e+02
4.300000e-07	-1.944496e-06	-2.622460e-09	-1.346923e+01	-1.743083e+02
4.400000e-07	-1.904558e-06	-2.632555e-09	-1.319259e+01	-1.727219e+02
4.500000e-07	-1.864142e-06	-2.618869e-09	-1.291264e+01	-1.712125e+02
4.600000e-07	-1.823348e-06	-2.579972e-09	-1.263006e+01	-1.696370e+02
4.700000e-07	-1.781856e-06	-2.535988e-09	-1.234265e+01	-1.678899e+02
4.800000e-07	-1.739280e-06	-2.505038e-09	-1.204774e+01	-1.659719e+02
4.900000e-07	-1.695683e-06	-2.488577e-09	-1.174575e+01	-1.639761e+02
5.000000e-07	-1.651467e-06	-2.462544e-09	-1.143947e+01	-1.620095e+02
5.100000e-07	-1.606908e-06	-2.417737e-09	-1.113082e+01	-1.601128e+02
5.200000e-07	-1.561926e-06	-2.389442e-09	-1.081923e+01	-1.582401e+02
5.300000e-07	-1.516386e-06	-2.371993e-09	-1.050378e+01	-1.563046e+02
5.400000e-07	-1.470267e-06	-2.343255e-09	-1.018432e+01	-1.542507e+02
5.500000e-07	-1.423577e-06	-2.295541e-09	-9.860906e+00	-1.520936e+02
5.600000e-07	-1.376361e-06	-2.249178e-09	-9.533849e+00	-1.498991e+02
5.700000e-07	-1.328700e-06	-2.223872e-09	-9.203710e+00	-1.477241e+02
5.800000e-07	-1.280643e-06	-2.207098e-09	-8.870822e+00	-1.455688e+02
5.900000e-07	-1.232249e-06	-2.170730e-09	-8.535607e+00	-1.433776e+02
6.000000e-07	-1.183467e-06	-2.119609e-09	-8.197704e+00	-1.410867e+02
6.100000e-07	-1.134122e-06	-2.083757e-09	-7.855896e+00	-1.386781e+02
6.200000e-07	-1.084090e-06	-2.055869e-09	-7.509333e+00	-1.361964e+02
6.300000e-07	-1.033378e-06	-2.019105e-09	-7.158055e+00	-1.337151e+02
6.400000e-07	-9.820947e-07	-1.969219e-09	-6.802825e+00	-1.312796e+02
6.500000e-07	-9.303844e-07	-1.925067e-09	-6.444636e+00	-1.288710e+02
6.600000e-07	-8.783290e-07	-1.896854e-09	-6.084056e+00	-1.264175e+02
6.700000e-07	-8.259886e-07	-1.866905e-09	-5.721501e+00	-1.238449e+02
6.800000e-07	-7.734029e-07	-1.819917e-09	-5.357248e+00	-1.211272e+02
6.900000e-07	-7.205300e-07	-1.768318e-09	-4.991005e+00	-1.183005e+02
7.000000e-07	-6.673908e-07	-1.729217e-09	-4.622918e+00	-1.154333e+02
7.100000e-07	-6.139800e-07	-1.692833e-09	-4.252949e+00	-1.125769e+02
7.200000e-07	-5.603207e-07	-1.646170e-09	-3.881259e+00	-1.097337e+02
7.300000e-07	-5.064987e-07	-1.591221e-09	-3.508442e+00	-1.068623e+02
7.400000e-07	-4.524631e-07	-1.543246e-09	-3.134145e+00	-1.039119e+02
7.500000e-07	-3.982182e-07	-1.502497e-09	-2.758399e+00	-1.008568e+02
7.600000e-07	-3.438993e-07	-1.457412e-09	-2.382140e+00	-9.770611e+01
7.700000e-07	-2.895203e-07	-1.404007e-09	-2.005465e+00	-9.448625e+01
7.800000e-07	-2.350100e-07	-1.352388e-09	-1.627880e+00	-9.121378e+01
7.900000e-07	-1.804118e-07	-1.307282e-09	-1.249686e+00	-8.788197e+01
8.000000e-07	-1.258376e-07	-1.256998e-09	-8.716586e-01	-8.446914e+01
8.100000e-07	-7.127460e-08	-1.196942e-09	-4.937087e-01	-8.095895e+01
8.200000e-07	-1.668811e-08	-1.136289e-09	-1.155961e-01	-7.735430e+01
8.300000e-07	3.789781e-08	-1.084925e-09	2.625125e-01	-7.367424e+01
8.400000e-07	9.248183e-08	-1.034821e-09	6.406080e-01	-6.993890e+01
8.500000e-07	1.470581e-07	-9.764604e-10	1.018650e+00	-6.615622e+01
8.600000e-07	2.016118e-07	-9.133733e-10	1.396536e+00	-6.232049e+01
8.700000e-07	2.561013e-07	-8.551725e-10	1.773976e+00	-5.842040e+01
8.800000e-07	3.105429e-07	-7.998200e-10	2.151085e+00	-5.444547e+01
8.900000e-07	3.649315e-07	-7.374213e-10	2.527827e+00	-5.038343e+01
9.000000e-07	4.192108e-07	-6.686113e-10	2.903812e+00	-4.621204e+01
9.100000e-07	4.733444e-07	-6.013097e-10	3.278787e+00	-4.189766e+01
9.200000e-07	5.272874e-07	-5.382621e-10	3.652442e+00	-3.740853e+01
9.300000e-07	5.809861e-07	-4.720513e-10	4.024405e+00	-3.273693e+01
9.400000e-07	6.344448e-07	-3.981115e-10	4.394706e+00	-2.791214e+01
9.500000e-07	6.876264e-07	-3.208790e-10	4.763087e+00	-2.298848e+01
9.600000e-07	7.405489e-07	-2.463530e-10	5.129673e+00	-1.800982e+01
9.700000e-07	7.932301e-07	-1.733911e-10	5.494588e+00	-1.297212e+01
9.800000e-07	8.456229e-07	-9.466582e-11	5.857506e+00	-7.811902e+00
9.900000e-07	8.977245e-07	-7.659886e-12	6.218406e+00	-2.433664e+00
1.000000e-06	9.494834e-07	8.126570e-11	6.576932e+00	3.237383e+00
1.010000e-06	1.000799e-06	1.687192e-10	6.932387e+00	9.210722e+00
1.020000e-06	1.051467e-06	2.603193e-10	7.283360e+00	1.542434e+01
1.030000e-06	1.101418e-06	3.581374e-10	7.629359e+00	2.178250e+01
1.040000e-06	1.150787e-06	4.588614e-10	7.971335e+00	2.821333e+01
1.050000e-06	1.199700e-06	5.587511e-10	8.310146e+00	3.470890e+01
1.060000e-06	1.248287e-06	6.589262e-10	8.646701e+00	4.132230e+01
1.070000e-06	1.296602e-06	7.627365e-10	8.981374e+00	4.812540e+01
1.080000e-06	1.344561e-06	8.701337e-10	9.313575e+00	5.515561e+01
1.090000e-06	1.392032e-06	9.779570e-10	9.642398e+00	6.238475e+01
1.100000e-06	1.438978e-06	1.085850e-09	9.967588e+00	6.972533e+01
1.110000e-06	1.485378e-06	1.197669e-09	1.028899e+01	7.706481e+01
1.120000e-06	1.531195e-06	1.310815e-09	1.060636e+01	8.430307e+01
1.130000e-06	1.576459e-06	1.419325e-09	1.091990e+01	9.137234e+01
1.140000e-06	1.621285e-06	1.522361e-09	1.123040e+01	9.823524e+01
1.150000e-06	1.665803e-06	1.621801e-09	1.153877e+01	1.048720e+02
1.160000e-06	1.709904e-06	1.717684e-09	1.184425e+01	1.112705e+02
1.170000e-06	1.753348e-06	1.809465e-09	1.214519e+01	1.174247e+02
1.180000e-06	1.795824e-06	1.897658e-09	1.243941e+01	1.233353e+02
1.190000e-06	1.837305e-06	1.983397e-09	1.272674e+01	1.290071e+02
1.200000e-06	1.878097e-06	2.067906e-09	1.300930e+01	1.344391e+02
1.210000e-06	1.918388e-06	2.148518e-09	1.328839e+01	1.396174e+02
1.220000e-06	1.958152e-06	2.222719e-09	1.356383e+01	1.445180e+02
1.230000e-06	1.997243e-06	2.290898e-09	1.383461e+01	1.491203e+02
1.240000e-06	2.035668e-06	2.354148e-09	1.410077e+01	1.534229e+02
1.250000e-06	2.073365e-06	2.413678e-09	1.436189e+01	1.574476e+02
1.260000e-06	2.110345e-06	2.468370e-09	1.461805e+01	1.612282e+02
1.270000e-06	2.146825e-06	2.518072e-09	1.487074e+01	1.647914e+02
1.280000e-06	2.182696e-06	2.566338e-09	1.511921e+01	1.681447e+02
1.290000e-06	2.217612e-06	2.613946e-09	1.536107e+01	1.712801e+02
1.300000e-06	2.251414e-06	2.657212e-09	1.559521e+01	1.741912e+02
1.310000e-06	2.284324e-06	2.694995e-09	1.582318e+01	1.768876e+02
1.320000e-06	2.316568e-06	2.729095e-09	1.604653e+01	1.793955e+02
1.330000e-06	2.348097e-06	2.762771e-09	1.626492e+01	1.817425e+02
1.340000e-06	2.378856e-06	2.794893e-09	1.647799e+01	1.839406e+02
1.350000e-06	2.408820e-06	2.823904e-09	1.668554e+01	1.859828e+02
1.360000e-06	2.437951e-06	2.850965e-09	1.688733e+01	1.878570e+02
1.370000e-06	2.466394e-06	2.876386e-09	1.708435e+01	1.895689e+02
1.380000e-06	2.494111e-06	2.900019e-09	1.727634e+01	1.911519e+02
1.390000e-06	2.520664e-06	2.921407e-09	1.746027e+01	1.926569e+02
1.400000e-06	2.545989e-06	2.940415e-09	1.763569e+01	1.941261e+02
1.410000e-06	2.570361e-06	2.959710e-09	1.780451e+01	1.955695e+02
1.420000e-06	2.593863e-06	2.980388e-09	1.796731e+01	1.969634e+02
1.430000e-06	2.616507e-06	3.000173e-09	1.812416e+01	1.982695e+02
1.440000e-06	2.638296e-06	3.018450e-09	1.827508e+01	1.994610e+02
1.450000e-06	2.659271e-06	3.035914e-09	1.842038e+01	2.005360e+02
1.460000e-06	2.679529e-06	3.052638e-09	1.856070e+01	2.015112e+02
1.470000e-06	2.698915e-06	3.066234e-09	1.869498e+01	2.024033e+02
1.480000e-06	2.717235e-06	3.075859e-09	1.882188e+01	2.032187e+02
1.490000e-06	2.734609e-06	3.085901e-09	1.894223e+01	2.039588e+02
1.500000e-06	2.750975e-06	3.098641e-09	1.905560e+01	2.046353e+02
1.510000e-06	2.766260e-06	3.111319e-09	1.916148e+01	2.052773e+02
1.520000e-06	2.780524e-06	3.121256e-09	1.926028e+01	2.059185e+02
1.530000e-06	2.793752e-06	3.130035e-09	1.935191e+01	2.065699e+02
1.540000e-06	2.805985e-06	3.140076e-09	1.943665e+01	2.072022e+02
1.550000e-06	2.816988e-06	3.148754e-09	1.951286e+01	2.077558e+02
1.560000e-06	2.826606e-06	3.154424e-09	1.957949e+01	2.081777e+02
1.570000e-06	2.835198e-06	3.159269e-09	1.963900e+01	2.084617e+02
1.580000e-06	2.842952e-06	3.164789e-09	1.969271e+01	2.086589e+02
1.590000e-06	2.849761e-06	3.170845e-09	1.973987e+01	2.088485e+02
1.600000e-06	2.855556e-06	3.174660e-09	1.978001e+01	2.090856e+02
1.610000e-06	2.860455e-06	3.175387e-09	1.981395e+01	2.093646e+02
1.620000e-06	2.864548e-06	3.177781e-09	1.984230e+01	2.096253e+02
1.630000e-06	2.867502e-06	3.183550e-09	1.986277e+01	2.097992e+02
1.640000e-06	2.869143e-06	3.188789e-09	1.987413e+01	2.098593e+02
1.650000e-06	2.869774e-06	3.192242e-09	1.987850e+01	2.098360e+02
1.660000e-06	2.869585e-06	3.192736e-09	1.987719e+01	2.097865e+02
1.670000e-06	2.868526e-06	3.188789e-09	1.986986e+01	2.097435e+02
1.680000e-06	2.866479e-06	3.184833e-09	1.985568e+01	2.096876e+02
1.690000e-06	2.863542e-06	3.181526e-09	1.983533e+01	2.095674e+02
1.700000e-06	2.859874e-06	3.179713e-09	1.980993e+01	2.093535e+02
1.710000e-06	2.855279e-06	3.181544e-09	1.977810e+01	2.090782e+02
1.720000e-06	2.849497e-06	3.189076e-09	1.973804e+01	2.088211e+02
1.730000e-06	2.842693e-06	3.184591e-09	1.969092e+01	2.086436e+02
1.740000e-06	2.835070e-06	3.134832e-09	1.963811e+01	2.085219e+02
1.750000e-06	2.826259e-06	3.099091e-09	1.957708e+01	2.083390e+02
1.760000e-06	2.815812e-06	3.163473e-09	1.950472e+01	2.079558e+02
1.770000e-06	2.804128e-06	3.223513e-09	1.942378e+01	2.073218e+02
1.780000e-06	2.792180e-06	3.167193e-09	1.934102e+01	2.065417e+02
1.790000e-06	2.779779e-06	3.091242e-09	1.925512e+01	2.058375e+02
1.800000e-06	2.765834e-06	3.156641e-09	1.915853e+01	2.054162e+02
1.810000e-06	2.750468e-06	3.142216e-09	1.905209e+01	2.053240e+02
1.820000e-06	2.734539e-06	3.039111e-09	1.894175e+01	2.053925e+02
1.830000e-06	2.717734e-06	3.115037e-09	1.882534e+01	2.053238e+02
1.840000e-06	2.699552e-06	3.180357e-09	1.869940e+01	2.048697e+02
1.850000e-06	2.680528e-06	3.070016e-09	1.856763e+01	2.039870e+02
1.860000e-06	2.660843e-06	3.066181e-09	1.843127e+01	2.028646e+02
1.870000e-06	2.639969e-06	3.150890e-09	1.828667e+01	2.017979e+02
1.880000e-06	2.617928e-06	3.032229e-09	1.813401e+01	2.009943e+02
1.890000e-06	2.594971e-06	2.957843e-09	1.797498e+01	2.004405e+02
1.900000e-06	2.570975e-06	3.058738e-09	1.780876e+01	1.999213e+02
1.910000e-06	2.546143e-06	3.059432e-09	1.763676e+01	1.991750e+02
1.920000e-06	2.520653e-06	3.005873e-09	1.746019e+01	1.980764e+02
1.930000e-06	2.494266e-06	2.998931e-09	1.727741e+01	1.967194e+02
1.940000e-06	2.467138e-06	2.951456e-09	1.708950e+01	1.953452e+02
1.950000e-06	2.439294e-06	2.975691e-09	1.689663e+01	1.941714e+02
1.960000e-06	2.410253e-06	2.964059e-09	1.669547e+01	1.932428e+02
1.970000e-06	2.380004e-06	2.860830e-09	1.648594e+01	1.924100e+02
1.980000e-06	2.348921e-06	2.901850e-09	1.627063e+01	1.914444e+02
1.990000e-06	2.317240e-06	2.944077e-09	1.605118e+01	1.902035e+02
2.000000e-06	2.284874e-06	2.860293e-09	1.582698e+01	1.887274e+02
2.010000e-06	2.251642e-06	2.857508e-09	1.559680e+01	1.872000e+02
2.020000e-06	2.217577e-06	2.842474e-09	1.536083e+01	1.858101e+02
2.030000e-06	2.182857e-06	2.771371e-09	1.512033e+01	1.846141e+02
2.040000e-06	2.147493e-06	2.802354e-09	1.487537e+01	1.834993e+02
2.050000e-06	2.111414e-06	2.785002e-09	1.462545e+01	1.822693e+02
2.060000e-06	2.074521e-06	2.716211e-09	1.436990e+01	1.807850e+02
2.070000e-06	2.036553e-06	2.732574e-09	1.410690e+01	1.790583e+02
2.080000e-06	1.997654e-06	2.725550e-09	1.383745e+01	1.772345e+02
2.090000e-06	1.958185e-06	2.676590e-09	1.356406e+01	1.754837e+02
2.100000e-06	1.918137e-06	2.640813e-09	1.328665e+01	1.738825e+02
2.110000e-06	1.877402e-06	2.605285e-09	1.300449e+01	1.723711e+02
2.120000e-06	1.836059e-06	2.599029e-09	1.271811e+01	1.708090e+02
2.130000e-06	1.794179e-06	2.587184e-09	1.242801e+01	1.690821e+02
2.140000e-06	1.751698e-06	2.545344e-09	1.213375e+01	1.671788e+02
2.150000e-06	1.708644e-06	2.518939e-09	1.183553e+01	1.651855e+02
2.160000e-06	1.665166e-06	2.495905e-09	1.153436e+01	1.632120e+02
2.170000e-06	1.621142e-06	2.468320e-09	1.122941e+01	1.613084e+02
2.180000e-06	1.576405e-06	2.431246e-09	1.091953e+01	1.594370e+02
2.190000e-06	1.531076e-06	2.393567e-09	1.060554e+01	1.575117e+02
2.200000e-06	1.485214e-06	2.371194e-09	1.028786e+01	1.554708e+02
2.210000e-06	1.438948e-06	2.348323e-09	9.967381e+00	1.533219e+02
2.220000e-06	1.392296e-06	2.323234e-09	9.644229e+00	1.511277e+02
2.230000e-06	1.345137e-06	2.280703e-09	9.317569e+00	1.489492e+02
2.240000e-06	1.297363e-06	2.236434e-09	8.986643e+00	1.467935e+02
2.250000e-06	1.248913e-06	2.212929e-09	8.651038e+00	1.446093e+02
2.260000e-06	1.199947e-06	2.183001e-09	8.311857e+00	1.423309e+02
2.270000e-06	1.150630e-06	2.139188e-09	7.970243e+00	1.399336e+02
2.280000e-06	1.100981e-06	2.097281e-09	7.626336e+00	1.374560e+02
2.290000e-06	1.050902e-06	2.063615e-09	7.279443e+00	1.349713e+02
2.300000e-06	1.000365e-06	2.036790e-09	6.929381e+00	1.325304e+02
2.310000e-06	9.494235e-07	1.998371e-09	6.576517e+00	1.301215e+02
2.320000e-06	8.981731e-07	1.951204e-09	6.221513e+00	1.276765e+02
2.330000e-06	8.467355e-07	1.916000e-09	5.865212e+00	1.251189e+02
2.340000e-06	7.950555e-07	1.882387e-09	5.507232e+00	1.224157e+02
2.350000e-06	7.429580e-07	1.839720e-09	5.146361e+00	1.195974e+02
2.360000e-06	6.903518e-07	1.787201e-09	4.781965e+00	1.167311e+02
2.370000e-06	6.372610e-07	1.739337e-09	4.414213e+00	1.138723e+02
2.380000e-06	5.837843e-07	1.704217e-09	4.043788e+00	1.110289e+02
2.390000e-06	5.299841e-07	1.666929e-09	3.671122e+00	1.081629e+02
2.400000e-06	4.758920e-07	1.621242e-09	3.296434e+00	1.052226e+02
2.410000e-06	4.215903e-07	1.572120e-09	2.920294e+00	1.021785e+02
2.420000e-06	3.671145e-07	1.527383e-09	2.542948e+00	9.903672e+01
2.430000e-06	3.124022e-07	1.481006e-09	2.163964e+00	9.582289e+01
2.440000e-06	2.575140e-07	1.426787e-09	1.783761e+00	9.255573e+01
2.450000e-06	2.025763e-07	1.371025e-09	1.403216e+00	8.923098e+01
2.460000e-06	1.476046e-07	1.319763e-09	1.022435e+00	8.582765e+01
2.470000e-06	9.260028e-08	1.271033e-09	6.414285e-01	8.232791e+01
2.480000e-06	3.757516e-08	1.218157e-09	2.602776e-01	7.873241e+01
2.490000e-06	-1.745804e-08	1.158975e-09	-1.209293e-01	7.505912e+01
2.500000e-06	-7.250363e-08	1.100350e-09	-5.022220e-01	7.132883e+01
2.510000e-06	-1.275528e-07	1.045592e-09	-8.835392e-01	6.755107e+01
2.520000e-06	-1.825808e-07	9.870286e-10	-1.264710e+00	6.372132e+01
2.530000e-06	-2.375477e-07	9.238907e-10	-1.645458e+00	5.982843e+01
2.540000e-06	-2.924062e-07	8.620717e-10	-2.025455e+00	5.586178e+01
2.550000e-06	-3.471180e-07	8.048199e-10	-2.404436e+00	5.180967e+01
2.560000e-06	-4.016898e-07	7.459966e-10	-2.782446e+00	4.765123e+01
2.570000e-06	-4.561276e-07	6.781596e-10	-3.159529e+00	4.335368e+01
2.580000e-06	-5.103214e-07	6.054897e-10	-3.534921e+00	3.888402e+01
2.590000e-06	-5.641828e-07	5.338632e-10	-3.908011e+00	3.423100e+01
2.600000e-06	-6.176501e-07	4.616984e-10	-4.278371e+00	2.942000e+01
2.610000e-06	-6.706663e-07	3.857623e-10	-4.645607e+00	2.450407e+01
2.620000e-06	-7.232410e-07	3.074966e-10	-5.009784e+00	1.953019e+01
2.630000e-06	-7.753767e-07	2.296439e-10	-5.370920e+00	1.450067e+01
2.640000e-06	-8.271636e-07	1.528052e-10	-5.729641e+00	9.357749e+00
2.650000e-06	-8.787072e-07	7.344797e-11	-6.086675e+00	4.007049e+00
2.660000e-06	-9.299493e-07	-1.307146e-11	-6.441622e+00	-1.631026e+00
2.670000e-06	-9.808927e-07	-1.060356e-10	-6.794499e+00	-7.574090e+00
2.680000e-06	-1.031500e-06	-2.008212e-10	-7.145050e+00	-1.376665e+01
2.690000e-06	-1.081681e-06	-2.952645e-10	-7.492648e+00	-2.011387e+01
2.700000e-06	-1.131433e-06	-3.938772e-10	-7.837272e+00	-2.653880e+01
2.710000e-06	-1.180799e-06	-4.962500e-10	-8.179219e+00	-3.302594e+01
2.720000e-06	-1.229733e-06	-5.977221e-10	-8.518176e+00	-3.962337e+01
2.730000e-06	-1.278137e-06	-6.984617e-10	-8.853466e+00	-4.640359e+01
2.740000e-06	-1.325789e-06	-8.045182e-10	-9.183548e+00	-5.340981e+01
2.750000e-06	-1.372615e-06	-9.180527e-10	-9.507905e+00	-6.062122e+01
2.760000e-06	-1.418845e-06	-1.032690e-09	-9.828128e+00	-6.795538e+01
2.770000e-06	-1.464635e-06	-1.143605e-09	-1.014531e+01	-7.530046e+01
2.780000e-06	-1.510150e-06	-1.252494e-09	-1.046058e+01	-8.255366e+01
2.790000e-06	-1.555312e-06	-1.361449e-09	-1.077342e+01	-8.964349e+01
2.800000e-06	-1.599904e-06	-1.468105e-09	-1.108230e+01	-9.652987e+01
2.810000e-06	-1.643898e-06	-1.570785e-09	-1.138704e+01	-1.031918e+02
2.820000e-06	-1.687411e-06	-1.669984e-09	-1.168845e+01	-1.096165e+02
2.830000e-06	-1.730525e-06	-1.767631e-09	-1.198709e+01	-1.157971e+02
2.840000e-06	-1.773156e-06	-1.862152e-09	-1.228239e+01	-1.217338e+02
2.850000e-06	-1.815182e-06	-1.949723e-09	-1.257350e+01	-1.274313e+02
2.860000e-06	-1.856595e-06	-2.029636e-09	-1.286036e+01	-1.328896e+02
2.870000e-06	-1.897393e-06	-2.106652e-09	-1.314296e+01	-1.380964e+02
2.880000e-06	-1.937516e-06	-2.182340e-09	-1.342089e+01	-1.430281e+02
2.890000e-06	-1.977036e-06	-2.255111e-09	-1.369464e+01	-1.476632e+02
2.900000e-06	-2.016064e-06	-2.324545e-09	-1.396498e+01	-1.519974e+02
2.910000e-06	-2.054358e-06	-2.390090e-09	-1.423024e+01	-1.560506e+02
2.920000e-06	-2.091645e-06	-2.453265e-09	-1.448852e+01	-1.598560e+02
2.930000e-06	-2.127975e-06	-2.512352e-09	-1.474017e+01	-1.634420e+02
2.940000e-06	-2.163479e-06	-2.564465e-09	-1.498610e+01	-1.668182e+02
