# Temperatura_=_16.5
# Concentracion g/m^3_=_15500.0
# C_Vs_to_Am_M_A/Vsm_=_65563218390.804596
# pendiente_HvsI_1/m_=_3716.3
# ordenada_HvsI_A/m_=_1297.0
# frecuencia_Hz_=_301005.74194594665

Tiempo_(s)	Campo_(V.s)	Magnetizacion_(V.s)	Campo_(kA/m)	Magnetizacion_(A/m)
0.000000e+00	-2.861855e-06	-3.051679e-09	-1.978153e+01	-1.992964e+02
1.000000e-08	-2.861101e-06	-3.053147e-09	-1.977632e+01	-1.992889e+02
2.000000e-08	-2.859409e-06	-3.053024e-09	-1.976462e+01	-1.992044e+02
3.000000e-08	-2.856556e-06	-3.050727e-09	-1.974491e+01	-1.989914e+02
4.000000e-08	-2.852620e-06	-3.046463e-09	-1.971770e+01	-1.986567e+02
5.000000e-08	-2.847846e-06	-3.040581e-09	-1.968470e+01	-1.982859e+02
6.000000e-08	-2.842211e-06	-3.034648e-09	-1.964575e+01	-1.979987e+02
7.000000e-08	-2.835635e-06	-3.034506e-09	-1.960030e+01	-1.978598e+02
8.000000e-08	-2.828113e-06	-3.054442e-09	-1.954831e+01	-1.978103e+02
9.000000e-08	-2.819494e-06	-3.063686e-09	-1.948873e+01	-1.976800e+02
1.000000e-07	-2.809520e-06	-3.027194e-09	-1.941979e+01	-1.972899e+02
1.100000e-07	-2.798146e-06	-2.965628e-09	-1.934117e+01	-1.965827e+02
1.200000e-07	-2.785807e-06	-2.990512e-09	-1.925588e+01	-1.956909e+02
1.300000e-07	-2.772715e-06	-3.025481e-09	-1.916539e+01	-1.948807e+02
1.400000e-07	-2.758669e-06	-2.963214e-09	-1.906830e+01	-1.943959e+02
1.500000e-07	-2.743640e-06	-2.947262e-09	-1.896442e+01	-1.942986e+02
1.600000e-07	-2.727486e-06	-3.045372e-09	-1.885276e+01	-1.944151e+02
1.700000e-07	-2.710019e-06	-3.008266e-09	-1.873202e+01	-1.944307e+02
1.800000e-07	-2.691528e-06	-2.899391e-09	-1.860421e+01	-1.940787e+02
1.900000e-07	-2.672354e-06	-2.976644e-09	-1.847168e+01	-1.932995e+02
2.000000e-07	-2.652387e-06	-2.970690e-09	-1.833366e+01	-1.922660e+02
2.100000e-07	-2.631484e-06	-2.851164e-09	-1.818918e+01	-1.912569e+02
2.200000e-07	-2.609719e-06	-2.914098e-09	-1.803874e+01	-1.904659e+02
2.300000e-07	-2.587050e-06	-2.988608e-09	-1.788204e+01	-1.898768e+02
2.400000e-07	-2.563426e-06	-2.886807e-09	-1.771875e+01	-1.892864e+02
2.500000e-07	-2.539012e-06	-2.851066e-09	-1.755000e+01	-1.884569e+02
2.600000e-07	-2.513823e-06	-2.866530e-09	-1.737589e+01	-1.872876e+02
2.700000e-07	-2.487611e-06	-2.818315e-09	-1.719471e+01	-1.858876e+02
2.800000e-07	-2.460283e-06	-2.815811e-09	-1.700581e+01	-1.844992e+02
2.900000e-07	-2.431986e-06	-2.824488e-09	-1.681022e+01	-1.833312e+02
3.000000e-07	-2.402815e-06	-2.771835e-09	-1.660859e+01	-1.824184e+02
3.100000e-07	-2.372857e-06	-2.771916e-09	-1.640151e+01	-1.816044e+02
3.200000e-07	-2.342152e-06	-2.786469e-09	-1.618927e+01	-1.806547e+02
3.300000e-07	-2.310638e-06	-2.728581e-09	-1.597145e+01	-1.794176e+02
3.400000e-07	-2.278428e-06	-2.695943e-09	-1.574881e+01	-1.779204e+02
3.500000e-07	-2.245652e-06	-2.681432e-09	-1.552226e+01	-1.763389e+02
3.600000e-07	-2.212128e-06	-2.674677e-09	-1.529053e+01	-1.748680e+02
3.700000e-07	-2.177559e-06	-2.668522e-09	-1.505159e+01	-1.735893e+02
3.800000e-07	-2.141940e-06	-2.630118e-09	-1.480538e+01	-1.724243e+02
3.900000e-07	-2.105512e-06	-2.600697e-09	-1.455359e+01	-1.712003e+02
4.000000e-07	-2.068456e-06	-2.602126e-09	-1.429745e+01	-1.697742e+02
4.100000e-07	-2.030712e-06	-2.577436e-09	-1.403656e+01	-1.681252e+02
4.200000e-07	-1.992226e-06	-2.525471e-09	-1.377054e+01	-1.663570e+02
4.300000e-07	-1.953017e-06	-2.497983e-09	-1.349952e+01	-1.646157e+02
4.400000e-07	-1.913129e-06	-2.488370e-09	-1.322381e+01	-1.629900e+02
4.500000e-07	-1.872694e-06	-2.477378e-09	-1.294431e+01	-1.614617e+02
4.600000e-07	-1.831845e-06	-2.445089e-09	-1.266196e+01	-1.599343e+02
4.700000e-07	-1.790435e-06	-2.405992e-09	-1.237573e+01	-1.583091e+02
4.800000e-07	-1.748090e-06	-2.372495e-09	-1.208304e+01	-1.565496e+02
4.900000e-07	-1.704721e-06	-2.355643e-09	-1.178327e+01	-1.546912e+02
5.000000e-07	-1.660603e-06	-2.336586e-09	-1.147832e+01	-1.527984e+02
5.100000e-07	-1.615995e-06	-2.294871e-09	-1.116998e+01	-1.509100e+02
5.200000e-07	-1.570965e-06	-2.261714e-09	-1.085873e+01	-1.490137e+02
5.300000e-07	-1.525411e-06	-2.246584e-09	-1.054385e+01	-1.470660e+02
5.400000e-07	-1.479280e-06	-2.218742e-09	-1.022499e+01	-1.450344e+02
5.500000e-07	-1.432603e-06	-2.166639e-09	-9.902348e+00	-1.429262e+02
5.600000e-07	-1.385394e-06	-2.126690e-09	-9.576034e+00	-1.407809e+02
5.700000e-07	-1.337723e-06	-2.104974e-09	-9.246525e+00	-1.386373e+02
5.800000e-07	-1.289591e-06	-2.087036e-09	-8.913828e+00	-1.365017e+02
5.900000e-07	-1.241077e-06	-2.054666e-09	-8.578492e+00	-1.343438e+02
6.000000e-07	-1.192249e-06	-2.010786e-09	-8.240988e+00	-1.321208e+02
6.100000e-07	-1.142932e-06	-1.970407e-09	-7.900099e+00	-1.298087e+02
6.200000e-07	-1.092901e-06	-1.936650e-09	-7.554282e+00	-1.274158e+02
6.300000e-07	-1.042171e-06	-1.902121e-09	-7.203630e+00	-1.249702e+02
6.400000e-07	-9.908565e-07	-1.855995e-09	-6.848936e+00	-1.224945e+02
6.500000e-07	-9.390762e-07	-1.812086e-09	-6.491023e+00	-1.199887e+02
6.600000e-07	-8.869380e-07	-1.779186e-09	-6.130637e+00	-1.174342e+02
6.700000e-07	-8.345260e-07	-1.748466e-09	-5.768358e+00	-1.148139e+02
6.800000e-07	-7.818819e-07	-1.702943e-09	-5.404475e+00	-1.121281e+02
6.900000e-07	-7.289304e-07	-1.651121e-09	-5.038467e+00	-1.093940e+02
7.000000e-07	-6.756465e-07	-1.609951e-09	-4.670161e+00	-1.066284e+02
7.100000e-07	-6.221218e-07	-1.573817e-09	-4.300191e+00	-1.038308e+02
7.200000e-07	-5.683715e-07	-1.529223e-09	-3.928661e+00	-1.009814e+02
7.300000e-07	-5.143814e-07	-1.477219e-09	-3.555475e+00	-9.805636e+01
7.400000e-07	-4.602224e-07	-1.429586e-09	-3.181120e+00	-9.504827e+01
7.500000e-07	-4.059041e-07	-1.385388e-09	-2.805665e+00	-9.197360e+01
7.600000e-07	-3.514640e-07	-1.338483e-09	-2.429367e+00	-8.886082e+01
7.700000e-07	-2.969481e-07	-1.285909e-09	-2.052546e+00	-8.572753e+01
7.800000e-07	-2.423768e-07	-1.236657e-09	-1.675342e+00	-8.256454e+01
7.900000e-07	-1.877492e-07	-1.191861e-09	-1.297748e+00	-7.933945e+01
8.000000e-07	-1.330654e-07	-1.142900e-09	-9.197665e-01	-7.601728e+01
8.100000e-07	-7.834908e-08	-1.086229e-09	-5.415596e-01	-7.258312e+01
8.200000e-07	-2.360586e-08	-1.027202e-09	-1.631670e-01	-6.905062e+01
8.300000e-07	3.114249e-08	-9.727950e-10	2.152612e-01	-6.545182e+01
8.400000e-07	8.589940e-08	-9.193567e-10	5.937484e-01	-6.181693e+01
8.500000e-07	1.406603e-07	-8.648025e-10	9.722632e-01	-5.815862e+01
8.600000e-07	1.953820e-07	-8.073910e-10	1.350507e+00	-5.446963e+01
8.700000e-07	2.500287e-07	-7.512597e-10	1.728233e+00	-5.073116e+01
8.800000e-07	3.045808e-07	-6.967807e-10	2.105304e+00	-4.692274e+01
8.900000e-07	3.590142e-07	-6.376729e-10	2.481555e+00	-4.302631e+01
9.000000e-07	4.133205e-07	-5.723468e-10	2.856928e+00	-3.902522e+01
9.100000e-07	4.674832e-07	-5.082010e-10	3.231308e+00	-3.490429e+01
9.200000e-07	5.215114e-07	-4.483084e-10	3.604758e+00	-3.065533e+01
9.300000e-07	5.753688e-07	-3.848649e-10	3.977028e+00	-2.628462e+01
9.400000e-07	6.289832e-07	-3.159659e-10	4.347618e+00	-2.181371e+01
9.500000e-07	6.823069e-07	-2.451573e-10	4.716199e+00	-1.726831e+01
9.600000e-07	7.353353e-07	-1.760730e-10	5.082738e+00	-1.265941e+01
9.700000e-07	7.881434e-07	-1.067238e-10	5.447755e+00	-7.969763e+00
9.800000e-07	8.406949e-07	-3.336818e-11	5.810998e+00	-3.157434e+00
9.900000e-07	8.929485e-07	4.459241e-11	6.172183e+00	1.823315e+00
1.000000e-06	9.448911e-07	1.239169e-10	6.531217e+00	6.996652e+00
1.010000e-06	9.963525e-07	2.039995e-10	6.886925e+00	1.235295e+01
1.020000e-06	1.047179e-06	2.872194e-10	7.238246e+00	1.785850e+01
1.030000e-06	1.097394e-06	3.726275e-10	7.585340e+00	2.348006e+01
1.040000e-06	1.146986e-06	4.604519e-10	7.928122e+00	2.920603e+01
1.050000e-06	1.196037e-06	5.487819e-10	8.267175e+00	3.504879e+01
1.060000e-06	1.244796e-06	6.383750e-10	8.604203e+00	4.102726e+01
1.070000e-06	1.293269e-06	7.318184e-10	8.939251e+00	4.714375e+01
1.080000e-06	1.341356e-06	8.277605e-10	9.271636e+00	5.337329e+01
1.090000e-06	1.388964e-06	9.227821e-10	9.600707e+00	5.967278e+01
1.100000e-06	1.436004e-06	1.017461e-09	9.925859e+00	6.600155e+01
1.110000e-06	1.482551e-06	1.114515e-09	1.024759e+01	7.233543e+01
1.120000e-06	1.528560e-06	1.212534e-09	1.056562e+01	7.866237e+01
1.130000e-06	1.574006e-06	1.308398e-09	1.087975e+01	8.496316e+01
1.140000e-06	1.619006e-06	1.401652e-09	1.119079e+01	9.119408e+01
1.150000e-06	1.663639e-06	1.494072e-09	1.149930e+01	9.728791e+01
1.160000e-06	1.707862e-06	1.583671e-09	1.180498e+01	1.031759e+02
1.170000e-06	1.751530e-06	1.669188e-09	1.210681e+01	1.088165e+02
1.180000e-06	1.794329e-06	1.751360e-09	1.240264e+01	1.142110e+02
1.190000e-06	1.836142e-06	1.830736e-09	1.269167e+01	1.193935e+02
1.200000e-06	1.877188e-06	1.905779e-09	1.297538e+01	1.244030e+02
1.210000e-06	1.917667e-06	1.976858e-09	1.325518e+01	1.292554e+02
1.220000e-06	1.957592e-06	2.046182e-09	1.353114e+01	1.339343e+02
1.230000e-06	1.996884e-06	2.112835e-09	1.380273e+01	1.384033e+02
1.240000e-06	2.035549e-06	2.175312e-09	1.406999e+01	1.426291e+02
1.250000e-06	2.073474e-06	2.234326e-09	1.433214e+01	1.465987e+02
1.260000e-06	2.110662e-06	2.290195e-09	1.458919e+01	1.503199e+02
1.270000e-06	2.147309e-06	2.340838e-09	1.484250e+01	1.538116e+02
1.280000e-06	2.183357e-06	2.386618e-09	1.509166e+01	1.570923e+02
1.290000e-06	2.218438e-06	2.429800e-09	1.533415e+01	1.601771e+02
1.300000e-06	2.252429e-06	2.471044e-09	1.556910e+01	1.630809e+02
1.310000e-06	2.285553e-06	2.511132e-09	1.579806e+01	1.658203e+02
1.320000e-06	2.317937e-06	2.549222e-09	1.602190e+01	1.684090e+02
1.330000e-06	2.349585e-06	2.585192e-09	1.624065e+01	1.708499e+02
1.340000e-06	2.380507e-06	2.618240e-09	1.645439e+01	1.731329e+02
1.350000e-06	2.410591e-06	2.648227e-09	1.666233e+01	1.752451e+02
1.360000e-06	2.439866e-06	2.675248e-09	1.686469e+01	1.771879e+02
1.370000e-06	2.468530e-06	2.698832e-09	1.706282e+01	1.789872e+02
1.380000e-06	2.496384e-06	2.721996e-09	1.725535e+01	1.806862e+02
1.390000e-06	2.523083e-06	2.746374e-09	1.743989e+01	1.823227e+02
1.400000e-06	2.548610e-06	2.769972e-09	1.761634e+01	1.839058e+02
1.410000e-06	2.573185e-06	2.792722e-09	1.778621e+01	1.854122e+02
1.420000e-06	2.596909e-06	2.814579e-09	1.795019e+01	1.868064e+02
1.430000e-06	2.619717e-06	2.833532e-09	1.810784e+01	1.880710e+02
1.440000e-06	2.641623e-06	2.850444e-09	1.825926e+01	1.892246e+02
1.450000e-06	2.662772e-06	2.867159e-09	1.840545e+01	1.903108e+02
1.460000e-06	2.683211e-06	2.883720e-09	1.854672e+01	1.913656e+02
1.470000e-06	2.702672e-06	2.899701e-09	1.868124e+01	1.923882e+02
1.480000e-06	2.721132e-06	2.914578e-09	1.880884e+01	1.933404e+02
1.490000e-06	2.738670e-06	2.927530e-09	1.893006e+01	1.941758e+02
1.500000e-06	2.755133e-06	2.939794e-09	1.904386e+01	1.948809e+02
1.510000e-06	2.770513e-06	2.951514e-09	1.915017e+01	1.954934e+02
1.520000e-06	2.784888e-06	2.961813e-09	1.924953e+01	1.960820e+02
1.530000e-06	2.798278e-06	2.970867e-09	1.934208e+01	1.967005e+02
1.540000e-06	2.810612e-06	2.980351e-09	1.942733e+01	1.973493e+02
1.550000e-06	2.821709e-06	2.990008e-09	1.950404e+01	1.979732e+02
1.560000e-06	2.831537e-06	2.999027e-09	1.957197e+01	1.985000e+02
1.570000e-06	2.840312e-06	3.006629e-09	1.963263e+01	1.988901e+02
1.580000e-06	2.848146e-06	3.012637e-09	1.968677e+01	1.991614e+02
1.590000e-06	2.855033e-06	3.017772e-09	1.973438e+01	1.993725e+02
1.600000e-06	2.860997e-06	3.022054e-09	1.977560e+01	1.995773e+02
1.610000e-06	2.866128e-06	3.024645e-09	1.981107e+01	1.997889e+02
1.620000e-06	2.870330e-06	3.026218e-09	1.984011e+01	1.999797e+02
1.630000e-06	2.873316e-06	3.029378e-09	1.986075e+01	2.001141e+02
1.640000e-06	2.875086e-06	3.033495e-09	1.987299e+01	2.001840e+02
1.650000e-06	2.875883e-06	3.037806e-09	1.987850e+01	2.002140e+02
1.660000e-06	2.875787e-06	3.039760e-09	1.987783e+01	2.002315e+02
1.670000e-06	2.874777e-06	3.036860e-09	1.987085e+01	2.002287e+02
1.680000e-06	2.872859e-06	3.031045e-09	1.985759e+01	2.001555e+02
1.690000e-06	2.870136e-06	3.025055e-09	1.983877e+01	1.999574e+02
1.700000e-06	2.866661e-06	3.021493e-09	1.981475e+01	1.996330e+02
1.710000e-06	2.862151e-06	3.021243e-09	1.978358e+01	1.992603e+02
1.720000e-06	2.856480e-06	3.023625e-09	1.974438e+01	1.989594e+02
1.730000e-06	2.849826e-06	3.014035e-09	1.969839e+01	1.988051e+02
1.740000e-06	2.842242e-06	2.979317e-09	1.964597e+01	1.987529e+02
1.750000e-06	2.833443e-06	2.973303e-09	1.958515e+01	1.986409e+02
1.760000e-06	2.823069e-06	3.017490e-09	1.951344e+01	1.982845e+02
1.770000e-06	2.811469e-06	3.031024e-09	1.943326e+01	1.976084e+02
1.780000e-06	2.799506e-06	2.974271e-09	1.935057e+01	1.967250e+02
1.790000e-06	2.787087e-06	2.956821e-09	1.926473e+01	1.958925e+02
1.800000e-06	2.773283e-06	3.010459e-09	1.916931e+01	1.953657e+02
1.810000e-06	2.758105e-06	2.937281e-09	1.906440e+01	1.952315e+02
1.820000e-06	2.742281e-06	2.890114e-09	1.895502e+01	1.953391e+02
1.830000e-06	2.725586e-06	3.008859e-09	1.883962e+01	1.953809e+02
1.840000e-06	2.707597e-06	3.021256e-09	1.871528e+01	1.950756e+02
1.850000e-06	2.688731e-06	2.904861e-09	1.858487e+01	1.943375e+02
1.860000e-06	2.669113e-06	2.956840e-09	1.844927e+01	1.933183e+02
1.870000e-06	2.648277e-06	3.013937e-09	1.830525e+01	1.922944e+02
1.880000e-06	2.626248e-06	2.860125e-09	1.815299e+01	1.914768e+02
1.890000e-06	2.603346e-06	2.844704e-09	1.799468e+01	1.908735e+02
1.900000e-06	2.579499e-06	2.944979e-09	1.782985e+01	1.902957e+02
1.910000e-06	2.554801e-06	2.889331e-09	1.765913e+01	1.895002e+02
1.920000e-06	2.529362e-06	2.865843e-09	1.748330e+01	1.883658e+02
1.930000e-06	2.503049e-06	2.879999e-09	1.730142e+01	1.869801e+02
1.940000e-06	2.475998e-06	2.807132e-09	1.711444e+01	1.855784e+02
1.950000e-06	2.448145e-06	2.825580e-09	1.692192e+01	1.843815e+02
1.960000e-06	2.419079e-06	2.826607e-09	1.672100e+01	1.834461e+02
1.970000e-06	2.388875e-06	2.743121e-09	1.651223e+01	1.826328e+02
1.980000e-06	2.357868e-06	2.765620e-09	1.629791e+01	1.817076e+02
1.990000e-06	2.326123e-06	2.783593e-09	1.607848e+01	1.805035e+02
2.000000e-06	2.293635e-06	2.726659e-09	1.585392e+01	1.790276e+02
2.010000e-06	2.260376e-06	2.725549e-09	1.562403e+01	1.774449e+02
2.020000e-06	2.226315e-06	2.683828e-09	1.538859e+01	1.759556e+02
2.030000e-06	2.191591e-06	2.645099e-09	1.514858e+01	1.746575e+02
2.040000e-06	2.156247e-06	2.675999e-09	1.490428e+01	1.734879e+02
2.050000e-06	2.120132e-06	2.624732e-09	1.465464e+01	1.722787e+02
2.060000e-06	2.083099e-06	2.580748e-09	1.439866e+01	1.708779e+02
2.070000e-06	2.045078e-06	2.600207e-09	1.413586e+01	1.692496e+02
2.080000e-06	2.006220e-06	2.573223e-09	1.386727e+01	1.674871e+02
2.090000e-06	1.966729e-06	2.538562e-09	1.359430e+01	1.657370e+02
2.100000e-06	1.926640e-06	2.507199e-09	1.331720e+01	1.640980e+02
2.110000e-06	1.885909e-06	2.466708e-09	1.303566e+01	1.625632e+02
2.120000e-06	1.844594e-06	2.459590e-09	1.275009e+01	1.610411e+02
2.130000e-06	1.802700e-06	2.445967e-09	1.246051e+01	1.594296e+02
2.140000e-06	1.760189e-06	2.420809e-09	1.216667e+01	1.576839e+02
2.150000e-06	1.717201e-06	2.391670e-09	1.186953e+01	1.558331e+02
2.160000e-06	1.673825e-06	2.357759e-09	1.156971e+01	1.539414e+02
2.170000e-06	1.629895e-06	2.339615e-09	1.126606e+01	1.520523e+02
2.180000e-06	1.585260e-06	2.297661e-09	1.095753e+01	1.501588e+02
2.190000e-06	1.539945e-06	2.257174e-09	1.064431e+01	1.482187e+02
2.200000e-06	1.494128e-06	2.242981e-09	1.032761e+01	1.461967e+02
2.210000e-06	1.447900e-06	2.219815e-09	1.000809e+01	1.440952e+02
2.220000e-06	1.401197e-06	2.190506e-09	9.685264e+00	1.419518e+02
2.230000e-06	1.353913e-06	2.147949e-09	9.358430e+00	1.398071e+02
2.240000e-06	1.305976e-06	2.104416e-09	9.027084e+00	1.376716e+02
2.250000e-06	1.257479e-06	2.079080e-09	8.691870e+00	1.355182e+02
2.260000e-06	1.208576e-06	2.049277e-09	8.353842e+00	1.333040e+02
2.270000e-06	1.159292e-06	2.013929e-09	8.013187e+00	1.310017e+02
2.280000e-06	1.109549e-06	1.976090e-09	7.669358e+00	1.286163e+02
2.290000e-06	1.059309e-06	1.937517e-09	7.322088e+00	1.261750e+02
2.300000e-06	1.008610e-06	1.909054e-09	6.971653e+00	1.237022e+02
2.310000e-06	9.575944e-07	1.870754e-09	6.619024e+00	1.212004e+02
2.320000e-06	9.063619e-07	1.823167e-09	6.264898e+00	1.186522e+02
2.330000e-06	8.548801e-07	1.784102e-09	5.909048e+00	1.160394e+02
2.340000e-06	8.030492e-07	1.750853e-09	5.550786e+00	1.133601e+02
2.350000e-06	7.507345e-07	1.714019e-09	5.189179e+00	1.106302e+02
2.360000e-06	6.978860e-07	1.664417e-09	4.823884e+00	1.078677e+02
2.370000e-06	6.445457e-07	1.618100e-09	4.455188e+00	1.050743e+02
2.380000e-06	5.908497e-07	1.580885e-09	4.084034e+00	1.022318e+02
2.390000e-06	5.368569e-07	1.541199e-09	3.710828e+00	9.931570e+01
2.400000e-06	4.825214e-07	1.495822e-09	3.335254e+00	9.631619e+01
2.410000e-06	4.279996e-07	1.446875e-09	2.958392e+00	9.324740e+01
2.420000e-06	3.733700e-07	1.402775e-09	2.580784e+00	9.013756e+01
2.430000e-06	3.185924e-07	1.358290e-09	2.202154e+00	8.700646e+01
2.440000e-06	2.637173e-07	1.306301e-09	1.822850e+00	8.384800e+01
2.450000e-06	2.087818e-07	1.253065e-09	1.443128e+00	8.063148e+01
2.460000e-06	1.538182e-07	1.201740e-09	1.063213e+00	7.732100e+01
2.470000e-06	9.885950e-08	1.151018e-09	6.833304e-01	7.389874e+01
2.480000e-06	4.385902e-08	1.099708e-09	3.031595e-01	7.037549e+01
2.490000e-06	-1.118833e-08	1.045470e-09	-7.733527e-02	6.678222e+01
2.500000e-06	-6.624078e-08	9.907393e-10	-4.578653e-01	6.315029e+01
2.510000e-06	-1.212680e-07	9.357905e-10	-8.382209e-01	5.949461e+01
2.520000e-06	-1.762226e-07	8.780272e-10	-1.218075e+00	5.580977e+01
2.530000e-06	-2.311263e-07	8.176665e-10	-1.597577e+00	5.207768e+01
2.540000e-06	-2.859955e-07	7.568801e-10	-1.976840e+00	4.827774e+01
2.550000e-06	-3.407916e-07	7.007837e-10	-2.355598e+00	4.439163e+01
2.560000e-06	-3.954347e-07	6.444014e-10	-2.733299e+00	4.040260e+01
2.570000e-06	-4.499346e-07	5.817334e-10	-3.110009e+00	3.629517e+01
2.580000e-06	-5.042982e-07	5.151619e-10	-3.485778e+00	3.206001e+01
2.590000e-06	-5.583802e-07	4.478278e-10	-3.859600e+00	2.770160e+01
2.600000e-06	-6.120992e-07	3.787320e-10	-4.230913e+00	2.324021e+01
2.610000e-06	-6.654483e-07	3.070239e-10	-4.599670e+00	1.870192e+01
2.620000e-06	-7.184303e-07	2.343458e-10	-4.965888e+00	1.410018e+01
2.630000e-06	-7.709447e-07	1.623369e-10	-5.328875e+00	9.420960e+00
2.640000e-06	-8.230012e-07	9.116899e-11	-5.688697e+00	4.624201e+00
2.650000e-06	-8.747106e-07	1.721711e-11	-6.046119e+00	-3.367153e-01
2.660000e-06	-9.260863e-07	-6.167763e-11	-6.401236e+00	-5.489209e+00
2.670000e-06	-9.771591e-07	-1.442673e-10	-6.754258e+00	-1.082719e+01
2.680000e-06	-1.027917e-06	-2.284117e-10	-7.105106e+00	-1.631850e+01
2.690000e-06	-1.078284e-06	-3.134604e-10	-7.453244e+00	-2.192859e+01
2.700000e-06	-1.128223e-06	-4.008743e-10	-7.798430e+00	-2.764303e+01
2.710000e-06	-1.177743e-06	-4.921753e-10	-8.140720e+00	-3.347221e+01
2.720000e-06	-1.226833e-06	-5.847927e-10	-8.480038e+00	-3.943550e+01
2.730000e-06	-1.275477e-06	-6.756940e-10	-8.816271e+00	-4.553785e+01
2.740000e-06	-1.323445e-06	-7.683416e-10	-9.147834e+00	-5.175710e+01
2.750000e-06	-1.370636e-06	-8.645461e-10	-9.474021e+00	-5.805118e+01
2.760000e-06	-1.417074e-06	-9.608092e-10	-9.795010e+00	-6.437822e+01
2.770000e-06	-1.462930e-06	-1.055883e-09	-1.011197e+01	-7.071214e+01
2.780000e-06	-1.508508e-06	-1.152656e-09	-1.042702e+01	-7.704035e+01
2.790000e-06	-1.553784e-06	-1.251957e-09	-1.073997e+01	-8.334545e+01
2.800000e-06	-1.598534e-06	-1.349301e-09	-1.104929e+01	-8.958670e+01
2.810000e-06	-1.642640e-06	-1.441559e-09	-1.135416e+01	-9.569866e+01
2.820000e-06	-1.686174e-06	-1.529663e-09	-1.165506e+01	-1.016113e+02
2.830000e-06	-1.729297e-06	-1.614984e-09	-1.195314e+01	-1.072790e+02
2.840000e-06	-1.772015e-06	-1.698372e-09	-1.224841e+01	-1.126986e+02
2.850000e-06	-1.814190e-06	-1.779679e-09	-1.253993e+01	-1.179017e+02
2.860000e-06	-1.855793e-06	-1.856599e-09	-1.282750e+01	-1.229283e+02
2.870000e-06	-1.896790e-06	-1.930903e-09	-1.311087e+01	-1.277977e+02
2.880000e-06	-1.937094e-06	-2.003998e-09	-1.338946e+01	-1.324967e+02
2.890000e-06	-1.976731e-06	-2.074452e-09	-1.366343e+01	-1.369899e+02
2.900000e-06	-2.015821e-06	-2.141393e-09	-1.393363e+01	-1.412428e+02
2.910000e-06	-2.054256e-06	-2.204916e-09	-1.419930e+01	-1.452396e+02
2.920000e-06	-2.091759e-06	-2.266042e-09	-1.445853e+01	-1.489866e+02
2.930000e-06	-2.128216e-06	-2.323552e-09	-1.471052e+01	-1.525018e+02
2.940000e-06	-2.163831e-06	-2.376470e-09	-1.495670e+01	-1.558043e+02
