# Temperatura_=_26.37
# Concentracion g/m^3_=_15500.0
# C_Vs_to_Am_M_A/Vsm_=_65563218390.804596
# pendiente_HvsI_1/m_=_3716.3
# ordenada_HvsI_A/m_=_1297.0
# frecuencia_Hz_=_300980.2556474203

Tiempo_(s)	Campo_(V.s)	Magnetizacion_(V.s)	Campo_(kA/m)	Magnetizacion_(A/m)
0.000000e+00	-2.862201e-06	-3.317608e-09	-1.978697e+01	-2.161484e+02
1.000000e-08	-2.861466e-06	-3.318322e-09	-1.978189e+01	-2.160339e+02
2.000000e-08	-2.859799e-06	-3.318222e-09	-1.977036e+01	-2.159724e+02
3.000000e-08	-2.856844e-06	-3.315419e-09	-1.974993e+01	-2.158833e+02
4.000000e-08	-2.852778e-06	-3.311101e-09	-1.972183e+01	-2.156775e+02
5.000000e-08	-2.847974e-06	-3.304692e-09	-1.968862e+01	-2.153398e+02
6.000000e-08	-2.842377e-06	-3.295628e-09	-1.964993e+01	-2.149533e+02
7.000000e-08	-2.835836e-06	-3.286356e-09	-1.960470e+01	-2.146366e+02
8.000000e-08	-2.828247e-06	-3.298607e-09	-1.955224e+01	-2.144385e+02
9.000000e-08	-2.819541e-06	-3.355319e-09	-1.949205e+01	-2.142736e+02
1.000000e-07	-2.809384e-06	-3.348980e-09	-1.942183e+01	-2.139604e+02
1.100000e-07	-2.797773e-06	-3.223607e-09	-1.934157e+01	-2.133499e+02
1.200000e-07	-2.785387e-06	-3.134569e-09	-1.925594e+01	-2.124553e+02
1.300000e-07	-2.772281e-06	-3.266942e-09	-1.916533e+01	-2.114817e+02
1.400000e-07	-2.758127e-06	-3.361214e-09	-1.906748e+01	-2.107176e+02
1.500000e-07	-2.742942e-06	-3.151915e-09	-1.896251e+01	-2.103481e+02
1.600000e-07	-2.726726e-06	-3.187595e-09	-1.885041e+01	-2.103166e+02
1.700000e-07	-2.709192e-06	-3.341632e-09	-1.872919e+01	-2.103382e+02
1.800000e-07	-2.690593e-06	-3.200619e-09	-1.860061e+01	-2.100694e+02
1.900000e-07	-2.671399e-06	-3.116908e-09	-1.846792e+01	-2.093266e+02
2.000000e-07	-2.651358e-06	-3.236172e-09	-1.832937e+01	-2.082063e+02
2.100000e-07	-2.630318e-06	-3.162398e-09	-1.818392e+01	-2.070213e+02
2.200000e-07	-2.608521e-06	-3.023917e-09	-1.803323e+01	-2.060924e+02
2.300000e-07	-2.585896e-06	-3.221656e-09	-1.787682e+01	-2.055337e+02
2.400000e-07	-2.562262e-06	-3.262065e-09	-1.771343e+01	-2.051797e+02
2.500000e-07	-2.537871e-06	-3.051993e-09	-1.754481e+01	-2.047019e+02
2.600000e-07	-2.512717e-06	-3.069396e-09	-1.737092e+01	-2.038349e+02
2.700000e-07	-2.486383e-06	-3.130441e-09	-1.718887e+01	-2.025542e+02
2.800000e-07	-2.458854e-06	-3.046322e-09	-1.699855e+01	-2.010859e+02
2.900000e-07	-2.430438e-06	-3.050554e-09	-1.680211e+01	-1.997445e+02
3.000000e-07	-2.401220e-06	-3.005876e-09	-1.660012e+01	-1.987154e+02
3.100000e-07	-2.371236e-06	-3.004763e-09	-1.639283e+01	-1.979348e+02
3.200000e-07	-2.340594e-06	-3.070854e-09	-1.618100e+01	-1.971458e+02
3.300000e-07	-2.309204e-06	-2.994553e-09	-1.596399e+01	-1.960857e+02
3.400000e-07	-2.277056e-06	-2.916415e-09	-1.574175e+01	-1.946694e+02
3.500000e-07	-2.244314e-06	-2.933616e-09	-1.551539e+01	-1.930418e+02
3.600000e-07	-2.210769e-06	-2.911964e-09	-1.528349e+01	-1.914669e+02
3.700000e-07	-2.176077e-06	-2.898626e-09	-1.504366e+01	-1.901395e+02
3.800000e-07	-2.140279e-06	-2.921688e-09	-1.479618e+01	-1.890537e+02
3.900000e-07	-2.103786e-06	-2.841629e-09	-1.454389e+01	-1.880152e+02
4.000000e-07	-2.066789e-06	-2.838029e-09	-1.428812e+01	-1.867831e+02
4.100000e-07	-2.029020e-06	-2.864223e-09	-1.402702e+01	-1.852335e+02
4.200000e-07	-1.990480e-06	-2.786653e-09	-1.376059e+01	-1.834328e+02
4.300000e-07	-1.951234e-06	-2.723214e-09	-1.348927e+01	-1.815764e+02
4.400000e-07	-1.911329e-06	-2.743869e-09	-1.321340e+01	-1.798471e+02
4.500000e-07	-1.870959e-06	-2.743449e-09	-1.293431e+01	-1.782971e+02
4.600000e-07	-1.830163e-06	-2.706574e-09	-1.265228e+01	-1.768318e+02
4.700000e-07	-1.788687e-06	-2.672232e-09	-1.236555e+01	-1.752964e+02
4.800000e-07	-1.746141e-06	-2.626335e-09	-1.207143e+01	-1.735905e+02
4.900000e-07	-1.702622e-06	-2.609892e-09	-1.177057e+01	-1.717269e+02
5.000000e-07	-1.658467e-06	-2.593466e-09	-1.146531e+01	-1.697994e+02
5.100000e-07	-1.613893e-06	-2.557789e-09	-1.115717e+01	-1.678946e+02
5.200000e-07	-1.568883e-06	-2.513403e-09	-1.084600e+01	-1.660216e+02
5.300000e-07	-1.523298e-06	-2.503702e-09	-1.053087e+01	-1.641117e+02
5.400000e-07	-1.477179e-06	-2.481056e-09	-1.021204e+01	-1.620837e+02
5.500000e-07	-1.430532e-06	-2.430231e-09	-9.889554e+00	-1.599165e+02
5.600000e-07	-1.383304e-06	-2.381916e-09	-9.563059e+00	-1.576710e+02
5.700000e-07	-1.335547e-06	-2.346422e-09	-9.232908e+00	-1.554443e+02
5.800000e-07	-1.287406e-06	-2.334905e-09	-8.900097e+00	-1.532934e+02
5.900000e-07	-1.238940e-06	-2.307956e-09	-8.565041e+00	-1.511887e+02
6.000000e-07	-1.190066e-06	-2.262390e-09	-8.227166e+00	-1.490336e+02
6.100000e-07	-1.140623e-06	-2.213233e-09	-7.885355e+00	-1.467347e+02
6.200000e-07	-1.090441e-06	-2.183473e-09	-7.538439e+00	-1.442700e+02
6.300000e-07	-1.039547e-06	-2.151039e-09	-7.186600e+00	-1.417046e+02
6.400000e-07	-9.881744e-07	-2.106702e-09	-6.831448e+00	-1.391427e+02
6.500000e-07	-9.363827e-07	-2.057724e-09	-6.473402e+00	-1.366525e+02
6.600000e-07	-8.841508e-07	-2.020585e-09	-6.112312e+00	-1.342189e+02
6.700000e-07	-8.316209e-07	-1.997036e-09	-5.749162e+00	-1.317547e+02
6.800000e-07	-7.788807e-07	-1.955512e-09	-5.384559e+00	-1.291614e+02
6.900000e-07	-7.259185e-07	-1.903703e-09	-5.018420e+00	-1.263925e+02
7.000000e-07	-6.726130e-07	-1.856706e-09	-4.649908e+00	-1.234789e+02
7.100000e-07	-6.189716e-07	-1.822328e-09	-4.279075e+00	-1.205008e+02
7.200000e-07	-5.651228e-07	-1.777333e-09	-3.906808e+00	-1.175325e+02
7.300000e-07	-5.110870e-07	-1.723132e-09	-3.533247e+00	-1.145975e+02
7.400000e-07	-4.569387e-07	-1.670068e-09	-3.158909e+00	-1.116630e+02
7.500000e-07	-4.027074e-07	-1.624401e-09	-2.783997e+00	-1.086689e+02
7.600000e-07	-3.483716e-07	-1.584710e-09	-2.408363e+00	-1.055674e+02
7.700000e-07	-2.939353e-07	-1.534778e-09	-2.032034e+00	-1.023437e+02
7.800000e-07	-2.393738e-07	-1.479239e-09	-1.654839e+00	-9.901185e+01
7.900000e-07	-1.847496e-07	-1.426233e-09	-1.277211e+00	-9.559267e+01
8.000000e-07	-1.301176e-07	-1.377946e-09	-8.995290e-01	-9.209679e+01
8.100000e-07	-7.546146e-08	-1.320995e-09	-5.216802e-01	-8.852219e+01
8.200000e-07	-2.080885e-08	-1.259387e-09	-1.438558e-01	-8.486415e+01
8.300000e-07	3.385712e-08	-1.199747e-09	2.340611e-01	-8.112507e+01
8.400000e-07	8.856008e-08	-1.146103e-09	6.122336e-01	-7.731481e+01
8.500000e-07	1.432569e-07	-1.092378e-09	9.903641e-01	-7.344219e+01
8.600000e-07	1.978982e-07	-1.029236e-09	1.368110e+00	-6.950588e+01
8.700000e-07	2.524769e-07	-9.630409e-10	1.745423e+00	-6.549239e+01
8.800000e-07	3.069902e-07	-9.010456e-10	2.122285e+00	-6.138177e+01
8.900000e-07	3.614148e-07	-8.435633e-10	2.498533e+00	-5.715509e+01
9.000000e-07	4.157077e-07	-7.789213e-10	2.873871e+00	-5.279788e+01
9.100000e-07	4.698612e-07	-7.095217e-10	3.248245e+00	-4.829885e+01
9.200000e-07	5.238652e-07	-6.395348e-10	3.621585e+00	-4.364834e+01
9.300000e-07	5.776624e-07	-5.686865e-10	3.993496e+00	-3.884022e+01
9.400000e-07	6.312079e-07	-4.915797e-10	4.363667e+00	-3.387585e+01
9.500000e-07	6.845140e-07	-4.079201e-10	4.732183e+00	-2.876429e+01
9.600000e-07	7.375576e-07	-3.259388e-10	5.098884e+00	-2.351445e+01
9.700000e-07	7.903229e-07	-2.469742e-10	5.463661e+00	-1.812202e+01
9.800000e-07	8.428382e-07	-1.679983e-10	5.826710e+00	-1.256064e+01
9.900000e-07	8.951128e-07	-7.906217e-11	6.188094e+00	-6.785900e+00
1.000000e-06	9.471047e-07	1.651434e-11	6.547525e+00	-7.525044e-01
1.010000e-06	9.986318e-07	1.133191e-10	6.903742e+00	5.565296e+00
1.020000e-06	1.049558e-06	2.110212e-10	7.255806e+00	1.216370e+01
1.030000e-06	1.099794e-06	3.149358e-10	7.603096e+00	1.901654e+01
1.040000e-06	1.149358e-06	4.268438e-10	7.945740e+00	2.609402e+01
1.050000e-06	1.198368e-06	5.395278e-10	8.284556e+00	3.337879e+01
1.060000e-06	1.246968e-06	6.503869e-10	8.620543e+00	4.086715e+01
1.070000e-06	1.295289e-06	7.634068e-10	8.954593e+00	4.855460e+01
1.080000e-06	1.343279e-06	8.841202e-10	9.286359e+00	5.641661e+01
1.090000e-06	1.390813e-06	1.006646e-09	9.614973e+00	6.439908e+01
1.100000e-06	1.437805e-06	1.126110e-09	9.939838e+00	7.242517e+01
1.110000e-06	1.484253e-06	1.244802e-09	1.026094e+01	8.041276e+01
1.120000e-06	1.530185e-06	1.365883e-09	1.057847e+01	8.829016e+01
1.130000e-06	1.575593e-06	1.485964e-09	1.089239e+01	9.600032e+01
1.140000e-06	1.620486e-06	1.598872e-09	1.120274e+01	1.034943e+02
1.150000e-06	1.664989e-06	1.704705e-09	1.151040e+01	1.107237e+02
1.160000e-06	1.709170e-06	1.805488e-09	1.181584e+01	1.176405e+02
1.170000e-06	1.752863e-06	1.903641e-09	1.211789e+01	1.242070e+02
1.180000e-06	1.795703e-06	1.997384e-09	1.241405e+01	1.304065e+02
1.190000e-06	1.837478e-06	2.085546e-09	1.270285e+01	1.362462e+02
1.200000e-06	1.878394e-06	2.168304e-09	1.298572e+01	1.417485e+02
1.210000e-06	1.918786e-06	2.247925e-09	1.326495e+01	1.469374e+02
1.220000e-06	1.958690e-06	2.322591e-09	1.354081e+01	1.518283e+02
1.230000e-06	1.997904e-06	2.389800e-09	1.381191e+01	1.564297e+02
1.240000e-06	2.036451e-06	2.452532e-09	1.407839e+01	1.607500e+02
1.250000e-06	2.074366e-06	2.512991e-09	1.434051e+01	1.648030e+02
1.260000e-06	2.111545e-06	2.570352e-09	1.459754e+01	1.686056e+02
1.270000e-06	2.148114e-06	2.621160e-09	1.485034e+01	1.721693e+02
1.280000e-06	2.184126e-06	2.668944e-09	1.509930e+01	1.754961e+02
1.290000e-06	2.219315e-06	2.714158e-09	1.534257e+01	1.785835e+02
1.300000e-06	2.253410e-06	2.756571e-09	1.557828e+01	1.814385e+02
1.310000e-06	2.286457e-06	2.794589e-09	1.580673e+01	1.840866e+02
1.320000e-06	2.318744e-06	2.829578e-09	1.602995e+01	1.865694e+02
1.330000e-06	2.350350e-06	2.863613e-09	1.624844e+01	1.889258e+02
1.340000e-06	2.381228e-06	2.895776e-09	1.646191e+01	1.911728e+02
1.350000e-06	2.411346e-06	2.927036e-09	1.667012e+01	1.932981e+02
1.360000e-06	2.440570e-06	2.955852e-09	1.687215e+01	1.952724e+02
1.370000e-06	2.469068e-06	2.982499e-09	1.706916e+01	1.970747e+02
1.380000e-06	2.496934e-06	3.007051e-09	1.726181e+01	1.987115e+02
1.390000e-06	2.523678e-06	3.029103e-09	1.744669e+01	2.002173e+02
1.400000e-06	2.549115e-06	3.048767e-09	1.762254e+01	2.016370e+02
1.410000e-06	2.573610e-06	3.068171e-09	1.779188e+01	2.030032e+02
1.420000e-06	2.597312e-06	3.087679e-09	1.795574e+01	2.043245e+02
1.430000e-06	2.620122e-06	3.106915e-09	1.811343e+01	2.055917e+02
1.440000e-06	2.642031e-06	3.126464e-09	1.826489e+01	2.067912e+02
1.450000e-06	2.663082e-06	3.146540e-09	1.841042e+01	2.079150e+02
1.460000e-06	2.683394e-06	3.164454e-09	1.855084e+01	2.089577e+02
1.470000e-06	2.702931e-06	3.177696e-09	1.868590e+01	2.099101e+02
1.480000e-06	2.721396e-06	3.187603e-09	1.881356e+01	2.107592e+02
1.490000e-06	2.738875e-06	3.196900e-09	1.893439e+01	2.115019e+02
1.500000e-06	2.755395e-06	3.208033e-09	1.904860e+01	2.121618e+02
1.510000e-06	2.770783e-06	3.220474e-09	1.915498e+01	2.127904e+02
1.520000e-06	2.785113e-06	3.232858e-09	1.925405e+01	2.134431e+02
1.530000e-06	2.798493e-06	3.244871e-09	1.934654e+01	2.141396e+02
1.540000e-06	2.810874e-06	3.256840e-09	1.943214e+01	2.148399e+02
1.550000e-06	2.822031e-06	3.266248e-09	1.950926e+01	2.154573e+02
1.560000e-06	2.831843e-06	3.270592e-09	1.957710e+01	2.159101e+02
1.570000e-06	2.840518e-06	3.272796e-09	1.963707e+01	2.161792e+02
1.580000e-06	2.848279e-06	3.276805e-09	1.969073e+01	2.163296e+02
1.590000e-06	2.855092e-06	3.283475e-09	1.973783e+01	2.164749e+02
1.600000e-06	2.860937e-06	3.290181e-09	1.977824e+01	2.167036e+02
1.610000e-06	2.865880e-06	3.295051e-09	1.981240e+01	2.170183e+02
1.620000e-06	2.869962e-06	3.298209e-09	1.984063e+01	2.173323e+02
1.630000e-06	2.873000e-06	3.302645e-09	1.986163e+01	2.175299e+02
1.640000e-06	2.874773e-06	3.306339e-09	1.987388e+01	2.175484e+02
1.650000e-06	2.875441e-06	3.307879e-09	1.987850e+01	2.174216e+02
1.660000e-06	2.875241e-06	3.306401e-09	1.987712e+01	2.172513e+02
1.670000e-06	2.874169e-06	3.300405e-09	1.986971e+01	2.171286e+02
1.680000e-06	2.872157e-06	3.293043e-09	1.985580e+01	2.170635e+02
1.690000e-06	2.869251e-06	3.289447e-09	1.983571e+01	2.169815e+02
1.700000e-06	2.865604e-06	3.290107e-09	1.981050e+01	2.167899e+02
1.710000e-06	2.861115e-06	3.290298e-09	1.977946e+01	2.164632e+02
1.720000e-06	2.855461e-06	3.294704e-09	1.974038e+01	2.160752e+02
1.730000e-06	2.848717e-06	3.302504e-09	1.969375e+01	2.157459e+02
1.740000e-06	2.841092e-06	3.257715e-09	1.964104e+01	2.155360e+02
1.750000e-06	2.832288e-06	3.175416e-09	1.958018e+01	2.153745e+02
1.760000e-06	2.821865e-06	3.206034e-09	1.950812e+01	2.150854e+02
1.770000e-06	2.810140e-06	3.372694e-09	1.942706e+01	2.145090e+02
1.780000e-06	2.798111e-06	3.317662e-09	1.934390e+01	2.136372e+02
1.790000e-06	2.785875e-06	3.160157e-09	1.925931e+01	2.126574e+02
1.800000e-06	2.772190e-06	3.183404e-09	1.916470e+01	2.118579e+02
1.810000e-06	2.756883e-06	3.296907e-09	1.905888e+01	2.114433e+02
1.820000e-06	2.740955e-06	3.157852e-09	1.894877e+01	2.113854e+02
1.830000e-06	2.724262e-06	3.077768e-09	1.883337e+01	2.114178e+02
1.840000e-06	2.706126e-06	3.322370e-09	1.870800e+01	2.111926e+02
1.850000e-06	2.687005e-06	3.229121e-09	1.857580e+01	2.105003e+02
1.860000e-06	2.667361e-06	3.042247e-09	1.844001e+01	2.094071e+02
1.870000e-06	2.646596e-06	3.265297e-09	1.829645e+01	2.082110e+02
1.880000e-06	2.624539e-06	3.250502e-09	1.814397e+01	2.072435e+02
1.890000e-06	2.601627e-06	2.971927e-09	1.798557e+01	2.066477e+02
1.900000e-06	2.577741e-06	3.099306e-09	1.782044e+01	2.062856e+02
1.910000e-06	2.552949e-06	3.219630e-09	1.764905e+01	2.058360e+02
1.920000e-06	2.527506e-06	3.081623e-09	1.747316e+01	2.050161e+02
1.930000e-06	2.501138e-06	3.068285e-09	1.729087e+01	2.037717e+02
1.940000e-06	2.473932e-06	3.108805e-09	1.710279e+01	2.023074e+02
1.950000e-06	2.446116e-06	3.051042e-09	1.691049e+01	2.009389e+02
1.960000e-06	2.417169e-06	3.092464e-09	1.671038e+01	1.998740e+02
1.970000e-06	2.386981e-06	3.002518e-09	1.650168e+01	1.990763e+02
1.980000e-06	2.355978e-06	2.920991e-09	1.628735e+01	1.983017e+02
1.990000e-06	2.324252e-06	3.059152e-09	1.606802e+01	1.972780e+02
2.000000e-06	2.291784e-06	3.004744e-09	1.584356e+01	1.958959e+02
2.010000e-06	2.258525e-06	2.927846e-09	1.561364e+01	1.942781e+02
2.020000e-06	2.224429e-06	2.979956e-09	1.537793e+01	1.926847e+02
2.030000e-06	2.189693e-06	2.889704e-09	1.513779e+01	1.913263e+02
2.040000e-06	2.154389e-06	2.868987e-09	1.489373e+01	1.902207e+02
2.050000e-06	2.118326e-06	2.921294e-09	1.464441e+01	1.891886e+02
2.060000e-06	2.081362e-06	2.819060e-09	1.438887e+01	1.879856e+02
2.070000e-06	2.043341e-06	2.819933e-09	1.412602e+01	1.864693e+02
2.080000e-06	2.004408e-06	2.862012e-09	1.385688e+01	1.846866e+02
2.090000e-06	1.964883e-06	2.792462e-09	1.358363e+01	1.828252e+02
2.100000e-06	1.924770e-06	2.762116e-09	1.330632e+01	1.810762e+02
2.110000e-06	1.883978e-06	2.717407e-09	1.302432e+01	1.795085e+02
2.120000e-06	1.842582e-06	2.689851e-09	1.273814e+01	1.780407e+02
2.130000e-06	1.800618e-06	2.704138e-09	1.244803e+01	1.765187e+02
2.140000e-06	1.758108e-06	2.672812e-09	1.215415e+01	1.748317e+02
2.150000e-06	1.715037e-06	2.640802e-09	1.185639e+01	1.729805e+02
2.160000e-06	1.671527e-06	2.613742e-09	1.155560e+01	1.710540e+02
2.170000e-06	1.627555e-06	2.586188e-09	1.125161e+01	1.691440e+02
2.180000e-06	1.582889e-06	2.561010e-09	1.094283e+01	1.672690e+02
2.190000e-06	1.537557e-06	2.513534e-09	1.062944e+01	1.653667e+02
2.200000e-06	1.491656e-06	2.487576e-09	1.031212e+01	1.633531e+02
2.210000e-06	1.445297e-06	2.473518e-09	9.991630e+00	1.611984e+02
2.220000e-06	1.398595e-06	2.436520e-09	9.668770e+00	1.589559e+02
2.230000e-06	1.351425e-06	2.410450e-09	9.342671e+00	1.567224e+02
2.240000e-06	1.303612e-06	2.358573e-09	9.012133e+00	1.545624e+02
2.250000e-06	1.255164e-06	2.324431e-09	8.677201e+00	1.524559e+02
2.260000e-06	1.206204e-06	2.312539e-09	8.338729e+00	1.503107e+02
2.270000e-06	1.156882e-06	2.271688e-09	7.997760e+00	1.480290e+02
2.280000e-06	1.107162e-06	2.232907e-09	7.654030e+00	1.455796e+02
2.290000e-06	1.056995e-06	2.188660e-09	7.307217e+00	1.430193e+02
2.300000e-06	1.006368e-06	2.155961e-09	6.957227e+00	1.404518e+02
2.310000e-06	9.553523e-07	2.127875e-09	6.604542e+00	1.379523e+02
2.320000e-06	9.041050e-07	2.081451e-09	6.250259e+00	1.355151e+02
2.330000e-06	8.526319e-07	2.041224e-09	5.894416e+00	1.330585e+02
2.340000e-06	8.008201e-07	2.008916e-09	5.536230e+00	1.304818e+02
2.350000e-06	7.486066e-07	1.969312e-09	5.175268e+00	1.277308e+02
2.360000e-06	6.959462e-07	1.923102e-09	4.811216e+00	1.248285e+02
2.370000e-06	6.428220e-07	1.870191e-09	4.443957e+00	1.218525e+02
2.380000e-06	5.892980e-07	1.827477e-09	4.073935e+00	1.188801e+02
2.390000e-06	5.354161e-07	1.790906e-09	3.701439e+00	1.159415e+02
2.400000e-06	4.811703e-07	1.747785e-09	3.326427e+00	1.130089e+02
2.410000e-06	4.266820e-07	1.703865e-09	2.949738e+00	1.100233e+02
2.420000e-06	3.720369e-07	1.652689e-09	2.571966e+00	1.069338e+02
2.430000e-06	3.172175e-07	1.604214e-09	2.192988e+00	1.037221e+02
2.440000e-06	2.622747e-07	1.555028e-09	1.813158e+00	1.004000e+02
2.450000e-06	2.072538e-07	1.500395e-09	1.432787e+00	9.698865e+01
2.460000e-06	1.521779e-07	1.447155e-09	1.052036e+00	9.350014e+01
2.470000e-06	9.708689e-08	1.393618e-09	6.711812e-01	8.993350e+01
2.480000e-06	4.198367e-08	1.343283e-09	2.902415e-01	8.628369e+01
2.490000e-06	-1.315590e-08	1.288345e-09	-9.094936e-02	8.255212e+01
2.500000e-06	-6.829769e-08	1.225993e-09	-4.721557e-01	7.874819e+01
2.510000e-06	-1.234196e-07	1.164444e-09	-8.532248e-01	7.488133e+01
2.520000e-06	-1.785091e-07	1.106005e-09	-1.234069e+00	7.095153e+01
2.530000e-06	-2.335297e-07	1.046243e-09	-1.614438e+00	6.694645e+01
2.540000e-06	-2.884730e-07	9.832118e-10	-1.994271e+00	6.284644e+01
2.550000e-06	-3.432993e-07	9.180384e-10	-2.373297e+00	5.863220e+01
2.560000e-06	-3.979689e-07	8.519408e-10	-2.751239e+00	5.428878e+01
2.570000e-06	-4.524686e-07	7.823075e-10	-3.128006e+00	4.980467e+01
2.580000e-06	-5.067492e-07	7.081535e-10	-3.503259e+00	4.517001e+01
2.590000e-06	-5.606700e-07	6.343988e-10	-3.876024e+00	4.037810e+01
2.600000e-06	-6.142163e-07	5.593654e-10	-4.246200e+00	3.542937e+01
2.610000e-06	-6.674554e-07	4.846786e-10	-4.614254e+00	3.033229e+01
2.620000e-06	-7.202738e-07	4.074538e-10	-4.979398e+00	2.509636e+01
2.630000e-06	-7.726669e-07	3.244477e-10	-5.341601e+00	1.971929e+01
2.640000e-06	-8.246092e-07	2.363573e-10	-5.700689e+00	1.417716e+01
2.650000e-06	-8.761960e-07	1.476191e-10	-6.057319e+00	8.426843e+00
2.660000e-06	-9.275750e-07	5.812990e-11	-6.412512e+00	2.422109e+00
2.670000e-06	-9.786904e-07	-3.719404e-11	-6.765883e+00	-3.865646e+00
2.680000e-06	-1.029462e-06	-1.370620e-10	-7.116877e+00	-1.043575e+01
2.690000e-06	-1.079829e-06	-2.396339e-10	-7.465078e+00	-1.726363e+01
2.700000e-06	-1.129763e-06	-3.441257e-10	-7.810279e+00	-2.431893e+01
2.710000e-06	-1.179283e-06	-4.559778e-10	-8.152623e+00	-3.158259e+01
2.720000e-06	-1.228374e-06	-5.736341e-10	-8.491993e+00	-3.904995e+01
2.730000e-06	-1.276888e-06	-6.918244e-10	-8.827384e+00	-4.671752e+01
2.740000e-06	-1.324587e-06	-8.099319e-10	-9.157139e+00	-5.456365e+01
2.750000e-06	-1.371520e-06	-9.320203e-10	-9.481590e+00	-6.253739e+01
2.760000e-06	-1.417888e-06	-1.056534e-09	-9.802142e+00	-7.056357e+01
2.770000e-06	-1.463811e-06	-1.179161e-09	-1.011962e+01	-7.855974e+01
2.780000e-06	-1.509362e-06	-1.299283e-09	-1.043452e+01	-8.645268e+01
2.790000e-06	-1.554536e-06	-1.416925e-09	-1.074682e+01	-9.418393e+01
2.800000e-06	-1.599231e-06	-1.533796e-09	-1.105580e+01	-1.017041e+02
2.810000e-06	-1.643316e-06	-1.647431e-09	-1.136058e+01	-1.089650e+02
2.820000e-06	-1.686890e-06	-1.756647e-09	-1.166181e+01	-1.159181e+02
2.830000e-06	-1.730106e-06	-1.858775e-09	-1.196057e+01	-1.225242e+02
2.840000e-06	-1.772859e-06	-1.956205e-09	-1.225613e+01	-1.287638e+02
2.850000e-06	-1.814949e-06	-2.049209e-09	-1.254711e+01	-1.346419e+02
2.860000e-06	-1.856436e-06	-2.133537e-09	-1.283391e+01	-1.401799e+02
2.870000e-06	-1.897411e-06	-2.211024e-09	-1.311718e+01	-1.454022e+02
2.880000e-06	-1.937725e-06	-2.284954e-09	-1.339588e+01	-1.503254e+02
2.890000e-06	-1.977355e-06	-2.357815e-09	-1.366985e+01	-1.549582e+02
2.900000e-06	-2.016477e-06	-2.427896e-09	-1.394031e+01	-1.593088e+02
2.910000e-06	-2.054917e-06	-2.494559e-09	-1.420606e+01	-1.633904e+02
2.920000e-06	-2.092349e-06	-2.557124e-09	-1.446483e+01	-1.672199e+02
2.930000e-06	-2.128719e-06	-2.615517e-09	-1.471626e+01	-1.708097e+02
2.940000e-06	-2.164321e-06	-2.668580e-09	-1.496239e+01	-1.741628e+02
