# Temperatura_=_16.55
# Concentracion g/m^3_=_15500.0
# C_Vs_to_Am_M_A/Vsm_=_65563218390.804596
# pendiente_HvsI_1/m_=_3716.3
# ordenada_HvsI_A/m_=_1297.0
# frecuencia_Hz_=_301006.44296865666

Tiempo_(s)	Campo_(V.s)	Magnetizacion_(V.s)	Campo_(kA/m)	Magnetizacion_(A/m)
0.000000e+00	-2.861049e-06	-3.082723e-09	-1.977728e+01	-2.012021e+02
1.000000e-08	-2.860274e-06	-3.084218e-09	-1.977191e+01	-2.012061e+02
2.000000e-08	-2.858560e-06	-3.085203e-09	-1.976007e+01	-2.011889e+02
3.000000e-08	-2.855599e-06	-3.083296e-09	-1.973960e+01	-2.010803e+02
4.000000e-08	-2.851548e-06	-3.078339e-09	-1.971160e+01	-2.008464e+02
5.000000e-08	-2.846647e-06	-3.072564e-09	-1.967772e+01	-2.005287e+02
6.000000e-08	-2.840918e-06	-3.065771e-09	-1.963812e+01	-2.002234e+02
7.000000e-08	-2.834309e-06	-3.061799e-09	-1.959243e+01	-2.000107e+02
8.000000e-08	-2.826711e-06	-3.090011e-09	-1.953991e+01	-1.998814e+02
9.000000e-08	-2.817955e-06	-3.108009e-09	-1.947938e+01	-1.997229e+02
1.000000e-07	-2.807756e-06	-3.076205e-09	-1.940888e+01	-1.993846e+02
1.100000e-07	-2.796235e-06	-2.986442e-09	-1.932924e+01	-1.987864e+02
1.200000e-07	-2.783894e-06	-3.010160e-09	-1.924393e+01	-1.979935e+02
1.300000e-07	-2.770756e-06	-3.076203e-09	-1.915311e+01	-1.971973e+02
1.400000e-07	-2.756579e-06	-2.996440e-09	-1.905512e+01	-1.966039e+02
1.500000e-07	-2.741377e-06	-2.981920e-09	-1.895003e+01	-1.962983e+02
1.600000e-07	-2.725018e-06	-3.062190e-09	-1.883694e+01	-1.961767e+02
1.700000e-07	-2.707367e-06	-3.028280e-09	-1.871493e+01	-1.959984e+02
1.800000e-07	-2.688814e-06	-2.915504e-09	-1.858668e+01	-1.955287e+02
1.900000e-07	-2.669647e-06	-2.984706e-09	-1.845419e+01	-1.946840e+02
2.000000e-07	-2.649599e-06	-2.988469e-09	-1.831561e+01	-1.935816e+02
2.100000e-07	-2.628563e-06	-2.853849e-09	-1.817019e+01	-1.924635e+02
2.200000e-07	-2.606767e-06	-2.922212e-09	-1.801952e+01	-1.915426e+02
2.300000e-07	-2.584158e-06	-2.996152e-09	-1.786324e+01	-1.908729e+02
2.400000e-07	-2.560563e-06	-2.898691e-09	-1.770014e+01	-1.903258e+02
2.500000e-07	-2.536135e-06	-2.872040e-09	-1.753127e+01	-1.896825e+02
2.600000e-07	-2.510806e-06	-2.875483e-09	-1.735618e+01	-1.887757e+02
2.700000e-07	-2.484368e-06	-2.841496e-09	-1.717343e+01	-1.875873e+02
2.800000e-07	-2.456871e-06	-2.858816e-09	-1.698335e+01	-1.862421e+02
2.900000e-07	-2.428470e-06	-2.820422e-09	-1.678703e+01	-1.849138e+02
3.000000e-07	-2.399225e-06	-2.779484e-09	-1.658487e+01	-1.837116e+02
3.100000e-07	-2.369243e-06	-2.805949e-09	-1.637762e+01	-1.826252e+02
3.200000e-07	-2.338563e-06	-2.794907e-09	-1.616554e+01	-1.815559e+02
3.300000e-07	-2.307101e-06	-2.730401e-09	-1.594805e+01	-1.803994e+02
3.400000e-07	-2.274937e-06	-2.726864e-09	-1.572572e+01	-1.791171e+02
3.500000e-07	-2.242140e-06	-2.699762e-09	-1.549900e+01	-1.777470e+02
3.600000e-07	-2.208544e-06	-2.681614e-09	-1.526677e+01	-1.763556e+02
3.700000e-07	-2.173851e-06	-2.708096e-09	-1.502695e+01	-1.749765e+02
3.800000e-07	-2.138118e-06	-2.646575e-09	-1.477994e+01	-1.735841e+02
3.900000e-07	-2.101660e-06	-2.601701e-09	-1.452792e+01	-1.721216e+02
4.000000e-07	-2.064573e-06	-2.619962e-09	-1.427156e+01	-1.705565e+02
4.100000e-07	-2.026735e-06	-2.595857e-09	-1.401000e+01	-1.689171e+02
4.200000e-07	-1.988108e-06	-2.530339e-09	-1.374298e+01	-1.672794e+02
4.300000e-07	-1.948755e-06	-2.517593e-09	-1.347095e+01	-1.657123e+02
4.400000e-07	-1.908798e-06	-2.512509e-09	-1.319475e+01	-1.642223e+02
4.500000e-07	-1.868405e-06	-2.496069e-09	-1.291553e+01	-1.627388e+02
4.600000e-07	-1.827584e-06	-2.464160e-09	-1.263335e+01	-1.611535e+02
4.700000e-07	-1.786037e-06	-2.419181e-09	-1.234615e+01	-1.593874e+02
4.800000e-07	-1.743466e-06	-2.389935e-09	-1.205187e+01	-1.574411e+02
4.900000e-07	-1.699944e-06	-2.371686e-09	-1.175103e+01	-1.553957e+02
5.000000e-07	-1.655731e-06	-2.348538e-09	-1.144540e+01	-1.533648e+02
5.100000e-07	-1.611067e-06	-2.304374e-09	-1.113665e+01	-1.514289e+02
5.200000e-07	-1.565981e-06	-2.276362e-09	-1.082499e+01	-1.495944e+02
5.300000e-07	-1.520359e-06	-2.253084e-09	-1.050963e+01	-1.477961e+02
5.400000e-07	-1.474192e-06	-2.229226e-09	-1.019049e+01	-1.459399e+02
5.500000e-07	-1.427490e-06	-2.185886e-09	-9.867662e+00	-1.439542e+02
5.600000e-07	-1.380249e-06	-2.141393e-09	-9.541100e+00	-1.418228e+02
5.700000e-07	-1.332498e-06	-2.118993e-09	-9.211022e+00	-1.395825e+02
5.800000e-07	-1.284329e-06	-2.099236e-09	-8.878043e+00	-1.372951e+02
5.900000e-07	-1.235847e-06	-2.061801e-09	-8.542908e+00	-1.350125e+02
6.000000e-07	-1.186994e-06	-2.014446e-09	-8.205211e+00	-1.327525e+02
6.100000e-07	-1.137518e-06	-1.982190e-09	-7.863200e+00	-1.304971e+02
6.200000e-07	-1.087338e-06	-1.948603e-09	-7.516324e+00	-1.282071e+02
6.300000e-07	-1.036553e-06	-1.911593e-09	-7.165268e+00	-1.258447e+02
6.400000e-07	-9.851903e-07	-1.863828e-09	-6.810221e+00	-1.233913e+02
6.500000e-07	-9.333627e-07	-1.820992e-09	-6.451959e+00	-1.208533e+02
6.600000e-07	-8.811831e-07	-1.791500e-09	-6.091262e+00	-1.182545e+02
6.700000e-07	-8.286958e-07	-1.761163e-09	-5.728438e+00	-1.156197e+02
6.800000e-07	-7.759567e-07	-1.718010e-09	-5.363874e+00	-1.129601e+02
6.900000e-07	-7.229346e-07	-1.668362e-09	-4.997354e+00	-1.102668e+02
7.000000e-07	-6.696123e-07	-1.630067e-09	-4.628758e+00	-1.075197e+02
7.100000e-07	-6.160486e-07	-1.590330e-09	-4.258495e+00	-1.047033e+02
7.200000e-07	-5.622490e-07	-1.542521e-09	-3.886599e+00	-1.018209e+02
7.300000e-07	-5.082448e-07	-1.487902e-09	-3.513290e+00	-9.889458e+01
7.400000e-07	-4.540536e-07	-1.442239e-09	-3.138689e+00	-9.594929e+01
7.500000e-07	-3.996977e-07	-1.405332e-09	-2.762948e+00	-9.299176e+01
7.600000e-07	-3.452672e-07	-1.363330e-09	-2.386692e+00	-8.999890e+01
7.700000e-07	-2.907948e-07	-1.311136e-09	-2.010147e+00	-8.692662e+01
7.800000e-07	-2.362263e-07	-1.258891e-09	-1.632937e+00	-8.373544e+01
7.900000e-07	-1.815731e-07	-1.212970e-09	-1.255142e+00	-8.041600e+01
8.000000e-07	-1.268823e-07	-1.161211e-09	-8.770858e-01	-7.699612e+01
8.100000e-07	-7.213325e-08	-1.102185e-09	-4.986280e-01	-7.352284e+01
8.200000e-07	-1.736422e-08	-1.043438e-09	-1.200318e-01	-7.003114e+01
8.300000e-07	3.736502e-08	-9.953151e-10	2.582892e-01	-6.652101e+01
8.400000e-07	9.204408e-08	-9.483819e-10	6.362635e-01	-6.295966e+01
8.500000e-07	1.467002e-07	-8.935367e-10	1.014079e+00	-5.930690e+01
8.600000e-07	2.013292e-07	-8.318039e-10	1.391707e+00	-5.554458e+01
8.700000e-07	2.558817e-07	-7.713486e-10	1.768806e+00	-5.168749e+01
8.800000e-07	3.103633e-07	-7.150394e-10	2.145415e+00	-4.776730e+01
8.900000e-07	3.647839e-07	-6.539666e-10	2.521604e+00	-4.380196e+01
9.000000e-07	4.191189e-07	-5.881112e-10	2.897199e+00	-3.977502e+01
9.100000e-07	4.733219e-07	-5.244924e-10	3.271883e+00	-3.564233e+01
9.200000e-07	5.273341e-07	-4.670627e-10	3.645247e+00	-3.136233e+01
9.300000e-07	5.811337e-07	-4.055249e-10	4.017142e+00	-2.692707e+01
9.400000e-07	6.346902e-07	-3.355490e-10	4.387357e+00	-2.236887e+01
9.500000e-07	6.879727e-07	-2.617215e-10	4.755677e+00	-1.773542e+01
9.600000e-07	7.410054e-07	-1.902427e-10	5.122270e+00	-1.305010e+01
9.700000e-07	7.937700e-07	-1.207722e-10	5.487011e+00	-8.287122e+00
9.800000e-07	8.462751e-07	-4.521835e-11	5.849957e+00	-3.381388e+00
9.900000e-07	8.985324e-07	3.516255e-11	6.211190e+00	1.732094e+00
1.000000e-06	9.504848e-07	1.167164e-10	6.570316e+00	7.076489e+00
1.010000e-06	1.001972e-06	1.982996e-10	6.926224e+00	1.261890e+01
1.020000e-06	1.052810e-06	2.840445e-10	7.277646e+00	1.829399e+01
1.030000e-06	1.102945e-06	3.732838e-10	7.624214e+00	2.404860e+01
1.040000e-06	1.152405e-06	4.640532e-10	7.966112e+00	2.987595e+01
1.050000e-06	1.201370e-06	5.557217e-10	8.304582e+00	3.581565e+01
1.060000e-06	1.250023e-06	6.507638e-10	8.640902e+00	4.192083e+01
1.070000e-06	1.298385e-06	7.501916e-10	8.975206e+00	4.821618e+01
1.080000e-06	1.346378e-06	8.497664e-10	9.306968e+00	5.467572e+01
1.090000e-06	1.393896e-06	9.465295e-10	9.635438e+00	6.123283e+01
1.100000e-06	1.440877e-06	1.042866e-09	9.960199e+00	6.781187e+01
1.110000e-06	1.487330e-06	1.143009e-09	1.028131e+01	7.435705e+01
1.120000e-06	1.533269e-06	1.243832e-09	1.059887e+01	8.083989e+01
1.130000e-06	1.578674e-06	1.341510e-09	1.091274e+01	8.724488e+01
1.140000e-06	1.623581e-06	1.436760e-09	1.122316e+01	9.354933e+01
1.150000e-06	1.668134e-06	1.531662e-09	1.153114e+01	9.971522e+01
1.160000e-06	1.712317e-06	1.623455e-09	1.183656e+01	1.056985e+02
1.170000e-06	1.755947e-06	1.709570e-09	1.213815e+01	1.114662e+02
1.180000e-06	1.798679e-06	1.791510e-09	1.243354e+01	1.170057e+02
1.190000e-06	1.840389e-06	1.872327e-09	1.272187e+01	1.223201e+02
1.200000e-06	1.881322e-06	1.951708e-09	1.300482e+01	1.274140e+02
1.210000e-06	1.921677e-06	2.025344e-09	1.328377e+01	1.322842e+02
1.220000e-06	1.961518e-06	2.093221e-09	1.355918e+01	1.369226e+02
1.230000e-06	2.000740e-06	2.158083e-09	1.383031e+01	1.413260e+02
1.240000e-06	2.039283e-06	2.220834e-09	1.409674e+01	1.455018e+02
1.250000e-06	2.077068e-06	2.280572e-09	1.435793e+01	1.494619e+02
1.260000e-06	2.114155e-06	2.334222e-09	1.461430e+01	1.532084e+02
1.270000e-06	2.150747e-06	2.383730e-09	1.486724e+01	1.567268e+02
1.280000e-06	2.186771e-06	2.432409e-09	1.511626e+01	1.599959e+02
1.290000e-06	2.221857e-06	2.478563e-09	1.535880e+01	1.630114e+02
1.300000e-06	2.255775e-06	2.518533e-09	1.559326e+01	1.658039e+02
1.310000e-06	2.288732e-06	2.554227e-09	1.582107e+01	1.684339e+02
1.320000e-06	2.321005e-06	2.589587e-09	1.604417e+01	1.709603e+02
1.330000e-06	2.352586e-06	2.626542e-09	1.626247e+01	1.734034e+02
1.340000e-06	2.383366e-06	2.661422e-09	1.647524e+01	1.757295e+02
1.350000e-06	2.413341e-06	2.691854e-09	1.668245e+01	1.778731e+02
1.360000e-06	2.442548e-06	2.720072e-09	1.688434e+01	1.797854e+02
1.370000e-06	2.471092e-06	2.745921e-09	1.708166e+01	1.814767e+02
1.380000e-06	2.498874e-06	2.769284e-09	1.727371e+01	1.830210e+02
1.390000e-06	2.525569e-06	2.789867e-09	1.745824e+01	1.845175e+02
1.400000e-06	2.551066e-06	2.809847e-09	1.763449e+01	1.860316e+02
1.410000e-06	2.575545e-06	2.831660e-09	1.780370e+01	1.875577e+02
1.420000e-06	2.599139e-06	2.853807e-09	1.796680e+01	1.890270e+02
1.430000e-06	2.621874e-06	2.872070e-09	1.812395e+01	1.903561e+02
1.440000e-06	2.643746e-06	2.887465e-09	1.827515e+01	1.915023e+02
1.450000e-06	2.664799e-06	2.903867e-09	1.842068e+01	1.924882e+02
1.460000e-06	2.685123e-06	2.921295e-09	1.856117e+01	1.933814e+02
1.470000e-06	2.704587e-06	2.936617e-09	1.869572e+01	1.942487e+02
1.480000e-06	2.723023e-06	2.948309e-09	1.882316e+01	1.951172e+02
1.490000e-06	2.740476e-06	2.958728e-09	1.894380e+01	1.959692e+02
1.500000e-06	2.756900e-06	2.970866e-09	1.905733e+01	1.967682e+02
1.510000e-06	2.772201e-06	2.984618e-09	1.916311e+01	1.974909e+02
1.520000e-06	2.786409e-06	2.995993e-09	1.926132e+01	1.981411e+02
1.530000e-06	2.799592e-06	3.004152e-09	1.935244e+01	1.987367e+02
1.540000e-06	2.811744e-06	3.012614e-09	1.943645e+01	1.992872e+02
1.550000e-06	2.822679e-06	3.021342e-09	1.951204e+01	1.997832e+02
1.560000e-06	2.832328e-06	3.028076e-09	1.957874e+01	2.002096e+02
1.570000e-06	2.840961e-06	3.033320e-09	1.963841e+01	2.005673e+02
1.580000e-06	2.848726e-06	3.038884e-09	1.969209e+01	2.008831e+02
1.590000e-06	2.855532e-06	3.045953e-09	1.973914e+01	2.011932e+02
1.600000e-06	2.861360e-06	3.052948e-09	1.977943e+01	2.015129e+02
1.610000e-06	2.866290e-06	3.056798e-09	1.981350e+01	2.018175e+02
1.620000e-06	2.870342e-06	3.058238e-09	1.984151e+01	2.020551e+02
1.630000e-06	2.873300e-06	3.061270e-09	1.986196e+01	2.021842e+02
1.640000e-06	2.875024e-06	3.065671e-09	1.987388e+01	2.022090e+02
1.650000e-06	2.875693e-06	3.068439e-09	1.987850e+01	2.021802e+02
1.660000e-06	2.875466e-06	3.068262e-09	1.987693e+01	2.021573e+02
1.670000e-06	2.874383e-06	3.064447e-09	1.986944e+01	2.021600e+02
1.680000e-06	2.872391e-06	3.060914e-09	1.985567e+01	2.021484e+02
1.690000e-06	2.869512e-06	3.059910e-09	1.983578e+01	2.020523e+02
1.700000e-06	2.865866e-06	3.060087e-09	1.981057e+01	2.018313e+02
1.710000e-06	2.861264e-06	3.060582e-09	1.977876e+01	2.015183e+02
1.720000e-06	2.855505e-06	3.065038e-09	1.973895e+01	2.012069e+02
1.730000e-06	2.848724e-06	3.056051e-09	1.969207e+01	2.009827e+02
1.740000e-06	2.841049e-06	3.006674e-09	1.963902e+01	2.008483e+02
1.750000e-06	2.832113e-06	2.986306e-09	1.957725e+01	2.007002e+02
1.760000e-06	2.821552e-06	3.051911e-09	1.950425e+01	2.003871e+02
1.770000e-06	2.809847e-06	3.075371e-09	1.942333e+01	1.998164e+02
1.780000e-06	2.797904e-06	3.028460e-09	1.934078e+01	1.990367e+02
1.790000e-06	2.785527e-06	2.977743e-09	1.925522e+01	1.982301e+02
1.800000e-06	2.771642e-06	3.049178e-09	1.915924e+01	1.976077e+02
1.810000e-06	2.756348e-06	2.984277e-09	1.905352e+01	1.972729e+02
1.820000e-06	2.740453e-06	2.900855e-09	1.894364e+01	1.971417e+02
1.830000e-06	2.723687e-06	3.029807e-09	1.882775e+01	1.969821e+02
1.840000e-06	2.705527e-06	3.033762e-09	1.870221e+01	1.965511e+02
1.850000e-06	2.686440e-06	2.920798e-09	1.857027e+01	1.957443e+02
1.860000e-06	2.666705e-06	2.980690e-09	1.843385e+01	1.946589e+02
1.870000e-06	2.645839e-06	3.032779e-09	1.828962e+01	1.935305e+02
1.880000e-06	2.623808e-06	2.882482e-09	1.813732e+01	1.925823e+02
1.890000e-06	2.600809e-06	2.861554e-09	1.797834e+01	1.918890e+02
1.900000e-06	2.576782e-06	2.948148e-09	1.781225e+01	1.913388e+02
1.910000e-06	2.551952e-06	2.913884e-09	1.764061e+01	1.907158e+02
1.920000e-06	2.526428e-06	2.888077e-09	1.746417e+01	1.898411e+02
1.930000e-06	2.500029e-06	2.892875e-09	1.728169e+01	1.886787e+02
1.940000e-06	2.472883e-06	2.830269e-09	1.709404e+01	1.873419e+02
1.950000e-06	2.444943e-06	2.872330e-09	1.690090e+01	1.860046e+02
1.960000e-06	2.415784e-06	2.833740e-09	1.669934e+01	1.847872e+02
1.970000e-06	2.385428e-06	2.738558e-09	1.648950e+01	1.836922e+02
1.980000e-06	2.354246e-06	2.795807e-09	1.627395e+01	1.826266e+02
1.990000e-06	2.322374e-06	2.787191e-09	1.605363e+01	1.814828e+02
2.000000e-06	2.289773e-06	2.734758e-09	1.582827e+01	1.802132e+02
2.010000e-06	2.256388e-06	2.764483e-09	1.559749e+01	1.788492e+02
2.020000e-06	2.222231e-06	2.700669e-09	1.536138e+01	1.774575e+02
2.030000e-06	2.187423e-06	2.656999e-09	1.512077e+01	1.760773e+02
2.040000e-06	2.151961e-06	2.708925e-09	1.487563e+01	1.746889e+02
2.050000e-06	2.115762e-06	2.636364e-09	1.462541e+01	1.732363e+02
2.060000e-06	2.078671e-06	2.588683e-09	1.436901e+01	1.716819e+02
2.070000e-06	2.040544e-06	2.617892e-09	1.410546e+01	1.700473e+02
2.080000e-06	2.001591e-06	2.583704e-09	1.383619e+01	1.684054e+02
2.090000e-06	1.962036e-06	2.551932e-09	1.356276e+01	1.668290e+02
2.100000e-06	1.921883e-06	2.521882e-09	1.328520e+01	1.653329e+02
2.110000e-06	1.881106e-06	2.487744e-09	1.300332e+01	1.638537e+02
2.120000e-06	1.839694e-06	2.485379e-09	1.271706e+01	1.622841e+02
2.130000e-06	1.797677e-06	2.462879e-09	1.242661e+01	1.605389e+02
2.140000e-06	1.755077e-06	2.427036e-09	1.213214e+01	1.586092e+02
2.150000e-06	1.711995e-06	2.398276e-09	1.183433e+01	1.565690e+02
2.160000e-06	1.668508e-06	2.361657e-09	1.153372e+01	1.545315e+02
2.170000e-06	1.624471e-06	2.339079e-09	1.122931e+01	1.525837e+02
2.180000e-06	1.579730e-06	2.305423e-09	1.092004e+01	1.507404e+02
2.190000e-06	1.534346e-06	2.272272e-09	1.060631e+01	1.489427e+02
2.200000e-06	1.488442e-06	2.253842e-09	1.028900e+01	1.470968e+02
2.210000e-06	1.442149e-06	2.231888e-09	9.968995e+00	1.451269e+02
2.220000e-06	1.395405e-06	2.209633e-09	9.645872e+00	1.430100e+02
2.230000e-06	1.348066e-06	2.156148e-09	9.318635e+00	1.407785e+02
2.240000e-06	1.300121e-06	2.114019e-09	8.987211e+00	1.384932e+02
2.250000e-06	1.251608e-06	2.092236e-09	8.651860e+00	1.362085e+02
2.260000e-06	1.202636e-06	2.056199e-09	8.313334e+00	1.339464e+02
2.270000e-06	1.153243e-06	2.021275e-09	7.971899e+00	1.316921e+02
2.280000e-06	1.103451e-06	1.984286e-09	7.627708e+00	1.294078e+02
2.290000e-06	1.053294e-06	1.950424e-09	7.280994e+00	1.270544e+02
2.300000e-06	1.002691e-06	1.924454e-09	6.931199e+00	1.246109e+02
2.310000e-06	9.516874e-07	1.884350e-09	6.578630e+00	1.220810e+02
2.320000e-06	9.004358e-07	1.836484e-09	6.224348e+00	1.194873e+02
2.330000e-06	8.489201e-07	1.797574e-09	5.868241e+00	1.168555e+02
2.340000e-06	7.970404e-07	1.760279e-09	5.509618e+00	1.141986e+02
2.350000e-06	7.446953e-07	1.721276e-09	5.147777e+00	1.115098e+02
2.360000e-06	6.919104e-07	1.672191e-09	4.782896e+00	1.087694e+02
2.370000e-06	6.387354e-07	1.628413e-09	4.415319e+00	1.059606e+02
2.380000e-06	5.851165e-07	1.592933e-09	4.044673e+00	1.030845e+02
2.390000e-06	5.311246e-07	1.552606e-09	3.671449e+00	1.001615e+02
2.400000e-06	4.768600e-07	1.506754e-09	3.296340e+00	9.721736e+01
2.410000e-06	4.223889e-07	1.455546e-09	2.919803e+00	9.426168e+01
2.420000e-06	3.677481e-07	1.412279e-09	2.542094e+00	9.127449e+01
2.430000e-06	3.129518e-07	1.369578e-09	2.163309e+00	8.821290e+01
2.440000e-06	2.580524e-07	1.319068e-09	1.783812e+00	8.503556e+01
2.450000e-06	2.030910e-07	1.265557e-09	1.403886e+00	8.172908e+01
2.460000e-06	1.480951e-07	1.214823e-09	1.023721e+00	7.831776e+01
2.470000e-06	9.302712e-08	1.167670e-09	6.430588e-01	7.484803e+01
2.480000e-06	3.791392e-08	1.115930e-09	2.620836e-01	7.135757e+01
2.490000e-06	-1.717003e-08	1.058809e-09	-1.186895e-01	6.785052e+01
2.500000e-06	-7.222836e-08	1.002655e-09	-4.992854e-01	6.429670e+01
2.510000e-06	-1.272821e-07	9.484589e-10	-8.798499e-01	6.065514e+01
2.520000e-06	-1.823168e-07	8.910911e-10	-1.260282e+00	5.690435e+01
2.530000e-06	-2.373108e-07	8.307128e-10	-1.640433e+00	5.305592e+01
2.540000e-06	-2.922742e-07	7.700271e-10	-2.020373e+00	4.914111e+01
2.550000e-06	-3.471466e-07	7.145495e-10	-2.399684e+00	4.518070e+01
2.560000e-06	-4.018430e-07	6.572973e-10	-2.777778e+00	4.116215e+01
2.570000e-06	-4.563935e-07	5.909521e-10	-3.154864e+00	3.704310e+01
2.580000e-06	-5.106814e-07	5.207518e-10	-3.530134e+00	3.277999e+01
2.590000e-06	-5.646225e-07	4.509514e-10	-3.903007e+00	2.836039e+01
2.600000e-06	-6.182201e-07	3.821659e-10	-4.273505e+00	2.381299e+01
2.610000e-06	-6.714565e-07	3.104561e-10	-4.641507e+00	1.918571e+01
2.620000e-06	-7.243080e-07	2.371021e-10	-5.006848e+00	1.450623e+01
2.630000e-06	-7.767380e-07	1.649047e-10	-5.369275e+00	9.754218e+00
2.640000e-06	-8.287597e-07	9.349009e-11	-5.728880e+00	4.867254e+00
2.650000e-06	-8.803781e-07	1.788701e-11	-6.085697e+00	-2.219027e-01
2.660000e-06	-9.317104e-07	-6.523141e-11	-6.440536e+00	-5.542247e+00
2.670000e-06	-9.827815e-07	-1.515775e-10	-6.793571e+00	-1.106638e+01
2.680000e-06	-1.033482e-06	-2.367017e-10	-7.144042e+00	-1.673042e+01
2.690000e-06	-1.083743e-06	-3.216357e-10	-7.491475e+00	-2.247783e+01
2.700000e-06	-1.133618e-06	-4.108300e-10	-7.836239e+00	-2.829615e+01
2.710000e-06	-1.183134e-06	-5.026254e-10	-8.178528e+00	-3.422118e+01
2.720000e-06	-1.232150e-06	-5.936576e-10	-8.517355e+00	-4.030668e+01
2.730000e-06	-1.280556e-06	-6.848625e-10	-8.851964e+00	-4.658201e+01
2.740000e-06	-1.328283e-06	-7.820302e-10	-9.181880e+00	-5.302669e+01
2.750000e-06	-1.375250e-06	-8.849825e-10	-9.506545e+00	-5.957713e+01
2.760000e-06	-1.421583e-06	-9.867020e-10	-9.826826e+00	-6.615703e+01
2.770000e-06	-1.467469e-06	-1.085072e-09	-1.014402e+01	-7.270765e+01
2.780000e-06	-1.513021e-06	-1.183168e-09	-1.045890e+01	-7.919799e+01
2.790000e-06	-1.558219e-06	-1.282994e-09	-1.077134e+01	-8.561218e+01
2.800000e-06	-1.602874e-06	-1.381828e-09	-1.108002e+01	-9.192901e+01
2.810000e-06	-1.646924e-06	-1.476094e-09	-1.138452e+01	-9.811192e+01
2.820000e-06	-1.690488e-06	-1.566006e-09	-1.168566e+01	-1.041167e+02
2.830000e-06	-1.733650e-06	-1.655325e-09	-1.198402e+01	-1.099085e+02
2.840000e-06	-1.776354e-06	-1.743488e-09	-1.227922e+01	-1.154725e+02
2.850000e-06	-1.818441e-06	-1.826414e-09	-1.257014e+01	-1.208107e+02
2.860000e-06	-1.859924e-06	-1.902811e-09	-1.285690e+01	-1.259283e+02
2.870000e-06	-1.900834e-06	-1.976665e-09	-1.313970e+01	-1.308229e+02
2.880000e-06	-1.941045e-06	-2.050032e-09	-1.341766e+01	-1.354865e+02
2.890000e-06	-1.980635e-06	-2.120013e-09	-1.369132e+01	-1.399149e+02
2.900000e-06	-2.019731e-06	-2.185788e-09	-1.396158e+01	-1.441145e+02
2.910000e-06	-2.058135e-06	-2.249597e-09	-1.422705e+01	-1.480974e+02
2.920000e-06	-2.095520e-06	-2.312231e-09	-1.448548e+01	-1.518673e+02
2.930000e-06	-2.131839e-06	-2.370089e-09	-1.473654e+01	-1.554112e+02
2.940000e-06	-2.167373e-06	-2.420697e-09	-1.498217e+01	-1.587077e+02
