# Temperatura_=_16.5
# Concentracion g/m^3_=_15500.0
# C_Vs_to_Am_M_A/Vsm_=_65563218390.804596
# pendiente_HvsI_1/m_=_3716.3
# ordenada_HvsI_A/m_=_1297.0
# frecuencia_Hz_=_301007.48021118797

Tiempo_(s)	Campo_(V.s)	Magnetizacion_(V.s)	Campo_(kA/m)	Magnetizacion_(A/m)
0.000000e+00	-2.860285e-06	-3.046449e-09	-1.978182e+01	-1.992587e+02
1.000000e-08	-2.859564e-06	-3.051889e-09	-1.977683e+01	-1.994101e+02
2.000000e-08	-2.858031e-06	-3.054177e-09	-1.976623e+01	-1.995216e+02
3.000000e-08	-2.855335e-06	-3.052130e-09	-1.974758e+01	-1.994292e+02
4.000000e-08	-2.851452e-06	-3.049047e-09	-1.972073e+01	-1.990560e+02
5.000000e-08	-2.846704e-06	-3.043571e-09	-1.968790e+01	-1.984909e+02
6.000000e-08	-2.841143e-06	-3.033384e-09	-1.964944e+01	-1.979534e+02
7.000000e-08	-2.834644e-06	-3.019946e-09	-1.960449e+01	-1.976515e+02
8.000000e-08	-2.827140e-06	-3.035744e-09	-1.955259e+01	-1.976262e+02
9.000000e-08	-2.818515e-06	-3.083211e-09	-1.949294e+01	-1.976976e+02
1.000000e-07	-2.808516e-06	-3.089110e-09	-1.942378e+01	-1.975671e+02
1.100000e-07	-2.797119e-06	-2.983148e-09	-1.934497e+01	-1.970180e+02
1.200000e-07	-2.784797e-06	-2.915131e-09	-1.925975e+01	-1.960812e+02
1.300000e-07	-2.771726e-06	-3.008019e-09	-1.916935e+01	-1.950423e+02
1.400000e-07	-2.757663e-06	-3.054722e-09	-1.907209e+01	-1.942717e+02
1.500000e-07	-2.742650e-06	-2.943388e-09	-1.896825e+01	-1.939839e+02
1.600000e-07	-2.726585e-06	-2.958566e-09	-1.885715e+01	-1.940865e+02
1.700000e-07	-2.709128e-06	-3.061901e-09	-1.873642e+01	-1.942288e+02
1.800000e-07	-2.690588e-06	-2.962448e-09	-1.860819e+01	-1.940216e+02
1.900000e-07	-2.671429e-06	-2.907945e-09	-1.847569e+01	-1.932833e+02
2.000000e-07	-2.651490e-06	-2.981423e-09	-1.833779e+01	-1.921474e+02
2.100000e-07	-2.630599e-06	-2.909500e-09	-1.819330e+01	-1.909576e+02
2.200000e-07	-2.608914e-06	-2.857247e-09	-1.804333e+01	-1.900285e+02
2.300000e-07	-2.586393e-06	-2.980777e-09	-1.788758e+01	-1.894342e+02
2.400000e-07	-2.562849e-06	-2.971736e-09	-1.772474e+01	-1.889722e+02
2.500000e-07	-2.538445e-06	-2.848163e-09	-1.755597e+01	-1.883192e+02
2.600000e-07	-2.513284e-06	-2.835090e-09	-1.738195e+01	-1.872653e+02
2.700000e-07	-2.487150e-06	-2.844624e-09	-1.720121e+01	-1.858595e+02
2.800000e-07	-2.459858e-06	-2.829476e-09	-1.701245e+01	-1.843678e+02
2.900000e-07	-2.431527e-06	-2.820315e-09	-1.681651e+01	-1.830797e+02
3.000000e-07	-2.402373e-06	-2.769988e-09	-1.661489e+01	-1.821054e+02
3.100000e-07	-2.372455e-06	-2.779132e-09	-1.640797e+01	-1.813060e+02
3.200000e-07	-2.341868e-06	-2.819897e-09	-1.619643e+01	-1.804012e+02
3.300000e-07	-2.310532e-06	-2.723657e-09	-1.597972e+01	-1.791716e+02
3.400000e-07	-2.278385e-06	-2.666142e-09	-1.575738e+01	-1.776086e+02
3.500000e-07	-2.245587e-06	-2.696050e-09	-1.553055e+01	-1.759099e+02
3.600000e-07	-2.212095e-06	-2.663445e-09	-1.529892e+01	-1.743316e+02
3.700000e-07	-2.177616e-06	-2.649951e-09	-1.506046e+01	-1.730091e+02
3.800000e-07	-2.141981e-06	-2.661005e-09	-1.481401e+01	-1.718730e+02
3.900000e-07	-2.105521e-06	-2.596666e-09	-1.456185e+01	-1.707139e+02
4.000000e-07	-2.068521e-06	-2.574698e-09	-1.430596e+01	-1.693384e+02
4.100000e-07	-2.030810e-06	-2.596557e-09	-1.404515e+01	-1.676998e+02
4.200000e-07	-1.992264e-06	-2.531961e-09	-1.377856e+01	-1.659129e+02
4.300000e-07	-1.952973e-06	-2.475681e-09	-1.350682e+01	-1.641532e+02
4.400000e-07	-1.913036e-06	-2.488745e-09	-1.323062e+01	-1.625228e+02
4.500000e-07	-1.872582e-06	-2.485615e-09	-1.295084e+01	-1.609835e+02
4.600000e-07	-1.831750e-06	-2.444374e-09	-1.266844e+01	-1.594004e+02
4.700000e-07	-1.790379e-06	-2.401411e-09	-1.238231e+01	-1.576546e+02
4.800000e-07	-1.748051e-06	-2.365842e-09	-1.208957e+01	-1.557347e+02
4.900000e-07	-1.704651e-06	-2.349119e-09	-1.178942e+01	-1.537395e+02
5.000000e-07	-1.660495e-06	-2.331087e-09	-1.148404e+01	-1.517964e+02
5.100000e-07	-1.615864e-06	-2.288648e-09	-1.117537e+01	-1.499603e+02
5.200000e-07	-1.570808e-06	-2.255027e-09	-1.086376e+01	-1.481724e+02
5.300000e-07	-1.525297e-06	-2.238675e-09	-1.054900e+01	-1.463080e+02
5.400000e-07	-1.479209e-06	-2.211047e-09	-1.023025e+01	-1.442715e+02
5.500000e-07	-1.432505e-06	-2.166358e-09	-9.907249e+00	-1.420675e+02
5.600000e-07	-1.385341e-06	-2.122121e-09	-9.581060e+00	-1.397954e+02
5.700000e-07	-1.337696e-06	-2.090466e-09	-9.251545e+00	-1.375734e+02
5.800000e-07	-1.289575e-06	-2.076073e-09	-8.918743e+00	-1.354529e+02
5.900000e-07	-1.241092e-06	-2.047903e-09	-8.583430e+00	-1.333847e+02
6.000000e-07	-1.192311e-06	-1.995171e-09	-8.246063e+00	-1.312597e+02
6.100000e-07	-1.143063e-06	-1.952397e-09	-7.905457e+00	-1.289884e+02
6.200000e-07	-1.093162e-06	-1.925059e-09	-7.560344e+00	-1.265614e+02
6.300000e-07	-1.042602e-06	-1.892607e-09	-7.210669e+00	-1.240467e+02
6.400000e-07	-9.914004e-07	-1.846485e-09	-6.856556e+00	-1.215327e+02
6.500000e-07	-9.396885e-07	-1.801084e-09	-6.498915e+00	-1.190618e+02
6.600000e-07	-8.875475e-07	-1.768454e-09	-6.138307e+00	-1.166039e+02
6.700000e-07	-8.350942e-07	-1.738606e-09	-5.775538e+00	-1.140850e+02
6.800000e-07	-7.824281e-07	-1.693713e-09	-5.411298e+00	-1.114452e+02
6.900000e-07	-7.294894e-07	-1.641512e-09	-5.045172e+00	-1.086823e+02
7.000000e-07	-6.762061e-07	-1.599868e-09	-4.676662e+00	-1.058486e+02
7.100000e-07	-6.226873e-07	-1.565473e-09	-4.306525e+00	-1.030091e+02
7.200000e-07	-5.689936e-07	-1.524692e-09	-3.935177e+00	-1.001937e+02
7.300000e-07	-5.150911e-07	-1.474567e-09	-3.562386e+00	-9.737678e+01
7.400000e-07	-4.609739e-07	-1.426009e-09	-3.188110e+00	-9.449798e+01
7.500000e-07	-4.066670e-07	-1.382816e-09	-2.812522e+00	-9.150360e+01
7.600000e-07	-3.522287e-07	-1.337701e-09	-2.436025e+00	-8.837985e+01
7.700000e-07	-2.977029e-07	-1.282791e-09	-2.058923e+00	-8.515627e+01
7.800000e-07	-2.431357e-07	-1.226903e-09	-1.681534e+00	-8.188162e+01
7.900000e-07	-1.885322e-07	-1.181058e-09	-1.303895e+00	-7.859161e+01
8.000000e-07	-1.338953e-07	-1.137572e-09	-9.260240e-01	-7.528967e+01
8.100000e-07	-7.922367e-08	-1.085094e-09	-5.479134e-01	-7.194938e+01
8.200000e-07	-2.452545e-08	-1.026941e-09	-1.696188e-01	-6.853269e+01
8.300000e-07	3.020200e-08	-9.737044e-10	2.088780e-01	-6.501055e+01
8.400000e-07	8.493887e-08	-9.227908e-10	5.874399e-01	-6.137570e+01
8.500000e-07	1.396133e-07	-8.654991e-10	9.655700e-01	-5.764449e+01
8.600000e-07	1.942256e-07	-8.015653e-10	1.343270e+00	-5.384941e+01
8.700000e-07	2.487912e-07	-7.425687e-10	1.720648e+00	-5.002556e+01
8.800000e-07	3.033314e-07	-6.916869e-10	2.097849e+00	-4.619381e+01
8.900000e-07	3.577997e-07	-6.376696e-10	2.474554e+00	-4.234627e+01
9.000000e-07	4.121377e-07	-5.755189e-10	2.850357e+00	-3.844166e+01
9.100000e-07	4.663308e-07	-5.106796e-10	3.225159e+00	-3.441754e+01
9.200000e-07	5.203179e-07	-4.487899e-10	3.598535e+00	-3.021782e+01
9.300000e-07	5.740823e-07	-3.852909e-10	3.970371e+00	-2.582288e+01
9.400000e-07	6.276291e-07	-3.146239e-10	4.340703e+00	-2.126361e+01
9.500000e-07	6.809253e-07	-2.397703e-10	4.709301e+00	-1.660695e+01
9.600000e-07	7.339608e-07	-1.686940e-10	5.076096e+00	-1.191789e+01
9.700000e-07	7.867549e-07	-1.023813e-10	5.441222e+00	-7.219070e+00
9.800000e-07	8.392988e-07	-3.294006e-11	5.804617e+00	-2.473692e+00
9.900000e-07	8.915511e-07	4.466203e-11	6.165996e+00	2.396230e+00
1.000000e-06	9.434341e-07	1.253534e-10	6.524820e+00	7.466666e+00
1.010000e-06	9.948119e-07	2.047684e-10	6.880151e+00	1.277037e+01
1.020000e-06	1.045573e-06	2.877453e-10	7.231217e+00	1.828317e+01
1.030000e-06	1.095693e-06	3.760476e-10	7.577845e+00	2.394464e+01
1.040000e-06	1.145157e-06	4.678678e-10	7.919939e+00	2.969751e+01
1.050000e-06	1.194155e-06	5.584023e-10	8.258815e+00	3.551921e+01
1.060000e-06	1.242893e-06	6.462506e-10	8.595886e+00	4.142633e+01
1.070000e-06	1.291373e-06	7.364404e-10	8.931173e+00	4.745245e+01
1.080000e-06	1.339485e-06	8.310108e-10	9.263921e+00	5.361692e+01
1.090000e-06	1.387123e-06	9.275995e-10	9.593389e+00	5.990503e+01
1.100000e-06	1.434216e-06	1.024233e-09	9.919083e+00	6.626953e+01
1.110000e-06	1.480756e-06	1.123201e-09	1.024095e+01	7.264765e+01
1.120000e-06	1.526760e-06	1.223544e-09	1.055912e+01	7.897996e+01
1.130000e-06	1.572234e-06	1.319888e-09	1.087362e+01	8.522034e+01
1.140000e-06	1.617261e-06	1.409858e-09	1.118503e+01	9.133599e+01
1.150000e-06	1.661955e-06	1.496647e-09	1.149413e+01	9.730346e+01
1.160000e-06	1.706309e-06	1.583366e-09	1.180089e+01	1.031061e+02
1.170000e-06	1.750022e-06	1.669002e-09	1.210321e+01	1.087330e+02
1.180000e-06	1.792753e-06	1.752004e-09	1.239874e+01	1.141764e+02
1.190000e-06	1.834471e-06	1.832491e-09	1.268726e+01	1.194257e+02
1.200000e-06	1.875483e-06	1.910656e-09	1.297090e+01	1.244633e+02
1.210000e-06	1.915998e-06	1.984661e-09	1.325110e+01	1.292674e+02
1.220000e-06	1.955939e-06	2.051743e-09	1.352733e+01	1.338237e+02
1.230000e-06	1.995225e-06	2.113141e-09	1.379904e+01	1.381372e+02
1.240000e-06	2.033861e-06	2.172180e-09	1.406625e+01	1.422342e+02
1.250000e-06	2.071777e-06	2.230761e-09	1.432847e+01	1.461478e+02
1.260000e-06	2.108966e-06	2.287757e-09	1.458567e+01	1.498945e+02
1.270000e-06	2.145630e-06	2.340319e-09	1.483924e+01	1.534598e+02
1.280000e-06	2.181740e-06	2.389506e-09	1.508898e+01	1.568061e+02
1.290000e-06	2.216898e-06	2.435069e-09	1.533213e+01	1.599006e+02
1.300000e-06	2.250908e-06	2.475842e-09	1.556735e+01	1.627454e+02
1.310000e-06	2.283986e-06	2.512245e-09	1.579612e+01	1.653851e+02
1.320000e-06	2.316387e-06	2.545542e-09	1.602020e+01	1.678860e+02
1.330000e-06	2.348065e-06	2.579703e-09	1.623929e+01	1.702965e+02
1.340000e-06	2.378964e-06	2.614574e-09	1.645299e+01	1.726193e+02
1.350000e-06	2.409061e-06	2.647046e-09	1.666114e+01	1.748148e+02
1.360000e-06	2.438336e-06	2.675994e-09	1.686361e+01	1.768347e+02
1.370000e-06	2.466967e-06	2.702199e-09	1.706162e+01	1.786618e+02
1.380000e-06	2.494877e-06	2.728107e-09	1.725465e+01	1.803265e+02
1.390000e-06	2.521575e-06	2.752735e-09	1.743929e+01	1.818884e+02
1.400000e-06	2.547000e-06	2.774168e-09	1.761513e+01	1.833977e+02
1.410000e-06	2.571540e-06	2.793797e-09	1.778485e+01	1.848672e+02
1.420000e-06	2.595251e-06	2.812683e-09	1.794884e+01	1.862735e+02
1.430000e-06	2.618074e-06	2.831285e-09	1.810669e+01	1.875862e+02
1.440000e-06	2.640022e-06	2.849608e-09	1.825848e+01	1.887983e+02
1.450000e-06	2.661142e-06	2.867481e-09	1.840454e+01	1.899317e+02
1.460000e-06	2.681552e-06	2.885343e-09	1.854570e+01	1.910153e+02
1.470000e-06	2.701133e-06	2.903076e-09	1.868112e+01	1.920540e+02
1.480000e-06	2.719681e-06	2.918458e-09	1.880940e+01	1.930190e+02
1.490000e-06	2.737245e-06	2.930105e-09	1.893087e+01	1.938701e+02
1.500000e-06	2.753781e-06	2.939173e-09	1.904524e+01	1.945934e+02
1.510000e-06	2.769163e-06	2.948088e-09	1.915162e+01	1.952231e+02
1.520000e-06	2.783479e-06	2.958398e-09	1.925063e+01	1.958257e+02
1.530000e-06	2.796815e-06	2.969289e-09	1.934286e+01	1.964549e+02
1.540000e-06	2.809152e-06	2.979968e-09	1.942818e+01	1.971129e+02
1.550000e-06	2.820299e-06	2.989401e-09	1.950528e+01	1.977485e+02
1.560000e-06	2.830122e-06	2.997576e-09	1.957321e+01	1.982968e+02
1.570000e-06	2.838861e-06	3.005236e-09	1.963365e+01	1.987288e+02
1.580000e-06	2.846708e-06	3.012663e-09	1.968792e+01	1.990713e+02
1.590000e-06	2.853577e-06	3.020117e-09	1.973543e+01	1.993788e+02
1.600000e-06	2.859479e-06	3.026604e-09	1.977625e+01	1.996813e+02
1.610000e-06	2.864522e-06	3.029773e-09	1.981113e+01	1.999527e+02
1.620000e-06	2.868702e-06	3.029038e-09	1.984003e+01	2.001315e+02
1.630000e-06	2.871765e-06	3.029366e-09	1.986122e+01	2.001797e+02
1.640000e-06	2.873543e-06	3.033111e-09	1.987352e+01	2.001330e+02
1.650000e-06	2.874264e-06	3.038187e-09	1.987850e+01	2.000904e+02
1.660000e-06	2.874118e-06	3.041231e-09	1.987749e+01	2.001429e+02
1.670000e-06	2.873058e-06	3.039664e-09	1.987016e+01	2.002900e+02
1.680000e-06	2.871098e-06	3.035356e-09	1.985661e+01	2.004144e+02
1.690000e-06	2.868330e-06	3.030668e-09	1.983746e+01	2.003507e+02
1.700000e-06	2.864822e-06	3.025785e-09	1.981320e+01	2.000069e+02
1.710000e-06	2.860384e-06	3.021687e-09	1.978251e+01	1.994538e+02
1.720000e-06	2.854679e-06	3.026101e-09	1.974305e+01	1.989023e+02
1.730000e-06	2.847922e-06	3.034475e-09	1.969632e+01	1.985698e+02
1.740000e-06	2.840378e-06	2.991600e-09	1.964414e+01	1.985204e+02
1.750000e-06	2.831685e-06	2.927608e-09	1.958402e+01	1.985958e+02
1.760000e-06	2.821378e-06	2.961764e-09	1.951274e+01	1.985010e+02
1.770000e-06	2.809762e-06	3.072174e-09	1.943240e+01	1.980010e+02
1.780000e-06	2.797813e-06	3.052667e-09	1.934976e+01	1.970962e+02
1.790000e-06	2.785578e-06	2.914200e-09	1.926515e+01	1.960505e+02
1.800000e-06	2.771940e-06	2.943283e-09	1.917082e+01	1.952369e+02
1.810000e-06	2.756700e-06	3.009898e-09	1.906542e+01	1.948965e+02
1.820000e-06	2.740825e-06	2.898480e-09	1.895563e+01	1.949715e+02
1.830000e-06	2.724249e-06	2.890966e-09	1.884099e+01	1.951303e+02
1.840000e-06	2.706272e-06	3.039650e-09	1.871666e+01	1.949750e+02
1.850000e-06	2.687348e-06	2.980665e-09	1.858579e+01	1.942933e+02
1.860000e-06	2.667866e-06	2.876199e-09	1.845105e+01	1.931859e+02
1.870000e-06	2.647212e-06	2.994824e-09	1.830820e+01	1.919848e+02
1.880000e-06	2.625217e-06	2.949684e-09	1.815608e+01	1.910195e+02
1.890000e-06	2.602312e-06	2.774297e-09	1.799767e+01	1.903954e+02
1.900000e-06	2.578432e-06	2.868924e-09	1.783252e+01	1.899351e+02
1.910000e-06	2.553678e-06	2.942102e-09	1.766132e+01	1.893169e+02
1.920000e-06	2.528302e-06	2.853587e-09	1.748581e+01	1.883091e+02
1.930000e-06	2.502060e-06	2.847000e-09	1.730433e+01	1.869314e+02
1.940000e-06	2.475055e-06	2.822063e-09	1.711756e+01	1.854340e+02
1.950000e-06	2.447339e-06	2.799672e-09	1.692587e+01	1.841150e+02
1.960000e-06	2.418367e-06	2.823389e-09	1.672550e+01	1.831102e+02
1.970000e-06	2.388169e-06	2.723681e-09	1.651666e+01	1.823051e+02
1.980000e-06	2.357177e-06	2.706974e-09	1.630231e+01	1.814254e+02
1.990000e-06	2.325445e-06	2.810214e-09	1.608285e+01	1.802359e+02
2.000000e-06	2.293028e-06	2.733048e-09	1.585866e+01	1.787024e+02
2.010000e-06	2.259843e-06	2.675021e-09	1.562914e+01	1.770060e+02
2.020000e-06	2.225779e-06	2.709975e-09	1.539356e+01	1.754056e+02
2.030000e-06	2.191070e-06	2.629681e-09	1.515351e+01	1.740559e+02
2.040000e-06	2.155808e-06	2.615718e-09	1.490964e+01	1.729091e+02
2.050000e-06	2.119785e-06	2.647090e-09	1.466050e+01	1.717640e+02
2.060000e-06	2.082820e-06	2.570986e-09	1.440485e+01	1.704177e+02
2.070000e-06	2.044832e-06	2.560688e-09	1.414212e+01	1.688046e+02
2.080000e-06	2.006007e-06	2.581325e-09	1.387361e+01	1.670256e+02
2.090000e-06	1.966568e-06	2.530214e-09	1.360084e+01	1.652564e+02
2.100000e-06	1.926505e-06	2.490369e-09	1.332377e+01	1.636121e+02
2.110000e-06	1.885825e-06	2.455776e-09	1.304242e+01	1.620692e+02
2.120000e-06	1.844569e-06	2.440607e-09	1.275710e+01	1.604983e+02
2.130000e-06	1.802693e-06	2.439085e-09	1.246748e+01	1.587733e+02
2.140000e-06	1.760216e-06	2.396463e-09	1.217371e+01	1.568693e+02
2.150000e-06	1.717269e-06	2.360066e-09	1.187669e+01	1.548762e+02
2.160000e-06	1.673905e-06	2.339135e-09	1.157678e+01	1.529236e+02
2.170000e-06	1.629982e-06	2.314536e-09	1.127301e+01	1.510774e+02
2.180000e-06	1.585342e-06	2.282367e-09	1.096428e+01	1.492905e+02
2.190000e-06	1.540041e-06	2.246269e-09	1.065097e+01	1.474407e+02
2.200000e-06	1.494241e-06	2.222869e-09	1.033422e+01	1.454250e+02
2.210000e-06	1.448062e-06	2.196482e-09	1.001484e+01	1.432360e+02
2.220000e-06	1.401435e-06	2.167097e-09	9.692369e+00	1.409656e+02
2.230000e-06	1.354160e-06	2.130452e-09	9.365410e+00	1.387346e+02
2.240000e-06	1.306212e-06	2.080109e-09	9.033803e+00	1.366044e+02
2.250000e-06	1.257724e-06	2.056317e-09	8.698458e+00	1.345360e+02
2.260000e-06	1.208852e-06	2.041948e-09	8.360461e+00	1.324229e+02
2.270000e-06	1.159608e-06	2.001386e-09	8.019889e+00	1.301700e+02
2.280000e-06	1.109903e-06	1.959270e-09	7.676127e+00	1.277580e+02
2.290000e-06	1.059739e-06	1.920298e-09	7.329190e+00	1.252487e+02
2.300000e-06	1.009113e-06	1.889463e-09	6.979058e+00	1.227319e+02
2.310000e-06	9.581272e-07	1.855446e-09	6.626438e+00	1.202572e+02
2.320000e-06	9.069106e-07	1.807729e-09	6.272222e+00	1.178017e+02
2.330000e-06	8.553910e-07	1.772389e-09	5.915911e+00	1.152934e+02
2.340000e-06	8.035099e-07	1.743807e-09	5.557100e+00	1.126684e+02
2.350000e-06	7.512322e-07	1.706000e-09	5.195546e+00	1.099175e+02
2.360000e-06	6.984763e-07	1.656881e-09	4.830684e+00	1.070885e+02
2.370000e-06	6.452329e-07	1.605617e-09	4.462451e+00	1.042479e+02
2.380000e-06	5.915327e-07	1.565465e-09	4.091058e+00	1.014307e+02
2.390000e-06	5.374989e-07	1.527504e-09	3.717359e+00	9.861710e+01
2.400000e-06	4.832908e-07	1.483122e-09	3.342454e+00	9.574852e+01
2.410000e-06	4.288938e-07	1.436727e-09	2.966243e+00	9.276859e+01
2.420000e-06	3.742926e-07	1.393300e-09	2.588619e+00	8.965848e+01
2.430000e-06	3.195507e-07	1.352053e-09	2.210023e+00	8.644387e+01
2.440000e-06	2.647152e-07	1.302641e-09	1.830779e+00	8.317306e+01
2.450000e-06	2.098051e-07	1.243769e-09	1.451019e+00	7.988446e+01
2.460000e-06	1.548273e-07	1.187531e-09	1.070791e+00	7.658520e+01
2.470000e-06	9.985688e-08	1.138254e-09	6.906133e-01	7.325137e+01
2.480000e-06	4.487341e-08	1.091134e-09	3.103459e-01	6.984512e+01
2.490000e-06	-1.011701e-08	1.038249e-09	-6.996954e-02	6.633561e+01
2.500000e-06	-6.508648e-08	9.830270e-10	-4.501402e-01	6.271298e+01
2.510000e-06	-1.200426e-07	9.308071e-10	-8.302186e-01	5.899128e+01
2.520000e-06	-1.749792e-07	8.749160e-10	-1.210162e+00	5.520183e+01
2.530000e-06	-2.298868e-07	8.122273e-10	-1.589904e+00	5.138022e+01
2.540000e-06	-2.847440e-07	7.478090e-10	-1.969298e+00	4.754965e+01
2.550000e-06	-3.395271e-07	6.899579e-10	-2.348180e+00	4.370577e+01
2.560000e-06	-3.941663e-07	6.355240e-10	-2.726067e+00	3.981063e+01
2.570000e-06	-4.486704e-07	5.735505e-10	-3.103019e+00	3.580293e+01
2.580000e-06	-5.030173e-07	5.053470e-10	-3.478884e+00	3.162436e+01
2.590000e-06	-5.570852e-07	4.378704e-10	-3.852819e+00	2.725030e+01
2.600000e-06	-6.107807e-07	3.701157e-10	-4.224178e+00	2.270635e+01
2.610000e-06	-6.641289e-07	2.997943e-10	-4.593136e+00	1.805716e+01
2.620000e-06	-7.170802e-07	2.266695e-10	-4.959349e+00	1.337003e+01
2.630000e-06	-7.695730e-07	1.526520e-10	-5.322391e+00	8.673544e+00
2.640000e-06	-8.216401e-07	7.963130e-11	-5.682489e+00	3.937019e+00
2.650000e-06	-8.732982e-07	6.164120e-12	-6.039758e+00	-9.149362e-01
2.660000e-06	-9.246193e-07	-7.072550e-11	-6.394696e+00	-5.960767e+00
2.670000e-06	-9.756361e-07	-1.506950e-10	-6.747530e+00	-1.123914e+01
2.680000e-06	-1.026300e-06	-2.310406e-10	-7.097925e+00	-1.673155e+01
2.690000e-06	-1.076626e-06	-3.128941e-10	-7.445981e+00	-2.237967e+01
2.700000e-06	-1.126622e-06	-3.987550e-10	-7.791754e+00	-2.812403e+01
2.710000e-06	-1.176163e-06	-4.891491e-10	-8.134381e+00	-3.393760e+01
2.720000e-06	-1.225186e-06	-5.821745e-10	-8.473428e+00	-3.983344e+01
2.730000e-06	-1.273706e-06	-6.743935e-10	-8.808992e+00	-4.584485e+01
2.740000e-06	-1.321624e-06	-7.659107e-10	-9.140395e+00	-5.199398e+01
2.750000e-06	-1.368760e-06	-8.600865e-10	-9.466384e+00	-5.827009e+01
2.760000e-06	-1.415119e-06	-9.559963e-10	-9.787005e+00	-6.462876e+01
2.770000e-06	-1.460953e-06	-1.050667e-09	-1.010400e+01	-7.100789e+01
2.780000e-06	-1.506449e-06	-1.145529e-09	-1.041865e+01	-7.734703e+01
2.790000e-06	-1.551636e-06	-1.242198e-09	-1.073117e+01	-8.359848e+01
2.800000e-06	-1.596390e-06	-1.339283e-09	-1.104068e+01	-8.972821e+01
2.810000e-06	-1.640512e-06	-1.433342e-09	-1.134583e+01	-9.571191e+01
2.820000e-06	-1.684035e-06	-1.522774e-09	-1.164684e+01	-1.015323e+02
2.830000e-06	-1.727188e-06	-1.608478e-09	-1.194529e+01	-1.071778e+02
2.840000e-06	-1.769952e-06	-1.691927e-09	-1.224105e+01	-1.126407e+02
2.850000e-06	-1.812108e-06	-1.772471e-09	-1.253260e+01	-1.179110e+02
2.860000e-06	-1.853653e-06	-1.848937e-09	-1.281992e+01	-1.229717e+02
2.870000e-06	-1.894588e-06	-1.923221e-09	-1.310303e+01	-1.278013e+02
2.880000e-06	-1.934837e-06	-1.994874e-09	-1.338140e+01	-1.323837e+02
2.890000e-06	-1.974437e-06	-2.063624e-09	-1.365527e+01	-1.367217e+02
2.900000e-06	-2.013525e-06	-2.130216e-09	-1.392560e+01	-1.408398e+02
2.910000e-06	-2.052024e-06	-2.194539e-09	-1.419186e+01	-1.447712e+02
2.920000e-06	-2.089615e-06	-2.255880e-09	-1.445185e+01	-1.485354e+02
2.930000e-06	-2.126134e-06	-2.312111e-09	-1.470441e+01	-1.521211e+02
2.940000e-06	-2.161754e-06	-2.362897e-09	-1.495076e+01	-1.554922e+02
