# Temperatura_=_29.4
# Concentracion g/m^3_=_15500.0
# C_Vs_to_Am_M_A/Vsm_=_65563218390.804596
# pendiente_HvsI_1/m_=_3716.3
# ordenada_HvsI_A/m_=_1297.0
# frecuencia_Hz_=_300978.52413509664

Tiempo_(s)	Campo_(V.s)	Magnetizacion_(V.s)	Campo_(kA/m)	Magnetizacion_(A/m)
0.000000e+00	-2.861081e-06	-3.312992e-09	-1.978880e+01	-2.174743e+02
1.000000e-08	-2.860613e-06	-3.312690e-09	-1.978557e+01	-2.174663e+02
2.000000e-08	-2.859526e-06	-3.314901e-09	-1.977804e+01	-2.174775e+02
3.000000e-08	-2.857406e-06	-3.313916e-09	-1.976338e+01	-2.174190e+02
4.000000e-08	-2.853904e-06	-3.312204e-09	-1.973916e+01	-2.172145e+02
5.000000e-08	-2.849429e-06	-3.309127e-09	-1.970821e+01	-2.168706e+02
6.000000e-08	-2.844215e-06	-3.302000e-09	-1.967215e+01	-2.164879e+02
7.000000e-08	-2.838095e-06	-3.285947e-09	-1.962981e+01	-2.161936e+02
8.000000e-08	-2.830974e-06	-3.283202e-09	-1.958057e+01	-2.160382e+02
9.000000e-08	-2.822832e-06	-3.352618e-09	-1.952425e+01	-2.159358e+02
1.000000e-07	-2.813431e-06	-3.393809e-09	-1.945923e+01	-2.157015e+02
1.100000e-07	-2.802472e-06	-3.268885e-09	-1.938343e+01	-2.151761e+02
1.200000e-07	-2.790422e-06	-3.097664e-09	-1.930008e+01	-2.143538e+02
1.300000e-07	-2.777745e-06	-3.235689e-09	-1.921241e+01	-2.134184e+02
1.400000e-07	-2.764127e-06	-3.424708e-09	-1.911822e+01	-2.126475e+02
1.500000e-07	-2.749475e-06	-3.202103e-09	-1.901687e+01	-2.122364e+02
1.600000e-07	-2.733921e-06	-3.133651e-09	-1.890929e+01	-2.121591e+02
1.700000e-07	-2.716943e-06	-3.382044e-09	-1.879187e+01	-2.121657e+02
1.800000e-07	-2.698614e-06	-3.298763e-09	-1.866509e+01	-2.119301e+02
1.900000e-07	-2.679667e-06	-3.078014e-09	-1.853404e+01	-2.112552e+02
2.000000e-07	-2.660054e-06	-3.265713e-09	-1.839839e+01	-2.102001e+02
2.100000e-07	-2.639440e-06	-3.284121e-09	-1.825581e+01	-2.090402e+02
2.200000e-07	-2.617940e-06	-3.018005e-09	-1.810710e+01	-2.080828e+02
2.300000e-07	-2.595727e-06	-3.194575e-09	-1.795347e+01	-2.074627e+02
2.400000e-07	-2.572587e-06	-3.359833e-09	-1.779342e+01	-2.070547e+02
2.500000e-07	-2.548481e-06	-3.110034e-09	-1.762669e+01	-2.065631e+02
2.600000e-07	-2.523688e-06	-3.060951e-09	-1.745521e+01	-2.057260e+02
2.700000e-07	-2.498060e-06	-3.161616e-09	-1.727795e+01	-2.044936e+02
2.800000e-07	-2.471248e-06	-3.095131e-09	-1.709250e+01	-2.030582e+02
2.900000e-07	-2.443315e-06	-3.093212e-09	-1.689930e+01	-2.017184e+02
3.000000e-07	-2.414454e-06	-3.062598e-09	-1.669969e+01	-2.006729e+02
3.100000e-07	-2.384770e-06	-3.027770e-09	-1.649437e+01	-1.998880e+02
3.200000e-07	-2.354432e-06	-3.104172e-09	-1.628454e+01	-1.991271e+02
3.300000e-07	-2.323403e-06	-3.058597e-09	-1.606993e+01	-1.981187e+02
3.400000e-07	-2.291533e-06	-2.946475e-09	-1.584950e+01	-1.967422e+02
3.500000e-07	-2.258998e-06	-2.971961e-09	-1.562447e+01	-1.951042e+02
3.600000e-07	-2.225897e-06	-2.939718e-09	-1.539552e+01	-1.934577e+02
3.700000e-07	-2.191881e-06	-2.916977e-09	-1.516025e+01	-1.920253e+02
3.800000e-07	-2.156636e-06	-2.983376e-09	-1.491647e+01	-1.908521e+02
3.900000e-07	-2.120396e-06	-2.890086e-09	-1.466581e+01	-1.897866e+02
4.000000e-07	-2.083565e-06	-2.841743e-09	-1.441107e+01	-1.885948e+02
4.100000e-07	-2.046140e-06	-2.910370e-09	-1.415223e+01	-1.871210e+02
4.200000e-07	-2.007954e-06	-2.853811e-09	-1.388811e+01	-1.853829e+02
4.300000e-07	-1.969021e-06	-2.747150e-09	-1.361883e+01	-1.835419e+02
4.400000e-07	-1.929328e-06	-2.761883e-09	-1.334429e+01	-1.817798e+02
4.500000e-07	-1.889013e-06	-2.774657e-09	-1.306545e+01	-1.801755e+02
4.600000e-07	-1.848383e-06	-2.746404e-09	-1.278443e+01	-1.786664e+02
4.700000e-07	-1.807367e-06	-2.712521e-09	-1.250074e+01	-1.771127e+02
4.800000e-07	-1.765480e-06	-2.663479e-09	-1.221103e+01	-1.754072e+02
4.900000e-07	-1.722371e-06	-2.637618e-09	-1.191286e+01	-1.735467e+02
5.000000e-07	-1.678357e-06	-2.627143e-09	-1.160843e+01	-1.716172e+02
5.100000e-07	-1.633890e-06	-2.600194e-09	-1.130088e+01	-1.697135e+02
5.200000e-07	-1.589051e-06	-2.544778e-09	-1.099075e+01	-1.678594e+02
5.300000e-07	-1.543772e-06	-2.523485e-09	-1.067757e+01	-1.659918e+02
5.400000e-07	-1.497911e-06	-2.511649e-09	-1.036037e+01	-1.640167e+02
5.500000e-07	-1.451461e-06	-2.480073e-09	-1.003910e+01	-1.618904e+02
5.600000e-07	-1.404489e-06	-2.425629e-09	-9.714216e+00	-1.596601e+02
5.700000e-07	-1.357004e-06	-2.377756e-09	-9.385780e+00	-1.574326e+02
5.800000e-07	-1.309026e-06	-2.367608e-09	-9.053942e+00	-1.552936e+02
5.900000e-07	-1.260651e-06	-2.356421e-09	-8.719354e+00	-1.532396e+02
6.000000e-07	-1.211977e-06	-2.311310e-09	-8.382698e+00	-1.511741e+02
6.100000e-07	-1.162904e-06	-2.254390e-09	-8.043279e+00	-1.489715e+02
6.200000e-07	-1.113193e-06	-2.222829e-09	-7.699453e+00	-1.465622e+02
6.300000e-07	-1.062722e-06	-2.192786e-09	-7.350369e+00	-1.439796e+02
6.400000e-07	-1.011704e-06	-2.153026e-09	-6.997496e+00	-1.413342e+02
6.500000e-07	-9.602346e-07	-2.099974e-09	-6.641508e+00	-1.387377e+02
6.600000e-07	-9.082865e-07	-2.058146e-09	-6.282206e+00	-1.362299e+02
6.700000e-07	-8.559883e-07	-2.037090e-09	-5.920483e+00	-1.337582e+02
6.800000e-07	-8.033921e-07	-2.005965e-09	-5.556699e+00	-1.312214e+02
6.900000e-07	-7.505434e-07	-1.953408e-09	-5.191168e+00	-1.285419e+02
7.000000e-07	-6.974542e-07	-1.898350e-09	-4.823974e+00	-1.257147e+02
7.100000e-07	-6.440388e-07	-1.861683e-09	-4.454525e+00	-1.228014e+02
7.200000e-07	-5.903140e-07	-1.824244e-09	-4.082935e+00	-1.198778e+02
7.300000e-07	-5.363775e-07	-1.776363e-09	-3.709880e+00	-1.169762e+02
7.400000e-07	-4.823161e-07	-1.721415e-09	-3.335962e+00	-1.140633e+02
7.500000e-07	-4.280755e-07	-1.674386e-09	-2.960804e+00	-1.110676e+02
7.600000e-07	-3.736731e-07	-1.634649e-09	-2.584528e+00	-1.079320e+02
7.700000e-07	-3.192062e-07	-1.585778e-09	-2.207804e+00	-1.046529e+02
7.800000e-07	-2.646616e-07	-1.525198e-09	-1.830545e+00	-1.012790e+02
7.900000e-07	-2.100541e-07	-1.469723e-09	-1.452849e+00	-9.787139e+01
8.000000e-07	-1.554116e-07	-1.425265e-09	-1.074911e+00	-9.445596e+01
8.100000e-07	-1.007158e-07	-1.373648e-09	-6.966056e-01	-9.100252e+01
8.200000e-07	-4.596758e-08	-1.314536e-09	-3.179369e-01	-8.744404e+01
8.300000e-07	8.757508e-09	-1.253534e-09	6.057171e-02	-8.372250e+01
8.400000e-07	6.346560e-08	-1.198336e-09	4.389628e-01	-7.982921e+01
8.500000e-07	1.181751e-07	-1.142617e-09	8.173638e-01	-7.581253e+01
8.600000e-07	1.728473e-07	-1.080605e-09	1.195507e+00	-7.174808e+01
8.700000e-07	2.274597e-07	-1.013838e-09	1.573236e+00	-6.769073e+01
8.800000e-07	2.820176e-07	-9.502542e-10	1.950588e+00	-6.363866e+01
8.900000e-07	3.365079e-07	-8.925612e-10	2.327473e+00	-5.953096e+01
9.000000e-07	3.908586e-07	-8.276315e-10	2.703392e+00	-5.527893e+01
9.100000e-07	4.450651e-07	-7.554554e-10	3.078314e+00	-5.081147e+01
9.200000e-07	4.991648e-07	-6.829948e-10	3.452496e+00	-4.610800e+01
9.300000e-07	5.530826e-07	-6.138489e-10	3.825422e+00	-4.120155e+01
9.400000e-07	6.067259e-07	-5.398835e-10	4.196448e+00	-3.615267e+01
9.500000e-07	6.600795e-07	-4.581430e-10	4.565471e+00	-3.101102e+01
9.600000e-07	7.131972e-07	-3.746184e-10	4.932862e+00	-2.578661e+01
9.700000e-07	7.660883e-07	-2.949360e-10	5.298686e+00	-2.044485e+01
9.800000e-07	8.186904e-07	-2.156221e-10	5.662510e+00	-1.492483e+01
9.900000e-07	8.710260e-07	-1.265550e-10	6.024492e+00	-9.167705e+00
1.000000e-06	9.230586e-07	-3.046150e-11	6.384378e+00	-3.138372e+00
1.010000e-06	9.746591e-07	6.606935e-11	6.741275e+00	3.169882e+00
1.020000e-06	1.025677e-06	1.621245e-10	7.094140e+00	9.746166e+00
1.030000e-06	1.075998e-06	2.649440e-10	7.442190e+00	1.657763e+01
1.040000e-06	1.125704e-06	3.749293e-10	7.785988e+00	2.365817e+01
1.050000e-06	1.174919e-06	4.894901e-10	8.126379e+00	3.098541e+01
1.060000e-06	1.223768e-06	6.043082e-10	8.464251e+00	3.855013e+01
1.070000e-06	1.272346e-06	7.204628e-10	8.800241e+00	4.632769e+01
1.080000e-06	1.320571e-06	8.420462e-10	9.133790e+00	5.427784e+01
1.090000e-06	1.368346e-06	9.657012e-10	9.464231e+00	6.235181e+01
1.100000e-06	1.415578e-06	1.086650e-09	9.790915e+00	7.049890e+01
1.110000e-06	1.462250e-06	1.207592e-09	1.011372e+01	7.866556e+01
1.120000e-06	1.508424e-06	1.332951e-09	1.043308e+01	8.678713e+01
1.130000e-06	1.554038e-06	1.457885e-09	1.074857e+01	9.478075e+01
1.140000e-06	1.599136e-06	1.576075e-09	1.106050e+01	1.025498e+02
1.150000e-06	1.643892e-06	1.685042e-09	1.137005e+01	1.100027e+02
1.160000e-06	1.688320e-06	1.789069e-09	1.167735e+01	1.170786e+02
1.170000e-06	1.732221e-06	1.889743e-09	1.198099e+01	1.237619e+02
1.180000e-06	1.775295e-06	1.985193e-09	1.227891e+01	1.300771e+02
1.190000e-06	1.817375e-06	2.076268e-09	1.256996e+01	1.360628e+02
1.200000e-06	1.858604e-06	2.163893e-09	1.285512e+01	1.417431e+02
1.210000e-06	1.899259e-06	2.247209e-09	1.313632e+01	1.471139e+02
1.220000e-06	1.939410e-06	2.323532e-09	1.341402e+01	1.521539e+02
1.230000e-06	1.978947e-06	2.392966e-09	1.368748e+01	1.568505e+02
1.240000e-06	2.017816e-06	2.457607e-09	1.395632e+01	1.612207e+02
1.250000e-06	2.055987e-06	2.519487e-09	1.422033e+01	1.653094e+02
1.260000e-06	2.093403e-06	2.579137e-09	1.447912e+01	1.691649e+02
1.270000e-06	2.130224e-06	2.631723e-09	1.473379e+01	1.728101e+02
1.280000e-06	2.166573e-06	2.679686e-09	1.498520e+01	1.762309e+02
1.290000e-06	2.202152e-06	2.725838e-09	1.523129e+01	1.793932e+02
1.300000e-06	2.236616e-06	2.770414e-09	1.546966e+01	1.822778e+02
1.310000e-06	2.269988e-06	2.809515e-09	1.570048e+01	1.849068e+02
1.320000e-06	2.302603e-06	2.843350e-09	1.592606e+01	1.873430e+02
1.330000e-06	2.334553e-06	2.875967e-09	1.614704e+01	1.896584e+02
1.340000e-06	2.365734e-06	2.909119e-09	1.636271e+01	1.918953e+02
1.350000e-06	2.396172e-06	2.941450e-09	1.657323e+01	1.940453e+02
1.360000e-06	2.425772e-06	2.970500e-09	1.677796e+01	1.960629e+02
1.370000e-06	2.454639e-06	2.996421e-09	1.697763e+01	1.979032e+02
1.380000e-06	2.482905e-06	3.020300e-09	1.717313e+01	1.995578e+02
1.390000e-06	2.510178e-06	3.043700e-09	1.736177e+01	2.010642e+02
1.400000e-06	2.536144e-06	3.064449e-09	1.754136e+01	2.024847e+02
1.410000e-06	2.561041e-06	3.083752e-09	1.771356e+01	2.038696e+02
1.420000e-06	2.585080e-06	3.103972e-09	1.787983e+01	2.052326e+02
1.430000e-06	2.608235e-06	3.124116e-09	1.803998e+01	2.065510e+02
1.440000e-06	2.630551e-06	3.142329e-09	1.819433e+01	2.077884e+02
1.450000e-06	2.652014e-06	3.160455e-09	1.834278e+01	2.089191e+02
1.460000e-06	2.672739e-06	3.178043e-09	1.848612e+01	2.099389e+02
1.470000e-06	2.692687e-06	3.192751e-09	1.862409e+01	2.108586e+02
1.480000e-06	2.711563e-06	3.204823e-09	1.875465e+01	2.116918e+02
1.490000e-06	2.729410e-06	3.215177e-09	1.887809e+01	2.124509e+02
1.500000e-06	2.746385e-06	3.225665e-09	1.899550e+01	2.131513e+02
1.510000e-06	2.762255e-06	3.237794e-09	1.910527e+01	2.138170e+02
1.520000e-06	2.777050e-06	3.250494e-09	1.920760e+01	2.144736e+02
1.530000e-06	2.790878e-06	3.261045e-09	1.930324e+01	2.151306e+02
1.540000e-06	2.803703e-06	3.270404e-09	1.939194e+01	2.157662e+02
1.550000e-06	2.815400e-06	3.279800e-09	1.947284e+01	2.163321e+02
1.560000e-06	2.825661e-06	3.287284e-09	1.954382e+01	2.167815e+02
1.570000e-06	2.834736e-06	3.292643e-09	1.960658e+01	2.171043e+02
1.580000e-06	2.842970e-06	3.297888e-09	1.966354e+01	2.173411e+02
1.590000e-06	2.850280e-06	3.303680e-09	1.971410e+01	2.175615e+02
1.600000e-06	2.856607e-06	3.309220e-09	1.975785e+01	2.178172e+02
1.610000e-06	2.862009e-06	3.313592e-09	1.979522e+01	2.181036e+02
1.620000e-06	2.866606e-06	3.315052e-09	1.982701e+01	2.183612e+02
1.630000e-06	2.870284e-06	3.317055e-09	1.985245e+01	2.185189e+02
1.640000e-06	2.872641e-06	3.321996e-09	1.986876e+01	2.185496e+02
1.650000e-06	2.873790e-06	3.326658e-09	1.987671e+01	2.184938e+02
1.660000e-06	2.874050e-06	3.329781e-09	1.987850e+01	2.184312e+02
1.670000e-06	2.873453e-06	3.328678e-09	1.987437e+01	2.184158e+02
1.680000e-06	2.871965e-06	3.323478e-09	1.986408e+01	2.184287e+02
1.690000e-06	2.869551e-06	3.320212e-09	1.984739e+01	2.183858e+02
1.700000e-06	2.866377e-06	3.318561e-09	1.982543e+01	2.182040e+02
1.710000e-06	2.862410e-06	3.315980e-09	1.979799e+01	2.178755e+02
1.720000e-06	2.857247e-06	3.317899e-09	1.976228e+01	2.174899e+02
1.730000e-06	2.850861e-06	3.337403e-09	1.971811e+01	2.171768e+02
1.740000e-06	2.843665e-06	3.313414e-09	1.966834e+01	2.170034e+02
1.750000e-06	2.835597e-06	3.202946e-09	1.961254e+01	2.169033e+02
1.760000e-06	2.825999e-06	3.188644e-09	1.954615e+01	2.166996e+02
1.770000e-06	2.814728e-06	3.387727e-09	1.946820e+01	2.162205e+02
1.780000e-06	2.802800e-06	3.417710e-09	1.938569e+01	2.154331e+02
1.790000e-06	2.790955e-06	3.205249e-09	1.930377e+01	2.144971e+02
1.800000e-06	2.778088e-06	3.140022e-09	1.921477e+01	2.136867e+02
1.810000e-06	2.763269e-06	3.365984e-09	1.911228e+01	2.132197e+02
1.820000e-06	2.747497e-06	3.241959e-09	1.900319e+01	2.131056e+02
1.830000e-06	2.731338e-06	3.035119e-09	1.889143e+01	2.131204e+02
1.840000e-06	2.713903e-06	3.328777e-09	1.877084e+01	2.129363e+02
1.850000e-06	2.695149e-06	3.355363e-09	1.864113e+01	2.123267e+02
1.860000e-06	2.675861e-06	3.041424e-09	1.850772e+01	2.113125e+02
1.870000e-06	2.655723e-06	3.211997e-09	1.836843e+01	2.101468e+02
1.880000e-06	2.634173e-06	3.381868e-09	1.821938e+01	2.091463e+02
1.890000e-06	2.611660e-06	3.021873e-09	1.806367e+01	2.084796e+02
1.900000e-06	2.588286e-06	3.022462e-09	1.790200e+01	2.080572e+02
1.910000e-06	2.563805e-06	3.284257e-09	1.773268e+01	2.075965e+02
1.920000e-06	2.538666e-06	3.153988e-09	1.755880e+01	2.068178e+02
1.930000e-06	2.512826e-06	3.071745e-09	1.738008e+01	2.056347e+02
1.940000e-06	2.486051e-06	3.148086e-09	1.719489e+01	2.042101e+02
1.950000e-06	2.458673e-06	3.057811e-09	1.700552e+01	2.028398e+02
1.960000e-06	2.430374e-06	3.121276e-09	1.680980e+01	2.017483e+02
1.970000e-06	2.400686e-06	3.072540e-09	1.660446e+01	2.009370e+02
1.980000e-06	2.369992e-06	2.915427e-09	1.639216e+01	2.001906e+02
1.990000e-06	2.338608e-06	3.070792e-09	1.617509e+01	1.992298e+02
2.000000e-06	2.306516e-06	3.070178e-09	1.595313e+01	1.979043e+02
2.010000e-06	2.273691e-06	2.938980e-09	1.572609e+01	1.962896e+02
2.020000e-06	2.239979e-06	3.031587e-09	1.549292e+01	1.946278e+02
2.030000e-06	2.205522e-06	2.942984e-09	1.525460e+01	1.931568e+02
2.040000e-06	2.170504e-06	2.854472e-09	1.501239e+01	1.919518e+02
2.050000e-06	2.134813e-06	2.979705e-09	1.476553e+01	1.908849e+02
2.060000e-06	2.098305e-06	2.869112e-09	1.451302e+01	1.897239e+02
2.070000e-06	2.060758e-06	2.799173e-09	1.425333e+01	1.882934e+02
2.080000e-06	2.022163e-06	2.895342e-09	1.398639e+01	1.865852e+02
2.090000e-06	1.982949e-06	2.838421e-09	1.371516e+01	1.847465e+02
2.100000e-06	1.943240e-06	2.792478e-09	1.344051e+01	1.829648e+02
2.110000e-06	1.902800e-06	2.763946e-09	1.316081e+01	1.813386e+02
2.120000e-06	1.861708e-06	2.710690e-09	1.287659e+01	1.798236e+02
2.130000e-06	1.820089e-06	2.731895e-09	1.258873e+01	1.782846e+02
2.140000e-06	1.777895e-06	2.706741e-09	1.229690e+01	1.766034e+02
2.150000e-06	1.735101e-06	2.661558e-09	1.200091e+01	1.747610e+02
2.160000e-06	1.691852e-06	2.646212e-09	1.170177e+01	1.728345e+02
2.170000e-06	1.648161e-06	2.609038e-09	1.139958e+01	1.709232e+02
2.180000e-06	1.603818e-06	2.594645e-09	1.109288e+01	1.690640e+02
2.190000e-06	1.558747e-06	2.556461e-09	1.078115e+01	1.672041e+02
2.200000e-06	1.513116e-06	2.512331e-09	1.046554e+01	1.652488e+02
2.210000e-06	1.467097e-06	2.499463e-09	1.014724e+01	1.631431e+02
2.220000e-06	1.420671e-06	2.468945e-09	9.826139e+00	1.609215e+02
2.230000e-06	1.373650e-06	2.445929e-09	9.500912e+00	1.586868e+02
2.240000e-06	1.325946e-06	2.387693e-09	9.170970e+00	1.565326e+02
2.250000e-06	1.277649e-06	2.341404e-09	8.836920e+00	1.544705e+02
2.260000e-06	1.228913e-06	2.340628e-09	8.499836e+00	1.524145e+02
2.270000e-06	1.179808e-06	2.305625e-09	8.160200e+00	1.502376e+02
2.280000e-06	1.130248e-06	2.264147e-09	7.817411e+00	1.478581e+02
2.290000e-06	1.080231e-06	2.225084e-09	7.471465e+00	1.452943e+02
2.300000e-06	1.029747e-06	2.186518e-09	7.122293e+00	1.426499e+02
2.310000e-06	9.788535e-07	2.161931e-09	6.770286e+00	1.400417e+02
2.320000e-06	9.276907e-07	2.113605e-09	6.416416e+00	1.375223e+02
2.330000e-06	8.762916e-07	2.062768e-09	6.060912e+00	1.350511e+02
2.340000e-06	8.246083e-07	2.033867e-09	5.703442e+00	1.325294e+02
2.350000e-06	7.725486e-07	1.999298e-09	5.343369e+00	1.298723e+02
2.360000e-06	7.200155e-07	1.959977e-09	4.980021e+00	1.270633e+02
2.370000e-06	6.670050e-07	1.906525e-09	4.613371e+00	1.241572e+02
2.380000e-06	6.135324e-07	1.859594e-09	4.243526e+00	1.212314e+02
2.390000e-06	5.597320e-07	1.825649e-09	3.871413e+00	1.183270e+02
2.400000e-06	5.056891e-07	1.782535e-09	3.497623e+00	1.154196e+02
2.410000e-06	4.513579e-07	1.736482e-09	3.121838e+00	1.124399e+02
2.420000e-06	3.968347e-07	1.683163e-09	2.744726e+00	1.093257e+02
2.430000e-06	3.421201e-07	1.635575e-09	2.366289e+00	1.060649e+02
2.440000e-06	2.872467e-07	1.590542e-09	1.986756e+00	1.027004e+02
2.450000e-06	2.322892e-07	1.534530e-09	1.606639e+00	9.929453e+01
2.460000e-06	1.772851e-07	1.478791e-09	1.226201e+00	9.588059e+01
2.470000e-06	1.223070e-07	1.426876e-09	8.459419e-01	9.243606e+01
2.480000e-06	6.731937e-08	1.379112e-09	4.656175e-01	8.889670e+01
2.490000e-06	1.229535e-08	1.327450e-09	8.504135e-02	8.520021e+01
2.500000e-06	-4.275534e-08	1.263014e-09	-2.957193e-01	8.132945e+01
2.510000e-06	-9.781499e-08	1.197252e-09	-6.765419e-01	7.732572e+01
2.520000e-06	-1.528444e-07	1.135507e-09	-1.057155e+00	7.326354e+01
2.530000e-06	-2.078239e-07	1.074072e-09	-1.437424e+00	6.920356e+01
2.540000e-06	-2.627221e-07	1.012730e-09	-1.817130e+00	6.515310e+01
2.550000e-06	-3.174945e-07	9.495540e-10	-2.195966e+00	6.105842e+01
2.560000e-06	-3.721654e-07	8.890825e-10	-2.574100e+00	5.683205e+01
2.570000e-06	-4.267287e-07	8.247953e-10	-2.951489e+00	5.239780e+01
2.580000e-06	-4.811372e-07	7.506934e-10	-3.327808e+00	4.772690e+01
2.590000e-06	-5.352972e-07	6.729126e-10	-3.702408e+00	4.284578e+01
2.600000e-06	-5.891097e-07	5.939360e-10	-4.074605e+00	3.781336e+01
2.610000e-06	-6.425472e-07	5.166754e-10	-4.444208e+00	3.268305e+01
2.620000e-06	-6.956008e-07	4.383141e-10	-4.811156e+00	2.747146e+01
2.630000e-06	-7.482161e-07	3.569033e-10	-5.175072e+00	2.214968e+01
2.640000e-06	-8.003917e-07	2.727868e-10	-5.535947e+00	1.665888e+01
2.650000e-06	-8.521585e-07	1.875416e-10	-5.893994e+00	1.093827e+01
2.660000e-06	-9.036127e-07	9.929547e-11	-6.249880e+00	4.948643e+00
2.670000e-06	-9.548095e-07	2.712041e-12	-6.603985e+00	-1.320393e+00
2.680000e-06	-1.005686e-06	-1.006731e-10	-6.955878e+00	-7.859471e+00
2.690000e-06	-1.056186e-06	-2.052180e-10	-7.305160e+00	-1.465522e+01
2.700000e-06	-1.106232e-06	-3.107705e-10	-7.651307e+00	-2.170052e+01
2.710000e-06	-1.155872e-06	-4.225277e-10	-7.994640e+00	-2.899299e+01
2.720000e-06	-1.205093e-06	-5.391924e-10	-8.335085e+00	-3.652508e+01
2.730000e-06	-1.253852e-06	-6.578283e-10	-8.672323e+00	-4.427458e+01
2.740000e-06	-1.302021e-06	-7.755463e-10	-9.005491e+00	-5.220316e+01
2.750000e-06	-1.349362e-06	-8.967716e-10	-9.332927e+00	-6.026273e+01
2.760000e-06	-1.396000e-06	-1.024568e-09	-9.655499e+00	-6.840271e+01
2.770000e-06	-1.442074e-06	-1.152195e-09	-9.974171e+00	-7.657036e+01
2.780000e-06	-1.487703e-06	-1.276780e-09	-1.028977e+01	-8.470319e+01
2.790000e-06	-1.533078e-06	-1.398451e-09	-1.060360e+01	-9.272103e+01
2.800000e-06	-1.578103e-06	-1.516579e-09	-1.091502e+01	-1.005283e+02
2.810000e-06	-1.622538e-06	-1.632597e-09	-1.122236e+01	-1.080313e+02
2.820000e-06	-1.666327e-06	-1.744305e-09	-1.152523e+01	-1.151633e+02
2.830000e-06	-1.709682e-06	-1.848633e-09	-1.182510e+01	-1.219021e+02
2.840000e-06	-1.752682e-06	-1.948074e-09	-1.212251e+01	-1.282677e+02
2.850000e-06	-1.795132e-06	-2.042469e-09	-1.241611e+01	-1.342987e+02
2.860000e-06	-1.836885e-06	-2.129879e-09	-1.270490e+01	-1.400224e+02
2.870000e-06	-1.878057e-06	-2.209443e-09	-1.298967e+01	-1.454387e+02
2.880000e-06	-1.918667e-06	-2.284751e-09	-1.327055e+01	-1.505274e+02
2.890000e-06	-1.958601e-06	-2.358348e-09	-1.354676e+01	-1.552730e+02
2.900000e-06	-1.997920e-06	-2.428194e-09	-1.381871e+01	-1.596878e+02
2.910000e-06	-2.036682e-06	-2.494143e-09	-1.408681e+01	-1.638136e+02
2.920000e-06	-2.074623e-06	-2.556158e-09	-1.434923e+01	-1.677004e+02
2.930000e-06	-2.111480e-06	-2.615117e-09	-1.460415e+01	-1.713759e+02
2.940000e-06	-2.147346e-06	-2.670028e-09	-1.485222e+01	-1.748309e+02
