# Temperatura_=_22.68
# Concentracion g/m^3_=_15500.0
# C_Vs_to_Am_M_A/Vsm_=_65563218390.804596
# pendiente_HvsI_1/m_=_3716.3
# ordenada_HvsI_A/m_=_1297.0
# frecuencia_Hz_=_300993.5125460518

Tiempo_(s)	Campo_(V.s)	Magnetizacion_(V.s)	Campo_(kA/m)	Magnetizacion_(A/m)
0.000000e+00	-2.857037e-06	-3.270232e-09	-1.978128e+01	-2.134828e+02
1.000000e-08	-2.856193e-06	-3.270699e-09	-1.977543e+01	-2.134720e+02
2.000000e-08	-2.854314e-06	-3.268191e-09	-1.976242e+01	-2.133813e+02
3.000000e-08	-2.851189e-06	-3.266197e-09	-1.974079e+01	-2.131685e+02
4.000000e-08	-2.847078e-06	-3.264169e-09	-1.971232e+01	-2.128594e+02
5.000000e-08	-2.842182e-06	-3.259793e-09	-1.967843e+01	-2.125407e+02
6.000000e-08	-2.836413e-06	-3.251758e-09	-1.963848e+01	-2.122991e+02
7.000000e-08	-2.829685e-06	-3.251033e-09	-1.959190e+01	-2.121488e+02
8.000000e-08	-2.821952e-06	-3.295669e-09	-1.953836e+01	-2.120035e+02
9.000000e-08	-2.813002e-06	-3.311089e-09	-1.947639e+01	-2.117228e+02
1.000000e-07	-2.802494e-06	-3.229325e-09	-1.940363e+01	-2.112087e+02
1.100000e-07	-2.790778e-06	-3.099102e-09	-1.932252e+01	-2.104862e+02
1.200000e-07	-2.778395e-06	-3.208229e-09	-1.923678e+01	-2.097045e+02
1.300000e-07	-2.765178e-06	-3.328932e-09	-1.914527e+01	-2.090472e+02
1.400000e-07	-2.750936e-06	-3.166323e-09	-1.904666e+01	-2.086054e+02
1.500000e-07	-2.735757e-06	-3.103180e-09	-1.894157e+01	-2.083012e+02
1.600000e-07	-2.719388e-06	-3.314033e-09	-1.882823e+01	-2.079212e+02
1.700000e-07	-2.701686e-06	-3.244770e-09	-1.870567e+01	-2.072498e+02
1.800000e-07	-2.683123e-06	-2.996748e-09	-1.857715e+01	-2.062160e+02
1.900000e-07	-2.663882e-06	-3.191759e-09	-1.844393e+01	-2.049564e+02
2.000000e-07	-2.643705e-06	-3.224044e-09	-1.830423e+01	-2.037431e+02
2.100000e-07	-2.622601e-06	-2.967466e-09	-1.815811e+01	-2.028184e+02
2.200000e-07	-2.600764e-06	-3.106004e-09	-1.800692e+01	-2.022408e+02
2.300000e-07	-2.578015e-06	-3.269455e-09	-1.784941e+01	-2.018446e+02
2.400000e-07	-2.554288e-06	-3.051397e-09	-1.768513e+01	-2.013423e+02
2.500000e-07	-2.529835e-06	-3.012906e-09	-1.751583e+01	-2.005046e+02
2.600000e-07	-2.504503e-06	-3.083893e-09	-1.734044e+01	-1.993004e+02
2.700000e-07	-2.478013e-06	-3.013923e-09	-1.715703e+01	-1.979069e+02
2.800000e-07	-2.450467e-06	-3.019157e-09	-1.696630e+01	-1.965848e+02
2.900000e-07	-2.422022e-06	-3.022012e-09	-1.676936e+01	-1.955054e+02
3.000000e-07	-2.392708e-06	-2.953951e-09	-1.656640e+01	-1.946433e+02
3.100000e-07	-2.362709e-06	-2.995528e-09	-1.635869e+01	-1.938044e+02
3.200000e-07	-2.332024e-06	-2.994507e-09	-1.614624e+01	-1.927653e+02
3.300000e-07	-2.300486e-06	-2.881994e-09	-1.592788e+01	-1.914261e+02
3.400000e-07	-2.268259e-06	-2.905536e-09	-1.570475e+01	-1.898749e+02
3.500000e-07	-2.235448e-06	-2.874318e-09	-1.547758e+01	-1.883229e+02
3.600000e-07	-2.201688e-06	-2.840574e-09	-1.524383e+01	-1.869594e+02
3.700000e-07	-2.166742e-06	-2.897315e-09	-1.500188e+01	-1.858257e+02
3.800000e-07	-2.130913e-06	-2.832201e-09	-1.475381e+01	-1.847918e+02
3.900000e-07	-2.094518e-06	-2.763917e-09	-1.450182e+01	-1.836455e+02
4.000000e-07	-2.057474e-06	-2.819880e-09	-1.424534e+01	-1.822317e+02
4.100000e-07	-2.019618e-06	-2.789040e-09	-1.398324e+01	-1.805468e+02
4.200000e-07	-1.980990e-06	-2.688879e-09	-1.371578e+01	-1.787312e+02
4.300000e-07	-1.941603e-06	-2.691553e-09	-1.344308e+01	-1.769709e+02
4.400000e-07	-1.901599e-06	-2.691053e-09	-1.316611e+01	-1.753784e+02
4.500000e-07	-1.861215e-06	-2.667959e-09	-1.288650e+01	-1.739299e+02
4.600000e-07	-1.820397e-06	-2.641504e-09	-1.260389e+01	-1.724945e+02
4.700000e-07	-1.778775e-06	-2.605752e-09	-1.231571e+01	-1.709257e+02
4.800000e-07	-1.736051e-06	-2.567874e-09	-1.201990e+01	-1.691531e+02
4.900000e-07	-1.692430e-06	-2.554892e-09	-1.171788e+01	-1.672147e+02
5.000000e-07	-1.648283e-06	-2.531362e-09	-1.141222e+01	-1.652190e+02
5.100000e-07	-1.603729e-06	-2.479146e-09	-1.110374e+01	-1.632685e+02
5.200000e-07	-1.558644e-06	-2.454473e-09	-1.079159e+01	-1.613992e+02
5.300000e-07	-1.512968e-06	-2.440033e-09	-1.047534e+01	-1.595699e+02
5.400000e-07	-1.466773e-06	-2.419200e-09	-1.015550e+01	-1.577003e+02
5.500000e-07	-1.420083e-06	-2.372275e-09	-9.832233e+00	-1.557253e+02
5.600000e-07	-1.372813e-06	-2.327747e-09	-9.504947e+00	-1.536290e+02
5.700000e-07	-1.325061e-06	-2.301347e-09	-9.174326e+00	-1.514412e+02
5.800000e-07	-1.276974e-06	-2.287240e-09	-8.841389e+00	-1.492081e+02
5.900000e-07	-1.228544e-06	-2.245484e-09	-8.506072e+00	-1.469596e+02
6.000000e-07	-1.179668e-06	-2.191380e-09	-8.167674e+00	-1.446973e+02
6.100000e-07	-1.130168e-06	-2.159280e-09	-7.824951e+00	-1.424034e+02
6.200000e-07	-1.079991e-06	-2.128859e-09	-7.477534e+00	-1.400601e+02
6.300000e-07	-1.029184e-06	-2.096558e-09	-7.125764e+00	-1.376620e+02
6.400000e-07	-9.778187e-07	-2.049697e-09	-6.770126e+00	-1.352154e+02
6.500000e-07	-9.259756e-07	-2.007574e-09	-6.411180e+00	-1.327269e+02
6.600000e-07	-8.738124e-07	-1.976445e-09	-6.050018e+00	-1.301939e+02
6.700000e-07	-8.214293e-07	-1.947278e-09	-5.687333e+00	-1.276034e+02
6.800000e-07	-7.687777e-07	-1.900054e-09	-5.322788e+00	-1.249400e+02
6.900000e-07	-7.157904e-07	-1.846220e-09	-4.955920e+00	-1.221958e+02
7.000000e-07	-6.624873e-07	-1.806028e-09	-4.586865e+00	-1.193759e+02
7.100000e-07	-6.089260e-07	-1.769889e-09	-4.216023e+00	-1.164942e+02
7.200000e-07	-5.551821e-07	-1.726781e-09	-3.843916e+00	-1.135654e+02
7.300000e-07	-5.013240e-07	-1.672967e-09	-3.471018e+00	-1.105964e+02
7.400000e-07	-4.472749e-07	-1.624274e-09	-3.096798e+00	-1.075829e+02
7.500000e-07	-3.930472e-07	-1.579469e-09	-2.721342e+00	-1.045118e+02
7.600000e-07	-3.387492e-07	-1.531987e-09	-2.345399e+00	-1.013680e+02
7.700000e-07	-2.843705e-07	-1.473948e-09	-1.968897e+00	-9.814121e+01
7.800000e-07	-2.299106e-07	-1.419961e-09	-1.591832e+00	-9.482919e+01
7.900000e-07	-1.753999e-07	-1.375068e-09	-1.214416e+00	-9.143680e+01
8.000000e-07	-1.208579e-07	-1.326363e-09	-8.367842e-01	-8.797040e+01
8.100000e-07	-6.631064e-08	-1.270712e-09	-4.591152e-01	-8.443168e+01
8.200000e-07	-1.172640e-08	-1.209325e-09	-8.119008e-02	-8.081494e+01
8.300000e-07	4.287780e-08	-1.152403e-09	2.968731e-01	-7.711040e+01
8.400000e-07	9.744845e-08	-1.095900e-09	6.747041e-01	-7.331229e+01
8.500000e-07	1.519939e-07	-1.037917e-09	1.052361e+00	-6.942598e+01
8.600000e-07	2.065258e-07	-9.748356e-10	1.429923e+00	-6.546748e+01
8.700000e-07	2.610115e-07	-9.138035e-10	1.807166e+00	-6.145236e+01
8.800000e-07	3.154098e-07	-8.563665e-10	2.183804e+00	-5.737936e+01
8.900000e-07	3.697340e-07	-7.935138e-10	2.559929e+00	-5.321955e+01
9.000000e-07	4.239737e-07	-7.237606e-10	2.935468e+00	-4.892168e+01
9.100000e-07	4.780928e-07	-6.524845e-10	3.310172e+00	-4.443482e+01
9.200000e-07	5.320628e-07	-5.845697e-10	3.683845e+00	-3.973707e+01
9.300000e-07	5.858064e-07	-5.113743e-10	4.055950e+00	-3.485202e+01
9.400000e-07	6.392663e-07	-4.339638e-10	4.426090e+00	-2.983912e+01
9.500000e-07	6.924435e-07	-3.541444e-10	4.794273e+00	-2.475938e+01
9.600000e-07	7.453628e-07	-2.773498e-10	5.160670e+00	-1.963485e+01
9.700000e-07	7.980232e-07	-2.007759e-10	5.525275e+00	-1.442661e+01
9.800000e-07	8.504063e-07	-1.172641e-10	5.887961e+00	-9.047014e+00
9.900000e-07	9.025411e-07	-2.757256e-11	6.248927e+00	-3.401488e+00
1.000000e-06	9.543499e-07	6.436627e-11	6.607635e+00	2.563978e+00
1.010000e-06	1.005683e-06	1.573196e-10	6.963049e+00	8.837767e+00
1.020000e-06	1.056404e-06	2.556832e-10	7.314228e+00	1.535491e+01
1.030000e-06	1.106449e-06	3.577941e-10	7.660725e+00	2.203849e+01
1.040000e-06	1.155845e-06	4.647617e-10	8.002730e+00	2.884400e+01
1.050000e-06	1.204701e-06	5.720049e-10	8.340995e+00	3.577936e+01
1.060000e-06	1.253219e-06	6.799763e-10	8.676915e+00	4.288923e+01
1.070000e-06	1.301460e-06	7.910584e-10	9.010925e+00	5.021480e+01
1.080000e-06	1.349353e-06	9.070806e-10	9.342519e+00	5.775454e+01
1.090000e-06	1.396778e-06	1.024044e-09	9.670878e+00	6.544889e+01
1.100000e-06	1.443656e-06	1.139530e-09	9.995446e+00	7.319587e+01
1.110000e-06	1.489987e-06	1.257612e-09	1.031623e+01	8.088523e+01
1.120000e-06	1.535787e-06	1.374910e-09	1.063333e+01	8.842991e+01
1.130000e-06	1.581099e-06	1.486295e-09	1.094706e+01	9.577851e+01
1.140000e-06	1.625966e-06	1.589648e-09	1.125770e+01	1.029067e+02
1.150000e-06	1.670397e-06	1.690435e-09	1.156534e+01	1.097986e+02
1.160000e-06	1.714448e-06	1.791299e-09	1.187033e+01	1.164330e+02
1.170000e-06	1.757917e-06	1.890231e-09	1.217129e+01	1.227823e+02
1.180000e-06	1.800452e-06	1.983013e-09	1.246580e+01	1.288223e+02
1.190000e-06	1.841992e-06	2.068902e-09	1.275341e+01	1.345427e+02
1.200000e-06	1.882790e-06	2.150891e-09	1.303588e+01	1.399496e+02
1.210000e-06	1.923109e-06	2.228053e-09	1.331504e+01	1.450586e+02
1.220000e-06	1.962829e-06	2.299234e-09	1.359005e+01	1.498835e+02
1.230000e-06	2.001889e-06	2.364433e-09	1.386048e+01	1.544292e+02
1.240000e-06	2.040309e-06	2.427554e-09	1.412650e+01	1.586932e+02
1.250000e-06	2.077953e-06	2.489950e-09	1.438713e+01	1.626742e+02
1.260000e-06	2.114879e-06	2.547262e-09	1.464279e+01	1.663814e+02
1.270000e-06	2.151298e-06	2.598354e-09	1.489495e+01	1.698377e+02
1.280000e-06	2.187128e-06	2.644801e-09	1.514302e+01	1.730745e+02
1.290000e-06	2.222012e-06	2.688134e-09	1.538455e+01	1.761208e+02
1.300000e-06	2.255770e-06	2.728361e-09	1.561828e+01	1.789925e+02
1.310000e-06	2.288625e-06	2.765300e-09	1.584576e+01	1.816899e+02
1.320000e-06	2.320826e-06	2.799521e-09	1.606871e+01	1.842037e+02
1.330000e-06	2.352296e-06	2.834640e-09	1.628660e+01	1.865269e+02
1.340000e-06	2.382958e-06	2.868502e-09	1.649889e+01	1.886666e+02
1.350000e-06	2.412822e-06	2.898741e-09	1.670567e+01	1.906466e+02
1.360000e-06	2.441884e-06	2.925711e-09	1.690688e+01	1.925002e+02
1.370000e-06	2.470315e-06	2.950701e-09	1.710373e+01	1.942565e+02
1.380000e-06	2.497964e-06	2.974531e-09	1.729516e+01	1.959286e+02
1.390000e-06	2.524377e-06	2.995894e-09	1.747804e+01	1.975113e+02
1.400000e-06	2.549587e-06	3.016241e-09	1.765259e+01	1.989920e+02
1.410000e-06	2.573914e-06	3.037550e-09	1.782102e+01	2.003654e+02
1.420000e-06	2.597390e-06	3.058611e-09	1.798356e+01	2.016433e+02
1.430000e-06	2.620004e-06	3.077079e-09	1.814013e+01	2.028507e+02
1.440000e-06	2.641774e-06	3.093668e-09	1.829086e+01	2.040095e+02
1.450000e-06	2.662713e-06	3.110029e-09	1.843583e+01	2.051213e+02
1.460000e-06	2.682923e-06	3.125662e-09	1.857576e+01	2.061633e+02
1.470000e-06	2.702233e-06	3.139291e-09	1.870946e+01	2.071030e+02
1.480000e-06	2.720464e-06	3.151533e-09	1.883568e+01	2.079232e+02
1.490000e-06	2.737657e-06	3.163112e-09	1.895472e+01	2.086408e+02
1.500000e-06	2.753838e-06	3.174981e-09	1.906676e+01	2.093021e+02
1.510000e-06	2.768998e-06	3.186327e-09	1.917172e+01	2.099573e+02
1.520000e-06	2.783134e-06	3.195960e-09	1.926959e+01	2.106274e+02
1.530000e-06	2.796267e-06	3.205620e-09	1.936052e+01	2.112894e+02
1.540000e-06	2.808398e-06	3.215290e-09	1.944452e+01	2.118909e+02
1.550000e-06	2.819289e-06	3.223006e-09	1.951992e+01	2.123867e+02
1.560000e-06	2.828799e-06	3.228182e-09	1.958577e+01	2.127716e+02
1.570000e-06	2.837309e-06	3.233324e-09	1.964468e+01	2.130857e+02
1.580000e-06	2.844955e-06	3.240864e-09	1.969763e+01	2.133863e+02
1.590000e-06	2.851648e-06	3.248953e-09	1.974396e+01	2.137061e+02
1.600000e-06	2.857342e-06	3.253897e-09	1.978339e+01	2.140281e+02
1.610000e-06	2.862121e-06	3.254639e-09	1.981648e+01	2.142975e+02
1.620000e-06	2.866092e-06	3.256147e-09	1.984397e+01	2.144636e+02
1.630000e-06	2.868922e-06	3.261458e-09	1.986357e+01	2.145187e+02
1.640000e-06	2.870490e-06	3.265963e-09	1.987442e+01	2.145059e+02
1.650000e-06	2.871079e-06	3.268121e-09	1.987850e+01	2.144856e+02
1.660000e-06	2.870759e-06	3.268277e-09	1.987629e+01	2.144867e+02
1.670000e-06	2.869501e-06	3.265214e-09	1.986757e+01	2.144805e+02
1.680000e-06	2.867388e-06	3.263067e-09	1.985295e+01	2.144014e+02
1.690000e-06	2.864460e-06	3.258839e-09	1.983267e+01	2.142018e+02
1.700000e-06	2.860773e-06	3.253643e-09	1.980714e+01	2.138997e+02
1.710000e-06	2.856090e-06	3.254372e-09	1.977472e+01	2.135773e+02
1.720000e-06	2.850193e-06	3.264237e-09	1.973389e+01	2.133250e+02
1.730000e-06	2.843309e-06	3.253631e-09	1.968623e+01	2.131674e+02
1.740000e-06	2.835542e-06	3.177152e-09	1.963245e+01	2.130281e+02
1.750000e-06	2.826467e-06	3.174565e-09	1.956962e+01	2.127683e+02
1.760000e-06	2.815775e-06	3.293165e-09	1.949559e+01	2.122807e+02
1.770000e-06	2.804072e-06	3.316089e-09	1.941456e+01	2.115751e+02
1.780000e-06	2.792242e-06	3.171268e-09	1.933265e+01	2.107906e+02
1.790000e-06	2.779798e-06	3.122151e-09	1.924649e+01	2.101131e+02
1.800000e-06	2.765626e-06	3.312782e-09	1.914837e+01	2.096489e+02
1.810000e-06	2.750199e-06	3.171778e-09	1.904156e+01	2.093386e+02
1.820000e-06	2.734319e-06	3.002832e-09	1.893161e+01	2.089785e+02
1.830000e-06	2.717364e-06	3.249159e-09	1.881422e+01	2.083452e+02
1.840000e-06	2.698964e-06	3.271576e-09	1.868683e+01	2.073474e+02
1.850000e-06	2.679858e-06	2.992027e-09	1.855454e+01	2.061002e+02
1.860000e-06	2.660086e-06	3.108143e-09	1.841764e+01	2.048683e+02
1.870000e-06	2.639037e-06	3.285737e-09	1.827191e+01	2.039059e+02
1.880000e-06	2.616962e-06	2.967755e-09	1.811906e+01	2.032955e+02
1.890000e-06	2.594027e-06	2.940376e-09	1.796028e+01	2.028929e+02
1.900000e-06	2.570004e-06	3.203614e-09	1.779395e+01	2.024156e+02
1.910000e-06	2.545219e-06	3.069470e-09	1.762234e+01	2.016195e+02
1.920000e-06	2.519688e-06	2.996736e-09	1.744558e+01	2.004491e+02
1.930000e-06	2.493155e-06	3.086318e-09	1.726187e+01	1.990635e+02
1.940000e-06	2.465940e-06	2.962237e-09	1.707343e+01	1.977228e+02
1.950000e-06	2.437984e-06	3.009676e-09	1.687988e+01	1.966149e+02
1.960000e-06	2.408768e-06	3.024473e-09	1.667759e+01	1.957368e+02
1.970000e-06	2.378458e-06	2.866737e-09	1.646774e+01	1.949071e+02
1.980000e-06	2.347368e-06	2.956814e-09	1.625248e+01	1.938974e+02
1.990000e-06	2.315549e-06	2.993755e-09	1.603217e+01	1.925895e+02
2.000000e-06	2.283010e-06	2.860785e-09	1.580688e+01	1.910520e+02
2.010000e-06	2.249609e-06	2.921086e-09	1.557562e+01	1.894894e+02
2.020000e-06	2.215410e-06	2.872215e-09	1.533884e+01	1.881005e+02
2.030000e-06	2.180626e-06	2.775121e-09	1.509801e+01	1.869459e+02
2.040000e-06	2.145170e-06	2.881269e-09	1.485252e+01	1.859112e+02
2.050000e-06	2.109013e-06	2.808966e-09	1.460218e+01	1.847866e+02
2.060000e-06	2.072021e-06	2.720446e-09	1.434606e+01	1.834046e+02
2.070000e-06	2.033871e-06	2.792969e-09	1.408192e+01	1.817441e+02
2.080000e-06	1.994880e-06	2.760195e-09	1.381196e+01	1.799334e+02
2.090000e-06	1.955344e-06	2.710980e-09	1.353822e+01	1.781597e+02
2.100000e-06	1.915143e-06	2.690005e-09	1.325988e+01	1.765479e+02
2.110000e-06	1.874315e-06	2.638291e-09	1.297720e+01	1.750891e+02
2.120000e-06	1.832920e-06	2.642812e-09	1.269059e+01	1.736599e+02
2.130000e-06	1.790964e-06	2.628854e-09	1.240010e+01	1.721108e+02
2.140000e-06	1.748387e-06	2.591092e-09	1.210531e+01	1.703600e+02
2.150000e-06	1.705241e-06	2.570945e-09	1.180658e+01	1.684350e+02
2.160000e-06	1.661662e-06	2.534442e-09	1.150485e+01	1.664398e+02
2.170000e-06	1.617513e-06	2.522207e-09	1.119918e+01	1.644814e+02
2.180000e-06	1.572728e-06	2.480425e-09	1.088910e+01	1.626042e+02
2.190000e-06	1.527333e-06	2.438269e-09	1.057480e+01	1.607743e+02
2.200000e-06	1.481321e-06	2.422747e-09	1.025623e+01	1.589128e+02
2.210000e-06	1.434929e-06	2.396015e-09	9.935024e+00	1.569509e+02
2.220000e-06	1.388147e-06	2.382211e-09	9.611118e+00	1.548668e+02
2.230000e-06	1.340840e-06	2.332386e-09	9.283576e+00	1.526868e+02
2.240000e-06	1.292976e-06	2.280691e-09	8.952184e+00	1.504566e+02
2.250000e-06	1.244444e-06	2.268645e-09	8.616162e+00	1.482092e+02
2.260000e-06	1.195453e-06	2.235813e-09	8.276960e+00	1.459491e+02
2.270000e-06	1.146105e-06	2.195089e-09	7.935292e+00	1.436597e+02
2.280000e-06	1.096309e-06	2.161964e-09	7.590517e+00	1.413223e+02
2.290000e-06	1.046087e-06	2.123215e-09	7.242799e+00	1.389300e+02
2.300000e-06	9.954640e-07	2.099511e-09	6.892297e+00	1.364882e+02
2.310000e-06	9.444977e-07	2.058942e-09	6.539422e+00	1.340042e+02
2.320000e-06	8.932375e-07	2.007532e-09	6.184511e+00	1.314765e+02
2.330000e-06	8.417285e-07	1.972005e-09	5.827878e+00	1.288930e+02
2.340000e-06	7.899497e-07	1.936695e-09	5.469377e+00	1.262380e+02
2.350000e-06	7.377576e-07	1.902777e-09	5.108014e+00	1.235026e+02
2.360000e-06	6.851349e-07	1.851437e-09	4.743671e+00	1.206902e+02
2.370000e-06	6.320886e-07	1.802375e-09	4.376394e+00	1.178144e+02
2.380000e-06	5.786917e-07	1.765321e-09	4.006690e+00	1.148902e+02
2.390000e-06	5.249374e-07	1.722907e-09	3.634511e+00	1.119256e+02
2.400000e-06	4.707674e-07	1.677144e-09	3.259454e+00	1.089175e+02
2.410000e-06	4.163431e-07	1.626399e-09	2.882636e+00	1.058534e+02
2.420000e-06	3.617589e-07	1.582022e-09	2.504711e+00	1.027181e+02
2.430000e-06	3.070257e-07	1.540211e-09	2.125755e+00	9.950045e+01
2.440000e-06	2.521557e-07	1.488238e-09	1.745851e+00	9.619748e+01
2.450000e-06	1.971785e-07	1.431008e-09	1.365205e+00	9.281344e+01
2.460000e-06	1.421431e-07	1.376010e-09	9.841565e-01	8.935482e+01
2.470000e-06	8.709993e-08	1.324164e-09	6.030540e-01	8.582406e+01
2.480000e-06	3.204118e-08	1.273568e-09	2.218436e-01	8.221619e+01
2.490000e-06	-2.305351e-08	1.216377e-09	-1.596157e-01	7.852155e+01
2.500000e-06	-7.813065e-08	1.157256e-09	-5.409534e-01	7.473349e+01
2.510000e-06	-1.331989e-07	1.100224e-09	-9.222300e-01	7.085606e+01
2.520000e-06	-1.882507e-07	1.040511e-09	-1.303392e+00	6.690447e+01
2.530000e-06	-2.432296e-07	9.782625e-10	-1.684050e+00	6.289511e+01
2.540000e-06	-2.981106e-07	9.130460e-10	-2.064030e+00	5.882924e+01
2.550000e-06	-3.528327e-07	8.517390e-10	-2.442909e+00	5.468099e+01
2.560000e-06	-4.073447e-07	7.894483e-10	-2.820334e+00	5.040067e+01
2.570000e-06	-4.616387e-07	7.209801e-10	-3.196249e+00	4.593589e+01
2.580000e-06	-5.156662e-07	6.494066e-10	-3.570320e+00	4.126049e+01
2.590000e-06	-5.693394e-07	5.764430e-10	-3.941937e+00	3.639315e+01
2.600000e-06	-6.226640e-07	5.001966e-10	-4.311141e+00	3.139075e+01
2.610000e-06	-6.756650e-07	4.214123e-10	-4.678104e+00	2.631620e+01
2.620000e-06	-7.282675e-07	3.427559e-10	-5.042308e+00	2.119730e+01
2.630000e-06	-7.804455e-07	2.634786e-10	-5.403573e+00	1.600169e+01
2.640000e-06	-8.322581e-07	1.835215e-10	-5.762308e+00	1.064535e+01
2.650000e-06	-8.837861e-07	9.833178e-11	-6.119073e+00	5.032003e+00
2.660000e-06	-9.350645e-07	7.623411e-12	-6.474109e+00	-8.984866e-01
2.670000e-06	-9.860502e-07	-8.787498e-11	-6.827119e+00	-7.141624e+00
2.680000e-06	-1.036691e-06	-1.859955e-10	-7.177743e+00	-1.363651e+01
2.690000e-06	-1.086915e-06	-2.868715e-10	-7.525478e+00	-2.030519e+01
2.700000e-06	-1.136665e-06	-3.916189e-10	-7.869933e+00	-2.709811e+01
2.710000e-06	-1.185992e-06	-4.983875e-10	-8.211460e+00	-3.401772e+01
2.720000e-06	-1.234872e-06	-6.059132e-10	-8.549884e+00	-4.110642e+01
2.730000e-06	-1.283114e-06	-7.142118e-10	-8.883898e+00	-4.840790e+01
2.740000e-06	-1.330657e-06	-8.276576e-10	-9.213074e+00	-5.592648e+01
2.750000e-06	-1.377481e-06	-9.463278e-10	-9.537269e+00	-6.360859e+01
2.760000e-06	-1.423745e-06	-1.065122e-09	-9.857588e+00	-7.135531e+01
2.770000e-06	-1.469647e-06	-1.180331e-09	-1.017540e+01	-7.905554e+01
2.780000e-06	-1.515160e-06	-1.294701e-09	-1.049052e+01	-8.661873e+01
2.790000e-06	-1.560244e-06	-1.409947e-09	-1.080267e+01	-9.398978e+01
2.800000e-06	-1.604778e-06	-1.522585e-09	-1.111101e+01	-1.011423e+02
2.810000e-06	-1.648718e-06	-1.629297e-09	-1.141524e+01	-1.080603e+02
2.820000e-06	-1.692216e-06	-1.730892e-09	-1.171640e+01	-1.147235e+02
2.830000e-06	-1.735322e-06	-1.829679e-09	-1.201485e+01	-1.211046e+02
2.840000e-06	-1.777888e-06	-1.923948e-09	-1.230957e+01	-1.271784e+02
2.850000e-06	-1.819830e-06	-2.011839e-09	-1.259996e+01	-1.329330e+02
2.860000e-06	-1.861186e-06	-2.092691e-09	-1.288630e+01	-1.383728e+02
2.870000e-06	-1.901951e-06	-2.170219e-09	-1.316854e+01	-1.435129e+02
2.880000e-06	-1.942033e-06	-2.248195e-09	-1.344606e+01	-1.483678e+02
2.890000e-06	-1.981542e-06	-2.323704e-09	-1.371961e+01	-1.529434e+02
2.900000e-06	-2.020522e-06	-2.392471e-09	-1.398949e+01	-1.572376e+02
2.910000e-06	-2.058683e-06	-2.453856e-09	-1.425371e+01	-1.612487e+02
2.920000e-06	-2.095830e-06	-2.510385e-09	-1.451091e+01	-1.649842e+02
2.930000e-06	-2.132011e-06	-2.564554e-09	-1.476141e+01	-1.684659e+02
2.940000e-06	-2.167482e-06	-2.616055e-09	-1.500700e+01	-1.717247e+02
