# Temperatura_=_21.4
# Concentracion g/m^3_=_15500.0
# C_Vs_to_Am_M_A/Vsm_=_65563218390.804596
# pendiente_HvsI_1/m_=_3716.3
# ordenada_HvsI_A/m_=_1297.0
# frecuencia_Hz_=_300995.07443915354

Tiempo_(s)	Campo_(V.s)	Magnetizacion_(V.s)	Campo_(kA/m)	Magnetizacion_(A/m)
0.000000e+00	-2.859123e-06	-3.230221e-09	-1.978197e+01	-2.112809e+02
1.000000e-08	-2.858217e-06	-3.228741e-09	-1.977570e+01	-2.112028e+02
2.000000e-08	-2.856393e-06	-3.226158e-09	-1.976308e+01	-2.111205e+02
3.000000e-08	-2.853353e-06	-3.223808e-09	-1.974205e+01	-2.109844e+02
4.000000e-08	-2.849251e-06	-3.221272e-09	-1.971367e+01	-2.107582e+02
5.000000e-08	-2.844344e-06	-3.217444e-09	-1.967972e+01	-2.104680e+02
6.000000e-08	-2.838587e-06	-3.213343e-09	-1.963989e+01	-2.101935e+02
7.000000e-08	-2.831831e-06	-3.217867e-09	-1.959314e+01	-2.100007e+02
8.000000e-08	-2.824045e-06	-3.239638e-09	-1.953927e+01	-2.098661e+02
9.000000e-08	-2.815074e-06	-3.244856e-09	-1.947720e+01	-2.096619e+02
1.000000e-07	-2.804702e-06	-3.195685e-09	-1.940544e+01	-2.092317e+02
1.100000e-07	-2.793133e-06	-3.142513e-09	-1.932539e+01	-2.085143e+02
1.200000e-07	-2.780744e-06	-3.163328e-09	-1.923967e+01	-2.076261e+02
1.300000e-07	-2.767520e-06	-3.198430e-09	-1.914818e+01	-2.068279e+02
1.400000e-07	-2.753313e-06	-3.134942e-09	-1.904988e+01	-2.063782e+02
1.500000e-07	-2.738087e-06	-3.160096e-09	-1.894453e+01	-2.063600e+02
1.600000e-07	-2.721608e-06	-3.226948e-09	-1.883052e+01	-2.066001e+02
1.700000e-07	-2.703823e-06	-3.171710e-09	-1.870746e+01	-2.067478e+02
1.800000e-07	-2.685166e-06	-3.128742e-09	-1.857838e+01	-2.064738e+02
1.900000e-07	-2.665874e-06	-3.158075e-09	-1.844490e+01	-2.056676e+02
2.000000e-07	-2.645735e-06	-3.123081e-09	-1.830556e+01	-2.045009e+02
2.100000e-07	-2.624639e-06	-3.048766e-09	-1.815960e+01	-2.033160e+02
2.200000e-07	-2.602691e-06	-3.112356e-09	-1.800774e+01	-2.024061e+02
2.300000e-07	-2.579869e-06	-3.151713e-09	-1.784984e+01	-2.018336e+02
2.400000e-07	-2.556126e-06	-3.088149e-09	-1.768557e+01	-2.014032e+02
2.500000e-07	-2.531619e-06	-3.056682e-09	-1.751600e+01	-2.008026e+02
2.600000e-07	-2.506259e-06	-3.040187e-09	-1.734054e+01	-1.998148e+02
2.700000e-07	-2.479779e-06	-3.007025e-09	-1.715733e+01	-1.984570e+02
2.800000e-07	-2.452202e-06	-3.018500e-09	-1.696653e+01	-1.969601e+02
2.900000e-07	-2.423684e-06	-2.983585e-09	-1.676921e+01	-1.956082e+02
3.000000e-07	-2.394318e-06	-2.954379e-09	-1.656604e+01	-1.945523e+02
3.100000e-07	-2.364252e-06	-2.983487e-09	-1.635801e+01	-1.937225e+02
3.200000e-07	-2.333516e-06	-2.973149e-09	-1.614535e+01	-1.928894e+02
3.300000e-07	-2.302008e-06	-2.925774e-09	-1.592735e+01	-1.918233e+02
3.400000e-07	-2.269772e-06	-2.887111e-09	-1.570432e+01	-1.904394e+02
3.500000e-07	-2.236882e-06	-2.869495e-09	-1.547675e+01	-1.888345e+02
3.600000e-07	-2.203156e-06	-2.866112e-09	-1.524341e+01	-1.872033e+02
3.700000e-07	-2.168328e-06	-2.863816e-09	-1.500243e+01	-1.857026e+02
3.800000e-07	-2.132499e-06	-2.817057e-09	-1.475454e+01	-1.843580e+02
3.900000e-07	-2.095998e-06	-2.796293e-09	-1.450199e+01	-1.830711e+02
4.000000e-07	-2.058875e-06	-2.797911e-09	-1.424514e+01	-1.817056e+02
4.100000e-07	-2.021013e-06	-2.768318e-09	-1.398318e+01	-1.801850e+02
4.200000e-07	-1.982400e-06	-2.719301e-09	-1.371602e+01	-1.785324e+02
4.300000e-07	-1.943031e-06	-2.692559e-09	-1.344363e+01	-1.768346e+02
4.400000e-07	-1.902999e-06	-2.688359e-09	-1.316665e+01	-1.751688e+02
4.500000e-07	-1.862530e-06	-2.669901e-09	-1.288665e+01	-1.735491e+02
4.600000e-07	-1.821603e-06	-2.633355e-09	-1.260348e+01	-1.719294e+02
4.700000e-07	-1.779951e-06	-2.591258e-09	-1.231529e+01	-1.702494e+02
4.800000e-07	-1.737284e-06	-2.569826e-09	-1.202009e+01	-1.684835e+02
4.900000e-07	-1.693654e-06	-2.551022e-09	-1.171821e+01	-1.666541e+02
5.000000e-07	-1.649428e-06	-2.524621e-09	-1.141222e+01	-1.648041e+02
5.100000e-07	-1.604777e-06	-2.485478e-09	-1.110328e+01	-1.629567e+02
5.200000e-07	-1.559632e-06	-2.455171e-09	-1.079093e+01	-1.610971e+02
5.300000e-07	-1.513967e-06	-2.433177e-09	-1.047498e+01	-1.591887e+02
5.400000e-07	-1.467776e-06	-2.401620e-09	-1.015539e+01	-1.572067e+02
5.500000e-07	-1.421043e-06	-2.356892e-09	-9.832046e+00	-1.551598e+02
5.600000e-07	-1.373785e-06	-2.316812e-09	-9.505075e+00	-1.530801e+02
5.700000e-07	-1.326050e-06	-2.302299e-09	-9.174799e+00	-1.509914e+02
5.800000e-07	-1.277887e-06	-2.281601e-09	-8.841564e+00	-1.488840e+02
5.900000e-07	-1.229379e-06	-2.242984e-09	-8.505947e+00	-1.467175e+02
6.000000e-07	-1.180485e-06	-2.196894e-09	-8.167652e+00	-1.444517e+02
6.100000e-07	-1.131006e-06	-2.160509e-09	-7.825314e+00	-1.420814e+02
6.200000e-07	-1.080862e-06	-2.128049e-09	-7.478371e+00	-1.396455e+02
6.300000e-07	-1.030054e-06	-2.089986e-09	-7.126833e+00	-1.372023e+02
6.400000e-07	-9.786998e-07	-2.046241e-09	-6.771521e+00	-1.347868e+02
6.500000e-07	-9.268916e-07	-2.005349e-09	-6.413065e+00	-1.323825e+02
6.600000e-07	-8.746884e-07	-1.975989e-09	-6.051877e+00	-1.299278e+02
6.700000e-07	-8.222168e-07	-1.942187e-09	-5.688831e+00	-1.273546e+02
6.800000e-07	-7.695035e-07	-1.896376e-09	-5.324114e+00	-1.246320e+02
6.900000e-07	-7.164858e-07	-1.845207e-09	-4.957290e+00	-1.217858e+02
7.000000e-07	-6.631426e-07	-1.804690e-09	-4.588214e+00	-1.188808e+02
7.100000e-07	-6.095800e-07	-1.767601e-09	-4.217619e+00	-1.159799e+02
7.200000e-07	-5.558381e-07	-1.721887e-09	-3.845785e+00	-1.131060e+02
7.300000e-07	-5.018703e-07	-1.670682e-09	-3.472387e+00	-1.102318e+02
7.400000e-07	-4.476967e-07	-1.622623e-09	-3.097566e+00	-1.072998e+02
7.500000e-07	-3.933764e-07	-1.579274e-09	-2.721729e+00	-1.042571e+02
7.600000e-07	-3.389828e-07	-1.529701e-09	-2.345386e+00	-1.010839e+02
7.700000e-07	-2.845470e-07	-1.474580e-09	-1.968750e+00	-9.779780e+01
7.800000e-07	-2.300397e-07	-1.422549e-09	-1.591620e+00	-9.443737e+01
7.900000e-07	-1.754548e-07	-1.377541e-09	-1.213953e+00	-9.103554e+01
8.000000e-07	-1.208294e-07	-1.330091e-09	-8.360058e-01	-8.760039e+01
8.100000e-07	-6.617273e-08	-1.275866e-09	-4.578422e-01	-8.411170e+01
8.200000e-07	-1.150231e-08	-1.218554e-09	-7.958324e-02	-8.053335e+01
8.300000e-07	4.312915e-08	-1.161965e-09	2.984060e-01	-7.683370e+01
8.400000e-07	9.772155e-08	-1.104266e-09	6.761251e-01	-7.300333e+01
8.500000e-07	1.523134e-07	-1.043424e-09	1.053840e+00	-6.906146e+01
8.600000e-07	2.069053e-07	-9.816411e-10	1.431556e+00	-6.504709e+01
8.700000e-07	2.614635e-07	-9.202527e-10	1.809038e+00	-6.099779e+01
8.800000e-07	3.159419e-07	-8.619072e-10	2.185968e+00	-5.692556e+01
8.900000e-07	3.703581e-07	-8.016145e-10	2.562469e+00	-5.280313e+01
9.000000e-07	4.246547e-07	-7.361188e-10	2.938141e+00	-4.857050e+01
9.100000e-07	4.788026e-07	-6.675068e-10	3.312784e+00	-4.416175e+01
9.200000e-07	5.327664e-07	-5.974781e-10	3.686155e+00	-3.953925e+01
9.300000e-07	5.864876e-07	-5.243875e-10	4.057845e+00	-3.471517e+01
9.400000e-07	6.400104e-07	-4.476445e-10	4.428164e+00	-2.974518e+01
9.500000e-07	6.932240e-07	-3.701848e-10	4.796344e+00	-2.469493e+01
9.600000e-07	7.461045e-07	-2.938831e-10	5.162218e+00	-1.959763e+01
9.700000e-07	7.987852e-07	-2.192236e-10	5.526710e+00	-1.442819e+01
9.800000e-07	8.512162e-07	-1.398746e-10	5.889475e+00	-9.110898e+00
9.900000e-07	9.033137e-07	-5.294504e-11	6.249932e+00	-3.556824e+00
1.000000e-06	9.550335e-07	3.900536e-11	6.607776e+00	2.291331e+00
1.010000e-06	1.006333e-06	1.336521e-10	6.962713e+00	8.433867e+00
1.020000e-06	1.057097e-06	2.307337e-10	7.313944e+00	1.482189e+01
1.030000e-06	1.107148e-06	3.315498e-10	7.660238e+00	2.139079e+01
1.040000e-06	1.156495e-06	4.356677e-10	8.001669e+00	2.809659e+01
1.050000e-06	1.205363e-06	5.413174e-10	8.339780e+00	3.493328e+01
1.060000e-06	1.253938e-06	6.467483e-10	8.675867e+00	4.192357e+01
1.070000e-06	1.302213e-06	7.551576e-10	9.009872e+00	4.909288e+01
1.080000e-06	1.350142e-06	8.680472e-10	9.341488e+00	5.644425e+01
1.090000e-06	1.397614e-06	9.827674e-10	9.669944e+00	6.394664e+01
1.100000e-06	1.444522e-06	1.097504e-09	9.994492e+00	7.153775e+01
1.110000e-06	1.490905e-06	1.213900e-09	1.031541e+01	7.913409e+01
1.120000e-06	1.536752e-06	1.331627e-09	1.063262e+01	8.664182e+01
1.130000e-06	1.582082e-06	1.444487e-09	1.094626e+01	9.396775e+01
1.140000e-06	1.626945e-06	1.549865e-09	1.125666e+01	1.010337e+02
1.150000e-06	1.671419e-06	1.648670e-09	1.156437e+01	1.077930e+02
1.160000e-06	1.715508e-06	1.744844e-09	1.186942e+01	1.142422e+02
1.170000e-06	1.758944e-06	1.839375e-09	1.216994e+01	1.204145e+02
1.180000e-06	1.801469e-06	1.930690e-09	1.246417e+01	1.263542e+02
1.190000e-06	1.842999e-06	2.018585e-09	1.275151e+01	1.320820e+02
1.200000e-06	1.883763e-06	2.101456e-09	1.303356e+01	1.375726e+02
1.210000e-06	1.924061e-06	2.179708e-09	1.331238e+01	1.427632e+02
1.220000e-06	1.963850e-06	2.252388e-09	1.358767e+01	1.475903e+02
1.230000e-06	2.002986e-06	2.317695e-09	1.385845e+01	1.520334e+02
1.240000e-06	2.041423e-06	2.376911e-09	1.412439e+01	1.561351e+02
1.250000e-06	2.079125e-06	2.434393e-09	1.438525e+01	1.599821e+02
1.260000e-06	2.116118e-06	2.489180e-09	1.464120e+01	1.636585e+02
1.270000e-06	2.152570e-06	2.540994e-09	1.489340e+01	1.671998e+02
1.280000e-06	2.188445e-06	2.590197e-09	1.514162e+01	1.705797e+02
1.290000e-06	2.223351e-06	2.635484e-09	1.538313e+01	1.737364e+02
1.300000e-06	2.257129e-06	2.675441e-09	1.561684e+01	1.766201e+02
1.310000e-06	2.290012e-06	2.711044e-09	1.584435e+01	1.792278e+02
1.320000e-06	2.322247e-06	2.744678e-09	1.606738e+01	1.816049e+02
1.330000e-06	2.353763e-06	2.777422e-09	1.628544e+01	1.838157e+02
1.340000e-06	2.384463e-06	2.809408e-09	1.649785e+01	1.859083e+02
1.350000e-06	2.414359e-06	2.838292e-09	1.670470e+01	1.878982e+02
1.360000e-06	2.443453e-06	2.864436e-09	1.690599e+01	1.897790e+02
1.370000e-06	2.471893e-06	2.888801e-09	1.710277e+01	1.915455e+02
1.380000e-06	2.499589e-06	2.911895e-09	1.729439e+01	1.932071e+02
1.390000e-06	2.526099e-06	2.933526e-09	1.747781e+01	1.947813e+02
1.400000e-06	2.551384e-06	2.954387e-09	1.765276e+01	1.962754e+02
1.410000e-06	2.575767e-06	2.975851e-09	1.782146e+01	1.976779e+02
1.420000e-06	2.599267e-06	2.996853e-09	1.798406e+01	1.989701e+02
1.430000e-06	2.621864e-06	3.014966e-09	1.814040e+01	2.001501e+02
1.440000e-06	2.643600e-06	3.030333e-09	1.829079e+01	2.012468e+02
1.450000e-06	2.664522e-06	3.046478e-09	1.843555e+01	2.023075e+02
1.460000e-06	2.684738e-06	3.063328e-09	1.857542e+01	2.033638e+02
1.470000e-06	2.704046e-06	3.078159e-09	1.870901e+01	2.044022e+02
1.480000e-06	2.722312e-06	3.090804e-09	1.883539e+01	2.053670e+02
1.490000e-06	2.739621e-06	3.101439e-09	1.895515e+01	2.061981e+02
1.500000e-06	2.755897e-06	3.111865e-09	1.906776e+01	2.068802e+02
1.510000e-06	2.771070e-06	3.122552e-09	1.917274e+01	2.074633e+02
1.520000e-06	2.785210e-06	3.132543e-09	1.927057e+01	2.080357e+02
1.530000e-06	2.798375e-06	3.142931e-09	1.936166e+01	2.086633e+02
1.540000e-06	2.810438e-06	3.153221e-09	1.944512e+01	2.093405e+02
1.550000e-06	2.821236e-06	3.161786e-09	1.951983e+01	2.099886e+02
1.560000e-06	2.830783e-06	3.169019e-09	1.958589e+01	2.105090e+02
1.570000e-06	2.839334e-06	3.175514e-09	1.964505e+01	2.108538e+02
1.580000e-06	2.847016e-06	3.181509e-09	1.969820e+01	2.110618e+02
1.590000e-06	2.853713e-06	3.186562e-09	1.974454e+01	2.112332e+02
1.600000e-06	2.859379e-06	3.191764e-09	1.978374e+01	2.114603e+02
1.610000e-06	2.864150e-06	3.195750e-09	1.981675e+01	2.117637e+02
1.620000e-06	2.868058e-06	3.198375e-09	1.984379e+01	2.120822e+02
1.630000e-06	2.870869e-06	3.202549e-09	1.986324e+01	2.123213e+02
1.640000e-06	2.872495e-06	3.207662e-09	1.987449e+01	2.124230e+02
1.650000e-06	2.873075e-06	3.210613e-09	1.987850e+01	2.124020e+02
1.660000e-06	2.872758e-06	3.210060e-09	1.987631e+01	2.123239e+02
1.670000e-06	2.871557e-06	3.207048e-09	1.986800e+01	2.122444e+02
1.680000e-06	2.869442e-06	3.203378e-09	1.985337e+01	2.121641e+02
1.690000e-06	2.866520e-06	3.199296e-09	1.983315e+01	2.120358e+02
1.700000e-06	2.862865e-06	3.196198e-09	1.980786e+01	2.118190e+02
1.710000e-06	2.858278e-06	3.196928e-09	1.977612e+01	2.115319e+02
1.720000e-06	2.852463e-06	3.200746e-09	1.973589e+01	2.112512e+02
1.730000e-06	2.845578e-06	3.182544e-09	1.968825e+01	2.110483e+02
1.740000e-06	2.837795e-06	3.147492e-09	1.963441e+01	2.109116e+02
1.750000e-06	2.828750e-06	3.141044e-09	1.957182e+01	2.107224e+02
1.760000e-06	2.818149e-06	3.198982e-09	1.949847e+01	2.103217e+02
1.770000e-06	2.806419e-06	3.200918e-09	1.941732e+01	2.096324e+02
1.780000e-06	2.794454e-06	3.154345e-09	1.933453e+01	2.087512e+02
1.790000e-06	2.781972e-06	3.143853e-09	1.924817e+01	2.079290e+02
1.800000e-06	2.767932e-06	3.153008e-09	1.915103e+01	2.074333e+02
1.810000e-06	2.752532e-06	3.103628e-09	1.904448e+01	2.073723e+02
1.820000e-06	2.736460e-06	3.095599e-09	1.893328e+01	2.075994e+02
1.830000e-06	2.719442e-06	3.202847e-09	1.881553e+01	2.077745e+02
1.840000e-06	2.701130e-06	3.183992e-09	1.868883e+01	2.075557e+02
1.850000e-06	2.681985e-06	3.114019e-09	1.855637e+01	2.068024e+02
1.860000e-06	2.662150e-06	3.180556e-09	1.841913e+01	2.056590e+02
1.870000e-06	2.641142e-06	3.169055e-09	1.827378e+01	2.044588e+02
1.880000e-06	2.618940e-06	3.055480e-09	1.812017e+01	2.035111e+02
1.890000e-06	2.595819e-06	3.059649e-09	1.796020e+01	2.029075e+02
1.900000e-06	2.571750e-06	3.089935e-09	1.779367e+01	2.024761e+02
1.910000e-06	2.546847e-06	3.084266e-09	1.762137e+01	2.019070e+02
1.920000e-06	2.521217e-06	3.084018e-09	1.744404e+01	2.009640e+02
1.930000e-06	2.494738e-06	3.054694e-09	1.726083e+01	1.996372e+02
1.940000e-06	2.467558e-06	3.015724e-09	1.707277e+01	1.981404e+02
1.950000e-06	2.439565e-06	3.040752e-09	1.687909e+01	1.967618e+02
1.960000e-06	2.410333e-06	2.994071e-09	1.667684e+01	1.956732e+02
1.970000e-06	2.379950e-06	2.926302e-09	1.646662e+01	1.948281e+02
1.980000e-06	2.348791e-06	2.962765e-09	1.625104e+01	1.940073e+02
1.990000e-06	2.316954e-06	2.961359e-09	1.603076e+01	1.929732e+02
2.000000e-06	2.284364e-06	2.939136e-09	1.580527e+01	1.916211e+02
2.010000e-06	2.250925e-06	2.927305e-09	1.557391e+01	1.900308e+02
2.020000e-06	2.216685e-06	2.868994e-09	1.533701e+01	1.883928e+02
2.030000e-06	2.181850e-06	2.854279e-09	1.509599e+01	1.868738e+02
2.040000e-06	2.146368e-06	2.859386e-09	1.485050e+01	1.855152e+02
2.050000e-06	2.110136e-06	2.799320e-09	1.459981e+01	1.842284e+02
2.060000e-06	2.072982e-06	2.777632e-09	1.434274e+01	1.828762e+02
2.070000e-06	2.034775e-06	2.785257e-09	1.407839e+01	1.813725e+02
2.080000e-06	1.995769e-06	2.762171e-09	1.380851e+01	1.797300e+02
2.090000e-06	1.956198e-06	2.735251e-09	1.353473e+01	1.780321e+02
2.100000e-06	1.916068e-06	2.692630e-09	1.325707e+01	1.763604e+02
2.110000e-06	1.875290e-06	2.662564e-09	1.297493e+01	1.747369e+02
2.120000e-06	1.833870e-06	2.652597e-09	1.268835e+01	1.731199e+02
2.130000e-06	1.791869e-06	2.628746e-09	1.239775e+01	1.714480e+02
2.140000e-06	1.749295e-06	2.603758e-09	1.210319e+01	1.696906e+02
2.150000e-06	1.706202e-06	2.574625e-09	1.180503e+01	1.678655e+02
2.160000e-06	1.662654e-06	2.545868e-09	1.150373e+01	1.660155e+02
2.170000e-06	1.618574e-06	2.523365e-09	1.119874e+01	1.641675e+02
2.180000e-06	1.573853e-06	2.489745e-09	1.088932e+01	1.623105e+02
2.190000e-06	1.528461e-06	2.454865e-09	1.057526e+01	1.604086e+02
2.200000e-06	1.482550e-06	2.433795e-09	1.025761e+01	1.584343e+02
2.210000e-06	1.436253e-06	2.413370e-09	9.937282e+00	1.563926e+02
2.220000e-06	1.389550e-06	2.384266e-09	9.614147e+00	1.543143e+02
2.230000e-06	1.342288e-06	2.338831e-09	9.287147e+00	1.522260e+02
2.240000e-06	1.294299e-06	2.302212e-09	8.955119e+00	1.501218e+02
2.250000e-06	1.245716e-06	2.275115e-09	8.618978e+00	1.479634e+02
2.260000e-06	1.196722e-06	2.241675e-09	8.279991e+00	1.457089e+02
2.270000e-06	1.147345e-06	2.208648e-09	7.938359e+00	1.433482e+02
2.280000e-06	1.097532e-06	2.169088e-09	7.593711e+00	1.409161e+02
2.290000e-06	1.047257e-06	2.136734e-09	7.245860e+00	1.384708e+02
2.300000e-06	9.965855e-07	2.106155e-09	6.895270e+00	1.360518e+02
2.310000e-06	9.455846e-07	2.066903e-09	6.542400e+00	1.336483e+02
2.320000e-06	8.942902e-07	2.024572e-09	6.187499e+00	1.312022e+02
2.330000e-06	8.427520e-07	1.986782e-09	5.830912e+00	1.286436e+02
2.340000e-06	7.909012e-07	1.953060e-09	5.472162e+00	1.259364e+02
2.350000e-06	7.385994e-07	1.911180e-09	5.110291e+00	1.231003e+02
2.360000e-06	6.858798e-07	1.859295e-09	4.745530e+00	1.201978e+02
2.370000e-06	6.327222e-07	1.811792e-09	4.377738e+00	1.172940e+02
2.380000e-06	5.790680e-07	1.773065e-09	4.006511e+00	1.144172e+02
2.390000e-06	5.251377e-07	1.734369e-09	3.633372e+00	1.115452e+02
2.400000e-06	4.709791e-07	1.690576e-09	3.258655e+00	1.086218e+02
2.410000e-06	4.165603e-07	1.642877e-09	2.882137e+00	1.055923e+02
2.420000e-06	3.619947e-07	1.599985e-09	2.504603e+00	1.024323e+02
2.430000e-06	3.072590e-07	1.552491e-09	2.125893e+00	9.915627e+01
2.440000e-06	2.523656e-07	1.495853e-09	1.746091e+00	9.580150e+01
2.450000e-06	1.973878e-07	1.438265e-09	1.365705e+00	9.240278e+01
2.460000e-06	1.423661e-07	1.384271e-09	9.850157e-01	8.897131e+01
2.470000e-06	8.732051e-08	1.335107e-09	6.041614e-01	8.548955e+01
2.480000e-06	3.225845e-08	1.283450e-09	2.231928e-01	8.192216e+01
2.490000e-06	-2.279510e-08	1.227525e-09	-1.577169e-01	7.823604e+01
2.500000e-06	-7.785285e-08	1.168491e-09	-5.386556e-01	7.441883e+01
2.510000e-06	-1.329020e-07	1.107436e-09	-9.195349e-01	7.048683e+01
2.520000e-06	-1.879092e-07	1.045149e-09	-1.300124e+00	6.647778e+01
2.530000e-06	-2.428685e-07	9.811522e-10	-1.680381e+00	6.243060e+01
2.540000e-06	-2.977632e-07	9.179493e-10	-2.060192e+00	5.836100e+01
2.550000e-06	-3.525303e-07	8.577676e-10	-2.439120e+00	5.424600e+01
2.560000e-06	-4.071438e-07	7.966520e-10	-2.816985e+00	5.002809e+01
2.570000e-06	-4.615411e-07	7.287085e-10	-3.193354e+00	4.564036e+01
2.580000e-06	-5.156595e-07	6.557400e-10	-3.567794e+00	4.104071e+01
2.590000e-06	-5.694803e-07	5.809024e-10	-3.940174e+00	3.623571e+01
2.600000e-06	-6.229339e-07	5.051573e-10	-4.310014e+00	3.127760e+01
2.610000e-06	-6.759971e-07	4.280212e-10	-4.677152e+00	2.623306e+01
2.620000e-06	-7.286422e-07	3.492476e-10	-5.041398e+00	2.114050e+01
2.630000e-06	-7.809332e-07	2.691205e-10	-5.403194e+00	1.598134e+01
2.640000e-06	-8.328602e-07	1.883577e-10	-5.762472e+00	1.068389e+01
2.650000e-06	-8.844410e-07	1.057997e-10	-6.119354e+00	5.158388e+00
2.660000e-06	-9.357581e-07	1.770759e-11	-6.474412e+00	-6.575969e-01
2.670000e-06	-9.867272e-07	-7.439601e-11	-6.827062e+00	-6.770698e+00
2.680000e-06	-1.037347e-06	-1.703100e-10	-7.177295e+00	-1.313599e+01
2.690000e-06	-1.087616e-06	-2.687527e-10	-7.525100e+00	-1.968863e+01
2.700000e-06	-1.137414e-06	-3.711362e-10	-7.869646e+00	-2.638114e+01
2.710000e-06	-1.186751e-06	-4.776848e-10	-8.211008e+00	-3.320346e+01
2.720000e-06	-1.235642e-06	-5.838495e-10	-8.549274e+00	-4.017629e+01
2.730000e-06	-1.283949e-06	-6.901947e-10	-8.883511e+00	-4.732614e+01
2.740000e-06	-1.331544e-06	-8.010214e-10	-9.212814e+00	-5.465928e+01
2.750000e-06	-1.378349e-06	-9.173014e-10	-9.536649e+00	-6.214841e+01
2.760000e-06	-1.424545e-06	-1.032903e-09	-9.856275e+00	-6.973414e+01
2.770000e-06	-1.470345e-06	-1.145757e-09	-1.017316e+01	-7.733472e+01
2.780000e-06	-1.515804e-06	-1.259007e-09	-1.048769e+01	-8.485693e+01
2.790000e-06	-1.560928e-06	-1.373049e-09	-1.079990e+01	-9.220691e+01
2.800000e-06	-1.605527e-06	-1.484028e-09	-1.110847e+01	-9.930401e+01
2.810000e-06	-1.649519e-06	-1.588654e-09	-1.141285e+01	-1.060976e+02
2.820000e-06	-1.693012e-06	-1.687415e-09	-1.171377e+01	-1.125793e+02
2.830000e-06	-1.736106e-06	-1.784177e-09	-1.201194e+01	-1.187794e+02
2.840000e-06	-1.778750e-06	-1.878524e-09	-1.230698e+01	-1.247428e+02
2.850000e-06	-1.820811e-06	-1.966460e-09	-1.259800e+01	-1.304941e+02
2.860000e-06	-1.862270e-06	-2.048084e-09	-1.288485e+01	-1.360131e+02
2.870000e-06	-1.903108e-06	-2.126772e-09	-1.316740e+01	-1.412396e+02
2.880000e-06	-1.943221e-06	-2.203133e-09	-1.344494e+01	-1.461082e+02
2.890000e-06	-1.982682e-06	-2.274544e-09	-1.371797e+01	-1.505919e+02
2.900000e-06	-2.021634e-06	-2.340388e-09	-1.398747e+01	-1.547268e+02
2.910000e-06	-2.059870e-06	-2.401782e-09	-1.425202e+01	-1.585971e+02
2.920000e-06	-2.097088e-06	-2.460840e-09	-1.450953e+01	-1.622894e+02
2.930000e-06	-2.133285e-06	-2.518368e-09	-1.475998e+01	-1.658458e+02
2.940000e-06	-2.168774e-06	-2.572614e-09	-1.500552e+01	-1.692461e+02
