# Temperatura_=_27.97
# Concentracion g/m^3_=_15500.0
# C_Vs_to_Am_M_A/Vsm_=_65563218390.804596
# pendiente_HvsI_1/m_=_3716.3
# ordenada_HvsI_A/m_=_1297.0
# frecuencia_Hz_=_300981.8044617617

Tiempo_(s)	Campo_(V.s)	Magnetizacion_(V.s)	Campo_(kA/m)	Magnetizacion_(A/m)
0.000000e+00	-2.860205e-06	-3.294955e-09	-1.978582e+01	-2.163301e+02
1.000000e-08	-2.859155e-06	-3.297274e-09	-1.977856e+01	-2.163757e+02
2.000000e-08	-2.856987e-06	-3.298442e-09	-1.976356e+01	-2.163730e+02
3.000000e-08	-2.853582e-06	-3.296004e-09	-1.974001e+01	-2.162334e+02
4.000000e-08	-2.849215e-06	-3.291050e-09	-1.970980e+01	-2.159356e+02
5.000000e-08	-2.844063e-06	-3.285823e-09	-1.967416e+01	-2.155615e+02
6.000000e-08	-2.838080e-06	-3.278752e-09	-1.963277e+01	-2.152488e+02
7.000000e-08	-2.831148e-06	-3.284029e-09	-1.958482e+01	-2.150867e+02
8.000000e-08	-2.823191e-06	-3.322689e-09	-1.952978e+01	-2.150288e+02
9.000000e-08	-2.813975e-06	-3.327853e-09	-1.946602e+01	-2.148977e+02
1.000000e-07	-2.803274e-06	-3.240237e-09	-1.939200e+01	-2.144931e+02
1.100000e-07	-2.791420e-06	-3.155509e-09	-1.930999e+01	-2.137389e+02
1.200000e-07	-2.778817e-06	-3.258874e-09	-1.922281e+01	-2.127658e+02
1.300000e-07	-2.765332e-06	-3.333696e-09	-1.912953e+01	-2.118595e+02
1.400000e-07	-2.750828e-06	-3.182459e-09	-1.902920e+01	-2.112939e+02
1.500000e-07	-2.735316e-06	-3.191287e-09	-1.892189e+01	-2.111524e+02
1.600000e-07	-2.718521e-06	-3.337726e-09	-1.880571e+01	-2.112583e+02
1.700000e-07	-2.700533e-06	-3.231521e-09	-1.868127e+01	-2.112676e+02
1.800000e-07	-2.681825e-06	-3.114029e-09	-1.855185e+01	-2.108740e+02
1.900000e-07	-2.662374e-06	-3.263663e-09	-1.841730e+01	-2.099933e+02
2.000000e-07	-2.642015e-06	-3.221873e-09	-1.827647e+01	-2.088091e+02
2.100000e-07	-2.620726e-06	-3.044721e-09	-1.812920e+01	-2.076478e+02
2.200000e-07	-2.598611e-06	-3.188461e-09	-1.797621e+01	-2.067669e+02
2.300000e-07	-2.575603e-06	-3.268547e-09	-1.781705e+01	-2.061954e+02
2.400000e-07	-2.551682e-06	-3.103311e-09	-1.765158e+01	-2.057293e+02
2.500000e-07	-2.527048e-06	-3.085752e-09	-1.748117e+01	-2.050801e+02
2.600000e-07	-2.501475e-06	-3.126763e-09	-1.730426e+01	-2.040709e+02
2.700000e-07	-2.474756e-06	-3.072439e-09	-1.711943e+01	-2.027488e+02
2.800000e-07	-2.447015e-06	-3.073182e-09	-1.692753e+01	-2.013412e+02
2.900000e-07	-2.418358e-06	-3.050538e-09	-1.672929e+01	-2.000939e+02
3.000000e-07	-2.388844e-06	-3.019275e-09	-1.652512e+01	-1.991059e+02
3.100000e-07	-2.358626e-06	-3.050057e-09	-1.631609e+01	-1.982723e+02
3.200000e-07	-2.327721e-06	-3.033490e-09	-1.610230e+01	-1.973686e+02
3.300000e-07	-2.295982e-06	-2.974954e-09	-1.588274e+01	-1.962093e+02
3.400000e-07	-2.263531e-06	-2.953953e-09	-1.565826e+01	-1.947705e+02
3.500000e-07	-2.230483e-06	-2.915929e-09	-1.542964e+01	-1.931939e+02
3.600000e-07	-2.196570e-06	-2.928110e-09	-1.519505e+01	-1.916785e+02
3.700000e-07	-2.161479e-06	-2.951384e-09	-1.495230e+01	-1.903422e+02
3.800000e-07	-2.125418e-06	-2.873720e-09	-1.470285e+01	-1.891488e+02
3.900000e-07	-2.088743e-06	-2.860432e-09	-1.444914e+01	-1.879461e+02
4.000000e-07	-2.051441e-06	-2.891319e-09	-1.419110e+01	-1.865786e+02
4.100000e-07	-2.013400e-06	-2.837177e-09	-1.392794e+01	-1.849913e+02
4.200000e-07	-1.974600e-06	-2.768031e-09	-1.365954e+01	-1.832544e+02
4.300000e-07	-1.935071e-06	-2.760805e-09	-1.338610e+01	-1.814997e+02
4.400000e-07	-1.894963e-06	-2.756098e-09	-1.310864e+01	-1.798219e+02
4.500000e-07	-1.854425e-06	-2.741209e-09	-1.282822e+01	-1.782195e+02
4.600000e-07	-1.813452e-06	-2.708569e-09	-1.254478e+01	-1.766110e+02
4.700000e-07	-1.771665e-06	-2.663985e-09	-1.225571e+01	-1.749069e+02
4.800000e-07	-1.728689e-06	-2.635508e-09	-1.195842e+01	-1.730788e+02
4.900000e-07	-1.684829e-06	-2.615335e-09	-1.165502e+01	-1.711728e+02
5.000000e-07	-1.640464e-06	-2.588135e-09	-1.134811e+01	-1.692628e+02
5.100000e-07	-1.595737e-06	-2.542286e-09	-1.103871e+01	-1.673846e+02
5.200000e-07	-1.550538e-06	-2.517495e-09	-1.072604e+01	-1.655032e+02
5.300000e-07	-1.504715e-06	-2.503154e-09	-1.040905e+01	-1.635404e+02
5.400000e-07	-1.458336e-06	-2.472959e-09	-1.008822e+01	-1.614391e+02
5.500000e-07	-1.411494e-06	-2.417847e-09	-9.764184e+00	-1.592145e+02
5.600000e-07	-1.364183e-06	-2.371683e-09	-9.436907e+00	-1.569519e+02
5.700000e-07	-1.316404e-06	-2.353357e-09	-9.106389e+00	-1.547500e+02
5.800000e-07	-1.268216e-06	-2.334848e-09	-8.773039e+00	-1.526504e+02
5.900000e-07	-1.219624e-06	-2.298082e-09	-8.436899e+00	-1.506046e+02
6.000000e-07	-1.170579e-06	-2.253007e-09	-8.097623e+00	-1.485014e+02
6.100000e-07	-1.120999e-06	-2.219049e-09	-7.754650e+00	-1.462382e+02
6.200000e-07	-1.070733e-06	-2.187032e-09	-7.406928e+00	-1.437855e+02
6.300000e-07	-1.019755e-06	-2.148281e-09	-7.054282e+00	-1.412031e+02
6.400000e-07	-9.683042e-07	-2.096985e-09	-6.698365e+00	-1.385979e+02
6.500000e-07	-9.164113e-07	-2.055067e-09	-6.339389e+00	-1.360538e+02
6.600000e-07	-8.641266e-07	-2.028509e-09	-5.977703e+00	-1.335802e+02
6.700000e-07	-8.116381e-07	-1.997863e-09	-5.614608e+00	-1.311114e+02
6.800000e-07	-7.589016e-07	-1.952895e-09	-5.249796e+00	-1.285524e+02
6.900000e-07	-7.058109e-07	-1.903625e-09	-4.882535e+00	-1.258387e+02
7.000000e-07	-6.523779e-07	-1.865398e-09	-4.512905e+00	-1.229711e+02
7.100000e-07	-5.987110e-07	-1.825685e-09	-4.141658e+00	-1.200068e+02
7.200000e-07	-5.448431e-07	-1.776547e-09	-3.769020e+00	-1.170168e+02
7.300000e-07	-4.908067e-07	-1.722620e-09	-3.395216e+00	-1.140417e+02
7.400000e-07	-4.366135e-07	-1.676016e-09	-3.020328e+00	-1.110723e+02
7.500000e-07	-3.822936e-07	-1.634698e-09	-2.644564e+00	-1.080628e+02
7.600000e-07	-3.279428e-07	-1.588034e-09	-2.268585e+00	-1.049642e+02
7.700000e-07	-2.735242e-07	-1.533725e-09	-1.892138e+00	-1.017511e+02
7.800000e-07	-2.190113e-07	-1.481208e-09	-1.515038e+00	-9.842836e+01
7.900000e-07	-1.644239e-07	-1.435801e-09	-1.137423e+00	-9.501586e+01
8.000000e-07	-1.097679e-07	-1.384364e-09	-7.593328e-01	-9.152711e+01
8.100000e-07	-5.509895e-08	-1.325506e-09	-3.811539e-01	-8.795783e+01
8.200000e-07	-4.147830e-10	-1.265085e-09	-2.869313e-03	-8.429164e+01
8.300000e-07	5.428940e-08	-1.210330e-09	3.755537e-01	-8.051651e+01
8.400000e-07	1.089505e-07	-1.155175e-09	7.536790e-01	-7.663816e+01
8.500000e-07	1.635580e-07	-1.093755e-09	1.131433e+00	-7.267931e+01
8.600000e-07	2.181465e-07	-1.030165e-09	1.509056e+00	-6.866443e+01
8.700000e-07	2.726993e-07	-9.702785e-10	1.886431e+00	-6.459988e+01
8.800000e-07	3.271853e-07	-9.137361e-10	2.263345e+00	-6.046322e+01
8.900000e-07	3.815938e-07	-8.502300e-10	2.639722e+00	-5.620936e+01
9.000000e-07	4.358544e-07	-7.798716e-10	3.015077e+00	-5.179097e+01
9.100000e-07	4.899483e-07	-7.069094e-10	3.389279e+00	-4.718095e+01
9.200000e-07	5.438730e-07	-6.356998e-10	3.762309e+00	-4.238353e+01
9.300000e-07	5.975989e-07	-5.614730e-10	4.133965e+00	-3.742720e+01
9.400000e-07	6.510191e-07	-4.820264e-10	4.503506e+00	-3.234350e+01
9.500000e-07	7.041660e-07	-4.017639e-10	4.871156e+00	-2.714431e+01
9.600000e-07	7.571126e-07	-3.240678e-10	5.237421e+00	-2.181060e+01
9.700000e-07	8.097976e-07	-2.450753e-10	5.601876e+00	-1.629860e+01
9.800000e-07	8.622053e-07	-1.558304e-10	5.964412e+00	-1.055892e+01
9.900000e-07	9.142858e-07	-5.844649e-11	6.324686e+00	-4.556737e+00
1.000000e-06	9.659990e-07	3.985009e-11	6.682418e+00	1.718226e+00
1.010000e-06	1.017280e-06	1.360293e-10	7.037161e+00	8.255807e+00
1.020000e-06	1.067923e-06	2.373650e-10	7.387489e+00	1.503843e+01
1.030000e-06	1.117858e-06	3.456405e-10	7.732924e+00	2.205293e+01
1.040000e-06	1.167167e-06	4.580618e-10	8.074026e+00	2.929332e+01
1.050000e-06	1.215992e-06	5.710711e-10	8.411777e+00	3.675423e+01
1.060000e-06	1.264524e-06	6.864465e-10	8.747499e+00	4.442100e+01
1.070000e-06	1.312807e-06	8.089401e-10	9.081506e+00	5.226406e+01
1.080000e-06	1.360680e-06	9.332013e-10	9.412670e+00	6.024048e+01
1.090000e-06	1.407985e-06	1.052163e-09	9.739911e+00	6.829936e+01
1.100000e-06	1.454745e-06	1.169297e-09	1.006338e+01	7.638497e+01
1.110000e-06	1.501005e-06	1.293251e-09	1.038339e+01	8.443473e+01
1.120000e-06	1.546744e-06	1.420150e-09	1.069980e+01	9.237506e+01
1.130000e-06	1.591933e-06	1.539797e-09	1.101240e+01	1.001221e+02
1.140000e-06	1.636665e-06	1.648828e-09	1.132183e+01	1.075921e+02
1.150000e-06	1.681046e-06	1.753803e-09	1.162885e+01	1.147178e+02
1.160000e-06	1.724996e-06	1.857586e-09	1.193288e+01	1.214636e+02
1.170000e-06	1.768285e-06	1.955505e-09	1.223233e+01	1.278286e+02
1.180000e-06	1.810647e-06	2.044620e-09	1.252537e+01	1.338350e+02
1.190000e-06	1.851987e-06	2.129211e-09	1.281135e+01	1.395105e+02
1.200000e-06	1.892643e-06	2.212709e-09	1.309259e+01	1.448736e+02
1.210000e-06	1.932919e-06	2.291863e-09	1.337121e+01	1.499316e+02
1.220000e-06	1.972605e-06	2.363083e-09	1.364574e+01	1.546884e+02
1.230000e-06	2.011541e-06	2.427450e-09	1.391509e+01	1.591543e+02
1.240000e-06	2.049793e-06	2.490627e-09	1.417970e+01	1.633471e+02
1.250000e-06	2.087343e-06	2.552781e-09	1.443945e+01	1.672852e+02
1.260000e-06	2.124240e-06	2.608616e-09	1.469470e+01	1.709773e+02
1.270000e-06	2.160593e-06	2.655878e-09	1.494617e+01	1.744214e+02
1.280000e-06	2.196279e-06	2.699835e-09	1.519303e+01	1.776128e+02
1.290000e-06	2.230972e-06	2.744684e-09	1.543303e+01	1.805589e+02
1.300000e-06	2.264545e-06	2.786046e-09	1.566527e+01	1.832863e+02
1.310000e-06	2.297266e-06	2.822175e-09	1.589163e+01	1.858332e+02
1.320000e-06	2.329369e-06	2.855816e-09	1.611370e+01	1.882327e+02
1.330000e-06	2.360710e-06	2.889790e-09	1.633051e+01	1.904974e+02
1.340000e-06	2.391252e-06	2.921862e-09	1.654178e+01	1.926179e+02
1.350000e-06	2.421022e-06	2.949274e-09	1.674772e+01	1.945782e+02
1.360000e-06	2.449998e-06	2.974007e-09	1.694817e+01	1.963751e+02
1.370000e-06	2.478306e-06	2.998493e-09	1.714399e+01	1.980281e+02
1.380000e-06	2.505744e-06	3.023019e-09	1.733380e+01	1.995717e+02
1.390000e-06	2.531919e-06	3.044970e-09	1.751487e+01	2.010366e+02
1.400000e-06	2.556942e-06	3.064613e-09	1.768796e+01	2.024353e+02
1.410000e-06	2.581111e-06	3.084436e-09	1.785516e+01	2.037634e+02
1.420000e-06	2.604445e-06	3.105294e-09	1.801657e+01	2.050138e+02
1.430000e-06	2.626902e-06	3.124596e-09	1.817192e+01	2.061914e+02
1.440000e-06	2.648429e-06	3.141121e-09	1.832084e+01	2.073118e+02
1.450000e-06	2.669187e-06	3.157370e-09	1.846443e+01	2.083854e+02
1.460000e-06	2.689274e-06	3.174055e-09	1.860339e+01	2.093997e+02
1.470000e-06	2.708322e-06	3.188907e-09	1.873515e+01	2.103199e+02
1.480000e-06	2.726217e-06	3.200449e-09	1.885894e+01	2.111123e+02
1.490000e-06	2.743214e-06	3.209835e-09	1.897652e+01	2.117770e+02
1.500000e-06	2.759230e-06	3.220509e-09	1.908731e+01	2.123634e+02
1.510000e-06	2.774170e-06	3.232726e-09	1.919066e+01	2.129495e+02
1.520000e-06	2.788102e-06	3.242745e-09	1.928704e+01	2.135945e+02
1.530000e-06	2.801072e-06	3.252189e-09	1.937676e+01	2.142944e+02
1.540000e-06	2.813017e-06	3.262788e-09	1.945939e+01	2.149762e+02
1.550000e-06	2.823586e-06	3.272823e-09	1.953251e+01	2.155396e+02
1.560000e-06	2.832869e-06	3.281017e-09	1.959672e+01	2.159215e+02
1.570000e-06	2.841234e-06	3.286655e-09	1.965459e+01	2.161394e+02
1.580000e-06	2.848691e-06	3.291407e-09	1.970617e+01	2.162816e+02
1.590000e-06	2.855196e-06	3.296549e-09	1.975117e+01	2.164483e+02
1.600000e-06	2.860732e-06	3.301396e-09	1.978947e+01	2.166859e+02
1.610000e-06	2.865418e-06	3.304347e-09	1.982188e+01	2.169604e+02
1.620000e-06	2.869246e-06	3.307360e-09	1.984836e+01	2.171905e+02
1.630000e-06	2.871828e-06	3.310745e-09	1.986623e+01	2.173138e+02
1.640000e-06	2.873158e-06	3.313850e-09	1.987543e+01	2.173356e+02
1.650000e-06	2.873602e-06	3.318240e-09	1.987850e+01	2.173205e+02
1.660000e-06	2.873172e-06	3.320044e-09	1.987553e+01	2.173337e+02
1.670000e-06	2.871802e-06	3.317476e-09	1.986605e+01	2.173792e+02
1.680000e-06	2.869537e-06	3.312914e-09	1.985038e+01	2.173866e+02
1.690000e-06	2.866470e-06	3.309143e-09	1.982916e+01	2.172646e+02
1.700000e-06	2.862633e-06	3.308763e-09	1.980262e+01	2.169818e+02
1.710000e-06	2.857728e-06	3.310787e-09	1.976869e+01	2.166096e+02
1.720000e-06	2.851585e-06	3.316564e-09	1.972619e+01	2.162845e+02
1.730000e-06	2.844498e-06	3.291255e-09	1.967717e+01	2.161059e+02
1.740000e-06	2.836563e-06	3.232977e-09	1.962227e+01	2.160438e+02
1.750000e-06	2.827252e-06	3.245885e-09	1.955786e+01	2.159312e+02
1.760000e-06	2.816337e-06	3.355344e-09	1.948236e+01	2.155630e+02
1.770000e-06	2.804590e-06	3.346455e-09	1.940110e+01	2.148439e+02
1.780000e-06	2.792706e-06	3.222810e-09	1.931889e+01	2.138824e+02
1.790000e-06	2.779990e-06	3.217633e-09	1.923093e+01	2.129542e+02
1.800000e-06	2.765564e-06	3.315035e-09	1.913113e+01	2.123437e+02
1.810000e-06	2.750030e-06	3.191441e-09	1.902367e+01	2.121611e+02
1.820000e-06	2.733930e-06	3.127251e-09	1.891230e+01	2.122556e+02
1.830000e-06	2.716620e-06	3.319485e-09	1.879256e+01	2.122926e+02
1.840000e-06	2.698021e-06	3.273347e-09	1.866390e+01	2.119513e+02
1.850000e-06	2.678775e-06	3.094462e-09	1.853076e+01	2.111185e+02
1.860000e-06	2.658725e-06	3.236525e-09	1.839206e+01	2.099522e+02
1.870000e-06	2.637388e-06	3.293082e-09	1.824446e+01	2.087733e+02
1.880000e-06	2.615043e-06	3.048453e-09	1.808988e+01	2.078565e+02
1.890000e-06	2.591824e-06	3.079546e-09	1.792927e+01	2.072585e+02
1.900000e-06	2.567579e-06	3.222752e-09	1.776154e+01	2.067953e+02
1.910000e-06	2.542570e-06	3.126940e-09	1.758854e+01	2.061778e+02
1.920000e-06	2.516776e-06	3.095053e-09	1.741011e+01	2.052093e+02
1.930000e-06	2.490053e-06	3.128829e-09	1.722525e+01	2.039121e+02
1.940000e-06	2.462659e-06	3.064187e-09	1.703575e+01	2.025008e+02
1.950000e-06	2.434460e-06	3.098649e-09	1.684068e+01	2.012281e+02
1.960000e-06	2.404992e-06	3.058199e-09	1.663683e+01	2.002142e+02
1.970000e-06	2.374426e-06	2.965537e-09	1.642539e+01	1.993742e+02
1.980000e-06	2.343150e-06	3.024871e-09	1.620903e+01	1.984891e+02
1.990000e-06	2.311205e-06	3.021897e-09	1.598805e+01	1.973619e+02
2.000000e-06	2.278514e-06	2.987310e-09	1.576190e+01	1.959488e+02
2.010000e-06	2.244935e-06	3.002998e-09	1.552962e+01	1.943773e+02
2.020000e-06	2.210577e-06	2.912588e-09	1.529194e+01	1.928475e+02
2.030000e-06	2.175632e-06	2.895691e-09	1.505021e+01	1.914912e+02
2.040000e-06	2.140013e-06	2.942689e-09	1.480381e+01	1.902887e+02
2.050000e-06	2.103627e-06	2.845476e-09	1.455210e+01	1.890956e+02
2.060000e-06	2.066283e-06	2.824988e-09	1.429377e+01	1.877509e+02
2.070000e-06	2.027918e-06	2.864356e-09	1.402837e+01	1.861859e+02
2.080000e-06	1.988833e-06	2.822075e-09	1.375800e+01	1.844592e+02
2.090000e-06	1.949193e-06	2.797543e-09	1.348379e+01	1.827006e+02
2.100000e-06	1.908899e-06	2.752418e-09	1.320505e+01	1.810130e+02
2.110000e-06	1.867942e-06	2.709625e-09	1.292172e+01	1.794058e+02
2.120000e-06	1.826394e-06	2.712329e-09	1.263430e+01	1.778029e+02
2.130000e-06	1.784252e-06	2.685795e-09	1.234278e+01	1.761121e+02
2.140000e-06	1.741493e-06	2.660481e-09	1.204700e+01	1.742963e+02
2.150000e-06	1.698266e-06	2.632031e-09	1.174796e+01	1.723952e+02
2.160000e-06	1.654666e-06	2.595422e-09	1.144636e+01	1.704830e+02
2.170000e-06	1.610477e-06	2.583160e-09	1.114067e+01	1.686020e+02
2.180000e-06	1.565614e-06	2.543330e-09	1.083033e+01	1.667246e+02
2.190000e-06	1.520116e-06	2.502112e-09	1.051559e+01	1.647744e+02
2.200000e-06	1.474017e-06	2.483534e-09	1.019670e+01	1.626888e+02
2.210000e-06	1.427478e-06	2.456462e-09	9.874760e+00	1.604744e+02
2.220000e-06	1.380482e-06	2.430431e-09	9.549655e+00	1.582110e+02
2.230000e-06	1.332958e-06	2.381261e-09	9.220906e+00	1.559993e+02
2.240000e-06	1.284846e-06	2.340115e-09	8.888083e+00	1.538897e+02
2.250000e-06	1.236180e-06	2.321090e-09	8.551432e+00	1.518430e+02
2.260000e-06	1.187122e-06	2.290704e-09	8.212063e+00	1.497519e+02
2.270000e-06	1.137702e-06	2.256114e-09	7.870195e+00	1.475091e+02
2.280000e-06	1.087923e-06	2.214773e-09	7.525841e+00	1.450754e+02
2.290000e-06	1.037671e-06	2.179182e-09	7.178218e+00	1.425023e+02
2.300000e-06	9.869117e-07	2.150739e-09	6.827085e+00	1.398947e+02
2.310000e-06	9.357810e-07	2.106162e-09	6.473382e+00	1.373422e+02
2.320000e-06	8.843897e-07	2.059360e-09	6.117875e+00	1.348633e+02
2.330000e-06	8.327605e-07	2.022688e-09	5.760724e+00	1.323988e+02
2.340000e-06	7.807531e-07	1.989538e-09	5.400957e+00	1.298537e+02
2.350000e-06	7.282861e-07	1.952290e-09	5.038010e+00	1.271579e+02
2.360000e-06	6.754289e-07	1.899837e-09	4.672364e+00	1.243050e+02
2.370000e-06	6.221763e-07	1.853669e-09	4.303982e+00	1.213477e+02
2.380000e-06	5.685353e-07	1.816065e-09	3.932914e+00	1.183578e+02
2.390000e-06	5.145162e-07	1.775353e-09	3.559230e+00	1.153809e+02
2.400000e-06	4.602423e-07	1.731159e-09	3.183783e+00	1.124128e+02
2.410000e-06	4.057976e-07	1.679509e-09	2.807155e+00	1.094105e+02
2.420000e-06	3.511481e-07	1.632855e-09	2.429111e+00	1.063233e+02
2.430000e-06	2.963984e-07	1.587890e-09	2.050373e+00	1.031229e+02
2.440000e-06	2.415342e-07	1.536886e-09	1.670843e+00	9.981127e+01
2.450000e-06	1.865329e-07	1.482461e-09	1.290365e+00	9.640766e+01
2.460000e-06	1.314748e-07	1.427162e-09	9.094935e-01	9.292715e+01
2.470000e-06	7.640491e-08	1.375419e-09	5.285404e-01	8.936737e+01
2.480000e-06	2.132066e-08	1.324186e-09	1.474883e-01	8.571255e+01
2.490000e-06	-3.375736e-08	1.267563e-09	-2.335207e-01	8.194938e+01
2.500000e-06	-8.883056e-08	1.206182e-09	-6.144965e-01	7.808140e+01
2.510000e-06	-1.438996e-07	1.143813e-09	-9.954431e-01	7.413005e+01
2.520000e-06	-1.989454e-07	1.080977e-09	-1.376230e+00	7.012058e+01
2.530000e-06	-2.539409e-07	1.017792e-09	-1.756668e+00	6.606210e+01
2.540000e-06	-3.088510e-07	9.532812e-10	-2.136515e+00	6.193524e+01
2.550000e-06	-3.636401e-07	8.902226e-10	-2.515525e+00	5.769656e+01
2.560000e-06	-4.182945e-07	8.266514e-10	-2.893604e+00	5.329779e+01
2.570000e-06	-4.727523e-07	7.582638e-10	-3.270323e+00	4.870884e+01
2.580000e-06	-5.269739e-07	6.846048e-10	-3.645408e+00	4.393062e+01
2.590000e-06	-5.808526e-07	6.072301e-10	-4.018120e+00	3.898983e+01
2.600000e-06	-6.342794e-07	5.284421e-10	-4.387707e+00	3.391890e+01
2.610000e-06	-6.873222e-07	4.480341e-10	-4.754637e+00	2.873263e+01
2.620000e-06	-7.400011e-07	3.664184e-10	-5.119049e+00	2.341530e+01
2.630000e-06	-7.922747e-07	2.818540e-10	-5.480659e+00	1.792505e+01
2.640000e-06	-8.441103e-07	1.958293e-10	-5.839238e+00	1.221201e+01
2.650000e-06	-8.955964e-07	1.087406e-10	-6.195399e+00	6.239070e+00
2.660000e-06	-9.468180e-07	1.640139e-11	-6.549732e+00	-6.699032e-03
2.670000e-06	-9.977374e-07	-8.421708e-11	-6.901972e+00	-6.516785e+00
2.680000e-06	-1.048320e-06	-1.904412e-10	-7.251884e+00	-1.327374e+01
2.690000e-06	-1.098495e-06	-2.978420e-10	-7.598977e+00	-2.026359e+01
2.700000e-06	-1.148196e-06	-4.061584e-10	-7.942787e+00	-2.747977e+01
2.710000e-06	-1.197467e-06	-5.173993e-10	-8.283624e+00	-3.491733e+01
2.720000e-06	-1.246303e-06	-6.343437e-10	-8.621459e+00	-4.256300e+01
2.730000e-06	-1.294554e-06	-7.543204e-10	-8.955240e+00	-5.038884e+01
2.740000e-06	-1.342033e-06	-8.757773e-10	-9.283683e+00	-5.835312e+01
2.750000e-06	-1.388785e-06	-9.986421e-10	-9.607096e+00	-6.640556e+01
2.760000e-06	-1.435003e-06	-1.122478e-09	-9.926809e+00	-7.449096e+01
2.770000e-06	-1.480851e-06	-1.246350e-09	-1.024397e+01	-8.254767e+01
2.780000e-06	-1.526340e-06	-1.367825e-09	-1.055865e+01	-9.050342e+01
2.790000e-06	-1.571374e-06	-1.485969e-09	-1.087018e+01	-9.827516e+01
2.800000e-06	-1.615844e-06	-1.600402e-09	-1.117781e+01	-1.057782e+02
2.810000e-06	-1.659669e-06	-1.712344e-09	-1.148097e+01	-1.129430e+02
2.820000e-06	-1.703015e-06	-1.818829e-09	-1.178082e+01	-1.197299e+02
2.830000e-06	-1.746024e-06	-1.917703e-09	-1.207834e+01	-1.261347e+02
2.840000e-06	-1.788497e-06	-2.010556e-09	-1.237215e+01	-1.321780e+02
2.850000e-06	-1.830333e-06	-2.098534e-09	-1.266156e+01	-1.378877e+02
2.860000e-06	-1.871610e-06	-2.180542e-09	-1.294710e+01	-1.432836e+02
2.870000e-06	-1.912220e-06	-2.257214e-09	-1.322802e+01	-1.483739e+02
2.880000e-06	-1.952153e-06	-2.329256e-09	-1.350426e+01	-1.531625e+02
2.890000e-06	-1.991568e-06	-2.398090e-09	-1.377692e+01	-1.576586e+02
2.900000e-06	-2.030436e-06	-2.466059e-09	-1.404580e+01	-1.618795e+02
2.910000e-06	-2.068457e-06	-2.530753e-09	-1.430881e+01	-1.658440e+02
2.920000e-06	-2.105406e-06	-2.590541e-09	-1.456441e+01	-1.695623e+02
2.930000e-06	-2.141444e-06	-2.645102e-09	-1.481371e+01	-1.730330e+02
2.940000e-06	-2.176827e-06	-2.696124e-09	-1.505847e+01	-1.762513e+02
