# Temperatura_=_28.35
# Concentracion g/m^3_=_15500.0
# C_Vs_to_Am_M_A/Vsm_=_65563218390.804596
# pendiente_HvsI_1/m_=_3716.3
# ordenada_HvsI_A/m_=_1297.0
# frecuencia_Hz_=_300978.2968641153

Tiempo_(s)	Campo_(V.s)	Magnetizacion_(V.s)	Campo_(kA/m)	Magnetizacion_(A/m)
0.000000e+00	-2.863238e-06	-3.313429e-09	-1.978328e+01	-2.170941e+02
1.000000e-08	-2.862562e-06	-3.317798e-09	-1.977862e+01	-2.171748e+02
2.000000e-08	-2.861006e-06	-3.319495e-09	-1.976787e+01	-2.172661e+02
3.000000e-08	-2.858148e-06	-3.318397e-09	-1.974812e+01	-2.172680e+02
4.000000e-08	-2.854137e-06	-3.315768e-09	-1.972041e+01	-2.171133e+02
5.000000e-08	-2.849343e-06	-3.310800e-09	-1.968728e+01	-2.168211e+02
6.000000e-08	-2.843687e-06	-3.302193e-09	-1.964820e+01	-2.164869e+02
7.000000e-08	-2.837156e-06	-3.291426e-09	-1.960307e+01	-2.162118e+02
8.000000e-08	-2.829632e-06	-3.324700e-09	-1.955109e+01	-2.160198e+02
9.000000e-08	-2.820940e-06	-3.377729e-09	-1.949103e+01	-2.158274e+02
1.000000e-07	-2.810795e-06	-3.338234e-09	-1.942094e+01	-2.154958e+02
1.100000e-07	-2.799233e-06	-3.164702e-09	-1.934105e+01	-2.149341e+02
1.200000e-07	-2.786874e-06	-3.180677e-09	-1.925566e+01	-2.141800e+02
1.300000e-07	-2.773814e-06	-3.367280e-09	-1.916542e+01	-2.133949e+02
1.400000e-07	-2.759782e-06	-3.333715e-09	-1.906847e+01	-2.127676e+02
1.500000e-07	-2.744765e-06	-3.111878e-09	-1.896471e+01	-2.123872e+02
1.600000e-07	-2.728544e-06	-3.287273e-09	-1.885263e+01	-2.121743e+02
1.700000e-07	-2.710939e-06	-3.394142e-09	-1.873099e+01	-2.119236e+02
1.800000e-07	-2.692469e-06	-3.113571e-09	-1.860337e+01	-2.114326e+02
1.900000e-07	-2.673416e-06	-3.192327e-09	-1.847173e+01	-2.106326e+02
2.000000e-07	-2.653468e-06	-3.327932e-09	-1.833390e+01	-2.096305e+02
2.100000e-07	-2.632509e-06	-3.113425e-09	-1.818909e+01	-2.086324e+02
2.200000e-07	-2.610775e-06	-3.091394e-09	-1.803892e+01	-2.078010e+02
2.300000e-07	-2.588223e-06	-3.324356e-09	-1.788309e+01	-2.071450e+02
2.400000e-07	-2.564656e-06	-3.203848e-09	-1.772026e+01	-2.065174e+02
2.500000e-07	-2.540267e-06	-3.063478e-09	-1.755175e+01	-2.057223e+02
2.600000e-07	-2.515060e-06	-3.134354e-09	-1.737758e+01	-2.046531e+02
2.700000e-07	-2.488735e-06	-3.120638e-09	-1.719570e+01	-2.033662e+02
2.800000e-07	-2.461283e-06	-3.081522e-09	-1.700601e+01	-2.020388e+02
2.900000e-07	-2.432920e-06	-3.106228e-09	-1.681004e+01	-2.008439e+02
3.000000e-07	-2.403712e-06	-3.008520e-09	-1.660823e+01	-1.998333e+02
3.100000e-07	-2.373724e-06	-3.046888e-09	-1.640103e+01	-1.989080e+02
3.200000e-07	-2.343035e-06	-3.106629e-09	-1.618899e+01	-1.978954e+02
3.300000e-07	-2.311538e-06	-2.956178e-09	-1.597136e+01	-1.966730e+02
3.400000e-07	-2.279307e-06	-2.964027e-09	-1.574867e+01	-1.952498e+02
3.500000e-07	-2.246507e-06	-2.978736e-09	-1.552204e+01	-1.937502e+02
3.600000e-07	-2.212919e-06	-2.902461e-09	-1.528997e+01	-1.923176e+02
3.700000e-07	-2.178200e-06	-2.942731e-09	-1.505008e+01	-1.910105e+02
3.800000e-07	-2.142412e-06	-2.952988e-09	-1.480281e+01	-1.897670e+02
3.900000e-07	-2.105965e-06	-2.827373e-09	-1.455098e+01	-1.884583e+02
4.000000e-07	-2.068970e-06	-2.860182e-09	-1.429536e+01	-1.869879e+02
4.100000e-07	-2.031211e-06	-2.887713e-09	-1.403447e+01	-1.853605e+02
4.200000e-07	-1.992690e-06	-2.773088e-09	-1.376831e+01	-1.836728e+02
4.300000e-07	-1.953419e-06	-2.743351e-09	-1.349697e+01	-1.820359e+02
4.400000e-07	-1.913418e-06	-2.770180e-09	-1.322059e+01	-1.804913e+02
4.500000e-07	-1.872966e-06	-2.755868e-09	-1.294109e+01	-1.789830e+02
4.600000e-07	-1.832170e-06	-2.717757e-09	-1.265922e+01	-1.774029e+02
4.700000e-07	-1.790667e-06	-2.683356e-09	-1.237245e+01	-1.756742e+02
4.800000e-07	-1.748068e-06	-2.631622e-09	-1.207812e+01	-1.738065e+02
4.900000e-07	-1.704508e-06	-2.620602e-09	-1.177714e+01	-1.718849e+02
5.000000e-07	-1.660352e-06	-2.602347e-09	-1.147206e+01	-1.700021e+02
5.100000e-07	-1.615809e-06	-2.557850e-09	-1.116429e+01	-1.681878e+02
5.200000e-07	-1.570801e-06	-2.529488e-09	-1.085331e+01	-1.663881e+02
5.300000e-07	-1.525221e-06	-2.514635e-09	-1.053838e+01	-1.645091e+02
5.400000e-07	-1.479050e-06	-2.488112e-09	-1.021936e+01	-1.624888e+02
5.500000e-07	-1.432294e-06	-2.441950e-09	-9.896308e+00	-1.603438e+02
5.600000e-07	-1.384999e-06	-2.394968e-09	-9.569527e+00	-1.581556e+02
5.700000e-07	-1.337246e-06	-2.354452e-09	-9.239582e+00	-1.560088e+02
5.800000e-07	-1.289133e-06	-2.351425e-09	-8.907149e+00	-1.539283e+02
5.900000e-07	-1.240655e-06	-2.323669e-09	-8.572196e+00	-1.518619e+02
6.000000e-07	-1.191781e-06	-2.271991e-09	-8.234505e+00	-1.497200e+02
6.100000e-07	-1.142351e-06	-2.233773e-09	-7.892969e+00	-1.474401e+02
6.200000e-07	-1.092151e-06	-2.204682e-09	-7.546120e+00	-1.450295e+02
6.300000e-07	-1.041202e-06	-2.171700e-09	-7.194091e+00	-1.425548e+02
6.400000e-07	-9.897426e-07	-2.124883e-09	-6.838538e+00	-1.400889e+02
6.500000e-07	-9.379116e-07	-2.079954e-09	-6.480417e+00	-1.376561e+02
6.600000e-07	-8.857205e-07	-2.044701e-09	-6.119807e+00	-1.352158e+02
6.700000e-07	-8.332430e-07	-2.020687e-09	-5.757218e+00	-1.326939e+02
6.800000e-07	-7.805229e-07	-1.974777e-09	-5.392954e+00	-1.300382e+02
6.900000e-07	-7.275444e-07	-1.921356e-09	-5.026903e+00	-1.272559e+02
7.000000e-07	-6.742227e-07	-1.879972e-09	-4.658481e+00	-1.244066e+02
7.100000e-07	-6.205805e-07	-1.848232e-09	-4.287846e+00	-1.215580e+02
7.200000e-07	-5.667690e-07	-1.808036e-09	-3.916040e+00	-1.187374e+02
7.300000e-07	-5.127770e-07	-1.755045e-09	-3.542987e+00	-1.159119e+02
7.400000e-07	-4.585934e-07	-1.704855e-09	-3.168610e+00	-1.130099e+02
7.500000e-07	-4.042853e-07	-1.659331e-09	-2.793373e+00	-1.099676e+02
7.600000e-07	-3.498946e-07	-1.617971e-09	-2.417566e+00	-1.067665e+02
7.700000e-07	-2.954374e-07	-1.563115e-09	-2.041298e+00	-1.034399e+02
7.800000e-07	-2.409026e-07	-1.507132e-09	-1.664495e+00	-1.000463e+02
7.900000e-07	-1.862664e-07	-1.460388e-09	-1.286991e+00	-9.663098e+01
8.000000e-07	-1.315800e-07	-1.415206e-09	-9.091403e-01	-9.319960e+01
8.100000e-07	-7.688549e-08	-1.359119e-09	-5.312334e-01	-8.971905e+01
8.200000e-07	-2.212505e-08	-1.295743e-09	-1.528711e-01	-8.613981e+01
8.300000e-07	3.268150e-08	-1.238625e-09	2.258099e-01	-8.242385e+01
8.400000e-07	8.742759e-08	-1.185123e-09	6.040732e-01	-7.856165e+01
8.500000e-07	1.421024e-07	-1.128954e-09	9.818442e-01	-7.457172e+01
8.600000e-07	1.967483e-07	-1.062716e-09	1.359415e+00	-7.048676e+01
8.700000e-07	2.513792e-07	-9.973470e-10	1.736882e+00	-6.633530e+01
8.800000e-07	3.059522e-07	-9.372133e-10	2.113950e+00	-6.212740e+01
8.900000e-07	3.603927e-07	-8.773389e-10	2.490101e+00	-5.784873e+01
9.000000e-07	4.147121e-07	-8.078005e-10	2.865417e+00	-5.346425e+01
9.100000e-07	4.688994e-07	-7.327098e-10	3.239819e+00	-4.893051e+01
9.200000e-07	5.229321e-07	-6.635546e-10	3.613153e+00	-4.421264e+01
9.300000e-07	5.768221e-07	-5.939685e-10	3.985501e+00	-3.929924e+01
9.400000e-07	6.304961e-07	-5.174592e-10	4.356356e+00	-3.420676e+01
9.500000e-07	6.838341e-07	-4.320235e-10	4.724891e+00	-2.896831e+01
9.600000e-07	7.368882e-07	-3.487331e-10	5.091464e+00	-2.361048e+01
9.700000e-07	7.897201e-07	-2.692455e-10	5.456501e+00	-1.813016e+01
9.800000e-07	8.422688e-07	-1.871368e-10	5.819581e+00	-1.248630e+01
9.900000e-07	8.945358e-07	-9.204686e-11	6.180716e+00	-6.613996e+00
1.000000e-06	9.465345e-07	8.363500e-12	6.539996e+00	-4.548176e-01
1.010000e-06	9.981349e-07	1.052542e-10	6.896524e+00	6.014173e+00
1.020000e-06	1.049130e-06	2.056959e-10	7.248870e+00	1.277095e+01
1.030000e-06	1.099425e-06	3.123751e-10	7.596380e+00	1.976511e+01
1.040000e-06	1.149074e-06	4.267329e-10	7.939422e+00	2.695007e+01
1.050000e-06	1.198188e-06	5.399147e-10	8.278770e+00	3.430983e+01
1.060000e-06	1.246891e-06	6.512644e-10	8.615284e+00	4.186207e+01
1.070000e-06	1.295284e-06	7.671891e-10	8.949653e+00	4.963434e+01
1.080000e-06	1.343345e-06	8.912272e-10	9.281723e+00	5.762793e+01
1.090000e-06	1.390934e-06	1.016875e-09	9.610533e+00	6.579154e+01
1.100000e-06	1.438011e-06	1.140401e-09	9.935811e+00	7.402150e+01
1.110000e-06	1.484586e-06	1.265653e-09	1.025761e+01	8.218881e+01
1.120000e-06	1.530556e-06	1.390110e-09	1.057524e+01	9.017773e+01
1.130000e-06	1.575934e-06	1.509006e-09	1.088878e+01	9.791490e+01
1.140000e-06	1.620848e-06	1.617872e-09	1.119911e+01	1.053750e+02
1.150000e-06	1.665423e-06	1.722507e-09	1.150709e+01	1.125629e+02
1.160000e-06	1.709681e-06	1.825760e-09	1.181289e+01	1.194847e+02
1.170000e-06	1.753385e-06	1.927711e-09	1.211486e+01	1.261253e+02
1.180000e-06	1.796186e-06	2.025198e-09	1.241059e+01	1.324438e+02
1.190000e-06	1.838007e-06	2.117511e-09	1.269955e+01	1.383879e+02
1.200000e-06	1.879057e-06	2.203980e-09	1.298318e+01	1.439193e+02
1.210000e-06	1.919543e-06	2.280783e-09	1.326291e+01	1.490348e+02
1.220000e-06	1.959497e-06	2.348818e-09	1.353897e+01	1.537730e+02
1.230000e-06	1.998764e-06	2.410987e-09	1.381028e+01	1.582011e+02
1.240000e-06	2.037337e-06	2.472977e-09	1.407680e+01	1.623878e+02
1.250000e-06	2.075259e-06	2.534529e-09	1.433882e+01	1.663754e+02
1.260000e-06	2.112460e-06	2.594085e-09	1.459585e+01	1.701654e+02
1.270000e-06	2.149057e-06	2.647077e-09	1.484872e+01	1.737258e+02
1.280000e-06	2.185118e-06	2.694084e-09	1.509788e+01	1.770172e+02
1.290000e-06	2.220316e-06	2.737376e-09	1.534107e+01	1.800229e+02
1.300000e-06	2.254309e-06	2.777255e-09	1.557595e+01	1.827655e+02
1.310000e-06	2.287307e-06	2.812801e-09	1.580394e+01	1.853005e+02
1.320000e-06	2.319689e-06	2.845684e-09	1.602769e+01	1.876886e+02
1.330000e-06	2.351371e-06	2.878320e-09	1.624659e+01	1.899664e+02
1.340000e-06	2.382230e-06	2.910733e-09	1.645980e+01	1.921321e+02
1.350000e-06	2.412315e-06	2.942676e-09	1.666768e+01	1.941568e+02
1.360000e-06	2.441586e-06	2.970348e-09	1.686992e+01	1.960130e+02
1.370000e-06	2.470181e-06	2.994387e-09	1.706750e+01	1.977013e+02
1.380000e-06	2.498083e-06	3.016269e-09	1.726028e+01	1.992570e+02
1.390000e-06	2.524875e-06	3.037684e-09	1.744540e+01	2.007328e+02
1.400000e-06	2.550432e-06	3.057842e-09	1.762198e+01	2.021699e+02
1.410000e-06	2.575037e-06	3.077703e-09	1.779199e+01	2.035777e+02
1.420000e-06	2.598768e-06	3.098389e-09	1.795596e+01	2.049352e+02
1.430000e-06	2.621580e-06	3.118662e-09	1.811357e+01	2.062097e+02
1.440000e-06	2.643445e-06	3.139184e-09	1.826465e+01	2.073798e+02
1.450000e-06	2.664483e-06	3.158103e-09	1.841001e+01	2.084454e+02
1.460000e-06	2.684853e-06	3.173133e-09	1.855075e+01	2.094210e+02
1.470000e-06	2.704287e-06	3.184168e-09	1.868503e+01	2.103221e+02
1.480000e-06	2.722633e-06	3.194821e-09	1.881179e+01	2.111572e+02
1.490000e-06	2.740085e-06	3.206938e-09	1.893237e+01	2.119317e+02
1.500000e-06	2.756533e-06	3.219578e-09	1.904602e+01	2.126573e+02
1.510000e-06	2.771801e-06	3.232065e-09	1.915151e+01	2.133536e+02
1.520000e-06	2.786108e-06	3.244822e-09	1.925036e+01	2.140364e+02
1.530000e-06	2.799468e-06	3.257462e-09	1.934267e+01	2.147012e+02
1.540000e-06	2.811806e-06	3.267500e-09	1.942792e+01	2.153173e+02
1.550000e-06	2.823012e-06	3.273915e-09	1.950535e+01	2.158433e+02
1.560000e-06	2.832870e-06	3.278619e-09	1.957346e+01	2.162565e+02
1.570000e-06	2.841607e-06	3.284147e-09	1.963383e+01	2.165758e+02
1.580000e-06	2.849439e-06	3.290615e-09	1.968794e+01	2.168552e+02
1.590000e-06	2.856321e-06	3.296901e-09	1.973549e+01	2.171498e+02
1.600000e-06	2.862186e-06	3.303175e-09	1.977602e+01	2.174749e+02
1.610000e-06	2.867153e-06	3.308545e-09	1.981034e+01	2.177906e+02
1.620000e-06	2.871376e-06	3.311857e-09	1.983952e+01	2.180273e+02
1.630000e-06	2.874492e-06	3.316331e-09	1.986105e+01	2.181374e+02
1.640000e-06	2.876278e-06	3.320864e-09	1.987339e+01	2.181359e+02
1.650000e-06	2.877018e-06	3.325054e-09	1.987850e+01	2.180960e+02
1.660000e-06	2.876850e-06	3.326879e-09	1.987734e+01	2.180994e+02
1.670000e-06	2.875775e-06	3.322020e-09	1.986991e+01	2.181744e+02
1.680000e-06	2.873804e-06	3.317181e-09	1.985629e+01	2.182694e+02
1.690000e-06	2.870962e-06	3.315880e-09	1.983665e+01	2.182855e+02
1.700000e-06	2.867386e-06	3.317003e-09	1.981195e+01	2.181486e+02
1.710000e-06	2.862908e-06	3.320277e-09	1.978101e+01	2.178676e+02
1.720000e-06	2.857180e-06	3.329397e-09	1.974143e+01	2.175326e+02
1.730000e-06	2.850373e-06	3.335658e-09	1.969440e+01	2.172484e+02
1.740000e-06	2.842819e-06	3.257674e-09	1.964221e+01	2.170499e+02
1.750000e-06	2.834123e-06	3.199062e-09	1.958212e+01	2.168642e+02
1.760000e-06	2.823695e-06	3.289877e-09	1.951007e+01	2.165538e+02
1.770000e-06	2.812059e-06	3.432392e-09	1.942967e+01	2.160178e+02
1.780000e-06	2.800255e-06	3.299270e-09	1.934811e+01	2.152784e+02
1.790000e-06	2.788119e-06	3.142134e-09	1.926426e+01	2.144872e+02
1.800000e-06	2.774377e-06	3.315410e-09	1.916931e+01	2.138362e+02
1.810000e-06	2.759087e-06	3.327854e-09	1.906366e+01	2.134303e+02
1.820000e-06	2.743273e-06	3.101806e-09	1.895440e+01	2.132082e+02
1.830000e-06	2.726589e-06	3.194555e-09	1.883912e+01	2.129727e+02
1.840000e-06	2.708428e-06	3.416294e-09	1.871364e+01	2.125141e+02
1.850000e-06	2.689396e-06	3.161656e-09	1.858215e+01	2.117451e+02
1.860000e-06	2.669867e-06	3.072382e-09	1.844721e+01	2.107556e+02
1.870000e-06	2.649138e-06	3.382231e-09	1.830398e+01	2.097476e+02
1.880000e-06	2.627149e-06	3.187489e-09	1.815205e+01	2.088949e+02
1.890000e-06	2.604264e-06	2.968123e-09	1.799393e+01	2.082252e+02
1.900000e-06	2.580326e-06	3.235616e-09	1.782853e+01	2.076045e+02
1.910000e-06	2.555554e-06	3.208832e-09	1.765737e+01	2.068352e+02
1.920000e-06	2.530140e-06	3.080649e-09	1.748178e+01	2.057958e+02
1.930000e-06	2.503771e-06	3.150255e-09	1.729958e+01	2.045252e+02
1.940000e-06	2.476622e-06	3.066618e-09	1.711200e+01	2.031928e+02
1.950000e-06	2.448834e-06	3.077280e-09	1.692000e+01	2.019787e+02
1.960000e-06	2.419841e-06	3.152513e-09	1.671968e+01	2.009509e+02
1.970000e-06	2.389595e-06	2.958729e-09	1.651070e+01	2.000246e+02
1.980000e-06	2.358526e-06	2.978912e-09	1.629603e+01	1.990293e+02
1.990000e-06	2.326761e-06	3.126926e-09	1.607655e+01	1.978317e+02
2.000000e-06	2.294298e-06	2.950120e-09	1.585225e+01	1.964257e+02
2.010000e-06	2.261005e-06	2.969482e-09	1.562221e+01	1.949270e+02
2.020000e-06	2.226862e-06	3.025208e-09	1.538630e+01	1.934825e+02
2.030000e-06	2.192121e-06	2.849519e-09	1.514627e+01	1.921631e+02
2.040000e-06	2.156794e-06	2.919605e-09	1.490218e+01	1.909188e+02
2.050000e-06	2.120662e-06	2.948671e-09	1.465253e+01	1.896233e+02
2.060000e-06	2.083684e-06	2.791518e-09	1.439703e+01	1.881721e+02
2.070000e-06	2.045665e-06	2.847784e-09	1.413434e+01	1.865583e+02
2.080000e-06	2.006704e-06	2.873891e-09	1.386514e+01	1.848714e+02
2.090000e-06	1.967220e-06	2.791999e-09	1.359233e+01	1.832255e+02
2.100000e-06	1.927160e-06	2.780358e-09	1.331554e+01	1.816724e+02
2.110000e-06	1.886429e-06	2.723003e-09	1.303412e+01	1.801653e+02
2.120000e-06	1.845067e-06	2.712205e-09	1.274833e+01	1.785980e+02
2.130000e-06	1.803102e-06	2.723419e-09	1.245837e+01	1.768866e+02
2.140000e-06	1.760583e-06	2.670784e-09	1.216459e+01	1.750308e+02
2.150000e-06	1.717522e-06	2.649572e-09	1.186706e+01	1.731102e+02
2.160000e-06	1.674020e-06	2.621984e-09	1.156649e+01	1.712205e+02
2.170000e-06	1.630005e-06	2.595446e-09	1.126237e+01	1.694003e+02
2.180000e-06	1.585370e-06	2.561190e-09	1.095397e+01	1.676037e+02
2.190000e-06	1.540077e-06	2.521074e-09	1.064103e+01	1.657375e+02
2.200000e-06	1.494088e-06	2.501390e-09	1.032327e+01	1.637332e+02
2.210000e-06	1.447687e-06	2.476358e-09	1.000266e+01	1.615986e+02
2.220000e-06	1.400919e-06	2.457652e-09	9.679526e+00	1.594106e+02
2.230000e-06	1.353577e-06	2.423007e-09	9.352419e+00	1.572570e+02
2.240000e-06	1.305655e-06	2.357556e-09	9.021306e+00	1.551708e+02
2.250000e-06	1.257112e-06	2.339916e-09	8.685900e+00	1.531073e+02
2.260000e-06	1.208040e-06	2.324663e-09	8.346846e+00	1.509777e+02
2.270000e-06	1.158631e-06	2.276358e-09	8.005459e+00	1.487137e+02
2.280000e-06	1.108892e-06	2.242918e-09	7.661790e+00	1.463149e+02
2.290000e-06	1.058720e-06	2.198607e-09	7.315135e+00	1.438434e+02
2.300000e-06	1.008046e-06	2.176069e-09	6.965003e+00	1.413743e+02
2.310000e-06	9.569707e-07	2.146663e-09	6.612104e+00	1.389391e+02
2.320000e-06	9.056344e-07	2.092520e-09	6.257400e+00	1.365032e+02
2.330000e-06	8.540872e-07	2.055786e-09	5.901239e+00	1.339936e+02
2.340000e-06	8.022463e-07	2.021768e-09	5.543049e+00	1.313533e+02
2.350000e-06	7.499329e-07	1.985785e-09	5.181595e+00	1.285825e+02
2.360000e-06	6.971275e-07	1.937407e-09	4.816740e+00	1.257370e+02
2.370000e-06	6.439319e-07	1.884207e-09	4.449190e+00	1.228862e+02
2.380000e-06	5.904191e-07	1.844778e-09	4.079448e+00	1.200634e+02
2.390000e-06	5.365518e-07	1.807835e-09	3.707257e+00	1.172417e+02
2.400000e-06	4.823066e-07	1.767369e-09	3.332454e+00	1.143517e+02
2.410000e-06	4.277951e-07	1.721452e-09	2.955812e+00	1.113265e+02
2.420000e-06	3.731663e-07	1.668846e-09	2.578359e+00	1.081418e+02
2.430000e-06	3.183871e-07	1.621808e-09	2.199867e+00	1.048262e+02
2.440000e-06	2.634334e-07	1.569868e-09	1.820170e+00	1.014373e+02
2.450000e-06	2.083996e-07	1.511207e-09	1.439918e+00	9.802338e+01
2.460000e-06	1.533143e-07	1.456995e-09	1.059311e+00	9.459495e+01
2.470000e-06	9.821761e-08	1.403676e-09	6.786258e-01	9.112219e+01
2.480000e-06	4.311491e-08	1.355683e-09	2.978986e-01	8.755595e+01
2.490000e-06	-1.199225e-08	1.301504e-09	-8.285937e-02	8.385586e+01
2.500000e-06	-6.711909e-08	1.240286e-09	-4.637534e-01	8.000904e+01
2.510000e-06	-1.222293e-07	1.179091e-09	-8.445327e-01	7.603154e+01
2.520000e-06	-1.773292e-07	1.116403e-09	-1.225240e+00	7.195538e+01
2.530000e-06	-2.323995e-07	1.051987e-09	-1.605743e+00	6.781035e+01
2.540000e-06	-2.873484e-07	9.848392e-10	-1.985408e+00	6.360895e+01
2.550000e-06	-3.421871e-07	9.201416e-10	-2.364311e+00	5.933944e+01
2.560000e-06	-3.969087e-07	8.553831e-10	-2.742405e+00	5.496857e+01
2.570000e-06	-4.514810e-07	7.859323e-10	-3.119468e+00	5.045299e+01
2.580000e-06	-5.058776e-07	7.127922e-10	-3.495316e+00	4.575609e+01
2.590000e-06	-5.599748e-07	6.389197e-10	-3.869096e+00	4.086351e+01
2.600000e-06	-6.136692e-07	5.619346e-10	-4.240092e+00	3.578896e+01
2.610000e-06	-6.669511e-07	4.822346e-10	-4.608239e+00	3.056474e+01
2.620000e-06	-7.198014e-07	3.997880e-10	-4.973404e+00	2.521938e+01
2.630000e-06	-7.721883e-07	3.153256e-10	-5.335367e+00	1.975372e+01
2.640000e-06	-8.242139e-07	2.298306e-10	-5.694833e+00	1.413048e+01
2.650000e-06	-8.759481e-07	1.420120e-10	-6.052286e+00	8.286048e+00
2.660000e-06	-9.273625e-07	5.008737e-11	-6.407529e+00	2.159701e+00
2.670000e-06	-9.785045e-07	-4.914053e-11	-6.760890e+00	-4.276207e+00
2.680000e-06	-1.029334e-06	-1.508202e-10	-7.112091e+00	-1.100411e+01
2.690000e-06	-1.079745e-06	-2.536704e-10	-7.460402e+00	-1.797521e+01
2.700000e-06	-1.129705e-06	-3.606780e-10	-7.805598e+00	-2.514096e+01
2.710000e-06	-1.179276e-06	-4.749131e-10	-8.148105e+00	-3.248143e+01
2.720000e-06	-1.228457e-06	-5.926601e-10	-8.487914e+00	-4.001140e+01
2.730000e-06	-1.277096e-06	-7.114286e-10	-8.823981e+00	-4.775908e+01
2.740000e-06	-1.324979e-06	-8.339345e-10	-9.154822e+00	-5.573018e+01
2.750000e-06	-1.372041e-06	-9.586892e-10	-9.479993e+00	-6.387955e+01
2.760000e-06	-1.418521e-06	-1.083545e-09	-9.801143e+00	-7.210824e+01
2.770000e-06	-1.464558e-06	-1.205887e-09	-1.011923e+01	-8.028815e+01
2.780000e-06	-1.510199e-06	-1.326330e-09	-1.043459e+01	-8.830038e+01
2.790000e-06	-1.555488e-06	-1.444955e-09	-1.074750e+01	-9.606630e+01
2.800000e-06	-1.600200e-06	-1.562894e-09	-1.105644e+01	-1.035560e+02
2.810000e-06	-1.644280e-06	-1.677872e-09	-1.136101e+01	-1.107723e+02
2.820000e-06	-1.687908e-06	-1.786203e-09	-1.166245e+01	-1.177226e+02
2.830000e-06	-1.731178e-06	-1.888088e-09	-1.196142e+01	-1.243947e+02
2.840000e-06	-1.773978e-06	-1.985374e-09	-1.225714e+01	-1.307500e+02
2.850000e-06	-1.816155e-06	-2.077674e-09	-1.254856e+01	-1.367364e+02
2.860000e-06	-1.857724e-06	-2.160758e-09	-1.283578e+01	-1.423127e+02
2.870000e-06	-1.898644e-06	-2.237041e-09	-1.311851e+01	-1.474714e+02
2.880000e-06	-1.938895e-06	-2.310494e-09	-1.339662e+01	-1.522469e+02
2.890000e-06	-1.978569e-06	-2.382224e-09	-1.367074e+01	-1.567045e+02
2.900000e-06	-2.017714e-06	-2.450314e-09	-1.394121e+01	-1.609142e+02
2.910000e-06	-2.056183e-06	-2.513951e-09	-1.420702e+01	-1.649221e+02
2.920000e-06	-2.093637e-06	-2.574262e-09	-1.446580e+01	-1.687342e+02
2.930000e-06	-2.130052e-06	-2.631699e-09	-1.471741e+01	-1.723210e+02
2.940000e-06	-2.165743e-06	-2.684459e-09	-1.496401e+01	-1.756425e+02
