# Temperatura_=_16.82
# Concentracion g/m^3_=_15500.0
# C_Vs_to_Am_M_A/Vsm_=_65563218390.804596
# pendiente_HvsI_1/m_=_3716.3
# ordenada_HvsI_A/m_=_1297.0
# frecuencia_Hz_=_301004.2118069819

Tiempo_(s)	Campo_(V.s)	Magnetizacion_(V.s)	Campo_(kA/m)	Magnetizacion_(A/m)
0.000000e+00	-2.859783e-06	-3.116298e-09	-1.978091e+01	-2.033696e+02
1.000000e-08	-2.859000e-06	-3.117464e-09	-1.977550e+01	-2.033893e+02
2.000000e-08	-2.857281e-06	-3.117387e-09	-1.976361e+01	-2.034120e+02
3.000000e-08	-2.854295e-06	-3.115706e-09	-1.974296e+01	-2.033466e+02
4.000000e-08	-2.850267e-06	-3.111850e-09	-1.971510e+01	-2.031313e+02
5.000000e-08	-2.845474e-06	-3.105333e-09	-1.968194e+01	-2.027911e+02
6.000000e-08	-2.839811e-06	-3.097983e-09	-1.964277e+01	-2.024318e+02
7.000000e-08	-2.833210e-06	-3.092625e-09	-1.959711e+01	-2.021648e+02
8.000000e-08	-2.825619e-06	-3.114672e-09	-1.954460e+01	-2.020158e+02
9.000000e-08	-2.816852e-06	-3.147317e-09	-1.948397e+01	-2.018857e+02
1.000000e-07	-2.806589e-06	-3.125108e-09	-1.941297e+01	-2.016059e+02
1.100000e-07	-2.794962e-06	-3.018349e-09	-1.933255e+01	-2.010570e+02
1.200000e-07	-2.782560e-06	-3.002112e-09	-1.924677e+01	-2.002708e+02
1.300000e-07	-2.769443e-06	-3.091304e-09	-1.915604e+01	-1.994346e+02
1.400000e-07	-2.755347e-06	-3.088032e-09	-1.905854e+01	-1.987843e+02
1.500000e-07	-2.740263e-06	-2.986385e-09	-1.895420e+01	-1.984483e+02
1.600000e-07	-2.724009e-06	-3.053586e-09	-1.884178e+01	-1.983514e+02
1.700000e-07	-2.706395e-06	-3.102112e-09	-1.871994e+01	-1.982482e+02
1.800000e-07	-2.687802e-06	-2.957034e-09	-1.859133e+01	-1.978738e+02
1.900000e-07	-2.668555e-06	-2.973681e-09	-1.845821e+01	-1.971122e+02
2.000000e-07	-2.648499e-06	-3.023705e-09	-1.831948e+01	-1.960698e+02
2.100000e-07	-2.627485e-06	-2.910817e-09	-1.817413e+01	-1.949998e+02
2.200000e-07	-2.605736e-06	-2.916646e-09	-1.802369e+01	-1.941295e+02
2.300000e-07	-2.583173e-06	-3.040871e-09	-1.786763e+01	-1.935062e+02
2.400000e-07	-2.559589e-06	-2.970648e-09	-1.770449e+01	-1.929695e+02
2.500000e-07	-2.535186e-06	-2.884629e-09	-1.753570e+01	-1.922667e+02
2.600000e-07	-2.509965e-06	-2.902535e-09	-1.736125e+01	-1.912305e+02
2.700000e-07	-2.483616e-06	-2.881244e-09	-1.717900e+01	-1.898958e+02
2.800000e-07	-2.456085e-06	-2.864177e-09	-1.698857e+01	-1.884747e+02
2.900000e-07	-2.427662e-06	-2.871863e-09	-1.679196e+01	-1.872099e+02
3.000000e-07	-2.398449e-06	-2.809811e-09	-1.658990e+01	-1.862108e+02
3.100000e-07	-2.368454e-06	-2.824429e-09	-1.638243e+01	-1.853855e+02
3.200000e-07	-2.337763e-06	-2.866463e-09	-1.617014e+01	-1.845123e+02
3.300000e-07	-2.306296e-06	-2.763892e-09	-1.595248e+01	-1.833951e+02
3.400000e-07	-2.274094e-06	-2.728902e-09	-1.572974e+01	-1.819930e+02
3.500000e-07	-2.241288e-06	-2.752578e-09	-1.550283e+01	-1.804342e+02
3.600000e-07	-2.207676e-06	-2.716729e-09	-1.527033e+01	-1.789146e+02
3.700000e-07	-2.172943e-06	-2.705675e-09	-1.503009e+01	-1.775571e+02
3.800000e-07	-2.137125e-06	-2.705913e-09	-1.478234e+01	-1.763337e+02
3.900000e-07	-2.100616e-06	-2.643547e-09	-1.452981e+01	-1.751011e+02
4.000000e-07	-2.063525e-06	-2.636425e-09	-1.427326e+01	-1.737145e+02
4.100000e-07	-2.025705e-06	-2.648478e-09	-1.401166e+01	-1.721323e+02
4.200000e-07	-1.987140e-06	-2.579526e-09	-1.374490e+01	-1.704368e+02
4.300000e-07	-1.947817e-06	-2.538370e-09	-1.347291e+01	-1.687612e+02
4.400000e-07	-1.907827e-06	-2.549953e-09	-1.319630e+01	-1.671834e+02
4.500000e-07	-1.867407e-06	-2.540949e-09	-1.291672e+01	-1.656693e+02
4.600000e-07	-1.826625e-06	-2.499238e-09	-1.263463e+01	-1.641033e+02
4.700000e-07	-1.785144e-06	-2.462016e-09	-1.234772e+01	-1.623815e+02
4.800000e-07	-1.742634e-06	-2.424747e-09	-1.205368e+01	-1.604920e+02
4.900000e-07	-1.699102e-06	-2.408903e-09	-1.175257e+01	-1.585232e+02
5.000000e-07	-1.654876e-06	-2.387575e-09	-1.144666e+01	-1.565954e+02
5.100000e-07	-1.610242e-06	-2.341292e-09	-1.113793e+01	-1.547686e+02
5.200000e-07	-1.565186e-06	-2.313177e-09	-1.082628e+01	-1.529979e+02
5.300000e-07	-1.519578e-06	-2.301491e-09	-1.051081e+01	-1.511662e+02
5.400000e-07	-1.473406e-06	-2.271383e-09	-1.019145e+01	-1.491705e+02
5.500000e-07	-1.426740e-06	-2.222195e-09	-9.868657e+00	-1.469945e+02
5.600000e-07	-1.379533e-06	-2.181193e-09	-9.542130e+00	-1.447168e+02
5.700000e-07	-1.331762e-06	-2.147632e-09	-9.211704e+00	-1.424506e+02
5.800000e-07	-1.283588e-06	-2.131463e-09	-8.878490e+00	-1.402622e+02
5.900000e-07	-1.235127e-06	-2.102200e-09	-8.543287e+00	-1.381283e+02
6.000000e-07	-1.186268e-06	-2.054110e-09	-8.205335e+00	-1.359599e+02
6.100000e-07	-1.136833e-06	-2.015518e-09	-7.863391e+00	-1.336722e+02
6.200000e-07	-1.086680e-06	-1.986816e-09	-7.516485e+00	-1.312451e+02
6.300000e-07	-1.035841e-06	-1.950108e-09	-7.164841e+00	-1.287311e+02
6.400000e-07	-9.845020e-07	-1.898991e-09	-6.809730e+00	-1.262094e+02
6.500000e-07	-9.327483e-07	-1.854541e-09	-6.451754e+00	-1.237225e+02
6.600000e-07	-8.805960e-07	-1.823443e-09	-6.091020e+00	-1.212453e+02
6.700000e-07	-8.281599e-07	-1.797078e-09	-5.728323e+00	-1.187079e+02
6.800000e-07	-7.754933e-07	-1.753512e-09	-5.364032e+00	-1.160520e+02
6.900000e-07	-7.225213e-07	-1.703087e-09	-4.997629e+00	-1.132778e+02
7.000000e-07	-6.692365e-07	-1.663316e-09	-4.629061e+00	-1.104449e+02
7.100000e-07	-6.156847e-07	-1.627896e-09	-4.258647e+00	-1.076289e+02
7.200000e-07	-5.618887e-07	-1.583327e-09	-3.886544e+00	-1.048648e+02
7.300000e-07	-5.078936e-07	-1.532422e-09	-3.513064e+00	-1.021195e+02
7.400000e-07	-4.537574e-07	-1.488267e-09	-3.138608e+00	-9.931238e+01
7.500000e-07	-3.994843e-07	-1.448490e-09	-2.763205e+00	-9.636701e+01
7.600000e-07	-3.451193e-07	-1.405144e-09	-2.387166e+00	-9.325812e+01
7.700000e-07	-2.907083e-07	-1.348996e-09	-2.010809e+00	-9.002274e+01
7.800000e-07	-2.362098e-07	-1.294093e-09	-1.633847e+00	-8.673083e+01
7.900000e-07	-1.816459e-07	-1.249965e-09	-1.256432e+00	-8.343807e+01
8.000000e-07	-1.270650e-07	-1.205804e-09	-8.788995e-01	-8.015289e+01
8.100000e-07	-7.243676e-08	-1.151865e-09	-5.010399e-01	-7.683647e+01
8.200000e-07	-1.774268e-08	-1.093239e-09	-1.227248e-01	-7.343113e+01
8.300000e-07	3.695936e-08	-1.041112e-09	2.556453e-01	-6.989561e+01
8.400000e-07	9.163865e-08	-9.899650e-10	6.338580e-01	-6.622494e+01
8.500000e-07	1.462837e-07	-9.340184e-10	1.011834e+00	-6.244664e+01
8.600000e-07	2.008511e-07	-8.726445e-10	1.389273e+00	-5.860014e+01
8.700000e-07	2.553548e-07	-8.142109e-10	1.766271e+00	-5.471444e+01
8.800000e-07	3.097786e-07	-7.604020e-10	2.142717e+00	-5.079525e+01
8.900000e-07	3.641183e-07	-7.024776e-10	2.518580e+00	-4.682480e+01
9.000000e-07	4.183651e-07	-6.360367e-10	2.893802e+00	-4.277015e+01
9.100000e-07	4.725009e-07	-5.689283e-10	3.268255e+00	-3.859503e+01
9.200000e-07	5.265203e-07	-5.072222e-10	3.641904e+00	-3.427133e+01
9.300000e-07	5.803259e-07	-4.430649e-10	4.014073e+00	-2.978798e+01
9.400000e-07	6.338670e-07	-3.721475e-10	4.384413e+00	-2.515440e+01
9.500000e-07	6.871028e-07	-2.967612e-10	4.752641e+00	-2.039528e+01
9.600000e-07	7.401020e-07	-2.244423e-10	5.119233e+00	-1.553677e+01
9.700000e-07	7.928900e-07	-1.542276e-10	5.484364e+00	-1.058936e+01
9.800000e-07	8.454001e-07	-7.835033e-11	5.847573e+00	-5.537469e+00
9.900000e-07	8.976383e-07	5.407852e-12	6.208901e+00	-3.434848e-01
1.000000e-06	9.494987e-07	8.969555e-11	6.567615e+00	5.034047e+00
1.010000e-06	1.000921e-06	1.714957e-10	6.923297e+00	1.061830e+01
1.020000e-06	1.051807e-06	2.575376e-10	7.275275e+00	1.640219e+01
1.030000e-06	1.101999e-06	3.502470e-10	7.622446e+00	2.235492e+01
1.040000e-06	1.151500e-06	4.466854e-10	7.964845e+00	2.844316e+01
1.050000e-06	1.200450e-06	5.409639e-10	8.303428e+00	3.465270e+01
1.060000e-06	1.249045e-06	6.362297e-10	8.639555e+00	4.099533e+01
1.070000e-06	1.297415e-06	7.359811e-10	8.974130e+00	4.749535e+01
1.080000e-06	1.345468e-06	8.393235e-10	9.306508e+00	5.416354e+01
1.090000e-06	1.392971e-06	9.420170e-10	9.635082e+00	6.097498e+01
1.100000e-06	1.439904e-06	1.043364e-09	9.959713e+00	6.786477e+01
1.110000e-06	1.486346e-06	1.148009e-09	1.028095e+01	7.474457e+01
1.120000e-06	1.532302e-06	1.254546e-09	1.059882e+01	8.153033e+01
1.130000e-06	1.577708e-06	1.357719e-09	1.091289e+01	8.816591e+01
1.140000e-06	1.622578e-06	1.454860e-09	1.122326e+01	9.463073e+01
1.150000e-06	1.667089e-06	1.548633e-09	1.153114e+01	1.009293e+02
1.160000e-06	1.711233e-06	1.640872e-09	1.183648e+01	1.070705e+02
1.170000e-06	1.754771e-06	1.731986e-09	1.213763e+01	1.130480e+02
1.180000e-06	1.797448e-06	1.819542e-09	1.243282e+01	1.188325e+02
1.190000e-06	1.839144e-06	1.903672e-09	1.272123e+01	1.243772e+02
1.200000e-06	1.880041e-06	1.984875e-09	1.300411e+01	1.296354e+02
1.210000e-06	1.920405e-06	2.060420e-09	1.328331e+01	1.345802e+02
1.220000e-06	1.960221e-06	2.129562e-09	1.355871e+01	1.392170e+02
1.230000e-06	1.999381e-06	2.192857e-09	1.382958e+01	1.435826e+02
1.240000e-06	2.037887e-06	2.252857e-09	1.409592e+01	1.477288e+02
1.250000e-06	2.075676e-06	2.311372e-09	1.435731e+01	1.516973e+02
1.260000e-06	2.112720e-06	2.367958e-09	1.461354e+01	1.554997e+02
1.270000e-06	2.149222e-06	2.421345e-09	1.486602e+01	1.591127e+02
1.280000e-06	2.185210e-06	2.471205e-09	1.511494e+01	1.624938e+02
1.290000e-06	2.220250e-06	2.516723e-09	1.535731e+01	1.656094e+02
1.300000e-06	2.254080e-06	2.557016e-09	1.559131e+01	1.684594e+02
1.310000e-06	2.286978e-06	2.592561e-09	1.581887e+01	1.710820e+02
1.320000e-06	2.319261e-06	2.625486e-09	1.604217e+01	1.735360e+02
1.330000e-06	2.350879e-06	2.659822e-09	1.626086e+01	1.758699e+02
1.340000e-06	2.381672e-06	2.694224e-09	1.647386e+01	1.780988e+02
1.350000e-06	2.411649e-06	2.726216e-09	1.668120e+01	1.802037e+02
1.360000e-06	2.440819e-06	2.754352e-09	1.688297e+01	1.821523e+02
1.370000e-06	2.469308e-06	2.779340e-09	1.708003e+01	1.839281e+02
1.380000e-06	2.497103e-06	2.802754e-09	1.727228e+01	1.855463e+02
1.390000e-06	2.523765e-06	2.824351e-09	1.745671e+01	1.870477e+02
1.400000e-06	2.549158e-06	2.844582e-09	1.763235e+01	1.884760e+02
1.410000e-06	2.573602e-06	2.865017e-09	1.780142e+01	1.898555e+02
1.420000e-06	2.597193e-06	2.885663e-09	1.796460e+01	1.911845e+02
1.430000e-06	2.619885e-06	2.905338e-09	1.812156e+01	1.924469e+02
1.440000e-06	2.641674e-06	2.924290e-09	1.827227e+01	1.936289e+02
1.450000e-06	2.662638e-06	2.942424e-09	1.841728e+01	1.947283e+02
1.460000e-06	2.682910e-06	2.959570e-09	1.855750e+01	1.957492e+02
1.470000e-06	2.702321e-06	2.974412e-09	1.869176e+01	1.966916e+02
1.480000e-06	2.720675e-06	2.986289e-09	1.881871e+01	1.975480e+02
1.490000e-06	2.738038e-06	2.996411e-09	1.893882e+01	1.983123e+02
1.500000e-06	2.754406e-06	3.006941e-09	1.905203e+01	1.989955e+02
1.510000e-06	2.769708e-06	3.018231e-09	1.915787e+01	1.996296e+02
1.520000e-06	2.783981e-06	3.028627e-09	1.925660e+01	2.002538e+02
1.530000e-06	2.797298e-06	3.038530e-09	1.934871e+01	2.008876e+02
1.540000e-06	2.809634e-06	3.049099e-09	1.943404e+01	2.015134e+02
1.550000e-06	2.820726e-06	3.058348e-09	1.951076e+01	2.020837e+02
1.560000e-06	2.830439e-06	3.064868e-09	1.957794e+01	2.025537e+02
1.570000e-06	2.839085e-06	3.070053e-09	1.963775e+01	2.029148e+02
1.580000e-06	2.846838e-06	3.075975e-09	1.969137e+01	2.032043e+02
1.590000e-06	2.853629e-06	3.083713e-09	1.973835e+01	2.034794e+02
1.600000e-06	2.859469e-06	3.090661e-09	1.977874e+01	2.037733e+02
1.610000e-06	2.864424e-06	3.093716e-09	1.981302e+01	2.040670e+02
1.620000e-06	2.868512e-06	3.094781e-09	1.984130e+01	2.043010e+02
1.630000e-06	2.871470e-06	3.098342e-09	1.986175e+01	2.044216e+02
1.640000e-06	2.873167e-06	3.102323e-09	1.987349e+01	2.044264e+02
1.650000e-06	2.873891e-06	3.104560e-09	1.987850e+01	2.043726e+02
1.660000e-06	2.873743e-06	3.104707e-09	1.987748e+01	2.043363e+02
1.670000e-06	2.872672e-06	3.102679e-09	1.987007e+01	2.043516e+02
1.680000e-06	2.870689e-06	3.100804e-09	1.985635e+01	2.043780e+02
1.690000e-06	2.867834e-06	3.099402e-09	1.983661e+01	2.043261e+02
1.700000e-06	2.864225e-06	3.098285e-09	1.981164e+01	2.041273e+02
1.710000e-06	2.859725e-06	3.097102e-09	1.978051e+01	2.037965e+02
1.720000e-06	2.854010e-06	3.100680e-09	1.974098e+01	2.034331e+02
1.730000e-06	2.847190e-06	3.102461e-09	1.969381e+01	2.031528e+02
1.740000e-06	2.839546e-06	3.054986e-09	1.964094e+01	2.029938e+02
1.750000e-06	2.830740e-06	3.012171e-09	1.958003e+01	2.028693e+02
1.760000e-06	2.820304e-06	3.058248e-09	1.950784e+01	2.026131e+02
1.770000e-06	2.808574e-06	3.146814e-09	1.942671e+01	2.020947e+02
1.780000e-06	2.796566e-06	3.098572e-09	1.934365e+01	2.013270e+02
1.790000e-06	2.784236e-06	2.996451e-09	1.925836e+01	2.004845e+02
1.800000e-06	2.770374e-06	3.063537e-09	1.916248e+01	1.998049e+02
1.810000e-06	2.754995e-06	3.069480e-09	1.905610e+01	1.994350e+02
1.820000e-06	2.739033e-06	2.959650e-09	1.894570e+01	1.993221e+02
1.830000e-06	2.722230e-06	3.005801e-09	1.882947e+01	1.992334e+02
1.840000e-06	2.704027e-06	3.116851e-09	1.870356e+01	1.988973e+02
1.850000e-06	2.684964e-06	3.015023e-09	1.857170e+01	1.981759e+02
1.860000e-06	2.665304e-06	2.970016e-09	1.843572e+01	1.971528e+02
1.870000e-06	2.644421e-06	3.094414e-09	1.829127e+01	1.960728e+02
1.880000e-06	2.622313e-06	2.980894e-09	1.813836e+01	1.951747e+02
1.890000e-06	2.599289e-06	2.859179e-09	1.797910e+01	1.945295e+02
1.900000e-06	2.575257e-06	2.985484e-09	1.781287e+01	1.939954e+02
1.910000e-06	2.550429e-06	2.981082e-09	1.764114e+01	1.933212e+02
1.920000e-06	2.524930e-06	2.917591e-09	1.746476e+01	1.923229e+02
1.930000e-06	2.498507e-06	2.944806e-09	1.728199e+01	1.910122e+02
1.940000e-06	2.471303e-06	2.879532e-09	1.709383e+01	1.895878e+02
1.950000e-06	2.443396e-06	2.876146e-09	1.690080e+01	1.882976e+02
1.960000e-06	2.414320e-06	2.909963e-09	1.669968e+01	1.872709e+02
1.970000e-06	2.384071e-06	2.787005e-09	1.649045e+01	1.864364e+02
1.980000e-06	2.352979e-06	2.787204e-09	1.627539e+01	1.855794e+02
1.990000e-06	2.321123e-06	2.888113e-09	1.605505e+01	1.844937e+02
2.000000e-06	2.288555e-06	2.791489e-09	1.582977e+01	1.831184e+02
2.010000e-06	2.255248e-06	2.754856e-09	1.559939e+01	1.815669e+02
2.020000e-06	2.221123e-06	2.783740e-09	1.536335e+01	1.800349e+02
2.030000e-06	2.186338e-06	2.700259e-09	1.512275e+01	1.786585e+02
2.040000e-06	2.150990e-06	2.703516e-09	1.487825e+01	1.774263e+02
2.050000e-06	2.114949e-06	2.715179e-09	1.462895e+01	1.762027e+02
2.060000e-06	2.078061e-06	2.635684e-09	1.437380e+01	1.748369e+02
2.070000e-06	2.040055e-06	2.636836e-09	1.411092e+01	1.732735e+02
2.080000e-06	2.001068e-06	2.648120e-09	1.384124e+01	1.715837e+02
2.090000e-06	1.961530e-06	2.600413e-09	1.356776e+01	1.699004e+02
2.100000e-06	1.921440e-06	2.566541e-09	1.329047e+01	1.683118e+02
2.110000e-06	1.880688e-06	2.528769e-09	1.300858e+01	1.667955e+02
2.120000e-06	1.839313e-06	2.517369e-09	1.272240e+01	1.652410e+02
2.130000e-06	1.797384e-06	2.514310e-09	1.243238e+01	1.635384e+02
2.140000e-06	1.754871e-06	2.472143e-09	1.213832e+01	1.616640e+02
2.150000e-06	1.711800e-06	2.437459e-09	1.184040e+01	1.596977e+02
2.160000e-06	1.668309e-06	2.418007e-09	1.153957e+01	1.577609e+02
2.170000e-06	1.624321e-06	2.397826e-09	1.123531e+01	1.559235e+02
2.180000e-06	1.579643e-06	2.356767e-09	1.092628e+01	1.541517e+02
2.190000e-06	1.534275e-06	2.320970e-09	1.061247e+01	1.523325e+02
2.200000e-06	1.488345e-06	2.303964e-09	1.029478e+01	1.503569e+02
2.210000e-06	1.442004e-06	2.276409e-09	9.974240e+00	1.481978e+02
2.220000e-06	1.395291e-06	2.248877e-09	9.651131e+00	1.459254e+02
2.230000e-06	1.348050e-06	2.211676e-09	9.324364e+00	1.436533e+02
2.240000e-06	1.300169e-06	2.158839e-09	8.993174e+00	1.414561e+02
2.250000e-06	1.251696e-06	2.132428e-09	8.657892e+00	1.393199e+02
2.260000e-06	1.202762e-06	2.111914e-09	8.319416e+00	1.371599e+02
2.270000e-06	1.153420e-06	2.068513e-09	7.978125e+00	1.348874e+02
2.280000e-06	1.103678e-06	2.029857e-09	7.634064e+00	1.324736e+02
2.290000e-06	1.053516e-06	1.994692e-09	7.287097e+00	1.299650e+02
2.300000e-06	1.002859e-06	1.967416e-09	6.936705e+00	1.274410e+02
2.310000e-06	9.517994e-07	1.931084e-09	6.583529e+00	1.249503e+02
2.320000e-06	9.005059e-07	1.879680e-09	6.228735e+00	1.224751e+02
2.330000e-06	8.490182e-07	1.841736e-09	5.872599e+00	1.199476e+02
2.340000e-06	7.972074e-07	1.808612e-09	5.514227e+00	1.173055e+02
2.350000e-06	7.448794e-07	1.766877e-09	5.152278e+00	1.145419e+02
2.360000e-06	6.920801e-07	1.716432e-09	4.787069e+00	1.117114e+02
2.370000e-06	6.388955e-07	1.671449e-09	4.419195e+00	1.088908e+02
2.380000e-06	5.853156e-07	1.637082e-09	4.048587e+00	1.061214e+02
2.390000e-06	5.313953e-07	1.598080e-09	3.675624e+00	1.033774e+02
2.400000e-06	4.771818e-07	1.550969e-09	3.300633e+00	1.005811e+02
2.410000e-06	4.227438e-07	1.503223e-09	2.924089e+00	9.765290e+01
2.420000e-06	3.681249e-07	1.459803e-09	2.546294e+00	9.456068e+01
2.430000e-06	3.133063e-07	1.417121e-09	2.167117e+00	9.133565e+01
2.440000e-06	2.583879e-07	1.364771e-09	1.787251e+00	8.804646e+01
2.450000e-06	2.034412e-07	1.307492e-09	1.407188e+00	8.475238e+01
2.460000e-06	1.484105e-07	1.256156e-09	1.026545e+00	8.146753e+01
2.470000e-06	9.335032e-08	1.208528e-09	6.456975e-01	7.815715e+01
2.480000e-06	3.829893e-08	1.159296e-09	2.649110e-01	7.476380e+01
2.490000e-06	-1.677577e-08	1.104025e-09	-1.160368e-01	7.124311e+01
2.500000e-06	-7.185319e-08	1.047160e-09	-4.970034e-01	6.758600e+01
2.510000e-06	-1.269200e-07	9.920670e-10	-8.778963e-01	6.381729e+01
2.520000e-06	-1.819859e-07	9.336118e-10	-1.258784e+00	5.997633e+01
2.530000e-06	-2.369959e-07	8.707889e-10	-1.639284e+00	5.609405e+01
2.540000e-06	-2.919456e-07	8.072106e-10	-2.019367e+00	5.217889e+01
2.550000e-06	-3.468062e-07	7.485161e-10	-2.398833e+00	4.821528e+01
2.560000e-06	-4.014475e-07	6.910102e-10	-2.776784e+00	4.417138e+01
2.570000e-06	-4.559237e-07	6.268959e-10	-3.153592e+00	4.001070e+01
2.580000e-06	-5.102131e-07	5.574717e-10	-3.529108e+00	3.570376e+01
2.590000e-06	-5.641443e-07	4.880318e-10	-3.902146e+00	3.123737e+01
2.600000e-06	-6.176957e-07	4.175276e-10	-4.272557e+00	2.661883e+01
2.610000e-06	-6.708776e-07	3.451956e-10	-4.640412e+00	2.187175e+01
2.620000e-06	-7.236342e-07	2.708778e-10	-5.005326e+00	1.702293e+01
2.630000e-06	-7.759160e-07	1.932176e-10	-5.366955e+00	1.208526e+01
2.640000e-06	-8.277999e-07	1.148719e-10	-5.725833e+00	7.046038e+00
2.650000e-06	-8.793649e-07	3.656771e-11	-6.082505e+00	1.869340e+00
2.660000e-06	-9.306696e-07	-4.442192e-11	-6.437375e+00	-3.486986e+00
2.670000e-06	-9.817550e-07	-1.295877e-10	-6.790730e+00	-9.048929e+00
2.680000e-06	-1.032484e-06	-2.170186e-10	-7.141619e+00	-1.481268e+01
2.690000e-06	-1.082713e-06	-3.060198e-10	-7.489048e+00	-2.074912e+01
2.700000e-06	-1.132491e-06	-3.977794e-10	-7.833358e+00	-2.682404e+01
2.710000e-06	-1.181903e-06	-4.936960e-10	-8.175139e+00	-3.302047e+01
2.720000e-06	-1.230895e-06	-5.916977e-10	-8.514013e+00	-3.934775e+01
2.730000e-06	-1.279288e-06	-6.897186e-10	-8.848744e+00	-4.582998e+01
2.740000e-06	-1.326928e-06	-7.900634e-10	-9.178265e+00	-5.248064e+01
2.750000e-06	-1.373809e-06	-8.943500e-10	-9.502542e+00	-5.927925e+01
2.760000e-06	-1.420086e-06	-1.000072e-09	-9.822630e+00	-6.616473e+01
2.770000e-06	-1.465938e-06	-1.104070e-09	-1.013979e+01	-7.304998e+01
2.780000e-06	-1.511441e-06	-1.206570e-09	-1.045453e+01	-7.984917e+01
2.790000e-06	-1.556593e-06	-1.307297e-09	-1.076684e+01	-8.650248e+01
2.800000e-06	-1.601225e-06	-1.407585e-09	-1.107556e+01	-9.298571e+01
2.810000e-06	-1.645223e-06	-1.506385e-09	-1.137989e+01	-9.930160e+01
2.820000e-06	-1.688737e-06	-1.600767e-09	-1.168088e+01	-1.054596e+02
2.830000e-06	-1.731884e-06	-1.692419e-09	-1.197932e+01	-1.114557e+02
2.840000e-06	-1.774552e-06	-1.783163e-09	-1.227445e+01	-1.172630e+02
2.850000e-06	-1.816626e-06	-1.870248e-09	-1.256547e+01	-1.228358e+02
2.860000e-06	-1.858128e-06	-1.949713e-09	-1.285254e+01	-1.281266e+02
2.870000e-06	-1.899003e-06	-2.023038e-09	-1.313527e+01	-1.331053e+02
2.880000e-06	-1.939174e-06	-2.094056e-09	-1.341313e+01	-1.377739e+02
2.890000e-06	-1.978753e-06	-2.164508e-09	-1.368689e+01	-1.421662e+02
2.900000e-06	-2.017839e-06	-2.233019e-09	-1.395725e+01	-1.463335e+02
2.910000e-06	-2.056240e-06	-2.297999e-09	-1.422286e+01	-1.503199e+02
2.920000e-06	-2.093669e-06	-2.360152e-09	-1.448176e+01	-1.541407e+02
2.930000e-06	-2.130044e-06	-2.419260e-09	-1.473336e+01	-1.577760e+02
2.940000e-06	-2.165620e-06	-2.472750e-09	-1.497944e+01	-1.611840e+02
