# Temperatura_=_24.69
# Concentracion g/m^3_=_15500.0
# C_Vs_to_Am_M_A/Vsm_=_65563218390.804596
# pendiente_HvsI_1/m_=_3716.3
# ordenada_HvsI_A/m_=_1297.0
# frecuencia_Hz_=_300987.740716001

Tiempo_(s)	Campo_(V.s)	Magnetizacion_(V.s)	Campo_(kA/m)	Magnetizacion_(A/m)
0.000000e+00	-2.859838e-06	-3.281635e-09	-1.978459e+01	-2.141577e+02
1.000000e-08	-2.859062e-06	-3.283854e-09	-1.977922e+01	-2.141438e+02
2.000000e-08	-2.857296e-06	-3.283756e-09	-1.976700e+01	-2.140771e+02
3.000000e-08	-2.854300e-06	-3.279655e-09	-1.974628e+01	-2.139082e+02
4.000000e-08	-2.850290e-06	-3.275255e-09	-1.971853e+01	-2.136252e+02
5.000000e-08	-2.845491e-06	-3.271772e-09	-1.968533e+01	-2.132764e+02
6.000000e-08	-2.839802e-06	-3.265405e-09	-1.964598e+01	-2.129476e+02
7.000000e-08	-2.833147e-06	-3.263625e-09	-1.959994e+01	-2.127025e+02
8.000000e-08	-2.825504e-06	-3.287562e-09	-1.954706e+01	-2.125269e+02
9.000000e-08	-2.816694e-06	-3.297284e-09	-1.948611e+01	-2.123201e+02
1.000000e-07	-2.806417e-06	-3.245752e-09	-1.941502e+01	-2.119508e+02
1.100000e-07	-2.794812e-06	-3.174661e-09	-1.933473e+01	-2.113481e+02
1.200000e-07	-2.782417e-06	-3.216229e-09	-1.924898e+01	-2.105656e+02
1.300000e-07	-2.769264e-06	-3.272308e-09	-1.915799e+01	-2.097715e+02
1.400000e-07	-2.755103e-06	-3.186099e-09	-1.906002e+01	-2.091576e+02
1.500000e-07	-2.739948e-06	-3.187381e-09	-1.895518e+01	-2.088215e+02
1.600000e-07	-2.723596e-06	-3.265756e-09	-1.884205e+01	-2.086964e+02
1.700000e-07	-2.705976e-06	-3.199862e-09	-1.872016e+01	-2.085805e+02
1.800000e-07	-2.687514e-06	-3.126643e-09	-1.859244e+01	-2.082525e+02
1.900000e-07	-2.668356e-06	-3.202688e-09	-1.845990e+01	-2.076028e+02
2.000000e-07	-2.648311e-06	-3.182645e-09	-1.832123e+01	-2.066964e+02
2.100000e-07	-2.627307e-06	-3.068099e-09	-1.817592e+01	-2.057248e+02
2.200000e-07	-2.605498e-06	-3.136619e-09	-1.802504e+01	-2.048793e+02
2.300000e-07	-2.582810e-06	-3.195830e-09	-1.786808e+01	-2.042272e+02
2.400000e-07	-2.559141e-06	-3.116421e-09	-1.770434e+01	-2.036744e+02
2.500000e-07	-2.534732e-06	-3.088390e-09	-1.753548e+01	-2.030347e+02
2.600000e-07	-2.509552e-06	-3.075504e-09	-1.736128e+01	-2.021604e+02
2.700000e-07	-2.483227e-06	-3.045215e-09	-1.717916e+01	-2.010412e+02
2.800000e-07	-2.455725e-06	-3.072786e-09	-1.698890e+01	-1.998076e+02
2.900000e-07	-2.427329e-06	-3.029576e-09	-1.679245e+01	-1.986381e+02
3.000000e-07	-2.398104e-06	-2.980491e-09	-1.659027e+01	-1.976350e+02
3.100000e-07	-2.368078e-06	-3.024382e-09	-1.638255e+01	-1.967567e+02
3.200000e-07	-2.337370e-06	-3.024129e-09	-1.617011e+01	-1.958490e+02
3.300000e-07	-2.305884e-06	-2.959820e-09	-1.595229e+01	-1.947538e+02
3.400000e-07	-2.273654e-06	-2.938948e-09	-1.572932e+01	-1.934162e+02
3.500000e-07	-2.240843e-06	-2.909501e-09	-1.550233e+01	-1.919191e+02
3.600000e-07	-2.207216e-06	-2.885985e-09	-1.526970e+01	-1.904227e+02
3.700000e-07	-2.172410e-06	-2.913621e-09	-1.502891e+01	-1.890548e+02
3.800000e-07	-2.136553e-06	-2.874594e-09	-1.478084e+01	-1.878278e+02
3.900000e-07	-2.100087e-06	-2.828431e-09	-1.452857e+01	-1.866365e+02
4.000000e-07	-2.063024e-06	-2.845359e-09	-1.427217e+01	-1.853335e+02
4.100000e-07	-2.025191e-06	-2.831412e-09	-1.401043e+01	-1.838267e+02
4.200000e-07	-1.986583e-06	-2.759664e-09	-1.374334e+01	-1.821320e+02
4.300000e-07	-1.947203e-06	-2.728488e-09	-1.347091e+01	-1.803514e+02
4.400000e-07	-1.907202e-06	-2.727673e-09	-1.319417e+01	-1.785981e+02
4.500000e-07	-1.866797e-06	-2.714802e-09	-1.291465e+01	-1.769249e+02
4.600000e-07	-1.825978e-06	-2.687459e-09	-1.263226e+01	-1.753037e+02
4.700000e-07	-1.784405e-06	-2.643964e-09	-1.234465e+01	-1.736621e+02
4.800000e-07	-1.741750e-06	-2.611035e-09	-1.204957e+01	-1.719429e+02
4.900000e-07	-1.698103e-06	-2.595044e-09	-1.174761e+01	-1.701407e+02
5.000000e-07	-1.653886e-06	-2.571813e-09	-1.144172e+01	-1.682918e+02
5.100000e-07	-1.609311e-06	-2.529759e-09	-1.113334e+01	-1.664329e+02
5.200000e-07	-1.564287e-06	-2.503920e-09	-1.082186e+01	-1.645647e+02
5.300000e-07	-1.518695e-06	-2.481812e-09	-1.050645e+01	-1.626506e+02
5.400000e-07	-1.472517e-06	-2.453420e-09	-1.018699e+01	-1.606498e+02
5.500000e-07	-1.425822e-06	-2.415629e-09	-9.863949e+00	-1.585546e+02
5.600000e-07	-1.378586e-06	-2.369722e-09	-9.537172e+00	-1.564011e+02
5.700000e-07	-1.330802e-06	-2.338334e-09	-9.206594e+00	-1.542432e+02
5.800000e-07	-1.282667e-06	-2.321135e-09	-8.873594e+00	-1.521093e+02
5.900000e-07	-1.234193e-06	-2.291832e-09	-8.538246e+00	-1.499771e+02
6.000000e-07	-1.185345e-06	-2.242552e-09	-8.200310e+00	-1.477865e+02
6.100000e-07	-1.136002e-06	-2.202735e-09	-7.858956e+00	-1.454816e+02
6.200000e-07	-1.085911e-06	-2.171047e-09	-7.512419e+00	-1.430523e+02
6.300000e-07	-1.035076e-06	-2.135372e-09	-7.160739e+00	-1.405420e+02
6.400000e-07	-9.836475e-07	-2.090006e-09	-6.804952e+00	-1.380182e+02
6.500000e-07	-9.318692e-07	-2.045531e-09	-6.446746e+00	-1.355257e+02
6.600000e-07	-8.797777e-07	-2.013457e-09	-6.086372e+00	-1.330569e+02
6.700000e-07	-8.273337e-07	-1.981868e-09	-5.723561e+00	-1.305597e+02
6.800000e-07	-7.746277e-07	-1.939427e-09	-5.358936e+00	-1.279748e+02
6.900000e-07	-7.216633e-07	-1.891044e-09	-4.992525e+00	-1.252739e+02
7.000000e-07	-6.683968e-07	-1.849580e-09	-4.624022e+00	-1.224730e+02
7.100000e-07	-6.148445e-07	-1.808896e-09	-4.253544e+00	-1.196130e+02
7.200000e-07	-5.610817e-07	-1.764352e-09	-3.881608e+00	-1.167251e+02
7.300000e-07	-5.071122e-07	-1.714726e-09	-3.508243e+00	-1.138091e+02
7.400000e-07	-4.529353e-07	-1.665615e-09	-3.133442e+00	-1.108380e+02
7.500000e-07	-3.986146e-07	-1.621514e-09	-2.757648e+00	-1.077839e+02
7.600000e-07	-3.442620e-07	-1.576142e-09	-2.381632e+00	-1.046405e+02
7.700000e-07	-2.898697e-07	-1.524794e-09	-2.005342e+00	-1.014260e+02
7.800000e-07	-2.353662e-07	-1.470497e-09	-1.628282e+00	-9.816321e+01
7.900000e-07	-1.807837e-07	-1.420740e-09	-1.250676e+00	-9.485418e+01
8.000000e-07	-1.261386e-07	-1.369950e-09	-8.726368e-01	-9.147169e+01
8.100000e-07	-7.147940e-08	-1.314298e-09	-4.945002e-01	-8.797480e+01
8.200000e-07	-1.680394e-08	-1.255528e-09	-1.162510e-01	-8.433796e+01
8.300000e-07	3.790064e-08	-1.200080e-09	2.621996e-01	-8.057148e+01
8.400000e-07	9.259126e-08	-1.145972e-09	6.405538e-01	-7.671712e+01
8.500000e-07	1.472102e-07	-1.086891e-09	1.018412e+00	-7.282108e+01
8.600000e-07	2.017652e-07	-1.023338e-09	1.395828e+00	-6.890273e+01
8.700000e-07	2.563019e-07	-9.602831e-10	1.773117e+00	-6.494046e+01
8.800000e-07	3.107701e-07	-9.005008e-10	2.149933e+00	-6.088340e+01
8.900000e-07	3.651281e-07	-8.370340e-10	2.525986e+00	-5.667996e+01
9.000000e-07	4.193799e-07	-7.697819e-10	2.901303e+00	-5.230342e+01
9.100000e-07	4.735268e-07	-7.021183e-10	3.275896e+00	-4.775917e+01
9.200000e-07	5.275198e-07	-6.351851e-10	3.649424e+00	-4.307205e+01
9.300000e-07	5.812724e-07	-5.641841e-10	4.021289e+00	-3.826545e+01
9.400000e-07	6.347954e-07	-4.868781e-10	4.391566e+00	-3.334683e+01
9.500000e-07	6.880522e-07	-4.061763e-10	4.760000e+00	-2.830654e+01
9.600000e-07	7.409750e-07	-3.257120e-10	5.126124e+00	-2.312571e+01
9.700000e-07	7.936587e-07	-2.479075e-10	5.490594e+00	-1.778367e+01
9.800000e-07	8.461172e-07	-1.661373e-10	5.853506e+00	-1.225898e+01
9.900000e-07	8.982873e-07	-7.794977e-11	6.214423e+00	-6.526222e+00
1.000000e-06	9.501529e-07	1.292809e-11	6.573234e+00	-5.559817e-01
1.010000e-06	1.001576e-06	1.059976e-10	6.928985e+00	5.677727e+00
1.020000e-06	1.052409e-06	2.061006e-10	7.280649e+00	1.218577e+01
1.030000e-06	1.102619e-06	3.115822e-10	7.628007e+00	1.895701e+01
1.040000e-06	1.152153e-06	4.194370e-10	7.970687e+00	2.596302e+01
1.050000e-06	1.201143e-06	5.288949e-10	8.309606e+00	3.317254e+01
1.060000e-06	1.249776e-06	6.398048e-10	8.646048e+00	4.056503e+01
1.070000e-06	1.298112e-06	7.549374e-10	8.980440e+00	4.813188e+01
1.080000e-06	1.346108e-06	8.732494e-10	9.312480e+00	5.586250e+01
1.090000e-06	1.393638e-06	9.916236e-10	9.641299e+00	6.372388e+01
1.100000e-06	1.440647e-06	1.109341e-09	9.966509e+00	7.164910e+01
1.110000e-06	1.487092e-06	1.229376e-09	1.028782e+01	7.954476e+01
1.120000e-06	1.532942e-06	1.348175e-09	1.060502e+01	8.731501e+01
1.130000e-06	1.578240e-06	1.462349e-09	1.091839e+01	9.488755e+01
1.140000e-06	1.623071e-06	1.571424e-09	1.122853e+01	1.022252e+02
1.150000e-06	1.667550e-06	1.675876e-09	1.153624e+01	1.093163e+02
1.160000e-06	1.711656e-06	1.778142e-09	1.184137e+01	1.161511e+02
1.170000e-06	1.755110e-06	1.877673e-09	1.214199e+01	1.227029e+02
1.180000e-06	1.797695e-06	1.971965e-09	1.243660e+01	1.289268e+02
1.190000e-06	1.839352e-06	2.060274e-09	1.272478e+01	1.347785e+02
1.200000e-06	1.880257e-06	2.143340e-09	1.300777e+01	1.402407e+02
1.210000e-06	1.920623e-06	2.221010e-09	1.328702e+01	1.453370e+02
1.220000e-06	1.960434e-06	2.293203e-09	1.356244e+01	1.501240e+02
1.230000e-06	1.999594e-06	2.359505e-09	1.383335e+01	1.546637e+02
1.240000e-06	2.038084e-06	2.423070e-09	1.409963e+01	1.589923e+02
1.250000e-06	2.075838e-06	2.484821e-09	1.436081e+01	1.631052e+02
1.260000e-06	2.112884e-06	2.542379e-09	1.461710e+01	1.669655e+02
1.270000e-06	2.149385e-06	2.595675e-09	1.486962e+01	1.705323e+02
1.280000e-06	2.185287e-06	2.644048e-09	1.511799e+01	1.737906e+02
1.290000e-06	2.220323e-06	2.687246e-09	1.536037e+01	1.767657e+02
1.300000e-06	2.254305e-06	2.725430e-09	1.559546e+01	1.795159e+02
1.310000e-06	2.287326e-06	2.761138e-09	1.582391e+01	1.821073e+02
1.320000e-06	2.319567e-06	2.796445e-09	1.604695e+01	1.845867e+02
1.330000e-06	2.351085e-06	2.830904e-09	1.626499e+01	1.869668e+02
1.340000e-06	2.381815e-06	2.863179e-09	1.647759e+01	1.892290e+02
1.350000e-06	2.411725e-06	2.894291e-09	1.668451e+01	1.913417e+02
1.360000e-06	2.440872e-06	2.924847e-09	1.688615e+01	1.932811e+02
1.370000e-06	2.469372e-06	2.952339e-09	1.708332e+01	1.950447e+02
1.380000e-06	2.497093e-06	2.974843e-09	1.727509e+01	1.966528e+02
1.390000e-06	2.523711e-06	2.993437e-09	1.745923e+01	1.981404e+02
1.400000e-06	2.549144e-06	3.012464e-09	1.763518e+01	1.995448e+02
1.410000e-06	2.573567e-06	3.033412e-09	1.780414e+01	2.008955e+02
1.420000e-06	2.597120e-06	3.053940e-09	1.796709e+01	2.022080e+02
1.430000e-06	2.619824e-06	3.072958e-09	1.812415e+01	2.034823e+02
1.440000e-06	2.641648e-06	3.092258e-09	1.827513e+01	2.047032e+02
1.450000e-06	2.662663e-06	3.112922e-09	1.842051e+01	2.058442e+02
1.460000e-06	2.682925e-06	3.131003e-09	1.856069e+01	2.068762e+02
1.470000e-06	2.702249e-06	3.142419e-09	1.869438e+01	2.077803e+02
1.480000e-06	2.720605e-06	3.150146e-09	1.882136e+01	2.085600e+02
1.490000e-06	2.738000e-06	3.159226e-09	1.894170e+01	2.092471e+02
1.500000e-06	2.754326e-06	3.171284e-09	1.905464e+01	2.098924e+02
1.510000e-06	2.769607e-06	3.184594e-09	1.916036e+01	2.105447e+02
1.520000e-06	2.783852e-06	3.196649e-09	1.925891e+01	2.112260e+02
1.530000e-06	2.797097e-06	3.207643e-09	1.935054e+01	2.119175e+02
1.540000e-06	2.809340e-06	3.218256e-09	1.943524e+01	2.125681e+02
1.550000e-06	2.820375e-06	3.225859e-09	1.951158e+01	2.131212e+02
1.560000e-06	2.830112e-06	3.231245e-09	1.957894e+01	2.135472e+02
1.570000e-06	2.838807e-06	3.236765e-09	1.963909e+01	2.138602e+02
1.580000e-06	2.846543e-06	3.242730e-09	1.969261e+01	2.141080e+02
1.590000e-06	2.853266e-06	3.248219e-09	1.973912e+01	2.143421e+02
1.600000e-06	2.859049e-06	3.252515e-09	1.977913e+01	2.145855e+02
1.610000e-06	2.863987e-06	3.255886e-09	1.981329e+01	2.148220e+02
1.620000e-06	2.868062e-06	3.259149e-09	1.984148e+01	2.150125e+02
1.630000e-06	2.871003e-06	3.262740e-09	1.986183e+01	2.151276e+02
1.640000e-06	2.872728e-06	3.266451e-09	1.987376e+01	2.151710e+02
1.650000e-06	2.873413e-06	3.269465e-09	1.987850e+01	2.151750e+02
1.660000e-06	2.873133e-06	3.269665e-09	1.987657e+01	2.151716e+02
1.670000e-06	2.871934e-06	3.265846e-09	1.986827e+01	2.151604e+02
1.680000e-06	2.869838e-06	3.260150e-09	1.985377e+01	2.151019e+02
1.690000e-06	2.866924e-06	3.255995e-09	1.983361e+01	2.149455e+02
1.700000e-06	2.863270e-06	3.255624e-09	1.980833e+01	2.146734e+02
1.710000e-06	2.858720e-06	3.257174e-09	1.977686e+01	2.143279e+02
1.720000e-06	2.853020e-06	3.261124e-09	1.973742e+01	2.139929e+02
1.730000e-06	2.846209e-06	3.245925e-09	1.969030e+01	2.137379e+02
1.740000e-06	2.838474e-06	3.201742e-09	1.963679e+01	2.135584e+02
1.750000e-06	2.829530e-06	3.189844e-09	1.957491e+01	2.133613e+02
1.760000e-06	2.819023e-06	3.258186e-09	1.950223e+01	2.130147e+02
1.770000e-06	2.807408e-06	3.271620e-09	1.942187e+01	2.124368e+02
1.780000e-06	2.795544e-06	3.213775e-09	1.933980e+01	2.116670e+02
1.790000e-06	2.783126e-06	3.187246e-09	1.925389e+01	2.108643e+02
1.800000e-06	2.769230e-06	3.226514e-09	1.915775e+01	2.102240e+02
1.810000e-06	2.753984e-06	3.160838e-09	1.905228e+01	2.098582e+02
1.820000e-06	2.738036e-06	3.115013e-09	1.894196e+01	2.097185e+02
1.830000e-06	2.721177e-06	3.236048e-09	1.882532e+01	2.096131e+02
1.840000e-06	2.702995e-06	3.214606e-09	1.869954e+01	2.093159e+02
1.850000e-06	2.683943e-06	3.098887e-09	1.856773e+01	2.087006e+02
1.860000e-06	2.664194e-06	3.171604e-09	1.843111e+01	2.078139e+02
1.870000e-06	2.643374e-06	3.214134e-09	1.828707e+01	2.068389e+02
1.880000e-06	2.621437e-06	3.077371e-09	1.813531e+01	2.059737e+02
1.890000e-06	2.598452e-06	3.064040e-09	1.797630e+01	2.053029e+02
1.900000e-06	2.574454e-06	3.127097e-09	1.781028e+01	2.047477e+02
1.910000e-06	2.549687e-06	3.102126e-09	1.763894e+01	2.041262e+02
1.920000e-06	2.524158e-06	3.092845e-09	1.746233e+01	2.032803e+02
1.930000e-06	2.497722e-06	3.079483e-09	1.727944e+01	2.021830e+02
1.940000e-06	2.470531e-06	3.024192e-09	1.709133e+01	2.009530e+02
1.950000e-06	2.442560e-06	3.077592e-09	1.689782e+01	1.997694e+02
1.960000e-06	2.413466e-06	3.054064e-09	1.669655e+01	1.987479e+02
1.970000e-06	2.383254e-06	2.943877e-09	1.648754e+01	1.978623e+02
1.980000e-06	2.352168e-06	2.981603e-09	1.627249e+01	1.969663e+02
1.990000e-06	2.320347e-06	3.001035e-09	1.605235e+01	1.958962e+02
2.000000e-06	2.287844e-06	2.953193e-09	1.582749e+01	1.945829e+02
2.010000e-06	2.254508e-06	2.966477e-09	1.559686e+01	1.930958e+02
2.020000e-06	2.220361e-06	2.929092e-09	1.536064e+01	1.915917e+02
2.030000e-06	2.185608e-06	2.874420e-09	1.512021e+01	1.902070e+02
2.040000e-06	2.150231e-06	2.895545e-09	1.487547e+01	1.889683e+02
2.050000e-06	2.114150e-06	2.858737e-09	1.462586e+01	1.877803e+02
2.060000e-06	2.077271e-06	2.809215e-09	1.437073e+01	1.864954e+02
2.070000e-06	2.039349e-06	2.820860e-09	1.410838e+01	1.850116e+02
2.080000e-06	2.000450e-06	2.816117e-09	1.383927e+01	1.833331e+02
2.090000e-06	1.960902e-06	2.784540e-09	1.356568e+01	1.815558e+02
2.100000e-06	1.920759e-06	2.738350e-09	1.328796e+01	1.797955e+02
2.110000e-06	1.879960e-06	2.700463e-09	1.300571e+01	1.781138e+02
2.120000e-06	1.838555e-06	2.689359e-09	1.271927e+01	1.764902e+02
2.130000e-06	1.796608e-06	2.674029e-09	1.242908e+01	1.748543e+02
2.140000e-06	1.754071e-06	2.644662e-09	1.213480e+01	1.731447e+02
2.150000e-06	1.710976e-06	2.618173e-09	1.183667e+01	1.713500e+02
2.160000e-06	1.667444e-06	2.594133e-09	1.153551e+01	1.695040e+02
2.170000e-06	1.623447e-06	2.564511e-09	1.123114e+01	1.676454e+02
2.180000e-06	1.578797e-06	2.529419e-09	1.092224e+01	1.657794e+02
2.190000e-06	1.533463e-06	2.504275e-09	1.060862e+01	1.638725e+02
2.200000e-06	1.487557e-06	2.475837e-09	1.029103e+01	1.618822e+02
2.210000e-06	1.441175e-06	2.443263e-09	9.970165e+00	1.597959e+02
2.220000e-06	1.394410e-06	2.424862e-09	9.646642e+00	1.576461e+02
2.230000e-06	1.347167e-06	2.383626e-09	9.319806e+00	1.554865e+02
2.240000e-06	1.299277e-06	2.337170e-09	8.988499e+00	1.533502e+02
2.250000e-06	1.250755e-06	2.312145e-09	8.652820e+00	1.512203e+02
2.260000e-06	1.201781e-06	2.286012e-09	8.314020e+00	1.490391e+02
2.270000e-06	1.152426e-06	2.253247e-09	7.972573e+00	1.467480e+02
2.280000e-06	1.102709e-06	2.212978e-09	7.628626e+00	1.443307e+02
2.290000e-06	1.052593e-06	2.174822e-09	7.281924e+00	1.418259e+02
2.300000e-06	1.001960e-06	2.143647e-09	6.931642e+00	1.393006e+02
2.310000e-06	9.509069e-07	2.106113e-09	6.578450e+00	1.368041e+02
2.320000e-06	8.996108e-07	2.063088e-09	6.223579e+00	1.343347e+02
2.330000e-06	8.480732e-07	2.027042e-09	5.867038e+00	1.318437e+02
2.340000e-06	7.962427e-07	1.992905e-09	5.508470e+00	1.292703e+02
2.350000e-06	7.440565e-07	1.953897e-09	5.147442e+00	1.265818e+02
2.360000e-06	6.914647e-07	1.908570e-09	4.783608e+00	1.237898e+02
2.370000e-06	6.383877e-07	1.864264e-09	4.416417e+00	1.209342e+02
2.380000e-06	5.848450e-07	1.823464e-09	4.046005e+00	1.180486e+02
2.390000e-06	5.309620e-07	1.781968e-09	3.673237e+00	1.151366e+02
2.400000e-06	4.767915e-07	1.738400e-09	3.298481e+00	1.121730e+02
2.410000e-06	4.223939e-07	1.689059e-09	2.922155e+00	1.091286e+02
2.420000e-06	3.678256e-07	1.640453e-09	2.544647e+00	1.059942e+02
2.430000e-06	3.130644e-07	1.593887e-09	2.165804e+00	1.027861e+02
2.440000e-06	2.581171e-07	1.546246e-09	1.785674e+00	9.952783e+01
2.450000e-06	2.031062e-07	1.494954e-09	1.405105e+00	9.622458e+01
2.460000e-06	1.480737e-07	1.441541e-09	1.024386e+00	9.285190e+01
2.470000e-06	9.299367e-08	1.390433e-09	6.433377e-01	8.936899e+01
2.480000e-06	3.789427e-08	1.337778e-09	2.621556e-01	8.574735e+01
2.490000e-06	-1.720900e-08	1.279551e-09	-1.190532e-01	8.199314e+01
2.500000e-06	-7.232120e-08	1.218469e-09	-5.003238e-01	7.814577e+01
2.510000e-06	-1.273951e-07	1.159861e-09	-8.813298e-01	7.425258e+01
2.520000e-06	-1.824093e-07	1.101845e-09	-1.261922e+00	7.033694e+01
2.530000e-06	-2.373934e-07	1.043092e-09	-1.642307e+00	6.638149e+01
2.540000e-06	-2.923241e-07	9.816577e-10	-2.022322e+00	6.233729e+01
2.550000e-06	-3.471221e-07	9.178138e-10	-2.401418e+00	5.815138e+01
2.560000e-06	-4.017741e-07	8.509276e-10	-2.779506e+00	5.379364e+01
2.570000e-06	-4.562189e-07	7.791740e-10	-3.156159e+00	4.926634e+01
2.580000e-06	-5.104193e-07	7.045419e-10	-3.531121e+00	4.459322e+01
2.590000e-06	-5.642954e-07	6.288294e-10	-3.903841e+00	3.979872e+01
2.600000e-06	-6.177919e-07	5.552669e-10	-4.273934e+00	3.489231e+01
2.610000e-06	-6.708938e-07	4.832657e-10	-4.641297e+00	2.986586e+01
2.620000e-06	-7.235337e-07	4.079417e-10	-5.005464e+00	2.470107e+01
2.630000e-06	-7.757488e-07	3.255106e-10	-5.366692e+00	1.937729e+01
2.640000e-06	-8.276144e-07	2.389499e-10	-5.725503e+00	1.387328e+01
2.650000e-06	-8.792413e-07	1.507439e-10	-6.082661e+00	8.164185e+00
2.660000e-06	-9.306101e-07	5.908973e-11	-6.438035e+00	2.220783e+00
2.670000e-06	-9.816541e-07	-3.683726e-11	-6.791161e+00	-3.983825e+00
2.680000e-06	-1.032342e-06	-1.347596e-10	-7.141824e+00	-1.046262e+01
2.690000e-06	-1.082620e-06	-2.333190e-10	-7.489654e+00	-1.720682e+01
2.700000e-06	-1.132484e-06	-3.372076e-10	-7.834617e+00	-2.418926e+01
2.710000e-06	-1.181938e-06	-4.482070e-10	-8.176742e+00	-3.137823e+01
2.720000e-06	-1.230959e-06	-5.634581e-10	-8.515870e+00	-3.875167e+01
2.730000e-06	-1.279377e-06	-6.802516e-10	-8.850835e+00	-4.630015e+01
2.740000e-06	-1.326993e-06	-7.980494e-10	-9.180244e+00	-5.401425e+01
2.750000e-06	-1.373906e-06	-9.176649e-10	-9.504795e+00	-6.186423e+01
2.760000e-06	-1.420248e-06	-1.038796e-09	-9.825389e+00	-6.978677e+01
2.770000e-06	-1.466142e-06	-1.159568e-09	-1.014288e+01	-7.769039e+01
2.780000e-06	-1.511682e-06	-1.277827e-09	-1.045794e+01	-8.547812e+01
2.790000e-06	-1.556816e-06	-1.396168e-09	-1.077018e+01	-9.307424e+01
2.800000e-06	-1.601474e-06	-1.513500e-09	-1.107913e+01	-1.004379e+02
2.810000e-06	-1.645561e-06	-1.625227e-09	-1.138412e+01	-1.075557e+02
2.820000e-06	-1.689153e-06	-1.730228e-09	-1.168569e+01	-1.144189e+02
2.830000e-06	-1.732333e-06	-1.831347e-09	-1.198442e+01	-1.210029e+02
2.840000e-06	-1.775018e-06	-1.930110e-09	-1.227972e+01	-1.272643e+02
2.850000e-06	-1.817067e-06	-2.022341e-09	-1.257062e+01	-1.331574e+02
2.860000e-06	-1.858505e-06	-2.104947e-09	-1.285729e+01	-1.386610e+02
2.870000e-06	-1.899326e-06	-2.181577e-09	-1.313969e+01	-1.437941e+02
2.880000e-06	-1.939441e-06	-2.256722e-09	-1.341721e+01	-1.486111e+02
2.890000e-06	-1.979007e-06	-2.330091e-09	-1.369093e+01	-1.531749e+02
2.900000e-06	-2.018051e-06	-2.400124e-09	-1.396104e+01	-1.575257e+02
2.910000e-06	-2.056321e-06	-2.465661e-09	-1.422579e+01	-1.616630e+02
2.920000e-06	-2.093634e-06	-2.527107e-09	-1.448393e+01	-1.655526e+02
2.930000e-06	-2.129990e-06	-2.584174e-09	-1.473544e+01	-1.691522e+02
2.940000e-06	-2.165590e-06	-2.635132e-09	-1.498172e+01	-1.724431e+02
