# Temperatura_=_28.82
# Concentracion g/m^3_=_15500.0
# C_Vs_to_Am_M_A/Vsm_=_65563218390.804596
# pendiente_HvsI_1/m_=_3716.3
# ordenada_HvsI_A/m_=_1297.0
# frecuencia_Hz_=_300980.1840276183

Tiempo_(s)	Campo_(V.s)	Magnetizacion_(V.s)	Campo_(kA/m)	Magnetizacion_(A/m)
0.000000e+00	-2.859473e-06	-3.333664e-09	-1.978494e+01	-2.181390e+02
1.000000e-08	-2.858537e-06	-3.334906e-09	-1.977846e+01	-2.182001e+02
2.000000e-08	-2.856649e-06	-3.335163e-09	-1.976540e+01	-2.182082e+02
3.000000e-08	-2.853499e-06	-3.335206e-09	-1.974360e+01	-2.180965e+02
4.000000e-08	-2.849257e-06	-3.333594e-09	-1.971425e+01	-2.178496e+02
5.000000e-08	-2.844227e-06	-3.328759e-09	-1.967945e+01	-2.175286e+02
6.000000e-08	-2.838346e-06	-3.322427e-09	-1.963876e+01	-2.172342e+02
7.000000e-08	-2.831520e-06	-3.324639e-09	-1.959153e+01	-2.170288e+02
8.000000e-08	-2.823682e-06	-3.350260e-09	-1.953730e+01	-2.168731e+02
9.000000e-08	-2.814701e-06	-3.368687e-09	-1.947515e+01	-2.166335e+02
1.000000e-07	-2.804331e-06	-3.311130e-09	-1.940340e+01	-2.161666e+02
1.100000e-07	-2.792659e-06	-3.223172e-09	-1.932265e+01	-2.154289e+02
1.200000e-07	-2.780182e-06	-3.256789e-09	-1.923632e+01	-2.145328e+02
1.300000e-07	-2.766906e-06	-3.335991e-09	-1.914446e+01	-2.136984e+02
1.400000e-07	-2.752642e-06	-3.295503e-09	-1.904576e+01	-2.131220e+02
1.500000e-07	-2.737370e-06	-3.231840e-09	-1.894010e+01	-2.128452e+02
1.600000e-07	-2.720916e-06	-3.319630e-09	-1.882625e+01	-2.127161e+02
1.700000e-07	-2.703191e-06	-3.298689e-09	-1.870361e+01	-2.124762e+02
1.800000e-07	-2.684544e-06	-3.171960e-09	-1.857459e+01	-2.119220e+02
1.900000e-07	-2.665274e-06	-3.244336e-09	-1.844126e+01	-2.110337e+02
2.000000e-07	-2.645085e-06	-3.257910e-09	-1.830157e+01	-2.099837e+02
2.100000e-07	-2.623910e-06	-3.128025e-09	-1.815506e+01	-2.090174e+02
2.200000e-07	-2.601972e-06	-3.171739e-09	-1.800327e+01	-2.082849e+02
2.300000e-07	-2.579151e-06	-3.283291e-09	-1.784536e+01	-2.077408e+02
2.400000e-07	-2.555353e-06	-3.184533e-09	-1.768071e+01	-2.071782e+02
2.500000e-07	-2.530756e-06	-3.097654e-09	-1.751052e+01	-2.063739e+02
2.600000e-07	-2.505322e-06	-3.136537e-09	-1.733454e+01	-2.052431e+02
2.700000e-07	-2.478778e-06	-3.123791e-09	-1.715088e+01	-2.038955e+02
2.800000e-07	-2.451107e-06	-3.091537e-09	-1.695942e+01	-2.025571e+02
2.900000e-07	-2.422546e-06	-3.095888e-09	-1.676181e+01	-2.014137e+02
3.000000e-07	-2.393201e-06	-3.043400e-09	-1.655876e+01	-2.004863e+02
3.100000e-07	-2.363112e-06	-3.041169e-09	-1.635058e+01	-1.996241e+02
3.200000e-07	-2.332292e-06	-3.076904e-09	-1.613733e+01	-1.986153e+02
3.300000e-07	-2.300663e-06	-3.009196e-09	-1.591849e+01	-1.973353e+02
3.400000e-07	-2.268379e-06	-2.950210e-09	-1.569511e+01	-1.958275e+02
3.500000e-07	-2.235485e-06	-2.950905e-09	-1.546751e+01	-1.942643e+02
3.600000e-07	-2.201772e-06	-2.959611e-09	-1.523425e+01	-1.928216e+02
3.700000e-07	-2.166930e-06	-2.944864e-09	-1.499318e+01	-1.915580e+02
3.800000e-07	-2.131027e-06	-2.912445e-09	-1.474476e+01	-1.903825e+02
3.900000e-07	-2.094487e-06	-2.878233e-09	-1.449193e+01	-1.891280e+02
4.000000e-07	-2.057350e-06	-2.876515e-09	-1.423498e+01	-1.876719e+02
4.100000e-07	-2.019463e-06	-2.857914e-09	-1.397284e+01	-1.860161e+02
4.200000e-07	-1.980811e-06	-2.798568e-09	-1.370540e+01	-1.842733e+02
4.300000e-07	-1.941424e-06	-2.765784e-09	-1.343288e+01	-1.825769e+02
4.400000e-07	-1.901413e-06	-2.770381e-09	-1.315604e+01	-1.809851e+02
4.500000e-07	-1.861012e-06	-2.766482e-09	-1.287650e+01	-1.794481e+02
4.600000e-07	-1.820192e-06	-2.727805e-09	-1.259407e+01	-1.778569e+02
4.700000e-07	-1.778530e-06	-2.683692e-09	-1.230581e+01	-1.761314e+02
4.800000e-07	-1.735778e-06	-2.643312e-09	-1.200999e+01	-1.742791e+02
4.900000e-07	-1.692101e-06	-2.626358e-09	-1.170780e+01	-1.723830e+02
5.000000e-07	-1.647825e-06	-2.611371e-09	-1.140144e+01	-1.705319e+02
5.100000e-07	-1.603187e-06	-2.570066e-09	-1.109259e+01	-1.687490e+02
5.200000e-07	-1.558066e-06	-2.535747e-09	-1.078039e+01	-1.669735e+02
5.300000e-07	-1.512340e-06	-2.525723e-09	-1.046401e+01	-1.651068e+02
5.400000e-07	-1.466075e-06	-2.496344e-09	-1.014390e+01	-1.630860e+02
5.500000e-07	-1.419296e-06	-2.441389e-09	-9.820230e+00	-1.609294e+02
5.600000e-07	-1.371980e-06	-2.403398e-09	-9.492850e+00	-1.587203e+02
5.700000e-07	-1.324211e-06	-2.378896e-09	-9.162331e+00	-1.565438e+02
5.800000e-07	-1.276072e-06	-2.359391e-09	-8.829251e+00	-1.544249e+02
5.900000e-07	-1.227592e-06	-2.327790e-09	-8.493813e+00	-1.523135e+02
6.000000e-07	-1.178643e-06	-2.281278e-09	-8.155129e+00	-1.501247e+02
6.100000e-07	-1.129044e-06	-2.235525e-09	-7.811952e+00	-1.478020e+02
6.200000e-07	-1.078731e-06	-2.202999e-09	-7.463834e+00	-1.453570e+02
6.300000e-07	-1.027745e-06	-2.171877e-09	-7.111054e+00	-1.428566e+02
6.400000e-07	-9.763076e-07	-2.127501e-09	-6.755156e+00	-1.403708e+02
6.500000e-07	-9.244864e-07	-2.085006e-09	-6.396601e+00	-1.379204e+02
6.600000e-07	-8.723035e-07	-2.053821e-09	-6.035543e+00	-1.354629e+02
6.700000e-07	-8.198328e-07	-2.024440e-09	-5.672493e+00	-1.329238e+02
6.800000e-07	-7.671136e-07	-1.977501e-09	-5.307725e+00	-1.302489e+02
6.900000e-07	-7.141065e-07	-1.924645e-09	-4.940964e+00	-1.274391e+02
7.000000e-07	-6.607620e-07	-1.882837e-09	-4.571869e+00	-1.245437e+02
7.100000e-07	-6.071744e-07	-1.847252e-09	-4.201092e+00	-1.216221e+02
7.200000e-07	-5.534243e-07	-1.801978e-09	-3.829190e+00	-1.187020e+02
7.300000e-07	-4.994457e-07	-1.748578e-09	-3.455708e+00	-1.157638e+02
7.400000e-07	-4.452651e-07	-1.699767e-09	-3.080827e+00	-1.127594e+02
7.500000e-07	-3.909431e-07	-1.655169e-09	-2.704969e+00	-1.096477e+02
7.600000e-07	-3.365649e-07	-1.608697e-09	-2.328722e+00	-1.064200e+02
7.700000e-07	-2.821490e-07	-1.554404e-09	-1.952213e+00	-1.030987e+02
7.800000e-07	-2.276163e-07	-1.501318e-09	-1.574897e+00	-9.971370e+01
7.900000e-07	-1.730183e-07	-1.451917e-09	-1.197129e+00	-9.627652e+01
8.000000e-07	-1.183752e-07	-1.399281e-09	-8.190482e-01	-9.277087e+01
8.100000e-07	-6.373025e-08	-1.339317e-09	-4.409551e-01	-8.916557e+01
8.200000e-07	-9.105872e-09	-1.278036e-09	-6.300431e-02	-8.543771e+01
8.300000e-07	4.554978e-08	-1.222259e-09	3.151628e-01	-8.158869e+01
8.400000e-07	1.002148e-07	-1.168285e-09	6.933951e-01	-7.764242e+01
8.500000e-07	1.548350e-07	-1.110613e-09	1.071316e+00	-7.362814e+01
8.600000e-07	2.093985e-07	-1.045490e-09	1.448846e+00	-6.956054e+01
8.700000e-07	2.638883e-07	-9.795118e-10	1.825866e+00	-6.542987e+01
8.800000e-07	3.182916e-07	-9.152225e-10	2.202287e+00	-6.120641e+01
8.900000e-07	3.726252e-07	-8.479576e-10	2.578226e+00	-5.685468e+01
9.000000e-07	4.268619e-07	-7.742470e-10	2.953494e+00	-5.234808e+01
9.100000e-07	4.809812e-07	-7.014240e-10	3.327950e+00	-4.767662e+01
9.200000e-07	5.349469e-07	-6.337161e-10	3.701344e+00	-4.284596e+01
9.300000e-07	5.887081e-07	-5.626375e-10	4.073322e+00	-3.787038e+01
9.400000e-07	6.421986e-07	-4.839224e-10	4.443427e+00	-3.276349e+01
9.500000e-07	6.954070e-07	-4.000851e-10	4.811581e+00	-2.752976e+01
9.600000e-07	7.483859e-07	-3.173211e-10	5.178146e+00	-2.215904e+01
9.700000e-07	8.010608e-07	-2.358977e-10	5.542608e+00	-1.662564e+01
9.800000e-07	8.534213e-07	-1.501344e-10	5.904896e+00	-1.089314e+01
9.900000e-07	9.055477e-07	-5.579565e-11	6.265563e+00	-4.924069e+00
1.000000e-06	9.573757e-07	4.282037e-11	6.624165e+00	1.309042e+00
1.010000e-06	1.008731e-06	1.407380e-10	6.979499e+00	7.816210e+00
1.020000e-06	1.059480e-06	2.408228e-10	7.330634e+00	1.458978e+01
1.030000e-06	1.109499e-06	3.480799e-10	7.676716e+00	2.161105e+01
1.040000e-06	1.158825e-06	4.633857e-10	8.018010e+00	2.885929e+01
1.050000e-06	1.207687e-06	5.801028e-10	8.356090e+00	3.631771e+01
1.060000e-06	1.256244e-06	6.959590e-10	8.692060e+00	4.397292e+01
1.070000e-06	1.304523e-06	8.152940e-10	9.026104e+00	5.180878e+01
1.080000e-06	1.352426e-06	9.373932e-10	9.357549e+00	5.979826e+01
1.090000e-06	1.399839e-06	1.058932e-09	9.685610e+00	6.789721e+01
1.100000e-06	1.446729e-06	1.180102e-09	1.001004e+01	7.604216e+01
1.110000e-06	1.493059e-06	1.304026e-09	1.033060e+01	8.415241e+01
1.120000e-06	1.538829e-06	1.427826e-09	1.064729e+01	9.213655e+01
1.130000e-06	1.584114e-06	1.548167e-09	1.096062e+01	9.990320e+01
1.140000e-06	1.629001e-06	1.660957e-09	1.127120e+01	1.073749e+02
1.150000e-06	1.673518e-06	1.765347e-09	1.157922e+01	1.145010e+02
1.160000e-06	1.717592e-06	1.863746e-09	1.188417e+01	1.212641e+02
1.170000e-06	1.761029e-06	1.959750e-09	1.218471e+01	1.276746e+02
1.180000e-06	1.803519e-06	2.053388e-09	1.247870e+01	1.337550e+02
1.190000e-06	1.845037e-06	2.142017e-09	1.276597e+01	1.395216e+02
1.200000e-06	1.885848e-06	2.224992e-09	1.304834e+01	1.449744e+02
1.210000e-06	1.926164e-06	2.302407e-09	1.332730e+01	1.501015e+02
1.220000e-06	1.965932e-06	2.375000e-09	1.360245e+01	1.548946e+02
1.230000e-06	2.005022e-06	2.440990e-09	1.387292e+01	1.593644e+02
1.240000e-06	2.043418e-06	2.502084e-09	1.413858e+01	1.635427e+02
1.250000e-06	2.081021e-06	2.560261e-09	1.439876e+01	1.674685e+02
1.260000e-06	2.117964e-06	2.615539e-09	1.465438e+01	1.711682e+02
1.270000e-06	2.154409e-06	2.665434e-09	1.490654e+01	1.746435e+02
1.280000e-06	2.190196e-06	2.711662e-09	1.515416e+01	1.778786e+02
1.290000e-06	2.225050e-06	2.755104e-09	1.539531e+01	1.808619e+02
1.300000e-06	2.258785e-06	2.795994e-09	1.562873e+01	1.836068e+02
1.310000e-06	2.291570e-06	2.832390e-09	1.585557e+01	1.861548e+02
1.320000e-06	2.323681e-06	2.865089e-09	1.607775e+01	1.885578e+02
1.330000e-06	2.355114e-06	2.898173e-09	1.629523e+01	1.908502e+02
1.340000e-06	2.385757e-06	2.931209e-09	1.650725e+01	1.930314e+02
1.350000e-06	2.415611e-06	2.962331e-09	1.671382e+01	1.950732e+02
1.360000e-06	2.444695e-06	2.989234e-09	1.691506e+01	1.969454e+02
1.370000e-06	2.473062e-06	3.013245e-09	1.711133e+01	1.986449e+02
1.380000e-06	2.500618e-06	3.036039e-09	1.730199e+01	2.002039e+02
1.390000e-06	2.527066e-06	3.056035e-09	1.748499e+01	2.016750e+02
1.400000e-06	2.552313e-06	3.074213e-09	1.765967e+01	2.031014e+02
1.410000e-06	2.576622e-06	3.094907e-09	1.782787e+01	2.044950e+02
1.420000e-06	2.600099e-06	3.117208e-09	1.799031e+01	2.058367e+02
1.430000e-06	2.622698e-06	3.136657e-09	1.814667e+01	2.070959e+02
1.440000e-06	2.644417e-06	3.153010e-09	1.829695e+01	2.082535e+02
1.450000e-06	2.665301e-06	3.169580e-09	1.844145e+01	2.093115e+02
1.460000e-06	2.685436e-06	3.185845e-09	1.858076e+01	2.102856e+02
1.470000e-06	2.704674e-06	3.198932e-09	1.871387e+01	2.111894e+02
1.480000e-06	2.722888e-06	3.209607e-09	1.883990e+01	2.120270e+02
1.490000e-06	2.740083e-06	3.221801e-09	1.895887e+01	2.127989e+02
1.500000e-06	2.756248e-06	3.236439e-09	1.907072e+01	2.135145e+02
1.510000e-06	2.771358e-06	3.249492e-09	1.917526e+01	2.141953e+02
1.520000e-06	2.785417e-06	3.258417e-09	1.927254e+01	2.148637e+02
1.530000e-06	2.798491e-06	3.265821e-09	1.936300e+01	2.155229e+02
1.540000e-06	2.810605e-06	3.275336e-09	1.944682e+01	2.161472e+02
1.550000e-06	2.821460e-06	3.285794e-09	1.952192e+01	2.166943e+02
1.560000e-06	2.830969e-06	3.293834e-09	1.958772e+01	2.171345e+02
1.570000e-06	2.839481e-06	3.300050e-09	1.964661e+01	2.174744e+02
1.580000e-06	2.847091e-06	3.306219e-09	1.969927e+01	2.177569e+02
1.590000e-06	2.853740e-06	3.312876e-09	1.974527e+01	2.180326e+02
1.600000e-06	2.859427e-06	3.319322e-09	1.978462e+01	2.183236e+02
1.610000e-06	2.864263e-06	3.322584e-09	1.981808e+01	2.186079e+02
1.620000e-06	2.868239e-06	3.325457e-09	1.984559e+01	2.188381e+02
1.630000e-06	2.871007e-06	3.331306e-09	1.986474e+01	2.189813e+02
1.640000e-06	2.872493e-06	3.337746e-09	1.987502e+01	2.190481e+02
1.650000e-06	2.872995e-06	3.342284e-09	1.987850e+01	2.190859e+02
1.660000e-06	2.872655e-06	3.343146e-09	1.987614e+01	2.191378e+02
1.670000e-06	2.871410e-06	3.340153e-09	1.986753e+01	2.192007e+02
1.680000e-06	2.869270e-06	3.336285e-09	1.985272e+01	2.192185e+02
1.690000e-06	2.866297e-06	3.333717e-09	1.983216e+01	2.191219e+02
1.700000e-06	2.862561e-06	3.332259e-09	1.980631e+01	2.188882e+02
1.710000e-06	2.857844e-06	3.333184e-09	1.977367e+01	2.185707e+02
1.720000e-06	2.851899e-06	3.336463e-09	1.973254e+01	2.182694e+02
1.730000e-06	2.844940e-06	3.322914e-09	1.968439e+01	2.180546e+02
1.740000e-06	2.837092e-06	3.274600e-09	1.963008e+01	2.178991e+02
1.750000e-06	2.827952e-06	3.254090e-09	1.956684e+01	2.176765e+02
1.760000e-06	2.817173e-06	3.317695e-09	1.949226e+01	2.172389e+02
1.770000e-06	2.805352e-06	3.377251e-09	1.941047e+01	2.165279e+02
1.780000e-06	2.793374e-06	3.291459e-09	1.932760e+01	2.156395e+02
1.790000e-06	2.780844e-06	3.221889e-09	1.924090e+01	2.147877e+02
1.800000e-06	2.766711e-06	3.275486e-09	1.914311e+01	2.141785e+02
1.810000e-06	2.751244e-06	3.250637e-09	1.903609e+01	2.138741e+02
1.820000e-06	2.735227e-06	3.185890e-09	1.892527e+01	2.137412e+02
1.830000e-06	2.718213e-06	3.254803e-09	1.880755e+01	2.135256e+02
1.840000e-06	2.699815e-06	3.304467e-09	1.868025e+01	2.130101e+02
1.850000e-06	2.680661e-06	3.169338e-09	1.854772e+01	2.121524e+02
1.860000e-06	2.660885e-06	3.171114e-09	1.841089e+01	2.111082e+02
1.870000e-06	2.639903e-06	3.284336e-09	1.826572e+01	2.101231e+02
1.880000e-06	2.617737e-06	3.142421e-09	1.811235e+01	2.093644e+02
1.890000e-06	2.594688e-06	3.067731e-09	1.795287e+01	2.088085e+02
1.900000e-06	2.570612e-06	3.213881e-09	1.778628e+01	2.082599e+02
1.910000e-06	2.545695e-06	3.185215e-09	1.761388e+01	2.074894e+02
1.920000e-06	2.520088e-06	3.102546e-09	1.743671e+01	2.063918e+02
1.930000e-06	2.493509e-06	3.123198e-09	1.725280e+01	2.050578e+02
1.940000e-06	2.466189e-06	3.089263e-09	1.706377e+01	2.037078e+02
1.950000e-06	2.438215e-06	3.082201e-09	1.687022e+01	2.025393e+02
1.960000e-06	2.409057e-06	3.101120e-09	1.666847e+01	2.015939e+02
1.970000e-06	2.378747e-06	3.010776e-09	1.645876e+01	2.007354e+02
1.980000e-06	2.347638e-06	2.988500e-09	1.624351e+01	1.997512e+02
1.990000e-06	2.315760e-06	3.058821e-09	1.602295e+01	1.985016e+02
2.000000e-06	2.283179e-06	3.014863e-09	1.579751e+01	1.970116e+02
2.010000e-06	2.249776e-06	2.967827e-09	1.556639e+01	1.954451e+02
2.020000e-06	2.215429e-06	2.953791e-09	1.532874e+01	1.939843e+02
2.030000e-06	2.180440e-06	2.918942e-09	1.508665e+01	1.927038e+02
2.040000e-06	2.144917e-06	2.919711e-09	1.484086e+01	1.915268e+02
2.050000e-06	2.108677e-06	2.890583e-09	1.459012e+01	1.902886e+02
2.060000e-06	2.071546e-06	2.843421e-09	1.433320e+01	1.888568e+02
2.070000e-06	2.033353e-06	2.856581e-09	1.406894e+01	1.872187e+02
2.080000e-06	1.994297e-06	2.848963e-09	1.379871e+01	1.854786e+02
2.090000e-06	1.954702e-06	2.806190e-09	1.352475e+01	1.837728e+02
2.100000e-06	1.914514e-06	2.764365e-09	1.324669e+01	1.821708e+02
2.110000e-06	1.873663e-06	2.721537e-09	1.296404e+01	1.806332e+02
2.120000e-06	1.832188e-06	2.714445e-09	1.267706e+01	1.790531e+02
2.130000e-06	1.790101e-06	2.710756e-09	1.238586e+01	1.773436e+02
2.140000e-06	1.747414e-06	2.681894e-09	1.209051e+01	1.755021e+02
2.150000e-06	1.704231e-06	2.644275e-09	1.179172e+01	1.736062e+02
2.160000e-06	1.660691e-06	2.613369e-09	1.149046e+01	1.717479e+02
2.170000e-06	1.616679e-06	2.599241e-09	1.118594e+01	1.699596e+02
2.180000e-06	1.571960e-06	2.560761e-09	1.087653e+01	1.681883e+02
2.190000e-06	1.526516e-06	2.519860e-09	1.056210e+01	1.663359e+02
2.200000e-06	1.480514e-06	2.508871e-09	1.024380e+01	1.643326e+02
2.210000e-06	1.434104e-06	2.486191e-09	9.922691e+00	1.621876e+02
2.220000e-06	1.387253e-06	2.449724e-09	9.598519e+00	1.599798e+02
2.230000e-06	1.339900e-06	2.410930e-09	9.270885e+00	1.577975e+02
2.240000e-06	1.291918e-06	2.364348e-09	8.938889e+00	1.556740e+02
2.250000e-06	1.243293e-06	2.338114e-09	8.602448e+00	1.535661e+02
2.260000e-06	1.194274e-06	2.320582e-09	8.263283e+00	1.513896e+02
2.270000e-06	1.144914e-06	2.286223e-09	7.921756e+00	1.490823e+02
2.280000e-06	1.095140e-06	2.245965e-09	7.577370e+00	1.466481e+02
2.290000e-06	1.044937e-06	2.205360e-09	7.230011e+00	1.441502e+02
2.300000e-06	9.942900e-07	2.176028e-09	6.879578e+00	1.416610e+02
2.310000e-06	9.432235e-07	2.138952e-09	6.526244e+00	1.392081e+02
2.320000e-06	8.918969e-07	2.090390e-09	6.171111e+00	1.367551e+02
2.330000e-06	8.403351e-07	2.053083e-09	5.814351e+00	1.342284e+02
2.340000e-06	7.884701e-07	2.022192e-09	5.455492e+00	1.315695e+02
2.350000e-06	7.361718e-07	1.984248e-09	5.093636e+00	1.287726e+02
2.360000e-06	6.834414e-07	1.933377e-09	4.728790e+00	1.258836e+02
2.370000e-06	6.303525e-07	1.883855e-09	4.361463e+00	1.229631e+02
2.380000e-06	5.768793e-07	1.844905e-09	3.991477e+00	1.200433e+02
2.390000e-06	5.230937e-07	1.805262e-09	3.619330e+00	1.171094e+02
2.400000e-06	4.689719e-07	1.759848e-09	3.244856e+00	1.141148e+02
2.410000e-06	4.145522e-07	1.711337e-09	2.868322e+00	1.110160e+02
2.420000e-06	3.599573e-07	1.662255e-09	2.490576e+00	1.078003e+02
2.430000e-06	3.052036e-07	1.614134e-09	2.111730e+00	1.044878e+02
2.440000e-06	2.503713e-07	1.562045e-09	1.732340e+00	1.011089e+02
2.450000e-06	1.954648e-07	1.507333e-09	1.352438e+00	9.767798e+01
2.460000e-06	1.404465e-07	1.454936e-09	9.717611e-01	9.418140e+01
2.470000e-06	8.540234e-08	1.402761e-09	5.909061e-01	9.058852e+01
2.480000e-06	3.035082e-08	1.348580e-09	2.099999e-01	8.687452e+01
2.490000e-06	-2.469840e-08	1.288069e-09	-1.708904e-01	8.303794e+01
2.500000e-06	-7.972032e-08	1.223190e-09	-5.515917e-01	7.910092e+01
2.510000e-06	-1.347585e-07	1.159940e-09	-9.324056e-01	7.509314e+01
2.520000e-06	-1.897610e-07	1.098369e-09	-1.312973e+00	7.103160e+01
2.530000e-06	-2.447019e-07	1.035804e-09	-1.693114e+00	6.690917e+01
2.540000e-06	-2.996062e-07	9.728799e-10	-2.073001e+00	6.269769e+01
2.550000e-06	-3.543672e-07	9.117878e-10	-2.451897e+00	5.836154e+01
2.560000e-06	-4.089427e-07	8.465897e-10	-2.829510e+00	5.387264e+01
2.570000e-06	-4.633498e-07	7.725382e-10	-3.205957e+00	4.921912e+01
2.580000e-06	-5.174584e-07	6.933646e-10	-3.580339e+00	4.440522e+01
2.590000e-06	-5.711924e-07	6.148894e-10	-3.952129e+00	3.944475e+01
2.600000e-06	-6.246084e-07	5.379924e-10	-4.321719e+00	3.435180e+01
2.610000e-06	-6.776722e-07	4.610051e-10	-4.688872e+00	2.913217e+01
2.620000e-06	-7.303000e-07	3.796033e-10	-5.053008e+00	2.377742e+01
2.630000e-06	-7.824877e-07	2.934465e-10	-5.414099e+00	1.826338e+01
2.640000e-06	-8.343430e-07	2.058436e-10	-5.772891e+00	1.255440e+01
2.650000e-06	-8.859487e-07	1.176552e-10	-6.129955e+00	6.612561e+00
2.660000e-06	-9.372504e-07	2.479790e-11	-6.484916e+00	4.088709e-01
2.670000e-06	-9.882239e-07	-7.597632e-11	-6.837606e+00	-6.068711e+00
2.680000e-06	-1.038846e-06	-1.800698e-10	-7.187865e+00	-1.281420e+01
2.690000e-06	-1.089042e-06	-2.848396e-10	-7.535172e+00	-1.980964e+01
2.700000e-06	-1.138797e-06	-3.926237e-10	-7.879434e+00	-2.703414e+01
2.710000e-06	-1.188155e-06	-5.055445e-10	-8.220949e+00	-3.447039e+01
2.720000e-06	-1.237093e-06	-6.220874e-10	-8.559554e+00	-4.210486e+01
2.730000e-06	-1.285489e-06	-7.406224e-10	-8.894407e+00	-4.992209e+01
2.740000e-06	-1.333161e-06	-8.620460e-10	-9.224253e+00	-5.789657e+01
2.750000e-06	-1.380093e-06	-9.873688e-10	-9.548984e+00	-6.598618e+01
2.760000e-06	-1.426443e-06	-1.112815e-09	-9.869680e+00	-7.412948e+01
2.770000e-06	-1.472343e-06	-1.235605e-09	-1.018727e+01	-8.224740e+01
2.780000e-06	-1.517892e-06	-1.356388e-09	-1.050243e+01	-9.024922e+01
2.790000e-06	-1.563022e-06	-1.474252e-09	-1.081468e+01	-9.804292e+01
2.800000e-06	-1.607571e-06	-1.589707e-09	-1.112293e+01	-1.055489e+02
2.810000e-06	-1.651508e-06	-1.702854e-09	-1.142692e+01	-1.127131e+02
2.820000e-06	-1.694996e-06	-1.809625e-09	-1.172782e+01	-1.195147e+02
2.830000e-06	-1.738094e-06	-1.909269e-09	-1.202602e+01	-1.259616e+02
2.840000e-06	-1.780691e-06	-2.003895e-09	-1.232075e+01	-1.320761e+02
2.850000e-06	-1.822685e-06	-2.092183e-09	-1.261132e+01	-1.378757e+02
2.860000e-06	-1.864071e-06	-2.173300e-09	-1.289766e+01	-1.433623e+02
2.870000e-06	-1.904856e-06	-2.250074e-09	-1.317986e+01	-1.485245e+02
2.880000e-06	-1.944923e-06	-2.324870e-09	-1.345709e+01	-1.533530e+02
2.890000e-06	-1.984418e-06	-2.396872e-09	-1.373036e+01	-1.578559e+02
2.900000e-06	-2.023351e-06	-2.464379e-09	-1.399974e+01	-1.620632e+02
2.910000e-06	-2.061471e-06	-2.526553e-09	-1.426350e+01	-1.660141e+02
2.920000e-06	-2.098647e-06	-2.585306e-09	-1.452072e+01	-1.697372e+02
2.930000e-06	-2.134861e-06	-2.641431e-09	-1.477129e+01	-1.732368e+02
2.940000e-06	-2.170328e-06	-2.693167e-09	-1.501668e+01	-1.764982e+02
