# Temperatura_=_16.74
# Concentracion g/m^3_=_15500.0
# C_Vs_to_Am_M_A/Vsm_=_65563218390.804596
# pendiente_HvsI_1/m_=_3716.3
# ordenada_HvsI_A/m_=_1297.0
# frecuencia_Hz_=_301006.6923444766

Tiempo_(s)	Campo_(V.s)	Magnetizacion_(V.s)	Campo_(kA/m)	Magnetizacion_(A/m)
0.000000e+00	-2.860986e-06	-3.106469e-09	-1.978572e+01	-2.035935e+02
1.000000e-08	-2.860266e-06	-3.107455e-09	-1.978074e+01	-2.035727e+02
2.000000e-08	-2.858673e-06	-3.108408e-09	-1.976972e+01	-2.035689e+02
3.000000e-08	-2.855823e-06	-3.106526e-09	-1.975002e+01	-2.034779e+02
4.000000e-08	-2.851829e-06	-3.103686e-09	-1.972239e+01	-2.032372e+02
5.000000e-08	-2.847073e-06	-3.098707e-09	-1.968950e+01	-2.028916e+02
6.000000e-08	-2.841477e-06	-3.091883e-09	-1.965080e+01	-2.025679e+02
7.000000e-08	-2.834910e-06	-3.085298e-09	-1.960538e+01	-2.023725e+02
8.000000e-08	-2.827329e-06	-3.092409e-09	-1.955296e+01	-2.022854e+02
9.000000e-08	-2.818644e-06	-3.127560e-09	-1.949289e+01	-2.021434e+02
1.000000e-07	-2.808604e-06	-3.132011e-09	-1.942346e+01	-2.017397e+02
1.100000e-07	-2.797142e-06	-3.050188e-09	-1.934420e+01	-2.009803e+02
1.200000e-07	-2.784812e-06	-2.970538e-09	-1.925892e+01	-1.999838e+02
1.300000e-07	-2.771802e-06	-3.029293e-09	-1.916895e+01	-1.990388e+02
1.400000e-07	-2.757791e-06	-3.111343e-09	-1.907205e+01	-1.984324e+02
1.500000e-07	-2.742715e-06	-3.019913e-09	-1.896779e+01	-1.982578e+02
1.600000e-07	-2.726535e-06	-3.006645e-09	-1.885590e+01	-1.983363e+02
1.700000e-07	-2.709072e-06	-3.102340e-09	-1.873513e+01	-1.983161e+02
1.800000e-07	-2.690571e-06	-3.031109e-09	-1.860718e+01	-1.978904e+02
1.900000e-07	-2.671425e-06	-2.944832e-09	-1.847477e+01	-1.969897e+02
2.000000e-07	-2.651457e-06	-3.011241e-09	-1.833668e+01	-1.958195e+02
2.100000e-07	-2.630499e-06	-2.987413e-09	-1.819174e+01	-1.947145e+02
2.200000e-07	-2.608736e-06	-2.902360e-09	-1.804123e+01	-1.939114e+02
2.300000e-07	-2.586174e-06	-3.008851e-09	-1.788520e+01	-1.933942e+02
2.400000e-07	-2.562656e-06	-3.035590e-09	-1.772256e+01	-1.929176e+02
2.500000e-07	-2.538318e-06	-2.885233e-09	-1.755424e+01	-1.921860e+02
2.600000e-07	-2.513179e-06	-2.866354e-09	-1.738039e+01	-1.910607e+02
2.700000e-07	-2.486877e-06	-2.915228e-09	-1.719849e+01	-1.896501e+02
2.800000e-07	-2.459383e-06	-2.872337e-09	-1.700835e+01	-1.882242e+02
2.900000e-07	-2.430987e-06	-2.861167e-09	-1.681198e+01	-1.870207e+02
3.000000e-07	-2.401778e-06	-2.841958e-09	-1.660998e+01	-1.860828e+02
3.100000e-07	-2.371833e-06	-2.827699e-09	-1.640288e+01	-1.852408e+02
3.200000e-07	-2.341214e-06	-2.855228e-09	-1.619113e+01	-1.842447e+02
3.300000e-07	-2.309794e-06	-2.799688e-09	-1.597384e+01	-1.829456e+02
3.400000e-07	-2.277639e-06	-2.725927e-09	-1.575146e+01	-1.813958e+02
3.500000e-07	-2.244923e-06	-2.737170e-09	-1.552521e+01	-1.798007e+02
3.600000e-07	-2.211412e-06	-2.738646e-09	-1.529346e+01	-1.783637e+02
3.700000e-07	-2.176685e-06	-2.717861e-09	-1.505330e+01	-1.771414e+02
3.800000e-07	-2.140846e-06	-2.712615e-09	-1.480545e+01	-1.760102e+02
3.900000e-07	-2.104349e-06	-2.662779e-09	-1.455304e+01	-1.747635e+02
4.000000e-07	-2.067340e-06	-2.642208e-09	-1.429710e+01	-1.732610e+02
4.100000e-07	-2.029590e-06	-2.644679e-09	-1.403603e+01	-1.715223e+02
4.200000e-07	-1.991027e-06	-2.589122e-09	-1.376935e+01	-1.697018e+02
4.300000e-07	-1.951776e-06	-2.537118e-09	-1.349790e+01	-1.679716e+02
4.400000e-07	-1.911871e-06	-2.542719e-09	-1.322193e+01	-1.664028e+02
4.500000e-07	-1.871493e-06	-2.541854e-09	-1.294269e+01	-1.649287e+02
4.600000e-07	-1.830739e-06	-2.505299e-09	-1.266084e+01	-1.634085e+02
4.700000e-07	-1.789307e-06	-2.463675e-09	-1.237431e+01	-1.617356e+02
4.800000e-07	-1.746842e-06	-2.427194e-09	-1.208064e+01	-1.599078e+02
4.900000e-07	-1.703332e-06	-2.409304e-09	-1.177973e+01	-1.580114e+02
5.000000e-07	-1.659162e-06	-2.393080e-09	-1.147427e+01	-1.561412e+02
5.100000e-07	-1.614611e-06	-2.357878e-09	-1.116617e+01	-1.543222e+02
5.200000e-07	-1.569615e-06	-2.315147e-09	-1.085498e+01	-1.524948e+02
5.300000e-07	-1.524067e-06	-2.298785e-09	-1.053999e+01	-1.505679e+02
5.400000e-07	-1.477919e-06	-2.278425e-09	-1.022085e+01	-1.484964e+02
5.500000e-07	-1.431210e-06	-2.229852e-09	-9.897820e+00	-1.463188e+02
5.600000e-07	-1.383999e-06	-2.185162e-09	-9.571320e+00	-1.441280e+02
5.700000e-07	-1.336320e-06	-2.159644e-09	-9.241584e+00	-1.419991e+02
5.800000e-07	-1.288245e-06	-2.144123e-09	-8.909113e+00	-1.399318e+02
5.900000e-07	-1.239791e-06	-2.113573e-09	-8.574024e+00	-1.378506e+02
6.000000e-07	-1.190904e-06	-2.065896e-09	-8.235935e+00	-1.356610e+02
6.100000e-07	-1.141467e-06	-2.020230e-09	-7.894042e+00	-1.333173e+02
6.200000e-07	-1.091333e-06	-1.991656e-09	-7.547333e+00	-1.308534e+02
6.300000e-07	-1.040528e-06	-1.961942e-09	-7.195975e+00	-1.283535e+02
6.400000e-07	-9.891733e-07	-1.918075e-09	-6.840825e+00	-1.258891e+02
6.500000e-07	-9.373886e-07	-1.872479e-09	-6.482698e+00	-1.234695e+02
6.600000e-07	-8.852396e-07	-1.840563e-09	-6.122051e+00	-1.210384e+02
6.700000e-07	-8.328193e-07	-1.813209e-09	-5.759528e+00	-1.185167e+02
6.800000e-07	-7.801781e-07	-1.767251e-09	-5.395477e+00	-1.158562e+02
6.900000e-07	-7.272199e-07	-1.712975e-09	-5.029234e+00	-1.130664e+02
7.000000e-07	-6.738595e-07	-1.669676e-09	-4.660210e+00	-1.101994e+02
7.100000e-07	-6.202514e-07	-1.637451e-09	-4.289472e+00	-1.073104e+02
7.200000e-07	-5.664729e-07	-1.595236e-09	-3.917556e+00	-1.044236e+02
7.300000e-07	-5.124796e-07	-1.540357e-09	-3.544155e+00	-1.015258e+02
7.400000e-07	-4.583361e-07	-1.489393e-09	-3.169715e+00	-9.858610e+01
7.500000e-07	-4.040525e-07	-1.448544e-09	-2.794305e+00	-9.558059e+01
7.600000e-07	-3.496756e-07	-1.406480e-09	-2.418251e+00	-9.250290e+01
7.700000e-07	-2.952641e-07	-1.353824e-09	-2.041958e+00	-8.935658e+01
7.800000e-07	-2.407755e-07	-1.300369e-09	-1.665131e+00	-8.614082e+01
7.900000e-07	-1.861466e-07	-1.253604e-09	-1.287334e+00	-8.284476e+01
8.000000e-07	-1.314592e-07	-1.206367e-09	-9.091321e-01	-7.945505e+01
8.100000e-07	-7.681014e-08	-1.149365e-09	-5.311959e-01	-7.596869e+01
8.200000e-07	-2.215984e-08	-1.088696e-09	-1.532508e-01	-7.239832e+01
8.300000e-07	3.249680e-08	-1.033947e-09	2.247381e-01	-6.876491e+01
8.400000e-07	8.711023e-08	-9.843671e-10	6.024281e-01	-6.508436e+01
8.500000e-07	1.417219e-07	-9.302722e-10	9.801057e-01	-6.135938e+01
8.600000e-07	1.963042e-07	-8.683884e-10	1.357581e+00	-5.758253e+01
8.700000e-07	2.508440e-07	-8.081634e-10	1.734762e+00	-5.374548e+01
8.800000e-07	3.053511e-07	-7.536340e-10	2.111716e+00	-4.984398e+01
8.900000e-07	3.597659e-07	-6.964084e-10	2.488033e+00	-4.587289e+01
9.000000e-07	4.140724e-07	-6.297665e-10	2.863600e+00	-4.181634e+01
9.100000e-07	4.682509e-07	-5.628015e-10	3.238282e+00	-3.764483e+01
9.200000e-07	5.222842e-07	-5.014624e-10	3.611960e+00	-3.332630e+01
9.300000e-07	5.761173e-07	-4.385730e-10	3.984254e+00	-2.884577e+01
9.400000e-07	6.297333e-07	-3.686931e-10	4.355046e+00	-2.421824e+01
9.500000e-07	6.830943e-07	-2.951536e-10	4.724075e+00	-1.948197e+01
9.600000e-07	7.361034e-07	-2.235896e-10	5.090670e+00	-1.467321e+01
9.700000e-07	7.888084e-07	-1.522470e-10	5.455162e+00	-9.798633e+00
9.800000e-07	8.412674e-07	-7.568149e-11	5.817953e+00	-4.825207e+00
9.900000e-07	8.934862e-07	6.711907e-12	6.179082e+00	3.037465e-01
1.000000e-06	9.454154e-07	8.940520e-11	6.538209e+00	5.636715e+00
1.010000e-06	9.968636e-07	1.716842e-10	6.894009e+00	1.118788e+01
1.020000e-06	1.047735e-06	2.566595e-10	7.245822e+00	1.693394e+01
1.030000e-06	1.098009e-06	3.464350e-10	7.593500e+00	2.283412e+01
1.040000e-06	1.147608e-06	4.407965e-10	7.936513e+00	2.885717e+01
1.050000e-06	1.196623e-06	5.362127e-10	8.275482e+00	3.499601e+01
1.060000e-06	1.245227e-06	6.311308e-10	8.611618e+00	4.126143e+01
1.070000e-06	1.293545e-06	7.294932e-10	8.945771e+00	4.766302e+01
1.080000e-06	1.341608e-06	8.309920e-10	9.278161e+00	5.419321e+01
1.090000e-06	1.389242e-06	9.306811e-10	9.607579e+00	6.082512e+01
1.100000e-06	1.436286e-06	1.029386e-09	9.932924e+00	6.752152e+01
1.110000e-06	1.482769e-06	1.131635e-09	1.025439e+01	7.424329e+01
1.120000e-06	1.528737e-06	1.236296e-09	1.057229e+01	8.094852e+01
1.130000e-06	1.574195e-06	1.338399e-09	1.088666e+01	8.758512e+01
1.140000e-06	1.619163e-06	1.434738e-09	1.119765e+01	9.408843e+01
1.150000e-06	1.663707e-06	1.528208e-09	1.150569e+01	1.003932e+02
1.160000e-06	1.707867e-06	1.620942e-09	1.181110e+01	1.064561e+02
1.170000e-06	1.751529e-06	1.710721e-09	1.211305e+01	1.122721e+02
1.180000e-06	1.794389e-06	1.795659e-09	1.240945e+01	1.178704e+02
1.190000e-06	1.836267e-06	1.876904e-09	1.269907e+01	1.232871e+02
1.200000e-06	1.877283e-06	1.956423e-09	1.298273e+01	1.285319e+02
1.210000e-06	1.917684e-06	2.033091e-09	1.326213e+01	1.335736e+02
1.220000e-06	1.957556e-06	2.104579e-09	1.353787e+01	1.383554e+02
1.230000e-06	1.996824e-06	2.169401e-09	1.380944e+01	1.428322e+02
1.240000e-06	2.035417e-06	2.230357e-09	1.407633e+01	1.470020e+02
1.250000e-06	2.073270e-06	2.289203e-09	1.433811e+01	1.509100e+02
1.260000e-06	2.110423e-06	2.344428e-09	1.459505e+01	1.546200e+02
1.270000e-06	2.147016e-06	2.394346e-09	1.484811e+01	1.581745e+02
1.280000e-06	2.183037e-06	2.442188e-09	1.509723e+01	1.615709e+02
1.290000e-06	2.218220e-06	2.488787e-09	1.534054e+01	1.647709e+02
1.300000e-06	2.252303e-06	2.531991e-09	1.557625e+01	1.677334e+02
1.310000e-06	2.285371e-06	2.570392e-09	1.580494e+01	1.704479e+02
1.320000e-06	2.317681e-06	2.604426e-09	1.602838e+01	1.729431e+02
1.330000e-06	2.349304e-06	2.637029e-09	1.624708e+01	1.752692e+02
1.340000e-06	2.380171e-06	2.668871e-09	1.646055e+01	1.774685e+02
1.350000e-06	2.410227e-06	2.698960e-09	1.666841e+01	1.795567e+02
1.360000e-06	2.439460e-06	2.727364e-09	1.687057e+01	1.815278e+02
1.370000e-06	2.467980e-06	2.754260e-09	1.706781e+01	1.833720e+02
1.380000e-06	2.495778e-06	2.780078e-09	1.726005e+01	1.850926e+02
1.390000e-06	2.522539e-06	2.803849e-09	1.744512e+01	1.867068e+02
1.400000e-06	2.548073e-06	2.823976e-09	1.762171e+01	1.882342e+02
1.410000e-06	2.572581e-06	2.842789e-09	1.779120e+01	1.896857e+02
1.420000e-06	2.596260e-06	2.862326e-09	1.795496e+01	1.910631e+02
1.430000e-06	2.619049e-06	2.882306e-09	1.811255e+01	1.923677e+02
1.440000e-06	2.640926e-06	2.902124e-09	1.826385e+01	1.936052e+02
1.450000e-06	2.661975e-06	2.922439e-09	1.840942e+01	1.947799e+02
1.460000e-06	2.682296e-06	2.942051e-09	1.854996e+01	1.958822e+02
1.470000e-06	2.701805e-06	2.957110e-09	1.868487e+01	1.968846e+02
1.480000e-06	2.720259e-06	2.967688e-09	1.881249e+01	1.977576e+02
1.490000e-06	2.737682e-06	2.976501e-09	1.893298e+01	1.984991e+02
1.500000e-06	2.754118e-06	2.986137e-09	1.904665e+01	1.991538e+02
1.510000e-06	2.769482e-06	2.998244e-09	1.915291e+01	1.998002e+02
1.520000e-06	2.783821e-06	3.011831e-09	1.925207e+01	2.005044e+02
1.530000e-06	2.797172e-06	3.024380e-09	1.934440e+01	2.012701e+02
1.540000e-06	2.809444e-06	3.035354e-09	1.942927e+01	2.020226e+02
1.550000e-06	2.820528e-06	3.044206e-09	1.950592e+01	2.026483e+02
1.560000e-06	2.830324e-06	3.050718e-09	1.957367e+01	2.030679e+02
1.570000e-06	2.839016e-06	3.056358e-09	1.963378e+01	2.032954e+02
1.580000e-06	2.846802e-06	3.062197e-09	1.968763e+01	2.034362e+02
1.590000e-06	2.853647e-06	3.069048e-09	1.973497e+01	2.036213e+02
1.600000e-06	2.859561e-06	3.075427e-09	1.977586e+01	2.039197e+02
1.610000e-06	2.864573e-06	3.079785e-09	1.981053e+01	2.042920e+02
1.620000e-06	2.868763e-06	3.082640e-09	1.983950e+01	2.046202e+02
1.630000e-06	2.871897e-06	3.086502e-09	1.986117e+01	2.047938e+02
1.640000e-06	2.873694e-06	3.091314e-09	1.987360e+01	2.047895e+02
1.650000e-06	2.874402e-06	3.094294e-09	1.987850e+01	2.046836e+02
1.660000e-06	2.874280e-06	3.094315e-09	1.987766e+01	2.045879e+02
1.670000e-06	2.873253e-06	3.090664e-09	1.987056e+01	2.045604e+02
1.680000e-06	2.871273e-06	3.084169e-09	1.985686e+01	2.045593e+02
1.690000e-06	2.868417e-06	3.079430e-09	1.983711e+01	2.044818e+02
1.700000e-06	2.864814e-06	3.078507e-09	1.981219e+01	2.042568e+02
1.710000e-06	2.860339e-06	3.079984e-09	1.978125e+01	2.039168e+02
1.720000e-06	2.854675e-06	3.083348e-09	1.974207e+01	2.035840e+02
1.730000e-06	2.847907e-06	3.089637e-09	1.969527e+01	2.033726e+02
1.740000e-06	2.840339e-06	3.061902e-09	1.964293e+01	2.032794e+02
1.750000e-06	2.831695e-06	3.002994e-09	1.958315e+01	2.031534e+02
1.760000e-06	2.821405e-06	3.004766e-09	1.951199e+01	2.027851e+02
1.770000e-06	2.809822e-06	3.108938e-09	1.943188e+01	2.020619e+02
1.780000e-06	2.797909e-06	3.111566e-09	1.934950e+01	2.010785e+02
1.790000e-06	2.785665e-06	2.986392e-09	1.926482e+01	2.001122e+02
1.800000e-06	2.771972e-06	2.965302e-09	1.917012e+01	1.994601e+02
1.810000e-06	2.756659e-06	3.058479e-09	1.906422e+01	1.992429e+02
1.820000e-06	2.740718e-06	3.012092e-09	1.895398e+01	1.993093e+02
1.830000e-06	2.724067e-06	2.957541e-09	1.883883e+01	1.993169e+02
1.840000e-06	2.705994e-06	3.098206e-09	1.871384e+01	1.989428e+02
1.850000e-06	2.686898e-06	3.086869e-09	1.858178e+01	1.980871e+02
1.860000e-06	2.667245e-06	2.943125e-09	1.844586e+01	1.969298e+02
1.870000e-06	2.646574e-06	3.029224e-09	1.830291e+01	1.958027e+02
1.880000e-06	2.624656e-06	3.046970e-09	1.815133e+01	1.949627e+02
1.890000e-06	2.601784e-06	2.864086e-09	1.799316e+01	1.944234e+02
1.900000e-06	2.577954e-06	2.927970e-09	1.782835e+01	1.939574e+02
1.910000e-06	2.553201e-06	3.043682e-09	1.765717e+01	1.932635e+02
1.920000e-06	2.527751e-06	2.942308e-09	1.748116e+01	1.921792e+02
1.930000e-06	2.501412e-06	2.899523e-09	1.729902e+01	1.907873e+02
1.940000e-06	2.474238e-06	2.920335e-09	1.711108e+01	1.893490e+02
1.950000e-06	2.446402e-06	2.875611e-09	1.691858e+01	1.881152e+02
1.960000e-06	2.417455e-06	2.887246e-09	1.671839e+01	1.871535e+02
1.970000e-06	2.387283e-06	2.837092e-09	1.650973e+01	1.863131e+02
1.980000e-06	2.356288e-06	2.781773e-09	1.629538e+01	1.853434e+02
1.990000e-06	2.324578e-06	2.867469e-09	1.607608e+01	1.840776e+02
2.000000e-06	2.292105e-06	2.835629e-09	1.585151e+01	1.825462e+02
2.010000e-06	2.258855e-06	2.753643e-09	1.562156e+01	1.809444e+02
2.020000e-06	2.224788e-06	2.776105e-09	1.538596e+01	1.794842e+02
2.030000e-06	2.190046e-06	2.727694e-09	1.514570e+01	1.782416e+02
2.040000e-06	2.154699e-06	2.696259e-09	1.490125e+01	1.771101e+02
2.050000e-06	2.118652e-06	2.717955e-09	1.465196e+01	1.758845e+02
2.060000e-06	2.081822e-06	2.649612e-09	1.439725e+01	1.744112e+02
2.070000e-06	2.043929e-06	2.635051e-09	1.413520e+01	1.726917e+02
2.080000e-06	2.005025e-06	2.656751e-09	1.386615e+01	1.708706e+02
2.090000e-06	1.965526e-06	2.604304e-09	1.359299e+01	1.691245e+02
2.100000e-06	1.925490e-06	2.570594e-09	1.331611e+01	1.675392e+02
2.110000e-06	1.884786e-06	2.534940e-09	1.303462e+01	1.660609e+02
2.120000e-06	1.843454e-06	2.512017e-09	1.274877e+01	1.645519e+02
2.130000e-06	1.801549e-06	2.515778e-09	1.245897e+01	1.628972e+02
2.140000e-06	1.759056e-06	2.479178e-09	1.216511e+01	1.610826e+02
2.150000e-06	1.716029e-06	2.443512e-09	1.186754e+01	1.591881e+02
2.160000e-06	1.672577e-06	2.419559e-09	1.156704e+01	1.573119e+02
2.170000e-06	1.628617e-06	2.395952e-09	1.126303e+01	1.554888e+02
2.180000e-06	1.583941e-06	2.369221e-09	1.095406e+01	1.536664e+02
2.190000e-06	1.538551e-06	2.319726e-09	1.064016e+01	1.517534e+02
2.200000e-06	1.492617e-06	2.294548e-09	1.032249e+01	1.496967e+02
2.210000e-06	1.446294e-06	2.283701e-09	1.000213e+01	1.475262e+02
2.220000e-06	1.399558e-06	2.244998e-09	9.678922e+00	1.453319e+02
2.230000e-06	1.352326e-06	2.207280e-09	9.352282e+00	1.431945e+02
2.240000e-06	1.304496e-06	2.162279e-09	9.021504e+00	1.411229e+02
2.250000e-06	1.256033e-06	2.133091e-09	8.686343e+00	1.390478e+02
2.260000e-06	1.207089e-06	2.119931e-09	8.347866e+00	1.368729e+02
2.270000e-06	1.157757e-06	2.079922e-09	8.006700e+00	1.345452e+02
2.280000e-06	1.108015e-06	2.036883e-09	7.662696e+00	1.320903e+02
2.290000e-06	1.057842e-06	1.998727e-09	7.315714e+00	1.295897e+02
2.300000e-06	1.007214e-06	1.966902e-09	6.965590e+00	1.271195e+02
2.310000e-06	9.562191e-07	1.933964e-09	6.612924e+00	1.246965e+02
2.320000e-06	9.049871e-07	1.884957e-09	6.258619e+00	1.222702e+02
2.330000e-06	8.535060e-07	1.846588e-09	5.902591e+00	1.197612e+02
2.340000e-06	8.016997e-07	1.819473e-09	5.544314e+00	1.171158e+02
2.350000e-06	7.494605e-07	1.781735e-09	5.183043e+00	1.143375e+02
2.360000e-06	6.968060e-07	1.731885e-09	4.818901e+00	1.114755e+02
2.370000e-06	6.437630e-07	1.677649e-09	4.452072e+00	1.085867e+02
2.380000e-06	5.902855e-07	1.637620e-09	4.082237e+00	1.056994e+02
2.390000e-06	5.364235e-07	1.602019e-09	3.709744e+00	1.028039e+02
2.400000e-06	4.822500e-07	1.555336e-09	3.335096e+00	9.986983e+01
2.410000e-06	4.278271e-07	1.508113e-09	2.958724e+00	9.687168e+01
2.420000e-06	3.732387e-07	1.463401e-09	2.581206e+00	9.380131e+01
2.430000e-06	3.184695e-07	1.420517e-09	2.202439e+00	9.066190e+01
2.440000e-06	2.635398e-07	1.370493e-09	1.822562e+00	8.745365e+01
2.450000e-06	2.085180e-07	1.313442e-09	1.442048e+00	8.416659e+01
2.460000e-06	1.534343e-07	1.261582e-09	1.061106e+00	8.078703e+01
2.470000e-06	9.836102e-08	1.212844e-09	6.802353e-01	7.731038e+01
2.480000e-06	4.326995e-08	1.162958e-09	2.992420e-01	7.374774e+01
2.490000e-06	-1.185753e-08	1.106557e-09	-8.200314e-02	7.011983e+01
2.500000e-06	-6.697854e-08	1.047043e-09	-4.632035e-01	6.644365e+01
2.510000e-06	-1.220707e-07	9.907214e-10	-8.442045e-01	6.272338e+01
2.520000e-06	-1.771262e-07	9.339272e-10	-1.224952e+00	5.895224e+01
2.530000e-06	-2.321578e-07	8.729222e-10	-1.605534e+00	5.512160e+01
2.540000e-06	-2.870768e-07	8.111234e-10	-1.985337e+00	5.122686e+01
2.550000e-06	-3.418470e-07	7.536910e-10	-2.364111e+00	4.726343e+01
2.560000e-06	-3.964900e-07	6.968948e-10	-2.742005e+00	4.321694e+01
2.570000e-06	-4.510193e-07	6.322248e-10	-3.119114e+00	3.905909e+01
2.580000e-06	-5.053475e-07	5.611104e-10	-3.494831e+00	3.475719e+01
2.590000e-06	-5.593823e-07	4.911128e-10	-3.868520e+00	3.029355e+01
2.600000e-06	-6.130479e-07	4.213986e-10	-4.239655e+00	2.567989e+01
2.610000e-06	-6.662527e-07	3.492324e-10	-4.607604e+00	2.095293e+01
2.620000e-06	-7.190453e-07	2.739003e-10	-4.972701e+00	1.615063e+01
2.630000e-06	-7.714280e-07	1.987505e-10	-5.334964e+00	1.128373e+01
2.640000e-06	-8.233987e-07	1.244884e-10	-5.694378e+00	6.323127e+00
2.650000e-06	-8.750351e-07	4.804798e-11	-6.051479e+00	1.213277e+00
2.660000e-06	-9.264124e-07	-3.312386e-11	-6.406790e+00	-4.096727e+00
2.670000e-06	-9.775067e-07	-1.177247e-10	-6.760143e+00	-9.625371e+00
2.680000e-06	-1.028210e-06	-2.033002e-10	-7.110793e+00	-1.535273e+01
2.690000e-06	-1.078478e-06	-2.916703e-10	-7.458430e+00	-2.123855e+01
2.700000e-06	-1.128336e-06	-3.830770e-10	-7.803234e+00	-2.724953e+01
2.710000e-06	-1.177801e-06	-4.781842e-10	-8.145320e+00	-3.337592e+01
2.720000e-06	-1.226876e-06	-5.742423e-10	-8.484706e+00	-3.962743e+01
2.730000e-06	-1.275375e-06	-6.689939e-10	-8.820113e+00	-4.601472e+01
2.740000e-06	-1.323097e-06	-7.662310e-10	-9.150143e+00	-5.253243e+01
2.750000e-06	-1.370079e-06	-8.685715e-10	-9.475055e+00	-5.915543e+01
2.760000e-06	-1.416450e-06	-9.720246e-10	-9.795740e+00	-6.584709e+01
2.770000e-06	-1.462373e-06	-1.073145e-09	-1.011333e+01	-7.256835e+01
2.780000e-06	-1.507976e-06	-1.175050e-09	-1.042871e+01	-7.927791e+01
2.790000e-06	-1.553215e-06	-1.279101e-09	-1.074157e+01	-8.592507e+01
2.800000e-06	-1.597905e-06	-1.380998e-09	-1.105063e+01	-9.244624e+01
2.810000e-06	-1.641973e-06	-1.476464e-09	-1.135539e+01	-9.877527e+01
2.820000e-06	-1.685546e-06	-1.567759e-09	-1.165673e+01	-1.048653e+02
2.830000e-06	-1.728737e-06	-1.658070e-09	-1.195543e+01	-1.107071e+02
2.840000e-06	-1.771493e-06	-1.747568e-09	-1.225112e+01	-1.163271e+02
2.850000e-06	-1.813658e-06	-1.831928e-09	-1.254272e+01	-1.217624e+02
2.860000e-06	-1.855181e-06	-1.909834e-09	-1.282987e+01	-1.270268e+02
2.870000e-06	-1.896098e-06	-1.986070e-09	-1.311285e+01	-1.320931e+02
2.880000e-06	-1.936342e-06	-2.061042e-09	-1.339116e+01	-1.369058e+02
2.890000e-06	-1.975964e-06	-2.132407e-09	-1.366517e+01	-1.414165e+02
2.900000e-06	-2.015080e-06	-2.199292e-09	-1.393569e+01	-1.456180e+02
2.910000e-06	-2.053516e-06	-2.263081e-09	-1.420150e+01	-1.495513e+02
2.920000e-06	-2.091050e-06	-2.324942e-09	-1.446107e+01	-1.532801e+02
2.930000e-06	-2.127544e-06	-2.383098e-09	-1.471345e+01	-1.568508e+02
2.940000e-06	-2.163172e-06	-2.435224e-09	-1.495985e+01	-1.602659e+02
