# Temperatura_=_29.67
# Concentracion g/m^3_=_15500.0
# C_Vs_to_Am_M_A/Vsm_=_65563218390.804596
# pendiente_HvsI_1/m_=_3716.3
# ordenada_HvsI_A/m_=_1297.0
# frecuencia_Hz_=_300978.4159334179

Tiempo_(s)	Campo_(V.s)	Magnetizacion_(V.s)	Campo_(kA/m)	Magnetizacion_(A/m)
0.000000e+00	-2.858919e-06	-3.320154e-09	-1.978254e+01	-2.171070e+02
1.000000e-08	-2.857856e-06	-3.324184e-09	-1.977518e+01	-2.171803e+02
2.000000e-08	-2.855734e-06	-3.324955e-09	-1.976050e+01	-2.172216e+02
3.000000e-08	-2.852324e-06	-3.323782e-09	-1.973690e+01	-2.171218e+02
4.000000e-08	-2.847986e-06	-3.322858e-09	-1.970688e+01	-2.168528e+02
5.000000e-08	-2.842930e-06	-3.317949e-09	-1.967190e+01	-2.164994e+02
6.000000e-08	-2.836982e-06	-3.305281e-09	-1.963075e+01	-2.162003e+02
7.000000e-08	-2.829987e-06	-3.305060e-09	-1.958234e+01	-2.160356e+02
8.000000e-08	-2.821964e-06	-3.349397e-09	-1.952682e+01	-2.159457e+02
9.000000e-08	-2.812800e-06	-3.376103e-09	-1.946341e+01	-2.157510e+02
1.000000e-07	-2.802122e-06	-3.278453e-09	-1.938953e+01	-2.152709e+02
1.100000e-07	-2.790224e-06	-3.169661e-09	-1.930720e+01	-2.144635e+02
1.200000e-07	-2.777626e-06	-3.246070e-09	-1.922002e+01	-2.134830e+02
1.300000e-07	-2.764163e-06	-3.372780e-09	-1.912686e+01	-2.126032e+02
1.400000e-07	-2.749692e-06	-3.241873e-09	-1.902674e+01	-2.120480e+02
1.500000e-07	-2.734273e-06	-3.177551e-09	-1.892004e+01	-2.118426e+02
1.600000e-07	-2.717618e-06	-3.331334e-09	-1.880479e+01	-2.117883e+02
1.700000e-07	-2.699643e-06	-3.257688e-09	-1.868041e+01	-2.115851e+02
1.800000e-07	-2.680865e-06	-3.140832e-09	-1.855048e+01	-2.110225e+02
1.900000e-07	-2.661425e-06	-3.252720e-09	-1.841596e+01	-2.101093e+02
2.000000e-07	-2.641082e-06	-3.236854e-09	-1.827519e+01	-2.090551e+02
2.100000e-07	-2.619809e-06	-3.086049e-09	-1.812800e+01	-2.081163e+02
2.200000e-07	-2.597697e-06	-3.191562e-09	-1.797499e+01	-2.074177e+02
2.300000e-07	-2.574680e-06	-3.285950e-09	-1.781572e+01	-2.068712e+02
2.400000e-07	-2.550727e-06	-3.141357e-09	-1.764998e+01	-2.062480e+02
2.500000e-07	-2.526032e-06	-3.089373e-09	-1.747910e+01	-2.053487e+02
2.600000e-07	-2.500566e-06	-3.126648e-09	-1.730288e+01	-2.041479e+02
2.700000e-07	-2.473986e-06	-3.088872e-09	-1.711896e+01	-2.028120e+02
2.800000e-07	-2.446199e-06	-3.107741e-09	-1.692668e+01	-2.015776e+02
2.900000e-07	-2.417494e-06	-3.070892e-09	-1.672806e+01	-2.005824e+02
3.000000e-07	-2.388010e-06	-3.005416e-09	-1.652404e+01	-1.997683e+02
3.100000e-07	-2.357838e-06	-3.087177e-09	-1.631527e+01	-1.989262e+02
3.200000e-07	-2.326970e-06	-3.067835e-09	-1.610167e+01	-1.978465e+02
3.300000e-07	-2.295230e-06	-2.953721e-09	-1.588204e+01	-1.964669e+02
3.400000e-07	-2.262743e-06	-2.963490e-09	-1.565724e+01	-1.949129e+02
3.500000e-07	-2.229749e-06	-2.962179e-09	-1.542894e+01	-1.934033e+02
3.600000e-07	-2.195996e-06	-2.921046e-09	-1.519539e+01	-1.920941e+02
3.700000e-07	-2.161011e-06	-2.961151e-09	-1.495330e+01	-1.909696e+02
3.800000e-07	-2.124926e-06	-2.920083e-09	-1.470361e+01	-1.898589e+02
3.900000e-07	-2.088244e-06	-2.849169e-09	-1.444979e+01	-1.885590e+02
4.000000e-07	-2.051000e-06	-2.886878e-09	-1.419207e+01	-1.869765e+02
4.100000e-07	-2.012979e-06	-2.865277e-09	-1.392898e+01	-1.851866e+02
4.200000e-07	-1.974237e-06	-2.769339e-09	-1.366090e+01	-1.833736e+02
4.300000e-07	-1.934780e-06	-2.757062e-09	-1.338788e+01	-1.817006e+02
4.400000e-07	-1.894631e-06	-2.780292e-09	-1.311006e+01	-1.802021e+02
4.500000e-07	-1.854050e-06	-2.755222e-09	-1.282926e+01	-1.787724e+02
4.600000e-07	-1.813059e-06	-2.721171e-09	-1.254562e+01	-1.772499e+02
4.700000e-07	-1.771364e-06	-2.675561e-09	-1.225710e+01	-1.755309e+02
4.800000e-07	-1.728590e-06	-2.640998e-09	-1.196112e+01	-1.736321e+02
4.900000e-07	-1.684786e-06	-2.632548e-09	-1.165802e+01	-1.716622e+02
5.000000e-07	-1.640414e-06	-2.605658e-09	-1.135098e+01	-1.697335e+02
5.100000e-07	-1.595684e-06	-2.557574e-09	-1.104147e+01	-1.678822e+02
5.200000e-07	-1.550507e-06	-2.534629e-09	-1.072887e+01	-1.660536e+02
5.300000e-07	-1.504728e-06	-2.518462e-09	-1.041210e+01	-1.641565e+02
5.400000e-07	-1.458371e-06	-2.480123e-09	-1.009132e+01	-1.621384e+02
5.500000e-07	-1.411501e-06	-2.437427e-09	-9.767006e+00	-1.600227e+02
5.600000e-07	-1.364114e-06	-2.393595e-09	-9.439103e+00	-1.578821e+02
5.700000e-07	-1.316219e-06	-2.371389e-09	-9.107690e+00	-1.557730e+02
5.800000e-07	-1.267928e-06	-2.362011e-09	-8.773539e+00	-1.536848e+02
5.900000e-07	-1.219374e-06	-2.324812e-09	-8.437561e+00	-1.515454e+02
6.000000e-07	-1.170477e-06	-2.267910e-09	-8.099219e+00	-1.492766e+02
6.100000e-07	-1.120998e-06	-2.226629e-09	-7.756845e+00	-1.468582e+02
6.200000e-07	-1.070779e-06	-2.197863e-09	-7.409349e+00	-1.443497e+02
6.300000e-07	-1.019872e-06	-2.161694e-09	-7.057093e+00	-1.418513e+02
6.400000e-07	-9.684216e-07	-2.116552e-09	-6.701077e+00	-1.394331e+02
6.500000e-07	-9.164983e-07	-2.074557e-09	-6.341789e+00	-1.370824e+02
6.600000e-07	-8.642210e-07	-2.050893e-09	-5.980052e+00	-1.347071e+02
6.700000e-07	-8.117277e-07	-2.022353e-09	-5.616820e+00	-1.321948e+02
6.800000e-07	-7.589912e-07	-1.971036e-09	-5.251905e+00	-1.294855e+02
6.900000e-07	-7.059499e-07	-1.915769e-09	-4.884881e+00	-1.266084e+02
7.000000e-07	-6.526085e-07	-1.874504e-09	-4.515781e+00	-1.236604e+02
7.100000e-07	-5.990223e-07	-1.837326e-09	-4.144987e+00	-1.207406e+02
7.200000e-07	-5.452391e-07	-1.791196e-09	-3.772829e+00	-1.178866e+02
7.300000e-07	-4.912520e-07	-1.739873e-09	-3.399260e+00	-1.150541e+02
7.400000e-07	-4.370412e-07	-1.691878e-09	-3.024145e+00	-1.121483e+02
7.500000e-07	-3.826902e-07	-1.650927e-09	-2.648058e+00	-1.090857e+02
7.600000e-07	-3.282794e-07	-1.604633e-09	-2.271558e+00	-1.058436e+02
7.700000e-07	-2.738098e-07	-1.547873e-09	-1.894651e+00	-1.024674e+02
7.800000e-07	-2.192323e-07	-1.493496e-09	-1.516997e+00	-9.903531e+01
7.900000e-07	-1.645992e-07	-1.447134e-09	-1.138958e+00	-9.560526e+01
8.000000e-07	-1.099736e-07	-1.396644e-09	-7.609718e-01	-9.217888e+01
8.100000e-07	-5.531100e-08	-1.336977e-09	-3.827293e-01	-8.870288e+01
8.200000e-07	-6.018739e-10	-1.276054e-09	-4.164718e-03	-8.510377e+01
8.300000e-07	5.409740e-08	-1.219899e-09	3.743316e-01	-8.133249e+01
8.400000e-07	1.087682e-07	-1.165428e-09	7.526311e-01	-7.739151e+01
8.500000e-07	1.634530e-07	-1.105324e-09	1.131027e+00	-7.332994e+01
8.600000e-07	2.180692e-07	-1.040290e-09	1.508949e+00	-6.921166e+01
8.700000e-07	2.725731e-07	-9.768964e-10	1.886093e+00	-6.507623e+01
8.800000e-07	3.270396e-07	-9.168616e-10	2.262979e+00	-6.091472e+01
8.900000e-07	3.814354e-07	-8.515668e-10	2.639376e+00	-5.667283e+01
9.000000e-07	4.356800e-07	-7.784129e-10	3.014726e+00	-5.227792e+01
9.100000e-07	4.897476e-07	-7.062901e-10	3.388851e+00	-4.767441e+01
9.200000e-07	5.436778e-07	-6.370610e-10	3.762026e+00	-4.284817e+01
9.300000e-07	5.974348e-07	-5.643241e-10	4.134002e+00	-3.782790e+01
9.400000e-07	6.509051e-07	-4.842642e-10	4.503994e+00	-3.266383e+01
9.500000e-07	7.040524e-07	-4.008837e-10	4.871751e+00	-2.739618e+01
9.600000e-07	7.569031e-07	-3.189796e-10	5.237457e+00	-2.202986e+01
9.700000e-07	8.095897e-07	-2.380585e-10	5.602026e+00	-1.652815e+01
9.800000e-07	8.620575e-07	-1.513784e-10	5.965082e+00	-1.082681e+01
9.900000e-07	9.141681e-07	-5.746472e-11	6.325666e+00	-4.860139e+00
1.000000e-06	9.658544e-07	3.932988e-11	6.683313e+00	1.414675e+00
1.010000e-06	1.016964e-06	1.380452e-10	7.036972e+00	8.005661e+00
1.020000e-06	1.067375e-06	2.417869e-10	7.385793e+00	1.488955e+01
1.030000e-06	1.117111e-06	3.520127e-10	7.729945e+00	2.202593e+01
1.040000e-06	1.166324e-06	4.665695e-10	8.070481e+00	2.937381e+01
1.050000e-06	1.215143e-06	5.813916e-10	8.408290e+00	3.690319e+01
1.060000e-06	1.263672e-06	6.958864e-10	8.744085e+00	4.459851e+01
1.070000e-06	1.311897e-06	8.150233e-10	9.077782e+00	5.245340e+01
1.080000e-06	1.359719e-06	9.373067e-10	9.408693e+00	6.045891e+01
1.090000e-06	1.407041e-06	1.059055e-09	9.736145e+00	6.858832e+01
1.100000e-06	1.453781e-06	1.183194e-09	1.005956e+01	7.678406e+01
1.110000e-06	1.500000e-06	1.309274e-09	1.037938e+01	8.495380e+01
1.120000e-06	1.545722e-06	1.434146e-09	1.069576e+01	9.298133e+01
1.130000e-06	1.590932e-06	1.552016e-09	1.100859e+01	1.007516e+02
1.140000e-06	1.635772e-06	1.660900e-09	1.131886e+01	1.081810e+02
1.150000e-06	1.680258e-06	1.764185e-09	1.162669e+01	1.152366e+02
1.160000e-06	1.724258e-06	1.864332e-09	1.193115e+01	1.219340e+02
1.170000e-06	1.767497e-06	1.961959e-09	1.223035e+01	1.283115e+02
1.180000e-06	1.809744e-06	2.054952e-09	1.252268e+01	1.343963e+02
1.190000e-06	1.851100e-06	2.143901e-09	1.280885e+01	1.401824e+02
1.200000e-06	1.891823e-06	2.228906e-09	1.309063e+01	1.456360e+02
1.210000e-06	1.931978e-06	2.307807e-09	1.336849e+01	1.507225e+02
1.220000e-06	1.971569e-06	2.379286e-09	1.364244e+01	1.554382e+02
1.230000e-06	2.010549e-06	2.443007e-09	1.391217e+01	1.598217e+02
1.240000e-06	2.048781e-06	2.501793e-09	1.417671e+01	1.639361e+02
1.250000e-06	2.086269e-06	2.559836e-09	1.443612e+01	1.678343e+02
1.260000e-06	2.123170e-06	2.615627e-09	1.469146e+01	1.715307e+02
1.270000e-06	2.159599e-06	2.666859e-09	1.494353e+01	1.750014e+02
1.280000e-06	2.195291e-06	2.713036e-09	1.519051e+01	1.782119e+02
1.290000e-06	2.229905e-06	2.755110e-09	1.543002e+01	1.811529e+02
1.300000e-06	2.263443e-06	2.794500e-09	1.566209e+01	1.838560e+02
1.310000e-06	2.296203e-06	2.831991e-09	1.588878e+01	1.863782e+02
1.320000e-06	2.328294e-06	2.866756e-09	1.611083e+01	1.887667e+02
1.330000e-06	2.359609e-06	2.900106e-09	1.632752e+01	1.910311e+02
1.340000e-06	2.390149e-06	2.931383e-09	1.653884e+01	1.931453e+02
1.350000e-06	2.419878e-06	2.958781e-09	1.674455e+01	1.950783e+02
1.360000e-06	2.448846e-06	2.983168e-09	1.694500e+01	1.968307e+02
1.370000e-06	2.477181e-06	3.006300e-09	1.714106e+01	1.984469e+02
1.380000e-06	2.504603e-06	3.029187e-09	1.733082e+01	1.999932e+02
1.390000e-06	2.530806e-06	3.051457e-09	1.751213e+01	2.015158e+02
1.400000e-06	2.555882e-06	3.073599e-09	1.768564e+01	2.030110e+02
1.410000e-06	2.580056e-06	3.095576e-09	1.785292e+01	2.044309e+02
1.420000e-06	2.603409e-06	3.114065e-09	1.801451e+01	2.057206e+02
1.430000e-06	2.625861e-06	3.128791e-09	1.816987e+01	2.068593e+02
1.440000e-06	2.647412e-06	3.143780e-09	1.831900e+01	2.078754e+02
1.450000e-06	2.668243e-06	3.160763e-09	1.846314e+01	2.088243e+02
1.460000e-06	2.688342e-06	3.176251e-09	1.860221e+01	2.097481e+02
1.470000e-06	2.707407e-06	3.188421e-09	1.873414e+01	2.106496e+02
1.480000e-06	2.725410e-06	3.200588e-09	1.885871e+01	2.115003e+02
1.490000e-06	2.742510e-06	3.214772e-09	1.897704e+01	2.122744e+02
1.500000e-06	2.758665e-06	3.228857e-09	1.908882e+01	2.129783e+02
1.510000e-06	2.773673e-06	3.240274e-09	1.919267e+01	2.136492e+02
1.520000e-06	2.787566e-06	3.248679e-09	1.928880e+01	2.143219e+02
1.530000e-06	2.800497e-06	3.257290e-09	1.937828e+01	2.149916e+02
1.540000e-06	2.812333e-06	3.267173e-09	1.946018e+01	2.156070e+02
1.550000e-06	2.822862e-06	3.274510e-09	1.953304e+01	2.161042e+02
1.560000e-06	2.832188e-06	3.280389e-09	1.959757e+01	2.164589e+02
1.570000e-06	2.840552e-06	3.288249e-09	1.965544e+01	2.167142e+02
1.580000e-06	2.847979e-06	3.297914e-09	1.970684e+01	2.169583e+02
1.590000e-06	2.854444e-06	3.305198e-09	1.975157e+01	2.172626e+02
1.600000e-06	2.859995e-06	3.308241e-09	1.978998e+01	2.176260e+02
1.610000e-06	2.864727e-06	3.308595e-09	1.982273e+01	2.179704e+02
1.620000e-06	2.868563e-06	3.310981e-09	1.984927e+01	2.181954e+02
1.630000e-06	2.871127e-06	3.316601e-09	1.986701e+01	2.182537e+02
1.640000e-06	2.872419e-06	3.321063e-09	1.987595e+01	2.181906e+02
1.650000e-06	2.872787e-06	3.323992e-09	1.987850e+01	2.181133e+02
1.660000e-06	2.872292e-06	3.324843e-09	1.987508e+01	2.181099e+02
1.670000e-06	2.870891e-06	3.321611e-09	1.986538e+01	2.181799e+02
1.680000e-06	2.868566e-06	3.316629e-09	1.984929e+01	2.182307e+02
1.690000e-06	2.865471e-06	3.312016e-09	1.982787e+01	2.181497e+02
1.700000e-06	2.861630e-06	3.310183e-09	1.980130e+01	2.178968e+02
1.710000e-06	2.856684e-06	3.314135e-09	1.976707e+01	2.175460e+02
1.720000e-06	2.850487e-06	3.327721e-09	1.972419e+01	2.172355e+02
1.730000e-06	2.843405e-06	3.306391e-09	1.967519e+01	2.170568e+02
1.740000e-06	2.835520e-06	3.234111e-09	1.962063e+01	2.169664e+02
1.750000e-06	2.826224e-06	3.216702e-09	1.955630e+01	2.167930e+02
1.760000e-06	2.815213e-06	3.349477e-09	1.948011e+01	2.163491e+02
1.770000e-06	2.803311e-06	3.385400e-09	1.939776e+01	2.155729e+02
1.780000e-06	2.791411e-06	3.235888e-09	1.931541e+01	2.145990e+02
1.790000e-06	2.778765e-06	3.198088e-09	1.922791e+01	2.136954e+02
1.800000e-06	2.764305e-06	3.300444e-09	1.912785e+01	2.131002e+02
1.810000e-06	2.748665e-06	3.220536e-09	1.901962e+01	2.128637e+02
1.820000e-06	2.732617e-06	3.108305e-09	1.890858e+01	2.128076e+02
1.830000e-06	2.715460e-06	3.282711e-09	1.878986e+01	2.126337e+02
1.840000e-06	2.696914e-06	3.310251e-09	1.866153e+01	2.121137e+02
1.850000e-06	2.677719e-06	3.098447e-09	1.852871e+01	2.112309e+02
1.860000e-06	2.657768e-06	3.196204e-09	1.839065e+01	2.101789e+02
1.870000e-06	2.636513e-06	3.306359e-09	1.824358e+01	2.092185e+02
1.880000e-06	2.614191e-06	3.077497e-09	1.808912e+01	2.084950e+02
1.890000e-06	2.590949e-06	3.070555e-09	1.792830e+01	2.079421e+02
1.900000e-06	2.566658e-06	3.220482e-09	1.776021e+01	2.073390e+02
1.910000e-06	2.541685e-06	3.149854e-09	1.758741e+01	2.064744e+02
1.920000e-06	2.515978e-06	3.108655e-09	1.740953e+01	2.053010e+02
1.930000e-06	2.489312e-06	3.110523e-09	1.722501e+01	2.039682e+02
1.940000e-06	2.462055e-06	3.048404e-09	1.703640e+01	2.027136e+02
1.950000e-06	2.433950e-06	3.119344e-09	1.684193e+01	2.016922e+02
1.960000e-06	2.404485e-06	3.090834e-09	1.663804e+01	2.008673e+02
1.970000e-06	2.373930e-06	2.939755e-09	1.642661e+01	2.000399e+02
1.980000e-06	2.342637e-06	3.041256e-09	1.621008e+01	1.989923e+02
1.990000e-06	2.310627e-06	3.076800e-09	1.598858e+01	1.976420e+02
2.000000e-06	2.277911e-06	2.950653e-09	1.576220e+01	1.960968e+02
2.010000e-06	2.244366e-06	2.994201e-09	1.553009e+01	1.945729e+02
2.020000e-06	2.210008e-06	2.967676e-09	1.529234e+01	1.932398e+02
2.030000e-06	2.175126e-06	2.878636e-09	1.505097e+01	1.921020e+02
2.040000e-06	2.139666e-06	2.944370e-09	1.480561e+01	1.910004e+02
2.050000e-06	2.103416e-06	2.898176e-09	1.455477e+01	1.897284e+02
2.060000e-06	2.066098e-06	2.813699e-09	1.429654e+01	1.881756e+02
2.070000e-06	2.027649e-06	2.866707e-09	1.403049e+01	1.864003e+02
2.080000e-06	1.988532e-06	2.849768e-09	1.375982e+01	1.845807e+02
2.090000e-06	1.948889e-06	2.792833e-09	1.348550e+01	1.828885e+02
2.100000e-06	1.908562e-06	2.760522e-09	1.320646e+01	1.813746e+02
2.110000e-06	1.867605e-06	2.718637e-09	1.292306e+01	1.799455e+02
2.120000e-06	1.826072e-06	2.723472e-09	1.263566e+01	1.784399e+02
2.130000e-06	1.783877e-06	2.715421e-09	1.234369e+01	1.767436e+02
2.140000e-06	1.741107e-06	2.667865e-09	1.204774e+01	1.748601e+02
2.150000e-06	1.697948e-06	2.637659e-09	1.174910e+01	1.728919e+02
2.160000e-06	1.654343e-06	2.616580e-09	1.144737e+01	1.709555e+02
2.170000e-06	1.610083e-06	2.587055e-09	1.114111e+01	1.690974e+02
2.180000e-06	1.565103e-06	2.547296e-09	1.082986e+01	1.672710e+02
2.190000e-06	1.519535e-06	2.518299e-09	1.051455e+01	1.653852e+02
2.200000e-06	1.473497e-06	2.500362e-09	1.019599e+01	1.633805e+02
2.210000e-06	1.427043e-06	2.473771e-09	9.874546e+00	1.612724e+02
2.220000e-06	1.380131e-06	2.453090e-09	9.549935e+00	1.591311e+02
2.230000e-06	1.332613e-06	2.403368e-09	9.221130e+00	1.570180e+02
2.240000e-06	1.284446e-06	2.348933e-09	8.887833e+00	1.549306e+02
2.250000e-06	1.235751e-06	2.336905e-09	8.550883e+00	1.528011e+02
2.260000e-06	1.186661e-06	2.311673e-09	8.211201e+00	1.505487e+02
2.270000e-06	1.137219e-06	2.272041e-09	7.869082e+00	1.481451e+02
2.280000e-06	1.087340e-06	2.234016e-09	7.523945e+00	1.456418e+02
2.290000e-06	1.036972e-06	2.197706e-09	7.175418e+00	1.431380e+02
2.300000e-06	9.861965e-07	2.172580e-09	6.824072e+00	1.407105e+02
2.310000e-06	9.351158e-07	2.128991e-09	6.470615e+00	1.383561e+02
2.320000e-06	8.838034e-07	2.077246e-09	6.115554e+00	1.359893e+02
2.330000e-06	8.321962e-07	2.045463e-09	5.758454e+00	1.334963e+02
2.340000e-06	7.801816e-07	2.015733e-09	5.398534e+00	1.308085e+02
2.350000e-06	7.277129e-07	1.976329e-09	5.035472e+00	1.279457e+02
2.360000e-06	6.748495e-07	1.925472e-09	4.669680e+00	1.250002e+02
2.370000e-06	6.216167e-07	1.876089e-09	4.301331e+00	1.220743e+02
2.380000e-06	5.679269e-07	1.838997e-09	3.929819e+00	1.192143e+02
2.390000e-06	5.139127e-07	1.800338e-09	3.556063e+00	1.163838e+02
2.400000e-06	4.596412e-07	1.755348e-09	3.180527e+00	1.134908e+02
2.410000e-06	4.051362e-07	1.705818e-09	2.803375e+00	1.104476e+02
2.420000e-06	3.505171e-07	1.659117e-09	2.425434e+00	1.072238e+02
2.430000e-06	2.957928e-07	1.613032e-09	2.046764e+00	1.038586e+02
2.440000e-06	2.409399e-07	1.556186e-09	1.667205e+00	1.004292e+02
2.450000e-06	1.860259e-07	1.498248e-09	1.287222e+00	9.699799e+01
2.460000e-06	1.311068e-07	1.446149e-09	9.072045e-01	9.357323e+01
2.470000e-06	7.610779e-08	1.398581e-09	5.266344e-01	9.010632e+01
2.480000e-06	2.107636e-08	1.349348e-09	1.458397e-01	8.652373e+01
2.490000e-06	-3.390876e-08	1.290341e-09	-2.346346e-01	8.277200e+01
2.500000e-06	-8.887118e-08	1.228001e-09	-6.149518e-01	7.884771e+01
2.510000e-06	-1.438034e-07	1.166955e-09	-9.950604e-01	7.479615e+01
2.520000e-06	-1.987131e-07	1.104215e-09	-1.375013e+00	7.068156e+01
2.530000e-06	-2.536058e-07	1.038311e-09	-1.754847e+00	6.654769e+01
2.540000e-06	-3.084687e-07	9.733105e-10	-2.134476e+00	6.239117e+01
2.550000e-06	-3.632163e-07	9.142720e-10	-2.513307e+00	5.816157e+01
2.560000e-06	-4.177897e-07	8.531396e-10	-2.890932e+00	5.378651e+01
2.570000e-06	-4.721928e-07	7.813930e-10	-3.267379e+00	4.920709e+01
2.580000e-06	-5.263553e-07	7.045144e-10	-3.642161e+00	4.440422e+01
2.590000e-06	-5.801669e-07	6.272565e-10	-4.014515e+00	3.940268e+01
2.600000e-06	-6.336056e-07	5.492828e-10	-4.384289e+00	3.425189e+01
2.610000e-06	-6.866665e-07	4.694040e-10	-4.751448e+00	2.899457e+01
2.620000e-06	-7.392778e-07	3.863436e-10	-5.115497e+00	2.364013e+01
2.630000e-06	-7.915027e-07	3.014799e-10	-5.476871e+00	1.815593e+01
2.640000e-06	-8.433821e-07	2.157120e-10	-5.835855e+00	1.247956e+01
2.650000e-06	-8.948492e-07	1.274648e-10	-6.191986e+00	6.544155e+00
2.660000e-06	-9.460252e-07	3.284101e-11	-6.546103e+00	3.036041e-01
2.670000e-06	-9.969493e-07	-6.890807e-11	-6.898477e+00	-6.253933e+00
2.680000e-06	-1.047478e-06	-1.739219e-10	-7.248116e+00	-1.310798e+01
2.690000e-06	-1.097594e-06	-2.796195e-10	-7.594899e+00	-2.021916e+01
2.700000e-06	-1.147292e-06	-3.901361e-10	-7.938784e+00	-2.754583e+01
2.710000e-06	-1.196569e-06	-5.075465e-10	-8.279763e+00	-3.505653e+01
2.720000e-06	-1.245407e-06	-6.276721e-10	-8.617698e+00	-4.273422e+01
2.730000e-06	-1.293676e-06	-7.478165e-10	-8.951704e+00	-5.057205e+01
2.740000e-06	-1.341227e-06	-8.695479e-10	-9.280737e+00	-5.856203e+01
2.750000e-06	-1.388007e-06	-9.945316e-10	-9.604434e+00	-6.668007e+01
2.760000e-06	-1.434202e-06	-1.119533e-09	-9.924085e+00	-7.487231e+01
2.770000e-06	-1.479960e-06	-1.242461e-09	-1.024071e+01	-8.304992e+01
2.780000e-06	-1.525348e-06	-1.364569e-09	-1.055478e+01	-9.109823e+01
2.790000e-06	-1.570320e-06	-1.486504e-09	-1.086597e+01	-9.890066e+01
2.800000e-06	-1.614781e-06	-1.604822e-09	-1.117362e+01	-1.063688e+02
2.810000e-06	-1.658639e-06	-1.716648e-09	-1.147710e+01	-1.134642e+02
2.820000e-06	-1.701979e-06	-1.821136e-09	-1.177699e+01	-1.201980e+02
2.830000e-06	-1.744988e-06	-1.920575e-09	-1.207460e+01	-1.266078e+02
2.840000e-06	-1.787475e-06	-2.015398e-09	-1.236859e+01	-1.327234e+02
2.850000e-06	-1.829348e-06	-2.102675e-09	-1.265833e+01	-1.385426e+02
2.860000e-06	-1.870639e-06	-2.182210e-09	-1.294405e+01	-1.440335e+02
2.870000e-06	-1.911274e-06	-2.257518e-09	-1.322523e+01	-1.491601e+02
2.880000e-06	-1.951195e-06	-2.331277e-09	-1.350146e+01	-1.539141e+02
2.890000e-06	-1.990555e-06	-2.403516e-09	-1.377382e+01	-1.583301e+02
2.900000e-06	-2.029405e-06	-2.472431e-09	-1.404264e+01	-1.624701e+02
2.910000e-06	-2.067437e-06	-2.535749e-09	-1.430581e+01	-1.663898e+02
2.920000e-06	-2.104478e-06	-2.594207e-09	-1.456212e+01	-1.701082e+02
2.930000e-06	-2.140566e-06	-2.647244e-09	-1.481183e+01	-1.736046e+02
2.940000e-06	-2.175907e-06	-2.696752e-09	-1.505637e+01	-1.768439e+02
