# Temperatura_=_26.98
# Concentracion g/m^3_=_15500.0
# C_Vs_to_Am_M_A/Vsm_=_65563218390.804596
# pendiente_HvsI_1/m_=_3716.3
# ordenada_HvsI_A/m_=_1297.0
# frecuencia_Hz_=_300983.3171323643

Tiempo_(s)	Campo_(V.s)	Magnetizacion_(V.s)	Campo_(kA/m)	Magnetizacion_(A/m)
0.000000e+00	-2.862500e-06	-3.312462e-09	-1.978163e+01	-2.168925e+02
1.000000e-08	-2.861663e-06	-3.313323e-09	-1.977584e+01	-2.168226e+02
2.000000e-08	-2.859785e-06	-3.314057e-09	-1.976286e+01	-2.167443e+02
3.000000e-08	-2.856625e-06	-3.313688e-09	-1.974102e+01	-2.166186e+02
4.000000e-08	-2.852489e-06	-3.310515e-09	-1.971244e+01	-2.164208e+02
5.000000e-08	-2.847612e-06	-3.304928e-09	-1.967874e+01	-2.161705e+02
6.000000e-08	-2.841873e-06	-3.296345e-09	-1.963908e+01	-2.159214e+02
7.000000e-08	-2.835182e-06	-3.290962e-09	-1.959284e+01	-2.157116e+02
8.000000e-08	-2.827469e-06	-3.329081e-09	-1.953954e+01	-2.155136e+02
9.000000e-08	-2.818571e-06	-3.355228e-09	-1.947805e+01	-2.152311e+02
1.000000e-07	-2.808179e-06	-3.298821e-09	-1.940624e+01	-2.147571e+02
1.100000e-07	-2.796485e-06	-3.167168e-09	-1.932542e+01	-2.140581e+02
1.200000e-07	-2.784041e-06	-3.224056e-09	-1.923942e+01	-2.132226e+02
1.300000e-07	-2.770791e-06	-3.342695e-09	-1.914786e+01	-2.124278e+02
1.400000e-07	-2.756530e-06	-3.231737e-09	-1.904931e+01	-2.118335e+02
1.500000e-07	-2.741355e-06	-3.172028e-09	-1.894444e+01	-2.114717e+02
1.600000e-07	-2.725007e-06	-3.307957e-09	-1.883146e+01	-2.112093e+02
1.700000e-07	-2.707287e-06	-3.291920e-09	-1.870901e+01	-2.108218e+02
1.800000e-07	-2.688690e-06	-3.114927e-09	-1.858049e+01	-2.101366e+02
1.900000e-07	-2.669440e-06	-3.226465e-09	-1.844746e+01	-2.091530e+02
2.000000e-07	-2.649293e-06	-3.262777e-09	-1.830824e+01	-2.080544e+02
2.100000e-07	-2.628248e-06	-3.056878e-09	-1.816280e+01	-2.070965e+02
2.200000e-07	-2.606393e-06	-3.143017e-09	-1.801177e+01	-2.064409e+02
2.300000e-07	-2.583603e-06	-3.285224e-09	-1.785428e+01	-2.060436e+02
2.400000e-07	-2.559869e-06	-3.137199e-09	-1.769026e+01	-2.056754e+02
2.500000e-07	-2.535386e-06	-3.086002e-09	-1.752107e+01	-2.050641e+02
2.600000e-07	-2.509985e-06	-3.127158e-09	-1.734553e+01	-2.040660e+02
2.700000e-07	-2.483424e-06	-3.081703e-09	-1.716198e+01	-2.027543e+02
2.800000e-07	-2.455812e-06	-3.086530e-09	-1.697116e+01	-2.013664e+02
2.900000e-07	-2.427311e-06	-3.068727e-09	-1.677420e+01	-2.001463e+02
3.000000e-07	-2.398018e-06	-3.017689e-09	-1.657177e+01	-1.991891e+02
3.100000e-07	-2.368003e-06	-3.052848e-09	-1.636435e+01	-1.983876e+02
3.200000e-07	-2.337264e-06	-3.067570e-09	-1.615192e+01	-1.975141e+02
3.300000e-07	-2.305704e-06	-2.979267e-09	-1.593383e+01	-1.963765e+02
3.400000e-07	-2.273463e-06	-2.963390e-09	-1.571102e+01	-1.949433e+02
3.500000e-07	-2.240611e-06	-2.938297e-09	-1.548399e+01	-1.933561e+02
3.600000e-07	-2.206882e-06	-2.917301e-09	-1.525091e+01	-1.918277e+02
3.700000e-07	-2.171999e-06	-2.956565e-09	-1.500984e+01	-1.905002e+02
3.800000e-07	-2.136093e-06	-2.899480e-09	-1.476171e+01	-1.893578e+02
3.900000e-07	-2.099559e-06	-2.847772e-09	-1.450924e+01	-1.882477e+02
4.000000e-07	-2.062433e-06	-2.881160e-09	-1.425267e+01	-1.869874e+02
4.100000e-07	-2.024595e-06	-2.859770e-09	-1.399119e+01	-1.854805e+02
4.200000e-07	-1.986023e-06	-2.774826e-09	-1.372463e+01	-1.837661e+02
4.300000e-07	-1.946668e-06	-2.759302e-09	-1.345267e+01	-1.819766e+02
4.400000e-07	-1.906649e-06	-2.759727e-09	-1.317611e+01	-1.802424e+02
4.500000e-07	-1.866230e-06	-2.746660e-09	-1.289679e+01	-1.786121e+02
4.600000e-07	-1.825315e-06	-2.720700e-09	-1.261404e+01	-1.770377e+02
4.700000e-07	-1.783603e-06	-2.677975e-09	-1.232579e+01	-1.754236e+02
4.800000e-07	-1.740847e-06	-2.640739e-09	-1.203032e+01	-1.736977e+02
4.900000e-07	-1.697141e-06	-2.623038e-09	-1.172828e+01	-1.718507e+02
5.000000e-07	-1.652875e-06	-2.607096e-09	-1.142238e+01	-1.699246e+02
5.100000e-07	-1.608212e-06	-2.558604e-09	-1.111373e+01	-1.679677e+02
5.200000e-07	-1.563093e-06	-2.527332e-09	-1.080193e+01	-1.659960e+02
5.300000e-07	-1.517413e-06	-2.509842e-09	-1.048625e+01	-1.639895e+02
5.400000e-07	-1.471159e-06	-2.487709e-09	-1.016661e+01	-1.619210e+02
5.500000e-07	-1.424400e-06	-2.436561e-09	-9.843472e+00	-1.597877e+02
5.600000e-07	-1.377103e-06	-2.386854e-09	-9.516627e+00	-1.576186e+02
5.700000e-07	-1.329305e-06	-2.364059e-09	-9.186309e+00	-1.554496e+02
5.800000e-07	-1.281140e-06	-2.349808e-09	-8.853463e+00	-1.532891e+02
5.900000e-07	-1.232599e-06	-2.315502e-09	-8.518016e+00	-1.511034e+02
6.000000e-07	-1.183611e-06	-2.264299e-09	-8.179478e+00	-1.488363e+02
6.100000e-07	-1.133999e-06	-2.227515e-09	-7.836629e+00	-1.464496e+02
6.200000e-07	-1.083650e-06	-2.192422e-09	-7.488687e+00	-1.439540e+02
6.300000e-07	-1.032645e-06	-2.158858e-09	-7.136207e+00	-1.414058e+02
6.400000e-07	-9.811120e-07	-2.110741e-09	-6.780084e+00	-1.388687e+02
6.500000e-07	-9.291552e-07	-2.064206e-09	-6.421031e+00	-1.363687e+02
6.600000e-07	-8.768780e-07	-2.034257e-09	-6.059763e+00	-1.338727e+02
6.700000e-07	-8.243982e-07	-2.007412e-09	-5.697096e+00	-1.313085e+02
6.800000e-07	-7.716847e-07	-1.961490e-09	-5.332813e+00	-1.286126e+02
6.900000e-07	-7.186518e-07	-1.903917e-09	-4.966324e+00	-1.257723e+02
7.000000e-07	-6.652946e-07	-1.862197e-09	-4.597592e+00	-1.228341e+02
7.100000e-07	-6.116888e-07	-1.825774e-09	-4.227144e+00	-1.198718e+02
7.200000e-07	-5.578598e-07	-1.782157e-09	-3.855152e+00	-1.169380e+02
7.300000e-07	-5.038548e-07	-1.727536e-09	-3.481945e+00	-1.140295e+02
7.400000e-07	-4.497014e-07	-1.679016e-09	-3.107711e+00	-1.110920e+02
7.500000e-07	-3.954147e-07	-1.637410e-09	-2.732558e+00	-1.080564e+02
7.600000e-07	-3.410369e-07	-1.592229e-09	-2.356773e+00	-1.048834e+02
7.700000e-07	-2.865597e-07	-1.536222e-09	-1.980303e+00	-1.015841e+02
7.800000e-07	-2.319884e-07	-1.480016e-09	-1.603182e+00	-9.820571e+01
7.900000e-07	-1.774015e-07	-1.432698e-09	-1.225953e+00	-9.479243e+01
8.000000e-07	-1.228059e-07	-1.382362e-09	-8.486640e-01	-9.135111e+01
8.100000e-07	-6.816928e-08	-1.324725e-09	-4.710914e-01	-8.784477e+01
8.200000e-07	-1.346978e-08	-1.262978e-09	-9.308441e-02	-8.421862e+01
8.300000e-07	4.128493e-08	-1.206681e-09	2.853041e-01	-8.044010e+01
8.400000e-07	9.597448e-08	-1.150103e-09	6.632423e-01	-7.652496e+01
8.500000e-07	1.506107e-07	-1.091968e-09	1.040812e+00	-7.253036e+01
8.600000e-07	2.052401e-07	-1.028809e-09	1.418335e+00	-6.851843e+01
8.700000e-07	2.598400e-07	-9.656112e-10	1.795654e+00	-6.451318e+01
8.800000e-07	3.143612e-07	-9.073025e-10	2.172428e+00	-6.047865e+01
8.900000e-07	3.687588e-07	-8.454865e-10	2.548349e+00	-5.633295e+01
9.000000e-07	4.230172e-07	-7.765889e-10	2.923308e+00	-5.199021e+01
9.100000e-07	4.771343e-07	-7.030740e-10	3.297290e+00	-4.740507e+01
9.200000e-07	5.311853e-07	-6.319815e-10	3.670815e+00	-4.259300e+01
9.300000e-07	5.850960e-07	-5.578811e-10	4.043371e+00	-3.761507e+01
9.400000e-07	6.386891e-07	-4.797844e-10	4.413732e+00	-3.253779e+01
9.500000e-07	6.920111e-07	-3.999181e-10	4.782220e+00	-2.739247e+01
9.600000e-07	7.450758e-07	-3.207624e-10	5.148930e+00	-2.215770e+01
9.700000e-07	7.978170e-07	-2.418305e-10	5.513404e+00	-1.677209e+01
9.800000e-07	8.502594e-07	-1.574392e-10	5.875812e+00	-1.116618e+01
9.900000e-07	9.024581e-07	-6.597543e-11	6.236537e+00	-5.292168e+00
1.000000e-06	9.543256e-07	3.173131e-11	6.594973e+00	8.647551e-01
1.010000e-06	1.005734e-06	1.313673e-10	6.950239e+00	7.295398e+00
1.020000e-06	1.056587e-06	2.323725e-10	7.301665e+00	1.398398e+01
1.030000e-06	1.106806e-06	3.360732e-10	7.648703e+00	2.091913e+01
1.040000e-06	1.156371e-06	4.464525e-10	7.991230e+00	2.809191e+01
1.050000e-06	1.205365e-06	5.599275e-10	8.329808e+00	3.548641e+01
1.060000e-06	1.253967e-06	6.747755e-10	8.665675e+00	4.307467e+01
1.070000e-06	1.302266e-06	7.919350e-10	8.999454e+00	5.082218e+01
1.080000e-06	1.350215e-06	9.114550e-10	9.330808e+00	5.869929e+01
1.090000e-06	1.397669e-06	1.031523e-09	9.658747e+00	6.668558e+01
1.100000e-06	1.444620e-06	1.152451e-09	9.983210e+00	7.475823e+01
1.110000e-06	1.491092e-06	1.277881e-09	1.030436e+01	8.286864e+01
1.120000e-06	1.537006e-06	1.402971e-09	1.062165e+01	9.092480e+01
1.130000e-06	1.582343e-06	1.522878e-09	1.093496e+01	9.879759e+01
1.140000e-06	1.627202e-06	1.635092e-09	1.124496e+01	1.063555e+02
1.150000e-06	1.671678e-06	1.739770e-09	1.155232e+01	1.135109e+02
1.160000e-06	1.715786e-06	1.839370e-09	1.185713e+01	1.202502e+02
1.170000e-06	1.759330e-06	1.934988e-09	1.215805e+01	1.266252e+02
1.180000e-06	1.801991e-06	2.027368e-09	1.245286e+01	1.327096e+02
1.190000e-06	1.843683e-06	2.118040e-09	1.274098e+01	1.385460e+02
1.200000e-06	1.884602e-06	2.204150e-09	1.302375e+01	1.441180e+02
1.210000e-06	1.924982e-06	2.283860e-09	1.330280e+01	1.493658e+02
1.220000e-06	1.964804e-06	2.356851e-09	1.357800e+01	1.542337e+02
1.230000e-06	2.003959e-06	2.422437e-09	1.384858e+01	1.587165e+02
1.240000e-06	2.042460e-06	2.481883e-09	1.411465e+01	1.628709e+02
1.250000e-06	2.080224e-06	2.538762e-09	1.437562e+01	1.667837e+02
1.260000e-06	2.117220e-06	2.594260e-09	1.463128e+01	1.705194e+02
1.270000e-06	2.153682e-06	2.648948e-09	1.488326e+01	1.740832e+02
1.280000e-06	2.189576e-06	2.699348e-09	1.513131e+01	1.774270e+02
1.290000e-06	2.224556e-06	2.744584e-09	1.537305e+01	1.804936e+02
1.300000e-06	2.258435e-06	2.783869e-09	1.560717e+01	1.832672e+02
1.310000e-06	2.291345e-06	2.817346e-09	1.583460e+01	1.857945e+02
1.320000e-06	2.323571e-06	2.849435e-09	1.605730e+01	1.881610e+02
1.330000e-06	2.355135e-06	2.882303e-09	1.627542e+01	1.904400e+02
1.340000e-06	2.385937e-06	2.914666e-09	1.648829e+01	1.926494e+02
1.350000e-06	2.415889e-06	2.945523e-09	1.669527e+01	1.947485e+02
1.360000e-06	2.445000e-06	2.974366e-09	1.689645e+01	1.966737e+02
1.370000e-06	2.473493e-06	2.999858e-09	1.709335e+01	1.983894e+02
1.380000e-06	2.501210e-06	3.022988e-09	1.728489e+01	1.999176e+02
1.390000e-06	2.527783e-06	3.043115e-09	1.746852e+01	2.013276e+02
1.400000e-06	2.553213e-06	3.061298e-09	1.764427e+01	2.026959e+02
1.410000e-06	2.577676e-06	3.079855e-09	1.781332e+01	2.040649e+02
1.420000e-06	2.601228e-06	3.100086e-09	1.797607e+01	2.054272e+02
1.430000e-06	2.623889e-06	3.120560e-09	1.813268e+01	2.067411e+02
1.440000e-06	2.645692e-06	3.139224e-09	1.828335e+01	2.079613e+02
1.450000e-06	2.666680e-06	3.157418e-09	1.842839e+01	2.090619e+02
1.460000e-06	2.686929e-06	3.175275e-09	1.856832e+01	2.100399e+02
1.470000e-06	2.706293e-06	3.189374e-09	1.870214e+01	2.109039e+02
1.480000e-06	2.724636e-06	3.199386e-09	1.882890e+01	2.116656e+02
1.490000e-06	2.742014e-06	3.208397e-09	1.894900e+01	2.123412e+02
1.500000e-06	2.758386e-06	3.219633e-09	1.906213e+01	2.129599e+02
1.510000e-06	2.773637e-06	3.231908e-09	1.916753e+01	2.135629e+02
1.520000e-06	2.787804e-06	3.240911e-09	1.926543e+01	2.141870e+02
1.530000e-06	2.800971e-06	3.248583e-09	1.935642e+01	2.148389e+02
1.540000e-06	2.813119e-06	3.259186e-09	1.944037e+01	2.154814e+02
1.550000e-06	2.824079e-06	3.269983e-09	1.951611e+01	2.160479e+02
1.560000e-06	2.833751e-06	3.277513e-09	1.958295e+01	2.164806e+02
1.570000e-06	2.842355e-06	3.282178e-09	1.964241e+01	2.167699e+02
1.580000e-06	2.850031e-06	3.286981e-09	1.969545e+01	2.169636e+02
1.590000e-06	2.856759e-06	3.292713e-09	1.974195e+01	2.171391e+02
1.600000e-06	2.862529e-06	3.297266e-09	1.978182e+01	2.173531e+02
1.610000e-06	2.867426e-06	3.298691e-09	1.981566e+01	2.176064e+02
1.620000e-06	2.871463e-06	3.299112e-09	1.984357e+01	2.178465e+02
1.630000e-06	2.874331e-06	3.303494e-09	1.986338e+01	2.180086e+02
1.640000e-06	2.875919e-06	3.310907e-09	1.987436e+01	2.180616e+02
1.650000e-06	2.876518e-06	3.316668e-09	1.987850e+01	2.180271e+02
1.660000e-06	2.876267e-06	3.315661e-09	1.987676e+01	2.179561e+02
1.670000e-06	2.875103e-06	3.307359e-09	1.986872e+01	2.178854e+02
1.680000e-06	2.873010e-06	3.301148e-09	1.985426e+01	2.178092e+02
1.690000e-06	2.870074e-06	3.299468e-09	1.983397e+01	2.176901e+02
1.700000e-06	2.866398e-06	3.298280e-09	1.980856e+01	2.174996e+02
1.710000e-06	2.861723e-06	3.298770e-09	1.977625e+01	2.172522e+02
1.720000e-06	2.855781e-06	3.308453e-09	1.973519e+01	2.170001e+02
1.730000e-06	2.848825e-06	3.305733e-09	1.968712e+01	2.167856e+02
1.740000e-06	2.841080e-06	3.238932e-09	1.963360e+01	2.165896e+02
1.750000e-06	2.832106e-06	3.210800e-09	1.957159e+01	2.163215e+02
1.760000e-06	2.821471e-06	3.306517e-09	1.949809e+01	2.158712e+02
1.770000e-06	2.809785e-06	3.348153e-09	1.941734e+01	2.151939e+02
1.780000e-06	2.797970e-06	3.257143e-09	1.933568e+01	2.143650e+02
1.790000e-06	2.785532e-06	3.172928e-09	1.924973e+01	2.135565e+02
1.800000e-06	2.771412e-06	3.296295e-09	1.915215e+01	2.129360e+02
1.810000e-06	2.755980e-06	3.227597e-09	1.904551e+01	2.125525e+02
1.820000e-06	2.739994e-06	3.095151e-09	1.893503e+01	2.122893e+02
1.830000e-06	2.723040e-06	3.268364e-09	1.881787e+01	2.119253e+02
1.840000e-06	2.704747e-06	3.297000e-09	1.869145e+01	2.112753e+02
1.850000e-06	2.685635e-06	3.105920e-09	1.855938e+01	2.103173e+02
1.860000e-06	2.665874e-06	3.173988e-09	1.842282e+01	2.092183e+02
1.870000e-06	2.644942e-06	3.304824e-09	1.827817e+01	2.082343e+02
1.880000e-06	2.622858e-06	3.097727e-09	1.812555e+01	2.075440e+02
1.890000e-06	2.599828e-06	3.042935e-09	1.796640e+01	2.071272e+02
1.900000e-06	2.575726e-06	3.213369e-09	1.779984e+01	2.067694e+02
1.910000e-06	2.550863e-06	3.163360e-09	1.762802e+01	2.061941e+02
1.920000e-06	2.525327e-06	3.101464e-09	1.745155e+01	2.052375e+02
1.930000e-06	2.498832e-06	3.142959e-09	1.726846e+01	2.039495e+02
1.940000e-06	2.471602e-06	3.057138e-09	1.708028e+01	2.025563e+02
1.950000e-06	2.443582e-06	3.100886e-09	1.688665e+01	2.013098e+02
1.960000e-06	2.414345e-06	3.096996e-09	1.668460e+01	2.003259e+02
1.970000e-06	2.384033e-06	2.960823e-09	1.647513e+01	1.995173e+02
1.980000e-06	2.352896e-06	3.020155e-09	1.625995e+01	1.986623e+02
1.990000e-06	2.320954e-06	3.052842e-09	1.603921e+01	1.975576e+02
2.000000e-06	2.288283e-06	2.973365e-09	1.581343e+01	1.961515e+02
2.010000e-06	2.254860e-06	3.006711e-09	1.558246e+01	1.945702e+02
2.020000e-06	2.220665e-06	2.953151e-09	1.534615e+01	1.930260e+02
2.030000e-06	2.185852e-06	2.877879e-09	1.510557e+01	1.916744e+02
2.040000e-06	2.150343e-06	2.947659e-09	1.486018e+01	1.905175e+02
2.050000e-06	2.114108e-06	2.883988e-09	1.460978e+01	1.894128e+02
2.060000e-06	2.077042e-06	2.818249e-09	1.435363e+01	1.881751e+02
2.070000e-06	2.038879e-06	2.871841e-09	1.408990e+01	1.866947e+02
2.080000e-06	1.999826e-06	2.848840e-09	1.382002e+01	1.849968e+02
2.090000e-06	1.960197e-06	2.808000e-09	1.354616e+01	1.832079e+02
2.100000e-06	1.919934e-06	2.776963e-09	1.326792e+01	1.814632e+02
2.110000e-06	1.879030e-06	2.723629e-09	1.298525e+01	1.798223e+02
2.120000e-06	1.837563e-06	2.714881e-09	1.269869e+01	1.782458e+02
2.130000e-06	1.795532e-06	2.703578e-09	1.240822e+01	1.766401e+02
2.140000e-06	1.752924e-06	2.673555e-09	1.211378e+01	1.749274e+02
2.150000e-06	1.709784e-06	2.648368e-09	1.181565e+01	1.730916e+02
2.160000e-06	1.666274e-06	2.612583e-09	1.151497e+01	1.711710e+02
2.170000e-06	1.622248e-06	2.598087e-09	1.121073e+01	1.692155e+02
2.180000e-06	1.577439e-06	2.560270e-09	1.090107e+01	1.672455e+02
2.190000e-06	1.531907e-06	2.514855e-09	1.058642e+01	1.652439e+02
2.200000e-06	1.485862e-06	2.495643e-09	1.026821e+01	1.631824e+02
2.210000e-06	1.439427e-06	2.471838e-09	9.947318e+00	1.610548e+02
2.220000e-06	1.392528e-06	2.451211e-09	9.623219e+00	1.588873e+02
2.230000e-06	1.345095e-06	2.400988e-09	9.295427e+00	1.567168e+02
2.240000e-06	1.297083e-06	2.355020e-09	8.963634e+00	1.545559e+02
2.250000e-06	1.248451e-06	2.335221e-09	8.627559e+00	1.523752e+02
2.260000e-06	1.199404e-06	2.302446e-09	8.288615e+00	1.501190e+02
2.270000e-06	1.149995e-06	2.267137e-09	7.947166e+00	1.477452e+02
2.280000e-06	1.100177e-06	2.229496e-09	7.602894e+00	1.452587e+02
2.290000e-06	1.049896e-06	2.187691e-09	7.255420e+00	1.427125e+02
2.300000e-06	9.991328e-07	2.158312e-09	6.904619e+00	1.401717e+02
2.310000e-06	9.480775e-07	2.119460e-09	6.551796e+00	1.376679e+02
2.320000e-06	8.967916e-07	2.069907e-09	6.197379e+00	1.351742e+02
2.330000e-06	8.452081e-07	2.031637e-09	5.840905e+00	1.326205e+02
2.340000e-06	7.933039e-07	1.997215e-09	5.482215e+00	1.299401e+02
2.350000e-06	7.410126e-07	1.963028e-09	5.120850e+00	1.271137e+02
2.360000e-06	6.882661e-07	1.912916e-09	4.756340e+00	1.241821e+02
2.370000e-06	6.350212e-07	1.862075e-09	4.388385e+00	1.212188e+02
2.380000e-06	5.813799e-07	1.822828e-09	4.017691e+00	1.182806e+02
2.390000e-06	5.274395e-07	1.783132e-09	3.644930e+00	1.153710e+02
2.400000e-06	4.731562e-07	1.739107e-09	3.269799e+00	1.124397e+02
2.410000e-06	4.186173e-07	1.686854e-09	2.892901e+00	1.094169e+02
2.420000e-06	3.639174e-07	1.640066e-09	2.514891e+00	1.062587e+02
2.430000e-06	3.090969e-07	1.595234e-09	2.136049e+00	1.029707e+02
2.440000e-06	2.541411e-07	1.543071e-09	1.756270e+00	9.959783e+01
2.450000e-06	1.990691e-07	1.488498e-09	1.375689e+00	9.618675e+01
2.460000e-06	1.439327e-07	1.435838e-09	9.946632e-01	9.274920e+01
2.470000e-06	8.879241e-08	1.385024e-09	6.136099e-01	8.925211e+01
2.480000e-06	3.367854e-08	1.333677e-09	2.327393e-01	8.564070e+01
2.490000e-06	-2.146099e-08	1.275839e-09	-1.483086e-01	8.187832e+01
2.500000e-06	-7.658855e-08	1.213332e-09	-5.292737e-01	7.797523e+01
2.510000e-06	-1.316767e-07	1.152608e-09	-9.099666e-01	7.398551e+01
2.520000e-06	-1.867300e-07	1.092585e-09	-1.290418e+00	6.997297e+01
2.530000e-06	-2.417400e-07	1.032113e-09	-1.670571e+00	6.596730e+01
2.540000e-06	-2.966840e-07	9.680666e-10	-2.050268e+00	6.193894e+01
2.550000e-06	-3.514915e-07	9.065712e-10	-2.429021e+00	5.780924e+01
2.560000e-06	-4.060817e-07	8.451844e-10	-2.806273e+00	5.349043e+01
2.570000e-06	-4.604928e-07	7.758019e-10	-3.182287e+00	4.893124e+01
2.580000e-06	-5.147251e-07	7.004917e-10	-3.557065e+00	4.414072e+01
2.590000e-06	-5.685825e-07	6.247823e-10	-3.929253e+00	3.917674e+01
2.600000e-06	-6.220303e-07	5.493484e-10	-4.298610e+00	3.410737e+01
2.610000e-06	-6.750623e-07	4.694513e-10	-4.665093e+00	2.896908e+01
2.620000e-06	-7.276886e-07	3.869430e-10	-5.028773e+00	2.374600e+01
2.630000e-06	-7.799380e-07	3.038785e-10	-5.389849e+00	1.837967e+01
2.640000e-06	-8.318412e-07	2.214446e-10	-5.748531e+00	1.279985e+01
2.650000e-06	-8.834612e-07	1.357020e-10	-6.105257e+00	6.955484e+00
2.660000e-06	-9.348280e-07	4.258608e-11	-6.460233e+00	8.283564e-01
2.670000e-06	-9.859083e-07	-5.631335e-11	-6.813229e+00	-5.574090e+00
2.680000e-06	-1.036585e-06	-1.576608e-10	-7.163436e+00	-1.223604e+01
2.690000e-06	-1.086872e-06	-2.601463e-10	-7.510948e+00	-1.914553e+01
2.700000e-06	-1.136746e-06	-3.675786e-10	-7.855611e+00	-2.629376e+01
2.710000e-06	-1.186187e-06	-4.827023e-10	-8.197276e+00	-3.366600e+01
2.720000e-06	-1.235172e-06	-6.018925e-10	-8.535791e+00	-4.123548e+01
2.730000e-06	-1.283576e-06	-7.186450e-10	-8.870297e+00	-4.896788e+01
2.740000e-06	-1.331287e-06	-8.377934e-10	-9.200005e+00	-5.683256e+01
2.750000e-06	-1.378257e-06	-9.609341e-10	-9.524602e+00	-6.480839e+01
2.760000e-06	-1.424671e-06	-1.084308e-09	-9.845349e+00	-7.287380e+01
2.770000e-06	-1.470703e-06	-1.206298e-09	-1.016346e+01	-8.098411e+01
2.780000e-06	-1.516321e-06	-1.327554e-09	-1.047871e+01	-8.905216e+01
2.790000e-06	-1.561512e-06	-1.449876e-09	-1.079101e+01	-9.695159e+01
2.800000e-06	-1.606145e-06	-1.569403e-09	-1.109944e+01	-1.045489e+02
2.810000e-06	-1.650160e-06	-1.682773e-09	-1.140361e+01	-1.117498e+02
2.820000e-06	-1.693759e-06	-1.788876e-09	-1.170491e+01	-1.185324e+02
2.830000e-06	-1.736979e-06	-1.888667e-09	-1.200359e+01	-1.249432e+02
2.840000e-06	-1.779635e-06	-1.982158e-09	-1.229837e+01	-1.310562e+02
2.850000e-06	-1.821660e-06	-2.070916e-09	-1.258878e+01	-1.369192e+02
2.860000e-06	-1.863161e-06	-2.154671e-09	-1.287558e+01	-1.425223e+02
2.870000e-06	-1.904065e-06	-2.233702e-09	-1.315826e+01	-1.478084e+02
2.880000e-06	-1.944239e-06	-2.309710e-09	-1.343588e+01	-1.527188e+02
2.890000e-06	-1.983810e-06	-2.382063e-09	-1.370934e+01	-1.572415e+02
2.900000e-06	-2.022857e-06	-2.450930e-09	-1.397918e+01	-1.614273e+02
2.910000e-06	-2.061132e-06	-2.515391e-09	-1.424368e+01	-1.653625e+02
2.920000e-06	-2.098374e-06	-2.576058e-09	-1.450105e+01	-1.691161e+02
2.930000e-06	-2.134652e-06	-2.633443e-09	-1.475175e+01	-1.727003e+02
2.940000e-06	-2.170205e-06	-2.684966e-09	-1.499744e+01	-1.760711e+02
