# Temperatura_=_30.62
# Concentracion g/m^3_=_15500.0
# C_Vs_to_Am_M_A/Vsm_=_65563218390.804596
# pendiente_HvsI_1/m_=_3716.3
# ordenada_HvsI_A/m_=_1297.0
# frecuencia_Hz_=_300975.3325393738

Tiempo_(s)	Campo_(V.s)	Magnetizacion_(V.s)	Campo_(kA/m)	Magnetizacion_(A/m)
0.000000e+00	-2.859681e-06	-3.347919e-09	-1.978715e+01	-2.178024e+02
1.000000e-08	-2.859261e-06	-3.346133e-09	-1.978424e+01	-2.177239e+02
2.000000e-08	-2.858097e-06	-3.346099e-09	-1.977619e+01	-2.176873e+02
3.000000e-08	-2.855930e-06	-3.344272e-09	-1.976119e+01	-2.176449e+02
4.000000e-08	-2.852480e-06	-3.341292e-09	-1.973732e+01	-2.175237e+02
5.000000e-08	-2.848017e-06	-3.338903e-09	-1.970644e+01	-2.172960e+02
6.000000e-08	-2.842804e-06	-3.337334e-09	-1.967037e+01	-2.170132e+02
7.000000e-08	-2.836733e-06	-3.331334e-09	-1.962836e+01	-2.167694e+02
8.000000e-08	-2.829679e-06	-3.340536e-09	-1.957955e+01	-2.166159e+02
9.000000e-08	-2.821559e-06	-3.377342e-09	-1.952337e+01	-2.164963e+02
1.000000e-07	-2.812196e-06	-3.384164e-09	-1.945858e+01	-2.162602e+02
1.100000e-07	-2.801361e-06	-3.285322e-09	-1.938361e+01	-2.157613e+02
1.200000e-07	-2.789368e-06	-3.211114e-09	-1.930063e+01	-2.149749e+02
1.300000e-07	-2.776645e-06	-3.289622e-09	-1.921259e+01	-2.140452e+02
1.400000e-07	-2.763078e-06	-3.353436e-09	-1.911872e+01	-2.132145e+02
1.500000e-07	-2.748495e-06	-3.258215e-09	-1.901781e+01	-2.126699e+02
1.600000e-07	-2.732917e-06	-3.232064e-09	-1.891002e+01	-2.124097e+02
1.700000e-07	-2.716147e-06	-3.333605e-09	-1.879398e+01	-2.122281e+02
1.800000e-07	-2.698090e-06	-3.235415e-09	-1.866904e+01	-2.118415e+02
1.900000e-07	-2.679209e-06	-3.150237e-09	-1.853840e+01	-2.110780e+02
2.000000e-07	-2.659613e-06	-3.255175e-09	-1.840281e+01	-2.100014e+02
2.100000e-07	-2.639067e-06	-3.189723e-09	-1.826064e+01	-2.088780e+02
2.200000e-07	-2.617643e-06	-3.082582e-09	-1.811240e+01	-2.080006e+02
2.300000e-07	-2.595479e-06	-3.212154e-09	-1.795904e+01	-2.074853e+02
2.400000e-07	-2.572385e-06	-3.258912e-09	-1.779924e+01	-2.071811e+02
2.500000e-07	-2.548330e-06	-3.131827e-09	-1.763280e+01	-2.067586e+02
2.600000e-07	-2.523563e-06	-3.104189e-09	-1.746143e+01	-2.059240e+02
2.700000e-07	-2.497882e-06	-3.111225e-09	-1.728373e+01	-2.046140e+02
2.800000e-07	-2.471035e-06	-3.079469e-09	-1.709797e+01	-2.030399e+02
2.900000e-07	-2.443113e-06	-3.093859e-09	-1.690477e+01	-2.015500e+02
3.000000e-07	-2.414275e-06	-3.055729e-09	-1.670523e+01	-2.004018e+02
3.100000e-07	-2.384642e-06	-3.004732e-09	-1.650018e+01	-1.995990e+02
3.200000e-07	-2.354370e-06	-3.078646e-09	-1.629072e+01	-1.988997e+02
3.300000e-07	-2.323389e-06	-3.054487e-09	-1.607635e+01	-1.979872e+02
3.400000e-07	-2.291559e-06	-2.945367e-09	-1.585611e+01	-1.966833e+02
3.500000e-07	-2.259075e-06	-2.946230e-09	-1.563134e+01	-1.950592e+02
3.600000e-07	-2.226004e-06	-2.942377e-09	-1.540251e+01	-1.933743e+02
3.700000e-07	-2.192006e-06	-2.917915e-09	-1.516727e+01	-1.918909e+02
3.800000e-07	-2.156806e-06	-2.935648e-09	-1.492371e+01	-1.906972e+02
3.900000e-07	-2.120649e-06	-2.899514e-09	-1.467353e+01	-1.896568e+02
4.000000e-07	-2.083895e-06	-2.851270e-09	-1.441921e+01	-1.885130e+02
4.100000e-07	-2.046524e-06	-2.872495e-09	-1.416063e+01	-1.870678e+02
4.200000e-07	-2.008423e-06	-2.837111e-09	-1.389699e+01	-1.853105e+02
4.300000e-07	-1.969563e-06	-2.757114e-09	-1.362811e+01	-1.834117e+02
4.400000e-07	-1.929953e-06	-2.744559e-09	-1.335403e+01	-1.815962e+02
4.500000e-07	-1.889712e-06	-2.759559e-09	-1.307559e+01	-1.799903e+02
4.600000e-07	-1.849057e-06	-2.739267e-09	-1.279428e+01	-1.785483e+02
4.700000e-07	-1.807948e-06	-2.700721e-09	-1.250984e+01	-1.771015e+02
4.800000e-07	-1.766054e-06	-2.656064e-09	-1.221996e+01	-1.754847e+02
4.900000e-07	-1.723121e-06	-2.623852e-09	-1.192289e+01	-1.736466e+02
5.000000e-07	-1.679271e-06	-2.614833e-09	-1.161947e+01	-1.716696e+02
5.100000e-07	-1.634860e-06	-2.582438e-09	-1.131218e+01	-1.696939e+02
5.200000e-07	-1.590050e-06	-2.537877e-09	-1.100212e+01	-1.678105e+02
5.300000e-07	-1.544773e-06	-2.518816e-09	-1.068883e+01	-1.660006e+02
5.400000e-07	-1.498942e-06	-2.504021e-09	-1.037171e+01	-1.641608e+02
5.500000e-07	-1.452577e-06	-2.464147e-09	-1.005090e+01	-1.621886e+02
5.600000e-07	-1.405682e-06	-2.416274e-09	-9.726411e+00	-1.600592e+02
5.700000e-07	-1.358234e-06	-2.375453e-09	-9.398101e+00	-1.578394e+02
5.800000e-07	-1.310282e-06	-2.353016e-09	-9.066303e+00	-1.556313e+02
5.900000e-07	-1.261978e-06	-2.340514e-09	-8.732074e+00	-1.534934e+02
6.000000e-07	-1.213344e-06	-2.302512e-09	-8.395557e+00	-1.513966e+02
6.100000e-07	-1.164257e-06	-2.252863e-09	-8.055907e+00	-1.492472e+02
6.200000e-07	-1.114605e-06	-2.215271e-09	-7.712348e+00	-1.469562e+02
6.300000e-07	-1.064197e-06	-2.184726e-09	-7.363558e+00	-1.445027e+02
6.400000e-07	-1.013149e-06	-2.145866e-09	-7.010339e+00	-1.419475e+02
6.500000e-07	-9.616702e-07	-2.100105e-09	-6.654137e+00	-1.393879e+02
6.600000e-07	-9.097714e-07	-2.060750e-09	-6.295031e+00	-1.368901e+02
6.700000e-07	-8.575124e-07	-2.034174e-09	-5.933433e+00	-1.344449e+02
6.800000e-07	-8.049740e-07	-2.003635e-09	-5.569901e+00	-1.319768e+02
6.900000e-07	-7.521503e-07	-1.953924e-09	-5.204395e+00	-1.293949e+02
7.000000e-07	-6.990317e-07	-1.903903e-09	-4.836848e+00	-1.266497e+02
7.100000e-07	-6.456553e-07	-1.864618e-09	-4.467518e+00	-1.237581e+02
7.200000e-07	-5.920044e-07	-1.825136e-09	-4.096289e+00	-1.207838e+02
7.300000e-07	-5.381337e-07	-1.776336e-09	-3.723538e+00	-1.177915e+02
7.400000e-07	-4.841130e-07	-1.724571e-09	-3.349749e+00	-1.148068e+02
7.500000e-07	-4.298856e-07	-1.676964e-09	-2.974531e+00	-1.118068e+02
7.600000e-07	-3.754855e-07	-1.633666e-09	-2.598117e+00	-1.087411e+02
7.700000e-07	-3.210356e-07	-1.585675e-09	-2.221359e+00	-1.055651e+02
7.800000e-07	-2.665483e-07	-1.529527e-09	-1.844343e+00	-1.022636e+02
7.900000e-07	-2.120085e-07	-1.476357e-09	-1.466962e+00	-9.885046e+01
8.000000e-07	-1.573835e-07	-1.426590e-09	-1.088992e+00	-9.535175e+01
8.100000e-07	-1.026766e-07	-1.372789e-09	-7.104558e-01	-9.178563e+01
8.200000e-07	-4.799952e-08	-1.312155e-09	-3.321257e-01	-8.815281e+01
8.300000e-07	6.654850e-09	-1.251620e-09	4.604727e-02	-8.444094e+01
8.400000e-07	6.134843e-08	-1.196529e-09	4.244916e-01	-8.063643e+01
8.500000e-07	1.160246e-07	-1.143081e-09	8.028151e-01	-7.673416e+01
8.600000e-07	1.706520e-07	-1.083947e-09	1.180802e+00	-7.273897e+01
8.700000e-07	2.252677e-07	-1.017049e-09	1.558707e+00	-6.865973e+01
8.800000e-07	2.798110e-07	-9.509311e-10	1.936111e+00	-6.450075e+01
8.900000e-07	3.342527e-07	-8.881723e-10	2.312813e+00	-6.025607e+01
9.000000e-07	3.885757e-07	-8.229221e-10	2.688693e+00	-5.590898e+01
9.100000e-07	4.427656e-07	-7.516252e-10	3.063653e+00	-5.143635e+01
9.200000e-07	4.967750e-07	-6.801053e-10	3.437362e+00	-4.681515e+01
9.300000e-07	5.505727e-07	-6.099856e-10	3.809608e+00	-4.202856e+01
9.400000e-07	6.041854e-07	-5.378150e-10	4.180573e+00	-3.706922e+01
9.500000e-07	6.576181e-07	-4.596447e-10	4.550293e+00	-3.193822e+01
9.600000e-07	7.107858e-07	-3.749289e-10	4.918179e+00	-2.663989e+01
9.700000e-07	7.636572e-07	-2.905447e-10	5.284015e+00	-2.117411e+01
9.800000e-07	8.163031e-07	-2.083085e-10	5.648291e+00	-1.552980e+01
9.900000e-07	8.686730e-07	-1.211946e-10	6.010657e+00	-9.682993e+00
1.000000e-06	9.206683e-07	-2.524286e-11	6.370431e+00	-3.601504e+00
1.010000e-06	9.722467e-07	7.378412e-11	6.727320e+00	2.745376e+00
1.020000e-06	1.023352e-06	1.738115e-10	7.080935e+00	9.376227e+00
1.030000e-06	1.073815e-06	2.765530e-10	7.430110e+00	1.629078e+01
1.040000e-06	1.123606e-06	3.855519e-10	7.774632e+00	2.347014e+01
1.050000e-06	1.172825e-06	5.013009e-10	8.115194e+00	3.088364e+01
1.060000e-06	1.221617e-06	6.189884e-10	8.452802e+00	3.849883e+01
1.070000e-06	1.270128e-06	7.372371e-10	8.788465e+00	4.628948e+01
1.080000e-06	1.318348e-06	8.565048e-10	9.122119e+00	5.423696e+01
1.090000e-06	1.366144e-06	9.787186e-10	9.452837e+00	6.232303e+01
1.100000e-06	1.413393e-06	1.102331e-09	9.779771e+00	7.051618e+01
1.110000e-06	1.460086e-06	1.226678e-09	1.010285e+01	7.875760e+01
1.120000e-06	1.506296e-06	1.351227e-09	1.042260e+01	8.695560e+01
1.130000e-06	1.551974e-06	1.474889e-09	1.073866e+01	9.499459e+01
1.140000e-06	1.597124e-06	1.592915e-09	1.105107e+01	1.027591e+02
1.150000e-06	1.641893e-06	1.702778e-09	1.136084e+01	1.101637e+02
1.160000e-06	1.686301e-06	1.806819e-09	1.166811e+01	1.171746e+02
1.170000e-06	1.730176e-06	1.905831e-09	1.197170e+01	1.238099e+02
1.180000e-06	1.773319e-06	2.001581e-09	1.227023e+01	1.301157e+02
1.190000e-06	1.815532e-06	2.093757e-09	1.256231e+01	1.361310e+02
1.200000e-06	1.856812e-06	2.182166e-09	1.284794e+01	1.418598e+02
1.210000e-06	1.897428e-06	2.264617e-09	1.312898e+01	1.472689e+02
1.220000e-06	1.937574e-06	2.340273e-09	1.340676e+01	1.523131e+02
1.230000e-06	1.977147e-06	2.408559e-09	1.368058e+01	1.569710e+02
1.240000e-06	2.016030e-06	2.470223e-09	1.394963e+01	1.612693e+02
1.250000e-06	2.054219e-06	2.527865e-09	1.421387e+01	1.652763e+02
1.260000e-06	2.091657e-06	2.584268e-09	1.447292e+01	1.690688e+02
1.270000e-06	2.128470e-06	2.639421e-09	1.472764e+01	1.726918e+02
1.280000e-06	2.164749e-06	2.690854e-09	1.497866e+01	1.761383e+02
1.290000e-06	2.200273e-06	2.736585e-09	1.522447e+01	1.793621e+02
1.300000e-06	2.234738e-06	2.776913e-09	1.546294e+01	1.823154e+02
1.310000e-06	2.268148e-06	2.814323e-09	1.569412e+01	1.849858e+02
1.320000e-06	2.300747e-06	2.848706e-09	1.591969e+01	1.874100e+02
1.330000e-06	2.332677e-06	2.879386e-09	1.614062e+01	1.896553e+02
1.340000e-06	2.363924e-06	2.909816e-09	1.635683e+01	1.917850e+02
1.350000e-06	2.394356e-06	2.941071e-09	1.656740e+01	1.938300e+02
1.360000e-06	2.423978e-06	2.971006e-09	1.677237e+01	1.957843e+02
1.370000e-06	2.452887e-06	2.997539e-09	1.697239e+01	1.976233e+02
1.380000e-06	2.481102e-06	3.020761e-09	1.716762e+01	1.993287e+02
1.390000e-06	2.508353e-06	3.042905e-09	1.735618e+01	2.009025e+02
1.400000e-06	2.534318e-06	3.063992e-09	1.753585e+01	2.023637e+02
1.410000e-06	2.559198e-06	3.083597e-09	1.770800e+01	2.037352e+02
1.420000e-06	2.583277e-06	3.101720e-09	1.787461e+01	2.050338e+02
1.430000e-06	2.606519e-06	3.119322e-09	1.803543e+01	2.062703e+02
1.440000e-06	2.628864e-06	3.137433e-09	1.819004e+01	2.074537e+02
1.450000e-06	2.650328e-06	3.155940e-09	1.833856e+01	2.085912e+02
1.460000e-06	2.671036e-06	3.173401e-09	1.848184e+01	2.096798e+02
1.470000e-06	2.690998e-06	3.187812e-09	1.861997e+01	2.106985e+02
1.480000e-06	2.709972e-06	3.199789e-09	1.875126e+01	2.116121e+02
1.490000e-06	2.727914e-06	3.211770e-09	1.887540e+01	2.123937e+02
1.500000e-06	2.744875e-06	3.223021e-09	1.899277e+01	2.130505e+02
1.510000e-06	2.760722e-06	3.233547e-09	1.910241e+01	2.136348e+02
1.520000e-06	2.775476e-06	3.244370e-09	1.920450e+01	2.142223e+02
1.530000e-06	2.789279e-06	3.254698e-09	1.930001e+01	2.148671e+02
1.540000e-06	2.802098e-06	3.264950e-09	1.938871e+01	2.155619e+02
1.550000e-06	2.813783e-06	3.274551e-09	1.946956e+01	2.162350e+02
1.560000e-06	2.824162e-06	3.282129e-09	1.954138e+01	2.167918e+02
1.570000e-06	2.833362e-06	3.288123e-09	1.960504e+01	2.171772e+02
1.580000e-06	2.841642e-06	3.295033e-09	1.966233e+01	2.174160e+02
1.590000e-06	2.849026e-06	3.303062e-09	1.971342e+01	2.176003e+02
1.600000e-06	2.855414e-06	3.309460e-09	1.975762e+01	2.178288e+02
1.610000e-06	2.860840e-06	3.313184e-09	1.979517e+01	2.181397e+02
1.620000e-06	2.865421e-06	3.314813e-09	1.982687e+01	2.184845e+02
1.630000e-06	2.869067e-06	3.318391e-09	1.985209e+01	2.187638e+02
1.640000e-06	2.871443e-06	3.323795e-09	1.986853e+01	2.188983e+02
1.650000e-06	2.872606e-06	3.327061e-09	1.987658e+01	2.188844e+02
1.660000e-06	2.872883e-06	3.328614e-09	1.987850e+01	2.187919e+02
1.670000e-06	2.872296e-06	3.326700e-09	1.987443e+01	2.187072e+02
1.680000e-06	2.870781e-06	3.322271e-09	1.986395e+01	2.186656e+02
1.690000e-06	2.868333e-06	3.318894e-09	1.984701e+01	2.186282e+02
1.700000e-06	2.865117e-06	3.317081e-09	1.982476e+01	2.185212e+02
1.710000e-06	2.861159e-06	3.316666e-09	1.979737e+01	2.183069e+02
1.720000e-06	2.856119e-06	3.319446e-09	1.976250e+01	2.180260e+02
1.730000e-06	2.849862e-06	3.327067e-09	1.971921e+01	2.177710e+02
1.740000e-06	2.842650e-06	3.298276e-09	1.966930e+01	2.176048e+02
1.750000e-06	2.834505e-06	3.239200e-09	1.961295e+01	2.174876e+02
1.760000e-06	2.824943e-06	3.246494e-09	1.954678e+01	2.172781e+02
1.770000e-06	2.813822e-06	3.344992e-09	1.946983e+01	2.168217e+02
1.780000e-06	2.801971e-06	3.369432e-09	1.938783e+01	2.160708e+02
1.790000e-06	2.790001e-06	3.244153e-09	1.930501e+01	2.151471e+02
1.800000e-06	2.777128e-06	3.231797e-09	1.921593e+01	2.142872e+02
1.810000e-06	2.762543e-06	3.295096e-09	1.911502e+01	2.136962e+02
1.820000e-06	2.746897e-06	3.196459e-09	1.900676e+01	2.134035e+02
1.830000e-06	2.730700e-06	3.150012e-09	1.889468e+01	2.132278e+02
1.840000e-06	2.713321e-06	3.282959e-09	1.877443e+01	2.128850e+02
1.850000e-06	2.694685e-06	3.264689e-09	1.864548e+01	2.121770e+02
1.860000e-06	2.675381e-06	3.120881e-09	1.851191e+01	2.111317e+02
1.870000e-06	2.655261e-06	3.220366e-09	1.837269e+01	2.099947e+02
1.880000e-06	2.633839e-06	3.265314e-09	1.822447e+01	2.090687e+02
1.890000e-06	2.611333e-06	3.068618e-09	1.806874e+01	2.085044e+02
1.900000e-06	2.587920e-06	3.097383e-09	1.790674e+01	2.081876e+02
1.910000e-06	2.563524e-06	3.219112e-09	1.773794e+01	2.078029e+02
1.920000e-06	2.538414e-06	3.146726e-09	1.756419e+01	2.070374e+02
1.930000e-06	2.512564e-06	3.129717e-09	1.738532e+01	2.057875e+02
1.940000e-06	2.485848e-06	3.112832e-09	1.720047e+01	2.042302e+02
1.950000e-06	2.458483e-06	3.054294e-09	1.701111e+01	2.027075e+02
1.960000e-06	2.430135e-06	3.108975e-09	1.681497e+01	2.015030e+02
1.970000e-06	2.400420e-06	3.059821e-09	1.660936e+01	2.006608e+02
1.980000e-06	2.369738e-06	2.948410e-09	1.639706e+01	1.999663e+02
1.990000e-06	2.338353e-06	3.037670e-09	1.617990e+01	1.990999e+02
2.000000e-06	2.306225e-06	3.061553e-09	1.595759e+01	1.978530e+02
2.010000e-06	2.273428e-06	2.971242e-09	1.573066e+01	1.962610e+02
2.020000e-06	2.239803e-06	2.986412e-09	1.549799e+01	1.945661e+02
2.030000e-06	2.205422e-06	2.945233e-09	1.526010e+01	1.930427e+02
2.040000e-06	2.170503e-06	2.887818e-09	1.501848e+01	1.918107e+02
2.050000e-06	2.134866e-06	2.919674e-09	1.477190e+01	1.907627e+02
2.060000e-06	2.098405e-06	2.874353e-09	1.451961e+01	1.896486e+02
2.070000e-06	2.060963e-06	2.831558e-09	1.426054e+01	1.882516e+02
2.080000e-06	2.022482e-06	2.864065e-09	1.399427e+01	1.865313e+02
2.090000e-06	1.983312e-06	2.843036e-09	1.372324e+01	1.846380e+02
2.100000e-06	1.943615e-06	2.795862e-09	1.344856e+01	1.827987e+02
2.110000e-06	1.903270e-06	2.752129e-09	1.316940e+01	1.811612e+02
2.120000e-06	1.862275e-06	2.713886e-09	1.288574e+01	1.797040e+02
2.130000e-06	1.820643e-06	2.714741e-09	1.259767e+01	1.782691e+02
2.140000e-06	1.778354e-06	2.704960e-09	1.230506e+01	1.766826e+02
2.150000e-06	1.735536e-06	2.672206e-09	1.200879e+01	1.748733e+02
2.160000e-06	1.692310e-06	2.641155e-09	1.170970e+01	1.729072e+02
2.170000e-06	1.648644e-06	2.617102e-09	1.140755e+01	1.709231e+02
2.180000e-06	1.604299e-06	2.587142e-09	1.110071e+01	1.690246e+02
2.190000e-06	1.559280e-06	2.543748e-09	1.078921e+01	1.672088e+02
2.200000e-06	1.513662e-06	2.519568e-09	1.047357e+01	1.653801e+02
2.210000e-06	1.467581e-06	2.500462e-09	1.015472e+01	1.634302e+02
2.220000e-06	1.421166e-06	2.475016e-09	9.833554e+00	1.613205e+02
2.230000e-06	1.374179e-06	2.451357e-09	9.508434e+00	1.591068e+02
2.240000e-06	1.326607e-06	2.401887e-09	9.179262e+00	1.568913e+02
2.250000e-06	1.278454e-06	2.353717e-09	8.846076e+00	1.547425e+02
2.260000e-06	1.229782e-06	2.334337e-09	8.509299e+00	1.526442e+02
2.270000e-06	1.180737e-06	2.308746e-09	8.169936e+00	1.505083e+02
2.280000e-06	1.131261e-06	2.274885e-09	7.827599e+00	1.482404e+02
2.290000e-06	1.081309e-06	2.235098e-09	7.481964e+00	1.458076e+02
2.300000e-06	1.030885e-06	2.195083e-09	7.133057e+00	1.432606e+02
2.310000e-06	9.800697e-07	2.164292e-09	6.781450e+00	1.406957e+02
2.320000e-06	9.289810e-07	2.120946e-09	6.427949e+00	1.381871e+02
2.330000e-06	8.776482e-07	2.075286e-09	6.072759e+00	1.357375e+02
2.340000e-06	8.260307e-07	2.041552e-09	5.715600e+00	1.332781e+02
2.350000e-06	7.739946e-07	2.010631e-09	5.355543e+00	1.307164e+02
2.360000e-06	7.214615e-07	1.972971e-09	4.992048e+00	1.279946e+02
2.370000e-06	6.685088e-07	1.924248e-09	4.625649e+00	1.251202e+02
2.380000e-06	6.151591e-07	1.875271e-09	4.256504e+00	1.221528e+02
2.390000e-06	5.614505e-07	1.832610e-09	3.884875e+00	1.191598e+02
2.400000e-06	5.074906e-07	1.792320e-09	3.511508e+00	1.161740e+02
2.410000e-06	4.532486e-07	1.748691e-09	3.136188e+00	1.131785e+02
2.420000e-06	3.987186e-07	1.699638e-09	2.758876e+00	1.101249e+02
2.430000e-06	3.440180e-07	1.651074e-09	2.380383e+00	1.069660e+02
2.440000e-06	2.892123e-07	1.603513e-09	2.001163e+00	1.036816e+02
2.450000e-06	2.343153e-07	1.552971e-09	1.621311e+00	1.002824e+02
2.460000e-06	1.793504e-07	1.498397e-09	1.240989e+00	9.679398e+01
2.470000e-06	1.243637e-07	1.441922e-09	8.605165e-01	9.323656e+01
2.480000e-06	6.934949e-08	1.389225e-09	4.798538e-01	8.961337e+01
2.490000e-06	1.430460e-08	1.336809e-09	9.897863e-02	8.591326e+01
2.500000e-06	-4.074101e-08	1.277603e-09	-2.819015e-01	8.212210e+01
2.510000e-06	-9.574768e-08	1.215564e-09	-6.625122e-01	7.823322e+01
2.520000e-06	-1.507203e-07	1.153846e-09	-1.042887e+00	7.425030e+01
2.530000e-06	-2.056592e-07	1.091763e-09	-1.423029e+00	7.018214e+01
2.540000e-06	-2.605438e-07	1.028271e-09	-1.802795e+00	6.603418e+01
2.550000e-06	-3.153478e-07	9.642087e-10	-2.182004e+00	6.180208e+01
2.560000e-06	-3.700101e-07	9.003963e-10	-2.560231e+00	5.747049e+01
2.570000e-06	-4.244943e-07	8.331582e-10	-2.937227e+00	5.301681e+01
2.580000e-06	-4.787629e-07	7.622490e-10	-3.312730e+00	4.841759e+01
2.590000e-06	-5.328358e-07	6.873473e-10	-3.686880e+00	4.365484e+01
2.600000e-06	-5.866386e-07	6.097669e-10	-4.059161e+00	3.871981e+01
2.610000e-06	-6.400707e-07	5.319099e-10	-4.428876e+00	3.361260e+01
2.620000e-06	-6.931306e-07	4.530531e-10	-4.796016e+00	2.833752e+01
2.630000e-06	-7.457536e-07	3.697582e-10	-5.160134e+00	2.289557e+01
2.640000e-06	-7.979478e-07	2.811260e-10	-5.521284e+00	1.727748e+01
2.650000e-06	-8.497493e-07	1.916789e-10	-5.879717e+00	1.146101e+01
2.660000e-06	-9.012120e-07	1.025048e-10	-6.235806e+00	5.414613e+00
2.670000e-06	-9.524522e-07	7.354581e-12	-6.590355e+00	-8.932996e-01
2.680000e-06	-1.003365e-06	-9.560609e-11	-6.942637e+00	-7.483594e+00
2.690000e-06	-1.053873e-06	-2.008923e-10	-7.292121e+00	-1.435886e+01
2.700000e-06	-1.104003e-06	-3.072512e-10	-7.638987e+00	-2.150256e+01
2.710000e-06	-1.153687e-06	-4.182906e-10	-7.982772e+00	-2.888513e+01
2.720000e-06	-1.202963e-06	-5.369338e-10	-8.323729e+00	-3.647378e+01
2.730000e-06	-1.251778e-06	-6.589867e-10	-8.661494e+00	-4.424111e+01
2.740000e-06	-1.299912e-06	-7.810185e-10	-8.994553e+00	-5.216765e+01
2.750000e-06	-1.347336e-06	-9.031281e-10	-9.322696e+00	-6.023584e+01
2.760000e-06	-1.394093e-06	-1.027597e-09	-9.646224e+00	-6.841700e+01
2.770000e-06	-1.440250e-06	-1.154228e-09	-9.965604e+00	-7.665687e+01
2.780000e-06	-1.485955e-06	-1.279797e-09	-1.028185e+01	-8.486825e+01
2.790000e-06	-1.531290e-06	-1.403246e-09	-1.059554e+01	-9.293782e+01
2.800000e-06	-1.576216e-06	-1.523394e-09	-1.090640e+01	-1.007482e+02
2.810000e-06	-1.620672e-06	-1.638992e-09	-1.121401e+01	-1.082081e+02
2.820000e-06	-1.664583e-06	-1.748998e-09	-1.151784e+01	-1.152757e+02
2.830000e-06	-1.707932e-06	-1.854047e-09	-1.181779e+01	-1.219626e+02
2.840000e-06	-1.750808e-06	-1.953034e-09	-1.211446e+01	-1.283130e+02
2.850000e-06	-1.793183e-06	-2.045832e-09	-1.240767e+01	-1.343690e+02
2.860000e-06	-1.834987e-06	-2.133077e-09	-1.269693e+01	-1.401405e+02
2.870000e-06	-1.876174e-06	-2.214958e-09	-1.298192e+01	-1.455987e+02
2.880000e-06	-1.916721e-06	-2.292981e-09	-1.326247e+01	-1.506977e+02
2.890000e-06	-1.956626e-06	-2.366495e-09	-1.353859e+01	-1.554108e+02
2.900000e-06	-1.995929e-06	-2.435421e-09	-1.381054e+01	-1.597574e+02
2.910000e-06	-2.034646e-06	-2.501642e-09	-1.407844e+01	-1.638016e+02
2.920000e-06	-2.072572e-06	-2.565306e-09	-1.434086e+01	-1.676214e+02
2.930000e-06	-2.109451e-06	-2.624818e-09	-1.459604e+01	-1.712682e+02
2.940000e-06	-2.145349e-06	-2.679006e-09	-1.484443e+01	-1.747426e+02
