# Temperatura_=_22.26
# Concentracion g/m^3_=_15500.0
# C_Vs_to_Am_M_A/Vsm_=_65563218390.804596
# pendiente_HvsI_1/m_=_3716.3
# ordenada_HvsI_A/m_=_1297.0
# frecuencia_Hz_=_300991.2989539244

Tiempo_(s)	Campo_(V.s)	Magnetizacion_(V.s)	Campo_(kA/m)	Magnetizacion_(A/m)
0.000000e+00	-2.862728e-06	-3.239387e-09	-1.978313e+01	-2.121284e+02
1.000000e-08	-2.861965e-06	-3.237075e-09	-1.977787e+01	-2.120604e+02
2.000000e-08	-2.860226e-06	-3.235347e-09	-1.976584e+01	-2.119898e+02
3.000000e-08	-2.857250e-06	-3.235928e-09	-1.974528e+01	-2.118902e+02
4.000000e-08	-2.853227e-06	-3.235750e-09	-1.971748e+01	-2.117334e+02
5.000000e-08	-2.848399e-06	-3.231574e-09	-1.968411e+01	-2.115186e+02
6.000000e-08	-2.842745e-06	-3.225536e-09	-1.964504e+01	-2.112731e+02
7.000000e-08	-2.836175e-06	-3.225270e-09	-1.959964e+01	-2.110243e+02
8.000000e-08	-2.828605e-06	-3.249958e-09	-1.954733e+01	-2.107654e+02
9.000000e-08	-2.819864e-06	-3.263173e-09	-1.948692e+01	-2.104481e+02
1.000000e-07	-2.809672e-06	-3.209478e-09	-1.941649e+01	-2.100159e+02
1.100000e-07	-2.798177e-06	-3.127709e-09	-1.933705e+01	-2.094561e+02
1.200000e-07	-2.785875e-06	-3.172597e-09	-1.925203e+01	-2.088290e+02
1.300000e-07	-2.772748e-06	-3.251681e-09	-1.916132e+01	-2.082439e+02
1.400000e-07	-2.758546e-06	-3.171859e-09	-1.906318e+01	-2.077880e+02
1.500000e-07	-2.743343e-06	-3.115174e-09	-1.895811e+01	-2.074575e+02
1.600000e-07	-2.727041e-06	-3.244973e-09	-1.884546e+01	-2.071426e+02
1.700000e-07	-2.709461e-06	-3.215641e-09	-1.872397e+01	-2.066891e+02
1.800000e-07	-2.690936e-06	-3.066158e-09	-1.859595e+01	-2.059990e+02
1.900000e-07	-2.671736e-06	-3.147898e-09	-1.846327e+01	-2.051056e+02
2.000000e-07	-2.651707e-06	-3.167476e-09	-1.832485e+01	-2.041626e+02
2.100000e-07	-2.630753e-06	-3.027709e-09	-1.818005e+01	-2.033485e+02
2.200000e-07	-2.608935e-06	-3.091290e-09	-1.802928e+01	-2.027446e+02
2.300000e-07	-2.586252e-06	-3.197692e-09	-1.787252e+01	-2.022703e+02
2.400000e-07	-2.562649e-06	-3.074819e-09	-1.770942e+01	-2.017244e+02
2.500000e-07	-2.538243e-06	-3.032880e-09	-1.754075e+01	-2.009102e+02
2.600000e-07	-2.513039e-06	-3.071391e-09	-1.736658e+01	-1.997642e+02
2.700000e-07	-2.486740e-06	-3.013815e-09	-1.718484e+01	-1.984000e+02
2.800000e-07	-2.459301e-06	-3.011333e-09	-1.699522e+01	-1.970385e+02
2.900000e-07	-2.430896e-06	-3.022548e-09	-1.679892e+01	-1.958661e+02
3.000000e-07	-2.401659e-06	-2.951294e-09	-1.659688e+01	-1.949183e+02
3.100000e-07	-2.371677e-06	-2.979486e-09	-1.638969e+01	-1.940624e+02
3.200000e-07	-2.341018e-06	-3.000155e-09	-1.617781e+01	-1.930919e+02
3.300000e-07	-2.309605e-06	-2.902070e-09	-1.596073e+01	-1.918655e+02
3.400000e-07	-2.277431e-06	-2.891607e-09	-1.573839e+01	-1.903974e+02
3.500000e-07	-2.244595e-06	-2.899729e-09	-1.551147e+01	-1.888406e+02
3.600000e-07	-2.210908e-06	-2.854795e-09	-1.527868e+01	-1.873772e+02
3.700000e-07	-2.176133e-06	-2.859833e-09	-1.503836e+01	-1.860953e+02
3.800000e-07	-2.140366e-06	-2.846157e-09	-1.479119e+01	-1.849337e+02
3.900000e-07	-2.103957e-06	-2.784608e-09	-1.453958e+01	-1.837306e+02
4.000000e-07	-2.066954e-06	-2.797150e-09	-1.428387e+01	-1.823365e+02
4.100000e-07	-2.029171e-06	-2.790177e-09	-1.402276e+01	-1.807134e+02
4.200000e-07	-1.990638e-06	-2.711950e-09	-1.375648e+01	-1.789526e+02
4.300000e-07	-1.951387e-06	-2.685688e-09	-1.348523e+01	-1.772058e+02
4.400000e-07	-1.911440e-06	-2.696198e-09	-1.320917e+01	-1.755806e+02
4.500000e-07	-1.871013e-06	-2.675108e-09	-1.292980e+01	-1.740736e+02
4.600000e-07	-1.830178e-06	-2.640046e-09	-1.264760e+01	-1.725824e+02
4.700000e-07	-1.788652e-06	-2.607462e-09	-1.236063e+01	-1.709825e+02
4.800000e-07	-1.746072e-06	-2.572122e-09	-1.206639e+01	-1.692103e+02
4.900000e-07	-1.702491e-06	-2.556418e-09	-1.176522e+01	-1.672956e+02
5.000000e-07	-1.658303e-06	-2.530266e-09	-1.145985e+01	-1.653277e+02
5.100000e-07	-1.613679e-06	-2.483619e-09	-1.115147e+01	-1.633850e+02
5.200000e-07	-1.568552e-06	-2.457732e-09	-1.083962e+01	-1.614820e+02
5.300000e-07	-1.522893e-06	-2.444152e-09	-1.052409e+01	-1.595689e+02
5.400000e-07	-1.476707e-06	-2.408904e-09	-1.020492e+01	-1.575788e+02
5.500000e-07	-1.429987e-06	-2.363067e-09	-9.882050e+00	-1.554821e+02
5.600000e-07	-1.382764e-06	-2.325272e-09	-9.555714e+00	-1.533073e+02
5.700000e-07	-1.335048e-06	-2.296447e-09	-9.225970e+00	-1.511154e+02
5.800000e-07	-1.286876e-06	-2.279283e-09	-8.893072e+00	-1.489497e+02
5.900000e-07	-1.238334e-06	-2.244496e-09	-8.557618e+00	-1.468016e+02
6.000000e-07	-1.189430e-06	-2.195454e-09	-8.219659e+00	-1.446182e+02
6.100000e-07	-1.139954e-06	-2.160047e-09	-7.877751e+00	-1.423431e+02
6.200000e-07	-1.089772e-06	-2.131827e-09	-7.530966e+00	-1.399607e+02
6.300000e-07	-1.038866e-06	-2.094418e-09	-7.179179e+00	-1.375073e+02
6.400000e-07	-9.873543e-07	-2.048524e-09	-6.823200e+00	-1.350432e+02
6.500000e-07	-9.354199e-07	-2.006904e-09	-6.464302e+00	-1.326041e+02
6.600000e-07	-8.831543e-07	-1.976275e-09	-6.103116e+00	-1.301717e+02
6.700000e-07	-8.306782e-07	-1.946360e-09	-5.740475e+00	-1.276822e+02
6.800000e-07	-7.779541e-07	-1.899119e-09	-5.376120e+00	-1.250704e+02
6.900000e-07	-7.249112e-07	-1.848509e-09	-5.009563e+00	-1.223166e+02
7.000000e-07	-6.715466e-07	-1.810433e-09	-4.640782e+00	-1.194628e+02
7.100000e-07	-6.179232e-07	-1.774387e-09	-4.270213e+00	-1.165869e+02
7.200000e-07	-5.640960e-07	-1.727553e-09	-3.898236e+00	-1.137497e+02
7.300000e-07	-5.101193e-07	-1.676712e-09	-3.525224e+00	-1.109529e+02
7.400000e-07	-4.559921e-07	-1.631906e-09	-3.151174e+00	-1.081334e+02
7.500000e-07	-4.016944e-07	-1.590396e-09	-2.775945e+00	-1.051996e+02
7.600000e-07	-3.472983e-07	-1.543074e-09	-2.400036e+00	-1.020863e+02
7.700000e-07	-2.928319e-07	-1.486931e-09	-2.023641e+00	-9.879213e+01
7.800000e-07	-2.382988e-07	-1.434478e-09	-1.646785e+00	-9.537857e+01
7.900000e-07	-1.837178e-07	-1.388749e-09	-1.269598e+00	-9.193052e+01
8.000000e-07	-1.290866e-07	-1.339439e-09	-8.920645e-01	-8.850511e+01
8.100000e-07	-7.439786e-08	-1.282446e-09	-5.141330e-01	-8.509905e+01
8.200000e-07	-1.966858e-08	-1.225094e-09	-1.359214e-01	-8.165302e+01
8.300000e-07	3.503651e-08	-1.172710e-09	2.421229e-01	-7.808827e+01
8.400000e-07	8.969160e-08	-1.119847e-09	6.198217e-01	-7.435229e+01
8.500000e-07	1.443462e-07	-1.061133e-09	9.975174e-01	-7.044659e+01
8.600000e-07	1.990113e-07	-9.960707e-10	1.375285e+00	-6.642195e+01
8.700000e-07	2.536179e-07	-9.335408e-10	1.752649e+00	-6.234597e+01
8.800000e-07	3.081462e-07	-8.759787e-10	2.129472e+00	-5.826252e+01
8.900000e-07	3.625915e-07	-8.143835e-10	2.505720e+00	-5.416579e+01
9.000000e-07	4.169504e-07	-7.467016e-10	2.881372e+00	-5.000169e+01
9.100000e-07	4.711873e-07	-6.804300e-10	3.256181e+00	-4.569406e+01
9.200000e-07	5.252448e-07	-6.173366e-10	3.629751e+00	-4.118040e+01
9.300000e-07	5.790846e-07	-5.483918e-10	4.001816e+00	-3.643852e+01
9.400000e-07	6.326421e-07	-4.700636e-10	4.371929e+00	-3.149161e+01
9.500000e-07	6.859534e-07	-3.877393e-10	4.740341e+00	-2.639102e+01
9.600000e-07	7.390000e-07	-3.094152e-10	5.106925e+00	-2.118633e+01
9.700000e-07	7.917510e-07	-2.338544e-10	5.471465e+00	-1.589772e+01
9.800000e-07	8.442801e-07	-1.535564e-10	5.834472e+00	-1.050281e+01
9.900000e-07	8.965538e-07	-6.553838e-11	6.195714e+00	-4.943277e+00
1.000000e-06	9.484860e-07	2.492482e-11	6.554597e+00	8.525331e-01
1.010000e-06	1.000022e-06	1.148544e-10	6.910744e+00	6.941027e+00
1.020000e-06	1.051067e-06	2.108264e-10	7.263490e+00	1.334107e+01
1.030000e-06	1.101424e-06	3.150395e-10	7.611491e+00	2.002734e+01
1.040000e-06	1.151021e-06	4.240682e-10	7.954233e+00	2.694225e+01
1.050000e-06	1.200050e-06	5.325438e-10	8.293050e+00	3.402108e+01
1.060000e-06	1.248694e-06	6.396064e-10	8.629208e+00	4.121863e+01
1.070000e-06	1.297026e-06	7.506221e-10	8.963211e+00	4.852382e+01
1.080000e-06	1.345057e-06	8.656918e-10	9.295132e+00	5.595319e+01
1.090000e-06	1.392675e-06	9.798433e-10	9.624207e+00	6.352474e+01
1.100000e-06	1.439732e-06	1.093917e-09	9.949394e+00	7.122453e+01
1.110000e-06	1.486219e-06	1.213321e-09	1.027065e+01	7.898488e+01
1.120000e-06	1.532174e-06	1.334140e-09	1.058822e+01	8.668889e+01
1.130000e-06	1.577565e-06	1.449089e-09	1.090190e+01	9.420280e+01
1.140000e-06	1.622471e-06	1.555153e-09	1.121223e+01	1.014214e+02
1.150000e-06	1.667037e-06	1.657341e-09	1.152021e+01	1.083022e+02
1.160000e-06	1.711237e-06	1.757055e-09	1.182566e+01	1.148680e+02
1.170000e-06	1.754892e-06	1.851920e-09	1.212734e+01	1.211756e+02
1.180000e-06	1.797683e-06	1.942827e-09	1.242304e+01	1.272676e+02
1.190000e-06	1.839436e-06	2.031624e-09	1.271158e+01	1.331372e+02
1.200000e-06	1.880354e-06	2.118428e-09	1.299435e+01	1.387264e+02
1.210000e-06	1.920760e-06	2.198650e-09	1.327358e+01	1.439612e+02
1.220000e-06	1.960680e-06	2.270201e-09	1.354946e+01	1.488001e+02
1.230000e-06	1.999941e-06	2.334841e-09	1.382077e+01	1.532650e+02
1.240000e-06	2.038534e-06	2.396718e-09	1.408747e+01	1.574343e+02
1.250000e-06	2.076364e-06	2.456392e-09	1.434890e+01	1.614000e+02
1.260000e-06	2.113428e-06	2.512663e-09	1.460503e+01	1.652180e+02
1.270000e-06	2.150011e-06	2.565345e-09	1.485784e+01	1.688803e+02
1.280000e-06	2.186090e-06	2.616781e-09	1.510717e+01	1.723284e+02
1.290000e-06	2.221271e-06	2.665451e-09	1.535029e+01	1.754968e+02
1.300000e-06	2.255306e-06	2.707693e-09	1.558549e+01	1.783590e+02
1.310000e-06	2.288327e-06	2.742897e-09	1.581369e+01	1.809456e+02
1.320000e-06	2.320624e-06	2.774648e-09	1.603687e+01	1.833274e+02
1.330000e-06	2.352204e-06	2.806920e-09	1.625512e+01	1.855757e+02
1.340000e-06	2.383031e-06	2.838055e-09	1.646815e+01	1.877286e+02
1.350000e-06	2.413093e-06	2.867029e-09	1.667589e+01	1.897829e+02
1.360000e-06	2.442283e-06	2.895451e-09	1.687762e+01	1.917127e+02
1.370000e-06	2.470786e-06	2.923467e-09	1.707458e+01	1.934970e+02
1.380000e-06	2.498615e-06	2.948301e-09	1.726690e+01	1.951367e+02
1.390000e-06	2.525374e-06	2.969245e-09	1.745182e+01	1.966506e+02
1.400000e-06	2.550887e-06	2.988214e-09	1.762813e+01	1.980595e+02
1.410000e-06	2.575418e-06	3.006572e-09	1.779765e+01	1.993740e+02
1.420000e-06	2.599082e-06	3.023912e-09	1.796119e+01	2.005961e+02
1.430000e-06	2.621801e-06	3.040217e-09	1.811819e+01	2.017316e+02
1.440000e-06	2.643608e-06	3.056721e-09	1.826889e+01	2.027979e+02
1.450000e-06	2.664625e-06	3.074535e-09	1.841413e+01	2.038182e+02
1.460000e-06	2.684921e-06	3.092620e-09	1.855438e+01	2.048037e+02
1.470000e-06	2.704326e-06	3.107439e-09	1.868848e+01	2.057407e+02
1.480000e-06	2.722720e-06	3.118835e-09	1.881560e+01	2.065955e+02
1.490000e-06	2.740170e-06	3.129341e-09	1.893619e+01	2.073387e+02
1.500000e-06	2.756602e-06	3.139381e-09	1.904974e+01	2.079725e+02
1.510000e-06	2.771918e-06	3.148220e-09	1.915558e+01	2.085386e+02
1.520000e-06	2.786210e-06	3.156508e-09	1.925435e+01	2.090976e+02
1.530000e-06	2.799532e-06	3.165988e-09	1.934642e+01	2.096898e+02
1.540000e-06	2.811840e-06	3.177758e-09	1.943147e+01	2.103070e+02
1.550000e-06	2.822919e-06	3.187450e-09	1.950803e+01	2.108949e+02
1.560000e-06	2.832672e-06	3.193735e-09	1.957543e+01	2.113883e+02
1.570000e-06	2.841384e-06	3.199830e-09	1.963564e+01	2.117550e+02
1.580000e-06	2.849240e-06	3.206195e-09	1.968992e+01	2.120175e+02
1.590000e-06	2.856175e-06	3.211984e-09	1.973785e+01	2.122366e+02
1.600000e-06	2.862080e-06	3.214156e-09	1.977866e+01	2.124685e+02
1.610000e-06	2.867060e-06	3.215139e-09	1.981307e+01	2.127266e+02
1.620000e-06	2.871230e-06	3.218854e-09	1.984189e+01	2.129747e+02
1.630000e-06	2.874214e-06	3.224213e-09	1.986251e+01	2.131566e+02
1.640000e-06	2.875870e-06	3.228405e-09	1.987395e+01	2.132375e+02
1.650000e-06	2.876528e-06	3.230545e-09	1.987850e+01	2.132269e+02
1.660000e-06	2.876318e-06	3.231695e-09	1.987705e+01	2.131674e+02
1.670000e-06	2.875213e-06	3.230644e-09	1.986942e+01	2.130988e+02
1.680000e-06	2.873240e-06	3.227569e-09	1.985578e+01	2.130291e+02
1.690000e-06	2.870440e-06	3.222873e-09	1.983643e+01	2.129338e+02
1.700000e-06	2.866880e-06	3.219509e-09	1.981183e+01	2.127835e+02
1.710000e-06	2.862375e-06	3.220299e-09	1.978069e+01	2.125736e+02
1.720000e-06	2.856643e-06	3.224612e-09	1.974108e+01	2.123294e+02
1.730000e-06	2.849861e-06	3.215034e-09	1.969422e+01	2.120801e+02
1.740000e-06	2.842224e-06	3.168647e-09	1.964144e+01	2.118237e+02
1.750000e-06	2.833314e-06	3.155805e-09	1.957987e+01	2.115154e+02
1.760000e-06	2.822764e-06	3.223680e-09	1.950696e+01	2.110969e+02
1.770000e-06	2.811076e-06	3.252888e-09	1.942619e+01	2.105488e+02
1.780000e-06	2.799157e-06	3.160074e-09	1.934382e+01	2.099238e+02
1.790000e-06	2.786792e-06	3.129666e-09	1.925838e+01	2.093286e+02
1.800000e-06	2.772897e-06	3.219597e-09	1.916235e+01	2.088567e+02
1.810000e-06	2.757621e-06	3.152636e-09	1.905678e+01	2.085160e+02
1.820000e-06	2.741713e-06	3.044853e-09	1.894685e+01	2.082066e+02
1.830000e-06	2.724881e-06	3.179103e-09	1.883053e+01	2.077741e+02
1.840000e-06	2.706711e-06	3.238209e-09	1.870496e+01	2.071100e+02
1.850000e-06	2.687652e-06	3.071503e-09	1.857326e+01	2.062322e+02
1.860000e-06	2.667913e-06	3.116772e-09	1.843685e+01	2.052850e+02
1.870000e-06	2.647062e-06	3.227364e-09	1.829276e+01	2.044503e+02
1.880000e-06	2.625102e-06	3.046301e-09	1.814100e+01	2.038246e+02
1.890000e-06	2.602204e-06	3.007657e-09	1.798276e+01	2.033444e+02
1.900000e-06	2.578233e-06	3.153047e-09	1.781711e+01	2.028165e+02
1.910000e-06	2.553450e-06	3.081970e-09	1.764584e+01	2.020369e+02
1.920000e-06	2.527987e-06	3.039248e-09	1.746988e+01	2.009235e+02
1.930000e-06	2.501600e-06	3.078883e-09	1.728753e+01	1.995727e+02
1.940000e-06	2.474473e-06	2.997023e-09	1.710007e+01	1.981998e+02
1.950000e-06	2.446595e-06	3.014561e-09	1.690741e+01	1.970019e+02
1.960000e-06	2.417528e-06	3.036883e-09	1.670654e+01	1.960335e+02
1.970000e-06	2.387285e-06	2.905960e-09	1.649755e+01	1.951772e+02
1.980000e-06	2.356227e-06	2.942864e-09	1.628291e+01	1.942276e+02
1.990000e-06	2.324477e-06	3.004891e-09	1.606351e+01	1.930306e+02
2.000000e-06	2.292030e-06	2.894435e-09	1.583927e+01	1.915825e+02
2.010000e-06	2.258741e-06	2.904594e-09	1.560923e+01	1.900255e+02
2.020000e-06	2.224596e-06	2.907510e-09	1.537327e+01	1.885451e+02
2.030000e-06	2.189840e-06	2.820729e-09	1.513308e+01	1.872437e+02
2.040000e-06	2.154472e-06	2.855593e-09	1.488867e+01	1.860757e+02
2.050000e-06	2.118326e-06	2.835883e-09	1.463888e+01	1.848851e+02
2.060000e-06	2.081337e-06	2.753849e-09	1.438326e+01	1.835155e+02
2.070000e-06	2.043326e-06	2.785595e-09	1.412058e+01	1.819141e+02
2.080000e-06	2.004414e-06	2.780623e-09	1.385168e+01	1.801606e+02
2.090000e-06	1.964877e-06	2.723208e-09	1.357846e+01	1.784053e+02
2.100000e-06	1.924713e-06	2.697231e-09	1.330090e+01	1.767648e+02
2.110000e-06	1.883907e-06	2.661618e-09	1.301891e+01	1.752484e+02
2.120000e-06	1.842489e-06	2.650909e-09	1.273268e+01	1.737615e+02
2.130000e-06	1.800446e-06	2.643241e-09	1.244214e+01	1.721776e+02
2.140000e-06	1.757798e-06	2.603634e-09	1.214742e+01	1.704236e+02
2.150000e-06	1.714685e-06	2.573107e-09	1.184948e+01	1.685201e+02
2.160000e-06	1.671135e-06	2.550626e-09	1.154852e+01	1.665530e+02
2.170000e-06	1.627016e-06	2.524228e-09	1.124364e+01	1.646053e+02
2.180000e-06	1.582260e-06	2.482575e-09	1.093435e+01	1.626992e+02
2.190000e-06	1.536890e-06	2.451260e-09	1.062082e+01	1.607902e+02
2.200000e-06	1.490972e-06	2.434525e-09	1.030349e+01	1.588104e+02
2.210000e-06	1.444661e-06	2.404812e-09	9.983459e+00	1.567244e+02
2.220000e-06	1.397892e-06	2.376797e-09	9.660255e+00	1.545550e+02
2.230000e-06	1.350568e-06	2.336006e-09	9.333217e+00	1.523618e+02
2.240000e-06	1.302681e-06	2.285825e-09	9.002294e+00	1.501923e+02
2.250000e-06	1.254215e-06	2.266216e-09	8.667362e+00	1.480440e+02
2.260000e-06	1.205290e-06	2.243364e-09	8.329264e+00	1.458671e+02
2.270000e-06	1.155927e-06	2.203394e-09	7.988133e+00	1.436032e+02
2.280000e-06	1.106123e-06	2.166956e-09	7.643964e+00	1.412310e+02
2.290000e-06	1.055858e-06	2.128747e-09	7.296602e+00	1.387821e+02
2.300000e-06	1.005158e-06	2.098986e-09	6.946231e+00	1.363162e+02
2.310000e-06	9.541547e-07	2.060469e-09	6.593771e+00	1.338740e+02
2.320000e-06	9.028700e-07	2.013202e-09	6.239363e+00	1.314431e+02
2.330000e-06	8.513122e-07	1.980754e-09	5.883068e+00	1.289629e+02
2.340000e-06	7.994035e-07	1.951945e-09	5.524348e+00	1.263659e+02
2.350000e-06	7.470959e-07	1.913553e-09	5.162872e+00	1.236259e+02
2.360000e-06	6.943750e-07	1.863329e-09	4.798540e+00	1.207791e+02
2.370000e-06	6.412345e-07	1.815467e-09	4.431308e+00	1.179015e+02
2.380000e-06	5.877211e-07	1.777631e-09	4.061499e+00	1.150585e+02
2.390000e-06	5.338096e-07	1.738595e-09	3.688938e+00	1.122591e+02
2.400000e-06	4.795429e-07	1.694902e-09	3.313924e+00	1.094460e+02
2.410000e-06	4.250968e-07	1.648989e-09	2.937669e+00	1.065281e+02
2.420000e-06	3.705043e-07	1.603858e-09	2.560403e+00	1.034350e+02
2.430000e-06	3.156952e-07	1.558978e-09	2.181640e+00	1.001579e+02
2.440000e-06	2.607430e-07	1.506197e-09	1.801888e+00	9.675267e+01
2.450000e-06	2.057006e-07	1.449480e-09	1.421512e+00	9.330437e+01
2.460000e-06	1.506363e-07	1.396873e-09	1.040985e+00	8.987518e+01
2.470000e-06	9.558543e-08	1.346511e-09	6.605516e-01	8.646879e+01
2.480000e-06	4.047930e-08	1.295265e-09	2.797358e-01	8.303052e+01
2.490000e-06	-1.461940e-08	1.238689e-09	-1.010286e-01	7.948146e+01
2.500000e-06	-6.968488e-08	1.180289e-09	-4.815635e-01	7.576446e+01
2.510000e-06	-1.247302e-07	1.124298e-09	-8.619590e-01	7.187485e+01
2.520000e-06	-1.797744e-07	1.066006e-09	-1.242347e+00	6.785932e+01
2.530000e-06	-2.348251e-07	1.003073e-09	-1.622780e+00	6.378569e+01
2.540000e-06	-2.898189e-07	9.386626e-10	-2.002819e+00	5.970201e+01
2.550000e-06	-3.446712e-07	8.776657e-10	-2.381881e+00	5.560825e+01
2.560000e-06	-3.993824e-07	8.169545e-10	-2.759968e+00	5.145458e+01
2.570000e-06	-4.539575e-07	7.486851e-10	-3.137114e+00	4.716551e+01
2.580000e-06	-5.082271e-07	6.760915e-10	-3.512148e+00	4.267549e+01
2.590000e-06	-5.621885e-07	6.043939e-10	-3.885054e+00	3.795733e+01
2.600000e-06	-6.158763e-07	5.314808e-10	-4.256068e+00	3.302987e+01
2.610000e-06	-6.692009e-07	4.556545e-10	-4.624572e+00	2.794274e+01
2.620000e-06	-7.221267e-07	3.763299e-10	-4.990321e+00	2.274720e+01
2.630000e-06	-7.745569e-07	2.944325e-10	-5.352644e+00	1.746755e+01
2.640000e-06	-8.265393e-07	2.119089e-10	-5.711873e+00	1.208600e+01
2.650000e-06	-8.781728e-07	1.275451e-10	-6.068691e+00	6.547195e+00
2.660000e-06	-9.295009e-07	3.806064e-11	-6.423398e+00	7.795588e-01
2.670000e-06	-9.805186e-07	-5.621946e-11	-6.775961e+00	-5.276227e+00
2.680000e-06	-1.031223e-06	-1.516333e-10	-7.126357e+00	-1.164369e+01
2.690000e-06	-1.081597e-06	-2.483203e-10	-7.474473e+00	-1.830200e+01
2.700000e-06	-1.131539e-06	-3.499621e-10	-7.819600e+00	-2.519597e+01
2.710000e-06	-1.181062e-06	-4.587508e-10	-8.161834e+00	-3.226026e+01
2.720000e-06	-1.230129e-06	-5.716888e-10	-8.500918e+00	-3.944658e+01
2.730000e-06	-1.278589e-06	-6.837240e-10	-8.835804e+00	-4.674011e+01
2.740000e-06	-1.326251e-06	-7.973150e-10	-9.165174e+00	-5.415540e+01
2.750000e-06	-1.373199e-06	-9.155141e-10	-9.489610e+00	-6.171190e+01
2.760000e-06	-1.419584e-06	-1.033244e-09	-9.810161e+00	-6.940050e+01
2.770000e-06	-1.465496e-06	-1.148421e-09	-1.012744e+01	-7.715961e+01
2.780000e-06	-1.511081e-06	-1.262981e-09	-1.044246e+01	-8.487646e+01
2.790000e-06	-1.556298e-06	-1.377996e-09	-1.075494e+01	-9.241698e+01
2.800000e-06	-1.601021e-06	-1.492119e-09	-1.106400e+01	-9.967087e+01
2.810000e-06	-1.645152e-06	-1.601095e-09	-1.136897e+01	-1.065881e+02
2.820000e-06	-1.688750e-06	-1.703219e-09	-1.167025e+01	-1.131854e+02
2.830000e-06	-1.731984e-06	-1.801999e-09	-1.196903e+01	-1.195183e+02
2.840000e-06	-1.774717e-06	-1.898750e-09	-1.226434e+01	-1.256332e+02
2.850000e-06	-1.816797e-06	-1.989986e-09	-1.255514e+01	-1.315290e+02
2.860000e-06	-1.858310e-06	-2.072665e-09	-1.284202e+01	-1.371522e+02
2.870000e-06	-1.899185e-06	-2.149560e-09	-1.312449e+01	-1.424282e+02
2.880000e-06	-1.939389e-06	-2.225085e-09	-1.340232e+01	-1.473100e+02
2.890000e-06	-1.979026e-06	-2.298240e-09	-1.367623e+01	-1.518124e+02
2.900000e-06	-2.018133e-06	-2.366413e-09	-1.394648e+01	-1.560090e+02
2.910000e-06	-2.056562e-06	-2.430488e-09	-1.421206e+01	-1.599933e+02
2.920000e-06	-2.094032e-06	-2.492235e-09	-1.447099e+01	-1.638267e+02
2.930000e-06	-2.130479e-06	-2.550618e-09	-1.472286e+01	-1.675081e+02
2.940000e-06	-2.166122e-06	-2.603390e-09	-1.496918e+01	-1.709829e+02
