# Temperatura_=_23.59
# Concentracion g/m^3_=_15500.0
# C_Vs_to_Am_M_A/Vsm_=_65563218390.804596
# pendiente_HvsI_1/m_=_3716.3
# ordenada_HvsI_A/m_=_1297.0
# frecuencia_Hz_=_300988.9752371921

Tiempo_(s)	Campo_(V.s)	Magnetizacion_(V.s)	Campo_(kA/m)	Magnetizacion_(A/m)
0.000000e+00	-2.861138e-06	-3.266398e-09	-1.978384e+01	-2.132656e+02
1.000000e-08	-2.860305e-06	-3.268548e-09	-1.977807e+01	-2.132971e+02
2.000000e-08	-2.858461e-06	-3.269912e-09	-1.976532e+01	-2.132457e+02
3.000000e-08	-2.855368e-06	-3.269599e-09	-1.974394e+01	-2.130622e+02
4.000000e-08	-2.851262e-06	-3.266063e-09	-1.971555e+01	-2.127645e+02
5.000000e-08	-2.846362e-06	-3.259557e-09	-1.968167e+01	-2.124421e+02
6.000000e-08	-2.840604e-06	-3.252467e-09	-1.964185e+01	-2.121992e+02
7.000000e-08	-2.833931e-06	-3.257136e-09	-1.959571e+01	-2.120701e+02
8.000000e-08	-2.826246e-06	-3.290498e-09	-1.954257e+01	-2.119711e+02
9.000000e-08	-2.817324e-06	-3.286794e-09	-1.948087e+01	-2.117360e+02
1.000000e-07	-2.806912e-06	-3.211565e-09	-1.940888e+01	-2.112263e+02
1.100000e-07	-2.795249e-06	-3.150081e-09	-1.932824e+01	-2.104445e+02
1.200000e-07	-2.782787e-06	-3.232606e-09	-1.924206e+01	-2.095655e+02
1.300000e-07	-2.769496e-06	-3.280752e-09	-1.915016e+01	-2.088496e+02
1.400000e-07	-2.755201e-06	-3.125496e-09	-1.905132e+01	-2.084796e+02
1.500000e-07	-2.739957e-06	-3.190151e-09	-1.894591e+01	-2.084298e+02
1.600000e-07	-2.723527e-06	-3.302601e-09	-1.883230e+01	-2.084591e+02
1.700000e-07	-2.705827e-06	-3.154269e-09	-1.870991e+01	-2.082469e+02
1.800000e-07	-2.687299e-06	-3.088790e-09	-1.858179e+01	-2.075905e+02
1.900000e-07	-2.668046e-06	-3.225184e-09	-1.844866e+01	-2.065341e+02
2.000000e-07	-2.647877e-06	-3.166832e-09	-1.830920e+01	-2.053430e+02
2.100000e-07	-2.626805e-06	-3.015788e-09	-1.816350e+01	-2.043326e+02
2.200000e-07	-2.604917e-06	-3.159621e-09	-1.801215e+01	-2.036652e+02
2.300000e-07	-2.582151e-06	-3.203626e-09	-1.785473e+01	-2.032487e+02
2.400000e-07	-2.558483e-06	-3.061365e-09	-1.769107e+01	-2.028036e+02
2.500000e-07	-2.534018e-06	-3.072601e-09	-1.752190e+01	-2.020531e+02
2.600000e-07	-2.508658e-06	-3.080655e-09	-1.734655e+01	-2.009060e+02
2.700000e-07	-2.482173e-06	-3.007692e-09	-1.716342e+01	-1.995110e+02
2.800000e-07	-2.454620e-06	-3.053686e-09	-1.697289e+01	-1.981494e+02
2.900000e-07	-2.426142e-06	-3.023082e-09	-1.677598e+01	-1.970426e+02
3.000000e-07	-2.396855e-06	-2.971033e-09	-1.657347e+01	-1.962093e+02
3.100000e-07	-2.366866e-06	-2.998622e-09	-1.636611e+01	-1.954640e+02
3.200000e-07	-2.336116e-06	-2.986494e-09	-1.615348e+01	-1.945537e+02
3.300000e-07	-2.304526e-06	-2.942532e-09	-1.593504e+01	-1.933305e+02
3.400000e-07	-2.272241e-06	-2.911090e-09	-1.571180e+01	-1.918437e+02
3.500000e-07	-2.239365e-06	-2.876420e-09	-1.548448e+01	-1.902916e+02
3.600000e-07	-2.205665e-06	-2.881806e-09	-1.525145e+01	-1.888762e+02
3.700000e-07	-2.170833e-06	-2.902803e-09	-1.501060e+01	-1.876662e+02
3.800000e-07	-2.134971e-06	-2.830951e-09	-1.476263e+01	-1.865610e+02
3.900000e-07	-2.098433e-06	-2.815373e-09	-1.450998e+01	-1.853739e+02
4.000000e-07	-2.061279e-06	-2.828218e-09	-1.425307e+01	-1.839673e+02
4.100000e-07	-2.023388e-06	-2.791359e-09	-1.399107e+01	-1.823415e+02
4.200000e-07	-1.984772e-06	-2.740543e-09	-1.372405e+01	-1.806215e+02
4.300000e-07	-1.945462e-06	-2.717648e-09	-1.345223e+01	-1.789582e+02
4.400000e-07	-1.905482e-06	-2.703938e-09	-1.317579e+01	-1.774202e+02
4.500000e-07	-1.865016e-06	-2.691827e-09	-1.289597e+01	-1.759553e+02
4.600000e-07	-1.824127e-06	-2.667711e-09	-1.261324e+01	-1.744387e+02
4.700000e-07	-1.782488e-06	-2.619423e-09	-1.232532e+01	-1.727691e+02
4.800000e-07	-1.739818e-06	-2.592761e-09	-1.203027e+01	-1.709369e+02
4.900000e-07	-1.696187e-06	-2.576372e-09	-1.172858e+01	-1.690210e+02
5.000000e-07	-1.651926e-06	-2.557862e-09	-1.142253e+01	-1.671214e+02
5.100000e-07	-1.607248e-06	-2.512677e-09	-1.111360e+01	-1.652846e+02
5.200000e-07	-1.562116e-06	-2.484809e-09	-1.080152e+01	-1.634753e+02
5.300000e-07	-1.516443e-06	-2.464008e-09	-1.048571e+01	-1.616110e+02
5.400000e-07	-1.470201e-06	-2.432758e-09	-1.016596e+01	-1.596290e+02
5.500000e-07	-1.423407e-06	-2.390061e-09	-9.842395e+00	-1.575319e+02
5.600000e-07	-1.376140e-06	-2.345810e-09	-9.515556e+00	-1.553806e+02
5.700000e-07	-1.328407e-06	-2.324737e-09	-9.185498e+00	-1.532429e+02
5.800000e-07	-1.280245e-06	-2.305639e-09	-8.852477e+00	-1.511407e+02
5.900000e-07	-1.231736e-06	-2.276814e-09	-8.517050e+00	-1.490342e+02
6.000000e-07	-1.182806e-06	-2.227566e-09	-8.178715e+00	-1.468543e+02
6.100000e-07	-1.133239e-06	-2.184764e-09	-7.835978e+00	-1.445553e+02
6.200000e-07	-1.082942e-06	-2.149814e-09	-7.488188e+00	-1.421473e+02
6.300000e-07	-1.032062e-06	-2.116011e-09	-7.136370e+00	-1.396864e+02
6.400000e-07	-9.806632e-07	-2.072720e-09	-6.780965e+00	-1.372299e+02
6.500000e-07	-9.288498e-07	-2.030819e-09	-6.422693e+00	-1.347928e+02
6.600000e-07	-8.766867e-07	-2.004604e-09	-6.062002e+00	-1.323353e+02
6.700000e-07	-8.242122e-07	-1.973926e-09	-5.699158e+00	-1.297908e+02
6.800000e-07	-7.714708e-07	-1.929653e-09	-5.334469e+00	-1.271120e+02
6.900000e-07	-7.184317e-07	-1.873095e-09	-4.967721e+00	-1.243039e+02
7.000000e-07	-6.650951e-07	-1.827887e-09	-4.598916e+00	-1.214198e+02
7.100000e-07	-6.115049e-07	-1.788785e-09	-4.228357e+00	-1.185267e+02
7.200000e-07	-5.577332e-07	-1.747194e-09	-3.856543e+00	-1.156626e+02
7.300000e-07	-5.037787e-07	-1.699835e-09	-3.483465e+00	-1.128136e+02
7.400000e-07	-4.496355e-07	-1.653792e-09	-3.109082e+00	-1.099230e+02
7.500000e-07	-3.953312e-07	-1.611991e-09	-2.733586e+00	-1.069250e+02
7.600000e-07	-3.409177e-07	-1.563741e-09	-2.357334e+00	-1.037800e+02
7.700000e-07	-2.864440e-07	-1.508042e-09	-1.980667e+00	-1.004929e+02
7.800000e-07	-2.318861e-07	-1.449817e-09	-1.603417e+00	-9.710483e+01
7.900000e-07	-1.772243e-07	-1.400159e-09	-1.225448e+00	-9.366721e+01
8.000000e-07	-1.225096e-07	-1.351036e-09	-8.471140e-01	-9.021195e+01
8.100000e-07	-6.782736e-08	-1.298245e-09	-4.690040e-01	-8.673475e+01
8.200000e-07	-1.318925e-08	-1.240648e-09	-9.119939e-02	-8.319836e+01
8.300000e-07	4.144966e-08	-1.183664e-09	2.866108e-01	-7.955316e+01
8.400000e-07	9.612284e-08	-1.128009e-09	6.646580e-01	-7.576383e+01
8.500000e-07	1.508030e-07	-1.068235e-09	1.042753e+00	-7.182819e+01
8.600000e-07	2.054189e-07	-1.003344e-09	1.420405e+00	-6.777781e+01
8.700000e-07	2.599755e-07	-9.364690e-10	1.797646e+00	-6.365906e+01
8.800000e-07	3.144535e-07	-8.758441e-10	2.174343e+00	-5.950445e+01
8.900000e-07	3.688109e-07	-8.143518e-10	2.550207e+00	-5.531003e+01
9.000000e-07	4.230384e-07	-7.484686e-10	2.925173e+00	-5.103289e+01
9.100000e-07	4.771145e-07	-6.787729e-10	3.299091e+00	-4.661135e+01
9.200000e-07	5.310554e-07	-6.091284e-10	3.672075e+00	-4.199651e+01
9.300000e-07	5.848391e-07	-5.379359e-10	4.043971e+00	-3.717624e+01
9.400000e-07	6.383507e-07	-4.614696e-10	4.413987e+00	-3.217638e+01
9.500000e-07	6.915582e-07	-3.809220e-10	4.781899e+00	-2.703874e+01
9.600000e-07	7.444566e-07	-2.989798e-10	5.147674e+00	-2.179000e+01
9.700000e-07	7.970981e-07	-2.206010e-10	5.511673e+00	-1.642195e+01
9.800000e-07	8.495766e-07	-1.384098e-10	5.874545e+00	-1.089474e+01
9.900000e-07	9.017945e-07	-4.895502e-11	6.235614e+00	-5.159198e+00
1.000000e-06	9.536601e-07	4.518249e-11	6.594248e+00	8.187087e-01
1.010000e-06	1.005096e-06	1.395567e-10	6.949907e+00	7.047569e+00
1.020000e-06	1.055931e-06	2.361062e-10	7.301416e+00	1.351881e+01
1.030000e-06	1.106072e-06	3.384499e-10	7.648123e+00	2.022314e+01
1.040000e-06	1.155537e-06	4.477084e-10	7.990164e+00	2.715935e+01
1.050000e-06	1.204521e-06	5.599332e-10	8.328871e+00	3.432730e+01
1.060000e-06	1.253157e-06	6.707265e-10	8.665170e+00	4.171142e+01
1.070000e-06	1.301459e-06	7.837303e-10	8.999162e+00	4.926992e+01
1.080000e-06	1.349421e-06	8.996792e-10	9.330804e+00	5.694088e+01
1.090000e-06	1.396938e-06	1.016167e-09	9.659371e+00	6.466215e+01
1.100000e-06	1.443946e-06	1.131582e-09	9.984417e+00	7.238918e+01
1.110000e-06	1.490415e-06	1.248959e-09	1.030574e+01	8.009519e+01
1.120000e-06	1.536310e-06	1.367847e-09	1.062308e+01	8.775167e+01
1.130000e-06	1.581647e-06	1.485044e-09	1.093657e+01	9.530405e+01
1.140000e-06	1.626514e-06	1.597090e-09	1.124681e+01	1.026641e+02
1.150000e-06	1.671033e-06	1.701402e-09	1.155465e+01	1.097298e+02
1.160000e-06	1.715169e-06	1.798602e-09	1.185983e+01	1.164233e+02
1.170000e-06	1.758691e-06	1.891427e-09	1.216077e+01	1.227222e+02
1.180000e-06	1.801350e-06	1.982771e-09	1.245575e+01	1.286614e+02
1.190000e-06	1.843019e-06	2.071162e-09	1.274387e+01	1.343037e+02
1.200000e-06	1.883906e-06	2.155003e-09	1.302660e+01	1.396976e+02
1.210000e-06	1.924250e-06	2.233557e-09	1.330556e+01	1.448502e+02
1.220000e-06	1.964057e-06	2.307856e-09	1.358081e+01	1.497316e+02
1.230000e-06	2.003212e-06	2.376638e-09	1.385156e+01	1.543049e+02
1.240000e-06	2.041640e-06	2.437710e-09	1.411727e+01	1.585573e+02
1.250000e-06	2.079321e-06	2.492504e-09	1.437783e+01	1.625107e+02
1.260000e-06	2.116315e-06	2.543464e-09	1.463363e+01	1.662055e+02
1.270000e-06	2.152813e-06	2.594761e-09	1.488600e+01	1.696741e+02
1.280000e-06	2.188713e-06	2.644927e-09	1.513424e+01	1.729254e+02
1.290000e-06	2.223660e-06	2.691855e-09	1.537588e+01	1.759522e+02
1.300000e-06	2.257511e-06	2.733190e-09	1.560995e+01	1.787537e+02
1.310000e-06	2.290451e-06	2.771063e-09	1.583772e+01	1.813528e+02
1.320000e-06	2.322685e-06	2.806027e-09	1.606061e+01	1.837922e+02
1.330000e-06	2.354176e-06	2.837017e-09	1.627836e+01	1.861119e+02
1.340000e-06	2.384929e-06	2.866133e-09	1.649100e+01	1.883260e+02
1.350000e-06	2.414871e-06	2.895566e-09	1.669804e+01	1.904175e+02
1.360000e-06	2.443984e-06	2.925381e-09	1.689935e+01	1.923559e+02
1.370000e-06	2.472403e-06	2.953578e-09	1.709586e+01	1.941258e+02
1.380000e-06	2.500041e-06	2.979248e-09	1.728697e+01	1.957434e+02
1.390000e-06	2.526616e-06	3.001814e-09	1.747072e+01	1.972493e+02
1.400000e-06	2.552034e-06	3.023241e-09	1.764648e+01	1.986844e+02
1.410000e-06	2.576446e-06	3.043553e-09	1.781529e+01	2.000665e+02
1.420000e-06	2.599992e-06	3.061107e-09	1.797810e+01	2.013860e+02
1.430000e-06	2.622697e-06	3.075947e-09	1.813510e+01	2.026204e+02
1.440000e-06	2.644505e-06	3.092585e-09	1.828589e+01	2.037564e+02
1.450000e-06	2.665513e-06	3.113102e-09	1.843115e+01	2.047992e+02
1.460000e-06	2.685741e-06	3.132064e-09	1.857102e+01	2.057657e+02
1.470000e-06	2.705013e-06	3.145914e-09	1.870428e+01	2.066685e+02
1.480000e-06	2.723299e-06	3.156883e-09	1.883072e+01	2.075073e+02
1.490000e-06	2.740677e-06	3.168112e-09	1.895089e+01	2.082750e+02
1.500000e-06	2.757011e-06	3.180731e-09	1.906383e+01	2.089724e+02
1.510000e-06	2.772236e-06	3.191555e-09	1.916910e+01	2.096158e+02
1.520000e-06	2.786404e-06	3.199078e-09	1.926707e+01	2.102298e+02
1.530000e-06	2.799543e-06	3.206914e-09	1.935793e+01	2.108280e+02
1.540000e-06	2.811649e-06	3.217900e-09	1.944164e+01	2.114000e+02
1.550000e-06	2.822549e-06	3.228687e-09	1.951700e+01	2.119173e+02
1.560000e-06	2.832145e-06	3.235777e-09	1.958336e+01	2.123551e+02
1.570000e-06	2.840663e-06	3.241277e-09	1.964225e+01	2.127134e+02
1.580000e-06	2.848275e-06	3.248615e-09	1.969489e+01	2.130188e+02
1.590000e-06	2.854969e-06	3.256498e-09	1.974118e+01	2.133034e+02
1.600000e-06	2.860719e-06	3.260587e-09	1.978094e+01	2.135780e+02
1.610000e-06	2.865619e-06	3.259951e-09	1.981482e+01	2.138227e+02
1.620000e-06	2.869641e-06	3.261263e-09	1.984263e+01	2.140047e+02
1.630000e-06	2.872488e-06	3.267129e-09	1.986232e+01	2.141099e+02
1.640000e-06	2.874150e-06	3.273346e-09	1.987381e+01	2.141601e+02
1.650000e-06	2.874829e-06	3.276854e-09	1.987850e+01	2.141976e+02
1.660000e-06	2.874583e-06	3.276218e-09	1.987680e+01	2.142467e+02
1.670000e-06	2.873429e-06	3.272590e-09	1.986883e+01	2.142832e+02
1.680000e-06	2.871366e-06	3.269030e-09	1.985456e+01	2.142441e+02
1.690000e-06	2.868459e-06	3.263938e-09	1.983446e+01	2.140756e+02
1.700000e-06	2.864769e-06	3.259048e-09	1.980894e+01	2.137871e+02
1.710000e-06	2.860045e-06	3.259765e-09	1.977628e+01	2.134622e+02
1.720000e-06	2.854118e-06	3.268635e-09	1.973529e+01	2.132075e+02
1.730000e-06	2.847205e-06	3.248564e-09	1.968749e+01	2.130684e+02
1.740000e-06	2.839440e-06	3.201449e-09	1.963380e+01	2.129737e+02
1.750000e-06	2.830424e-06	3.206262e-09	1.957146e+01	2.127616e+02
1.760000e-06	2.819858e-06	3.301317e-09	1.949840e+01	2.122847e+02
1.770000e-06	2.808269e-06	3.262539e-09	1.941827e+01	2.115266e+02
1.780000e-06	2.796401e-06	3.184465e-09	1.933620e+01	2.106461e+02
1.790000e-06	2.783830e-06	3.208655e-09	1.924927e+01	2.099015e+02
1.800000e-06	2.769703e-06	3.265373e-09	1.915159e+01	2.094917e+02
1.810000e-06	2.754372e-06	3.129490e-09	1.904558e+01	2.094163e+02
1.820000e-06	2.738405e-06	3.080697e-09	1.893517e+01	2.094529e+02
1.830000e-06	2.721432e-06	3.279758e-09	1.881782e+01	2.092802e+02
1.840000e-06	2.703174e-06	3.181806e-09	1.869157e+01	2.086742e+02
1.850000e-06	2.684098e-06	3.022953e-09	1.855966e+01	2.076511e+02
1.860000e-06	2.664288e-06	3.189804e-09	1.842268e+01	2.064587e+02
1.870000e-06	2.643322e-06	3.185280e-09	1.827771e+01	2.054173e+02
1.880000e-06	2.621222e-06	2.976277e-09	1.812489e+01	2.047134e+02
1.890000e-06	2.598147e-06	3.062057e-09	1.796534e+01	2.042816e+02
1.900000e-06	2.574059e-06	3.139776e-09	1.779878e+01	2.038550e+02
1.910000e-06	2.549190e-06	3.055017e-09	1.762682e+01	2.031461e+02
1.920000e-06	2.523574e-06	3.059195e-09	1.744969e+01	2.020385e+02
1.930000e-06	2.497057e-06	3.055814e-09	1.726633e+01	2.006577e+02
1.940000e-06	2.469880e-06	2.970021e-09	1.707841e+01	1.992795e+02
1.950000e-06	2.441888e-06	3.029532e-09	1.688486e+01	1.981407e+02
1.960000e-06	2.412700e-06	3.001818e-09	1.668303e+01	1.972844e+02
1.970000e-06	2.382403e-06	2.911392e-09	1.647354e+01	1.965424e+02
1.980000e-06	2.351278e-06	2.971288e-09	1.625832e+01	1.956601e+02
1.990000e-06	2.319428e-06	2.951176e-09	1.603809e+01	1.944719e+02
2.000000e-06	2.286821e-06	2.920511e-09	1.581262e+01	1.930057e+02
2.010000e-06	2.253424e-06	2.930037e-09	1.558169e+01	1.914500e+02
2.020000e-06	2.219230e-06	2.844017e-09	1.534525e+01	1.900139e+02
2.030000e-06	2.184412e-06	2.842317e-09	1.510450e+01	1.887842e+02
2.040000e-06	2.148960e-06	2.881891e-09	1.485936e+01	1.876766e+02
2.050000e-06	2.112790e-06	2.794509e-09	1.460925e+01	1.865071e+02
2.060000e-06	2.075754e-06	2.780005e-09	1.435316e+01	1.851269e+02
2.070000e-06	2.037662e-06	2.797705e-09	1.408977e+01	1.835204e+02
2.080000e-06	1.998710e-06	2.760093e-09	1.382042e+01	1.818031e+02
2.090000e-06	1.959149e-06	2.745966e-09	1.354688e+01	1.801285e+02
2.100000e-06	1.918966e-06	2.696635e-09	1.326902e+01	1.785779e+02
2.110000e-06	1.878091e-06	2.665734e-09	1.298638e+01	1.771108e+02
2.120000e-06	1.836610e-06	2.667789e-09	1.269956e+01	1.756061e+02
2.130000e-06	1.794601e-06	2.642341e-09	1.240908e+01	1.739555e+02
2.140000e-06	1.751996e-06	2.618853e-09	1.211448e+01	1.721384e+02
2.150000e-06	1.708851e-06	2.584623e-09	1.181615e+01	1.702266e+02
2.160000e-06	1.665286e-06	2.553152e-09	1.151491e+01	1.683218e+02
2.170000e-06	1.621173e-06	2.534861e-09	1.120988e+01	1.664790e+02
2.180000e-06	1.576382e-06	2.494684e-09	1.090016e+01	1.646706e+02
2.190000e-06	1.530920e-06	2.465308e-09	1.058581e+01	1.628164e+02
2.200000e-06	1.484969e-06	2.446759e-09	1.026808e+01	1.608484e+02
2.210000e-06	1.438642e-06	2.419440e-09	9.947740e+00	1.587617e+02
2.220000e-06	1.391880e-06	2.402609e-09	9.624396e+00	1.566128e+02
2.230000e-06	1.344544e-06	2.352277e-09	9.297086e+00	1.544718e+02
2.240000e-06	1.296532e-06	2.308308e-09	8.965093e+00	1.523670e+02
2.250000e-06	1.247998e-06	2.284463e-09	8.629495e+00	1.502644e+02
2.260000e-06	1.199049e-06	2.252940e-09	8.291034e+00	1.480957e+02
2.270000e-06	1.149670e-06	2.227037e-09	7.949595e+00	1.458102e+02
2.280000e-06	1.099894e-06	2.186421e-09	7.605405e+00	1.434120e+02
2.290000e-06	1.049642e-06	2.151327e-09	7.257935e+00	1.409539e+02
2.300000e-06	9.989465e-07	2.122665e-09	6.907389e+00	1.384955e+02
2.310000e-06	9.479321e-07	2.081132e-09	6.554641e+00	1.360577e+02
2.320000e-06	8.966389e-07	2.035864e-09	6.199965e+00	1.336057e+02
2.330000e-06	8.450816e-07	1.994332e-09	5.843463e+00	1.310737e+02
2.340000e-06	7.931402e-07	1.958796e-09	5.484305e+00	1.284104e+02
2.350000e-06	7.407845e-07	1.922960e-09	5.122283e+00	1.256145e+02
2.360000e-06	6.880308e-07	1.875696e-09	4.757508e+00	1.227355e+02
2.370000e-06	6.348175e-07	1.830582e-09	4.389555e+00	1.198410e+02
2.380000e-06	5.811280e-07	1.789454e-09	4.018310e+00	1.169738e+02
2.390000e-06	5.271381e-07	1.747263e-09	3.644988e+00	1.141256e+02
2.400000e-06	4.729152e-07	1.705406e-09	3.270054e+00	1.112431e+02
2.410000e-06	4.184615e-07	1.656254e-09	2.893525e+00	1.082594e+02
2.420000e-06	3.638292e-07	1.611007e-09	2.515760e+00	1.051310e+02
2.430000e-06	3.090219e-07	1.565395e-09	2.136785e+00	1.018578e+02
2.440000e-06	2.541191e-07	1.514565e-09	1.757151e+00	9.847834e+01
2.450000e-06	1.991283e-07	1.461190e-09	1.376907e+00	9.504423e+01
2.460000e-06	1.441208e-07	1.405548e-09	9.965481e-01	9.159065e+01
2.470000e-06	8.910195e-08	1.354423e-09	6.161108e-01	8.811738e+01
2.480000e-06	3.401781e-08	1.302621e-09	2.352220e-01	8.458999e+01
2.490000e-06	-2.106462e-08	1.246915e-09	-1.456550e-01	8.095886e+01
2.500000e-06	-7.612843e-08	1.188441e-09	-5.264032e-01	7.718601e+01
2.510000e-06	-1.311773e-07	1.129714e-09	-9.070482e-01	7.326530e+01
2.520000e-06	-1.862223e-07	1.070239e-09	-1.287667e+00	6.922529e+01
2.530000e-06	-2.412361e-07	1.007589e-09	-1.668069e+00	6.511210e+01
2.540000e-06	-2.961830e-07	9.421785e-10	-2.048009e+00	6.096104e+01
2.550000e-06	-3.509769e-07	8.787842e-10	-2.426891e+00	5.677261e+01
2.560000e-06	-4.056059e-07	8.159280e-10	-2.804632e+00	5.250748e+01
2.570000e-06	-4.601113e-07	7.482376e-10	-3.181520e+00	4.810450e+01
2.580000e-06	-5.143561e-07	6.779745e-10	-3.556604e+00	4.351197e+01
2.590000e-06	-5.683072e-07	6.041503e-10	-3.929658e+00	3.871329e+01
2.600000e-06	-6.218761e-07	5.272398e-10	-4.300070e+00	3.373097e+01
2.610000e-06	-6.749554e-07	4.479832e-10	-4.667096e+00	2.860657e+01
2.620000e-06	-7.276185e-07	3.680273e-10	-5.031244e+00	2.336972e+01
2.630000e-06	-7.798914e-07	2.868556e-10	-5.392694e+00	1.801620e+01
2.640000e-06	-8.317556e-07	2.038230e-10	-5.751318e+00	1.250874e+01
2.650000e-06	-8.833176e-07	1.176535e-10	-6.107852e+00	6.797833e+00
2.660000e-06	-9.346617e-07	2.616817e-11	-6.462880e+00	8.470090e-01
2.670000e-06	-9.857299e-07	-6.742751e-11	-6.816000e+00	-5.354940e+00
2.680000e-06	-1.036429e-06	-1.646433e-10	-7.166570e+00	-1.180050e+01
2.690000e-06	-1.086667e-06	-2.662793e-10	-7.513945e+00	-1.847979e+01
2.700000e-06	-1.136474e-06	-3.724789e-10	-7.858347e+00	-2.539078e+01
2.710000e-06	-1.185887e-06	-4.817695e-10	-8.200018e+00	-3.253397e+01
2.720000e-06	-1.234844e-06	-5.934692e-10	-8.538542e+00	-3.989618e+01
2.730000e-06	-1.283217e-06	-7.086502e-10	-8.873025e+00	-4.743847e+01
2.740000e-06	-1.330875e-06	-8.274134e-10	-9.202563e+00	-5.510028e+01
2.750000e-06	-1.377778e-06	-9.470885e-10	-9.526882e+00	-6.281842e+01
2.760000e-06	-1.424058e-06	-1.064770e-09	-9.846896e+00	-7.054604e+01
2.770000e-06	-1.469950e-06	-1.182002e-09	-1.016422e+01	-7.825515e+01
2.780000e-06	-1.515489e-06	-1.298922e-09	-1.047911e+01	-8.591867e+01
2.790000e-06	-1.560597e-06	-1.416462e-09	-1.079102e+01	-9.348563e+01
2.800000e-06	-1.605203e-06	-1.530578e-09	-1.109945e+01	-1.008709e+02
2.810000e-06	-1.649239e-06	-1.639660e-09	-1.140395e+01	-1.079724e+02
2.820000e-06	-1.692767e-06	-1.744343e-09	-1.170493e+01	-1.147077e+02
2.830000e-06	-1.735897e-06	-1.843156e-09	-1.200316e+01	-1.210478e+02
2.840000e-06	-1.778551e-06	-1.935973e-09	-1.229810e+01	-1.270224e+02
2.850000e-06	-1.820628e-06	-2.022193e-09	-1.258905e+01	-1.326933e+02
2.860000e-06	-1.862113e-06	-2.101012e-09	-1.287590e+01	-1.381124e+02
2.870000e-06	-1.902914e-06	-2.176225e-09	-1.315803e+01	-1.432916e+02
2.880000e-06	-1.943033e-06	-2.251385e-09	-1.343544e+01	-1.482037e+02
2.890000e-06	-1.982621e-06	-2.325515e-09	-1.370917e+01	-1.528110e+02
2.900000e-06	-2.021663e-06	-2.396623e-09	-1.397914e+01	-1.570970e+02
2.910000e-06	-2.059959e-06	-2.461991e-09	-1.424394e+01	-1.610804e+02
2.920000e-06	-2.097263e-06	-2.522545e-09	-1.450189e+01	-1.648007e+02
2.930000e-06	-2.133534e-06	-2.578940e-09	-1.475269e+01	-1.682924e+02
2.940000e-06	-2.169052e-06	-2.629587e-09	-1.499828e+01	-1.715669e+02
