# Temperatura_=_22.2
# Concentracion g/m^3_=_15500.0
# C_Vs_to_Am_M_A/Vsm_=_65563218390.804596
# pendiente_HvsI_1/m_=_3716.3
# ordenada_HvsI_A/m_=_1297.0
# frecuencia_Hz_=_300993.526394247

Tiempo_(s)	Campo_(V.s)	Magnetizacion_(V.s)	Campo_(kA/m)	Magnetizacion_(A/m)
0.000000e+00	-2.860732e-06	-3.251701e-09	-1.978239e+01	-2.117510e+02
1.000000e-08	-2.859837e-06	-3.253663e-09	-1.977620e+01	-2.118004e+02
2.000000e-08	-2.857892e-06	-3.253116e-09	-1.976275e+01	-2.117694e+02
3.000000e-08	-2.854654e-06	-3.249255e-09	-1.974035e+01	-2.115653e+02
4.000000e-08	-2.850412e-06	-3.244385e-09	-1.971102e+01	-2.111889e+02
5.000000e-08	-2.845414e-06	-3.238751e-09	-1.967646e+01	-2.107507e+02
6.000000e-08	-2.839568e-06	-3.230215e-09	-1.963604e+01	-2.104025e+02
7.000000e-08	-2.832730e-06	-3.229029e-09	-1.958875e+01	-2.102251e+02
8.000000e-08	-2.824890e-06	-3.257887e-09	-1.953453e+01	-2.101541e+02
9.000000e-08	-2.815895e-06	-3.288300e-09	-1.947233e+01	-2.100052e+02
1.000000e-07	-2.805427e-06	-3.234120e-09	-1.939994e+01	-2.095945e+02
1.100000e-07	-2.793657e-06	-3.132149e-09	-1.931855e+01	-2.088753e+02
1.200000e-07	-2.781133e-06	-3.142220e-09	-1.923195e+01	-2.079933e+02
1.300000e-07	-2.767870e-06	-3.243844e-09	-1.914024e+01	-2.072102e+02
1.400000e-07	-2.753595e-06	-3.204621e-09	-1.904152e+01	-2.067392e+02
1.500000e-07	-2.738244e-06	-3.123027e-09	-1.893536e+01	-2.065982e+02
1.600000e-07	-2.721691e-06	-3.213275e-09	-1.882090e+01	-2.065855e+02
1.700000e-07	-2.703885e-06	-3.201918e-09	-1.869777e+01	-2.064016e+02
1.800000e-07	-2.685192e-06	-3.070597e-09	-1.856850e+01	-2.058382e+02
1.900000e-07	-2.665854e-06	-3.109591e-09	-1.843477e+01	-2.049099e+02
2.000000e-07	-2.645670e-06	-3.145103e-09	-1.829520e+01	-2.038376e+02
2.100000e-07	-2.624559e-06	-3.030714e-09	-1.814922e+01	-2.028947e+02
2.200000e-07	-2.602639e-06	-3.058317e-09	-1.799764e+01	-2.022221e+02
2.300000e-07	-2.579813e-06	-3.184179e-09	-1.783979e+01	-2.017376e+02
2.400000e-07	-2.555999e-06	-3.095504e-09	-1.767511e+01	-2.012015e+02
2.500000e-07	-2.531416e-06	-2.985796e-09	-1.750512e+01	-2.003886e+02
2.600000e-07	-2.506062e-06	-3.031638e-09	-1.732979e+01	-1.992449e+02
2.700000e-07	-2.479602e-06	-3.028870e-09	-1.714682e+01	-1.979203e+02
2.800000e-07	-2.451966e-06	-2.983772e-09	-1.695571e+01	-1.966586e+02
2.900000e-07	-2.423413e-06	-2.980112e-09	-1.675826e+01	-1.956241e+02
3.000000e-07	-2.394039e-06	-2.957668e-09	-1.655514e+01	-1.947910e+02
3.100000e-07	-2.363923e-06	-2.965401e-09	-1.634688e+01	-1.939694e+02
3.200000e-07	-2.333134e-06	-2.962409e-09	-1.613397e+01	-1.929461e+02
3.300000e-07	-2.301511e-06	-2.900624e-09	-1.591529e+01	-1.916378e+02
3.400000e-07	-2.269173e-06	-2.862856e-09	-1.569167e+01	-1.901462e+02
3.500000e-07	-2.236305e-06	-2.856694e-09	-1.546438e+01	-1.886810e+02
3.600000e-07	-2.202599e-06	-2.857413e-09	-1.523130e+01	-1.874082e+02
3.700000e-07	-2.167643e-06	-2.855926e-09	-1.498957e+01	-1.863334e+02
3.800000e-07	-2.131626e-06	-2.816991e-09	-1.474051e+01	-1.853004e+02
3.900000e-07	-2.095045e-06	-2.781720e-09	-1.448755e+01	-1.841023e+02
4.000000e-07	-2.057930e-06	-2.792367e-09	-1.423089e+01	-1.826227e+02
4.100000e-07	-2.020041e-06	-2.765099e-09	-1.396888e+01	-1.809084e+02
4.200000e-07	-1.981350e-06	-2.702863e-09	-1.370133e+01	-1.791277e+02
4.300000e-07	-1.941934e-06	-2.681168e-09	-1.342876e+01	-1.774505e+02
4.400000e-07	-1.901870e-06	-2.689385e-09	-1.315171e+01	-1.759361e+02
4.500000e-07	-1.861381e-06	-2.674101e-09	-1.287172e+01	-1.745054e+02
4.600000e-07	-1.820494e-06	-2.632695e-09	-1.258899e+01	-1.730079e+02
4.700000e-07	-1.778821e-06	-2.594363e-09	-1.230081e+01	-1.713285e+02
4.800000e-07	-1.736080e-06	-2.569439e-09	-1.200525e+01	-1.694582e+02
4.900000e-07	-1.692373e-06	-2.552553e-09	-1.170301e+01	-1.674840e+02
5.000000e-07	-1.648069e-06	-2.526269e-09	-1.139664e+01	-1.655151e+02
5.100000e-07	-1.603391e-06	-2.485964e-09	-1.108769e+01	-1.636055e+02
5.200000e-07	-1.558238e-06	-2.452666e-09	-1.077545e+01	-1.617268e+02
5.300000e-07	-1.512513e-06	-2.437190e-09	-1.045925e+01	-1.598042e+02
5.400000e-07	-1.466244e-06	-2.405204e-09	-1.013930e+01	-1.577803e+02
5.500000e-07	-1.419482e-06	-2.354022e-09	-9.815926e+00	-1.556569e+02
5.600000e-07	-1.372190e-06	-2.315255e-09	-9.488897e+00	-1.534846e+02
5.700000e-07	-1.324356e-06	-2.296514e-09	-9.158119e+00	-1.513161e+02
5.800000e-07	-1.276099e-06	-2.277979e-09	-8.824415e+00	-1.491607e+02
5.900000e-07	-1.227558e-06	-2.238947e-09	-8.488747e+00	-1.469774e+02
6.000000e-07	-1.178654e-06	-2.189720e-09	-8.150570e+00	-1.447073e+02
6.100000e-07	-1.129164e-06	-2.149445e-09	-7.808337e+00	-1.423207e+02
6.200000e-07	-1.079014e-06	-2.119818e-09	-7.461543e+00	-1.398394e+02
6.300000e-07	-1.028175e-06	-2.082460e-09	-7.109983e+00	-1.373211e+02
6.400000e-07	-9.766872e-07	-2.034163e-09	-6.753937e+00	-1.348174e+02
6.500000e-07	-9.247281e-07	-1.992569e-09	-6.394632e+00	-1.323378e+02
6.600000e-07	-8.724312e-07	-1.965673e-09	-6.032991e+00	-1.298437e+02
6.700000e-07	-8.199353e-07	-1.934182e-09	-5.669974e+00	-1.272749e+02
6.800000e-07	-7.672597e-07	-1.885795e-09	-5.305715e+00	-1.245865e+02
6.900000e-07	-7.142951e-07	-1.836103e-09	-4.939457e+00	-1.217731e+02
7.000000e-07	-6.610070e-07	-1.795080e-09	-4.570962e+00	-1.188658e+02
7.100000e-07	-6.074418e-07	-1.756456e-09	-4.200551e+00	-1.159100e+02
7.200000e-07	-5.536717e-07	-1.707209e-09	-3.828722e+00	-1.129409e+02
7.300000e-07	-4.996981e-07	-1.652612e-09	-3.455487e+00	-1.099703e+02
7.400000e-07	-4.454999e-07	-1.605087e-09	-3.080698e+00	-1.069880e+02
7.500000e-07	-3.911520e-07	-1.564364e-09	-2.704874e+00	-1.039710e+02
7.600000e-07	-3.367288e-07	-1.520310e-09	-2.328530e+00	-1.008915e+02
7.700000e-07	-2.822374e-07	-1.467137e-09	-1.951714e+00	-9.772283e+01
7.800000e-07	-2.276899e-07	-1.413953e-09	-1.574510e+00	-9.444452e+01
7.900000e-07	-1.730565e-07	-1.365272e-09	-1.196712e+00	-9.104844e+01
8.000000e-07	-1.183675e-07	-1.313588e-09	-8.185291e-01	-8.754349e+01
8.100000e-07	-6.363922e-08	-1.253519e-09	-4.400747e-01	-8.395315e+01
8.200000e-07	-8.870554e-09	-1.192885e-09	-6.134120e-02	-8.030442e+01
8.300000e-07	4.586771e-08	-1.138842e-09	3.171821e-01	-7.661329e+01
8.400000e-07	1.005750e-07	-1.087150e-09	6.954908e-01	-7.287635e+01
8.500000e-07	1.552292e-07	-1.030265e-09	1.073433e+00	-6.907480e+01
8.600000e-07	2.098081e-07	-9.679356e-10	1.450854e+00	-6.518760e+01
8.700000e-07	2.643087e-07	-9.067674e-10	1.827734e+00	-6.120318e+01
8.800000e-07	3.187447e-07	-8.468158e-10	2.204167e+00	-5.711995e+01
8.900000e-07	3.731035e-07	-7.822337e-10	2.580066e+00	-5.293547e+01
9.000000e-07	4.273731e-07	-7.120486e-10	2.955349e+00	-4.863466e+01
9.100000e-07	4.815078e-07	-6.442443e-10	3.329698e+00	-4.418961e+01
9.200000e-07	5.354573e-07	-5.793348e-10	3.702767e+00	-3.957450e+01
9.300000e-07	5.892301e-07	-5.095269e-10	4.074614e+00	-3.478575e+01
9.400000e-07	6.427960e-07	-4.324737e-10	4.445029e+00	-2.985007e+01
9.500000e-07	6.960844e-07	-3.531441e-10	4.813527e+00	-2.480999e+01
9.600000e-07	7.490817e-07	-2.764720e-10	5.180011e+00	-1.969246e+01
9.700000e-07	8.018336e-07	-2.000032e-10	5.544798e+00	-1.448090e+01
9.800000e-07	8.542989e-07	-1.171646e-10	5.907604e+00	-9.111523e+00
9.900000e-07	9.064363e-07	-2.736643e-11	6.268142e+00	-3.500181e+00
1.000000e-06	9.581800e-07	6.405541e-11	6.625957e+00	2.414739e+00
1.010000e-06	1.009390e-06	1.566489e-10	6.980079e+00	8.639614e+00
1.020000e-06	1.060025e-06	2.545761e-10	7.330227e+00	1.512364e+01
1.030000e-06	1.110075e-06	3.584728e-10	7.676334e+00	2.178877e+01
1.040000e-06	1.159521e-06	4.631093e-10	8.018262e+00	2.857271e+01
1.050000e-06	1.208444e-06	5.652616e-10	8.356570e+00	3.545886e+01
1.060000e-06	1.257030e-06	6.693530e-10	8.692546e+00	4.247655e+01
1.070000e-06	1.305384e-06	7.814451e-10	9.026925e+00	4.967361e+01
1.080000e-06	1.353366e-06	8.976972e-10	9.358725e+00	5.707861e+01
1.090000e-06	1.400849e-06	1.012500e-09	9.687079e+00	6.467298e+01
1.100000e-06	1.447807e-06	1.127845e-09	1.001180e+01	7.238504e+01
1.110000e-06	1.494218e-06	1.245697e-09	1.033274e+01	8.010485e+01
1.120000e-06	1.540069e-06	1.362280e-09	1.064981e+01	8.771076e+01
1.130000e-06	1.585400e-06	1.473243e-09	1.096328e+01	9.509709e+01
1.140000e-06	1.630286e-06	1.577906e-09	1.127367e+01	1.021949e+02
1.150000e-06	1.674798e-06	1.678407e-09	1.158148e+01	1.089811e+02
1.160000e-06	1.718906e-06	1.777515e-09	1.188649e+01	1.154731e+02
1.170000e-06	1.762339e-06	1.873496e-09	1.218684e+01	1.217095e+02
1.180000e-06	1.804806e-06	1.963893e-09	1.248050e+01	1.277210e+02
1.190000e-06	1.846330e-06	2.050956e-09	1.276765e+01	1.335075e+02
1.200000e-06	1.887161e-06	2.135633e-09	1.305000e+01	1.390309e+02
1.210000e-06	1.927469e-06	2.215503e-09	1.332873e+01	1.442330e+02
1.220000e-06	1.967193e-06	2.287797e-09	1.360343e+01	1.490699e+02
1.230000e-06	2.006247e-06	2.353045e-09	1.387349e+01	1.535413e+02
1.240000e-06	2.044651e-06	2.414116e-09	1.413906e+01	1.576968e+02
1.250000e-06	2.082346e-06	2.471726e-09	1.439973e+01	1.616110e+02
1.260000e-06	2.119341e-06	2.525221e-09	1.465556e+01	1.653434e+02
1.270000e-06	2.155794e-06	2.575588e-09	1.490764e+01	1.689072e+02
1.280000e-06	2.191616e-06	2.625920e-09	1.515535e+01	1.722695e+02
1.290000e-06	2.226417e-06	2.673936e-09	1.539601e+01	1.753812e+02
1.300000e-06	2.260113e-06	2.715742e-09	1.562902e+01	1.782184e+02
1.310000e-06	2.292961e-06	2.751238e-09	1.585616e+01	1.808050e+02
1.320000e-06	2.325139e-06	2.784654e-09	1.607868e+01	1.832029e+02
1.330000e-06	2.356595e-06	2.818298e-09	1.629620e+01	1.854763e+02
1.340000e-06	2.387228e-06	2.850113e-09	1.650804e+01	1.876564e+02
1.350000e-06	2.417080e-06	2.879670e-09	1.671447e+01	1.897304e+02
1.360000e-06	2.446187e-06	2.907127e-09	1.691574e+01	1.916600e+02
1.370000e-06	2.474633e-06	2.933634e-09	1.711245e+01	1.934171e+02
1.380000e-06	2.502286e-06	2.958349e-09	1.730368e+01	1.950080e+02
1.390000e-06	2.528753e-06	2.979777e-09	1.748670e+01	1.964739e+02
1.400000e-06	2.554030e-06	2.998915e-09	1.766150e+01	1.978670e+02
1.410000e-06	2.578367e-06	3.018159e-09	1.782979e+01	1.992227e+02
1.420000e-06	2.601847e-06	3.036968e-09	1.799216e+01	2.005440e+02
1.430000e-06	2.624457e-06	3.053736e-09	1.814851e+01	2.018079e+02
1.440000e-06	2.646185e-06	3.070459e-09	1.829876e+01	2.029825e+02
1.450000e-06	2.667099e-06	3.088900e-09	1.844339e+01	2.040452e+02
1.460000e-06	2.687255e-06	3.105590e-09	1.858276e+01	2.049900e+02
1.470000e-06	2.706508e-06	3.118268e-09	1.871591e+01	2.058269e+02
1.480000e-06	2.724703e-06	3.130171e-09	1.884173e+01	2.065783e+02
1.490000e-06	2.741983e-06	3.142387e-09	1.896122e+01	2.072753e+02
1.500000e-06	2.758315e-06	3.153787e-09	1.907416e+01	2.079511e+02
1.510000e-06	2.773497e-06	3.163778e-09	1.917914e+01	2.086289e+02
1.520000e-06	2.787605e-06	3.172744e-09	1.927670e+01	2.093070e+02
1.530000e-06	2.800716e-06	3.182217e-09	1.936737e+01	2.099535e+02
1.540000e-06	2.812760e-06	3.192058e-09	1.945065e+01	2.105189e+02
1.550000e-06	2.823531e-06	3.199221e-09	1.952514e+01	2.109658e+02
1.560000e-06	2.833019e-06	3.204606e-09	1.959074e+01	2.112969e+02
1.570000e-06	2.841508e-06	3.212067e-09	1.964945e+01	2.115600e+02
1.580000e-06	2.849068e-06	3.221025e-09	1.970173e+01	2.118205e+02
1.590000e-06	2.855626e-06	3.228237e-09	1.974708e+01	2.121160e+02
1.600000e-06	2.861228e-06	3.231552e-09	1.978582e+01	2.124262e+02
1.610000e-06	2.865989e-06	3.231680e-09	1.981874e+01	2.126837e+02
1.620000e-06	2.869877e-06	3.232610e-09	1.984563e+01	2.128218e+02
1.630000e-06	2.872626e-06	3.235767e-09	1.986463e+01	2.128281e+02
1.640000e-06	2.874143e-06	3.238497e-09	1.987513e+01	2.127607e+02
1.650000e-06	2.874631e-06	3.240578e-09	1.987850e+01	2.127091e+02
1.660000e-06	2.874229e-06	3.241736e-09	1.987572e+01	2.127255e+02
1.670000e-06	2.872949e-06	3.239823e-09	1.986687e+01	2.127769e+02
1.680000e-06	2.870766e-06	3.235665e-09	1.985177e+01	2.127602e+02
1.690000e-06	2.867764e-06	3.231228e-09	1.983101e+01	2.125770e+02
1.700000e-06	2.864060e-06	3.227350e-09	1.980540e+01	2.122156e+02
1.710000e-06	2.859364e-06	3.227268e-09	1.977293e+01	2.117769e+02
1.720000e-06	2.853393e-06	3.233641e-09	1.973163e+01	2.114133e+02
1.730000e-06	2.846408e-06	3.221459e-09	1.968333e+01	2.112182e+02
1.740000e-06	2.838595e-06	3.170111e-09	1.962930e+01	2.111435e+02
1.750000e-06	2.829535e-06	3.138842e-09	1.956665e+01	2.110132e+02
1.760000e-06	2.818842e-06	3.215358e-09	1.949271e+01	2.106364e+02
1.770000e-06	2.807057e-06	3.282677e-09	1.941122e+01	2.099468e+02
1.780000e-06	2.795112e-06	3.192199e-09	1.932861e+01	2.090708e+02
1.790000e-06	2.782634e-06	3.127495e-09	1.924233e+01	2.082648e+02
1.800000e-06	2.768466e-06	3.191477e-09	1.914435e+01	2.077556e+02
1.810000e-06	2.752868e-06	3.168174e-09	1.903649e+01	2.075858e+02
1.820000e-06	2.736779e-06	3.065380e-09	1.892523e+01	2.075738e+02
1.830000e-06	2.719830e-06	3.146798e-09	1.880803e+01	2.074216e+02
1.840000e-06	2.701506e-06	3.234169e-09	1.868131e+01	2.069028e+02
1.850000e-06	2.682355e-06	3.094514e-09	1.854889e+01	2.060060e+02
1.860000e-06	2.662494e-06	3.089941e-09	1.841154e+01	2.049356e+02
1.870000e-06	2.641395e-06	3.203570e-09	1.826564e+01	2.039688e+02
1.880000e-06	2.619153e-06	3.058814e-09	1.811183e+01	2.032674e+02
1.890000e-06	2.596028e-06	2.976121e-09	1.795192e+01	2.027729e+02
1.900000e-06	2.571896e-06	3.120067e-09	1.778504e+01	2.022553e+02
1.910000e-06	2.546929e-06	3.108767e-09	1.761239e+01	2.014788e+02
1.920000e-06	2.521261e-06	3.018464e-09	1.743490e+01	2.003666e+02
1.930000e-06	2.494692e-06	3.036166e-09	1.725116e+01	1.990503e+02
1.940000e-06	2.467425e-06	3.025366e-09	1.706261e+01	1.977715e+02
1.950000e-06	2.439434e-06	3.005270e-09	1.686905e+01	1.967105e+02
1.960000e-06	2.410123e-06	2.996081e-09	1.666636e+01	1.958632e+02
1.970000e-06	2.379616e-06	2.926606e-09	1.645540e+01	1.950518e+02
1.980000e-06	2.348376e-06	2.937963e-09	1.623937e+01	1.940576e+02
1.990000e-06	2.316424e-06	2.976079e-09	1.601842e+01	1.927783e+02
2.000000e-06	2.283727e-06	2.919130e-09	1.579231e+01	1.912972e+02
2.010000e-06	2.250186e-06	2.900440e-09	1.556037e+01	1.898195e+02
2.020000e-06	2.215852e-06	2.879609e-09	1.532295e+01	1.885228e+02
2.030000e-06	2.180941e-06	2.837732e-09	1.508153e+01	1.874323e+02
2.040000e-06	2.145437e-06	2.856047e-09	1.483602e+01	1.864053e+02
2.050000e-06	2.109184e-06	2.822204e-09	1.458532e+01	1.852333e+02
2.060000e-06	2.071946e-06	2.768427e-09	1.432782e+01	1.837849e+02
2.070000e-06	2.033626e-06	2.788625e-09	1.406283e+01	1.820892e+02
2.080000e-06	1.994543e-06	2.772160e-09	1.379256e+01	1.803067e+02
2.090000e-06	1.954938e-06	2.724835e-09	1.351869e+01	1.786132e+02
2.100000e-06	1.914718e-06	2.690729e-09	1.324056e+01	1.770832e+02
2.110000e-06	1.873844e-06	2.661666e-09	1.295791e+01	1.756507e+02
2.120000e-06	1.832407e-06	2.660707e-09	1.267136e+01	1.741675e+02
2.130000e-06	1.790371e-06	2.641430e-09	1.238068e+01	1.725104e+02
2.140000e-06	1.747687e-06	2.601770e-09	1.208552e+01	1.706579e+02
2.150000e-06	1.704520e-06	2.571220e-09	1.178701e+01	1.686895e+02
2.160000e-06	1.661026e-06	2.539061e-09	1.148624e+01	1.667163e+02
2.170000e-06	1.616951e-06	2.517583e-09	1.118146e+01	1.648006e+02
2.180000e-06	1.572117e-06	2.485469e-09	1.087143e+01	1.629221e+02
2.190000e-06	1.526650e-06	2.446277e-09	1.055701e+01	1.610080e+02
2.200000e-06	1.480706e-06	2.429655e-09	1.023930e+01	1.589964e+02
2.210000e-06	1.434372e-06	2.406587e-09	9.918895e+00	1.568820e+02
2.220000e-06	1.387602e-06	2.369792e-09	9.595474e+00	1.547123e+02
2.230000e-06	1.340232e-06	2.325955e-09	9.267904e+00	1.525422e+02
2.240000e-06	1.292208e-06	2.282138e-09	8.935812e+00	1.503869e+02
2.250000e-06	1.243646e-06	2.260846e-09	8.599996e+00	1.482097e+02
2.260000e-06	1.194635e-06	2.234809e-09	8.261075e+00	1.459515e+02
2.270000e-06	1.145310e-06	2.193506e-09	7.919988e+00	1.435774e+02
2.280000e-06	1.095578e-06	2.154579e-09	7.576084e+00	1.411041e+02
2.290000e-06	1.045295e-06	2.119044e-09	7.228368e+00	1.385871e+02
2.300000e-06	9.945538e-07	2.089643e-09	6.877487e+00	1.360807e+02
2.310000e-06	9.434966e-07	2.047564e-09	6.524419e+00	1.335999e+02
2.320000e-06	8.921859e-07	1.998507e-09	6.169598e+00	1.311105e+02
2.330000e-06	8.406481e-07	1.962531e-09	5.813206e+00	1.285526e+02
2.340000e-06	7.888170e-07	1.929980e-09	5.454787e+00	1.258783e+02
2.350000e-06	7.365325e-07	1.889241e-09	5.093231e+00	1.230776e+02
2.360000e-06	6.837683e-07	1.837617e-09	4.728360e+00	1.201784e+02
2.370000e-06	6.305704e-07	1.788757e-09	4.360488e+00	1.172261e+02
2.380000e-06	5.769255e-07	1.750553e-09	3.989526e+00	1.142577e+02
2.390000e-06	5.229274e-07	1.709320e-09	3.616120e+00	1.112877e+02
2.400000e-06	4.686506e-07	1.661605e-09	3.240788e+00	1.083079e+02
2.410000e-06	4.141565e-07	1.613399e-09	2.863954e+00	1.052961e+02
2.420000e-06	3.595059e-07	1.569220e-09	2.486037e+00	1.022249e+02
2.430000e-06	3.047013e-07	1.526294e-09	2.107055e+00	9.906720e+01
2.440000e-06	2.497597e-07	1.474862e-09	1.727125e+00	9.580155e+01
2.450000e-06	1.947252e-07	1.417673e-09	1.346553e+00	9.241824e+01
2.460000e-06	1.396802e-07	1.363243e-09	9.659096e-01	8.892428e+01
2.470000e-06	8.466256e-08	1.313569e-09	5.854542e-01	8.534200e+01
2.480000e-06	2.963536e-08	1.261926e-09	2.049329e-01	8.169873e+01
2.490000e-06	-2.542940e-08	1.203111e-09	-1.758481e-01	7.801221e+01
2.500000e-06	-8.049385e-08	1.144718e-09	-5.566270e-01	7.428116e+01
2.510000e-06	-1.355298e-07	1.089211e-09	-9.372088e-01	7.048788e+01
2.520000e-06	-1.905293e-07	1.030451e-09	-1.317538e+00	6.661089e+01
2.530000e-06	-2.454952e-07	9.669367e-10	-1.697636e+00	6.263734e+01
2.540000e-06	-3.004071e-07	9.027448e-10	-2.077360e+00	5.856494e+01
2.550000e-06	-3.551917e-07	8.420558e-10	-2.456203e+00	5.439201e+01
2.560000e-06	-4.098317e-07	7.803515e-10	-2.834047e+00	5.010512e+01
2.570000e-06	-4.642988e-07	7.112244e-10	-3.210695e+00	4.567723e+01
2.580000e-06	-5.185252e-07	6.375251e-10	-3.585679e+00	4.108131e+01
2.590000e-06	-5.724131e-07	5.647262e-10	-3.958322e+00	3.631064e+01
2.600000e-06	-6.259441e-07	4.914376e-10	-4.328496e+00	3.138898e+01
2.610000e-06	-6.790597e-07	4.156816e-10	-4.695799e+00	2.635850e+01
2.620000e-06	-7.316553e-07	3.365845e-10	-5.059505e+00	2.124941e+01
2.630000e-06	-7.838300e-07	2.553311e-10	-5.420300e+00	1.605053e+01
2.640000e-06	-8.357198e-07	1.744476e-10	-5.779126e+00	1.070233e+01
2.650000e-06	-8.873511e-07	9.277937e-11	-6.136164e+00	5.120878e+00
2.660000e-06	-9.386948e-07	4.144890e-12	-6.491214e+00	-7.598297e-01
2.670000e-06	-9.897821e-07	-9.163767e-11	-6.844490e+00	-6.952812e+00
2.680000e-06	-1.040543e-06	-1.888914e-10	-7.195512e+00	-1.341242e+01
2.690000e-06	-1.090888e-06	-2.870999e-10	-7.543650e+00	-2.006148e+01
2.700000e-06	-1.140782e-06	-3.912217e-10	-7.888679e+00	-2.683415e+01
2.710000e-06	-1.190192e-06	-5.006524e-10	-8.230353e+00	-3.370834e+01
2.720000e-06	-1.239118e-06	-6.089087e-10	-8.568688e+00	-4.070940e+01
2.730000e-06	-1.287415e-06	-7.161321e-10	-8.902664e+00	-4.788498e+01
2.740000e-06	-1.334950e-06	-8.266596e-10	-9.231377e+00	-5.526735e+01
2.750000e-06	-1.381738e-06	-9.420048e-10	-9.554925e+00	-6.284372e+01
2.760000e-06	-1.427904e-06	-1.058809e-09	-9.874170e+00	-7.054770e+01
2.770000e-06	-1.473683e-06	-1.175467e-09	-1.019074e+01	-7.827227e+01
2.780000e-06	-1.519138e-06	-1.292426e-09	-1.050506e+01	-8.589566e+01
2.790000e-06	-1.564233e-06	-1.408948e-09	-1.081690e+01	-9.330933e+01
2.800000e-06	-1.608795e-06	-1.521109e-09	-1.112506e+01	-1.004397e+02
2.810000e-06	-1.652727e-06	-1.625647e-09	-1.142885e+01	-1.072588e+02
2.820000e-06	-1.696179e-06	-1.724755e-09	-1.172933e+01	-1.137804e+02
2.830000e-06	-1.739229e-06	-1.821979e-09	-1.202703e+01	-1.200420e+02
2.840000e-06	-1.781844e-06	-1.916967e-09	-1.232171e+01	-1.260767e+02
2.850000e-06	-1.823870e-06	-2.005897e-09	-1.261233e+01	-1.318883e+02
2.860000e-06	-1.865250e-06	-2.087698e-09	-1.289848e+01	-1.374423e+02
2.870000e-06	-1.905995e-06	-2.166566e-09	-1.318024e+01	-1.426812e+02
2.880000e-06	-1.946113e-06	-2.243162e-09	-1.345766e+01	-1.475579e+02
2.890000e-06	-1.985665e-06	-2.314822e-09	-1.373117e+01	-1.520666e+02
2.900000e-06	-2.024668e-06	-2.381166e-09	-1.400088e+01	-1.562522e+02
2.910000e-06	-2.063001e-06	-2.444558e-09	-1.426596e+01	-1.601886e+02
2.920000e-06	-2.100327e-06	-2.506459e-09	-1.452407e+01	-1.639386e+02
2.930000e-06	-2.136562e-06	-2.564308e-09	-1.477465e+01	-1.675212e+02
2.940000e-06	-2.171990e-06	-2.616551e-09	-1.501963e+01	-1.709072e+02
