# Temperatura_=_44.1
# Concentracion g/m^3_=_18700.0
# C_Vs_to_Am_M_A/Vsm_=_65563218390.804596
# pendiente_HvsI_1/m_=_3716.3
# ordenada_HvsI_A/m_=_1297.0
# frecuencia_Hz_=_300774.50920600083

Tiempo_(s)	Campo_(V.s)	Magnetizacion_(V.s)	Campo_(kA/m)	Magnetizacion_(A/m)
0.000000e+00	-5.502069e-06	-2.656129e-08	-3.831471e+01	-1.740135e+03
1.000000e-08	-5.499771e-06	-2.656477e-08	-3.829871e+01	-1.739972e+03
2.000000e-08	-5.495530e-06	-2.656356e-08	-3.826917e+01	-1.739711e+03
3.000000e-08	-5.489610e-06	-2.655881e-08	-3.822795e+01	-1.739317e+03
4.000000e-08	-5.482086e-06	-2.654865e-08	-3.817555e+01	-1.738754e+03
5.000000e-08	-5.472898e-06	-2.653132e-08	-3.811158e+01	-1.737998e+03
6.000000e-08	-5.461671e-06	-2.650735e-08	-3.803339e+01	-1.737044e+03
7.000000e-08	-5.448338e-06	-2.647681e-08	-3.794054e+01	-1.735908e+03
8.000000e-08	-5.432905e-06	-2.648385e-08	-3.783307e+01	-1.734621e+03
9.000000e-08	-5.415111e-06	-2.651829e-08	-3.770916e+01	-1.733222e+03
1.000000e-07	-5.395118e-06	-2.649247e-08	-3.756993e+01	-1.731746e+03
1.100000e-07	-5.373176e-06	-2.645294e-08	-3.741714e+01	-1.730218e+03
1.200000e-07	-5.349522e-06	-2.639923e-08	-3.725242e+01	-1.728650e+03
1.300000e-07	-5.324428e-06	-2.628250e-08	-3.707767e+01	-1.727040e+03
1.400000e-07	-5.297710e-06	-2.633579e-08	-3.689162e+01	-1.725376e+03
1.500000e-07	-5.269118e-06	-2.633892e-08	-3.669251e+01	-1.723640e+03
1.600000e-07	-5.238918e-06	-2.619961e-08	-3.648221e+01	-1.721805e+03
1.700000e-07	-5.207129e-06	-2.627975e-08	-3.626084e+01	-1.719840e+03
1.800000e-07	-5.173267e-06	-2.625340e-08	-3.602504e+01	-1.717711e+03
1.900000e-07	-5.137495e-06	-2.613824e-08	-3.577593e+01	-1.715380e+03
2.000000e-07	-5.100143e-06	-2.616181e-08	-3.551583e+01	-1.712813e+03
2.100000e-07	-5.060990e-06	-2.604361e-08	-3.524318e+01	-1.709989e+03
2.200000e-07	-5.020019e-06	-2.597009e-08	-3.495786e+01	-1.706905e+03
2.300000e-07	-4.977127e-06	-2.601319e-08	-3.465918e+01	-1.703579e+03
2.400000e-07	-4.932269e-06	-2.594660e-08	-3.434680e+01	-1.700053e+03
2.500000e-07	-4.885658e-06	-2.590746e-08	-3.402222e+01	-1.696380e+03
2.600000e-07	-4.837211e-06	-2.583470e-08	-3.368485e+01	-1.692609e+03
2.700000e-07	-4.786764e-06	-2.573684e-08	-3.333355e+01	-1.688778e+03
2.800000e-07	-4.734255e-06	-2.569821e-08	-3.296789e+01	-1.684894e+03
2.900000e-07	-4.679868e-06	-2.563879e-08	-3.258916e+01	-1.680937e+03
3.000000e-07	-4.623857e-06	-2.556644e-08	-3.219911e+01	-1.676861e+03
3.100000e-07	-4.566156e-06	-2.551081e-08	-3.179730e+01	-1.672613e+03
3.200000e-07	-4.506663e-06	-2.548802e-08	-3.138301e+01	-1.668146e+03
3.300000e-07	-4.445565e-06	-2.540554e-08	-3.095754e+01	-1.663436e+03
3.400000e-07	-4.382966e-06	-2.529244e-08	-3.052163e+01	-1.658485e+03
3.500000e-07	-4.318889e-06	-2.521447e-08	-3.007541e+01	-1.653325e+03
3.600000e-07	-4.253357e-06	-2.512041e-08	-2.961907e+01	-1.647996e+03
3.700000e-07	-4.186193e-06	-2.505734e-08	-2.915135e+01	-1.642541e+03
3.800000e-07	-4.117288e-06	-2.499234e-08	-2.867152e+01	-1.636984e+03
3.900000e-07	-4.046921e-06	-2.489221e-08	-2.818151e+01	-1.631327e+03
4.000000e-07	-3.975311e-06	-2.481307e-08	-2.768284e+01	-1.625546e+03
4.100000e-07	-3.902352e-06	-2.472392e-08	-2.717478e+01	-1.619604e+03
4.200000e-07	-3.827856e-06	-2.462284e-08	-2.665601e+01	-1.613463e+03
4.300000e-07	-3.751735e-06	-2.450134e-08	-2.612592e+01	-1.607095e+03
4.400000e-07	-3.674082e-06	-2.439748e-08	-2.558518e+01	-1.600492e+03
4.500000e-07	-3.594941e-06	-2.431141e-08	-2.503406e+01	-1.593664e+03
4.600000e-07	-3.514294e-06	-2.421497e-08	-2.447246e+01	-1.586634e+03
4.700000e-07	-3.432330e-06	-2.410958e-08	-2.390169e+01	-1.579424e+03
4.800000e-07	-3.349229e-06	-2.398404e-08	-2.332300e+01	-1.572048e+03
4.900000e-07	-3.265054e-06	-2.386991e-08	-2.273683e+01	-1.564503e+03
5.000000e-07	-3.179902e-06	-2.375192e-08	-2.214386e+01	-1.556774e+03
5.100000e-07	-3.093828e-06	-2.362153e-08	-2.154446e+01	-1.548838e+03
5.200000e-07	-3.006818e-06	-2.348959e-08	-2.093856e+01	-1.540670e+03
5.300000e-07	-2.918818e-06	-2.336590e-08	-2.032575e+01	-1.532257e+03
5.400000e-07	-2.829831e-06	-2.324757e-08	-1.970607e+01	-1.523599e+03
5.500000e-07	-2.739723e-06	-2.311566e-08	-1.907858e+01	-1.514707e+03
5.600000e-07	-2.648409e-06	-2.296785e-08	-1.844270e+01	-1.505600e+03
5.700000e-07	-2.556110e-06	-2.281579e-08	-1.779996e+01	-1.496292e+03
5.800000e-07	-2.462996e-06	-2.267348e-08	-1.715154e+01	-1.486789e+03
5.900000e-07	-2.369074e-06	-2.252905e-08	-1.649750e+01	-1.477085e+03
6.000000e-07	-2.274332e-06	-2.237409e-08	-1.583774e+01	-1.467159e+03
6.100000e-07	-2.178809e-06	-2.221501e-08	-1.517256e+01	-1.456984e+03
6.200000e-07	-2.082558e-06	-2.205515e-08	-1.450229e+01	-1.446532e+03
6.300000e-07	-1.985568e-06	-2.189036e-08	-1.382688e+01	-1.435781e+03
6.400000e-07	-1.887759e-06	-2.171747e-08	-1.314577e+01	-1.424718e+03
6.500000e-07	-1.789110e-06	-2.153888e-08	-1.245881e+01	-1.413343e+03
6.600000e-07	-1.689695e-06	-2.136299e-08	-1.176652e+01	-1.401660e+03
6.700000e-07	-1.589642e-06	-2.119048e-08	-1.106977e+01	-1.389681e+03
6.800000e-07	-1.489086e-06	-2.100685e-08	-1.036953e+01	-1.377411e+03
6.900000e-07	-1.388023e-06	-2.080840e-08	-9.665763e+00	-1.364853e+03
7.000000e-07	-1.286470e-06	-2.060657e-08	-8.958579e+00	-1.352000e+03
7.100000e-07	-1.184530e-06	-2.040617e-08	-8.248703e+00	-1.338836e+03
7.200000e-07	-1.082242e-06	-2.020022e-08	-7.536402e+00	-1.325341e+03
7.300000e-07	-9.795372e-07	-1.998686e-08	-6.821195e+00	-1.311490e+03
7.400000e-07	-8.764431e-07	-1.976928e-08	-6.103279e+00	-1.297257e+03
7.500000e-07	-7.730330e-07	-1.955067e-08	-5.383163e+00	-1.282623e+03
7.600000e-07	-6.693322e-07	-1.932521e-08	-4.661023e+00	-1.267571e+03
7.700000e-07	-5.654503e-07	-1.908562e-08	-3.937621e+00	-1.252093e+03
7.800000e-07	-4.614531e-07	-1.883721e-08	-3.213417e+00	-1.236183e+03
7.900000e-07	-3.573284e-07	-1.858785e-08	-2.488325e+00	-1.219835e+03
8.000000e-07	-2.531076e-07	-1.833672e-08	-1.762563e+00	-1.203035e+03
8.100000e-07	-1.488350e-07	-1.807448e-08	-1.036441e+00	-1.185758e+03
8.200000e-07	-4.452413e-08	-1.780150e-08	-3.100523e-01	-1.167961e+03
8.300000e-07	5.982182e-08	-1.752323e-08	4.165807e-01	-1.149584e+03
8.400000e-07	1.641812e-07	-1.723906e-08	1.143307e+00	-1.130553e+03
8.500000e-07	2.684713e-07	-1.694111e-08	1.869551e+00	-1.110789e+03
8.600000e-07	3.726390e-07	-1.662426e-08	2.594943e+00	-1.090214e+03
8.700000e-07	4.766872e-07	-1.629309e-08	3.319503e+00	-1.068753e+03
8.800000e-07	5.806266e-07	-1.595180e-08	4.043305e+00	-1.046339e+03
8.900000e-07	6.844502e-07	-1.559675e-08	4.766300e+00	-1.022898e+03
9.000000e-07	7.880633e-07	-1.522058e-08	5.487830e+00	-9.983417e+02
9.100000e-07	8.914051e-07	-1.482521e-08	6.207470e+00	-9.725461e+02
9.200000e-07	9.944454e-07	-1.441086e-08	6.925011e+00	-9.453445e+02
9.300000e-07	1.097028e-06	-1.397322e-08	7.639365e+00	-9.165178e+02
9.400000e-07	1.199152e-06	-1.350479e-08	8.350523e+00	-8.857961e+02
9.500000e-07	1.300916e-06	-1.299833e-08	9.059181e+00	-8.528626e+02
9.600000e-07	1.402258e-06	-1.245350e-08	9.764891e+00	-8.173574e+02
9.700000e-07	1.503142e-06	-1.186647e-08	1.046742e+01	-7.788733e+02
9.800000e-07	1.603580e-06	-1.122632e-08	1.116684e+01	-7.369430e+02
9.900000e-07	1.703509e-06	-1.052083e-08	1.186271e+01	-6.910189e+02
1.000000e-06	1.802845e-06	-9.743314e-09	1.255446e+01	-6.404537e+02
1.010000e-06	1.901447e-06	-8.885110e-09	1.324109e+01	-5.844979e+02
1.020000e-06	1.999159e-06	-7.932118e-09	1.392153e+01	-5.223264e+02
1.030000e-06	2.095963e-06	-6.870202e-09	1.459564e+01	-4.531057e+02
1.040000e-06	2.192030e-06	-5.688525e-09	1.526462e+01	-3.761022e+02
1.050000e-06	2.287400e-06	-4.380597e-09	1.592875e+01	-2.908196e+02
1.060000e-06	2.381981e-06	-2.943291e-09	1.658738e+01	-1.971427e+02
1.070000e-06	2.475839e-06	-1.384475e-09	1.724098e+01	-9.545624e+01
1.080000e-06	2.568957e-06	2.808188e-10	1.788942e+01	1.329087e+01
1.090000e-06	2.661287e-06	2.029515e-09	1.853238e+01	1.275972e+02
1.100000e-06	2.752687e-06	3.830931e-09	1.916886e+01	2.455032e+02
1.110000e-06	2.842851e-06	5.650624e-09	1.979673e+01	3.647566e+02
1.120000e-06	2.931758e-06	7.453175e-09	2.041586e+01	4.830209e+02
1.130000e-06	3.019678e-06	9.202998e-09	2.102810e+01	5.980903e+02
1.140000e-06	3.106658e-06	1.087169e-08	2.163381e+01	7.080743e+02
1.150000e-06	3.192624e-06	1.243927e-08	2.223245e+01	8.115214e+02
1.160000e-06	3.277572e-06	1.389275e-08	2.282400e+01	9.074712e+02
1.170000e-06	3.361506e-06	1.522492e-08	2.340849e+01	9.954345e+02
1.180000e-06	3.444266e-06	1.643254e-08	2.398480e+01	1.075321e+03
1.190000e-06	3.525722e-06	1.751984e-08	2.455204e+01	1.147340e+03
1.200000e-06	3.605897e-06	1.849488e-08	2.511035e+01	1.211896e+03
1.210000e-06	3.684778e-06	1.936683e-08	2.565965e+01	1.269501e+03
1.220000e-06	3.762378e-06	2.013974e-08	2.620004e+01	1.320716e+03
1.230000e-06	3.838607e-06	2.082147e-08	2.673088e+01	1.366118e+03
1.240000e-06	3.913192e-06	2.142506e-08	2.725027e+01	1.406278e+03
1.250000e-06	3.986121e-06	2.196063e-08	2.775812e+01	1.441759e+03
1.260000e-06	4.057655e-06	2.243430e-08	2.825626e+01	1.473107e+03
1.270000e-06	4.127851e-06	2.285299e-08	2.874508e+01	1.500838e+03
1.280000e-06	4.196714e-06	2.322588e-08	2.922462e+01	1.525427e+03
1.290000e-06	4.264061e-06	2.355921e-08	2.969360e+01	1.547297e+03
1.300000e-06	4.329650e-06	2.385488e-08	3.015035e+01	1.566812e+03
1.310000e-06	4.393665e-06	2.411601e-08	3.059613e+01	1.584276e+03
1.320000e-06	4.456275e-06	2.434947e-08	3.103213e+01	1.599946e+03
1.330000e-06	4.517510e-06	2.456146e-08	3.145854e+01	1.614038e+03
1.340000e-06	4.577306e-06	2.475496e-08	3.187495e+01	1.626739e+03
1.350000e-06	4.635293e-06	2.493092e-08	3.227875e+01	1.638215e+03
1.360000e-06	4.691446e-06	2.509032e-08	3.266978e+01	1.648613e+03
1.370000e-06	4.746020e-06	2.523642e-08	3.304982e+01	1.658055e+03
1.380000e-06	4.798879e-06	2.537127e-08	3.341791e+01	1.666644e+03
1.390000e-06	4.849627e-06	2.549259e-08	3.377131e+01	1.674461e+03
1.400000e-06	4.898316e-06	2.559965e-08	3.411036e+01	1.681574e+03
1.410000e-06	4.945282e-06	2.569561e-08	3.443742e+01	1.688041e+03
1.420000e-06	4.990635e-06	2.578505e-08	3.475324e+01	1.693928e+03
1.430000e-06	5.034308e-06	2.586898e-08	3.505736e+01	1.699301e+03
1.440000e-06	5.076056e-06	2.594493e-08	3.534809e+01	1.704233e+03
1.450000e-06	5.115969e-06	2.601481e-08	3.562603e+01	1.708792e+03
1.460000e-06	5.154252e-06	2.608202e-08	3.589262e+01	1.713034e+03
1.470000e-06	5.190809e-06	2.614545e-08	3.614719e+01	1.716991e+03
1.480000e-06	5.225436e-06	2.620195e-08	3.638833e+01	1.720671e+03
1.490000e-06	5.258148e-06	2.625161e-08	3.661612e+01	1.724063e+03
1.500000e-06	5.289093e-06	2.629805e-08	3.683162e+01	1.727145e+03
1.510000e-06	5.318366e-06	2.634190e-08	3.703546e+01	1.729906e+03
1.520000e-06	5.345778e-06	2.638129e-08	3.722635e+01	1.732346e+03
1.530000e-06	5.371031e-06	2.641461e-08	3.740220e+01	1.734490e+03
1.540000e-06	5.394311e-06	2.644367e-08	3.756432e+01	1.736377e+03
1.550000e-06	5.415857e-06	2.647117e-08	3.771436e+01	1.738054e+03
1.560000e-06	5.435649e-06	2.649685e-08	3.785218e+01	1.739560e+03
1.570000e-06	5.453499e-06	2.651899e-08	3.797649e+01	1.740915e+03
1.580000e-06	5.469300e-06	2.653630e-08	3.808652e+01	1.742119e+03
1.590000e-06	5.483131e-06	2.655094e-08	3.818283e+01	1.743155e+03
1.600000e-06	5.494803e-06	2.656480e-08	3.826412e+01	1.744002e+03
1.610000e-06	5.504243e-06	2.657691e-08	3.832985e+01	1.744646e+03
1.620000e-06	5.511719e-06	2.658532e-08	3.838191e+01	1.745089e+03
1.630000e-06	5.517418e-06	2.659086e-08	3.842160e+01	1.745354e+03
1.640000e-06	5.521231e-06	2.659576e-08	3.844815e+01	1.745475e+03
1.650000e-06	5.522933e-06	2.660140e-08	3.846000e+01	1.745489e+03
1.660000e-06	5.522736e-06	2.660131e-08	3.845863e+01	1.745422e+03
1.670000e-06	5.520854e-06	2.659388e-08	3.844552e+01	1.745280e+03
1.680000e-06	5.517236e-06	2.658945e-08	3.842033e+01	1.745046e+03
1.690000e-06	5.511704e-06	2.658572e-08	3.838180e+01	1.744688e+03
1.700000e-06	5.504305e-06	2.657851e-08	3.833028e+01	1.744170e+03
1.710000e-06	5.495285e-06	2.656874e-08	3.826747e+01	1.743464e+03
1.720000e-06	5.484486e-06	2.656332e-08	3.819227e+01	1.742558e+03
1.730000e-06	5.471614e-06	2.656346e-08	3.810263e+01	1.741465e+03
1.740000e-06	5.456741e-06	2.649059e-08	3.799906e+01	1.740212e+03
1.750000e-06	5.439809e-06	2.643219e-08	3.788115e+01	1.738837e+03
1.760000e-06	5.420253e-06	2.642718e-08	3.774497e+01	1.737376e+03
1.770000e-06	5.398000e-06	2.641595e-08	3.759001e+01	1.735860e+03
1.780000e-06	5.373911e-06	2.650179e-08	3.742226e+01	1.734301e+03
1.790000e-06	5.348967e-06	2.644044e-08	3.724855e+01	1.732702e+03
1.800000e-06	5.323030e-06	2.630682e-08	3.706794e+01	1.731053e+03
1.810000e-06	5.294905e-06	2.640050e-08	3.687209e+01	1.729337e+03
1.820000e-06	5.264634e-06	2.632715e-08	3.666129e+01	1.727529e+03
1.830000e-06	5.232857e-06	2.626700e-08	3.644000e+01	1.725599e+03
1.840000e-06	5.199243e-06	2.636305e-08	3.620593e+01	1.723515e+03
1.850000e-06	5.163934e-06	2.621515e-08	3.596004e+01	1.721237e+03
1.860000e-06	5.126787e-06	2.621074e-08	3.570136e+01	1.718731e+03
1.870000e-06	5.087512e-06	2.627430e-08	3.542786e+01	1.715973e+03
1.880000e-06	5.046638e-06	2.609970e-08	3.514323e+01	1.712952e+03
1.890000e-06	5.004098e-06	2.609253e-08	3.484699e+01	1.709683e+03
1.900000e-06	4.959711e-06	2.601487e-08	3.453790e+01	1.706203e+03
1.910000e-06	4.913536e-06	2.592131e-08	3.421635e+01	1.702560e+03
1.920000e-06	4.865357e-06	2.598775e-08	3.388085e+01	1.698810e+03
1.930000e-06	4.815443e-06	2.585399e-08	3.353326e+01	1.694992e+03
1.940000e-06	4.763751e-06	2.580105e-08	3.317329e+01	1.691121e+03
1.950000e-06	4.709969e-06	2.576765e-08	3.279877e+01	1.687185e+03
1.960000e-06	4.654413e-06	2.566541e-08	3.241190e+01	1.683144e+03
1.970000e-06	4.597166e-06	2.560263e-08	3.201324e+01	1.678943e+03
1.980000e-06	4.538344e-06	2.548952e-08	3.160363e+01	1.674534e+03
1.990000e-06	4.477912e-06	2.548521e-08	3.118280e+01	1.669885e+03
2.000000e-06	4.415725e-06	2.541753e-08	3.074974e+01	1.664993e+03
2.010000e-06	4.352028e-06	2.533267e-08	3.030618e+01	1.659881e+03
2.020000e-06	4.286813e-06	2.526951e-08	2.985204e+01	1.654589e+03
2.030000e-06	4.220182e-06	2.512604e-08	2.938805e+01	1.649162e+03
2.040000e-06	4.151958e-06	2.507750e-08	2.891295e+01	1.643630e+03
2.050000e-06	4.081983e-06	2.497360e-08	2.842567e+01	1.637999e+03
2.060000e-06	4.010549e-06	2.487950e-08	2.792823e+01	1.632251e+03
2.070000e-06	3.937808e-06	2.481013e-08	2.742168e+01	1.626353e+03
2.080000e-06	3.863720e-06	2.471660e-08	2.690575e+01	1.620265e+03
2.090000e-06	3.787935e-06	2.465585e-08	2.637801e+01	1.613955e+03
2.100000e-06	3.710401e-06	2.452571e-08	2.583809e+01	1.607410e+03
2.110000e-06	3.631446e-06	2.441338e-08	2.528827e+01	1.600637e+03
2.120000e-06	3.551311e-06	2.429539e-08	2.473023e+01	1.593655e+03
2.130000e-06	3.470088e-06	2.418983e-08	2.416462e+01	1.586487e+03
2.140000e-06	3.387768e-06	2.409400e-08	2.359137e+01	1.579152e+03
2.150000e-06	3.304306e-06	2.397344e-08	2.301017e+01	1.571650e+03
2.160000e-06	3.219479e-06	2.387035e-08	2.241946e+01	1.563969e+03
2.170000e-06	3.133315e-06	2.374838e-08	2.181944e+01	1.556086e+03
2.180000e-06	3.046083e-06	2.362584e-08	2.121198e+01	1.547978e+03
2.190000e-06	2.957866e-06	2.348753e-08	2.059767e+01	1.539626e+03
2.200000e-06	2.868691e-06	2.334777e-08	1.997668e+01	1.531029e+03
2.210000e-06	2.778541e-06	2.321786e-08	1.934890e+01	1.522193e+03
2.220000e-06	2.687501e-06	2.309084e-08	1.871493e+01	1.513138e+03
2.230000e-06	2.595583e-06	2.295335e-08	1.807484e+01	1.503879e+03
2.240000e-06	2.502669e-06	2.280228e-08	1.742781e+01	1.494425e+03
2.250000e-06	2.408717e-06	2.265817e-08	1.677356e+01	1.484772e+03
2.260000e-06	2.313867e-06	2.250865e-08	1.611306e+01	1.474904e+03
2.270000e-06	2.218198e-06	2.236038e-08	1.544685e+01	1.464793e+03
2.280000e-06	2.121778e-06	2.220069e-08	1.477541e+01	1.454412e+03
2.290000e-06	2.024722e-06	2.203837e-08	1.409954e+01	1.443737e+03
2.300000e-06	1.926954e-06	2.187482e-08	1.341871e+01	1.432753e+03
2.310000e-06	1.828549e-06	2.170258e-08	1.273345e+01	1.421455e+03
2.320000e-06	1.729654e-06	2.152320e-08	1.204477e+01	1.409848e+03
2.330000e-06	1.630265e-06	2.133578e-08	1.135266e+01	1.397942e+03
2.340000e-06	1.530307e-06	2.115650e-08	1.065659e+01	1.385744e+03
2.350000e-06	1.429711e-06	2.097179e-08	9.956066e+00	1.373258e+03
2.360000e-06	1.328424e-06	2.077730e-08	9.250735e+00	1.360479e+03
2.370000e-06	1.226491e-06	2.057555e-08	8.540907e+00	1.347395e+03
2.380000e-06	1.124122e-06	2.037063e-08	7.828039e+00	1.333985e+03
2.390000e-06	1.021357e-06	2.016488e-08	7.112413e+00	1.320224e+03
2.400000e-06	9.181426e-07	1.994650e-08	6.393662e+00	1.306089e+03
2.410000e-06	8.145605e-07	1.972211e-08	5.672348e+00	1.291556e+03
2.420000e-06	7.107368e-07	1.949677e-08	4.949352e+00	1.276610e+03
2.430000e-06	6.067021e-07	1.926719e-08	4.224886e+00	1.261238e+03
2.440000e-06	5.024948e-07	1.902934e-08	3.499219e+00	1.245436e+03
2.450000e-06	3.981581e-07	1.878052e-08	2.772650e+00	1.229198e+03
2.460000e-06	2.937074e-07	1.852378e-08	2.045288e+00	1.212513e+03
2.470000e-06	1.891737e-07	1.826036e-08	1.317347e+00	1.195358e+03
2.480000e-06	8.458157e-08	1.798804e-08	5.890000e-01	1.177696e+03
2.490000e-06	-2.001038e-08	1.770532e-08	-1.393461e-01	1.159470e+03
2.500000e-06	-1.246221e-07	1.741462e-08	-8.678301e-01	1.140610e+03
2.510000e-06	-2.292033e-07	1.711781e-08	-1.596101e+00	1.121036e+03
2.520000e-06	-3.336407e-07	1.681323e-08	-2.323371e+00	1.100670e+03
2.530000e-06	-4.379314e-07	1.649352e-08	-3.049619e+00	1.079437e+03
2.540000e-06	-5.421258e-07	1.615401e-08	-3.775197e+00	1.057268e+03
2.550000e-06	-6.461553e-07	1.579742e-08	-4.499626e+00	1.034091e+03
2.560000e-06	-7.499015e-07	1.542571e-08	-5.222083e+00	1.009823e+03
2.570000e-06	-8.533903e-07	1.503765e-08	-5.942747e+00	9.843507e+02
2.580000e-06	-9.566395e-07	1.462888e-08	-6.661742e+00	9.575187e+02
2.590000e-06	-1.059499e-06	1.419672e-08	-7.378025e+00	9.291214e+02
2.600000e-06	-1.161909e-06	1.373857e-08	-8.091178e+00	8.989010e+02
2.610000e-06	-1.263905e-06	1.324856e-08	-8.801444e+00	8.665523e+02
2.620000e-06	-1.365307e-06	1.271801e-08	-9.507580e+00	8.317259e+02
2.630000e-06	-1.465988e-06	1.214305e-08	-1.020869e+01	7.940273e+02
2.640000e-06	-1.566001e-06	1.151987e-08	-1.090515e+01	7.530061e+02
2.650000e-06	-1.665412e-06	1.083912e-08	-1.159741e+01	7.081367e+02
2.660000e-06	-1.764278e-06	1.009105e-08	-1.228589e+01	6.587979e+02
2.670000e-06	-1.862636e-06	9.265380e-09	-1.297082e+01	6.042647e+02
2.680000e-06	-1.960473e-06	8.348836e-09	-1.365213e+01	5.437262e+02
2.690000e-06	-2.057656e-06	7.326633e-09	-1.432888e+01	4.763423e+02
2.700000e-06	-2.154084e-06	6.188588e-09	-1.500038e+01	4.013425e+02
2.710000e-06	-2.249797e-06	4.926617e-09	-1.566689e+01	3.181574e+02
2.720000e-06	-2.344893e-06	3.537074e-09	-1.632911e+01	2.265639e+02
2.730000e-06	-2.439333e-06	2.023477e-09	-1.698677e+01	1.268130e+02
2.740000e-06	-2.532836e-06	3.969299e-10	-1.763789e+01	1.971055e+01
2.750000e-06	-2.625198e-06	-1.322615e-09	-1.828107e+01	-9.337442e+01
2.760000e-06	-2.716453e-06	-3.106552e-09	-1.891654e+01	-2.105839e+02
2.770000e-06	-2.806749e-06	-4.922638e-09	-1.954534e+01	-3.297202e+02
2.780000e-06	-2.896060e-06	-6.737380e-09	-2.016727e+01	-4.484475e+02
2.790000e-06	-2.984271e-06	-8.515226e-09	-2.078154e+01	-5.645082e+02
2.800000e-06	-3.071536e-06	-1.022384e-08	-2.138923e+01	-6.759185e+02
2.810000e-06	-3.157884e-06	-1.183896e-08	-2.199053e+01	-7.811096e+02
2.820000e-06	-3.242998e-06	-1.334292e-08	-2.258324e+01	-8.789973e+02
2.830000e-06	-3.326741e-06	-1.472494e-08	-2.316640e+01	-9.689800e+02
2.840000e-06	-3.409336e-06	-1.598240e-08	-2.374157e+01	-1.050877e+03
2.850000e-06	-3.490861e-06	-1.711934e-08	-2.430928e+01	-1.124831e+03
2.860000e-06	-3.571246e-06	-1.814316e-08	-2.486906e+01	-1.191208e+03
2.870000e-06	-3.650486e-06	-1.905966e-08	-2.542086e+01	-1.250499e+03
2.880000e-06	-3.728292e-06	-1.987407e-08	-2.596268e+01	-1.303258e+03
2.890000e-06	-3.804396e-06	-2.059590e-08	-2.649264e+01	-1.350060e+03
2.900000e-06	-3.878989e-06	-2.123565e-08	-2.701209e+01	-1.391477e+03
2.910000e-06	-3.952234e-06	-2.180254e-08	-2.752214e+01	-1.428077e+03
2.920000e-06	-4.024108e-06	-2.230162e-08	-2.802265e+01	-1.460408e+03
2.930000e-06	-4.094582e-06	-2.273973e-08	-2.851340e+01	-1.488997e+03
2.940000e-06	-4.163404e-06	-2.312697e-08	-2.899266e+01	-1.514330e+03
