# Temperatura_=_87.01
# Concentracion g/m^3_=_18700.0
# C_Vs_to_Am_M_A/Vsm_=_65563218390.804596
# pendiente_HvsI_1/m_=_3716.3
# ordenada_HvsI_A/m_=_1297.0
# frecuencia_Hz_=_300779.4292886937

Tiempo_(s)	Campo_(V.s)	Magnetizacion_(V.s)	Campo_(kA/m)	Magnetizacion_(A/m)
0.000000e+00	-5.475362e-06	-2.712141e-08	-3.831152e+01	-1.777812e+03
1.000000e-08	-5.473349e-06	-2.712280e-08	-3.829743e+01	-1.777590e+03
2.000000e-08	-5.469362e-06	-2.711575e-08	-3.826953e+01	-1.777176e+03
3.000000e-08	-5.463675e-06	-2.710680e-08	-3.822974e+01	-1.776581e+03
4.000000e-08	-5.456390e-06	-2.709710e-08	-3.817877e+01	-1.775837e+03
5.000000e-08	-5.447469e-06	-2.708334e-08	-3.811635e+01	-1.774984e+03
6.000000e-08	-5.436537e-06	-2.706382e-08	-3.803985e+01	-1.774052e+03
7.000000e-08	-5.423555e-06	-2.703039e-08	-3.794902e+01	-1.773049e+03
8.000000e-08	-5.408543e-06	-2.701734e-08	-3.784398e+01	-1.771955e+03
9.000000e-08	-5.391104e-06	-2.708728e-08	-3.772195e+01	-1.770732e+03
1.000000e-07	-5.371381e-06	-2.708922e-08	-3.758396e+01	-1.769344e+03
1.100000e-07	-5.349740e-06	-2.701713e-08	-3.743253e+01	-1.767773e+03
1.200000e-07	-5.326339e-06	-2.697735e-08	-3.726879e+01	-1.766033e+03
1.300000e-07	-5.301577e-06	-2.682411e-08	-3.709553e+01	-1.764162e+03
1.400000e-07	-5.275348e-06	-2.683467e-08	-3.691200e+01	-1.762216e+03
1.500000e-07	-5.247140e-06	-2.695668e-08	-3.671463e+01	-1.760239e+03
1.600000e-07	-5.217179e-06	-2.673627e-08	-3.650499e+01	-1.758250e+03
1.700000e-07	-5.185711e-06	-2.676900e-08	-3.628481e+01	-1.756229e+03
1.800000e-07	-5.152325e-06	-2.688632e-08	-3.605120e+01	-1.754119e+03
1.900000e-07	-5.116906e-06	-2.668180e-08	-3.580337e+01	-1.751847e+03
2.000000e-07	-5.079919e-06	-2.671376e-08	-3.554458e+01	-1.749344e+03
2.100000e-07	-5.041266e-06	-2.666238e-08	-3.527411e+01	-1.746570e+03
2.200000e-07	-5.000828e-06	-2.649741e-08	-3.499117e+01	-1.743526e+03
2.300000e-07	-4.958484e-06	-2.657030e-08	-3.469488e+01	-1.740249e+03
2.400000e-07	-4.914091e-06	-2.653059e-08	-3.438426e+01	-1.736801e+03
2.500000e-07	-4.867921e-06	-2.646039e-08	-3.406120e+01	-1.733242e+03
2.600000e-07	-4.819965e-06	-2.641690e-08	-3.372566e+01	-1.729616e+03
2.700000e-07	-4.770047e-06	-2.629892e-08	-3.337637e+01	-1.725934e+03
2.800000e-07	-4.718049e-06	-2.628640e-08	-3.301254e+01	-1.722178e+03
2.900000e-07	-4.664134e-06	-2.622850e-08	-3.263529e+01	-1.718307e+03
3.000000e-07	-4.608607e-06	-2.613686e-08	-3.224677e+01	-1.714280e+03
3.100000e-07	-4.551504e-06	-2.608168e-08	-3.184721e+01	-1.710065e+03
3.200000e-07	-4.492573e-06	-2.604405e-08	-3.143487e+01	-1.705651e+03
3.300000e-07	-4.431973e-06	-2.599425e-08	-3.101084e+01	-1.701046e+03
3.400000e-07	-4.369910e-06	-2.586865e-08	-3.057658e+01	-1.696266e+03
3.500000e-07	-4.306337e-06	-2.580088e-08	-3.013176e+01	-1.691330e+03
3.600000e-07	-4.241332e-06	-2.572414e-08	-2.967691e+01	-1.686249e+03
3.700000e-07	-4.174685e-06	-2.564677e-08	-2.921058e+01	-1.681024e+03
3.800000e-07	-4.106274e-06	-2.559725e-08	-2.873190e+01	-1.675647e+03
3.900000e-07	-4.036363e-06	-2.548067e-08	-2.824274e+01	-1.670112e+03
4.000000e-07	-3.965201e-06	-2.539865e-08	-2.774481e+01	-1.664413e+03
4.100000e-07	-3.892872e-06	-2.531822e-08	-2.723872e+01	-1.658553e+03
4.200000e-07	-3.819138e-06	-2.522353e-08	-2.672279e+01	-1.652532e+03
4.300000e-07	-3.743670e-06	-2.511500e-08	-2.619474e+01	-1.646351e+03
4.400000e-07	-3.666547e-06	-2.500766e-08	-2.565511e+01	-1.640000e+03
4.500000e-07	-3.588027e-06	-2.493284e-08	-2.510569e+01	-1.633462e+03
4.600000e-07	-3.508020e-06	-2.483520e-08	-2.454588e+01	-1.626716e+03
4.700000e-07	-3.426573e-06	-2.472587e-08	-2.397599e+01	-1.619745e+03
4.800000e-07	-3.343918e-06	-2.460287e-08	-2.339765e+01	-1.612546e+03
4.900000e-07	-3.260145e-06	-2.448859e-08	-2.281148e+01	-1.605127e+03
5.000000e-07	-3.175486e-06	-2.438589e-08	-2.221911e+01	-1.597509e+03
5.100000e-07	-3.089974e-06	-2.426297e-08	-2.162078e+01	-1.589714e+03
5.200000e-07	-3.003424e-06	-2.413411e-08	-2.101518e+01	-1.581753e+03
5.300000e-07	-2.915839e-06	-2.400867e-08	-2.040234e+01	-1.573617e+03
5.400000e-07	-2.827396e-06	-2.389005e-08	-1.978350e+01	-1.565277e+03
5.500000e-07	-2.738042e-06	-2.376458e-08	-1.915828e+01	-1.556691e+03
5.600000e-07	-2.647446e-06	-2.361869e-08	-1.852438e+01	-1.547822e+03
5.700000e-07	-2.555627e-06	-2.347099e-08	-1.788192e+01	-1.538647e+03
5.800000e-07	-2.462947e-06	-2.332870e-08	-1.723342e+01	-1.529171e+03
5.900000e-07	-2.369538e-06	-2.318655e-08	-1.657984e+01	-1.519423e+03
6.000000e-07	-2.275316e-06	-2.302896e-08	-1.592056e+01	-1.509442e+03
6.100000e-07	-2.180261e-06	-2.286473e-08	-1.525545e+01	-1.499258e+03
6.200000e-07	-2.084479e-06	-2.270831e-08	-1.458526e+01	-1.488880e+03
6.300000e-07	-1.988031e-06	-2.255091e-08	-1.391040e+01	-1.478282e+03
6.400000e-07	-1.890931e-06	-2.238525e-08	-1.323098e+01	-1.467411e+03
6.500000e-07	-1.793051e-06	-2.220799e-08	-1.254611e+01	-1.456206e+03
6.600000e-07	-1.694246e-06	-2.203089e-08	-1.185476e+01	-1.444620e+03
6.700000e-07	-1.594642e-06	-2.185275e-08	-1.115783e+01	-1.432634e+03
6.800000e-07	-1.494463e-06	-2.166417e-08	-1.045687e+01	-1.420265e+03
6.900000e-07	-1.393839e-06	-2.146272e-08	-9.752793e+00	-1.407558e+03
7.000000e-07	-1.292847e-06	-2.126059e-08	-9.046149e+00	-1.394560e+03
7.100000e-07	-1.191471e-06	-2.106475e-08	-8.336812e+00	-1.381299e+03
7.200000e-07	-1.089651e-06	-2.086379e-08	-7.624371e+00	-1.367764e+03
7.300000e-07	-9.874740e-07	-2.065091e-08	-6.909430e+00	-1.353902e+03
7.400000e-07	-8.849625e-07	-2.042644e-08	-6.192149e+00	-1.339634e+03
7.500000e-07	-7.821233e-07	-2.019958e-08	-5.472575e+00	-1.324882e+03
7.600000e-07	-6.790045e-07	-1.996645e-08	-4.751045e+00	-1.309589e+03
7.700000e-07	-5.756232e-07	-1.972188e-08	-4.027678e+00	-1.293744e+03
7.800000e-07	-4.720549e-07	-1.947026e-08	-3.303004e+00	-1.277374e+03
7.900000e-07	-3.683517e-07	-1.921852e-08	-2.577384e+00	-1.260522e+03
8.000000e-07	-2.645337e-07	-1.896427e-08	-1.850962e+00	-1.243222e+03
8.100000e-07	-1.606176e-07	-1.869437e-08	-1.123853e+00	-1.225465e+03
8.200000e-07	-5.661726e-08	-1.840863e-08	-3.961552e-01	-1.207187e+03
8.300000e-07	4.741648e-08	-1.811455e-08	3.317767e-01	-1.188278e+03
8.400000e-07	1.514186e-07	-1.781616e-08	1.059487e+00	-1.168598e+03
8.500000e-07	2.553392e-07	-1.750470e-08	1.786627e+00	-1.148017e+03
8.600000e-07	3.591720e-07	-1.717506e-08	2.513154e+00	-1.126435e+03
8.700000e-07	4.628765e-07	-1.682851e-08	3.238781e+00	-1.103788e+03
8.800000e-07	5.663984e-07	-1.646781e-08	3.963132e+00	-1.080029e+03
8.900000e-07	6.697273e-07	-1.608949e-08	4.686132e+00	-1.055095e+03
9.000000e-07	7.728466e-07	-1.568587e-08	5.407666e+00	-1.028864e+03
9.100000e-07	8.757230e-07	-1.525803e-08	6.127499e+00	-1.001129e+03
9.200000e-07	9.782757e-07	-1.480532e-08	6.845068e+00	-9.715927e+02
9.300000e-07	1.080443e-06	-1.432228e-08	7.559943e+00	-9.398792e+02
9.400000e-07	1.182189e-06	-1.379733e-08	8.271867e+00	-9.055620e+02
9.500000e-07	1.283525e-06	-1.322275e-08	8.980922e+00	-8.681805e+02
9.600000e-07	1.384540e-06	-1.259427e-08	9.687727e+00	-8.272307e+02
9.700000e-07	1.485144e-06	-1.190628e-08	1.039167e+01	-7.821247e+02
9.800000e-07	1.585224e-06	-1.114251e-08	1.109193e+01	-7.321293e+02
9.900000e-07	1.684709e-06	-1.028355e-08	1.178804e+01	-6.763094e+02
1.000000e-06	1.783478e-06	-9.317066e-09	1.247913e+01	-6.135156e+02
1.010000e-06	1.881449e-06	-8.225978e-09	1.316464e+01	-5.424463e+02
1.020000e-06	1.978612e-06	-6.987448e-09	1.384450e+01	-4.618008e+02
1.030000e-06	2.075048e-06	-5.582017e-09	1.451927e+01	-3.705122e+02
1.040000e-06	2.170788e-06	-4.005941e-09	1.518917e+01	-2.680183e+02
1.050000e-06	2.265837e-06	-2.266942e-09	1.585423e+01	-1.545091e+02
1.060000e-06	2.360162e-06	-3.798783e-10	1.651423e+01	-3.108616e+01
1.070000e-06	2.453712e-06	1.630120e-09	1.716881e+01	1.002187e+02
1.080000e-06	2.546536e-06	3.717458e-09	1.781830e+01	2.365847e+02
1.090000e-06	2.638561e-06	5.823456e-09	1.846221e+01	3.746854e+02
1.100000e-06	2.729547e-06	7.895294e-09	1.909884e+01	5.110595e+02
1.110000e-06	2.819310e-06	9.889823e-09	1.972693e+01	6.424959e+02
1.120000e-06	2.907948e-06	1.176882e-08	2.034713e+01	7.663548e+02
1.130000e-06	2.995604e-06	1.350101e-08	2.096047e+01	8.807700e+02
1.140000e-06	3.082302e-06	1.507185e-08	2.156710e+01	9.847057e+02
1.150000e-06	3.168061e-06	1.647917e-08	2.216716e+01	1.077880e+03
1.160000e-06	3.252876e-06	1.772896e-08	2.276062e+01	1.160596e+03
1.170000e-06	3.336600e-06	1.883006e-08	2.334644e+01	1.233533e+03
1.180000e-06	3.418997e-06	1.979238e-08	2.392298e+01	1.297553e+03
1.190000e-06	3.500164e-06	2.063241e-08	2.449091e+01	1.353560e+03
1.200000e-06	3.580130e-06	2.136632e-08	2.505044e+01	1.402419e+03
1.210000e-06	3.658802e-06	2.200809e-08	2.560091e+01	1.444934e+03
1.220000e-06	3.736162e-06	2.256649e-08	2.614221e+01	1.481855e+03
1.230000e-06	3.812051e-06	2.304879e-08	2.667320e+01	1.513896e+03
1.240000e-06	3.886350e-06	2.346608e-08	2.719308e+01	1.541741e+03
1.250000e-06	3.959133e-06	2.383209e-08	2.770235e+01	1.566032e+03
1.260000e-06	4.030504e-06	2.415502e-08	2.820174e+01	1.587349e+03
1.270000e-06	4.100507e-06	2.443874e-08	2.869155e+01	1.606185e+03
1.280000e-06	4.169190e-06	2.468965e-08	2.917213e+01	1.622933e+03
1.290000e-06	4.236354e-06	2.491589e-08	2.964208e+01	1.637895e+03
1.300000e-06	4.301832e-06	2.511941e-08	3.010024e+01	1.651299e+03
1.310000e-06	4.365799e-06	2.529923e-08	3.054782e+01	1.663326e+03
1.320000e-06	4.428349e-06	2.546069e-08	3.098549e+01	1.674136e+03
1.330000e-06	4.489472e-06	2.560941e-08	3.141317e+01	1.683883e+03
1.340000e-06	4.549068e-06	2.574886e-08	3.183017e+01	1.692710e+03
1.350000e-06	4.606860e-06	2.587724e-08	3.223454e+01	1.700750e+03
1.360000e-06	4.662875e-06	2.599164e-08	3.262649e+01	1.708108e+03
1.370000e-06	4.717288e-06	2.609354e-08	3.300722e+01	1.714864e+03
1.380000e-06	4.769955e-06	2.618687e-08	3.337573e+01	1.721071e+03
1.390000e-06	4.820581e-06	2.627301e-08	3.372996e+01	1.726775e+03
1.400000e-06	4.869241e-06	2.635151e-08	3.407045e+01	1.732019e+03
1.410000e-06	4.916220e-06	2.642473e-08	3.439916e+01	1.736856e+03
1.420000e-06	4.961621e-06	2.649634e-08	3.471683e+01	1.741349e+03
1.430000e-06	5.005292e-06	2.656453e-08	3.502240e+01	1.745559e+03
1.440000e-06	5.047012e-06	2.662594e-08	3.531432e+01	1.749531e+03
1.450000e-06	5.086966e-06	2.668246e-08	3.559388e+01	1.753288e+03
1.460000e-06	5.125237e-06	2.673641e-08	3.586167e+01	1.756822e+03
1.470000e-06	5.161764e-06	2.678825e-08	3.611725e+01	1.760106e+03
1.480000e-06	5.196436e-06	2.683581e-08	3.635985e+01	1.763110e+03
1.490000e-06	5.229201e-06	2.687691e-08	3.658911e+01	1.765815e+03
1.500000e-06	5.260223e-06	2.691306e-08	3.680617e+01	1.768227e+03
1.510000e-06	5.289543e-06	2.694700e-08	3.701132e+01	1.770379e+03
1.520000e-06	5.316972e-06	2.697953e-08	3.720325e+01	1.772318e+03
1.530000e-06	5.342353e-06	2.700964e-08	3.738084e+01	1.774090e+03
1.540000e-06	5.365837e-06	2.703714e-08	3.754516e+01	1.775724e+03
1.550000e-06	5.387589e-06	2.706195e-08	3.769736e+01	1.777221e+03
1.560000e-06	5.407577e-06	2.708400e-08	3.783722e+01	1.778563e+03
1.570000e-06	5.425592e-06	2.710179e-08	3.796327e+01	1.779717e+03
1.580000e-06	5.441559e-06	2.711404e-08	3.807499e+01	1.780662e+03
1.590000e-06	5.455537e-06	2.712394e-08	3.817280e+01	1.781396e+03
1.600000e-06	5.467398e-06	2.713416e-08	3.825579e+01	1.781944e+03
1.610000e-06	5.477061e-06	2.714462e-08	3.832340e+01	1.782351e+03
1.620000e-06	5.484731e-06	2.715411e-08	3.837707e+01	1.782663e+03
1.630000e-06	5.490594e-06	2.716028e-08	3.841810e+01	1.782913e+03
1.640000e-06	5.494620e-06	2.716418e-08	3.844627e+01	1.783106e+03
1.650000e-06	5.496583e-06	2.716844e-08	3.846000e+01	1.783218e+03
1.660000e-06	5.496570e-06	2.716934e-08	3.845991e+01	1.783206e+03
1.670000e-06	5.494847e-06	2.715979e-08	3.844785e+01	1.783030e+03
1.680000e-06	5.491410e-06	2.715273e-08	3.842381e+01	1.782665e+03
1.690000e-06	5.486044e-06	2.714627e-08	3.838626e+01	1.782112e+03
1.700000e-06	5.478798e-06	2.713707e-08	3.833556e+01	1.781401e+03
1.710000e-06	5.469968e-06	2.712742e-08	3.827377e+01	1.780572e+03
1.720000e-06	5.459458e-06	2.712096e-08	3.820023e+01	1.779658e+03
1.730000e-06	5.446934e-06	2.713842e-08	3.811260e+01	1.778673e+03
1.740000e-06	5.432396e-06	2.707968e-08	3.801088e+01	1.777604e+03
1.750000e-06	5.415833e-06	2.696338e-08	3.789499e+01	1.776417e+03
1.760000e-06	5.396660e-06	2.695601e-08	3.776084e+01	1.775073e+03
1.770000e-06	5.374769e-06	2.694966e-08	3.760766e+01	1.773548e+03
1.780000e-06	5.350986e-06	2.704657e-08	3.744125e+01	1.771847e+03
1.790000e-06	5.326254e-06	2.706709e-08	3.726820e+01	1.770004e+03
1.800000e-06	5.300649e-06	2.680277e-08	3.708904e+01	1.768071e+03
1.810000e-06	5.272996e-06	2.692404e-08	3.689554e+01	1.766098e+03
1.820000e-06	5.242986e-06	2.698534e-08	3.668557e+01	1.764113e+03
1.830000e-06	5.211499e-06	2.675920e-08	3.646525e+01	1.762103e+03
1.840000e-06	5.178239e-06	2.692496e-08	3.623253e+01	1.760022e+03
1.850000e-06	5.143230e-06	2.684730e-08	3.598756e+01	1.757797e+03
1.860000e-06	5.106503e-06	2.667777e-08	3.573058e+01	1.755356e+03
1.870000e-06	5.067596e-06	2.687316e-08	3.545835e+01	1.752652e+03
1.880000e-06	5.027050e-06	2.669927e-08	3.517464e+01	1.749673e+03
1.890000e-06	4.984911e-06	2.661496e-08	3.487980e+01	1.746449e+03
1.900000e-06	4.940896e-06	2.664103e-08	3.457182e+01	1.743037e+03
1.910000e-06	4.895206e-06	2.644205e-08	3.425212e+01	1.739501e+03
1.920000e-06	4.847579e-06	2.656484e-08	3.391887e+01	1.735889e+03
1.930000e-06	4.798172e-06	2.644221e-08	3.357317e+01	1.732222e+03
1.940000e-06	4.747021e-06	2.630316e-08	3.321526e+01	1.728487e+03
1.950000e-06	4.693640e-06	2.638160e-08	3.284175e+01	1.724648e+03
1.960000e-06	4.638503e-06	2.622933e-08	3.245595e+01	1.720663e+03
1.970000e-06	4.581713e-06	2.620134e-08	3.205859e+01	1.716497e+03
1.980000e-06	4.523292e-06	2.607901e-08	3.164981e+01	1.712133e+03
1.990000e-06	4.463392e-06	2.602069e-08	3.123069e+01	1.707574e+03
2.000000e-06	4.401733e-06	2.602978e-08	3.079926e+01	1.702835e+03
2.010000e-06	4.338481e-06	2.587475e-08	3.035667e+01	1.697937e+03
2.020000e-06	4.273701e-06	2.586946e-08	2.990340e+01	1.692891e+03
2.030000e-06	4.207491e-06	2.571815e-08	2.944013e+01	1.687702e+03
2.040000e-06	4.139839e-06	2.565274e-08	2.896676e+01	1.682364e+03
2.050000e-06	4.070357e-06	2.561201e-08	2.848059e+01	1.676869e+03
2.060000e-06	3.999339e-06	2.545713e-08	2.798367e+01	1.671211e+03
2.070000e-06	3.927052e-06	2.542581e-08	2.747788e+01	1.665390e+03
2.080000e-06	3.853449e-06	2.529455e-08	2.696287e+01	1.659409e+03
2.090000e-06	3.778333e-06	2.524866e-08	2.643728e+01	1.653269e+03
2.100000e-06	3.701515e-06	2.514091e-08	2.589977e+01	1.646961e+03
2.110000e-06	3.623198e-06	2.500796e-08	2.535179e+01	1.640472e+03
2.120000e-06	3.543634e-06	2.493518e-08	2.479507e+01	1.633779e+03
2.130000e-06	3.462920e-06	2.480243e-08	2.423031e+01	1.626866e+03
2.140000e-06	3.381001e-06	2.473176e-08	2.365712e+01	1.619723e+03
2.150000e-06	3.298009e-06	2.458965e-08	2.307641e+01	1.612356e+03
2.160000e-06	3.213819e-06	2.447944e-08	2.248733e+01	1.604786e+03
2.170000e-06	3.128181e-06	2.437284e-08	2.188812e+01	1.597034e+03
2.180000e-06	3.041371e-06	2.425067e-08	2.128070e+01	1.589114e+03
2.190000e-06	2.953666e-06	2.413784e-08	2.066702e+01	1.581024e+03
2.200000e-06	2.864991e-06	2.398733e-08	2.004656e+01	1.572738e+03
2.210000e-06	2.775311e-06	2.386956e-08	1.941906e+01	1.564217e+03
2.220000e-06	2.684752e-06	2.373534e-08	1.878541e+01	1.555421e+03
2.230000e-06	2.593382e-06	2.359964e-08	1.814609e+01	1.546323e+03
2.240000e-06	2.501101e-06	2.344715e-08	1.750039e+01	1.536920e+03
2.250000e-06	2.407683e-06	2.330199e-08	1.684674e+01	1.527236e+03
2.260000e-06	2.313238e-06	2.316428e-08	1.618590e+01	1.517310e+03
2.270000e-06	2.218095e-06	2.301522e-08	1.552018e+01	1.507175e+03
2.280000e-06	2.122269e-06	2.285849e-08	1.484968e+01	1.496846e+03
2.290000e-06	2.025731e-06	2.268930e-08	1.417419e+01	1.486306e+03
2.300000e-06	1.928518e-06	2.252792e-08	1.349399e+01	1.475509e+03
2.310000e-06	1.830677e-06	2.235623e-08	1.280939e+01	1.464393e+03
2.320000e-06	1.732265e-06	2.218055e-08	1.212079e+01	1.452905e+03
2.330000e-06	1.633352e-06	2.199618e-08	1.142868e+01	1.441018e+03
2.340000e-06	1.534010e-06	2.181834e-08	1.073358e+01	1.428742e+03
2.350000e-06	1.434133e-06	2.163572e-08	1.003474e+01	1.416114e+03
2.360000e-06	1.333559e-06	2.143848e-08	9.331015e+00	1.403185e+03
2.370000e-06	1.232288e-06	2.123324e-08	8.622412e+00	1.389989e+03
2.380000e-06	1.130456e-06	2.102146e-08	7.909884e+00	1.376525e+03
2.390000e-06	1.028143e-06	2.081468e-08	7.193996e+00	1.362752e+03
2.400000e-06	9.254198e-07	2.059850e-08	6.475231e+00	1.348593e+03
2.410000e-06	8.223859e-07	2.037583e-08	5.754295e+00	1.333968e+03
2.420000e-06	7.191255e-07	2.014695e-08	5.031775e+00	1.318813e+03
2.430000e-06	6.156478e-07	1.991011e-08	4.307734e+00	1.303105e+03
2.440000e-06	5.119739e-07	1.966554e-08	3.582320e+00	1.286861e+03
2.450000e-06	4.081651e-07	1.941078e-08	2.855961e+00	1.270126e+03
2.460000e-06	3.042117e-07	1.914649e-08	2.128592e+00	1.252936e+03
2.470000e-06	2.001881e-07	1.887544e-08	1.400731e+00	1.235297e+03
2.480000e-06	9.610239e-08	1.859623e-08	6.724356e-01	1.217158e+03
2.490000e-06	-8.050230e-09	1.830494e-08	-5.632806e-02	1.198419e+03
2.500000e-06	-1.121823e-07	1.800395e-08	-7.849478e-01	1.178944e+03
2.510000e-06	-2.162229e-07	1.769539e-08	-1.512928e+00	1.158600e+03
2.520000e-06	-3.202057e-07	1.737842e-08	-2.240503e+00	1.137275e+03
2.530000e-06	-4.240905e-07	1.704445e-08	-2.967393e+00	1.114898e+03
2.540000e-06	-5.278170e-07	1.668780e-08	-3.693175e+00	1.091422e+03
2.550000e-06	-6.313992e-07	1.630940e-08	-4.417948e+00	1.066789e+03
2.560000e-06	-7.347415e-07	1.591166e-08	-5.141041e+00	1.040898e+03
2.570000e-06	-8.377762e-07	1.549258e-08	-5.861983e+00	1.013564e+03
2.580000e-06	-9.404794e-07	1.504627e-08	-6.580604e+00	9.845099e+02
2.590000e-06	-1.042754e-06	1.457293e-08	-7.296225e+00	9.533788e+02
2.600000e-06	-1.144575e-06	1.406757e-08	-8.008677e+00	9.197543e+02
2.610000e-06	-1.245932e-06	1.351776e-08	-8.717881e+00	8.831838e+02
2.620000e-06	-1.346698e-06	1.291389e-08	-9.422950e+00	8.431766e+02
2.630000e-06	-1.446843e-06	1.224809e-08	-1.012367e+01	7.991714e+02
2.640000e-06	-1.546447e-06	1.150860e-08	-1.082060e+01	7.504771e+02
2.650000e-06	-1.645533e-06	1.068135e-08	-1.151392e+01	6.962129e+02
2.660000e-06	-1.744112e-06	9.753234e-09	-1.220369e+01	6.352803e+02
2.670000e-06	-1.842161e-06	8.709410e-09	-1.288973e+01	5.664051e+02
2.680000e-06	-1.939573e-06	7.530284e-09	-1.357133e+01	4.882670e+02
2.690000e-06	-2.036284e-06	6.193765e-09	-1.424803e+01	3.997161e+02
2.700000e-06	-2.132328e-06	4.687737e-09	-1.492006e+01	3.000384e+02
2.710000e-06	-2.227807e-06	3.012727e-09	-1.558813e+01	1.892166e+02
2.720000e-06	-2.322736e-06	1.177776e-09	-1.625236e+01	6.811657e+01
2.730000e-06	-2.416864e-06	-7.947367e-10	-1.691098e+01	-6.145555e+01
2.740000e-06	-2.509887e-06	-2.864048e-09	-1.756187e+01	-1.968546e+02
2.750000e-06	-2.601779e-06	-4.976341e-09	-1.820484e+01	-3.348478e+02
2.760000e-06	-2.692654e-06	-7.074104e-09	-1.884070e+01	-4.719709e+02
2.770000e-06	-2.782586e-06	-9.107782e-09	-1.946996e+01	-6.049162e+02
2.780000e-06	-2.871487e-06	-1.103603e-08	-2.009201e+01	-7.308770e+02
2.790000e-06	-2.959416e-06	-1.282891e-08	-2.070725e+01	-8.477825e+02
2.800000e-06	-3.046512e-06	-1.446836e-08	-2.131667e+01	-9.543919e+02
2.810000e-06	-3.132640e-06	-1.594702e-08	-2.191932e+01	-1.050248e+03
2.820000e-06	-3.217517e-06	-1.726603e-08	-2.251321e+01	-1.135526e+03
2.830000e-06	-3.301042e-06	-1.843049e-08	-2.309764e+01	-1.210831e+03
2.840000e-06	-3.383412e-06	-1.945241e-08	-2.367398e+01	-1.276996e+03
2.850000e-06	-3.464716e-06	-2.034670e-08	-2.424288e+01	-1.334923e+03
2.860000e-06	-3.544880e-06	-2.112701e-08	-2.480379e+01	-1.385492e+03
2.870000e-06	-3.623857e-06	-2.180577e-08	-2.535640e+01	-1.429521e+03
2.880000e-06	-3.701364e-06	-2.239541e-08	-2.589872e+01	-1.467772e+03
2.890000e-06	-3.777184e-06	-2.290609e-08	-2.642924e+01	-1.500968e+03
2.900000e-06	-3.851536e-06	-2.334983e-08	-2.694948e+01	-1.529800e+03
2.910000e-06	-3.924576e-06	-2.374005e-08	-2.746055e+01	-1.554923e+03
2.920000e-06	-3.996311e-06	-2.408386e-08	-2.796249e+01	-1.576934e+03
2.930000e-06	-4.066659e-06	-2.438551e-08	-2.845472e+01	-1.596349e+03
2.940000e-06	-4.135397e-06	-2.464976e-08	-2.893568e+01	-1.613588e+03
