# Temperatura_=_60.32
# Concentracion g/m^3_=_18700.0
# C_Vs_to_Am_M_A/Vsm_=_65563218390.804596
# pendiente_HvsI_1/m_=_3716.3
# ordenada_HvsI_A/m_=_1297.0
# frecuencia_Hz_=_301351.6443009701

Tiempo_(s)	Campo_(V.s)	Magnetizacion_(V.s)	Campo_(kA/m)	Magnetizacion_(A/m)
0.000000e+00	-8.353905e-06	-2.732009e-08	-5.695279e+01	-1.788826e+03
1.000000e-08	-8.351530e-06	-2.732804e-08	-5.693660e+01	-1.788037e+03
2.000000e-08	-8.346317e-06	-2.732475e-08	-5.690107e+01	-1.787145e+03
3.000000e-08	-8.338544e-06	-2.731631e-08	-5.684808e+01	-1.786366e+03
4.000000e-08	-8.327952e-06	-2.730643e-08	-5.677586e+01	-1.785822e+03
5.000000e-08	-8.314353e-06	-2.729077e-08	-5.668315e+01	-1.785487e+03
6.000000e-08	-8.297692e-06	-2.726446e-08	-5.656957e+01	-1.785203e+03
7.000000e-08	-8.278283e-06	-2.722434e-08	-5.643725e+01	-1.784746e+03
8.000000e-08	-8.256435e-06	-2.720886e-08	-5.628830e+01	-1.783930e+03
9.000000e-08	-8.231611e-06	-2.728751e-08	-5.611905e+01	-1.782685e+03
1.000000e-07	-8.203395e-06	-2.726271e-08	-5.592670e+01	-1.781093e+03
1.100000e-07	-8.172046e-06	-2.718714e-08	-5.571297e+01	-1.779351e+03
1.200000e-07	-8.137706e-06	-2.718206e-08	-5.547886e+01	-1.777689e+03
1.300000e-07	-8.100549e-06	-2.717374e-08	-5.522554e+01	-1.776272e+03
1.400000e-07	-8.061040e-06	-2.707420e-08	-5.495619e+01	-1.775128e+03
1.500000e-07	-8.019160e-06	-2.697934e-08	-5.467067e+01	-1.774144e+03
1.600000e-07	-7.974589e-06	-2.712355e-08	-5.436681e+01	-1.773109e+03
1.700000e-07	-7.927154e-06	-2.698157e-08	-5.404342e+01	-1.771806e+03
1.800000e-07	-7.876799e-06	-2.698275e-08	-5.370012e+01	-1.770100e+03
1.900000e-07	-7.823328e-06	-2.705509e-08	-5.333558e+01	-1.767988e+03
2.000000e-07	-7.766895e-06	-2.688991e-08	-5.295085e+01	-1.765589e+03
2.100000e-07	-7.707715e-06	-2.691233e-08	-5.254739e+01	-1.763082e+03
2.200000e-07	-7.645802e-06	-2.681036e-08	-5.212530e+01	-1.760622e+03
2.300000e-07	-7.581233e-06	-2.678718e-08	-5.168510e+01	-1.758265e+03
2.400000e-07	-7.513811e-06	-2.676117e-08	-5.122545e+01	-1.755947e+03
2.500000e-07	-7.443547e-06	-2.669567e-08	-5.074643e+01	-1.753515e+03
2.600000e-07	-7.370506e-06	-2.669568e-08	-5.024847e+01	-1.750801e+03
2.700000e-07	-7.294606e-06	-2.662727e-08	-4.973102e+01	-1.747701e+03
2.800000e-07	-7.215890e-06	-2.659729e-08	-4.919437e+01	-1.744226e+03
2.900000e-07	-7.134375e-06	-2.649664e-08	-4.863864e+01	-1.740501e+03
3.000000e-07	-7.050331e-06	-2.645524e-08	-4.806567e+01	-1.736705e+03
3.100000e-07	-6.964015e-06	-2.641749e-08	-4.747721e+01	-1.732991e+03
3.200000e-07	-6.875279e-06	-2.633319e-08	-4.687226e+01	-1.729411e+03
3.300000e-07	-6.784009e-06	-2.631369e-08	-4.625002e+01	-1.725885e+03
3.400000e-07	-6.690345e-06	-2.621803e-08	-4.561147e+01	-1.722234e+03
3.500000e-07	-6.594335e-06	-2.615554e-08	-4.495692e+01	-1.718254e+03
3.600000e-07	-6.495919e-06	-2.608463e-08	-4.428597e+01	-1.713807e+03
3.700000e-07	-6.395128e-06	-2.601492e-08	-4.359882e+01	-1.708882e+03
3.800000e-07	-6.292023e-06	-2.593567e-08	-4.289591e+01	-1.703603e+03
3.900000e-07	-6.186636e-06	-2.585495e-08	-4.217743e+01	-1.698174e+03
4.000000e-07	-6.079000e-06	-2.579250e-08	-4.144362e+01	-1.692790e+03
4.100000e-07	-5.969271e-06	-2.569488e-08	-4.069554e+01	-1.687542e+03
4.200000e-07	-5.857395e-06	-2.561081e-08	-3.993283e+01	-1.682374e+03
4.300000e-07	-5.743181e-06	-2.550466e-08	-3.915417e+01	-1.677098e+03
4.400000e-07	-5.626666e-06	-2.541959e-08	-3.835983e+01	-1.671470e+03
4.500000e-07	-5.508046e-06	-2.532814e-08	-3.755113e+01	-1.665296e+03
4.600000e-07	-5.387458e-06	-2.523177e-08	-3.672903e+01	-1.658512e+03
4.700000e-07	-5.264935e-06	-2.512282e-08	-3.589373e+01	-1.651215e+03
4.800000e-07	-5.140497e-06	-2.501054e-08	-3.504537e+01	-1.643620e+03
4.900000e-07	-5.014208e-06	-2.490146e-08	-3.418439e+01	-1.635961e+03
5.000000e-07	-4.886110e-06	-2.477775e-08	-3.331108e+01	-1.628388e+03
5.100000e-07	-4.756223e-06	-2.465228e-08	-3.242558e+01	-1.620892e+03
5.200000e-07	-4.624638e-06	-2.451780e-08	-3.152850e+01	-1.613299e+03
5.300000e-07	-4.491426e-06	-2.439382e-08	-3.062032e+01	-1.605341e+03
5.400000e-07	-4.356614e-06	-2.426371e-08	-2.970124e+01	-1.596771e+03
5.500000e-07	-4.220242e-06	-2.412458e-08	-2.877152e+01	-1.587464e+03
5.600000e-07	-4.082282e-06	-2.397511e-08	-2.783098e+01	-1.577478e+03
5.700000e-07	-3.942735e-06	-2.382209e-08	-2.687962e+01	-1.567022e+03
5.800000e-07	-3.801610e-06	-2.366569e-08	-2.591750e+01	-1.556368e+03
5.900000e-07	-3.658912e-06	-2.349543e-08	-2.494465e+01	-1.545717e+03
6.000000e-07	-3.514776e-06	-2.332094e-08	-2.396200e+01	-1.535103e+03
6.100000e-07	-3.369364e-06	-2.314200e-08	-2.297066e+01	-1.524363e+03
6.200000e-07	-3.222764e-06	-2.296670e-08	-2.197121e+01	-1.513191e+03
6.300000e-07	-3.075009e-06	-2.278238e-08	-2.096389e+01	-1.501265e+03
6.400000e-07	-2.926265e-06	-2.258610e-08	-1.994983e+01	-1.488385e+03
6.500000e-07	-2.776580e-06	-2.238248e-08	-1.892935e+01	-1.474561e+03
6.600000e-07	-2.625886e-06	-2.217177e-08	-1.790199e+01	-1.460013e+03
6.700000e-07	-2.474255e-06	-2.195156e-08	-1.686825e+01	-1.445073e+03
6.800000e-07	-2.321735e-06	-2.171651e-08	-1.582844e+01	-1.430035e+03
6.900000e-07	-2.168384e-06	-2.147601e-08	-1.478297e+01	-1.415009e+03
7.000000e-07	-2.014294e-06	-2.122974e-08	-1.373246e+01	-1.399846e+03
7.100000e-07	-1.859420e-06	-2.098057e-08	-1.267661e+01	-1.384174e+03
7.200000e-07	-1.703771e-06	-2.071953e-08	-1.161547e+01	-1.367538e+03
7.300000e-07	-1.547563e-06	-2.044432e-08	-1.055052e+01	-1.349583e+03
7.400000e-07	-1.390892e-06	-2.015450e-08	-9.482417e+00	-1.330198e+03
7.500000e-07	-1.233701e-06	-1.985365e-08	-8.410762e+00	-1.309575e+03
7.600000e-07	-1.075999e-06	-1.953943e-08	-7.335632e+00	-1.288119e+03
7.700000e-07	-9.178666e-07	-1.920761e-08	-6.257561e+00	-1.266264e+03
7.800000e-07	-7.594531e-07	-1.886440e-08	-5.177576e+00	-1.244248e+03
7.900000e-07	-6.008086e-07	-1.850697e-08	-4.096016e+00	-1.221957e+03
8.000000e-07	-4.419209e-07	-1.813400e-08	-3.012798e+00	-1.198893e+03
8.100000e-07	-2.828303e-07	-1.773719e-08	-1.928198e+00	-1.174304e+03
8.200000e-07	-1.236266e-07	-1.731837e-08	-8.428249e-01	-1.147430e+03
8.300000e-07	3.561122e-08	-1.687580e-08	2.427797e-01	-1.117756e+03
8.400000e-07	1.948509e-07	-1.640541e-08	1.328397e+00	-1.085181e+03
8.500000e-07	3.540000e-07	-1.589863e-08	2.413397e+00	-1.049995e+03
8.600000e-07	5.129928e-07	-1.534412e-08	3.497331e+00	-1.012663e+03
8.700000e-07	6.717776e-07	-1.473550e-08	4.579848e+00	-9.734597e+02
8.800000e-07	8.303210e-07	-1.406543e-08	5.660718e+00	-9.320729e+02
8.900000e-07	9.885738e-07	-1.333081e-08	6.739608e+00	-8.873318e+02
9.000000e-07	1.146407e-06	-1.252048e-08	7.815638e+00	-8.371519e+02
9.100000e-07	1.303797e-06	-1.161813e-08	8.888647e+00	-7.787530e+02
9.200000e-07	1.460780e-06	-1.058970e-08	9.958873e+00	-7.091010e+02
9.300000e-07	1.617238e-06	-9.384133e-09	1.102553e+01	-6.254610e+02
9.400000e-07	1.773093e-06	-7.933462e-09	1.208807e+01	-5.259184e+02
9.500000e-07	1.928320e-06	-6.159284e-09	1.314633e+01	-4.097399e+02
9.600000e-07	2.082808e-06	-4.030399e-09	1.419956e+01	-2.775079e+02
9.700000e-07	2.236547e-06	-1.662755e-09	1.524767e+01	-1.310355e+02
9.800000e-07	2.389525e-06	7.675352e-10	1.629060e+01	2.686887e+01
9.900000e-07	2.541652e-06	3.196541e-09	1.732773e+01	1.926913e+02
1.000000e-06	2.692864e-06	5.626457e-09	1.835862e+01	3.624757e+02
1.010000e-06	2.843068e-06	8.060190e-09	1.938263e+01	5.320241e+02
1.020000e-06	2.992240e-06	1.049618e-08	2.039962e+01	6.970539e+02
1.030000e-06	3.140381e-06	1.292050e-08	2.140956e+01	8.533652e+02
1.040000e-06	3.287397e-06	1.522670e-08	2.241185e+01	9.970721e+02
1.050000e-06	3.433202e-06	1.722738e-08	2.340587e+01	1.124918e+03
1.060000e-06	3.577718e-06	1.884549e-08	2.439111e+01	1.234636e+03
1.070000e-06	3.720890e-06	2.012841e-08	2.536719e+01	1.325266e+03
1.080000e-06	3.862660e-06	2.114460e-08	2.633371e+01	1.397321e+03
1.090000e-06	4.002955e-06	2.194934e-08	2.729017e+01	1.452711e+03
1.100000e-06	4.141726e-06	2.258604e-08	2.823624e+01	1.494412e+03
1.110000e-06	4.278901e-06	2.309212e-08	2.917144e+01	1.525922e+03
1.120000e-06	4.414506e-06	2.350274e-08	3.009592e+01	1.550642e+03
1.130000e-06	4.548528e-06	2.384451e-08	3.100962e+01	1.571339e+03
1.140000e-06	4.680935e-06	2.413260e-08	3.191230e+01	1.589820e+03
1.150000e-06	4.811708e-06	2.437809e-08	3.280385e+01	1.606889e+03
1.160000e-06	4.940690e-06	2.458834e-08	3.368319e+01	1.622578e+03
1.170000e-06	5.067878e-06	2.477550e-08	3.455029e+01	1.636525e+03
1.180000e-06	5.193359e-06	2.494330e-08	3.540576e+01	1.648385e+03
1.190000e-06	5.317084e-06	2.509406e-08	3.624925e+01	1.658118e+03
1.200000e-06	5.438919e-06	2.523061e-08	3.707986e+01	1.666083e+03
1.210000e-06	5.558741e-06	2.535978e-08	3.789675e+01	1.672933e+03
1.220000e-06	5.676521e-06	2.548319e-08	3.869971e+01	1.679386e+03
1.230000e-06	5.792110e-06	2.559509e-08	3.948774e+01	1.685977e+03
1.240000e-06	5.905431e-06	2.569644e-08	4.026031e+01	1.692893e+03
1.250000e-06	6.016588e-06	2.578917e-08	4.101812e+01	1.699966e+03
1.260000e-06	6.125631e-06	2.587598e-08	4.176153e+01	1.706797e+03
1.270000e-06	6.232521e-06	2.595914e-08	4.249025e+01	1.712964e+03
1.280000e-06	6.337146e-06	2.603967e-08	4.320353e+01	1.718220e+03
1.290000e-06	6.439481e-06	2.611647e-08	4.390120e+01	1.722595e+03
1.300000e-06	6.539524e-06	2.619075e-08	4.458324e+01	1.726381e+03
1.310000e-06	6.637122e-06	2.626300e-08	4.524862e+01	1.729993e+03
1.320000e-06	6.732305e-06	2.633053e-08	4.589753e+01	1.733797e+03
1.330000e-06	6.825180e-06	2.639136e-08	4.653070e+01	1.737958e+03
1.340000e-06	6.915619e-06	2.644733e-08	4.714727e+01	1.742390e+03
1.350000e-06	7.003591e-06	2.650340e-08	4.774702e+01	1.746806e+03
1.360000e-06	7.089192e-06	2.656047e-08	4.833061e+01	1.750857e+03
1.370000e-06	7.172375e-06	2.661324e-08	4.889771e+01	1.754290e+03
1.380000e-06	7.252970e-06	2.666153e-08	4.944717e+01	1.757053e+03
1.390000e-06	7.330919e-06	2.670856e-08	4.997858e+01	1.759313e+03
1.400000e-06	7.406099e-06	2.675442e-08	5.049112e+01	1.761379e+03
1.410000e-06	7.478503e-06	2.679956e-08	5.098474e+01	1.763562e+03
1.420000e-06	7.548341e-06	2.684195e-08	5.146086e+01	1.766047e+03
1.430000e-06	7.615492e-06	2.688111e-08	5.191866e+01	1.768816e+03
1.440000e-06	7.679843e-06	2.691743e-08	5.235738e+01	1.771667e+03
1.450000e-06	7.741566e-06	2.695083e-08	5.277817e+01	1.774307e+03
1.460000e-06	7.800565e-06	2.698000e-08	5.318040e+01	1.776485e+03
1.470000e-06	7.856781e-06	2.700506e-08	5.356365e+01	1.778100e+03
1.480000e-06	7.910089e-06	2.703174e-08	5.392708e+01	1.779244e+03
1.490000e-06	7.960153e-06	2.706022e-08	5.426839e+01	1.780154e+03
1.500000e-06	8.007177e-06	2.708770e-08	5.458898e+01	1.781110e+03
1.510000e-06	8.051468e-06	2.711190e-08	5.489093e+01	1.782313e+03
1.520000e-06	8.092853e-06	2.713227e-08	5.517308e+01	1.783799e+03
1.530000e-06	8.131342e-06	2.715059e-08	5.543547e+01	1.785429e+03
1.540000e-06	8.167134e-06	2.716573e-08	5.567948e+01	1.786956e+03
1.550000e-06	8.200050e-06	2.717698e-08	5.590389e+01	1.788131e+03
1.560000e-06	8.230055e-06	2.718714e-08	5.610845e+01	1.788818e+03
1.570000e-06	8.257164e-06	2.719844e-08	5.629327e+01	1.789045e+03
1.580000e-06	8.281244e-06	2.721104e-08	5.645743e+01	1.788995e+03
1.590000e-06	8.302526e-06	2.722380e-08	5.660252e+01	1.788920e+03
1.600000e-06	8.321003e-06	2.723239e-08	5.672848e+01	1.789035e+03
1.610000e-06	8.336392e-06	2.723689e-08	5.683340e+01	1.789425e+03
1.620000e-06	8.348555e-06	2.724144e-08	5.691632e+01	1.790011e+03
1.630000e-06	8.357547e-06	2.724486e-08	5.697763e+01	1.790591e+03
1.640000e-06	8.363623e-06	2.724532e-08	5.701905e+01	1.790927e+03
1.650000e-06	8.366749e-06	2.724339e-08	5.704036e+01	1.790857e+03
1.660000e-06	8.366916e-06	2.724464e-08	5.704150e+01	1.790356e+03
1.670000e-06	8.364342e-06	2.723502e-08	5.702395e+01	1.789551e+03
1.680000e-06	8.358954e-06	2.723422e-08	5.698722e+01	1.788660e+03
1.690000e-06	8.350721e-06	2.723221e-08	5.693109e+01	1.787895e+03
1.700000e-06	8.339655e-06	2.722376e-08	5.685565e+01	1.787368e+03
1.710000e-06	8.325662e-06	2.721811e-08	5.676025e+01	1.787043e+03
1.720000e-06	8.309033e-06	2.722167e-08	5.664688e+01	1.786754e+03
1.730000e-06	8.290030e-06	2.723875e-08	5.651733e+01	1.786276e+03
1.740000e-06	8.268327e-06	2.712788e-08	5.636937e+01	1.785429e+03
1.750000e-06	8.243182e-06	2.708441e-08	5.619794e+01	1.784154e+03
1.760000e-06	8.214045e-06	2.713735e-08	5.599930e+01	1.782543e+03
1.770000e-06	8.181383e-06	2.711263e-08	5.577663e+01	1.780800e+03
1.780000e-06	8.146120e-06	2.707264e-08	5.553622e+01	1.779151e+03
1.790000e-06	8.108456e-06	2.716274e-08	5.527945e+01	1.777753e+03
1.800000e-06	8.068655e-06	2.713189e-08	5.500810e+01	1.776626e+03
1.810000e-06	8.026824e-06	2.697133e-08	5.472292e+01	1.775645e+03
1.820000e-06	7.982123e-06	2.711290e-08	5.441817e+01	1.774597e+03
1.830000e-06	7.934523e-06	2.697797e-08	5.409366e+01	1.773268e+03
1.840000e-06	7.883987e-06	2.698604e-08	5.374913e+01	1.771531e+03
1.850000e-06	7.830077e-06	2.702548e-08	5.338159e+01	1.769393e+03
1.860000e-06	7.773359e-06	2.688154e-08	5.299492e+01	1.766980e+03
1.870000e-06	7.713874e-06	2.703815e-08	5.258938e+01	1.764471e+03
1.880000e-06	7.651617e-06	2.688741e-08	5.216495e+01	1.762018e+03
1.890000e-06	7.586659e-06	2.688123e-08	5.172209e+01	1.759666e+03
1.900000e-06	7.518775e-06	2.684174e-08	5.125930e+01	1.757346e+03
1.910000e-06	7.448092e-06	2.671767e-08	5.077741e+01	1.754899e+03
1.920000e-06	7.374441e-06	2.676407e-08	5.027530e+01	1.752159e+03
1.930000e-06	7.298019e-06	2.664243e-08	4.975428e+01	1.749030e+03
1.940000e-06	7.218917e-06	2.669768e-08	4.921501e+01	1.745531e+03
1.950000e-06	7.137221e-06	2.660197e-08	4.865805e+01	1.741794e+03
1.960000e-06	7.053068e-06	2.656235e-08	4.808433e+01	1.738000e+03
1.970000e-06	6.966236e-06	2.652341e-08	4.749235e+01	1.734295e+03
1.980000e-06	6.876920e-06	2.638869e-08	4.688344e+01	1.730722e+03
1.990000e-06	6.785151e-06	2.639216e-08	4.625781e+01	1.727194e+03
2.000000e-06	6.691020e-06	2.629068e-08	4.561607e+01	1.723525e+03
2.010000e-06	6.594575e-06	2.628049e-08	4.495855e+01	1.719515e+03
2.020000e-06	6.495811e-06	2.618760e-08	4.428523e+01	1.715032e+03
2.030000e-06	6.394697e-06	2.613817e-08	4.359588e+01	1.710075e+03
2.040000e-06	6.291120e-06	2.605421e-08	4.288975e+01	1.704778e+03
2.050000e-06	6.185352e-06	2.597036e-08	4.216868e+01	1.699346e+03
2.060000e-06	6.077451e-06	2.590039e-08	4.143306e+01	1.693970e+03
2.070000e-06	5.967350e-06	2.580564e-08	4.068244e+01	1.688731e+03
2.080000e-06	5.854984e-06	2.574745e-08	3.991639e+01	1.683562e+03
2.090000e-06	5.740334e-06	2.564537e-08	3.913476e+01	1.678268e+03
2.100000e-06	5.623421e-06	2.557153e-08	3.833770e+01	1.672607e+03
2.110000e-06	5.504383e-06	2.545758e-08	3.752616e+01	1.666389e+03
2.120000e-06	5.383378e-06	2.537191e-08	3.670122e+01	1.659563e+03
2.130000e-06	5.260481e-06	2.525778e-08	3.586336e+01	1.652236e+03
2.140000e-06	5.135722e-06	2.516033e-08	3.501282e+01	1.644628e+03
2.150000e-06	5.009091e-06	2.504954e-08	3.414951e+01	1.636972e+03
2.160000e-06	4.880637e-06	2.493497e-08	3.327377e+01	1.629406e+03
2.170000e-06	4.750419e-06	2.482237e-08	3.238601e+01	1.621910e+03
2.180000e-06	4.618544e-06	2.469490e-08	3.148695e+01	1.614300e+03
2.190000e-06	4.485037e-06	2.456710e-08	3.057677e+01	1.606306e+03
2.200000e-06	4.349935e-06	2.442721e-08	2.965571e+01	1.597684e+03
2.210000e-06	4.213190e-06	2.429412e-08	2.872345e+01	1.588325e+03
2.220000e-06	4.074815e-06	2.415452e-08	2.778008e+01	1.578296e+03
2.230000e-06	3.934895e-06	2.401162e-08	2.682617e+01	1.567816e+03
2.240000e-06	3.793467e-06	2.385822e-08	2.586198e+01	1.557157e+03
2.250000e-06	3.650650e-06	2.370064e-08	2.488833e+01	1.546509e+03
2.260000e-06	3.506570e-06	2.353443e-08	2.390606e+01	1.535894e+03
2.270000e-06	3.361296e-06	2.335954e-08	2.291566e+01	1.525134e+03
2.280000e-06	3.214777e-06	2.317364e-08	2.191676e+01	1.513917e+03
2.290000e-06	3.067069e-06	2.298716e-08	2.090976e+01	1.501927e+03
2.300000e-06	2.918316e-06	2.279570e-08	1.989563e+01	1.488976e+03
2.310000e-06	2.768490e-06	2.260099e-08	1.887419e+01	1.475091e+03
2.320000e-06	2.617706e-06	2.239529e-08	1.784623e+01	1.460502e+03
2.330000e-06	2.466098e-06	2.217790e-08	1.681264e+01	1.445546e+03
2.340000e-06	2.313563e-06	2.195164e-08	1.577273e+01	1.430509e+03
2.350000e-06	2.160120e-06	2.171628e-08	1.472663e+01	1.415480e+03
2.360000e-06	2.005893e-06	2.147042e-08	1.367519e+01	1.400294e+03
2.370000e-06	1.850912e-06	2.121945e-08	1.261860e+01	1.384568e+03
2.380000e-06	1.695290e-06	2.096037e-08	1.155765e+01	1.367848e+03
2.390000e-06	1.539113e-06	2.069081e-08	1.049292e+01	1.349789e+03
2.400000e-06	1.382394e-06	2.040728e-08	9.424482e+00	1.330306e+03
2.410000e-06	1.225151e-06	2.011006e-08	8.352472e+00	1.309608e+03
2.420000e-06	1.067361e-06	1.979842e-08	7.276739e+00	1.288110e+03
2.430000e-06	9.091162e-07	1.947167e-08	6.197905e+00	1.266239e+03
2.440000e-06	7.505671e-07	1.913115e-08	5.116995e+00	1.244211e+03
2.450000e-06	5.918052e-07	1.877535e-08	4.034635e+00	1.221885e+03
2.460000e-06	4.328442e-07	1.840599e-08	2.950918e+00	1.198738e+03
2.470000e-06	2.737395e-07	1.801688e-08	1.866221e+00	1.174010e+03
2.480000e-06	1.145261e-07	1.760433e-08	7.807821e-01	1.146948e+03
2.490000e-06	-4.472076e-08	1.716517e-08	-3.048840e-01	1.117064e+03
2.500000e-06	-2.038757e-07	1.669622e-08	-1.389924e+00	1.084289e+03
2.510000e-06	-3.629422e-07	1.618929e-08	-2.474360e+00	1.048933e+03
2.520000e-06	-5.218999e-07	1.563777e-08	-3.558055e+00	1.011464e+03
2.530000e-06	-6.806562e-07	1.503009e-08	-4.640378e+00	9.721227e+02
2.540000e-06	-8.391856e-07	1.436286e-08	-5.721153e+00	9.305459e+02
2.550000e-06	-9.974141e-07	1.363380e-08	-6.799876e+00	8.854950e+02
2.560000e-06	-1.155208e-06	1.283197e-08	-7.875640e+00	8.348258e+02
2.570000e-06	-1.312459e-06	1.193658e-08	-8.947697e+00	7.757230e+02
2.580000e-06	-1.469170e-06	1.091290e-08	-1.001608e+01	7.051551e+02
2.590000e-06	-1.625364e-06	9.712328e-09	-1.108093e+01	6.204298e+02
2.600000e-06	-1.780978e-06	8.265950e-09	-1.214183e+01	5.197075e+02
2.610000e-06	-1.935923e-06	6.498308e-09	-1.319817e+01	4.023470e+02
2.620000e-06	-2.090150e-06	4.365691e-09	-1.424961e+01	2.690238e+02
2.630000e-06	-2.243646e-06	1.961474e-09	-1.529607e+01	1.216312e+02
2.640000e-06	-2.396314e-06	-5.395632e-10	-1.633688e+01	-3.696226e+01
2.650000e-06	-2.548075e-06	-3.053622e-09	-1.737152e+01	-2.032032e+02
2.660000e-06	-2.698967e-06	-5.570172e-09	-1.840022e+01	-3.731123e+02
2.670000e-06	-2.848851e-06	-8.083735e-09	-1.942206e+01	-5.424805e+02
2.680000e-06	-2.997667e-06	-1.059329e-08	-2.043661e+01	-7.070251e+02
2.690000e-06	-3.145459e-06	-1.308607e-08	-2.144419e+01	-8.625599e+02
2.700000e-06	-3.292157e-06	-1.544073e-08	-2.244430e+01	-1.005233e+03
2.710000e-06	-3.437687e-06	-1.747082e-08	-2.343645e+01	-1.131845e+03
2.720000e-06	-3.581966e-06	-1.911234e-08	-2.442007e+01	-1.240215e+03
2.730000e-06	-3.725008e-06	-2.041392e-08	-2.539526e+01	-1.329484e+03
2.740000e-06	-3.866723e-06	-2.144095e-08	-2.636141e+01	-1.400271e+03
2.750000e-06	-4.006922e-06	-2.225152e-08	-2.731721e+01	-1.454576e+03
2.760000e-06	-4.145529e-06	-2.289480e-08	-2.826217e+01	-1.495431e+03
2.770000e-06	-4.282585e-06	-2.340951e-08	-2.919655e+01	-1.526348e+03
2.780000e-06	-4.418109e-06	-2.382397e-08	-3.012048e+01	-1.550700e+03
2.790000e-06	-4.552025e-06	-2.416474e-08	-3.103346e+01	-1.571191e+03
2.800000e-06	-4.684238e-06	-2.445327e-08	-3.193482e+01	-1.589555e+03
2.810000e-06	-4.814730e-06	-2.470247e-08	-3.282445e+01	-1.606533e+03
2.820000e-06	-4.943569e-06	-2.491737e-08	-3.370281e+01	-1.622112e+03
2.830000e-06	-5.070743e-06	-2.510222e-08	-3.456982e+01	-1.635919e+03
2.840000e-06	-5.196112e-06	-2.526434e-08	-3.542452e+01	-1.647625e+03
2.850000e-06	-5.319575e-06	-2.540876e-08	-3.626624e+01	-1.657215e+03
2.860000e-06	-5.441130e-06	-2.553892e-08	-3.709494e+01	-1.665077e+03
2.870000e-06	-5.560744e-06	-2.565750e-08	-3.791041e+01	-1.671876e+03
2.880000e-06	-5.678302e-06	-2.577062e-08	-3.871186e+01	-1.678326e+03
2.890000e-06	-5.793588e-06	-2.587903e-08	-3.949782e+01	-1.684938e+03
2.900000e-06	-5.906514e-06	-2.598010e-08	-4.026769e+01	-1.691875e+03
2.910000e-06	-6.017112e-06	-2.607311e-08	-4.102170e+01	-1.698946e+03
2.920000e-06	-6.125527e-06	-2.615668e-08	-4.176082e+01	-1.705743e+03
2.930000e-06	-6.231925e-06	-2.623326e-08	-4.248619e+01	-1.711851e+03
2.940000e-06	-6.336195e-06	-2.630624e-08	-4.319705e+01	-1.717039e+03
