# Temperatura_=_63.01
# Concentracion g/m^3_=_18700.0
# C_Vs_to_Am_M_A/Vsm_=_65563218390.804596
# pendiente_HvsI_1/m_=_3716.3
# ordenada_HvsI_A/m_=_1297.0
# frecuencia_Hz_=_301353.1890390346

Tiempo_(s)	Campo_(V.s)	Magnetizacion_(V.s)	Campo_(kA/m)	Magnetizacion_(A/m)
0.000000e+00	-8.351936e-06	-2.725673e-08	-5.693413e+01	-1.782615e+03
1.000000e-08	-8.347338e-06	-2.725829e-08	-5.690278e+01	-1.781818e+03
2.000000e-08	-8.340161e-06	-2.725459e-08	-5.685386e+01	-1.781127e+03
3.000000e-08	-8.330225e-06	-2.724533e-08	-5.678612e+01	-1.780639e+03
4.000000e-08	-8.317298e-06	-2.723171e-08	-5.669800e+01	-1.780320e+03
5.000000e-08	-8.301339e-06	-2.721392e-08	-5.658921e+01	-1.780014e+03
6.000000e-08	-8.282599e-06	-2.718658e-08	-5.646146e+01	-1.779516e+03
7.000000e-08	-8.261370e-06	-2.715899e-08	-5.631675e+01	-1.778663e+03
8.000000e-08	-8.237386e-06	-2.717101e-08	-5.615325e+01	-1.777408e+03
9.000000e-08	-8.210071e-06	-2.718117e-08	-5.596705e+01	-1.775846e+03
1.000000e-07	-8.179465e-06	-2.714238e-08	-5.575841e+01	-1.774172e+03
1.100000e-07	-8.145873e-06	-2.711027e-08	-5.552942e+01	-1.772604e+03
1.200000e-07	-8.109394e-06	-2.709026e-08	-5.528075e+01	-1.771286e+03
1.300000e-07	-8.070416e-06	-2.704200e-08	-5.501504e+01	-1.770226e+03
1.400000e-07	-8.029113e-06	-2.697924e-08	-5.473348e+01	-1.769293e+03
1.500000e-07	-7.985148e-06	-2.699068e-08	-5.443378e+01	-1.768269e+03
1.600000e-07	-7.938352e-06	-2.696321e-08	-5.411478e+01	-1.766939e+03
1.700000e-07	-7.888737e-06	-2.691124e-08	-5.377656e+01	-1.765179e+03
1.800000e-07	-7.836011e-06	-2.693346e-08	-5.341713e+01	-1.763001e+03
1.900000e-07	-7.780281e-06	-2.685394e-08	-5.303723e+01	-1.760540e+03
2.000000e-07	-7.721825e-06	-2.679397e-08	-5.263873e+01	-1.757991e+03
2.100000e-07	-7.660608e-06	-2.676557e-08	-5.222143e+01	-1.755514e+03
2.200000e-07	-7.596650e-06	-2.670749e-08	-5.178543e+01	-1.753171e+03
2.300000e-07	-7.529855e-06	-2.668663e-08	-5.133010e+01	-1.750891e+03
2.400000e-07	-7.460211e-06	-2.664822e-08	-5.085534e+01	-1.748515e+03
2.500000e-07	-7.387732e-06	-2.661537e-08	-5.036127e+01	-1.745863e+03
2.600000e-07	-7.312411e-06	-2.655490e-08	-4.984781e+01	-1.742822e+03
2.700000e-07	-7.234286e-06	-2.650458e-08	-4.931524e+01	-1.739397e+03
2.800000e-07	-7.153356e-06	-2.644228e-08	-4.876355e+01	-1.735709e+03
2.900000e-07	-7.069876e-06	-2.636722e-08	-4.819448e+01	-1.731942e+03
3.000000e-07	-6.984095e-06	-2.633643e-08	-4.760972e+01	-1.728252e+03
3.100000e-07	-6.895915e-06	-2.628363e-08	-4.700861e+01	-1.724701e+03
3.200000e-07	-6.805230e-06	-2.623119e-08	-4.639042e+01	-1.721214e+03
3.300000e-07	-6.712123e-06	-2.616832e-08	-4.575572e+01	-1.717617e+03
3.400000e-07	-6.616695e-06	-2.609104e-08	-4.510520e+01	-1.713702e+03
3.500000e-07	-6.518863e-06	-2.601264e-08	-4.443829e+01	-1.709323e+03
3.600000e-07	-6.418593e-06	-2.593320e-08	-4.375476e+01	-1.704459e+03
3.700000e-07	-6.316018e-06	-2.586170e-08	-4.305552e+01	-1.699227e+03
3.800000e-07	-6.211169e-06	-2.578896e-08	-4.234078e+01	-1.693827e+03
3.900000e-07	-6.104002e-06	-2.572414e-08	-4.161024e+01	-1.688453e+03
4.000000e-07	-5.994707e-06	-2.564511e-08	-4.086518e+01	-1.683207e+03
4.100000e-07	-5.883338e-06	-2.555487e-08	-4.010600e+01	-1.678044e+03
4.200000e-07	-5.769727e-06	-2.545515e-08	-3.933152e+01	-1.672789e+03
4.300000e-07	-5.653760e-06	-2.535172e-08	-3.854099e+01	-1.667206e+03
4.400000e-07	-5.535542e-06	-2.525522e-08	-3.773511e+01	-1.661101e+03
4.500000e-07	-5.415344e-06	-2.516061e-08	-3.691574e+01	-1.654404e+03
4.600000e-07	-5.293234e-06	-2.505934e-08	-3.608333e+01	-1.647200e+03
4.700000e-07	-5.169213e-06	-2.495420e-08	-3.523790e+01	-1.639689e+03
4.800000e-07	-5.043330e-06	-2.484904e-08	-3.437976e+01	-1.632098e+03
4.900000e-07	-4.915656e-06	-2.472842e-08	-3.350943e+01	-1.624571e+03
5.000000e-07	-4.786240e-06	-2.459958e-08	-3.262721e+01	-1.617101e+03
5.100000e-07	-4.655058e-06	-2.446980e-08	-3.173296e+01	-1.609524e+03
5.200000e-07	-4.522192e-06	-2.433967e-08	-3.082723e+01	-1.601581e+03
5.300000e-07	-4.387723e-06	-2.420716e-08	-2.991057e+01	-1.593034e+03
5.400000e-07	-4.251650e-06	-2.406665e-08	-2.898298e+01	-1.583763e+03
5.500000e-07	-4.114064e-06	-2.391761e-08	-2.804507e+01	-1.573825e+03
5.600000e-07	-3.974913e-06	-2.376570e-08	-2.709650e+01	-1.563430e+03
5.700000e-07	-3.834110e-06	-2.361067e-08	-2.613666e+01	-1.552845e+03
5.800000e-07	-3.691819e-06	-2.344648e-08	-2.516668e+01	-1.542270e+03
5.900000e-07	-3.548089e-06	-2.327706e-08	-2.418689e+01	-1.531740e+03
6.000000e-07	-3.402973e-06	-2.310600e-08	-2.319765e+01	-1.521091e+03
6.100000e-07	-3.256594e-06	-2.292939e-08	-2.219981e+01	-1.510016e+03
6.200000e-07	-3.109035e-06	-2.274063e-08	-2.119391e+01	-1.498194e+03
6.300000e-07	-2.960483e-06	-2.253998e-08	-2.018125e+01	-1.485420e+03
6.400000e-07	-2.810979e-06	-2.233446e-08	-1.916210e+01	-1.471697e+03
6.500000e-07	-2.660535e-06	-2.212603e-08	-1.813654e+01	-1.457243e+03
6.600000e-07	-2.509184e-06	-2.190771e-08	-1.710480e+01	-1.442392e+03
6.700000e-07	-2.356949e-06	-2.167922e-08	-1.606704e+01	-1.427445e+03
6.800000e-07	-2.203892e-06	-2.144340e-08	-1.502366e+01	-1.412521e+03
6.900000e-07	-2.050017e-06	-2.120209e-08	-1.397471e+01	-1.397482e+03
7.000000e-07	-1.895305e-06	-2.095224e-08	-1.292007e+01	-1.381963e+03
7.100000e-07	-1.739802e-06	-2.068792e-08	-1.186002e+01	-1.365509e+03
7.200000e-07	-1.583640e-06	-2.041126e-08	-1.079548e+01	-1.347752e+03
7.300000e-07	-1.426951e-06	-2.012396e-08	-9.727349e+00	-1.328571e+03
7.400000e-07	-1.269748e-06	-1.982551e-08	-8.655715e+00	-1.308141e+03
7.500000e-07	-1.112051e-06	-1.951327e-08	-7.580713e+00	-1.286862e+03
7.600000e-07	-9.539214e-07	-1.918726e-08	-6.502765e+00	-1.265172e+03
7.700000e-07	-7.954675e-07	-1.884821e-08	-5.422604e+00	-1.243328e+03
7.800000e-07	-6.367859e-07	-1.849649e-08	-4.340892e+00	-1.221239e+03
7.900000e-07	-4.778995e-07	-1.812657e-08	-3.257783e+00	-1.198432e+03
8.000000e-07	-3.189030e-07	-1.773153e-08	-2.173923e+00	-1.174169e+03
8.100000e-07	-1.597958e-07	-1.731454e-08	-1.089308e+00	-1.147688e+03
8.200000e-07	-6.080026e-10	-1.687578e-08	-4.144679e-03	-1.118459e+03
8.300000e-07	1.585280e-07	-1.640877e-08	1.080666e+00	-1.086355e+03
8.400000e-07	3.175900e-07	-1.590617e-08	2.164972e+00	-1.051652e+03
8.500000e-07	4.765741e-07	-1.536220e-08	3.248748e+00	-1.014816e+03
8.600000e-07	6.354104e-07	-1.476900e-08	4.331515e+00	-9.761556e+02
8.700000e-07	7.940008e-07	-1.411540e-08	5.412606e+00	-9.354228e+02
8.800000e-07	9.523699e-07	-1.339249e-08	6.492189e+00	-8.915312e+02
8.900000e-07	1.110450e-06	-1.259495e-08	7.569802e+00	-8.424830e+02
9.000000e-07	1.268108e-06	-1.170706e-08	8.644538e+00	-7.855622e+02
9.100000e-07	1.425318e-06	-1.069788e-08	9.716221e+00	-7.177545e+02
9.200000e-07	1.582000e-06	-9.518897e-09	1.078430e+01	-6.362869e+02
9.300000e-07	1.738066e-06	-8.104704e-09	1.184818e+01	-5.391462e+02
9.400000e-07	1.893459e-06	-6.378663e-09	1.290748e+01	-4.254510e+02
9.500000e-07	2.048102e-06	-4.292076e-09	1.396166e+01	-2.956069e+02
9.600000e-07	2.201939e-06	-1.941028e-09	1.501035e+01	-1.512460e+02
9.700000e-07	2.355005e-06	4.898423e-10	1.605378e+01	4.984536e+00
9.800000e-07	2.507252e-06	2.919575e-09	1.709163e+01	1.696948e+02
9.900000e-07	2.658614e-06	5.348918e-09	1.812345e+01	3.390041e+02
1.000000e-06	2.809092e-06	7.781564e-09	1.914924e+01	5.087391e+02
1.010000e-06	2.958607e-06	1.021692e-08	2.016846e+01	6.745920e+02
1.020000e-06	3.107042e-06	1.264435e-08	2.118032e+01	8.322923e+02
1.030000e-06	3.254295e-06	1.497545e-08	2.218413e+01	9.778437e+02
1.040000e-06	3.400327e-06	1.702069e-08	2.317961e+01	1.107846e+03
1.050000e-06	3.545095e-06	1.867837e-08	2.416648e+01	1.219866e+03
1.060000e-06	3.688595e-06	1.999076e-08	2.514470e+01	1.312768e+03
1.070000e-06	3.830749e-06	2.102617e-08	2.611375e+01	1.386897e+03
1.080000e-06	3.971377e-06	2.184250e-08	2.707239e+01	1.444030e+03
1.090000e-06	4.110423e-06	2.248757e-08	2.802025e+01	1.487056e+03
1.100000e-06	4.247922e-06	2.300109e-08	2.895757e+01	1.519448e+03
1.110000e-06	4.383927e-06	2.341740e-08	2.988470e+01	1.544649e+03
1.120000e-06	4.518396e-06	2.376209e-08	3.080135e+01	1.565517e+03
1.130000e-06	4.651264e-06	2.405116e-08	3.170710e+01	1.583982e+03
1.140000e-06	4.782408e-06	2.429651e-08	3.260109e+01	1.600972e+03
1.150000e-06	4.911733e-06	2.450697e-08	3.348268e+01	1.616612e+03
1.160000e-06	5.039367e-06	2.469165e-08	3.435275e+01	1.630594e+03
1.170000e-06	5.165313e-06	2.485739e-08	3.521131e+01	1.642579e+03
1.180000e-06	5.289411e-06	2.500755e-08	3.605727e+01	1.652493e+03
1.190000e-06	5.411579e-06	2.514713e-08	3.689007e+01	1.660644e+03
1.200000e-06	5.531806e-06	2.527803e-08	3.770965e+01	1.667636e+03
1.210000e-06	5.650043e-06	2.540000e-08	3.851565e+01	1.674160e+03
1.220000e-06	5.766053e-06	2.551312e-08	3.930648e+01	1.680754e+03
1.230000e-06	5.879762e-06	2.561620e-08	4.008162e+01	1.687632e+03
1.240000e-06	5.991357e-06	2.571171e-08	4.084235e+01	1.694667e+03
1.250000e-06	6.100957e-06	2.580129e-08	4.158948e+01	1.701493e+03
1.260000e-06	6.208397e-06	2.588374e-08	4.232189e+01	1.707708e+03
1.270000e-06	6.313533e-06	2.596174e-08	4.303858e+01	1.713060e+03
1.280000e-06	6.416431e-06	2.603925e-08	4.374003e+01	1.717557e+03
1.290000e-06	6.517010e-06	2.611365e-08	4.442566e+01	1.721457e+03
1.300000e-06	6.615149e-06	2.618313e-08	4.509466e+01	1.725149e+03
1.310000e-06	6.710887e-06	2.624864e-08	4.574730e+01	1.728989e+03
1.320000e-06	6.804361e-06	2.631193e-08	4.638449e+01	1.733149e+03
1.330000e-06	6.895431e-06	2.637318e-08	4.700531e+01	1.737565e+03
1.340000e-06	6.983964e-06	2.643137e-08	4.760883e+01	1.741974e+03
1.350000e-06	7.070151e-06	2.648617e-08	4.819636e+01	1.746046e+03
1.360000e-06	7.153910e-06	2.653700e-08	4.876733e+01	1.749530e+03
1.370000e-06	7.235114e-06	2.658609e-08	4.932089e+01	1.752361e+03
1.380000e-06	7.313717e-06	2.663423e-08	4.985672e+01	1.754682e+03
1.390000e-06	7.389561e-06	2.668064e-08	5.037373e+01	1.756778e+03
1.400000e-06	7.462620e-06	2.672525e-08	5.087177e+01	1.758950e+03
1.410000e-06	7.532995e-06	2.676924e-08	5.135151e+01	1.761386e+03
1.420000e-06	7.600683e-06	2.681042e-08	5.181293e+01	1.764090e+03
1.430000e-06	7.665630e-06	2.684561e-08	5.225566e+01	1.766888e+03
1.440000e-06	7.727967e-06	2.687706e-08	5.268060e+01	1.769514e+03
1.450000e-06	7.787654e-06	2.690575e-08	5.308749e+01	1.771728e+03
1.460000e-06	7.844578e-06	2.693237e-08	5.347553e+01	1.773424e+03
1.470000e-06	7.898639e-06	2.696056e-08	5.384406e+01	1.774670e+03
1.480000e-06	7.949547e-06	2.698961e-08	5.419109e+01	1.775673e+03
1.490000e-06	7.997281e-06	2.701732e-08	5.451649e+01	1.776686e+03
1.500000e-06	8.042174e-06	2.704026e-08	5.482252e+01	1.777895e+03
1.510000e-06	8.084238e-06	2.705947e-08	5.510926e+01	1.779342e+03
1.520000e-06	8.123428e-06	2.707763e-08	5.537642e+01	1.780910e+03
1.530000e-06	8.159857e-06	2.709288e-08	5.562475e+01	1.782380e+03
1.540000e-06	8.193416e-06	2.710598e-08	5.585351e+01	1.783530e+03
1.550000e-06	8.224079e-06	2.711857e-08	5.606254e+01	1.784234e+03
1.560000e-06	8.251865e-06	2.713007e-08	5.625195e+01	1.784514e+03
1.570000e-06	8.276649e-06	2.713985e-08	5.642090e+01	1.784530e+03
1.580000e-06	8.298543e-06	2.714993e-08	5.657015e+01	1.784506e+03
1.590000e-06	8.317623e-06	2.715971e-08	5.670022e+01	1.784632e+03
1.600000e-06	8.333715e-06	2.716648e-08	5.680992e+01	1.784984e+03
1.610000e-06	8.346679e-06	2.717028e-08	5.689829e+01	1.785492e+03
1.620000e-06	8.356379e-06	2.717194e-08	5.696442e+01	1.785978e+03
1.630000e-06	8.363067e-06	2.717169e-08	5.701000e+01	1.786237e+03
1.640000e-06	8.366877e-06	2.716949e-08	5.703598e+01	1.786131e+03
1.650000e-06	8.367687e-06	2.716758e-08	5.704150e+01	1.785651e+03
1.660000e-06	8.365703e-06	2.716391e-08	5.702797e+01	1.784915e+03
1.670000e-06	8.360941e-06	2.715968e-08	5.699552e+01	1.784120e+03
1.680000e-06	8.353337e-06	2.715792e-08	5.694367e+01	1.783447e+03
1.690000e-06	8.342964e-06	2.715231e-08	5.687296e+01	1.782981e+03
1.700000e-06	8.329677e-06	2.714279e-08	5.678239e+01	1.782671e+03
1.710000e-06	8.313607e-06	2.713582e-08	5.667284e+01	1.782354e+03
1.720000e-06	8.295098e-06	2.713483e-08	5.654667e+01	1.781823e+03
1.730000e-06	8.273966e-06	2.710437e-08	5.640262e+01	1.780926e+03
1.740000e-06	8.249584e-06	2.704519e-08	5.623640e+01	1.779630e+03
1.750000e-06	8.221306e-06	2.704749e-08	5.604364e+01	1.778044e+03
1.760000e-06	8.189354e-06	2.705120e-08	5.582583e+01	1.776371e+03
1.770000e-06	8.154668e-06	2.702624e-08	5.558937e+01	1.774824e+03
1.780000e-06	8.117556e-06	2.703846e-08	5.533639e+01	1.773535e+03
1.790000e-06	8.078235e-06	2.704461e-08	5.506834e+01	1.772496e+03
1.800000e-06	8.036942e-06	2.697280e-08	5.478685e+01	1.771563e+03
1.810000e-06	7.993033e-06	2.697608e-08	5.448753e+01	1.770515e+03
1.820000e-06	7.946151e-06	2.697463e-08	5.416794e+01	1.769141e+03
1.830000e-06	7.896345e-06	2.690748e-08	5.382842e+01	1.767332e+03
1.840000e-06	7.843192e-06	2.692535e-08	5.346608e+01	1.765114e+03
1.850000e-06	7.787040e-06	2.686428e-08	5.308330e+01	1.762634e+03
1.860000e-06	7.728212e-06	2.686567e-08	5.268228e+01	1.760085e+03
1.870000e-06	7.666570e-06	2.686301e-08	5.226207e+01	1.757621e+03
1.880000e-06	7.602200e-06	2.678612e-08	5.182327e+01	1.755289e+03
1.890000e-06	7.534953e-06	2.676398e-08	5.136485e+01	1.753007e+03
1.900000e-06	7.464856e-06	2.667822e-08	5.088701e+01	1.750608e+03
1.910000e-06	7.391843e-06	2.666324e-08	5.038929e+01	1.747917e+03
1.920000e-06	7.316028e-06	2.661841e-08	4.987247e+01	1.744832e+03
1.930000e-06	7.237513e-06	2.657140e-08	4.933724e+01	1.741370e+03
1.940000e-06	7.156351e-06	2.656605e-08	4.878397e+01	1.737663e+03
1.950000e-06	7.072736e-06	2.648260e-08	4.821398e+01	1.733897e+03
1.960000e-06	6.986443e-06	2.644301e-08	4.762572e+01	1.730220e+03
1.970000e-06	6.897580e-06	2.635749e-08	4.701996e+01	1.726681e+03
1.980000e-06	6.806353e-06	2.629659e-08	4.639808e+01	1.723191e+03
1.990000e-06	6.712755e-06	2.625316e-08	4.576003e+01	1.719568e+03
2.000000e-06	6.616839e-06	2.619493e-08	4.510618e+01	1.715608e+03
2.010000e-06	6.518566e-06	2.614649e-08	4.443626e+01	1.711174e+03
2.020000e-06	6.417905e-06	2.606638e-08	4.375007e+01	1.706263e+03
2.030000e-06	6.314801e-06	2.599588e-08	4.304723e+01	1.701001e+03
2.040000e-06	6.209490e-06	2.590642e-08	4.232933e+01	1.695594e+03
2.050000e-06	6.102072e-06	2.582575e-08	4.159708e+01	1.690230e+03
2.060000e-06	5.992490e-06	2.574178e-08	4.085007e+01	1.684997e+03
2.070000e-06	5.880677e-06	2.567122e-08	4.008786e+01	1.679834e+03
2.080000e-06	5.766601e-06	2.559776e-08	3.931021e+01	1.674554e+03
2.090000e-06	5.650205e-06	2.551499e-08	3.851676e+01	1.668922e+03
2.100000e-06	5.531544e-06	2.541352e-08	3.770786e+01	1.662753e+03
2.110000e-06	5.410940e-06	2.531050e-08	3.688572e+01	1.655994e+03
2.120000e-06	5.288435e-06	2.520516e-08	3.605061e+01	1.648745e+03
2.130000e-06	5.164055e-06	2.509358e-08	3.520273e+01	1.641214e+03
2.140000e-06	5.037782e-06	2.499297e-08	3.434194e+01	1.633624e+03
2.150000e-06	4.909666e-06	2.487633e-08	3.346860e+01	1.626106e+03
2.160000e-06	4.779765e-06	2.476889e-08	3.258307e+01	1.618634e+03
2.170000e-06	4.648216e-06	2.464611e-08	3.168632e+01	1.611029e+03
2.180000e-06	4.515083e-06	2.451855e-08	3.077877e+01	1.603031e+03
2.190000e-06	4.380304e-06	2.437975e-08	2.986000e+01	1.594408e+03
2.200000e-06	4.243904e-06	2.424040e-08	2.893018e+01	1.585059e+03
2.210000e-06	4.105937e-06	2.410329e-08	2.798967e+01	1.575059e+03
2.220000e-06	3.966458e-06	2.395819e-08	2.703886e+01	1.564630e+03
2.230000e-06	3.825452e-06	2.380956e-08	2.607764e+01	1.554037e+03
2.240000e-06	3.682958e-06	2.364934e-08	2.510628e+01	1.543469e+03
2.250000e-06	3.539094e-06	2.348595e-08	2.412557e+01	1.532936e+03
2.260000e-06	3.393996e-06	2.331288e-08	2.313646e+01	1.522256e+03
2.270000e-06	3.247673e-06	2.313142e-08	2.213899e+01	1.511115e+03
2.280000e-06	3.100252e-06	2.294406e-08	2.113404e+01	1.499197e+03
2.290000e-06	2.951841e-06	2.275382e-08	2.012234e+01	1.486315e+03
2.300000e-06	2.802339e-06	2.255786e-08	1.910320e+01	1.472499e+03
2.310000e-06	2.651750e-06	2.235427e-08	1.807666e+01	1.457985e+03
2.320000e-06	2.500200e-06	2.213760e-08	1.704356e+01	1.443110e+03
2.330000e-06	2.347754e-06	2.191278e-08	1.600435e+01	1.428163e+03
2.340000e-06	2.194456e-06	2.168108e-08	1.495934e+01	1.413237e+03
2.350000e-06	2.040300e-06	2.143990e-08	1.390848e+01	1.398166e+03
2.360000e-06	1.885362e-06	2.119053e-08	1.285228e+01	1.382568e+03
2.370000e-06	1.729853e-06	2.093052e-08	1.179220e+01	1.365988e+03
2.380000e-06	1.573881e-06	2.066124e-08	1.072896e+01	1.348078e+03
2.390000e-06	1.417383e-06	2.038004e-08	9.662125e+00	1.328749e+03
2.400000e-06	1.260310e-06	2.008700e-08	8.591378e+00	1.308205e+03
2.410000e-06	1.102712e-06	1.977988e-08	7.517050e+00	1.286862e+03
2.420000e-06	9.446740e-07	1.945856e-08	6.439727e+00	1.265147e+03
2.430000e-06	7.862571e-07	1.912186e-08	5.359818e+00	1.243287e+03
2.440000e-06	6.275703e-07	1.876913e-08	4.278070e+00	1.221149e+03
2.450000e-06	4.687102e-07	1.840054e-08	3.195140e+00	1.198222e+03
2.460000e-06	3.096102e-07	1.801256e-08	2.110575e+00	1.173756e+03
2.470000e-06	1.503225e-07	1.760254e-08	1.024730e+00	1.146998e+03
2.480000e-06	-8.975405e-09	1.716871e-08	-6.118424e-02	1.117458e+03
2.490000e-06	-1.681548e-07	1.670708e-08	-1.146290e+00	1.085056e+03
2.500000e-06	-3.272119e-07	1.620796e-08	-2.230563e+00	1.050100e+03
2.510000e-06	-4.861163e-07	1.566446e-08	-3.313795e+00	1.013061e+03
2.520000e-06	-6.448128e-07	1.506947e-08	-4.395610e+00	9.742016e+02
2.530000e-06	-8.033181e-07	1.441545e-08	-5.476121e+00	9.331977e+02
2.540000e-06	-9.614698e-07	1.369615e-08	-6.554222e+00	8.888633e+02
2.550000e-06	-1.119165e-06	1.290549e-08	-7.629211e+00	8.391100e+02
2.560000e-06	-1.276443e-06	1.202421e-08	-8.701354e+00	7.811664e+02
2.570000e-06	-1.433276e-06	1.101901e-08	-9.770468e+00	7.120174e+02
2.580000e-06	-1.589560e-06	9.844519e-09	-1.083583e+01	6.289482e+02
2.590000e-06	-1.745272e-06	8.435343e-09	-1.189731e+01	5.300527e+02
2.600000e-06	-1.900415e-06	6.717984e-09	-1.295489e+01	4.145840e+02
2.610000e-06	-2.054890e-06	4.632854e-09	-1.400794e+01	2.830855e+02
2.620000e-06	-2.208631e-06	2.250189e-09	-1.505597e+01	1.373098e+02
2.630000e-06	-2.361567e-06	-2.482186e-10	-1.609852e+01	-2.000300e+01
2.640000e-06	-2.513653e-06	-2.761802e-09	-1.713527e+01	-1.853992e+02
2.650000e-06	-2.664817e-06	-5.277751e-09	-1.816573e+01	-3.549584e+02
2.660000e-06	-2.814913e-06	-7.791380e-09	-1.918892e+01	-5.244855e+02
2.670000e-06	-2.963920e-06	-1.030160e-08	-2.020468e+01	-6.896676e+02
2.680000e-06	-3.111900e-06	-1.280100e-08	-2.121344e+01	-8.462508e+02
2.690000e-06	-3.258836e-06	-1.518461e-08	-2.221508e+01	-9.902859e+02
2.700000e-06	-3.404659e-06	-1.725619e-08	-2.320914e+01	-1.118459e+03
2.710000e-06	-3.549324e-06	-1.893227e-08	-2.419531e+01	-1.228460e+03
2.720000e-06	-3.692703e-06	-2.026409e-08	-2.517270e+01	-1.319308e+03
2.730000e-06	-3.834632e-06	-2.131730e-08	-2.614022e+01	-1.391510e+03
2.740000e-06	-3.975081e-06	-2.214697e-08	-2.709764e+01	-1.446979e+03
2.750000e-06	-4.113955e-06	-2.280077e-08	-2.804433e+01	-1.488695e+03
2.760000e-06	-4.251330e-06	-2.332025e-08	-2.898079e+01	-1.520159e+03
2.770000e-06	-4.387239e-06	-2.373732e-08	-2.990727e+01	-1.544774e+03
2.780000e-06	-4.521440e-06	-2.407792e-08	-3.082210e+01	-1.565313e+03
2.790000e-06	-4.653955e-06	-2.436379e-08	-3.172544e+01	-1.583593e+03
2.800000e-06	-4.784877e-06	-2.461117e-08	-3.261792e+01	-1.600444e+03
2.810000e-06	-4.914200e-06	-2.482730e-08	-3.349950e+01	-1.615925e+03
2.820000e-06	-5.041823e-06	-2.501475e-08	-3.436949e+01	-1.629709e+03
2.830000e-06	-5.167628e-06	-2.517946e-08	-3.522709e+01	-1.641470e+03
2.840000e-06	-5.291563e-06	-2.532681e-08	-3.607194e+01	-1.651174e+03
2.850000e-06	-5.413659e-06	-2.545893e-08	-3.690425e+01	-1.659169e+03
2.860000e-06	-5.533868e-06	-2.557814e-08	-3.772370e+01	-1.666080e+03
2.870000e-06	-5.651889e-06	-2.568662e-08	-3.852823e+01	-1.672592e+03
2.880000e-06	-5.767637e-06	-2.578928e-08	-3.931727e+01	-1.679213e+03
2.890000e-06	-5.881073e-06	-2.588904e-08	-4.009055e+01	-1.686121e+03
2.900000e-06	-5.992116e-06	-2.598457e-08	-4.084752e+01	-1.693154e+03
2.910000e-06	-6.100948e-06	-2.607371e-08	-4.158942e+01	-1.699933e+03
2.920000e-06	-6.207758e-06	-2.615648e-08	-4.231753e+01	-1.706065e+03
2.930000e-06	-6.312454e-06	-2.623423e-08	-4.303122e+01	-1.711321e+03
2.940000e-06	-6.414837e-06	-2.630744e-08	-4.372916e+01	-1.715739e+03
