# Temperatura_=_58.68
# Concentracion g/m^3_=_15500.0
# C_Vs_to_Am_M_A/Vsm_=_65563218390.804596
# pendiente_HvsI_1/m_=_3716.3
# ordenada_HvsI_A/m_=_1297.0
# frecuencia_Hz_=_300810.6034978587

Tiempo_(s)	Campo_(V.s)	Magnetizacion_(V.s)	Campo_(kA/m)	Magnetizacion_(A/m)
0.000000e+00	-5.492246e-06	-1.272598e-08	-3.830529e+01	-8.321019e+02
1.000000e-08	-5.490828e-06	-1.272796e-08	-3.829540e+01	-8.322705e+02
2.000000e-08	-5.487429e-06	-1.272777e-08	-3.827169e+01	-8.324521e+02
3.000000e-08	-5.482251e-06	-1.272230e-08	-3.823558e+01	-8.325714e+02
4.000000e-08	-5.475455e-06	-1.271331e-08	-3.818818e+01	-8.325481e+02
5.000000e-08	-5.466988e-06	-1.270002e-08	-3.812913e+01	-8.323077e+02
6.000000e-08	-5.456614e-06	-1.268207e-08	-3.805677e+01	-8.317932e+02
7.000000e-08	-5.444188e-06	-1.266405e-08	-3.797011e+01	-8.309725e+02
8.000000e-08	-5.429712e-06	-1.265854e-08	-3.786915e+01	-8.298438e+02
9.000000e-08	-5.412957e-06	-1.266366e-08	-3.775229e+01	-8.284354e+02
1.000000e-07	-5.393929e-06	-1.265573e-08	-3.761958e+01	-8.268022e+02
1.100000e-07	-5.372874e-06	-1.263251e-08	-3.747274e+01	-8.250176e+02
1.200000e-07	-5.349995e-06	-1.259654e-08	-3.731317e+01	-8.231635e+02
1.300000e-07	-5.325561e-06	-1.254451e-08	-3.714275e+01	-8.213184e+02
1.400000e-07	-5.299632e-06	-1.252725e-08	-3.696192e+01	-8.195461e+02
1.500000e-07	-5.271963e-06	-1.252211e-08	-3.676894e+01	-8.178864e+02
1.600000e-07	-5.242534e-06	-1.247897e-08	-3.656369e+01	-8.163492e+02
1.700000e-07	-5.211505e-06	-1.246712e-08	-3.634728e+01	-8.149125e+02
1.800000e-07	-5.178600e-06	-1.245317e-08	-3.611778e+01	-8.135245e+02
1.900000e-07	-5.143674e-06	-1.239878e-08	-3.587420e+01	-8.121107e+02
2.000000e-07	-5.107146e-06	-1.236379e-08	-3.561944e+01	-8.105835e+02
2.100000e-07	-5.069002e-06	-1.231800e-08	-3.535340e+01	-8.088537e+02
2.200000e-07	-5.029072e-06	-1.227409e-08	-3.507491e+01	-8.068425e+02
2.300000e-07	-4.987215e-06	-1.226123e-08	-3.478299e+01	-8.044926e+02
2.400000e-07	-4.943262e-06	-1.223311e-08	-3.447644e+01	-8.017751e+02
2.500000e-07	-4.897540e-06	-1.218853e-08	-3.415755e+01	-7.986942e+02
2.600000e-07	-4.850055e-06	-1.212071e-08	-3.382637e+01	-7.952861e+02
2.700000e-07	-4.800525e-06	-1.204633e-08	-3.348093e+01	-7.916143e+02
2.800000e-07	-4.748966e-06	-1.199805e-08	-3.312133e+01	-7.877607e+02
2.900000e-07	-4.695477e-06	-1.196951e-08	-3.274827e+01	-7.838139e+02
3.000000e-07	-4.640259e-06	-1.193214e-08	-3.236316e+01	-7.798576e+02
3.100000e-07	-4.583383e-06	-1.187831e-08	-3.196649e+01	-7.759583e+02
3.200000e-07	-4.524747e-06	-1.182861e-08	-3.155753e+01	-7.721561e+02
3.300000e-07	-4.464459e-06	-1.175581e-08	-3.113706e+01	-7.684590e+02
3.400000e-07	-4.402677e-06	-1.166987e-08	-3.070616e+01	-7.648412e+02
3.500000e-07	-4.339420e-06	-1.160030e-08	-3.026498e+01	-7.612469e+02
3.600000e-07	-4.274598e-06	-1.153303e-08	-2.981289e+01	-7.575976e+02
3.700000e-07	-4.208099e-06	-1.147906e-08	-2.934910e+01	-7.538028e+02
3.800000e-07	-4.139983e-06	-1.142777e-08	-2.887403e+01	-7.497728e+02
3.900000e-07	-4.070369e-06	-1.135764e-08	-2.838850e+01	-7.454309e+02
4.000000e-07	-3.999435e-06	-1.127957e-08	-2.789378e+01	-7.407248e+02
4.100000e-07	-3.927280e-06	-1.119873e-08	-2.739054e+01	-7.356337e+02
4.200000e-07	-3.853702e-06	-1.111430e-08	-2.687738e+01	-7.301716e+02
4.300000e-07	-3.778495e-06	-1.102456e-08	-2.635285e+01	-7.243857e+02
4.400000e-07	-3.701619e-06	-1.094458e-08	-2.581669e+01	-7.183499e+02
4.500000e-07	-3.623193e-06	-1.086866e-08	-2.526971e+01	-7.121543e+02
4.600000e-07	-3.543280e-06	-1.078998e-08	-2.471236e+01	-7.058923e+02
4.700000e-07	-3.461991e-06	-1.070469e-08	-2.414542e+01	-6.996467e+02
4.800000e-07	-3.379493e-06	-1.060404e-08	-2.357004e+01	-6.934775e+02
4.900000e-07	-3.295895e-06	-1.050300e-08	-2.298699e+01	-6.874120e+02
5.000000e-07	-3.211302e-06	-1.040214e-08	-2.239700e+01	-6.814395e+02
5.100000e-07	-3.125735e-06	-1.030374e-08	-2.180022e+01	-6.755111e+02
5.200000e-07	-3.039210e-06	-1.020574e-08	-2.119676e+01	-6.695454e+02
5.300000e-07	-2.951766e-06	-1.010297e-08	-2.058689e+01	-6.634384e+02
5.400000e-07	-2.863340e-06	-9.995518e-09	-1.997017e+01	-6.570768e+02
5.500000e-07	-2.773807e-06	-9.883237e-09	-1.934573e+01	-6.503537e+02
5.600000e-07	-2.683163e-06	-9.766682e-09	-1.871353e+01	-6.431833e+02
5.700000e-07	-2.591452e-06	-9.645897e-09	-1.807390e+01	-6.355128e+02
5.800000e-07	-2.498782e-06	-9.526230e-09	-1.742758e+01	-6.273312e+02
5.900000e-07	-2.405321e-06	-9.408430e-09	-1.677575e+01	-6.186707e+02
6.000000e-07	-2.311089e-06	-9.285861e-09	-1.611853e+01	-6.096035e+02
6.100000e-07	-2.216024e-06	-9.153209e-09	-1.545550e+01	-6.002317e+02
6.200000e-07	-2.120189e-06	-9.012346e-09	-1.478711e+01	-5.906726e+02
6.300000e-07	-2.023623e-06	-8.868002e-09	-1.411362e+01	-5.810418e+02
6.400000e-07	-1.926254e-06	-8.723233e-09	-1.343452e+01	-5.714345e+02
6.500000e-07	-1.828046e-06	-8.577011e-09	-1.274958e+01	-5.619093e+02
6.600000e-07	-1.729088e-06	-8.430710e-09	-1.205940e+01	-5.524769e+02
6.700000e-07	-1.629498e-06	-8.283360e-09	-1.136482e+01	-5.430935e+02
6.800000e-07	-1.529310e-06	-8.128465e-09	-1.066606e+01	-5.336626e+02
6.900000e-07	-1.428606e-06	-7.962267e-09	-9.963714e+00	-5.240442e+02
7.000000e-07	-1.327496e-06	-7.786698e-09	-9.258531e+00	-5.140697e+02
7.100000e-07	-1.225972e-06	-7.607486e-09	-8.550455e+00	-5.035630e+02
7.200000e-07	-1.124001e-06	-7.425069e-09	-7.839266e+00	-4.923625e+02
7.300000e-07	-1.021615e-06	-7.240596e-09	-7.125180e+00	-4.803435e+02
7.400000e-07	-9.188561e-07	-7.055953e-09	-6.408498e+00	-4.674355e+02
7.500000e-07	-8.157441e-07	-6.865103e-09	-5.689351e+00	-4.536341e+02
7.600000e-07	-7.123615e-07	-6.661607e-09	-4.968316e+00	-4.390028e+02
7.700000e-07	-6.087825e-07	-6.443580e-09	-4.245911e+00	-4.236656e+02
7.800000e-07	-5.050595e-07	-6.216568e-09	-3.522502e+00	-4.077895e+02
7.900000e-07	-4.012056e-07	-5.986471e-09	-2.798180e+00	-3.915587e+02
8.000000e-07	-2.972102e-07	-5.750993e-09	-2.072872e+00	-3.751431e+02
8.100000e-07	-1.931166e-07	-5.504258e-09	-1.346878e+00	-3.586644e+02
8.200000e-07	-8.892275e-08	-5.246258e-09	-6.201855e-01	-3.421643e+02
8.300000e-07	1.535416e-08	-4.976990e-09	1.070865e-01	-3.255785e+02
8.400000e-07	1.196095e-07	-4.692615e-09	8.342078e-01	-3.087211e+02
8.500000e-07	2.237958e-07	-4.392241e-09	1.560848e+00	-2.912816e+02
8.600000e-07	3.278705e-07	-4.078530e-09	2.286710e+00	-2.728359e+02
8.700000e-07	4.317958e-07	-3.749067e-09	3.011530e+00	-2.528732e+02
8.800000e-07	5.356029e-07	-3.394441e-09	3.735525e+00	-2.308339e+02
8.900000e-07	6.393044e-07	-3.011848e-09	4.458784e+00	-2.061594e+02
9.000000e-07	7.428010e-07	-2.602739e-09	5.180614e+00	-1.783456e+02
9.100000e-07	8.460193e-07	-2.162558e-09	5.900503e+00	-1.469984e+02
9.200000e-07	9.489715e-07	-1.679129e-09	6.618536e+00	-1.118821e+02
9.300000e-07	1.051592e-06	-1.139766e-09	7.334255e+00	-7.295873e+01
9.400000e-07	1.153844e-06	-5.382962e-10	8.047407e+00	-3.041141e+01
9.500000e-07	1.255688e-06	1.323661e-10	8.757711e+00	1.534950e+01
9.600000e-07	1.357126e-06	8.838828e-10	9.465184e+00	6.370015e+01
9.700000e-07	1.458177e-06	1.707428e-09	1.016996e+01	1.138354e+02
9.800000e-07	1.558776e-06	2.565903e-09	1.087157e+01	1.648172e+02
9.900000e-07	1.658837e-06	3.415446e-09	1.156944e+01	2.156355e+02
1.000000e-06	1.758261e-06	4.222497e-09	1.226287e+01	2.652751e+02
1.010000e-06	1.856960e-06	4.963126e-09	1.295124e+01	3.127846e+02
1.020000e-06	1.954873e-06	5.618799e-09	1.363413e+01	3.573380e+02
1.030000e-06	2.051962e-06	6.187637e-09	1.431126e+01	3.982873e+02
1.040000e-06	2.148243e-06	6.683731e-09	1.498277e+01	4.351980e+02
1.050000e-06	2.243822e-06	7.124535e-09	1.564938e+01	4.678668e+02
1.060000e-06	2.338736e-06	7.517758e-09	1.631135e+01	4.963199e+02
1.070000e-06	2.432830e-06	7.862040e-09	1.696760e+01	5.207923e+02
1.080000e-06	2.526077e-06	8.167095e-09	1.761795e+01	5.416914e+02
1.090000e-06	2.618543e-06	8.447127e-09	1.826285e+01	5.595486e+02
1.100000e-06	2.710127e-06	8.708202e-09	1.890159e+01	5.749640e+02
1.110000e-06	2.800581e-06	8.947445e-09	1.953246e+01	5.885501e+02
1.120000e-06	2.889856e-06	9.165744e-09	2.015510e+01	6.008801e+02
1.130000e-06	2.978124e-06	9.371187e-09	2.077072e+01	6.124445e+02
1.140000e-06	3.065411e-06	9.563517e-09	2.137949e+01	6.236212e+02
1.150000e-06	3.151671e-06	9.739829e-09	2.198111e+01	6.346590e+02
1.160000e-06	3.236916e-06	9.900552e-09	2.257564e+01	6.456772e+02
1.170000e-06	3.321167e-06	1.005046e-08	2.316325e+01	6.566781e+02
1.180000e-06	3.404283e-06	1.019804e-08	2.374293e+01	6.675711e+02
1.190000e-06	3.486101e-06	1.034472e-08	2.431357e+01	6.782037e+02
1.200000e-06	3.566620e-06	1.048388e-08	2.487515e+01	6.883966e+02
1.210000e-06	3.645889e-06	1.061483e-08	2.542800e+01	6.979765e+02
1.220000e-06	3.723884e-06	1.073938e-08	2.597197e+01	7.068054e+02
1.230000e-06	3.800534e-06	1.085541e-08	2.650656e+01	7.148009e+02
1.240000e-06	3.875678e-06	1.096008e-08	2.703064e+01	7.219479e+02
1.250000e-06	3.949173e-06	1.105493e-08	2.754323e+01	7.282988e+02
1.260000e-06	4.021205e-06	1.114589e-08	2.804561e+01	7.339658e+02
1.270000e-06	4.091847e-06	1.123856e-08	2.853830e+01	7.391040e+02
1.280000e-06	4.161079e-06	1.133211e-08	2.902116e+01	7.438908e+02
1.290000e-06	4.228941e-06	1.142203e-08	2.949446e+01	7.485025e+02
1.300000e-06	4.295177e-06	1.150510e-08	2.995641e+01	7.530931e+02
1.310000e-06	4.359741e-06	1.158183e-08	3.040671e+01	7.577763e+02
1.320000e-06	4.422834e-06	1.165483e-08	3.084675e+01	7.626144e+02
1.330000e-06	4.484536e-06	1.172365e-08	3.127708e+01	7.676140e+02
1.340000e-06	4.544884e-06	1.178852e-08	3.169798e+01	7.727297e+02
1.350000e-06	4.603568e-06	1.185128e-08	3.210726e+01	7.778740e+02
1.360000e-06	4.660394e-06	1.191583e-08	3.250359e+01	7.829325e+02
1.370000e-06	4.715551e-06	1.198182e-08	3.288828e+01	7.877819e+02
1.380000e-06	4.769045e-06	1.204333e-08	3.326138e+01	7.923079e+02
1.390000e-06	4.820628e-06	1.209726e-08	3.362113e+01	7.964214e+02
1.400000e-06	4.870130e-06	1.214608e-08	3.396638e+01	8.000698e+02
1.410000e-06	4.917752e-06	1.219509e-08	3.429852e+01	8.032438e+02
1.420000e-06	4.963738e-06	1.224370e-08	3.461924e+01	8.059767e+02
1.430000e-06	5.008133e-06	1.228691e-08	3.492888e+01	8.083387e+02
1.440000e-06	5.050680e-06	1.232525e-08	3.522562e+01	8.104265e+02
1.450000e-06	5.091274e-06	1.236460e-08	3.550874e+01	8.123485e+02
1.460000e-06	5.130134e-06	1.240559e-08	3.577976e+01	8.142104e+02
1.470000e-06	5.167366e-06	1.244236e-08	3.603943e+01	8.161005e+02
1.480000e-06	5.202829e-06	1.247491e-08	3.628677e+01	8.180784e+02
1.490000e-06	5.236316e-06	1.250612e-08	3.652032e+01	8.201683e+02
1.500000e-06	5.267951e-06	1.253585e-08	3.674096e+01	8.223567e+02
1.510000e-06	5.297862e-06	1.256144e-08	3.694957e+01	8.245959e+02
1.520000e-06	5.326011e-06	1.258142e-08	3.714590e+01	8.268124e+02
1.530000e-06	5.352187e-06	1.260065e-08	3.732845e+01	8.289177e+02
1.540000e-06	5.376290e-06	1.262209e-08	3.749656e+01	8.308221e+02
1.550000e-06	5.398530e-06	1.264247e-08	3.765168e+01	8.324473e+02
1.560000e-06	5.419041e-06	1.265884e-08	3.779473e+01	8.337379e+02
1.570000e-06	5.437691e-06	1.267247e-08	3.792480e+01	8.346685e+02
1.580000e-06	5.454354e-06	1.268664e-08	3.804101e+01	8.352476e+02
1.590000e-06	5.469041e-06	1.269918e-08	3.814344e+01	8.355157e+02
1.600000e-06	5.481635e-06	1.270624e-08	3.823128e+01	8.355394e+02
1.610000e-06	5.491959e-06	1.271061e-08	3.830329e+01	8.354018e+02
1.620000e-06	5.500188e-06	1.271776e-08	3.836068e+01	8.351907e+02
1.630000e-06	5.506609e-06	1.272536e-08	3.840546e+01	8.349866e+02
1.640000e-06	5.511226e-06	1.272751e-08	3.843766e+01	8.348514e+02
1.650000e-06	5.513825e-06	1.272593e-08	3.845579e+01	8.348202e+02
1.660000e-06	5.514429e-06	1.272528e-08	3.846000e+01	8.348972e+02
1.670000e-06	5.513283e-06	1.272573e-08	3.845201e+01	8.350551e+02
1.680000e-06	5.510435e-06	1.272224e-08	3.843215e+01	8.352403e+02
1.690000e-06	5.505726e-06	1.271238e-08	3.839930e+01	8.353801e+02
1.700000e-06	5.499049e-06	1.270081e-08	3.835274e+01	8.353944e+02
1.710000e-06	5.490624e-06	1.269257e-08	3.829398e+01	8.352066e+02
1.720000e-06	5.480577e-06	1.268554e-08	3.822391e+01	8.347549e+02
1.730000e-06	5.468686e-06	1.267510e-08	3.814097e+01	8.340015e+02
1.740000e-06	5.454756e-06	1.264661e-08	3.804382e+01	8.329378e+02
1.750000e-06	5.438765e-06	1.261397e-08	3.793229e+01	8.315860e+02
1.760000e-06	5.420372e-06	1.258790e-08	3.780401e+01	8.299957e+02
1.770000e-06	5.399248e-06	1.257434e-08	3.765668e+01	8.282372e+02
1.780000e-06	5.375841e-06	1.258317e-08	3.749343e+01	8.263916e+02
1.790000e-06	5.351191e-06	1.257591e-08	3.732151e+01	8.245389e+02
1.800000e-06	5.325770e-06	1.253270e-08	3.714421e+01	8.227472e+02
1.810000e-06	5.298751e-06	1.250274e-08	3.695577e+01	8.210619e+02
1.820000e-06	5.269391e-06	1.248695e-08	3.675100e+01	8.194997e+02
1.830000e-06	5.238238e-06	1.246098e-08	3.653373e+01	8.180453e+02
1.840000e-06	5.205420e-06	1.244828e-08	3.630484e+01	8.166529e+02
1.850000e-06	5.170747e-06	1.243981e-08	3.606301e+01	8.152522e+02
1.860000e-06	5.134443e-06	1.241998e-08	3.580982e+01	8.137574e+02
1.870000e-06	5.096171e-06	1.238298e-08	3.554289e+01	8.120786e+02
1.880000e-06	5.055997e-06	1.233307e-08	3.526270e+01	8.101339e+02
1.890000e-06	5.014231e-06	1.227239e-08	3.497140e+01	8.078604e+02
1.900000e-06	4.970636e-06	1.221562e-08	3.466736e+01	8.052229e+02
1.910000e-06	4.925271e-06	1.219603e-08	3.435096e+01	8.022183e+02
1.920000e-06	4.878088e-06	1.218482e-08	3.402189e+01	7.988763e+02
1.930000e-06	4.829040e-06	1.215215e-08	3.367981e+01	7.952551e+02
1.940000e-06	4.778278e-06	1.208540e-08	3.332577e+01	7.914334e+02
1.950000e-06	4.725457e-06	1.200312e-08	3.295737e+01	7.874996e+02
1.960000e-06	4.670700e-06	1.195593e-08	3.257547e+01	7.835395e+02
1.970000e-06	4.614233e-06	1.188807e-08	3.218165e+01	7.796240e+02
1.980000e-06	4.556094e-06	1.183348e-08	3.177616e+01	7.757996e+02
1.990000e-06	4.496481e-06	1.181472e-08	3.136039e+01	7.720814e+02
2.000000e-06	4.435218e-06	1.175209e-08	3.093312e+01	7.684509e+02
2.010000e-06	4.372279e-06	1.169441e-08	3.049416e+01	7.648580e+02
2.020000e-06	4.307767e-06	1.161421e-08	3.004422e+01	7.612283e+02
2.030000e-06	4.241804e-06	1.152328e-08	2.958417e+01	7.574729e+02
2.040000e-06	4.174352e-06	1.146285e-08	2.911373e+01	7.535008e+02
2.050000e-06	4.105179e-06	1.138999e-08	2.863129e+01	7.492316e+02
2.060000e-06	4.034454e-06	1.133030e-08	2.813802e+01	7.446069e+02
2.070000e-06	3.962351e-06	1.125544e-08	2.763514e+01	7.395987e+02
2.080000e-06	3.888891e-06	1.118284e-08	2.712280e+01	7.342136e+02
2.090000e-06	3.813914e-06	1.110871e-08	2.659988e+01	7.284921e+02
2.100000e-06	3.737290e-06	1.101442e-08	2.606547e+01	7.225031e+02
2.110000e-06	3.659199e-06	1.093094e-08	2.552083e+01	7.163343e+02
2.120000e-06	3.579755e-06	1.083862e-08	2.496675e+01	7.100793e+02
2.130000e-06	3.499103e-06	1.076057e-08	2.440425e+01	7.038247e+02
2.140000e-06	3.417324e-06	1.067517e-08	2.383389e+01	6.976361e+02
2.150000e-06	3.334377e-06	1.058126e-08	2.325538e+01	6.915484e+02
2.160000e-06	3.250222e-06	1.049015e-08	2.266845e+01	6.855592e+02
2.170000e-06	3.164774e-06	1.038579e-08	2.207250e+01	6.796276e+02
2.180000e-06	3.078098e-06	1.028404e-08	2.146798e+01	6.736786e+02
2.190000e-06	2.990366e-06	1.017659e-08	2.085610e+01	6.676117e+02
2.200000e-06	2.901704e-06	1.006678e-08	2.023773e+01	6.613146e+02
2.210000e-06	2.812118e-06	9.963446e-09	1.961292e+01	6.546776e+02
2.220000e-06	2.721576e-06	9.860091e-09	1.898144e+01	6.476091e+02
2.230000e-06	2.630113e-06	9.746441e-09	1.834354e+01	6.400487e+02
2.240000e-06	2.537679e-06	9.622813e-09	1.769887e+01	6.319758e+02
2.250000e-06	2.444222e-06	9.494819e-09	1.704705e+01	6.234136e+02
2.260000e-06	2.349805e-06	9.372608e-09	1.638855e+01	6.144262e+02
2.270000e-06	2.254562e-06	9.251430e-09	1.572428e+01	6.051105e+02
2.280000e-06	2.158554e-06	9.127059e-09	1.505468e+01	5.955819e+02
2.290000e-06	2.061814e-06	8.997592e-09	1.437998e+01	5.859579e+02
2.300000e-06	1.964423e-06	8.859089e-09	1.370073e+01	5.763396e+02
2.310000e-06	1.866423e-06	8.716104e-09	1.301724e+01	5.667946e+02
2.320000e-06	1.767885e-06	8.561427e-09	1.232999e+01	5.573446e+02
2.330000e-06	1.668874e-06	8.402608e-09	1.163944e+01	5.479575e+02
2.340000e-06	1.569331e-06	8.244525e-09	1.094519e+01	5.385478e+02
2.350000e-06	1.469142e-06	8.087417e-09	1.024643e+01	5.289835e+02
2.360000e-06	1.368284e-06	7.929489e-09	9.543003e+00	5.191006e+02
2.370000e-06	1.266858e-06	7.762181e-09	8.835610e+00	5.087229e+02
2.380000e-06	1.164942e-06	7.584477e-09	8.124804e+00	4.976836e+02
2.390000e-06	1.062550e-06	7.396744e-09	7.410682e+00	4.858484e+02
2.400000e-06	9.597292e-07	7.203849e-09	6.693565e+00	4.731340e+02
2.410000e-06	8.564973e-07	7.007614e-09	5.973581e+00	4.595215e+02
2.420000e-06	7.528942e-07	6.806029e-09	5.251008e+00	4.450599e+02
2.430000e-06	6.490784e-07	6.596964e-09	4.526952e+00	4.298614e+02
2.440000e-06	5.450804e-07	6.378227e-09	3.801625e+00	4.140858e+02
2.450000e-06	4.409011e-07	6.150049e-09	3.075034e+00	3.979162e+02
2.460000e-06	3.365942e-07	5.911863e-09	2.347553e+00	3.815282e+02
2.470000e-06	2.321980e-07	5.663180e-09	1.619449e+00	3.650569e+02
2.480000e-06	1.277684e-07	5.406881e-09	8.911120e-01	3.485633e+02
2.490000e-06	2.331298e-08	5.139569e-09	1.625948e-01	3.320076e+02
2.500000e-06	-8.113886e-08	4.859423e-09	-5.658973e-01	3.152309e+02
2.510000e-06	-1.855678e-07	4.566363e-09	-1.294230e+00	2.979486e+02
2.520000e-06	-2.899723e-07	4.256757e-09	-2.022392e+00	2.797596e+02
2.530000e-06	-3.942673e-07	3.928687e-09	-2.749790e+00	2.601685e+02
2.540000e-06	-4.984276e-07	3.577916e-09	-3.476249e+00	2.386225e+02
2.550000e-06	-6.024733e-07	3.206923e-09	-4.201908e+00	2.145582e+02
2.560000e-06	-7.062669e-07	2.815576e-09	-4.925809e+00	1.874554e+02
2.570000e-06	-8.097489e-07	2.391011e-09	-5.647537e+00	1.568917e+02
2.580000e-06	-9.129346e-07	1.921925e-09	-6.367199e+00	1.225939e+02
2.590000e-06	-1.015701e-06	1.400840e-09	-7.083937e+00	8.447908e+01
2.600000e-06	-1.118026e-06	8.187933e-10	-7.797594e+00	4.268188e+01
2.610000e-06	-1.219913e-06	1.663344e-10	-8.508200e+00	-2.435569e+00
2.620000e-06	-1.321239e-06	-5.642235e-10	-9.214886e+00	-5.029308e+01
2.630000e-06	-1.421983e-06	-1.365292e-09	-9.917519e+00	-1.001208e+02
2.640000e-06	-1.522160e-06	-2.213957e-09	-1.061620e+01	-1.510043e+02
2.650000e-06	-1.621729e-06	-3.076118e-09	-1.131064e+01	-2.019435e+02
2.660000e-06	-1.720700e-06	-3.910287e-09	-1.200091e+01	-2.519186e+02
2.670000e-06	-1.819133e-06	-4.681502e-09	-1.268742e+01	-2.999587e+02
2.680000e-06	-1.917003e-06	-5.369765e-09	-1.337001e+01	-3.452064e+02
2.690000e-06	-2.014201e-06	-5.972033e-09	-1.404791e+01	-3.869719e+02
2.700000e-06	-2.110783e-06	-6.495657e-09	-1.472151e+01	-4.247726e+02
2.710000e-06	-2.206768e-06	-6.953312e-09	-1.539095e+01	-4.583553e+02
2.720000e-06	-2.302113e-06	-7.359843e-09	-1.605593e+01	-4.876982e+02
2.730000e-06	-2.396707e-06	-7.724812e-09	-1.671566e+01	-5.129941e+02
2.740000e-06	-2.490309e-06	-8.052584e-09	-1.736849e+01	-5.346172e+02
2.750000e-06	-2.582897e-06	-8.347094e-09	-1.801424e+01	-5.530768e+02
2.760000e-06	-2.674436e-06	-8.612765e-09	-1.865267e+01	-5.689629e+02
2.770000e-06	-2.764945e-06	-8.853451e-09	-1.928392e+01	-5.828903e+02
2.780000e-06	-2.854462e-06	-9.075824e-09	-1.990824e+01	-5.954443e+02
2.790000e-06	-2.942991e-06	-9.286140e-09	-2.052569e+01	-6.071364e+02
2.800000e-06	-3.030596e-06	-9.484403e-09	-2.113668e+01	-6.183702e+02
2.810000e-06	-3.117152e-06	-9.670588e-09	-2.174036e+01	-6.294230e+02
2.820000e-06	-3.202479e-06	-9.844631e-09	-2.233547e+01	-6.404411e+02
2.830000e-06	-3.286529e-06	-1.000546e-08	-2.292167e+01	-6.514501e+02
2.840000e-06	-3.369437e-06	-1.015472e-08	-2.349990e+01	-6.623770e+02
2.850000e-06	-3.451298e-06	-1.029567e-08	-2.407084e+01	-6.730798e+02
2.860000e-06	-3.532035e-06	-1.042962e-08	-2.463393e+01	-6.833817e+02
2.870000e-06	-3.611563e-06	-1.055618e-08	-2.518860e+01	-6.931057e+02
2.880000e-06	-3.689695e-06	-1.067858e-08	-2.573352e+01	-7.021041e+02
2.890000e-06	-3.766260e-06	-1.079805e-08	-2.626752e+01	-7.102815e+02
2.900000e-06	-3.841308e-06	-1.091216e-08	-2.679093e+01	-7.176076e+02
2.910000e-06	-3.914933e-06	-1.101727e-08	-2.730443e+01	-7.241211e+02
2.920000e-06	-3.987240e-06	-1.111153e-08	-2.780873e+01	-7.299223e+02
2.930000e-06	-4.058218e-06	-1.120244e-08	-2.830376e+01	-7.351589e+02
2.940000e-06	-4.127645e-06	-1.129428e-08	-2.878797e+01	-7.400053e+02
