# Temperatura_=_25.84
# Concentracion g/m^3_=_15500.0
# C_Vs_to_Am_M_A/Vsm_=_65563218390.804596
# pendiente_HvsI_1/m_=_3716.3
# ordenada_HvsI_A/m_=_1297.0
# frecuencia_Hz_=_300816.63583622704

Tiempo_(s)	Campo_(V.s)	Magnetizacion_(V.s)	Campo_(kA/m)	Magnetizacion_(A/m)
0.000000e+00	-5.509825e-06	-1.200121e-08	-3.830504e+01	-7.848042e+02
1.000000e-08	-5.508551e-06	-1.200019e-08	-3.829619e+01	-7.847760e+02
2.000000e-08	-5.505288e-06	-1.199770e-08	-3.827351e+01	-7.848069e+02
3.000000e-08	-5.500195e-06	-1.199373e-08	-3.823810e+01	-7.848501e+02
4.000000e-08	-5.493451e-06	-1.198815e-08	-3.819121e+01	-7.848445e+02
5.000000e-08	-5.485133e-06	-1.197702e-08	-3.813339e+01	-7.847238e+02
6.000000e-08	-5.475019e-06	-1.196106e-08	-3.806307e+01	-7.844263e+02
7.000000e-08	-5.462784e-06	-1.194182e-08	-3.797801e+01	-7.839036e+02
8.000000e-08	-5.448479e-06	-1.192611e-08	-3.787856e+01	-7.831276e+02
9.000000e-08	-5.431848e-06	-1.194813e-08	-3.776294e+01	-7.820948e+02
1.000000e-07	-5.412834e-06	-1.195762e-08	-3.763076e+01	-7.808264e+02
1.100000e-07	-5.391801e-06	-1.191640e-08	-3.748453e+01	-7.793655e+02
1.200000e-07	-5.368902e-06	-1.188710e-08	-3.732533e+01	-7.777709e+02
1.300000e-07	-5.344432e-06	-1.183345e-08	-3.715521e+01	-7.761085e+02
1.400000e-07	-5.318535e-06	-1.178702e-08	-3.697517e+01	-7.744419e+02
1.500000e-07	-5.290885e-06	-1.185091e-08	-3.678294e+01	-7.728229e+02
1.600000e-07	-5.261398e-06	-1.178720e-08	-3.657795e+01	-7.712840e+02
1.700000e-07	-5.230342e-06	-1.172964e-08	-3.636205e+01	-7.698335e+02
1.800000e-07	-5.197487e-06	-1.180240e-08	-3.613363e+01	-7.684532e+02
1.900000e-07	-5.162539e-06	-1.171575e-08	-3.589067e+01	-7.671009e+02
2.000000e-07	-5.125933e-06	-1.167380e-08	-3.563618e+01	-7.657156e+02
2.100000e-07	-5.087714e-06	-1.167970e-08	-3.537047e+01	-7.642257e+02
2.200000e-07	-5.047672e-06	-1.158199e-08	-3.509210e+01	-7.625583e+02
2.300000e-07	-5.005693e-06	-1.159247e-08	-3.480026e+01	-7.606492e+02
2.400000e-07	-4.961694e-06	-1.159619e-08	-3.449437e+01	-7.584519e+02
2.500000e-07	-4.915934e-06	-1.151803e-08	-3.417624e+01	-7.559438e+02
2.600000e-07	-4.868424e-06	-1.149634e-08	-3.384594e+01	-7.531294e+02
2.700000e-07	-4.818885e-06	-1.142240e-08	-3.350154e+01	-7.500399e+02
2.800000e-07	-4.767249e-06	-1.136286e-08	-3.314256e+01	-7.467290e+02
2.900000e-07	-4.713672e-06	-1.134838e-08	-3.277008e+01	-7.432653e+02
3.000000e-07	-4.658429e-06	-1.130524e-08	-3.238602e+01	-7.397233e+02
3.100000e-07	-4.601584e-06	-1.125055e-08	-3.199083e+01	-7.361723e+02
3.200000e-07	-4.542908e-06	-1.121563e-08	-3.158291e+01	-7.326673e+02
3.300000e-07	-4.482500e-06	-1.118165e-08	-3.116294e+01	-7.292408e+02
3.400000e-07	-4.420598e-06	-1.108746e-08	-3.073259e+01	-7.258978e+02
3.500000e-07	-4.357215e-06	-1.102072e-08	-3.029195e+01	-7.226150e+02
3.600000e-07	-4.292287e-06	-1.097417e-08	-2.984056e+01	-7.193433e+02
3.700000e-07	-4.225742e-06	-1.090622e-08	-2.937792e+01	-7.160143e+02
3.800000e-07	-4.157531e-06	-1.086963e-08	-2.890371e+01	-7.125494e+02
3.900000e-07	-4.087796e-06	-1.081379e-08	-2.841891e+01	-7.088706e+02
4.000000e-07	-4.016755e-06	-1.074065e-08	-2.792502e+01	-7.049109e+02
4.100000e-07	-3.944402e-06	-1.067742e-08	-2.742201e+01	-7.006238e+02
4.200000e-07	-3.870598e-06	-1.059934e-08	-2.690892e+01	-6.959899e+02
4.300000e-07	-3.795145e-06	-1.051783e-08	-2.638436e+01	-6.910194e+02
4.400000e-07	-3.718050e-06	-1.043658e-08	-2.584839e+01	-6.857509e+02
4.500000e-07	-3.639469e-06	-1.037003e-08	-2.530208e+01	-6.802462e+02
4.600000e-07	-3.559385e-06	-1.030321e-08	-2.474532e+01	-6.745813e+02
4.700000e-07	-3.477909e-06	-1.022863e-08	-2.417889e+01	-6.688358e+02
4.800000e-07	-3.395234e-06	-1.014511e-08	-2.360413e+01	-6.630807e+02
4.900000e-07	-3.311437e-06	-1.005027e-08	-2.302156e+01	-6.573680e+02
5.000000e-07	-3.226604e-06	-9.961763e-09	-2.243178e+01	-6.517224e+02
5.100000e-07	-3.140817e-06	-9.866299e-09	-2.183539e+01	-6.461362e+02
5.200000e-07	-3.054077e-06	-9.771502e-09	-2.123236e+01	-6.405693e+02
5.300000e-07	-2.966369e-06	-9.678948e-09	-2.062259e+01	-6.349534e+02
5.400000e-07	-2.877667e-06	-9.583432e-09	-2.000593e+01	-6.292003e+02
5.500000e-07	-2.787893e-06	-9.485177e-09	-1.938181e+01	-6.232132e+02
5.600000e-07	-2.697023e-06	-9.378594e-09	-1.875007e+01	-6.168995e+02
5.700000e-07	-2.605046e-06	-9.269325e-09	-1.811063e+01	-6.101837e+02
5.800000e-07	-2.512098e-06	-9.157895e-09	-1.746444e+01	-6.030177e+02
5.900000e-07	-2.418371e-06	-9.047623e-09	-1.681284e+01	-5.953877e+02
6.000000e-07	-2.323863e-06	-8.931756e-09	-1.615581e+01	-5.873170e+02
6.100000e-07	-2.228598e-06	-8.811304e-09	-1.549351e+01	-5.788622e+02
6.200000e-07	-2.132612e-06	-8.687977e-09	-1.482620e+01	-5.701058e+02
6.300000e-07	-2.035811e-06	-8.558741e-09	-1.415323e+01	-5.611442e+02
6.400000e-07	-1.938162e-06	-8.426762e-09	-1.347436e+01	-5.520724e+02
6.500000e-07	-1.839711e-06	-8.289191e-09	-1.278992e+01	-5.429696e+02
6.600000e-07	-1.740494e-06	-8.147952e-09	-1.210015e+01	-5.338846e+02
6.700000e-07	-1.640626e-06	-8.005209e-09	-1.140585e+01	-5.248260e+02
6.800000e-07	-1.540209e-06	-7.862261e-09	-1.070774e+01	-5.157567e+02
6.900000e-07	-1.439288e-06	-7.711133e-09	-1.000612e+01	-5.065951e+02
7.000000e-07	-1.337869e-06	-7.549774e-09	-9.301044e+00	-4.972220e+02
7.100000e-07	-1.236002e-06	-7.383599e-09	-8.592853e+00	-4.874938e+02
7.200000e-07	-1.133769e-06	-7.212996e-09	-7.882116e+00	-4.772590e+02
7.300000e-07	-1.031114e-06	-7.039826e-09	-7.168444e+00	-4.663780e+02
7.400000e-07	-9.280632e-07	-6.865025e-09	-6.452020e+00	-4.547409e+02
7.500000e-07	-8.246856e-07	-6.683828e-09	-5.733326e+00	-4.422835e+02
7.600000e-07	-7.210069e-07	-6.490304e-09	-5.012537e+00	-4.289965e+02
7.700000e-07	-6.171233e-07	-6.285691e-09	-4.290324e+00	-4.149284e+02
7.800000e-07	-5.130530e-07	-6.072425e-09	-3.566814e+00	-4.001792e+02
7.900000e-07	-4.087917e-07	-5.852943e-09	-2.841975e+00	-3.848862e+02
8.000000e-07	-3.043953e-07	-5.629687e-09	-2.116197e+00	-3.692024e+02
8.100000e-07	-1.998850e-07	-5.401138e-09	-1.389627e+00	-3.532703e+02
8.200000e-07	-9.529957e-08	-5.162517e-09	-6.625355e-01	-3.371928e+02
8.300000e-07	9.301383e-09	-4.912231e-09	6.466447e-02	-3.210066e+02
8.400000e-07	1.138939e-07	-4.649401e-09	7.918057e-01	-3.046598e+02
8.500000e-07	2.184712e-07	-4.372449e-09	1.518841e+00	-2.879982e+02
8.600000e-07	3.229349e-07	-4.081310e-09	2.245087e+00	-2.707618e+02
8.700000e-07	4.272211e-07	-3.773397e-09	2.970099e+00	-2.525942e+02
8.800000e-07	5.313885e-07	-3.448298e-09	3.694285e+00	-2.330639e+02
8.900000e-07	6.354149e-07	-3.107253e-09	4.417490e+00	-2.116972e+02
9.000000e-07	7.392227e-07	-2.748619e-09	5.139176e+00	-1.880190e+02
9.100000e-07	8.427460e-07	-2.364824e-09	5.858884e+00	-1.615988e+02
9.200000e-07	9.459951e-07	-1.947068e-09	6.576686e+00	-1.320977e+02
9.300000e-07	1.048956e-06	-1.486867e-09	7.292481e+00	-9.931053e+01
9.400000e-07	1.151531e-06	-9.795282e-10	8.005599e+00	-6.319960e+01
9.500000e-07	1.253711e-06	-4.182271e-10	8.715969e+00	-2.391590e+01
9.600000e-07	1.355495e-06	2.086791e-10	9.423584e+00	1.819474e+01
9.700000e-07	1.456824e-06	9.011450e-10	1.012804e+01	6.260202e+01
9.800000e-07	1.557659e-06	1.645411e-09	1.082906e+01	1.086174e+02
9.900000e-07	1.657995e-06	2.416161e-09	1.152660e+01	1.554346e+02
1.000000e-06	1.757790e-06	3.186310e-09	1.222040e+01	2.021803e+02
1.010000e-06	1.856938e-06	3.928442e-09	1.290969e+01	2.479716e+02
1.020000e-06	1.955255e-06	4.615676e-09	1.359320e+01	2.919742e+02
1.030000e-06	2.052692e-06	5.231330e-09	1.427059e+01	3.334564e+02
1.040000e-06	2.149327e-06	5.775476e-09	1.494241e+01	3.718344e+02
1.050000e-06	2.245206e-06	6.259224e-09	1.560897e+01	4.067041e+02
1.060000e-06	2.340296e-06	6.689992e-09	1.627005e+01	4.378585e+02
1.070000e-06	2.434607e-06	7.069855e-09	1.692572e+01	4.652877e+02
1.080000e-06	2.528203e-06	7.403461e-09	1.757641e+01	4.891630e+02
1.090000e-06	2.620994e-06	7.703982e-09	1.822150e+01	5.098079e+02
1.100000e-06	2.712865e-06	7.983054e-09	1.886020e+01	5.276576e+02
1.110000e-06	2.803708e-06	8.241078e-09	1.949176e+01	5.432130e+02
1.120000e-06	2.893395e-06	8.474688e-09	2.011527e+01	5.569933e+02
1.130000e-06	2.981953e-06	8.688412e-09	2.073094e+01	5.694911e+02
1.140000e-06	3.069545e-06	8.888489e-09	2.133989e+01	5.811351e+02
1.150000e-06	3.156142e-06	9.077019e-09	2.194192e+01	5.922629e+02
1.160000e-06	3.241688e-06	9.250776e-09	2.253665e+01	6.031062e+02
1.170000e-06	3.326211e-06	9.407789e-09	2.312427e+01	6.137885e+02
1.180000e-06	3.409660e-06	9.557205e-09	2.370442e+01	6.243337e+02
1.190000e-06	3.491828e-06	9.705710e-09	2.427566e+01	6.346855e+02
1.200000e-06	3.572657e-06	9.847736e-09	2.483759e+01	6.447328e+02
1.210000e-06	3.652198e-06	9.977155e-09	2.539058e+01	6.543380e+02
1.220000e-06	3.730431e-06	1.009866e-08	2.593446e+01	6.633651e+02
1.230000e-06	3.807367e-06	1.021719e-08	2.646933e+01	6.717041e+02
1.240000e-06	3.882889e-06	1.032929e-08	2.699437e+01	6.792890e+02
1.250000e-06	3.956796e-06	1.042830e-08	2.750818e+01	6.861081e+02
1.260000e-06	4.029158e-06	1.051717e-08	2.801125e+01	6.922054e+02
1.270000e-06	4.100125e-06	1.060698e-08	2.850462e+01	6.976741e+02
1.280000e-06	4.169668e-06	1.069917e-08	2.898810e+01	7.026444e+02
1.290000e-06	4.237827e-06	1.078516e-08	2.946195e+01	7.072656e+02
1.300000e-06	4.304462e-06	1.086290e-08	2.992520e+01	7.116875e+02
1.310000e-06	4.369372e-06	1.093771e-08	3.037646e+01	7.160421e+02
1.320000e-06	4.432744e-06	1.101332e-08	3.081704e+01	7.204289e+02
1.330000e-06	4.494722e-06	1.108499e-08	3.124792e+01	7.249049e+02
1.340000e-06	4.555317e-06	1.114813e-08	3.166918e+01	7.294807e+02
1.350000e-06	4.614340e-06	1.120776e-08	3.207951e+01	7.341230e+02
1.360000e-06	4.671522e-06	1.126977e-08	3.247705e+01	7.387626e+02
1.370000e-06	4.726967e-06	1.133089e-08	3.286251e+01	7.433066e+02
1.380000e-06	4.780766e-06	1.138567e-08	3.323653e+01	7.476537e+02
1.390000e-06	4.832649e-06	1.143524e-08	3.359723e+01	7.517086e+02
1.400000e-06	4.882416e-06	1.148316e-08	3.394321e+01	7.553961e+02
1.410000e-06	4.930322e-06	1.153278e-08	3.427627e+01	7.586708e+02
1.420000e-06	4.976562e-06	1.158032e-08	3.459773e+01	7.615230e+02
1.430000e-06	5.021231e-06	1.162041e-08	3.490827e+01	7.639788e+02
1.440000e-06	5.064052e-06	1.165673e-08	3.520597e+01	7.660955e+02
1.450000e-06	5.104881e-06	1.169517e-08	3.548982e+01	7.679534e+02
1.460000e-06	5.144058e-06	1.173175e-08	3.576218e+01	7.696435e+02
1.470000e-06	5.181609e-06	1.176197e-08	3.602324e+01	7.712557e+02
1.480000e-06	5.217385e-06	1.178915e-08	3.627197e+01	7.728663e+02
1.490000e-06	5.251149e-06	1.181761e-08	3.650670e+01	7.745287e+02
1.500000e-06	5.282978e-06	1.184683e-08	3.672797e+01	7.762669e+02
1.510000e-06	5.313055e-06	1.187087e-08	3.693707e+01	7.780737e+02
1.520000e-06	5.341391e-06	1.188976e-08	3.713407e+01	7.799133e+02
1.530000e-06	5.367730e-06	1.191059e-08	3.731718e+01	7.817274e+02
1.540000e-06	5.391964e-06	1.193068e-08	3.748566e+01	7.834449e+02
1.550000e-06	5.414366e-06	1.194465e-08	3.764140e+01	7.849922e+02
1.560000e-06	5.435057e-06	1.195422e-08	3.778525e+01	7.863047e+02
1.570000e-06	5.453903e-06	1.196490e-08	3.791627e+01	7.873355e+02
1.580000e-06	5.470704e-06	1.198001e-08	3.803307e+01	7.880627e+02
1.590000e-06	5.485522e-06	1.199279e-08	3.813609e+01	7.884918e+02
1.600000e-06	5.498299e-06	1.199922e-08	3.822492e+01	7.886551e+02
1.610000e-06	5.508802e-06	1.200490e-08	3.829794e+01	7.886068e+02
1.620000e-06	5.517235e-06	1.201330e-08	3.835656e+01	7.884153e+02
1.630000e-06	5.523809e-06	1.201923e-08	3.840227e+01	7.881538e+02
1.640000e-06	5.528571e-06	1.201783e-08	3.843537e+01	7.878897e+02
1.650000e-06	5.531376e-06	1.201303e-08	3.845487e+01	7.876760e+02
1.660000e-06	5.532114e-06	1.201550e-08	3.846000e+01	7.875437e+02
1.670000e-06	5.531024e-06	1.202045e-08	3.845242e+01	7.874984e+02
1.680000e-06	5.528252e-06	1.201840e-08	3.843315e+01	7.875197e+02
1.690000e-06	5.523668e-06	1.200961e-08	3.840128e+01	7.875647e+02
1.700000e-06	5.517101e-06	1.199999e-08	3.835563e+01	7.875748e+02
1.710000e-06	5.508796e-06	1.199629e-08	3.829790e+01	7.874840e+02
1.720000e-06	5.498885e-06	1.199227e-08	3.822899e+01	7.872287e+02
1.730000e-06	5.487079e-06	1.198693e-08	3.814692e+01	7.867571e+02
1.740000e-06	5.473180e-06	1.197116e-08	3.805028e+01	7.860363e+02
1.750000e-06	5.457241e-06	1.190647e-08	3.793948e+01	7.850573e+02
1.760000e-06	5.438947e-06	1.188707e-08	3.781230e+01	7.838361e+02
1.770000e-06	5.417862e-06	1.189173e-08	3.766571e+01	7.824116e+02
1.780000e-06	5.394470e-06	1.189416e-08	3.750308e+01	7.808399e+02
1.790000e-06	5.369793e-06	1.194848e-08	3.733153e+01	7.791862e+02
1.800000e-06	5.344375e-06	1.184535e-08	3.715481e+01	7.775152e+02
1.810000e-06	5.317426e-06	1.179793e-08	3.696746e+01	7.758822e+02
1.820000e-06	5.288093e-06	1.187620e-08	3.676354e+01	7.743244e+02
1.830000e-06	5.256985e-06	1.175269e-08	3.654727e+01	7.728552e+02
1.840000e-06	5.224200e-06	1.174731e-08	3.631934e+01	7.714624e+02
1.850000e-06	5.189480e-06	1.179348e-08	3.607797e+01	7.701084e+02
1.860000e-06	5.153153e-06	1.166779e-08	3.582542e+01	7.687357e+02
1.870000e-06	5.114800e-06	1.171568e-08	3.555878e+01	7.672742e+02
1.880000e-06	5.074538e-06	1.168167e-08	3.527887e+01	7.656503e+02
1.890000e-06	5.032794e-06	1.156165e-08	3.498866e+01	7.637973e+02
1.900000e-06	4.989141e-06	1.160400e-08	3.468518e+01	7.616643e+02
1.910000e-06	4.943694e-06	1.150154e-08	3.436922e+01	7.592230e+02
1.920000e-06	4.896431e-06	1.148937e-08	3.404065e+01	7.564722e+02
1.930000e-06	4.847249e-06	1.152380e-08	3.369873e+01	7.534375e+02
1.940000e-06	4.796422e-06	1.138926e-08	3.334537e+01	7.501684e+02
1.950000e-06	4.743534e-06	1.138116e-08	3.297769e+01	7.467310e+02
1.960000e-06	4.688656e-06	1.133197e-08	3.259617e+01	7.431992e+02
1.970000e-06	4.632155e-06	1.125557e-08	3.220336e+01	7.396446e+02
1.980000e-06	4.573999e-06	1.121225e-08	3.179906e+01	7.361259e+02
1.990000e-06	4.514303e-06	1.115774e-08	3.138405e+01	7.326808e+02
2.000000e-06	4.452890e-06	1.115666e-08	3.095709e+01	7.293207e+02
2.010000e-06	4.389816e-06	1.107104e-08	3.051860e+01	7.260280e+02
2.020000e-06	4.325246e-06	1.103491e-08	3.006970e+01	7.227588e+02
2.030000e-06	4.259179e-06	1.097308e-08	2.961039e+01	7.194482e+02
2.040000e-06	4.191641e-06	1.087075e-08	2.914085e+01	7.160189e+02
2.050000e-06	4.122410e-06	1.083967e-08	2.865955e+01	7.123918e+02
2.060000e-06	4.051547e-06	1.074706e-08	2.816690e+01	7.084967e+02
2.070000e-06	3.979299e-06	1.070143e-08	2.766462e+01	7.042822e+02
2.080000e-06	3.905751e-06	1.063973e-08	2.715330e+01	6.997225e+02
2.090000e-06	3.830718e-06	1.056904e-08	2.663167e+01	6.948214e+02
2.100000e-06	3.753983e-06	1.051483e-08	2.609820e+01	6.896119e+02
2.110000e-06	3.675714e-06	1.041493e-08	2.555406e+01	6.841515e+02
2.120000e-06	3.596090e-06	1.034323e-08	2.500050e+01	6.785139e+02
2.130000e-06	3.515259e-06	1.025194e-08	2.443855e+01	6.727789e+02
2.140000e-06	3.433303e-06	1.017714e-08	2.386879e+01	6.670204e+02
2.150000e-06	3.350184e-06	1.009603e-08	2.329093e+01	6.612952e+02
2.160000e-06	3.265852e-06	1.001129e-08	2.270464e+01	6.556344e+02
2.170000e-06	3.180200e-06	9.935007e-09	2.210918e+01	6.500375e+02
2.180000e-06	3.093271e-06	9.833380e-09	2.150484e+01	6.444711e+02
2.190000e-06	3.005277e-06	9.741817e-09	2.089309e+01	6.388723e+02
2.200000e-06	2.916392e-06	9.638372e-09	2.027515e+01	6.331564e+02
2.210000e-06	2.826568e-06	9.542583e-09	1.965068e+01	6.272272e+02
2.220000e-06	2.735817e-06	9.445268e-09	1.901977e+01	6.209904e+02
2.230000e-06	2.644146e-06	9.341511e-09	1.838246e+01	6.143655e+02
2.240000e-06	2.551492e-06	9.234620e-09	1.773832e+01	6.072981e+02
2.250000e-06	2.457839e-06	9.120432e-09	1.708723e+01	5.997665e+02
2.260000e-06	2.363181e-06	9.009207e-09	1.642915e+01	5.917862e+02
2.270000e-06	2.267717e-06	8.890585e-09	1.576547e+01	5.834072e+02
2.280000e-06	2.171551e-06	8.774097e-09	1.509692e+01	5.747073e+02
2.290000e-06	2.074634e-06	8.651545e-09	1.442314e+01	5.657811e+02
2.300000e-06	1.976987e-06	8.526404e-09	1.374428e+01	5.567252e+02
2.310000e-06	1.878749e-06	8.395118e-09	1.306132e+01	5.476234e+02
2.320000e-06	1.779974e-06	8.255744e-09	1.237462e+01	5.385321e+02
2.330000e-06	1.680656e-06	8.112469e-09	1.168414e+01	5.294691e+02
2.340000e-06	1.580722e-06	7.966580e-09	1.098939e+01	5.204072e+02
2.350000e-06	1.480156e-06	7.821868e-09	1.029025e+01	5.112740e+02
2.360000e-06	1.378981e-06	7.669878e-09	9.586862e+00	5.019574e+02
2.370000e-06	1.277185e-06	7.512976e-09	8.879165e+00	4.923177e+02
2.380000e-06	1.174879e-06	7.346290e-09	8.167916e+00	4.822037e+02
2.390000e-06	1.072152e-06	7.172691e-09	7.453748e+00	4.714714e+02
2.400000e-06	9.690228e-07	6.995171e-09	6.736777e+00	4.600032e+02
2.410000e-06	8.655277e-07	6.813191e-09	6.017266e+00	4.477240e+02
2.420000e-06	7.616864e-07	6.627272e-09	5.295346e+00	4.346123e+02
2.430000e-06	6.575633e-07	6.430837e-09	4.571469e+00	4.207045e+02
2.440000e-06	5.532583e-07	6.223371e-09	3.846326e+00	4.060904e+02
2.450000e-06	4.487645e-07	6.006938e-09	3.119871e+00	3.909009e+02
2.460000e-06	3.441253e-07	5.783079e-09	2.392405e+00	3.752877e+02
2.470000e-06	2.393755e-07	5.552234e-09	1.664171e+00	3.593980e+02
2.480000e-06	1.345367e-07	5.313321e-09	9.353173e-01	3.433457e+02
2.490000e-06	2.969517e-08	5.063840e-09	2.064449e-01	3.271835e+02
2.500000e-06	-7.509917e-08	4.804873e-09	-5.220995e-01	3.108803e+02
2.510000e-06	-1.798460e-07	4.533599e-09	-1.250314e+00	2.943042e+02
2.520000e-06	-2.845236e-07	4.245150e-09	-1.978047e+00	2.772176e+02
2.530000e-06	-3.890780e-07	3.940274e-09	-2.704923e+00	2.592834e+02
2.540000e-06	-4.935144e-07	3.620115e-09	-3.430978e+00	2.400839e+02
2.550000e-06	-5.978381e-07	3.285082e-09	-4.156251e+00	2.191511e+02
2.560000e-06	-7.019342e-07	2.932088e-09	-4.879941e+00	1.960063e+02
2.570000e-06	-8.057166e-07	2.553982e-09	-5.601451e+00	1.702057e+02
2.580000e-06	-9.092098e-07	2.145674e-09	-6.320949e+00	1.413869e+02
2.590000e-06	-1.012388e-06	1.702386e-09	-7.038260e+00	1.093129e+02
2.600000e-06	-1.115167e-06	1.213277e-09	-7.752790e+00	7.390785e+01
2.610000e-06	-1.217438e-06	6.672483e-10	-8.463791e+00	3.528122e+01
2.620000e-06	-1.319119e-06	6.043567e-11	-9.170696e+00	-6.262603e+00
2.630000e-06	-1.420239e-06	-6.087439e-10	-9.873691e+00	-5.023115e+01
2.640000e-06	-1.520800e-06	-1.338900e-09	-1.057280e+01	-9.596683e+01
2.650000e-06	-1.620792e-06	-2.111118e-09	-1.126796e+01	-1.426846e+02
2.660000e-06	-1.720170e-06	-2.890526e-09	-1.195886e+01	-1.895207e+02
2.670000e-06	-1.818965e-06	-3.642368e-09	-1.264569e+01	-2.355896e+02
2.680000e-06	-1.917195e-06	-4.346402e-09	-1.332859e+01	-2.800417e+02
2.690000e-06	-2.014741e-06	-4.990969e-09	-1.400675e+01	-3.221191e+02
2.700000e-06	-2.111637e-06	-5.567542e-09	-1.468038e+01	-3.612030e+02
2.710000e-06	-2.207874e-06	-6.075634e-09	-1.534944e+01	-3.968490e+02
2.720000e-06	-2.303415e-06	-6.522839e-09	-1.601365e+01	-4.288073e+02
2.730000e-06	-2.398264e-06	-6.922247e-09	-1.667305e+01	-4.570264e+02
2.740000e-06	-2.492287e-06	-7.278531e-09	-1.732671e+01	-4.816410e+02
2.750000e-06	-2.585252e-06	-7.594202e-09	-1.797302e+01	-5.029449e+02
2.760000e-06	-2.677085e-06	-7.878037e-09	-1.861146e+01	-5.213532e+02
2.770000e-06	-2.767915e-06	-8.137300e-09	-1.924292e+01	-5.373568e+02
2.780000e-06	-2.857767e-06	-8.378434e-09	-1.986758e+01	-5.514748e+02
2.790000e-06	-2.946634e-06	-8.604758e-09	-2.048539e+01	-5.642089e+02
2.800000e-06	-3.034513e-06	-8.814599e-09	-2.109634e+01	-5.760043e+02
2.810000e-06	-3.121412e-06	-9.009162e-09	-2.170048e+01	-5.872198e+02
2.820000e-06	-3.207237e-06	-9.189655e-09	-2.229714e+01	-5.981104e+02
2.830000e-06	-3.291705e-06	-9.355949e-09	-2.288437e+01	-6.088223e+02
2.840000e-06	-3.374898e-06	-9.509488e-09	-2.346274e+01	-6.193994e+02
2.850000e-06	-3.457013e-06	-9.652380e-09	-2.403362e+01	-6.298009e+02
2.860000e-06	-3.537988e-06	-9.787951e-09	-2.459657e+01	-6.399249e+02
2.870000e-06	-3.617805e-06	-9.916903e-09	-2.515147e+01	-6.496371e+02
2.880000e-06	-3.696365e-06	-1.004189e-08	-2.569763e+01	-6.587988e+02
2.890000e-06	-3.773421e-06	-1.016251e-08	-2.623333e+01	-6.672928e+02
2.900000e-06	-3.848880e-06	-1.027634e-08	-2.675793e+01	-6.750425e+02
2.910000e-06	-3.922838e-06	-1.038167e-08	-2.727210e+01	-6.820242e+02
2.920000e-06	-3.995422e-06	-1.047894e-08	-2.777671e+01	-6.882701e+02
2.930000e-06	-4.066677e-06	-1.057087e-08	-2.827209e+01	-6.938639e+02
2.940000e-06	-4.136494e-06	-1.065844e-08	-2.875746e+01	-6.989291e+02
