# Temperatura_=_20.93
# Concentracion g/m^3_=_15500.0
# C_Vs_to_Am_M_A/Vsm_=_65563218390.804596
# pendiente_HvsI_1/m_=_3716.3
# ordenada_HvsI_A/m_=_1297.0
# frecuencia_Hz_=_300818.09636541095

Tiempo_(s)	Campo_(V.s)	Magnetizacion_(V.s)	Campo_(kA/m)	Magnetizacion_(A/m)
0.000000e+00	-5.493765e-06	-1.203673e-08	-3.830513e+01	-7.862472e+02
1.000000e-08	-5.491984e-06	-1.204168e-08	-3.829271e+01	-7.861650e+02
2.000000e-08	-5.488202e-06	-1.204026e-08	-3.826635e+01	-7.861320e+02
3.000000e-08	-5.482715e-06	-1.203658e-08	-3.822809e+01	-7.861109e+02
4.000000e-08	-5.475616e-06	-1.203011e-08	-3.817859e+01	-7.860495e+02
5.000000e-08	-5.466856e-06	-1.201651e-08	-3.811751e+01	-7.858888e+02
6.000000e-08	-5.456155e-06	-1.199488e-08	-3.804290e+01	-7.855712e+02
7.000000e-08	-5.443362e-06	-1.196428e-08	-3.795370e+01	-7.850493e+02
8.000000e-08	-5.428567e-06	-1.195909e-08	-3.785054e+01	-7.842923e+02
9.000000e-08	-5.411421e-06	-1.200969e-08	-3.773099e+01	-7.832911e+02
1.000000e-07	-5.391957e-06	-1.199354e-08	-3.759528e+01	-7.820591e+02
1.100000e-07	-5.370547e-06	-1.194620e-08	-3.744600e+01	-7.806305e+02
1.200000e-07	-5.347311e-06	-1.193171e-08	-3.728398e+01	-7.790554e+02
1.300000e-07	-5.322565e-06	-1.182657e-08	-3.711144e+01	-7.773927e+02
1.400000e-07	-5.296296e-06	-1.184778e-08	-3.692829e+01	-7.757015e+02
1.500000e-07	-5.268199e-06	-1.192072e-08	-3.673238e+01	-7.740325e+02
1.600000e-07	-5.238393e-06	-1.174483e-08	-3.652456e+01	-7.724205e+02
1.700000e-07	-5.206985e-06	-1.180358e-08	-3.630557e+01	-7.708793e+02
1.800000e-07	-5.173622e-06	-1.186636e-08	-3.607294e+01	-7.693989e+02
1.900000e-07	-5.138275e-06	-1.169400e-08	-3.582649e+01	-7.679464e+02
2.000000e-07	-5.101409e-06	-1.175077e-08	-3.556944e+01	-7.664706e+02
2.100000e-07	-5.062812e-06	-1.169945e-08	-3.530032e+01	-7.649080e+02
2.200000e-07	-5.022377e-06	-1.159249e-08	-3.501839e+01	-7.631913e+02
2.300000e-07	-4.980057e-06	-1.166223e-08	-3.472332e+01	-7.612591e+02
2.400000e-07	-4.935729e-06	-1.160891e-08	-3.441424e+01	-7.590632e+02
2.500000e-07	-4.889694e-06	-1.155462e-08	-3.409326e+01	-7.565759e+02
2.600000e-07	-4.841912e-06	-1.151177e-08	-3.376010e+01	-7.537935e+02
2.700000e-07	-4.792118e-06	-1.141103e-08	-3.341292e+01	-7.507368e+02
2.800000e-07	-4.740252e-06	-1.140122e-08	-3.305128e+01	-7.474480e+02
2.900000e-07	-4.686442e-06	-1.137444e-08	-3.267609e+01	-7.439855e+02
3.000000e-07	-4.630967e-06	-1.133570e-08	-3.228929e+01	-7.404150e+02
3.100000e-07	-4.573899e-06	-1.128144e-08	-3.189139e+01	-7.368008e+02
3.200000e-07	-4.514993e-06	-1.124064e-08	-3.148067e+01	-7.331963e+02
3.300000e-07	-4.454371e-06	-1.118438e-08	-3.105799e+01	-7.296369e+02
3.400000e-07	-4.392238e-06	-1.107231e-08	-3.062476e+01	-7.261342e+02
3.500000e-07	-4.328611e-06	-1.103785e-08	-3.018113e+01	-7.226745e+02
3.600000e-07	-4.263503e-06	-1.097548e-08	-2.972717e+01	-7.192200e+02
3.700000e-07	-4.196728e-06	-1.092245e-08	-2.926158e+01	-7.157140e+02
3.800000e-07	-4.128280e-06	-1.089186e-08	-2.878432e+01	-7.120883e+02
3.900000e-07	-4.058400e-06	-1.080126e-08	-2.829709e+01	-7.082726e+02
4.000000e-07	-3.987271e-06	-1.073556e-08	-2.780114e+01	-7.042040e+02
4.100000e-07	-3.914876e-06	-1.066432e-08	-2.729637e+01	-6.998362e+02
4.200000e-07	-3.840952e-06	-1.059299e-08	-2.678094e+01	-6.951456e+02
4.300000e-07	-3.765281e-06	-1.051079e-08	-2.625332e+01	-6.901350e+02
4.400000e-07	-3.687996e-06	-1.042769e-08	-2.571445e+01	-6.848330e+02
4.500000e-07	-3.609229e-06	-1.036011e-08	-2.516525e+01	-6.792906e+02
4.600000e-07	-3.528921e-06	-1.028379e-08	-2.460531e+01	-6.735735e+02
4.700000e-07	-3.447321e-06	-1.020947e-08	-2.403636e+01	-6.677531e+02
4.800000e-07	-3.364616e-06	-1.011275e-08	-2.345970e+01	-6.618956e+02
4.900000e-07	-3.280772e-06	-1.002301e-08	-2.287510e+01	-6.560522e+02
5.000000e-07	-3.195946e-06	-9.939390e-09	-2.228365e+01	-6.502512e+02
5.100000e-07	-3.110183e-06	-9.842523e-09	-2.168567e+01	-6.444924e+02
5.200000e-07	-3.023430e-06	-9.743998e-09	-2.108079e+01	-6.387460e+02
5.300000e-07	-2.935743e-06	-9.640918e-09	-2.046939e+01	-6.329558e+02
5.400000e-07	-2.847105e-06	-9.544723e-09	-1.985136e+01	-6.270452e+02
5.500000e-07	-2.757371e-06	-9.449986e-09	-1.922570e+01	-6.209274e+02
5.600000e-07	-2.666468e-06	-9.345029e-09	-1.859188e+01	-6.145167e+02
5.700000e-07	-2.574506e-06	-9.231121e-09	-1.795068e+01	-6.077395e+02
5.800000e-07	-2.481605e-06	-9.116432e-09	-1.730293e+01	-6.005453e+02
5.900000e-07	-2.387853e-06	-9.008627e-09	-1.664924e+01	-5.929130e+02
6.000000e-07	-2.293349e-06	-8.888754e-09	-1.599032e+01	-5.848543e+02
6.100000e-07	-2.198110e-06	-8.759603e-09	-1.532626e+01	-5.764124e+02
6.200000e-07	-2.102126e-06	-8.631862e-09	-1.465702e+01	-5.676552e+02
6.300000e-07	-2.005384e-06	-8.505531e-09	-1.398249e+01	-5.586658e+02
6.400000e-07	-1.907799e-06	-8.377147e-09	-1.330208e+01	-5.495293e+02
6.500000e-07	-1.809365e-06	-8.234728e-09	-1.261575e+01	-5.403191e+02
6.600000e-07	-1.710225e-06	-8.091268e-09	-1.192450e+01	-5.310843e+02
6.700000e-07	-1.610458e-06	-7.950748e-09	-1.122888e+01	-5.218390e+02
6.800000e-07	-1.510131e-06	-7.807370e-09	-1.052935e+01	-5.125573e+02
6.900000e-07	-1.409292e-06	-7.650803e-09	-9.826253e+00	-5.031720e+02
7.000000e-07	-1.307959e-06	-7.483385e-09	-9.119708e+00	-4.935805e+02
7.100000e-07	-1.206202e-06	-7.314631e-09	-8.410211e+00	-4.836555e+02
7.200000e-07	-1.104048e-06	-7.143608e-09	-7.697948e+00	-4.732591e+02
7.300000e-07	-1.001533e-06	-6.969952e-09	-6.983160e+00	-4.622605e+02
7.400000e-07	-8.986476e-07	-6.790709e-09	-6.265797e+00	-4.505527e+02
7.500000e-07	-7.954371e-07	-6.607075e-09	-5.546165e+00	-4.380672e+02
7.600000e-07	-6.919619e-07	-6.414452e-09	-4.824686e+00	-4.247844e+02
7.700000e-07	-5.882544e-07	-6.211477e-09	-4.101588e+00	-4.107371e+02
7.800000e-07	-4.843527e-07	-5.996392e-09	-3.377136e+00	-3.960064e+02
7.900000e-07	-3.803088e-07	-5.774727e-09	-2.651693e+00	-3.807108e+02
8.000000e-07	-2.761845e-07	-5.550437e-09	-1.925689e+00	-3.649871e+02
8.100000e-07	-1.719874e-07	-5.319658e-09	-1.199178e+00	-3.489678e+02
8.200000e-07	-6.770396e-08	-5.080615e-09	-4.720641e-01	-3.327545e+02
8.300000e-07	3.662327e-08	-4.829271e-09	2.553548e-01	-3.163930e+02
8.400000e-07	1.409151e-07	-4.565034e-09	9.825270e-01	-2.998515e+02
8.500000e-07	2.451502e-07	-4.287619e-09	1.709304e+00	-2.830063e+02
8.600000e-07	3.492846e-07	-3.999770e-09	2.435378e+00	-2.656369e+02
8.700000e-07	4.533064e-07	-3.697493e-09	3.160667e+00	-2.474314e+02
8.800000e-07	5.572066e-07	-3.378918e-09	3.885109e+00	-2.280041e+02
8.900000e-07	6.609093e-07	-3.043616e-09	4.608173e+00	-2.069235e+02
9.000000e-07	7.643720e-07	-2.688029e-09	5.329564e+00	-1.837482e+02
9.100000e-07	8.676292e-07	-2.306880e-09	6.049522e+00	-1.580695e+02
9.200000e-07	9.705677e-07	-1.893998e-09	6.767258e+00	-1.295536e+02
9.300000e-07	1.073074e-06	-1.446139e-09	7.481982e+00	-9.798258e+01
9.400000e-07	1.175226e-06	-9.570771e-10	8.194235e+00	-6.328747e+01
9.500000e-07	1.277025e-06	-4.199823e-10	8.904026e+00	-2.557075e+01
9.600000e-07	1.378462e-06	1.761213e-10	9.611292e+00	1.488462e+01
9.700000e-07	1.479421e-06	8.336356e-10	1.031522e+01	5.762102e+01
9.800000e-07	1.579812e-06	1.542458e-09	1.101520e+01	1.020271e+02
9.900000e-07	1.679688e-06	2.284007e-09	1.171158e+01	1.473720e+02
1.000000e-06	1.779013e-06	3.034414e-09	1.240412e+01	1.928507e+02
1.010000e-06	1.877626e-06	3.761405e-09	1.309170e+01	2.376356e+02
1.020000e-06	1.975351e-06	4.436946e-09	1.377309e+01	2.809305e+02
1.030000e-06	2.072226e-06	5.050820e-09	1.444854e+01	3.220224e+02
1.040000e-06	2.168370e-06	5.601489e-09	1.511891e+01	3.603250e+02
1.050000e-06	2.263797e-06	6.096349e-09	1.578426e+01	3.954126e+02
1.060000e-06	2.358524e-06	6.539658e-09	1.644474e+01	4.270391e+02
1.070000e-06	2.452487e-06	6.932360e-09	1.709990e+01	4.551423e+02
1.080000e-06	2.545648e-06	7.279613e-09	1.774946e+01	4.798334e+02
1.090000e-06	2.638022e-06	7.592498e-09	1.839354e+01	5.013727e+02
1.100000e-06	2.729484e-06	7.880213e-09	1.903126e+01	5.201354e+02
1.110000e-06	2.819800e-06	8.144615e-09	1.966098e+01	5.365696e+02
1.120000e-06	2.908870e-06	8.385882e-09	2.028202e+01	5.511529e+02
1.130000e-06	2.996890e-06	8.606858e-09	2.089574e+01	5.643499e+02
1.140000e-06	3.083937e-06	8.813194e-09	2.150267e+01	5.765757e+02
1.150000e-06	3.169940e-06	9.007233e-09	2.210232e+01	5.881683e+02
1.160000e-06	3.254930e-06	9.186874e-09	2.269492e+01	5.993712e+02
1.170000e-06	3.338953e-06	9.350024e-09	2.328076e+01	6.103287e+02
1.180000e-06	3.421881e-06	9.505516e-09	2.385897e+01	6.210905e+02
1.190000e-06	3.503490e-06	9.660717e-09	2.442799e+01	6.316277e+02
1.200000e-06	3.583773e-06	9.808584e-09	2.498776e+01	6.418541e+02
1.210000e-06	3.662766e-06	9.941998e-09	2.553854e+01	6.516522e+02
1.220000e-06	3.740457e-06	1.006529e-08	2.608024e+01	6.608989e+02
1.230000e-06	3.816829e-06	1.018480e-08	2.661274e+01	6.694892e+02
1.240000e-06	3.891684e-06	1.029838e-08	2.713467e+01	6.773546e+02
1.250000e-06	3.964900e-06	1.040156e-08	2.764516e+01	6.844739e+02
1.260000e-06	4.036624e-06	1.049641e-08	2.814525e+01	6.908774e+02
1.270000e-06	4.106984e-06	1.059026e-08	2.863584e+01	6.966424e+02
1.280000e-06	4.175996e-06	1.068372e-08	2.911702e+01	7.018833e+02
1.290000e-06	4.243584e-06	1.077061e-08	2.958828e+01	7.067365e+02
1.300000e-06	4.309462e-06	1.084864e-08	3.004761e+01	7.113431e+02
1.310000e-06	4.373698e-06	1.092171e-08	3.049549e+01	7.158321e+02
1.320000e-06	4.436540e-06	1.099452e-08	3.093366e+01	7.203057e+02
1.330000e-06	4.497999e-06	1.106575e-08	3.136218e+01	7.248287e+02
1.340000e-06	4.558028e-06	1.113163e-08	3.178073e+01	7.294238e+02
1.350000e-06	4.616350e-06	1.119370e-08	3.218738e+01	7.340716e+02
1.360000e-06	4.672878e-06	1.125662e-08	3.258152e+01	7.387174e+02
1.370000e-06	4.727761e-06	1.132036e-08	3.296419e+01	7.432813e+02
1.380000e-06	4.780934e-06	1.138018e-08	3.333493e+01	7.476713e+02
1.390000e-06	4.832087e-06	1.143120e-08	3.369160e+01	7.517973e+02
1.400000e-06	4.881169e-06	1.147583e-08	3.403382e+01	7.555841e+02
1.410000e-06	4.928472e-06	1.152040e-08	3.436364e+01	7.589821e+02
1.420000e-06	4.974154e-06	1.156580e-08	3.468216e+01	7.619728e+02
1.430000e-06	5.018267e-06	1.160899e-08	3.498973e+01	7.645715e+02
1.440000e-06	5.060478e-06	1.164994e-08	3.528405e+01	7.668237e+02
1.450000e-06	5.100715e-06	1.168940e-08	3.556460e+01	7.687983e+02
1.460000e-06	5.139263e-06	1.172591e-08	3.583338e+01	7.705778e+02
1.470000e-06	5.176153e-06	1.175732e-08	3.609059e+01	7.722469e+02
1.480000e-06	5.211186e-06	1.178479e-08	3.633486e+01	7.738809e+02
1.490000e-06	5.244228e-06	1.181117e-08	3.656524e+01	7.755366e+02
1.500000e-06	5.275478e-06	1.183565e-08	3.678313e+01	7.772452e+02
1.510000e-06	5.305063e-06	1.185863e-08	3.698941e+01	7.790094e+02
1.520000e-06	5.332884e-06	1.188095e-08	3.718339e+01	7.808048e+02
1.530000e-06	5.358573e-06	1.190306e-08	3.736251e+01	7.825843e+02
1.540000e-06	5.382186e-06	1.192211e-08	3.752715e+01	7.842860e+02
1.550000e-06	5.404065e-06	1.193529e-08	3.767970e+01	7.858433e+02
1.560000e-06	5.424285e-06	1.194737e-08	3.782068e+01	7.871939e+02
1.570000e-06	5.442631e-06	1.196261e-08	3.794860e+01	7.882900e+02
1.580000e-06	5.458903e-06	1.197798e-08	3.806206e+01	7.891043e+02
1.590000e-06	5.473178e-06	1.198689e-08	3.816159e+01	7.896340e+02
1.600000e-06	5.485355e-06	1.199031e-08	3.824650e+01	7.899014e+02
1.610000e-06	5.495289e-06	1.199537e-08	3.831576e+01	7.899498e+02
1.620000e-06	5.503209e-06	1.200447e-08	3.837098e+01	7.898380e+02
1.630000e-06	5.509347e-06	1.201284e-08	3.841378e+01	7.896315e+02
1.640000e-06	5.513649e-06	1.201459e-08	3.844377e+01	7.893934e+02
1.650000e-06	5.515853e-06	1.201397e-08	3.845914e+01	7.891760e+02
1.660000e-06	5.515976e-06	1.201528e-08	3.846000e+01	7.890134e+02
1.670000e-06	5.514335e-06	1.201335e-08	3.844856e+01	7.889172e+02
1.680000e-06	5.511084e-06	1.201080e-08	3.842589e+01	7.888757e+02
1.690000e-06	5.505986e-06	1.200175e-08	3.839034e+01	7.888556e+02
1.700000e-06	5.498939e-06	1.199164e-08	3.834121e+01	7.888073e+02
1.710000e-06	5.490254e-06	1.198440e-08	3.828066e+01	7.886725e+02
1.720000e-06	5.479921e-06	1.198034e-08	3.820861e+01	7.883925e+02
1.730000e-06	5.467595e-06	1.199160e-08	3.812266e+01	7.879171e+02
1.740000e-06	5.453241e-06	1.194644e-08	3.802258e+01	7.872117e+02
1.750000e-06	5.436872e-06	1.188843e-08	3.790845e+01	7.862620e+02
1.760000e-06	5.417958e-06	1.189820e-08	3.777657e+01	7.850768e+02
1.770000e-06	5.396218e-06	1.187846e-08	3.762499e+01	7.836860e+02
1.780000e-06	5.372369e-06	1.193139e-08	3.745870e+01	7.821371e+02
1.790000e-06	5.347504e-06	1.192185e-08	3.728533e+01	7.804876e+02
1.800000e-06	5.321880e-06	1.176171e-08	3.710667e+01	7.787974e+02
1.810000e-06	5.294417e-06	1.187658e-08	3.691518e+01	7.771196e+02
1.820000e-06	5.264599e-06	1.185711e-08	3.670728e+01	7.754931e+02
1.830000e-06	5.233194e-06	1.169205e-08	3.648831e+01	7.739363e+02
1.840000e-06	5.200007e-06	1.182844e-08	3.625691e+01	7.724444e+02
1.850000e-06	5.165009e-06	1.175213e-08	3.601289e+01	7.709893e+02
1.860000e-06	5.128368e-06	1.166778e-08	3.575741e+01	7.695231e+02
1.870000e-06	5.089613e-06	1.178280e-08	3.548719e+01	7.679843e+02
1.880000e-06	5.049098e-06	1.162425e-08	3.520470e+01	7.663057e+02
1.890000e-06	5.007018e-06	1.157587e-08	3.491130e+01	7.644239e+02
1.900000e-06	4.963032e-06	1.157601e-08	3.460461e+01	7.622871e+02
1.910000e-06	4.917293e-06	1.149098e-08	3.428570e+01	7.598630e+02
1.920000e-06	4.869699e-06	1.159417e-08	3.395385e+01	7.571425e+02
1.930000e-06	4.820290e-06	1.149497e-08	3.360935e+01	7.541411e+02
1.940000e-06	4.769202e-06	1.141735e-08	3.325314e+01	7.508972e+02
1.950000e-06	4.715944e-06	1.138633e-08	3.288179e+01	7.474661e+02
1.960000e-06	4.660799e-06	1.129440e-08	3.249730e+01	7.439127e+02
1.970000e-06	4.604012e-06	1.129404e-08	3.210135e+01	7.403024e+02
1.980000e-06	4.545595e-06	1.118950e-08	3.169404e+01	7.366917e+02
1.990000e-06	4.485694e-06	1.120973e-08	3.127638e+01	7.331203e+02
2.000000e-06	4.424036e-06	1.116893e-08	3.084647e+01	7.296053e+02
2.010000e-06	4.360798e-06	1.106863e-08	3.040555e+01	7.261384e+02
2.020000e-06	4.296013e-06	1.105856e-08	2.995384e+01	7.226866e+02
2.030000e-06	4.229685e-06	1.090875e-08	2.949137e+01	7.191967e+02
2.040000e-06	4.161844e-06	1.089628e-08	2.901835e+01	7.156021e+02
2.050000e-06	4.092258e-06	1.083935e-08	2.853316e+01	7.118323e+02
2.060000e-06	4.021193e-06	1.075687e-08	2.803766e+01	7.078221e+02
2.070000e-06	3.948780e-06	1.071726e-08	2.753277e+01	7.035208e+02
2.080000e-06	3.875011e-06	1.060476e-08	2.701841e+01	6.988997e+02
2.090000e-06	3.799745e-06	1.059171e-08	2.649362e+01	6.939556e+02
2.100000e-06	3.722769e-06	1.048825e-08	2.595691e+01	6.887120e+02
2.110000e-06	3.644278e-06	1.041434e-08	2.540963e+01	6.832155e+02
2.120000e-06	3.564503e-06	1.033426e-08	2.485341e+01	6.775294e+02
2.130000e-06	3.483586e-06	1.024601e-08	2.428922e+01	6.717248e+02
2.140000e-06	3.401557e-06	1.019248e-08	2.371727e+01	6.658698e+02
2.150000e-06	3.318446e-06	1.006661e-08	2.313778e+01	6.600197e+02
2.160000e-06	3.234142e-06	1.000654e-08	2.254997e+01	6.542082e+02
2.170000e-06	3.148513e-06	9.910289e-09	2.195292e+01	6.484414e+02
2.180000e-06	3.061668e-06	9.829445e-09	2.134740e+01	6.426958e+02
2.190000e-06	2.973765e-06	9.735047e-09	2.073449e+01	6.369204e+02
2.200000e-06	2.884902e-06	9.615841e-09	2.011491e+01	6.310423e+02
2.210000e-06	2.795073e-06	9.531389e-09	1.948858e+01	6.249759e+02
2.220000e-06	2.704348e-06	9.423989e-09	1.885600e+01	6.186343e+02
2.230000e-06	2.612710e-06	9.331079e-09	1.821705e+01	6.119404e+02
2.240000e-06	2.520073e-06	9.208971e-09	1.757114e+01	6.048380e+02
2.250000e-06	2.426395e-06	9.098761e-09	1.691798e+01	5.972992e+02
2.260000e-06	2.331803e-06	8.996774e-09	1.625844e+01	5.893288e+02
2.270000e-06	2.236429e-06	8.880456e-09	1.559344e+01	5.809636e+02
2.280000e-06	2.140234e-06	8.759562e-09	1.492272e+01	5.722669e+02
2.290000e-06	2.043336e-06	8.628134e-09	1.424710e+01	5.633195e+02
2.300000e-06	1.945824e-06	8.507509e-09	1.356720e+01	5.542072e+02
2.310000e-06	1.847709e-06	8.378846e-09	1.288310e+01	5.450073e+02
2.320000e-06	1.749054e-06	8.235570e-09	1.219523e+01	5.357748e+02
2.330000e-06	1.649858e-06	8.084105e-09	1.150359e+01	5.265321e+02
2.340000e-06	1.550092e-06	7.936153e-09	1.080797e+01	5.172620e+02
2.350000e-06	1.449706e-06	7.791867e-09	1.010804e+01	5.079060e+02
2.360000e-06	1.348729e-06	7.642313e-09	9.403976e+00	4.983684e+02
2.370000e-06	1.247191e-06	7.481296e-09	8.696008e+00	4.885259e+02
2.380000e-06	1.145150e-06	7.317835e-09	7.984525e+00	4.782416e+02
2.390000e-06	1.042722e-06	7.148676e-09	7.270355e+00	4.673817e+02
2.400000e-06	9.398815e-07	6.966129e-09	6.553299e+00	4.558326e+02
2.410000e-06	8.365897e-07	6.774294e-09	5.833100e+00	4.435167e+02
2.420000e-06	7.329666e-07	6.579166e-09	5.110590e+00	4.304034e+02
2.430000e-06	6.291132e-07	6.384846e-09	4.386475e+00	4.165141e+02
2.440000e-06	5.250406e-07	6.181897e-09	3.660831e+00	4.019205e+02
2.450000e-06	4.207905e-07	5.966359e-09	2.933950e+00	3.867343e+02
2.460000e-06	3.164421e-07	5.738649e-09	2.206384e+00	3.710902e+02
2.470000e-06	2.120176e-07	5.505880e-09	1.478287e+00	3.551238e+02
2.480000e-06	1.075136e-07	5.267342e-09	7.496356e-01	3.389456e+02
2.490000e-06	2.979879e-09	5.015862e-09	2.077713e-02	3.226151e+02
2.500000e-06	-1.015494e-07	4.753056e-09	-7.080505e-01	3.061188e+02
2.510000e-06	-2.060586e-07	4.479962e-09	-1.436738e+00	2.893536e+02
2.520000e-06	-3.105090e-07	4.194122e-09	-2.165016e+00	2.721194e+02
2.530000e-06	-4.148212e-07	3.893819e-09	-2.892330e+00	2.541229e+02
2.540000e-06	-5.189725e-07	3.577268e-09	-3.618522e+00	2.349923e+02
2.550000e-06	-6.229697e-07	3.246295e-09	-4.343640e+00	2.143029e+02
2.560000e-06	-7.267314e-07	2.899290e-09	-5.067116e+00	1.916122e+02
2.570000e-06	-8.301653e-07	2.527671e-09	-5.788306e+00	1.665008e+02
2.580000e-06	-9.332120e-07	2.126130e-09	-6.506796e+00	1.386153e+02
2.590000e-06	-1.035892e-06	1.689614e-09	-7.222730e+00	1.077098e+02
2.600000e-06	-1.138223e-06	1.213362e-09	-7.936231e+00	7.368116e+01
2.610000e-06	-1.240079e-06	6.892469e-10	-8.646416e+00	3.659382e+01
2.620000e-06	-1.341379e-06	1.088883e-10	-9.352731e+00	-3.307935e+00
2.630000e-06	-1.442156e-06	-5.308758e-10	-1.005540e+01	-4.560265e+01
2.640000e-06	-1.542286e-06	-1.225813e-09	-1.075355e+01	-8.970945e+01
2.650000e-06	-1.641740e-06	-1.958783e-09	-1.144699e+01	-1.349196e+02
2.660000e-06	-1.740688e-06	-2.709037e-09	-1.213690e+01	-1.804399e+02
2.670000e-06	-1.839167e-06	-3.450155e-09	-1.282355e+01	-2.254428e+02
2.680000e-06	-1.936989e-06	-4.153317e-09	-1.350560e+01	-2.691210e+02
2.690000e-06	-2.034060e-06	-4.796479e-09	-1.418243e+01	-3.107396e+02
2.700000e-06	-2.130504e-06	-5.372788e-09	-1.485489e+01	-3.496821e+02
2.710000e-06	-2.226348e-06	-5.887292e-09	-1.552315e+01	-3.854861e+02
2.720000e-06	-2.321518e-06	-6.344454e-09	-1.618672e+01	-4.178661e+02
2.730000e-06	-2.415925e-06	-6.753498e-09	-1.684497e+01	-4.467210e+02
2.740000e-06	-2.509434e-06	-7.120474e-09	-1.749696e+01	-4.721264e+02
2.750000e-06	-2.601862e-06	-7.449966e-09	-1.814142e+01	-4.943133e+02
2.760000e-06	-2.693179e-06	-7.748638e-09	-1.877812e+01	-5.136355e+02
2.770000e-06	-2.783528e-06	-8.020039e-09	-1.940808e+01	-5.305292e+02
2.780000e-06	-2.872921e-06	-8.269095e-09	-2.003137e+01	-5.454694e+02
2.790000e-06	-2.961287e-06	-8.501471e-09	-2.064749e+01	-5.589268e+02
2.800000e-06	-3.048654e-06	-8.719902e-09	-2.125666e+01	-5.713298e+02
2.810000e-06	-3.135049e-06	-8.923396e-09	-2.185904e+01	-5.830346e+02
2.820000e-06	-3.220258e-06	-9.111254e-09	-2.245316e+01	-5.943060e+02
2.830000e-06	-3.304092e-06	-9.284003e-09	-2.303770e+01	-6.053092e+02
2.840000e-06	-3.386763e-06	-9.443123e-09	-2.361412e+01	-6.161135e+02
2.850000e-06	-3.468398e-06	-9.591785e-09	-2.418331e+01	-6.267049e+02
2.860000e-06	-3.548906e-06	-9.731658e-09	-2.474466e+01	-6.370076e+02
2.870000e-06	-3.628216e-06	-9.865499e-09	-2.529764e+01	-6.469085e+02
2.880000e-06	-3.706131e-06	-9.995779e-09	-2.584090e+01	-6.562836e+02
2.890000e-06	-3.782512e-06	-1.012256e-08	-2.637346e+01	-6.650222e+02
2.900000e-06	-3.857381e-06	-1.024283e-08	-2.689549e+01	-6.730469e+02
2.910000e-06	-3.930733e-06	-1.035139e-08	-2.740693e+01	-6.803257e+02
2.920000e-06	-4.002662e-06	-1.045078e-08	-2.790845e+01	-6.868780e+02
2.930000e-06	-4.073330e-06	-1.054629e-08	-2.840119e+01	-6.927717e+02
2.940000e-06	-4.142525e-06	-1.063784e-08	-2.888364e+01	-6.981144e+02
