# Temperatura_=_29.14
# Concentracion g/m^3_=_15500.0
# C_Vs_to_Am_M_A/Vsm_=_65563218390.804596
# pendiente_HvsI_1/m_=_3716.3
# ordenada_HvsI_A/m_=_1297.0
# frecuencia_Hz_=_300814.2720069557

Tiempo_(s)	Campo_(V.s)	Magnetizacion_(V.s)	Campo_(kA/m)	Magnetizacion_(A/m)
0.000000e+00	-5.475857e-06	-1.201681e-08	-3.830679e+01	-7.858009e+02
1.000000e-08	-5.474606e-06	-1.202068e-08	-3.829804e+01	-7.857760e+02
2.000000e-08	-5.471373e-06	-1.202455e-08	-3.827542e+01	-7.858149e+02
3.000000e-08	-5.466321e-06	-1.202320e-08	-3.824007e+01	-7.858705e+02
4.000000e-08	-5.459673e-06	-1.201699e-08	-3.819357e+01	-7.858808e+02
5.000000e-08	-5.451464e-06	-1.200422e-08	-3.813614e+01	-7.857780e+02
6.000000e-08	-5.441373e-06	-1.198520e-08	-3.806555e+01	-7.854979e+02
7.000000e-08	-5.429170e-06	-1.196244e-08	-3.798019e+01	-7.849899e+02
8.000000e-08	-5.414966e-06	-1.193689e-08	-3.788082e+01	-7.842233e+02
9.000000e-08	-5.398475e-06	-1.195571e-08	-3.776546e+01	-7.831925e+02
1.000000e-07	-5.379629e-06	-1.199226e-08	-3.763362e+01	-7.819172e+02
1.100000e-07	-5.358793e-06	-1.195297e-08	-3.748785e+01	-7.804395e+02
1.200000e-07	-5.336098e-06	-1.191163e-08	-3.732909e+01	-7.788181e+02
1.300000e-07	-5.311869e-06	-1.187109e-08	-3.715959e+01	-7.771198e+02
1.400000e-07	-5.286263e-06	-1.178903e-08	-3.698047e+01	-7.754097e+02
1.500000e-07	-5.258878e-06	-1.187040e-08	-3.678889e+01	-7.737416e+02
1.600000e-07	-5.229668e-06	-1.183932e-08	-3.658455e+01	-7.721508e+02
1.700000e-07	-5.198916e-06	-1.170168e-08	-3.636943e+01	-7.706478e+02
1.800000e-07	-5.166396e-06	-1.181352e-08	-3.614193e+01	-7.692171e+02
1.900000e-07	-5.131716e-06	-1.176171e-08	-3.589932e+01	-7.678187e+02
2.000000e-07	-5.095364e-06	-1.164968e-08	-3.564502e+01	-7.663932e+02
2.100000e-07	-5.057443e-06	-1.169860e-08	-3.537974e+01	-7.648699e+02
2.200000e-07	-5.017707e-06	-1.159457e-08	-3.510177e+01	-7.631762e+02
2.300000e-07	-4.976148e-06	-1.157009e-08	-3.481103e+01	-7.612475e+02
2.400000e-07	-4.932600e-06	-1.161719e-08	-3.450639e+01	-7.590365e+02
2.500000e-07	-4.887249e-06	-1.152836e-08	-3.418913e+01	-7.565192e+02
2.600000e-07	-4.840153e-06	-1.150434e-08	-3.385967e+01	-7.536985e+02
2.700000e-07	-4.791111e-06	-1.143227e-08	-3.351659e+01	-7.506039e+02
2.800000e-07	-4.739979e-06	-1.136860e-08	-3.315889e+01	-7.472876e+02
2.900000e-07	-4.686816e-06	-1.136567e-08	-3.278699e+01	-7.438170e+02
3.000000e-07	-4.631954e-06	-1.130931e-08	-3.240320e+01	-7.402656e+02
3.100000e-07	-4.575521e-06	-1.126669e-08	-3.200842e+01	-7.367024e+02
3.200000e-07	-4.517254e-06	-1.122770e-08	-3.160081e+01	-7.331824e+02
3.300000e-07	-4.457261e-06	-1.119537e-08	-3.118112e+01	-7.297386e+02
3.400000e-07	-4.395815e-06	-1.111056e-08	-3.075127e+01	-7.263769e+02
3.500000e-07	-4.332921e-06	-1.102148e-08	-3.031129e+01	-7.230750e+02
3.600000e-07	-4.268591e-06	-1.098505e-08	-2.986127e+01	-7.197851e+02
3.700000e-07	-4.202627e-06	-1.091482e-08	-2.939980e+01	-7.164402e+02
3.800000e-07	-4.134905e-06	-1.087507e-08	-2.892605e+01	-7.129626e+02
3.900000e-07	-4.065591e-06	-1.082428e-08	-2.844116e+01	-7.092754e+02
4.000000e-07	-3.994963e-06	-1.074131e-08	-2.794708e+01	-7.053123e+02
4.100000e-07	-3.923163e-06	-1.068715e-08	-2.744479e+01	-7.010270e+02
4.200000e-07	-3.850007e-06	-1.060608e-08	-2.693302e+01	-6.963999e+02
4.300000e-07	-3.775199e-06	-1.052617e-08	-2.640970e+01	-6.914410e+02
4.400000e-07	-3.698726e-06	-1.044139e-08	-2.587473e+01	-6.861882e+02
4.500000e-07	-3.620813e-06	-1.037619e-08	-2.532968e+01	-6.807023e+02
4.600000e-07	-3.541378e-06	-1.031472e-08	-2.477399e+01	-6.750581e+02
4.700000e-07	-3.460458e-06	-1.023247e-08	-2.420791e+01	-6.693339e+02
4.800000e-07	-3.378309e-06	-1.014933e-08	-2.363322e+01	-6.635996e+02
4.900000e-07	-3.295014e-06	-1.005090e-08	-2.305053e+01	-6.579059e+02
5.000000e-07	-3.210733e-06	-9.966881e-09	-2.246093e+01	-6.522765e+02
5.100000e-07	-3.125495e-06	-9.876066e-09	-2.186464e+01	-6.467031e+02
5.200000e-07	-3.039273e-06	-9.782164e-09	-2.126147e+01	-6.411453e+02
5.300000e-07	-2.952087e-06	-9.691420e-09	-2.065155e+01	-6.355347e+02
5.400000e-07	-2.863985e-06	-9.595270e-09	-2.003523e+01	-6.297835e+02
5.500000e-07	-2.775009e-06	-9.495999e-09	-1.941279e+01	-6.237959e+02
5.600000e-07	-2.684860e-06	-9.385930e-09	-1.878215e+01	-6.174806e+02
5.700000e-07	-2.593433e-06	-9.274886e-09	-1.814256e+01	-6.107633e+02
5.800000e-07	-2.501088e-06	-9.164864e-09	-1.749656e+01	-6.035977e+02
5.900000e-07	-2.407985e-06	-9.058713e-09	-1.684525e+01	-5.959719e+02
6.000000e-07	-2.314110e-06	-8.946259e-09	-1.618854e+01	-5.879102e+02
6.100000e-07	-2.219447e-06	-8.823925e-09	-1.552631e+01	-5.794708e+02
6.200000e-07	-2.123921e-06	-8.697292e-09	-1.485805e+01	-5.707370e+02
6.300000e-07	-2.027685e-06	-8.569422e-09	-1.418483e+01	-5.618051e+02
6.400000e-07	-1.930845e-06	-8.440721e-09	-1.350738e+01	-5.527699e+02
6.500000e-07	-1.833291e-06	-8.305707e-09	-1.282493e+01	-5.437093e+02
6.600000e-07	-1.734855e-06	-8.165348e-09	-1.213631e+01	-5.346704e+02
6.700000e-07	-1.635559e-06	-8.024477e-09	-1.144168e+01	-5.256595e+02
6.800000e-07	-1.535625e-06	-7.882666e-09	-1.074258e+01	-5.166372e+02
6.900000e-07	-1.435209e-06	-7.729795e-09	-1.004011e+01	-5.075192e+02
7.000000e-07	-1.334394e-06	-7.565405e-09	-9.334860e+00	-4.981841e+02
7.100000e-07	-1.233169e-06	-7.397671e-09	-8.626732e+00	-4.884864e+02
7.200000e-07	-1.131512e-06	-7.229976e-09	-7.915584e+00	-4.782737e+02
7.300000e-07	-1.029458e-06	-7.059421e-09	-7.201654e+00	-4.674062e+02
7.400000e-07	-9.270363e-07	-6.883701e-09	-6.485155e+00	-4.557750e+02
7.500000e-07	-8.243099e-07	-6.700884e-09	-5.766525e+00	-4.433177e+02
7.600000e-07	-7.213145e-07	-6.509124e-09	-5.046012e+00	-4.300279e+02
7.700000e-07	-6.180301e-07	-6.307596e-09	-4.323478e+00	-4.159576e+02
7.800000e-07	-5.145031e-07	-6.096866e-09	-3.599247e+00	-4.012104e+02
7.900000e-07	-4.107854e-07	-5.878368e-09	-2.873681e+00	-3.859271e+02
8.000000e-07	-3.069344e-07	-5.654783e-09	-2.147183e+00	-3.702638e+02
8.100000e-07	-2.029991e-07	-5.425653e-09	-1.420096e+00	-3.543646e+02
8.200000e-07	-9.896230e-08	-5.187182e-09	-6.922985e-01	-3.383330e+02
8.300000e-07	5.125874e-09	-4.938109e-09	3.585845e-02	-3.222042e+02
8.400000e-07	1.092032e-07	-4.675200e-09	7.639392e-01	-3.059231e+02
8.500000e-07	2.132377e-07	-4.397884e-09	1.491721e+00	-2.893302e+02
8.600000e-07	3.171954e-07	-4.107410e-09	2.218965e+00	-2.721591e+02
8.700000e-07	4.210353e-07	-3.801044e-09	2.945386e+00	-2.540455e+02
8.800000e-07	5.246976e-07	-3.476659e-09	3.670563e+00	-2.345495e+02
8.900000e-07	6.281783e-07	-3.134702e-09	4.394470e+00	-2.131888e+02
9.000000e-07	7.314233e-07	-2.774579e-09	5.116729e+00	-1.894809e+02
9.100000e-07	8.343507e-07	-2.388644e-09	5.836766e+00	-1.629893e+02
9.200000e-07	9.369814e-07	-1.969953e-09	6.554726e+00	-1.333711e+02
9.300000e-07	1.039283e-06	-1.511013e-09	7.270384e+00	-1.004199e+02
9.400000e-07	1.141194e-06	-1.003658e-09	7.983315e+00	-6.409960e+01
9.500000e-07	1.242728e-06	-4.376787e-10	8.693604e+00	-2.456575e+01
9.600000e-07	1.343880e-06	1.953541e-10	9.401220e+00	1.782856e+01
9.700000e-07	1.444659e-06	8.922701e-10	1.010622e+01	6.254344e+01
9.800000e-07	1.545002e-06	1.640482e-09	1.080818e+01	1.088792e+02
9.900000e-07	1.644802e-06	2.418151e-09	1.150634e+01	1.560173e+02
1.000000e-06	1.743931e-06	3.198190e-09	1.219980e+01	2.030725e+02
1.010000e-06	1.842281e-06	3.946058e-09	1.288782e+01	2.491507e+02
1.020000e-06	1.939818e-06	4.633006e-09	1.357015e+01	2.934080e+02
1.030000e-06	2.036606e-06	5.247641e-09	1.424723e+01	3.351055e+02
1.040000e-06	2.132731e-06	5.793586e-09	1.491969e+01	3.736548e+02
1.050000e-06	2.228092e-06	6.278841e-09	1.558679e+01	4.086503e+02
1.060000e-06	2.322665e-06	6.709145e-09	1.624839e+01	4.398862e+02
1.070000e-06	2.416518e-06	7.087590e-09	1.690494e+01	4.673562e+02
1.080000e-06	2.509634e-06	7.422585e-09	1.755634e+01	4.912375e+02
1.090000e-06	2.602017e-06	7.727148e-09	1.820261e+01	5.118606e+02
1.100000e-06	2.693458e-06	8.005248e-09	1.884230e+01	5.296685e+02
1.110000e-06	2.783705e-06	8.257773e-09	1.947363e+01	5.451697e+02
1.120000e-06	2.872828e-06	8.488832e-09	2.009709e+01	5.588901e+02
1.130000e-06	2.960975e-06	8.705591e-09	2.071373e+01	5.713277e+02
1.140000e-06	3.048102e-06	8.908073e-09	2.132323e+01	5.829151e+02
1.150000e-06	3.134172e-06	9.093147e-09	2.192534e+01	5.939919e+02
1.160000e-06	3.219258e-06	9.261538e-09	2.252057e+01	6.047901e+02
1.170000e-06	3.303394e-06	9.417000e-09	2.310915e+01	6.154318e+02
1.180000e-06	3.386370e-06	9.566952e-09	2.368962e+01	6.259387e+02
1.190000e-06	3.468103e-06	9.714076e-09	2.426139e+01	6.362519e+02
1.200000e-06	3.548517e-06	9.853751e-09	2.482393e+01	6.462572e+02
1.210000e-06	3.627584e-06	9.982657e-09	2.537705e+01	6.558149e+02
1.220000e-06	3.705412e-06	1.010421e-08	2.592150e+01	6.647875e+02
1.230000e-06	3.781957e-06	1.021967e-08	2.645697e+01	6.730649e+02
1.240000e-06	3.857008e-06	1.032659e-08	2.698200e+01	6.805822e+02
1.250000e-06	3.930424e-06	1.042369e-08	2.749559e+01	6.873299e+02
1.260000e-06	4.002372e-06	1.051500e-08	2.799891e+01	6.933551e+02
1.270000e-06	4.072894e-06	1.060549e-08	2.849225e+01	6.987551e+02
1.280000e-06	4.142034e-06	1.069470e-08	2.897592e+01	7.036637e+02
1.290000e-06	4.209846e-06	1.077862e-08	2.945031e+01	7.082339e+02
1.300000e-06	4.276089e-06	1.085692e-08	2.991371e+01	7.126182e+02
1.310000e-06	4.340642e-06	1.093173e-08	3.036530e+01	7.169503e+02
1.320000e-06	4.403676e-06	1.100297e-08	3.080626e+01	7.213298e+02
1.330000e-06	4.465285e-06	1.107205e-08	3.123725e+01	7.258126e+02
1.340000e-06	4.525543e-06	1.113782e-08	3.165879e+01	7.304065e+02
1.350000e-06	4.584168e-06	1.119945e-08	3.206891e+01	7.350747e+02
1.360000e-06	4.640945e-06	1.125898e-08	3.246609e+01	7.397435e+02
1.370000e-06	4.696048e-06	1.131834e-08	3.285157e+01	7.443158e+02
1.380000e-06	4.749518e-06	1.137612e-08	3.322562e+01	7.486855e+02
1.390000e-06	4.801079e-06	1.142937e-08	3.358633e+01	7.527539e+02
1.400000e-06	4.850563e-06	1.147611e-08	3.393249e+01	7.564433e+02
1.410000e-06	4.898236e-06	1.151917e-08	3.426599e+01	7.597072e+02
1.420000e-06	4.944278e-06	1.156278e-08	3.458808e+01	7.625360e+02
1.430000e-06	4.988685e-06	1.160346e-08	3.489874e+01	7.649576e+02
1.440000e-06	5.031260e-06	1.163985e-08	3.519657e+01	7.670323e+02
1.450000e-06	5.071919e-06	1.167673e-08	3.548101e+01	7.688439e+02
1.460000e-06	5.110863e-06	1.171457e-08	3.575344e+01	7.704879e+02
1.470000e-06	5.148136e-06	1.174668e-08	3.601419e+01	7.720581e+02
1.480000e-06	5.183658e-06	1.177291e-08	3.626269e+01	7.736348e+02
1.490000e-06	5.217213e-06	1.179948e-08	3.649742e+01	7.752740e+02
1.500000e-06	5.248908e-06	1.182552e-08	3.671915e+01	7.770016e+02
1.510000e-06	5.278926e-06	1.184720e-08	3.692914e+01	7.788110e+02
1.520000e-06	5.307200e-06	1.186661e-08	3.712694e+01	7.806655e+02
1.530000e-06	5.333455e-06	1.188800e-08	3.731060e+01	7.825049e+02
1.540000e-06	5.357611e-06	1.191020e-08	3.747959e+01	7.842554e+02
1.550000e-06	5.379945e-06	1.192742e-08	3.763583e+01	7.858402e+02
1.560000e-06	5.400591e-06	1.193791e-08	3.778025e+01	7.871910e+02
1.570000e-06	5.419455e-06	1.194719e-08	3.791222e+01	7.882580e+02
1.580000e-06	5.436335e-06	1.195963e-08	3.803031e+01	7.890164e+02
1.590000e-06	5.451178e-06	1.197154e-08	3.813414e+01	7.894701e+02
1.600000e-06	5.463990e-06	1.197914e-08	3.822377e+01	7.896505e+02
1.610000e-06	5.474551e-06	1.198551e-08	3.829765e+01	7.896119e+02
1.620000e-06	5.482934e-06	1.199377e-08	3.835630e+01	7.894240e+02
1.630000e-06	5.489439e-06	1.199994e-08	3.840180e+01	7.891614e+02
1.640000e-06	5.494197e-06	1.199978e-08	3.843509e+01	7.888941e+02
1.650000e-06	5.497013e-06	1.199681e-08	3.845479e+01	7.886771e+02
1.660000e-06	5.497758e-06	1.200001e-08	3.846000e+01	7.885436e+02
1.670000e-06	5.496678e-06	1.200290e-08	3.845244e+01	7.885007e+02
1.680000e-06	5.493924e-06	1.199734e-08	3.843317e+01	7.885289e+02
1.690000e-06	5.489445e-06	1.199057e-08	3.840184e+01	7.885855e+02
1.700000e-06	5.483038e-06	1.198157e-08	3.835702e+01	7.886109e+02
1.710000e-06	5.474851e-06	1.197330e-08	3.829975e+01	7.885376e+02
1.720000e-06	5.465075e-06	1.196542e-08	3.823136e+01	7.883001e+02
1.730000e-06	5.453465e-06	1.196211e-08	3.815014e+01	7.878440e+02
1.740000e-06	5.439715e-06	1.196727e-08	3.805395e+01	7.871339e+02
1.750000e-06	5.423970e-06	1.188784e-08	3.794380e+01	7.861586e+02
1.760000e-06	5.405952e-06	1.184928e-08	3.781776e+01	7.849325e+02
1.770000e-06	5.385118e-06	1.186749e-08	3.767201e+01	7.834934e+02
1.780000e-06	5.361929e-06	1.185804e-08	3.750980e+01	7.818970e+02
1.790000e-06	5.337392e-06	1.194543e-08	3.733814e+01	7.802092e+02
1.800000e-06	5.312148e-06	1.183744e-08	3.716155e+01	7.784963e+02
1.810000e-06	5.285495e-06	1.172416e-08	3.697509e+01	7.768152e+02
1.820000e-06	5.256368e-06	1.188952e-08	3.677134e+01	7.752058e+02
1.830000e-06	5.225408e-06	1.177273e-08	3.655475e+01	7.736841e+02
1.840000e-06	5.192857e-06	1.171669e-08	3.632704e+01	7.722402e+02
1.850000e-06	5.158382e-06	1.186114e-08	3.608586e+01	7.708390e+02
1.860000e-06	5.122388e-06	1.169209e-08	3.583406e+01	7.694247e+02
1.870000e-06	5.084453e-06	1.171120e-08	3.556869e+01	7.679283e+02
1.880000e-06	5.044513e-06	1.175862e-08	3.528928e+01	7.662766e+02
1.890000e-06	5.003041e-06	1.156896e-08	3.499916e+01	7.644027e+02
1.900000e-06	4.959748e-06	1.162755e-08	3.469630e+01	7.622548e+02
1.910000e-06	4.914656e-06	1.154095e-08	3.438086e+01	7.598035e+02
1.920000e-06	4.867774e-06	1.148330e-08	3.405289e+01	7.570459e+02
1.930000e-06	4.818988e-06	1.157622e-08	3.371161e+01	7.540060e+02
1.940000e-06	4.768572e-06	1.139624e-08	3.335892e+01	7.507317e+02
1.950000e-06	4.716158e-06	1.141059e-08	3.299225e+01	7.472877e+02
1.960000e-06	4.661716e-06	1.137603e-08	3.261140e+01	7.437471e+02
1.970000e-06	4.605631e-06	1.126862e-08	3.221905e+01	7.401809e+02
1.980000e-06	4.547867e-06	1.126577e-08	3.181496e+01	7.366478e+02
1.990000e-06	4.488663e-06	1.116101e-08	3.140080e+01	7.331859e+02
2.000000e-06	4.427792e-06	1.119414e-08	3.097497e+01	7.298072e+02
2.010000e-06	4.365165e-06	1.111030e-08	3.053685e+01	7.264954e+02
2.020000e-06	4.301008e-06	1.104555e-08	3.008804e+01	7.232078e+02
2.030000e-06	4.235351e-06	1.101848e-08	2.962873e+01	7.198807e+02
2.040000e-06	4.168348e-06	1.087553e-08	2.916000e+01	7.164379e+02
2.050000e-06	4.099643e-06	1.087927e-08	2.867938e+01	7.128015e+02
2.060000e-06	4.029187e-06	1.078094e-08	2.818650e+01	7.089018e+02
2.070000e-06	3.957312e-06	1.073371e-08	2.768369e+01	7.046879e+02
2.080000e-06	3.884178e-06	1.068853e-08	2.717207e+01	7.001340e+02
2.090000e-06	3.809748e-06	1.058840e-08	2.665139e+01	6.952436e+02
2.100000e-06	3.733714e-06	1.055689e-08	2.611949e+01	6.900490e+02
2.110000e-06	3.656053e-06	1.043053e-08	2.557621e+01	6.846068e+02
2.120000e-06	3.576938e-06	1.037354e-08	2.502275e+01	6.789896e+02
2.130000e-06	3.496632e-06	1.028709e-08	2.446096e+01	6.732759e+02
2.140000e-06	3.415182e-06	1.021345e-08	2.389117e+01	6.675383e+02
2.150000e-06	3.332537e-06	1.014901e-08	2.331303e+01	6.618326e+02
2.160000e-06	3.248797e-06	1.004126e-08	2.272721e+01	6.561887e+02
2.170000e-06	3.163785e-06	9.972407e-09	2.213250e+01	6.506054e+02
2.180000e-06	3.077478e-06	9.859377e-09	2.152874e+01	6.450488e+02
2.190000e-06	2.990130e-06	9.773520e-09	2.091769e+01	6.394561e+02
2.200000e-06	2.901804e-06	9.670827e-09	2.029980e+01	6.337428e+02
2.210000e-06	2.812476e-06	9.573919e-09	1.967489e+01	6.278136e+02
2.220000e-06	2.722190e-06	9.483389e-09	1.904330e+01	6.215752e+02
2.230000e-06	2.631064e-06	9.373839e-09	1.840581e+01	6.149487e+02
2.240000e-06	2.539153e-06	9.268655e-09	1.776284e+01	6.078812e+02
2.250000e-06	2.446296e-06	9.144749e-09	1.711325e+01	6.003528e+02
2.260000e-06	2.352260e-06	9.036301e-09	1.645542e+01	5.923804e+02
2.270000e-06	2.257316e-06	8.922888e-09	1.579123e+01	5.840154e+02
2.280000e-06	2.161691e-06	8.813461e-09	1.512228e+01	5.753365e+02
2.290000e-06	2.065304e-06	8.692156e-09	1.444800e+01	5.664385e+02
2.300000e-06	1.968248e-06	8.561509e-09	1.376903e+01	5.574177e+02
2.310000e-06	1.870587e-06	8.428827e-09	1.308584e+01	5.483571e+02
2.320000e-06	1.772290e-06	8.289377e-09	1.239819e+01	5.393111e+02
2.330000e-06	1.673424e-06	8.149861e-09	1.170657e+01	5.302957e+02
2.340000e-06	1.574136e-06	8.003638e-09	1.101199e+01	5.212812e+02
2.350000e-06	1.474416e-06	7.861297e-09	1.031439e+01	5.121925e+02
2.360000e-06	1.374143e-06	7.711708e-09	9.612922e+00	5.029153e+02
2.370000e-06	1.273326e-06	7.557252e-09	8.907655e+00	4.933079e+02
2.380000e-06	1.172024e-06	7.388187e-09	8.198989e+00	4.832178e+02
2.390000e-06	1.070053e-06	7.209467e-09	7.485636e+00	4.725008e+02
2.400000e-06	9.674859e-07	7.031644e-09	6.768123e+00	4.610399e+02
2.410000e-06	8.645416e-07	6.850382e-09	6.047969e+00	4.487619e+02
2.420000e-06	7.612680e-07	6.664888e-09	5.325510e+00	4.356478e+02
2.430000e-06	6.578059e-07	6.468520e-09	4.601733e+00	4.217373e+02
2.440000e-06	5.541332e-07	6.262255e-09	3.876482e+00	4.071240e+02
2.450000e-06	4.502394e-07	6.047144e-09	3.149685e+00	3.919423e+02
2.460000e-06	3.462146e-07	5.823465e-09	2.421971e+00	3.763471e+02
2.470000e-06	2.421212e-07	5.590752e-09	1.693778e+00	3.604876e+02
2.480000e-06	1.380238e-07	5.351349e-09	9.655566e-01	3.444784e+02
2.490000e-06	3.387812e-08	5.103787e-09	2.369971e-01	3.283714e+02
2.500000e-06	-7.030510e-08	4.845997e-09	-4.918248e-01	3.121324e+02
2.510000e-06	-1.744259e-07	4.574253e-09	-1.220210e+00	2.956249e+02
2.520000e-06	-2.784402e-07	4.286620e-09	-1.947850e+00	2.786050e+02
2.530000e-06	-3.823970e-07	3.985066e-09	-2.675088e+00	2.607280e+02
2.540000e-06	-4.862999e-07	3.667205e-09	-3.401949e+00	2.415676e+02
2.550000e-06	-5.900443e-07	3.331457e-09	-4.127701e+00	2.206475e+02
2.560000e-06	-6.935646e-07	2.975801e-09	-4.851885e+00	1.974813e+02
2.570000e-06	-7.968192e-07	2.597680e-09	-5.574211e+00	1.716187e+02
2.580000e-06	-8.998001e-07	2.190158e-09	-6.294622e+00	1.426928e+02
2.590000e-06	-1.002418e-06	1.744036e-09	-7.012493e+00	1.104648e+02
2.600000e-06	-1.104456e-06	1.249900e-09	-7.726308e+00	7.485979e+01
2.610000e-06	-1.205850e-06	7.009302e-10	-8.435616e+00	3.599121e+01
2.620000e-06	-1.306692e-06	9.389908e-11	-9.141066e+00	-5.829830e+00
2.630000e-06	-1.407041e-06	-5.779200e-10	-9.843063e+00	-5.010174e+01
2.640000e-06	-1.506932e-06	-1.314242e-09	-1.054186e+01	-9.615602e+01
2.650000e-06	-1.606413e-06	-2.094084e-09	-1.123779e+01	-1.431956e+02
2.660000e-06	-1.705422e-06	-2.880265e-09	-1.193041e+01	-1.903447e+02
2.670000e-06	-1.803774e-06	-3.639111e-09	-1.261844e+01	-2.367062e+02
2.680000e-06	-1.901419e-06	-4.351677e-09	-1.330153e+01	-2.814206e+02
2.690000e-06	-1.998397e-06	-5.003229e-09	-1.397994e+01	-3.237222e+02
2.700000e-06	-2.094745e-06	-5.581439e-09	-1.465395e+01	-3.629871e+02
2.710000e-06	-2.190525e-06	-6.085790e-09	-1.532399e+01	-3.987687e+02
2.720000e-06	-2.285732e-06	-6.530088e-09	-1.599002e+01	-4.308177e+02
2.730000e-06	-2.380161e-06	-6.930152e-09	-1.665060e+01	-4.590859e+02
2.740000e-06	-2.473520e-06	-7.287378e-09	-1.730371e+01	-4.837134e+02
2.750000e-06	-2.565800e-06	-7.602110e-09	-1.794925e+01	-5.050008e+02
2.760000e-06	-2.657101e-06	-7.887356e-09	-1.858795e+01	-5.233709e+02
2.770000e-06	-2.747448e-06	-8.150041e-09	-1.921999e+01	-5.393223e+02
2.780000e-06	-2.836842e-06	-8.391369e-09	-1.984535e+01	-5.533811e+02
2.790000e-06	-2.925241e-06	-8.616176e-09	-2.046375e+01	-5.660548e+02
2.800000e-06	-3.012698e-06	-8.825175e-09	-2.107556e+01	-5.777926e+02
2.810000e-06	-3.099165e-06	-9.019130e-09	-2.168045e+01	-5.889558e+02
2.820000e-06	-3.184350e-06	-9.199079e-09	-2.227637e+01	-5.998000e+02
2.830000e-06	-3.268276e-06	-9.365366e-09	-2.286348e+01	-6.104705e+02
2.840000e-06	-3.351090e-06	-9.519496e-09	-2.344281e+01	-6.210092e+02
2.850000e-06	-3.432774e-06	-9.664482e-09	-2.401424e+01	-6.313723e+02
2.860000e-06	-3.513330e-06	-9.801490e-09	-2.457777e+01	-6.414553e+02
2.870000e-06	-3.592749e-06	-9.929660e-09	-2.513336e+01	-6.511212e+02
2.880000e-06	-3.670773e-06	-1.005108e-08	-2.567918e+01	-6.602300e+02
2.890000e-06	-3.747268e-06	-1.016732e-08	-2.621431e+01	-6.686639e+02
2.900000e-06	-3.822299e-06	-1.027839e-08	-2.673919e+01	-6.763472e+02
2.910000e-06	-3.895888e-06	-1.038311e-08	-2.725399e+01	-6.832580e+02
2.920000e-06	-3.968110e-06	-1.048205e-08	-2.775923e+01	-6.894316e+02
2.930000e-06	-4.039010e-06	-1.057682e-08	-2.825521e+01	-6.949556e+02
2.940000e-06	-4.108439e-06	-1.066689e-08	-2.874090e+01	-6.999573e+02
