# Temperatura_=_48.78
# Concentracion g/m^3_=_15500.0
# C_Vs_to_Am_M_A/Vsm_=_65563218390.804596
# pendiente_HvsI_1/m_=_3716.3
# ordenada_HvsI_A/m_=_1297.0
# frecuencia_Hz_=_300808.8402401793

Tiempo_(s)	Campo_(V.s)	Magnetizacion_(V.s)	Campo_(kA/m)	Magnetizacion_(A/m)
0.000000e+00	-5.480755e-06	-1.235904e-08	-3.830440e+01	-8.076613e+02
1.000000e-08	-5.479133e-06	-1.236482e-08	-3.829306e+01	-8.078070e+02
2.000000e-08	-5.475475e-06	-1.236562e-08	-3.826749e+01	-8.079828e+02
3.000000e-08	-5.470138e-06	-1.236023e-08	-3.823020e+01	-8.081196e+02
4.000000e-08	-5.463240e-06	-1.235012e-08	-3.818198e+01	-8.081408e+02
5.000000e-08	-5.454722e-06	-1.233457e-08	-3.812245e+01	-8.079728e+02
6.000000e-08	-5.444243e-06	-1.231528e-08	-3.804922e+01	-8.075558e+02
7.000000e-08	-5.431643e-06	-1.228952e-08	-3.796116e+01	-8.068526e+02
8.000000e-08	-5.417060e-06	-1.227190e-08	-3.785924e+01	-8.058530e+02
9.000000e-08	-5.400181e-06	-1.231584e-08	-3.774127e+01	-8.045761e+02
1.000000e-07	-5.381001e-06	-1.232634e-08	-3.760722e+01	-8.030670e+02
1.100000e-07	-5.359803e-06	-1.227457e-08	-3.745908e+01	-8.013904e+02
1.200000e-07	-5.336729e-06	-1.224984e-08	-3.729781e+01	-7.996216e+02
1.300000e-07	-5.312168e-06	-1.215844e-08	-3.712616e+01	-7.978355e+02
1.400000e-07	-5.286186e-06	-1.212452e-08	-3.694457e+01	-7.960961e+02
1.500000e-07	-5.258367e-06	-1.222643e-08	-3.675015e+01	-7.944471e+02
1.600000e-07	-5.228763e-06	-1.209073e-08	-3.654325e+01	-7.929052e+02
1.700000e-07	-5.197656e-06	-1.206016e-08	-3.632585e+01	-7.914580e+02
1.800000e-07	-5.164700e-06	-1.217474e-08	-3.609552e+01	-7.900647e+02
1.900000e-07	-5.129642e-06	-1.202490e-08	-3.585050e+01	-7.886619e+02
2.000000e-07	-5.092994e-06	-1.201406e-08	-3.559438e+01	-7.871716e+02
2.100000e-07	-5.054710e-06	-1.201467e-08	-3.532681e+01	-7.855120e+02
2.200000e-07	-5.014608e-06	-1.187181e-08	-3.504654e+01	-7.836089e+02
2.300000e-07	-4.972648e-06	-1.190873e-08	-3.475329e+01	-7.814052e+02
2.400000e-07	-4.928635e-06	-1.191005e-08	-3.444569e+01	-7.788694e+02
2.500000e-07	-4.882822e-06	-1.183131e-08	-3.412551e+01	-7.759997e+02
2.600000e-07	-4.835306e-06	-1.181252e-08	-3.379342e+01	-7.728243e+02
2.700000e-07	-4.785818e-06	-1.172544e-08	-3.344755e+01	-7.693972e+02
2.800000e-07	-4.734212e-06	-1.168266e-08	-3.308689e+01	-7.657913e+02
2.900000e-07	-4.680656e-06	-1.165133e-08	-3.271259e+01	-7.620876e+02
3.000000e-07	-4.625407e-06	-1.159948e-08	-3.232646e+01	-7.583642e+02
3.100000e-07	-4.568528e-06	-1.154698e-08	-3.192894e+01	-7.546850e+02
3.200000e-07	-4.509871e-06	-1.150307e-08	-3.151899e+01	-7.510904e+02
3.300000e-07	-4.449498e-06	-1.147584e-08	-3.109705e+01	-7.475916e+02
3.400000e-07	-4.387605e-06	-1.137086e-08	-3.066449e+01	-7.441682e+02
3.500000e-07	-4.324283e-06	-1.130574e-08	-3.022194e+01	-7.407709e+02
3.600000e-07	-4.259492e-06	-1.125562e-08	-2.976912e+01	-7.373278e+02
3.700000e-07	-4.193005e-06	-1.118271e-08	-2.930445e+01	-7.337541e+02
3.800000e-07	-4.124823e-06	-1.114261e-08	-2.882793e+01	-7.299637e+02
3.900000e-07	-4.055211e-06	-1.106576e-08	-2.834143e+01	-7.258812e+02
4.000000e-07	-3.984327e-06	-1.098883e-08	-2.784602e+01	-7.214525e+02
4.100000e-07	-3.912232e-06	-1.092063e-08	-2.734216e+01	-7.166525e+02
4.200000e-07	-3.838761e-06	-1.084132e-08	-2.682868e+01	-7.114890e+02
4.300000e-07	-3.763570e-06	-1.075977e-08	-2.630318e+01	-7.060018e+02
4.400000e-07	-3.686703e-06	-1.067418e-08	-2.576596e+01	-7.002572e+02
4.500000e-07	-3.608362e-06	-1.060844e-08	-2.521845e+01	-6.943392e+02
4.600000e-07	-3.528549e-06	-1.053044e-08	-2.466064e+01	-6.883372e+02
4.700000e-07	-3.447348e-06	-1.044552e-08	-2.409314e+01	-6.823331e+02
4.800000e-07	-3.364891e-06	-1.035428e-08	-2.351685e+01	-6.763891e+02
4.900000e-07	-3.281330e-06	-1.025249e-08	-2.293286e+01	-6.705380e+02
5.000000e-07	-3.196820e-06	-1.016491e-08	-2.234222e+01	-6.647772e+02
5.100000e-07	-3.111385e-06	-1.006688e-08	-2.174513e+01	-6.590677e+02
5.200000e-07	-3.024984e-06	-9.965359e-09	-2.114128e+01	-6.533381e+02
5.300000e-07	-2.937616e-06	-9.863840e-09	-2.053068e+01	-6.474933e+02
5.400000e-07	-2.849298e-06	-9.760740e-09	-1.991343e+01	-6.414271e+02
5.500000e-07	-2.759972e-06	-9.657676e-09	-1.928914e+01	-6.350358e+02
5.600000e-07	-2.669500e-06	-9.547616e-09	-1.865684e+01	-6.282331e+02
5.700000e-07	-2.577837e-06	-9.433530e-09	-1.801622e+01	-6.209620e+02
5.800000e-07	-2.485223e-06	-9.315003e-09	-1.736895e+01	-6.132032e+02
5.900000e-07	-2.391880e-06	-9.201862e-09	-1.671659e+01	-6.049784e+02
6.000000e-07	-2.297746e-06	-9.081255e-09	-1.605870e+01	-5.963480e+02
6.100000e-07	-2.202758e-06	-8.951057e-09	-1.539483e+01	-5.874026e+02
6.200000e-07	-2.107058e-06	-8.816477e-09	-1.472600e+01	-5.782502e+02
6.300000e-07	-2.010687e-06	-8.681040e-09	-1.405247e+01	-5.690002e+02
6.400000e-07	-1.913557e-06	-8.550212e-09	-1.337364e+01	-5.597460e+02
6.500000e-07	-1.815558e-06	-8.413759e-09	-1.268873e+01	-5.505492e+02
6.600000e-07	-1.716711e-06	-8.269268e-09	-1.199790e+01	-5.414278e+02
6.700000e-07	-1.617170e-06	-8.119591e-09	-1.130222e+01	-5.323491e+02
6.800000e-07	-1.517062e-06	-7.969087e-09	-1.060258e+01	-5.232297e+02
6.900000e-07	-1.416467e-06	-7.808468e-09	-9.899534e+00	-5.139429e+02
7.000000e-07	-1.315418e-06	-7.637875e-09	-9.193312e+00	-5.043321e+02
7.100000e-07	-1.213962e-06	-7.465646e-09	-8.484246e+00	-4.942295e+02
7.200000e-07	-1.112145e-06	-7.291925e-09	-7.772657e+00	-4.834770e+02
7.300000e-07	-1.009934e-06	-7.115860e-09	-7.058321e+00	-4.719475e+02
7.400000e-07	-9.072994e-07	-6.934510e-09	-6.341016e+00	-4.595627e+02
7.500000e-07	-8.043187e-07	-6.746958e-09	-5.621295e+00	-4.463050e+02
7.600000e-07	-7.010678e-07	-6.550299e-09	-4.899686e+00	-4.322216e+02
7.700000e-07	-5.975981e-07	-6.344360e-09	-4.176547e+00	-4.174190e+02
7.800000e-07	-4.939823e-07	-6.126470e-09	-3.452388e+00	-4.020482e+02
7.900000e-07	-3.902567e-07	-5.897903e-09	-2.727461e+00	-3.862821e+02
8.000000e-07	-2.864004e-07	-5.662371e-09	-2.001621e+00	-3.702855e+02
8.100000e-07	-1.824404e-07	-5.422012e-09	-1.275056e+00	-3.541843e+02
8.200000e-07	-7.838605e-08	-5.175366e-09	-5.478315e-01	-3.380336e+02
8.300000e-07	2.570700e-08	-4.916080e-09	1.796634e-01	-3.217928e+02
8.400000e-07	1.297856e-07	-4.642597e-09	9.070575e-01	-3.053076e+02
8.500000e-07	2.338358e-07	-4.354974e-09	1.634253e+00	-2.883053e+02
8.600000e-07	3.378124e-07	-4.052374e-09	2.360933e+00	-2.704025e+02
8.700000e-07	4.416467e-07	-3.727329e-09	3.086620e+00	-2.511273e+02
8.800000e-07	5.453279e-07	-3.378796e-09	3.811237e+00	-2.299537e+02
8.900000e-07	6.488643e-07	-3.009907e-09	4.534841e+00	-2.063469e+02
9.000000e-07	7.521959e-07	-2.620078e-09	5.257014e+00	-1.798135e+02
9.100000e-07	8.552633e-07	-2.201583e-09	5.977341e+00	-1.499546e+02
9.200000e-07	9.580149e-07	-1.740149e-09	6.695461e+00	-1.165130e+02
9.300000e-07	1.060397e-06	-1.225236e-09	7.411000e+00	-7.941327e+01
9.400000e-07	1.162369e-06	-6.526493e-10	8.123667e+00	-3.878704e+01
9.500000e-07	1.263934e-06	-1.468927e-11	8.833497e+00	5.017657e+00
9.600000e-07	1.365113e-06	7.013696e-10	9.540623e+00	5.144538e+01
9.700000e-07	1.465944e-06	1.487946e-09	1.024532e+01	9.976031e+01
9.800000e-07	1.566341e-06	2.313110e-09	1.094699e+01	1.490893e+02
9.900000e-07	1.666177e-06	3.135243e-09	1.164473e+01	1.984774e+02
1.000000e-06	1.765361e-06	3.925002e-09	1.233791e+01	2.469509e+02
1.010000e-06	1.863696e-06	4.658505e-09	1.302517e+01	2.935823e+02
1.020000e-06	1.961134e-06	5.315054e-09	1.370615e+01	3.375516e+02
1.030000e-06	2.057854e-06	5.888896e-09	1.438211e+01	3.781976e+02
1.040000e-06	2.153870e-06	6.388611e-09	1.505316e+01	4.150559e+02
1.050000e-06	2.249141e-06	6.831710e-09	1.571900e+01	4.478797e+02
1.060000e-06	2.343661e-06	7.227752e-09	1.637959e+01	4.766418e+02
1.070000e-06	2.437379e-06	7.577029e-09	1.703457e+01	5.015194e+02
1.080000e-06	2.530361e-06	7.883654e-09	1.768441e+01	5.228622e+02
1.090000e-06	2.622637e-06	8.162916e-09	1.832932e+01	5.411489e+02
1.100000e-06	2.713937e-06	8.425412e-09	1.896741e+01	5.569359e+02
1.110000e-06	2.804027e-06	8.668387e-09	1.959704e+01	5.708040e+02
1.120000e-06	2.892990e-06	8.887820e-09	2.021879e+01	5.833078e+02
1.130000e-06	2.981008e-06	9.086544e-09	2.083394e+01	5.949327e+02
1.140000e-06	3.068042e-06	9.272451e-09	2.144221e+01	6.060635e+02
1.150000e-06	3.153984e-06	9.450255e-09	2.204285e+01	6.169660e+02
1.160000e-06	3.238929e-06	9.617311e-09	2.263652e+01	6.277831e+02
1.170000e-06	3.322948e-06	9.770965e-09	2.322372e+01	6.385440e+02
1.180000e-06	3.405773e-06	9.918265e-09	2.380258e+01	6.491846e+02
1.190000e-06	3.487250e-06	1.006249e-08	2.437201e+01	6.595757e+02
1.200000e-06	3.567460e-06	1.019725e-08	2.493259e+01	6.695554e+02
1.210000e-06	3.646401e-06	1.032011e-08	2.548430e+01	6.789607e+02
1.220000e-06	3.724058e-06	1.043677e-08	2.602703e+01	6.876563e+02
1.230000e-06	3.800386e-06	1.055040e-08	2.656048e+01	6.955553e+02
1.240000e-06	3.875153e-06	1.065760e-08	2.708302e+01	7.026324e+02
1.250000e-06	3.948305e-06	1.075442e-08	2.759427e+01	7.089261e+02
1.260000e-06	4.020044e-06	1.084415e-08	2.809565e+01	7.145334e+02
1.270000e-06	4.090353e-06	1.093521e-08	2.858703e+01	7.195948e+02
1.280000e-06	4.159323e-06	1.102478e-08	2.906905e+01	7.242762e+02
1.290000e-06	4.226943e-06	1.110763e-08	2.954164e+01	7.287468e+02
1.300000e-06	4.292900e-06	1.118585e-08	3.000261e+01	7.331585e+02
1.310000e-06	4.357249e-06	1.126142e-08	3.045233e+01	7.376280e+02
1.320000e-06	4.420160e-06	1.133406e-08	3.089201e+01	7.422252e+02
1.330000e-06	4.481643e-06	1.140163e-08	3.132171e+01	7.469677e+02
1.340000e-06	4.541701e-06	1.146406e-08	3.174145e+01	7.518225e+02
1.350000e-06	4.600022e-06	1.152414e-08	3.214905e+01	7.567146e+02
1.360000e-06	4.656500e-06	1.158543e-08	3.254376e+01	7.615401e+02
1.370000e-06	4.711350e-06	1.164624e-08	3.292711e+01	7.661832e+02
1.380000e-06	4.764517e-06	1.170258e-08	3.329869e+01	7.705330e+02
1.390000e-06	4.815728e-06	1.175401e-08	3.365659e+01	7.744994e+02
1.400000e-06	4.864891e-06	1.180276e-08	3.400019e+01	7.780254e+02
1.410000e-06	4.912251e-06	1.184988e-08	3.433118e+01	7.810934e+02
1.420000e-06	4.957969e-06	1.189411e-08	3.465070e+01	7.837272e+02
1.430000e-06	5.002063e-06	1.193386e-08	3.495887e+01	7.859870e+02
1.440000e-06	5.044250e-06	1.197082e-08	3.525371e+01	7.879603e+02
1.450000e-06	5.084529e-06	1.201020e-08	3.553521e+01	7.897492e+02
1.460000e-06	5.123157e-06	1.204916e-08	3.580518e+01	7.914559e+02
1.470000e-06	5.160168e-06	1.208105e-08	3.606385e+01	7.931691e+02
1.480000e-06	5.195414e-06	1.210841e-08	3.631018e+01	7.949526e+02
1.490000e-06	5.228670e-06	1.213709e-08	3.654260e+01	7.968377e+02
1.500000e-06	5.260071e-06	1.216485e-08	3.676206e+01	7.988200e+02
1.510000e-06	5.289757e-06	1.218690e-08	3.696953e+01	8.008619e+02
1.520000e-06	5.317680e-06	1.220483e-08	3.716468e+01	8.028994e+02
1.530000e-06	5.343541e-06	1.222346e-08	3.734542e+01	8.048516e+02
1.540000e-06	5.367336e-06	1.224255e-08	3.751172e+01	8.066340e+02
1.550000e-06	5.389363e-06	1.225855e-08	3.766566e+01	8.081699e+02
1.560000e-06	5.409703e-06	1.227088e-08	3.780782e+01	8.094022e+02
1.570000e-06	5.428181e-06	1.228288e-08	3.793696e+01	8.103009e+02
1.580000e-06	5.444599e-06	1.229679e-08	3.805170e+01	8.108677e+02
1.590000e-06	5.459046e-06	1.230776e-08	3.815268e+01	8.111348e+02
1.600000e-06	5.471451e-06	1.231418e-08	3.823937e+01	8.111607e+02
1.610000e-06	5.481552e-06	1.232010e-08	3.830996e+01	8.110216e+02
1.620000e-06	5.489585e-06	1.232764e-08	3.836611e+01	8.108006e+02
1.630000e-06	5.495826e-06	1.233435e-08	3.840972e+01	8.105762e+02
1.640000e-06	5.500257e-06	1.233546e-08	3.844069e+01	8.104114e+02
1.650000e-06	5.502639e-06	1.233367e-08	3.845734e+01	8.103453e+02
1.660000e-06	5.503020e-06	1.233477e-08	3.846000e+01	8.103882e+02
1.670000e-06	5.501681e-06	1.233429e-08	3.845064e+01	8.105203e+02
1.680000e-06	5.498650e-06	1.233120e-08	3.842946e+01	8.106953e+02
1.690000e-06	5.493707e-06	1.232329e-08	3.839491e+01	8.108472e+02
1.700000e-06	5.486797e-06	1.231283e-08	3.834662e+01	8.109000e+02
1.710000e-06	5.478228e-06	1.230541e-08	3.828673e+01	8.107785e+02
1.720000e-06	5.468064e-06	1.230032e-08	3.821570e+01	8.104193e+02
1.730000e-06	5.455987e-06	1.230689e-08	3.813129e+01	8.097795e+02
1.740000e-06	5.441823e-06	1.228603e-08	3.803230e+01	8.088431e+02
1.750000e-06	5.425703e-06	1.220031e-08	3.791964e+01	8.076230e+02
1.760000e-06	5.407163e-06	1.218820e-08	3.779007e+01	8.061591e+02
1.770000e-06	5.385763e-06	1.218816e-08	3.764051e+01	8.045126e+02
1.780000e-06	5.362150e-06	1.221554e-08	3.747548e+01	8.027574e+02
1.790000e-06	5.337370e-06	1.227449e-08	3.730229e+01	8.009694e+02
1.800000e-06	5.311863e-06	1.210795e-08	3.712403e+01	7.992159e+02
1.810000e-06	5.284678e-06	1.212288e-08	3.693403e+01	7.975454e+02
1.820000e-06	5.255069e-06	1.220887e-08	3.672710e+01	7.959809e+02
1.830000e-06	5.223840e-06	1.202809e-08	3.650884e+01	7.945163e+02
1.840000e-06	5.190929e-06	1.210516e-08	3.627883e+01	7.931165e+02
1.850000e-06	5.156146e-06	1.213580e-08	3.603574e+01	7.917223e+02
1.860000e-06	5.119764e-06	1.197240e-08	3.578147e+01	7.902579e+02
1.870000e-06	5.081268e-06	1.208759e-08	3.551242e+01	7.886417e+02
1.880000e-06	5.040931e-06	1.201564e-08	3.523051e+01	7.867966e+02
1.890000e-06	4.999144e-06	1.188723e-08	3.493846e+01	7.846612e+02
1.900000e-06	4.955449e-06	1.193731e-08	3.463309e+01	7.821981e+02
1.910000e-06	4.909958e-06	1.179961e-08	3.431516e+01	7.793990e+02
1.920000e-06	4.862652e-06	1.183645e-08	3.398454e+01	7.762856e+02
1.930000e-06	4.813527e-06	1.183046e-08	3.364121e+01	7.729071e+02
1.940000e-06	4.762744e-06	1.169457e-08	3.328629e+01	7.693332e+02
1.950000e-06	4.709813e-06	1.172214e-08	3.291637e+01	7.656439e+02
1.960000e-06	4.654976e-06	1.162549e-08	3.253312e+01	7.619191e+02
1.970000e-06	4.598495e-06	1.157968e-08	3.213838e+01	7.582264e+02
1.980000e-06	4.540376e-06	1.151175e-08	3.173219e+01	7.546120e+02
1.990000e-06	4.480807e-06	1.144700e-08	3.131586e+01	7.510936e+02
2.000000e-06	4.419465e-06	1.146965e-08	3.088715e+01	7.476577e+02
2.010000e-06	4.356432e-06	1.135120e-08	3.044662e+01	7.442605e+02
2.020000e-06	4.291876e-06	1.133207e-08	2.999545e+01	7.408345e+02
2.030000e-06	4.225857e-06	1.124173e-08	2.953405e+01	7.372965e+02
2.040000e-06	4.158462e-06	1.114770e-08	2.906303e+01	7.335597e+02
2.050000e-06	4.089350e-06	1.113217e-08	2.858001e+01	7.295456e+02
2.060000e-06	4.018603e-06	1.101882e-08	2.808557e+01	7.251946e+02
2.070000e-06	3.946518e-06	1.098325e-08	2.758178e+01	7.204750e+02
2.080000e-06	3.873102e-06	1.089127e-08	2.706868e+01	7.153874e+02
2.090000e-06	3.798221e-06	1.082949e-08	2.654535e+01	7.099650e+02
2.100000e-06	3.721654e-06	1.076640e-08	2.601023e+01	7.042693e+02
2.110000e-06	3.643521e-06	1.065701e-08	2.546417e+01	6.983813e+02
2.120000e-06	3.564049e-06	1.059441e-08	2.490875e+01	6.923902e+02
2.130000e-06	3.483403e-06	1.048900e-08	2.434512e+01	6.863808e+02
2.140000e-06	3.401618e-06	1.042522e-08	2.377353e+01	6.804204e+02
2.150000e-06	3.318719e-06	1.032532e-08	2.319416e+01	6.745487e+02
2.160000e-06	3.234633e-06	1.023242e-08	2.260650e+01	6.687710e+02
2.170000e-06	3.149212e-06	1.015285e-08	2.200949e+01	6.630558e+02
2.180000e-06	3.062592e-06	1.004892e-08	2.140412e+01	6.573382e+02
2.190000e-06	2.974921e-06	9.958431e-09	2.079139e+01	6.515272e+02
2.200000e-06	2.886321e-06	9.842986e-09	2.017218e+01	6.455178e+02
2.210000e-06	2.796726e-06	9.742696e-09	1.954601e+01	6.392045e+02
2.220000e-06	2.706229e-06	9.635654e-09	1.891354e+01	6.324963e+02
2.230000e-06	2.614865e-06	9.532232e-09	1.827501e+01	6.253289e+02
2.240000e-06	2.522551e-06	9.417799e-09	1.762983e+01	6.176745e+02
2.250000e-06	2.429331e-06	9.297827e-09	1.697833e+01	6.095461e+02
2.260000e-06	2.335122e-06	9.184838e-09	1.631991e+01	6.009962e+02
2.270000e-06	2.240009e-06	9.065580e-09	1.565517e+01	5.921099e+02
2.280000e-06	2.144114e-06	8.947227e-09	1.498498e+01	5.829927e+02
2.290000e-06	2.047547e-06	8.813616e-09	1.431008e+01	5.737553e+02
2.300000e-06	1.950306e-06	8.681387e-09	1.363048e+01	5.644958e+02
2.310000e-06	1.852413e-06	8.545414e-09	1.294631e+01	5.552839e+02
2.320000e-06	1.754005e-06	8.404467e-09	1.225855e+01	5.461477e+02
2.330000e-06	1.655115e-06	8.255180e-09	1.156741e+01	5.370655e+02
2.340000e-06	1.555695e-06	8.103468e-09	1.087258e+01	5.279645e+02
2.350000e-06	1.455701e-06	7.954549e-09	1.017373e+01	5.187263e+02
2.360000e-06	1.355120e-06	7.797215e-09	9.470785e+00	5.091994e+02
2.370000e-06	1.253962e-06	7.632545e-09	8.763800e+00	4.992165e+02
2.380000e-06	1.152228e-06	7.458387e-09	8.052797e+00	4.886156e+02
2.390000e-06	1.049970e-06	7.281494e-09	7.338122e+00	4.772614e+02
2.400000e-06	9.472744e-07	7.100706e-09	6.620397e+00	4.650639e+02
2.410000e-06	8.442144e-07	6.912142e-09	5.900122e+00	4.519918e+02
2.420000e-06	7.408496e-07	6.715746e-09	5.177716e+00	4.380785e+02
2.430000e-06	6.372195e-07	6.511162e-09	4.453457e+00	4.234189e+02
2.440000e-06	5.333925e-07	6.298564e-09	3.727822e+00	4.081560e+02
2.450000e-06	4.294142e-07	6.078345e-09	3.001129e+00	3.924603e+02
2.460000e-06	3.253691e-07	5.847797e-09	2.273969e+00	3.765010e+02
2.470000e-06	2.212749e-07	5.607046e-09	1.546466e+00	3.604150e+02
2.480000e-06	1.170789e-07	5.358910e-09	8.182517e-01	3.442751e+02
2.490000e-06	1.281983e-08	5.099904e-09	8.959641e-02	3.280629e+02
2.500000e-06	-9.139459e-08	4.826983e-09	-6.387467e-01	3.116494e+02
2.510000e-06	-1.955701e-07	4.539706e-09	-1.366818e+00	2.947870e+02
2.520000e-06	-2.997698e-07	4.238842e-09	-2.095058e+00	2.771147e+02
2.530000e-06	-4.039218e-07	3.923736e-09	-2.822965e+00	2.581769e+02
2.540000e-06	-5.078753e-07	3.588618e-09	-3.549485e+00	2.374559e+02
2.550000e-06	-6.115641e-07	3.230199e-09	-4.274154e+00	2.144146e+02
2.560000e-06	-7.150133e-07	2.848535e-09	-4.997149e+00	1.885462e+02
2.570000e-06	-8.182479e-07	2.436878e-09	-5.718645e+00	1.594274e+02
2.580000e-06	-9.212119e-07	1.987152e-09	-6.438249e+00	1.267669e+02
2.590000e-06	-1.023780e-06	1.489840e-09	-7.155085e+00	9.044763e+01
2.600000e-06	-1.125816e-06	9.346805e-10	-7.868202e+00	5.055547e+01
2.610000e-06	-1.227264e-06	3.142882e-10	-8.577210e+00	7.392223e+00
2.620000e-06	-1.328172e-06	-3.753652e-10	-9.282448e+00	-3.852945e+01
2.630000e-06	-1.428507e-06	-1.135231e-09	-9.983676e+00	-8.650924e+01
2.640000e-06	-1.528296e-06	-1.953079e-09	-1.068110e+01	-1.356991e+02
2.650000e-06	-1.627630e-06	-2.791355e-09	-1.137533e+01	-1.851566e+02
2.660000e-06	-1.726458e-06	-3.604273e-09	-1.206603e+01	-2.339063e+02
2.670000e-06	-1.824708e-06	-4.359456e-09	-1.275268e+01	-2.810057e+02
2.680000e-06	-1.922345e-06	-5.045178e-09	-1.343506e+01	-3.256069e+02
2.690000e-06	-2.019295e-06	-5.655042e-09	-1.411263e+01	-3.670109e+02
2.700000e-06	-2.115542e-06	-6.187840e-09	-1.478529e+01	-4.047089e+02
2.710000e-06	-2.211186e-06	-6.651454e-09	-1.545373e+01	-4.384065e+02
2.720000e-06	-2.306274e-06	-7.059812e-09	-1.611829e+01	-4.680303e+02
2.730000e-06	-2.400627e-06	-7.426976e-09	-1.677772e+01	-4.937158e+02
2.740000e-06	-2.493929e-06	-7.757152e-09	-1.742980e+01	-5.157791e+02
2.750000e-06	-2.586078e-06	-8.053081e-09	-1.807381e+01	-5.346753e+02
2.760000e-06	-2.677226e-06	-8.320217e-09	-1.871084e+01	-5.509488e+02
2.770000e-06	-2.767464e-06	-8.565005e-09	-1.934150e+01	-5.651795e+02
2.780000e-06	-2.856671e-06	-8.793485e-09	-1.996496e+01	-5.779315e+02
2.790000e-06	-2.944863e-06	-9.006294e-09	-2.058133e+01	-5.897082e+02
2.800000e-06	-3.032241e-06	-9.202154e-09	-2.119200e+01	-6.009180e+02
2.810000e-06	-3.118633e-06	-9.386058e-09	-2.179578e+01	-6.118529e+02
2.820000e-06	-3.203677e-06	-9.560244e-09	-2.239015e+01	-6.226819e+02
2.830000e-06	-3.287406e-06	-9.720552e-09	-2.297532e+01	-6.334571e+02
2.840000e-06	-3.370018e-06	-9.867909e-09	-2.355269e+01	-6.441322e+02
2.850000e-06	-3.451559e-06	-1.000806e-08	-2.412256e+01	-6.545895e+02
2.860000e-06	-3.531979e-06	-1.014219e-08	-2.468461e+01	-6.646712e+02
2.870000e-06	-3.611213e-06	-1.026820e-08	-2.523837e+01	-6.742120e+02
2.880000e-06	-3.689078e-06	-1.038817e-08	-2.578256e+01	-6.830685e+02
2.890000e-06	-3.765358e-06	-1.050470e-08	-2.631568e+01	-6.911422e+02
2.900000e-06	-3.840096e-06	-1.061595e-08	-2.683801e+01	-6.983940e+02
2.910000e-06	-3.913413e-06	-1.071665e-08	-2.735042e+01	-7.048489e+02
2.920000e-06	-3.985414e-06	-1.080909e-08	-2.785362e+01	-7.105923e+02
2.930000e-06	-4.056116e-06	-1.090152e-08	-2.834775e+01	-7.157570e+02
2.940000e-06	-4.125213e-06	-1.099245e-08	-2.883066e+01	-7.205050e+02
