# Temperatura_=_19.65
# Concentracion g/m^3_=_15500.0
# C_Vs_to_Am_M_A/Vsm_=_65563218390.804596
# pendiente_HvsI_1/m_=_3716.3
# ordenada_HvsI_A/m_=_1297.0
# frecuencia_Hz_=_300819.2584583734

Tiempo_(s)	Campo_(V.s)	Magnetizacion_(V.s)	Campo_(kA/m)	Magnetizacion_(A/m)
0.000000e+00	-5.489774e-06	-1.224497e-08	-3.830501e+01	-7.995151e+02
1.000000e-08	-5.488463e-06	-1.224755e-08	-3.829586e+01	-7.993610e+02
2.000000e-08	-5.485175e-06	-1.224884e-08	-3.827292e+01	-7.992641e+02
3.000000e-08	-5.480090e-06	-1.224380e-08	-3.823744e+01	-7.991947e+02
4.000000e-08	-5.473390e-06	-1.223641e-08	-3.819069e+01	-7.991057e+02
5.000000e-08	-5.465105e-06	-1.222739e-08	-3.813288e+01	-7.989401e+02
6.000000e-08	-5.454921e-06	-1.221247e-08	-3.806182e+01	-7.986397e+02
7.000000e-08	-5.442595e-06	-1.219049e-08	-3.797582e+01	-7.981529e+02
8.000000e-08	-5.428290e-06	-1.216977e-08	-3.787600e+01	-7.974429e+02
9.000000e-08	-5.411598e-06	-1.218647e-08	-3.775953e+01	-7.964927e+02
1.000000e-07	-5.392518e-06	-1.219597e-08	-3.762640e+01	-7.953078e+02
1.100000e-07	-5.371530e-06	-1.215606e-08	-3.747996e+01	-7.939151e+02
1.200000e-07	-5.348691e-06	-1.212485e-08	-3.732060e+01	-7.923595e+02
1.300000e-07	-5.324325e-06	-1.207859e-08	-3.715059e+01	-7.906970e+02
1.400000e-07	-5.298541e-06	-1.204746e-08	-3.697068e+01	-7.889869e+02
1.500000e-07	-5.270926e-06	-1.209484e-08	-3.677799e+01	-7.872832e+02
1.600000e-07	-5.241522e-06	-1.201473e-08	-3.657283e+01	-7.856263e+02
1.700000e-07	-5.210615e-06	-1.195584e-08	-3.635717e+01	-7.840370e+02
1.800000e-07	-5.177897e-06	-1.201723e-08	-3.612888e+01	-7.825132e+02
1.900000e-07	-5.143062e-06	-1.193965e-08	-3.588582e+01	-7.810293e+02
2.000000e-07	-5.106589e-06	-1.190524e-08	-3.563133e+01	-7.795392e+02
2.100000e-07	-5.068519e-06	-1.191251e-08	-3.536569e+01	-7.779823e+02
2.200000e-07	-5.028600e-06	-1.182698e-08	-3.508716e+01	-7.762913e+02
2.300000e-07	-4.986804e-06	-1.182523e-08	-3.479553e+01	-7.744012e+02
2.400000e-07	-4.943003e-06	-1.180210e-08	-3.448991e+01	-7.722576e+02
2.500000e-07	-4.897390e-06	-1.171603e-08	-3.417164e+01	-7.698247e+02
2.600000e-07	-4.850049e-06	-1.169236e-08	-3.384131e+01	-7.670898e+02
2.700000e-07	-4.800817e-06	-1.162801e-08	-3.349780e+01	-7.640648e+02
2.800000e-07	-4.749445e-06	-1.158785e-08	-3.313935e+01	-7.607850e+02
2.900000e-07	-4.696003e-06	-1.157467e-08	-3.276646e+01	-7.573038e+02
3.000000e-07	-4.640875e-06	-1.152402e-08	-3.238180e+01	-7.536856e+02
3.100000e-07	-4.584186e-06	-1.146830e-08	-3.198625e+01	-7.499968e+02
3.200000e-07	-4.525695e-06	-1.141460e-08	-3.157813e+01	-7.462961e+02
3.300000e-07	-4.465437e-06	-1.135689e-08	-3.115768e+01	-7.426268e+02
3.400000e-07	-4.403701e-06	-1.126936e-08	-3.072691e+01	-7.390099e+02
3.500000e-07	-4.340501e-06	-1.122137e-08	-3.028593e+01	-7.354411e+02
3.600000e-07	-4.275835e-06	-1.118460e-08	-2.983473e+01	-7.318912e+02
3.700000e-07	-4.209554e-06	-1.111285e-08	-2.937225e+01	-7.283094e+02
3.800000e-07	-4.141596e-06	-1.106129e-08	-2.889807e+01	-7.246304e+02
3.900000e-07	-4.072126e-06	-1.098760e-08	-2.841334e+01	-7.207829e+02
4.000000e-07	-4.001299e-06	-1.090776e-08	-2.791915e+01	-7.166993e+02
4.100000e-07	-3.929257e-06	-1.084645e-08	-2.741647e+01	-7.123253e+02
4.200000e-07	-3.855904e-06	-1.077043e-08	-2.690465e+01	-7.076272e+02
4.300000e-07	-3.780893e-06	-1.069380e-08	-2.638126e+01	-7.025967e+02
4.400000e-07	-3.704142e-06	-1.061236e-08	-2.584573e+01	-6.972523e+02
4.500000e-07	-3.625876e-06	-1.053584e-08	-2.529962e+01	-6.916364e+02
4.600000e-07	-3.546128e-06	-1.045618e-08	-2.474318e+01	-6.858099e+02
4.700000e-07	-3.464869e-06	-1.037221e-08	-2.417620e+01	-6.798429e+02
4.800000e-07	-3.382334e-06	-1.028479e-08	-2.360031e+01	-6.738051e+02
4.900000e-07	-3.298724e-06	-1.019400e-08	-2.301691e+01	-6.677550e+02
5.000000e-07	-3.214196e-06	-1.010968e-08	-2.242712e+01	-6.617309e+02
5.100000e-07	-3.128753e-06	-1.000983e-08	-2.183093e+01	-6.557449e+02
5.200000e-07	-3.042297e-06	-9.906932e-09	-2.122769e+01	-6.497793e+02
5.300000e-07	-2.954885e-06	-9.805423e-09	-2.061777e+01	-6.437886e+02
5.400000e-07	-2.866533e-06	-9.704770e-09	-2.000129e+01	-6.377039e+02
5.500000e-07	-2.777273e-06	-9.607424e-09	-1.937848e+01	-6.314421e+02
5.600000e-07	-2.686816e-06	-9.501145e-09	-1.874732e+01	-6.249161e+02
5.700000e-07	-2.595067e-06	-9.387123e-09	-1.810713e+01	-6.180469e+02
5.800000e-07	-2.502420e-06	-9.266053e-09	-1.746069e+01	-6.107740e+02
5.900000e-07	-2.409006e-06	-9.148456e-09	-1.680889e+01	-6.030640e+02
6.000000e-07	-2.314795e-06	-9.028080e-09	-1.615153e+01	-5.949153e+02
6.100000e-07	-2.219799e-06	-8.900771e-09	-1.548869e+01	-5.863586e+02
6.200000e-07	-2.124042e-06	-8.771700e-09	-1.482054e+01	-5.774523e+02
6.300000e-07	-2.027621e-06	-8.643027e-09	-1.414776e+01	-5.682742e+02
6.400000e-07	-1.930516e-06	-8.514382e-09	-1.347022e+01	-5.589093e+02
6.500000e-07	-1.832530e-06	-8.373327e-09	-1.278652e+01	-5.494368e+02
6.600000e-07	-1.733606e-06	-8.222319e-09	-1.209627e+01	-5.399167e+02
6.700000e-07	-1.633903e-06	-8.070634e-09	-1.140059e+01	-5.303781e+02
6.800000e-07	-1.533666e-06	-7.923384e-09	-1.070119e+01	-5.208120e+02
6.900000e-07	-1.433056e-06	-7.771256e-09	-9.999177e+00	-5.111686e+02
7.000000e-07	-1.332032e-06	-7.605858e-09	-9.294279e+00	-5.013602e+02
7.100000e-07	-1.230557e-06	-7.432776e-09	-8.586236e+00	-4.912699e+02
7.200000e-07	-1.128641e-06	-7.257541e-09	-7.875115e+00	-4.807644e+02
7.300000e-07	-1.026308e-06	-7.080963e-09	-7.161083e+00	-4.697105e+02
7.400000e-07	-9.236148e-07	-6.900037e-09	-6.444541e+00	-4.579920e+02
7.500000e-07	-8.205924e-07	-6.712678e-09	-5.725700e+00	-4.455252e+02
7.600000e-07	-7.172440e-07	-6.517584e-09	-5.004584e+00	-4.322713e+02
7.700000e-07	-6.136775e-07	-6.314946e-09	-4.281947e+00	-4.182425e+02
7.800000e-07	-5.099428e-07	-6.102246e-09	-3.558136e+00	-4.035009e+02
7.900000e-07	-4.059912e-07	-5.879977e-09	-2.832812e+00	-3.881500e+02
8.000000e-07	-3.018903e-07	-5.651805e-09	-2.106446e+00	-3.723196e+02
8.100000e-07	-1.977411e-07	-5.418865e-09	-1.379743e+00	-3.561435e+02
8.200000e-07	-9.356059e-08	-5.178938e-09	-6.528209e-01	-3.397355e+02
8.300000e-07	1.070382e-08	-4.930066e-09	7.468610e-02	-3.231627e+02
8.400000e-07	1.149888e-07	-4.668096e-09	8.023369e-01	-3.064236e+02
8.500000e-07	2.191551e-07	-4.390612e-09	1.529159e+00	-2.894302e+02
8.600000e-07	3.232441e-07	-4.100094e-09	2.255442e+00	-2.719991e+02
8.700000e-07	4.272134e-07	-3.796559e-09	2.980890e+00	-2.538537e+02
8.800000e-07	5.309935e-07	-3.479238e-09	3.705018e+00	-2.346367e+02
8.900000e-07	6.346854e-07	-3.146650e-09	4.428530e+00	-2.139338e+02
9.000000e-07	7.381899e-07	-2.796728e-09	5.150735e+00	-1.913071e+02
9.100000e-07	8.413844e-07	-2.423214e-09	5.870777e+00	-1.663348e+02
9.200000e-07	9.443009e-07	-2.020940e-09	6.588879e+00	-1.386537e+02
9.300000e-07	1.046878e-06	-1.584341e-09	7.304612e+00	-1.080007e+02
9.400000e-07	1.149059e-06	-1.106708e-09	8.017580e+00	-7.424892e+01
9.500000e-07	1.250861e-06	-5.832669e-10	8.727908e+00	-3.743448e+01
9.600000e-07	1.352271e-06	-4.603228e-12	9.435502e+00	2.229466e+00
9.700000e-07	1.453226e-06	6.320086e-10	1.013991e+01	4.435271e+01
9.800000e-07	1.553711e-06	1.322526e-09	1.084105e+01	8.838313e+01
9.900000e-07	1.653738e-06	2.053959e-09	1.153899e+01	1.336359e+02
1.000000e-06	1.753214e-06	2.805515e-09	1.223309e+01	1.793345e+02
1.010000e-06	1.851942e-06	3.546906e-09	1.292197e+01	2.246598e+02
1.020000e-06	1.949825e-06	4.246028e-09	1.360494e+01	2.688037e+02
1.030000e-06	2.046886e-06	4.887274e-09	1.428219e+01	3.110211e+02
1.040000e-06	2.143146e-06	5.467811e-09	1.495384e+01	3.506772e+02
1.050000e-06	2.238661e-06	5.990439e-09	1.562031e+01	3.872849e+02
1.060000e-06	2.333438e-06	6.457012e-09	1.628161e+01	4.205292e+02
1.070000e-06	2.427525e-06	6.869097e-09	1.693811e+01	4.502775e+02
1.080000e-06	2.520856e-06	7.234648e-09	1.758932e+01	4.765748e+02
1.090000e-06	2.613384e-06	7.565834e-09	1.823494e+01	4.996241e+02
1.100000e-06	2.705028e-06	7.868011e-09	1.887439e+01	5.197563e+02
1.110000e-06	2.795548e-06	8.144848e-09	1.950599e+01	5.373915e+02
1.120000e-06	2.884858e-06	8.401018e-09	2.012916e+01	5.529952e+02
1.130000e-06	2.973115e-06	8.638834e-09	2.074497e+01	5.670361e+02
1.140000e-06	3.060408e-06	8.858354e-09	2.135406e+01	5.799472e+02
1.150000e-06	3.146704e-06	9.062244e-09	2.195619e+01	5.920945e+02
1.160000e-06	3.231997e-06	9.249690e-09	2.255132e+01	6.037562e+02
1.170000e-06	3.316285e-06	9.420857e-09	2.313945e+01	6.151127e+02
1.180000e-06	3.399463e-06	9.583145e-09	2.371982e+01	6.262482e+02
1.190000e-06	3.481357e-06	9.742342e-09	2.429124e+01	6.371622e+02
1.200000e-06	3.561949e-06	9.895283e-09	2.485357e+01	6.477888e+02
1.210000e-06	3.641202e-06	1.003751e-08	2.540656e+01	6.580212e+02
1.220000e-06	3.719095e-06	1.017141e-08	2.595006e+01	6.677372e+02
1.230000e-06	3.795686e-06	1.029890e-08	2.648448e+01	6.768243e+02
1.240000e-06	3.870810e-06	1.041772e-08	2.700865e+01	6.851995e+02
1.250000e-06	3.944289e-06	1.052636e-08	2.752136e+01	6.928235e+02
1.260000e-06	4.016301e-06	1.062798e-08	2.802382e+01	6.997070e+02
1.270000e-06	4.086979e-06	1.072721e-08	2.851698e+01	7.059099e+02
1.280000e-06	4.156305e-06	1.082383e-08	2.900071e+01	7.115330e+02
1.290000e-06	4.224216e-06	1.091324e-08	2.947456e+01	7.167049e+02
1.300000e-06	4.290442e-06	1.099640e-08	2.993664e+01	7.215658e+02
1.310000e-06	4.355004e-06	1.107529e-08	3.038713e+01	7.262501e+02
1.320000e-06	4.418167e-06	1.115135e-08	3.082785e+01	7.308710e+02
1.330000e-06	4.479929e-06	1.122429e-08	3.125880e+01	7.355083e+02
1.340000e-06	4.540248e-06	1.129422e-08	3.167967e+01	7.402012e+02
1.350000e-06	4.598900e-06	1.136188e-08	3.208891e+01	7.449472e+02
1.360000e-06	4.655757e-06	1.142765e-08	3.248564e+01	7.497056e+02
1.370000e-06	4.710942e-06	1.149132e-08	3.287069e+01	7.544064e+02
1.380000e-06	4.764475e-06	1.155119e-08	3.324422e+01	7.589628e+02
1.390000e-06	4.816100e-06	1.160701e-08	3.360444e+01	7.632843e+02
1.400000e-06	4.865615e-06	1.165885e-08	3.394993e+01	7.672906e+02
1.410000e-06	4.913304e-06	1.170860e-08	3.428268e+01	7.709223e+02
1.420000e-06	4.959369e-06	1.175672e-08	3.460410e+01	7.741495e+02
1.430000e-06	5.003827e-06	1.180089e-08	3.491431e+01	7.769746e+02
1.440000e-06	5.046432e-06	1.184156e-08	3.521158e+01	7.794315e+02
1.450000e-06	5.087093e-06	1.188217e-08	3.549530e+01	7.815798e+02
1.460000e-06	5.126038e-06	1.192259e-08	3.576703e+01	7.834965e+02
1.470000e-06	5.163363e-06	1.195765e-08	3.602747e+01	7.852647e+02
1.480000e-06	5.198924e-06	1.198680e-08	3.627560e+01	7.869626e+02
1.490000e-06	5.232453e-06	1.201467e-08	3.650955e+01	7.886531e+02
1.500000e-06	5.264102e-06	1.204137e-08	3.673038e+01	7.903761e+02
1.510000e-06	5.294067e-06	1.206510e-08	3.693946e+01	7.921445e+02
1.520000e-06	5.322334e-06	1.208626e-08	3.713669e+01	7.939435e+02
1.530000e-06	5.348560e-06	1.210764e-08	3.731969e+01	7.957342e+02
1.540000e-06	5.372674e-06	1.212933e-08	3.748794e+01	7.974602e+02
1.550000e-06	5.394966e-06	1.214620e-08	3.764348e+01	7.990569e+02
1.560000e-06	5.415573e-06	1.215826e-08	3.778727e+01	8.004611e+02
1.570000e-06	5.434364e-06	1.216941e-08	3.791839e+01	8.016202e+02
1.580000e-06	5.451117e-06	1.218207e-08	3.803528e+01	8.025005e+02
1.590000e-06	5.465859e-06	1.219381e-08	3.813814e+01	8.030914e+02
1.600000e-06	5.478500e-06	1.220194e-08	3.822634e+01	8.034073e+02
1.610000e-06	5.488897e-06	1.220902e-08	3.829889e+01	8.034851e+02
1.620000e-06	5.497235e-06	1.221665e-08	3.835707e+01	8.033792e+02
1.630000e-06	5.503723e-06	1.222117e-08	3.840234e+01	8.031538e+02
1.640000e-06	5.508508e-06	1.221939e-08	3.843573e+01	8.028741e+02
1.650000e-06	5.511315e-06	1.221648e-08	3.845532e+01	8.025969e+02
1.660000e-06	5.511987e-06	1.221985e-08	3.846000e+01	8.023638e+02
1.670000e-06	5.510859e-06	1.222288e-08	3.845213e+01	8.021948e+02
1.680000e-06	5.508099e-06	1.221843e-08	3.843287e+01	8.020868e+02
1.690000e-06	5.503531e-06	1.220975e-08	3.840100e+01	8.020143e+02
1.700000e-06	5.496986e-06	1.219987e-08	3.835533e+01	8.019333e+02
1.710000e-06	5.488697e-06	1.219215e-08	3.829750e+01	8.017885e+02
1.720000e-06	5.478801e-06	1.218439e-08	3.822845e+01	8.015209e+02
1.730000e-06	5.467048e-06	1.218080e-08	3.814644e+01	8.010770e+02
1.740000e-06	5.453220e-06	1.217443e-08	3.804996e+01	8.004163e+02
1.750000e-06	5.437428e-06	1.211935e-08	3.793976e+01	7.995173e+02
1.760000e-06	5.419273e-06	1.210152e-08	3.781309e+01	7.983804e+02
1.770000e-06	5.398219e-06	1.210568e-08	3.766619e+01	7.970283e+02
1.780000e-06	5.374807e-06	1.209998e-08	3.750282e+01	7.955024e+02
1.790000e-06	5.350141e-06	1.212820e-08	3.733072e+01	7.938571e+02
1.800000e-06	5.324805e-06	1.202847e-08	3.715393e+01	7.921517e+02
1.810000e-06	5.297961e-06	1.199857e-08	3.696663e+01	7.904419e+02
1.820000e-06	5.268625e-06	1.207162e-08	3.676194e+01	7.887718e+02
1.830000e-06	5.237561e-06	1.195088e-08	3.654519e+01	7.871667e+02
1.840000e-06	5.204922e-06	1.194171e-08	3.631745e+01	7.856295e+02
1.850000e-06	5.170383e-06	1.200236e-08	3.607645e+01	7.841396e+02
1.860000e-06	5.134231e-06	1.189027e-08	3.582420e+01	7.826549e+02
1.870000e-06	5.095990e-06	1.191640e-08	3.555737e+01	7.811172e+02
1.880000e-06	5.055799e-06	1.189466e-08	3.527694e+01	7.794600e+02
1.890000e-06	5.014115e-06	1.177679e-08	3.498609e+01	7.776168e+02
1.900000e-06	4.970594e-06	1.181511e-08	3.468242e+01	7.755306e+02
1.910000e-06	4.925296e-06	1.174540e-08	3.436635e+01	7.731609e+02
1.920000e-06	4.878148e-06	1.171379e-08	3.403738e+01	7.704899e+02
1.930000e-06	4.829152e-06	1.173191e-08	3.369551e+01	7.675241e+02
1.940000e-06	4.778583e-06	1.161570e-08	3.334266e+01	7.642942e+02
1.950000e-06	4.725882e-06	1.159259e-08	3.297493e+01	7.608503e+02
1.960000e-06	4.671161e-06	1.154130e-08	3.259312e+01	7.572551e+02
1.970000e-06	4.614807e-06	1.148332e-08	3.219991e+01	7.535754e+02
1.980000e-06	4.556773e-06	1.144837e-08	3.179497e+01	7.498723e+02
1.990000e-06	4.497319e-06	1.139403e-08	3.138013e+01	7.461930e+02
2.000000e-06	4.436166e-06	1.137238e-08	3.095343e+01	7.425635e+02
2.010000e-06	4.373287e-06	1.126533e-08	3.051470e+01	7.389854e+02
2.020000e-06	4.308920e-06	1.122656e-08	3.006558e+01	7.354344e+02
2.030000e-06	4.243029e-06	1.116610e-08	2.960582e+01	7.318639e+02
2.040000e-06	4.175760e-06	1.107717e-08	2.913645e+01	7.282110e+02
2.050000e-06	4.106716e-06	1.105622e-08	2.865469e+01	7.244048e+02
2.060000e-06	4.035983e-06	1.096403e-08	2.816115e+01	7.203763e+02
2.070000e-06	3.963973e-06	1.091410e-08	2.765870e+01	7.160674e+02
2.080000e-06	3.890654e-06	1.082816e-08	2.714712e+01	7.114397e+02
2.090000e-06	3.815893e-06	1.075014e-08	2.662547e+01	7.064791e+02
2.100000e-06	3.739393e-06	1.069302e-08	2.609169e+01	7.011984e+02
2.110000e-06	3.661270e-06	1.059649e-08	2.554659e+01	6.956354e+02
2.120000e-06	3.581844e-06	1.053359e-08	2.499239e+01	6.898476e+02
2.130000e-06	3.501299e-06	1.043680e-08	2.443038e+01	6.839040e+02
2.140000e-06	3.419611e-06	1.036628e-08	2.386041e+01	6.778752e+02
2.150000e-06	3.336835e-06	1.026796e-08	2.328284e+01	6.718230e+02
2.160000e-06	3.252917e-06	1.017970e-08	2.269730e+01	6.657907e+02
2.170000e-06	3.167511e-06	1.010607e-08	2.210138e+01	6.597962e+02
2.180000e-06	3.080809e-06	9.999113e-09	2.149641e+01	6.538285e+02
2.190000e-06	2.993196e-06	9.911786e-09	2.088509e+01	6.478476e+02
2.200000e-06	2.904653e-06	9.792361e-09	2.026727e+01	6.417890e+02
2.210000e-06	2.815071e-06	9.692781e-09	1.964221e+01	6.355718e+02
2.220000e-06	2.724549e-06	9.584308e-09	1.901059e+01	6.291089e+02
2.230000e-06	2.633215e-06	9.475739e-09	1.837331e+01	6.223184e+02
2.240000e-06	2.540995e-06	9.375547e-09	1.772984e+01	6.151351e+02
2.250000e-06	2.447678e-06	9.259473e-09	1.707872e+01	6.075193e+02
2.260000e-06	2.353292e-06	9.155847e-09	1.642014e+01	5.994624e+02
2.270000e-06	2.258138e-06	9.030913e-09	1.575620e+01	5.909884e+02
2.280000e-06	2.162259e-06	8.906382e-09	1.508721e+01	5.821503e+02
2.290000e-06	2.065623e-06	8.773114e-09	1.441293e+01	5.730225e+02
2.300000e-06	1.968315e-06	8.636694e-09	1.373396e+01	5.636899e+02
2.310000e-06	1.870348e-06	8.505640e-09	1.305039e+01	5.542339e+02
2.320000e-06	1.771796e-06	8.366140e-09	1.236274e+01	5.447197e+02
2.330000e-06	1.672791e-06	8.225538e-09	1.167193e+01	5.351837e+02
2.340000e-06	1.573388e-06	8.075826e-09	1.097835e+01	5.256256e+02
2.350000e-06	1.473466e-06	7.924899e-09	1.028114e+01	5.160043e+02
2.360000e-06	1.372838e-06	7.770265e-09	9.579003e+00	5.062396e+02
2.370000e-06	1.271477e-06	7.604576e-09	8.871759e+00	4.962199e+02
2.380000e-06	1.169475e-06	7.429700e-09	8.160032e+00	4.858141e+02
2.390000e-06	1.066988e-06	7.248418e-09	7.444928e+00	4.748877e+02
2.400000e-06	9.641147e-07	7.064122e-09	6.727130e+00	4.633192e+02
2.410000e-06	8.609305e-07	6.879754e-09	6.007160e+00	4.510170e+02
2.420000e-06	7.574717e-07	6.691295e-09	5.285274e+00	4.379318e+02
2.430000e-06	6.537606e-07	6.495341e-09	4.561628e+00	4.240648e+02
2.440000e-06	5.498193e-07	6.288656e-09	3.836375e+00	4.094677e+02
2.450000e-06	4.456713e-07	6.072562e-09	3.109680e+00	3.942364e+02
2.460000e-06	3.413927e-07	5.846433e-09	2.382075e+00	3.784965e+02
2.470000e-06	2.369966e-07	5.605870e-09	1.653649e+00	3.623832e+02
2.480000e-06	1.325072e-07	5.357986e-09	9.245718e-01	3.460165e+02
2.490000e-06	2.801996e-08	5.104320e-09	1.955099e-01	3.294758e+02
2.500000e-06	-7.644715e-08	4.846796e-09	-5.334115e-01	3.127760e+02
2.510000e-06	-1.808792e-07	4.582142e-09	-1.262089e+00	2.958484e+02
2.520000e-06	-2.852142e-07	4.302863e-09	-1.990088e+00	2.785307e+02
2.530000e-06	-3.894140e-07	4.006809e-09	-2.717144e+00	2.605653e+02
2.540000e-06	-4.934692e-07	3.690642e-09	-3.443191e+00	2.416106e+02
2.550000e-06	-5.973601e-07	3.355651e-09	-4.168092e+00	2.212620e+02
2.560000e-06	-7.010375e-07	3.003581e-09	-4.891503e+00	1.990835e+02
2.570000e-06	-8.044504e-07	2.631780e-09	-5.613069e+00	1.746464e+02
2.580000e-06	-9.075701e-07	2.238062e-09	-6.332588e+00	1.475712e+02
2.590000e-06	-1.010391e-06	1.816408e-09	-7.050023e+00	1.175701e+02
2.600000e-06	-1.112838e-06	1.357862e-09	-7.764847e+00	8.448453e+01
2.610000e-06	-1.214808e-06	8.521843e-10	-8.476349e+00	4.831387e+01
2.620000e-06	-1.316114e-06	2.907831e-10	-9.183215e+00	9.232893e+00
2.630000e-06	-1.416697e-06	-3.307398e-10	-9.885033e+00	-3.240537e+01
2.640000e-06	-1.516687e-06	-1.012803e-09	-1.058271e+01	-7.608149e+01
2.650000e-06	-1.616150e-06	-1.740651e-09	-1.127672e+01	-1.211360e+02
2.660000e-06	-1.715163e-06	-2.490439e-09	-1.196758e+01	-1.668080e+02
2.670000e-06	-1.813742e-06	-3.238331e-09	-1.265542e+01	-2.122832e+02
2.680000e-06	-1.911727e-06	-3.959438e-09	-1.333912e+01	-2.567466e+02
2.690000e-06	-2.008975e-06	-4.629252e-09	-1.401767e+01	-2.994354e+02
2.700000e-06	-2.105511e-06	-5.235255e-09	-1.469125e+01	-3.396876e+02
2.710000e-06	-2.201391e-06	-5.778030e-09	-1.536025e+01	-3.769818e+02
2.720000e-06	-2.296667e-06	-6.261935e-09	-1.602504e+01	-4.109649e+02
2.730000e-06	-2.391320e-06	-6.695781e-09	-1.668548e+01	-4.414652e+02
2.740000e-06	-2.485078e-06	-7.084693e-09	-1.733968e+01	-4.684905e+02
2.750000e-06	-2.577685e-06	-7.431803e-09	-1.798585e+01	-4.922125e+02
2.760000e-06	-2.669157e-06	-7.744530e-09	-1.862410e+01	-5.129376e+02
2.770000e-06	-2.759673e-06	-8.029106e-09	-1.925567e+01	-5.310702e+02
2.780000e-06	-2.849257e-06	-8.290907e-09	-1.988075e+01	-5.470699e+02
2.790000e-06	-2.937804e-06	-8.536470e-09	-2.049859e+01	-5.614082e+02
2.800000e-06	-3.025358e-06	-8.767096e-09	-2.110949e+01	-5.745286e+02
2.810000e-06	-3.111983e-06	-8.981156e-09	-2.171392e+01	-5.868137e+02
2.820000e-06	-3.197415e-06	-9.180327e-09	-2.231003e+01	-5.985615e+02
2.830000e-06	-3.281504e-06	-9.365003e-09	-2.289676e+01	-6.099738e+02
2.840000e-06	-3.364455e-06	-9.534129e-09	-2.347555e+01	-6.211548e+02
2.850000e-06	-3.446289e-06	-9.689763e-09	-2.404655e+01	-6.321206e+02
2.860000e-06	-3.527003e-06	-9.837265e-09	-2.460974e+01	-6.428176e+02
2.870000e-06	-3.606565e-06	-9.980097e-09	-2.516488e+01	-6.531452e+02
2.880000e-06	-3.684715e-06	-1.011849e-08	-2.571017e+01	-6.629828e+02
2.890000e-06	-3.761303e-06	-1.025021e-08	-2.624457e+01	-6.722136e+02
2.900000e-06	-3.836414e-06	-1.037392e-08	-2.676866e+01	-6.807470e+02
2.910000e-06	-3.910101e-06	-1.048802e-08	-2.728281e+01	-6.885334e+02
2.920000e-06	-3.982391e-06	-1.059362e-08	-2.778721e+01	-6.955729e+02
2.930000e-06	-4.053396e-06	-1.069489e-08	-2.828265e+01	-7.019151e+02
2.940000e-06	-4.122898e-06	-1.079234e-08	-2.876760e+01	-7.076530e+02
