# Temperatura_=_20.12
# Concentracion g/m^3_=_15500.0
# C_Vs_to_Am_M_A/Vsm_=_65563218390.804596
# pendiente_HvsI_1/m_=_3716.3
# ordenada_HvsI_A/m_=_1297.0
# frecuencia_Hz_=_300816.03104872303

Tiempo_(s)	Campo_(V.s)	Magnetizacion_(V.s)	Campo_(kA/m)	Magnetizacion_(A/m)
0.000000e+00	-5.486156e-06	-1.214230e-08	-3.830100e+01	-7.929737e+02
1.000000e-08	-5.484669e-06	-1.214660e-08	-3.829061e+01	-7.928638e+02
2.000000e-08	-5.481211e-06	-1.214724e-08	-3.826647e+01	-7.928075e+02
3.000000e-08	-5.475959e-06	-1.214351e-08	-3.822981e+01	-7.927711e+02
4.000000e-08	-5.469084e-06	-1.213665e-08	-3.818181e+01	-7.927050e+02
5.000000e-08	-5.460599e-06	-1.212387e-08	-3.812257e+01	-7.925508e+02
6.000000e-08	-5.450221e-06	-1.210494e-08	-3.805012e+01	-7.922505e+02
7.000000e-08	-5.437728e-06	-1.208128e-08	-3.796290e+01	-7.917543e+02
8.000000e-08	-5.423165e-06	-1.206847e-08	-3.786123e+01	-7.910282e+02
9.000000e-08	-5.406273e-06	-1.209614e-08	-3.774330e+01	-7.900590e+02
1.000000e-07	-5.387056e-06	-1.209571e-08	-3.760914e+01	-7.888561e+02
1.100000e-07	-5.365841e-06	-1.205428e-08	-3.746103e+01	-7.874502e+02
1.200000e-07	-5.342810e-06	-1.203155e-08	-3.730024e+01	-7.858893e+02
1.300000e-07	-5.318244e-06	-1.196621e-08	-3.712873e+01	-7.842312e+02
1.400000e-07	-5.292278e-06	-1.194864e-08	-3.694745e+01	-7.825357e+02
1.500000e-07	-5.264564e-06	-1.200505e-08	-3.675397e+01	-7.808559e+02
1.600000e-07	-5.235044e-06	-1.189500e-08	-3.654789e+01	-7.792300e+02
1.700000e-07	-5.203942e-06	-1.186735e-08	-3.633075e+01	-7.776759e+02
1.800000e-07	-5.170983e-06	-1.192705e-08	-3.610065e+01	-7.761878e+02
1.900000e-07	-5.136018e-06	-1.182142e-08	-3.585654e+01	-7.747368e+02
2.000000e-07	-5.099433e-06	-1.181516e-08	-3.560113e+01	-7.732739e+02
2.100000e-07	-5.061150e-06	-1.180980e-08	-3.533386e+01	-7.717365e+02
2.200000e-07	-5.021038e-06	-1.172047e-08	-3.505382e+01	-7.700566e+02
2.300000e-07	-4.979063e-06	-1.173324e-08	-3.476078e+01	-7.681696e+02
2.400000e-07	-4.935058e-06	-1.170278e-08	-3.445356e+01	-7.660233e+02
2.500000e-07	-4.889297e-06	-1.162670e-08	-3.413409e+01	-7.635845e+02
2.600000e-07	-4.841776e-06	-1.159276e-08	-3.380233e+01	-7.608438e+02
2.700000e-07	-4.792298e-06	-1.152876e-08	-3.345690e+01	-7.578166e+02
2.800000e-07	-4.740775e-06	-1.149532e-08	-3.309720e+01	-7.545411e+02
2.900000e-07	-4.687230e-06	-1.147362e-08	-3.272338e+01	-7.510729e+02
3.000000e-07	-4.632004e-06	-1.143443e-08	-3.233783e+01	-7.474773e+02
3.100000e-07	-4.575171e-06	-1.137468e-08	-3.194105e+01	-7.438202e+02
3.200000e-07	-4.516529e-06	-1.132076e-08	-3.153165e+01	-7.401587e+02
3.300000e-07	-4.456189e-06	-1.126637e-08	-3.111039e+01	-7.365332e+02
3.400000e-07	-4.394377e-06	-1.117501e-08	-3.067886e+01	-7.329613e+02
3.500000e-07	-4.331101e-06	-1.112995e-08	-3.023710e+01	-7.294354e+02
3.600000e-07	-4.266324e-06	-1.108523e-08	-2.978487e+01	-7.259227e+02
3.700000e-07	-4.199919e-06	-1.102118e-08	-2.932127e+01	-7.223702e+02
3.800000e-07	-4.131800e-06	-1.097226e-08	-2.884570e+01	-7.187114e+02
3.900000e-07	-4.062136e-06	-1.089523e-08	-2.835936e+01	-7.148752e+02
4.000000e-07	-3.991182e-06	-1.081808e-08	-2.786400e+01	-7.107958e+02
4.100000e-07	-3.918968e-06	-1.075039e-08	-2.735984e+01	-7.064217e+02
4.200000e-07	-3.845418e-06	-1.068198e-08	-2.684636e+01	-7.017230e+02
4.300000e-07	-3.770241e-06	-1.060644e-08	-2.632152e+01	-6.966956e+02
4.400000e-07	-3.693303e-06	-1.052293e-08	-2.578439e+01	-6.913617e+02
4.500000e-07	-3.614892e-06	-1.044460e-08	-2.523697e+01	-6.857671e+02
4.600000e-07	-3.535071e-06	-1.036450e-08	-2.467971e+01	-6.799743e+02
4.700000e-07	-3.453761e-06	-1.028577e-08	-2.411205e+01	-6.740538e+02
4.800000e-07	-3.371236e-06	-1.019761e-08	-2.353591e+01	-6.680738e+02
4.900000e-07	-3.287659e-06	-1.010819e-08	-2.295243e+01	-6.620900e+02
5.000000e-07	-3.203034e-06	-1.002254e-08	-2.236163e+01	-6.561368e+02
5.100000e-07	-3.117447e-06	-9.925227e-09	-2.176411e+01	-6.502216e+02
5.200000e-07	-3.030908e-06	-9.823217e-09	-2.115995e+01	-6.443222e+02
5.300000e-07	-2.943405e-06	-9.720511e-09	-2.054906e+01	-6.383893e+02
5.400000e-07	-2.854936e-06	-9.620711e-09	-1.993142e+01	-6.323516e+02
5.500000e-07	-2.765590e-06	-9.522684e-09	-1.930766e+01	-6.261254e+02
5.600000e-07	-2.675174e-06	-9.419179e-09	-1.867643e+01	-6.196250e+02
5.700000e-07	-2.583459e-06	-9.308571e-09	-1.803613e+01	-6.127746e+02
5.800000e-07	-2.490715e-06	-9.189178e-09	-1.738865e+01	-6.055188e+02
5.900000e-07	-2.397280e-06	-9.070362e-09	-1.673635e+01	-5.978302e+02
6.000000e-07	-2.303101e-06	-8.948257e-09	-1.607885e+01	-5.897137e+02
6.100000e-07	-2.208084e-06	-8.822813e-09	-1.541549e+01	-5.812059e+02
6.200000e-07	-2.112245e-06	-8.699960e-09	-1.474641e+01	-5.723697e+02
6.300000e-07	-2.015628e-06	-8.574568e-09	-1.407188e+01	-5.632857e+02
6.400000e-07	-1.918396e-06	-8.444224e-09	-1.339307e+01	-5.540390e+02
6.500000e-07	-1.820556e-06	-8.302797e-09	-1.271001e+01	-5.447065e+02
6.600000e-07	-1.721892e-06	-8.155328e-09	-1.202120e+01	-5.353432e+02
6.700000e-07	-1.622317e-06	-8.006653e-09	-1.132603e+01	-5.259715e+02
6.800000e-07	-1.522047e-06	-7.858375e-09	-1.062600e+01	-5.165743e+02
6.900000e-07	-1.421313e-06	-7.705557e-09	-9.922740e+00	-5.070934e+02
7.000000e-07	-1.320211e-06	-7.544459e-09	-9.216904e+00	-4.974336e+02
7.100000e-07	-1.218756e-06	-7.379110e-09	-8.508612e+00	-4.874719e+02
7.200000e-07	-1.116900e-06	-7.207874e-09	-7.797516e+00	-4.770715e+02
7.300000e-07	-1.014663e-06	-7.030366e-09	-7.083755e+00	-4.660985e+02
7.400000e-07	-9.120381e-07	-6.849295e-09	-6.367294e+00	-4.544389e+02
7.500000e-07	-8.090671e-07	-6.664632e-09	-5.648413e+00	-4.420141e+02
7.600000e-07	-7.057975e-07	-6.470808e-09	-4.927448e+00	-4.287922e+02
7.700000e-07	-6.022922e-07	-6.266681e-09	-4.204836e+00	-4.147933e+02
7.800000e-07	-4.985481e-07	-6.054146e-09	-3.480559e+00	-4.000874e+02
7.900000e-07	-3.945511e-07	-5.834895e-09	-2.754515e+00	-3.847845e+02
8.000000e-07	-2.904356e-07	-5.609930e-09	-2.027644e+00	-3.690184e+02
8.100000e-07	-1.862313e-07	-5.376809e-09	-1.300153e+00	-3.529237e+02
8.200000e-07	-8.194233e-08	-5.136431e-09	-5.720714e-01	-3.366107e+02
8.300000e-07	2.237590e-08	-4.887984e-09	1.562149e-01	-3.201401e+02
8.400000e-07	1.266912e-07	-4.626589e-09	8.844808e-01	-3.034997e+02
8.500000e-07	2.309833e-07	-4.349150e-09	1.612584e+00	-2.865891e+02
8.600000e-07	3.351564e-07	-4.058247e-09	2.339857e+00	-2.692115e+02
8.700000e-07	4.391959e-07	-3.754339e-09	3.066198e+00	-2.510772e+02
8.800000e-07	5.430634e-07	-3.436762e-09	3.791337e+00	-2.318183e+02
8.900000e-07	6.466770e-07	-3.104878e-09	4.514705e+00	-2.110141e+02
9.000000e-07	7.500685e-07	-2.755031e-09	5.236521e+00	-1.882251e+02
9.100000e-07	8.532157e-07	-2.380646e-09	5.956632e+00	-1.630341e+02
9.200000e-07	9.560161e-07	-1.976596e-09	6.674321e+00	-1.350886e+02
9.300000e-07	1.058446e-06	-1.536772e-09	7.389424e+00	-1.041423e+02
9.400000e-07	1.160541e-06	-1.053495e-09	8.102186e+00	-7.008986e+01
9.500000e-07	1.262234e-06	-5.212112e-10	8.812148e+00	-3.299191e+01
9.600000e-07	1.363520e-06	6.681477e-11	9.519264e+00	6.912357e+00
9.700000e-07	1.464431e-06	7.105998e-10	1.022376e+01	4.920770e+01
9.800000e-07	1.564953e-06	1.403158e-09	1.092555e+01	9.332010e+01
9.900000e-07	1.664962e-06	2.132054e-09	1.162375e+01	1.385479e+02
1.000000e-06	1.764230e-06	2.881346e-09	1.231678e+01	1.841044e+02
1.010000e-06	1.862569e-06	3.620410e-09	1.300332e+01	2.291680e+02
1.020000e-06	1.960054e-06	4.314532e-09	1.368390e+01	2.729357e+02
1.030000e-06	2.056924e-06	4.945327e-09	1.436019e+01	3.146752e+02
1.040000e-06	2.153148e-06	5.511944e-09	1.503196e+01	3.537708e+02
1.050000e-06	2.248558e-06	6.022123e-09	1.569806e+01	3.897590e+02
1.060000e-06	2.343212e-06	6.477232e-09	1.635888e+01	4.223513e+02
1.070000e-06	2.437152e-06	6.877362e-09	1.701471e+01	4.514418e+02
1.080000e-06	2.530321e-06	7.234493e-09	1.766515e+01	4.771003e+02
1.090000e-06	2.622729e-06	7.562015e-09	1.831029e+01	4.995513e+02
1.100000e-06	2.714178e-06	7.863186e-09	1.894873e+01	5.191419e+02
1.110000e-06	2.804374e-06	8.135604e-09	1.957843e+01	5.363019e+02
1.120000e-06	2.893436e-06	8.382521e-09	2.020020e+01	5.515008e+02
1.130000e-06	2.981535e-06	8.611468e-09	2.081526e+01	5.652047e+02
1.140000e-06	3.068651e-06	8.825286e-09	2.142345e+01	5.778392e+02
1.150000e-06	3.154696e-06	9.023613e-09	2.202416e+01	5.897589e+02
1.160000e-06	3.239719e-06	9.205103e-09	2.261774e+01	6.012286e+02
1.170000e-06	3.323804e-06	9.373483e-09	2.320477e+01	6.124148e+02
1.180000e-06	3.406691e-06	9.536981e-09	2.378344e+01	6.233887e+02
1.190000e-06	3.488310e-06	9.696695e-09	2.435325e+01	6.341394e+02
1.200000e-06	3.568699e-06	9.846079e-09	2.491448e+01	6.445939e+02
1.210000e-06	3.647790e-06	9.983568e-09	2.546664e+01	6.546418e+02
1.220000e-06	3.725560e-06	1.011349e-08	2.600959e+01	6.641614e+02
1.230000e-06	3.801992e-06	1.023833e-08	2.654319e+01	6.730434e+02
1.240000e-06	3.876816e-06	1.035389e-08	2.706557e+01	6.812108e+02
1.250000e-06	3.950001e-06	1.045782e-08	2.757650e+01	6.886314e+02
1.260000e-06	4.021813e-06	1.055682e-08	2.807785e+01	6.953230e+02
1.270000e-06	4.092234e-06	1.065606e-08	2.856948e+01	7.013517e+02
1.280000e-06	4.161323e-06	1.075213e-08	2.905181e+01	7.068228e+02
1.290000e-06	4.229054e-06	1.084036e-08	2.952467e+01	7.118669e+02
1.300000e-06	4.295132e-06	1.092166e-08	2.998599e+01	7.166235e+02
1.310000e-06	4.359596e-06	1.099957e-08	3.043604e+01	7.212238e+02
1.320000e-06	4.422578e-06	1.107418e-08	3.087574e+01	7.257760e+02
1.330000e-06	4.484093e-06	1.114428e-08	3.130520e+01	7.303532e+02
1.340000e-06	4.544263e-06	1.121127e-08	3.172527e+01	7.349882e+02
1.350000e-06	4.602762e-06	1.127732e-08	3.213368e+01	7.396718e+02
1.360000e-06	4.659394e-06	1.134330e-08	3.252905e+01	7.443583e+02
1.370000e-06	4.714374e-06	1.140687e-08	3.291288e+01	7.489748e+02
1.380000e-06	4.767694e-06	1.146513e-08	3.328513e+01	7.534333e+02
1.390000e-06	4.819028e-06	1.151730e-08	3.364352e+01	7.576448e+02
1.400000e-06	4.868275e-06	1.156544e-08	3.398733e+01	7.615323e+02
1.410000e-06	4.915752e-06	1.161306e-08	3.431878e+01	7.650413e+02
1.420000e-06	4.961600e-06	1.165888e-08	3.463887e+01	7.681474e+02
1.430000e-06	5.005860e-06	1.170080e-08	3.494786e+01	7.708589e+02
1.440000e-06	5.048202e-06	1.174028e-08	3.524347e+01	7.732145e+02
1.450000e-06	5.088584e-06	1.177987e-08	3.552539e+01	7.752778e+02
1.460000e-06	5.127328e-06	1.181885e-08	3.579587e+01	7.771273e+02
1.470000e-06	5.164449e-06	1.185333e-08	3.605503e+01	7.788465e+02
1.480000e-06	5.199765e-06	1.188204e-08	3.630158e+01	7.805115e+02
1.490000e-06	5.233083e-06	1.190894e-08	3.653419e+01	7.821820e+02
1.500000e-06	5.264548e-06	1.193550e-08	3.675386e+01	7.838937e+02
1.510000e-06	5.294301e-06	1.195814e-08	3.696158e+01	7.856547e+02
1.520000e-06	5.322328e-06	1.197705e-08	3.715725e+01	7.874458e+02
1.530000e-06	5.348312e-06	1.199677e-08	3.733865e+01	7.892246e+02
1.540000e-06	5.372210e-06	1.201794e-08	3.750549e+01	7.909327e+02
1.550000e-06	5.394302e-06	1.203549e-08	3.765972e+01	7.925047e+02
1.560000e-06	5.414709e-06	1.204792e-08	3.780219e+01	7.938785e+02
1.570000e-06	5.433305e-06	1.205918e-08	3.793202e+01	7.950040e+02
1.580000e-06	5.449861e-06	1.207152e-08	3.804760e+01	7.958509e+02
1.590000e-06	5.464352e-06	1.207998e-08	3.814877e+01	7.964125e+02
1.600000e-06	5.476768e-06	1.208399e-08	3.823545e+01	7.967068e+02
1.610000e-06	5.486983e-06	1.209049e-08	3.830677e+01	7.967739e+02
1.620000e-06	5.495138e-06	1.210051e-08	3.836370e+01	7.966701e+02
1.630000e-06	5.501427e-06	1.210732e-08	3.840760e+01	7.964601e+02
1.640000e-06	5.505916e-06	1.210706e-08	3.843895e+01	7.962078e+02
1.650000e-06	5.508430e-06	1.210540e-08	3.845650e+01	7.959677e+02
1.660000e-06	5.508932e-06	1.210775e-08	3.846000e+01	7.957775e+02
1.670000e-06	5.507679e-06	1.210742e-08	3.845126e+01	7.956531e+02
1.680000e-06	5.504781e-06	1.210367e-08	3.843102e+01	7.955869e+02
1.690000e-06	5.499982e-06	1.209671e-08	3.839752e+01	7.955495e+02
1.700000e-06	5.493166e-06	1.208800e-08	3.834994e+01	7.954939e+02
1.710000e-06	5.484676e-06	1.208071e-08	3.829066e+01	7.953631e+02
1.720000e-06	5.474541e-06	1.207441e-08	3.821991e+01	7.950981e+02
1.730000e-06	5.462434e-06	1.207638e-08	3.813538e+01	7.946468e+02
1.740000e-06	5.448261e-06	1.205563e-08	3.803644e+01	7.939713e+02
1.750000e-06	5.432174e-06	1.200104e-08	3.792413e+01	7.930536e+02
1.760000e-06	5.413672e-06	1.198830e-08	3.779496e+01	7.918984e+02
1.770000e-06	5.392298e-06	1.197998e-08	3.764573e+01	7.905320e+02
1.780000e-06	5.368726e-06	1.199669e-08	3.748117e+01	7.889990e+02
1.790000e-06	5.344022e-06	1.201433e-08	3.730870e+01	7.873561e+02
1.800000e-06	5.318584e-06	1.189577e-08	3.713111e+01	7.856633e+02
1.810000e-06	5.291470e-06	1.191013e-08	3.694181e+01	7.839757e+02
1.820000e-06	5.261960e-06	1.195423e-08	3.673579e+01	7.823354e+02
1.830000e-06	5.230787e-06	1.183355e-08	3.651817e+01	7.807651e+02
1.840000e-06	5.197936e-06	1.187435e-08	3.628882e+01	7.792640e+02
1.850000e-06	5.163197e-06	1.188970e-08	3.604629e+01	7.778081e+02
1.860000e-06	5.126804e-06	1.179112e-08	3.579222e+01	7.763521e+02
1.870000e-06	5.088347e-06	1.183415e-08	3.552374e+01	7.748358e+02
1.880000e-06	5.048047e-06	1.177574e-08	3.524239e+01	7.731916e+02
1.890000e-06	5.006201e-06	1.169333e-08	3.495024e+01	7.713534e+02
1.900000e-06	4.962465e-06	1.171327e-08	3.464490e+01	7.692656e+02
1.910000e-06	4.917019e-06	1.164546e-08	3.432762e+01	7.668906e+02
1.920000e-06	4.869781e-06	1.164581e-08	3.399784e+01	7.642135e+02
1.930000e-06	4.820670e-06	1.162169e-08	3.365497e+01	7.612447e+02
1.940000e-06	4.769858e-06	1.153268e-08	3.330024e+01	7.580177e+02
1.950000e-06	4.716895e-06	1.149575e-08	3.293049e+01	7.545849e+02
1.960000e-06	4.661977e-06	1.143777e-08	3.254708e+01	7.510104e+02
1.970000e-06	4.605486e-06	1.140380e-08	3.215269e+01	7.473607e+02
1.980000e-06	4.547367e-06	1.135126e-08	3.174694e+01	7.436955e+02
1.990000e-06	4.487691e-06	1.132279e-08	3.133032e+01	7.400594e+02
2.000000e-06	4.426294e-06	1.127997e-08	3.090169e+01	7.364753e+02
2.010000e-06	4.363242e-06	1.118083e-08	3.046150e+01	7.329409e+02
2.020000e-06	4.298703e-06	1.114062e-08	3.001092e+01	7.294287e+02
2.030000e-06	4.232690e-06	1.105543e-08	2.955006e+01	7.258895e+02
2.040000e-06	4.165198e-06	1.099704e-08	2.907887e+01	7.222589e+02
2.050000e-06	4.095996e-06	1.096023e-08	2.859574e+01	7.184660e+02
2.060000e-06	4.025175e-06	1.088524e-08	2.810132e+01	7.144431e+02
2.070000e-06	3.953000e-06	1.082663e-08	2.759744e+01	7.101350e+02
2.080000e-06	3.879511e-06	1.073285e-08	2.708438e+01	7.055065e+02
2.090000e-06	3.804532e-06	1.067243e-08	2.656092e+01	7.005480e+02
2.100000e-06	3.727899e-06	1.059817e-08	2.602591e+01	6.952762e+02
2.110000e-06	3.649716e-06	1.051790e-08	2.548009e+01	6.897321e+02
2.120000e-06	3.570198e-06	1.044648e-08	2.492494e+01	6.839754e+02
2.130000e-06	3.489541e-06	1.036041e-08	2.436185e+01	6.780757e+02
2.140000e-06	3.407704e-06	1.028710e-08	2.379051e+01	6.721027e+02
2.150000e-06	3.324682e-06	1.017781e-08	2.321090e+01	6.661154e+02
2.160000e-06	3.240533e-06	1.009445e-08	2.262343e+01	6.601535e+02
2.170000e-06	3.155143e-06	1.001337e-08	2.202729e+01	6.542304e+02
2.180000e-06	3.068483e-06	9.923202e-09	2.142228e+01	6.483304e+02
2.190000e-06	2.980743e-06	9.829996e-09	2.080973e+01	6.424095e+02
2.200000e-06	2.892102e-06	9.712723e-09	2.019089e+01	6.364006e+02
2.210000e-06	2.802525e-06	9.614477e-09	1.956552e+01	6.302215e+02
2.220000e-06	2.711934e-06	9.507610e-09	1.893307e+01	6.237862e+02
2.230000e-06	2.620417e-06	9.403511e-09	1.829415e+01	6.170157e+02
2.240000e-06	2.528127e-06	9.294382e-09	1.764984e+01	6.098496e+02
2.250000e-06	2.434898e-06	9.180247e-09	1.699897e+01	6.022539e+02
2.260000e-06	2.340532e-06	9.075231e-09	1.634016e+01	5.942266e+02
2.270000e-06	2.245259e-06	8.953390e-09	1.567503e+01	5.857975e+02
2.280000e-06	2.149297e-06	8.830521e-09	1.500508e+01	5.770249e+02
2.290000e-06	2.052680e-06	8.702231e-09	1.433056e+01	5.679862e+02
2.300000e-06	1.955362e-06	8.574018e-09	1.365115e+01	5.587668e+02
2.310000e-06	1.857425e-06	8.443292e-09	1.296740e+01	5.494466e+02
2.320000e-06	1.758922e-06	8.299741e-09	1.227972e+01	5.400863e+02
2.330000e-06	1.659791e-06	8.155329e-09	1.158765e+01	5.307158e+02
2.340000e-06	1.560190e-06	8.006487e-09	1.089229e+01	5.213270e+02
2.350000e-06	1.460195e-06	7.857602e-09	1.019419e+01	5.118704e+02
2.360000e-06	1.359642e-06	7.704809e-09	9.492191e+00	5.022580e+02
2.370000e-06	1.258420e-06	7.544526e-09	8.785522e+00	4.923717e+02
2.380000e-06	1.156597e-06	7.379688e-09	8.074651e+00	4.820764e+02
2.390000e-06	1.054251e-06	7.205227e-09	7.360140e+00	4.712361e+02
2.400000e-06	9.514274e-07	7.022459e-09	6.642285e+00	4.597311e+02
2.410000e-06	8.482266e-07	6.833562e-09	5.921801e+00	4.474741e+02
2.420000e-06	7.447593e-07	6.640220e-09	5.199455e+00	4.344226e+02
2.430000e-06	6.410795e-07	6.440507e-09	4.475626e+00	4.205854e+02
2.440000e-06	5.372136e-07	6.232455e-09	3.750498e+00	4.060223e+02
2.450000e-06	4.331870e-07	6.019438e-09	3.024247e+00	3.908361e+02
2.460000e-06	3.290707e-07	5.799689e-09	2.297371e+00	3.751570e+02
2.470000e-06	2.248159e-07	5.568355e-09	1.569528e+00	3.591217e+02
2.480000e-06	1.204234e-07	5.325212e-09	8.407224e-01	3.428478e+02
2.490000e-06	1.603777e-08	5.071308e-09	1.119659e-01	3.264086e+02
2.500000e-06	-8.833443e-08	4.808457e-09	-6.166971e-01	3.098094e+02
2.510000e-06	-1.926971e-07	4.535386e-09	-1.345294e+00	2.929694e+02
2.520000e-06	-2.969547e-07	4.250547e-09	-2.073156e+00	2.757126e+02
2.530000e-06	-4.011001e-07	3.953917e-09	-2.800236e+00	2.577685e+02
2.540000e-06	-5.050893e-07	3.640721e-09	-3.526225e+00	2.387842e+02
2.550000e-06	-6.088614e-07	3.310898e-09	-4.250698e+00	2.183475e+02
2.560000e-06	-7.124262e-07	2.965041e-09	-4.973725e+00	1.960198e+02
2.570000e-06	-8.157509e-07	2.597585e-09	-5.695075e+00	1.713755e+02
2.580000e-06	-9.188369e-07	2.202843e-09	-6.414759e+00	1.440447e+02
2.590000e-06	-1.021616e-06	1.773952e-09	-7.132301e+00	1.137550e+02
2.600000e-06	-1.123947e-06	1.303983e-09	-7.846713e+00	8.036846e+01
2.610000e-06	-1.225686e-06	7.874782e-10	-8.556993e+00	4.390858e+01
2.620000e-06	-1.326734e-06	2.190054e-10	-9.262448e+00	4.576000e+00
2.630000e-06	-1.427115e-06	-4.060924e-10	-9.963245e+00	-3.725081e+01
2.640000e-06	-1.526988e-06	-1.087848e-09	-1.066050e+01	-8.102968e+01
2.650000e-06	-1.626494e-06	-1.813022e-09	-1.135519e+01	-1.260831e+02
2.660000e-06	-1.725554e-06	-2.560699e-09	-1.204677e+01	-1.716385e+02
2.670000e-06	-1.824006e-06	-3.305949e-09	-1.273410e+01	-2.168772e+02
2.680000e-06	-1.921724e-06	-4.019832e-09	-1.341631e+01	-2.609880e+02
2.690000e-06	-2.018753e-06	-4.680866e-09	-1.409370e+01	-3.032191e+02
2.700000e-06	-2.115095e-06	-5.278600e-09	-1.476630e+01	-3.429264e+02
2.710000e-06	-2.210784e-06	-5.810648e-09	-1.543435e+01	-3.796115e+02
2.720000e-06	-2.305954e-06	-6.281457e-09	-1.609876e+01	-4.129472e+02
2.730000e-06	-2.400401e-06	-6.702864e-09	-1.675814e+01	-4.427885e+02
2.740000e-06	-2.493779e-06	-7.082387e-09	-1.741004e+01	-4.691689e+02
2.750000e-06	-2.586030e-06	-7.423941e-09	-1.805409e+01	-4.922822e+02
2.760000e-06	-2.677299e-06	-7.733465e-09	-1.869127e+01	-5.124523e+02
2.770000e-06	-2.767610e-06	-8.014030e-09	-1.932176e+01	-5.300948e+02
2.780000e-06	-2.856962e-06	-8.270731e-09	-1.994557e+01	-5.456745e+02
2.790000e-06	-2.945328e-06	-8.511530e-09	-2.056249e+01	-5.596616e+02
2.800000e-06	-3.032791e-06	-8.737136e-09	-2.117309e+01	-5.724931e+02
2.810000e-06	-3.119293e-06	-8.946141e-09	-2.177700e+01	-5.845410e+02
2.820000e-06	-3.204513e-06	-9.139075e-09	-2.237196e+01	-5.960903e+02
2.830000e-06	-3.288412e-06	-9.316095e-09	-2.295769e+01	-6.073286e+02
2.840000e-06	-3.371158e-06	-9.480425e-09	-2.353537e+01	-6.183470e+02
2.850000e-06	-3.452819e-06	-9.636335e-09	-2.410548e+01	-6.291505e+02
2.860000e-06	-3.533343e-06	-9.783983e-09	-2.466765e+01	-6.396774e+02
2.870000e-06	-3.612725e-06	-9.922644e-09	-2.522184e+01	-6.498232e+02
2.880000e-06	-3.690730e-06	-1.005702e-08	-2.576643e+01	-6.594665e+02
2.890000e-06	-3.767076e-06	-1.018721e-08	-2.629943e+01	-6.684935e+02
2.900000e-06	-3.841918e-06	-1.031006e-08	-2.682193e+01	-6.768190e+02
2.910000e-06	-3.915401e-06	-1.042037e-08	-2.733494e+01	-6.844003e+02
2.920000e-06	-3.987530e-06	-1.052113e-08	-2.783850e+01	-6.912447e+02
2.930000e-06	-4.058373e-06	-1.062057e-08	-2.833308e+01	-6.974083e+02
2.940000e-06	-4.127696e-06	-1.071782e-08	-2.881705e+01	-7.029891e+02
