# Temperatura_=_39.16
# Concentracion g/m^3_=_15500.0
# C_Vs_to_Am_M_A/Vsm_=_65563218390.804596
# pendiente_HvsI_1/m_=_3716.3
# ordenada_HvsI_A/m_=_1297.0
# frecuencia_Hz_=_300813.7276984681

Tiempo_(s)	Campo_(V.s)	Magnetizacion_(V.s)	Campo_(kA/m)	Magnetizacion_(A/m)
0.000000e+00	-5.497129e-06	-1.214748e-08	-3.830678e+01	-7.946804e+02
1.000000e-08	-5.495779e-06	-1.215075e-08	-3.829737e+01	-7.947627e+02
2.000000e-08	-5.492401e-06	-1.214863e-08	-3.827383e+01	-7.948997e+02
3.000000e-08	-5.487236e-06	-1.214514e-08	-3.823784e+01	-7.950309e+02
4.000000e-08	-5.480462e-06	-1.213978e-08	-3.819063e+01	-7.950841e+02
5.000000e-08	-5.472083e-06	-1.212669e-08	-3.813224e+01	-7.949861e+02
6.000000e-08	-5.461761e-06	-1.210642e-08	-3.806031e+01	-7.946728e+02
7.000000e-08	-5.449350e-06	-1.208243e-08	-3.797383e+01	-7.940987e+02
8.000000e-08	-5.435024e-06	-1.205841e-08	-3.787400e+01	-7.932430e+02
9.000000e-08	-5.418369e-06	-1.210562e-08	-3.775794e+01	-7.921124e+02
1.000000e-07	-5.399337e-06	-1.213161e-08	-3.762531e+01	-7.907400e+02
1.100000e-07	-5.378312e-06	-1.206947e-08	-3.747880e+01	-7.891806e+02
1.200000e-07	-5.355397e-06	-1.204491e-08	-3.731912e+01	-7.875023e+02
1.300000e-07	-5.330964e-06	-1.197240e-08	-3.714885e+01	-7.857774e+02
1.400000e-07	-5.305145e-06	-1.190221e-08	-3.696893e+01	-7.840712e+02
1.500000e-07	-5.277454e-06	-1.203919e-08	-3.677597e+01	-7.824328e+02
1.600000e-07	-5.247909e-06	-1.192292e-08	-3.657009e+01	-7.808879e+02
1.700000e-07	-5.216876e-06	-1.183826e-08	-3.635383e+01	-7.794348e+02
1.800000e-07	-5.183992e-06	-1.200258e-08	-3.612468e+01	-7.780439e+02
1.900000e-07	-5.148961e-06	-1.185611e-08	-3.588057e+01	-7.766620e+02
2.000000e-07	-5.112397e-06	-1.181924e-08	-3.562577e+01	-7.752189e+02
2.100000e-07	-5.074233e-06	-1.186225e-08	-3.535982e+01	-7.736371e+02
2.200000e-07	-5.034207e-06	-1.170297e-08	-3.508090e+01	-7.718424e+02
2.300000e-07	-4.992303e-06	-1.173544e-08	-3.478890e+01	-7.697743e+02
2.400000e-07	-4.948373e-06	-1.174995e-08	-3.448276e+01	-7.673941e+02
2.500000e-07	-4.902664e-06	-1.164429e-08	-3.416424e+01	-7.646905e+02
2.600000e-07	-4.855175e-06	-1.164603e-08	-3.383332e+01	-7.616813e+02
2.700000e-07	-4.805692e-06	-1.154421e-08	-3.348850e+01	-7.584108e+02
2.800000e-07	-4.754149e-06	-1.150441e-08	-3.312932e+01	-7.549443e+02
2.900000e-07	-4.700595e-06	-1.149876e-08	-3.275612e+01	-7.513582e+02
3.000000e-07	-4.645271e-06	-1.143299e-08	-3.237060e+01	-7.477301e+02
3.100000e-07	-4.588403e-06	-1.138356e-08	-3.197432e+01	-7.441272e+02
3.200000e-07	-4.529763e-06	-1.133751e-08	-3.156568e+01	-7.405973e+02
3.300000e-07	-4.469366e-06	-1.131264e-08	-3.114480e+01	-7.371612e+02
3.400000e-07	-4.407477e-06	-1.120448e-08	-3.071353e+01	-7.338097e+02
3.500000e-07	-4.344103e-06	-1.114161e-08	-3.027191e+01	-7.305044e+02
3.600000e-07	-4.279331e-06	-1.110421e-08	-2.982054e+01	-7.271825e+02
3.700000e-07	-4.212955e-06	-1.102239e-08	-2.935800e+01	-7.237653e+02
3.800000e-07	-4.144838e-06	-1.099278e-08	-2.888333e+01	-7.201686e+02
3.900000e-07	-4.075197e-06	-1.092304e-08	-2.839803e+01	-7.163146e+02
4.000000e-07	-4.004247e-06	-1.084169e-08	-2.790362e+01	-7.121427e+02
4.100000e-07	-3.932088e-06	-1.078093e-08	-2.740078e+01	-7.076177e+02
4.200000e-07	-3.858430e-06	-1.069823e-08	-2.688750e+01	-7.027355e+02
4.300000e-07	-3.783053e-06	-1.062646e-08	-2.636223e+01	-6.975236e+02
4.400000e-07	-3.706071e-06	-1.054072e-08	-2.582578e+01	-6.920372e+02
4.500000e-07	-3.627644e-06	-1.047719e-08	-2.527926e+01	-6.863520e+02
4.600000e-07	-3.547708e-06	-1.040538e-08	-2.472223e+01	-6.805531e+02
4.700000e-07	-3.466323e-06	-1.031944e-08	-2.415509e+01	-6.747231e+02
4.800000e-07	-3.383723e-06	-1.023387e-08	-2.357950e+01	-6.689292e+02
4.900000e-07	-3.299997e-06	-1.013361e-08	-2.299605e+01	-6.632135e+02
5.000000e-07	-3.215318e-06	-1.005225e-08	-2.240596e+01	-6.575851e+02
5.100000e-07	-3.129686e-06	-9.955613e-09	-2.180924e+01	-6.520182e+02
5.200000e-07	-3.043010e-06	-9.862101e-09	-2.120523e+01	-6.464537e+02
5.300000e-07	-2.955378e-06	-9.768173e-09	-2.059457e+01	-6.408063e+02
5.400000e-07	-2.866907e-06	-9.666587e-09	-1.997806e+01	-6.349752e+02
5.500000e-07	-2.777426e-06	-9.565257e-09	-1.935451e+01	-6.288576e+02
5.600000e-07	-2.686688e-06	-9.455622e-09	-1.872220e+01	-6.223623e+02
5.700000e-07	-2.594832e-06	-9.347711e-09	-1.808210e+01	-6.154226e+02
5.800000e-07	-2.502097e-06	-9.232314e-09	-1.743588e+01	-6.080061e+02
5.900000e-07	-2.408602e-06	-9.122572e-09	-1.678436e+01	-6.001191e+02
6.000000e-07	-2.314281e-06	-9.007636e-09	-1.612708e+01	-5.918071e+02
6.100000e-07	-2.219144e-06	-8.885285e-09	-1.546412e+01	-5.831477e+02
6.200000e-07	-2.123283e-06	-8.756196e-09	-1.479611e+01	-5.742406e+02
6.300000e-07	-2.026717e-06	-8.622605e-09	-1.412319e+01	-5.651921e+02
6.400000e-07	-1.929370e-06	-8.494579e-09	-1.344482e+01	-5.560992e+02
6.500000e-07	-1.831109e-06	-8.360666e-09	-1.276010e+01	-5.470333e+02
6.600000e-07	-1.732009e-06	-8.219827e-09	-1.206952e+01	-5.380271e+02
6.700000e-07	-1.632236e-06	-8.073525e-09	-1.137425e+01	-5.290660e+02
6.800000e-07	-1.531916e-06	-7.927659e-09	-1.067516e+01	-5.200855e+02
6.900000e-07	-1.431118e-06	-7.772589e-09	-9.972757e+00	-5.109763e+02
7.000000e-07	-1.329868e-06	-7.607678e-09	-9.267190e+00	-5.015944e+02
7.100000e-07	-1.228165e-06	-7.439595e-09	-8.558477e+00	-4.917784e+02
7.200000e-07	-1.126066e-06	-7.270414e-09	-7.847000e+00	-4.813687e+02
7.300000e-07	-1.023565e-06	-7.099346e-09	-7.132717e+00	-4.702286e+02
7.400000e-07	-9.206920e-07	-6.922422e-09	-6.415847e+00	-4.582628e+02
7.500000e-07	-8.174774e-07	-6.738902e-09	-5.696596e+00	-4.454312e+02
7.600000e-07	-7.139484e-07	-6.544510e-09	-4.975154e+00	-4.317562e+02
7.700000e-07	-6.102271e-07	-6.340418e-09	-4.252371e+00	-4.173203e+02
7.800000e-07	-5.063676e-07	-6.124622e-09	-3.528626e+00	-4.022552e+02
7.900000e-07	-4.024032e-07	-5.900423e-09	-2.804149e+00	-3.867228e+02
8.000000e-07	-2.982963e-07	-5.673033e-09	-2.078679e+00	-3.708880e+02
8.100000e-07	-1.940411e-07	-5.441888e-09	-1.352177e+00	-3.548893e+02
8.200000e-07	-8.971502e-08	-5.200218e-09	-6.251796e-01	-3.388080e+02
8.300000e-07	1.463194e-08	-4.944980e-09	1.019627e-01	-3.226407e+02
8.400000e-07	1.189351e-07	-4.675508e-09	8.287997e-01	-3.062801e+02
8.500000e-07	2.231838e-07	-4.391247e-09	1.555257e+00	-2.895046e+02
8.600000e-07	3.273715e-07	-4.094028e-09	2.281290e+00	-2.719821e+02
8.700000e-07	4.314420e-07	-3.778193e-09	3.006506e+00	-2.532859e+02
8.800000e-07	5.353914e-07	-3.442603e-09	3.730878e+00	-2.329239e+02
8.900000e-07	6.392256e-07	-3.087306e-09	4.454447e+00	-2.103792e+02
9.000000e-07	7.429201e-07	-2.711791e-09	5.177043e+00	-1.851571e+02
9.100000e-07	8.463472e-07	-2.307531e-09	5.897775e+00	-1.568358e+02
9.200000e-07	9.494065e-07	-1.865118e-09	6.615945e+00	-1.251146e+02
9.300000e-07	1.052120e-06	-1.376448e-09	7.331705e+00	-8.985566e+01
9.400000e-07	1.154498e-06	-8.333990e-10	8.045129e+00	-5.111391e+01
9.500000e-07	1.256473e-06	-2.280993e-10	8.755742e+00	-9.151880e+00
9.600000e-07	1.358033e-06	4.508456e-10	9.463459e+00	3.556253e+01
9.700000e-07	1.459156e-06	1.200313e-09	1.016814e+01	8.237592e+01
9.800000e-07	1.559778e-06	1.997185e-09	1.086932e+01	1.304857e+02
9.900000e-07	1.659913e-06	2.805464e-09	1.156712e+01	1.789896e+02
1.000000e-06	1.759500e-06	3.596068e-09	1.226109e+01	2.269449e+02
1.010000e-06	1.858401e-06	4.337903e-09	1.295028e+01	2.734305e+02
1.020000e-06	1.956429e-06	5.006318e-09	1.363339e+01	3.176082e+02
1.030000e-06	2.053570e-06	5.597182e-09	1.431031e+01	3.587764e+02
1.040000e-06	2.149894e-06	6.118484e-09	1.498155e+01	3.964118e+02
1.050000e-06	2.245488e-06	6.582920e-09	1.564769e+01	4.301955e+02
1.060000e-06	2.340399e-06	6.994632e-09	1.630909e+01	4.600219e+02
1.070000e-06	2.434519e-06	7.356328e-09	1.696496e+01	4.859898e+02
1.080000e-06	2.527847e-06	7.673562e-09	1.761532e+01	5.083770e+02
1.090000e-06	2.620409e-06	7.961975e-09	1.826034e+01	5.276028e+02
1.100000e-06	2.712106e-06	8.229209e-09	1.889932e+01	5.441797e+02
1.110000e-06	2.802702e-06	8.474964e-09	1.953065e+01	5.586631e+02
1.120000e-06	2.892076e-06	8.698523e-09	2.015345e+01	5.716008e+02
1.130000e-06	2.980407e-06	8.905228e-09	2.076898e+01	5.834884e+02
1.140000e-06	3.067787e-06	9.100273e-09	2.137789e+01	5.947347e+02
1.150000e-06	3.154117e-06	9.282150e-09	2.197949e+01	6.056396e+02
1.160000e-06	3.239411e-06	9.450081e-09	2.257386e+01	6.163849e+02
1.170000e-06	3.323735e-06	9.605485e-09	2.316147e+01	6.270391e+02
1.180000e-06	3.406963e-06	9.754214e-09	2.374144e+01	6.375731e+02
1.190000e-06	3.488875e-06	9.897037e-09	2.431225e+01	6.478852e+02
1.200000e-06	3.569515e-06	1.003244e-08	2.487419e+01	6.578310e+02
1.210000e-06	3.648875e-06	1.015776e-08	2.542721e+01	6.672545e+02
1.220000e-06	3.726855e-06	1.027568e-08	2.597061e+01	6.760172e+02
1.230000e-06	3.803529e-06	1.038819e-08	2.650491e+01	6.840206e+02
1.240000e-06	3.878750e-06	1.049452e-08	2.702909e+01	6.912218e+02
1.250000e-06	3.952288e-06	1.059222e-08	2.754154e+01	6.976393e+02
1.260000e-06	4.024363e-06	1.068166e-08	2.804379e+01	7.033501e+02
1.270000e-06	4.095087e-06	1.076888e-08	2.853664e+01	7.084785e+02
1.280000e-06	4.164413e-06	1.085573e-08	2.901974e+01	7.131791e+02
1.290000e-06	4.232358e-06	1.093830e-08	2.949321e+01	7.176168e+02
1.300000e-06	4.298634e-06	1.101570e-08	2.995505e+01	7.219462e+02
1.310000e-06	4.363257e-06	1.109078e-08	3.040538e+01	7.262929e+02
1.320000e-06	4.426451e-06	1.116522e-08	3.084575e+01	7.307405e+02
1.330000e-06	4.488217e-06	1.123556e-08	3.127617e+01	7.353228e+02
1.340000e-06	4.548627e-06	1.129943e-08	3.169713e+01	7.400233e+02
1.350000e-06	4.607368e-06	1.136036e-08	3.210647e+01	7.447815e+02
1.360000e-06	4.664281e-06	1.141999e-08	3.250307e+01	7.495042e+02
1.370000e-06	4.719524e-06	1.147728e-08	3.288803e+01	7.540810e+02
1.380000e-06	4.773024e-06	1.153137e-08	3.326085e+01	7.584008e+02
1.390000e-06	4.824593e-06	1.158270e-08	3.362020e+01	7.623678e+02
1.400000e-06	4.874102e-06	1.163195e-08	3.396521e+01	7.659151e+02
1.410000e-06	4.921776e-06	1.168029e-08	3.429743e+01	7.690124e+02
1.420000e-06	4.967831e-06	1.172637e-08	3.461836e+01	7.716699e+02
1.430000e-06	5.012298e-06	1.176543e-08	3.492823e+01	7.739356e+02
1.440000e-06	5.054859e-06	1.179878e-08	3.522481e+01	7.758875e+02
1.450000e-06	5.095497e-06	1.183297e-08	3.550800e+01	7.776226e+02
1.460000e-06	5.134475e-06	1.186845e-08	3.577962e+01	7.792428e+02
1.470000e-06	5.171761e-06	1.190128e-08	3.603945e+01	7.808417e+02
1.480000e-06	5.207208e-06	1.193197e-08	3.628646e+01	7.824917e+02
1.490000e-06	5.240659e-06	1.196390e-08	3.651956e+01	7.842359e+02
1.500000e-06	5.272267e-06	1.199285e-08	3.673982e+01	7.860830e+02
1.510000e-06	5.302176e-06	1.201392e-08	3.694825e+01	7.880078e+02
1.520000e-06	5.330374e-06	1.202967e-08	3.714474e+01	7.899563e+02
1.530000e-06	5.356539e-06	1.204581e-08	3.732707e+01	7.918544e+02
1.540000e-06	5.380649e-06	1.206371e-08	3.749508e+01	7.936193e+02
1.550000e-06	5.402964e-06	1.207995e-08	3.765059e+01	7.951719e+02
1.560000e-06	5.423533e-06	1.209434e-08	3.779392e+01	7.964480e+02
1.570000e-06	5.442240e-06	1.210765e-08	3.792428e+01	7.974075e+02
1.580000e-06	5.458928e-06	1.212305e-08	3.804057e+01	7.980398e+02
1.590000e-06	5.473627e-06	1.213645e-08	3.814300e+01	7.983652e+02
1.600000e-06	5.486267e-06	1.214320e-08	3.823109e+01	7.984316e+02
1.610000e-06	5.496644e-06	1.214714e-08	3.830340e+01	7.983076e+02
1.620000e-06	5.504902e-06	1.215239e-08	3.836094e+01	7.980729e+02
1.630000e-06	5.511298e-06	1.215740e-08	3.840551e+01	7.978070e+02
1.640000e-06	5.515943e-06	1.215734e-08	3.843788e+01	7.975785e+02
1.650000e-06	5.518581e-06	1.215665e-08	3.845626e+01	7.974357e+02
1.660000e-06	5.519117e-06	1.216274e-08	3.846000e+01	7.974002e+02
1.670000e-06	5.517925e-06	1.216593e-08	3.845169e+01	7.974649e+02
1.680000e-06	5.515137e-06	1.216409e-08	3.843226e+01	7.975948e+02
1.690000e-06	5.510508e-06	1.215943e-08	3.840001e+01	7.977331e+02
1.700000e-06	5.503897e-06	1.214931e-08	3.835394e+01	7.978094e+02
1.710000e-06	5.495542e-06	1.213794e-08	3.829572e+01	7.977497e+02
1.720000e-06	5.485538e-06	1.212813e-08	3.822600e+01	7.974872e+02
1.730000e-06	5.473655e-06	1.213257e-08	3.814320e+01	7.969717e+02
1.740000e-06	5.459674e-06	1.213414e-08	3.804577e+01	7.961769e+02
1.750000e-06	5.443699e-06	1.203402e-08	3.793445e+01	7.951033e+02
1.760000e-06	5.425391e-06	1.202237e-08	3.780687e+01	7.937788e+02
1.770000e-06	5.404205e-06	1.204154e-08	3.765923e+01	7.922540e+02
1.780000e-06	5.380701e-06	1.204193e-08	3.749545e+01	7.905952e+02
1.790000e-06	5.355967e-06	1.214580e-08	3.732309e+01	7.888745e+02
1.800000e-06	5.330556e-06	1.196123e-08	3.714601e+01	7.871595e+02
1.810000e-06	5.303575e-06	1.192441e-08	3.695799e+01	7.855036e+02
1.820000e-06	5.274064e-06	1.208134e-08	3.675234e+01	7.839380e+02
1.830000e-06	5.242905e-06	1.184670e-08	3.653522e+01	7.824668e+02
1.840000e-06	5.210142e-06	1.188978e-08	3.630691e+01	7.810664e+02
1.850000e-06	5.175482e-06	1.199270e-08	3.606538e+01	7.796881e+02
1.860000e-06	5.139249e-06	1.176128e-08	3.581288e+01	7.782646e+02
1.870000e-06	5.100901e-06	1.188877e-08	3.554566e+01	7.767191e+02
1.880000e-06	5.060648e-06	1.185289e-08	3.526516e+01	7.749759e+02
1.890000e-06	5.018922e-06	1.167156e-08	3.497439e+01	7.729706e+02
1.900000e-06	4.975276e-06	1.177783e-08	3.467024e+01	7.706592e+02
1.910000e-06	4.929828e-06	1.161009e-08	3.435354e+01	7.680245e+02
1.920000e-06	4.882566e-06	1.164105e-08	3.402419e+01	7.650779e+02
1.930000e-06	4.833465e-06	1.168555e-08	3.368203e+01	7.618586e+02
1.940000e-06	4.782767e-06	1.147915e-08	3.332874e+01	7.584280e+02
1.950000e-06	4.729850e-06	1.155253e-08	3.295999e+01	7.548609e+02
1.960000e-06	4.674962e-06	1.145194e-08	3.257750e+01	7.512357e+02
1.970000e-06	4.618520e-06	1.138743e-08	3.218418e+01	7.476227e+02
1.980000e-06	4.560386e-06	1.135513e-08	3.177908e+01	7.440744e+02
1.990000e-06	4.500823e-06	1.125748e-08	3.136401e+01	7.406180e+02
2.000000e-06	4.439470e-06	1.131767e-08	3.093647e+01	7.372507e+02
2.010000e-06	4.376419e-06	1.117452e-08	3.049710e+01	7.339402e+02
2.020000e-06	4.311882e-06	1.116274e-08	3.004738e+01	7.306282e+02
2.030000e-06	4.245783e-06	1.109240e-08	2.958677e+01	7.272385e+02
2.040000e-06	4.178335e-06	1.096811e-08	2.911675e+01	7.236873e+02
2.050000e-06	4.109155e-06	1.098892e-08	2.863467e+01	7.198944e+02
2.060000e-06	4.038356e-06	1.084642e-08	2.814131e+01	7.157945e+02
2.070000e-06	3.966261e-06	1.083307e-08	2.763891e+01	7.113467e+02
2.080000e-06	3.892822e-06	1.075099e-08	2.712715e+01	7.065399e+02
2.090000e-06	3.817887e-06	1.068127e-08	2.660497e+01	7.013949e+02
2.100000e-06	3.741178e-06	1.063663e-08	2.607042e+01	6.959616e+02
2.110000e-06	3.662908e-06	1.049783e-08	2.552499e+01	6.903120e+02
2.120000e-06	3.583370e-06	1.045852e-08	2.497074e+01	6.845304e+02
2.130000e-06	3.502699e-06	1.035120e-08	2.440858e+01	6.787007e+02
2.140000e-06	3.420852e-06	1.029722e-08	2.383823e+01	6.728947e+02
2.150000e-06	3.337914e-06	1.020130e-08	2.326027e+01	6.671603e+02
2.160000e-06	3.253810e-06	1.010284e-08	2.267419e+01	6.615142e+02
2.170000e-06	3.168203e-06	1.003729e-08	2.207764e+01	6.559382e+02
2.180000e-06	3.081339e-06	9.925298e-09	2.147233e+01	6.503796e+02
2.190000e-06	2.993499e-06	9.845349e-09	2.086021e+01	6.447582e+02
2.200000e-06	2.904733e-06	9.727453e-09	2.024165e+01	6.389754e+02
2.210000e-06	2.815014e-06	9.638162e-09	1.961644e+01	6.329275e+02
2.220000e-06	2.724395e-06	9.538016e-09	1.898496e+01	6.265198e+02
2.230000e-06	2.632974e-06	9.433673e-09	1.834790e+01	6.196794e+02
2.240000e-06	2.540594e-06	9.321744e-09	1.770414e+01	6.123659e+02
2.250000e-06	2.447091e-06	9.200107e-09	1.705257e+01	6.045773e+02
2.260000e-06	2.352551e-06	9.096811e-09	1.639377e+01	5.963509e+02
2.270000e-06	2.257224e-06	8.978556e-09	1.572948e+01	5.877582e+02
2.280000e-06	2.161166e-06	8.863633e-09	1.506010e+01	5.788952e+02
2.290000e-06	2.064383e-06	8.730955e-09	1.438566e+01	5.698684e+02
2.300000e-06	1.966914e-06	8.602573e-09	1.370645e+01	5.607780e+02
2.310000e-06	1.868820e-06	8.470734e-09	1.302288e+01	5.517021e+02
2.320000e-06	1.770194e-06	8.330829e-09	1.233561e+01	5.426828e+02
2.330000e-06	1.671058e-06	8.185316e-09	1.164478e+01	5.337158e+02
2.340000e-06	1.571382e-06	8.038134e-09	1.095018e+01	5.247473e+02
2.350000e-06	1.471122e-06	7.897882e-09	1.025152e+01	5.156769e+02
2.360000e-06	1.370221e-06	7.745017e-09	9.548394e+00	5.063668e+02
2.370000e-06	1.268693e-06	7.582518e-09	8.840895e+00	4.966577e+02
2.380000e-06	1.166657e-06	7.408639e-09	8.129858e+00	4.863879e+02
2.390000e-06	1.064124e-06	7.234341e-09	7.415354e+00	4.754141e+02
2.400000e-06	9.611336e-07	7.058342e-09	6.697665e+00	4.636306e+02
2.410000e-06	8.578163e-07	6.874012e-09	5.977698e+00	4.509850e+02
2.420000e-06	7.542017e-07	6.683629e-09	5.255659e+00	4.374858e+02
2.430000e-06	6.503406e-07	6.484913e-09	4.531902e+00	4.232033e+02
2.440000e-06	5.463229e-07	6.276210e-09	3.807055e+00	4.082602e+02
2.450000e-06	4.421555e-07	6.055870e-09	3.081163e+00	3.928137e+02
2.460000e-06	3.378225e-07	5.824772e-09	2.354118e+00	3.770308e+02
2.470000e-06	2.333450e-07	5.588327e-09	1.626066e+00	3.610581e+02
2.480000e-06	1.287848e-07	5.348240e-09	8.974373e-01	3.449915e+02
2.490000e-06	2.418159e-08	5.097832e-09	1.685096e-01	3.288480e+02
2.500000e-06	-8.041542e-08	4.832727e-09	-5.603754e-01	3.125436e+02
2.510000e-06	-1.849479e-07	4.553100e-09	-1.288811e+00	2.958815e+02
2.520000e-06	-2.893645e-07	4.259813e-09	-2.016438e+00	2.785522e+02
2.530000e-06	-3.936697e-07	3.950464e-09	-2.743290e+00	2.601472e+02
2.540000e-06	-4.978671e-07	3.619961e-09	-3.469390e+00	2.401856e+02
2.550000e-06	-6.019181e-07	3.268706e-09	-4.194470e+00	2.181519e+02
2.560000e-06	-7.057442e-07	2.899712e-09	-4.917983e+00	1.935424e+02
2.570000e-06	-8.092802e-07	2.506366e-09	-5.639474e+00	1.659154e+02
2.580000e-06	-9.125342e-07	2.076718e-09	-6.359000e+00	1.349405e+02
2.590000e-06	-1.015452e-06	1.602631e-09	-7.076180e+00	1.004420e+02
2.600000e-06	-1.117883e-06	1.076600e-09	-7.789977e+00	6.243171e+01
2.610000e-06	-1.219800e-06	4.904979e-10	-8.500184e+00	2.112723e+01
2.620000e-06	-1.321223e-06	-1.615155e-10	-9.206948e+00	-2.304645e+01
2.630000e-06	-1.422054e-06	-8.846705e-10	-9.909589e+00	-6.947315e+01
2.640000e-06	-1.522238e-06	-1.668102e-09	-1.060772e+01	-1.173784e+02
2.650000e-06	-1.621897e-06	-2.480748e-09	-1.130220e+01	-1.658768e+02
2.660000e-06	-1.721064e-06	-3.285258e-09	-1.199325e+01	-2.140288e+02
2.670000e-06	-1.819653e-06	-4.048511e-09	-1.268026e+01	-2.609035e+02
2.680000e-06	-1.917614e-06	-4.749481e-09	-1.336290e+01	-3.056401e+02
2.690000e-06	-2.014906e-06	-5.374557e-09	-1.404088e+01	-3.475038e+02
2.700000e-06	-2.111549e-06	-5.922658e-09	-1.471434e+01	-3.859302e+02
2.710000e-06	-2.207542e-06	-6.403017e-09	-1.538327e+01	-4.205554e+02
2.720000e-06	-2.302916e-06	-6.828842e-09	-1.604788e+01	-4.512281e+02
2.730000e-06	-2.397552e-06	-7.211524e-09	-1.670735e+01	-4.780049e+02
2.740000e-06	-2.491225e-06	-7.552669e-09	-1.736012e+01	-5.011282e+02
2.750000e-06	-2.583822e-06	-7.856779e-09	-1.800538e+01	-5.209906e+02
2.760000e-06	-2.675387e-06	-8.131579e-09	-1.864345e+01	-5.380890e+02
2.770000e-06	-2.766001e-06	-8.380487e-09	-1.927490e+01	-5.529739e+02
2.780000e-06	-2.855588e-06	-8.609599e-09	-1.989918e+01	-5.661986e+02
2.790000e-06	-2.944181e-06	-8.824819e-09	-2.051654e+01	-5.782733e+02
2.800000e-06	-3.031894e-06	-9.026345e-09	-2.112777e+01	-5.896278e+02
2.810000e-06	-3.118646e-06	-9.216558e-09	-2.173230e+01	-6.005864e+02
2.820000e-06	-3.204161e-06	-9.395648e-09	-2.232821e+01	-6.113564e+02
2.830000e-06	-3.288355e-06	-9.557553e-09	-2.291492e+01	-6.220295e+02
2.840000e-06	-3.371418e-06	-9.704132e-09	-2.349375e+01	-6.325957e+02
2.850000e-06	-3.453342e-06	-9.842943e-09	-2.406463e+01	-6.429665e+02
2.860000e-06	-3.534050e-06	-9.976131e-09	-2.462705e+01	-6.530039e+02
2.870000e-06	-3.613603e-06	-1.009912e-08	-2.518142e+01	-6.625519e+02
2.880000e-06	-3.691870e-06	-1.021662e-08	-2.572682e+01	-6.714661e+02
2.890000e-06	-3.768603e-06	-1.033543e-08	-2.626153e+01	-6.796377e+02
2.900000e-06	-3.843815e-06	-1.045121e-08	-2.678565e+01	-6.870113e+02
2.910000e-06	-3.917612e-06	-1.055479e-08	-2.729990e+01	-6.935921e+02
2.920000e-06	-3.990017e-06	-1.064657e-08	-2.780446e+01	-6.994452e+02
2.930000e-06	-4.061088e-06	-1.073511e-08	-2.829971e+01	-7.046860e+02
2.940000e-06	-4.130634e-06	-1.082248e-08	-2.878435e+01	-7.094643e+02
