# Temperatura_=_48.5
# Concentracion g/m^3_=_15500.0
# C_Vs_to_Am_M_A/Vsm_=_65563218390.804596
# pendiente_HvsI_1/m_=_3716.3
# ordenada_HvsI_A/m_=_1297.0
# frecuencia_Hz_=_300810.25529357634

Tiempo_(s)	Campo_(V.s)	Magnetizacion_(V.s)	Campo_(kA/m)	Magnetizacion_(A/m)
0.000000e+00	-5.488285e-06	-1.242389e-08	-3.830595e+01	-8.116136e+02
1.000000e-08	-5.486917e-06	-1.242542e-08	-3.829640e+01	-8.117274e+02
2.000000e-08	-5.483537e-06	-1.242712e-08	-3.827280e+01	-8.118771e+02
3.000000e-08	-5.478437e-06	-1.242367e-08	-3.823721e+01	-8.119960e+02
4.000000e-08	-5.471761e-06	-1.241445e-08	-3.819061e+01	-8.120082e+02
5.000000e-08	-5.463402e-06	-1.240069e-08	-3.813227e+01	-8.118396e+02
6.000000e-08	-5.453116e-06	-1.238468e-08	-3.806048e+01	-8.114282e+02
7.000000e-08	-5.440782e-06	-1.236789e-08	-3.797439e+01	-8.107338e+02
8.000000e-08	-5.426481e-06	-1.235642e-08	-3.787458e+01	-8.097427e+02
9.000000e-08	-5.409895e-06	-1.236518e-08	-3.775881e+01	-8.084704e+02
1.000000e-07	-5.390918e-06	-1.236785e-08	-3.762636e+01	-8.069591e+02
1.100000e-07	-5.369876e-06	-1.233992e-08	-3.747950e+01	-8.052715e+02
1.200000e-07	-5.347044e-06	-1.230255e-08	-3.732014e+01	-8.034822e+02
1.300000e-07	-5.322694e-06	-1.225234e-08	-3.715019e+01	-8.016669e+02
1.400000e-07	-5.296827e-06	-1.223043e-08	-3.696965e+01	-7.998914e+02
1.500000e-07	-5.269176e-06	-1.223497e-08	-3.677665e+01	-7.982022e+02
1.600000e-07	-5.239782e-06	-1.218415e-08	-3.657150e+01	-7.966196e+02
1.700000e-07	-5.208818e-06	-1.215658e-08	-3.635538e+01	-7.951344e+02
1.800000e-07	-5.176043e-06	-1.216071e-08	-3.612662e+01	-7.937088e+02
1.900000e-07	-5.141192e-06	-1.210648e-08	-3.588338e+01	-7.922812e+02
2.000000e-07	-5.104689e-06	-1.208353e-08	-3.562860e+01	-7.907741e+02
2.100000e-07	-5.066598e-06	-1.205234e-08	-3.536275e+01	-7.891053e+02
2.200000e-07	-5.026696e-06	-1.197639e-08	-3.508425e+01	-7.871981e+02
2.300000e-07	-4.984915e-06	-1.197203e-08	-3.479263e+01	-7.849927e+02
2.400000e-07	-4.941078e-06	-1.194946e-08	-3.448666e+01	-7.824537e+02
2.500000e-07	-4.895394e-06	-1.188164e-08	-3.416781e+01	-7.795758e+02
2.600000e-07	-4.848001e-06	-1.184728e-08	-3.383703e+01	-7.763839e+02
2.700000e-07	-4.798699e-06	-1.178887e-08	-3.349292e+01	-7.729301e+02
2.800000e-07	-4.747278e-06	-1.173499e-08	-3.313402e+01	-7.692865e+02
2.900000e-07	-4.693834e-06	-1.171489e-08	-3.276100e+01	-7.655351e+02
3.000000e-07	-4.638677e-06	-1.166100e-08	-3.237603e+01	-7.617565e+02
3.100000e-07	-4.581966e-06	-1.159185e-08	-3.198022e+01	-7.580184e+02
3.200000e-07	-4.523485e-06	-1.155308e-08	-3.157204e+01	-7.543661e+02
3.300000e-07	-4.463251e-06	-1.150265e-08	-3.115163e+01	-7.508159e+02
3.400000e-07	-4.401504e-06	-1.141601e-08	-3.072067e+01	-7.473521e+02
3.500000e-07	-4.338264e-06	-1.135430e-08	-3.027927e+01	-7.439292e+02
3.600000e-07	-4.273593e-06	-1.130329e-08	-2.982790e+01	-7.404776e+02
3.700000e-07	-4.207287e-06	-1.123613e-08	-2.936511e+01	-7.369130e+02
3.800000e-07	-4.139226e-06	-1.118248e-08	-2.889007e+01	-7.331479e+02
3.900000e-07	-4.069631e-06	-1.111251e-08	-2.840433e+01	-7.291035e+02
4.000000e-07	-3.998756e-06	-1.103240e-08	-2.790965e+01	-7.247212e+02
4.100000e-07	-3.926684e-06	-1.096159e-08	-2.740662e+01	-7.199702e+02
4.200000e-07	-3.853209e-06	-1.088218e-08	-2.689379e+01	-7.148525e+02
4.300000e-07	-3.778075e-06	-1.080078e-08	-2.636939e+01	-7.094027e+02
4.400000e-07	-3.701312e-06	-1.072382e-08	-2.583362e+01	-7.036831e+02
4.500000e-07	-3.623061e-06	-1.065181e-08	-2.528746e+01	-6.977751e+02
4.600000e-07	-3.543295e-06	-1.057497e-08	-2.473072e+01	-6.917678e+02
4.700000e-07	-3.462096e-06	-1.048677e-08	-2.416399e+01	-6.857445e+02
4.800000e-07	-3.379649e-06	-1.039256e-08	-2.358854e+01	-6.797708e+02
4.900000e-07	-3.296084e-06	-1.030002e-08	-2.300530e+01	-6.738838e+02
5.000000e-07	-3.211509e-06	-1.020927e-08	-2.241500e+01	-6.680862e+02
5.100000e-07	-3.126013e-06	-1.010992e-08	-2.181827e+01	-6.623439e+02
5.200000e-07	-3.039566e-06	-1.000914e-08	-2.121491e+01	-6.565897e+02
5.300000e-07	-2.952091e-06	-9.912034e-09	-2.060437e+01	-6.507310e+02
5.400000e-07	-2.863724e-06	-9.808298e-09	-1.998760e+01	-6.446623e+02
5.500000e-07	-2.774394e-06	-9.699398e-09	-1.936411e+01	-6.382786e+02
5.600000e-07	-2.683860e-06	-9.589008e-09	-1.873222e+01	-6.314901e+02
5.700000e-07	-2.592193e-06	-9.477177e-09	-1.809243e+01	-6.242350e+02
5.800000e-07	-2.499576e-06	-9.361998e-09	-1.744600e+01	-6.164880e+02
5.900000e-07	-2.406191e-06	-9.243115e-09	-1.679421e+01	-6.082649e+02
6.000000e-07	-2.312014e-06	-9.119637e-09	-1.613690e+01	-5.996209e+02
6.100000e-07	-2.217012e-06	-8.992663e-09	-1.547382e+01	-5.906427e+02
6.200000e-07	-2.121338e-06	-8.862244e-09	-1.480605e+01	-5.814367e+02
6.300000e-07	-2.024946e-06	-8.728479e-09	-1.413328e+01	-5.721128e+02
6.400000e-07	-1.927715e-06	-8.593385e-09	-1.345465e+01	-5.627676e+02
6.500000e-07	-1.829575e-06	-8.453553e-09	-1.276967e+01	-5.534681e+02
6.600000e-07	-1.730613e-06	-8.309133e-09	-1.207896e+01	-5.442388e+02
6.700000e-07	-1.631035e-06	-8.159773e-09	-1.138394e+01	-5.350543e+02
6.800000e-07	-1.530961e-06	-8.004481e-09	-1.068547e+01	-5.258385e+02
6.900000e-07	-1.430377e-06	-7.841741e-09	-9.983435e+00	-5.164703e+02
7.000000e-07	-1.329263e-06	-7.673299e-09	-9.277701e+00	-5.067968e+02
7.100000e-07	-1.227714e-06	-7.503845e-09	-8.568934e+00	-4.966512e+02
7.200000e-07	-1.125823e-06	-7.328701e-09	-7.857778e+00	-4.858735e+02
7.300000e-07	-1.023580e-06	-7.147643e-09	-7.144163e+00	-4.743319e+02
7.400000e-07	-9.208803e-07	-6.964872e-09	-6.427361e+00	-4.619413e+02
7.500000e-07	-8.177724e-07	-6.776752e-09	-5.707711e+00	-4.486759e+02
7.600000e-07	-7.143816e-07	-6.577208e-09	-4.986086e+00	-4.345748e+02
7.700000e-07	-6.108087e-07	-6.365820e-09	-4.263191e+00	-4.197373e+02
7.800000e-07	-5.071006e-07	-6.148239e-09	-3.539351e+00	-4.043097e+02
7.900000e-07	-4.032672e-07	-5.925132e-09	-2.814637e+00	-3.884632e+02
8.000000e-07	-2.993268e-07	-5.693290e-09	-2.089176e+00	-3.723655e+02
8.100000e-07	-1.953421e-07	-5.449851e-09	-1.363407e+00	-3.561488e+02
8.200000e-07	-9.135947e-08	-5.197268e-09	-6.376510e-01	-3.398789e+02
8.300000e-07	1.269697e-08	-4.937965e-09	8.861958e-02	-3.235284e+02
8.400000e-07	1.167822e-07	-4.665992e-09	8.150910e-01	-3.069581e+02
8.500000e-07	2.208017e-07	-4.375847e-09	1.541104e+00	-2.899104e+02
8.600000e-07	3.247468e-07	-4.069170e-09	2.266598e+00	-2.720149e+02
8.700000e-07	4.286024e-07	-3.747234e-09	2.991467e+00	-2.528096e+02
8.800000e-07	5.323641e-07	-3.406465e-09	3.715679e+00	-2.317733e+02
8.900000e-07	6.360290e-07	-3.039594e-09	4.439218e+00	-2.083698e+02
9.000000e-07	7.395325e-07	-2.644156e-09	5.161628e+00	-1.820981e+02
9.100000e-07	8.428062e-07	-2.221876e-09	5.882436e+00	-1.525448e+02
9.200000e-07	9.457489e-07	-1.764284e-09	6.600933e+00	-1.194334e+02
9.300000e-07	1.048303e-06	-1.256529e-09	7.316719e+00	-8.266455e+01
9.400000e-07	1.150484e-06	-6.889766e-10	8.029897e+00	-4.234385e+01
9.500000e-07	1.252294e-06	-5.604068e-11	8.740493e+00	1.206540e+00
9.600000e-07	1.353716e-06	6.500307e-10	9.448373e+00	4.745478e+01
9.700000e-07	1.454689e-06	1.427052e-09	1.015313e+01	9.568414e+01
9.800000e-07	1.555118e-06	2.251097e-09	1.085408e+01	1.450344e+02
9.900000e-07	1.654977e-06	3.082106e-09	1.155105e+01	1.945559e+02
1.000000e-06	1.754312e-06	3.881742e-09	1.224437e+01	2.432725e+02
1.010000e-06	1.853058e-06	4.622010e-09	1.293357e+01	2.902462e+02
1.020000e-06	1.950990e-06	5.286843e-09	1.361710e+01	3.346399e+02
1.030000e-06	2.047966e-06	5.871583e-09	1.429395e+01	3.757699e+02
1.040000e-06	2.144135e-06	6.381942e-09	1.496517e+01	4.131460e+02
1.050000e-06	2.239678e-06	6.832189e-09	1.563202e+01	4.464945e+02
1.060000e-06	2.334501e-06	7.233590e-09	1.629384e+01	4.757628e+02
1.070000e-06	2.428530e-06	7.589694e-09	1.695013e+01	5.011059e+02
1.080000e-06	2.521754e-06	7.904744e-09	1.760079e+01	5.228564e+02
1.090000e-06	2.614091e-06	8.189366e-09	1.824526e+01	5.414820e+02
1.100000e-06	2.705601e-06	8.452837e-09	1.888397e+01	5.575349e+02
1.110000e-06	2.796181e-06	8.694384e-09	1.951618e+01	5.715981e+02
1.120000e-06	2.885565e-06	8.911763e-09	2.014004e+01	5.842338e+02
1.130000e-06	2.973767e-06	9.112642e-09	2.075565e+01	5.959398e+02
1.140000e-06	3.060948e-06	9.303689e-09	2.136414e+01	6.071156e+02
1.150000e-06	3.147154e-06	9.484507e-09	2.196583e+01	6.180427e+02
1.160000e-06	3.232356e-06	9.652098e-09	2.256050e+01	6.288787e+02
1.170000e-06	3.316553e-06	9.807072e-09	2.314816e+01	6.396654e+02
1.180000e-06	3.399666e-06	9.955798e-09	2.372825e+01	6.503474e+02
1.190000e-06	3.481425e-06	1.009996e-08	2.429889e+01	6.608007e+02
1.200000e-06	3.561829e-06	1.023375e-08	2.486008e+01	6.708639e+02
1.210000e-06	3.640969e-06	1.035533e-08	2.541244e+01	6.803713e+02
1.220000e-06	3.718826e-06	1.047176e-08	2.595586e+01	6.891813e+02
1.230000e-06	3.795349e-06	1.058811e-08	2.648996e+01	6.971996e+02
1.240000e-06	3.870437e-06	1.069846e-08	2.701404e+01	7.043924e+02
1.250000e-06	3.943975e-06	1.079562e-08	2.752730e+01	7.107911e+02
1.260000e-06	4.016019e-06	1.088416e-08	2.803014e+01	7.164863e+02
1.270000e-06	4.086638e-06	1.097524e-08	2.852303e+01	7.216156e+02
1.280000e-06	4.155845e-06	1.106578e-08	2.900607e+01	7.263442e+02
1.290000e-06	4.223691e-06	1.114678e-08	2.947960e+01	7.308436e+02
1.300000e-06	4.289950e-06	1.122017e-08	2.994206e+01	7.352704e+02
1.310000e-06	4.354552e-06	1.129332e-08	3.039296e+01	7.397479e+02
1.320000e-06	4.417691e-06	1.136860e-08	3.083364e+01	7.443532e+02
1.330000e-06	4.479428e-06	1.143895e-08	3.126454e+01	7.491111e+02
1.340000e-06	4.539708e-06	1.150135e-08	3.168527e+01	7.539944e+02
1.350000e-06	4.598331e-06	1.156159e-08	3.209444e+01	7.589325e+02
1.360000e-06	4.655170e-06	1.162478e-08	3.249115e+01	7.638233e+02
1.370000e-06	4.710346e-06	1.168909e-08	3.287625e+01	7.685505e+02
1.380000e-06	4.763842e-06	1.174809e-08	3.324963e+01	7.730005e+02
1.390000e-06	4.815401e-06	1.179969e-08	3.360949e+01	7.770785e+02
1.400000e-06	4.864886e-06	1.184611e-08	3.395488e+01	7.807215e+02
1.410000e-06	4.912509e-06	1.189203e-08	3.428726e+01	7.839061e+02
1.420000e-06	4.958496e-06	1.193806e-08	3.460824e+01	7.866502e+02
1.430000e-06	5.002917e-06	1.197946e-08	3.491828e+01	7.890094e+02
1.440000e-06	5.045548e-06	1.201882e-08	3.521583e+01	7.910686e+02
1.450000e-06	5.086259e-06	1.205977e-08	3.549997e+01	7.929288e+02
1.460000e-06	5.125212e-06	1.209959e-08	3.577184e+01	7.946935e+02
1.470000e-06	5.162494e-06	1.213336e-08	3.603206e+01	7.964542e+02
1.480000e-06	5.197992e-06	1.216244e-08	3.627982e+01	7.982787e+02
1.490000e-06	5.231492e-06	1.219108e-08	3.651363e+01	8.002030e+02
1.500000e-06	5.263110e-06	1.221768e-08	3.673432e+01	8.022271e+02
1.510000e-06	5.293023e-06	1.224019e-08	3.694309e+01	8.043171e+02
1.520000e-06	5.321198e-06	1.226041e-08	3.713975e+01	8.064112e+02
1.530000e-06	5.347381e-06	1.228184e-08	3.732249e+01	8.084294e+02
1.540000e-06	5.371509e-06	1.230410e-08	3.749090e+01	8.102857e+02
1.550000e-06	5.393811e-06	1.232387e-08	3.764655e+01	8.119009e+02
1.560000e-06	5.414384e-06	1.233873e-08	3.779015e+01	8.132138e+02
1.570000e-06	5.433118e-06	1.234980e-08	3.792090e+01	8.141896e+02
1.580000e-06	5.449807e-06	1.236160e-08	3.803738e+01	8.148249e+02
1.590000e-06	5.464462e-06	1.237213e-08	3.813967e+01	8.151480e+02
1.600000e-06	5.477094e-06	1.237953e-08	3.822783e+01	8.152139e+02
1.610000e-06	5.487500e-06	1.238587e-08	3.830047e+01	8.150974e+02
1.620000e-06	5.495796e-06	1.239343e-08	3.835837e+01	8.148816e+02
1.630000e-06	5.502254e-06	1.240135e-08	3.840344e+01	8.146468e+02
1.640000e-06	5.506931e-06	1.240480e-08	3.843609e+01	8.144593e+02
1.650000e-06	5.509659e-06	1.240492e-08	3.845513e+01	8.143625e+02
1.660000e-06	5.510358e-06	1.240539e-08	3.846000e+01	8.143713e+02
1.670000e-06	5.509243e-06	1.240424e-08	3.845222e+01	8.144706e+02
1.680000e-06	5.506445e-06	1.239880e-08	3.843269e+01	8.146179e+02
1.690000e-06	5.501814e-06	1.239019e-08	3.840037e+01	8.147499e+02
1.700000e-06	5.495194e-06	1.238022e-08	3.835416e+01	8.147916e+02
1.710000e-06	5.486832e-06	1.237073e-08	3.829580e+01	8.146677e+02
1.720000e-06	5.476862e-06	1.236206e-08	3.822621e+01	8.143129e+02
1.730000e-06	5.465035e-06	1.235951e-08	3.814367e+01	8.136814e+02
1.740000e-06	5.451116e-06	1.234724e-08	3.804652e+01	8.127538e+02
1.750000e-06	5.435183e-06	1.230224e-08	3.793531e+01	8.115393e+02
1.760000e-06	5.416952e-06	1.226762e-08	3.780807e+01	8.100747e+02
1.770000e-06	5.395896e-06	1.225517e-08	3.766111e+01	8.084190e+02
1.780000e-06	5.372556e-06	1.226296e-08	3.749820e+01	8.066453e+02
1.790000e-06	5.347986e-06	1.227755e-08	3.732672e+01	8.048297e+02
1.800000e-06	5.322635e-06	1.221687e-08	3.714977e+01	8.030412e+02
1.810000e-06	5.295765e-06	1.218252e-08	3.696223e+01	8.013310e+02
1.820000e-06	5.266515e-06	1.221590e-08	3.675808e+01	7.997255e+02
1.830000e-06	5.235416e-06	1.217038e-08	3.654102e+01	7.982219e+02
1.840000e-06	5.202665e-06	1.214901e-08	3.631243e+01	7.967883e+02
1.850000e-06	5.168092e-06	1.213845e-08	3.607113e+01	7.953674e+02
1.860000e-06	5.131924e-06	1.206511e-08	3.581869e+01	7.938845e+02
1.870000e-06	5.093727e-06	1.208331e-08	3.555209e+01	7.922574e+02
1.880000e-06	5.053568e-06	1.205195e-08	3.527180e+01	7.904072e+02
1.890000e-06	5.011861e-06	1.196809e-08	3.498070e+01	7.882698e+02
1.900000e-06	4.968343e-06	1.197463e-08	3.467696e+01	7.858041e+02
1.910000e-06	4.923008e-06	1.189830e-08	3.436054e+01	7.829980e+02
1.920000e-06	4.875854e-06	1.185611e-08	3.403143e+01	7.798700e+02
1.930000e-06	4.826849e-06	1.185935e-08	3.368939e+01	7.764670e+02
1.940000e-06	4.776181e-06	1.175350e-08	3.333576e+01	7.728576e+02
1.950000e-06	4.723478e-06	1.172185e-08	3.296791e+01	7.691224e+02
1.960000e-06	4.668809e-06	1.169694e-08	3.258635e+01	7.653436e+02
1.970000e-06	4.612487e-06	1.161892e-08	3.219324e+01	7.615923e+02
1.980000e-06	4.554479e-06	1.156426e-08	3.178837e+01	7.579194e+02
1.990000e-06	4.494968e-06	1.151501e-08	3.137301e+01	7.543478e+02
2.000000e-06	4.433707e-06	1.148270e-08	3.094543e+01	7.508685e+02
2.010000e-06	4.370762e-06	1.140669e-08	3.050610e+01	7.474423e+02
2.020000e-06	4.306329e-06	1.135038e-08	3.005638e+01	7.440038e+02
2.030000e-06	4.240395e-06	1.128812e-08	2.959619e+01	7.404711e+02
2.040000e-06	4.173092e-06	1.120097e-08	2.912644e+01	7.367562e+02
2.050000e-06	4.104075e-06	1.115733e-08	2.864474e+01	7.327777e+02
2.060000e-06	4.033389e-06	1.107869e-08	2.815138e+01	7.284716e+02
2.070000e-06	3.961384e-06	1.101890e-08	2.764881e+01	7.238008e+02
2.080000e-06	3.888061e-06	1.095103e-08	2.713704e+01	7.187601e+02
2.090000e-06	3.813283e-06	1.086622e-08	2.661513e+01	7.133773e+02
2.100000e-06	3.736868e-06	1.079987e-08	2.608179e+01	7.077093e+02
2.110000e-06	3.658845e-06	1.070238e-08	2.553721e+01	7.018345e+02
2.120000e-06	3.579405e-06	1.062675e-08	2.498276e+01	6.958413e+02
2.130000e-06	3.498811e-06	1.054909e-08	2.442024e+01	6.898153e+02
2.140000e-06	3.417076e-06	1.046460e-08	2.384977e+01	6.838269e+02
2.150000e-06	3.334266e-06	1.037253e-08	2.327179e+01	6.779201e+02
2.160000e-06	3.250378e-06	1.027703e-08	2.268629e+01	6.721053e+02
2.170000e-06	3.165018e-06	1.019268e-08	2.209051e+01	6.663559e+02
2.180000e-06	3.078326e-06	1.009160e-08	2.148544e+01	6.606115e+02
2.190000e-06	2.990669e-06	9.994794e-09	2.087363e+01	6.547841e+02
2.200000e-06	2.902083e-06	9.892065e-09	2.025533e+01	6.487697e+02
2.210000e-06	2.812509e-06	9.789520e-09	1.963014e+01	6.424620e+02
2.220000e-06	2.722052e-06	9.684416e-09	1.899879e+01	6.357668e+02
2.230000e-06	2.630775e-06	9.570967e-09	1.836171e+01	6.286154e+02
2.240000e-06	2.538523e-06	9.454308e-09	1.771783e+01	6.209741e+02
2.250000e-06	2.445183e-06	9.336726e-09	1.706636e+01	6.128499e+02
2.260000e-06	2.350829e-06	9.224852e-09	1.640781e+01	6.042899e+02
2.270000e-06	2.255661e-06	9.109763e-09	1.574357e+01	5.953750e+02
2.280000e-06	2.159764e-06	8.990966e-09	1.507425e+01	5.862086e+02
2.290000e-06	2.063207e-06	8.857698e-09	1.440032e+01	5.769014e+02
2.300000e-06	1.965946e-06	8.718020e-09	1.372149e+01	5.675541e+02
2.310000e-06	1.867965e-06	8.577327e-09	1.303762e+01	5.582413e+02
2.320000e-06	1.769460e-06	8.435898e-09	1.235009e+01	5.489975e+02
2.330000e-06	1.670565e-06	8.291184e-09	1.165985e+01	5.398084e+02
2.340000e-06	1.571162e-06	8.141036e-09	1.096605e+01	5.306083e+02
2.350000e-06	1.471111e-06	7.991076e-09	1.026774e+01	5.212850e+02
2.360000e-06	1.370396e-06	7.835403e-09	9.564793e+00	5.116911e+02
2.370000e-06	1.269034e-06	7.671664e-09	8.857325e+00	5.016609e+02
2.380000e-06	1.167108e-06	7.494112e-09	8.145925e+00	4.910312e+02
2.390000e-06	1.064733e-06	7.310077e-09	7.431396e+00	4.796625e+02
2.400000e-06	9.620619e-07	7.126899e-09	6.714792e+00	4.674583e+02
2.410000e-06	8.590325e-07	6.939324e-09	5.995689e+00	4.543796e+02
2.420000e-06	7.556070e-07	6.743240e-09	5.273822e+00	4.404513e+02
2.430000e-06	6.519065e-07	6.538215e-09	4.550036e+00	4.257608e+02
2.440000e-06	5.479558e-07	6.326648e-09	3.824503e+00	4.104459e+02
2.450000e-06	4.438492e-07	6.106858e-09	3.097882e+00	3.946747e+02
2.460000e-06	3.396362e-07	5.873747e-09	2.370519e+00	3.786182e+02
2.470000e-06	2.353181e-07	5.628817e-09	1.642422e+00	3.624189e+02
2.480000e-06	1.308875e-07	5.378615e-09	9.135403e-01	3.461594e+02
2.490000e-06	2.643234e-08	5.121468e-09	1.844868e-01	3.298341e+02
2.500000e-06	-7.798234e-08	4.852615e-09	-5.442843e-01	3.133288e+02
2.510000e-06	-1.823809e-07	4.566234e-09	-1.272943e+00	2.964112e+02
2.520000e-06	-2.867154e-07	4.263741e-09	-2.001154e+00	2.787338e+02
2.530000e-06	-3.909797e-07	3.948912e-09	-2.728876e+00	2.598518e+02
2.540000e-06	-4.951365e-07	3.615095e-09	-3.455846e+00	2.392534e+02
2.550000e-06	-5.990790e-07	3.255312e-09	-4.181322e+00	2.164016e+02
2.560000e-06	-7.027589e-07	2.871349e-09	-4.904964e+00	1.907832e+02
2.570000e-06	-8.061318e-07	2.463228e-09	-5.626465e+00	1.619620e+02
2.580000e-06	-9.091766e-07	2.021450e-09	-6.345674e+00	1.296283e+02
2.590000e-06	-1.011835e-06	1.532074e-09	-7.062189e+00	9.364172e+01
2.600000e-06	-1.114117e-06	9.804871e-10	-7.776070e+00	5.406262e+01
2.610000e-06	-1.216003e-06	3.620532e-10	-8.487195e+00	1.116663e+01
2.620000e-06	-1.317380e-06	-3.220770e-10	-9.194764e+00	-3.455784e+01
2.630000e-06	-1.418133e-06	-1.073910e-09	-9.897979e+00	-8.243075e+01
2.640000e-06	-1.518207e-06	-1.885510e-09	-1.059645e+01	-1.316184e+02
2.650000e-06	-1.617688e-06	-2.723843e-09	-1.129079e+01	-1.811853e+02
2.660000e-06	-1.716655e-06	-3.541601e-09	-1.198154e+01	-2.301553e+02
2.670000e-06	-1.815123e-06	-4.304169e-09	-1.266880e+01	-2.775772e+02
2.680000e-06	-1.912999e-06	-4.999389e-09	-1.335193e+01	-3.225870e+02
2.690000e-06	-2.010200e-06	-5.622013e-09	-1.403036e+01	-3.644645e+02
2.700000e-06	-2.106741e-06	-6.167894e-09	-1.470417e+01	-4.026754e+02
2.710000e-06	-2.202627e-06	-6.641432e-09	-1.537342e+01	-4.368986e+02
2.720000e-06	-2.297819e-06	-7.055660e-09	-1.603782e+01	-4.670347e+02
2.730000e-06	-2.392305e-06	-7.425801e-09	-1.669729e+01	-4.931962e+02
2.740000e-06	-2.485950e-06	-7.759463e-09	-1.735090e+01	-5.156808e+02
2.750000e-06	-2.578498e-06	-8.057805e-09	-1.799684e+01	-5.349314e+02
2.760000e-06	-2.669931e-06	-8.324888e-09	-1.863501e+01	-5.514865e+02
2.770000e-06	-2.760389e-06	-8.569693e-09	-1.926637e+01	-5.659271e+02
2.780000e-06	-2.849922e-06	-8.802741e-09	-1.989127e+01	-5.788238e+02
2.790000e-06	-2.938425e-06	-9.021973e-09	-2.050899e+01	-5.906914e+02
2.800000e-06	-3.025872e-06	-9.220075e-09	-2.111933e+01	-6.019527e+02
2.810000e-06	-3.112355e-06	-9.402913e-09	-2.172294e+01	-6.129154e+02
2.820000e-06	-3.197704e-06	-9.577167e-09	-2.231864e+01	-6.237635e+02
2.830000e-06	-3.281777e-06	-9.740393e-09	-2.290544e+01	-6.345622e+02
2.840000e-06	-3.364697e-06	-9.889606e-09	-2.348418e+01	-6.452751e+02
2.850000e-06	-3.446523e-06	-1.003023e-08	-2.405529e+01	-6.557900e+02
2.860000e-06	-3.527198e-06	-1.016616e-08	-2.461837e+01	-6.659509e+02
2.870000e-06	-3.606692e-06	-1.029502e-08	-2.517321e+01	-6.755902e+02
2.880000e-06	-3.684870e-06	-1.041622e-08	-2.571886e+01	-6.845593e+02
2.890000e-06	-3.761472e-06	-1.053041e-08	-2.625350e+01	-6.927520e+02
2.900000e-06	-3.836506e-06	-1.064102e-08	-2.677721e+01	-7.001211e+02
2.910000e-06	-3.910150e-06	-1.074772e-08	-2.729122e+01	-7.066840e+02
2.920000e-06	-3.982418e-06	-1.084646e-08	-2.779562e+01	-7.125195e+02
2.930000e-06	-4.053301e-06	-1.093870e-08	-2.829035e+01	-7.177566e+02
2.940000e-06	-4.122729e-06	-1.102660e-08	-2.877493e+01	-7.225562e+02
