# Temperatura_=_35.48
# Concentracion g/m^3_=_15500.0
# C_Vs_to_Am_M_A/Vsm_=_65563218390.804596
# pendiente_HvsI_1/m_=_3716.3
# ordenada_HvsI_A/m_=_1297.0
# frecuencia_Hz_=_300812.54836077767

Tiempo_(s)	Campo_(V.s)	Magnetizacion_(V.s)	Campo_(kA/m)	Magnetizacion_(A/m)
0.000000e+00	-5.492778e-06	-1.207043e-08	-3.830544e+01	-7.885714e+02
1.000000e-08	-5.491473e-06	-1.207115e-08	-3.829635e+01	-7.885768e+02
2.000000e-08	-5.488189e-06	-1.206997e-08	-3.827344e+01	-7.886385e+02
3.000000e-08	-5.483083e-06	-1.206369e-08	-3.823783e+01	-7.887005e+02
4.000000e-08	-5.476365e-06	-1.205574e-08	-3.819099e+01	-7.886948e+02
5.000000e-08	-5.468045e-06	-1.204439e-08	-3.813297e+01	-7.885513e+02
6.000000e-08	-5.457868e-06	-1.202594e-08	-3.806199e+01	-7.882078e+02
7.000000e-08	-5.445583e-06	-1.200451e-08	-3.797632e+01	-7.876195e+02
8.000000e-08	-5.431290e-06	-1.198905e-08	-3.787664e+01	-7.867652e+02
9.000000e-08	-5.414716e-06	-1.199829e-08	-3.776106e+01	-7.856505e+02
1.000000e-07	-5.395747e-06	-1.201933e-08	-3.762877e+01	-7.843070e+02
1.100000e-07	-5.374753e-06	-1.198683e-08	-3.748237e+01	-7.827878e+02
1.200000e-07	-5.351938e-06	-1.194068e-08	-3.732326e+01	-7.811602e+02
1.300000e-07	-5.327565e-06	-1.190995e-08	-3.715328e+01	-7.794954e+02
1.400000e-07	-5.301743e-06	-1.185168e-08	-3.697321e+01	-7.778588e+02
1.500000e-07	-5.274126e-06	-1.188104e-08	-3.678062e+01	-7.762999e+02
1.600000e-07	-5.244698e-06	-1.186901e-08	-3.657539e+01	-7.748453e+02
1.700000e-07	-5.213732e-06	-1.176697e-08	-3.635944e+01	-7.734941e+02
1.800000e-07	-5.180979e-06	-1.181802e-08	-3.613103e+01	-7.722173e+02
1.900000e-07	-5.146132e-06	-1.180215e-08	-3.588801e+01	-7.709617e+02
2.000000e-07	-5.109591e-06	-1.171032e-08	-3.563318e+01	-7.696559e+02
2.100000e-07	-5.071470e-06	-1.171759e-08	-3.536733e+01	-7.682205e+02
2.200000e-07	-5.031564e-06	-1.164535e-08	-3.508904e+01	-7.665782e+02
2.300000e-07	-4.989771e-06	-1.161191e-08	-3.479758e+01	-7.646643e+02
2.400000e-07	-4.945921e-06	-1.162947e-08	-3.449178e+01	-7.624356e+02
2.500000e-07	-4.900275e-06	-1.156051e-08	-3.417345e+01	-7.598763e+02
2.600000e-07	-4.852915e-06	-1.153208e-08	-3.384318e+01	-7.569999e+02
2.700000e-07	-4.803598e-06	-1.147546e-08	-3.349926e+01	-7.538479e+02
2.800000e-07	-4.752187e-06	-1.141283e-08	-3.314073e+01	-7.504836e+02
2.900000e-07	-4.698774e-06	-1.140499e-08	-3.276823e+01	-7.469837e+02
3.000000e-07	-4.643660e-06	-1.135123e-08	-3.238388e+01	-7.434278e+02
3.100000e-07	-4.586903e-06	-1.129746e-08	-3.198807e+01	-7.398868e+02
3.200000e-07	-4.528329e-06	-1.125838e-08	-3.157959e+01	-7.364134e+02
3.300000e-07	-4.468020e-06	-1.121443e-08	-3.115901e+01	-7.330345e+02
3.400000e-07	-4.406192e-06	-1.114570e-08	-3.072783e+01	-7.297469e+02
3.500000e-07	-4.342935e-06	-1.107179e-08	-3.028669e+01	-7.265176e+02
3.600000e-07	-4.278204e-06	-1.102786e-08	-2.983527e+01	-7.232880e+02
3.700000e-07	-4.211833e-06	-1.096315e-08	-2.937241e+01	-7.199818e+02
3.800000e-07	-4.143803e-06	-1.091261e-08	-2.889799e+01	-7.165149e+02
3.900000e-07	-4.074274e-06	-1.085859e-08	-2.841311e+01	-7.128075e+02
4.000000e-07	-4.003427e-06	-1.077954e-08	-2.791903e+01	-7.087947e+02
4.100000e-07	-3.931300e-06	-1.072058e-08	-2.741604e+01	-7.044359e+02
4.200000e-07	-3.857764e-06	-1.064534e-08	-2.690322e+01	-6.997202e+02
4.300000e-07	-3.782535e-06	-1.056930e-08	-2.637858e+01	-6.946680e+02
4.400000e-07	-3.705649e-06	-1.049172e-08	-2.584239e+01	-6.893285e+02
4.500000e-07	-3.627351e-06	-1.042427e-08	-2.529636e+01	-6.837727e+02
4.600000e-07	-3.547568e-06	-1.035889e-08	-2.473997e+01	-6.780830e+02
4.700000e-07	-3.466311e-06	-1.027547e-08	-2.417331e+01	-6.723414e+02
4.800000e-07	-3.383782e-06	-1.018960e-08	-2.359777e+01	-6.666172e+02
4.900000e-07	-3.300155e-06	-1.009633e-08	-2.301457e+01	-6.609564e+02
5.000000e-07	-3.215541e-06	-1.000765e-08	-2.242449e+01	-6.553740e+02
5.100000e-07	-3.129998e-06	-9.914348e-09	-2.182793e+01	-6.498506e+02
5.200000e-07	-3.043508e-06	-9.821136e-09	-2.122477e+01	-6.443334e+02
5.300000e-07	-2.956034e-06	-9.731262e-09	-2.061474e+01	-6.387427e+02
5.400000e-07	-2.867654e-06	-9.636892e-09	-1.999840e+01	-6.329816e+02
5.500000e-07	-2.778279e-06	-9.537631e-09	-1.937512e+01	-6.269487e+02
5.600000e-07	-2.687679e-06	-9.429249e-09	-1.874329e+01	-6.205521e+02
5.700000e-07	-2.595933e-06	-9.315513e-09	-1.810347e+01	-6.137219e+02
5.800000e-07	-2.503263e-06	-9.202607e-09	-1.745721e+01	-6.064204e+02
5.900000e-07	-2.409770e-06	-9.092689e-09	-1.680521e+01	-5.986476e+02
6.000000e-07	-2.315517e-06	-8.978132e-09	-1.614792e+01	-5.904418e+02
6.100000e-07	-2.220504e-06	-8.856205e-09	-1.548532e+01	-5.818749e+02
6.200000e-07	-2.124751e-06	-8.732783e-09	-1.481755e+01	-5.730414e+02
6.300000e-07	-2.028278e-06	-8.608345e-09	-1.414477e+01	-5.640455e+02
6.400000e-07	-1.931025e-06	-8.478014e-09	-1.346655e+01	-5.549843e+02
6.500000e-07	-1.832923e-06	-8.338611e-09	-1.278241e+01	-5.459324e+02
6.600000e-07	-1.733951e-06	-8.192262e-09	-1.209220e+01	-5.369281e+02
6.700000e-07	-1.634303e-06	-8.048209e-09	-1.139728e+01	-5.279643e+02
6.800000e-07	-1.534149e-06	-7.905180e-09	-1.069882e+01	-5.189854e+02
6.900000e-07	-1.433466e-06	-7.753427e-09	-9.996683e+00	-5.098903e+02
7.000000e-07	-1.332297e-06	-7.591342e-09	-9.291152e+00	-5.005426e+02
7.100000e-07	-1.230699e-06	-7.425860e-09	-8.582631e+00	-4.907857e+02
7.200000e-07	-1.128731e-06	-7.259359e-09	-7.871526e+00	-4.804621e+02
7.300000e-07	-1.026335e-06	-7.087169e-09	-7.157441e+00	-4.694339e+02
7.400000e-07	-9.234844e-07	-6.907890e-09	-6.440180e+00	-4.576010e+02
7.500000e-07	-8.202878e-07	-6.719255e-09	-5.720510e+00	-4.449162e+02
7.600000e-07	-7.168155e-07	-6.523860e-09	-4.998916e+00	-4.313926e+02
7.700000e-07	-6.131659e-07	-6.321898e-09	-4.276086e+00	-4.171032e+02
7.800000e-07	-5.093829e-07	-6.111631e-09	-3.552326e+00	-4.021713e+02
7.900000e-07	-4.054909e-07	-5.893475e-09	-2.827806e+00	-3.867524e+02
8.000000e-07	-3.014789e-07	-5.669893e-09	-2.102449e+00	-3.710095e+02
8.100000e-07	-1.973772e-07	-5.440358e-09	-1.376466e+00	-3.550832e+02
8.200000e-07	-9.322815e-08	-5.198928e-09	-6.501529e-01	-3.390622e+02
8.300000e-07	1.096687e-08	-4.943962e-09	7.648060e-02	-3.229556e+02
8.400000e-07	1.151455e-07	-4.674776e-09	8.029998e-01	-3.066722e+02
8.500000e-07	2.193046e-07	-4.394380e-09	1.529383e+00	-2.900096e+02
8.600000e-07	3.234217e-07	-4.102265e-09	2.255473e+00	-2.726552e+02
8.700000e-07	4.273984e-07	-3.793969e-09	2.980584e+00	-2.542009e+02
8.800000e-07	5.312344e-07	-3.465689e-09	3.704714e+00	-2.341695e+02
8.900000e-07	6.349857e-07	-3.115467e-09	4.428253e+00	-2.120534e+02
9.000000e-07	7.386036e-07	-2.742877e-09	5.150862e+00	-1.873604e+02
9.100000e-07	8.419850e-07	-2.344352e-09	5.871821e+00	-1.596628e+02
9.200000e-07	9.450419e-07	-1.909792e-09	6.590518e+00	-1.286461e+02
9.300000e-07	1.047667e-06	-1.429091e-09	7.306201e+00	-9.415090e+01
9.400000e-07	1.149878e-06	-8.987421e-10	8.019001e+00	-5.620397e+01
9.500000e-07	1.251786e-06	-3.089478e-10	8.729686e+00	-1.503559e+01
9.600000e-07	1.353261e-06	3.515061e-10	9.437352e+00	2.892052e+01
9.700000e-07	1.454228e-06	1.081505e-09	1.014147e+01	7.504421e+01
9.800000e-07	1.554744e-06	1.862944e-09	1.084245e+01	1.225625e+02
9.900000e-07	1.654758e-06	2.663553e-09	1.153993e+01	1.705969e+02
1.000000e-06	1.754262e-06	3.449434e-09	1.223384e+01	2.182200e+02
1.010000e-06	1.853092e-06	4.192420e-09	1.292307e+01	2.645173e+02
1.020000e-06	1.951032e-06	4.869399e-09	1.360607e+01	3.086474e+02
1.030000e-06	2.048055e-06	5.467470e-09	1.428269e+01	3.498967e+02
1.040000e-06	2.144299e-06	5.990924e-09	1.495388e+01	3.877216e+02
1.050000e-06	2.239887e-06	6.453744e-09	1.562049e+01	4.217774e+02
1.060000e-06	2.334775e-06	6.868038e-09	1.628221e+01	4.519293e+02
1.070000e-06	2.428902e-06	7.233645e-09	1.693864e+01	4.782458e+02
1.080000e-06	2.522224e-06	7.556018e-09	1.758945e+01	5.009766e+02
1.090000e-06	2.614710e-06	7.849105e-09	1.823442e+01	5.205162e+02
1.100000e-06	2.706392e-06	8.118651e-09	1.887379e+01	5.373590e+02
1.110000e-06	2.797026e-06	8.364443e-09	1.950585e+01	5.520486e+02
1.120000e-06	2.886340e-06	8.586639e-09	2.012871e+01	5.651282e+02
1.130000e-06	2.974597e-06	8.792234e-09	2.074419e+01	5.770960e+02
1.140000e-06	3.061931e-06	8.987016e-09	2.135324e+01	5.883692e+02
1.150000e-06	3.148268e-06	9.170158e-09	2.195534e+01	5.992602e+02
1.160000e-06	3.233583e-06	9.338544e-09	2.255031e+01	6.099663e+02
1.170000e-06	3.317873e-06	9.492194e-09	2.313813e+01	6.205714e+02
1.180000e-06	3.401067e-06	9.640281e-09	2.371831e+01	6.310611e+02
1.190000e-06	3.482952e-06	9.785045e-09	2.428936e+01	6.413452e+02
1.200000e-06	3.563507e-06	9.917540e-09	2.485113e+01	6.512872e+02
1.210000e-06	3.642734e-06	1.003725e-08	2.540364e+01	6.607346e+02
1.220000e-06	3.720668e-06	1.015468e-08	2.594713e+01	6.695480e+02
1.230000e-06	3.797330e-06	1.027356e-08	2.648176e+01	6.776243e+02
1.240000e-06	3.872538e-06	1.038524e-08	2.700624e+01	6.849131e+02
1.250000e-06	3.946103e-06	1.048249e-08	2.751927e+01	6.914240e+02
1.260000e-06	4.018183e-06	1.057026e-08	2.802194e+01	6.972246e+02
1.270000e-06	4.088910e-06	1.065870e-08	2.851518e+01	7.024309e+02
1.280000e-06	4.158211e-06	1.074630e-08	2.899847e+01	7.071913e+02
1.290000e-06	4.226142e-06	1.082537e-08	2.947220e+01	7.116671e+02
1.300000e-06	4.292481e-06	1.089847e-08	2.993483e+01	7.160123e+02
1.310000e-06	4.357132e-06	1.097257e-08	3.038570e+01	7.203550e+02
1.320000e-06	4.420292e-06	1.104723e-08	3.082616e+01	7.247833e+02
1.330000e-06	4.482026e-06	1.111756e-08	3.125668e+01	7.293376e+02
1.340000e-06	4.542425e-06	1.118103e-08	3.167789e+01	7.340083e+02
1.350000e-06	4.601209e-06	1.124303e-08	3.208784e+01	7.387418e+02
1.360000e-06	4.658108e-06	1.130689e-08	3.248464e+01	7.434505e+02
1.370000e-06	4.713341e-06	1.136743e-08	3.286982e+01	7.480276e+02
1.380000e-06	4.766917e-06	1.142060e-08	3.324345e+01	7.523635e+02
1.390000e-06	4.818542e-06	1.146782e-08	3.360347e+01	7.563617e+02
1.400000e-06	4.868077e-06	1.151311e-08	3.394892e+01	7.599518e+02
1.410000e-06	4.915752e-06	1.155974e-08	3.428139e+01	7.630992e+02
1.420000e-06	4.961824e-06	1.160518e-08	3.460268e+01	7.658086e+02
1.430000e-06	5.006317e-06	1.164593e-08	3.491297e+01	7.681220e+02
1.440000e-06	5.048861e-06	1.168490e-08	3.520966e+01	7.701127e+02
1.450000e-06	5.089476e-06	1.172445e-08	3.549291e+01	7.718738e+02
1.460000e-06	5.128454e-06	1.176096e-08	3.576473e+01	7.735054e+02
1.470000e-06	5.165729e-06	1.179109e-08	3.602467e+01	7.751009e+02
1.480000e-06	5.201237e-06	1.181716e-08	3.627230e+01	7.767349e+02
1.490000e-06	5.234815e-06	1.184338e-08	3.650647e+01	7.784536e+02
1.500000e-06	5.266535e-06	1.187063e-08	3.672767e+01	7.802702e+02
1.510000e-06	5.296596e-06	1.189444e-08	3.693732e+01	7.821643e+02
1.520000e-06	5.324963e-06	1.191456e-08	3.713514e+01	7.840862e+02
1.530000e-06	5.351231e-06	1.193527e-08	3.731833e+01	7.859652e+02
1.540000e-06	5.375370e-06	1.195586e-08	3.748667e+01	7.877207e+02
1.550000e-06	5.397727e-06	1.197344e-08	3.764258e+01	7.892737e+02
1.560000e-06	5.418376e-06	1.198515e-08	3.778658e+01	7.905586e+02
1.570000e-06	5.437180e-06	1.199365e-08	3.791772e+01	7.915323e+02
1.580000e-06	5.453981e-06	1.200420e-08	3.803488e+01	7.921804e+02
1.590000e-06	5.468777e-06	1.201515e-08	3.813807e+01	7.925183e+02
1.600000e-06	5.481450e-06	1.202261e-08	3.822645e+01	7.925896e+02
1.610000e-06	5.491878e-06	1.202814e-08	3.829917e+01	7.924589e+02
1.620000e-06	5.500218e-06	1.203600e-08	3.835733e+01	7.922034e+02
1.630000e-06	5.506723e-06	1.204352e-08	3.840270e+01	7.919015e+02
1.640000e-06	5.511479e-06	1.204425e-08	3.843587e+01	7.916222e+02
1.650000e-06	5.514246e-06	1.203911e-08	3.845516e+01	7.914160e+02
1.660000e-06	5.514940e-06	1.203707e-08	3.846000e+01	7.913082e+02
1.670000e-06	5.513790e-06	1.203875e-08	3.845198e+01	7.912960e+02
1.680000e-06	5.510957e-06	1.203523e-08	3.843222e+01	7.913495e+02
1.690000e-06	5.506360e-06	1.202726e-08	3.840016e+01	7.914167e+02
1.700000e-06	5.499809e-06	1.201680e-08	3.835448e+01	7.914314e+02
1.710000e-06	5.491484e-06	1.201086e-08	3.829642e+01	7.913229e+02
1.720000e-06	5.481556e-06	1.200654e-08	3.822718e+01	7.910266e+02
1.730000e-06	5.469715e-06	1.199980e-08	3.814461e+01	7.904932e+02
1.740000e-06	5.455813e-06	1.199188e-08	3.804766e+01	7.896961e+02
1.750000e-06	5.439973e-06	1.193780e-08	3.793720e+01	7.886352e+02
1.760000e-06	5.421750e-06	1.190079e-08	3.781012e+01	7.873367e+02
1.770000e-06	5.400674e-06	1.190631e-08	3.766313e+01	7.858497e+02
1.780000e-06	5.377275e-06	1.189743e-08	3.749996e+01	7.842391e+02
1.790000e-06	5.352627e-06	1.194554e-08	3.732806e+01	7.825762e+02
1.800000e-06	5.327284e-06	1.188902e-08	3.715133e+01	7.809285e+02
1.810000e-06	5.300418e-06	1.178364e-08	3.696397e+01	7.793497e+02
1.820000e-06	5.271077e-06	1.188985e-08	3.675935e+01	7.778717e+02
1.830000e-06	5.239977e-06	1.185543e-08	3.654246e+01	7.764996e+02
1.840000e-06	5.207341e-06	1.178565e-08	3.631487e+01	7.752104e+02
1.850000e-06	5.172807e-06	1.186887e-08	3.607404e+01	7.739556e+02
1.860000e-06	5.136577e-06	1.177775e-08	3.582138e+01	7.726669e+02
1.870000e-06	5.098328e-06	1.176408e-08	3.555464e+01	7.712658e+02
1.880000e-06	5.058163e-06	1.180169e-08	3.527453e+01	7.696737e+02
1.890000e-06	5.016461e-06	1.167176e-08	3.498371e+01	7.678223e+02
1.900000e-06	4.972918e-06	1.168433e-08	3.468005e+01	7.656632e+02
1.910000e-06	4.927554e-06	1.162677e-08	3.436370e+01	7.631744e+02
1.920000e-06	4.880384e-06	1.155212e-08	3.403474e+01	7.603632e+02
1.930000e-06	4.831331e-06	1.160940e-08	3.369266e+01	7.572653e+02
1.940000e-06	4.780572e-06	1.148411e-08	3.333868e+01	7.539402e+02
1.950000e-06	4.727759e-06	1.147020e-08	3.297037e+01	7.504624e+02
1.960000e-06	4.673030e-06	1.145701e-08	3.258870e+01	7.469119e+02
1.970000e-06	4.616648e-06	1.134996e-08	3.219551e+01	7.433623e+02
1.980000e-06	4.558591e-06	1.133409e-08	3.179063e+01	7.398710e+02
1.990000e-06	4.499137e-06	1.124879e-08	3.137601e+01	7.364709e+02
2.000000e-06	4.437997e-06	1.123371e-08	3.094963e+01	7.331653e+02
2.010000e-06	4.375128e-06	1.117748e-08	3.051120e+01	7.299275e+02
2.020000e-06	4.310761e-06	1.110363e-08	3.006232e+01	7.267038e+02
2.030000e-06	4.244875e-06	1.107990e-08	2.960284e+01	7.234207e+02
2.040000e-06	4.177568e-06	1.096987e-08	2.913345e+01	7.199951e+02
2.050000e-06	4.108547e-06	1.094178e-08	2.865212e+01	7.163452e+02
2.060000e-06	4.037871e-06	1.086402e-08	2.815924e+01	7.124020e+02
2.070000e-06	3.965832e-06	1.078877e-08	2.765686e+01	7.081192e+02
2.080000e-06	3.892430e-06	1.073940e-08	2.714497e+01	7.034791e+02
2.090000e-06	3.817620e-06	1.064470e-08	2.662326e+01	6.984955e+02
2.100000e-06	3.741127e-06	1.060114e-08	2.608981e+01	6.932121e+02
2.110000e-06	3.663009e-06	1.050171e-08	2.554503e+01	6.876958e+02
2.120000e-06	3.583577e-06	1.043491e-08	2.499109e+01	6.820274e+02
2.130000e-06	3.502997e-06	1.036103e-08	2.442914e+01	6.762903e+02
2.140000e-06	3.421274e-06	1.027214e-08	2.385923e+01	6.705573e+02
2.150000e-06	3.338468e-06	1.019886e-08	2.328175e+01	6.648804e+02
2.160000e-06	3.254433e-06	1.009440e-08	2.269571e+01	6.592815e+02
2.170000e-06	3.168992e-06	1.001844e-08	2.209986e+01	6.537486e+02
2.180000e-06	3.082360e-06	9.920023e-09	2.149571e+01	6.482358e+02
2.190000e-06	2.994666e-06	9.829701e-09	2.088415e+01	6.426684e+02
2.200000e-06	2.906006e-06	9.730327e-09	2.026585e+01	6.369522e+02
2.210000e-06	2.816427e-06	9.625268e-09	1.964116e+01	6.309856e+02
2.220000e-06	2.725958e-06	9.530929e-09	1.901024e+01	6.246736e+02
2.230000e-06	2.634593e-06	9.423526e-09	1.837308e+01	6.179405e+02
2.240000e-06	2.542200e-06	9.318747e-09	1.772875e+01	6.107411e+02
2.250000e-06	2.448797e-06	9.199799e-09	1.707738e+01	6.030671e+02
2.260000e-06	2.354494e-06	9.088021e-09	1.641973e+01	5.949490e+02
2.270000e-06	2.259333e-06	8.974350e-09	1.575610e+01	5.864518e+02
2.280000e-06	2.163383e-06	8.859263e-09	1.508696e+01	5.776666e+02
2.290000e-06	2.066756e-06	8.733883e-09	1.441311e+01	5.686967e+02
2.300000e-06	1.969373e-06	8.601594e-09	1.373398e+01	5.596420e+02
2.310000e-06	1.871309e-06	8.471254e-09	1.305010e+01	5.505833e+02
2.320000e-06	1.772814e-06	8.334547e-09	1.236322e+01	5.415675e+02
2.330000e-06	1.673878e-06	8.193026e-09	1.167326e+01	5.325979e+02
2.340000e-06	1.574381e-06	8.041265e-09	1.097939e+01	5.236291e+02
2.350000e-06	1.474205e-06	7.894397e-09	1.028078e+01	5.145693e+02
2.360000e-06	1.373291e-06	7.745783e-09	9.577031e+00	5.052882e+02
2.370000e-06	1.271778e-06	7.589073e-09	8.869107e+00	4.956324e+02
2.380000e-06	1.169840e-06	7.419400e-09	8.158215e+00	4.854426e+02
2.390000e-06	1.067496e-06	7.244061e-09	7.444483e+00	4.745751e+02
2.400000e-06	9.647205e-07	7.068297e-09	6.727752e+00	4.629204e+02
2.410000e-06	8.615156e-07	6.882663e-09	6.008023e+00	4.504190e+02
2.420000e-06	7.579346e-07	6.689204e-09	5.285672e+00	4.370707e+02
2.430000e-06	6.541083e-07	6.489906e-09	4.561610e+00	4.229364e+02
2.440000e-06	5.501122e-07	6.284994e-09	3.836363e+00	4.081296e+02
2.450000e-06	4.459513e-07	6.070047e-09	3.109968e+00	3.928010e+02
2.460000e-06	3.416588e-07	5.845173e-09	2.382654e+00	3.771143e+02
2.470000e-06	2.372830e-07	5.611484e-09	1.654760e+00	3.612174e+02
2.480000e-06	1.328184e-07	5.369701e-09	9.262471e-01	3.452127e+02
2.490000e-06	2.829285e-08	5.116481e-09	1.973082e-01	3.291282e+02
2.500000e-06	-7.618841e-08	4.850137e-09	-5.313215e-01	3.128957e+02
2.510000e-06	-1.805658e-07	4.571585e-09	-1.259227e+00	2.963369e+02
2.520000e-06	-2.848994e-07	4.279353e-09	-1.986827e+00	2.791620e+02
2.530000e-06	-3.892032e-07	3.974359e-09	-2.714219e+00	2.609815e+02
2.540000e-06	-4.934076e-07	3.652497e-09	-3.440918e+00	2.413302e+02
2.550000e-06	-5.974368e-07	3.310866e-09	-4.166395e+00	2.197034e+02
2.560000e-06	-7.012253e-07	2.946031e-09	-4.890194e+00	1.956013e+02
2.570000e-06	-8.046758e-07	2.554434e-09	-5.611635e+00	1.685784e+02
2.580000e-06	-9.077864e-07	2.130366e-09	-6.330706e+00	1.382921e+02
2.590000e-06	-1.010613e-06	1.665982e-09	-7.047795e+00	1.045465e+02
2.600000e-06	-1.113058e-06	1.149523e-09	-7.762224e+00	6.732670e+01
2.610000e-06	-1.215017e-06	5.716315e-10	-8.473268e+00	2.681871e+01
2.620000e-06	-1.316485e-06	-6.781884e-11	-9.180879e+00	-1.658648e+01
2.630000e-06	-1.417442e-06	-7.703279e-10	-9.884930e+00	-6.230638e+01
2.640000e-06	-1.517757e-06	-1.533733e-09	-1.058451e+01	-1.095972e+02
2.650000e-06	-1.617313e-06	-2.337035e-09	-1.127879e+01	-1.575985e+02
2.660000e-06	-1.716276e-06	-3.137838e-09	-1.196894e+01	-2.053883e+02
2.670000e-06	-1.814821e-06	-3.898190e-09	-1.265617e+01	-2.520441e+02
2.680000e-06	-1.912808e-06	-4.599962e-09	-1.333951e+01	-2.967040e+02
2.690000e-06	-2.010096e-06	-5.234245e-09	-1.401798e+01	-3.386228e+02
2.700000e-06	-2.106733e-06	-5.794531e-09	-1.469190e+01	-3.772178e+02
2.710000e-06	-2.202713e-06	-6.280773e-09	-1.536124e+01	-4.121000e+02
2.720000e-06	-2.297985e-06	-6.706665e-09	-1.602565e+01	-4.430895e+02
2.730000e-06	-2.392578e-06	-7.089645e-09	-1.668532e+01	-4.702128e+02
2.740000e-06	-2.486343e-06	-7.434002e-09	-1.733922e+01	-4.936832e+02
2.750000e-06	-2.579012e-06	-7.740950e-09	-1.798547e+01	-5.138679e+02
2.760000e-06	-2.670508e-06	-8.017573e-09	-1.862354e+01	-5.312440e+02
2.770000e-06	-2.761017e-06	-8.270332e-09	-1.925474e+01	-5.463486e+02
2.780000e-06	-2.850596e-06	-8.505917e-09	-1.987944e+01	-5.597293e+02
2.790000e-06	-2.939156e-06	-8.725595e-09	-2.049704e+01	-5.718972e+02
2.800000e-06	-3.026727e-06	-8.926230e-09	-2.110774e+01	-5.832893e+02
2.810000e-06	-3.113334e-06	-9.112128e-09	-2.171172e+01	-5.942419e+02
2.820000e-06	-3.198844e-06	-9.287386e-09	-2.230804e+01	-6.049770e+02
2.830000e-06	-3.283032e-06	-9.450344e-09	-2.289515e+01	-6.156021e+02
2.840000e-06	-3.365982e-06	-9.599614e-09	-2.347363e+01	-6.261221e+02
2.850000e-06	-3.447837e-06	-9.740312e-09	-2.404447e+01	-6.364608e+02
2.860000e-06	-3.528552e-06	-9.877242e-09	-2.460736e+01	-6.464891e+02
2.870000e-06	-3.608101e-06	-1.000798e-08	-2.516211e+01	-6.560553e+02
2.880000e-06	-3.686351e-06	-1.013130e-08	-2.570782e+01	-6.650149e+02
2.890000e-06	-3.763022e-06	-1.024705e-08	-2.624250e+01	-6.732556e+02
2.900000e-06	-3.838147e-06	-1.035695e-08	-2.676640e+01	-6.807146e+02
2.910000e-06	-3.911907e-06	-1.045945e-08	-2.728079e+01	-6.873885e+02
2.920000e-06	-3.984326e-06	-1.055351e-08	-2.778583e+01	-6.933332e+02
2.930000e-06	-4.055439e-06	-1.064461e-08	-2.828176e+01	-6.986554e+02
2.940000e-06	-4.125063e-06	-1.073410e-08	-2.876729e+01	-7.034980e+02
