# Temperatura_=_39.67
# Concentracion g/m^3_=_15500.0
# C_Vs_to_Am_M_A/Vsm_=_65563218390.804596
# pendiente_HvsI_1/m_=_3716.3
# ordenada_HvsI_A/m_=_1297.0
# frecuencia_Hz_=_300813.9213436584

Tiempo_(s)	Campo_(V.s)	Magnetizacion_(V.s)	Campo_(kA/m)	Magnetizacion_(A/m)
0.000000e+00	-5.483964e-06	-1.213246e-08	-3.830378e+01	-7.922200e+02
1.000000e-08	-5.482183e-06	-1.213303e-08	-3.829134e+01	-7.923252e+02
2.000000e-08	-5.478474e-06	-1.213219e-08	-3.826543e+01	-7.924654e+02
3.000000e-08	-5.473015e-06	-1.212821e-08	-3.822730e+01	-7.925766e+02
4.000000e-08	-5.465905e-06	-1.211861e-08	-3.817764e+01	-7.925858e+02
5.000000e-08	-5.457097e-06	-1.210278e-08	-3.811612e+01	-7.924224e+02
6.000000e-08	-5.446334e-06	-1.208456e-08	-3.804095e+01	-7.920274e+02
7.000000e-08	-5.433545e-06	-1.206842e-08	-3.795162e+01	-7.913625e+02
8.000000e-08	-5.418683e-06	-1.207953e-08	-3.784782e+01	-7.904152e+02
9.000000e-08	-5.401488e-06	-1.209395e-08	-3.772771e+01	-7.892007e+02
1.000000e-07	-5.382022e-06	-1.205814e-08	-3.759175e+01	-7.877597e+02
1.100000e-07	-5.360584e-06	-1.203384e-08	-3.744201e+01	-7.861524e+02
1.200000e-07	-5.337361e-06	-1.200613e-08	-3.727980e+01	-7.844501e+02
1.300000e-07	-5.312633e-06	-1.193286e-08	-3.710709e+01	-7.827252e+02
1.400000e-07	-5.286395e-06	-1.198166e-08	-3.692382e+01	-7.810402e+02
1.500000e-07	-5.258338e-06	-1.195349e-08	-3.672785e+01	-7.794390e+02
1.600000e-07	-5.228570e-06	-1.185509e-08	-3.651993e+01	-7.779406e+02
1.700000e-07	-5.197252e-06	-1.193435e-08	-3.630119e+01	-7.765355e+02
1.800000e-07	-5.163994e-06	-1.186360e-08	-3.606889e+01	-7.751866e+02
1.900000e-07	-5.128725e-06	-1.176727e-08	-3.582255e+01	-7.738344e+02
2.000000e-07	-5.091817e-06	-1.180525e-08	-3.556476e+01	-7.724042e+02
2.100000e-07	-5.053204e-06	-1.171381e-08	-3.529506e+01	-7.708169e+02
2.200000e-07	-5.012782e-06	-1.168790e-08	-3.501272e+01	-7.689987e+02
2.300000e-07	-4.970498e-06	-1.171174e-08	-3.471738e+01	-7.668921e+02
2.400000e-07	-4.926278e-06	-1.163755e-08	-3.440852e+01	-7.644635e+02
2.500000e-07	-4.880275e-06	-1.161657e-08	-3.408720e+01	-7.617075e+02
2.600000e-07	-4.832474e-06	-1.155009e-08	-3.375332e+01	-7.586484e+02
2.700000e-07	-4.782672e-06	-1.149363e-08	-3.340548e+01	-7.553362e+02
2.800000e-07	-4.730788e-06	-1.147505e-08	-3.304308e+01	-7.518403e+02
2.900000e-07	-4.676995e-06	-1.142470e-08	-3.266736e+01	-7.482396e+02
3.000000e-07	-4.621580e-06	-1.138569e-08	-3.228030e+01	-7.446119e+02
3.100000e-07	-4.564512e-06	-1.133061e-08	-3.188170e+01	-7.410224e+02
3.200000e-07	-4.505646e-06	-1.129075e-08	-3.147053e+01	-7.375150e+02
3.300000e-07	-4.445066e-06	-1.121944e-08	-3.104740e+01	-7.341059e+02
3.400000e-07	-4.382953e-06	-1.114249e-08	-3.061356e+01	-7.307805e+02
3.500000e-07	-4.319403e-06	-1.109956e-08	-3.016968e+01	-7.274958e+02
3.600000e-07	-4.254402e-06	-1.102863e-08	-2.971567e+01	-7.241853e+02
3.700000e-07	-4.187833e-06	-1.098518e-08	-2.925071e+01	-7.207687e+02
3.800000e-07	-4.119582e-06	-1.092777e-08	-2.877400e+01	-7.171620e+02
3.900000e-07	-4.049791e-06	-1.084761e-08	-2.828653e+01	-7.132897e+02
4.000000e-07	-3.978709e-06	-1.079061e-08	-2.779005e+01	-7.090952e+02
4.100000e-07	-3.906354e-06	-1.071350e-08	-2.728467e+01	-7.045483e+02
4.200000e-07	-3.832633e-06	-1.063862e-08	-2.676975e+01	-6.996503e+02
4.300000e-07	-3.757255e-06	-1.055222e-08	-2.624325e+01	-6.944331e+02
4.400000e-07	-3.680162e-06	-1.048630e-08	-2.570479e+01	-6.889554e+02
4.500000e-07	-3.601556e-06	-1.042408e-08	-2.515575e+01	-6.832943e+02
4.600000e-07	-3.521527e-06	-1.034736e-08	-2.459677e+01	-6.775341e+02
4.700000e-07	-3.440104e-06	-1.026567e-08	-2.402805e+01	-6.717540e+02
4.800000e-07	-3.357423e-06	-1.016817e-08	-2.345055e+01	-6.660165e+02
4.900000e-07	-3.273634e-06	-1.008043e-08	-2.286531e+01	-6.603570e+02
5.000000e-07	-3.188844e-06	-9.984262e-09	-2.227308e+01	-6.547785e+02
5.100000e-07	-3.103183e-06	-9.890857e-09	-2.167477e+01	-6.492489e+02
5.200000e-07	-3.016569e-06	-9.800780e-09	-2.106980e+01	-6.437046e+02
5.300000e-07	-2.928967e-06	-9.710944e-09	-2.045792e+01	-6.380583e+02
5.400000e-07	-2.840385e-06	-9.615732e-09	-1.983920e+01	-6.322096e+02
5.500000e-07	-2.750807e-06	-9.508013e-09	-1.921353e+01	-6.260590e+02
5.600000e-07	-2.660151e-06	-9.398658e-09	-1.858032e+01	-6.195211e+02
5.700000e-07	-2.568375e-06	-9.288113e-09	-1.793930e+01	-6.125366e+02
5.800000e-07	-2.475676e-06	-9.179720e-09	-1.729182e+01	-6.050811e+02
5.900000e-07	-2.382188e-06	-9.067838e-09	-1.663884e+01	-5.971688e+02
6.000000e-07	-2.287881e-06	-8.951065e-09	-1.598014e+01	-5.888508e+02
6.100000e-07	-2.192779e-06	-8.829769e-09	-1.531588e+01	-5.802083e+02
6.200000e-07	-2.096923e-06	-8.702267e-09	-1.464635e+01	-5.713405e+02
6.300000e-07	-2.000302e-06	-8.569616e-09	-1.397148e+01	-5.623500e+02
6.400000e-07	-1.902983e-06	-8.436603e-09	-1.329174e+01	-5.533266e+02
6.500000e-07	-1.804950e-06	-8.302410e-09	-1.260701e+01	-5.443316e+02
6.600000e-07	-1.706073e-06	-8.165241e-09	-1.191639e+01	-5.353861e+02
6.700000e-07	-1.606382e-06	-8.022080e-09	-1.122008e+01	-5.264639e+02
6.800000e-07	-1.506102e-06	-7.870016e-09	-1.051966e+01	-5.174905e+02
6.900000e-07	-1.405354e-06	-7.711114e-09	-9.815959e+00	-5.083493e+02
7.000000e-07	-1.304191e-06	-7.546362e-09	-9.109369e+00	-4.988934e+02
7.100000e-07	-1.202705e-06	-7.379644e-09	-8.400523e+00	-4.889631e+02
7.200000e-07	-1.100797e-06	-7.209869e-09	-7.688726e+00	-4.784058e+02
7.300000e-07	-9.984325e-07	-7.038499e-09	-6.973740e+00	-4.670959e+02
7.400000e-07	-8.957502e-07	-6.863438e-09	-6.256536e+00	-4.549525e+02
7.500000e-07	-7.927909e-07	-6.676894e-09	-5.537398e+00	-4.419515e+02
7.600000e-07	-6.895126e-07	-6.475727e-09	-4.816031e+00	-4.281302e+02
7.700000e-07	-5.860198e-07	-6.264780e-09	-4.093166e+00	-4.135835e+02
7.800000e-07	-4.823642e-07	-6.050217e-09	-3.369164e+00	-3.984507e+02
7.900000e-07	-3.784786e-07	-5.832652e-09	-2.643555e+00	-3.828945e+02
8.000000e-07	-2.744483e-07	-5.607341e-09	-1.916936e+00	-3.670737e+02
8.100000e-07	-1.703393e-07	-5.369541e-09	-1.189767e+00	-3.511130e+02
8.200000e-07	-6.616317e-08	-5.124266e-09	-4.621291e-01	-3.350735e+02
8.300000e-07	3.799646e-08	-4.868808e-09	2.653934e-01	-3.189267e+02
8.400000e-07	1.421061e-07	-4.596678e-09	9.925669e-01	-3.025379e+02
8.500000e-07	2.461524e-07	-4.307010e-09	1.719298e+00	-2.856589e+02
8.600000e-07	3.500962e-07	-4.006386e-09	2.445313e+00	-2.679345e+02
8.700000e-07	4.539383e-07	-3.694154e-09	3.170618e+00	-2.489220e+02
8.800000e-07	5.576738e-07	-3.358032e-09	3.895178e+00	-2.281226e+02
8.900000e-07	6.612390e-07	-2.993178e-09	4.618549e+00	-2.050240e+02
9.000000e-07	7.646063e-07	-2.604539e-09	5.340537e+00	-1.791479e+02
9.100000e-07	8.676844e-07	-2.196076e-09	6.060506e+00	-1.501003e+02
9.200000e-07	9.704022e-07	-1.749958e-09	6.777958e+00	-1.176181e+02
9.300000e-07	1.072758e-06	-1.247190e-09	7.492881e+00	-8.160856e+01
9.400000e-07	1.174722e-06	-6.853661e-10	8.205064e+00	-4.217484e+01
9.500000e-07	1.276308e-06	-6.478035e-11	8.914614e+00	3.724104e-01
9.600000e-07	1.377477e-06	6.234000e-10	9.621248e+00	4.552172e+01
9.700000e-07	1.478256e-06	1.381055e-09	1.032516e+01	9.258448e+01
9.800000e-07	1.578622e-06	2.182887e-09	1.102618e+01	1.407344e+02
9.900000e-07	1.678424e-06	2.988649e-09	1.172327e+01	1.890591e+02
1.000000e-06	1.777574e-06	3.763341e-09	1.241580e+01	2.366203e+02
1.010000e-06	1.875986e-06	4.484211e-09	1.310318e+01	2.825156e+02
1.020000e-06	1.973518e-06	5.136505e-09	1.378441e+01	3.259381e+02
1.030000e-06	2.070204e-06	5.713619e-09	1.445973e+01	3.662272e+02
1.040000e-06	2.166190e-06	6.217456e-09	1.513016e+01	4.029067e+02
1.050000e-06	2.261503e-06	6.661244e-09	1.579589e+01	4.357069e+02
1.060000e-06	2.356059e-06	7.058871e-09	1.645634e+01	4.645697e+02
1.070000e-06	2.449805e-06	7.412055e-09	1.711113e+01	4.896355e+02
1.080000e-06	2.542786e-06	7.724515e-09	1.776057e+01	5.112151e+02
1.090000e-06	2.634939e-06	8.004878e-09	1.840423e+01	5.297498e+02
1.100000e-06	2.726150e-06	8.263620e-09	1.904131e+01	5.457625e+02
1.110000e-06	2.816213e-06	8.503488e-09	1.967037e+01	5.598075e+02
1.120000e-06	2.905103e-06	8.724322e-09	2.029124e+01	5.724210e+02
1.130000e-06	2.993052e-06	8.926262e-09	2.090553e+01	5.840792e+02
1.140000e-06	3.080031e-06	9.111855e-09	2.151306e+01	5.951668e+02
1.150000e-06	3.165941e-06	9.287075e-09	2.211311e+01	6.059570e+02
1.160000e-06	3.250856e-06	9.453449e-09	2.270622e+01	6.166062e+02
1.170000e-06	3.334780e-06	9.607151e-09	2.329240e+01	6.271612e+02
1.180000e-06	3.417517e-06	9.749870e-09	2.387029e+01	6.375767e+02
1.190000e-06	3.498900e-06	9.887844e-09	2.443873e+01	6.477420e+02
1.200000e-06	3.579000e-06	1.002148e-08	2.499820e+01	6.575102e+02
1.210000e-06	3.657846e-06	1.014684e-08	2.554892e+01	6.667298e+02
1.220000e-06	3.735399e-06	1.026244e-08	2.609060e+01	6.752713e+02
1.230000e-06	3.811603e-06	1.037141e-08	2.662286e+01	6.830491e+02
1.240000e-06	3.886246e-06	1.047327e-08	2.714422e+01	6.900339e+02
1.250000e-06	3.959279e-06	1.056790e-08	2.765433e+01	6.962571e+02
1.260000e-06	4.030913e-06	1.065574e-08	2.815467e+01	7.018056e+02
1.270000e-06	4.101196e-06	1.074258e-08	2.864558e+01	7.068100e+02
1.280000e-06	4.170095e-06	1.082920e-08	2.912681e+01	7.114261e+02
1.290000e-06	4.237536e-06	1.091186e-08	2.959787e+01	7.158157e+02
1.300000e-06	4.303321e-06	1.098801e-08	3.005736e+01	7.201257e+02
1.310000e-06	4.367511e-06	1.105869e-08	3.050571e+01	7.244716e+02
1.320000e-06	4.430247e-06	1.112770e-08	3.094389e+01	7.289252e+02
1.330000e-06	4.491549e-06	1.119429e-08	3.137207e+01	7.335089e+02
1.340000e-06	4.551453e-06	1.125717e-08	3.179048e+01	7.381964e+02
1.350000e-06	4.609661e-06	1.131823e-08	3.219704e+01	7.429204e+02
1.360000e-06	4.666039e-06	1.137959e-08	3.259083e+01	7.475849e+02
1.370000e-06	4.720721e-06	1.144001e-08	3.297277e+01	7.520804e+02
1.380000e-06	4.773634e-06	1.149429e-08	3.334235e+01	7.563008e+02
1.390000e-06	4.824576e-06	1.154066e-08	3.369816e+01	7.601581e+02
1.400000e-06	4.873512e-06	1.158389e-08	3.403997e+01	7.635948e+02
1.410000e-06	4.920684e-06	1.162865e-08	3.436945e+01	7.665908e+02
1.420000e-06	4.966270e-06	1.167408e-08	3.468785e+01	7.691654e+02
1.430000e-06	5.010188e-06	1.171455e-08	3.499460e+01	7.713734e+02
1.440000e-06	5.052179e-06	1.175094e-08	3.528790e+01	7.732967e+02
1.450000e-06	5.092322e-06	1.178921e-08	3.556828e+01	7.750324e+02
1.460000e-06	5.130797e-06	1.182690e-08	3.583702e+01	7.766793e+02
1.470000e-06	5.167648e-06	1.185767e-08	3.609441e+01	7.783244e+02
1.480000e-06	5.202672e-06	1.188283e-08	3.633905e+01	7.800319e+02
1.490000e-06	5.235708e-06	1.190863e-08	3.656979e+01	7.818352e+02
1.500000e-06	5.266923e-06	1.193573e-08	3.678782e+01	7.837338e+02
1.510000e-06	5.296440e-06	1.195894e-08	3.699399e+01	7.856948e+02
1.520000e-06	5.324158e-06	1.197844e-08	3.718758e+01	7.876587e+02
1.530000e-06	5.349824e-06	1.199806e-08	3.736686e+01	7.895493e+02
1.540000e-06	5.373459e-06	1.201820e-08	3.753194e+01	7.912848e+02
1.550000e-06	5.395286e-06	1.203617e-08	3.768439e+01	7.927899e+02
1.560000e-06	5.415373e-06	1.204902e-08	3.782469e+01	7.940070e+02
1.570000e-06	5.433531e-06	1.205933e-08	3.795152e+01	7.949038e+02
1.580000e-06	5.449676e-06	1.207074e-08	3.806429e+01	7.954780e+02
1.590000e-06	5.463903e-06	1.208078e-08	3.816366e+01	7.957571e+02
1.600000e-06	5.475976e-06	1.208698e-08	3.824799e+01	7.957944e+02
1.610000e-06	5.485807e-06	1.209433e-08	3.831666e+01	7.956616e+02
1.620000e-06	5.493699e-06	1.210449e-08	3.837178e+01	7.954380e+02
1.630000e-06	5.499764e-06	1.211055e-08	3.841414e+01	7.952002e+02
1.640000e-06	5.503942e-06	1.210889e-08	3.844332e+01	7.950110e+02
1.650000e-06	5.506114e-06	1.210779e-08	3.845849e+01	7.949113e+02
1.660000e-06	5.506330e-06	1.211105e-08	3.846000e+01	7.949146e+02
1.670000e-06	5.504785e-06	1.211156e-08	3.844921e+01	7.950057e+02
1.680000e-06	5.501544e-06	1.210748e-08	3.842657e+01	7.951435e+02
1.690000e-06	5.496397e-06	1.209754e-08	3.839062e+01	7.952671e+02
1.700000e-06	5.489372e-06	1.208968e-08	3.834155e+01	7.953046e+02
1.710000e-06	5.480664e-06	1.208522e-08	3.828073e+01	7.951838e+02
1.720000e-06	5.470238e-06	1.207884e-08	3.820791e+01	7.948426e+02
1.730000e-06	5.457866e-06	1.207223e-08	3.812149e+01	7.942378e+02
1.740000e-06	5.443469e-06	1.202149e-08	3.802093e+01	7.933508e+02
1.750000e-06	5.427034e-06	1.201042e-08	3.790614e+01	7.921912e+02
1.760000e-06	5.408071e-06	1.200549e-08	3.777369e+01	7.907944e+02
1.770000e-06	5.386412e-06	1.197399e-08	3.762241e+01	7.892171e+02
1.780000e-06	5.362728e-06	1.201613e-08	3.745698e+01	7.875292e+02
1.790000e-06	5.337939e-06	1.194799e-08	3.728384e+01	7.858035e+02
1.800000e-06	5.312285e-06	1.189167e-08	3.710465e+01	7.841057e+02
1.810000e-06	5.284793e-06	1.195898e-08	3.691264e+01	7.824843e+02
1.820000e-06	5.255092e-06	1.185989e-08	3.670518e+01	7.809639e+02
1.830000e-06	5.223777e-06	1.186516e-08	3.648645e+01	7.795411e+02
1.840000e-06	5.190628e-06	1.193270e-08	3.625492e+01	7.781847e+02
1.850000e-06	5.155631e-06	1.179810e-08	3.601048e+01	7.768393e+02
1.860000e-06	5.118919e-06	1.182331e-08	3.575406e+01	7.754327e+02
1.870000e-06	5.080166e-06	1.181918e-08	3.548338e+01	7.738858e+02
1.880000e-06	5.039677e-06	1.169367e-08	3.520058e+01	7.721228e+02
1.890000e-06	4.997568e-06	1.173302e-08	3.490646e+01	7.700820e+02
1.900000e-06	4.953622e-06	1.166380e-08	3.459950e+01	7.677240e+02
1.910000e-06	4.907945e-06	1.163047e-08	3.428047e+01	7.650373e+02
1.920000e-06	4.860394e-06	1.165421e-08	3.394834e+01	7.620399e+02
1.930000e-06	4.811038e-06	1.153215e-08	3.360360e+01	7.587768e+02
1.940000e-06	4.759884e-06	1.152841e-08	3.324631e+01	7.553140e+02
1.950000e-06	4.706668e-06	1.146407e-08	3.287461e+01	7.517292e+02
1.960000e-06	4.651598e-06	1.140948e-08	3.248996e+01	7.481014e+02
1.970000e-06	4.594850e-06	1.137605e-08	3.209360e+01	7.444993e+02
1.980000e-06	4.536521e-06	1.128912e-08	3.168619e+01	7.409722e+02
1.990000e-06	4.476587e-06	1.130377e-08	3.126757e+01	7.375424e+02
2.000000e-06	4.414950e-06	1.121412e-08	3.083705e+01	7.342019e+02
2.010000e-06	4.351722e-06	1.116837e-08	3.039543e+01	7.309136e+02
2.020000e-06	4.286935e-06	1.111364e-08	2.994290e+01	7.276153e+02
2.030000e-06	4.220723e-06	1.100991e-08	2.948044e+01	7.242287e+02
2.040000e-06	4.153038e-06	1.099354e-08	2.900768e+01	7.206697e+02
2.050000e-06	4.083663e-06	1.089406e-08	2.852311e+01	7.168601e+02
2.060000e-06	4.012759e-06	1.085152e-08	2.802788e+01	7.127384e+02
2.070000e-06	3.940509e-06	1.078607e-08	2.752323e+01	7.082682e+02
2.080000e-06	3.866940e-06	1.071369e-08	2.700937e+01	7.034439e+02
2.090000e-06	3.791769e-06	1.066350e-08	2.648432e+01	6.982912e+02
2.100000e-06	3.714895e-06	1.055315e-08	2.594739e+01	6.928635e+02
2.110000e-06	3.636498e-06	1.049275e-08	2.539981e+01	6.872349e+02
2.120000e-06	3.556802e-06	1.039979e-08	2.484315e+01	6.814890e+02
2.130000e-06	3.476032e-06	1.033548e-08	2.427900e+01	6.757074e+02
2.140000e-06	3.394119e-06	1.025127e-08	2.370686e+01	6.699569e+02
2.150000e-06	3.310989e-06	1.015810e-08	2.312623e+01	6.642795e+02
2.160000e-06	3.226641e-06	1.008774e-08	2.253708e+01	6.586854e+02
2.170000e-06	3.141049e-06	9.983658e-09	2.193925e+01	6.531498e+02
2.180000e-06	3.054252e-06	9.897490e-09	2.133300e+01	6.476156e+02
2.190000e-06	2.966433e-06	9.786351e-09	2.071961e+01	6.419995e+02
2.200000e-06	2.877640e-06	9.693215e-09	2.009942e+01	6.362030e+02
2.210000e-06	2.787872e-06	9.599889e-09	1.947242e+01	6.301252e+02
2.220000e-06	2.697214e-06	9.499569e-09	1.883920e+01	6.236765e+02
2.230000e-06	2.605643e-06	9.395416e-09	1.819961e+01	6.167912e+02
2.240000e-06	2.513202e-06	9.275970e-09	1.755393e+01	6.094370e+02
2.250000e-06	2.419844e-06	9.168591e-09	1.690186e+01	6.016196e+02
2.260000e-06	2.325417e-06	9.052159e-09	1.624232e+01	5.933828e+02
2.270000e-06	2.230085e-06	8.941542e-09	1.557645e+01	5.848020e+02
2.280000e-06	2.134101e-06	8.823963e-09	1.490603e+01	5.759739e+02
2.290000e-06	2.037428e-06	8.700377e-09	1.423080e+01	5.670017e+02
2.300000e-06	1.940040e-06	8.569313e-09	1.355057e+01	5.579792e+02
2.310000e-06	1.842126e-06	8.429996e-09	1.286668e+01	5.489750e+02
2.320000e-06	1.743632e-06	8.288346e-09	1.217873e+01	5.400196e+02
2.330000e-06	1.644478e-06	8.144083e-09	1.148617e+01	5.310973e+02
2.340000e-06	1.544822e-06	8.005680e-09	1.079010e+01	5.221436e+02
2.350000e-06	1.444707e-06	7.862220e-09	1.009083e+01	5.130501e+02
2.360000e-06	1.344055e-06	7.710265e-09	9.387806e+00	5.036751e+02
2.370000e-06	1.242810e-06	7.544628e-09	8.680643e+00	4.938601e+02
2.380000e-06	1.141011e-06	7.370917e-09	7.969606e+00	4.834491e+02
2.390000e-06	1.038665e-06	7.193667e-09	7.254755e+00	4.723092e+02
2.400000e-06	9.358043e-07	7.013985e-09	6.536302e+00	4.603487e+02
2.410000e-06	8.325826e-07	6.830193e-09	5.815330e+00	4.475306e+02
2.420000e-06	7.291163e-07	6.638523e-09	5.092650e+00	4.338791e+02
2.430000e-06	6.254534e-07	6.437834e-09	4.368597e+00	4.194776e+02
2.440000e-06	5.215971e-07	6.226437e-09	3.643193e+00	4.044573e+02
2.450000e-06	4.175649e-07	6.006055e-09	2.916561e+00	3.889781e+02
2.460000e-06	3.134032e-07	5.777190e-09	2.189024e+00	3.732020e+02
2.470000e-06	2.092004e-07	5.541373e-09	1.461200e+00	3.572638e+02
2.480000e-06	1.049954e-07	5.298091e-09	7.333598e-01	3.412403e+02
2.490000e-06	7.202723e-10	5.042931e-09	5.030878e-03	3.251243e+02
2.500000e-06	-1.036061e-07	4.773238e-09	-7.236560e-01	3.088046e+02
2.510000e-06	-2.078737e-07	4.489255e-09	-1.451933e+00	2.920572e+02
2.520000e-06	-3.120406e-07	4.191519e-09	-2.179506e+00	2.745489e+02
2.530000e-06	-4.161271e-07	3.879976e-09	-2.906518e+00	2.558532e+02
2.540000e-06	-5.200466e-07	3.551873e-09	-3.632364e+00	2.354803e+02
2.550000e-06	-6.237726e-07	3.203514e-09	-4.356858e+00	2.129168e+02
2.560000e-06	-7.273036e-07	2.828678e-09	-5.079989e+00	1.876728e+02
2.570000e-06	-8.305648e-07	2.421688e-09	-5.801237e+00	1.593322e+02
2.580000e-06	-9.335283e-07	1.977470e-09	-6.520405e+00	1.276004e+02
2.590000e-06	-1.036111e-06	1.490652e-09	-7.236915e+00	9.234515e+01
2.600000e-06	-1.138152e-06	9.507737e-10	-7.949639e+00	5.362630e+01
2.610000e-06	-1.239652e-06	3.504608e-10	-8.658583e+00	1.170997e+01
2.620000e-06	-1.340720e-06	-3.146184e-10	-9.364511e+00	-3.293400e+01
2.630000e-06	-1.441259e-06	-1.048440e-09	-1.006675e+01	-7.965214e+01
2.640000e-06	-1.541138e-06	-1.838416e-09	-1.076437e+01	-1.276436e+02
2.650000e-06	-1.640447e-06	-2.650189e-09	-1.145801e+01	-1.760098e+02
2.660000e-06	-1.739218e-06	-3.443803e-09	-1.214789e+01	-2.238125e+02
2.670000e-06	-1.837403e-06	-4.191071e-09	-1.283369e+01	-2.701366e+02
2.680000e-06	-1.935021e-06	-4.875412e-09	-1.351552e+01	-3.141501e+02
2.690000e-06	-2.031972e-06	-5.485574e-09	-1.419269e+01	-3.551573e+02
2.700000e-06	-2.128219e-06	-6.018528e-09	-1.486494e+01	-3.926400e+02
2.710000e-06	-2.223825e-06	-6.484011e-09	-1.553273e+01	-4.262833e+02
2.720000e-06	-2.318782e-06	-6.896480e-09	-1.619597e+01	-4.559843e+02
2.730000e-06	-2.412992e-06	-7.264646e-09	-1.685400e+01	-4.818426e+02
2.740000e-06	-2.506272e-06	-7.592644e-09	-1.750553e+01	-5.041357e+02
2.750000e-06	-2.598428e-06	-7.888535e-09	-1.814921e+01	-5.232807e+02
2.760000e-06	-2.689518e-06	-8.158663e-09	-1.878545e+01	-5.397873e+02
2.770000e-06	-2.779713e-06	-8.405839e-09	-1.941543e+01	-5.542072e+02
2.780000e-06	-2.868919e-06	-8.635079e-09	-2.003851e+01	-5.670846e+02
2.790000e-06	-2.957095e-06	-8.848892e-09	-2.065439e+01	-5.789115e+02
2.800000e-06	-3.044350e-06	-9.044809e-09	-2.126384e+01	-5.900941e+02
2.810000e-06	-3.130629e-06	-9.225064e-09	-2.186647e+01	-6.009307e+02
2.820000e-06	-3.215692e-06	-9.394105e-09	-2.246061e+01	-6.116025e+02
2.830000e-06	-3.299415e-06	-9.551472e-09	-2.304539e+01	-6.221785e+02
2.840000e-06	-3.381987e-06	-9.699447e-09	-2.362213e+01	-6.326313e+02
2.850000e-06	-3.463476e-06	-9.840744e-09	-2.419130e+01	-6.428616e+02
2.860000e-06	-3.543785e-06	-9.971899e-09	-2.475224e+01	-6.527277e+02
2.870000e-06	-3.622893e-06	-1.009286e-08	-2.530478e+01	-6.620767e+02
2.880000e-06	-3.700640e-06	-1.021087e-08	-2.584782e+01	-6.707723e+02
2.890000e-06	-3.776814e-06	-1.032873e-08	-2.637987e+01	-6.787181e+02
2.900000e-06	-3.851465e-06	-1.044091e-08	-2.690128e+01	-6.858720e+02
2.910000e-06	-3.924717e-06	-1.054142e-08	-2.741293e+01	-6.922526e+02
2.920000e-06	-3.996597e-06	-1.063210e-08	-2.791499e+01	-6.979358e+02
2.930000e-06	-4.067106e-06	-1.072040e-08	-2.840747e+01	-7.030440e+02
2.940000e-06	-4.136049e-06	-1.080663e-08	-2.888902e+01	-7.077294e+02
