# Temperatura_=_39.69
# Concentracion g/m^3_=_15500.0
# C_Vs_to_Am_M_A/Vsm_=_65563218390.804596
# pendiente_HvsI_1/m_=_3716.3
# ordenada_HvsI_A/m_=_1297.0
# frecuencia_Hz_=_300812.8007174987

Tiempo_(s)	Campo_(V.s)	Magnetizacion_(V.s)	Campo_(kA/m)	Magnetizacion_(A/m)
0.000000e+00	-5.471560e-06	-1.211737e-08	-3.830803e+01	-7.917707e+02
1.000000e-08	-5.469933e-06	-1.211649e-08	-3.829664e+01	-7.918754e+02
2.000000e-08	-5.466306e-06	-1.211461e-08	-3.827125e+01	-7.920234e+02
3.000000e-08	-5.460903e-06	-1.211060e-08	-3.823342e+01	-7.921520e+02
4.000000e-08	-5.453914e-06	-1.210250e-08	-3.818449e+01	-7.921889e+02
5.000000e-08	-5.445304e-06	-1.208868e-08	-3.812421e+01	-7.920628e+02
6.000000e-08	-5.434743e-06	-1.207159e-08	-3.805026e+01	-7.917134e+02
7.000000e-08	-5.422088e-06	-1.205137e-08	-3.796167e+01	-7.911003e+02
8.000000e-08	-5.407433e-06	-1.204529e-08	-3.785906e+01	-7.902089e+02
9.000000e-08	-5.390440e-06	-1.207382e-08	-3.774009e+01	-7.890520e+02
1.000000e-07	-5.371112e-06	-1.206376e-08	-3.760477e+01	-7.876687e+02
1.100000e-07	-5.349843e-06	-1.202359e-08	-3.745586e+01	-7.861181e+02
1.200000e-07	-5.326777e-06	-1.199610e-08	-3.729437e+01	-7.844712e+02
1.300000e-07	-5.302241e-06	-1.191595e-08	-3.712258e+01	-7.828009e+02
1.400000e-07	-5.276290e-06	-1.192487e-08	-3.694089e+01	-7.811712e+02
1.500000e-07	-5.248508e-06	-1.197548e-08	-3.674638e+01	-7.796279e+02
1.600000e-07	-5.218952e-06	-1.185474e-08	-3.653945e+01	-7.781920e+02
1.700000e-07	-5.187846e-06	-1.188061e-08	-3.632167e+01	-7.768558e+02
1.800000e-07	-5.154851e-06	-1.192012e-08	-3.609066e+01	-7.755840e+02
1.900000e-07	-5.119804e-06	-1.178908e-08	-3.584528e+01	-7.743175e+02
2.000000e-07	-5.083138e-06	-1.180554e-08	-3.558858e+01	-7.729815e+02
2.100000e-07	-5.044828e-06	-1.176855e-08	-3.532035e+01	-7.714954e+02
2.200000e-07	-5.004737e-06	-1.167740e-08	-3.503967e+01	-7.697835e+02
2.300000e-07	-4.962829e-06	-1.172013e-08	-3.474626e+01	-7.677852e+02
2.400000e-07	-4.918902e-06	-1.168507e-08	-3.443871e+01	-7.654636e+02
2.500000e-07	-4.873157e-06	-1.162095e-08	-3.411844e+01	-7.628099e+02
2.600000e-07	-4.825646e-06	-1.158959e-08	-3.378580e+01	-7.598453e+02
2.700000e-07	-4.776206e-06	-1.150819e-08	-3.343966e+01	-7.566174e+02
2.800000e-07	-4.724738e-06	-1.147201e-08	-3.307931e+01	-7.531940e+02
2.900000e-07	-4.671293e-06	-1.145322e-08	-3.270513e+01	-7.496536e+02
3.000000e-07	-4.616100e-06	-1.141134e-08	-3.231871e+01	-7.460743e+02
3.100000e-07	-4.559239e-06	-1.135442e-08	-3.192060e+01	-7.425228e+02
3.200000e-07	-4.500589e-06	-1.132177e-08	-3.150998e+01	-7.390449e+02
3.300000e-07	-4.440264e-06	-1.126728e-08	-3.108762e+01	-7.356588e+02
3.400000e-07	-4.378480e-06	-1.116273e-08	-3.065505e+01	-7.323523e+02
3.500000e-07	-4.315245e-06	-1.111742e-08	-3.021233e+01	-7.290839e+02
3.600000e-07	-4.250561e-06	-1.106368e-08	-2.975945e+01	-7.257882e+02
3.700000e-07	-4.184286e-06	-1.100347e-08	-2.929544e+01	-7.223848e+02
3.800000e-07	-4.116256e-06	-1.096722e-08	-2.881914e+01	-7.187892e+02
3.900000e-07	-4.046699e-06	-1.089160e-08	-2.833215e+01	-7.149244e+02
4.000000e-07	-3.975907e-06	-1.082033e-08	-2.783652e+01	-7.107316e+02
4.100000e-07	-3.903887e-06	-1.075153e-08	-2.733228e+01	-7.061787e+02
4.200000e-07	-3.830508e-06	-1.067205e-08	-2.681853e+01	-7.012648e+02
4.300000e-07	-3.755487e-06	-1.058746e-08	-2.629330e+01	-6.960207e+02
4.400000e-07	-3.678766e-06	-1.051117e-08	-2.575614e+01	-6.905046e+02
4.500000e-07	-3.600542e-06	-1.044636e-08	-2.520847e+01	-6.847940e+02
4.600000e-07	-3.520804e-06	-1.037278e-08	-2.465021e+01	-6.789751e+02
4.700000e-07	-3.439604e-06	-1.029485e-08	-2.408170e+01	-6.731297e+02
4.800000e-07	-3.357194e-06	-1.020120e-08	-2.350472e+01	-6.673236e+02
4.900000e-07	-3.273649e-06	-1.010826e-08	-2.291980e+01	-6.615963e+02
5.000000e-07	-3.189059e-06	-1.002069e-08	-2.232756e+01	-6.559542e+02
5.100000e-07	-3.103558e-06	-9.921481e-09	-2.172894e+01	-6.503683e+02
5.200000e-07	-3.017159e-06	-9.823136e-09	-2.112404e+01	-6.447774e+02
5.300000e-07	-2.929779e-06	-9.727220e-09	-2.051226e+01	-6.390948e+02
5.400000e-07	-2.841440e-06	-9.629553e-09	-1.989377e+01	-6.332199e+02
5.500000e-07	-2.752283e-06	-9.528763e-09	-1.926956e+01	-6.270513e+02
5.600000e-07	-2.662074e-06	-9.419637e-09	-1.863798e+01	-6.205006e+02
5.700000e-07	-2.570529e-06	-9.307115e-09	-1.799705e+01	-6.135053e+02
5.800000e-07	-2.477972e-06	-9.194359e-09	-1.734903e+01	-6.060370e+02
5.900000e-07	-2.384722e-06	-9.085141e-09	-1.669616e+01	-5.981068e+02
6.000000e-07	-2.290672e-06	-8.968491e-09	-1.603768e+01	-5.897634e+02
6.100000e-07	-2.195816e-06	-8.843234e-09	-1.537357e+01	-5.810870e+02
6.200000e-07	-2.100238e-06	-8.714760e-09	-1.470439e+01	-5.721776e+02
6.300000e-07	-2.003956e-06	-8.584529e-09	-1.403030e+01	-5.631401e+02
6.400000e-07	-1.907002e-06	-8.454723e-09	-1.335150e+01	-5.540681e+02
6.500000e-07	-1.809272e-06	-8.315117e-09	-1.266726e+01	-5.450279e+02
6.600000e-07	-1.710701e-06	-8.171645e-09	-1.197713e+01	-5.360462e+02
6.700000e-07	-1.611379e-06	-8.029755e-09	-1.128175e+01	-5.271021e+02
6.800000e-07	-1.511384e-06	-7.886924e-09	-1.058165e+01	-5.181258e+02
6.900000e-07	-1.410871e-06	-7.733293e-09	-9.877932e+00	-5.090036e+02
7.000000e-07	-1.309992e-06	-7.567931e-09	-9.171646e+00	-4.995898e+02
7.100000e-07	-1.208773e-06	-7.398270e-09	-8.462980e+00	-4.897237e+02
7.200000e-07	-1.107127e-06	-7.226049e-09	-7.751329e+00	-4.792494e+02
7.300000e-07	-1.005076e-06	-7.052956e-09	-7.036837e+00	-4.680360e+02
7.400000e-07	-9.026827e-07	-6.876097e-09	-6.319953e+00	-4.559961e+02
7.500000e-07	-7.999758e-07	-6.691476e-09	-5.600871e+00	-4.430987e+02
7.600000e-07	-6.969649e-07	-6.496097e-09	-4.879661e+00	-4.293746e+02
7.700000e-07	-5.936758e-07	-6.291443e-09	-4.156502e+00	-4.149132e+02
7.800000e-07	-4.902015e-07	-6.078221e-09	-3.432048e+00	-3.998509e+02
7.900000e-07	-3.865500e-07	-5.858056e-09	-2.706353e+00	-3.843497e+02
8.000000e-07	-2.827797e-07	-5.630961e-09	-1.979826e+00	-3.685713e+02
8.100000e-07	-1.789412e-07	-5.395588e-09	-1.252821e+00	-3.526460e+02
8.200000e-07	-7.499046e-08	-5.152871e-09	-5.250308e-01	-3.366430e+02
8.300000e-07	2.897457e-08	-4.897783e-09	2.028597e-01	-3.205440e+02
8.400000e-07	1.328990e-07	-4.625921e-09	9.304656e-01	-3.042248e+02
8.500000e-07	2.367781e-07	-4.340177e-09	1.657755e+00	-2.874474e+02
8.600000e-07	3.405412e-07	-4.043620e-09	2.384232e+00	-2.698651e+02
8.700000e-07	4.441894e-07	-3.730009e-09	3.109903e+00	-2.510402e+02
8.800000e-07	5.477184e-07	-3.394772e-09	3.834741e+00	-2.304756e+02
8.900000e-07	6.510960e-07	-3.037848e-09	4.558519e+00	-2.076555e+02
9.000000e-07	7.542865e-07	-2.658517e-09	5.280986e+00	-1.820938e+02
9.100000e-07	8.571852e-07	-2.251233e-09	6.001411e+00	-1.533841e+02
9.200000e-07	9.597445e-07	-1.803085e-09	6.719460e+00	-1.212474e+02
9.300000e-07	1.061957e-06	-1.304693e-09	7.435078e+00	-8.557252e+01
9.400000e-07	1.163794e-06	-7.520686e-10	8.148075e+00	-4.644332e+01
9.500000e-07	1.265245e-06	-1.388332e-10	8.858357e+00	-4.151815e+00
9.600000e-07	1.366301e-06	5.450303e-10	9.565881e+00	4.080685e+01
9.700000e-07	1.466978e-06	1.296773e-09	1.027075e+01	8.775668e+01
9.800000e-07	1.567110e-06	2.092543e-09	1.097180e+01	1.358790e+02
9.900000e-07	1.666626e-06	2.898201e-09	1.166855e+01	1.842639e+02
1.000000e-06	1.765481e-06	3.682272e-09	1.236066e+01	2.319693e+02
1.010000e-06	1.863536e-06	4.415432e-09	1.304717e+01	2.780840e+02
1.020000e-06	1.960803e-06	5.075182e-09	1.372817e+01	3.217876e+02
1.030000e-06	2.057311e-06	5.655702e-09	1.440385e+01	3.624027e+02
1.040000e-06	2.153085e-06	6.165604e-09	1.507439e+01	3.994346e+02
1.050000e-06	2.248194e-06	6.618067e-09	1.574028e+01	4.325949e+02
1.060000e-06	2.342585e-06	7.019359e-09	1.640114e+01	4.618079e+02
1.070000e-06	2.436205e-06	7.371489e-09	1.705660e+01	4.871994e+02
1.080000e-06	2.529087e-06	7.683888e-09	1.770690e+01	5.090694e+02
1.090000e-06	2.621123e-06	7.968939e-09	1.835127e+01	5.278524e+02
1.100000e-06	2.712099e-06	8.232177e-09	1.898822e+01	5.440695e+02
1.110000e-06	2.801920e-06	8.473544e-09	1.961708e+01	5.582770e+02
1.120000e-06	2.890667e-06	8.695109e-09	2.023843e+01	5.710170e+02
1.130000e-06	2.978472e-06	8.901302e-09	2.085318e+01	5.827739e+02
1.140000e-06	3.065317e-06	9.092944e-09	2.146120e+01	5.939417e+02
1.150000e-06	3.151111e-06	9.269638e-09	2.206187e+01	6.048034e+02
1.160000e-06	3.235915e-06	9.431852e-09	2.265561e+01	6.155240e+02
1.170000e-06	3.319709e-06	9.582303e-09	2.324228e+01	6.261565e+02
1.180000e-06	3.402316e-06	9.729383e-09	2.382064e+01	6.366600e+02
1.190000e-06	3.483622e-06	9.874123e-09	2.438989e+01	6.469245e+02
1.200000e-06	3.563639e-06	1.000956e-08	2.495011e+01	6.568020e+02
1.210000e-06	3.642373e-06	1.013483e-08	2.550134e+01	6.661368e+02
1.220000e-06	3.719851e-06	1.025397e-08	2.604379e+01	6.747942e+02
1.230000e-06	3.795962e-06	1.036713e-08	2.657667e+01	6.826823e+02
1.240000e-06	3.870475e-06	1.047004e-08	2.709836e+01	6.897658e+02
1.250000e-06	3.943409e-06	1.056251e-08	2.760899e+01	6.960711e+02
1.260000e-06	4.014955e-06	1.064940e-08	2.810991e+01	7.016816e+02
1.270000e-06	4.085164e-06	1.073733e-08	2.860146e+01	7.067264e+02
1.280000e-06	4.153996e-06	1.082515e-08	2.908337e+01	7.113619e+02
1.290000e-06	4.221369e-06	1.090731e-08	2.955507e+01	7.157525e+02
1.300000e-06	4.287079e-06	1.098304e-08	3.001513e+01	7.200494e+02
1.310000e-06	4.351202e-06	1.105579e-08	3.046407e+01	7.243731e+02
1.320000e-06	4.413921e-06	1.112753e-08	3.090319e+01	7.288010e+02
1.330000e-06	4.475305e-06	1.119577e-08	3.133296e+01	7.333603e+02
1.340000e-06	4.535296e-06	1.125900e-08	3.175297e+01	7.380289e+02
1.350000e-06	4.593527e-06	1.131928e-08	3.216066e+01	7.427421e+02
1.360000e-06	4.649898e-06	1.137900e-08	3.255534e+01	7.474047e+02
1.370000e-06	4.704625e-06	1.143768e-08	3.293849e+01	7.519063e+02
1.380000e-06	4.757643e-06	1.149292e-08	3.330969e+01	7.561383e+02
1.390000e-06	4.808660e-06	1.154153e-08	3.366687e+01	7.600096e+02
1.400000e-06	4.857659e-06	1.158564e-08	3.400993e+01	7.634584e+02
1.410000e-06	4.904915e-06	1.163054e-08	3.434079e+01	7.664609e+02
1.420000e-06	4.950572e-06	1.167677e-08	3.466044e+01	7.690329e+02
1.430000e-06	4.994539e-06	1.171822e-08	3.496827e+01	7.712271e+02
1.440000e-06	5.036562e-06	1.175242e-08	3.526248e+01	7.731244e+02
1.450000e-06	5.076788e-06	1.178714e-08	3.554412e+01	7.748228e+02
1.460000e-06	5.115380e-06	1.182585e-08	3.581431e+01	7.764231e+02
1.470000e-06	5.152287e-06	1.186040e-08	3.607271e+01	7.780158e+02
1.480000e-06	5.187368e-06	1.188579e-08	3.631832e+01	7.796691e+02
1.490000e-06	5.220468e-06	1.190875e-08	3.655007e+01	7.814207e+02
1.500000e-06	5.251735e-06	1.193422e-08	3.676897e+01	7.832742e+02
1.510000e-06	5.281308e-06	1.195950e-08	3.697603e+01	7.851999e+02
1.520000e-06	5.309125e-06	1.197991e-08	3.717078e+01	7.871405e+02
1.530000e-06	5.334865e-06	1.199728e-08	3.735099e+01	7.890203e+02
1.540000e-06	5.358588e-06	1.201636e-08	3.751709e+01	7.907569e+02
1.550000e-06	5.380543e-06	1.203579e-08	3.767080e+01	7.922731e+02
1.560000e-06	5.400788e-06	1.205106e-08	3.781254e+01	7.935084e+02
1.570000e-06	5.419143e-06	1.206104e-08	3.794105e+01	7.944269e+02
1.580000e-06	5.435426e-06	1.206991e-08	3.805505e+01	7.950229e+02
1.590000e-06	5.449761e-06	1.207778e-08	3.815542e+01	7.953207e+02
1.600000e-06	5.462034e-06	1.208335e-08	3.824134e+01	7.953714e+02
1.610000e-06	5.472049e-06	1.208857e-08	3.831146e+01	7.952452e+02
1.620000e-06	5.480036e-06	1.209640e-08	3.836738e+01	7.950216e+02
1.630000e-06	5.486222e-06	1.210531e-08	3.841069e+01	7.947781e+02
1.640000e-06	5.490579e-06	1.210958e-08	3.844119e+01	7.945798e+02
1.650000e-06	5.492921e-06	1.210925e-08	3.845759e+01	7.944703e+02
1.660000e-06	5.493265e-06	1.210750e-08	3.846000e+01	7.944662e+02
1.670000e-06	5.491874e-06	1.210409e-08	3.845026e+01	7.945554e+02
1.680000e-06	5.488858e-06	1.210170e-08	3.842915e+01	7.946990e+02
1.690000e-06	5.483968e-06	1.209604e-08	3.839490e+01	7.948379e+02
1.700000e-06	5.477143e-06	1.208706e-08	3.834712e+01	7.949008e+02
1.710000e-06	5.468637e-06	1.207917e-08	3.828757e+01	7.948154e+02
1.720000e-06	5.458423e-06	1.207496e-08	3.821606e+01	7.945182e+02
1.730000e-06	5.446250e-06	1.208044e-08	3.813083e+01	7.939639e+02
1.740000e-06	5.432074e-06	1.205443e-08	3.803158e+01	7.931322e+02
1.750000e-06	5.415957e-06	1.200233e-08	3.791874e+01	7.920299e+02
1.760000e-06	5.397367e-06	1.199211e-08	3.778859e+01	7.906909e+02
1.770000e-06	5.375959e-06	1.198041e-08	3.763871e+01	7.891706e+02
1.780000e-06	5.352418e-06	1.201029e-08	3.747389e+01	7.875382e+02
1.790000e-06	5.327736e-06	1.201707e-08	3.730108e+01	7.858673e+02
1.800000e-06	5.302272e-06	1.190270e-08	3.712280e+01	7.842245e+02
1.810000e-06	5.275067e-06	1.194454e-08	3.693233e+01	7.826602e+02
1.820000e-06	5.245494e-06	1.195675e-08	3.672528e+01	7.812011e+02
1.830000e-06	5.214307e-06	1.183437e-08	3.650693e+01	7.798458e+02
1.840000e-06	5.181414e-06	1.189335e-08	3.627663e+01	7.785646e+02
1.850000e-06	5.146676e-06	1.187528e-08	3.603343e+01	7.773030e+02
1.860000e-06	5.110291e-06	1.179133e-08	3.577868e+01	7.759888e+02
1.870000e-06	5.071805e-06	1.184947e-08	3.550923e+01	7.745418e+02
1.880000e-06	5.031518e-06	1.176374e-08	3.522717e+01	7.728841e+02
1.890000e-06	4.989751e-06	1.168981e-08	3.493475e+01	7.709514e+02
1.900000e-06	4.946129e-06	1.169715e-08	3.462934e+01	7.687010e+02
1.910000e-06	4.900719e-06	1.161888e-08	3.431141e+01	7.661179e+02
1.920000e-06	4.853424e-06	1.164424e-08	3.398028e+01	7.632169e+02
1.930000e-06	4.804327e-06	1.161367e-08	3.363654e+01	7.600404e+02
1.940000e-06	4.753551e-06	1.152271e-08	3.328104e+01	7.566527e+02
1.950000e-06	4.700609e-06	1.148883e-08	3.291037e+01	7.531308e+02
1.960000e-06	4.645744e-06	1.142974e-08	3.252625e+01	7.495538e+02
1.970000e-06	4.589272e-06	1.138310e-08	3.213087e+01	7.459918e+02
1.980000e-06	4.531211e-06	1.131124e-08	3.172437e+01	7.424958e+02
1.990000e-06	4.471645e-06	1.130385e-08	3.130733e+01	7.390902e+02
2.000000e-06	4.410372e-06	1.127036e-08	3.087834e+01	7.357693e+02
2.010000e-06	4.347467e-06	1.117440e-08	3.043792e+01	7.324977e+02
2.020000e-06	4.283022e-06	1.114060e-08	2.998672e+01	7.292144e+02
2.030000e-06	4.217104e-06	1.103977e-08	2.952521e+01	7.258415e+02
2.040000e-06	4.149775e-06	1.098284e-08	2.905382e+01	7.222941e+02
2.050000e-06	4.080698e-06	1.093596e-08	2.857019e+01	7.184929e+02
2.060000e-06	4.010005e-06	1.085566e-08	2.807525e+01	7.143743e+02
2.070000e-06	3.938001e-06	1.081523e-08	2.757112e+01	7.098999e+02
2.080000e-06	3.864699e-06	1.073066e-08	2.705792e+01	7.050620e+02
2.090000e-06	3.789938e-06	1.067191e-08	2.653449e+01	6.998848e+02
2.100000e-06	3.713479e-06	1.058505e-08	2.599918e+01	6.944211e+02
2.110000e-06	3.635460e-06	1.049657e-08	2.545295e+01	6.887452e+02
2.120000e-06	3.556130e-06	1.042399e-08	2.489753e+01	6.829424e+02
2.130000e-06	3.475616e-06	1.034025e-08	2.433383e+01	6.770966e+02
2.140000e-06	3.393973e-06	1.027821e-08	2.376223e+01	6.712779e+02
2.150000e-06	3.311231e-06	1.017726e-08	2.318293e+01	6.655322e+02
2.160000e-06	3.227297e-06	1.009863e-08	2.259528e+01	6.598732e+02
2.170000e-06	3.142024e-06	1.000983e-08	2.199826e+01	6.542796e+02
2.180000e-06	3.055521e-06	9.907879e-09	2.139262e+01	6.486966e+02
2.190000e-06	2.968010e-06	9.812756e-09	2.077993e+01	6.430420e+02
2.200000e-06	2.879550e-06	9.700982e-09	2.016059e+01	6.372172e+02
2.210000e-06	2.790131e-06	9.611949e-09	1.953454e+01	6.311197e+02
2.220000e-06	2.699772e-06	9.512725e-09	1.890192e+01	6.246574e+02
2.230000e-06	2.608555e-06	9.409505e-09	1.826328e+01	6.177612e+02
2.240000e-06	2.516515e-06	9.296450e-09	1.761888e+01	6.103949e+02
2.250000e-06	2.423441e-06	9.180345e-09	1.696724e+01	6.025609e+02
2.260000e-06	2.329217e-06	9.074378e-09	1.630755e+01	5.943004e+02
2.270000e-06	2.234171e-06	8.957734e-09	1.564210e+01	5.856876e+02
2.280000e-06	2.138429e-06	8.838695e-09	1.497178e+01	5.768194e+02
2.290000e-06	2.041955e-06	8.710528e-09	1.429634e+01	5.678010e+02
2.300000e-06	1.944807e-06	8.580765e-09	1.361618e+01	5.587298e+02
2.310000e-06	1.847042e-06	8.449382e-09	1.293170e+01	5.496792e+02
2.320000e-06	1.748678e-06	8.307948e-09	1.224302e+01	5.406852e+02
2.330000e-06	1.649812e-06	8.161458e-09	1.155083e+01	5.317375e+02
2.340000e-06	1.550546e-06	8.014759e-09	1.085584e+01	5.227765e+02
2.350000e-06	1.450801e-06	7.867997e-09	1.015749e+01	5.136971e+02
2.360000e-06	1.350483e-06	7.716121e-09	9.455136e+00	5.043593e+02
2.370000e-06	1.249514e-06	7.554066e-09	8.748222e+00	4.946039e+02
2.380000e-06	1.147881e-06	7.385298e-09	8.036661e+00	4.842722e+02
2.390000e-06	1.045677e-06	7.211948e-09	7.321097e+00	4.732264e+02
2.400000e-06	9.430595e-07	7.029904e-09	6.602643e+00	4.613685e+02
2.410000e-06	8.401392e-07	6.842824e-09	5.882067e+00	4.486546e+02
2.420000e-06	7.369556e-07	6.650512e-09	5.159648e+00	4.351021e+02
2.430000e-06	6.335775e-07	6.454052e-09	4.435867e+00	4.207888e+02
2.440000e-06	5.300440e-07	6.248930e-09	3.710997e+00	4.058422e+02
2.450000e-06	4.263086e-07	6.031404e-09	2.984715e+00	3.904212e+02
2.460000e-06	3.224012e-07	5.803044e-09	2.257228e+00	3.746899e+02
2.470000e-06	2.183717e-07	5.564906e-09	1.528886e+00	3.587878e+02
2.480000e-06	1.142930e-07	5.319955e-09	8.001994e-01	3.427999e+02
2.490000e-06	1.017760e-08	5.065663e-09	7.125641e-02	3.267282e+02
2.500000e-06	-9.392675e-08	4.799826e-09	-6.576094e-01	3.104725e+02
2.510000e-06	-1.979485e-07	4.520218e-09	-1.385897e+00	2.938192e+02
2.520000e-06	-3.019068e-07	4.225381e-09	-2.113740e+00	2.764437e+02
2.530000e-06	-4.057850e-07	3.914848e-09	-2.841023e+00	2.579256e+02
2.540000e-06	-5.095164e-07	3.584589e-09	-3.567277e+00	2.377775e+02
2.550000e-06	-6.130729e-07	3.233864e-09	-4.292307e+00	2.154836e+02
2.560000e-06	-7.163995e-07	2.863490e-09	-5.015728e+00	1.905472e+02
2.570000e-06	-8.194839e-07	2.466314e-09	-5.737453e+00	1.625408e+02
2.580000e-06	-9.223168e-07	2.033699e-09	-6.457417e+00	1.311542e+02
2.590000e-06	-1.024740e-06	1.554804e-09	-7.174512e+00	9.623755e+01
2.600000e-06	-1.126666e-06	1.017862e-09	-7.888129e+00	5.783128e+01
2.610000e-06	-1.228096e-06	4.185713e-10	-8.598268e+00	1.618260e+01
2.620000e-06	-1.328908e-06	-2.449244e-10	-9.304081e+00	-2.825559e+01
2.630000e-06	-1.429087e-06	-9.733227e-10	-1.000546e+01	-7.484332e+01
2.640000e-06	-1.528712e-06	-1.757733e-09	-1.070297e+01	-1.227886e+02
2.650000e-06	-1.627855e-06	-2.568641e-09	-1.139710e+01	-1.711962e+02
2.660000e-06	-1.726516e-06	-3.366348e-09	-1.208786e+01	-2.191257e+02
2.670000e-06	-1.824578e-06	-4.118343e-09	-1.277442e+01	-2.656541e+02
2.680000e-06	-1.922024e-06	-4.806837e-09	-1.345667e+01	-3.099368e+02
2.690000e-06	-2.018828e-06	-5.425093e-09	-1.413442e+01	-3.512620e+02
2.700000e-06	-2.114964e-06	-5.969766e-09	-1.480750e+01	-3.890930e+02
2.710000e-06	-2.210484e-06	-6.444109e-09	-1.547626e+01	-4.230963e+02
2.720000e-06	-2.305384e-06	-6.858707e-09	-1.614069e+01	-4.531510e+02
2.730000e-06	-2.399493e-06	-7.226442e-09	-1.679957e+01	-4.793414e+02
2.740000e-06	-2.492616e-06	-7.556845e-09	-1.745155e+01	-5.019331e+02
2.750000e-06	-2.584637e-06	-7.856352e-09	-1.809582e+01	-5.213358e+02
2.760000e-06	-2.675620e-06	-8.128514e-09	-1.873282e+01	-5.380561e+02
2.770000e-06	-2.765626e-06	-8.376631e-09	-1.936298e+01	-5.526472e+02
2.780000e-06	-2.854628e-06	-8.607987e-09	-1.998611e+01	-5.656582e+02
2.790000e-06	-2.942682e-06	-8.825639e-09	-2.060260e+01	-5.775889e+02
2.800000e-06	-3.029884e-06	-9.025165e-09	-2.121313e+01	-5.888550e+02
2.810000e-06	-3.116135e-06	-9.208335e-09	-2.181700e+01	-5.997643e+02
2.820000e-06	-3.201101e-06	-9.380366e-09	-2.241187e+01	-6.105068e+02
2.830000e-06	-3.284712e-06	-9.542225e-09	-2.299725e+01	-6.211586e+02
2.840000e-06	-3.367178e-06	-9.692549e-09	-2.357463e+01	-6.316969e+02
2.850000e-06	-3.448567e-06	-9.831302e-09	-2.414445e+01	-6.420241e+02
2.860000e-06	-3.528827e-06	-9.962074e-09	-2.470638e+01	-6.519977e+02
2.870000e-06	-3.607878e-06	-1.008698e-08	-2.525984e+01	-6.614610e+02
2.880000e-06	-3.685522e-06	-1.020868e-08	-2.580345e+01	-6.702729e+02
2.890000e-06	-3.761561e-06	-1.032664e-08	-2.633582e+01	-6.783307e+02
2.900000e-06	-3.836144e-06	-1.043608e-08	-2.685800e+01	-6.855863e+02
2.910000e-06	-3.909358e-06	-1.053606e-08	-2.737059e+01	-6.920530e+02
2.920000e-06	-3.981187e-06	-1.062940e-08	-2.787349e+01	-6.978027e+02
2.930000e-06	-4.051749e-06	-1.071893e-08	-2.836751e+01	-7.029559e+02
2.940000e-06	-4.120829e-06	-1.080470e-08	-2.885116e+01	-7.076651e+02
