# Temperatura_=_57.59
# Concentracion g/m^3_=_15500.0
# C_Vs_to_Am_M_A/Vsm_=_65563218390.804596
# pendiente_HvsI_1/m_=_3716.3
# ordenada_HvsI_A/m_=_1297.0
# frecuencia_Hz_=_300808.99404173496

Tiempo_(s)	Campo_(V.s)	Magnetizacion_(V.s)	Campo_(kA/m)	Magnetizacion_(A/m)
0.000000e+00	-5.488292e-06	-1.264222e-08	-3.830636e+01	-8.259357e+02
1.000000e-08	-5.486408e-06	-1.264016e-08	-3.829321e+01	-8.261074e+02
2.000000e-08	-5.482551e-06	-1.263340e-08	-3.826630e+01	-8.262823e+02
3.000000e-08	-5.476989e-06	-1.262809e-08	-3.822747e+01	-8.263828e+02
4.000000e-08	-5.469812e-06	-1.262248e-08	-3.817738e+01	-8.263287e+02
5.000000e-08	-5.460978e-06	-1.260892e-08	-3.811572e+01	-8.260483e+02
6.000000e-08	-5.450144e-06	-1.258808e-08	-3.804011e+01	-8.254893e+02
7.000000e-08	-5.437250e-06	-1.256271e-08	-3.795011e+01	-8.246260e+02
8.000000e-08	-5.422406e-06	-1.256370e-08	-3.784651e+01	-8.234633e+02
9.000000e-08	-5.405176e-06	-1.261082e-08	-3.772625e+01	-8.220361e+02
1.000000e-07	-5.385634e-06	-1.258441e-08	-3.758985e+01	-8.204044e+02
1.100000e-07	-5.364124e-06	-1.252601e-08	-3.743971e+01	-8.186450e+02
1.200000e-07	-5.340786e-06	-1.250355e-08	-3.727682e+01	-8.168405e+02
1.300000e-07	-5.315999e-06	-1.239693e-08	-3.710382e+01	-8.150673e+02
1.400000e-07	-5.289762e-06	-1.243026e-08	-3.692069e+01	-8.133850e+02
1.500000e-07	-5.261690e-06	-1.249466e-08	-3.672476e+01	-8.118272e+02
1.600000e-07	-5.231873e-06	-1.231641e-08	-3.651665e+01	-8.103963e+02
1.700000e-07	-5.200489e-06	-1.238047e-08	-3.629760e+01	-8.090627e+02
1.800000e-07	-5.167112e-06	-1.242958e-08	-3.606464e+01	-8.077681e+02
1.900000e-07	-5.131701e-06	-1.225431e-08	-3.581749e+01	-8.064326e+02
2.000000e-07	-5.094779e-06	-1.229747e-08	-3.555978e+01	-8.049656e+02
2.100000e-07	-5.056192e-06	-1.224097e-08	-3.529046e+01	-8.032776e+02
2.200000e-07	-5.015796e-06	-1.214428e-08	-3.500851e+01	-8.012920e+02
2.300000e-07	-4.973486e-06	-1.220339e-08	-3.471320e+01	-7.989556e+02
2.400000e-07	-4.929159e-06	-1.214313e-08	-3.440381e+01	-7.962458e+02
2.500000e-07	-4.883114e-06	-1.209736e-08	-3.408243e+01	-7.931731e+02
2.600000e-07	-4.835250e-06	-1.204269e-08	-3.374836e+01	-7.897803e+02
2.700000e-07	-4.785320e-06	-1.194238e-08	-3.339986e+01	-7.861361e+02
2.800000e-07	-4.733281e-06	-1.193910e-08	-3.303665e+01	-7.823259e+02
2.900000e-07	-4.679356e-06	-1.189438e-08	-3.266027e+01	-7.784397e+02
3.000000e-07	-4.623833e-06	-1.184045e-08	-3.227274e+01	-7.745598e+02
3.100000e-07	-4.566655e-06	-1.179238e-08	-3.187366e+01	-7.707492e+02
3.200000e-07	-4.507675e-06	-1.174654e-08	-3.146200e+01	-7.670425e+02
3.300000e-07	-4.447028e-06	-1.168005e-08	-3.103870e+01	-7.634415e+02
3.400000e-07	-4.384901e-06	-1.157261e-08	-3.060508e+01	-7.599137e+02
3.500000e-07	-4.321328e-06	-1.152668e-08	-3.016136e+01	-7.563974e+02
3.600000e-07	-4.256254e-06	-1.145558e-08	-2.970717e+01	-7.528097e+02
3.700000e-07	-4.189507e-06	-1.140501e-08	-2.924130e+01	-7.490576e+02
3.800000e-07	-4.121083e-06	-1.136736e-08	-2.876372e+01	-7.450515e+02
3.900000e-07	-4.051191e-06	-1.126773e-08	-2.827590e+01	-7.407171e+02
4.000000e-07	-3.980037e-06	-1.119745e-08	-2.777927e+01	-7.360061e+02
4.100000e-07	-3.907625e-06	-1.111845e-08	-2.727386e+01	-7.309033e+02
4.200000e-07	-3.833713e-06	-1.103691e-08	-2.675798e+01	-7.254289e+02
4.300000e-07	-3.758099e-06	-1.094702e-08	-2.623022e+01	-7.196357e+02
4.400000e-07	-3.680908e-06	-1.086326e-08	-2.569145e+01	-7.136021e+02
4.500000e-07	-3.602279e-06	-1.079880e-08	-2.514265e+01	-7.074207e+02
4.600000e-07	-3.522125e-06	-1.071543e-08	-2.458321e+01	-7.011852e+02
4.700000e-07	-3.440612e-06	-1.062655e-08	-2.401427e+01	-6.949768e+02
4.800000e-07	-3.357896e-06	-1.052113e-08	-2.343694e+01	-6.888514e+02
4.900000e-07	-3.274037e-06	-1.042406e-08	-2.285164e+01	-6.828311e+02
5.000000e-07	-3.189203e-06	-1.032987e-08	-2.225953e+01	-6.768992e+02
5.100000e-07	-3.103460e-06	-1.022728e-08	-2.166107e+01	-6.710015e+02
5.200000e-07	-3.016746e-06	-1.012589e-08	-2.105584e+01	-6.650522e+02
5.300000e-07	-2.929115e-06	-1.001882e-08	-2.044420e+01	-6.589449e+02
5.400000e-07	-2.840565e-06	-9.913427e-09	-1.982616e+01	-6.525667e+02
5.500000e-07	-2.750933e-06	-9.803613e-09	-1.920055e+01	-6.458134e+02
5.600000e-07	-2.660105e-06	-9.685667e-09	-1.856661e+01	-6.386040e+02
5.700000e-07	-2.568160e-06	-9.566074e-09	-1.792486e+01	-6.308929e+02
5.800000e-07	-2.475296e-06	-9.446471e-09	-1.727671e+01	-6.226764e+02
5.900000e-07	-2.381662e-06	-9.329748e-09	-1.662317e+01	-6.139944e+02
6.000000e-07	-2.287301e-06	-9.203232e-09	-1.596456e+01	-6.049252e+02
6.100000e-07	-2.192221e-06	-9.067446e-09	-1.530094e+01	-5.955746e+02
6.200000e-07	-2.096433e-06	-8.927413e-09	-1.463237e+01	-5.860612e+02
6.300000e-07	-1.999810e-06	-8.784696e-09	-1.395798e+01	-5.764981e+02
6.400000e-07	-1.902310e-06	-8.645569e-09	-1.327746e+01	-5.669752e+02
6.500000e-07	-1.804037e-06	-8.500674e-09	-1.259155e+01	-5.575432e+02
6.600000e-07	-1.705055e-06	-8.352100e-09	-1.190069e+01	-5.482032e+02
6.700000e-07	-1.605400e-06	-8.200364e-09	-1.120513e+01	-5.389016e+02
6.800000e-07	-1.505142e-06	-8.044679e-09	-1.050536e+01	-5.295330e+02
6.900000e-07	-1.404331e-06	-7.879894e-09	-9.801742e+00	-5.199506e+02
7.000000e-07	-1.303081e-06	-7.705917e-09	-9.095049e+00	-5.099828e+02
7.100000e-07	-1.201440e-06	-7.528660e-09	-8.385631e+00	-4.994538e+02
7.200000e-07	-1.099386e-06	-7.346950e-09	-7.673330e+00	-4.882068e+02
7.300000e-07	-9.969577e-07	-7.164359e-09	-6.958417e+00	-4.761252e+02
7.400000e-07	-8.941077e-07	-6.978523e-09	-6.240560e+00	-4.631496e+02
7.500000e-07	-7.908991e-07	-6.785051e-09	-5.520200e+00	-4.492873e+02
7.600000e-07	-6.874845e-07	-6.579269e-09	-4.798402e+00	-4.346134e+02
7.700000e-07	-5.839201e-07	-6.363470e-09	-4.075559e+00	-4.192611e+02
7.800000e-07	-4.802140e-07	-6.138650e-09	-3.351726e+00	-4.034026e+02
7.900000e-07	-3.763576e-07	-5.906980e-09	-2.626845e+00	-3.872223e+02
8.000000e-07	-2.723981e-07	-5.669835e-09	-1.901243e+00	-3.708843e+02
8.100000e-07	-1.683823e-07	-5.422969e-09	-1.175250e+00	-3.544987e+02
8.200000e-07	-6.430456e-08	-5.166326e-09	-4.488234e-01	-3.380906e+02
8.300000e-07	3.983233e-08	-4.897259e-09	2.780158e-01	-3.215757e+02
8.400000e-07	1.440011e-07	-4.611964e-09	1.005077e+00	-3.047469e+02
8.500000e-07	2.481097e-07	-4.308185e-09	1.731719e+00	-2.872733e+02
8.600000e-07	3.521318e-07	-3.991168e-09	2.457757e+00	-2.687146e+02
8.700000e-07	4.560625e-07	-3.658330e-09	3.183157e+00	-2.485494e+02
8.800000e-07	5.598661e-07	-3.302996e-09	3.907670e+00	-2.262163e+02
8.900000e-07	6.635142e-07	-2.921438e-09	4.631098e+00	-2.011638e+02
9.000000e-07	7.669764e-07	-2.510253e-09	5.353228e+00	-1.729050e+02
9.100000e-07	8.702128e-07	-2.065046e-09	6.073782e+00	-1.410716e+02
9.200000e-07	9.731035e-07	-1.574667e-09	6.791923e+00	-1.054616e+02
9.300000e-07	1.075564e-06	-1.029030e-09	7.507060e+00	-6.607529e+01
9.400000e-07	1.177595e-06	-4.184012e-10	8.219201e+00	-2.313607e+01
9.500000e-07	1.279237e-06	2.661353e-10	8.928630e+00	2.290731e+01
9.600000e-07	1.380520e-06	1.028180e-09	9.635546e+00	7.139774e+01
9.700000e-07	1.481395e-06	1.853006e-09	1.033962e+01	1.215051e+02
9.800000e-07	1.581813e-06	2.707452e-09	1.104051e+01	1.722771e+02
9.900000e-07	1.681694e-06	3.548918e-09	1.173764e+01	2.227017e+02
1.000000e-06	1.780923e-06	4.341423e-09	1.243022e+01	2.717744e+02
1.010000e-06	1.879406e-06	5.061191e-09	1.311760e+01	3.185661e+02
1.020000e-06	1.977058e-06	5.696074e-09	1.379918e+01	3.622836e+02
1.030000e-06	2.073837e-06	6.249985e-09	1.447466e+01	4.023185e+02
1.040000e-06	2.169815e-06	6.733514e-09	1.514455e+01	4.382803e+02
1.050000e-06	2.265136e-06	7.161012e-09	1.580986e+01	4.700096e+02
1.060000e-06	2.359755e-06	7.540593e-09	1.647027e+01	4.975735e+02
1.070000e-06	2.453551e-06	7.875116e-09	1.712493e+01	5.212413e+02
1.080000e-06	2.546559e-06	8.171935e-09	1.777409e+01	5.414459e+02
1.090000e-06	2.638789e-06	8.443918e-09	1.841783e+01	5.587336e+02
1.100000e-06	2.730067e-06	8.698220e-09	1.905492e+01	5.737084e+02
1.110000e-06	2.820180e-06	8.933291e-09	1.968387e+01	5.869767e+02
1.120000e-06	2.909134e-06	9.149293e-09	2.030474e+01	5.990965e+02
1.130000e-06	2.997069e-06	9.348516e-09	2.091850e+01	6.105370e+02
1.140000e-06	3.084021e-06	9.534109e-09	2.152539e+01	6.216503e+02
1.150000e-06	3.169935e-06	9.707492e-09	2.212504e+01	6.326593e+02
1.160000e-06	3.254851e-06	9.869275e-09	2.271772e+01	6.436587e+02
1.170000e-06	3.338799e-06	1.001909e-08	2.330365e+01	6.546306e+02
1.180000e-06	3.421554e-06	1.016448e-08	2.388125e+01	6.654698e+02
1.190000e-06	3.502946e-06	1.030954e-08	2.444934e+01	6.760163e+02
1.200000e-06	3.582991e-06	1.044717e-08	2.500802e+01	6.860892e+02
1.210000e-06	3.661741e-06	1.057474e-08	2.555768e+01	6.955202e+02
1.220000e-06	3.739279e-06	1.069444e-08	2.609886e+01	7.041805e+02
1.230000e-06	3.815551e-06	1.080822e-08	2.663122e+01	7.119998e+02
1.240000e-06	3.890256e-06	1.091271e-08	2.715263e+01	7.189754e+02
1.250000e-06	3.963301e-06	1.100709e-08	2.766246e+01	7.251717e+02
1.260000e-06	4.034910e-06	1.109720e-08	2.816227e+01	7.307094e+02
1.270000e-06	4.105161e-06	1.118882e-08	2.865260e+01	7.357489e+02
1.280000e-06	4.174079e-06	1.127928e-08	2.913361e+01	7.404680e+02
1.290000e-06	4.241576e-06	1.136393e-08	2.960472e+01	7.450398e+02
1.300000e-06	4.307422e-06	1.144319e-08	3.006430e+01	7.496108e+02
1.310000e-06	4.371617e-06	1.151871e-08	3.051236e+01	7.542852e+02
1.320000e-06	4.434323e-06	1.159131e-08	3.095003e+01	7.591146e+02
1.330000e-06	4.495665e-06	1.165985e-08	3.137817e+01	7.640954e+02
1.340000e-06	4.555630e-06	1.172500e-08	3.179671e+01	7.691737e+02
1.350000e-06	4.613833e-06	1.178876e-08	3.220295e+01	7.742563e+02
1.360000e-06	4.670184e-06	1.185163e-08	3.259625e+01	7.792268e+02
1.370000e-06	4.724886e-06	1.191243e-08	3.297806e+01	7.839632e+02
1.380000e-06	4.777849e-06	1.196941e-08	3.334772e+01	7.883562e+02
1.390000e-06	4.828839e-06	1.202189e-08	3.370361e+01	7.923237e+02
1.400000e-06	4.877847e-06	1.207221e-08	3.404567e+01	7.958223e+02
1.410000e-06	4.925112e-06	1.212094e-08	3.437556e+01	7.988512e+02
1.420000e-06	4.970773e-06	1.216735e-08	3.469426e+01	8.014518e+02
1.430000e-06	5.014801e-06	1.220935e-08	3.500156e+01	8.037004e+02
1.440000e-06	5.056870e-06	1.224801e-08	3.529519e+01	8.056964e+02
1.450000e-06	5.097008e-06	1.228740e-08	3.557534e+01	8.075483e+02
1.460000e-06	5.135502e-06	1.232531e-08	3.584402e+01	8.093586e+02
1.470000e-06	5.172344e-06	1.235942e-08	3.610116e+01	8.112100e+02
1.480000e-06	5.207314e-06	1.239042e-08	3.634523e+01	8.131549e+02
1.490000e-06	5.240286e-06	1.242068e-08	3.657537e+01	8.152094e+02
1.500000e-06	5.271463e-06	1.244910e-08	3.679298e+01	8.173527e+02
1.510000e-06	5.300988e-06	1.247110e-08	3.699905e+01	8.195313e+02
1.520000e-06	5.328731e-06	1.248979e-08	3.719268e+01	8.216679e+02
1.530000e-06	5.354378e-06	1.251211e-08	3.737169e+01	8.236737e+02
1.540000e-06	5.377960e-06	1.253673e-08	3.753629e+01	8.254608e+02
1.550000e-06	5.399752e-06	1.255465e-08	3.768839e+01	8.269561e+02
1.560000e-06	5.419825e-06	1.256341e-08	3.782849e+01	8.281105e+02
1.570000e-06	5.437965e-06	1.257279e-08	3.795510e+01	8.289068e+02
1.580000e-06	5.454071e-06	1.258775e-08	3.806751e+01	8.293612e+02
1.590000e-06	5.468229e-06	1.259965e-08	3.816633e+01	8.295210e+02
1.600000e-06	5.480276e-06	1.260421e-08	3.825041e+01	8.294578e+02
1.610000e-06	5.490092e-06	1.260880e-08	3.831893e+01	8.292571e+02
1.620000e-06	5.497895e-06	1.261731e-08	3.837339e+01	8.290065e+02
1.630000e-06	5.503882e-06	1.262591e-08	3.841518e+01	8.287836e+02
1.640000e-06	5.508028e-06	1.262842e-08	3.844411e+01	8.286453e+02
1.650000e-06	5.510169e-06	1.262656e-08	3.845906e+01	8.286203e+02
1.660000e-06	5.510304e-06	1.262406e-08	3.846000e+01	8.287059e+02
1.670000e-06	5.508664e-06	1.261833e-08	3.844856e+01	8.288685e+02
1.680000e-06	5.505395e-06	1.261441e-08	3.842574e+01	8.290494e+02
1.690000e-06	5.500199e-06	1.260663e-08	3.838947e+01	8.291731e+02
1.700000e-06	5.493049e-06	1.259683e-08	3.833957e+01	8.291591e+02
1.710000e-06	5.484286e-06	1.258989e-08	3.827840e+01	8.289329e+02
1.720000e-06	5.473853e-06	1.258722e-08	3.820559e+01	8.284372e+02
1.730000e-06	5.461477e-06	1.259871e-08	3.811921e+01	8.276402e+02
1.740000e-06	5.447072e-06	1.254587e-08	3.801867e+01	8.265402e+02
1.750000e-06	5.430611e-06	1.247690e-08	3.790377e+01	8.251658e+02
1.760000e-06	5.411615e-06	1.247988e-08	3.777119e+01	8.235724e+02
1.770000e-06	5.389825e-06	1.246102e-08	3.761910e+01	8.218339e+02
1.780000e-06	5.366014e-06	1.252203e-08	3.745291e+01	8.200327e+02
1.790000e-06	5.341199e-06	1.250492e-08	3.727971e+01	8.182476e+02
1.800000e-06	5.315549e-06	1.234313e-08	3.710068e+01	8.165424e+02
1.810000e-06	5.287986e-06	1.246328e-08	3.690830e+01	8.149571e+02
1.820000e-06	5.258052e-06	1.243852e-08	3.669937e+01	8.135009e+02
1.830000e-06	5.226594e-06	1.227722e-08	3.647980e+01	8.121510e+02
1.840000e-06	5.193423e-06	1.241516e-08	3.624828e+01	8.108546e+02
1.850000e-06	5.158453e-06	1.233793e-08	3.600420e+01	8.095357e+02
1.860000e-06	5.121781e-06	1.224926e-08	3.574825e+01	8.081052e+02
1.870000e-06	5.082935e-06	1.235326e-08	3.547712e+01	8.064720e+02
1.880000e-06	5.042374e-06	1.220679e-08	3.519401e+01	8.045561e+02
1.890000e-06	5.000248e-06	1.217111e-08	3.489999e+01	8.022984e+02
1.900000e-06	4.956199e-06	1.215421e-08	3.459254e+01	7.996693e+02
1.910000e-06	4.910426e-06	1.205361e-08	3.427306e+01	7.966722e+02
1.920000e-06	4.862750e-06	1.214904e-08	3.394030e+01	7.933435e+02
1.930000e-06	4.813269e-06	1.203564e-08	3.359494e+01	7.897469e+02
1.940000e-06	4.762135e-06	1.196360e-08	3.323804e+01	7.859651e+02
1.950000e-06	4.708819e-06	1.195470e-08	3.286592e+01	7.820883e+02
1.960000e-06	4.653658e-06	1.184772e-08	3.248091e+01	7.782014e+02
1.970000e-06	4.596917e-06	1.183453e-08	3.208488e+01	7.743724e+02
1.980000e-06	4.538576e-06	1.173328e-08	3.167768e+01	7.706426e+02
1.990000e-06	4.478706e-06	1.173161e-08	3.125981e+01	7.670210e+02
2.000000e-06	4.417073e-06	1.168569e-08	3.082963e+01	7.634823e+02
2.010000e-06	4.353833e-06	1.158125e-08	3.038823e+01	7.599704e+02
2.020000e-06	4.289023e-06	1.156559e-08	2.993588e+01	7.564061e+02
2.030000e-06	4.222753e-06	1.142339e-08	2.947334e+01	7.526976e+02
2.040000e-06	4.155043e-06	1.140127e-08	2.900075e+01	7.487534e+02
2.050000e-06	4.085563e-06	1.133768e-08	2.851581e+01	7.444949e+02
2.060000e-06	4.014518e-06	1.124595e-08	2.801994e+01	7.398675e+02
2.070000e-06	3.942160e-06	1.120309e-08	2.751490e+01	7.348487e+02
2.080000e-06	3.868505e-06	1.108291e-08	2.700082e+01	7.294510e+02
2.090000e-06	3.793312e-06	1.104568e-08	2.647600e+01	7.237207e+02
2.100000e-06	3.716364e-06	1.093259e-08	2.593893e+01	7.177316e+02
2.110000e-06	3.637893e-06	1.085519e-08	2.539122e+01	7.115742e+02
2.120000e-06	3.558167e-06	1.078197e-08	2.483476e+01	7.053433e+02
2.130000e-06	3.477300e-06	1.068675e-08	2.427034e+01	6.991239e+02
2.140000e-06	3.395292e-06	1.062591e-08	2.369796e+01	6.929781e+02
2.150000e-06	3.312219e-06	1.050015e-08	2.311813e+01	6.869357e+02
2.160000e-06	3.227947e-06	1.042366e-08	2.252995e+01	6.809887e+02
2.170000e-06	3.142304e-06	1.031111e-08	2.193219e+01	6.750904e+02
2.180000e-06	3.055426e-06	1.021304e-08	2.132581e+01	6.691611e+02
2.190000e-06	2.967551e-06	1.011450e-08	2.071247e+01	6.630977e+02
2.200000e-06	2.878776e-06	9.994164e-09	2.009286e+01	6.567873e+02
2.210000e-06	2.789020e-06	9.904377e-09	1.946639e+01	6.501226e+02
2.220000e-06	2.698375e-06	9.787451e-09	1.883372e+01	6.430167e+02
2.230000e-06	2.606806e-06	9.683674e-09	1.819459e+01	6.354153e+02
2.240000e-06	2.514203e-06	9.556323e-09	1.754826e+01	6.273057e+02
2.250000e-06	2.420574e-06	9.431305e-09	1.689476e+01	6.187185e+02
2.260000e-06	2.325974e-06	9.312961e-09	1.623448e+01	6.097245e+02
2.270000e-06	2.230581e-06	9.186716e-09	1.556867e+01	6.004249e+02
2.280000e-06	2.134502e-06	9.062267e-09	1.489808e+01	5.909369e+02
2.290000e-06	2.037730e-06	8.924358e-09	1.422265e+01	5.813763e+02
2.300000e-06	1.940230e-06	8.789377e-09	1.354213e+01	5.718394e+02
2.310000e-06	1.842132e-06	8.649037e-09	1.285744e+01	5.623865e+02
2.320000e-06	1.743539e-06	8.502191e-09	1.216930e+01	5.530299e+02
2.330000e-06	1.644457e-06	8.347292e-09	1.147773e+01	5.437277e+02
2.340000e-06	1.544859e-06	8.189004e-09	1.078258e+01	5.343851e+02
2.350000e-06	1.444685e-06	8.031630e-09	1.008340e+01	5.248630e+02
2.360000e-06	1.343862e-06	7.871358e-09	9.379691e+00	5.149932e+02
2.370000e-06	1.242374e-06	7.698800e-09	8.671335e+00	5.045991e+02
2.380000e-06	1.140364e-06	7.517732e-09	7.959341e+00	4.935180e+02
2.390000e-06	1.037848e-06	7.333584e-09	7.243820e+00	4.816228e+02
2.400000e-06	9.349125e-07	7.145597e-09	6.525363e+00	4.688410e+02
2.410000e-06	8.316296e-07	6.953397e-09	5.804485e+00	4.551650e+02
2.420000e-06	7.280370e-07	6.751840e-09	5.081444e+00	4.406561e+02
2.430000e-06	6.242610e-07	6.542390e-09	4.357124e+00	4.254361e+02
2.440000e-06	5.203517e-07	6.321914e-09	3.631873e+00	4.096710e+02
2.450000e-06	4.163048e-07	6.092341e-09	2.905662e+00	3.935451e+02
2.460000e-06	3.121177e-07	5.851832e-09	2.178473e+00	3.772297e+02
2.470000e-06	2.078318e-07	5.602732e-09	1.450593e+00	3.608494e+02
2.480000e-06	1.034679e-07	5.347224e-09	7.221700e-01	3.444496e+02
2.490000e-06	-9.512607e-10	5.080131e-09	-6.639468e-03	3.279713e+02
2.500000e-06	-1.053915e-07	4.801172e-09	-7.355956e-01	3.112339e+02
2.510000e-06	-2.097602e-07	4.508511e-09	-1.464053e+00	2.939326e+02
2.520000e-06	-3.139870e-07	4.198505e-09	-2.191520e+00	2.756486e+02
2.530000e-06	-4.180909e-07	3.867615e-09	-2.918129e+00	2.558748e+02
2.540000e-06	-5.220899e-07	3.514510e-09	-3.644005e+00	2.340543e+02
2.550000e-06	-6.259987e-07	3.142193e-09	-4.369253e+00	2.096290e+02
2.560000e-06	-7.297059e-07	2.746340e-09	-5.093092e+00	1.820935e+02
2.570000e-06	-8.330992e-07	2.315407e-09	-5.814742e+00	1.510499e+02
2.580000e-06	-9.362124e-07	1.841480e-09	-6.534436e+00	1.162570e+02
2.590000e-06	-1.038922e-06	1.313917e-09	-7.251316e+00	7.766930e+01
2.600000e-06	-1.141122e-06	7.220636e-10	-7.964632e+00	3.546166e+01
2.610000e-06	-1.242813e-06	5.807318e-11	-8.674399e+00	-9.964712e+00
2.620000e-06	-1.343934e-06	-6.797423e-10	-9.380192e+00	-5.799497e+01
2.630000e-06	-1.444458e-06	-1.484753e-09	-1.008182e+01	-1.078322e+02
2.640000e-06	-1.544407e-06	-2.337065e-09	-1.077942e+01	-1.585456e+02
2.650000e-06	-1.643782e-06	-3.195048e-09	-1.147303e+01	-2.091300e+02
2.660000e-06	-1.742574e-06	-4.013286e-09	-1.216256e+01	-2.585737e+02
2.670000e-06	-1.840834e-06	-4.763025e-09	-1.284838e+01	-3.059259e+02
2.680000e-06	-1.938540e-06	-5.435032e-09	-1.353033e+01	-3.503598e+02
2.690000e-06	-2.035528e-06	-6.026272e-09	-1.420728e+01	-3.912241e+02
2.700000e-06	-2.131803e-06	-6.537158e-09	-1.487924e+01	-4.280795e+02
2.710000e-06	-2.227500e-06	-6.980106e-09	-1.554717e+01	-4.607171e+02
2.720000e-06	-2.322590e-06	-7.372421e-09	-1.621087e+01	-4.891569e+02
2.730000e-06	-2.416914e-06	-7.726759e-09	-1.686922e+01	-5.136276e+02
2.740000e-06	-2.510228e-06	-8.046030e-09	-1.752052e+01	-5.345309e+02
2.750000e-06	-2.602441e-06	-8.334561e-09	-1.816413e+01	-5.523933e+02
2.760000e-06	-2.693667e-06	-8.598199e-09	-1.880085e+01	-5.678115e+02
2.770000e-06	-2.783935e-06	-8.839600e-09	-1.943089e+01	-5.813957e+02
2.780000e-06	-2.873194e-06	-9.063085e-09	-2.005389e+01	-5.937181e+02
2.790000e-06	-2.961415e-06	-9.269023e-09	-2.066965e+01	-6.052697e+02
2.800000e-06	-3.048706e-06	-9.457844e-09	-2.127890e+01	-6.164295e+02
2.810000e-06	-3.135000e-06	-9.638154e-09	-2.188121e+01	-6.274481e+02
2.820000e-06	-3.220067e-06	-9.813161e-09	-2.247495e+01	-6.384471e+02
2.830000e-06	-3.303854e-06	-9.975876e-09	-2.305975e+01	-6.494307e+02
2.840000e-06	-3.386474e-06	-1.012425e-08	-2.363641e+01	-6.603101e+02
2.850000e-06	-3.467997e-06	-1.026395e-08	-2.420541e+01	-6.709338e+02
2.860000e-06	-3.548354e-06	-1.039902e-08	-2.476627e+01	-6.811228e+02
2.870000e-06	-3.627498e-06	-1.052584e-08	-2.531867e+01	-6.907035e+02
2.880000e-06	-3.705213e-06	-1.064465e-08	-2.586110e+01	-6.995366e+02
2.890000e-06	-3.781315e-06	-1.075999e-08	-2.639226e+01	-7.075382e+02
2.900000e-06	-3.855948e-06	-1.087445e-08	-2.691317e+01	-7.146909e+02
2.910000e-06	-3.929197e-06	-1.098269e-08	-2.742442e+01	-7.210452e+02
2.920000e-06	-4.001133e-06	-1.107941e-08	-2.792651e+01	-7.267111e+02
2.930000e-06	-4.071739e-06	-1.117017e-08	-2.841932e+01	-7.318422e+02
2.940000e-06	-4.140721e-06	-1.125935e-08	-2.890079e+01	-7.366144e+02
