# Temperatura_=_22.29
# Concentracion g/m^3_=_15500.0
# C_Vs_to_Am_M_A/Vsm_=_65563218390.804596
# pendiente_HvsI_1/m_=_3716.3
# ordenada_HvsI_A/m_=_1297.0
# frecuencia_Hz_=_300815.5227589746

Tiempo_(s)	Campo_(V.s)	Magnetizacion_(V.s)	Campo_(kA/m)	Magnetizacion_(A/m)
0.000000e+00	-5.506672e-06	-1.198575e-08	-3.830832e+01	-7.830496e+02
1.000000e-08	-5.505017e-06	-1.198171e-08	-3.829681e+01	-7.829733e+02
2.000000e-08	-5.501387e-06	-1.198169e-08	-3.827155e+01	-7.829469e+02
3.000000e-08	-5.495972e-06	-1.198302e-08	-3.823389e+01	-7.829285e+02
4.000000e-08	-5.488914e-06	-1.197770e-08	-3.818479e+01	-7.828624e+02
5.000000e-08	-5.480204e-06	-1.196336e-08	-3.812419e+01	-7.826868e+02
6.000000e-08	-5.469571e-06	-1.194531e-08	-3.805022e+01	-7.823431e+02
7.000000e-08	-5.456864e-06	-1.192852e-08	-3.796182e+01	-7.817845e+02
8.000000e-08	-5.442151e-06	-1.192844e-08	-3.785947e+01	-7.809826e+02
9.000000e-08	-5.425092e-06	-1.194049e-08	-3.774079e+01	-7.799319e+02
1.000000e-07	-5.405679e-06	-1.191719e-08	-3.760574e+01	-7.786506e+02
1.100000e-07	-5.384273e-06	-1.188843e-08	-3.745683e+01	-7.771777e+02
1.200000e-07	-5.361078e-06	-1.186501e-08	-3.729547e+01	-7.755683e+02
1.300000e-07	-5.336451e-06	-1.180661e-08	-3.712414e+01	-7.738847e+02
1.400000e-07	-5.310317e-06	-1.181221e-08	-3.694234e+01	-7.721886e+02
1.500000e-07	-5.282289e-06	-1.180551e-08	-3.674736e+01	-7.705311e+02
1.600000e-07	-5.252527e-06	-1.173057e-08	-3.654031e+01	-7.689459e+02
1.700000e-07	-5.221159e-06	-1.176361e-08	-3.632209e+01	-7.674439e+02
1.800000e-07	-5.187835e-06	-1.174743e-08	-3.609026e+01	-7.660108e+02
1.900000e-07	-5.152508e-06	-1.167403e-08	-3.584451e+01	-7.646093e+02
2.000000e-07	-5.115623e-06	-1.169013e-08	-3.558791e+01	-7.631828e+02
2.100000e-07	-5.077033e-06	-1.162267e-08	-3.531944e+01	-7.616636e+02
2.200000e-07	-5.036612e-06	-1.156545e-08	-3.503825e+01	-7.599814e+02
2.300000e-07	-4.994290e-06	-1.157681e-08	-3.474383e+01	-7.580729e+02
2.400000e-07	-4.949974e-06	-1.152377e-08	-3.443553e+01	-7.558902e+02
2.500000e-07	-4.903943e-06	-1.149178e-08	-3.411531e+01	-7.534077e+02
2.600000e-07	-4.856145e-06	-1.144939e-08	-3.378279e+01	-7.506253e+02
2.700000e-07	-4.806259e-06	-1.138453e-08	-3.343575e+01	-7.475683e+02
2.800000e-07	-4.754225e-06	-1.135222e-08	-3.307377e+01	-7.442844e+02
2.900000e-07	-4.700281e-06	-1.131347e-08	-3.269849e+01	-7.408370e+02
3.000000e-07	-4.644711e-06	-1.126787e-08	-3.231191e+01	-7.372961e+02
3.100000e-07	-4.587516e-06	-1.120897e-08	-3.191402e+01	-7.337290e+02
3.200000e-07	-4.528511e-06	-1.117321e-08	-3.150354e+01	-7.301907e+02
3.300000e-07	-4.467858e-06	-1.112042e-08	-3.108159e+01	-7.267157e+02
3.400000e-07	-4.405731e-06	-1.104347e-08	-3.064940e+01	-7.233137e+02
3.500000e-07	-4.342148e-06	-1.100296e-08	-3.020707e+01	-7.199669e+02
3.600000e-07	-4.277001e-06	-1.093771e-08	-2.975386e+01	-7.166331e+02
3.700000e-07	-4.210119e-06	-1.088003e-08	-2.928858e+01	-7.132501e+02
3.800000e-07	-4.141565e-06	-1.082702e-08	-2.881167e+01	-7.097450e+02
3.900000e-07	-4.071585e-06	-1.074525e-08	-2.832484e+01	-7.060433e+02
4.000000e-07	-4.000344e-06	-1.068107e-08	-2.782924e+01	-7.020793e+02
4.100000e-07	-3.927847e-06	-1.061929e-08	-2.732489e+01	-6.978053e+02
4.200000e-07	-3.853850e-06	-1.055965e-08	-2.681012e+01	-6.931979e+02
4.300000e-07	-3.778129e-06	-1.048368e-08	-2.628335e+01	-6.882616e+02
4.400000e-07	-3.700815e-06	-1.040440e-08	-2.574550e+01	-6.830279e+02
4.500000e-07	-3.622003e-06	-1.032698e-08	-2.519723e+01	-6.775509e+02
4.600000e-07	-3.541633e-06	-1.024633e-08	-2.463811e+01	-6.718999e+02
4.700000e-07	-3.459909e-06	-1.016998e-08	-2.406958e+01	-6.661491e+02
4.800000e-07	-3.377047e-06	-1.008205e-08	-2.349314e+01	-6.603666e+02
4.900000e-07	-3.293128e-06	-1.000313e-08	-2.290934e+01	-6.546043e+02
5.000000e-07	-3.208199e-06	-9.919993e-09	-2.231851e+01	-6.488897e+02
5.100000e-07	-3.122267e-06	-9.823609e-09	-2.172071e+01	-6.432206e+02
5.200000e-07	-3.035349e-06	-9.723647e-09	-2.111605e+01	-6.375644e+02
5.300000e-07	-2.947490e-06	-9.621686e-09	-2.050483e+01	-6.318611e+02
5.400000e-07	-2.858735e-06	-9.523784e-09	-1.988739e+01	-6.260310e+02
5.500000e-07	-2.768849e-06	-9.427805e-09	-1.926208e+01	-6.199843e+02
5.600000e-07	-2.677736e-06	-9.328690e-09	-1.862823e+01	-6.136334e+02
5.700000e-07	-2.585562e-06	-9.218784e-09	-1.798701e+01	-6.069046e+02
5.800000e-07	-2.492515e-06	-9.103378e-09	-1.733970e+01	-5.997483e+02
5.900000e-07	-2.398710e-06	-8.990114e-09	-1.668713e+01	-5.921460e+02
6.000000e-07	-2.304096e-06	-8.872314e-09	-1.602892e+01	-5.841133e+02
6.100000e-07	-2.208682e-06	-8.750750e-09	-1.536516e+01	-5.756975e+02
6.200000e-07	-2.112564e-06	-8.628279e-09	-1.469650e+01	-5.669710e+02
6.300000e-07	-2.015748e-06	-8.505309e-09	-1.402298e+01	-5.580204e+02
6.400000e-07	-1.918038e-06	-8.378797e-09	-1.334323e+01	-5.489334e+02
6.500000e-07	-1.819389e-06	-8.238823e-09	-1.265696e+01	-5.397844e+02
6.600000e-07	-1.719959e-06	-8.092328e-09	-1.196525e+01	-5.306212e+02
6.700000e-07	-1.619885e-06	-7.946046e-09	-1.126907e+01	-5.214554e+02
6.800000e-07	-1.519306e-06	-7.800129e-09	-1.056937e+01	-5.122564e+02
6.900000e-07	-1.418271e-06	-7.648794e-09	-9.866498e+00	-5.029519e+02
7.000000e-07	-1.316775e-06	-7.488659e-09	-9.160424e+00	-4.934339e+02
7.100000e-07	-1.214820e-06	-7.323071e-09	-8.451151e+00	-4.835697e+02
7.200000e-07	-1.112438e-06	-7.151132e-09	-7.738910e+00	-4.732180e+02
7.300000e-07	-1.009672e-06	-6.974505e-09	-7.023996e+00	-4.622462e+02
7.400000e-07	-9.065552e-07	-6.794931e-09	-6.306642e+00	-4.505476e+02
7.500000e-07	-8.031230e-07	-6.611523e-09	-5.587094e+00	-4.380569e+02
7.600000e-07	-6.994031e-07	-6.419866e-09	-4.865545e+00	-4.247595e+02
7.700000e-07	-5.954560e-07	-6.219366e-09	-4.142415e+00	-4.106944e+02
7.800000e-07	-4.913831e-07	-6.009416e-09	-3.418410e+00	-3.959502e+02
7.900000e-07	-3.872047e-07	-5.789552e-09	-2.693671e+00	-3.806518e+02
8.000000e-07	-2.828830e-07	-5.561767e-09	-1.967935e+00	-3.649414e+02
8.100000e-07	-1.784366e-07	-5.325644e-09	-1.241332e+00	-3.489539e+02
8.200000e-07	-7.391797e-08	-5.083421e-09	-5.142259e-01	-3.327900e+02
8.300000e-07	3.061472e-08	-4.833648e-09	2.129777e-01	-3.164909e+02
8.400000e-07	1.350996e-07	-4.572107e-09	9.398486e-01	-3.000165e+02
8.500000e-07	2.395502e-07	-4.296532e-09	1.666482e+00	-2.832314e+02
8.600000e-07	3.439517e-07	-4.007247e-09	2.392772e+00	-2.659008e+02
8.700000e-07	4.482370e-07	-3.703556e-09	3.118255e+00	-2.476978e+02
8.800000e-07	5.523721e-07	-3.383013e-09	3.842692e+00	-2.282221e+02
8.900000e-07	6.563246e-07	-3.044070e-09	4.565860e+00	-2.070298e+02
9.000000e-07	7.600577e-07	-2.684934e-09	5.287501e+00	-1.836714e+02
9.100000e-07	8.635268e-07	-2.302435e-09	6.007305e+00	-1.577346e+02
9.200000e-07	9.666708e-07	-1.889795e-09	6.724849e+00	-1.288887e+02
9.300000e-07	1.069480e-06	-1.439872e-09	7.440063e+00	-9.692520e+01
9.400000e-07	1.171935e-06	-9.464367e-10	8.152809e+00	-6.179072e+01
9.500000e-07	1.274016e-06	-4.025922e-10	8.862959e+00	-2.360874e+01
9.600000e-07	1.375642e-06	2.010475e-10	9.569945e+00	1.731286e+01
9.700000e-07	1.476754e-06	8.673661e-10	1.027335e+01	6.048957e+01
9.800000e-07	1.577425e-06	1.586912e-09	1.097369e+01	1.052832e+02
9.900000e-07	1.677647e-06	2.340344e-09	1.167090e+01	1.509386e+02
1.000000e-06	1.777367e-06	3.098984e-09	1.236463e+01	1.966305e+02
1.010000e-06	1.876366e-06	3.828553e-09	1.305334e+01	2.415171e+02
1.020000e-06	1.974390e-06	4.502345e-09	1.373526e+01	2.847956e+02
1.030000e-06	2.071499e-06	5.109949e-09	1.441082e+01	3.257535e+02
1.040000e-06	2.167879e-06	5.652839e-09	1.508131e+01	3.638129e+02
1.050000e-06	2.263563e-06	6.139124e-09	1.574695e+01	3.985630e+02
1.060000e-06	2.358520e-06	6.573237e-09	1.640754e+01	4.297777e+02
1.070000e-06	2.452751e-06	6.957969e-09	1.706308e+01	4.574182e+02
1.080000e-06	2.546163e-06	7.300375e-09	1.771292e+01	4.816205e+02
1.090000e-06	2.638741e-06	7.609550e-09	1.835695e+01	5.026689e+02
1.100000e-06	2.730404e-06	7.891611e-09	1.899463e+01	5.209597e+02
1.110000e-06	2.820925e-06	8.148476e-09	1.962436e+01	5.369580e+02
1.120000e-06	2.910252e-06	8.384408e-09	2.024578e+01	5.511531e+02
1.130000e-06	2.998525e-06	8.604328e-09	2.085987e+01	5.640156e+02
1.140000e-06	3.085837e-06	8.809228e-09	2.146728e+01	5.759610e+02
1.150000e-06	3.172158e-06	8.998382e-09	2.206778e+01	5.873228e+02
1.160000e-06	3.257447e-06	9.171051e-09	2.266111e+01	5.983364e+02
1.170000e-06	3.341712e-06	9.330245e-09	2.324732e+01	6.091353e+02
1.180000e-06	3.424867e-06	9.484108e-09	2.382580e+01	6.197581e+02
1.190000e-06	3.506731e-06	9.634761e-09	2.439531e+01	6.301652e+02
1.200000e-06	3.587265e-06	9.777482e-09	2.495556e+01	6.402615e+02
1.210000e-06	3.666477e-06	9.910300e-09	2.550662e+01	6.499234e+02
1.220000e-06	3.744408e-06	1.003516e-08	2.604876e+01	6.590253e+02
1.230000e-06	3.820998e-06	1.015344e-08	2.658157e+01	6.674625e+02
1.240000e-06	3.896066e-06	1.026201e-08	2.710380e+01	6.751698e+02
1.250000e-06	3.969520e-06	1.036041e-08	2.761480e+01	6.821316e+02
1.260000e-06	4.041502e-06	1.045346e-08	2.811556e+01	6.883845e+02
1.270000e-06	4.112131e-06	1.054560e-08	2.860691e+01	6.940126e+02
1.280000e-06	4.181386e-06	1.063612e-08	2.908869e+01	6.991358e+02
1.290000e-06	4.249253e-06	1.072185e-08	2.956082e+01	7.038945e+02
1.300000e-06	4.315505e-06	1.080364e-08	3.002172e+01	7.084316e+02
1.310000e-06	4.380092e-06	1.088323e-08	3.047103e+01	7.128752e+02
1.320000e-06	4.443240e-06	1.095855e-08	3.091033e+01	7.173244e+02
1.330000e-06	4.504951e-06	1.102612e-08	3.133964e+01	7.218393e+02
1.340000e-06	4.565213e-06	1.108663e-08	3.175886e+01	7.264362e+02
1.350000e-06	4.623786e-06	1.114506e-08	3.216634e+01	7.310896e+02
1.360000e-06	4.680471e-06	1.120607e-08	3.256068e+01	7.357388e+02
1.370000e-06	4.735465e-06	1.126850e-08	3.294326e+01	7.402995e+02
1.380000e-06	4.788773e-06	1.132890e-08	3.331410e+01	7.446767e+02
1.390000e-06	4.840145e-06	1.138566e-08	3.367149e+01	7.487798e+02
1.400000e-06	4.889481e-06	1.143674e-08	3.401470e+01	7.525351e+02
1.410000e-06	4.936998e-06	1.148248e-08	3.434526e+01	7.558961e+02
1.420000e-06	4.982861e-06	1.152485e-08	3.466432e+01	7.588490e+02
1.430000e-06	5.027069e-06	1.156366e-08	3.497186e+01	7.614141e+02
1.440000e-06	5.069388e-06	1.160087e-08	3.526626e+01	7.636418e+02
1.450000e-06	5.109773e-06	1.163915e-08	3.554721e+01	7.656049e+02
1.460000e-06	5.148528e-06	1.167817e-08	3.581682e+01	7.673884e+02
1.470000e-06	5.185690e-06	1.171518e-08	3.607534e+01	7.690774e+02
1.480000e-06	5.221005e-06	1.174777e-08	3.632102e+01	7.707458e+02
1.490000e-06	5.254334e-06	1.177671e-08	3.655288e+01	7.724469e+02
1.500000e-06	5.285798e-06	1.180118e-08	3.677177e+01	7.742071e+02
1.510000e-06	5.315554e-06	1.182141e-08	3.697877e+01	7.760235e+02
1.520000e-06	5.343521e-06	1.183965e-08	3.717333e+01	7.778657e+02
1.530000e-06	5.369424e-06	1.185899e-08	3.735353e+01	7.796815e+02
1.540000e-06	5.393292e-06	1.188077e-08	3.751957e+01	7.814049e+02
1.550000e-06	5.415346e-06	1.190229e-08	3.767299e+01	7.829668e+02
1.560000e-06	5.435718e-06	1.192050e-08	3.781472e+01	7.843049e+02
1.570000e-06	5.454218e-06	1.193372e-08	3.794341e+01	7.853727e+02
1.580000e-06	5.470602e-06	1.194323e-08	3.805740e+01	7.861462e+02
1.590000e-06	5.484954e-06	1.194845e-08	3.815723e+01	7.866275e+02
1.600000e-06	5.497214e-06	1.195202e-08	3.824252e+01	7.868436e+02
1.610000e-06	5.507247e-06	1.195827e-08	3.831232e+01	7.868434e+02
1.620000e-06	5.515242e-06	1.196805e-08	3.836794e+01	7.866897e+02
1.630000e-06	5.521423e-06	1.197731e-08	3.841094e+01	7.864513e+02
1.640000e-06	5.525800e-06	1.198095e-08	3.844139e+01	7.861928e+02
1.650000e-06	5.528140e-06	1.198154e-08	3.845767e+01	7.859659e+02
1.660000e-06	5.528475e-06	1.198057e-08	3.846000e+01	7.858029e+02
1.670000e-06	5.527112e-06	1.197606e-08	3.845051e+01	7.857121e+02
1.680000e-06	5.524075e-06	1.196907e-08	3.842939e+01	7.856774e+02
1.690000e-06	5.519107e-06	1.195843e-08	3.839483e+01	7.856612e+02
1.700000e-06	5.512200e-06	1.194969e-08	3.834678e+01	7.856100e+02
1.710000e-06	5.503639e-06	1.194594e-08	3.828722e+01	7.854627e+02
1.720000e-06	5.493375e-06	1.194282e-08	3.821582e+01	7.851590e+02
1.730000e-06	5.481143e-06	1.193933e-08	3.813072e+01	7.846491e+02
1.740000e-06	5.466935e-06	1.190275e-08	3.803188e+01	7.839002e+02
1.750000e-06	5.450701e-06	1.187369e-08	3.791895e+01	7.829016e+02
1.760000e-06	5.431901e-06	1.186358e-08	3.778816e+01	7.816666e+02
1.770000e-06	5.410354e-06	1.184062e-08	3.763826e+01	7.802302e+02
1.780000e-06	5.386696e-06	1.185940e-08	3.747368e+01	7.786445e+02
1.790000e-06	5.361889e-06	1.183769e-08	3.730110e+01	7.769710e+02
1.800000e-06	5.336267e-06	1.178840e-08	3.712286e+01	7.752723e+02
1.810000e-06	5.308833e-06	1.182131e-08	3.693201e+01	7.736026e+02
1.820000e-06	5.279060e-06	1.176724e-08	3.672489e+01	7.719998e+02
1.830000e-06	5.247678e-06	1.171198e-08	3.650657e+01	7.704798e+02
1.840000e-06	5.214601e-06	1.174094e-08	3.627647e+01	7.690340e+02
1.850000e-06	5.179685e-06	1.167318e-08	3.603357e+01	7.676294e+02
1.860000e-06	5.143060e-06	1.166204e-08	3.577878e+01	7.662133e+02
1.870000e-06	5.104278e-06	1.168475e-08	3.550899e+01	7.647195e+02
1.880000e-06	5.063692e-06	1.160155e-08	3.522664e+01	7.630775e+02
1.890000e-06	5.021585e-06	1.157355e-08	3.493371e+01	7.612217e+02
1.900000e-06	4.977601e-06	1.151980e-08	3.462773e+01	7.591004e+02
1.910000e-06	4.931903e-06	1.147582e-08	3.430982e+01	7.566826e+02
1.920000e-06	4.884318e-06	1.149358e-08	3.397879e+01	7.539627e+02
1.930000e-06	4.834822e-06	1.142926e-08	3.363446e+01	7.509608e+02
1.940000e-06	4.783596e-06	1.139954e-08	3.327809e+01	7.477202e+02
1.950000e-06	4.730274e-06	1.133609e-08	3.290715e+01	7.443016e+02
1.960000e-06	4.675120e-06	1.127947e-08	3.252345e+01	7.407744e+02
1.970000e-06	4.618321e-06	1.124722e-08	3.212832e+01	7.372073e+02
1.980000e-06	4.559934e-06	1.116538e-08	3.172214e+01	7.336586e+02
1.990000e-06	4.500017e-06	1.116633e-08	3.130531e+01	7.301680e+02
2.000000e-06	4.438312e-06	1.109790e-08	3.087605e+01	7.267504e+02
2.010000e-06	4.374964e-06	1.103577e-08	3.043535e+01	7.233942e+02
2.020000e-06	4.310061e-06	1.099656e-08	2.998384e+01	7.200618e+02
2.030000e-06	4.243760e-06	1.089284e-08	2.952261e+01	7.166949e+02
2.040000e-06	4.175955e-06	1.087087e-08	2.905091e+01	7.132219e+02
2.050000e-06	4.106344e-06	1.080017e-08	2.856664e+01	7.095678e+02
2.060000e-06	4.035240e-06	1.074339e-08	2.807199e+01	7.056644e+02
2.070000e-06	3.962767e-06	1.068078e-08	2.756782e+01	7.014592e+02
2.080000e-06	3.888920e-06	1.058609e-08	2.705409e+01	6.969235e+02
2.090000e-06	3.813546e-06	1.054298e-08	2.652974e+01	6.920554e+02
2.100000e-06	3.736441e-06	1.045210e-08	2.599334e+01	6.868811e+02
2.110000e-06	3.657855e-06	1.039413e-08	2.544664e+01	6.814504e+02
2.120000e-06	3.577978e-06	1.031268e-08	2.489096e+01	6.758300e+02
2.130000e-06	3.496954e-06	1.023486e-08	2.432729e+01	6.700940e+02
2.140000e-06	3.414828e-06	1.015816e-08	2.375597e+01	6.643128e+02
2.150000e-06	3.331563e-06	1.004741e-08	2.317672e+01	6.585425e+02
2.160000e-06	3.246978e-06	9.980871e-09	2.258828e+01	6.528164e+02
2.170000e-06	3.161011e-06	9.888213e-09	2.199024e+01	6.471389e+02
2.180000e-06	3.073888e-06	9.810408e-09	2.138415e+01	6.414836e+02
2.190000e-06	2.985756e-06	9.715454e-09	2.077104e+01	6.357962e+02
2.200000e-06	2.896707e-06	9.604883e-09	2.015155e+01	6.300002e+02
2.210000e-06	2.806726e-06	9.508700e-09	1.952558e+01	6.240071e+02
2.220000e-06	2.715911e-06	9.403042e-09	1.889380e+01	6.177278e+02
2.230000e-06	2.624162e-06	9.310054e-09	1.825553e+01	6.110847e+02
2.240000e-06	2.531301e-06	9.199169e-09	1.760953e+01	6.040223e+02
2.250000e-06	2.437411e-06	9.090249e-09	1.695636e+01	5.965150e+02
2.260000e-06	2.342565e-06	8.981449e-09	1.629655e+01	5.885711e+02
2.270000e-06	2.246923e-06	8.861907e-09	1.563120e+01	5.802316e+02
2.280000e-06	2.150595e-06	8.738059e-09	1.496106e+01	5.715642e+02
2.290000e-06	2.053562e-06	8.610381e-09	1.428604e+01	5.626536e+02
2.300000e-06	1.955846e-06	8.488986e-09	1.360625e+01	5.535886e+02
2.310000e-06	1.857544e-06	8.364820e-09	1.292240e+01	5.444473e+02
2.320000e-06	1.758731e-06	8.226031e-09	1.223498e+01	5.352844e+02
2.330000e-06	1.659382e-06	8.078862e-09	1.154384e+01	5.261198e+02
2.340000e-06	1.559410e-06	7.930078e-09	1.084836e+01	5.169322e+02
2.350000e-06	1.458772e-06	7.779527e-09	1.014825e+01	5.076579e+02
2.360000e-06	1.357519e-06	7.626830e-09	9.443865e+00	4.981957e+02
2.370000e-06	1.255682e-06	7.465836e-09	8.735414e+00	4.884172e+02
2.380000e-06	1.153307e-06	7.303440e-09	8.023223e+00	4.781813e+02
2.390000e-06	1.050450e-06	7.134083e-09	7.307679e+00	4.673520e+02
2.400000e-06	9.471983e-07	6.954947e-09	6.589384e+00	4.558158e+02
2.410000e-06	8.436082e-07	6.767857e-09	5.868738e+00	4.434975e+02
2.420000e-06	7.397690e-07	6.572671e-09	5.146359e+00	4.303710e+02
2.430000e-06	6.357337e-07	6.372684e-09	4.422615e+00	4.164641e+02
2.440000e-06	5.315120e-07	6.166270e-09	3.697575e+00	4.018555e+02
2.450000e-06	4.271683e-07	5.954060e-09	2.971686e+00	3.866637e+02
2.460000e-06	3.226678e-07	5.730482e-09	2.244706e+00	3.710291e+02
2.470000e-06	2.180319e-07	5.497050e-09	1.516785e+00	3.550905e+02
2.480000e-06	1.133301e-07	5.255971e-09	7.884047e-01	3.389581e+02
2.490000e-06	8.590524e-09	5.004836e-09	5.976178e-02	3.226879e+02
2.500000e-06	-9.614067e-08	4.744873e-09	-6.688228e-01	3.062586e+02
2.510000e-06	-2.008179e-07	4.473806e-09	-1.397032e+00	2.895561e+02
2.520000e-06	-3.054195e-07	4.187807e-09	-2.124715e+00	2.723665e+02
2.530000e-06	-4.099348e-07	3.886488e-09	-2.851798e+00	2.543816e+02
2.540000e-06	-5.142711e-07	3.569601e-09	-3.577635e+00	2.352146e+02
2.550000e-06	-6.183874e-07	3.237146e-09	-4.301942e+00	2.144281e+02
2.560000e-06	-7.222712e-07	2.885994e-09	-5.024631e+00	1.915700e+02
2.570000e-06	-8.258553e-07	2.509958e-09	-5.745236e+00	1.662166e+02
2.580000e-06	-9.291799e-07	2.106326e-09	-6.464036e+00	1.380159e+02
2.590000e-06	-1.032250e-06	1.669428e-09	-7.181061e+00	1.067302e+02
2.600000e-06	-1.134953e-06	1.188864e-09	-7.895538e+00	7.227066e+01
2.610000e-06	-1.237166e-06	6.558247e-10	-8.606607e+00	3.472163e+01
2.620000e-06	-1.338779e-06	6.684461e-11	-9.313496e+00	-5.648359e+00
2.630000e-06	-1.439761e-06	-5.804882e-10	-1.001600e+01	-4.839122e+01
2.640000e-06	-1.540112e-06	-1.284771e-09	-1.071411e+01	-9.289906e+01
2.650000e-06	-1.639844e-06	-2.028265e-09	-1.140792e+01	-1.384381e+02
2.660000e-06	-1.739061e-06	-2.785078e-09	-1.209814e+01	-1.841937e+02
2.670000e-06	-1.837781e-06	-3.526796e-09	-1.278491e+01	-2.293231e+02
2.680000e-06	-1.935829e-06	-4.225958e-09	-1.346700e+01	-2.730104e+02
2.690000e-06	-2.033135e-06	-4.863778e-09	-1.414393e+01	-3.145198e+02
2.700000e-06	-2.129725e-06	-5.434709e-09	-1.481588e+01	-3.532414e+02
2.710000e-06	-2.225671e-06	-5.942641e-09	-1.548335e+01	-3.887265e+02
2.720000e-06	-2.321050e-06	-6.392510e-09	-1.614688e+01	-4.207088e+02
2.730000e-06	-2.415752e-06	-6.793953e-09	-1.680569e+01	-4.491098e+02
2.740000e-06	-2.509566e-06	-7.153691e-09	-1.745832e+01	-4.740300e+02
2.750000e-06	-2.602281e-06	-7.476131e-09	-1.810331e+01	-4.957245e+02
2.760000e-06	-2.693883e-06	-7.768689e-09	-1.874057e+01	-5.145691e+02
2.770000e-06	-2.784533e-06	-8.034738e-09	-1.937119e+01	-5.310180e+02
2.780000e-06	-2.874217e-06	-8.279880e-09	-1.999509e+01	-5.455591e+02
2.790000e-06	-2.962810e-06	-8.509471e-09	-2.061141e+01	-5.586702e+02
2.800000e-06	-3.050426e-06	-8.722025e-09	-2.122093e+01	-5.707814e+02
2.810000e-06	-3.137166e-06	-8.918817e-09	-2.182435e+01	-5.822454e+02
2.820000e-06	-3.222704e-06	-9.102077e-09	-2.241942e+01	-5.933194e+02
2.830000e-06	-3.306805e-06	-9.271303e-09	-2.300449e+01	-6.041584e+02
2.840000e-06	-3.389738e-06	-9.426820e-09	-2.358143e+01	-6.148204e+02
2.850000e-06	-3.471608e-06	-9.572887e-09	-2.415097e+01	-6.252806e+02
2.860000e-06	-3.552344e-06	-9.714109e-09	-2.471263e+01	-6.354538e+02
2.870000e-06	-3.631918e-06	-9.848699e-09	-2.526620e+01	-6.452201e+02
2.880000e-06	-3.710115e-06	-9.975626e-09	-2.581020e+01	-6.544523e+02
2.890000e-06	-3.786756e-06	-1.009576e-08	-2.634337e+01	-6.630394e+02
2.900000e-06	-3.861866e-06	-1.021013e-08	-2.686588e+01	-6.709067e+02
2.910000e-06	-3.935547e-06	-1.031795e-08	-2.737846e+01	-6.780273e+02
2.920000e-06	-4.007849e-06	-1.041726e-08	-2.788145e+01	-6.844269e+02
2.930000e-06	-4.078848e-06	-1.050983e-08	-2.837537e+01	-6.901802e+02
2.940000e-06	-4.148372e-06	-1.059808e-08	-2.885902e+01	-6.954007e+02
