# Temperatura_=_34.12
# Concentracion g/m^3_=_15500.0
# C_Vs_to_Am_M_A/Vsm_=_65563218390.804596
# pendiente_HvsI_1/m_=_3716.3
# ordenada_HvsI_A/m_=_1297.0
# frecuencia_Hz_=_300813.54754250793

Tiempo_(s)	Campo_(V.s)	Magnetizacion_(V.s)	Campo_(kA/m)	Magnetizacion_(A/m)
0.000000e+00	-5.510434e-06	-1.212367e-08	-3.830623e+01	-7.917736e+02
1.000000e-08	-5.509001e-06	-1.212422e-08	-3.829627e+01	-7.917971e+02
2.000000e-08	-5.505591e-06	-1.212116e-08	-3.827257e+01	-7.918740e+02
3.000000e-08	-5.500395e-06	-1.211472e-08	-3.823645e+01	-7.919473e+02
4.000000e-08	-5.493560e-06	-1.210778e-08	-3.818893e+01	-7.919478e+02
5.000000e-08	-5.485151e-06	-1.209553e-08	-3.813047e+01	-7.918047e+02
6.000000e-08	-5.474826e-06	-1.207752e-08	-3.805870e+01	-7.914556e+02
7.000000e-08	-5.462334e-06	-1.205687e-08	-3.797186e+01	-7.908555e+02
8.000000e-08	-5.447918e-06	-1.204313e-08	-3.787165e+01	-7.899832e+02
9.000000e-08	-5.431267e-06	-1.206751e-08	-3.775589e+01	-7.888445e+02
1.000000e-07	-5.412185e-06	-1.207749e-08	-3.762324e+01	-7.874710e+02
1.100000e-07	-5.391028e-06	-1.202922e-08	-3.747617e+01	-7.859159e+02
1.200000e-07	-5.368033e-06	-1.199367e-08	-3.731631e+01	-7.842462e+02
1.300000e-07	-5.343531e-06	-1.194264e-08	-3.714599e+01	-7.825331e+02
1.400000e-07	-5.317578e-06	-1.189279e-08	-3.696557e+01	-7.808417e+02
1.500000e-07	-5.289766e-06	-1.196049e-08	-3.677224e+01	-7.792215e+02
1.600000e-07	-5.260135e-06	-1.190406e-08	-3.656626e+01	-7.776994e+02
1.700000e-07	-5.228953e-06	-1.182501e-08	-3.634949e+01	-7.762749e+02
1.800000e-07	-5.195972e-06	-1.190055e-08	-3.612022e+01	-7.749201e+02
1.900000e-07	-5.160942e-06	-1.181926e-08	-3.587671e+01	-7.735832e+02
2.000000e-07	-5.124300e-06	-1.175139e-08	-3.562198e+01	-7.721951e+02
2.100000e-07	-5.085981e-06	-1.176535e-08	-3.535561e+01	-7.706785e+02
2.200000e-07	-5.045821e-06	-1.167322e-08	-3.507643e+01	-7.689587e+02
2.300000e-07	-5.003786e-06	-1.167090e-08	-3.478422e+01	-7.669738e+02
2.400000e-07	-4.959684e-06	-1.168861e-08	-3.447765e+01	-7.646826e+02
2.500000e-07	-4.913829e-06	-1.161753e-08	-3.415888e+01	-7.620712e+02
2.600000e-07	-4.866229e-06	-1.157872e-08	-3.382798e+01	-7.591541e+02
2.700000e-07	-4.816588e-06	-1.151041e-08	-3.348291e+01	-7.559727e+02
2.800000e-07	-4.764873e-06	-1.146809e-08	-3.312340e+01	-7.525892e+02
2.900000e-07	-4.711261e-06	-1.144040e-08	-3.275071e+01	-7.490785e+02
3.000000e-07	-4.655961e-06	-1.139307e-08	-3.236629e+01	-7.455169e+02
3.100000e-07	-4.598992e-06	-1.135344e-08	-3.197027e+01	-7.419722e+02
3.200000e-07	-4.540132e-06	-1.130374e-08	-3.156109e+01	-7.384932e+02
3.300000e-07	-4.479545e-06	-1.126700e-08	-3.113992e+01	-7.351031e+02
3.400000e-07	-4.417488e-06	-1.118599e-08	-3.070853e+01	-7.317955e+02
3.500000e-07	-4.353991e-06	-1.111098e-08	-3.026712e+01	-7.285350e+02
3.600000e-07	-4.288990e-06	-1.106778e-08	-2.981526e+01	-7.252619e+02
3.700000e-07	-4.222280e-06	-1.100477e-08	-2.935152e+01	-7.218995e+02
3.800000e-07	-4.153933e-06	-1.095761e-08	-2.887640e+01	-7.183651e+02
3.900000e-07	-4.084114e-06	-1.089357e-08	-2.839105e+01	-7.145810e+02
4.000000e-07	-4.013006e-06	-1.081922e-08	-2.789674e+01	-7.104856e+02
4.100000e-07	-3.940662e-06	-1.075634e-08	-2.739383e+01	-7.060414e+02
4.200000e-07	-3.866843e-06	-1.067840e-08	-2.688067e+01	-7.012413e+02
4.300000e-07	-3.791372e-06	-1.059928e-08	-2.635603e+01	-6.961088e+02
4.400000e-07	-3.714233e-06	-1.051728e-08	-2.581979e+01	-6.906957e+02
4.500000e-07	-3.635531e-06	-1.045364e-08	-2.527269e+01	-6.850742e+02
4.600000e-07	-3.555336e-06	-1.038268e-08	-2.471521e+01	-6.793270e+02
4.700000e-07	-3.473819e-06	-1.029895e-08	-2.414854e+01	-6.735350e+02
4.800000e-07	-3.391108e-06	-1.021339e-08	-2.357356e+01	-6.677657e+02
4.900000e-07	-3.307269e-06	-1.011555e-08	-2.299075e+01	-6.620623e+02
5.000000e-07	-3.222419e-06	-1.002636e-08	-2.240091e+01	-6.564367e+02
5.100000e-07	-3.136566e-06	-9.934168e-09	-2.180409e+01	-6.508664e+02
5.200000e-07	-3.049767e-06	-9.841422e-09	-2.120070e+01	-6.452962e+02
5.300000e-07	-2.962069e-06	-9.747720e-09	-2.059106e+01	-6.396447e+02
5.400000e-07	-2.873383e-06	-9.650157e-09	-1.997456e+01	-6.338144e+02
5.500000e-07	-2.783542e-06	-9.548797e-09	-1.935002e+01	-6.277048e+02
5.600000e-07	-2.692545e-06	-9.440337e-09	-1.871744e+01	-6.212258e+02
5.700000e-07	-2.600530e-06	-9.328837e-09	-1.807779e+01	-6.143106e+02
5.800000e-07	-2.507565e-06	-9.214095e-09	-1.743154e+01	-6.069247e+02
5.900000e-07	-2.413768e-06	-9.102740e-09	-1.677951e+01	-5.990720e+02
6.000000e-07	-2.319243e-06	-8.987589e-09	-1.612241e+01	-5.907942e+02
6.100000e-07	-2.223958e-06	-8.865798e-09	-1.546002e+01	-5.821653e+02
6.200000e-07	-2.127929e-06	-8.737741e-09	-1.479247e+01	-5.732815e+02
6.300000e-07	-2.031126e-06	-8.604645e-09	-1.411954e+01	-5.642467e+02
6.400000e-07	-1.933374e-06	-8.471390e-09	-1.344001e+01	-5.551563e+02
6.500000e-07	-1.834736e-06	-8.337265e-09	-1.275432e+01	-5.460819e+02
6.600000e-07	-1.735391e-06	-8.200722e-09	-1.206371e+01	-5.370576e+02
6.700000e-07	-1.635423e-06	-8.056921e-09	-1.136877e+01	-5.280718e+02
6.800000e-07	-1.534941e-06	-7.907579e-09	-1.067027e+01	-5.190638e+02
6.900000e-07	-1.433964e-06	-7.751869e-09	-9.968316e+00	-5.099285e+02
7.000000e-07	-1.332488e-06	-7.588996e-09	-9.262899e+00	-5.005261e+02
7.100000e-07	-1.230558e-06	-7.421530e-09	-8.554323e+00	-4.906984e+02
7.200000e-07	-1.128199e-06	-7.250394e-09	-7.842764e+00	-4.802882e+02
7.300000e-07	-1.025438e-06	-7.077482e-09	-7.128413e+00	-4.691592e+02
7.400000e-07	-9.223251e-07	-6.901678e-09	-6.411618e+00	-4.572150e+02
7.500000e-07	-8.189051e-07	-6.716281e-09	-5.692685e+00	-4.444131e+02
7.600000e-07	-7.151747e-07	-6.517951e-09	-4.971595e+00	-4.307717e+02
7.700000e-07	-6.111980e-07	-6.310463e-09	-4.248793e+00	-4.163692e+02
7.800000e-07	-5.070883e-07	-6.096503e-09	-3.525066e+00	-4.013332e+02
7.900000e-07	-4.028299e-07	-5.877507e-09	-2.800305e+00	-3.858221e+02
8.000000e-07	-2.984449e-07	-5.651890e-09	-2.074664e+00	-3.699998e+02
8.100000e-07	-1.939634e-07	-5.417318e-09	-1.348352e+00	-3.540056e+02
8.200000e-07	-8.937503e-08	-5.174052e-09	-6.212978e-01	-3.379245e+02
8.300000e-07	1.526171e-08	-4.921412e-09	1.060930e-01	-3.217599e+02
8.400000e-07	1.198742e-07	-4.654090e-09	8.333155e-01	-3.054134e+02
8.500000e-07	2.243750e-07	-4.369297e-09	1.559761e+00	-2.886746e+02
8.600000e-07	3.287014e-07	-4.069721e-09	2.284995e+00	-2.712231e+02
8.700000e-07	4.329253e-07	-3.757317e-09	3.009516e+00	-2.526439e+02
8.800000e-07	5.370726e-07	-3.428658e-09	3.733504e+00	-2.324553e+02
8.900000e-07	6.410596e-07	-3.076507e-09	4.456378e+00	-2.101477e+02
9.000000e-07	7.449026e-07	-2.699821e-09	5.178251e+00	-1.852300e+02
9.100000e-07	8.485209e-07	-2.297973e-09	5.898562e+00	-1.572794e+02
9.200000e-07	9.517842e-07	-1.863722e-09	6.616405e+00	-1.259895e+02
9.300000e-07	1.054700e-06	-1.383356e-09	7.331831e+00	-9.121135e+01
9.400000e-07	1.157304e-06	-8.458568e-10	8.045096e+00	-5.298476e+01
9.500000e-07	1.259564e-06	-2.464499e-10	8.755963e+00	-1.155355e+01
9.600000e-07	1.361373e-06	4.202146e-10	9.463697e+00	3.263515e+01
9.700000e-07	1.462655e-06	1.154567e-09	1.016776e+01	7.894928e+01
9.800000e-07	1.563453e-06	1.940190e-09	1.086847e+01	1.266065e+02
9.900000e-07	1.663782e-06	2.743554e-09	1.156592e+01	1.747221e+02
1.000000e-06	1.763603e-06	3.529834e-09	1.225983e+01	2.223668e+02
1.010000e-06	1.862763e-06	4.267713e-09	1.294915e+01	2.686282e+02
1.020000e-06	1.961048e-06	4.936984e-09	1.363238e+01	3.126709e+02
1.030000e-06	2.058454e-06	5.531220e-09	1.430951e+01	3.537906e+02
1.040000e-06	2.155068e-06	6.054144e-09	1.498113e+01	3.914561e+02
1.050000e-06	2.250944e-06	6.517127e-09	1.564762e+01	4.253361e+02
1.060000e-06	2.346082e-06	6.928910e-09	1.630898e+01	4.553095e+02
1.070000e-06	2.440417e-06	7.292757e-09	1.696476e+01	4.814579e+02
1.080000e-06	2.533917e-06	7.613954e-09	1.761473e+01	5.040421e+02
1.090000e-06	2.626646e-06	7.904289e-09	1.825934e+01	5.234649e+02
1.100000e-06	2.718538e-06	8.171543e-09	1.889814e+01	5.402258e+02
1.110000e-06	2.809335e-06	8.417034e-09	1.952932e+01	5.548697e+02
1.120000e-06	2.898930e-06	8.641532e-09	2.015215e+01	5.679383e+02
1.130000e-06	2.987470e-06	8.848983e-09	2.076764e+01	5.799250e+02
1.140000e-06	3.075041e-06	9.042629e-09	2.137640e+01	5.912401e+02
1.150000e-06	3.161572e-06	9.224503e-09	2.197793e+01	6.021880e+02
1.160000e-06	3.247043e-06	9.393505e-09	2.257208e+01	6.129572e+02
1.170000e-06	3.331531e-06	9.549180e-09	2.315941e+01	6.236237e+02
1.180000e-06	3.414923e-06	9.697932e-09	2.373912e+01	6.341663e+02
1.190000e-06	3.496994e-06	9.841897e-09	2.430964e+01	6.444901e+02
1.200000e-06	3.577742e-06	9.976997e-09	2.487096e+01	6.544559e+02
1.210000e-06	3.657207e-06	1.010215e-08	2.542337e+01	6.639109e+02
1.220000e-06	3.735395e-06	1.022096e-08	2.596690e+01	6.727172e+02
1.230000e-06	3.812297e-06	1.033479e-08	2.650149e+01	6.807752e+02
1.240000e-06	3.887699e-06	1.044084e-08	2.702565e+01	6.880389e+02
1.250000e-06	3.961434e-06	1.053855e-08	2.753823e+01	6.945230e+02
1.260000e-06	4.033655e-06	1.063058e-08	2.804028e+01	7.002997e+02
1.270000e-06	4.104505e-06	1.072041e-08	2.853280e+01	7.054890e+02
1.280000e-06	4.174008e-06	1.080649e-08	2.901596e+01	7.102423e+02
1.290000e-06	4.242140e-06	1.088685e-08	2.948958e+01	7.147222e+02
1.300000e-06	4.308683e-06	1.096432e-08	2.995216e+01	7.190825e+02
1.310000e-06	4.373570e-06	1.104009e-08	3.040323e+01	7.234499e+02
1.320000e-06	4.436957e-06	1.111196e-08	3.084387e+01	7.279100e+02
1.330000e-06	4.498887e-06	1.117906e-08	3.127438e+01	7.324997e+02
1.340000e-06	4.559449e-06	1.124374e-08	3.169538e+01	7.372059e+02
1.350000e-06	4.618429e-06	1.130748e-08	3.210538e+01	7.419716e+02
1.360000e-06	4.675524e-06	1.136957e-08	3.250228e+01	7.467062e+02
1.370000e-06	4.730890e-06	1.142862e-08	3.288717e+01	7.513011e+02
1.380000e-06	4.784559e-06	1.148318e-08	3.326025e+01	7.556456e+02
1.390000e-06	4.836305e-06	1.153259e-08	3.361997e+01	7.596432e+02
1.400000e-06	4.885968e-06	1.157830e-08	3.396520e+01	7.632247e+02
1.410000e-06	4.933734e-06	1.162209e-08	3.429725e+01	7.663572e+02
1.420000e-06	4.979838e-06	1.166580e-08	3.461775e+01	7.690473e+02
1.430000e-06	5.024324e-06	1.170820e-08	3.492700e+01	7.713396e+02
1.440000e-06	5.066963e-06	1.174625e-08	3.522340e+01	7.733095e+02
1.450000e-06	5.107676e-06	1.178089e-08	3.550643e+01	7.750519e+02
1.460000e-06	5.146660e-06	1.181374e-08	3.577742e+01	7.766680e+02
1.470000e-06	5.183995e-06	1.184471e-08	3.603696e+01	7.782518e+02
1.480000e-06	5.219592e-06	1.187408e-08	3.628442e+01	7.798777e+02
1.490000e-06	5.253178e-06	1.190178e-08	3.651789e+01	7.815916e+02
1.500000e-06	5.284891e-06	1.192612e-08	3.673835e+01	7.834055e+02
1.510000e-06	5.314929e-06	1.194626e-08	3.694716e+01	7.852980e+02
1.520000e-06	5.343214e-06	1.196473e-08	3.714379e+01	7.872184e+02
1.530000e-06	5.369481e-06	1.198435e-08	3.732639e+01	7.890954e+02
1.540000e-06	5.393664e-06	1.200340e-08	3.749450e+01	7.908478e+02
1.550000e-06	5.416008e-06	1.201855e-08	3.764982e+01	7.923968e+02
1.560000e-06	5.436613e-06	1.203058e-08	3.779305e+01	7.936773e+02
1.570000e-06	5.455356e-06	1.204234e-08	3.792335e+01	7.946471e+02
1.580000e-06	5.472049e-06	1.205490e-08	3.803940e+01	7.952926e+02
1.590000e-06	5.486738e-06	1.206557e-08	3.814151e+01	7.956303e+02
1.600000e-06	5.499426e-06	1.207326e-08	3.822970e+01	7.957046e+02
1.610000e-06	5.509881e-06	1.207938e-08	3.830238e+01	7.955809e+02
1.620000e-06	5.518207e-06	1.208492e-08	3.836027e+01	7.953362e+02
1.630000e-06	5.524674e-06	1.208846e-08	3.840522e+01	7.950487e+02
1.640000e-06	5.529323e-06	1.208801e-08	3.843754e+01	7.947868e+02
1.650000e-06	5.531978e-06	1.208652e-08	3.845599e+01	7.945999e+02
1.660000e-06	5.532554e-06	1.208763e-08	3.846000e+01	7.945117e+02
1.670000e-06	5.531327e-06	1.208629e-08	3.845147e+01	7.945181e+02
1.680000e-06	5.528459e-06	1.208076e-08	3.843153e+01	7.945877e+02
1.690000e-06	5.523762e-06	1.207610e-08	3.839888e+01	7.946671e+02
1.700000e-06	5.517111e-06	1.207005e-08	3.835264e+01	7.946892e+02
1.710000e-06	5.508710e-06	1.206269e-08	3.829424e+01	7.945824e+02
1.720000e-06	5.498734e-06	1.205459e-08	3.822489e+01	7.942819e+02
1.730000e-06	5.486879e-06	1.205163e-08	3.814249e+01	7.937381e+02
1.740000e-06	5.472927e-06	1.203853e-08	3.804550e+01	7.929245e+02
1.750000e-06	5.456986e-06	1.197037e-08	3.793468e+01	7.918409e+02
1.760000e-06	5.438651e-06	1.194699e-08	3.780722e+01	7.905137e+02
1.770000e-06	5.417450e-06	1.195322e-08	3.765984e+01	7.889921e+02
1.780000e-06	5.393897e-06	1.195814e-08	3.749611e+01	7.873408e+02
1.790000e-06	5.369099e-06	1.201451e-08	3.732373e+01	7.856310e+02
1.800000e-06	5.343595e-06	1.190858e-08	3.714644e+01	7.839300e+02
1.810000e-06	5.316526e-06	1.184666e-08	3.695826e+01	7.822914e+02
1.820000e-06	5.287018e-06	1.194401e-08	3.675313e+01	7.807472e+02
1.830000e-06	5.255819e-06	1.184766e-08	3.653625e+01	7.793031e+02
1.840000e-06	5.223014e-06	1.184394e-08	3.630821e+01	7.779369e+02
1.850000e-06	5.188262e-06	1.190579e-08	3.606662e+01	7.766014e+02
1.860000e-06	5.151882e-06	1.177657e-08	3.581373e+01	7.752305e+02
1.870000e-06	5.113469e-06	1.181355e-08	3.554670e+01	7.737478e+02
1.880000e-06	5.073131e-06	1.180314e-08	3.526628e+01	7.720773e+02
1.890000e-06	5.031277e-06	1.167632e-08	3.497533e+01	7.701533e+02
1.900000e-06	4.987545e-06	1.171076e-08	3.467133e+01	7.679298e+02
1.910000e-06	4.941978e-06	1.162850e-08	3.435456e+01	7.653867e+02
1.920000e-06	4.894554e-06	1.160532e-08	3.402489e+01	7.625323e+02
1.930000e-06	4.845236e-06	1.161964e-08	3.368205e+01	7.594028e+02
1.940000e-06	4.794241e-06	1.149198e-08	3.332756e+01	7.560564e+02
1.950000e-06	4.741178e-06	1.149897e-08	3.295868e+01	7.525663e+02
1.960000e-06	4.686168e-06	1.143696e-08	3.257628e+01	7.490094e+02
1.970000e-06	4.629531e-06	1.137128e-08	3.218256e+01	7.454560e+02
1.980000e-06	4.571268e-06	1.133779e-08	3.177754e+01	7.419599e+02
1.990000e-06	4.511494e-06	1.125987e-08	3.136202e+01	7.385501e+02
2.000000e-06	4.449968e-06	1.127020e-08	3.093432e+01	7.352267e+02
2.010000e-06	4.386797e-06	1.118072e-08	3.049517e+01	7.319604e+02
2.020000e-06	4.322150e-06	1.112977e-08	3.004578e+01	7.286958e+02
2.030000e-06	4.256013e-06	1.107716e-08	2.958602e+01	7.253594e+02
2.040000e-06	4.188410e-06	1.097652e-08	2.911607e+01	7.218686e+02
2.050000e-06	4.119029e-06	1.095016e-08	2.863377e+01	7.181438e+02
2.060000e-06	4.048062e-06	1.085347e-08	2.814043e+01	7.141190e+02
2.070000e-06	3.975795e-06	1.080808e-08	2.763806e+01	7.097512e+02
2.080000e-06	3.902136e-06	1.074604e-08	2.712602e+01	7.050262e+02
2.090000e-06	3.826930e-06	1.066920e-08	2.660322e+01	6.999614e+02
2.100000e-06	3.750033e-06	1.061112e-08	2.606866e+01	6.946028e+02
2.110000e-06	3.671642e-06	1.050731e-08	2.552372e+01	6.890190e+02
2.120000e-06	3.591929e-06	1.044786e-08	2.496958e+01	6.832915e+02
2.130000e-06	3.511001e-06	1.035779e-08	2.440701e+01	6.775027e+02
2.140000e-06	3.428950e-06	1.028299e-08	2.383663e+01	6.717238e+02
2.150000e-06	3.345801e-06	1.020133e-08	2.325861e+01	6.660041e+02
2.160000e-06	3.261394e-06	1.010729e-08	2.267185e+01	6.603624e+02
2.170000e-06	3.175620e-06	1.002950e-08	2.207558e+01	6.547837e+02
2.180000e-06	3.088683e-06	9.926832e-09	2.147123e+01	6.492194e+02
2.190000e-06	3.000727e-06	9.833814e-09	2.085980e+01	6.435931e+02
2.200000e-06	2.911815e-06	9.729580e-09	2.024172e+01	6.378095e+02
2.210000e-06	2.821915e-06	9.635210e-09	1.961677e+01	6.317678e+02
2.220000e-06	2.731098e-06	9.535056e-09	1.898545e+01	6.253745e+02
2.230000e-06	2.639389e-06	9.427236e-09	1.834793e+01	6.185567e+02
2.240000e-06	2.546644e-06	9.316873e-09	1.770320e+01	6.112726e+02
2.250000e-06	2.452865e-06	9.200851e-09	1.705129e+01	6.035175e+02
2.260000e-06	2.358128e-06	9.091506e-09	1.639272e+01	5.953254e+02
2.270000e-06	2.262536e-06	8.975948e-09	1.572821e+01	5.867641e+02
2.280000e-06	2.166252e-06	8.863111e-09	1.505888e+01	5.779261e+02
2.290000e-06	2.069288e-06	8.738475e-09	1.438482e+01	5.689149e+02
2.300000e-06	1.971602e-06	8.606984e-09	1.370575e+01	5.598293e+02
2.310000e-06	1.873331e-06	8.469822e-09	1.302261e+01	5.507470e+02
2.320000e-06	1.774551e-06	8.327627e-09	1.233593e+01	5.417112e+02
2.330000e-06	1.675251e-06	8.183204e-09	1.164564e+01	5.327204e+02
2.340000e-06	1.575378e-06	8.036072e-09	1.095137e+01	5.237245e+02
2.350000e-06	1.474796e-06	7.891465e-09	1.025217e+01	5.146272e+02
2.360000e-06	1.373471e-06	7.739914e-09	9.547798e+00	5.052948e+02
2.370000e-06	1.271551e-06	7.582257e-09	8.839293e+00	4.955718e+02
2.380000e-06	1.169153e-06	7.411827e-09	8.127461e+00	4.852988e+02
2.390000e-06	1.066335e-06	7.233017e-09	7.412711e+00	4.743334e+02
2.400000e-06	9.631683e-07	7.053514e-09	6.695543e+00	4.625694e+02
2.410000e-06	8.596493e-07	6.871276e-09	5.975922e+00	4.499517e+02
2.420000e-06	7.557948e-07	6.682719e-09	5.253969e+00	4.364854e+02
2.430000e-06	6.516798e-07	6.481669e-09	4.530205e+00	4.222366e+02
2.440000e-06	5.473547e-07	6.270500e-09	3.804980e+00	4.073236e+02
2.450000e-06	4.428929e-07	6.052670e-09	3.078806e+00	3.919001e+02
2.460000e-06	3.383083e-07	5.828600e-09	2.351777e+00	3.761313e+02
2.470000e-06	2.335869e-07	5.595241e-09	1.623798e+00	3.601644e+02
2.480000e-06	1.287778e-07	5.351739e-09	8.952093e-01	3.440984e+02
2.490000e-06	2.389094e-08	5.098489e-09	1.660798e-01	3.279562e+02
2.500000e-06	-8.095174e-08	4.835109e-09	-5.627426e-01	3.116624e+02
2.510000e-06	-1.857000e-07	4.557340e-09	-1.290909e+00	2.950308e+02
2.520000e-06	-2.903966e-07	4.261307e-09	-2.018715e+00	2.777640e+02
2.530000e-06	-3.950123e-07	3.949829e-09	-2.745960e+00	2.594651e+02
2.540000e-06	-4.994863e-07	3.623969e-09	-3.472220e+00	2.396639e+02
2.550000e-06	-6.037446e-07	3.281456e-09	-4.196979e+00	2.178529e+02
2.560000e-06	-7.077765e-07	2.917439e-09	-4.920166e+00	1.935331e+02
2.570000e-06	-8.115352e-07	2.524975e-09	-5.641453e+00	1.662628e+02
2.580000e-06	-9.150212e-07	2.098882e-09	-6.360845e+00	1.357067e+02
2.590000e-06	-1.018193e-06	1.633176e-09	-7.078049e+00	1.016794e+02
2.600000e-06	-1.120977e-06	1.114024e-09	-7.792564e+00	6.417817e+01
2.610000e-06	-1.223325e-06	5.315798e-10	-8.504047e+00	2.340266e+01
2.620000e-06	-1.325171e-06	-1.150192e-10	-9.212033e+00	-2.024260e+01
2.630000e-06	-1.426370e-06	-8.255656e-10	-9.915525e+00	-6.616280e+01
2.640000e-06	-1.526839e-06	-1.594661e-09	-1.061395e+01	-1.136041e+02
2.650000e-06	-1.626740e-06	-2.399789e-09	-1.130841e+01	-1.616993e+02
2.660000e-06	-1.726115e-06	-3.201504e-09	-1.199923e+01	-2.095234e+02
2.670000e-06	-1.824882e-06	-3.961016e-09	-1.268582e+01	-2.561551e+02
2.680000e-06	-1.923021e-06	-4.657573e-09	-1.336804e+01	-3.007378e+02
2.690000e-06	-2.020551e-06	-5.283936e-09	-1.404603e+01	-3.425352e+02
2.700000e-06	-2.117418e-06	-5.838941e-09	-1.471940e+01	-3.809760e+02
2.710000e-06	-2.213555e-06	-6.325584e-09	-1.538771e+01	-4.156846e+02
2.720000e-06	-2.309035e-06	-6.751384e-09	-1.605144e+01	-4.464950e+02
2.730000e-06	-2.403850e-06	-7.130358e-09	-1.671056e+01	-4.734469e+02
2.740000e-06	-2.497833e-06	-7.471554e-09	-1.736389e+01	-4.967652e+02
2.750000e-06	-2.590748e-06	-7.780898e-09	-1.800979e+01	-5.168261e+02
2.760000e-06	-2.682545e-06	-8.060101e-09	-1.864793e+01	-5.341124e+02
2.770000e-06	-2.773350e-06	-8.309575e-09	-1.927917e+01	-5.491637e+02
2.780000e-06	-2.863189e-06	-8.540755e-09	-1.990369e+01	-5.625262e+02
2.790000e-06	-2.951969e-06	-8.760342e-09	-2.052085e+01	-5.747070e+02
2.800000e-06	-3.039765e-06	-8.963421e-09	-2.113117e+01	-5.861367e+02
2.810000e-06	-3.126637e-06	-9.149279e-09	-2.173507e+01	-5.971436e+02
2.820000e-06	-3.212370e-06	-9.325724e-09	-2.233105e+01	-6.079410e+02
2.830000e-06	-3.296760e-06	-9.493754e-09	-2.291769e+01	-6.186285e+02
2.840000e-06	-3.379913e-06	-9.647745e-09	-2.349574e+01	-6.292037e+02
2.850000e-06	-3.462001e-06	-9.788305e-09	-2.406638e+01	-6.395852e+02
2.860000e-06	-3.542966e-06	-9.920142e-09	-2.462921e+01	-6.496407e+02
2.870000e-06	-3.622788e-06	-1.004508e-08	-2.518410e+01	-6.592177e+02
2.880000e-06	-3.701317e-06	-1.016487e-08	-2.573000e+01	-6.681731e+02
2.890000e-06	-3.778259e-06	-1.027950e-08	-2.626487e+01	-6.763974e+02
2.900000e-06	-3.853624e-06	-1.038966e-08	-2.678878e+01	-6.838324e+02
2.910000e-06	-3.927530e-06	-1.049649e-08	-2.730255e+01	-6.904794e+02
2.920000e-06	-4.000045e-06	-1.059732e-08	-2.780664e+01	-6.963991e+02
2.930000e-06	-4.071211e-06	-1.069083e-08	-2.830135e+01	-7.017025e+02
2.940000e-06	-4.140888e-06	-1.077741e-08	-2.878572e+01	-7.065357e+02
