# Temperatura_=_32.25
# Concentracion g/m^3_=_15500.0
# C_Vs_to_Am_M_A/Vsm_=_65563218390.804596
# pendiente_HvsI_1/m_=_3716.3
# ordenada_HvsI_A/m_=_1297.0
# frecuencia_Hz_=_300814.39783446694

Tiempo_(s)	Campo_(V.s)	Magnetizacion_(V.s)	Campo_(kA/m)	Magnetizacion_(A/m)
0.000000e+00	-5.491842e-06	-1.209655e-08	-3.830756e+01	-7.902748e+02
1.000000e-08	-5.490467e-06	-1.209947e-08	-3.829797e+01	-7.902817e+02
2.000000e-08	-5.487093e-06	-1.209923e-08	-3.827444e+01	-7.903401e+02
3.000000e-08	-5.481954e-06	-1.209414e-08	-3.823860e+01	-7.903972e+02
4.000000e-08	-5.475225e-06	-1.208806e-08	-3.819166e+01	-7.903876e+02
5.000000e-08	-5.466930e-06	-1.207876e-08	-3.813379e+01	-7.902425e+02
6.000000e-08	-5.456745e-06	-1.206214e-08	-3.806275e+01	-7.899000e+02
7.000000e-08	-5.444367e-06	-1.203624e-08	-3.797641e+01	-7.893137e+02
8.000000e-08	-5.430015e-06	-1.200615e-08	-3.787630e+01	-7.884598e+02
9.000000e-08	-5.413460e-06	-1.203686e-08	-3.776082e+01	-7.873401e+02
1.000000e-07	-5.394514e-06	-1.206500e-08	-3.762867e+01	-7.859817e+02
1.100000e-07	-5.373518e-06	-1.201425e-08	-3.748221e+01	-7.844332e+02
1.200000e-07	-5.350652e-06	-1.198363e-08	-3.732271e+01	-7.827578e+02
1.300000e-07	-5.326239e-06	-1.192226e-08	-3.715242e+01	-7.810241e+02
1.400000e-07	-5.300422e-06	-1.184604e-08	-3.697234e+01	-7.792959e+02
1.500000e-07	-5.272796e-06	-1.196580e-08	-3.677964e+01	-7.776234e+02
1.600000e-07	-5.243317e-06	-1.188402e-08	-3.657402e+01	-7.760355e+02
1.700000e-07	-5.212306e-06	-1.176864e-08	-3.635770e+01	-7.745354e+02
1.800000e-07	-5.179548e-06	-1.191120e-08	-3.612920e+01	-7.730997e+02
1.900000e-07	-5.144649e-06	-1.180292e-08	-3.588577e+01	-7.716813e+02
2.000000e-07	-5.108107e-06	-1.173119e-08	-3.563088e+01	-7.702155e+02
2.100000e-07	-5.069959e-06	-1.178037e-08	-3.536478e+01	-7.686289e+02
2.200000e-07	-5.029925e-06	-1.164552e-08	-3.508553e+01	-7.668493e+02
2.300000e-07	-4.988044e-06	-1.165087e-08	-3.479339e+01	-7.648157e+02
2.400000e-07	-4.944130e-06	-1.168327e-08	-3.448708e+01	-7.624868e+02
2.500000e-07	-4.898428e-06	-1.158282e-08	-3.416829e+01	-7.598468e+02
2.600000e-07	-4.851049e-06	-1.156631e-08	-3.383781e+01	-7.569078e+02
2.700000e-07	-4.801732e-06	-1.147914e-08	-3.349380e+01	-7.537082e+02
2.800000e-07	-4.750288e-06	-1.142314e-08	-3.313496e+01	-7.503076e+02
2.900000e-07	-4.696795e-06	-1.141267e-08	-3.276183e+01	-7.467787e+02
3.000000e-07	-4.641603e-06	-1.136279e-08	-3.237684e+01	-7.431970e+02
3.100000e-07	-4.584808e-06	-1.131974e-08	-3.198068e+01	-7.396304e+02
3.200000e-07	-4.526200e-06	-1.127248e-08	-3.157187e+01	-7.361294e+02
3.300000e-07	-4.465900e-06	-1.124568e-08	-3.115125e+01	-7.327199e+02
3.400000e-07	-4.404110e-06	-1.114591e-08	-3.072025e+01	-7.293991e+02
3.500000e-07	-4.340827e-06	-1.106544e-08	-3.027883e+01	-7.261356e+02
3.600000e-07	-4.276088e-06	-1.102513e-08	-2.982725e+01	-7.228729e+02
3.700000e-07	-4.209696e-06	-1.095265e-08	-2.936414e+01	-7.195372e+02
3.800000e-07	-4.141577e-06	-1.092230e-08	-2.888898e+01	-7.160470e+02
3.900000e-07	-4.072001e-06	-1.086677e-08	-2.840367e+01	-7.123245e+02
4.000000e-07	-4.001146e-06	-1.078747e-08	-2.790943e+01	-7.083058e+02
4.100000e-07	-3.929065e-06	-1.072648e-08	-2.740664e+01	-7.039501e+02
4.200000e-07	-3.855577e-06	-1.064227e-08	-2.689403e+01	-6.992456e+02
4.300000e-07	-3.780404e-06	-1.056168e-08	-2.636967e+01	-6.942106e+02
4.400000e-07	-3.703532e-06	-1.047538e-08	-2.583346e+01	-6.888915e+02
4.500000e-07	-3.625206e-06	-1.041556e-08	-2.528711e+01	-6.833560e+02
4.600000e-07	-3.545400e-06	-1.035117e-08	-2.473044e+01	-6.776837e+02
4.700000e-07	-3.464132e-06	-1.026892e-08	-2.416356e+01	-6.719540e+02
4.800000e-07	-3.381641e-06	-1.018598e-08	-2.358816e+01	-6.662346e+02
4.900000e-07	-3.298035e-06	-1.008626e-08	-2.300498e+01	-6.605710e+02
5.000000e-07	-3.213445e-06	-1.000089e-08	-2.241493e+01	-6.549789e+02
5.100000e-07	-3.127899e-06	-9.904257e-09	-2.181821e+01	-6.494406e+02
5.200000e-07	-3.041401e-06	-9.808542e-09	-2.121486e+01	-6.439058e+02
5.300000e-07	-2.953934e-06	-9.717367e-09	-2.060475e+01	-6.382978e+02
5.400000e-07	-2.865506e-06	-9.622682e-09	-1.998793e+01	-6.325226e+02
5.500000e-07	-2.776005e-06	-9.524129e-09	-1.936363e+01	-6.264816e+02
5.600000e-07	-2.685332e-06	-9.415263e-09	-1.873115e+01	-6.200843e+02
5.700000e-07	-2.593626e-06	-9.306636e-09	-1.809147e+01	-6.132615e+02
5.800000e-07	-2.500999e-06	-9.194289e-09	-1.744537e+01	-6.059748e+02
5.900000e-07	-2.407532e-06	-9.085658e-09	-1.679340e+01	-5.982222e+02
6.000000e-07	-2.313258e-06	-8.970248e-09	-1.613580e+01	-5.900395e+02
6.100000e-07	-2.218200e-06	-8.847882e-09	-1.547274e+01	-5.814948e+02
6.200000e-07	-2.122405e-06	-8.720832e-09	-1.480453e+01	-5.726793e+02
6.300000e-07	-2.025911e-06	-8.589098e-09	-1.413145e+01	-5.636937e+02
6.400000e-07	-1.928638e-06	-8.459759e-09	-1.345294e+01	-5.546328e+02
6.500000e-07	-1.830441e-06	-8.327078e-09	-1.276798e+01	-5.455698e+02
6.600000e-07	-1.731436e-06	-8.188744e-09	-1.207739e+01	-5.365431e+02
6.700000e-07	-1.631812e-06	-8.045302e-09	-1.138247e+01	-5.275469e+02
6.800000e-07	-1.531666e-06	-7.900665e-09	-1.068392e+01	-5.185277e+02
6.900000e-07	-1.431002e-06	-7.746680e-09	-9.981753e+00	-5.093877e+02
7.000000e-07	-1.329796e-06	-7.581883e-09	-9.275804e+00	-4.999936e+02
7.100000e-07	-1.228157e-06	-7.412669e-09	-8.566839e+00	-4.901920e+02
7.200000e-07	-1.126104e-06	-7.242633e-09	-7.854982e+00	-4.798275e+02
7.300000e-07	-1.023663e-06	-7.072171e-09	-7.140413e+00	-4.687630e+02
7.400000e-07	-9.209029e-07	-6.898092e-09	-6.423628e+00	-4.568983e+02
7.500000e-07	-8.178230e-07	-6.714340e-09	-5.704609e+00	-4.441841e+02
7.600000e-07	-7.144507e-07	-6.517321e-09	-4.983550e+00	-4.306306e+02
7.700000e-07	-6.108482e-07	-6.310508e-09	-4.260885e+00	-4.163071e+02
7.800000e-07	-5.070919e-07	-6.096115e-09	-3.537148e+00	-4.013332e+02
7.900000e-07	-4.032342e-07	-5.876378e-09	-2.812703e+00	-3.858615e+02
8.000000e-07	-2.992536e-07	-5.649857e-09	-2.087401e+00	-3.700532e+02
8.100000e-07	-1.951566e-07	-5.417378e-09	-1.361287e+00	-3.540497e+02
8.200000e-07	-9.099519e-08	-5.176945e-09	-6.347241e-01	-3.379429e+02
8.300000e-07	1.321542e-08	-4.925587e-09	9.218228e-02	-3.217476e+02
8.400000e-07	1.174242e-07	-4.658930e-09	8.190759e-01	-3.053812e+02
8.500000e-07	2.215700e-07	-4.376238e-09	1.545530e+00	-2.886515e+02
8.600000e-07	3.256227e-07	-4.080659e-09	2.271335e+00	-2.712575e+02
8.700000e-07	4.295436e-07	-3.769254e-09	2.996221e+00	-2.528025e+02
8.800000e-07	5.333393e-07	-3.439960e-09	3.720233e+00	-2.328198e+02
8.900000e-07	6.370202e-07	-3.089709e-09	4.443444e+00	-2.108095e+02
9.000000e-07	7.405226e-07	-2.718174e-09	5.165411e+00	-1.862837e+02
9.100000e-07	8.438309e-07	-2.321898e-09	5.886023e+00	-1.588145e+02
9.200000e-07	9.468461e-07	-1.893178e-09	6.604591e+00	-1.280822e+02
9.300000e-07	1.049476e-06	-1.418898e-09	7.320469e+00	-9.391738e+01
9.400000e-07	1.151745e-06	-8.906664e-10	8.033835e+00	-5.633236e+01
9.500000e-07	1.253651e-06	-3.049149e-10	8.744663e+00	-1.553934e+01
9.600000e-07	1.355154e-06	3.468165e-10	9.452684e+00	2.804812e+01
9.700000e-07	1.456186e-06	1.066681e-09	1.015742e+01	7.383068e+01
9.800000e-07	1.556713e-06	1.841311e-09	1.085863e+01	1.210550e+02
9.900000e-07	1.656681e-06	2.638386e-09	1.155594e+01	1.688593e+02
1.000000e-06	1.756041e-06	3.423767e-09	1.224902e+01	2.163289e+02
1.010000e-06	1.854751e-06	4.165531e-09	1.293755e+01	2.625563e+02
1.020000e-06	1.952693e-06	4.841421e-09	1.362074e+01	3.067015e+02
1.030000e-06	2.049740e-06	5.443904e-09	1.429767e+01	3.480460e+02
1.040000e-06	2.145974e-06	5.976572e-09	1.496894e+01	3.860359e+02
1.050000e-06	2.241544e-06	6.447898e-09	1.563557e+01	4.203117e+02
1.060000e-06	2.336387e-06	6.863782e-09	1.629714e+01	4.507204e+02
1.070000e-06	2.430435e-06	7.232070e-09	1.695315e+01	4.773110e+02
1.080000e-06	2.523733e-06	7.559707e-09	1.760394e+01	5.003139e+02
1.090000e-06	2.616252e-06	7.856302e-09	1.824930e+01	5.201062e+02
1.100000e-06	2.707833e-06	8.127479e-09	1.888811e+01	5.371679e+02
1.110000e-06	2.798316e-06	8.374605e-09	1.951925e+01	5.520328e+02
1.120000e-06	2.887624e-06	8.599144e-09	2.014221e+01	5.652391e+02
1.130000e-06	2.975867e-06	8.807505e-09	2.075774e+01	5.772848e+02
1.140000e-06	3.063144e-06	9.001799e-09	2.136653e+01	5.885915e+02
1.150000e-06	3.149402e-06	9.181774e-09	2.196821e+01	5.994794e+02
1.160000e-06	3.234648e-06	9.348924e-09	2.256283e+01	6.101560e+02
1.170000e-06	3.318885e-06	9.503656e-09	2.315041e+01	6.207166e+02
1.180000e-06	3.401983e-06	9.652050e-09	2.373005e+01	6.311579e+02
1.190000e-06	3.483851e-06	9.795426e-09	2.430111e+01	6.413994e+02
1.200000e-06	3.564377e-06	9.930394e-09	2.486281e+01	6.513117e+02
1.210000e-06	3.643550e-06	1.005442e-08	2.541507e+01	6.607466e+02
1.220000e-06	3.721475e-06	1.017140e-08	2.595862e+01	6.695657e+02
1.230000e-06	3.798098e-06	1.028492e-08	2.649309e+01	6.776640e+02
1.240000e-06	3.873236e-06	1.039153e-08	2.701721e+01	6.849871e+02
1.250000e-06	3.946723e-06	1.048623e-08	2.752981e+01	6.915385e+02
1.260000e-06	4.018721e-06	1.057351e-08	2.803202e+01	6.973797e+02
1.270000e-06	4.089370e-06	1.066235e-08	2.852482e+01	7.026206e+02
1.280000e-06	4.158635e-06	1.075193e-08	2.900797e+01	7.074049e+02
1.290000e-06	4.226516e-06	1.083464e-08	2.948146e+01	7.118912e+02
1.300000e-06	4.292782e-06	1.090956e-08	2.994369e+01	7.162329e+02
1.310000e-06	4.357381e-06	1.098235e-08	3.039429e+01	7.205600e+02
1.320000e-06	4.420523e-06	1.105484e-08	3.083473e+01	7.249646e+02
1.330000e-06	4.482228e-06	1.112433e-08	3.126515e+01	7.294922e+02
1.340000e-06	4.542525e-06	1.118808e-08	3.168574e+01	7.341397e+02
1.350000e-06	4.601257e-06	1.124779e-08	3.209542e+01	7.388594e+02
1.360000e-06	4.658165e-06	1.130795e-08	3.249237e+01	7.435691e+02
1.370000e-06	4.713374e-06	1.136885e-08	3.287748e+01	7.481656e+02
1.380000e-06	4.766945e-06	1.142683e-08	3.325115e+01	7.525411e+02
1.390000e-06	4.818511e-06	1.147658e-08	3.361084e+01	7.565985e+02
1.400000e-06	4.867968e-06	1.152110e-08	3.395582e+01	7.602651e+02
1.410000e-06	4.915616e-06	1.156696e-08	3.428818e+01	7.635017e+02
1.420000e-06	4.961601e-06	1.161380e-08	3.460895e+01	7.663074e+02
1.430000e-06	5.006036e-06	1.165566e-08	3.491890e+01	7.687183e+02
1.440000e-06	5.048619e-06	1.169060e-08	3.521593e+01	7.708016e+02
1.450000e-06	5.089202e-06	1.172591e-08	3.549901e+01	7.726456e+02
1.460000e-06	5.128119e-06	1.176485e-08	3.577047e+01	7.743469e+02
1.470000e-06	5.165428e-06	1.180169e-08	3.603071e+01	7.759976e+02
1.480000e-06	5.200960e-06	1.183105e-08	3.627856e+01	7.776723e+02
1.490000e-06	5.234457e-06	1.185565e-08	3.651221e+01	7.794198e+02
1.500000e-06	5.266090e-06	1.188118e-08	3.673287e+01	7.812568e+02
1.510000e-06	5.296070e-06	1.190700e-08	3.694199e+01	7.831674e+02
1.520000e-06	5.324308e-06	1.192759e-08	3.713896e+01	7.851070e+02
1.530000e-06	5.350510e-06	1.194344e-08	3.732172e+01	7.870092e+02
1.540000e-06	5.374614e-06	1.196141e-08	3.748986e+01	7.887968e+02
1.550000e-06	5.396874e-06	1.198323e-08	3.764513e+01	7.903929e+02
1.560000e-06	5.417450e-06	1.200131e-08	3.778865e+01	7.917322e+02
1.570000e-06	5.436249e-06	1.201158e-08	3.791978e+01	7.927704e+02
1.580000e-06	5.452997e-06	1.202174e-08	3.803661e+01	7.934901e+02
1.590000e-06	5.467715e-06	1.203402e-08	3.813927e+01	7.939032e+02
1.600000e-06	5.480422e-06	1.204435e-08	3.822791e+01	7.940487e+02
1.610000e-06	5.490871e-06	1.204997e-08	3.830079e+01	7.939870e+02
1.620000e-06	5.499200e-06	1.205507e-08	3.835889e+01	7.937914e+02
1.630000e-06	5.505670e-06	1.206151e-08	3.840402e+01	7.935378e+02
1.640000e-06	5.510349e-06	1.206473e-08	3.843666e+01	7.932940e+02
1.650000e-06	5.513069e-06	1.206435e-08	3.845563e+01	7.931106e+02
1.660000e-06	5.513695e-06	1.206611e-08	3.846000e+01	7.930144e+02
1.670000e-06	5.512484e-06	1.206550e-08	3.845155e+01	7.930051e+02
1.680000e-06	5.509653e-06	1.205999e-08	3.843180e+01	7.930562e+02
1.690000e-06	5.505043e-06	1.205433e-08	3.839965e+01	7.931186e+02
1.700000e-06	5.498481e-06	1.204550e-08	3.835388e+01	7.931290e+02
1.710000e-06	5.490190e-06	1.203601e-08	3.829605e+01	7.930183e+02
1.720000e-06	5.480254e-06	1.202905e-08	3.822674e+01	7.927224e+02
1.730000e-06	5.468431e-06	1.203180e-08	3.814427e+01	7.921911e+02
1.740000e-06	5.454507e-06	1.203113e-08	3.804714e+01	7.913952e+02
1.750000e-06	5.438601e-06	1.193841e-08	3.793619e+01	7.903308e+02
1.760000e-06	5.420297e-06	1.191270e-08	3.780851e+01	7.890199e+02
1.770000e-06	5.399097e-06	1.192754e-08	3.766064e+01	7.875070e+02
1.780000e-06	5.375624e-06	1.192273e-08	3.749690e+01	7.858529e+02
1.790000e-06	5.350908e-06	1.201976e-08	3.732450e+01	7.841258e+02
1.800000e-06	5.325541e-06	1.186852e-08	3.714756e+01	7.823915e+02
1.810000e-06	5.298676e-06	1.179945e-08	3.696016e+01	7.807036e+02
1.820000e-06	5.269277e-06	1.196628e-08	3.675510e+01	7.790962e+02
1.830000e-06	5.238171e-06	1.179538e-08	3.653812e+01	7.775783e+02
1.840000e-06	5.205487e-06	1.179971e-08	3.631014e+01	7.761318e+02
1.850000e-06	5.170831e-06	1.191352e-08	3.606840e+01	7.747145e+02
1.860000e-06	5.134597e-06	1.170945e-08	3.581565e+01	7.732647e+02
1.870000e-06	5.096332e-06	1.179086e-08	3.554874e+01	7.717101e+02
1.880000e-06	5.056135e-06	1.179587e-08	3.526836e+01	7.699774e+02
1.890000e-06	5.014473e-06	1.161362e-08	3.497774e+01	7.680023e+02
1.900000e-06	4.970912e-06	1.169400e-08	3.467389e+01	7.657388e+02
1.910000e-06	4.925536e-06	1.157017e-08	3.435738e+01	7.631652e+02
1.920000e-06	4.878351e-06	1.155679e-08	3.402825e+01	7.602877e+02
1.930000e-06	4.829299e-06	1.161571e-08	3.368609e+01	7.571394e+02
1.940000e-06	4.778616e-06	1.143260e-08	3.333256e+01	7.537759e+02
1.950000e-06	4.725806e-06	1.147115e-08	3.296419e+01	7.502679e+02
1.960000e-06	4.671057e-06	1.140619e-08	3.258230e+01	7.466912e+02
1.970000e-06	4.614738e-06	1.133302e-08	3.218945e+01	7.431162e+02
1.980000e-06	4.556709e-06	1.130518e-08	3.178468e+01	7.395978e+02
1.990000e-06	4.497194e-06	1.120598e-08	3.136954e+01	7.361678e+02
2.000000e-06	4.435964e-06	1.125321e-08	3.094244e+01	7.328296e+02
2.010000e-06	4.373056e-06	1.114339e-08	3.050363e+01	7.295576e+02
2.020000e-06	4.308667e-06	1.110524e-08	3.005450e+01	7.263003e+02
2.030000e-06	4.242757e-06	1.105153e-08	2.959475e+01	7.229869e+02
2.040000e-06	4.175438e-06	1.092483e-08	2.912518e+01	7.195365e+02
2.050000e-06	4.106376e-06	1.093567e-08	2.864344e+01	7.158696e+02
2.060000e-06	4.035706e-06	1.082155e-08	2.815049e+01	7.119185e+02
2.070000e-06	3.963694e-06	1.078729e-08	2.764819e+01	7.076369e+02
2.080000e-06	3.890332e-06	1.072199e-08	2.713646e+01	7.030064e+02
2.090000e-06	3.815519e-06	1.064312e-08	2.661461e+01	6.980390e+02
2.100000e-06	3.738942e-06	1.060366e-08	2.608046e+01	6.927755e+02
2.110000e-06	3.660792e-06	1.048046e-08	2.553533e+01	6.872798e+02
2.120000e-06	3.581327e-06	1.042964e-08	2.498104e+01	6.816298e+02
2.130000e-06	3.500715e-06	1.033152e-08	2.441874e+01	6.759059e+02
2.140000e-06	3.418949e-06	1.026711e-08	2.384840e+01	6.701794e+02
2.150000e-06	3.336071e-06	1.018869e-08	2.327029e+01	6.645013e+02
2.160000e-06	3.252011e-06	1.009065e-08	2.268394e+01	6.588941e+02
2.170000e-06	3.166518e-06	1.002297e-08	2.208760e+01	6.533472e+02
2.180000e-06	3.079858e-06	9.914961e-09	2.148311e+01	6.478172e+02
2.190000e-06	2.992229e-06	9.830095e-09	2.087187e+01	6.422322e+02
2.200000e-06	2.903641e-06	9.720549e-09	2.025394e+01	6.365010e+02
2.210000e-06	2.814056e-06	9.625372e-09	1.962905e+01	6.305249e+02
2.220000e-06	2.723538e-06	9.527363e-09	1.899765e+01	6.242105e+02
2.230000e-06	2.632175e-06	9.421994e-09	1.836036e+01	6.174831e+02
2.240000e-06	2.539809e-06	9.315634e-09	1.771608e+01	6.102971e+02
2.250000e-06	2.446389e-06	9.196380e-09	1.706444e+01	6.026425e+02
2.260000e-06	2.351985e-06	9.090362e-09	1.640594e+01	5.945470e+02
2.270000e-06	2.256797e-06	8.973624e-09	1.574197e+01	5.860726e+02
2.280000e-06	2.160831e-06	8.860709e-09	1.507257e+01	5.773065e+02
2.290000e-06	2.064125e-06	8.735876e-09	1.439801e+01	5.683488e+02
2.300000e-06	1.966756e-06	8.606777e-09	1.371883e+01	5.592968e+02
2.310000e-06	1.868694e-06	8.474267e-09	1.303481e+01	5.502295e+02
2.320000e-06	1.770145e-06	8.334726e-09	1.234740e+01	5.411938e+02
2.330000e-06	1.671168e-06	8.189309e-09	1.165700e+01	5.321937e+02
2.340000e-06	1.571649e-06	8.039106e-09	1.096281e+01	5.231861e+02
2.350000e-06	1.471528e-06	7.897763e-09	1.026444e+01	5.140820e+02
2.360000e-06	1.370745e-06	7.748956e-09	9.561435e+00	5.047547e+02
2.370000e-06	1.269329e-06	7.590773e-09	8.854023e+00	4.950535e+02
2.380000e-06	1.167381e-06	7.418287e-09	8.142902e+00	4.848219e+02
2.390000e-06	1.065021e-06	7.240754e-09	7.428904e+00	4.739173e+02
2.400000e-06	9.622894e-07	7.061365e-09	6.712313e+00	4.622299e+02
2.410000e-06	8.591105e-07	6.875349e-09	5.992604e+00	4.496988e+02
2.420000e-06	7.555926e-07	6.685936e-09	5.270529e+00	4.363211e+02
2.430000e-06	6.518411e-07	6.487258e-09	4.546826e+00	4.221539e+02
2.440000e-06	5.478642e-07	6.278959e-09	3.821549e+00	4.073071e+02
2.450000e-06	4.437029e-07	6.062326e-09	3.094987e+00	3.919282e+02
2.460000e-06	3.394205e-07	5.836742e-09	2.367580e+00	3.761788e+02
2.470000e-06	2.350607e-07	5.601019e-09	1.639633e+00	3.602072e+02
2.480000e-06	1.306026e-07	5.357550e-09	9.110000e-01	3.441181e+02
2.490000e-06	2.608998e-08	5.106708e-09	1.819869e-01	3.279450e+02
2.500000e-06	-7.839559e-08	4.845895e-09	-5.468373e-01	3.116274e+02
2.510000e-06	-1.828221e-07	4.569072e-09	-1.275250e+00	2.949971e+02
2.520000e-06	-2.872012e-07	4.273801e-09	-2.003331e+00	2.777758e+02
2.530000e-06	-3.914677e-07	3.966295e-09	-2.730627e+00	2.595854e+02
2.540000e-06	-4.955908e-07	3.643961e-09	-3.456923e+00	2.399714e+02
2.550000e-06	-5.995578e-07	3.301325e-09	-4.182131e+00	2.184377e+02
2.560000e-06	-7.032990e-07	2.936198e-09	-4.905762e+00	1.944896e+02
2.570000e-06	-8.067517e-07	2.546876e-09	-5.627383e+00	1.676822e+02
2.580000e-06	-9.098846e-07	2.127980e-09	-6.346772e+00	1.376690e+02
2.590000e-06	-1.012688e-06	1.668450e-09	-7.063862e+00	1.042450e+02
2.600000e-06	-1.115027e-06	1.156824e-09	-7.777711e+00	6.738182e+01
2.610000e-06	-1.216868e-06	5.854716e-10	-8.488088e+00	2.724799e+01
2.620000e-06	-1.318226e-06	-4.661823e-11	-9.195098e+00	-1.578533e+01
2.630000e-06	-1.419056e-06	-7.443393e-10	-9.898427e+00	-6.115646e+01
2.640000e-06	-1.519257e-06	-1.504803e-09	-1.059736e+01	-1.081416e+02
2.650000e-06	-1.618783e-06	-2.303289e-09	-1.129159e+01	-1.558979e+02
2.660000e-06	-1.717732e-06	-3.100176e-09	-1.198179e+01	-2.035170e+02
2.670000e-06	-1.816166e-06	-3.858761e-09	-1.266841e+01	-2.500846e+02
2.680000e-06	-1.914023e-06	-4.560648e-09	-1.335099e+01	-2.947416e+02
2.690000e-06	-2.011212e-06	-5.197858e-09	-1.402893e+01	-3.367392e+02
2.700000e-06	-2.107785e-06	-5.762301e-09	-1.470255e+01	-3.754853e+02
2.710000e-06	-2.203758e-06	-6.252904e-09	-1.537200e+01	-4.105771e+02
2.720000e-06	-2.299093e-06	-6.682713e-09	-1.603700e+01	-4.418171e+02
2.730000e-06	-2.393657e-06	-7.069428e-09	-1.669661e+01	-4.692124e+02
2.740000e-06	-2.487278e-06	-7.418333e-09	-1.734965e+01	-4.929569e+02
2.750000e-06	-2.579831e-06	-7.727467e-09	-1.799525e+01	-5.133997e+02
2.760000e-06	-2.671291e-06	-8.002416e-09	-1.863321e+01	-5.310029e+02
2.770000e-06	-2.761809e-06	-8.253656e-09	-1.926461e+01	-5.462928e+02
2.780000e-06	-2.851379e-06	-8.490984e-09	-1.988939e+01	-5.598108e+02
2.790000e-06	-2.939911e-06	-8.714213e-09	-2.050694e+01	-5.720668e+02
2.800000e-06	-3.027488e-06	-8.916698e-09	-2.111781e+01	-5.835013e+02
2.810000e-06	-3.114110e-06	-9.103115e-09	-2.172204e+01	-5.944578e+02
2.820000e-06	-3.199524e-06	-9.280803e-09	-2.231783e+01	-6.051680e+02
2.830000e-06	-3.283602e-06	-9.446336e-09	-2.290430e+01	-6.157509e+02
2.840000e-06	-3.366505e-06	-9.594885e-09	-2.348258e+01	-6.262225e+02
2.850000e-06	-3.448350e-06	-9.730966e-09	-2.405348e+01	-6.365166e+02
2.860000e-06	-3.529084e-06	-9.864277e-09	-2.461662e+01	-6.465119e+02
2.870000e-06	-3.608582e-06	-9.995462e-09	-2.517115e+01	-6.560617e+02
2.880000e-06	-3.686789e-06	-1.012059e-08	-2.571667e+01	-6.650232e+02
2.890000e-06	-3.763493e-06	-1.023714e-08	-2.625171e+01	-6.732827e+02
2.900000e-06	-3.838635e-06	-1.034837e-08	-2.677586e+01	-6.807737e+02
2.910000e-06	-3.912373e-06	-1.045474e-08	-2.729020e+01	-6.874874e+02
2.920000e-06	-3.984738e-06	-1.055102e-08	-2.779498e+01	-6.934731e+02
2.930000e-06	-4.055769e-06	-1.063852e-08	-2.829045e+01	-6.988316e+02
2.940000e-06	-4.125281e-06	-1.072332e-08	-2.877532e+01	-7.037007e+02
