# Temperatura_=_51.75
# Concentracion g/m^3_=_15500.0
# C_Vs_to_Am_M_A/Vsm_=_65563218390.804596
# pendiente_HvsI_1/m_=_3716.3
# ordenada_HvsI_A/m_=_1297.0
# frecuencia_Hz_=_300810.205424278

Tiempo_(s)	Campo_(V.s)	Magnetizacion_(V.s)	Campo_(kA/m)	Magnetizacion_(A/m)
0.000000e+00	-5.496277e-06	-1.244866e-08	-3.830686e+01	-8.136177e+02
1.000000e-08	-5.494715e-06	-1.244901e-08	-3.829597e+01	-8.137611e+02
2.000000e-08	-5.491200e-06	-1.244818e-08	-3.827147e+01	-8.139322e+02
3.000000e-08	-5.485915e-06	-1.244467e-08	-3.823464e+01	-8.140602e+02
4.000000e-08	-5.478993e-06	-1.243766e-08	-3.818640e+01	-8.140673e+02
5.000000e-08	-5.470396e-06	-1.242404e-08	-3.812648e+01	-8.138797e+02
6.000000e-08	-5.459836e-06	-1.240529e-08	-3.805288e+01	-8.134384e+02
7.000000e-08	-5.447160e-06	-1.238587e-08	-3.796453e+01	-8.127075e+02
8.000000e-08	-5.432553e-06	-1.237580e-08	-3.786273e+01	-8.116793e+02
9.000000e-08	-5.415633e-06	-1.239774e-08	-3.774481e+01	-8.103752e+02
1.000000e-07	-5.396294e-06	-1.239851e-08	-3.761002e+01	-8.088428e+02
1.100000e-07	-5.374975e-06	-1.235915e-08	-3.746143e+01	-8.071489e+02
1.200000e-07	-5.351882e-06	-1.232902e-08	-3.730048e+01	-8.053696e+02
1.300000e-07	-5.327274e-06	-1.226395e-08	-3.712897e+01	-8.035801e+02
1.400000e-07	-5.301250e-06	-1.223205e-08	-3.694760e+01	-8.018429e+02
1.500000e-07	-5.273409e-06	-1.228293e-08	-3.675356e+01	-8.001993e+02
1.600000e-07	-5.243751e-06	-1.220362e-08	-3.654685e+01	-7.986627e+02
1.700000e-07	-5.212509e-06	-1.217331e-08	-3.632911e+01	-7.972165e+02
1.800000e-07	-5.179383e-06	-1.222410e-08	-3.609823e+01	-7.958157e+02
1.900000e-07	-5.144220e-06	-1.212732e-08	-3.585316e+01	-7.943928e+02
2.000000e-07	-5.107460e-06	-1.210171e-08	-3.559696e+01	-7.928666e+02
2.100000e-07	-5.069092e-06	-1.208449e-08	-3.532955e+01	-7.911532e+02
2.200000e-07	-5.028887e-06	-1.198756e-08	-3.504934e+01	-7.891777e+02
2.300000e-07	-4.986777e-06	-1.199619e-08	-3.475585e+01	-7.868838e+02
2.400000e-07	-4.942655e-06	-1.197786e-08	-3.444834e+01	-7.842425e+02
2.500000e-07	-4.896782e-06	-1.190417e-08	-3.412862e+01	-7.812555e+02
2.600000e-07	-4.849140e-06	-1.187847e-08	-3.379658e+01	-7.779553e+02
2.700000e-07	-4.799482e-06	-1.180336e-08	-3.345048e+01	-7.744011e+02
2.800000e-07	-4.747753e-06	-1.175235e-08	-3.308994e+01	-7.706704e+02
2.900000e-07	-4.694051e-06	-1.173125e-08	-3.271566e+01	-7.668487e+02
3.000000e-07	-4.638641e-06	-1.167656e-08	-3.232948e+01	-7.630172e+02
3.100000e-07	-4.581624e-06	-1.161372e-08	-3.193209e+01	-7.592421e+02
3.200000e-07	-4.522844e-06	-1.157158e-08	-3.152242e+01	-7.555645e+02
3.300000e-07	-4.462396e-06	-1.152450e-08	-3.110112e+01	-7.519951e+02
3.400000e-07	-4.400466e-06	-1.143141e-08	-3.066949e+01	-7.485119e+02
3.500000e-07	-4.337019e-06	-1.137161e-08	-3.022730e+01	-7.450630e+02
3.600000e-07	-4.272076e-06	-1.131815e-08	-2.977466e+01	-7.415738e+02
3.700000e-07	-4.205456e-06	-1.124595e-08	-2.931035e+01	-7.379565e+02
3.800000e-07	-4.137114e-06	-1.119622e-08	-2.883403e+01	-7.341225e+02
3.900000e-07	-4.067315e-06	-1.112463e-08	-2.834756e+01	-7.299943e+02
4.000000e-07	-3.996237e-06	-1.104603e-08	-2.785218e+01	-7.255169e+02
4.100000e-07	-3.923855e-06	-1.097755e-08	-2.734770e+01	-7.206648e+02
4.200000e-07	-3.850052e-06	-1.089767e-08	-2.683332e+01	-7.154462e+02
4.300000e-07	-3.774622e-06	-1.081493e-08	-2.630761e+01	-7.099020e+02
4.400000e-07	-3.697541e-06	-1.073224e-08	-2.577039e+01	-7.040998e+02
4.500000e-07	-3.618995e-06	-1.066090e-08	-2.522295e+01	-6.981249e+02
4.600000e-07	-3.538949e-06	-1.058538e-08	-2.466506e+01	-6.920676e+02
4.700000e-07	-3.457467e-06	-1.049770e-08	-2.409717e+01	-6.860103e+02
4.800000e-07	-3.374798e-06	-1.040118e-08	-2.352100e+01	-6.800151e+02
4.900000e-07	-3.291076e-06	-1.030171e-08	-2.293749e+01	-6.741141e+02
5.000000e-07	-3.206378e-06	-1.021166e-08	-2.234718e+01	-6.683032e+02
5.100000e-07	-3.120730e-06	-1.011416e-08	-2.175024e+01	-6.625419e+02
5.200000e-07	-3.034080e-06	-1.001322e-08	-2.114633e+01	-6.567572e+02
5.300000e-07	-2.946416e-06	-9.910514e-09	-2.053534e+01	-6.508527e+02
5.400000e-07	-2.857813e-06	-9.804402e-09	-1.991782e+01	-6.447211e+02
5.500000e-07	-2.768254e-06	-9.699175e-09	-1.929363e+01	-6.382589e+02
5.600000e-07	-2.677513e-06	-9.589502e-09	-1.866120e+01	-6.313802e+02
5.700000e-07	-2.585573e-06	-9.475275e-09	-1.802041e+01	-6.240293e+02
5.800000e-07	-2.492714e-06	-9.357972e-09	-1.737322e+01	-6.161889e+02
5.900000e-07	-2.399132e-06	-9.243553e-09	-1.672099e+01	-6.078828e+02
6.000000e-07	-2.304782e-06	-9.122942e-09	-1.606341e+01	-5.991732e+02
6.100000e-07	-2.209639e-06	-8.994111e-09	-1.540031e+01	-5.901522e+02
6.200000e-07	-2.113731e-06	-8.862564e-09	-1.473186e+01	-5.809284e+02
6.300000e-07	-2.017058e-06	-8.728874e-09	-1.405809e+01	-5.716104e+02
6.400000e-07	-1.919659e-06	-8.593708e-09	-1.337926e+01	-5.622900e+02
6.500000e-07	-1.821490e-06	-8.451374e-09	-1.269506e+01	-5.530260e+02
6.600000e-07	-1.722472e-06	-8.303064e-09	-1.200494e+01	-5.438325e+02
6.700000e-07	-1.622658e-06	-8.153543e-09	-1.130928e+01	-5.346727e+02
6.800000e-07	-1.522247e-06	-8.002301e-09	-1.060945e+01	-5.254592e+02
6.900000e-07	-1.421402e-06	-7.840442e-09	-9.906607e+00	-5.160620e+02
7.000000e-07	-1.320154e-06	-7.668838e-09	-9.200944e+00	-5.063224e+02
7.100000e-07	-1.218447e-06	-7.494674e-09	-8.492091e+00	-4.960721e+02
7.200000e-07	-1.116306e-06	-7.319069e-09	-7.780207e+00	-4.851547e+02
7.300000e-07	-1.013830e-06	-7.141263e-09	-7.065989e+00	-4.734465e+02
7.400000e-07	-9.110018e-07	-6.959166e-09	-6.349319e+00	-4.608742e+02
7.500000e-07	-8.078143e-07	-6.768699e-09	-5.630144e+00	-4.474264e+02
7.600000e-07	-7.043599e-07	-6.565985e-09	-4.909108e+00	-4.331571e+02
7.700000e-07	-6.006981e-07	-6.353435e-09	-4.186626e+00	-4.181786e+02
7.800000e-07	-4.968188e-07	-6.133220e-09	-3.462629e+00	-4.026469e+02
7.900000e-07	-3.927421e-07	-5.906499e-09	-2.737256e+00	-3.867369e+02
8.000000e-07	-2.885746e-07	-5.672993e-09	-2.011250e+00	-3.706130e+02
8.100000e-07	-1.843354e-07	-5.432521e-09	-1.284744e+00	-3.543969e+02
8.200000e-07	-8.003057e-08	-5.184665e-09	-5.577812e-01	-3.381367e+02
8.300000e-07	2.432052e-08	-4.923432e-09	1.695044e-01	-3.217810e+02
8.400000e-07	1.286934e-07	-4.642420e-09	8.969418e-01	-3.051633e+02
8.500000e-07	2.329902e-07	-4.344030e-09	1.623849e+00	-2.879969e+02
8.600000e-07	3.371946e-07	-4.032941e-09	2.350112e+00	-2.698849e+02
8.700000e-07	4.412425e-07	-3.706251e-09	3.075285e+00	-2.503436e+02
8.800000e-07	5.451228e-07	-3.359160e-09	3.799288e+00	-2.288384e+02
8.900000e-07	6.489291e-07	-2.987690e-09	4.522777e+00	-2.048302e+02
9.000000e-07	7.525703e-07	-2.591366e-09	5.245115e+00	-1.778267e+02
9.100000e-07	8.559060e-07	-2.164290e-09	5.965323e+00	-1.474358e+02
9.200000e-07	9.589104e-07	-1.694038e-09	6.683223e+00	-1.134129e+02
9.300000e-07	1.061550e-06	-1.170098e-09	7.398581e+00	-7.570017e+01
9.400000e-07	1.163836e-06	-5.865460e-10	8.111476e+00	-3.445094e+01
9.500000e-07	1.265736e-06	6.452948e-11	8.821672e+00	9.962657e+00
9.600000e-07	1.367150e-06	7.934291e-10	9.528488e+00	5.696046e+01
9.700000e-07	1.468117e-06	1.590634e-09	1.023219e+01	1.057832e+02
9.800000e-07	1.568687e-06	2.423704e-09	1.093312e+01	1.555377e+02
9.900000e-07	1.668831e-06	3.251826e-09	1.163109e+01	2.052534e+02
1.000000e-06	1.768397e-06	4.043079e-09	1.232502e+01	2.539475e+02
1.010000e-06	1.867151e-06	4.773247e-09	1.301330e+01	3.006900e+02
1.020000e-06	1.964996e-06	5.424266e-09	1.369524e+01	3.446652e+02
1.030000e-06	2.061947e-06	5.994156e-09	1.437095e+01	3.852226e+02
1.040000e-06	2.158149e-06	6.493182e-09	1.504144e+01	4.219140e+02
1.050000e-06	2.253705e-06	6.935741e-09	1.570743e+01	4.545125e+02
1.060000e-06	2.348528e-06	7.329303e-09	1.636830e+01	4.830131e+02
1.070000e-06	2.442551e-06	7.674689e-09	1.702361e+01	5.076152e+02
1.080000e-06	2.535784e-06	7.979443e-09	1.767340e+01	5.286890e+02
1.090000e-06	2.628288e-06	8.257844e-09	1.831812e+01	5.467307e+02
1.100000e-06	2.719917e-06	8.516591e-09	1.895673e+01	5.623099e+02
1.110000e-06	2.810370e-06	8.754715e-09	1.958716e+01	5.760152e+02
1.120000e-06	2.899594e-06	8.972322e-09	2.020902e+01	5.884039e+02
1.130000e-06	2.987812e-06	9.174762e-09	2.082386e+01	5.999592e+02
1.140000e-06	3.075090e-06	9.365024e-09	2.143215e+01	6.110595e+02
1.150000e-06	3.161321e-06	9.542010e-09	2.203315e+01	6.219614e+02
1.160000e-06	3.246510e-06	9.704668e-09	2.262688e+01	6.327966e+02
1.170000e-06	3.330716e-06	9.855914e-09	2.321376e+01	6.435831e+02
1.180000e-06	3.413794e-06	1.000387e-08	2.379278e+01	6.542467e+02
1.190000e-06	3.495586e-06	1.014911e-08	2.436284e+01	6.646503e+02
1.200000e-06	3.576104e-06	1.028431e-08	2.492402e+01	6.746266e+02
1.210000e-06	3.655274e-06	1.040671e-08	2.547580e+01	6.840109e+02
1.220000e-06	3.733087e-06	1.052311e-08	2.601813e+01	6.926686e+02
1.230000e-06	3.809588e-06	1.063597e-08	2.655131e+01	7.005171e+02
1.240000e-06	3.884620e-06	1.074171e-08	2.707425e+01	7.075364e+02
1.250000e-06	3.958028e-06	1.083945e-08	2.758588e+01	7.137722e+02
1.260000e-06	4.029936e-06	1.093184e-08	2.808704e+01	7.193282e+02
1.270000e-06	4.100459e-06	1.102248e-08	2.857857e+01	7.243510e+02
1.280000e-06	4.169648e-06	1.110954e-08	2.906078e+01	7.290112e+02
1.290000e-06	4.237494e-06	1.118986e-08	2.953364e+01	7.334803e+02
1.300000e-06	4.303651e-06	1.126646e-08	2.999473e+01	7.379105e+02
1.310000e-06	4.368082e-06	1.134108e-08	3.044379e+01	7.424168e+02
1.320000e-06	4.431077e-06	1.141149e-08	3.088284e+01	7.470655e+02
1.330000e-06	4.492747e-06	1.147800e-08	3.131266e+01	7.518692e+02
1.340000e-06	4.553056e-06	1.154399e-08	3.173299e+01	7.567898e+02
1.350000e-06	4.611603e-06	1.161129e-08	3.214104e+01	7.617471e+02
1.360000e-06	4.668310e-06	1.167523e-08	3.253626e+01	7.666332e+02
1.370000e-06	4.723400e-06	1.173299e-08	3.292021e+01	7.713293e+02
1.380000e-06	4.776768e-06	1.178756e-08	3.329217e+01	7.757234e+02
1.390000e-06	4.828109e-06	1.184081e-08	3.364999e+01	7.797260e+02
1.400000e-06	4.877372e-06	1.189035e-08	3.399334e+01	7.832819e+02
1.410000e-06	4.924883e-06	1.193539e-08	3.432447e+01	7.863769e+02
1.420000e-06	4.970785e-06	1.197834e-08	3.464439e+01	7.890384e+02
1.430000e-06	5.015103e-06	1.202043e-08	3.495327e+01	7.913303e+02
1.440000e-06	5.057527e-06	1.206117e-08	3.524895e+01	7.933434e+02
1.450000e-06	5.097967e-06	1.210088e-08	3.553080e+01	7.951818e+02
1.460000e-06	5.136695e-06	1.213871e-08	3.580072e+01	7.969484e+02
1.470000e-06	5.173794e-06	1.217369e-08	3.605928e+01	7.987312e+02
1.480000e-06	5.209095e-06	1.220608e-08	3.630532e+01	8.005919e+02
1.490000e-06	5.242402e-06	1.223514e-08	3.653745e+01	8.025581e+02
1.500000e-06	5.273915e-06	1.225965e-08	3.675708e+01	8.046215e+02
1.510000e-06	5.303742e-06	1.228059e-08	3.696496e+01	8.067402e+02
1.520000e-06	5.331803e-06	1.230083e-08	3.716054e+01	8.088457e+02
1.530000e-06	5.357791e-06	1.232301e-08	3.734167e+01	8.108542e+02
1.540000e-06	5.381687e-06	1.234529e-08	3.750821e+01	8.126786e+02
1.550000e-06	5.403784e-06	1.236270e-08	3.766222e+01	8.142417e+02
1.560000e-06	5.424210e-06	1.237574e-08	3.780458e+01	8.154868e+02
1.570000e-06	5.442787e-06	1.238788e-08	3.793406e+01	8.163857e+02
1.580000e-06	5.459248e-06	1.240080e-08	3.804878e+01	8.169429e+02
1.590000e-06	5.473700e-06	1.240928e-08	3.814951e+01	8.171940e+02
1.600000e-06	5.486151e-06	1.241311e-08	3.823628e+01	8.172009e+02
1.610000e-06	5.496321e-06	1.241901e-08	3.830716e+01	8.170429e+02
1.620000e-06	5.504372e-06	1.242945e-08	3.836328e+01	8.168056e+02
1.630000e-06	5.510673e-06	1.243738e-08	3.840720e+01	8.165687e+02
1.640000e-06	5.515209e-06	1.243671e-08	3.843881e+01	8.163958e+02
1.650000e-06	5.517739e-06	1.243427e-08	3.845644e+01	8.163254e+02
1.660000e-06	5.518250e-06	1.243735e-08	3.846000e+01	8.163660e+02
1.670000e-06	5.516944e-06	1.243756e-08	3.845090e+01	8.164960e+02
1.680000e-06	5.513903e-06	1.243017e-08	3.842970e+01	8.166670e+02
1.690000e-06	5.508998e-06	1.242075e-08	3.839552e+01	8.168111e+02
1.700000e-06	5.502173e-06	1.241214e-08	3.834795e+01	8.168509e+02
1.710000e-06	5.493645e-06	1.240621e-08	3.828851e+01	8.167109e+02
1.720000e-06	5.483489e-06	1.240061e-08	3.821773e+01	8.163282e+02
1.730000e-06	5.471431e-06	1.239721e-08	3.813369e+01	8.156614e+02
1.740000e-06	5.457274e-06	1.237813e-08	3.803503e+01	8.146964e+02
1.750000e-06	5.441084e-06	1.231843e-08	3.792218e+01	8.134485e+02
1.760000e-06	5.422452e-06	1.229655e-08	3.779233e+01	8.119603e+02
1.770000e-06	5.401005e-06	1.229135e-08	3.764285e+01	8.102951e+02
1.780000e-06	5.377395e-06	1.230439e-08	3.747830e+01	8.085279e+02
1.790000e-06	5.352676e-06	1.233895e-08	3.730602e+01	8.067350e+02
1.800000e-06	5.327182e-06	1.223830e-08	3.712833e+01	8.049826e+02
1.810000e-06	5.299973e-06	1.222115e-08	3.693870e+01	8.033171e+02
1.820000e-06	5.270365e-06	1.227046e-08	3.673234e+01	8.017583e+02
1.830000e-06	5.239098e-06	1.216363e-08	3.651443e+01	8.002960e+02
1.840000e-06	5.206187e-06	1.217494e-08	3.628505e+01	7.988908e+02
1.850000e-06	5.171377e-06	1.218499e-08	3.604243e+01	7.974795e+02
1.860000e-06	5.134926e-06	1.208546e-08	3.578839e+01	7.959829e+02
1.870000e-06	5.096435e-06	1.213509e-08	3.552012e+01	7.943168e+02
1.880000e-06	5.056075e-06	1.208514e-08	3.523883e+01	7.924032e+02
1.890000e-06	5.014177e-06	1.198360e-08	3.494682e+01	7.901814e+02
1.900000e-06	4.970412e-06	1.199892e-08	3.464179e+01	7.876158e+02
1.910000e-06	4.924875e-06	1.190143e-08	3.432442e+01	7.847014e+02
1.920000e-06	4.877460e-06	1.189368e-08	3.399395e+01	7.814645e+02
1.930000e-06	4.828147e-06	1.189251e-08	3.365026e+01	7.779590e+02
1.940000e-06	4.777163e-06	1.177047e-08	3.329492e+01	7.742594e+02
1.950000e-06	4.724092e-06	1.176076e-08	3.292504e+01	7.704503e+02
1.960000e-06	4.669106e-06	1.171001e-08	3.254181e+01	7.666150e+02
1.970000e-06	4.612522e-06	1.163883e-08	3.214744e+01	7.628237e+02
1.980000e-06	4.554322e-06	1.158364e-08	3.174181e+01	7.591235e+02
1.990000e-06	4.494657e-06	1.152565e-08	3.132597e+01	7.555320e+02
2.000000e-06	4.433265e-06	1.150717e-08	3.089809e+01	7.520341e+02
2.010000e-06	4.370160e-06	1.141973e-08	3.045827e+01	7.485839e+02
2.020000e-06	4.305516e-06	1.136959e-08	3.000773e+01	7.451108e+02
2.030000e-06	4.239403e-06	1.129468e-08	2.954695e+01	7.415288e+02
2.040000e-06	4.171815e-06	1.120340e-08	2.907589e+01	7.377486e+02
2.050000e-06	4.102513e-06	1.117060e-08	2.859288e+01	7.336894e+02
2.060000e-06	4.031642e-06	1.108684e-08	2.809894e+01	7.292904e+02
2.070000e-06	3.959374e-06	1.103188e-08	2.759526e+01	7.245194e+02
2.080000e-06	3.885768e-06	1.095428e-08	2.708225e+01	7.193773e+02
2.090000e-06	3.810672e-06	1.087548e-08	2.655887e+01	7.138982e+02
2.100000e-06	3.733834e-06	1.080959e-08	2.602333e+01	7.081449e+02
2.110000e-06	3.655443e-06	1.070473e-08	2.547698e+01	7.021997e+02
2.120000e-06	3.575762e-06	1.062928e-08	2.492164e+01	6.961530e+02
2.130000e-06	3.494949e-06	1.054457e-08	2.435840e+01	6.900899e+02
2.140000e-06	3.413024e-06	1.046996e-08	2.378742e+01	6.840779e+02
2.150000e-06	3.329965e-06	1.037959e-08	2.320853e+01	6.781561e+02
2.160000e-06	3.245672e-06	1.027980e-08	2.262104e+01	6.723284e+02
2.170000e-06	3.160033e-06	1.019282e-08	2.202417e+01	6.665620e+02
2.180000e-06	3.073174e-06	1.008988e-08	2.141880e+01	6.607901e+02
2.190000e-06	2.985286e-06	9.993468e-09	2.080626e+01	6.549205e+02
2.200000e-06	2.896479e-06	9.886883e-09	2.018730e+01	6.488470e+02
2.210000e-06	2.806698e-06	9.784406e-09	1.956157e+01	6.424639e+02
2.220000e-06	2.715952e-06	9.679797e-09	1.892910e+01	6.356807e+02
2.230000e-06	2.624280e-06	9.568510e-09	1.829018e+01	6.284342e+02
2.240000e-06	2.531715e-06	9.452291e-09	1.764505e+01	6.206984e+02
2.250000e-06	2.438167e-06	9.331064e-09	1.699305e+01	6.124884e+02
2.260000e-06	2.343554e-06	9.216041e-09	1.633364e+01	6.038587e+02
2.270000e-06	2.248123e-06	9.098994e-09	1.566852e+01	5.948959e+02
2.280000e-06	2.151983e-06	8.979315e-09	1.499847e+01	5.857065e+02
2.290000e-06	2.055168e-06	8.846450e-09	1.432370e+01	5.764005e+02
2.300000e-06	1.957674e-06	8.708664e-09	1.364421e+01	5.670746e+02
2.310000e-06	1.859520e-06	8.569712e-09	1.296011e+01	5.577960e+02
2.320000e-06	1.760825e-06	8.427525e-09	1.227225e+01	5.485890e+02
2.330000e-06	1.661625e-06	8.278812e-09	1.158086e+01	5.394280e+02
2.340000e-06	1.561875e-06	8.124108e-09	1.088565e+01	5.302360e+02
2.350000e-06	1.461519e-06	7.970440e-09	1.018621e+01	5.208911e+02
2.360000e-06	1.360581e-06	7.812071e-09	9.482710e+00	5.112394e+02
2.370000e-06	1.259025e-06	7.648079e-09	8.774904e+00	5.011128e+02
2.380000e-06	1.156938e-06	7.474207e-09	8.063395e+00	4.903505e+02
2.390000e-06	1.054446e-06	7.295208e-09	7.349067e+00	4.788202e+02
2.400000e-06	9.514927e-07	7.112542e-09	6.631524e+00	4.664365e+02
2.410000e-06	8.481379e-07	6.920699e-09	5.911183e+00	4.531744e+02
2.420000e-06	7.445236e-07	6.719120e-09	5.189032e+00	4.390737e+02
2.430000e-06	6.406844e-07	6.507755e-09	4.465315e+00	4.242356e+02
2.440000e-06	5.366497e-07	6.291597e-09	3.740235e+00	4.088083e+02
2.450000e-06	4.324413e-07	6.070499e-09	3.013944e+00	3.929650e+02
2.460000e-06	3.280929e-07	5.841090e-09	2.286677e+00	3.768750e+02
2.470000e-06	2.235942e-07	5.601825e-09	1.558362e+00	3.606721e+02
2.480000e-06	1.190249e-07	5.351491e-09	8.295561e-01	3.444222e+02
2.490000e-06	1.448417e-08	5.088727e-09	1.009489e-01	3.280973e+02
2.500000e-06	-9.006170e-08	4.812578e-09	-6.276942e-01	3.115561e+02
2.510000e-06	-1.945776e-07	4.521568e-09	-1.356128e+00	2.945375e+02
2.520000e-06	-2.989867e-07	4.215521e-09	-2.083818e+00	2.766667e+02
2.530000e-06	-4.032930e-07	3.895975e-09	-2.810791e+00	2.574759e+02
2.540000e-06	-5.075025e-07	3.558715e-09	-3.537090e+00	2.364379e+02
2.550000e-06	-6.115218e-07	3.198944e-09	-4.262063e+00	2.130102e+02
2.560000e-06	-7.152798e-07	2.813443e-09	-4.985215e+00	1.866862e+02
2.570000e-06	-8.187751e-07	2.396465e-09	-5.706536e+00	1.570477e+02
2.580000e-06	-9.220119e-07	1.939610e-09	-6.426055e+00	1.238151e+02
2.590000e-06	-1.024900e-06	1.433133e-09	-7.143148e+00	8.688794e+01
2.600000e-06	-1.127352e-06	8.671871e-10	-7.857195e+00	4.637295e+01
2.610000e-06	-1.229357e-06	2.354167e-10	-8.568130e+00	2.595686e+00
2.620000e-06	-1.330836e-06	-4.646823e-10	-9.275399e+00	-4.390643e+01
2.630000e-06	-1.431676e-06	-1.234159e-09	-9.978208e+00	-9.240925e+01
2.640000e-06	-1.531870e-06	-2.059644e-09	-1.067652e+01	-1.420437e+02
2.650000e-06	-1.631443e-06	-2.905375e-09	-1.137051e+01	-1.918508e+02
2.660000e-06	-1.730446e-06	-3.723221e-09	-1.206052e+01	-2.408445e+02
2.670000e-06	-1.828942e-06	-4.478322e-09	-1.274700e+01	-2.880783e+02
2.680000e-06	-1.926878e-06	-5.160254e-09	-1.342957e+01	-3.327072e+02
2.690000e-06	-2.024136e-06	-5.765606e-09	-1.410742e+01	-3.740417e+02
2.700000e-06	-2.120667e-06	-6.294855e-09	-1.478021e+01	-4.115880e+02
2.710000e-06	-2.216547e-06	-6.754360e-09	-1.544845e+01	-4.450711e+02
2.720000e-06	-2.311808e-06	-7.157989e-09	-1.611238e+01	-4.744393e+02
2.730000e-06	-2.406408e-06	-7.520649e-09	-1.677171e+01	-4.998504e+02
2.740000e-06	-2.500090e-06	-7.848373e-09	-1.742463e+01	-5.216417e+02
2.750000e-06	-2.592589e-06	-8.143701e-09	-1.806931e+01	-5.402866e+02
2.760000e-06	-2.684011e-06	-8.409116e-09	-1.870649e+01	-5.563434e+02
2.770000e-06	-2.774488e-06	-8.650908e-09	-1.933708e+01	-5.704012e+02
2.780000e-06	-2.863986e-06	-8.877295e-09	-1.996084e+01	-5.830279e+02
2.790000e-06	-2.952459e-06	-9.089767e-09	-2.057746e+01	-5.947257e+02
2.800000e-06	-3.039942e-06	-9.285232e-09	-2.118718e+01	-6.058973e+02
2.810000e-06	-3.126527e-06	-9.465059e-09	-2.179064e+01	-6.168261e+02
2.820000e-06	-3.211922e-06	-9.634840e-09	-2.238581e+01	-6.276701e+02
2.830000e-06	-3.295906e-06	-9.795563e-09	-2.297115e+01	-6.384703e+02
2.840000e-06	-3.378745e-06	-9.945823e-09	-2.354850e+01	-6.491698e+02
2.850000e-06	-3.460508e-06	-1.008717e-08	-2.411836e+01	-6.596424e+02
2.860000e-06	-3.541150e-06	-1.022036e-08	-2.468040e+01	-6.697243e+02
2.870000e-06	-3.620621e-06	-1.034495e-08	-2.523428e+01	-6.792478e+02
2.880000e-06	-3.698721e-06	-1.046292e-08	-2.577861e+01	-6.880699e+02
2.890000e-06	-3.775228e-06	-1.057626e-08	-2.631184e+01	-6.960954e+02
2.900000e-06	-3.850235e-06	-1.068502e-08	-2.683460e+01	-7.032904e+02
2.910000e-06	-3.923871e-06	-1.078735e-08	-2.734782e+01	-7.096869e+02
2.920000e-06	-3.996108e-06	-1.088281e-08	-2.785128e+01	-7.153770e+02
2.930000e-06	-4.067031e-06	-1.097480e-08	-2.834559e+01	-7.204999e+02
2.940000e-06	-4.136430e-06	-1.106504e-08	-2.882927e+01	-7.252227e+02
