# Temperatura_=_22.85
# Concentracion g/m^3_=_15500.0
# C_Vs_to_Am_M_A/Vsm_=_65563218390.804596
# pendiente_HvsI_1/m_=_3716.3
# ordenada_HvsI_A/m_=_1297.0
# frecuencia_Hz_=_300817.1998428922

Tiempo_(s)	Campo_(V.s)	Magnetizacion_(V.s)	Campo_(kA/m)	Magnetizacion_(A/m)
0.000000e+00	-5.486441e-06	-1.191578e-08	-3.830531e+01	-7.789261e+02
1.000000e-08	-5.485073e-06	-1.191542e-08	-3.829576e+01	-7.788222e+02
2.000000e-08	-5.481764e-06	-1.191848e-08	-3.827266e+01	-7.787758e+02
3.000000e-08	-5.476638e-06	-1.191945e-08	-3.823687e+01	-7.787479e+02
4.000000e-08	-5.469881e-06	-1.191406e-08	-3.818969e+01	-7.786841e+02
5.000000e-08	-5.461450e-06	-1.190158e-08	-3.813083e+01	-7.785231e+02
6.000000e-08	-5.451134e-06	-1.188437e-08	-3.805880e+01	-7.782051e+02
7.000000e-08	-5.438752e-06	-1.186806e-08	-3.797235e+01	-7.776814e+02
8.000000e-08	-5.424366e-06	-1.185884e-08	-3.787191e+01	-7.769209e+02
9.000000e-08	-5.407682e-06	-1.184457e-08	-3.775543e+01	-7.759149e+02
1.000000e-07	-5.388606e-06	-1.184147e-08	-3.762224e+01	-7.746783e+02
1.100000e-07	-5.367557e-06	-1.183021e-08	-3.747528e+01	-7.732482e+02
1.200000e-07	-5.344705e-06	-1.179242e-08	-3.731574e+01	-7.716777e+02
1.300000e-07	-5.320306e-06	-1.177152e-08	-3.714539e+01	-7.700293e+02
1.400000e-07	-5.294503e-06	-1.175104e-08	-3.696523e+01	-7.683653e+02
1.500000e-07	-5.266909e-06	-1.171553e-08	-3.677257e+01	-7.667393e+02
1.600000e-07	-5.237440e-06	-1.171466e-08	-3.656683e+01	-7.651878e+02
1.700000e-07	-5.206390e-06	-1.167551e-08	-3.635004e+01	-7.637250e+02
1.800000e-07	-5.173532e-06	-1.164419e-08	-3.612064e+01	-7.623404e+02
1.900000e-07	-5.138624e-06	-1.165377e-08	-3.587692e+01	-7.609991e+02
2.000000e-07	-5.102046e-06	-1.160636e-08	-3.562153e+01	-7.596467e+02
2.100000e-07	-5.063860e-06	-1.157646e-08	-3.535493e+01	-7.582159e+02
2.200000e-07	-5.023850e-06	-1.155180e-08	-3.507558e+01	-7.566353e+02
2.300000e-07	-4.981986e-06	-1.151157e-08	-3.478330e+01	-7.548392e+02
2.400000e-07	-4.938140e-06	-1.149125e-08	-3.447717e+01	-7.527762e+02
2.500000e-07	-4.892519e-06	-1.144419e-08	-3.415865e+01	-7.504159e+02
2.600000e-07	-4.845177e-06	-1.139682e-08	-3.382812e+01	-7.477533e+02
2.700000e-07	-4.795816e-06	-1.135520e-08	-3.348350e+01	-7.448091e+02
2.800000e-07	-4.744349e-06	-1.129941e-08	-3.312416e+01	-7.416269e+02
2.900000e-07	-4.690846e-06	-1.128851e-08	-3.275061e+01	-7.382673e+02
3.000000e-07	-4.635621e-06	-1.124615e-08	-3.236504e+01	-7.347992e+02
3.100000e-07	-4.578830e-06	-1.118107e-08	-3.196854e+01	-7.312900e+02
3.200000e-07	-4.520280e-06	-1.114287e-08	-3.155975e+01	-7.277967e+02
3.300000e-07	-4.460007e-06	-1.108246e-08	-3.113894e+01	-7.243572e+02
3.400000e-07	-4.398220e-06	-1.102215e-08	-3.070756e+01	-7.209852e+02
3.500000e-07	-4.335007e-06	-1.096746e-08	-3.026621e+01	-7.176675e+02
3.600000e-07	-4.270354e-06	-1.091977e-08	-2.981481e+01	-7.143660e+02
3.700000e-07	-4.204068e-06	-1.086424e-08	-2.935202e+01	-7.110225e+02
3.800000e-07	-4.136059e-06	-1.080501e-08	-2.887719e+01	-7.075661e+02
3.900000e-07	-4.066480e-06	-1.073978e-08	-2.839140e+01	-7.039235e+02
4.000000e-07	-3.995574e-06	-1.065773e-08	-2.789635e+01	-7.000285e+02
4.100000e-07	-3.923441e-06	-1.059957e-08	-2.739274e+01	-6.958315e+02
4.200000e-07	-3.849934e-06	-1.053839e-08	-2.687952e+01	-6.913063e+02
4.300000e-07	-3.774813e-06	-1.046817e-08	-2.635504e+01	-6.864536e+02
4.400000e-07	-3.698012e-06	-1.039752e-08	-2.581883e+01	-6.813012e+02
4.500000e-07	-3.619717e-06	-1.031804e-08	-2.527219e+01	-6.758998e+02
4.600000e-07	-3.539917e-06	-1.024360e-08	-2.471504e+01	-6.703161e+02
4.700000e-07	-3.458640e-06	-1.016104e-08	-2.414758e+01	-6.646228e+02
4.800000e-07	-3.376113e-06	-1.007171e-08	-2.357139e+01	-6.588878e+02
4.900000e-07	-3.292490e-06	-9.988388e-09	-2.298755e+01	-6.531642e+02
5.000000e-07	-3.207922e-06	-9.908009e-09	-2.239711e+01	-6.474814e+02
5.100000e-07	-3.122399e-06	-9.820382e-09	-2.180000e+01	-6.418403e+02
5.200000e-07	-3.035847e-06	-9.723613e-09	-2.119572e+01	-6.362113e+02
5.300000e-07	-2.948345e-06	-9.625206e-09	-2.058479e+01	-6.305375e+02
5.400000e-07	-2.859944e-06	-9.522573e-09	-1.996760e+01	-6.247412e+02
5.500000e-07	-2.770619e-06	-9.421634e-09	-1.934395e+01	-6.187342e+02
5.600000e-07	-2.680200e-06	-9.323323e-09	-1.871266e+01	-6.124290e+02
5.700000e-07	-2.588559e-06	-9.216864e-09	-1.807283e+01	-6.057510e+02
5.800000e-07	-2.495910e-06	-9.103149e-09	-1.742598e+01	-5.986487e+02
5.900000e-07	-2.402509e-06	-8.988509e-09	-1.677387e+01	-5.911011e+02
6.000000e-07	-2.308328e-06	-8.874713e-09	-1.611631e+01	-5.831214e+02
6.100000e-07	-2.213316e-06	-8.752976e-09	-1.545296e+01	-5.747546e+02
6.200000e-07	-2.117584e-06	-8.627025e-09	-1.478458e+01	-5.660719e+02
6.300000e-07	-2.021154e-06	-8.502939e-09	-1.411132e+01	-5.571601e+02
6.400000e-07	-1.923957e-06	-8.375654e-09	-1.343271e+01	-5.481082e+02
6.500000e-07	-1.825888e-06	-8.239210e-09	-1.274801e+01	-5.389935e+02
6.600000e-07	-1.727006e-06	-8.095043e-09	-1.205763e+01	-5.298680e+02
6.700000e-07	-1.627430e-06	-7.952463e-09	-1.136241e+01	-5.207481e+02
6.800000e-07	-1.527268e-06	-7.807582e-09	-1.066310e+01	-5.116085e+02
6.900000e-07	-1.426639e-06	-7.655341e-09	-9.960527e+00	-5.023814e+02
7.000000e-07	-1.325553e-06	-7.495330e-09	-9.254767e+00	-4.929623e+02
7.100000e-07	-1.224070e-06	-7.331951e-09	-8.546227e+00	-4.832204e+02
7.200000e-07	-1.122149e-06	-7.166055e-09	-7.834634e+00	-4.730140e+02
7.300000e-07	-1.019761e-06	-6.994395e-09	-7.119783e+00	-4.622082e+02
7.400000e-07	-9.170535e-07	-6.817261e-09	-6.402697e+00	-4.506921e+02
7.500000e-07	-8.140664e-07	-6.632330e-09	-5.683660e+00	-4.383944e+02
7.600000e-07	-7.107941e-07	-6.439724e-09	-4.962632e+00	-4.252939e+02
7.700000e-07	-6.072893e-07	-6.237753e-09	-4.239981e+00	-4.114232e+02
7.800000e-07	-5.035720e-07	-6.027010e-09	-3.515846e+00	-3.968654e+02
7.900000e-07	-3.997147e-07	-5.810213e-09	-2.790733e+00	-3.817420e+02
8.000000e-07	-2.957761e-07	-5.588782e-09	-2.065054e+00	-3.661944e+02
8.100000e-07	-1.917449e-07	-5.361797e-09	-1.338727e+00	-3.503598e+02
8.200000e-07	-8.762001e-08	-5.125235e-09	-6.117466e-01	-3.343447e+02
8.300000e-07	1.657912e-08	-4.877879e-09	1.157523e-01	-3.181985e+02
8.400000e-07	1.207958e-07	-4.618898e-09	8.433741e-01	-3.018917e+02
8.500000e-07	2.249082e-07	-4.346648e-09	1.570267e+00	-2.853003e+02
8.600000e-07	3.288804e-07	-4.059372e-09	2.296182e+00	-2.682009e+02
8.700000e-07	4.327539e-07	-3.757541e-09	3.021407e+00	-2.502760e+02
8.800000e-07	5.364853e-07	-3.440815e-09	3.745640e+00	-2.311316e+02
8.900000e-07	6.400826e-07	-3.108382e-09	4.468937e+00	-2.103257e+02
9.000000e-07	7.435270e-07	-2.756820e-09	5.191167e+00	-1.874057e+02
9.100000e-07	8.467130e-07	-2.381061e-09	5.911593e+00	-1.619507e+02
9.200000e-07	9.495707e-07	-1.975144e-09	6.629726e+00	-1.336158e+02
9.300000e-07	1.052057e-06	-1.531102e-09	7.345266e+00	-1.021741e+02
9.400000e-07	1.154179e-06	-1.043046e-09	8.058264e+00	-6.755020e+01
9.500000e-07	1.255915e-06	-5.035789e-10	8.768567e+00	-2.984389e+01
9.600000e-07	1.357242e-06	9.490210e-11	9.476010e+00	1.066039e+01
9.700000e-07	1.458155e-06	7.538759e-10	1.018057e+01	5.349949e+01
9.800000e-07	1.558647e-06	1.463898e-09	1.088218e+01	9.805258e+01
9.900000e-07	1.658698e-06	2.206810e-09	1.158072e+01	1.435763e+02
1.000000e-06	1.758116e-06	2.959380e-09	1.227484e+01	1.892506e+02
1.010000e-06	1.856658e-06	3.690779e-09	1.296284e+01	2.342319e+02
1.020000e-06	1.954361e-06	4.372053e-09	1.364499e+01	2.777084e+02
1.030000e-06	2.051285e-06	4.989050e-09	1.432169e+01	3.189525e+02
1.040000e-06	2.147413e-06	5.542270e-09	1.499284e+01	3.573663e+02
1.050000e-06	2.242837e-06	6.038509e-09	1.565907e+01	3.925155e+02
1.060000e-06	2.337602e-06	6.481029e-09	1.632070e+01	4.241493e+02
1.070000e-06	2.431578e-06	6.868492e-09	1.697682e+01	4.522049e+02
1.080000e-06	2.524749e-06	7.210779e-09	1.762733e+01	4.767968e+02
1.090000e-06	2.617188e-06	7.521812e-09	1.827272e+01	4.981917e+02
1.100000e-06	2.708662e-06	7.806197e-09	1.891138e+01	5.167737e+02
1.110000e-06	2.798951e-06	8.064642e-09	1.954175e+01	5.330015e+02
1.120000e-06	2.888086e-06	8.302816e-09	2.016408e+01	5.473637e+02
1.130000e-06	2.976246e-06	8.526685e-09	2.077960e+01	5.603352e+02
1.140000e-06	3.063480e-06	8.734451e-09	2.138865e+01	5.723404e+02
1.150000e-06	3.149667e-06	8.924075e-09	2.199039e+01	5.837242e+02
1.160000e-06	3.234831e-06	9.097003e-09	2.258499e+01	5.947352e+02
1.170000e-06	3.319003e-06	9.258313e-09	2.317266e+01	6.055197e+02
1.180000e-06	3.402004e-06	9.415089e-09	2.375216e+01	6.161279e+02
1.190000e-06	3.483715e-06	9.567782e-09	2.432265e+01	6.265289e+02
1.200000e-06	3.564167e-06	9.708939e-09	2.488435e+01	6.366338e+02
1.210000e-06	3.643342e-06	9.838721e-09	2.543714e+01	6.463213e+02
1.220000e-06	3.721212e-06	9.964021e-09	2.598081e+01	6.554647e+02
1.230000e-06	3.797751e-06	1.008567e-08	2.651519e+01	6.639560e+02
1.240000e-06	3.872758e-06	1.019518e-08	2.703887e+01	6.717244e+02
1.250000e-06	3.946126e-06	1.029149e-08	2.755112e+01	6.787478e+02
1.260000e-06	4.018053e-06	1.038451e-08	2.805330e+01	6.850565e+02
1.270000e-06	4.088605e-06	1.048050e-08	2.854588e+01	6.907290e+02
1.280000e-06	4.157797e-06	1.057342e-08	2.902896e+01	6.958815e+02
1.290000e-06	4.225574e-06	1.065581e-08	2.950217e+01	7.006524e+02
1.300000e-06	4.291693e-06	1.073205e-08	2.996380e+01	7.051849e+02
1.310000e-06	4.356177e-06	1.080901e-08	3.041402e+01	7.096094e+02
1.320000e-06	4.419177e-06	1.088506e-08	3.085387e+01	7.140290e+02
1.330000e-06	4.480772e-06	1.095419e-08	3.128392e+01	7.185081e+02
1.340000e-06	4.541034e-06	1.101702e-08	3.170465e+01	7.230682e+02
1.350000e-06	4.599659e-06	1.107981e-08	3.211396e+01	7.276880e+02
1.360000e-06	4.656411e-06	1.114422e-08	3.251020e+01	7.323103e+02
1.370000e-06	4.711498e-06	1.120651e-08	3.289480e+01	7.368523e+02
1.380000e-06	4.764884e-06	1.126192e-08	3.326753e+01	7.412194e+02
1.390000e-06	4.816253e-06	1.131285e-08	3.362618e+01	7.453194e+02
1.400000e-06	4.865591e-06	1.136300e-08	3.397065e+01	7.490758e+02
1.410000e-06	4.913190e-06	1.141057e-08	3.430298e+01	7.524385e+02
1.420000e-06	4.959152e-06	1.145336e-08	3.462387e+01	7.553898e+02
1.430000e-06	5.003430e-06	1.149227e-08	3.493302e+01	7.579463e+02
1.440000e-06	5.045854e-06	1.153182e-08	3.522921e+01	7.601557e+02
1.450000e-06	5.086417e-06	1.157164e-08	3.551242e+01	7.620892e+02
1.460000e-06	5.125262e-06	1.160700e-08	3.578363e+01	7.638319e+02
1.470000e-06	5.162438e-06	1.163722e-08	3.604318e+01	7.654702e+02
1.480000e-06	5.197819e-06	1.166640e-08	3.629020e+01	7.670809e+02
1.490000e-06	5.231226e-06	1.169575e-08	3.652344e+01	7.687208e+02
1.500000e-06	5.262797e-06	1.172234e-08	3.674387e+01	7.704204e+02
1.510000e-06	5.292647e-06	1.174362e-08	3.695228e+01	7.721809e+02
1.520000e-06	5.320742e-06	1.176238e-08	3.714843e+01	7.739751e+02
1.530000e-06	5.346800e-06	1.178400e-08	3.733036e+01	7.757531e+02
1.540000e-06	5.370821e-06	1.180521e-08	3.749807e+01	7.774500e+02
1.550000e-06	5.393029e-06	1.182002e-08	3.765312e+01	7.789962e+02
1.560000e-06	5.413509e-06	1.182959e-08	3.779611e+01	7.803274e+02
1.570000e-06	5.432144e-06	1.184073e-08	3.792622e+01	7.813944e+02
1.580000e-06	5.448789e-06	1.185572e-08	3.804243e+01	7.821700e+02
1.590000e-06	5.463426e-06	1.186552e-08	3.814462e+01	7.826525e+02
1.600000e-06	5.475943e-06	1.186772e-08	3.823202e+01	7.828659e+02
1.610000e-06	5.486220e-06	1.187073e-08	3.830377e+01	7.828566e+02
1.620000e-06	5.494405e-06	1.187855e-08	3.836091e+01	7.826866e+02
1.630000e-06	5.500786e-06	1.188565e-08	3.840546e+01	7.824244e+02
1.640000e-06	5.505375e-06	1.188533e-08	3.843750e+01	7.821364e+02
1.650000e-06	5.507995e-06	1.188132e-08	3.845580e+01	7.818767e+02
1.660000e-06	5.508597e-06	1.188130e-08	3.846000e+01	7.816810e+02
1.670000e-06	5.507373e-06	1.188327e-08	3.845145e+01	7.815611e+02
1.680000e-06	5.504466e-06	1.187904e-08	3.843116e+01	7.815045e+02
1.690000e-06	5.499764e-06	1.187099e-08	3.839833e+01	7.814762e+02
1.700000e-06	5.493124e-06	1.186220e-08	3.835197e+01	7.814247e+02
1.710000e-06	5.484699e-06	1.185452e-08	3.829315e+01	7.812892e+02
1.720000e-06	5.474630e-06	1.184582e-08	3.822285e+01	7.810089e+02
1.730000e-06	5.462738e-06	1.183190e-08	3.813982e+01	7.805321e+02
1.740000e-06	5.448787e-06	1.181880e-08	3.804242e+01	7.798233e+02
1.750000e-06	5.432808e-06	1.179930e-08	3.793085e+01	7.788689e+02
1.760000e-06	5.414413e-06	1.176460e-08	3.780242e+01	7.776788e+02
1.770000e-06	5.393188e-06	1.175622e-08	3.765423e+01	7.762856e+02
1.780000e-06	5.369723e-06	1.175136e-08	3.749041e+01	7.747396e+02
1.790000e-06	5.345041e-06	1.174481e-08	3.731808e+01	7.731019e+02
1.800000e-06	5.319625e-06	1.173982e-08	3.714063e+01	7.714358e+02
1.810000e-06	5.292641e-06	1.166829e-08	3.695223e+01	7.697973e+02
1.820000e-06	5.263284e-06	1.168959e-08	3.674727e+01	7.682272e+02
1.830000e-06	5.232167e-06	1.173389e-08	3.653002e+01	7.667450e+02
1.840000e-06	5.199422e-06	1.166566e-08	3.630140e+01	7.653452e+02
1.850000e-06	5.164809e-06	1.167827e-08	3.605973e+01	7.639981e+02
1.860000e-06	5.128542e-06	1.166766e-08	3.580653e+01	7.626529e+02
1.870000e-06	5.090274e-06	1.159541e-08	3.553934e+01	7.612443e+02
1.880000e-06	5.050075e-06	1.161552e-08	3.525868e+01	7.597012e+02
1.890000e-06	5.008333e-06	1.154652e-08	3.496725e+01	7.579557e+02
1.900000e-06	4.964785e-06	1.149667e-08	3.466320e+01	7.559527e+02
1.910000e-06	4.919439e-06	1.151203e-08	3.434661e+01	7.536569e+02
1.920000e-06	4.872274e-06	1.142819e-08	3.401731e+01	7.510576e+02
1.930000e-06	4.823230e-06	1.142571e-08	3.367489e+01	7.481702e+02
1.940000e-06	4.772524e-06	1.136698e-08	3.332088e+01	7.450339e+02
1.950000e-06	4.719770e-06	1.128822e-08	3.295256e+01	7.417061e+02
1.960000e-06	4.665030e-06	1.129368e-08	3.257037e+01	7.382548e+02
1.970000e-06	4.608651e-06	1.121348e-08	3.217674e+01	7.347486e+02
1.980000e-06	4.550592e-06	1.118453e-08	3.177139e+01	7.312474e+02
1.990000e-06	4.491034e-06	1.114398e-08	3.135556e+01	7.277938e+02
2.000000e-06	4.429787e-06	1.108081e-08	3.092794e+01	7.244070e+02
2.010000e-06	4.366879e-06	1.104379e-08	3.048873e+01	7.210795e+02
2.020000e-06	4.302476e-06	1.095034e-08	3.003909e+01	7.177784e+02
2.030000e-06	4.236529e-06	1.090905e-08	2.957866e+01	7.144490e+02
2.040000e-06	4.169154e-06	1.084118e-08	2.910826e+01	7.110225e+02
2.050000e-06	4.100110e-06	1.079326e-08	2.862621e+01	7.074252e+02
2.060000e-06	4.029402e-06	1.075282e-08	2.813254e+01	7.035886e+02
2.070000e-06	3.957376e-06	1.066423e-08	2.762966e+01	6.994589e+02
2.080000e-06	3.884063e-06	1.060789e-08	2.711780e+01	6.950044e+02
2.090000e-06	3.809240e-06	1.051602e-08	2.659540e+01	6.902198e+02
2.100000e-06	3.732694e-06	1.045282e-08	2.606097e+01	6.851275e+02
2.110000e-06	3.654568e-06	1.037450e-08	2.551551e+01	6.797737e+02
2.120000e-06	3.575151e-06	1.029761e-08	2.496104e+01	6.742225e+02
2.130000e-06	3.494581e-06	1.024110e-08	2.439852e+01	6.685461e+02
2.140000e-06	3.412853e-06	1.015017e-08	2.382791e+01	6.628144e+02
2.150000e-06	3.330017e-06	1.006780e-08	2.324956e+01	6.570843e+02
2.160000e-06	3.246026e-06	9.969942e-09	2.266315e+01	6.513912e+02
2.170000e-06	3.160672e-06	9.892658e-09	2.206722e+01	6.457421e+02
2.180000e-06	3.074060e-06	9.807525e-09	2.146251e+01	6.401139e+02
2.190000e-06	2.986425e-06	9.716174e-09	2.085066e+01	6.344551e+02
2.200000e-06	2.897817e-06	9.613840e-09	2.023202e+01	6.286918e+02
2.210000e-06	2.808226e-06	9.504298e-09	1.960651e+01	6.227370e+02
2.220000e-06	2.717752e-06	9.410381e-09	1.897484e+01	6.165021e+02
2.230000e-06	2.626407e-06	9.304035e-09	1.833709e+01	6.099086e+02
2.240000e-06	2.534133e-06	9.202536e-09	1.769284e+01	6.028996e+02
2.250000e-06	2.440827e-06	9.088205e-09	1.704140e+01	5.954470e+02
2.260000e-06	2.346451e-06	8.985410e-09	1.638248e+01	5.875565e+02
2.270000e-06	2.251263e-06	8.874651e-09	1.571790e+01	5.792669e+02
2.280000e-06	2.155395e-06	8.748233e-09	1.504857e+01	5.706444e+02
2.290000e-06	2.058774e-06	8.619164e-09	1.437398e+01	5.617735e+02
2.300000e-06	1.961437e-06	8.488324e-09	1.369439e+01	5.527440e+02
2.310000e-06	1.863491e-06	8.368210e-09	1.301055e+01	5.436368e+02
2.320000e-06	1.765039e-06	8.230269e-09	1.232317e+01	5.345103e+02
2.330000e-06	1.666112e-06	8.084844e-09	1.163248e+01	5.253894e+02
2.340000e-06	1.566673e-06	7.936743e-09	1.093822e+01	5.162577e+02
2.350000e-06	1.466684e-06	7.791796e-09	1.024011e+01	5.070565e+02
2.360000e-06	1.366063e-06	7.644009e-09	9.537598e+00	4.976883e+02
2.370000e-06	1.264796e-06	7.482289e-09	8.830573e+00	4.880268e+02
2.380000e-06	1.162968e-06	7.316001e-09	8.119623e+00	4.779313e+02
2.390000e-06	1.060628e-06	7.146370e-09	7.405109e+00	4.672639e+02
2.400000e-06	9.578309e-07	6.973138e-09	6.687397e+00	4.559070e+02
2.410000e-06	8.546691e-07	6.788854e-09	5.967140e+00	4.437798e+02
2.420000e-06	7.511931e-07	6.594551e-09	5.244690e+00	4.308499e+02
2.430000e-06	6.474956e-07	6.396873e-09	4.520694e+00	4.171383e+02
2.440000e-06	5.436524e-07	6.195869e-09	3.795680e+00	4.027180e+02
2.450000e-06	4.396291e-07	5.985613e-09	3.069409e+00	3.877037e+02
2.460000e-06	3.354636e-07	5.763331e-09	2.342144e+00	3.722343e+02
2.470000e-06	2.312160e-07	5.532803e-09	1.614307e+00	3.564503e+02
2.480000e-06	1.268621e-07	5.299169e-09	8.857276e-01	3.404669e+02
2.490000e-06	2.243605e-08	5.054516e-09	1.566443e-01	3.243477e+02
2.500000e-06	-8.195525e-08	4.792825e-09	-5.721963e-01	3.080818e+02
2.510000e-06	-1.862651e-07	4.518734e-09	-1.300468e+00	2.915664e+02
2.520000e-06	-2.904889e-07	4.235095e-09	-2.028139e+00	2.745990e+02
2.530000e-06	-3.946070e-07	3.940182e-09	-2.755073e+00	2.568814e+02
2.540000e-06	-4.986166e-07	3.627575e-09	-3.481248e+00	2.380338e+02
2.550000e-06	-6.024880e-07	3.300860e-09	-4.206459e+00	2.176218e+02
2.560000e-06	-7.061172e-07	2.959014e-09	-4.929979e+00	1.951915e+02
2.570000e-06	-8.094606e-07	2.592488e-09	-5.651503e+00	1.703114e+02
2.580000e-06	-9.125471e-07	2.194383e-09	-6.371234e+00	1.426168e+02
2.590000e-06	-1.015294e-06	1.759018e-09	-7.088594e+00	1.118523e+02
2.600000e-06	-1.117636e-06	1.281822e-09	-7.803124e+00	7.790753e+01
2.610000e-06	-1.219490e-06	7.578615e-10	-8.514255e+00	4.084356e+01
2.620000e-06	-1.320691e-06	1.821742e-10	-9.220821e+00	9.051824e-01
2.630000e-06	-1.421208e-06	-4.523002e-10	-9.922606e+00	-4.148147e+01
2.640000e-06	-1.521098e-06	-1.147202e-09	-1.062002e+01	-8.572686e+01
2.650000e-06	-1.620458e-06	-1.886507e-09	-1.131374e+01	-1.311103e+02
2.660000e-06	-1.719353e-06	-2.641178e-09	-1.200420e+01	-1.768239e+02
2.670000e-06	-1.817766e-06	-3.384038e-09	-1.269130e+01	-2.220245e+02
2.680000e-06	-1.915591e-06	-4.092373e-09	-1.337430e+01	-2.658889e+02
2.690000e-06	-2.012708e-06	-4.744355e-09	-1.405235e+01	-3.076673e+02
2.700000e-06	-2.109126e-06	-5.326364e-09	-1.472553e+01	-3.467306e+02
2.710000e-06	-2.204904e-06	-5.839112e-09	-1.539423e+01	-3.826075e+02
2.720000e-06	-2.300131e-06	-6.290862e-09	-1.605909e+01	-4.150067e+02
2.730000e-06	-2.394718e-06	-6.695440e-09	-1.671947e+01	-4.438258e+02
2.740000e-06	-2.488314e-06	-7.060473e-09	-1.737294e+01	-4.691427e+02
2.750000e-06	-2.580726e-06	-7.386947e-09	-1.801815e+01	-4.911943e+02
2.760000e-06	-2.672095e-06	-7.682488e-09	-1.865607e+01	-5.103428e+02
2.770000e-06	-2.762531e-06	-7.953678e-09	-1.928748e+01	-5.270349e+02
2.780000e-06	-2.851987e-06	-8.203778e-09	-1.991204e+01	-5.417563e+02
2.790000e-06	-2.940412e-06	-8.434600e-09	-2.052941e+01	-5.549884e+02
2.800000e-06	-3.027854e-06	-8.644905e-09	-2.113991e+01	-5.671691e+02
2.810000e-06	-3.114359e-06	-8.838796e-09	-2.174388e+01	-5.786622e+02
2.820000e-06	-3.199663e-06	-9.022169e-09	-2.233945e+01	-5.897379e+02
2.830000e-06	-3.283610e-06	-9.194144e-09	-2.292556e+01	-6.005641e+02
2.840000e-06	-3.366391e-06	-9.352866e-09	-2.350352e+01	-6.112107e+02
2.850000e-06	-3.448090e-06	-9.502131e-09	-2.407392e+01	-6.216626e+02
2.860000e-06	-3.528657e-06	-9.644425e-09	-2.463643e+01	-6.318410e+02
2.870000e-06	-3.608092e-06	-9.777891e-09	-2.519103e+01	-6.416294e+02
2.880000e-06	-3.686190e-06	-9.903421e-09	-2.573629e+01	-6.508999e+02
2.890000e-06	-3.762666e-06	-1.002413e-08	-2.627024e+01	-6.595390e+02
2.900000e-06	-3.837638e-06	-1.013965e-08	-2.679367e+01	-6.674664e+02
2.910000e-06	-3.911200e-06	-1.024740e-08	-2.730727e+01	-6.746493e+02
2.920000e-06	-3.983375e-06	-1.034705e-08	-2.781118e+01	-6.811066e+02
2.930000e-06	-4.054298e-06	-1.044257e-08	-2.830635e+01	-6.869072e+02
2.940000e-06	-4.123702e-06	-1.053555e-08	-2.879092e+01	-6.921605e+02
