# Temperatura_=_26.93
# Concentracion g/m^3_=_15500.0
# C_Vs_to_Am_M_A/Vsm_=_65563218390.804596
# pendiente_HvsI_1/m_=_3716.3
# ordenada_HvsI_A/m_=_1297.0
# frecuencia_Hz_=_300815.58421709924

Tiempo_(s)	Campo_(V.s)	Magnetizacion_(V.s)	Campo_(kA/m)	Magnetizacion_(A/m)
0.000000e+00	-5.496689e-06	-1.196876e-08	-3.830633e+01	-7.824130e+02
1.000000e-08	-5.495014e-06	-1.197099e-08	-3.829465e+01	-7.824268e+02
2.000000e-08	-5.491356e-06	-1.197191e-08	-3.826916e+01	-7.824991e+02
3.000000e-08	-5.485934e-06	-1.196895e-08	-3.823137e+01	-7.825793e+02
4.000000e-08	-5.478883e-06	-1.196060e-08	-3.818223e+01	-7.826031e+02
5.000000e-08	-5.470178e-06	-1.194748e-08	-3.812157e+01	-7.825024e+02
6.000000e-08	-5.459493e-06	-1.193089e-08	-3.804711e+01	-7.822149e+02
7.000000e-08	-5.446747e-06	-1.190957e-08	-3.795828e+01	-7.816926e+02
8.000000e-08	-5.431996e-06	-1.190295e-08	-3.785548e+01	-7.809089e+02
9.000000e-08	-5.414967e-06	-1.193413e-08	-3.773681e+01	-7.798622e+02
1.000000e-07	-5.395679e-06	-1.192112e-08	-3.760239e+01	-7.785757e+02
1.100000e-07	-5.374336e-06	-1.188142e-08	-3.745365e+01	-7.770940e+02
1.200000e-07	-5.351145e-06	-1.186127e-08	-3.729203e+01	-7.754767e+02
1.300000e-07	-5.326516e-06	-1.178502e-08	-3.712039e+01	-7.737895e+02
1.400000e-07	-5.300419e-06	-1.178879e-08	-3.693852e+01	-7.720948e+02
1.500000e-07	-5.272504e-06	-1.183451e-08	-3.674399e+01	-7.704424e+02
1.600000e-07	-5.242801e-06	-1.171795e-08	-3.653698e+01	-7.688624e+02
1.700000e-07	-5.211504e-06	-1.174100e-08	-3.631888e+01	-7.673604e+02
1.800000e-07	-5.178307e-06	-1.176929e-08	-3.608753e+01	-7.659164e+02
1.900000e-07	-5.143050e-06	-1.163698e-08	-3.584182e+01	-7.644872e+02
2.000000e-07	-5.106227e-06	-1.165764e-08	-3.558520e+01	-7.630122e+02
2.100000e-07	-5.067781e-06	-1.161349e-08	-3.531727e+01	-7.614215e+02
2.200000e-07	-5.027514e-06	-1.152862e-08	-3.503665e+01	-7.596458e+02
2.300000e-07	-4.985274e-06	-1.157587e-08	-3.474228e+01	-7.576256e+02
2.400000e-07	-4.940990e-06	-1.153761e-08	-3.443367e+01	-7.553200e+02
2.500000e-07	-4.894980e-06	-1.147982e-08	-3.411303e+01	-7.527119e+02
2.600000e-07	-4.847208e-06	-1.144125e-08	-3.378010e+01	-7.498113e+02
2.700000e-07	-4.797380e-06	-1.136115e-08	-3.343285e+01	-7.466535e+02
2.800000e-07	-4.745444e-06	-1.132663e-08	-3.307091e+01	-7.432944e+02
2.900000e-07	-4.691631e-06	-1.129018e-08	-3.269589e+01	-7.398031e+02
3.000000e-07	-4.636191e-06	-1.125547e-08	-3.230953e+01	-7.362521e+02
3.100000e-07	-4.579068e-06	-1.120849e-08	-3.191144e+01	-7.327072e+02
3.200000e-07	-4.520098e-06	-1.117254e-08	-3.150048e+01	-7.292181e+02
3.300000e-07	-4.459483e-06	-1.112431e-08	-3.107805e+01	-7.258108e+02
3.400000e-07	-4.397415e-06	-1.101864e-08	-3.064550e+01	-7.224843e+02
3.500000e-07	-4.333881e-06	-1.096639e-08	-3.020274e+01	-7.192096e+02
3.600000e-07	-4.268809e-06	-1.090662e-08	-2.974925e+01	-7.159335e+02
3.700000e-07	-4.202011e-06	-1.084978e-08	-2.928374e+01	-7.125855e+02
3.800000e-07	-4.133570e-06	-1.081737e-08	-2.880677e+01	-7.090874e+02
3.900000e-07	-4.063726e-06	-1.075137e-08	-2.832003e+01	-7.053636e+02
4.000000e-07	-3.992620e-06	-1.069241e-08	-2.782450e+01	-7.013519e+02
4.100000e-07	-3.920228e-06	-1.061857e-08	-2.732000e+01	-6.970117e+02
4.200000e-07	-3.846341e-06	-1.053591e-08	-2.680508e+01	-6.923302e+02
4.300000e-07	-3.770775e-06	-1.044816e-08	-2.627846e+01	-6.873238e+02
4.400000e-07	-3.693599e-06	-1.037183e-08	-2.574062e+01	-6.820365e+02
4.500000e-07	-3.614962e-06	-1.031427e-08	-2.519260e+01	-6.765332e+02
4.600000e-07	-3.534829e-06	-1.024507e-08	-2.463416e+01	-6.708907e+02
4.700000e-07	-3.453268e-06	-1.017155e-08	-2.406576e+01	-6.651867e+02
4.800000e-07	-3.370540e-06	-1.008233e-08	-2.348923e+01	-6.594882e+02
4.900000e-07	-3.286743e-06	-9.990005e-09	-2.290525e+01	-6.538410e+02
5.000000e-07	-3.201908e-06	-9.898620e-09	-2.231404e+01	-6.482628e+02
5.100000e-07	-3.116111e-06	-9.800312e-09	-2.171612e+01	-6.427386e+02
5.200000e-07	-3.029371e-06	-9.708118e-09	-2.111163e+01	-6.372222e+02
5.300000e-07	-2.941637e-06	-9.618922e-09	-2.050021e+01	-6.316409e+02
5.400000e-07	-2.852926e-06	-9.526066e-09	-1.988199e+01	-6.259048e+02
5.500000e-07	-2.763268e-06	-9.424522e-09	-1.925716e+01	-6.199181e+02
5.600000e-07	-2.672455e-06	-9.317400e-09	-1.862429e+01	-6.135926e+02
5.700000e-07	-2.580484e-06	-9.208660e-09	-1.798335e+01	-6.068591e+02
5.800000e-07	-2.487602e-06	-9.098158e-09	-1.733605e+01	-5.996777e+02
5.900000e-07	-2.393920e-06	-8.991138e-09	-1.668318e+01	-5.920432e+02
6.000000e-07	-2.299444e-06	-8.879796e-09	-1.602479e+01	-5.839868e+02
6.100000e-07	-2.204255e-06	-8.761719e-09	-1.536142e+01	-5.755710e+02
6.200000e-07	-2.108273e-06	-8.635640e-09	-1.469251e+01	-5.668813e+02
6.300000e-07	-2.011495e-06	-8.502845e-09	-1.401807e+01	-5.580132e+02
6.400000e-07	-1.914024e-06	-8.370571e-09	-1.333880e+01	-5.490572e+02
6.500000e-07	-1.815798e-06	-8.235413e-09	-1.265426e+01	-5.400840e+02
6.600000e-07	-1.716711e-06	-8.100687e-09	-1.196373e+01	-5.311316e+02
6.700000e-07	-1.616827e-06	-7.965130e-09	-1.126764e+01	-5.221959e+02
6.800000e-07	-1.516381e-06	-7.824424e-09	-1.056763e+01	-5.132271e+02
6.900000e-07	-1.415554e-06	-7.671308e-09	-9.864967e+00	-5.041325e+02
7.000000e-07	-1.314322e-06	-7.506502e-09	-9.159487e+00	-4.947849e+02
7.100000e-07	-1.212634e-06	-7.336072e-09	-8.450824e+00	-4.850370e+02
7.200000e-07	-1.110526e-06	-7.162396e-09	-7.739234e+00	-4.747385e+02
7.300000e-07	-1.008028e-06	-6.990975e-09	-7.024931e+00	-4.637562e+02
7.400000e-07	-9.051819e-07	-6.819557e-09	-6.308196e+00	-4.519911e+02
7.500000e-07	-8.019830e-07	-6.640904e-09	-5.589005e+00	-4.393932e+02
7.600000e-07	-6.984543e-07	-6.449529e-09	-4.867515e+00	-4.259690e+02
7.700000e-07	-5.946542e-07	-6.246877e-09	-4.144134e+00	-4.117821e+02
7.800000e-07	-4.906698e-07	-6.033359e-09	-3.419469e+00	-3.969451e+02
7.900000e-07	-3.865661e-07	-5.812850e-09	-2.693972e+00	-3.816031e+02
8.000000e-07	-2.823323e-07	-5.586269e-09	-1.967569e+00	-3.659105e+02
8.100000e-07	-1.779587e-07	-5.352391e-09	-1.240191e+00	-3.500037e+02
8.200000e-07	-7.347458e-08	-5.112257e-09	-5.120430e-01	-3.339723e+02
8.300000e-07	3.103968e-08	-4.860946e-09	2.163149e-01	-3.178329e+02
8.400000e-07	1.355127e-07	-4.595860e-09	9.443856e-01	-3.015085e+02
8.500000e-07	2.399416e-07	-4.316887e-09	1.672149e+00	-2.848169e+02
8.600000e-07	3.442923e-07	-4.026094e-09	2.399367e+00	-2.674708e+02
8.700000e-07	4.485117e-07	-3.719619e-09	3.125669e+00	-2.490896e+02
8.800000e-07	5.525557e-07	-3.391693e-09	3.850751e+00	-2.292245e+02
8.900000e-07	6.564094e-07	-3.041593e-09	4.574505e+00	-2.073931e+02
9.000000e-07	7.599729e-07	-2.673254e-09	5.296237e+00	-1.831229e+02
9.100000e-07	8.632066e-07	-2.283424e-09	6.015671e+00	-1.559982e+02
9.200000e-07	9.661550e-07	-1.859703e-09	6.733116e+00	-1.257060e+02
9.300000e-07	1.068758e-06	-1.389991e-09	7.448157e+00	-9.207768e+01
9.400000e-07	1.171011e-06	-8.670705e-10	8.160751e+00	-5.511969e+01
9.500000e-07	1.272898e-06	-2.896202e-10	8.870800e+00	-1.503169e+01
9.600000e-07	1.374335e-06	3.502658e-10	9.577712e+00	2.779127e+01
9.700000e-07	1.475319e-06	1.055437e-09	1.028147e+01	7.277315e+01
9.800000e-07	1.575894e-06	1.812586e-09	1.098238e+01	1.191871e+02
9.900000e-07	1.675940e-06	2.593247e-09	1.167960e+01	1.661991e+02
1.000000e-06	1.775318e-06	3.365208e-09	1.237216e+01	2.129211e+02
1.010000e-06	1.873915e-06	4.097924e-09	1.305928e+01	2.584699e+02
1.020000e-06	1.971684e-06	4.767907e-09	1.374063e+01	3.020249e+02
1.030000e-06	2.068753e-06	5.366257e-09	1.441710e+01	3.428811e+02
1.040000e-06	2.165092e-06	5.894348e-09	1.508849e+01	3.804918e+02
1.050000e-06	2.260628e-06	6.362827e-09	1.575428e+01	4.144974e+02
1.060000e-06	2.355390e-06	6.778632e-09	1.641467e+01	4.447386e+02
1.070000e-06	2.449361e-06	7.146331e-09	1.706955e+01	4.712527e+02
1.080000e-06	2.542534e-06	7.474524e-09	1.771887e+01	4.942540e+02
1.090000e-06	2.634947e-06	7.770468e-09	1.836290e+01	5.141009e+02
1.100000e-06	2.726422e-06	8.039882e-09	1.900038e+01	5.312540e+02
1.110000e-06	2.816747e-06	8.287203e-09	1.962986e+01	5.462285e+02
1.120000e-06	2.905969e-06	8.516586e-09	2.025164e+01	5.595461e+02
1.130000e-06	2.994172e-06	8.731256e-09	2.086633e+01	5.716919e+02
1.140000e-06	3.081386e-06	8.927807e-09	2.147412e+01	5.830783e+02
1.150000e-06	3.167533e-06	9.105744e-09	2.207448e+01	5.940207e+02
1.160000e-06	3.252623e-06	9.270346e-09	2.266747e+01	6.047257e+02
1.170000e-06	3.336742e-06	9.424028e-09	2.325370e+01	6.152909e+02
1.180000e-06	3.419744e-06	9.573292e-09	2.383213e+01	6.257178e+02
1.190000e-06	3.501442e-06	9.719259e-09	2.440148e+01	6.359321e+02
1.200000e-06	3.581777e-06	9.858010e-09	2.496134e+01	6.458107e+02
1.210000e-06	3.660825e-06	9.988038e-09	2.551222e+01	6.552113e+02
1.220000e-06	3.738641e-06	1.010957e-08	2.605452e+01	6.639996e+02
1.230000e-06	3.815119e-06	1.022194e-08	2.658749e+01	6.720732e+02
1.240000e-06	3.890062e-06	1.032387e-08	2.710977e+01	6.793778e+02
1.250000e-06	3.963359e-06	1.041790e-08	2.762057e+01	6.859154e+02
1.260000e-06	4.035187e-06	1.050766e-08	2.812114e+01	6.917443e+02
1.270000e-06	4.105668e-06	1.059695e-08	2.861233e+01	6.969701e+02
1.280000e-06	4.174794e-06	1.068519e-08	2.909406e+01	7.017323e+02
1.290000e-06	4.242500e-06	1.076760e-08	2.956590e+01	7.061854e+02
1.300000e-06	4.308644e-06	1.084479e-08	3.002686e+01	7.104796e+02
1.310000e-06	4.373137e-06	1.091865e-08	3.047631e+01	7.147433e+02
1.320000e-06	4.436085e-06	1.098593e-08	3.091499e+01	7.190685e+02
1.330000e-06	4.497578e-06	1.104868e-08	3.134354e+01	7.235023e+02
1.340000e-06	4.557643e-06	1.111307e-08	3.176213e+01	7.280445e+02
1.350000e-06	4.616111e-06	1.117784e-08	3.216959e+01	7.326512e+02
1.360000e-06	4.672776e-06	1.123800e-08	3.256449e+01	7.372445e+02
1.370000e-06	4.727726e-06	1.129346e-08	3.294744e+01	7.417257e+02
1.380000e-06	4.780981e-06	1.134763e-08	3.331857e+01	7.459905e+02
1.390000e-06	4.832299e-06	1.140133e-08	3.367620e+01	7.499447e+02
1.400000e-06	4.881523e-06	1.144930e-08	3.401925e+01	7.535169e+02
1.410000e-06	4.928886e-06	1.149020e-08	3.434931e+01	7.566685e+02
1.420000e-06	4.974600e-06	1.153046e-08	3.466789e+01	7.593976e+02
1.430000e-06	5.018707e-06	1.157186e-08	3.497528e+01	7.617384e+02
1.440000e-06	5.060960e-06	1.161243e-08	3.526973e+01	7.637559e+02
1.450000e-06	5.101274e-06	1.165141e-08	3.555069e+01	7.655360e+02
1.460000e-06	5.139883e-06	1.168604e-08	3.581975e+01	7.671730e+02
1.470000e-06	5.176851e-06	1.171659e-08	3.607738e+01	7.687574e+02
1.480000e-06	5.212059e-06	1.174548e-08	3.632274e+01	7.703633e+02
1.490000e-06	5.245317e-06	1.177184e-08	3.655452e+01	7.720395e+02
1.500000e-06	5.276693e-06	1.179601e-08	3.677317e+01	7.738040e+02
1.510000e-06	5.306345e-06	1.181889e-08	3.697982e+01	7.756427e+02
1.520000e-06	5.334259e-06	1.184165e-08	3.717436e+01	7.775131e+02
1.530000e-06	5.360140e-06	1.186303e-08	3.735472e+01	7.793514e+02
1.540000e-06	5.383954e-06	1.188079e-08	3.752068e+01	7.810821e+02
1.550000e-06	5.405966e-06	1.189555e-08	3.767408e+01	7.826300e+02
1.560000e-06	5.426241e-06	1.190956e-08	3.781538e+01	7.839306e+02
1.570000e-06	5.444639e-06	1.192428e-08	3.794359e+01	7.849393e+02
1.580000e-06	5.460991e-06	1.193778e-08	3.805754e+01	7.856380e+02
1.590000e-06	5.475316e-06	1.194641e-08	3.815738e+01	7.860370e+02
1.600000e-06	5.487591e-06	1.195226e-08	3.824292e+01	7.861734e+02
1.610000e-06	5.497625e-06	1.196058e-08	3.831284e+01	7.861061e+02
1.620000e-06	5.505588e-06	1.196995e-08	3.836834e+01	7.859066e+02
1.630000e-06	5.511762e-06	1.197555e-08	3.841137e+01	7.856499e+02
1.640000e-06	5.516108e-06	1.197539e-08	3.844165e+01	7.854036e+02
1.650000e-06	5.518423e-06	1.197501e-08	3.845779e+01	7.852189e+02
1.660000e-06	5.518740e-06	1.197723e-08	3.846000e+01	7.851239e+02
1.670000e-06	5.517274e-06	1.197592e-08	3.844978e+01	7.851204e+02
1.680000e-06	5.514112e-06	1.197164e-08	3.842775e+01	7.851837e+02
1.690000e-06	5.509148e-06	1.196402e-08	3.839315e+01	7.852670e+02
1.700000e-06	5.502233e-06	1.195654e-08	3.834496e+01	7.853085e+02
1.710000e-06	5.493579e-06	1.195063e-08	3.828465e+01	7.852399e+02
1.720000e-06	5.483304e-06	1.194537e-08	3.821305e+01	7.849969e+02
1.730000e-06	5.471163e-06	1.194733e-08	3.812843e+01	7.845278e+02
1.740000e-06	5.456954e-06	1.191476e-08	3.802941e+01	7.838010e+02
1.750000e-06	5.440648e-06	1.186747e-08	3.791578e+01	7.828094e+02
1.760000e-06	5.421818e-06	1.186552e-08	3.778455e+01	7.815710e+02
1.770000e-06	5.400168e-06	1.185157e-08	3.763367e+01	7.801264e+02
1.780000e-06	5.376396e-06	1.188054e-08	3.746800e+01	7.785325e+02
1.790000e-06	5.351537e-06	1.188128e-08	3.729476e+01	7.768546e+02
1.800000e-06	5.325949e-06	1.176781e-08	3.711644e+01	7.751566e+02
1.810000e-06	5.298614e-06	1.181337e-08	3.692594e+01	7.734917e+02
1.820000e-06	5.268877e-06	1.180066e-08	3.671871e+01	7.718947e+02
1.830000e-06	5.237534e-06	1.168829e-08	3.650028e+01	7.703766e+02
1.840000e-06	5.204476e-06	1.176759e-08	3.626990e+01	7.689230e+02
1.850000e-06	5.169534e-06	1.171088e-08	3.602639e+01	7.674951e+02
1.860000e-06	5.133006e-06	1.163430e-08	3.577183e+01	7.660354e+02
1.870000e-06	5.094410e-06	1.170352e-08	3.550285e+01	7.644754e+02
1.880000e-06	5.053980e-06	1.158168e-08	3.522110e+01	7.627446e+02
1.890000e-06	5.011965e-06	1.153536e-08	3.492829e+01	7.607809e+02
1.900000e-06	4.968027e-06	1.153687e-08	3.462209e+01	7.585385e+02
1.910000e-06	4.922356e-06	1.144376e-08	3.430380e+01	7.559952e+02
1.920000e-06	4.874771e-06	1.149974e-08	3.397219e+01	7.531550e+02
1.930000e-06	4.825324e-06	1.143510e-08	3.362759e+01	7.500480e+02
1.940000e-06	4.774249e-06	1.136245e-08	3.327165e+01	7.467264e+02
1.950000e-06	4.721090e-06	1.134476e-08	3.290119e+01	7.432571e+02
1.960000e-06	4.666025e-06	1.125361e-08	3.251744e+01	7.397129e+02
1.970000e-06	4.609287e-06	1.122549e-08	3.212204e+01	7.361617e+02
1.980000e-06	4.550922e-06	1.114335e-08	3.171529e+01	7.326573e+02
1.990000e-06	4.491069e-06	1.113253e-08	3.129818e+01	7.292315e+02
2.000000e-06	4.429441e-06	1.110774e-08	3.086869e+01	7.258890e+02
2.010000e-06	4.366130e-06	1.101935e-08	3.042748e+01	7.226068e+02
2.020000e-06	4.301275e-06	1.099782e-08	2.997551e+01	7.193363e+02
2.030000e-06	4.234970e-06	1.088843e-08	2.951343e+01	7.160100e+02
2.040000e-06	4.167232e-06	1.084220e-08	2.904136e+01	7.125505e+02
2.050000e-06	4.097741e-06	1.077968e-08	2.855708e+01	7.088808e+02
2.060000e-06	4.026684e-06	1.069306e-08	2.806189e+01	7.049349e+02
2.070000e-06	3.954289e-06	1.065952e-08	2.755737e+01	7.006670e+02
2.080000e-06	3.880583e-06	1.057973e-08	2.704371e+01	6.960581e+02
2.090000e-06	3.805424e-06	1.054450e-08	2.651993e+01	6.911184e+02
2.100000e-06	3.728644e-06	1.045449e-08	2.598485e+01	6.858863e+02
2.110000e-06	3.650294e-06	1.036709e-08	2.543883e+01	6.804228e+02
2.120000e-06	3.570565e-06	1.028808e-08	2.488320e+01	6.748033e+02
2.130000e-06	3.489739e-06	1.020102e-08	2.431993e+01	6.691062e+02
2.140000e-06	3.407728e-06	1.013986e-08	2.374839e+01	6.634016e+02
2.150000e-06	3.324525e-06	1.004432e-08	2.316855e+01	6.577407e+02
2.160000e-06	3.240184e-06	9.977625e-09	2.258078e+01	6.521477e+02
2.170000e-06	3.154525e-06	9.887748e-09	2.198383e+01	6.466146e+02
2.180000e-06	3.067589e-06	9.792876e-09	2.137797e+01	6.411017e+02
2.190000e-06	2.979605e-06	9.691477e-09	2.076481e+01	6.355414e+02
2.200000e-06	2.890701e-06	9.586772e-09	2.014524e+01	6.298463e+02
2.210000e-06	2.800890e-06	9.501747e-09	1.951935e+01	6.239211e+02
2.220000e-06	2.710125e-06	9.405541e-09	1.888681e+01	6.176746e+02
2.230000e-06	2.618381e-06	9.310673e-09	1.824745e+01	6.110329e+02
2.240000e-06	2.525742e-06	9.194752e-09	1.760185e+01	6.039489e+02
2.250000e-06	2.432162e-06	9.081365e-09	1.694969e+01	5.964100e+02
2.260000e-06	2.337575e-06	8.965814e-09	1.629051e+01	5.884396e+02
2.270000e-06	2.242119e-06	8.852054e-09	1.562529e+01	5.800940e+02
2.280000e-06	2.145911e-06	8.740789e-09	1.495481e+01	5.714550e+02
2.290000e-06	2.049032e-06	8.621675e-09	1.427967e+01	5.626169e+02
2.300000e-06	1.951516e-06	8.500050e-09	1.360008e+01	5.536727e+02
2.310000e-06	1.853392e-06	8.366171e-09	1.291625e+01	5.446986e+02
2.320000e-06	1.754643e-06	8.224823e-09	1.222808e+01	5.357404e+02
2.330000e-06	1.655238e-06	8.075727e-09	1.153532e+01	5.268035e+02
2.340000e-06	1.555360e-06	7.931110e-09	1.083928e+01	5.178481e+02
2.350000e-06	1.455055e-06	7.787813e-09	1.014025e+01	5.087900e+02
2.360000e-06	1.354217e-06	7.642011e-09	9.437511e+00	4.995085e+02
2.370000e-06	1.252767e-06	7.487661e-09	8.730507e+00	4.898590e+02
2.380000e-06	1.150712e-06	7.318962e-09	8.019290e+00	4.796904e+02
2.390000e-06	1.048136e-06	7.143598e-09	7.304442e+00	4.688643e+02
2.400000e-06	9.451276e-07	6.963513e-09	6.586576e+00	4.572728e+02
2.410000e-06	8.417698e-07	6.777946e-09	5.866278e+00	4.448546e+02
2.420000e-06	7.381198e-07	6.585743e-09	5.143943e+00	4.316038e+02
2.430000e-06	6.342350e-07	6.387125e-09	4.419972e+00	4.175722e+02
2.440000e-06	5.301736e-07	6.183473e-09	3.694770e+00	4.028630e+02
2.450000e-06	4.259658e-07	5.972665e-09	2.968548e+00	3.876160e+02
2.460000e-06	3.215969e-07	5.749134e-09	2.241203e+00	3.719858e+02
2.470000e-06	2.171218e-07	5.515162e-09	1.513118e+00	3.561151e+02
2.480000e-06	1.125660e-07	5.272890e-09	7.844704e-01	3.401061e+02
2.490000e-06	7.988192e-09	5.020814e-09	5.566956e-02	3.239927e+02
2.500000e-06	-9.655702e-08	4.757520e-09	-6.729041e-01	3.077194e+02
2.510000e-06	-2.010254e-07	4.482241e-09	-1.400943e+00	2.911271e+02
2.520000e-06	-3.054165e-07	4.193641e-09	-2.128442e+00	2.739502e+02
2.530000e-06	-4.097732e-07	3.890984e-09	-2.855702e+00	2.558266e+02
2.540000e-06	-5.140102e-07	3.572354e-09	-3.582128e+00	2.363194e+02
2.550000e-06	-6.180241e-07	3.233864e-09	-4.306998e+00	2.149500e+02
2.560000e-06	-7.217755e-07	2.872204e-09	-5.030040e+00	1.912399e+02
2.570000e-06	-8.252686e-07	2.484290e-09	-5.751282e+00	1.647572e+02
2.580000e-06	-9.284728e-07	2.065669e-09	-6.470510e+00	1.351633e+02
2.590000e-06	-1.031323e-06	1.609513e-09	-7.187268e+00	1.022555e+02
2.600000e-06	-1.133696e-06	1.106675e-09	-7.900708e+00	6.600077e+01
2.610000e-06	-1.235536e-06	5.484882e-10	-8.610429e+00	2.655663e+01
2.620000e-06	-1.336812e-06	-7.009683e-11	-9.316221e+00	-1.572310e+01
2.630000e-06	-1.437497e-06	-7.541673e-10	-1.001789e+01	-6.029915e+01
2.640000e-06	-1.537658e-06	-1.498920e-09	-1.071591e+01	-1.064737e+02
2.650000e-06	-1.637309e-06	-2.279451e-09	-1.141038e+01	-1.534315e+02
2.660000e-06	-1.736463e-06	-3.060792e-09	-1.210138e+01	-2.002912e+02
2.670000e-06	-1.834997e-06	-3.809541e-09	-1.278806e+01	-2.461637e+02
2.680000e-06	-1.932813e-06	-4.505636e-09	-1.346974e+01	-2.902101e+02
2.690000e-06	-2.030009e-06	-5.136636e-09	-1.414710e+01	-3.316967e+02
2.700000e-06	-2.126563e-06	-5.695053e-09	-1.481998e+01	-3.700400e+02
2.710000e-06	-2.222481e-06	-6.183519e-09	-1.548843e+01	-4.048385e+02
2.720000e-06	-2.317772e-06	-6.613354e-09	-1.615251e+01	-4.358899e+02
2.730000e-06	-2.412260e-06	-6.999769e-09	-1.681099e+01	-4.631905e+02
2.740000e-06	-2.505742e-06	-7.346906e-09	-1.746247e+01	-4.869187e+02
2.750000e-06	-2.598151e-06	-7.654914e-09	-1.810646e+01	-5.074057e+02
2.760000e-06	-2.689579e-06	-7.932285e-09	-1.874363e+01	-5.250940e+02
2.770000e-06	-2.780072e-06	-8.187323e-09	-1.937427e+01	-5.404911e+02
2.780000e-06	-2.869547e-06	-8.426792e-09	-1.999782e+01	-5.541212e+02
2.790000e-06	-2.957985e-06	-8.650083e-09	-2.061414e+01	-5.664806e+02
2.800000e-06	-3.045479e-06	-8.851902e-09	-2.122389e+01	-5.779998e+02
2.810000e-06	-3.131945e-06	-9.036161e-09	-2.182647e+01	-5.890163e+02
2.820000e-06	-3.217186e-06	-9.210875e-09	-2.242051e+01	-5.997605e+02
2.830000e-06	-3.301197e-06	-9.374318e-09	-2.300598e+01	-6.103527e+02
2.840000e-06	-3.384053e-06	-9.523652e-09	-2.358340e+01	-6.208135e+02
2.850000e-06	-3.465777e-06	-9.665336e-09	-2.415294e+01	-6.310826e+02
2.860000e-06	-3.546372e-06	-9.802761e-09	-2.471460e+01	-6.410451e+02
2.870000e-06	-3.625792e-06	-9.932884e-09	-2.526808e+01	-6.505602e+02
2.880000e-06	-3.703826e-06	-1.005437e-08	-2.581190e+01	-6.594899e+02
2.890000e-06	-3.780245e-06	-1.016765e-08	-2.634446e+01	-6.677232e+02
2.900000e-06	-3.855127e-06	-1.027377e-08	-2.686631e+01	-6.751945e+02
2.910000e-06	-3.928671e-06	-1.037195e-08	-2.737883e+01	-6.818936e+02
2.920000e-06	-4.000866e-06	-1.046452e-08	-2.788196e+01	-6.878670e+02
2.930000e-06	-4.071664e-06	-1.055764e-08	-2.837535e+01	-6.932114e+02
2.940000e-06	-4.140910e-06	-1.065034e-08	-2.885793e+01	-6.980603e+02
