# Temperatura_=_34.83
# Concentracion g/m^3_=_15500.0
# C_Vs_to_Am_M_A/Vsm_=_65563218390.804596
# pendiente_HvsI_1/m_=_3716.3
# ordenada_HvsI_A/m_=_1297.0
# frecuencia_Hz_=_300812.3309844783

Tiempo_(s)	Campo_(V.s)	Magnetizacion_(V.s)	Campo_(kA/m)	Magnetizacion_(A/m)
0.000000e+00	-5.486383e-06	-1.210647e-08	-3.830757e+01	-7.910482e+02
1.000000e-08	-5.484883e-06	-1.210605e-08	-3.829710e+01	-7.910901e+02
2.000000e-08	-5.481396e-06	-1.210408e-08	-3.827275e+01	-7.911811e+02
3.000000e-08	-5.476070e-06	-1.210230e-08	-3.823556e+01	-7.912646e+02
4.000000e-08	-5.469117e-06	-1.209857e-08	-3.818701e+01	-7.912728e+02
5.000000e-08	-5.460525e-06	-1.208606e-08	-3.812703e+01	-7.911369e+02
6.000000e-08	-5.450004e-06	-1.206463e-08	-3.805356e+01	-7.907966e+02
7.000000e-08	-5.437448e-06	-1.204286e-08	-3.796589e+01	-7.902095e+02
8.000000e-08	-5.422929e-06	-1.204040e-08	-3.786452e+01	-7.893566e+02
9.000000e-08	-5.406059e-06	-1.204916e-08	-3.774673e+01	-7.882454e+02
1.000000e-07	-5.386796e-06	-1.203960e-08	-3.761223e+01	-7.869083e+02
1.100000e-07	-5.365531e-06	-1.201447e-08	-3.746375e+01	-7.853987e+02
1.200000e-07	-5.342486e-06	-1.198118e-08	-3.730284e+01	-7.837826e+02
1.300000e-07	-5.317931e-06	-1.194022e-08	-3.713139e+01	-7.821292e+02
1.400000e-07	-5.291878e-06	-1.193975e-08	-3.694948e+01	-7.805011e+02
1.500000e-07	-5.264051e-06	-1.192035e-08	-3.675518e+01	-7.789448e+02
1.600000e-07	-5.234469e-06	-1.187214e-08	-3.654863e+01	-7.774838e+02
1.700000e-07	-5.203323e-06	-1.187195e-08	-3.633116e+01	-7.761145e+02
1.800000e-07	-5.170292e-06	-1.185086e-08	-3.610053e+01	-7.748064e+02
1.900000e-07	-5.135206e-06	-1.180158e-08	-3.585555e+01	-7.735057e+02
2.000000e-07	-5.098507e-06	-1.177988e-08	-3.559931e+01	-7.721420e+02
2.100000e-07	-5.060150e-06	-1.173119e-08	-3.533149e+01	-7.706379e+02
2.200000e-07	-5.020012e-06	-1.168386e-08	-3.505123e+01	-7.689192e+02
2.300000e-07	-4.978012e-06	-1.169070e-08	-3.475798e+01	-7.669254e+02
2.400000e-07	-4.933985e-06	-1.165919e-08	-3.445057e+01	-7.646172e+02
2.500000e-07	-4.888127e-06	-1.160549e-08	-3.413037e+01	-7.619829e+02
2.600000e-07	-4.840473e-06	-1.156927e-08	-3.379763e+01	-7.590392e+02
2.700000e-07	-4.790898e-06	-1.150984e-08	-3.345149e+01	-7.558297e+02
2.800000e-07	-4.739275e-06	-1.144990e-08	-3.309104e+01	-7.524182e+02
2.900000e-07	-4.685687e-06	-1.143368e-08	-3.271688e+01	-7.488808e+02
3.000000e-07	-4.630424e-06	-1.139722e-08	-3.233101e+01	-7.452945e+02
3.100000e-07	-4.573588e-06	-1.133981e-08	-3.193417e+01	-7.417270e+02
3.200000e-07	-4.514989e-06	-1.131386e-08	-3.152501e+01	-7.382267e+02
3.300000e-07	-4.454624e-06	-1.125463e-08	-3.110352e+01	-7.348160e+02
3.400000e-07	-4.392735e-06	-1.116830e-08	-3.067140e+01	-7.314876e+02
3.500000e-07	-4.329372e-06	-1.111213e-08	-3.022897e+01	-7.282052e+02
3.600000e-07	-4.264572e-06	-1.105609e-08	-2.977653e+01	-7.249080e+02
3.700000e-07	-4.198200e-06	-1.099192e-08	-2.931309e+01	-7.215189e+02
3.800000e-07	-4.130107e-06	-1.094256e-08	-2.883765e+01	-7.179550e+02
3.900000e-07	-4.060467e-06	-1.088367e-08	-2.835140e+01	-7.141389e+02
4.000000e-07	-3.989507e-06	-1.081320e-08	-2.785594e+01	-7.100090e+02
4.100000e-07	-3.917301e-06	-1.074344e-08	-2.735177e+01	-7.055289e+02
4.200000e-07	-3.843743e-06	-1.066575e-08	-2.683817e+01	-7.006921e+02
4.300000e-07	-3.768557e-06	-1.058294e-08	-2.631319e+01	-6.955231e+02
4.400000e-07	-3.691654e-06	-1.050946e-08	-2.577624e+01	-6.900743e+02
4.500000e-07	-3.613217e-06	-1.043775e-08	-2.522856e+01	-6.844187e+02
4.600000e-07	-3.533277e-06	-1.036536e-08	-2.467040e+01	-6.786393e+02
4.700000e-07	-3.451942e-06	-1.028973e-08	-2.410250e+01	-6.728174e+02
4.800000e-07	-3.369387e-06	-1.019857e-08	-2.352607e+01	-6.670204e+02
4.900000e-07	-3.285690e-06	-1.010480e-08	-2.294167e+01	-6.612915e+02
5.000000e-07	-3.201010e-06	-1.001145e-08	-2.235041e+01	-6.556424e+02
5.100000e-07	-3.115475e-06	-9.916909e-09	-2.175318e+01	-6.500506e+02
5.200000e-07	-3.028995e-06	-9.825451e-09	-2.114935e+01	-6.444606e+02
5.300000e-07	-2.941502e-06	-9.735376e-09	-2.053845e+01	-6.387913e+02
5.400000e-07	-2.853046e-06	-9.636232e-09	-1.992082e+01	-6.329451e+02
5.500000e-07	-2.763685e-06	-9.530839e-09	-1.929688e+01	-6.268217e+02
5.600000e-07	-2.673257e-06	-9.422650e-09	-1.866548e+01	-6.203311e+02
5.700000e-07	-2.581573e-06	-9.308472e-09	-1.802532e+01	-6.134065e+02
5.800000e-07	-2.488860e-06	-9.196058e-09	-1.737797e+01	-6.060134e+02
5.900000e-07	-2.395417e-06	-9.084940e-09	-1.672552e+01	-5.981552e+02
6.000000e-07	-2.301207e-06	-8.970399e-09	-1.606772e+01	-5.898729e+02
6.100000e-07	-2.206206e-06	-8.850570e-09	-1.540439e+01	-5.812398e+02
6.200000e-07	-2.110451e-06	-8.723270e-09	-1.473580e+01	-5.723511e+02
6.300000e-07	-2.013872e-06	-8.590233e-09	-1.406146e+01	-5.633094e+02
6.400000e-07	-1.916548e-06	-8.457103e-09	-1.338191e+01	-5.542094e+02
6.500000e-07	-1.818544e-06	-8.323097e-09	-1.269762e+01	-5.451219e+02
6.600000e-07	-1.719801e-06	-8.184159e-09	-1.200817e+01	-5.360808e+02
6.700000e-07	-1.620261e-06	-8.040554e-09	-1.131315e+01	-5.270747e+02
6.800000e-07	-1.520010e-06	-7.890777e-09	-1.061317e+01	-5.180438e+02
6.900000e-07	-1.419222e-06	-7.733541e-09	-9.909435e+00	-5.088843e+02
7.000000e-07	-1.318060e-06	-7.569428e-09	-9.203091e+00	-4.994586e+02
7.100000e-07	-1.216562e-06	-7.401214e-09	-8.494398e+00	-4.896107e+02
7.200000e-07	-1.114669e-06	-7.230415e-09	-7.782955e+00	-4.791857e+02
7.300000e-07	-1.012371e-06	-7.059547e-09	-7.068676e+00	-4.680495e+02
7.400000e-07	-9.096581e-07	-6.886204e-09	-6.351506e+00	-4.561072e+02
7.500000e-07	-8.066425e-07	-6.701094e-09	-5.632220e+00	-4.433172e+02
7.600000e-07	-7.034182e-07	-6.502406e-09	-4.911477e+00	-4.296975e+02
7.700000e-07	-5.999523e-07	-6.293870e-09	-4.189047e+00	-4.153250e+02
7.800000e-07	-4.962713e-07	-6.079678e-09	-3.465115e+00	-4.003249e+02
7.900000e-07	-3.924513e-07	-5.862744e-09	-2.740213e+00	-3.848519e+02
8.000000e-07	-2.884796e-07	-5.641787e-09	-2.014251e+00	-3.690657e+02
8.100000e-07	-1.844000e-07	-5.410943e-09	-1.287536e+00	-3.531008e+02
8.200000e-07	-8.028595e-08	-5.167618e-09	-5.605806e-01	-3.370376e+02
8.300000e-07	2.385902e-08	-4.911651e-09	1.665909e-01	-3.208755e+02
8.400000e-07	1.280099e-07	-4.641066e-09	8.938033e-01	-3.045130e+02
8.500000e-07	2.321294e-07	-4.355315e-09	1.620797e+00	-2.877382e+02
8.600000e-07	3.361371e-07	-4.056027e-09	2.347010e+00	-2.702311e+02
8.700000e-07	4.399870e-07	-3.744052e-09	3.072121e+00	-2.515788e+02
8.800000e-07	5.436551e-07	-3.417172e-09	3.795963e+00	-2.313036e+02
8.900000e-07	6.471635e-07	-3.070115e-09	4.518690e+00	-2.089017e+02
9.000000e-07	7.505408e-07	-2.696134e-09	5.240501e+00	-1.838888e+02
9.100000e-07	8.536619e-07	-2.291842e-09	5.960524e+00	-1.558498e+02
9.200000e-07	9.564471e-07	-1.850564e-09	6.678201e+00	-1.244856e+02
9.300000e-07	1.058885e-06	-1.363361e-09	7.393452e+00	-8.965445e+01
9.400000e-07	1.160972e-06	-8.242646e-10	8.106258e+00	-5.140169e+01
9.500000e-07	1.262723e-06	-2.263336e-10	8.816711e+00	-9.975058e+00
9.600000e-07	1.364058e-06	4.385098e-10	9.524263e+00	3.417660e+01
9.700000e-07	1.464937e-06	1.169721e-09	1.022863e+01	8.042180e+01
9.800000e-07	1.565324e-06	1.950720e-09	1.092956e+01	1.279810e+02
9.900000e-07	1.665092e-06	2.751879e-09	1.162617e+01	1.759746e+02
1.000000e-06	1.764221e-06	3.538164e-09	1.231832e+01	2.234794e+02
1.010000e-06	1.862667e-06	4.275521e-09	1.300570e+01	2.695905e+02
1.020000e-06	1.960339e-06	4.940945e-09	1.368768e+01	3.134803e+02
1.030000e-06	2.057204e-06	5.531008e-09	1.436402e+01	3.544518e+02
1.040000e-06	2.153268e-06	6.051965e-09	1.503477e+01	3.919798e+02
1.050000e-06	2.248631e-06	6.512416e-09	1.570062e+01	4.257382e+02
1.060000e-06	2.343288e-06	6.922652e-09	1.636154e+01	4.556088e+02
1.070000e-06	2.437185e-06	7.286957e-09	1.701715e+01	4.816744e+02
1.080000e-06	2.530334e-06	7.610826e-09	1.766755e+01	5.041949e+02
1.090000e-06	2.622693e-06	7.902265e-09	1.831243e+01	5.235709e+02
1.100000e-06	2.714047e-06	8.167780e-09	1.895029e+01	5.402981e+02
1.110000e-06	2.804292e-06	8.410309e-09	1.958041e+01	5.549177e+02
1.120000e-06	2.893471e-06	8.633423e-09	2.020309e+01	5.679666e+02
1.130000e-06	2.981600e-06	8.841738e-09	2.081843e+01	5.799346e+02
1.140000e-06	3.068707e-06	9.035898e-09	2.142664e+01	5.912290e+02
1.150000e-06	3.154819e-06	9.217034e-09	2.202789e+01	6.021521e+02
1.160000e-06	3.239938e-06	9.386040e-09	2.262222e+01	6.128919e+02
1.170000e-06	3.323948e-06	9.542841e-09	2.320880e+01	6.235251e+02
1.180000e-06	3.406799e-06	9.691481e-09	2.378729e+01	6.340322e+02
1.190000e-06	3.488442e-06	9.835022e-09	2.435735e+01	6.443206e+02
1.200000e-06	3.568772e-06	9.970040e-09	2.491824e+01	6.542539e+02
1.210000e-06	3.647801e-06	1.009530e-08	2.547004e+01	6.636819e+02
1.220000e-06	3.725515e-06	1.021322e-08	2.601267e+01	6.724688e+02
1.230000e-06	3.801875e-06	1.032598e-08	2.654583e+01	6.805162e+02
1.240000e-06	3.876765e-06	1.043353e-08	2.706874e+01	6.877782e+02
1.250000e-06	3.950030e-06	1.053521e-08	2.758029e+01	6.942682e+02
1.260000e-06	4.021789e-06	1.062923e-08	2.808134e+01	7.000565e+02
1.270000e-06	4.092231e-06	1.071871e-08	2.857318e+01	7.052601e+02
1.280000e-06	4.161329e-06	1.080508e-08	2.905565e+01	7.100268e+02
1.290000e-06	4.228968e-06	1.088659e-08	2.952792e+01	7.145158e+02
1.300000e-06	4.294997e-06	1.096148e-08	2.998896e+01	7.188776e+02
1.310000e-06	4.359416e-06	1.103084e-08	3.043875e+01	7.232365e+02
1.320000e-06	4.422337e-06	1.110114e-08	3.087809e+01	7.276766e+02
1.330000e-06	4.483827e-06	1.117412e-08	3.130743e+01	7.322346e+02
1.340000e-06	4.543880e-06	1.124422e-08	3.172673e+01	7.368986e+02
1.350000e-06	4.602323e-06	1.130692e-08	3.213480e+01	7.416137e+02
1.360000e-06	4.658975e-06	1.136553e-08	3.253036e+01	7.462924e+02
1.370000e-06	4.713898e-06	1.142413e-08	3.291385e+01	7.508298e+02
1.380000e-06	4.767185e-06	1.147818e-08	3.328592e+01	7.551189e+02
1.390000e-06	4.818585e-06	1.152262e-08	3.364481e+01	7.590667e+02
1.400000e-06	4.867886e-06	1.156331e-08	3.398904e+01	7.626067e+02
1.410000e-06	4.915365e-06	1.160915e-08	3.432056e+01	7.657078e+02
1.420000e-06	4.961239e-06	1.166022e-08	3.464086e+01	7.683773e+02
1.430000e-06	5.005423e-06	1.170610e-08	3.494936e+01	7.706593e+02
1.440000e-06	5.047745e-06	1.174345e-08	3.524487e+01	7.726273e+02
1.450000e-06	5.088170e-06	1.177971e-08	3.552713e+01	7.743738e+02
1.460000e-06	5.126864e-06	1.181489e-08	3.579731e+01	7.759969e+02
1.470000e-06	5.163917e-06	1.184520e-08	3.605602e+01	7.775876e+02
1.480000e-06	5.199219e-06	1.187088e-08	3.630251e+01	7.792171e+02
1.490000e-06	5.232548e-06	1.189467e-08	3.653522e+01	7.809291e+02
1.500000e-06	5.264040e-06	1.191948e-08	3.675511e+01	7.827342e+02
1.510000e-06	5.293887e-06	1.194299e-08	3.696351e+01	7.846105e+02
1.520000e-06	5.321938e-06	1.196318e-08	3.715937e+01	7.865081e+02
1.530000e-06	5.347915e-06	1.198246e-08	3.734075e+01	7.883572e+02
1.540000e-06	5.371866e-06	1.200180e-08	3.750798e+01	7.900791e+02
1.550000e-06	5.394005e-06	1.201987e-08	3.766256e+01	7.915976e+02
1.560000e-06	5.414401e-06	1.203250e-08	3.780497e+01	7.928507e+02
1.570000e-06	5.432923e-06	1.204038e-08	3.793430e+01	7.937985e+02
1.580000e-06	5.449384e-06	1.205039e-08	3.804923e+01	7.944296e+02
1.590000e-06	5.463874e-06	1.206193e-08	3.815041e+01	7.947618e+02
1.600000e-06	5.476317e-06	1.206967e-08	3.823729e+01	7.948395e+02
1.610000e-06	5.486506e-06	1.207364e-08	3.830844e+01	7.947274e+02
1.620000e-06	5.494622e-06	1.208020e-08	3.836510e+01	7.945011e+02
1.630000e-06	5.500892e-06	1.208931e-08	3.840888e+01	7.942367e+02
1.640000e-06	5.505338e-06	1.209246e-08	3.843992e+01	7.940002e+02
1.650000e-06	5.507789e-06	1.208775e-08	3.845704e+01	7.938384e+02
1.660000e-06	5.508213e-06	1.208301e-08	3.846000e+01	7.937732e+02
1.670000e-06	5.506881e-06	1.208311e-08	3.845070e+01	7.937989e+02
1.680000e-06	5.503923e-06	1.208222e-08	3.843004e+01	7.938836e+02
1.690000e-06	5.499141e-06	1.207492e-08	3.839665e+01	7.939741e+02
1.700000e-06	5.492374e-06	1.206488e-08	3.834941e+01	7.940044e+02
1.710000e-06	5.483887e-06	1.205930e-08	3.829015e+01	7.939047e+02
1.720000e-06	5.473779e-06	1.205571e-08	3.821957e+01	7.936125e+02
1.730000e-06	5.461739e-06	1.204944e-08	3.813550e+01	7.930807e+02
1.740000e-06	5.447645e-06	1.202244e-08	3.803709e+01	7.922850e+02
1.750000e-06	5.431525e-06	1.199115e-08	3.792454e+01	7.912271e+02
1.760000e-06	5.412945e-06	1.196905e-08	3.779481e+01	7.899346e+02
1.770000e-06	5.391595e-06	1.195720e-08	3.764573e+01	7.884566e+02
1.780000e-06	5.368080e-06	1.197057e-08	3.748155e+01	7.868574e+02
1.790000e-06	5.343427e-06	1.195932e-08	3.730941e+01	7.852063e+02
1.800000e-06	5.317965e-06	1.191585e-08	3.713163e+01	7.835681e+02
1.810000e-06	5.290753e-06	1.189606e-08	3.694162e+01	7.819936e+02
1.820000e-06	5.261233e-06	1.189721e-08	3.673551e+01	7.805114e+02
1.830000e-06	5.230061e-06	1.188523e-08	3.651785e+01	7.791241e+02
1.840000e-06	5.197171e-06	1.187610e-08	3.628821e+01	7.778067e+02
1.850000e-06	5.162428e-06	1.185010e-08	3.604562e+01	7.765099e+02
1.860000e-06	5.126042e-06	1.182257e-08	3.579156e+01	7.751660e+02
1.870000e-06	5.087591e-06	1.182177e-08	3.552309e+01	7.736984e+02
1.880000e-06	5.047291e-06	1.176756e-08	3.524170e+01	7.720314e+02
1.890000e-06	5.005443e-06	1.170727e-08	3.494951e+01	7.701006e+02
1.900000e-06	4.961746e-06	1.169696e-08	3.464440e+01	7.678618e+02
1.910000e-06	4.916331e-06	1.164099e-08	3.432730e+01	7.652968e+02
1.920000e-06	4.869063e-06	1.160477e-08	3.399726e+01	7.624166e+02
1.930000e-06	4.819883e-06	1.161071e-08	3.365387e+01	7.592591e+02
1.940000e-06	4.769024e-06	1.153479e-08	3.329875e+01	7.558848e+02
1.950000e-06	4.716082e-06	1.147598e-08	3.292910e+01	7.523677e+02
1.960000e-06	4.661186e-06	1.145575e-08	3.254580e+01	7.487857e+02
1.970000e-06	4.604667e-06	1.137394e-08	3.215117e+01	7.452092e+02
1.980000e-06	4.546534e-06	1.131728e-08	3.174526e+01	7.416916e+02
1.990000e-06	4.486892e-06	1.129501e-08	3.132883e+01	7.382613e+02
2.000000e-06	4.425573e-06	1.124283e-08	3.090068e+01	7.349173e+02
2.010000e-06	4.362561e-06	1.118281e-08	3.046071e+01	7.316293e+02
2.020000e-06	4.297999e-06	1.112588e-08	3.000992e+01	7.283413e+02
2.030000e-06	4.232003e-06	1.106699e-08	2.954911e+01	7.249788e+02
2.040000e-06	4.164556e-06	1.099435e-08	2.907818e+01	7.214593e+02
2.050000e-06	4.095415e-06	1.092889e-08	2.859541e+01	7.177030e+02
2.060000e-06	4.024675e-06	1.086545e-08	2.810149e+01	7.136443e+02
2.070000e-06	3.952574e-06	1.080232e-08	2.759806e+01	7.092408e+02
2.080000e-06	3.879166e-06	1.074289e-08	2.708550e+01	7.044794e+02
2.090000e-06	3.804251e-06	1.066220e-08	2.656243e+01	6.993779e+02
2.100000e-06	3.727641e-06	1.058988e-08	2.602751e+01	6.939835e+02
2.110000e-06	3.649431e-06	1.050915e-08	2.548142e+01	6.883654e+02
2.120000e-06	3.569898e-06	1.042590e-08	2.492610e+01	6.826054e+02
2.130000e-06	3.489236e-06	1.035523e-08	2.436290e+01	6.767862e+02
2.140000e-06	3.407401e-06	1.027080e-08	2.379149e+01	6.709792e+02
2.150000e-06	3.324396e-06	1.018789e-08	2.321193e+01	6.652335e+02
2.160000e-06	3.240203e-06	1.010206e-08	2.262407e+01	6.595680e+02
2.170000e-06	3.154755e-06	1.001159e-08	2.202745e+01	6.539674e+02
2.180000e-06	3.068065e-06	9.910091e-09	2.142215e+01	6.483832e+02
2.190000e-06	2.980323e-06	9.809247e-09	2.080951e+01	6.427386e+02
2.200000e-06	2.891641e-06	9.715921e-09	2.019030e+01	6.369388e+02
2.210000e-06	2.802019e-06	9.620569e-09	1.956454e+01	6.308829e+02
2.220000e-06	2.711517e-06	9.524454e-09	1.893263e+01	6.244776e+02
2.230000e-06	2.620053e-06	9.417643e-09	1.829400e+01	6.176500e+02
2.240000e-06	2.527627e-06	9.304855e-09	1.764865e+01	6.103583e+02
2.250000e-06	2.434290e-06	9.187741e-09	1.699695e+01	6.025975e+02
2.260000e-06	2.339968e-06	9.067930e-09	1.633836e+01	5.944008e+02
2.270000e-06	2.244736e-06	8.952766e-09	1.567342e+01	5.858354e+02
2.280000e-06	2.148770e-06	8.842622e-09	1.500336e+01	5.769927e+02
2.290000e-06	2.052110e-06	8.724628e-09	1.432845e+01	5.679753e+02
2.300000e-06	1.954722e-06	8.594642e-09	1.364846e+01	5.588808e+02
2.310000e-06	1.856798e-06	8.454959e-09	1.296472e+01	5.497863e+02
2.320000e-06	1.758387e-06	8.309891e-09	1.227759e+01	5.407345e+02
2.330000e-06	1.659286e-06	8.162573e-09	1.158563e+01	5.317242e+02
2.340000e-06	1.559552e-06	8.014438e-09	1.088926e+01	5.227059e+02
2.350000e-06	1.459337e-06	7.868966e-09	1.018953e+01	5.135846e+02
2.360000e-06	1.358662e-06	7.720401e-09	9.486587e+00	5.042287e+02
2.370000e-06	1.257472e-06	7.565829e-09	8.780044e+00	4.944846e+02
2.380000e-06	1.155803e-06	7.398700e-09	8.070163e+00	4.841955e+02
2.390000e-06	1.053581e-06	7.220609e-09	7.356415e+00	4.732212e+02
2.400000e-06	9.507866e-07	7.036046e-09	6.638678e+00	4.614571e+02
2.410000e-06	8.475548e-07	6.848552e-09	5.917882e+00	4.488492e+02
2.420000e-06	7.439940e-07	6.659602e-09	5.194789e+00	4.354027e+02
2.430000e-06	6.402329e-07	6.460407e-09	4.470299e+00	4.211824e+02
2.440000e-06	5.363076e-07	6.251028e-09	3.744660e+00	4.063043e+02
2.450000e-06	4.322705e-07	6.035897e-09	3.018242e+00	3.909190e+02
2.460000e-06	3.281278e-07	5.812082e-09	2.291087e+00	3.751872e+02
2.470000e-06	2.238584e-07	5.575590e-09	1.563047e+00	3.592514e+02
2.480000e-06	1.195123e-07	5.328263e-09	8.344711e-01	3.432062e+02
2.490000e-06	1.516978e-08	5.072303e-09	1.059200e-01	3.270701e+02
2.500000e-06	-8.912599e-08	4.809294e-09	-6.223044e-01	3.107645e+02
2.510000e-06	-1.933771e-07	4.533504e-09	-1.350217e+00	2.941014e+02
2.520000e-06	-2.975560e-07	4.239866e-09	-2.077625e+00	2.767832e+02
2.530000e-06	-4.016797e-07	3.929766e-09	-2.804648e+00	2.584147e+02
2.540000e-06	-5.057085e-07	3.603557e-09	-3.531008e+00	2.385295e+02
2.550000e-06	-6.095508e-07	3.259295e-09	-4.256067e+00	2.166254e+02
2.560000e-06	-7.131752e-07	2.891892e-09	-4.979603e+00	1.922100e+02
2.570000e-06	-8.165575e-07	2.495734e-09	-5.701450e+00	1.648492e+02
2.580000e-06	-9.196632e-07	2.066497e-09	-6.421365e+00	1.342153e+02
2.590000e-06	-1.022347e-06	1.598606e-09	-7.138336e+00	1.001299e+02
2.600000e-06	-1.124490e-06	1.078591e-09	-7.851530e+00	6.259649e+01
2.610000e-06	-1.226107e-06	4.956758e-10	-8.561045e+00	2.181882e+01
2.620000e-06	-1.327231e-06	-1.515364e-10	-9.267125e+00	-2.179631e+01
2.630000e-06	-1.427896e-06	-8.619790e-10	-9.970001e+00	-6.765417e+01
2.640000e-06	-1.528037e-06	-1.628404e-09	-1.066922e+01	-1.150033e+02
2.650000e-06	-1.627591e-06	-2.428020e-09	-1.136433e+01	-1.629810e+02
2.660000e-06	-1.726537e-06	-3.226043e-09	-1.205520e+01	-2.106684e+02
2.670000e-06	-1.824852e-06	-3.985664e-09	-1.274166e+01	-2.571513e+02
2.680000e-06	-1.922564e-06	-4.682532e-09	-1.342392e+01	-3.015810e+02
2.690000e-06	-2.019633e-06	-5.307498e-09	-1.410168e+01	-3.432285e+02
2.700000e-06	-2.116063e-06	-5.858572e-09	-1.477499e+01	-3.815290e+02
2.710000e-06	-2.211898e-06	-6.341331e-09	-1.544414e+01	-4.161122e+02
2.720000e-06	-2.307058e-06	-6.765550e-09	-1.610857e+01	-4.468156e+02
2.730000e-06	-2.401369e-06	-7.144500e-09	-1.676708e+01	-4.736802e+02
2.740000e-06	-2.494685e-06	-7.484970e-09	-1.741864e+01	-4.969309e+02
2.750000e-06	-2.587020e-06	-7.792431e-09	-1.806335e+01	-5.169415e+02
2.760000e-06	-2.678383e-06	-8.073009e-09	-1.870127e+01	-5.341916e+02
2.770000e-06	-2.768764e-06	-8.326850e-09	-1.933234e+01	-5.492168e+02
2.780000e-06	-2.858141e-06	-8.559474e-09	-1.995640e+01	-5.625589e+02
2.790000e-06	-2.946532e-06	-8.775235e-09	-2.057357e+01	-5.747211e+02
2.800000e-06	-3.033991e-06	-8.973832e-09	-2.118424e+01	-5.861305e+02
2.810000e-06	-3.120386e-06	-9.158449e-09	-2.178747e+01	-5.971135e+02
2.820000e-06	-3.205573e-06	-9.331454e-09	-2.238228e+01	-6.078825e+02
2.830000e-06	-3.289542e-06	-9.492727e-09	-2.296857e+01	-6.185373e+02
2.840000e-06	-3.372339e-06	-9.645088e-09	-2.354668e+01	-6.290772e+02
2.850000e-06	-3.454003e-06	-9.790265e-09	-2.411689e+01	-6.394230e+02
2.860000e-06	-3.534537e-06	-9.926917e-09	-2.467920e+01	-6.494451e+02
2.870000e-06	-3.613827e-06	-1.005394e-08	-2.523282e+01	-6.589937e+02
2.880000e-06	-3.691730e-06	-1.017352e-08	-2.577677e+01	-6.679279e+02
2.890000e-06	-3.768137e-06	-1.028688e-08	-2.631026e+01	-6.761396e+02
2.900000e-06	-3.843037e-06	-1.039427e-08	-2.683324e+01	-6.835708e+02
2.910000e-06	-3.916496e-06	-1.049540e-08	-2.734615e+01	-6.902223e+02
2.920000e-06	-3.988627e-06	-1.059096e-08	-2.784979e+01	-6.961525e+02
2.930000e-06	-4.059394e-06	-1.068557e-08	-2.834390e+01	-7.014698e+02
2.940000e-06	-4.128574e-06	-1.077868e-08	-2.882694e+01	-7.063168e+02
