# Temperatura_=_48.2
# Concentracion g/m^3_=_15500.0
# C_Vs_to_Am_M_A/Vsm_=_65563218390.804596
# pendiente_HvsI_1/m_=_3716.3
# ordenada_HvsI_A/m_=_1297.0
# frecuencia_Hz_=_300811.56466197985

Tiempo_(s)	Campo_(V.s)	Magnetizacion_(V.s)	Campo_(kA/m)	Magnetizacion_(A/m)
0.000000e+00	-5.489884e-06	-1.236946e-08	-3.830824e+01	-8.089574e+02
1.000000e-08	-5.488361e-06	-1.236726e-08	-3.829761e+01	-8.090743e+02
2.000000e-08	-5.484825e-06	-1.236913e-08	-3.827294e+01	-8.092250e+02
3.000000e-08	-5.479514e-06	-1.236875e-08	-3.823588e+01	-8.093397e+02
4.000000e-08	-5.472640e-06	-1.236116e-08	-3.818791e+01	-8.093407e+02
5.000000e-08	-5.464083e-06	-1.234657e-08	-3.812820e+01	-8.091532e+02
6.000000e-08	-5.453583e-06	-1.233008e-08	-3.805493e+01	-8.087160e+02
7.000000e-08	-5.441022e-06	-1.231480e-08	-3.796728e+01	-8.079902e+02
8.000000e-08	-5.426408e-06	-1.231120e-08	-3.786530e+01	-8.069648e+02
9.000000e-08	-5.409434e-06	-1.230940e-08	-3.774686e+01	-8.056581e+02
1.000000e-07	-5.390125e-06	-1.229606e-08	-3.761213e+01	-8.041151e+02
1.100000e-07	-5.368836e-06	-1.227591e-08	-3.746357e+01	-8.024009e+02
1.200000e-07	-5.345739e-06	-1.223665e-08	-3.730240e+01	-8.005917e+02
1.300000e-07	-5.321198e-06	-1.219428e-08	-3.713115e+01	-7.987637e+02
1.400000e-07	-5.295190e-06	-1.219743e-08	-3.694967e+01	-7.969821e+02
1.500000e-07	-5.267321e-06	-1.215984e-08	-3.675520e+01	-7.952922e+02
1.600000e-07	-5.237726e-06	-1.212407e-08	-3.654869e+01	-7.937118e+02
1.700000e-07	-5.206580e-06	-1.213186e-08	-3.633135e+01	-7.922293e+02
1.800000e-07	-5.173502e-06	-1.208650e-08	-3.610054e+01	-7.908042e+02
1.900000e-07	-5.138335e-06	-1.204877e-08	-3.585514e+01	-7.893724e+02
2.000000e-07	-5.101602e-06	-1.203109e-08	-3.559882e+01	-7.878553e+02
2.100000e-07	-5.063286e-06	-1.197552e-08	-3.533145e+01	-7.861696e+02
2.200000e-07	-5.023122e-06	-1.193805e-08	-3.505119e+01	-7.842393e+02
2.300000e-07	-4.981071e-06	-1.193387e-08	-3.475776e+01	-7.820058e+02
2.400000e-07	-4.937060e-06	-1.189820e-08	-3.445065e+01	-7.794360e+02
2.500000e-07	-4.891251e-06	-1.184709e-08	-3.413099e+01	-7.765268e+02
2.600000e-07	-4.843669e-06	-1.178704e-08	-3.379897e+01	-7.733059e+02
2.700000e-07	-4.794071e-06	-1.172948e-08	-3.345288e+01	-7.698278e+02
2.800000e-07	-4.742348e-06	-1.168118e-08	-3.309196e+01	-7.661662e+02
2.900000e-07	-4.688682e-06	-1.165443e-08	-3.271748e+01	-7.624040e+02
3.000000e-07	-4.633335e-06	-1.161417e-08	-3.233127e+01	-7.586216e+02
3.100000e-07	-4.576366e-06	-1.155541e-08	-3.193374e+01	-7.548859e+02
3.200000e-07	-4.517603e-06	-1.151437e-08	-3.152369e+01	-7.512401e+02
3.300000e-07	-4.457150e-06	-1.145167e-08	-3.110185e+01	-7.476983e+02
3.400000e-07	-4.395207e-06	-1.137263e-08	-3.066962e+01	-7.442424e+02
3.500000e-07	-4.331819e-06	-1.130425e-08	-3.022730e+01	-7.408248e+02
3.600000e-07	-4.267002e-06	-1.124394e-08	-2.977501e+01	-7.373743e+02
3.700000e-07	-4.200507e-06	-1.119055e-08	-2.931100e+01	-7.338060e+02
3.800000e-07	-4.132283e-06	-1.113528e-08	-2.883494e+01	-7.300328e+02
3.900000e-07	-4.062570e-06	-1.106843e-08	-2.834849e+01	-7.259773e+02
4.000000e-07	-3.991555e-06	-1.099829e-08	-2.785295e+01	-7.215830e+02
4.100000e-07	-3.919312e-06	-1.092661e-08	-2.734884e+01	-7.168219e+02
4.200000e-07	-3.845624e-06	-1.084612e-08	-2.683464e+01	-7.116988e+02
4.300000e-07	-3.770199e-06	-1.075694e-08	-2.630833e+01	-7.062508e+02
4.400000e-07	-3.693158e-06	-1.067802e-08	-2.577074e+01	-7.005420e+02
4.500000e-07	-3.614736e-06	-1.060574e-08	-2.522351e+01	-6.946548e+02
4.600000e-07	-3.534786e-06	-1.052995e-08	-2.466562e+01	-6.886777e+02
4.700000e-07	-3.453394e-06	-1.044713e-08	-2.409767e+01	-6.826925e+02
4.800000e-07	-3.370837e-06	-1.035485e-08	-2.352160e+01	-6.767620e+02
4.900000e-07	-3.287183e-06	-1.026494e-08	-2.293786e+01	-6.709202e+02
5.000000e-07	-3.202550e-06	-1.017097e-08	-2.234729e+01	-6.651657e+02
5.100000e-07	-3.116996e-06	-1.007121e-08	-2.175030e+01	-6.594610e+02
5.200000e-07	-3.030435e-06	-9.970304e-09	-2.114628e+01	-6.537359e+02
5.300000e-07	-2.942846e-06	-9.872956e-09	-2.053509e+01	-6.478962e+02
5.400000e-07	-2.854367e-06	-9.772283e-09	-1.991769e+01	-6.418358e+02
5.500000e-07	-2.764938e-06	-9.664548e-09	-1.929365e+01	-6.354508e+02
5.600000e-07	-2.674268e-06	-9.553591e-09	-1.866096e+01	-6.286539e+02
5.700000e-07	-2.582439e-06	-9.439308e-09	-1.802018e+01	-6.213865e+02
5.800000e-07	-2.489737e-06	-9.325970e-09	-1.737330e+01	-6.136278e+02
5.900000e-07	-2.396244e-06	-9.209308e-09	-1.672091e+01	-6.053977e+02
6.000000e-07	-2.301952e-06	-9.087734e-09	-1.606295e+01	-5.967549e+02
6.100000e-07	-2.206920e-06	-8.962331e-09	-1.539982e+01	-5.877890e+02
6.200000e-07	-2.111135e-06	-8.831372e-09	-1.473144e+01	-5.786075e+02
6.300000e-07	-2.014583e-06	-8.695333e-09	-1.405769e+01	-5.693197e+02
6.400000e-07	-1.917293e-06	-8.558565e-09	-1.337881e+01	-5.600202e+02
6.500000e-07	-1.819127e-06	-8.420322e-09	-1.269381e+01	-5.507721e+02
6.600000e-07	-1.720055e-06	-8.278218e-09	-1.200249e+01	-5.415954e+02
6.700000e-07	-1.620285e-06	-8.132447e-09	-1.130630e+01	-5.324598e+02
6.800000e-07	-1.520027e-06	-7.979310e-09	-1.060670e+01	-5.232844e+02
6.900000e-07	-1.419363e-06	-7.818197e-09	-9.904269e+00	-5.139446e+02
7.000000e-07	-1.318274e-06	-7.649407e-09	-9.198872e+00	-5.042855e+02
7.100000e-07	-1.216727e-06	-7.476429e-09	-8.490284e+00	-4.941400e+02
7.200000e-07	-1.114736e-06	-7.300910e-09	-7.778594e+00	-4.833505e+02
7.300000e-07	-1.012380e-06	-7.123296e-09	-7.064354e+00	-4.717890e+02
7.400000e-07	-9.096714e-07	-6.942924e-09	-6.347659e+00	-4.593757e+02
7.500000e-07	-8.065787e-07	-6.753967e-09	-5.628281e+00	-4.460912e+02
7.600000e-07	-7.031681e-07	-6.554455e-09	-4.906685e+00	-4.319802e+02
7.700000e-07	-5.995369e-07	-6.344686e-09	-4.183550e+00	-4.171470e+02
7.800000e-07	-4.957624e-07	-6.126356e-09	-3.459414e+00	-4.017405e+02
7.900000e-07	-3.918355e-07	-5.899691e-09	-2.734216e+00	-3.859318e+02
8.000000e-07	-2.877985e-07	-5.665414e-09	-2.008249e+00	-3.698854e+02
8.100000e-07	-1.836691e-07	-5.424725e-09	-1.281637e+00	-3.537269e+02
8.200000e-07	-7.946087e-08	-5.177631e-09	-5.544755e-01	-3.375128e+02
8.300000e-07	2.476065e-08	-4.919419e-09	1.727790e-01	-3.212041e+02
8.400000e-07	1.289971e-07	-4.644675e-09	9.001379e-01	-3.046494e+02
8.500000e-07	2.331740e-07	-4.353424e-09	1.627081e+00	-2.875789e+02
8.600000e-07	3.372364e-07	-4.046298e-09	2.353225e+00	-2.696123e+02
8.700000e-07	4.411684e-07	-3.720333e-09	3.078459e+00	-2.502804e+02
8.800000e-07	5.449999e-07	-3.373183e-09	3.802992e+00	-2.290598e+02
8.900000e-07	6.486690e-07	-3.003292e-09	4.526392e+00	-2.054169e+02
9.000000e-07	7.521072e-07	-2.611138e-09	5.248180e+00	-1.788592e+02
9.100000e-07	8.552780e-07	-2.193438e-09	5.968103e+00	-1.489871e+02
9.200000e-07	9.581425e-07	-1.734859e-09	6.685888e+00	-1.155421e+02
9.300000e-07	1.060689e-06	-1.220815e-09	7.401451e+00	-7.844629e+01
9.400000e-07	1.162888e-06	-6.427262e-10	8.114594e+00	-3.782843e+01
9.500000e-07	1.264670e-06	2.086084e-12	8.824827e+00	5.966711e+00
9.600000e-07	1.365988e-06	7.169115e-10	9.531820e+00	5.238696e+01
9.700000e-07	1.466889e-06	1.499103e-09	1.023591e+01	1.006994e+02
9.800000e-07	1.567383e-06	2.321916e-09	1.093715e+01	1.500333e+02
9.900000e-07	1.667353e-06	3.146438e-09	1.163474e+01	1.994351e+02
1.000000e-06	1.766667e-06	3.936568e-09	1.232775e+01	2.479316e+02
1.010000e-06	1.865221e-06	4.667191e-09	1.301545e+01	2.945950e+02
1.020000e-06	1.962929e-06	5.324268e-09	1.369726e+01	3.386036e+02
1.030000e-06	2.059865e-06	5.901975e-09	1.437367e+01	3.792943e+02
1.040000e-06	2.156043e-06	6.406106e-09	1.504480e+01	4.161999e+02
1.050000e-06	2.251445e-06	6.849437e-09	1.571051e+01	4.490704e+02
1.060000e-06	2.346119e-06	7.244394e-09	1.637115e+01	4.778759e+02
1.070000e-06	2.440049e-06	7.594294e-09	1.702659e+01	5.027907e+02
1.080000e-06	2.533205e-06	7.905171e-09	1.767663e+01	5.241622e+02
1.090000e-06	2.625550e-06	8.187182e-09	1.832101e+01	5.424676e+02
1.100000e-06	2.717002e-06	8.446746e-09	1.895916e+01	5.582624e+02
1.110000e-06	2.807380e-06	8.685400e-09	1.958981e+01	5.721274e+02
1.120000e-06	2.896605e-06	8.903602e-09	2.021242e+01	5.846177e+02
1.130000e-06	2.984765e-06	9.106404e-09	2.082760e+01	5.962202e+02
1.140000e-06	3.071909e-06	9.294873e-09	2.143569e+01	6.073215e+02
1.150000e-06	3.158003e-06	9.470529e-09	2.203644e+01	6.181893e+02
1.160000e-06	3.243077e-06	9.634559e-09	2.263009e+01	6.289689e+02
1.170000e-06	3.327159e-06	9.787869e-09	2.321681e+01	6.396917e+02
1.180000e-06	3.410106e-06	9.935603e-09	2.379561e+01	6.502955e+02
1.190000e-06	3.491764e-06	1.007885e-08	2.436542e+01	6.606532e+02
1.200000e-06	3.572089e-06	1.021281e-08	2.492593e+01	6.706041e+02
1.210000e-06	3.651119e-06	1.033679e-08	2.547740e+01	6.799866e+02
1.220000e-06	3.728860e-06	1.045404e-08	2.601986e+01	6.886661e+02
1.230000e-06	3.805238e-06	1.056627e-08	2.655283e+01	6.965563e+02
1.240000e-06	3.880117e-06	1.067205e-08	2.707533e+01	7.036320e+02
1.250000e-06	3.953458e-06	1.076944e-08	2.758711e+01	7.099319e+02
1.260000e-06	4.025336e-06	1.086114e-08	2.808867e+01	7.155523e+02
1.270000e-06	4.095814e-06	1.095165e-08	2.858046e+01	7.206334e+02
1.280000e-06	4.164947e-06	1.104007e-08	2.906287e+01	7.253404e+02
1.290000e-06	4.232652e-06	1.112255e-08	2.953531e+01	7.298413e+02
1.300000e-06	4.298721e-06	1.119971e-08	2.999634e+01	7.342868e+02
1.310000e-06	4.363127e-06	1.127287e-08	3.044577e+01	7.387924e+02
1.320000e-06	4.426072e-06	1.134359e-08	3.088499e+01	7.434265e+02
1.330000e-06	4.487678e-06	1.141260e-08	3.131488e+01	7.482050e+02
1.340000e-06	4.547808e-06	1.147946e-08	3.173446e+01	7.530935e+02
1.350000e-06	4.606231e-06	1.154331e-08	3.214213e+01	7.580154e+02
1.360000e-06	4.662873e-06	1.160498e-08	3.253738e+01	7.628658e+02
1.370000e-06	4.717853e-06	1.166578e-08	3.292103e+01	7.675279e+02
1.380000e-06	4.771120e-06	1.172288e-08	3.329273e+01	7.718906e+02
1.390000e-06	4.822450e-06	1.177333e-08	3.365091e+01	7.758640e+02
1.400000e-06	4.871768e-06	1.181931e-08	3.399505e+01	7.793914e+02
1.410000e-06	4.919237e-06	1.186518e-08	3.432628e+01	7.824567e+02
1.420000e-06	4.965069e-06	1.191124e-08	3.464610e+01	7.850850e+02
1.430000e-06	5.009264e-06	1.195308e-08	3.495449e+01	7.873385e+02
1.440000e-06	5.051613e-06	1.198995e-08	3.525000e+01	7.893065e+02
1.450000e-06	5.092095e-06	1.202691e-08	3.553248e+01	7.910929e+02
1.460000e-06	5.130845e-06	1.206459e-08	3.580288e+01	7.928016e+02
1.470000e-06	5.167937e-06	1.209897e-08	3.606170e+01	7.945223e+02
1.480000e-06	5.203196e-06	1.212881e-08	3.630774e+01	7.963194e+02
1.490000e-06	5.236462e-06	1.215623e-08	3.653987e+01	7.982238e+02
1.500000e-06	5.267913e-06	1.218234e-08	3.675933e+01	8.002305e+02
1.510000e-06	5.297666e-06	1.220621e-08	3.696694e+01	8.023003e+02
1.520000e-06	5.325628e-06	1.222603e-08	3.716206e+01	8.043671e+02
1.530000e-06	5.351599e-06	1.224380e-08	3.734329e+01	8.063480e+02
1.540000e-06	5.375542e-06	1.226390e-08	3.751036e+01	8.081558e+02
1.550000e-06	5.397670e-06	1.228377e-08	3.766477e+01	8.097118e+02
1.560000e-06	5.418027e-06	1.229741e-08	3.780682e+01	8.109570e+02
1.570000e-06	5.436458e-06	1.230731e-08	3.793543e+01	8.118602e+02
1.580000e-06	5.452836e-06	1.231997e-08	3.804972e+01	8.124222e+02
1.590000e-06	5.467205e-06	1.233307e-08	3.814999e+01	8.126757e+02
1.600000e-06	5.479583e-06	1.234079e-08	3.823636e+01	8.126798e+02
1.610000e-06	5.489808e-06	1.234422e-08	3.830771e+01	8.125123e+02
1.620000e-06	5.497955e-06	1.234842e-08	3.836456e+01	8.122580e+02
1.630000e-06	5.504247e-06	1.235357e-08	3.840847e+01	8.119976e+02
1.640000e-06	5.508741e-06	1.235556e-08	3.843982e+01	8.117961e+02
1.650000e-06	5.511203e-06	1.235459e-08	3.845700e+01	8.116945e+02
1.660000e-06	5.511633e-06	1.235424e-08	3.846000e+01	8.117044e+02
1.670000e-06	5.510289e-06	1.235443e-08	3.845063e+01	8.118069e+02
1.680000e-06	5.507248e-06	1.235276e-08	3.842940e+01	8.119559e+02
1.690000e-06	5.502376e-06	1.234685e-08	3.839541e+01	8.120850e+02
1.700000e-06	5.495594e-06	1.233456e-08	3.834808e+01	8.121172e+02
1.710000e-06	5.487087e-06	1.232062e-08	3.828872e+01	8.119760e+02
1.720000e-06	5.476916e-06	1.230918e-08	3.821775e+01	8.115967e+02
1.730000e-06	5.464801e-06	1.230154e-08	3.813321e+01	8.109349e+02
1.740000e-06	5.450648e-06	1.227790e-08	3.803445e+01	8.099734e+02
1.750000e-06	5.434523e-06	1.225408e-08	3.792193e+01	8.087243e+02
1.760000e-06	5.415982e-06	1.222814e-08	3.779255e+01	8.072272e+02
1.770000e-06	5.394708e-06	1.221418e-08	3.764410e+01	8.055437e+02
1.780000e-06	5.371223e-06	1.222692e-08	3.748022e+01	8.037485e+02
1.790000e-06	5.346490e-06	1.220023e-08	3.730764e+01	8.019187e+02
1.800000e-06	5.320952e-06	1.216785e-08	3.712943e+01	8.001228e+02
1.810000e-06	5.293754e-06	1.214288e-08	3.693965e+01	7.984109e+02
1.820000e-06	5.264237e-06	1.212445e-08	3.673368e+01	7.968073e+02
1.830000e-06	5.233032e-06	1.214167e-08	3.651593e+01	7.953065e+02
1.840000e-06	5.200140e-06	1.213224e-08	3.628641e+01	7.938740e+02
1.850000e-06	5.165396e-06	1.208984e-08	3.604397e+01	7.924502e+02
1.860000e-06	5.128987e-06	1.207319e-08	3.578991e+01	7.909586e+02
1.870000e-06	5.090551e-06	1.205031e-08	3.552170e+01	7.893161e+02
1.880000e-06	5.050262e-06	1.198950e-08	3.524057e+01	7.874441e+02
1.890000e-06	5.008401e-06	1.193538e-08	3.494847e+01	7.852795e+02
1.900000e-06	4.964692e-06	1.190522e-08	3.464346e+01	7.827833e+02
1.910000e-06	4.919144e-06	1.187189e-08	3.432563e+01	7.799457e+02
1.920000e-06	4.871702e-06	1.183944e-08	3.399458e+01	7.767881e+02
1.930000e-06	4.822493e-06	1.181521e-08	3.365120e+01	7.733596e+02
1.940000e-06	4.771620e-06	1.174712e-08	3.329622e+01	7.697307e+02
1.950000e-06	4.718591e-06	1.168476e-08	3.292618e+01	7.659833e+02
1.960000e-06	4.663623e-06	1.165283e-08	3.254261e+01	7.621992e+02
1.970000e-06	4.607022e-06	1.157758e-08	3.214766e+01	7.584492e+02
1.980000e-06	4.548795e-06	1.151921e-08	3.174135e+01	7.547821e+02
1.990000e-06	4.489095e-06	1.148665e-08	3.132476e+01	7.512187e+02
2.000000e-06	4.427651e-06	1.143746e-08	3.089601e+01	7.477476e+02
2.010000e-06	4.364519e-06	1.138548e-08	3.045548e+01	7.443274e+02
2.020000e-06	4.299890e-06	1.131367e-08	3.000450e+01	7.408910e+02
2.030000e-06	4.233815e-06	1.124522e-08	2.954343e+01	7.373556e+02
2.040000e-06	4.166325e-06	1.117541e-08	2.907248e+01	7.336335e+02
2.050000e-06	4.097049e-06	1.110405e-08	2.858908e+01	7.296444e+02
2.060000e-06	4.026166e-06	1.104054e-08	2.809446e+01	7.253263e+02
2.070000e-06	3.953982e-06	1.097157e-08	2.759077e+01	7.206448e+02
2.080000e-06	3.880462e-06	1.091151e-08	2.707774e+01	7.155974e+02
2.090000e-06	3.805507e-06	1.083708e-08	2.655471e+01	7.102147e+02
2.100000e-06	3.728871e-06	1.075940e-08	2.601995e+01	7.045555e+02
2.110000e-06	3.650602e-06	1.067530e-08	2.547379e+01	6.986993e+02
2.120000e-06	3.571040e-06	1.058319e-08	2.491861e+01	6.927344e+02
2.130000e-06	3.490310e-06	1.050383e-08	2.435527e+01	6.867450e+02
2.140000e-06	3.408399e-06	1.041571e-08	2.378370e+01	6.807991e+02
2.150000e-06	3.325424e-06	1.033301e-08	2.320471e+01	6.749374e+02
2.160000e-06	3.241275e-06	1.025007e-08	2.261751e+01	6.691664e+02
2.170000e-06	3.155693e-06	1.015890e-08	2.202033e+01	6.634561e+02
2.180000e-06	3.068874e-06	1.005905e-08	2.141451e+01	6.577429e+02
2.190000e-06	2.981157e-06	9.950434e-09	2.080242e+01	6.519367e+02
2.200000e-06	2.892500e-06	9.847147e-09	2.018377e+01	6.459329e+02
2.210000e-06	2.802814e-06	9.747626e-09	1.955795e+01	6.396258e+02
2.220000e-06	2.712184e-06	9.647642e-09	1.892553e+01	6.329234e+02
2.230000e-06	2.620724e-06	9.538823e-09	1.828733e+01	6.257602e+02
2.240000e-06	2.528394e-06	9.423115e-09	1.764305e+01	6.181067e+02
2.250000e-06	2.434993e-06	9.306832e-09	1.699130e+01	6.099741e+02
2.260000e-06	2.340521e-06	9.187489e-09	1.633208e+01	6.014133e+02
2.270000e-06	2.245253e-06	9.067938e-09	1.566731e+01	5.925083e+02
2.280000e-06	2.149236e-06	8.949029e-09	1.499730e+01	5.833637e+02
2.290000e-06	2.052504e-06	8.821090e-09	1.432231e+01	5.740903e+02
2.300000e-06	1.955138e-06	8.686463e-09	1.364289e+01	5.647869e+02
2.310000e-06	1.857146e-06	8.544578e-09	1.295911e+01	5.555246e+02
2.320000e-06	1.758570e-06	8.397345e-09	1.227124e+01	5.463337e+02
2.330000e-06	1.659443e-06	8.247560e-09	1.157954e+01	5.371947e+02
2.340000e-06	1.559831e-06	8.097536e-09	1.088445e+01	5.280372e+02
2.350000e-06	1.459709e-06	7.949267e-09	1.018580e+01	5.187451e+02
2.360000e-06	1.358990e-06	7.795576e-09	9.482990e+00	5.091686e+02
2.370000e-06	1.257637e-06	7.631912e-09	8.775750e+00	4.991415e+02
2.380000e-06	1.155708e-06	7.455357e-09	8.064497e+00	4.885023e+02
2.390000e-06	1.053277e-06	7.273632e-09	7.349734e+00	4.771150e+02
2.400000e-06	9.504190e-07	7.089773e-09	6.631994e+00	4.648883e+02
2.410000e-06	8.472243e-07	6.900782e-09	5.911905e+00	4.517891e+02
2.420000e-06	7.436860e-07	6.706219e-09	5.189417e+00	4.378486e+02
2.430000e-06	6.398950e-07	6.503108e-09	4.465168e+00	4.231590e+02
2.440000e-06	5.359440e-07	6.291594e-09	3.739800e+00	4.078615e+02
2.450000e-06	4.318378e-07	6.070473e-09	3.013351e+00	3.921247e+02
2.460000e-06	3.275862e-07	5.838257e-09	2.285886e+00	3.761170e+02
2.470000e-06	2.232166e-07	5.595651e-09	1.557599e+00	3.599752e+02
2.480000e-06	1.187541e-07	5.345753e-09	8.286627e-01	3.437730e+02
2.490000e-06	1.422915e-08	5.086843e-09	9.929055e-02	3.274935e+02
2.500000e-06	-9.027613e-08	4.815628e-09	-6.299440e-01	3.110105e+02
2.510000e-06	-1.946955e-07	4.530168e-09	-1.358579e+00	2.940793e+02
2.520000e-06	-2.989703e-07	4.227828e-09	-2.086205e+00	2.763418e+02
2.530000e-06	-4.031065e-07	3.909073e-09	-2.812865e+00	2.573455e+02
2.540000e-06	-5.071333e-07	3.572182e-09	-3.538760e+00	2.365751e+02
2.550000e-06	-6.110260e-07	3.214982e-09	-4.263720e+00	2.134952e+02
2.560000e-06	-7.146480e-07	2.833606e-09	-4.986791e+00	1.876000e+02
2.570000e-06	-8.179999e-07	2.421224e-09	-5.707978e+00	1.584655e+02
2.580000e-06	-9.210795e-07	1.970870e-09	-6.427264e+00	1.257996e+02
2.590000e-06	-1.023750e-06	1.474314e-09	-7.143698e+00	8.948277e+01
2.600000e-06	-1.125999e-06	9.207858e-10	-7.857185e+00	4.959819e+01
2.610000e-06	-1.227770e-06	3.025455e-10	-8.567340e+00	6.444417e+00
2.620000e-06	-1.329010e-06	-3.874695e-10	-9.273789e+00	-3.946918e+01
2.630000e-06	-1.429701e-06	-1.149661e-09	-9.976411e+00	-8.744533e+01
2.640000e-06	-1.529768e-06	-1.967819e-09	-1.067468e+01	-1.366385e+02
2.650000e-06	-1.629266e-06	-2.804860e-09	-1.136897e+01	-1.861077e+02
2.660000e-06	-1.728233e-06	-3.616541e-09	-1.205955e+01	-2.348786e+02
2.670000e-06	-1.826616e-06	-4.371416e-09	-1.274607e+01	-2.820082e+02
2.680000e-06	-1.924380e-06	-5.055456e-09	-1.342826e+01	-3.266475e+02
2.690000e-06	-2.021440e-06	-5.663750e-09	-1.410555e+01	-3.680953e+02
2.700000e-06	-2.117866e-06	-6.197445e-09	-1.477840e+01	-4.058404e+02
2.710000e-06	-2.213741e-06	-6.665987e-09	-1.544741e+01	-4.395853e+02
2.720000e-06	-2.308974e-06	-7.080061e-09	-1.611194e+01	-4.692536e+02
2.730000e-06	-2.403428e-06	-7.449388e-09	-1.677105e+01	-4.949779e+02
2.740000e-06	-2.496946e-06	-7.777963e-09	-1.742361e+01	-5.170720e+02
2.750000e-06	-2.589400e-06	-8.071453e-09	-1.806875e+01	-5.359892e+02
2.760000e-06	-2.680799e-06	-8.337973e-09	-1.870653e+01	-5.522730e+02
2.770000e-06	-2.771215e-06	-8.580310e-09	-1.933745e+01	-5.665029e+02
2.780000e-06	-2.860663e-06	-8.805769e-09	-1.996161e+01	-5.792437e+02
2.790000e-06	-2.949106e-06	-9.019357e-09	-2.057877e+01	-5.909999e+02
2.800000e-06	-3.036518e-06	-9.218983e-09	-2.118873e+01	-6.021816e+02
2.810000e-06	-3.122936e-06	-9.404624e-09	-2.179175e+01	-6.130829e+02
2.820000e-06	-3.208216e-06	-9.577450e-09	-2.238683e+01	-6.238749e+02
2.830000e-06	-3.292180e-06	-9.736789e-09	-2.297273e+01	-6.346120e+02
2.840000e-06	-3.374964e-06	-9.882185e-09	-2.355039e+01	-6.452501e+02
2.850000e-06	-3.456687e-06	-1.001863e-08	-2.412065e+01	-6.556732e+02
2.860000e-06	-3.537236e-06	-1.014995e-08	-2.468272e+01	-6.657251e+02
2.870000e-06	-3.616515e-06	-1.027518e-08	-2.523593e+01	-6.752418e+02
2.880000e-06	-3.694412e-06	-1.039584e-08	-2.577949e+01	-6.840809e+02
2.890000e-06	-3.770840e-06	-1.051308e-08	-2.631280e+01	-6.921443e+02
2.900000e-06	-3.845806e-06	-1.062537e-08	-2.683591e+01	-6.993932e+02
2.910000e-06	-3.919371e-06	-1.073076e-08	-2.734925e+01	-7.058528e+02
2.920000e-06	-3.991593e-06	-1.082704e-08	-2.785321e+01	-7.116080e+02
2.930000e-06	-4.062413e-06	-1.091762e-08	-2.834739e+01	-7.167911e+02
2.940000e-06	-4.131707e-06	-1.100547e-08	-2.883092e+01	-7.215636e+02
