# Temperatura_=_21.97
# Concentracion g/m^3_=_15500.0
# C_Vs_to_Am_M_A/Vsm_=_65563218390.804596
# pendiente_HvsI_1/m_=_3716.3
# ordenada_HvsI_A/m_=_1297.0
# frecuencia_Hz_=_300816.95629982965

Tiempo_(s)	Campo_(V.s)	Magnetizacion_(V.s)	Campo_(kA/m)	Magnetizacion_(A/m)
0.000000e+00	-5.510339e-06	-1.200776e-08	-3.830779e+01	-7.838884e+02
1.000000e-08	-5.508488e-06	-1.200837e-08	-3.829492e+01	-7.838235e+02
2.000000e-08	-5.504662e-06	-1.200543e-08	-3.826832e+01	-7.838095e+02
3.000000e-08	-5.499127e-06	-1.200261e-08	-3.822984e+01	-7.838043e+02
4.000000e-08	-5.491969e-06	-1.199724e-08	-3.818008e+01	-7.837524e+02
5.000000e-08	-5.483127e-06	-1.198438e-08	-3.811861e+01	-7.835920e+02
6.000000e-08	-5.472309e-06	-1.196546e-08	-3.804341e+01	-7.832651e+02
7.000000e-08	-5.459432e-06	-1.194007e-08	-3.795388e+01	-7.827254e+02
8.000000e-08	-5.444556e-06	-1.193923e-08	-3.785046e+01	-7.819451e+02
9.000000e-08	-5.427291e-06	-1.198274e-08	-3.773044e+01	-7.809189e+02
1.000000e-07	-5.407677e-06	-1.196155e-08	-3.759408e+01	-7.796649e+02
1.100000e-07	-5.386099e-06	-1.191405e-08	-3.744407e+01	-7.782218e+02
1.200000e-07	-5.362785e-06	-1.189958e-08	-3.728199e+01	-7.766434e+02
1.300000e-07	-5.337996e-06	-1.180421e-08	-3.710966e+01	-7.749910e+02
1.400000e-07	-5.311613e-06	-1.181501e-08	-3.692625e+01	-7.733241e+02
1.500000e-07	-5.283393e-06	-1.187708e-08	-3.673006e+01	-7.716920e+02
1.600000e-07	-5.253479e-06	-1.172898e-08	-3.652210e+01	-7.701263e+02
1.700000e-07	-5.222014e-06	-1.177692e-08	-3.630336e+01	-7.686357e+02
1.800000e-07	-5.188613e-06	-1.182376e-08	-3.607115e+01	-7.672046e+02
1.900000e-07	-5.153173e-06	-1.166466e-08	-3.582478e+01	-7.657944e+02
2.000000e-07	-5.116174e-06	-1.169989e-08	-3.556756e+01	-7.643481e+02
2.100000e-07	-5.077474e-06	-1.165446e-08	-3.529852e+01	-7.627982e+02
2.200000e-07	-5.036970e-06	-1.156205e-08	-3.501693e+01	-7.610753e+02
2.300000e-07	-4.994551e-06	-1.160766e-08	-3.472204e+01	-7.591174e+02
2.400000e-07	-4.950103e-06	-1.156159e-08	-3.441304e+01	-7.568786e+02
2.500000e-07	-4.903949e-06	-1.152028e-08	-3.409217e+01	-7.543353e+02
2.600000e-07	-4.855947e-06	-1.146944e-08	-3.375846e+01	-7.514891e+02
2.700000e-07	-4.805834e-06	-1.138418e-08	-3.341008e+01	-7.483675e+02
2.800000e-07	-4.753667e-06	-1.136994e-08	-3.304742e+01	-7.450195e+02
2.900000e-07	-4.699620e-06	-1.132202e-08	-3.267168e+01	-7.415092e+02
3.000000e-07	-4.643921e-06	-1.128551e-08	-3.228447e+01	-7.379073e+02
3.100000e-07	-4.586491e-06	-1.123811e-08	-3.188521e+01	-7.342809e+02
3.200000e-07	-4.527207e-06	-1.118916e-08	-3.147307e+01	-7.306843e+02
3.300000e-07	-4.466370e-06	-1.113891e-08	-3.105013e+01	-7.271517e+02
3.400000e-07	-4.404083e-06	-1.104505e-08	-3.061711e+01	-7.236916e+02
3.500000e-07	-4.340302e-06	-1.100147e-08	-3.017371e+01	-7.202858e+02
3.600000e-07	-4.275013e-06	-1.093516e-08	-2.971982e+01	-7.168915e+02
3.700000e-07	-4.208018e-06	-1.088217e-08	-2.925408e+01	-7.134469e+02
3.800000e-07	-4.139353e-06	-1.084101e-08	-2.877671e+01	-7.098792e+02
3.900000e-07	-4.069233e-06	-1.075349e-08	-2.828924e+01	-7.061151e+02
4.000000e-07	-3.997785e-06	-1.069212e-08	-2.779253e+01	-7.020901e+02
4.100000e-07	-3.925064e-06	-1.062313e-08	-2.728698e+01	-6.977579e+02
4.200000e-07	-3.850855e-06	-1.055827e-08	-2.677108e+01	-6.930966e+02
4.300000e-07	-3.774940e-06	-1.047839e-08	-2.624332e+01	-6.881118e+02
4.400000e-07	-3.697463e-06	-1.039486e-08	-2.570470e+01	-6.828360e+02
4.500000e-07	-3.618496e-06	-1.032683e-08	-2.515573e+01	-6.773235e+02
4.600000e-07	-3.537992e-06	-1.024981e-08	-2.459606e+01	-6.716434e+02
4.700000e-07	-3.456089e-06	-1.017586e-08	-2.402667e+01	-6.658687e+02
4.800000e-07	-3.373030e-06	-1.008406e-08	-2.344925e+01	-6.600662e+02
4.900000e-07	-3.288965e-06	-9.996215e-09	-2.286483e+01	-6.542861e+02
5.000000e-07	-3.203912e-06	-9.909486e-09	-2.227354e+01	-6.485536e+02
5.100000e-07	-3.117879e-06	-9.813502e-09	-2.167544e+01	-6.428648e+02
5.200000e-07	-3.030861e-06	-9.714451e-09	-2.107050e+01	-6.371855e+02
5.300000e-07	-2.942859e-06	-9.612241e-09	-2.045871e+01	-6.314548e+02
5.400000e-07	-2.853914e-06	-9.521393e-09	-1.984036e+01	-6.255926e+02
5.500000e-07	-2.763884e-06	-9.430160e-09	-1.921448e+01	-6.195095e+02
5.600000e-07	-2.672639e-06	-9.326483e-09	-1.858014e+01	-6.131190e+02
5.700000e-07	-2.580336e-06	-9.211731e-09	-1.793845e+01	-6.063491e+02
5.800000e-07	-2.487182e-06	-9.093065e-09	-1.729085e+01	-5.991523e+02
5.900000e-07	-2.393262e-06	-8.979926e-09	-1.663792e+01	-5.915121e+02
6.000000e-07	-2.298569e-06	-8.861603e-09	-1.597961e+01	-5.834461e+02
6.100000e-07	-2.203103e-06	-8.739704e-09	-1.531594e+01	-5.750028e+02
6.200000e-07	-2.106848e-06	-8.618914e-09	-1.464677e+01	-5.662556e+02
6.300000e-07	-2.009824e-06	-8.495393e-09	-1.397227e+01	-5.572909e+02
6.400000e-07	-1.912041e-06	-8.364552e-09	-1.329248e+01	-5.481956e+02
6.500000e-07	-1.813431e-06	-8.220887e-09	-1.260694e+01	-5.390423e+02
6.600000e-07	-1.714030e-06	-8.076689e-09	-1.191591e+01	-5.298769e+02
6.700000e-07	-1.613943e-06	-7.934402e-09	-1.122011e+01	-5.207083e+02
6.800000e-07	-1.513292e-06	-7.791645e-09	-1.052038e+01	-5.115038e+02
6.900000e-07	-1.412153e-06	-7.638881e-09	-9.817267e+00	-5.021891e+02
7.000000e-07	-1.310488e-06	-7.474538e-09	-9.110495e+00	-4.926548e+02
7.100000e-07	-1.208398e-06	-7.307556e-09	-8.400762e+00	-4.827680e+02
7.200000e-07	-1.105948e-06	-7.136933e-09	-7.688529e+00	-4.723880e+02
7.300000e-07	-1.003102e-06	-6.960329e-09	-6.973551e+00	-4.613835e+02
7.400000e-07	-8.999401e-07	-6.778430e-09	-6.256369e+00	-4.496505e+02
7.500000e-07	-7.965145e-07	-6.595679e-09	-5.537356e+00	-4.371261e+02
7.600000e-07	-6.928116e-07	-6.408945e-09	-4.816415e+00	-4.237986e+02
7.700000e-07	-5.888512e-07	-6.209790e-09	-4.093684e+00	-4.097096e+02
7.800000e-07	-4.846880e-07	-5.993144e-09	-3.369543e+00	-3.949491e+02
7.900000e-07	-3.803838e-07	-5.767211e-09	-2.644422e+00	-3.796427e+02
8.000000e-07	-2.759811e-07	-5.539045e-09	-1.918616e+00	-3.639315e+02
8.100000e-07	-1.715039e-07	-5.306698e-09	-1.192292e+00	-3.479481e+02
8.200000e-07	-6.691650e-08	-5.065377e-09	-4.652024e-01	-3.317893e+02
8.300000e-07	3.776561e-08	-4.813404e-09	2.625459e-01	-3.154915e+02
8.400000e-07	1.424257e-07	-4.554263e-09	9.901409e-01	-2.990089e+02
8.500000e-07	2.469782e-07	-4.283058e-09	1.716989e+00	-2.822005e+02
8.600000e-07	3.514368e-07	-3.993739e-09	2.443183e+00	-2.648261e+02
8.700000e-07	4.557923e-07	-3.682971e-09	3.168660e+00	-2.465548e+02
8.800000e-07	5.599690e-07	-3.356829e-09	3.892895e+00	-2.269839e+02
8.900000e-07	6.639441e-07	-3.019561e-09	4.615728e+00	-2.056693e+02
9.000000e-07	7.676705e-07	-2.662423e-09	5.336833e+00	-1.821634e+02
9.100000e-07	8.711834e-07	-2.276523e-09	6.056453e+00	-1.560586e+02
9.200000e-07	9.744432e-07	-1.858241e-09	6.774313e+00	-1.270305e+02
9.300000e-07	1.077325e-06	-1.407716e-09	7.489548e+00	-9.487903e+01
9.400000e-07	1.179798e-06	-9.163112e-10	8.201940e+00	-5.956012e+01
9.500000e-07	1.281874e-06	-3.705993e-10	8.911570e+00	-2.120685e+01
9.600000e-07	1.383524e-06	2.415362e-10	9.618238e+00	1.986378e+01
9.700000e-07	1.484721e-06	9.167724e-10	1.032176e+01	6.315944e+01
9.800000e-07	1.585499e-06	1.639154e-09	1.102236e+01	1.080361e+02
9.900000e-07	1.685779e-06	2.390687e-09	1.171951e+01	1.537352e+02
1.000000e-06	1.785403e-06	3.147512e-09	1.241209e+01	1.994309e+02
1.010000e-06	1.884272e-06	3.874854e-09	1.309943e+01	2.442837e+02
1.020000e-06	1.982316e-06	4.543738e-09	1.378103e+01	2.874953e+02
1.030000e-06	2.079493e-06	5.146957e-09	1.445660e+01	3.283599e+02
1.040000e-06	2.175892e-06	5.689240e-09	1.512677e+01	3.663081e+02
1.050000e-06	2.271550e-06	6.178800e-09	1.579178e+01	4.009378e+02
1.060000e-06	2.366496e-06	6.615230e-09	1.645184e+01	4.320316e+02
1.070000e-06	2.460704e-06	6.998931e-09	1.710677e+01	4.595587e+02
1.080000e-06	2.554084e-06	7.338719e-09	1.775595e+01	4.836612e+02
1.090000e-06	2.646679e-06	7.646037e-09	1.839967e+01	5.046278e+02
1.100000e-06	2.738390e-06	7.927410e-09	1.903724e+01	5.228568e+02
1.110000e-06	2.828922e-06	8.183684e-09	1.966662e+01	5.388131e+02
1.120000e-06	2.918250e-06	8.420452e-09	2.028763e+01	5.529837e+02
1.130000e-06	3.006553e-06	8.642481e-09	2.090151e+01	5.658353e+02
1.140000e-06	3.093863e-06	8.848110e-09	2.150849e+01	5.777784e+02
1.150000e-06	3.180160e-06	9.034845e-09	2.210842e+01	5.891409e+02
1.160000e-06	3.265432e-06	9.204854e-09	2.270123e+01	6.001530e+02
1.170000e-06	3.349712e-06	9.362403e-09	2.328714e+01	6.109436e+02
1.180000e-06	3.432856e-06	9.515285e-09	2.386516e+01	6.215478e+02
1.190000e-06	3.514660e-06	9.665550e-09	2.443386e+01	6.319242e+02
1.200000e-06	3.595152e-06	9.808893e-09	2.499344e+01	6.419774e+02
1.210000e-06	3.674307e-06	9.942984e-09	2.554373e+01	6.515850e+02
1.220000e-06	3.752148e-06	1.006939e-08	2.608487e+01	6.606238e+02
1.230000e-06	3.828722e-06	1.018829e-08	2.661721e+01	6.689925e+02
1.240000e-06	3.903779e-06	1.029429e-08	2.713901e+01	6.766298e+02
1.250000e-06	3.977161e-06	1.038920e-08	2.764916e+01	6.835238e+02
1.260000e-06	4.049070e-06	1.047969e-08	2.814907e+01	6.897146e+02
1.270000e-06	4.119632e-06	1.057252e-08	2.863961e+01	6.952889e+02
1.280000e-06	4.188857e-06	1.066405e-08	2.912087e+01	7.003683e+02
1.290000e-06	4.256691e-06	1.074903e-08	2.959245e+01	7.050935e+02
1.300000e-06	4.322848e-06	1.082931e-08	3.005237e+01	7.096067e+02
1.310000e-06	4.387367e-06	1.090657e-08	3.050090e+01	7.140347e+02
1.320000e-06	4.450453e-06	1.097997e-08	3.093948e+01	7.184743e+02
1.330000e-06	4.512057e-06	1.104745e-08	3.136775e+01	7.229830e+02
1.340000e-06	4.572199e-06	1.111042e-08	3.178585e+01	7.275747e+02
1.350000e-06	4.630648e-06	1.117243e-08	3.219219e+01	7.322217e+02
1.360000e-06	4.687292e-06	1.123478e-08	3.258598e+01	7.368617e+02
1.370000e-06	4.742262e-06	1.129490e-08	3.296813e+01	7.414093e+02
1.380000e-06	4.795508e-06	1.135066e-08	3.333829e+01	7.457695e+02
1.390000e-06	4.846757e-06	1.140191e-08	3.369458e+01	7.498522e+02
1.400000e-06	4.895971e-06	1.145042e-08	3.403671e+01	7.535847e+02
1.410000e-06	4.943440e-06	1.149804e-08	3.436672e+01	7.569221e+02
1.420000e-06	4.989264e-06	1.154351e-08	3.468528e+01	7.598521e+02
1.430000e-06	5.033393e-06	1.158401e-08	3.499206e+01	7.623963e+02
1.440000e-06	5.075542e-06	1.162187e-08	3.528509e+01	7.646064e+02
1.450000e-06	5.115836e-06	1.166004e-08	3.556521e+01	7.665559e+02
1.460000e-06	5.154547e-06	1.169501e-08	3.583433e+01	7.683298e+02
1.470000e-06	5.191614e-06	1.172545e-08	3.609201e+01	7.700127e+02
1.480000e-06	5.226848e-06	1.175502e-08	3.633696e+01	7.716779e+02
1.490000e-06	5.260062e-06	1.178541e-08	3.656787e+01	7.733772e+02
1.500000e-06	5.291393e-06	1.181326e-08	3.678568e+01	7.751359e+02
1.510000e-06	5.321018e-06	1.183525e-08	3.699163e+01	7.769498e+02
1.520000e-06	5.348831e-06	1.185355e-08	3.718499e+01	7.787875e+02
1.530000e-06	5.374559e-06	1.187230e-08	3.736385e+01	7.805961e+02
1.540000e-06	5.398303e-06	1.189118e-08	3.752892e+01	7.823097e+02
1.550000e-06	5.420308e-06	1.190653e-08	3.768189e+01	7.838592e+02
1.560000e-06	5.440576e-06	1.191755e-08	3.782279e+01	7.851832e+02
1.570000e-06	5.458896e-06	1.192827e-08	3.795016e+01	7.862360e+02
1.580000e-06	5.475146e-06	1.194299e-08	3.806313e+01	7.869951e+02
1.590000e-06	5.489448e-06	1.195621e-08	3.816256e+01	7.874634e+02
1.600000e-06	5.501694e-06	1.196258e-08	3.824769e+01	7.876692e+02
1.610000e-06	5.511670e-06	1.196626e-08	3.831704e+01	7.876620e+02
1.620000e-06	5.519568e-06	1.197249e-08	3.837195e+01	7.875051e+02
1.630000e-06	5.525613e-06	1.197842e-08	3.841397e+01	7.872673e+02
1.640000e-06	5.529814e-06	1.197923e-08	3.844317e+01	7.870128e+02
1.650000e-06	5.531999e-06	1.197930e-08	3.845836e+01	7.867930e+02
1.660000e-06	5.532234e-06	1.198215e-08	3.846000e+01	7.866394e+02
1.670000e-06	5.530717e-06	1.198205e-08	3.844946e+01	7.865596e+02
1.680000e-06	5.527493e-06	1.197955e-08	3.842704e+01	7.865372e+02
1.690000e-06	5.522339e-06	1.197024e-08	3.839121e+01	7.865341e+02
1.700000e-06	5.515248e-06	1.195933e-08	3.834191e+01	7.864969e+02
1.710000e-06	5.506496e-06	1.195172e-08	3.828107e+01	7.863645e+02
1.720000e-06	5.496075e-06	1.194671e-08	3.820862e+01	7.860773e+02
1.730000e-06	5.483708e-06	1.195345e-08	3.812265e+01	7.855859e+02
1.740000e-06	5.469332e-06	1.190548e-08	3.802271e+01	7.848580e+02
1.750000e-06	5.452916e-06	1.185226e-08	3.790859e+01	7.838833e+02
1.760000e-06	5.433882e-06	1.185799e-08	3.777626e+01	7.826751e+02
1.770000e-06	5.412081e-06	1.183913e-08	3.762470e+01	7.812680e+02
1.780000e-06	5.388249e-06	1.189131e-08	3.745902e+01	7.797132e+02
1.790000e-06	5.363404e-06	1.188251e-08	3.728630e+01	7.780711e+02
1.800000e-06	5.337755e-06	1.174822e-08	3.710799e+01	7.764023e+02
1.810000e-06	5.310152e-06	1.184153e-08	3.691609e+01	7.747590e+02
1.820000e-06	5.280206e-06	1.180701e-08	3.670791e+01	7.731770e+02
1.830000e-06	5.248726e-06	1.166922e-08	3.648906e+01	7.716704e+02
1.840000e-06	5.215454e-06	1.178464e-08	3.625775e+01	7.702287e+02
1.850000e-06	5.180358e-06	1.171081e-08	3.601376e+01	7.688179e+02
1.860000e-06	5.143553e-06	1.164934e-08	3.575789e+01	7.673844e+02
1.870000e-06	5.104580e-06	1.174043e-08	3.548696e+01	7.658623e+02
1.880000e-06	5.063898e-06	1.160557e-08	3.520414e+01	7.641816e+02
1.890000e-06	5.021645e-06	1.156683e-08	3.491039e+01	7.622782e+02
1.900000e-06	4.977457e-06	1.153744e-08	3.460320e+01	7.601021e+02
1.910000e-06	4.931602e-06	1.146418e-08	3.428442e+01	7.576243e+02
1.920000e-06	4.883855e-06	1.154334e-08	3.395248e+01	7.548412e+02
1.930000e-06	4.834239e-06	1.144312e-08	3.360755e+01	7.517747e+02
1.940000e-06	4.782916e-06	1.140306e-08	3.325076e+01	7.484698e+02
1.950000e-06	4.729420e-06	1.136355e-08	3.287885e+01	7.449881e+02
1.960000e-06	4.674090e-06	1.126326e-08	3.249420e+01	7.413995e+02
1.970000e-06	4.617167e-06	1.126112e-08	3.209847e+01	7.377728e+02
1.980000e-06	4.558641e-06	1.116089e-08	3.169160e+01	7.341658e+02
1.990000e-06	4.498518e-06	1.117517e-08	3.127363e+01	7.306174e+02
2.000000e-06	4.436597e-06	1.112993e-08	3.084315e+01	7.271419e+02
2.010000e-06	4.373094e-06	1.104154e-08	3.040168e+01	7.237270e+02
2.020000e-06	4.308101e-06	1.101862e-08	2.994985e+01	7.203345e+02
2.030000e-06	4.241660e-06	1.088180e-08	2.948795e+01	7.169061e+02
2.040000e-06	4.173675e-06	1.087143e-08	2.901532e+01	7.133708e+02
2.050000e-06	4.103938e-06	1.080199e-08	2.853051e+01	7.096542e+02
2.060000e-06	4.032725e-06	1.072970e-08	2.803544e+01	7.056894e+02
2.070000e-06	3.960169e-06	1.068268e-08	2.753103e+01	7.014253e+02
2.080000e-06	3.886260e-06	1.057720e-08	2.701721e+01	6.968346e+02
2.090000e-06	3.810748e-06	1.055942e-08	2.649226e+01	6.919169e+02
2.100000e-06	3.733456e-06	1.045452e-08	2.595492e+01	6.866991e+02
2.110000e-06	3.654712e-06	1.039231e-08	2.540750e+01	6.812316e+02
2.120000e-06	3.574746e-06	1.031181e-08	2.485158e+01	6.755808e+02
2.130000e-06	3.493637e-06	1.022500e-08	2.428771e+01	6.698200e+02
2.140000e-06	3.411416e-06	1.016248e-08	2.371611e+01	6.640181e+02
2.150000e-06	3.328035e-06	1.004002e-08	2.313645e+01	6.582297e+02
2.160000e-06	3.243267e-06	9.977882e-09	2.254714e+01	6.524859e+02
2.170000e-06	3.157150e-06	9.881944e-09	2.194845e+01	6.467893e+02
2.180000e-06	3.069930e-06	9.807891e-09	2.134210e+01	6.411118e+02
2.190000e-06	2.981725e-06	9.710883e-09	2.072890e+01	6.353980e+02
2.200000e-06	2.892606e-06	9.591847e-09	2.010935e+01	6.295709e+02
2.210000e-06	2.802522e-06	9.501935e-09	1.948309e+01	6.235423e+02
2.220000e-06	2.711538e-06	9.394482e-09	1.885057e+01	6.172240e+02
2.230000e-06	2.619607e-06	9.304066e-09	1.821147e+01	6.105400e+02
2.240000e-06	2.526611e-06	9.185547e-09	1.756496e+01	6.034368e+02
2.250000e-06	2.432578e-06	9.076420e-09	1.691124e+01	5.958909e+02
2.260000e-06	2.337638e-06	8.971500e-09	1.625122e+01	5.879126e+02
2.270000e-06	2.241934e-06	8.855324e-09	1.558589e+01	5.795443e+02
2.280000e-06	2.145460e-06	8.734234e-09	1.491520e+01	5.708548e+02
2.290000e-06	2.048273e-06	8.602845e-09	1.423956e+01	5.619288e+02
2.300000e-06	1.950472e-06	8.481515e-09	1.355965e+01	5.528543e+02
2.310000e-06	1.852129e-06	8.355893e-09	1.287597e+01	5.437081e+02
2.320000e-06	1.753235e-06	8.217674e-09	1.218846e+01	5.345427e+02
2.330000e-06	1.653751e-06	8.067803e-09	1.149685e+01	5.253758e+02
2.340000e-06	1.553696e-06	7.917058e-09	1.080127e+01	5.161834e+02
2.350000e-06	1.453018e-06	7.769709e-09	1.010136e+01	5.069001e+02
2.360000e-06	1.351678e-06	7.618900e-09	9.396840e+00	4.974230e+02
2.370000e-06	1.249696e-06	7.456623e-09	8.687869e+00	4.876232e+02
2.380000e-06	1.147151e-06	7.292136e-09	7.974978e+00	4.773602e+02
2.390000e-06	1.044147e-06	7.122470e-09	7.258892e+00	4.664990e+02
2.400000e-06	9.408178e-07	6.942754e-09	6.540550e+00	4.549286e+02
2.410000e-06	8.372290e-07	6.754745e-09	5.820402e+00	4.425762e+02
2.420000e-06	7.333695e-07	6.560424e-09	5.098373e+00	4.294187e+02
2.430000e-06	6.292687e-07	6.363752e-09	4.374666e+00	4.154864e+02
2.440000e-06	5.249786e-07	6.158691e-09	3.649642e+00	4.008599e+02
2.450000e-06	4.205370e-07	5.945157e-09	2.923566e+00	3.856583e+02
2.460000e-06	3.159392e-07	5.720498e-09	2.196404e+00	3.700216e+02
2.470000e-06	2.112036e-07	5.486198e-09	1.468284e+00	3.540863e+02
2.480000e-06	1.063805e-07	5.244784e-09	7.395556e-01	3.379593e+02
2.490000e-06	1.517278e-09	4.993182e-09	1.054809e-02	3.216917e+02
2.500000e-06	-1.033136e-07	4.731581e-09	-7.182348e-01	3.052568e+02
2.510000e-06	-2.080768e-07	4.460131e-09	-1.446546e+00	2.885346e+02
2.520000e-06	-3.127391e-07	4.176719e-09	-2.174157e+00	2.713061e+02
2.530000e-06	-4.172858e-07	3.876963e-09	-2.900964e+00	2.532584e+02
2.540000e-06	-5.217203e-07	3.554959e-09	-3.626991e+00	2.340022e+02
2.550000e-06	-6.259480e-07	3.215272e-09	-4.351580e+00	2.130990e+02
2.560000e-06	-7.299238e-07	2.862638e-09	-5.074418e+00	1.900987e+02
2.570000e-06	-8.336898e-07	2.489886e-09	-5.795798e+00	1.645811e+02
2.580000e-06	-9.371836e-07	2.086418e-09	-6.515285e+00	1.362007e+02
2.590000e-06	-1.040311e-06	1.645476e-09	-7.232225e+00	1.047276e+02
2.600000e-06	-1.143052e-06	1.163536e-09	-7.946476e+00	7.008205e+01
2.610000e-06	-1.245261e-06	6.319525e-10	-8.657031e+00	3.235816e+01
2.620000e-06	-1.346791e-06	3.981311e-11	-9.362871e+00	-8.166311e+00
2.630000e-06	-1.447664e-06	-6.158913e-10	-1.006414e+01	-5.103510e+01
2.640000e-06	-1.547988e-06	-1.325442e-09	-1.076159e+01	-9.563401e+01
2.650000e-06	-1.647806e-06	-2.070492e-09	-1.145552e+01	-1.412253e+02
2.660000e-06	-1.747093e-06	-2.827723e-09	-1.214576e+01	-1.869932e+02
2.670000e-06	-1.845816e-06	-3.566245e-09	-1.283208e+01	-2.320964e+02
2.680000e-06	-1.943890e-06	-4.260572e-09	-1.351389e+01	-2.757233e+02
2.690000e-06	-2.041261e-06	-4.896993e-09	-1.419082e+01	-3.171445e+02
2.700000e-06	-2.137939e-06	-5.468686e-09	-1.486292e+01	-3.557579e+02
2.710000e-06	-2.233923e-06	-5.973466e-09	-1.553019e+01	-3.911238e+02
2.720000e-06	-2.329266e-06	-6.417586e-09	-1.619302e+01	-4.229846e+02
2.730000e-06	-2.423961e-06	-6.815914e-09	-1.685134e+01	-4.512699e+02
2.740000e-06	-2.517751e-06	-7.175298e-09	-1.750336e+01	-4.760869e+02
2.750000e-06	-2.610413e-06	-7.498660e-09	-1.814755e+01	-4.976955e+02
2.760000e-06	-2.701995e-06	-7.790546e-09	-1.878423e+01	-5.164739e+02
2.770000e-06	-2.792619e-06	-8.055984e-09	-1.941424e+01	-5.328767e+02
2.780000e-06	-2.882271e-06	-8.301841e-09	-2.003750e+01	-5.473897e+02
2.790000e-06	-2.970882e-06	-8.530066e-09	-2.065353e+01	-5.604874e+02
2.800000e-06	-3.058504e-06	-8.740075e-09	-2.126267e+01	-5.725948e+02
2.810000e-06	-3.145159e-06	-8.937114e-09	-2.186510e+01	-5.840593e+02
2.820000e-06	-3.230616e-06	-9.124128e-09	-2.245919e+01	-5.951327e+02
2.830000e-06	-3.314773e-06	-9.295796e-09	-2.304425e+01	-6.059652e+02
2.840000e-06	-3.397733e-06	-9.450968e-09	-2.362099e+01	-6.166110e+02
2.850000e-06	-3.479524e-06	-9.596280e-09	-2.418959e+01	-6.270431e+02
2.860000e-06	-3.560173e-06	-9.736074e-09	-2.475026e+01	-6.371758e+02
2.870000e-06	-3.639666e-06	-9.868994e-09	-2.530290e+01	-6.468900e+02
2.880000e-06	-3.717809e-06	-9.993764e-09	-2.584615e+01	-6.560606e+02
2.890000e-06	-3.794364e-06	-1.011300e-08	-2.637836e+01	-6.645800e+02
2.900000e-06	-3.869365e-06	-1.022824e-08	-2.689976e+01	-6.723772e+02
2.910000e-06	-3.942965e-06	-1.033495e-08	-2.741143e+01	-6.794293e+02
2.920000e-06	-4.015204e-06	-1.043105e-08	-2.791364e+01	-6.857653e+02
2.930000e-06	-4.086158e-06	-1.052252e-08	-2.840690e+01	-6.914629e+02
2.940000e-06	-4.155631e-06	-1.061291e-08	-2.888988e+01	-6.966372e+02
