# Temperatura_=_22.2578102189781
# Concentracion g/m^3_=_15500.0
# C_Vs_to_Am_M_A/Vsm_=_65563218390.804596
# pendiente_HvsI_1/m_=_3716.3
# ordenada_HvsI_A/m_=_1297.0
# frecuencia_Hz_=_300866.1766732861
# Promedio de 137 ciclos

Tiempo_(s)	Campo_(V.s)	Magnetizacion_(V.s)	Campo_(kA/m)	Magnetizacion_(A/m)
0.000000e+00	-2.859483e-09	-5.119735e-09	-1.980326e+01	-3.351863e+02
1.000000e-08	-2.858727e-09	-5.116801e-09	-1.979802e+01	-3.352155e+02
2.000000e-08	-2.857075e-09	-5.112046e-09	-1.978658e+01	-3.351809e+02
3.000000e-08	-2.854246e-09	-5.109196e-09	-1.976699e+01	-3.350791e+02
4.000000e-08	-2.850285e-09	-5.108338e-09	-1.973956e+01	-3.349079e+02
5.000000e-08	-2.845467e-09	-5.106084e-09	-1.970619e+01	-3.346668e+02
6.000000e-08	-2.839830e-09	-5.102290e-09	-1.966715e+01	-3.343568e+02
7.000000e-08	-2.833254e-09	-5.098643e-09	-1.962161e+01	-3.339809e+02
8.000000e-08	-2.825652e-09	-5.097608e-09	-1.956896e+01	-3.335435e+02
9.000000e-08	-2.816892e-09	-5.092772e-09	-1.950829e+01	-3.330502e+02
1.000000e-07	-2.806758e-09	-5.080610e-09	-1.943811e+01	-3.325070e+02
1.100000e-07	-2.795344e-09	-5.053934e-09	-1.935906e+01	-3.319198e+02
1.200000e-07	-2.783053e-09	-5.043296e-09	-1.927394e+01	-3.312937e+02
1.300000e-07	-2.769935e-09	-5.049989e-09	-1.918309e+01	-3.306323e+02
1.400000e-07	-2.755821e-09	-5.047638e-09	-1.908534e+01	-3.299376e+02
1.500000e-07	-2.740724e-09	-5.020623e-09	-1.898079e+01	-3.292093e+02
1.600000e-07	-2.724444e-09	-5.021832e-09	-1.886804e+01	-3.284455e+02
1.700000e-07	-2.706820e-09	-5.041061e-09	-1.874599e+01	-3.276421e+02
1.800000e-07	-2.688275e-09	-5.004354e-09	-1.861756e+01	-3.267941e+02
1.900000e-07	-2.669089e-09	-4.976231e-09	-1.848468e+01	-3.258955e+02
2.000000e-07	-2.649055e-09	-4.979455e-09	-1.834594e+01	-3.249401e+02
2.100000e-07	-2.628131e-09	-4.950562e-09	-1.820103e+01	-3.239225e+02
2.200000e-07	-2.606433e-09	-4.924691e-09	-1.805076e+01	-3.228378e+02
2.300000e-07	-2.583849e-09	-4.945019e-09	-1.789435e+01	-3.216829e+02
2.400000e-07	-2.560283e-09	-4.923349e-09	-1.773115e+01	-3.204561e+02
2.500000e-07	-2.535891e-09	-4.873264e-09	-1.756222e+01	-3.191574e+02
2.600000e-07	-2.510702e-09	-4.860289e-09	-1.738778e+01	-3.177881e+02
2.700000e-07	-2.484515e-09	-4.848712e-09	-1.720641e+01	-3.163507e+02
2.800000e-07	-2.457224e-09	-4.809531e-09	-1.701742e+01	-3.148483e+02
2.900000e-07	-2.428923e-09	-4.786857e-09	-1.682141e+01	-3.132844e+02
3.000000e-07	-2.399755e-09	-4.772296e-09	-1.661941e+01	-3.116621e+02
3.100000e-07	-2.369847e-09	-4.752994e-09	-1.641229e+01	-3.099840e+02
3.200000e-07	-2.339234e-09	-4.736279e-09	-1.620028e+01	-3.082519e+02
3.300000e-07	-2.307831e-09	-4.699389e-09	-1.598279e+01	-3.064668e+02
3.400000e-07	-2.275667e-09	-4.662648e-09	-1.576005e+01	-3.046286e+02
3.500000e-07	-2.242886e-09	-4.635308e-09	-1.553302e+01	-3.027369e+02
3.600000e-07	-2.209399e-09	-4.611804e-09	-1.530111e+01	-3.007905e+02
3.700000e-07	-2.174876e-09	-4.586737e-09	-1.506202e+01	-2.987885e+02
3.800000e-07	-2.139232e-09	-4.555497e-09	-1.481516e+01	-2.967301e+02
3.900000e-07	-2.102789e-09	-4.522934e-09	-1.456279e+01	-2.946150e+02
4.000000e-07	-2.065750e-09	-4.498735e-09	-1.430627e+01	-2.924435e+02
4.100000e-07	-2.028019e-09	-4.459298e-09	-1.404497e+01	-2.902167e+02
4.200000e-07	-1.989546e-09	-4.409470e-09	-1.377852e+01	-2.879362e+02
4.300000e-07	-1.950338e-09	-4.377723e-09	-1.350699e+01	-2.856040e+02
4.400000e-07	-1.910439e-09	-4.349259e-09	-1.323067e+01	-2.832221e+02
4.500000e-07	-1.870033e-09	-4.313284e-09	-1.295084e+01	-2.807923e+02
4.600000e-07	-1.829237e-09	-4.273900e-09	-1.266830e+01	-2.783156e+02
4.700000e-07	-1.787839e-09	-4.235842e-09	-1.238160e+01	-2.757923e+02
4.800000e-07	-1.745481e-09	-4.192311e-09	-1.208825e+01	-2.732216e+02
4.900000e-07	-1.702091e-09	-4.147157e-09	-1.178776e+01	-2.706017e+02
5.000000e-07	-1.657956e-09	-4.106305e-09	-1.148210e+01	-2.679295e+02
5.100000e-07	-1.613360e-09	-4.067217e-09	-1.117326e+01	-2.652013e+02
5.200000e-07	-1.568358e-09	-4.026602e-09	-1.086159e+01	-2.624131e+02
5.300000e-07	-1.522848e-09	-3.987454e-09	-1.054641e+01	-2.595606e+02
5.400000e-07	-1.476768e-09	-3.943816e-09	-1.022729e+01	-2.566397e+02
5.500000e-07	-1.430144e-09	-3.888607e-09	-9.904396e+00	-2.536472e+02
5.600000e-07	-1.383004e-09	-3.837273e-09	-9.577926e+00	-2.505807e+02
5.700000e-07	-1.335355e-09	-3.791769e-09	-9.247940e+00	-2.474390e+02
5.800000e-07	-1.287262e-09	-3.744999e-09	-8.914873e+00	-2.442217e+02
5.900000e-07	-1.238819e-09	-3.696982e-09	-8.579382e+00	-2.409295e+02
6.000000e-07	-1.190020e-09	-3.649827e-09	-8.241427e+00	-2.375639e+02
6.100000e-07	-1.140737e-09	-3.597617e-09	-7.900117e+00	-2.341265e+02
6.200000e-07	-1.090826e-09	-3.539859e-09	-7.554460e+00	-2.306192e+02
6.300000e-07	-1.040252e-09	-3.482768e-09	-7.204210e+00	-2.270433e+02
6.400000e-07	-9.890935e-10	-3.425182e-09	-6.849912e+00	-2.233997e+02
6.500000e-07	-9.374343e-10	-3.367048e-09	-6.492148e+00	-2.196883e+02
6.600000e-07	-8.853607e-10	-3.309009e-09	-6.131514e+00	-2.159081e+02
6.700000e-07	-8.329896e-10	-3.251511e-09	-5.768819e+00	-2.120573e+02
6.800000e-07	-7.803810e-10	-3.191107e-09	-5.404479e+00	-2.081333e+02
6.900000e-07	-7.275187e-10	-3.128130e-09	-5.038384e+00	-2.041331e+02
7.000000e-07	-6.743936e-10	-3.064977e-09	-4.670467e+00	-2.000531e+02
7.100000e-07	-6.210205e-10	-3.002233e-09	-4.300833e+00	-1.958899e+02
7.200000e-07	-5.674270e-10	-2.937893e-09	-3.929673e+00	-1.916402e+02
7.300000e-07	-5.136215e-10	-2.869606e-09	-3.557045e+00	-1.873007e+02
7.400000e-07	-4.595978e-10	-2.798167e-09	-3.182905e+00	-1.828686e+02
7.500000e-07	-4.053918e-10	-2.725240e-09	-2.807503e+00	-1.783410e+02
7.600000e-07	-3.510711e-10	-2.653465e-09	-2.431307e+00	-1.737147e+02
7.700000e-07	-2.966734e-10	-2.581086e-09	-2.054577e+00	-1.689864e+02
7.800000e-07	-2.422063e-10	-2.507157e-09	-1.677367e+00	-1.641520e+02
7.900000e-07	-1.876768e-10	-2.432737e-09	-1.299724e+00	-1.592065e+02
8.000000e-07	-1.331020e-10	-2.357088e-09	-9.217685e-01	-1.541439e+02
8.100000e-07	-7.849887e-11	-2.277577e-09	-5.436163e-01	-1.489571e+02
8.200000e-07	-2.387529e-11	-2.193613e-09	-1.653224e-01	-1.436380e+02
8.300000e-07	3.075272e-11	-2.106930e-09	2.130021e-01	-1.381780e+02
8.400000e-07	8.536773e-11	-2.018405e-09	5.912366e-01	-1.325678e+02
8.500000e-07	1.399580e-10	-1.929405e-09	9.692998e-01	-1.267984e+02
8.600000e-07	1.945158e-10	-1.839208e-09	1.347138e+00	-1.208609e+02
8.700000e-07	2.490305e-10	-1.747810e-09	1.724678e+00	-1.147470e+02
8.800000e-07	3.034844e-10	-1.654799e-09	2.101797e+00	-1.084490e+02
8.900000e-07	3.578561e-10	-1.556748e-09	2.478346e+00	-1.019597e+02
9.000000e-07	4.121119e-10	-1.452157e-09	2.854093e+00	-9.527210e+01
9.100000e-07	4.662132e-10	-1.344806e-09	3.228770e+00	-8.837875e+01
9.200000e-07	5.201307e-10	-1.236575e-09	3.602174e+00	-8.127098e+01
9.300000e-07	5.738395e-10	-1.124132e-09	3.974132e+00	-7.393820e+01
9.400000e-07	6.273125e-10	-1.006874e-09	4.344457e+00	-6.636707e+01
9.500000e-07	6.805223e-10	-8.860000e-10	4.712960e+00	-5.854096e+01
9.600000e-07	7.334672e-10	-7.624831e-10	5.079628e+00	-5.043969e+01
9.700000e-07	7.861708e-10	-6.347336e-10	5.444625e+00	-4.203969e+01
9.800000e-07	8.386406e-10	-5.003786e-10	5.808003e+00	-3.331470e+01
9.900000e-07	8.908357e-10	-3.588996e-10	6.169478e+00	-2.423710e+01
1.000000e-06	9.426670e-10	-2.112543e-10	6.528434e+00	-1.477970e+01
1.010000e-06	9.940070e-10	-5.850469e-11	6.883988e+00	-4.918043e+00
1.020000e-06	1.044727e-09	9.925567e-11	7.235248e+00	5.366887e+00
1.030000e-06	1.094767e-09	2.630802e-10	7.581796e+00	1.608594e+01
1.040000e-06	1.144185e-09	4.341976e-10	7.924039e+00	2.723906e+01
1.050000e-06	1.193140e-09	6.110428e-10	8.263079e+00	3.881298e+01
1.060000e-06	1.241786e-09	7.926181e-10	8.599969e+00	5.077941e+01
1.070000e-06	1.290158e-09	9.794354e-10	8.934970e+00	6.309411e+01
1.080000e-06	1.338155e-09	1.171652e-09	9.267369e+00	7.569686e+01
1.090000e-06	1.385647e-09	1.367337e-09	9.596277e+00	8.851256e+01
1.100000e-06	1.432613e-09	1.564265e-09	9.921538e+00	1.014533e+02
1.110000e-06	1.479080e-09	1.761758e-09	1.024334e+01	1.144212e+02
1.120000e-06	1.525017e-09	1.957713e-09	1.056148e+01	1.273128e+02
1.130000e-06	1.570404e-09	2.150090e-09	1.087580e+01	1.400226e+02
1.140000e-06	1.615329e-09	2.338961e-09	1.118693e+01	1.524482e+02
1.150000e-06	1.659904e-09	2.523213e-09	1.149563e+01	1.644948e+02
1.160000e-06	1.704076e-09	2.699739e-09	1.180155e+01	1.760786e+02
1.170000e-06	1.747595e-09	2.866687e-09	1.210293e+01	1.871308e+02
1.180000e-06	1.790190e-09	3.023790e-09	1.239792e+01	1.975995e+02
1.190000e-06	1.831827e-09	3.172306e-09	1.268628e+01	2.074511e+02
1.200000e-06	1.872742e-09	3.312697e-09	1.296963e+01	2.166703e+02
1.210000e-06	1.913140e-09	3.443879e-09	1.324941e+01	2.252593e+02
1.220000e-06	1.952981e-09	3.564577e-09	1.352533e+01	2.332353e+02
1.230000e-06	1.992163e-09	3.675051e-09	1.379668e+01	2.406282e+02
1.240000e-06	2.030656e-09	3.777573e-09	1.406326e+01	2.474767e+02
1.250000e-06	2.068415e-09	3.872824e-09	1.432476e+01	2.538254e+02
1.260000e-06	2.105500e-09	3.961376e-09	1.458159e+01	2.597211e+02
1.270000e-06	2.142061e-09	4.044515e-09	1.483479e+01	2.652094e+02
1.280000e-06	2.178015e-09	4.122974e-09	1.508379e+01	2.703327e+02
1.290000e-06	2.213039e-09	4.195787e-09	1.532635e+01	2.751282e+02
1.300000e-06	2.246966e-09	4.262548e-09	1.556130e+01	2.796266e+02
1.310000e-06	2.279982e-09	4.324645e-09	1.578996e+01	2.838525e+02
1.320000e-06	2.312307e-09	4.383396e-09	1.601382e+01	2.878242e+02
1.330000e-06	2.343919e-09	4.439197e-09	1.623275e+01	2.915551e+02
1.340000e-06	2.374754e-09	4.491393e-09	1.644630e+01	2.950550e+02
1.350000e-06	2.404780e-09	4.539509e-09	1.665424e+01	2.983313e+02
1.360000e-06	2.434017e-09	4.583511e-09	1.685672e+01	3.013909e+02
1.370000e-06	2.462584e-09	4.623974e-09	1.705456e+01	3.042412e+02
1.380000e-06	2.490373e-09	4.661414e-09	1.724702e+01	3.068909e+02
1.390000e-06	2.517029e-09	4.696741e-09	1.743162e+01	3.093505e+02
1.400000e-06	2.542495e-09	4.730037e-09	1.760798e+01	3.116325e+02
1.410000e-06	2.567017e-09	4.761358e-09	1.777780e+01	3.137509e+02
1.420000e-06	2.590684e-09	4.791786e-09	1.794171e+01	3.157207e+02
1.430000e-06	2.613474e-09	4.821184e-09	1.809955e+01	3.175568e+02
1.440000e-06	2.635390e-09	4.847682e-09	1.825132e+01	3.192733e+02
1.450000e-06	2.656498e-09	4.869562e-09	1.839750e+01	3.208828e+02
1.460000e-06	2.676879e-09	4.888664e-09	1.853865e+01	3.223954e+02
1.470000e-06	2.696416e-09	4.908234e-09	1.867395e+01	3.238189e+02
1.480000e-06	2.714963e-09	4.929389e-09	1.880240e+01	3.251582e+02
1.490000e-06	2.732548e-09	4.950198e-09	1.892418e+01	3.264161e+02
1.500000e-06	2.749132e-09	4.968663e-09	1.903904e+01	3.275932e+02
1.510000e-06	2.764601e-09	4.985600e-09	1.914617e+01	3.286891e+02
1.520000e-06	2.778987e-09	5.001293e-09	1.924580e+01	3.297029e+02
1.530000e-06	2.792368e-09	5.014241e-09	1.933846e+01	3.306337e+02
1.540000e-06	2.804717e-09	5.023964e-09	1.942398e+01	3.314817e+02
1.550000e-06	2.815844e-09	5.032480e-09	1.950104e+01	3.322482e+02
1.560000e-06	2.825674e-09	5.042652e-09	1.956912e+01	3.329359e+02
1.570000e-06	2.834449e-09	5.055300e-09	1.962989e+01	3.335485e+02
1.580000e-06	2.842325e-09	5.068202e-09	1.968444e+01	3.340909e+02
1.590000e-06	2.849251e-09	5.078458e-09	1.973240e+01	3.345684e+02
1.600000e-06	2.855200e-09	5.085104e-09	1.977360e+01	3.349860e+02
1.610000e-06	2.860268e-09	5.089379e-09	1.980870e+01	3.353482e+02
1.620000e-06	2.864479e-09	5.092658e-09	1.983786e+01	3.356581e+02
1.630000e-06	2.867583e-09	5.095568e-09	1.985936e+01	3.359174e+02
1.640000e-06	2.869428e-09	5.098670e-09	1.987213e+01	3.361258e+02
1.650000e-06	2.870224e-09	5.102499e-09	1.987765e+01	3.362818e+02
1.660000e-06	2.870131e-09	5.106117e-09	1.987700e+01	3.363824e+02
1.670000e-06	2.869138e-09	5.107239e-09	1.987013e+01	3.364238e+02
1.680000e-06	2.867243e-09	5.106086e-09	1.985700e+01	3.364022e+02
1.690000e-06	2.864507e-09	5.105234e-09	1.983805e+01	3.363139e+02
1.700000e-06	2.861006e-09	5.104319e-09	1.981381e+01	3.361566e+02
1.710000e-06	2.856560e-09	5.101046e-09	1.978302e+01	3.359293e+02
1.720000e-06	2.850933e-09	5.093298e-09	1.974404e+01	3.356328e+02
1.730000e-06	2.844250e-09	5.086825e-09	1.969776e+01	3.352697e+02
1.740000e-06	2.836691e-09	5.076240e-09	1.964541e+01	3.348442e+02
1.750000e-06	2.827961e-09	5.066693e-09	1.958495e+01	3.343616e+02
1.760000e-06	2.817681e-09	5.063731e-09	1.951375e+01	3.338280e+02
1.770000e-06	2.806231e-09	5.073673e-09	1.943446e+01	3.332492e+02
1.780000e-06	2.794434e-09	5.064296e-09	1.935276e+01	3.326307e+02
1.790000e-06	2.782153e-09	5.027866e-09	1.926771e+01	3.319762e+02
1.800000e-06	2.768436e-09	5.014534e-09	1.917271e+01	3.312882e+02
1.810000e-06	2.753295e-09	5.024303e-09	1.906785e+01	3.305668e+02
1.820000e-06	2.737467e-09	5.013815e-09	1.895823e+01	3.298104e+02
1.830000e-06	2.720778e-09	5.004705e-09	1.884265e+01	3.290153e+02
1.840000e-06	2.702781e-09	5.028014e-09	1.871802e+01	3.281767e+02
1.850000e-06	2.683870e-09	5.014074e-09	1.858705e+01	3.272887e+02
1.860000e-06	2.664292e-09	4.969364e-09	1.845146e+01	3.263450e+02
1.870000e-06	2.643604e-09	4.977878e-09	1.830819e+01	3.253401e+02
1.880000e-06	2.621717e-09	4.970691e-09	1.815661e+01	3.242690e+02
1.890000e-06	2.598882e-09	4.910171e-09	1.799846e+01	3.231283e+02
1.900000e-06	2.575064e-09	4.908766e-09	1.783351e+01	3.219158e+02
1.910000e-06	2.550396e-09	4.920501e-09	1.766268e+01	3.206312e+02
1.920000e-06	2.525018e-09	4.879941e-09	1.748692e+01	3.192757e+02
1.930000e-06	2.498771e-09	4.854993e-09	1.730514e+01	3.178516e+02
1.940000e-06	2.471752e-09	4.847875e-09	1.711803e+01	3.163619e+02
1.950000e-06	2.443994e-09	4.817007e-09	1.692579e+01	3.148100e+02
1.960000e-06	2.415090e-09	4.785743e-09	1.672562e+01	3.131991e+02
1.970000e-06	2.385002e-09	4.755644e-09	1.651724e+01	3.115320e+02
1.980000e-06	2.354070e-09	4.732672e-09	1.630303e+01	3.098106e+02
1.990000e-06	2.322428e-09	4.720955e-09	1.608389e+01	3.080361e+02
2.000000e-06	2.290068e-09	4.686928e-09	1.585978e+01	3.062085e+02
2.010000e-06	2.256910e-09	4.656613e-09	1.563014e+01	3.043275e+02
2.020000e-06	2.222932e-09	4.628949e-09	1.539483e+01	3.023922e+02
2.030000e-06	2.188300e-09	4.583369e-09	1.515499e+01	3.004013e+02
2.040000e-06	2.153069e-09	4.556219e-09	1.491099e+01	2.983542e+02
2.050000e-06	2.117128e-09	4.524351e-09	1.466209e+01	2.962504e+02
2.060000e-06	2.080309e-09	4.479114e-09	1.440710e+01	2.940901e+02
2.070000e-06	2.042423e-09	4.463644e-09	1.414472e+01	2.918742e+02
2.080000e-06	2.003629e-09	4.436568e-09	1.387605e+01	2.896043e+02
2.090000e-06	1.964246e-09	4.388126e-09	1.360331e+01	2.872823e+02
2.100000e-06	1.924280e-09	4.355601e-09	1.332652e+01	2.849102e+02
2.110000e-06	1.883651e-09	4.312909e-09	1.304515e+01	2.824898e+02
2.120000e-06	1.842404e-09	4.268247e-09	1.275949e+01	2.800224e+02
2.130000e-06	1.800579e-09	4.235038e-09	1.246984e+01	2.775085e+02
2.140000e-06	1.758173e-09	4.200390e-09	1.217615e+01	2.749474e+02
2.150000e-06	1.715242e-09	4.166430e-09	1.187883e+01	2.723375e+02
2.160000e-06	1.671885e-09	4.119522e-09	1.157857e+01	2.696760e+02
2.170000e-06	1.628016e-09	4.072974e-09	1.127475e+01	2.669593e+02
2.180000e-06	1.583494e-09	4.034225e-09	1.096642e+01	2.641834e+02
2.190000e-06	1.538345e-09	3.987270e-09	1.065374e+01	2.613439e+02
2.200000e-06	1.492672e-09	3.944246e-09	1.033743e+01	2.584369e+02
2.210000e-06	1.446587e-09	3.905044e-09	1.001827e+01	2.554588e+02
2.220000e-06	1.400077e-09	3.856681e-09	9.696168e+00	2.524071e+02
2.230000e-06	1.353032e-09	3.807415e-09	9.370357e+00	2.492804e+02
2.240000e-06	1.305360e-09	3.755354e-09	9.040207e+00	2.460780e+02
2.250000e-06	1.257058e-09	3.703967e-09	8.705694e+00	2.428006e+02
2.260000e-06	1.208268e-09	3.657570e-09	8.367796e+00	2.394494e+02
2.270000e-06	1.159085e-09	3.609897e-09	8.027182e+00	2.360261e+02
2.280000e-06	1.109488e-09	3.560640e-09	7.683703e+00	2.325325e+02
2.290000e-06	1.059442e-09	3.504789e-09	7.337110e+00	2.289702e+02
2.300000e-06	1.008935e-09	3.447251e-09	6.987324e+00	2.253400e+02
2.310000e-06	9.580476e-10	3.388520e-09	6.634905e+00	2.216421e+02
2.320000e-06	9.068923e-10	3.325782e-09	6.280630e+00	2.178757e+02
2.330000e-06	8.554846e-10	3.266849e-09	5.924608e+00	2.140391e+02
2.340000e-06	8.037605e-10	3.211946e-09	5.566394e+00	2.101299e+02
2.350000e-06	7.516112e-10	3.156235e-09	5.205236e+00	2.061450e+02
2.360000e-06	6.989974e-10	3.095251e-09	4.840860e+00	2.020811e+02
2.370000e-06	6.459410e-10	3.030679e-09	4.473420e+00	1.979346e+02
2.380000e-06	5.924631e-10	2.968648e-09	4.103060e+00	1.937022e+02
2.390000e-06	5.386207e-10	2.906041e-09	3.730177e+00	1.893808e+02
2.400000e-06	4.844740e-10	2.839701e-09	3.355186e+00	1.849672e+02
2.410000e-06	4.300977e-10	2.772676e-09	2.978604e+00	1.804586e+02
2.420000e-06	3.755521e-10	2.705359e-09	2.600850e+00	1.758520e+02
2.430000e-06	3.208493e-10	2.636107e-09	2.222008e+00	1.711441e+02
2.440000e-06	2.660180e-10	2.561686e-09	1.842275e+00	1.663310e+02
2.450000e-06	2.111057e-10	2.484881e-09	1.461981e+00	1.614078e+02
2.460000e-06	1.561515e-10	2.409966e-09	1.081398e+00	1.563687e+02
2.470000e-06	1.011777e-10	2.333343e-09	7.006780e-01	1.512069e+02
2.480000e-06	4.618363e-11	2.253315e-09	3.198182e-01	1.459145e+02
2.490000e-06	-8.826481e-12	2.170169e-09	-6.115278e-02	1.404829e+02
2.500000e-06	-6.383879e-11	2.085251e-09	-4.421390e-01	1.349030e+02
2.510000e-06	-1.188382e-10	1.998769e-09	-8.230358e-01	1.291656e+02
2.520000e-06	-1.738103e-10	1.908877e-09	-1.203744e+00	1.232617e+02
2.530000e-06	-2.287418e-10	1.815655e-09	-1.584170e+00	1.171831e+02
2.540000e-06	-2.836150e-10	1.719808e-09	-1.964193e+00	1.109218e+02
2.550000e-06	-3.383951e-10	1.623278e-09	-2.343571e+00	1.044706e+02
2.560000e-06	-3.930364e-10	1.525284e-09	-2.721987e+00	9.782244e+01
2.570000e-06	-4.475028e-10	1.422324e-09	-3.099192e+00	9.097005e+01
2.580000e-06	-5.017527e-10	1.314327e-09	-3.474898e+00	8.390505e+01
2.590000e-06	-5.557238e-10	1.204017e-09	-3.848673e+00	7.661727e+01
2.600000e-06	-6.093453e-10	1.091083e-09	-4.220026e+00	6.909398e+01
2.610000e-06	-6.625590e-10	9.728375e-10	-4.588556e+00	6.131922e+01
2.620000e-06	-7.153343e-10	8.485193e-10	-4.954049e+00	5.327350e+01
2.630000e-06	-7.676691e-10	7.202897e-10	-5.316491e+00	4.493388e+01
2.640000e-06	-8.195906e-10	5.892998e-10	-5.676072e+00	3.627458e+01
2.650000e-06	-8.711677e-10	4.539492e-10	-6.033267e+00	2.726809e+01
2.660000e-06	-9.224609e-10	3.121739e-10	-6.388497e+00	1.788700e+01
2.670000e-06	-9.734745e-10	1.635835e-10	-6.741790e+00	8.106137e+00
2.680000e-06	-1.024165e-09	9.190245e-12	-7.092848e+00	-2.094791e+00
2.690000e-06	-1.074463e-09	-1.515059e-10	-7.441180e+00	-1.272843e+01
2.700000e-06	-1.124319e-09	-3.189592e-10	-7.786457e+00	-2.379706e+01
2.710000e-06	-1.173733e-09	-4.928520e-10	-8.128675e+00	-3.529013e+01
2.720000e-06	-1.222693e-09	-6.726789e-10	-8.467741e+00	-4.718238e+01
2.730000e-06	-1.271082e-09	-8.583152e-10	-8.802863e+00	-5.943273e+01
2.740000e-06	-1.318741e-09	-1.049602e-09	-9.132921e+00	-7.198405e+01
2.750000e-06	-1.365629e-09	-1.246271e-09	-9.457643e+00	-8.476401e+01
2.760000e-06	-1.411879e-09	-1.446929e-09	-9.777947e+00	-9.768698e+01
2.770000e-06	-1.457675e-09	-1.648402e-09	-1.009510e+01	-1.106569e+02
2.780000e-06	-1.503133e-09	-1.848028e-09	-1.040992e+01	-1.235708e+02
2.790000e-06	-1.548247e-09	-2.043894e-09	-1.072235e+01	-1.363236e+02
2.800000e-06	-1.592903e-09	-2.234382e-09	-1.103162e+01	-1.488118e+02
2.810000e-06	-1.636989e-09	-2.419190e-09	-1.133693e+01	-1.609386e+02
2.820000e-06	-1.680550e-09	-2.598319e-09	-1.163861e+01	-1.726181e+02
2.830000e-06	-1.723702e-09	-2.769457e-09	-1.193746e+01	-1.837782e+02
2.840000e-06	-1.766417e-09	-2.931124e-09	-1.223328e+01	-1.943636e+02
2.850000e-06	-1.808566e-09	-3.084254e-09	-1.252518e+01	-2.043371e+02
2.860000e-06	-1.850102e-09	-3.228848e-09	-1.281284e+01	-2.136799e+02
2.870000e-06	-1.891027e-09	-3.363400e-09	-1.309627e+01	-2.223908e+02
2.880000e-06	-1.931291e-09	-3.487466e-09	-1.337511e+01	-2.304843e+02
2.890000e-06	-1.970923e-09	-3.603201e-09	-1.364958e+01	-2.379880e+02
2.900000e-06	-2.010012e-09	-3.711766e-09	-1.392030e+01	-2.449393e+02
2.910000e-06	-2.048450e-09	-3.812629e-09	-1.418649e+01	-2.513818e+02
2.920000e-06	-2.085968e-09	-3.905513e-09	-1.444633e+01	-2.573621e+02
2.930000e-06	-2.122462e-09	-3.990897e-09	-1.469906e+01	-2.629263e+02
2.940000e-06	-2.158108e-09	-4.071107e-09	-1.494592e+01	-2.681176e+02
