# Temperatura_=_19.45
# Concentracion g/m^3_=_18700.0
# C_Vs_to_Am_M_A/Vsm_=_65563218390.804596
# pendiente_HvsI_1/m_=_3716.3
# ordenada_HvsI_A/m_=_1297.0
# frecuencia_Hz_=_301076.3892988064

Tiempo_(s)	Campo_(V.s)	Magnetizacion_(V.s)	Campo_(kA/m)	Magnetizacion_(A/m)
0.000000e+00	-2.932214e-06	-7.595118e-09	-1.977665e+01	-4.958970e+02
1.000000e-08	-2.931727e-06	-7.595214e-09	-1.977337e+01	-4.958296e+02
2.000000e-08	-2.930371e-06	-7.590962e-09	-1.976422e+01	-4.955972e+02
3.000000e-08	-2.927826e-06	-7.583433e-09	-1.974705e+01	-4.952376e+02
4.000000e-08	-2.924066e-06	-7.575738e-09	-1.972170e+01	-4.947747e+02
5.000000e-08	-2.919468e-06	-7.567460e-09	-1.969068e+01	-4.942081e+02
6.000000e-08	-2.914089e-06	-7.555383e-09	-1.965440e+01	-4.935125e+02
7.000000e-08	-2.907706e-06	-7.531378e-09	-1.961136e+01	-4.926479e+02
8.000000e-08	-2.900312e-06	-7.512514e-09	-1.956148e+01	-4.915768e+02
9.000000e-08	-2.891834e-06	-7.531727e-09	-1.950430e+01	-4.902826e+02
1.000000e-07	-2.881876e-06	-7.545887e-09	-1.943714e+01	-4.887807e+02
1.100000e-07	-2.870349e-06	-7.466646e-09	-1.935939e+01	-4.871185e+02
1.200000e-07	-2.857907e-06	-7.349470e-09	-1.927547e+01	-4.853630e+02
1.300000e-07	-2.844825e-06	-7.372963e-09	-1.918724e+01	-4.835799e+02
1.400000e-07	-2.830730e-06	-7.457477e-09	-1.909218e+01	-4.818117e+02
1.500000e-07	-2.815510e-06	-7.340271e-09	-1.898953e+01	-4.800620e+02
1.600000e-07	-2.799147e-06	-7.263042e-09	-1.887916e+01	-4.782928e+02
1.700000e-07	-2.781546e-06	-7.362701e-09	-1.876045e+01	-4.764349e+02
1.800000e-07	-2.762896e-06	-7.316507e-09	-1.863466e+01	-4.744088e+02
1.900000e-07	-2.743506e-06	-7.189429e-09	-1.850389e+01	-4.721482e+02
2.000000e-07	-2.723353e-06	-7.215409e-09	-1.836797e+01	-4.696189e+02
2.100000e-07	-2.702200e-06	-7.179478e-09	-1.822529e+01	-4.668256e+02
2.200000e-07	-2.680135e-06	-7.028069e-09	-1.807648e+01	-4.638058e+02
2.300000e-07	-2.657258e-06	-7.056242e-09	-1.792218e+01	-4.606138e+02
2.400000e-07	-2.633494e-06	-7.075103e-09	-1.776190e+01	-4.572992e+02
2.500000e-07	-2.608937e-06	-6.914895e-09	-1.759627e+01	-4.538908e+02
2.600000e-07	-2.583471e-06	-6.843622e-09	-1.742452e+01	-4.503885e+02
2.700000e-07	-2.556726e-06	-6.853840e-09	-1.724413e+01	-4.467675e+02
2.800000e-07	-2.528859e-06	-6.779743e-09	-1.705618e+01	-4.429918e+02
2.900000e-07	-2.500194e-06	-6.708083e-09	-1.686284e+01	-4.390309e+02
3.000000e-07	-2.470695e-06	-6.628308e-09	-1.666388e+01	-4.348736e+02
3.100000e-07	-2.440387e-06	-6.570796e-09	-1.645947e+01	-4.305334e+02
3.200000e-07	-2.409310e-06	-6.551942e-09	-1.624986e+01	-4.260438e+02
3.300000e-07	-2.377454e-06	-6.447688e-09	-1.603501e+01	-4.214458e+02
3.400000e-07	-2.344923e-06	-6.340577e-09	-1.581560e+01	-4.167726e+02
3.500000e-07	-2.311671e-06	-6.297286e-09	-1.559133e+01	-4.120384e+02
3.600000e-07	-2.277344e-06	-6.224819e-09	-1.535981e+01	-4.072342e+02
3.700000e-07	-2.241825e-06	-6.151633e-09	-1.512024e+01	-4.023337e+02
3.800000e-07	-2.205448e-06	-6.099417e-09	-1.487489e+01	-3.973048e+02
3.900000e-07	-2.168465e-06	-5.982658e-09	-1.462546e+01	-3.921238e+02
4.000000e-07	-2.130818e-06	-5.895562e-09	-1.437154e+01	-3.867853e+02
4.100000e-07	-2.092367e-06	-5.849521e-09	-1.411221e+01	-3.813052e+02
4.200000e-07	-2.053090e-06	-5.745578e-09	-1.384730e+01	-3.757142e+02
4.300000e-07	-2.013086e-06	-5.631505e-09	-1.357749e+01	-3.700465e+02
4.400000e-07	-1.972565e-06	-5.560629e-09	-1.330419e+01	-3.643275e+02
4.500000e-07	-1.931575e-06	-5.490920e-09	-1.302772e+01	-3.585642e+02
4.600000e-07	-1.889822e-06	-5.398149e-09	-1.274612e+01	-3.527444e+02
4.700000e-07	-1.847079e-06	-5.298149e-09	-1.245784e+01	-3.468423e+02
4.800000e-07	-1.803387e-06	-5.195471e-09	-1.216315e+01	-3.408297e+02
4.900000e-07	-1.759024e-06	-5.108063e-09	-1.186394e+01	-3.346874e+02
5.000000e-07	-1.714245e-06	-5.022900e-09	-1.156192e+01	-3.284125e+02
5.100000e-07	-1.668911e-06	-4.922827e-09	-1.125616e+01	-3.220197e+02
5.200000e-07	-1.622917e-06	-4.812897e-09	-1.094595e+01	-3.155342e+02
5.300000e-07	-1.576345e-06	-4.717465e-09	-1.063184e+01	-3.089818e+02
5.400000e-07	-1.529268e-06	-4.626737e-09	-1.031432e+01	-3.023784e+02
5.500000e-07	-1.481644e-06	-4.521773e-09	-9.993115e+00	-2.957241e+02
5.600000e-07	-1.433488e-06	-4.409704e-09	-9.668322e+00	-2.890031e+02
5.700000e-07	-1.384947e-06	-4.301819e-09	-9.340931e+00	-2.821906e+02
5.800000e-07	-1.335939e-06	-4.207792e-09	-9.010394e+00	-2.752629e+02
5.900000e-07	-1.286311e-06	-4.105440e-09	-8.675672e+00	-2.682070e+02
6.000000e-07	-1.235957e-06	-3.987794e-09	-8.336054e+00	-2.610262e+02
6.100000e-07	-1.184803e-06	-3.869309e-09	-7.991035e+00	-2.537394e+02
6.200000e-07	-1.133010e-06	-3.760404e-09	-7.641717e+00	-2.463743e+02
6.300000e-07	-1.080810e-06	-3.651581e-09	-7.289645e+00	-2.389575e+02
6.400000e-07	-1.028265e-06	-3.533870e-09	-6.935247e+00	-2.315061e+02
6.500000e-07	-9.753922e-07	-3.414071e-09	-6.578643e+00	-2.240218e+02
6.600000e-07	-9.221056e-07	-3.301361e-09	-6.219245e+00	-2.164922e+02
6.700000e-07	-8.684239e-07	-3.194352e-09	-5.857183e+00	-2.088969e+02
6.800000e-07	-8.144713e-07	-3.076944e-09	-5.493294e+00	-2.012161e+02
6.900000e-07	-7.602421e-07	-2.948454e-09	-5.127539e+00	-1.934392e+02
7.000000e-07	-7.057988e-07	-2.820175e-09	-4.760340e+00	-1.855692e+02
7.100000e-07	-6.511986e-07	-2.702138e-09	-4.392083e+00	-1.776216e+02
7.200000e-07	-5.964149e-07	-2.583329e-09	-4.022588e+00	-1.696188e+02
7.300000e-07	-5.414415e-07	-2.455807e-09	-3.651813e+00	-1.615815e+02
7.400000e-07	-4.862693e-07	-2.329155e-09	-3.279698e+00	-1.535208e+02
7.500000e-07	-4.309045e-07	-2.209648e-09	-2.906284e+00	-1.454342e+02
7.600000e-07	-3.753202e-07	-2.092070e-09	-2.531390e+00	-1.373061e+02
7.700000e-07	-3.195392e-07	-1.963737e-09	-2.155168e+00	-1.291134e+02
7.800000e-07	-2.636438e-07	-1.828247e-09	-1.778176e+00	-1.208337e+02
7.900000e-07	-2.076928e-07	-1.696613e-09	-1.400807e+00	-1.124529e+02
8.000000e-07	-1.516837e-07	-1.571396e-09	-1.023048e+00	-1.039703e+02
8.100000e-07	-9.561541e-08	-1.444350e-09	-6.448889e-01	-9.539882e+01
8.200000e-07	-3.952316e-08	-1.310950e-09	-2.665684e-01	-8.676080e+01
8.300000e-07	1.659145e-08	-1.176017e-09	1.119029e-01	-7.808086e+01
8.400000e-07	7.275447e-08	-1.043749e-09	4.907008e-01	-6.937822e+01
8.500000e-07	1.288841e-07	-9.113459e-10	8.692732e-01	-6.066106e+01
8.600000e-07	1.849204e-07	-7.728480e-10	1.247217e+00	-5.192463e+01
8.700000e-07	2.408948e-07	-6.331968e-10	1.624742e+00	-4.315347e+01
8.800000e-07	2.967945e-07	-5.009691e-10	2.001764e+00	-3.432673e+01
8.900000e-07	3.526166e-07	-3.715976e-10	2.378263e+00	-2.542478e+01
9.000000e-07	4.083080e-07	-2.342582e-10	2.753879e+00	-1.643484e+01
9.100000e-07	4.637783e-07	-8.989922e-11	3.128005e+00	-7.354102e+00
9.200000e-07	5.190168e-07	5.250516e-11	3.500567e+00	1.810646e+00
9.300000e-07	5.740903e-07	1.922105e-10	3.872017e+00	1.104627e+01
9.400000e-07	6.289412e-07	3.340849e-10	4.241965e+00	2.033833e+01
9.500000e-07	6.835701e-07	4.781988e-10	4.610416e+00	2.967606e+01
9.600000e-07	7.380722e-07	6.210168e-10	4.978011e+00	3.905577e+01
9.700000e-07	7.923541e-07	7.627254e-10	5.344122e+00	4.848158e+01
9.800000e-07	8.463279e-07	9.052476e-10	5.708154e+00	5.796354e+01
9.900000e-07	8.999603e-07	1.052112e-09	6.069884e+00	6.751369e+01
1.000000e-06	9.532355e-07	1.200965e-09	6.429205e+00	7.714161e+01
1.010000e-06	1.006178e-06	1.348418e-09	6.786285e+00	8.685082e+01
1.020000e-06	1.058805e-06	1.495597e-09	7.141232e+00	9.663721e+01
1.030000e-06	1.111107e-06	1.645501e-09	7.493990e+00	1.064899e+02
1.040000e-06	1.162964e-06	1.799116e-09	7.843743e+00	1.163943e+02
1.050000e-06	1.214228e-06	1.951549e-09	8.189500e+00	1.263359e+02
1.060000e-06	1.264801e-06	2.101666e-09	8.530594e+00	1.363038e+02
1.070000e-06	1.314560e-06	2.253127e-09	8.866201e+00	1.462924e+02
1.080000e-06	1.363600e-06	2.407506e-09	9.196954e+00	1.563012e+02
1.090000e-06	1.412236e-06	2.561323e-09	9.524982e+00	1.663317e+02
1.100000e-06	1.460566e-06	2.713994e-09	9.850955e+00	1.763842e+02
1.110000e-06	1.508425e-06	2.868754e-09	1.017374e+01	1.864540e+02
1.120000e-06	1.555729e-06	3.025398e-09	1.049279e+01	1.965302e+02
1.130000e-06	1.602500e-06	3.181214e-09	1.080824e+01	2.065963e+02
1.140000e-06	1.648684e-06	3.332791e-09	1.111974e+01	2.166332e+02
1.150000e-06	1.694242e-06	3.482105e-09	1.142701e+01	2.266238e+02
1.160000e-06	1.739240e-06	3.632873e-09	1.173050e+01	2.365559e+02
1.170000e-06	1.783829e-06	3.783980e-09	1.203124e+01	2.464246e+02
1.180000e-06	1.828056e-06	3.933615e-09	1.232953e+01	2.562300e+02
1.190000e-06	1.871652e-06	4.082027e-09	1.262357e+01	2.659737e+02
1.200000e-06	1.914289e-06	4.230709e-09	1.291114e+01	2.756532e+02
1.210000e-06	1.955904e-06	4.379362e-09	1.319181e+01	2.852575e+02
1.220000e-06	1.996733e-06	4.524836e-09	1.346719e+01	2.947652e+02
1.230000e-06	2.037007e-06	4.665990e-09	1.373882e+01	3.041466e+02
1.240000e-06	2.076669e-06	4.803384e-09	1.400633e+01	3.133687e+02
1.250000e-06	2.115638e-06	4.937864e-09	1.426916e+01	3.224017e+02
1.260000e-06	2.153887e-06	5.071413e-09	1.452713e+01	3.312253e+02
1.270000e-06	2.191374e-06	5.202222e-09	1.477997e+01	3.398311e+02
1.280000e-06	2.228182e-06	5.329391e-09	1.502823e+01	3.482206e+02
1.290000e-06	2.264426e-06	5.453347e-09	1.527268e+01	3.564008e+02
1.300000e-06	2.299912e-06	5.574444e-09	1.551202e+01	3.643763e+02
1.310000e-06	2.334303e-06	5.690458e-09	1.574397e+01	3.721435e+02
1.320000e-06	2.367609e-06	5.801799e-09	1.596861e+01	3.796889e+02
1.330000e-06	2.400100e-06	5.910774e-09	1.618775e+01	3.869911e+02
1.340000e-06	2.431880e-06	6.016230e-09	1.640209e+01	3.940277e+02
1.350000e-06	2.462895e-06	6.117415e-09	1.661127e+01	4.007838e+02
1.360000e-06	2.493052e-06	6.215237e-09	1.681467e+01	4.072582e+02
1.370000e-06	2.522329e-06	6.309982e-09	1.701213e+01	4.134656e+02
1.380000e-06	2.550900e-06	6.400717e-09	1.720483e+01	4.194323e+02
1.390000e-06	2.578735e-06	6.487755e-09	1.739257e+01	4.251882e+02
1.400000e-06	2.605440e-06	6.571499e-09	1.757269e+01	4.307557e+02
1.410000e-06	2.630898e-06	6.650999e-09	1.774439e+01	4.361418e+02
1.420000e-06	2.655411e-06	6.727024e-09	1.790972e+01	4.413357e+02
1.430000e-06	2.679040e-06	6.799619e-09	1.806909e+01	4.463125e+02
1.440000e-06	2.701712e-06	6.869208e-09	1.822200e+01	4.510427e+02
1.450000e-06	2.723458e-06	6.935868e-09	1.836867e+01	4.555044e+02
1.460000e-06	2.744379e-06	6.999206e-09	1.850977e+01	4.596915e+02
1.470000e-06	2.764568e-06	7.058557e-09	1.864594e+01	4.636170e+02
1.480000e-06	2.783840e-06	7.112359e-09	1.877592e+01	4.673080e+02
1.490000e-06	2.802026e-06	7.161031e-09	1.889858e+01	4.707950e+02
1.500000e-06	2.819231e-06	7.207091e-09	1.901462e+01	4.740995e+02
1.510000e-06	2.835435e-06	7.252232e-09	1.912391e+01	4.772245e+02
1.520000e-06	2.850507e-06	7.295733e-09	1.922557e+01	4.801523e+02
1.530000e-06	2.864485e-06	7.335790e-09	1.931984e+01	4.828505e+02
1.540000e-06	2.877400e-06	7.369753e-09	1.940695e+01	4.852848e+02
1.550000e-06	2.889200e-06	7.400092e-09	1.948654e+01	4.874332e+02
1.560000e-06	2.899686e-06	7.428985e-09	1.955726e+01	4.892972e+02
1.570000e-06	2.908919e-06	7.454514e-09	1.961953e+01	4.909041e+02
1.580000e-06	2.917204e-06	7.475638e-09	1.967541e+01	4.923006e+02
1.590000e-06	2.924536e-06	7.493726e-09	1.972487e+01	4.935382e+02
1.600000e-06	2.930813e-06	7.509690e-09	1.976720e+01	4.946573e+02
1.610000e-06	2.936151e-06	7.524692e-09	1.980321e+01	4.956746e+02
1.620000e-06	2.940642e-06	7.537904e-09	1.983349e+01	4.965798e+02
1.630000e-06	2.944078e-06	7.547716e-09	1.985667e+01	4.973413e+02
1.640000e-06	2.946224e-06	7.556122e-09	1.987114e+01	4.979207e+02
1.650000e-06	2.947232e-06	7.563753e-09	1.987794e+01	4.982885e+02
1.660000e-06	2.947315e-06	7.568146e-09	1.987850e+01	4.984370e+02
1.670000e-06	2.946495e-06	7.568419e-09	1.987297e+01	4.983830e+02
1.680000e-06	2.944767e-06	7.566388e-09	1.986131e+01	4.981613e+02
1.690000e-06	2.942152e-06	7.562682e-09	1.984368e+01	4.978099e+02
1.700000e-06	2.938732e-06	7.557065e-09	1.982061e+01	4.973543e+02
1.710000e-06	2.934343e-06	7.548924e-09	1.979101e+01	4.967959e+02
1.720000e-06	2.928747e-06	7.542307e-09	1.975326e+01	4.961109e+02
1.730000e-06	2.922051e-06	7.545771e-09	1.970810e+01	4.952600e+02
1.740000e-06	2.914523e-06	7.514799e-09	1.965733e+01	4.942048e+02
1.750000e-06	2.905934e-06	7.441726e-09	1.959940e+01	4.929266e+02
1.760000e-06	2.895714e-06	7.412811e-09	1.953047e+01	4.914385e+02
1.770000e-06	2.883998e-06	7.494890e-09	1.945145e+01	4.897858e+02
1.780000e-06	2.871766e-06	7.499031e-09	1.936895e+01	4.880349e+02
1.790000e-06	2.859329e-06	7.348820e-09	1.928507e+01	4.862522e+02
1.800000e-06	2.845631e-06	7.302176e-09	1.919268e+01	4.844825e+02
1.810000e-06	2.830232e-06	7.392731e-09	1.908882e+01	4.827325e+02
1.820000e-06	2.814072e-06	7.324583e-09	1.897982e+01	4.809669e+02
1.830000e-06	2.797276e-06	7.200349e-09	1.886654e+01	4.791182e+02
1.840000e-06	2.779196e-06	7.285645e-09	1.874460e+01	4.771067e+02
1.850000e-06	2.760086e-06	7.258199e-09	1.861572e+01	4.748647e+02
1.860000e-06	2.740291e-06	7.087944e-09	1.848220e+01	4.723551e+02
1.870000e-06	2.719283e-06	7.158206e-09	1.834051e+01	4.695799e+02
1.880000e-06	2.696884e-06	7.185274e-09	1.818944e+01	4.665748e+02
1.890000e-06	2.673617e-06	6.982545e-09	1.803251e+01	4.633935e+02
1.900000e-06	2.649458e-06	6.975124e-09	1.786957e+01	4.600866e+02
1.910000e-06	2.624421e-06	7.026390e-09	1.770071e+01	4.566848e+02
1.920000e-06	2.598730e-06	6.895960e-09	1.752743e+01	4.531899e+02
1.930000e-06	2.572174e-06	6.825616e-09	1.734832e+01	4.495788e+02
1.940000e-06	2.544811e-06	6.801695e-09	1.716377e+01	4.458155e+02
1.950000e-06	2.516622e-06	6.723258e-09	1.697364e+01	4.418687e+02
1.960000e-06	2.487152e-06	6.698650e-09	1.677488e+01	4.377255e+02
1.970000e-06	2.456454e-06	6.600285e-09	1.656783e+01	4.333976e+02
1.980000e-06	2.424926e-06	6.487507e-09	1.635519e+01	4.289176e+02
1.990000e-06	2.392609e-06	6.501986e-09	1.613722e+01	4.243262e+02
2.000000e-06	2.359515e-06	6.409135e-09	1.591401e+01	4.196578e+02
2.010000e-06	2.325662e-06	6.292719e-09	1.568569e+01	4.149282e+02
2.020000e-06	2.291054e-06	6.269265e-09	1.545228e+01	4.101300e+02
2.030000e-06	2.255831e-06	6.154899e-09	1.521471e+01	4.052376e+02
2.040000e-06	2.219830e-06	6.072962e-09	1.497190e+01	4.002190e+02
2.050000e-06	2.182751e-06	6.050269e-09	1.472181e+01	3.950495e+02
2.060000e-06	2.144698e-06	5.927325e-09	1.446516e+01	3.897223e+02
2.070000e-06	2.105883e-06	5.838119e-09	1.420336e+01	3.842516e+02
2.080000e-06	2.066405e-06	5.786680e-09	1.393710e+01	3.786675e+02
2.090000e-06	2.026252e-06	5.686303e-09	1.366629e+01	3.730045e+02
2.100000e-06	1.985397e-06	5.596146e-09	1.339074e+01	3.672888e+02
2.110000e-06	1.943908e-06	5.495508e-09	1.311091e+01	3.615291e+02
2.120000e-06	1.901808e-06	5.409307e-09	1.282696e+01	3.557143e+02
2.130000e-06	1.859064e-06	5.345334e-09	1.253867e+01	3.498193e+02
2.140000e-06	1.815793e-06	5.248464e-09	1.224682e+01	3.438156e+02
2.150000e-06	1.772110e-06	5.147691e-09	1.195220e+01	3.376830e+02
2.160000e-06	1.727816e-06	5.046606e-09	1.165345e+01	3.314176e+02
2.170000e-06	1.682744e-06	4.952102e-09	1.134946e+01	3.250326e+02
2.180000e-06	1.637044e-06	4.861359e-09	1.104123e+01	3.185530e+02
2.190000e-06	1.590808e-06	4.753395e-09	1.072939e+01	3.120048e+02
2.200000e-06	1.544078e-06	4.653540e-09	1.041421e+01	3.054051e+02
2.210000e-06	1.496852e-06	4.558519e-09	1.009569e+01	2.987550e+02
2.220000e-06	1.448965e-06	4.459191e-09	9.772708e+00	2.920398e+02
2.230000e-06	1.400351e-06	4.357278e-09	9.444826e+00	2.852349e+02
2.240000e-06	1.351168e-06	4.236030e-09	9.113107e+00	2.783162e+02
2.250000e-06	1.301570e-06	4.128792e-09	8.778583e+00	2.712697e+02
2.260000e-06	1.251525e-06	4.034811e-09	8.441051e+00	2.640976e+02
2.270000e-06	1.201018e-06	3.924456e-09	8.100403e+00	2.568177e+02
2.280000e-06	1.150048e-06	3.810939e-09	7.756626e+00	2.494574e+02
2.290000e-06	1.098681e-06	3.692430e-09	7.410177e+00	2.420439e+02
2.300000e-06	1.046900e-06	3.582006e-09	7.060932e+00	2.345949e+02
2.310000e-06	9.946082e-07	3.472413e-09	6.708248e+00	2.271134e+02
2.320000e-06	9.417550e-07	3.352018e-09	6.351773e+00	2.195879e+02
2.330000e-06	8.883653e-07	3.236793e-09	5.991680e+00	2.119982e+02
2.340000e-06	8.344466e-07	3.125435e-09	5.628020e+00	2.043241e+02
2.350000e-06	7.800735e-07	3.013007e-09	5.261294e+00	1.965544e+02
2.360000e-06	7.253766e-07	2.892618e-09	4.892385e+00	1.886908e+02
2.370000e-06	6.704350e-07	2.766820e-09	4.521825e+00	1.807483e+02
2.380000e-06	6.153540e-07	2.649116e-09	4.150325e+00	1.727490e+02
2.390000e-06	5.601287e-07	2.532859e-09	3.777851e+00	1.647138e+02
2.400000e-06	5.047710e-07	2.410606e-09	3.404485e+00	1.566549e+02
2.410000e-06	4.493177e-07	2.285427e-09	3.030474e+00	1.485707e+02
2.420000e-06	3.937741e-07	2.159170e-09	2.655854e+00	1.404465e+02
2.430000e-06	3.381348e-07	2.037004e-09	2.280588e+00	1.322594e+02
2.440000e-06	2.824272e-07	1.913293e-09	1.904862e+00	1.239868e+02
2.450000e-06	2.266647e-07	1.785595e-09	1.528766e+00	1.156136e+02
2.460000e-06	1.707921e-07	1.657499e-09	1.151927e+00	1.071382e+02
2.470000e-06	1.148214e-07	1.528622e-09	7.744257e-01	9.857254e+01
2.480000e-06	5.885963e-08	1.400996e-09	3.969854e-01	8.993864e+01
2.490000e-06	2.883373e-09	1.269361e-09	1.944724e-02	8.126116e+01
2.500000e-06	-5.313667e-08	1.134454e-09	-3.583863e-01	7.255992e+01
2.510000e-06	-1.091527e-07	1.001738e-09	-7.361929e-01	6.384401e+01
2.520000e-06	-1.650996e-07	8.713114e-10	-1.113533e+00	5.510957e+01
2.530000e-06	-2.209167e-07	7.389805e-10	-1.489998e+00	4.634176e+01
2.540000e-06	-2.766607e-07	6.009446e-10	-1.865970e+00	3.751990e+01
2.550000e-06	-3.323362e-07	4.640514e-10	-2.241479e+00	2.862405e+01
2.560000e-06	-3.878887e-07	3.315896e-10	-2.616159e+00	1.964082e+01
2.570000e-06	-4.433319e-07	1.972316e-10	-2.990102e+00	1.056664e+01
2.580000e-06	-4.986925e-07	5.723158e-11	-3.363488e+00	1.407714e+00
2.590000e-06	-5.539863e-07	-8.527987e-11	-3.736424e+00	-7.823138e+00
2.600000e-06	-6.092131e-07	-2.275895e-10	-4.108906e+00	-1.711139e+01
2.610000e-06	-6.643173e-07	-3.690812e-10	-4.480563e+00	-2.644587e+01
2.620000e-06	-7.192407e-07	-5.118300e-10	-4.851000e+00	-3.582232e+01
2.630000e-06	-7.738900e-07	-6.561666e-10	-5.219589e+00	-4.524436e+01
2.640000e-06	-8.281522e-07	-8.010258e-10	-5.585566e+00	-5.472170e+01
2.650000e-06	-8.819130e-07	-9.455979e-10	-5.948162e+00	-6.426640e+01
2.660000e-06	-9.350967e-07	-1.091080e-09	-6.306866e+00	-7.388836e+01
2.670000e-06	-9.877012e-07	-1.240848e-09	-6.661662e+00	-8.359161e+01
2.680000e-06	-1.039745e-06	-1.392821e-09	-7.012680e+00	-9.337258e+01
2.690000e-06	-1.091356e-06	-1.543962e-09	-7.360773e+00	-1.032208e+02
2.700000e-06	-1.142631e-06	-1.694815e-09	-7.706602e+00	-1.131218e+02
2.710000e-06	-1.193555e-06	-1.846461e-09	-8.050069e+00	-1.230610e+02
2.720000e-06	-1.244075e-06	-1.997814e-09	-8.390806e+00	-1.330270e+02
2.730000e-06	-1.294091e-06	-2.148749e-09	-8.728143e+00	-1.430140e+02
2.740000e-06	-1.343598e-06	-2.301591e-09	-9.062050e+00	-1.530211e+02
2.750000e-06	-1.392604e-06	-2.456470e-09	-9.392578e+00	-1.630498e+02
2.760000e-06	-1.440972e-06	-2.610367e-09	-9.718801e+00	-1.731006e+02
2.770000e-06	-1.488497e-06	-2.761697e-09	-1.003933e+01	-1.831692e+02
2.780000e-06	-1.535180e-06	-2.913697e-09	-1.035420e+01	-1.932453e+02
2.790000e-06	-1.581250e-06	-3.066704e-09	-1.066492e+01	-2.033125e+02
2.800000e-06	-1.626878e-06	-3.219243e-09	-1.097266e+01	-2.133520e+02
2.810000e-06	-1.672116e-06	-3.371495e-09	-1.127778e+01	-2.233461e+02
2.820000e-06	-1.716914e-06	-3.524475e-09	-1.157992e+01	-2.332825e+02
2.830000e-06	-1.761097e-06	-3.678302e-09	-1.187792e+01	-2.431555e+02
2.840000e-06	-1.804664e-06	-3.829935e-09	-1.217176e+01	-2.529652e+02
2.850000e-06	-1.847844e-06	-3.978668e-09	-1.246299e+01	-2.627131e+02
2.860000e-06	-1.890544e-06	-4.125132e-09	-1.275099e+01	-2.723972e+02
2.870000e-06	-1.932593e-06	-4.270573e-09	-1.303459e+01	-2.820072e+02
2.880000e-06	-1.973982e-06	-4.415518e-09	-1.331375e+01	-2.915225e+02
2.890000e-06	-2.014693e-06	-4.559041e-09	-1.358832e+01	-3.009139e+02
2.900000e-06	-2.054708e-06	-4.700394e-09	-1.385821e+01	-3.101482e+02
2.910000e-06	-2.094116e-06	-4.839980e-09	-1.412400e+01	-3.191953e+02
2.920000e-06	-2.132963e-06	-4.977922e-09	-1.438601e+01	-3.280341e+02
2.930000e-06	-2.170924e-06	-5.112494e-09	-1.464204e+01	-3.366552e+02
2.940000e-06	-2.207789e-06	-5.241878e-09	-1.489068e+01	-3.450599e+02
