# Temperatura_=_28.43
# Concentracion g/m^3_=_18700.0
# C_Vs_to_Am_M_A/Vsm_=_65563218390.804596
# pendiente_HvsI_1/m_=_3716.3
# ordenada_HvsI_A/m_=_1297.0
# frecuencia_Hz_=_301073.96563897113

Tiempo_(s)	Campo_(V.s)	Magnetizacion_(V.s)	Campo_(kA/m)	Magnetizacion_(A/m)
0.000000e+00	-2.935374e-06	-7.897254e-09	-1.977766e+01	-5.152921e+02
1.000000e-08	-2.934966e-06	-7.897732e-09	-1.977491e+01	-5.152850e+02
2.000000e-08	-2.933734e-06	-7.895747e-09	-1.976661e+01	-5.151392e+02
3.000000e-08	-2.931329e-06	-7.892194e-09	-1.975040e+01	-5.148564e+02
4.000000e-08	-2.927672e-06	-7.889695e-09	-1.972576e+01	-5.144265e+02
5.000000e-08	-2.923096e-06	-7.883274e-09	-1.969493e+01	-5.138314e+02
6.000000e-08	-2.917733e-06	-7.867608e-09	-1.965880e+01	-5.130505e+02
7.000000e-08	-2.911436e-06	-7.838500e-09	-1.961637e+01	-5.120689e+02
8.000000e-08	-2.904121e-06	-7.814879e-09	-1.956708e+01	-5.108839e+02
9.000000e-08	-2.895758e-06	-7.844816e-09	-1.951073e+01	-5.095094e+02
1.000000e-07	-2.886073e-06	-7.867323e-09	-1.944548e+01	-5.079749e+02
1.100000e-07	-2.874850e-06	-7.782971e-09	-1.936987e+01	-5.063206e+02
1.200000e-07	-2.862570e-06	-7.640227e-09	-1.928712e+01	-5.045891e+02
1.300000e-07	-2.849569e-06	-7.673536e-09	-1.919953e+01	-5.028161e+02
1.400000e-07	-2.835503e-06	-7.789256e-09	-1.910476e+01	-5.010224e+02
1.500000e-07	-2.820177e-06	-7.618634e-09	-1.900150e+01	-4.992086e+02
1.600000e-07	-2.803686e-06	-7.534308e-09	-1.889038e+01	-4.973555e+02
1.700000e-07	-2.786067e-06	-7.661562e-09	-1.877167e+01	-4.954275e+02
1.800000e-07	-2.767391e-06	-7.587292e-09	-1.864584e+01	-4.933804e+02
1.900000e-07	-2.747935e-06	-7.440183e-09	-1.851475e+01	-4.911701e+02
2.000000e-07	-2.727800e-06	-7.496394e-09	-1.837909e+01	-4.887608e+02
2.100000e-07	-2.706704e-06	-7.456363e-09	-1.823695e+01	-4.861305e+02
2.200000e-07	-2.684707e-06	-7.272525e-09	-1.808874e+01	-4.832737e+02
2.300000e-07	-2.661956e-06	-7.341567e-09	-1.793545e+01	-4.801993e+02
2.400000e-07	-2.638326e-06	-7.364643e-09	-1.777624e+01	-4.769266e+02
2.500000e-07	-2.613906e-06	-7.175048e-09	-1.761171e+01	-4.734793e+02
2.600000e-07	-2.588516e-06	-7.134605e-09	-1.744064e+01	-4.698793e+02
2.700000e-07	-2.561824e-06	-7.128768e-09	-1.726079e+01	-4.661424e+02
2.800000e-07	-2.534044e-06	-7.023575e-09	-1.707362e+01	-4.622767e+02
2.900000e-07	-2.505452e-06	-7.008245e-09	-1.688097e+01	-4.582831e+02
3.000000e-07	-2.475980e-06	-6.909636e-09	-1.668240e+01	-4.541582e+02
3.100000e-07	-2.445625e-06	-6.819029e-09	-1.647788e+01	-4.498980e+02
3.200000e-07	-2.414503e-06	-6.845538e-09	-1.626818e+01	-4.455014e+02
3.300000e-07	-2.382683e-06	-6.733745e-09	-1.605379e+01	-4.409715e+02
3.400000e-07	-2.350212e-06	-6.591743e-09	-1.583501e+01	-4.363160e+02
3.500000e-07	-2.316979e-06	-6.589370e-09	-1.561110e+01	-4.315449e+02
3.600000e-07	-2.282699e-06	-6.519638e-09	-1.538013e+01	-4.266680e+02
3.700000e-07	-2.247274e-06	-6.399120e-09	-1.514145e+01	-4.216920e+02
3.800000e-07	-2.210986e-06	-6.377444e-09	-1.489695e+01	-4.166190e+02
3.900000e-07	-2.174063e-06	-6.264591e-09	-1.464817e+01	-4.114471e+02
4.000000e-07	-2.136443e-06	-6.148582e-09	-1.439470e+01	-4.061717e+02
4.100000e-07	-2.098068e-06	-6.126984e-09	-1.413614e+01	-4.007887e+02
4.200000e-07	-2.058941e-06	-6.043496e-09	-1.387252e+01	-3.952963e+02
4.300000e-07	-2.019066e-06	-5.905958e-09	-1.360385e+01	-3.896968e+02
4.400000e-07	-1.978629e-06	-5.838231e-09	-1.333140e+01	-3.839957e+02
4.500000e-07	-1.937668e-06	-5.777314e-09	-1.305541e+01	-3.782004e+02
4.600000e-07	-1.895897e-06	-5.675118e-09	-1.277397e+01	-3.723169e+02
4.700000e-07	-1.853153e-06	-5.576642e-09	-1.248598e+01	-3.663480e+02
4.800000e-07	-1.809502e-06	-5.472340e-09	-1.219187e+01	-3.602917e+02
4.900000e-07	-1.765160e-06	-5.390865e-09	-1.189311e+01	-3.541425e+02
5.000000e-07	-1.720327e-06	-5.310836e-09	-1.159104e+01	-3.478930e+02
5.100000e-07	-1.674971e-06	-5.204524e-09	-1.128544e+01	-3.415370e+02
5.200000e-07	-1.629033e-06	-5.088741e-09	-1.097593e+01	-3.350719e+02
5.300000e-07	-1.582542e-06	-5.001390e-09	-1.066269e+01	-3.284998e+02
5.400000e-07	-1.535473e-06	-4.905058e-09	-1.034555e+01	-3.218266e+02
5.500000e-07	-1.487780e-06	-4.798276e-09	-1.002421e+01	-3.150598e+02
5.600000e-07	-1.439609e-06	-4.693091e-09	-9.699651e+00	-3.082059e+02
5.700000e-07	-1.391062e-06	-4.575251e-09	-9.372555e+00	-3.012673e+02
5.800000e-07	-1.342048e-06	-4.477434e-09	-9.042314e+00	-2.942422e+02
5.900000e-07	-1.292414e-06	-4.381050e-09	-8.707895e+00	-2.871252e+02
6.000000e-07	-1.242038e-06	-4.261866e-09	-8.368476e+00	-2.799098e+02
6.100000e-07	-1.190889e-06	-4.137826e-09	-8.023845e+00	-2.725916e+02
6.200000e-07	-1.139089e-06	-4.036249e-09	-7.674838e+00	-2.651702e+02
6.300000e-07	-1.086827e-06	-3.928212e-09	-7.322713e+00	-2.576503e+02
6.400000e-07	-1.034208e-06	-3.804639e-09	-6.968177e+00	-2.500409e+02
6.500000e-07	-9.813117e-07	-3.679360e-09	-6.611780e+00	-2.423523e+02
6.600000e-07	-9.280915e-07	-3.562317e-09	-6.253198e+00	-2.345937e+02
6.700000e-07	-8.744930e-07	-3.455279e-09	-5.892068e+00	-2.267709e+02
6.800000e-07	-8.205523e-07	-3.337824e-09	-5.528632e+00	-2.188858e+02
6.900000e-07	-7.663152e-07	-3.211950e-09	-5.163198e+00	-2.109370e+02
7.000000e-07	-7.118835e-07	-3.083136e-09	-4.796454e+00	-2.029227e+02
7.100000e-07	-6.572741e-07	-2.960611e-09	-4.428513e+00	-1.948423e+02
7.200000e-07	-6.024760e-07	-2.832875e-09	-4.059300e+00	-1.866979e+02
7.300000e-07	-5.475046e-07	-2.701032e-09	-3.688920e+00	-1.784938e+02
7.400000e-07	-4.922388e-07	-2.573840e-09	-3.316556e+00	-1.702350e+02
7.500000e-07	-4.366888e-07	-2.454220e-09	-2.942276e+00	-1.619242e+02
7.600000e-07	-3.809604e-07	-2.337511e-09	-2.566795e+00	-1.535598e+02
7.700000e-07	-3.251039e-07	-2.208171e-09	-2.190452e+00	-1.451347e+02
7.800000e-07	-2.691797e-07	-2.068067e-09	-1.813651e+00	-1.366383e+02
7.900000e-07	-2.131421e-07	-1.928354e-09	-1.436086e+00	-1.280588e+02
8.000000e-07	-1.570076e-07	-1.797854e-09	-1.057869e+00	-1.193872e+02
8.100000e-07	-1.008372e-07	-1.666154e-09	-6.794103e-01	-1.106207e+02
8.200000e-07	-4.463248e-08	-1.531692e-09	-3.007201e-01	-1.017634e+02
8.300000e-07	1.153367e-08	-1.397612e-09	7.771034e-02	-9.282600e+01
8.400000e-07	6.771432e-08	-1.265219e-09	4.562385e-01	-8.382197e+01
8.500000e-07	1.238831e-07	-1.128834e-09	8.346865e-01	-7.476387e+01
8.600000e-07	1.799780e-07	-9.821517e-10	1.212637e+00	-6.565940e+01
8.700000e-07	2.360296e-07	-8.345607e-10	1.590296e+00	-5.650932e+01
8.800000e-07	2.920001e-07	-6.939178e-10	1.967408e+00	-4.730772e+01
8.900000e-07	3.479004e-07	-5.587321e-10	2.344047e+00	-3.804424e+01
9.000000e-07	4.036577e-07	-4.184146e-10	2.719723e+00	-2.870757e+01
9.100000e-07	4.592277e-07	-2.735423e-10	3.094137e+00	-1.928866e+01
9.200000e-07	5.146030e-07	-1.265224e-10	3.467239e+00	-9.782775e+00
9.300000e-07	5.697509e-07	2.135804e-11	3.838808e+00	-1.896196e-01
9.400000e-07	6.246726e-07	1.700456e-10	4.208854e+00	9.488165e+00
9.500000e-07	6.794033e-07	3.201554e-10	4.577613e+00	1.924731e+01
9.600000e-07	7.339633e-07	4.709799e-10	4.945221e+00	2.908599e+01
9.700000e-07	7.883412e-07	6.215110e-10	5.311603e+00	3.900479e+01
9.800000e-07	8.424886e-07	7.712810e-10	5.676432e+00	4.900628e+01
9.900000e-07	8.962512e-07	9.258645e-10	6.038668e+00	5.909332e+01
1.000000e-06	9.496014e-07	1.082285e-09	6.398126e+00	6.926720e+01
1.010000e-06	1.002618e-06	1.238275e-09	6.755337e+00	7.952606e+01
1.020000e-06	1.055316e-06	1.393562e-09	7.110399e+00	8.986462e+01
1.030000e-06	1.107691e-06	1.550383e-09	7.463285e+00	1.002749e+02
1.040000e-06	1.159621e-06	1.710897e-09	7.813173e+00	1.107480e+02
1.050000e-06	1.210961e-06	1.873361e-09	8.159088e+00	1.212754e+02
1.060000e-06	1.261590e-06	2.036549e-09	8.500212e+00	1.318502e+02
1.070000e-06	1.311365e-06	2.200032e-09	8.835578e+00	1.424669e+02
1.080000e-06	1.360407e-06	2.363682e-09	9.166006e+00	1.531206e+02
1.090000e-06	1.409037e-06	2.526239e-09	9.493660e+00	1.638059e+02
1.100000e-06	1.457397e-06	2.688327e-09	9.819499e+00	1.745158e+02
1.110000e-06	1.505355e-06	2.850863e-09	1.014263e+01	1.852421e+02
1.120000e-06	1.552738e-06	3.016524e-09	1.046188e+01	1.959758e+02
1.130000e-06	1.599569e-06	3.184530e-09	1.077741e+01	2.067081e+02
1.140000e-06	1.645864e-06	3.349364e-09	1.108933e+01	2.174315e+02
1.150000e-06	1.691510e-06	3.510828e-09	1.139688e+01	2.281390e+02
1.160000e-06	1.736564e-06	3.672756e-09	1.170044e+01	2.388234e+02
1.170000e-06	1.781226e-06	3.835481e-09	1.200136e+01	2.494749e+02
1.180000e-06	1.825510e-06	3.995573e-09	1.229973e+01	2.600798e+02
1.190000e-06	1.869240e-06	4.153535e-09	1.259437e+01	2.706192e+02
1.200000e-06	1.912084e-06	4.312884e-09	1.288304e+01	2.810711e+02
1.210000e-06	1.953858e-06	4.474134e-09	1.316450e+01	2.914117e+02
1.220000e-06	1.994813e-06	4.631756e-09	1.344044e+01	3.016196e+02
1.230000e-06	2.035167e-06	4.784165e-09	1.371233e+01	3.116781e+02
1.240000e-06	2.074912e-06	4.932759e-09	1.398013e+01	3.215760e+02
1.250000e-06	2.113973e-06	5.079273e-09	1.424331e+01	3.313063e+02
1.260000e-06	2.152312e-06	5.224603e-09	1.450163e+01	3.408627e+02
1.270000e-06	2.189898e-06	5.365564e-09	1.475487e+01	3.502351e+02
1.280000e-06	2.226770e-06	5.504095e-09	1.500330e+01	3.594067e+02
1.290000e-06	2.263072e-06	5.640777e-09	1.524789e+01	3.683525e+02
1.300000e-06	2.298638e-06	5.774597e-09	1.548753e+01	3.770421e+02
1.310000e-06	2.333122e-06	5.900375e-09	1.571987e+01	3.854451e+02
1.320000e-06	2.366502e-06	6.018715e-09	1.594477e+01	3.935371e+02
1.330000e-06	2.399059e-06	6.134947e-09	1.616413e+01	4.013058e+02
1.340000e-06	2.430896e-06	6.248200e-09	1.637864e+01	4.087532e+02
1.350000e-06	2.461935e-06	6.354756e-09	1.658777e+01	4.158946e+02
1.360000e-06	2.492154e-06	6.454700e-09	1.679138e+01	4.227531e+02
1.370000e-06	2.521532e-06	6.552851e-09	1.698932e+01	4.293522e+02
1.380000e-06	2.550191e-06	6.650177e-09	1.718241e+01	4.357092e+02
1.390000e-06	2.578168e-06	6.744124e-09	1.737091e+01	4.418307e+02
1.400000e-06	2.605095e-06	6.831794e-09	1.755234e+01	4.477119e+02
1.410000e-06	2.630689e-06	6.914963e-09	1.772478e+01	4.533411e+02
1.420000e-06	2.655205e-06	6.995007e-09	1.788996e+01	4.587055e+02
1.430000e-06	2.678860e-06	7.070711e-09	1.804934e+01	4.637982e+02
1.440000e-06	2.701631e-06	7.140689e-09	1.820277e+01	4.686217e+02
1.450000e-06	2.723530e-06	7.206657e-09	1.835032e+01	4.731886e+02
1.460000e-06	2.744582e-06	7.273165e-09	1.849216e+01	4.775172e+02
1.470000e-06	2.764890e-06	7.337891e-09	1.862899e+01	4.816261e+02
1.480000e-06	2.784349e-06	7.396408e-09	1.876009e+01	4.855266e+02
1.490000e-06	2.802800e-06	7.449108e-09	1.888442e+01	4.892194e+02
1.500000e-06	2.820254e-06	7.497584e-09	1.900201e+01	4.926939e+02
1.510000e-06	2.836602e-06	7.543843e-09	1.911216e+01	4.959324e+02
1.520000e-06	2.851776e-06	7.588201e-09	1.921440e+01	4.989169e+02
1.530000e-06	2.865889e-06	7.628197e-09	1.930949e+01	5.016359e+02
1.540000e-06	2.878976e-06	7.663171e-09	1.939767e+01	5.040895e+02
1.550000e-06	2.890913e-06	7.695141e-09	1.947809e+01	5.062907e+02
1.560000e-06	2.901539e-06	7.726050e-09	1.954969e+01	5.082617e+02
1.570000e-06	2.910880e-06	7.754196e-09	1.961262e+01	5.100284e+02
1.580000e-06	2.919213e-06	7.776667e-09	1.966877e+01	5.116125e+02
1.590000e-06	2.926640e-06	7.794890e-09	1.971881e+01	5.130270e+02
1.600000e-06	2.933065e-06	7.812127e-09	1.976210e+01	5.142741e+02
1.610000e-06	2.938496e-06	7.828695e-09	1.979870e+01	5.153470e+02
1.620000e-06	2.943066e-06	7.842253e-09	1.982949e+01	5.162356e+02
1.630000e-06	2.946712e-06	7.852677e-09	1.985405e+01	5.169326e+02
1.640000e-06	2.949084e-06	7.861102e-09	1.987003e+01	5.174379e+02
1.650000e-06	2.950186e-06	7.866897e-09	1.987745e+01	5.177600e+02
1.660000e-06	2.950341e-06	7.869240e-09	1.987850e+01	5.179145e+02
1.670000e-06	2.949585e-06	7.868466e-09	1.987341e+01	5.179180e+02
1.680000e-06	2.947869e-06	7.865941e-09	1.986184e+01	5.177824e+02
1.690000e-06	2.945266e-06	7.862622e-09	1.984430e+01	5.175099e+02
1.700000e-06	2.941904e-06	7.856981e-09	1.982165e+01	5.170914e+02
1.710000e-06	2.937666e-06	7.848222e-09	1.979310e+01	5.165092e+02
1.720000e-06	2.932243e-06	7.840871e-09	1.975656e+01	5.157426e+02
1.730000e-06	2.925671e-06	7.849890e-09	1.971228e+01	5.147760e+02
1.740000e-06	2.918208e-06	7.820069e-09	1.966200e+01	5.136057e+02
1.750000e-06	2.909705e-06	7.725627e-09	1.960471e+01	5.122443e+02
1.760000e-06	2.899627e-06	7.676643e-09	1.953680e+01	5.107203e+02
1.770000e-06	2.887962e-06	7.791948e-09	1.945821e+01	5.090735e+02
1.780000e-06	2.875691e-06	7.805155e-09	1.937553e+01	5.073466e+02
1.790000e-06	2.863249e-06	7.642768e-09	1.929170e+01	5.055761e+02
1.800000e-06	2.849620e-06	7.587509e-09	1.919987e+01	5.037839e+02
1.810000e-06	2.834314e-06	7.709126e-09	1.909674e+01	5.019724e+02
1.820000e-06	2.818170e-06	7.626652e-09	1.898797e+01	5.001235e+02
1.830000e-06	2.801455e-06	7.460084e-09	1.887535e+01	4.982026e+02
1.840000e-06	2.783537e-06	7.602964e-09	1.875462e+01	4.961660e+02
1.850000e-06	2.764558e-06	7.572197e-09	1.862675e+01	4.939691e+02
1.860000e-06	2.744919e-06	7.355912e-09	1.849443e+01	4.915752e+02
1.870000e-06	2.724077e-06	7.474693e-09	1.835400e+01	4.889615e+02
1.880000e-06	2.701797e-06	7.511386e-09	1.820389e+01	4.861211e+02
1.890000e-06	2.678589e-06	7.258710e-09	1.804752e+01	4.830620e+02
1.900000e-06	2.654479e-06	7.285654e-09	1.788507e+01	4.798032e+02
1.910000e-06	2.629481e-06	7.342985e-09	1.771664e+01	4.763679e+02
1.920000e-06	2.603813e-06	7.184723e-09	1.754370e+01	4.727786e+02
1.930000e-06	2.577295e-06	7.142487e-09	1.736503e+01	4.690515e+02
1.940000e-06	2.550003e-06	7.106241e-09	1.718114e+01	4.651953e+02
1.950000e-06	2.521946e-06	6.982667e-09	1.699211e+01	4.612112e+02
1.960000e-06	2.492539e-06	7.022521e-09	1.679397e+01	4.570963e+02
1.970000e-06	2.461816e-06	6.910831e-09	1.658697e+01	4.528463e+02
1.980000e-06	2.430311e-06	6.735991e-09	1.637469e+01	4.484597e+02
1.990000e-06	2.398059e-06	6.828166e-09	1.615739e+01	4.439395e+02
2.000000e-06	2.365056e-06	6.730860e-09	1.593502e+01	4.392931e+02
2.010000e-06	2.331314e-06	6.552272e-09	1.570769e+01	4.345303e+02
2.020000e-06	2.296735e-06	6.583641e-09	1.547470e+01	4.296610e+02
2.030000e-06	2.261511e-06	6.470365e-09	1.523737e+01	4.246923e+02
2.040000e-06	2.225615e-06	6.342592e-09	1.499552e+01	4.196267e+02
2.050000e-06	2.188611e-06	6.365746e-09	1.474620e+01	4.144623e+02
2.060000e-06	2.150523e-06	6.242847e-09	1.448957e+01	4.091949e+02
2.070000e-06	2.111674e-06	6.119563e-09	1.422782e+01	4.038201e+02
2.080000e-06	2.072191e-06	6.090019e-09	1.396179e+01	3.983359e+02
2.090000e-06	2.032086e-06	5.998402e-09	1.369158e+01	3.927442e+02
2.100000e-06	1.991307e-06	5.900465e-09	1.341682e+01	3.870505e+02
2.110000e-06	1.949860e-06	5.799922e-09	1.313756e+01	3.812621e+02
2.120000e-06	1.907743e-06	5.712937e-09	1.285380e+01	3.753852e+02
2.130000e-06	1.864978e-06	5.649653e-09	1.256566e+01	3.694227e+02
2.140000e-06	1.821743e-06	5.546805e-09	1.227435e+01	3.633733e+02
2.150000e-06	1.778065e-06	5.435465e-09	1.198006e+01	3.572313e+02
2.160000e-06	1.733765e-06	5.344886e-09	1.168158e+01	3.509896e+02
2.170000e-06	1.688721e-06	5.264058e-09	1.137809e+01	3.446417e+02
2.180000e-06	1.643036e-06	5.164486e-09	1.107027e+01	3.381848e+02
2.190000e-06	1.596864e-06	5.050651e-09	1.075919e+01	3.316205e+02
2.200000e-06	1.550230e-06	4.955449e-09	1.044498e+01	3.249547e+02
2.210000e-06	1.503096e-06	4.850992e-09	1.012740e+01	3.181948e+02
2.220000e-06	1.455263e-06	4.745032e-09	9.805123e+00	3.113472e+02
2.230000e-06	1.406670e-06	4.653388e-09	9.477713e+00	3.044151e+02
2.240000e-06	1.357519e-06	4.527139e-09	9.146547e+00	2.973967e+02
2.250000e-06	1.307972e-06	4.422014e-09	8.812717e+00	2.902869e+02
2.260000e-06	1.258023e-06	4.336500e-09	8.476179e+00	2.830791e+02
2.270000e-06	1.207571e-06	4.214712e-09	8.136247e+00	2.757687e+02
2.280000e-06	1.156609e-06	4.091262e-09	7.792883e+00	2.683549e+02
2.290000e-06	1.105268e-06	3.971652e-09	7.446957e+00	2.608422e+02
2.300000e-06	1.053466e-06	3.863946e-09	7.097936e+00	2.532393e+02
2.310000e-06	1.001123e-06	3.752044e-09	6.745265e+00	2.455564e+02
2.320000e-06	9.482290e-07	3.624064e-09	6.388879e+00	2.378029e+02
2.330000e-06	8.947439e-07	3.505600e-09	6.028512e+00	2.299850e+02
2.340000e-06	8.407714e-07	3.393872e-09	5.664862e+00	2.221047e+02
2.350000e-06	7.863523e-07	3.276272e-09	5.298202e+00	2.141610e+02
2.360000e-06	7.315797e-07	3.150724e-09	4.929162e+00	2.061518e+02
2.370000e-06	6.765827e-07	3.023280e-09	4.558609e+00	1.980764e+02
2.380000e-06	6.214313e-07	2.904807e-09	4.187015e+00	1.899368e+02
2.390000e-06	5.661575e-07	2.784815e-09	3.814597e+00	1.817372e+02
2.400000e-06	5.107642e-07	2.656403e-09	3.441374e+00	1.734826e+02
2.410000e-06	4.552901e-07	2.527050e-09	3.067606e+00	1.651759e+02
2.420000e-06	3.997684e-07	2.396106e-09	2.693518e+00	1.568158e+02
2.430000e-06	3.441369e-07	2.273054e-09	2.318690e+00	1.483958e+02
2.440000e-06	2.883562e-07	2.149102e-09	1.942856e+00	1.399053e+02
2.450000e-06	2.324691e-07	2.016948e-09	1.566306e+00	1.313324e+02
2.460000e-06	1.764870e-07	1.882508e-09	1.189116e+00	1.226680e+02
2.470000e-06	1.204657e-07	1.746429e-09	8.116612e-01	1.139086e+02
2.480000e-06	6.441468e-08	1.612755e-09	4.340065e-01	1.050579e+02
2.490000e-06	8.300739e-09	1.476206e-09	5.592786e-02	9.612614e+01
2.500000e-06	-4.779673e-08	1.339063e-09	-3.220398e-01	8.712680e+01
2.510000e-06	-1.038725e-07	1.205304e-09	-6.998611e-01	7.807262e+01
2.520000e-06	-1.598733e-07	1.071248e-09	-1.077178e+00	6.897173e+01
2.530000e-06	-2.157329e-07	9.313083e-10	-1.453543e+00	5.982542e+01
2.540000e-06	-2.714936e-07	7.842737e-10	-1.829241e+00	5.062819e+01
2.550000e-06	-3.271282e-07	6.379430e-10	-2.204090e+00	4.136990e+01
2.560000e-06	-3.826740e-07	4.971628e-10	-2.578341e+00	3.203918e+01
2.570000e-06	-4.381789e-07	3.587733e-10	-2.952316e+00	2.262674e+01
2.580000e-06	-4.936058e-07	2.175658e-10	-3.325766e+00	1.312751e+01
2.590000e-06	-5.489235e-07	7.275168e-11	-3.698480e+00	3.540911e+00
2.600000e-06	-6.041416e-07	-7.540411e-11	-4.070523e+00	-6.130559e+00
2.610000e-06	-6.592682e-07	-2.248159e-10	-4.441948e+00	-1.588359e+01
2.620000e-06	-7.142606e-07	-3.763748e-10	-4.812471e+00	-2.571621e+01
2.630000e-06	-7.690330e-07	-5.302630e-10	-5.181510e+00	-3.562885e+01
2.640000e-06	-8.234407e-07	-6.840084e-10	-5.548093e+00	-4.562393e+01
2.650000e-06	-8.773273e-07	-8.356551e-10	-5.911165e+00	-5.570441e+01
2.660000e-06	-9.306643e-07	-9.883700e-10	-6.270533e+00	-6.587172e+01
2.670000e-06	-9.834731e-07	-1.145716e-09	-6.626343e+00	-7.612427e+01
2.680000e-06	-1.035727e-06	-1.303759e-09	-6.978413e+00	-8.645699e+01
2.690000e-06	-1.087481e-06	-1.462489e-09	-7.327116e+00	-9.686210e+01
2.700000e-06	-1.138858e-06	-1.622538e-09	-7.673280e+00	-1.073306e+02
2.710000e-06	-1.189867e-06	-1.784035e-09	-8.016959e+00	-1.178540e+02
2.720000e-06	-1.240425e-06	-1.946832e-09	-8.357604e+00	-1.284252e+02
2.730000e-06	-1.290531e-06	-2.108631e-09	-8.695208e+00	-1.390387e+02
2.740000e-06	-1.340121e-06	-2.268311e-09	-9.029328e+00	-1.496895e+02
2.750000e-06	-1.389155e-06	-2.428258e-09	-9.359705e+00	-1.603724e+02
2.760000e-06	-1.437596e-06	-2.590937e-09	-9.686086e+00	-1.710804e+02
2.770000e-06	-1.485195e-06	-2.754854e-09	-1.000679e+01	-1.818055e+02
2.780000e-06	-1.531964e-06	-2.918168e-09	-1.032191e+01	-1.925385e+02
2.790000e-06	-1.578112e-06	-3.080914e-09	-1.063284e+01	-2.032708e+02
2.800000e-06	-1.623811e-06	-3.244758e-09	-1.094074e+01	-2.139947e+02
2.810000e-06	-1.669194e-06	-3.408856e-09	-1.124652e+01	-2.247032e+02
2.820000e-06	-1.714169e-06	-3.572001e-09	-1.154955e+01	-2.353891e+02
2.830000e-06	-1.758509e-06	-3.734022e-09	-1.184830e+01	-2.460430e+02
2.840000e-06	-1.802209e-06	-3.895980e-09	-1.214273e+01	-2.566514e+02
2.850000e-06	-1.845489e-06	-4.057838e-09	-1.243435e+01	-2.671958e+02
2.860000e-06	-1.888280e-06	-4.218380e-09	-1.272265e+01	-2.776543e+02
2.870000e-06	-1.930410e-06	-4.375658e-09	-1.300652e+01	-2.880032e+02
2.880000e-06	-1.971920e-06	-4.529817e-09	-1.328620e+01	-2.982209e+02
2.890000e-06	-2.012751e-06	-4.683331e-09	-1.356130e+01	-3.082901e+02
2.900000e-06	-2.052838e-06	-4.835664e-09	-1.383140e+01	-3.181994e+02
2.910000e-06	-2.092342e-06	-4.985118e-09	-1.409756e+01	-3.279415e+02
2.920000e-06	-2.131320e-06	-5.131531e-09	-1.436019e+01	-3.375101e+02
2.930000e-06	-2.169510e-06	-5.275944e-09	-1.461750e+01	-3.468958e+02
2.940000e-06	-2.206595e-06	-5.417551e-09	-1.486736e+01	-3.560821e+02
