# Temperatura_=_29.12
# Concentracion g/m^3_=_18700.0
# C_Vs_to_Am_M_A/Vsm_=_65563218390.804596
# pendiente_HvsI_1/m_=_3716.3
# ordenada_HvsI_A/m_=_1297.0
# frecuencia_Hz_=_301072.6685938857

Tiempo_(s)	Campo_(V.s)	Magnetizacion_(V.s)	Campo_(kA/m)	Magnetizacion_(A/m)
0.000000e+00	-2.934139e-06	-7.910324e-09	-1.977411e+01	-5.164859e+02
1.000000e-08	-2.933732e-06	-7.914243e-09	-1.977137e+01	-5.164248e+02
2.000000e-08	-2.932467e-06	-7.913683e-09	-1.976284e+01	-5.162277e+02
3.000000e-08	-2.930033e-06	-7.906459e-09	-1.974644e+01	-5.159059e+02
4.000000e-08	-2.926423e-06	-7.895226e-09	-1.972211e+01	-5.154547e+02
5.000000e-08	-2.921859e-06	-7.882548e-09	-1.969136e+01	-5.148538e+02
6.000000e-08	-2.916371e-06	-7.869269e-09	-1.965437e+01	-5.140742e+02
7.000000e-08	-2.909971e-06	-7.854313e-09	-1.961124e+01	-5.130900e+02
8.000000e-08	-2.902603e-06	-7.844321e-09	-1.956158e+01	-5.118913e+02
9.000000e-08	-2.894106e-06	-7.844758e-09	-1.950432e+01	-5.104916e+02
1.000000e-07	-2.884193e-06	-7.802635e-09	-1.943751e+01	-5.089287e+02
1.100000e-07	-2.872799e-06	-7.738717e-09	-1.936072e+01	-5.072558e+02
1.200000e-07	-2.860479e-06	-7.710560e-09	-1.927770e+01	-5.055271e+02
1.300000e-07	-2.847403e-06	-7.760593e-09	-1.918957e+01	-5.037816e+02
1.400000e-07	-2.833314e-06	-7.722274e-09	-1.909462e+01	-5.020314e+02
1.500000e-07	-2.818040e-06	-7.574638e-09	-1.899169e+01	-5.002581e+02
1.600000e-07	-2.801590e-06	-7.626217e-09	-1.888082e+01	-4.984184e+02
1.700000e-07	-2.784001e-06	-7.667880e-09	-1.876228e+01	-4.964579e+02
1.800000e-07	-2.765376e-06	-7.531206e-09	-1.863677e+01	-4.943267e+02
1.900000e-07	-2.745970e-06	-7.491615e-09	-1.850598e+01	-4.919927e+02
2.000000e-07	-2.725764e-06	-7.559220e-09	-1.836981e+01	-4.894480e+02
2.100000e-07	-2.704587e-06	-7.438363e-09	-1.822709e+01	-4.867056e+02
2.200000e-07	-2.682579e-06	-7.322523e-09	-1.807877e+01	-4.837902e+02
2.300000e-07	-2.659780e-06	-7.399939e-09	-1.792512e+01	-4.807256e+02
2.400000e-07	-2.636087e-06	-7.310448e-09	-1.776544e+01	-4.775249e+02
2.500000e-07	-2.611624e-06	-7.153976e-09	-1.760058e+01	-4.741862e+02
2.600000e-07	-2.586164e-06	-7.188521e-09	-1.742900e+01	-4.706955e+02
2.700000e-07	-2.559341e-06	-7.161489e-09	-1.724823e+01	-4.670356e+02
2.800000e-07	-2.531446e-06	-7.054547e-09	-1.706024e+01	-4.631957e+02
2.900000e-07	-2.502807e-06	-7.013990e-09	-1.686723e+01	-4.591785e+02
3.000000e-07	-2.473313e-06	-6.922749e-09	-1.666846e+01	-4.550014e+02
3.100000e-07	-2.442991e-06	-6.867916e-09	-1.646410e+01	-4.506906e+02
3.200000e-07	-2.411891e-06	-6.822958e-09	-1.625452e+01	-4.462725e+02
3.300000e-07	-2.380020e-06	-6.711486e-09	-1.603973e+01	-4.417641e+02
3.400000e-07	-2.347524e-06	-6.656155e-09	-1.582072e+01	-4.371670e+02
3.500000e-07	-2.314283e-06	-6.619111e-09	-1.559670e+01	-4.324685e+02
3.600000e-07	-2.279971e-06	-6.512287e-09	-1.536546e+01	-4.276483e+02
3.700000e-07	-2.244534e-06	-6.456237e-09	-1.512664e+01	-4.226879e+02
3.800000e-07	-2.208278e-06	-6.392884e-09	-1.488230e+01	-4.175801e+02
3.900000e-07	-2.171342e-06	-6.248762e-09	-1.463337e+01	-4.123326e+02
4.000000e-07	-2.133641e-06	-6.201222e-09	-1.437930e+01	-4.069664e+02
4.100000e-07	-2.095166e-06	-6.150612e-09	-1.412000e+01	-4.015077e+02
4.200000e-07	-2.055926e-06	-6.024943e-09	-1.385555e+01	-3.959783e+02
4.300000e-07	-2.016028e-06	-5.938382e-09	-1.358666e+01	-3.903869e+02
4.400000e-07	-1.975630e-06	-5.883194e-09	-1.331441e+01	-3.847265e+02
4.500000e-07	-1.934652e-06	-5.787693e-09	-1.303824e+01	-3.789772e+02
4.600000e-07	-1.892840e-06	-5.687669e-09	-1.275646e+01	-3.731152e+02
4.700000e-07	-1.850045e-06	-5.592588e-09	-1.246805e+01	-3.671229e+02
4.800000e-07	-1.806340e-06	-5.495307e-09	-1.217351e+01	-3.609957e+02
4.900000e-07	-1.762008e-06	-5.413144e-09	-1.187474e+01	-3.547445e+02
5.000000e-07	-1.717182e-06	-5.318622e-09	-1.157264e+01	-3.483907e+02
5.100000e-07	-1.671769e-06	-5.215828e-09	-1.126659e+01	-3.419574e+02
5.200000e-07	-1.625782e-06	-5.109851e-09	-1.095667e+01	-3.354593e+02
5.300000e-07	-1.579263e-06	-5.013704e-09	-1.064317e+01	-3.288967e+02
5.400000e-07	-1.532136e-06	-4.910193e-09	-1.032556e+01	-3.222551e+02
5.500000e-07	-1.484448e-06	-4.809576e-09	-1.000417e+01	-3.155106e+02
5.600000e-07	-1.436324e-06	-4.702908e-09	-9.679851e+00	-3.086404e+02
5.700000e-07	-1.387781e-06	-4.594875e-09	-9.352708e+00	-3.016322e+02
5.800000e-07	-1.338752e-06	-4.495820e-09	-9.022282e+00	-2.944897e+02
5.900000e-07	-1.289016e-06	-4.380680e-09	-8.687099e+00	-2.872321e+02
6.000000e-07	-1.238479e-06	-4.259455e-09	-8.346510e+00	-2.798868e+02
6.100000e-07	-1.187246e-06	-4.146380e-09	-8.001237e+00	-2.724796e+02
6.200000e-07	-1.135465e-06	-4.043029e-09	-7.652265e+00	-2.650249e+02
6.300000e-07	-1.083291e-06	-3.930118e-09	-7.300651e+00	-2.575207e+02
6.400000e-07	-1.030798e-06	-3.813976e-09	-6.946882e+00	-2.499507e+02
6.500000e-07	-9.779559e-07	-3.695152e-09	-6.590762e+00	-2.422921e+02
6.600000e-07	-9.246759e-07	-3.576798e-09	-6.231691e+00	-2.345257e+02
6.700000e-07	-8.709763e-07	-3.456088e-09	-5.869791e+00	-2.266453e+02
6.800000e-07	-8.169751e-07	-3.328633e-09	-5.505860e+00	-2.186618e+02
6.900000e-07	-7.627810e-07	-3.203007e-09	-5.140628e+00	-2.106003e+02
7.000000e-07	-7.084286e-07	-3.079771e-09	-4.774330e+00	-2.024913e+02
7.100000e-07	-6.538672e-07	-2.961466e-09	-4.406623e+00	-1.943605e+02
7.200000e-07	-5.990670e-07	-2.836224e-09	-4.037307e+00	-1.862186e+02
7.300000e-07	-5.440515e-07	-2.707269e-09	-3.666540e+00	-1.780581e+02
7.400000e-07	-4.887498e-07	-2.578318e-09	-3.293843e+00	-1.698560e+02
7.500000e-07	-4.331757e-07	-2.453461e-09	-2.919311e+00	-1.615820e+02
7.600000e-07	-3.774516e-07	-2.327467e-09	-2.543769e+00	-1.532096e+02
7.700000e-07	-3.216128e-07	-2.193892e-09	-2.167453e+00	-1.447252e+02
7.800000e-07	-2.656205e-07	-2.059250e-09	-1.790102e+00	-1.361316e+02
7.900000e-07	-2.095309e-07	-1.927497e-09	-1.412096e+00	-1.274463e+02
8.000000e-07	-1.534027e-07	-1.797063e-09	-1.033831e+00	-1.186940e+02
8.100000e-07	-9.723462e-08	-1.660941e-09	-6.552956e-01	-1.098971e+02
8.200000e-07	-4.102852e-08	-1.523481e-09	-2.765045e-01	-1.010681e+02
8.300000e-07	1.516910e-08	-1.386570e-09	1.022295e-01	-9.220638e+01
8.400000e-07	7.132110e-08	-1.252545e-09	4.806560e-01	-8.329984e+01
8.500000e-07	1.274242e-07	-1.115067e-09	8.587527e-01	-7.433096e+01
8.600000e-07	1.834307e-07	-9.725307e-10	1.236199e+00	-6.528411e+01
8.700000e-07	2.393888e-07	-8.315302e-10	1.613319e+00	-5.615107e+01
8.800000e-07	2.953024e-07	-6.939282e-10	1.990139e+00	-4.693288e+01
8.900000e-07	3.511160e-07	-5.559118e-10	2.366284e+00	-3.763738e+01
9.000000e-07	4.068554e-07	-4.117823e-10	2.741931e+00	-2.827409e+01
9.100000e-07	4.624216e-07	-2.666095e-10	3.116409e+00	-1.884873e+01
9.200000e-07	5.177625e-07	-1.201186e-10	3.489370e+00	-9.359865e+00
9.300000e-07	5.729199e-07	2.810309e-11	3.861093e+00	2.009242e-01
9.400000e-07	6.278649e-07	1.779236e-10	4.231385e+00	9.845562e+00
9.500000e-07	6.826038e-07	3.273425e-10	4.600288e+00	1.958438e+01
9.600000e-07	7.371326e-07	4.756705e-10	4.967776e+00	2.942169e+01
9.700000e-07	7.914336e-07	6.243957e-10	5.333728e+00	3.935400e+01
9.800000e-07	8.454776e-07	7.749459e-10	5.697948e+00	4.937163e+01
9.900000e-07	8.991896e-07	9.302968e-10	6.059930e+00	5.946304e+01
1.000000e-06	9.525230e-07	1.086404e-09	6.419361e+00	6.961988e+01
1.010000e-06	1.005524e-06	1.242952e-09	6.776550e+00	7.984061e+01
1.020000e-06	1.058191e-06	1.400291e-09	7.131492e+00	9.013098e+01
1.030000e-06	1.110471e-06	1.558929e-09	7.483827e+00	1.005011e+02
1.040000e-06	1.162284e-06	1.717839e-09	7.833006e+00	1.109605e+02
1.050000e-06	1.213529e-06	1.877162e-09	8.178363e+00	1.215123e+02
1.060000e-06	1.264065e-06	2.039895e-09	8.518941e+00	1.321505e+02
1.070000e-06	1.313797e-06	2.205311e-09	8.854102e+00	1.428592e+02
1.080000e-06	1.362866e-06	2.370006e-09	9.184798e+00	1.536167e+02
1.090000e-06	1.411490e-06	2.533408e-09	9.512490e+00	1.644000e+02
1.100000e-06	1.459766e-06	2.697587e-09	9.837834e+00	1.751909e+02
1.110000e-06	1.507611e-06	2.863012e-09	1.016028e+01	1.859786e+02
1.120000e-06	1.554953e-06	3.028774e-09	1.047933e+01	1.967605e+02
1.130000e-06	1.601774e-06	3.193109e-09	1.079488e+01	2.075386e+02
1.140000e-06	1.648055e-06	3.357281e-09	1.110678e+01	2.183150e+02
1.150000e-06	1.693754e-06	3.522092e-09	1.141475e+01	2.290871e+02
1.160000e-06	1.738865e-06	3.686507e-09	1.171877e+01	2.398449e+02
1.170000e-06	1.783504e-06	3.849682e-09	1.201961e+01	2.505708e+02
1.180000e-06	1.827705e-06	4.010517e-09	1.231750e+01	2.612421e+02
1.190000e-06	1.871337e-06	4.171148e-09	1.261154e+01	2.718345e+02
1.200000e-06	1.914107e-06	4.332584e-09	1.289979e+01	2.823265e+02
1.210000e-06	1.955863e-06	4.492967e-09	1.318120e+01	2.927010e+02
1.220000e-06	1.996805e-06	4.649773e-09	1.345711e+01	3.029459e+02
1.230000e-06	2.037141e-06	4.803082e-09	1.372895e+01	3.130520e+02
1.240000e-06	2.076866e-06	4.952423e-09	1.399667e+01	3.230107e+02
1.250000e-06	2.115895e-06	5.098480e-09	1.425970e+01	3.328109e+02
1.260000e-06	2.154196e-06	5.243380e-09	1.451783e+01	3.424380e+02
1.270000e-06	2.191733e-06	5.387438e-09	1.477080e+01	3.518733e+02
1.280000e-06	2.228595e-06	5.530402e-09	1.501922e+01	3.610952e+02
1.290000e-06	2.264885e-06	5.667357e-09	1.526380e+01	3.700809e+02
1.300000e-06	2.300411e-06	5.799147e-09	1.550321e+01	3.788083e+02
1.310000e-06	2.334868e-06	5.925886e-09	1.573543e+01	3.872575e+02
1.320000e-06	2.368252e-06	6.047265e-09	1.596042e+01	3.954124e+02
1.330000e-06	2.400793e-06	6.162825e-09	1.617972e+01	4.032614e+02
1.340000e-06	2.432587e-06	6.273156e-09	1.639399e+01	4.107986e+02
1.350000e-06	2.463592e-06	6.382041e-09	1.660294e+01	4.180242e+02
1.360000e-06	2.493773e-06	6.489239e-09	1.680635e+01	4.249447e+02
1.370000e-06	2.523133e-06	6.591614e-09	1.700421e+01	4.315711e+02
1.380000e-06	2.551742e-06	6.687359e-09	1.719702e+01	4.379177e+02
1.390000e-06	2.579559e-06	6.778293e-09	1.738448e+01	4.439987e+02
1.400000e-06	2.606278e-06	6.864474e-09	1.756455e+01	4.498252e+02
1.410000e-06	2.631771e-06	6.945969e-09	1.773636e+01	4.554039e+02
1.420000e-06	2.656288e-06	7.023262e-09	1.790158e+01	4.607366e+02
1.430000e-06	2.679938e-06	7.097298e-09	1.806097e+01	4.658217e+02
1.440000e-06	2.702670e-06	7.169709e-09	1.821417e+01	4.706577e+02
1.450000e-06	2.724471e-06	7.240793e-09	1.836109e+01	4.752453e+02
1.460000e-06	2.745400e-06	7.308121e-09	1.850214e+01	4.795893e+02
1.470000e-06	2.765541e-06	7.369234e-09	1.863787e+01	4.836979e+02
1.480000e-06	2.784765e-06	7.424372e-09	1.876744e+01	4.875795e+02
1.490000e-06	2.803011e-06	7.475912e-09	1.889040e+01	4.912393e+02
1.500000e-06	2.820263e-06	7.524397e-09	1.900667e+01	4.946755e+02
1.510000e-06	2.836482e-06	7.569149e-09	1.911597e+01	4.978790e+02
1.520000e-06	2.851629e-06	7.612764e-09	1.921805e+01	5.008353e+02
1.530000e-06	2.865684e-06	7.654679e-09	1.931277e+01	5.035302e+02
1.540000e-06	2.878690e-06	7.691777e-09	1.940043e+01	5.059558e+02
1.550000e-06	2.890614e-06	7.723113e-09	1.948078e+01	5.081157e+02
1.560000e-06	2.901217e-06	7.749809e-09	1.955224e+01	5.100264e+02
1.570000e-06	2.910542e-06	7.773627e-09	1.961508e+01	5.117146e+02
1.580000e-06	2.918898e-06	7.794816e-09	1.967140e+01	5.132103e+02
1.590000e-06	2.926248e-06	7.813711e-09	1.972093e+01	5.145386e+02
1.600000e-06	2.932547e-06	7.830274e-09	1.976339e+01	5.157132e+02
1.610000e-06	2.937920e-06	7.846337e-09	1.979959e+01	5.167338e+02
1.620000e-06	2.942471e-06	7.862231e-09	1.983027e+01	5.175888e+02
1.630000e-06	2.946044e-06	7.874767e-09	1.985434e+01	5.182625e+02
1.640000e-06	2.948357e-06	7.881212e-09	1.986993e+01	5.187437e+02
1.650000e-06	2.949478e-06	7.883159e-09	1.987749e+01	5.190322e+02
1.660000e-06	2.949628e-06	7.883153e-09	1.987850e+01	5.191405e+02
1.670000e-06	2.948855e-06	7.881326e-09	1.987329e+01	5.190900e+02
1.680000e-06	2.947104e-06	7.879904e-09	1.986149e+01	5.189022e+02
1.690000e-06	2.944422e-06	7.878143e-09	1.984341e+01	5.185894e+02
1.700000e-06	2.940964e-06	7.873895e-09	1.982011e+01	5.181481e+02
1.710000e-06	2.936610e-06	7.867096e-09	1.979077e+01	5.175589e+02
1.720000e-06	2.931089e-06	7.856791e-09	1.975356e+01	5.167931e+02
1.730000e-06	2.924476e-06	7.842406e-09	1.970899e+01	5.158243e+02
1.740000e-06	2.917022e-06	7.804566e-09	1.965876e+01	5.146408e+02
1.750000e-06	2.908451e-06	7.765003e-09	1.960100e+01	5.132546e+02
1.760000e-06	2.898267e-06	7.776847e-09	1.953236e+01	5.117019e+02
1.770000e-06	2.886659e-06	7.803028e-09	1.945413e+01	5.100351e+02
1.780000e-06	2.874535e-06	7.713216e-09	1.937242e+01	5.083089e+02
1.790000e-06	2.862122e-06	7.641042e-09	1.928877e+01	5.065639e+02
1.800000e-06	2.848392e-06	7.676720e-09	1.919623e+01	5.048145e+02
1.810000e-06	2.833100e-06	7.699392e-09	1.909318e+01	5.030441e+02
1.820000e-06	2.817049e-06	7.565370e-09	1.898500e+01	5.012111e+02
1.830000e-06	2.800189e-06	7.547410e-09	1.887138e+01	4.992611e+02
1.840000e-06	2.782050e-06	7.641865e-09	1.874913e+01	4.971435e+02
1.850000e-06	2.763028e-06	7.471867e-09	1.862094e+01	4.948247e+02
1.860000e-06	2.743322e-06	7.378535e-09	1.848814e+01	4.922949e+02
1.870000e-06	2.722316e-06	7.525017e-09	1.834657e+01	4.895660e+02
1.880000e-06	2.699984e-06	7.429166e-09	1.819606e+01	4.866622e+02
1.890000e-06	2.676770e-06	7.265193e-09	1.803962e+01	4.836078e+02
1.900000e-06	2.652574e-06	7.375928e-09	1.787656e+01	4.804169e+02
1.910000e-06	2.627508e-06	7.327890e-09	1.770763e+01	4.770884e+02
1.920000e-06	2.601774e-06	7.148638e-09	1.753420e+01	4.736093e+02
1.930000e-06	2.575172e-06	7.148041e-09	1.735492e+01	4.699621e+02
1.940000e-06	2.547820e-06	7.114556e-09	1.717058e+01	4.661352e+02
1.950000e-06	2.519607e-06	7.017511e-09	1.698045e+01	4.621305e+02
1.960000e-06	2.490060e-06	7.016436e-09	1.678132e+01	4.579640e+02
1.970000e-06	2.459370e-06	6.895001e-09	1.657449e+01	4.536620e+02
1.980000e-06	2.427908e-06	6.821535e-09	1.636246e+01	4.492510e+02
1.990000e-06	2.395596e-06	6.829703e-09	1.614469e+01	4.447489e+02
2.000000e-06	2.362499e-06	6.671394e-09	1.592165e+01	4.401585e+02
2.010000e-06	2.328649e-06	6.613497e-09	1.569352e+01	4.354680e+02
2.020000e-06	2.293995e-06	6.597774e-09	1.545998e+01	4.306572e+02
2.030000e-06	2.258776e-06	6.438290e-09	1.522262e+01	4.257075e+02
2.040000e-06	2.222781e-06	6.412379e-09	1.498004e+01	4.206102e+02
2.050000e-06	2.185687e-06	6.381154e-09	1.473005e+01	4.153722e+02
2.060000e-06	2.147638e-06	6.207016e-09	1.447363e+01	4.100137e+02
2.070000e-06	2.108826e-06	6.158797e-09	1.421206e+01	4.045609e+02
2.080000e-06	2.069409e-06	6.101510e-09	1.394642e+01	3.990362e+02
2.090000e-06	2.029293e-06	5.978321e-09	1.367606e+01	3.934495e+02
2.100000e-06	1.988413e-06	5.906330e-09	1.340056e+01	3.877946e+02
2.110000e-06	1.946958e-06	5.809922e-09	1.312118e+01	3.820525e+02
2.120000e-06	1.904844e-06	5.735878e-09	1.283736e+01	3.761995e+02
2.130000e-06	1.862043e-06	5.658793e-09	1.254891e+01	3.702169e+02
2.140000e-06	1.818739e-06	5.540230e-09	1.225707e+01	3.640993e+02
2.150000e-06	1.774934e-06	5.451147e-09	1.196186e+01	3.578565e+02
2.160000e-06	1.730517e-06	5.353373e-09	1.166252e+01	3.515093e+02
2.170000e-06	1.685346e-06	5.252886e-09	1.135809e+01	3.450811e+02
2.180000e-06	1.639572e-06	5.164705e-09	1.104961e+01	3.385876e+02
2.190000e-06	1.593379e-06	5.061506e-09	1.073829e+01	3.320301e+02
2.200000e-06	1.546742e-06	4.964754e-09	1.042400e+01	3.253949e+02
2.210000e-06	1.499563e-06	4.859509e-09	1.010604e+01	3.186587e+02
2.220000e-06	1.451617e-06	4.754915e-09	9.782916e+00	3.117982e+02
2.230000e-06	1.402939e-06	4.652166e-09	9.454861e+00	3.048000e+02
2.240000e-06	1.353766e-06	4.526632e-09	9.123469e+00	2.976667e+02
2.250000e-06	1.304163e-06	4.430387e-09	8.789175e+00	2.904166e+02
2.260000e-06	1.254077e-06	4.326484e-09	8.451631e+00	2.830768e+02
2.270000e-06	1.203480e-06	4.202205e-09	8.110641e+00	2.756735e+02
2.280000e-06	1.152462e-06	4.092832e-09	7.766817e+00	2.682221e+02
2.290000e-06	1.101115e-06	3.974512e-09	7.420772e+00	2.607219e+02
2.300000e-06	1.049382e-06	3.863328e-09	7.072124e+00	2.531576e+02
2.310000e-06	9.971156e-07	3.744635e-09	6.719885e+00	2.455061e+02
2.320000e-06	9.442096e-07	3.619449e-09	6.363335e+00	2.377479e+02
2.330000e-06	8.907357e-07	3.507390e-09	6.002957e+00	2.298757e+02
2.340000e-06	8.367714e-07	3.390597e-09	5.639274e+00	2.218990e+02
2.350000e-06	7.823765e-07	3.269830e-09	5.272689e+00	2.138421e+02
2.360000e-06	7.276393e-07	3.144755e-09	4.903797e+00	2.057357e+02
2.370000e-06	6.726284e-07	3.016444e-09	4.533061e+00	1.976059e+02
2.380000e-06	6.174433e-07	2.897924e-09	4.161151e+00	1.894650e+02
2.390000e-06	5.621672e-07	2.775142e-09	3.788627e+00	1.813066e+02
2.400000e-06	5.068049e-07	2.648765e-09	3.415522e+00	1.731085e+02
2.410000e-06	4.513390e-07	2.522200e-09	3.041720e+00	1.648407e+02
2.420000e-06	3.957627e-07	2.391773e-09	2.667173e+00	1.564762e+02
2.430000e-06	3.400682e-07	2.268402e-09	2.291830e+00	1.480000e+02
2.440000e-06	2.842617e-07	2.139697e-09	1.915732e+00	1.394138e+02
2.450000e-06	2.283785e-07	2.005549e-09	1.539116e+00	1.307344e+02
2.460000e-06	1.724362e-07	1.871130e-09	1.162103e+00	1.219862e+02
2.470000e-06	1.164257e-07	1.738871e-09	7.846304e-01	1.131920e+02
2.480000e-06	6.036231e-08	1.610569e-09	4.068011e-01	1.043653e+02
2.490000e-06	4.322804e-09	1.474955e-09	2.913278e-02	9.550634e+01
2.500000e-06	-5.169552e-08	1.336482e-09	-3.483928e-01	8.660367e+01
2.510000e-06	-1.077112e-07	1.201048e-09	-7.259006e-01	7.763994e+01
2.520000e-06	-1.636455e-07	1.066881e-09	-1.102860e+00	6.859915e+01
2.530000e-06	-2.195028e-07	9.281043e-10	-1.479301e+00	5.947246e+01
2.540000e-06	-2.753128e-07	7.828539e-10	-1.855422e+00	5.026027e+01
2.550000e-06	-3.310098e-07	6.390084e-10	-2.230782e+00	4.097008e+01
2.560000e-06	-3.865616e-07	4.989173e-10	-2.605164e+00	3.161149e+01
2.570000e-06	-4.419942e-07	3.578233e-10	-2.978742e+00	2.219063e+01
2.580000e-06	-4.973600e-07	2.141338e-10	-3.351870e+00	1.270662e+01
2.590000e-06	-5.526770e-07	6.793941e-11	-3.724669e+00	3.151469e+00
2.600000e-06	-6.079095e-07	-7.929305e-11	-4.096899e+00	-6.486671e+00
2.610000e-06	-6.630305e-07	-2.243677e-10	-4.468377e+00	-1.621841e+01
2.620000e-06	-7.179727e-07	-3.719791e-10	-4.838651e+00	-2.604860e+01
2.630000e-06	-7.726677e-07	-5.238036e-10	-5.207258e+00	-3.597427e+01
2.640000e-06	-8.270120e-07	-6.783702e-10	-5.573502e+00	-4.598608e+01
2.650000e-06	-8.808385e-07	-8.326344e-10	-5.936256e+00	-5.607244e+01
2.660000e-06	-9.340249e-07	-9.881105e-10	-6.294696e+00	-6.622464e+01
2.670000e-06	-9.866068e-07	-1.145758e-09	-6.649063e+00	-7.644058e+01
2.680000e-06	-1.038708e-06	-1.300342e-09	-7.000193e+00	-8.672555e+01
2.690000e-06	-1.090417e-06	-1.454708e-09	-7.348673e+00	-9.708953e+01
2.700000e-06	-1.141764e-06	-1.614050e-09	-7.694716e+00	-1.075422e+02
2.710000e-06	-1.192717e-06	-1.777289e-09	-8.038105e+00	-1.180874e+02
2.720000e-06	-1.243249e-06	-1.940302e-09	-8.378659e+00	-1.287197e+02
2.730000e-06	-1.293277e-06	-2.103883e-09	-8.715813e+00	-1.394240e+02
2.740000e-06	-1.342792e-06	-2.269245e-09	-9.049512e+00	-1.501786e+02
2.750000e-06	-1.391822e-06	-2.434741e-09	-9.379937e+00	-1.609606e+02
2.760000e-06	-1.440173e-06	-2.597161e-09	-9.705789e+00	-1.717513e+02
2.770000e-06	-1.487655e-06	-2.757308e-09	-1.002579e+01	-1.825393e+02
2.780000e-06	-1.534430e-06	-2.919358e-09	-1.034102e+01	-1.933215e+02
2.790000e-06	-1.580679e-06	-3.084283e-09	-1.065270e+01	-2.040997e+02
2.800000e-06	-1.626451e-06	-3.250439e-09	-1.096118e+01	-2.148761e+02
2.810000e-06	-1.671791e-06	-3.415393e-09	-1.126674e+01	-2.256486e+02
2.820000e-06	-1.716590e-06	-3.578769e-09	-1.156865e+01	-2.364078e+02
2.830000e-06	-1.760770e-06	-3.742487e-09	-1.186640e+01	-2.471366e+02
2.840000e-06	-1.804454e-06	-3.906555e-09	-1.216080e+01	-2.578124e+02
2.850000e-06	-1.847736e-06	-4.068354e-09	-1.245249e+01	-2.684111e+02
2.860000e-06	-1.890489e-06	-4.227256e-09	-1.274062e+01	-2.789108e+02
2.870000e-06	-1.932549e-06	-4.384601e-09	-1.302407e+01	-2.892941e+02
2.880000e-06	-1.973942e-06	-4.541627e-09	-1.330304e+01	-2.995484e+02
2.890000e-06	-2.014721e-06	-4.697061e-09	-1.357786e+01	-3.096646e+02
2.900000e-06	-2.054824e-06	-4.849528e-09	-1.384813e+01	-3.196340e+02
2.910000e-06	-2.094338e-06	-5.000465e-09	-1.411442e+01	-3.294459e+02
2.920000e-06	-2.133255e-06	-5.148907e-09	-1.437670e+01	-3.390858e+02
2.930000e-06	-2.171303e-06	-5.294193e-09	-1.463312e+01	-3.485353e+02
2.940000e-06	-2.208282e-06	-5.436097e-09	-1.488233e+01	-3.577731e+02
