# Temperatura_=_25.45
# Concentracion g/m^3_=_18700.0
# C_Vs_to_Am_M_A/Vsm_=_65563218390.804596
# pendiente_HvsI_1/m_=_3716.3
# ordenada_HvsI_A/m_=_1297.0
# frecuencia_Hz_=_301074.29699907586

Tiempo_(s)	Campo_(V.s)	Magnetizacion_(V.s)	Campo_(kA/m)	Magnetizacion_(A/m)
0.000000e+00	-2.933299e-06	-7.792747e-09	-1.977666e+01	-5.085884e+02
1.000000e-08	-2.932861e-06	-7.795842e-09	-1.977370e+01	-5.086042e+02
2.000000e-08	-2.931670e-06	-7.794741e-09	-1.976567e+01	-5.084528e+02
3.000000e-08	-2.929350e-06	-7.788944e-09	-1.975004e+01	-5.081377e+02
4.000000e-08	-2.925790e-06	-7.782113e-09	-1.972603e+01	-5.076616e+02
5.000000e-08	-2.921336e-06	-7.772833e-09	-1.969600e+01	-5.070263e+02
6.000000e-08	-2.916092e-06	-7.757077e-09	-1.966064e+01	-5.062322e+02
7.000000e-08	-2.909899e-06	-7.724386e-09	-1.961889e+01	-5.052789e+02
8.000000e-08	-2.902681e-06	-7.695168e-09	-1.957022e+01	-5.041660e+02
9.000000e-08	-2.894378e-06	-7.744853e-09	-1.951425e+01	-5.028947e+02
1.000000e-07	-2.884689e-06	-7.791323e-09	-1.944893e+01	-5.014693e+02
1.100000e-07	-2.873444e-06	-7.689796e-09	-1.937310e+01	-4.998995e+02
1.200000e-07	-2.861181e-06	-7.489045e-09	-1.929043e+01	-4.982013e+02
1.300000e-07	-2.848237e-06	-7.542558e-09	-1.920316e+01	-4.963970e+02
1.400000e-07	-2.834289e-06	-7.743835e-09	-1.910912e+01	-4.945117e+02
1.500000e-07	-2.819174e-06	-7.510647e-09	-1.900722e+01	-4.925687e+02
1.600000e-07	-2.803006e-06	-7.386013e-09	-1.889820e+01	-4.905825e+02
1.700000e-07	-2.785589e-06	-7.600510e-09	-1.878078e+01	-4.885528e+02
1.800000e-07	-2.766992e-06	-7.523117e-09	-1.865539e+01	-4.864609e+02
1.900000e-07	-2.747637e-06	-7.294987e-09	-1.852490e+01	-4.842713e+02
2.000000e-07	-2.727564e-06	-7.401811e-09	-1.838957e+01	-4.819377e+02
2.100000e-07	-2.706528e-06	-7.413827e-09	-1.824774e+01	-4.794134e+02
2.200000e-07	-2.684597e-06	-7.137624e-09	-1.809987e+01	-4.766633e+02
2.300000e-07	-2.661933e-06	-7.230706e-09	-1.794707e+01	-4.736724e+02
2.400000e-07	-2.638346e-06	-7.338768e-09	-1.778805e+01	-4.704494e+02
2.500000e-07	-2.613912e-06	-7.073710e-09	-1.762331e+01	-4.670234e+02
2.600000e-07	-2.588620e-06	-6.993419e-09	-1.745279e+01	-4.634338e+02
2.700000e-07	-2.562068e-06	-7.062919e-09	-1.727378e+01	-4.597179e+02
2.800000e-07	-2.534305e-06	-6.949802e-09	-1.708659e+01	-4.558993e+02
2.900000e-07	-2.505760e-06	-6.902210e-09	-1.689414e+01	-4.519819e+02
3.000000e-07	-2.476390e-06	-6.816162e-09	-1.669612e+01	-4.479517e+02
3.100000e-07	-2.446145e-06	-6.746557e-09	-1.649221e+01	-4.437846e+02
3.200000e-07	-2.415191e-06	-6.763837e-09	-1.628351e+01	-4.394586e+02
3.300000e-07	-2.383475e-06	-6.640516e-09	-1.606968e+01	-4.349646e+02
3.400000e-07	-2.351083e-06	-6.514535e-09	-1.585129e+01	-4.303122e+02
3.500000e-07	-2.317974e-06	-6.504753e-09	-1.562806e+01	-4.255270e+02
3.600000e-07	-2.283844e-06	-6.417732e-09	-1.539795e+01	-4.206426e+02
3.700000e-07	-2.248553e-06	-6.324208e-09	-1.516002e+01	-4.156872e+02
3.800000e-07	-2.212338e-06	-6.315542e-09	-1.491585e+01	-4.106738e+02
3.900000e-07	-2.175449e-06	-6.164156e-09	-1.466714e+01	-4.055943e+02
4.000000e-07	-2.137856e-06	-6.067210e-09	-1.441368e+01	-4.004233e+02
4.100000e-07	-2.099522e-06	-6.064448e-09	-1.415523e+01	-3.951281e+02
4.200000e-07	-2.060398e-06	-5.959736e-09	-1.389145e+01	-3.896823e+02
4.300000e-07	-2.020531e-06	-5.822649e-09	-1.362266e+01	-3.840768e+02
4.400000e-07	-1.980135e-06	-5.762855e-09	-1.335031e+01	-3.783247e+02
4.500000e-07	-1.939243e-06	-5.699152e-09	-1.307461e+01	-3.724574e+02
4.600000e-07	-1.897606e-06	-5.600285e-09	-1.279389e+01	-3.665127e+02
4.700000e-07	-1.854963e-06	-5.495989e-09	-1.250638e+01	-3.605214e+02
4.800000e-07	-1.811340e-06	-5.380050e-09	-1.221227e+01	-3.544948e+02
4.900000e-07	-1.767048e-06	-5.304556e-09	-1.191365e+01	-3.484210e+02
5.000000e-07	-1.722304e-06	-5.231981e-09	-1.161198e+01	-3.422693e+02
5.100000e-07	-1.677039e-06	-5.136682e-09	-1.130680e+01	-3.360025e+02
5.200000e-07	-1.631152e-06	-5.015858e-09	-1.099742e+01	-3.295914e+02
5.300000e-07	-1.584675e-06	-4.919574e-09	-1.068407e+01	-3.230264e+02
5.400000e-07	-1.537652e-06	-4.827907e-09	-1.036703e+01	-3.163210e+02
5.500000e-07	-1.490065e-06	-4.724757e-09	-1.004620e+01	-3.095068e+02
5.600000e-07	-1.441962e-06	-4.611888e-09	-9.721881e+00	-3.026204e+02
5.700000e-07	-1.393460e-06	-4.493151e-09	-9.394878e+00	-2.956893e+02
5.800000e-07	-1.344524e-06	-4.406572e-09	-9.064946e+00	-2.887207e+02
5.900000e-07	-1.294944e-06	-4.309664e-09	-8.730667e+00	-2.816990e+02
6.000000e-07	-1.244564e-06	-4.187709e-09	-8.390999e+00	-2.745921e+02
6.100000e-07	-1.193366e-06	-4.061293e-09	-8.045819e+00	-2.673655e+02
6.200000e-07	-1.141528e-06	-3.959552e-09	-7.696321e+00	-2.599959e+02
6.300000e-07	-1.089309e-06	-3.856380e-09	-7.344252e+00	-2.524825e+02
6.400000e-07	-1.036825e-06	-3.735517e-09	-6.990397e+00	-2.448477e+02
6.500000e-07	-9.840383e-07	-3.605330e-09	-6.634505e+00	-2.371303e+02
6.600000e-07	-9.308433e-07	-3.484412e-09	-6.275858e+00	-2.293710e+02
6.700000e-07	-8.772630e-07	-3.379712e-09	-5.914613e+00	-2.215984e+02
6.800000e-07	-8.234078e-07	-3.262772e-09	-5.551515e+00	-2.138194e+02
6.900000e-07	-7.692872e-07	-3.135888e-09	-5.186628e+00	-2.060179e+02
7.000000e-07	-7.149215e-07	-3.007397e-09	-4.820087e+00	-1.981635e+02
7.100000e-07	-6.603377e-07	-2.893298e-09	-4.452077e+00	-1.902245e+02
7.200000e-07	-6.055811e-07	-2.773064e-09	-4.082901e+00	-1.821815e+02
7.300000e-07	-5.506705e-07	-2.639238e-09	-3.712687e+00	-1.740355e+02
7.400000e-07	-4.954800e-07	-2.504243e-09	-3.340586e+00	-1.658063e+02
7.500000e-07	-4.399706e-07	-2.380464e-09	-2.966335e+00	-1.575239e+02
7.600000e-07	-3.842560e-07	-2.267054e-09	-2.590701e+00	-1.492149e+02
7.700000e-07	-3.284626e-07	-2.141765e-09	-2.214535e+00	-1.408900e+02
7.800000e-07	-2.725597e-07	-2.005346e-09	-1.837631e+00	-1.325388e+02
7.900000e-07	-2.165276e-07	-1.869733e-09	-1.459855e+00	-1.241329e+02
8.000000e-07	-1.604483e-07	-1.744969e-09	-1.081762e+00	-1.156368e+02
8.100000e-07	-1.043214e-07	-1.614861e-09	-7.033474e-01	-1.070226e+02
8.200000e-07	-4.818141e-08	-1.476191e-09	-3.248449e-01	-9.828188e+01
8.300000e-07	7.992453e-09	-1.336704e-09	5.388608e-02	-8.942994e+01
8.400000e-07	6.417991e-08	-1.205179e-09	4.327087e-01	-8.050058e+01
8.500000e-07	1.203088e-07	-1.076194e-09	8.111363e-01	-7.153340e+01
8.600000e-07	1.763995e-07	-9.360992e-10	1.189307e+00	-6.255831e+01
8.700000e-07	2.324736e-07	-7.909636e-10	1.567365e+00	-5.358345e+01
8.800000e-07	2.884702e-07	-6.507103e-10	1.944901e+00	-4.459140e+01
8.900000e-07	3.443334e-07	-5.190464e-10	2.321537e+00	-3.554517e+01
9.000000e-07	4.000508e-07	-3.818988e-10	2.697191e+00	-2.640177e+01
9.100000e-07	4.555716e-07	-2.376808e-10	3.071519e+00	-1.712813e+01
9.200000e-07	5.109217e-07	-9.153330e-11	3.444696e+00	-7.713119e+00
9.300000e-07	5.660710e-07	5.321087e-11	3.816519e+00	1.828806e+00
9.400000e-07	6.209750e-07	1.990362e-10	4.186689e+00	1.146375e+01
9.500000e-07	6.756585e-07	3.496140e-10	4.555371e+00	2.115173e+01
9.600000e-07	7.301345e-07	4.994631e-10	4.922655e+00	3.086205e+01
9.700000e-07	7.844241e-07	6.460411e-10	5.288682e+00	4.058458e+01
9.800000e-07	8.385016e-07	7.891944e-10	5.653279e+00	5.033286e+01
9.900000e-07	8.922668e-07	9.380408e-10	6.015771e+00	6.013784e+01
1.000000e-06	9.456682e-07	1.091278e-09	6.375810e+00	7.003512e+01
1.010000e-06	9.987286e-07	1.245243e-09	6.733549e+00	8.005062e+01
1.020000e-06	1.051416e-06	1.399343e-09	7.088773e+00	9.019037e+01
1.030000e-06	1.103695e-06	1.555784e-09	7.441243e+00	1.004381e+02
1.040000e-06	1.155546e-06	1.715123e-09	7.790833e+00	1.107615e+02
1.050000e-06	1.206887e-06	1.872388e-09	8.136977e+00	1.211237e+02
1.060000e-06	1.257520e-06	2.028228e-09	8.478353e+00	1.314963e+02
1.070000e-06	1.307357e-06	2.185846e-09	8.814360e+00	1.418678e+02
1.080000e-06	1.356590e-06	2.346321e-09	9.146294e+00	1.522446e+02
1.090000e-06	1.405345e-06	2.505329e-09	9.475009e+00	1.626451e+02
1.100000e-06	1.453680e-06	2.664316e-09	9.800886e+00	1.730888e+02
1.110000e-06	1.501599e-06	2.825474e-09	1.012396e+01	1.835853e+02
1.120000e-06	1.548981e-06	2.987818e-09	1.044342e+01	1.941280e+02
1.130000e-06	1.595795e-06	3.149918e-09	1.075904e+01	2.046942e+02
1.140000e-06	1.642091e-06	3.309322e-09	1.107118e+01	2.152515e+02
1.150000e-06	1.687806e-06	3.468302e-09	1.137939e+01	2.257678e+02
1.160000e-06	1.732909e-06	3.627522e-09	1.168348e+01	2.362204e+02
1.170000e-06	1.777574e-06	3.786083e-09	1.198462e+01	2.466004e+02
1.180000e-06	1.821931e-06	3.942472e-09	1.228368e+01	2.569113e+02
1.190000e-06	1.865732e-06	4.098793e-09	1.257899e+01	2.671615e+02
1.200000e-06	1.908580e-06	4.255113e-09	1.286787e+01	2.773558e+02
1.210000e-06	1.950354e-06	4.411489e-09	1.314952e+01	2.874871e+02
1.220000e-06	1.991290e-06	4.565625e-09	1.342552e+01	2.975339e+02
1.230000e-06	2.031653e-06	4.714805e-09	1.369765e+01	3.074628e+02
1.240000e-06	2.071442e-06	4.860934e-09	1.396591e+01	3.172359e+02
1.250000e-06	2.110531e-06	5.004575e-09	1.422946e+01	3.268194e+02
1.260000e-06	2.148928e-06	5.147197e-09	1.448833e+01	3.361898e+02
1.270000e-06	2.186554e-06	5.286077e-09	1.474201e+01	3.453364e+02
1.280000e-06	2.223438e-06	5.422330e-09	1.499069e+01	3.542575e+02
1.290000e-06	2.259823e-06	5.555069e-09	1.523600e+01	3.629542e+02
1.300000e-06	2.295504e-06	5.683915e-09	1.547657e+01	3.714239e+02
1.310000e-06	2.330012e-06	5.806143e-09	1.570922e+01	3.796556e+02
1.320000e-06	2.363367e-06	5.923022e-09	1.593410e+01	3.876305e+02
1.330000e-06	2.395930e-06	6.036805e-09	1.615365e+01	3.953268e+02
1.340000e-06	2.427757e-06	6.147241e-09	1.636823e+01	4.027263e+02
1.350000e-06	2.458823e-06	6.254213e-09	1.657768e+01	4.098209e+02
1.360000e-06	2.489135e-06	6.356656e-09	1.678205e+01	4.166158e+02
1.370000e-06	2.518567e-06	6.456514e-09	1.698048e+01	4.231272e+02
1.380000e-06	2.547265e-06	6.552114e-09	1.717397e+01	4.293774e+02
1.390000e-06	2.575287e-06	6.642935e-09	1.736290e+01	4.353871e+02
1.400000e-06	2.602219e-06	6.728081e-09	1.754448e+01	4.411690e+02
1.410000e-06	2.627838e-06	6.810022e-09	1.771720e+01	4.467256e+02
1.420000e-06	2.652421e-06	6.889525e-09	1.788294e+01	4.520499e+02
1.430000e-06	2.676105e-06	6.964478e-09	1.804262e+01	4.571309e+02
1.440000e-06	2.698851e-06	7.035448e-09	1.819598e+01	4.619594e+02
1.450000e-06	2.720676e-06	7.103674e-09	1.834312e+01	4.665327e+02
1.460000e-06	2.741684e-06	7.169371e-09	1.848477e+01	4.708563e+02
1.470000e-06	2.761996e-06	7.231279e-09	1.862171e+01	4.749414e+02
1.480000e-06	2.781416e-06	7.289256e-09	1.875264e+01	4.787999e+02
1.490000e-06	2.799771e-06	7.341463e-09	1.887639e+01	4.824396e+02
1.500000e-06	2.817194e-06	7.388341e-09	1.899386e+01	4.858607e+02
1.510000e-06	2.833618e-06	7.432998e-09	1.910459e+01	4.890554e+02
1.520000e-06	2.848864e-06	7.477172e-09	1.920739e+01	4.920111e+02
1.530000e-06	2.863024e-06	7.517961e-09	1.930286e+01	4.947163e+02
1.540000e-06	2.876184e-06	7.552425e-09	1.939158e+01	4.971651e+02
1.550000e-06	2.888285e-06	7.584184e-09	1.947317e+01	4.993612e+02
1.560000e-06	2.899061e-06	7.614174e-09	1.954582e+01	5.013182e+02
1.570000e-06	2.908465e-06	7.640702e-09	1.960922e+01	5.030562e+02
1.580000e-06	2.916837e-06	7.662297e-09	1.966567e+01	5.045974e+02
1.590000e-06	2.924297e-06	7.680772e-09	1.971596e+01	5.059614e+02
1.600000e-06	2.930789e-06	7.698509e-09	1.975973e+01	5.071611e+02
1.610000e-06	2.936304e-06	7.713966e-09	1.979692e+01	5.082023e+02
1.620000e-06	2.940956e-06	7.725566e-09	1.982828e+01	5.090842e+02
1.630000e-06	2.944634e-06	7.735050e-09	1.985308e+01	5.098026e+02
1.640000e-06	2.946986e-06	7.744045e-09	1.986894e+01	5.103523e+02
1.650000e-06	2.948147e-06	7.751324e-09	1.987676e+01	5.107302e+02
1.660000e-06	2.948404e-06	7.756312e-09	1.987850e+01	5.109355e+02
1.670000e-06	2.947772e-06	7.757698e-09	1.987424e+01	5.109700e+02
1.680000e-06	2.946163e-06	7.754408e-09	1.986339e+01	5.108369e+02
1.690000e-06	2.943639e-06	7.749111e-09	1.984637e+01	5.105397e+02
1.700000e-06	2.940394e-06	7.742286e-09	1.982449e+01	5.100814e+02
1.710000e-06	2.936327e-06	7.731164e-09	1.979707e+01	5.094636e+02
1.720000e-06	2.931028e-06	7.722633e-09	1.976134e+01	5.086871e+02
1.730000e-06	2.924524e-06	7.740047e-09	1.971750e+01	5.077514e+02
1.740000e-06	2.917222e-06	7.709771e-09	1.966827e+01	5.066562e+02
1.750000e-06	2.908951e-06	7.594928e-09	1.961250e+01	5.054023e+02
1.760000e-06	2.899046e-06	7.537500e-09	1.954572e+01	5.039936e+02
1.770000e-06	2.887448e-06	7.713936e-09	1.946752e+01	5.024392e+02
1.780000e-06	2.875193e-06	7.732823e-09	1.938490e+01	5.007544e+02
1.790000e-06	2.862914e-06	7.503193e-09	1.930212e+01	4.989608e+02
1.800000e-06	2.849525e-06	7.444662e-09	1.921184e+01	4.970835e+02
1.810000e-06	2.834231e-06	7.643529e-09	1.910873e+01	4.951463e+02
1.820000e-06	2.818056e-06	7.531859e-09	1.899967e+01	4.931651e+02
1.830000e-06	2.801428e-06	7.289092e-09	1.888757e+01	4.911411e+02
1.840000e-06	2.783538e-06	7.535031e-09	1.876695e+01	4.890579e+02
1.850000e-06	2.764512e-06	7.529028e-09	1.863867e+01	4.868815e+02
1.860000e-06	2.744912e-06	7.184444e-09	1.850653e+01	4.845661e+02
1.870000e-06	2.724187e-06	7.355123e-09	1.836680e+01	4.820648e+02
1.880000e-06	2.701997e-06	7.461697e-09	1.821719e+01	4.793406e+02
1.890000e-06	2.678888e-06	7.100877e-09	1.806139e+01	4.763760e+02
1.900000e-06	2.654829e-06	7.146073e-09	1.789918e+01	4.731774e+02
1.910000e-06	2.629828e-06	7.301722e-09	1.773062e+01	4.697719e+02
1.920000e-06	2.604214e-06	7.098280e-09	1.755793e+01	4.661985e+02
1.930000e-06	2.577760e-06	7.008410e-09	1.737957e+01	4.624952e+02
1.940000e-06	2.550487e-06	7.024001e-09	1.719569e+01	4.586876e+02
1.950000e-06	2.522500e-06	6.902030e-09	1.700700e+01	4.547818e+02
1.960000e-06	2.493219e-06	6.921525e-09	1.680959e+01	4.507653e+02
1.970000e-06	2.462615e-06	6.811982e-09	1.660325e+01	4.466146e+02
1.980000e-06	2.431242e-06	6.651737e-09	1.639173e+01	4.423069e+02
1.990000e-06	2.399090e-06	6.757568e-09	1.617496e+01	4.378314e+02
2.000000e-06	2.366150e-06	6.629041e-09	1.595287e+01	4.331955e+02
2.010000e-06	2.332433e-06	6.469003e-09	1.572555e+01	4.284236e+02
2.020000e-06	2.297841e-06	6.521975e-09	1.549232e+01	4.235487e+02
2.030000e-06	2.262660e-06	6.356158e-09	1.525513e+01	4.186006e+02
2.040000e-06	2.226832e-06	6.252022e-09	1.501357e+01	4.135940e+02
2.050000e-06	2.189890e-06	6.308472e-09	1.476450e+01	4.085231e+02
2.060000e-06	2.151902e-06	6.138308e-09	1.450838e+01	4.033640e+02
2.070000e-06	2.113106e-06	6.032903e-09	1.424682e+01	3.980842e+02
2.080000e-06	2.073656e-06	6.018653e-09	1.398084e+01	3.926558e+02
2.090000e-06	2.033625e-06	5.901458e-09	1.371095e+01	3.870677e+02
2.100000e-06	1.992905e-06	5.821277e-09	1.343641e+01	3.813307e+02
2.110000e-06	1.951558e-06	5.710838e-09	1.315764e+01	3.754745e+02
2.120000e-06	1.909496e-06	5.622293e-09	1.287405e+01	3.695370e+02
2.130000e-06	1.866715e-06	5.578765e-09	1.258562e+01	3.635502e+02
2.140000e-06	1.823486e-06	5.462732e-09	1.229417e+01	3.575281e+02
2.150000e-06	1.779815e-06	5.353954e-09	1.199973e+01	3.514612e+02
2.160000e-06	1.735537e-06	5.258842e-09	1.170120e+01	3.453202e+02
2.170000e-06	1.690500e-06	5.167773e-09	1.139756e+01	3.390680e+02
2.180000e-06	1.644790e-06	5.086345e-09	1.108938e+01	3.326738e+02
2.190000e-06	1.598628e-06	4.975466e-09	1.077814e+01	3.261255e+02
2.200000e-06	1.551959e-06	4.871885e-09	1.046349e+01	3.194344e+02
2.210000e-06	1.504826e-06	4.771960e-09	1.014572e+01	3.126306e+02
2.220000e-06	1.457030e-06	4.664799e-09	9.823476e+00	3.057510e+02
2.230000e-06	1.408411e-06	4.570630e-09	9.495678e+00	2.988245e+02
2.240000e-06	1.359314e-06	4.437354e-09	9.164660e+00	2.918608e+02
2.250000e-06	1.309823e-06	4.335231e-09	8.830987e+00	2.848467e+02
2.260000e-06	1.259898e-06	4.255091e-09	8.494385e+00	2.777513e+02
2.270000e-06	1.209466e-06	4.132377e-09	8.154367e+00	2.705394e+02
2.280000e-06	1.158501e-06	4.016435e-09	7.810756e+00	2.631862e+02
2.290000e-06	1.107153e-06	3.894615e-09	7.464559e+00	2.556881e+02
2.300000e-06	1.055435e-06	3.787842e-09	7.115867e+00	2.480652e+02
2.310000e-06	1.003253e-06	3.681007e-09	6.764054e+00	2.403551e+02
2.320000e-06	9.505016e-07	3.550226e-09	6.408397e+00	2.325992e+02
2.330000e-06	8.971248e-07	3.430515e-09	6.048524e+00	2.248279e+02
2.340000e-06	8.432430e-07	3.316358e-09	5.685246e+00	2.170505e+02
2.350000e-06	7.889202e-07	3.199688e-09	5.318996e+00	2.092533e+02
2.360000e-06	7.342162e-07	3.079099e-09	4.950175e+00	2.014067e+02
2.370000e-06	6.792860e-07	2.953168e-09	4.579828e+00	1.934785e+02
2.380000e-06	6.241786e-07	2.840052e-09	4.208288e+00	1.854477e+02
2.390000e-06	5.689273e-07	2.726153e-09	3.835777e+00	1.773126e+02
2.400000e-06	5.135883e-07	2.599369e-09	3.462675e+00	1.690915e+02
2.410000e-06	4.581622e-07	2.468886e-09	3.088985e+00	1.608139e+02
2.420000e-06	4.026322e-07	2.334168e-09	2.714595e+00	1.525074e+02
2.430000e-06	3.469789e-07	2.211664e-09	2.339374e+00	1.441849e+02
2.440000e-06	2.912031e-07	2.089953e-09	1.963326e+00	1.358382e+02
2.450000e-06	2.353371e-07	1.961054e-09	1.586671e+00	1.274404e+02
2.460000e-06	1.794543e-07	1.832440e-09	1.209903e+00	1.189561e+02
2.470000e-06	1.235645e-07	1.702209e-09	8.330866e-01	1.103559e+02
2.480000e-06	6.758622e-08	1.575514e-09	4.556745e-01	1.016290e+02
2.490000e-06	1.155029e-08	1.439696e-09	7.787346e-02	9.278818e+01
2.500000e-06	-4.447078e-08	1.298090e-09	-2.998274e-01	8.386576e+01
2.510000e-06	-1.004604e-07	1.161847e-09	-6.773164e-01	7.490147e+01
2.520000e-06	-1.563855e-07	1.029553e-09	-1.054370e+00	6.592694e+01
2.530000e-06	-2.122545e-07	8.945549e-10	-1.431046e+00	5.695302e+01
2.540000e-06	-2.680835e-07	7.526323e-10	-1.807451e+00	4.796489e+01
2.550000e-06	-3.237977e-07	6.122154e-10	-2.183084e+00	3.892711e+01
2.560000e-06	-3.793713e-07	4.779564e-10	-2.557767e+00	2.979656e+01
2.570000e-06	-4.348528e-07	3.414953e-10	-2.931830e+00	2.053842e+01
2.580000e-06	-4.902674e-07	1.977178e-10	-3.305442e+00	1.113886e+01
2.590000e-06	-5.456138e-07	5.157621e-11	-3.678595e+00	1.609720e+00
2.600000e-06	-6.008595e-07	-9.728379e-11	-4.051067e+00	-8.016631e+00
2.610000e-06	-6.559788e-07	-2.459907e-10	-4.422688e+00	-1.770012e+01
2.620000e-06	-7.109409e-07	-3.949158e-10	-4.793249e+00	-2.740840e+01
2.630000e-06	-7.656302e-07	-5.433399e-10	-5.161971e+00	-3.712881e+01
2.640000e-06	-8.199662e-07	-6.907504e-10	-5.528311e+00	-4.687249e+01
2.650000e-06	-8.738406e-07	-8.386376e-10	-5.891539e+00	-5.666909e+01
2.660000e-06	-9.271026e-07	-9.881456e-10	-6.250638e+00	-6.655441e+01
2.670000e-06	-9.797821e-07	-1.143013e-09	-6.605810e+00	-7.655599e+01
2.680000e-06	-1.031997e-06	-1.300271e-09	-6.957851e+00	-8.668227e+01
2.690000e-06	-1.083753e-06	-1.457307e-09	-7.306794e+00	-9.691924e+01
2.700000e-06	-1.135084e-06	-1.613860e-09	-7.652877e+00	-1.072357e+02
2.710000e-06	-1.186070e-06	-1.771442e-09	-7.996629e+00	-1.175948e+02
2.720000e-06	-1.236618e-06	-1.928485e-09	-8.337427e+00	-1.279667e+02
2.730000e-06	-1.286680e-06	-2.084617e-09	-8.674953e+00	-1.383377e+02
2.740000e-06	-1.336319e-06	-2.240932e-09	-9.009623e+00	-1.487126e+02
2.750000e-06	-1.385464e-06	-2.399622e-09	-9.340964e+00	-1.591090e+02
2.760000e-06	-1.433915e-06	-2.560868e-09	-9.667631e+00	-1.695468e+02
2.770000e-06	-1.481521e-06	-2.722408e-09	-9.988597e+00	-1.800370e+02
2.780000e-06	-1.528328e-06	-2.884239e-09	-1.030417e+01	-1.905751e+02
2.790000e-06	-1.574509e-06	-3.044537e-09	-1.061553e+01	-2.011397e+02
2.800000e-06	-1.620287e-06	-3.204469e-09	-1.092417e+01	-2.116990e+02
2.810000e-06	-1.665694e-06	-3.364015e-09	-1.123031e+01	-2.222205e+02
2.820000e-06	-1.710605e-06	-3.522839e-09	-1.153310e+01	-2.326800e+02
2.830000e-06	-1.754942e-06	-3.679587e-09	-1.183203e+01	-2.430673e+02
2.840000e-06	-1.798721e-06	-3.836964e-09	-1.212719e+01	-2.533845e+02
2.850000e-06	-1.842067e-06	-3.997190e-09	-1.241944e+01	-2.636403e+02
2.860000e-06	-1.884852e-06	-4.155927e-09	-1.270790e+01	-2.738401e+02
2.870000e-06	-1.926958e-06	-4.309847e-09	-1.299178e+01	-2.839784e+02
2.880000e-06	-1.968471e-06	-4.460828e-09	-1.327167e+01	-2.940351e+02
2.890000e-06	-2.009256e-06	-4.612732e-09	-1.354665e+01	-3.039779e+02
2.900000e-06	-2.049371e-06	-4.762765e-09	-1.381711e+01	-3.137689e+02
2.910000e-06	-2.088980e-06	-4.908392e-09	-1.408415e+01	-3.233735e+02
2.920000e-06	-2.127938e-06	-5.051568e-09	-1.434681e+01	-3.327669e+02
2.930000e-06	-2.166007e-06	-5.195017e-09	-1.460348e+01	-3.419371e+02
2.940000e-06	-2.203029e-06	-5.336394e-09	-1.485309e+01	-3.508817e+02
