# Temperatura_=_26.84
# Concentracion g/m^3_=_18700.0
# C_Vs_to_Am_M_A/Vsm_=_65563218390.804596
# pendiente_HvsI_1/m_=_3716.3
# ordenada_HvsI_A/m_=_1297.0
# frecuencia_Hz_=_301074.18730994296

Tiempo_(s)	Campo_(V.s)	Magnetizacion_(V.s)	Campo_(kA/m)	Magnetizacion_(A/m)
0.000000e+00	-2.932118e-06	-7.842748e-09	-1.977387e+01	-5.123062e+02
1.000000e-08	-2.931669e-06	-7.846223e-09	-1.977084e+01	-5.123041e+02
2.000000e-08	-2.930401e-06	-7.848678e-09	-1.976229e+01	-5.121499e+02
3.000000e-08	-2.928007e-06	-7.844614e-09	-1.974614e+01	-5.118500e+02
4.000000e-08	-2.924406e-06	-7.835844e-09	-1.972186e+01	-5.114036e+02
5.000000e-08	-2.919917e-06	-7.824334e-09	-1.969159e+01	-5.108009e+02
6.000000e-08	-2.914590e-06	-7.808999e-09	-1.965566e+01	-5.100253e+02
7.000000e-08	-2.908276e-06	-7.783484e-09	-1.961308e+01	-5.090593e+02
8.000000e-08	-2.900999e-06	-7.763425e-09	-1.956400e+01	-5.078930e+02
9.000000e-08	-2.892648e-06	-7.779474e-09	-1.950769e+01	-5.065318e+02
1.000000e-07	-2.882883e-06	-7.802975e-09	-1.944183e+01	-5.050002e+02
1.100000e-07	-2.871661e-06	-7.732820e-09	-1.936615e+01	-5.033393e+02
1.200000e-07	-2.859450e-06	-7.616057e-09	-1.928380e+01	-5.015988e+02
1.300000e-07	-2.846474e-06	-7.611350e-09	-1.919630e+01	-4.998243e+02
1.400000e-07	-2.832515e-06	-7.688914e-09	-1.910216e+01	-4.980441e+02
1.500000e-07	-2.817477e-06	-7.602113e-09	-1.900074e+01	-4.962607e+02
1.600000e-07	-2.801345e-06	-7.499728e-09	-1.889195e+01	-4.944481e+02
1.700000e-07	-2.783959e-06	-7.586199e-09	-1.877470e+01	-4.925580e+02
1.800000e-07	-2.765418e-06	-7.554047e-09	-1.864967e+01	-4.905325e+02
1.900000e-07	-2.746076e-06	-7.423844e-09	-1.851923e+01	-4.883187e+02
2.000000e-07	-2.725994e-06	-7.434004e-09	-1.838379e+01	-4.858819e+02
2.100000e-07	-2.704991e-06	-7.406415e-09	-1.824215e+01	-4.832125e+02
2.200000e-07	-2.683097e-06	-7.266097e-09	-1.809450e+01	-4.803246e+02
2.300000e-07	-2.660382e-06	-7.274428e-09	-1.794131e+01	-4.772478e+02
2.400000e-07	-2.636756e-06	-7.307856e-09	-1.778198e+01	-4.740148e+02
2.500000e-07	-2.612287e-06	-7.166877e-09	-1.761696e+01	-4.706494e+02
2.600000e-07	-2.586955e-06	-7.073615e-09	-1.744613e+01	-4.671597e+02
2.700000e-07	-2.560388e-06	-7.076118e-09	-1.726696e+01	-4.635372e+02
2.800000e-07	-2.532624e-06	-7.009632e-09	-1.707973e+01	-4.597632e+02
2.900000e-07	-2.504021e-06	-6.943708e-09	-1.688683e+01	-4.558184e+02
3.000000e-07	-2.474600e-06	-6.881060e-09	-1.668842e+01	-4.516926e+02
3.100000e-07	-2.444368e-06	-6.803280e-09	-1.648454e+01	-4.473905e+02
3.200000e-07	-2.413411e-06	-6.782727e-09	-1.627577e+01	-4.429316e+02
3.300000e-07	-2.381674e-06	-6.698550e-09	-1.606174e+01	-4.383440e+02
3.400000e-07	-2.349215e-06	-6.575863e-09	-1.584284e+01	-4.336553e+02
3.500000e-07	-2.316085e-06	-6.525588e-09	-1.561941e+01	-4.288842e+02
3.600000e-07	-2.281954e-06	-6.472170e-09	-1.538924e+01	-4.240351e+02
3.700000e-07	-2.246629e-06	-6.389485e-09	-1.515101e+01	-4.190987e+02
3.800000e-07	-2.210398e-06	-6.329931e-09	-1.490667e+01	-4.140578e+02
3.900000e-07	-2.173554e-06	-6.234521e-09	-1.465820e+01	-4.088954e+02
4.000000e-07	-2.136050e-06	-6.133889e-09	-1.440528e+01	-4.036027e+02
4.100000e-07	-2.097730e-06	-6.084572e-09	-1.414685e+01	-3.981831e+02
4.200000e-07	-2.058595e-06	-5.998473e-09	-1.388293e+01	-3.926509e+02
4.300000e-07	-2.018749e-06	-5.882110e-09	-1.361421e+01	-3.870261e+02
4.400000e-07	-1.978353e-06	-5.802321e-09	-1.334178e+01	-3.813263e+02
4.500000e-07	-1.937451e-06	-5.738048e-09	-1.306595e+01	-3.755600e+02
4.600000e-07	-1.895795e-06	-5.647456e-09	-1.278502e+01	-3.697235e+02
4.700000e-07	-1.853099e-06	-5.547717e-09	-1.249709e+01	-3.638021e+02
4.800000e-07	-1.809446e-06	-5.445138e-09	-1.220270e+01	-3.577765e+02
4.900000e-07	-1.765181e-06	-5.350740e-09	-1.190418e+01	-3.516301e+02
5.000000e-07	-1.720486e-06	-5.268535e-09	-1.160276e+01	-3.453552e+02
5.100000e-07	-1.675220e-06	-5.171059e-09	-1.129749e+01	-3.389560e+02
5.200000e-07	-1.629311e-06	-5.060409e-09	-1.098789e+01	-3.324461e+02
5.300000e-07	-1.582826e-06	-4.962337e-09	-1.067439e+01	-3.258433e+02
5.400000e-07	-1.535722e-06	-4.874441e-09	-1.035673e+01	-3.191621e+02
5.500000e-07	-1.488073e-06	-4.769360e-09	-1.003539e+01	-3.124088e+02
5.600000e-07	-1.439990e-06	-4.655481e-09	-9.711131e+00	-3.055785e+02
5.700000e-07	-1.391510e-06	-4.543954e-09	-9.384188e+00	-2.986583e+02
5.800000e-07	-1.342589e-06	-4.445583e-09	-9.054266e+00	-2.916326e+02
5.900000e-07	-1.292997e-06	-4.347714e-09	-8.719822e+00	-2.844896e+02
6.000000e-07	-1.242626e-06	-4.233158e-09	-8.380131e+00	-2.772267e+02
6.100000e-07	-1.191557e-06	-4.115549e-09	-8.035727e+00	-2.698512e+02
6.200000e-07	-1.139891e-06	-4.003348e-09	-7.687293e+00	-2.623789e+02
6.300000e-07	-1.087775e-06	-3.891087e-09	-7.335827e+00	-2.548275e+02
6.400000e-07	-1.035339e-06	-3.769583e-09	-6.982207e+00	-2.472115e+02
6.500000e-07	-9.825675e-07	-3.646724e-09	-6.626323e+00	-2.395373e+02
6.600000e-07	-9.293904e-07	-3.529097e-09	-6.267703e+00	-2.318029e+02
6.700000e-07	-8.758326e-07	-3.419007e-09	-5.906515e+00	-2.239999e+02
6.800000e-07	-8.219136e-07	-3.303394e-09	-5.542892e+00	-2.161190e+02
6.900000e-07	-7.677137e-07	-3.175623e-09	-5.177373e+00	-2.081554e+02
7.000000e-07	-7.133461e-07	-3.046437e-09	-4.810725e+00	-2.001117e+02
7.100000e-07	-6.587830e-07	-2.922564e-09	-4.442757e+00	-1.919981e+02
7.200000e-07	-6.040316e-07	-2.798145e-09	-4.073520e+00	-1.838288e+02
7.300000e-07	-5.490909e-07	-2.666356e-09	-3.703006e+00	-1.756170e+02
7.400000e-07	-4.939189e-07	-2.538202e-09	-3.330932e+00	-1.673690e+02
7.500000e-07	-4.385535e-07	-2.417570e-09	-2.957555e+00	-1.590817e+02
7.600000e-07	-3.829592e-07	-2.298719e-09	-2.582633e+00	-1.507432e+02
7.700000e-07	-3.271512e-07	-2.169474e-09	-2.206270e+00	-1.423361e+02
7.800000e-07	-2.712284e-07	-2.030851e-09	-1.829133e+00	-1.338439e+02
7.900000e-07	-2.152042e-07	-1.893385e-09	-1.451312e+00	-1.252565e+02
8.000000e-07	-1.591024e-07	-1.761757e-09	-1.072968e+00	-1.165736e+02
8.100000e-07	-1.029682e-07	-1.631904e-09	-6.944055e-01	-1.078051e+02
8.200000e-07	-4.684072e-08	-1.497738e-09	-3.158885e-01	-9.896751e+01
8.300000e-07	9.246793e-09	-1.362695e-09	6.235931e-02	-9.007880e+01
8.400000e-07	6.530025e-08	-1.228139e-09	4.403774e-01	-8.115267e+01
8.500000e-07	1.213841e-07	-1.091113e-09	8.186003e-01	-7.219444e+01
8.600000e-07	1.774643e-07	-9.473600e-10	1.196799e+00	-6.319993e+01
8.700000e-07	2.334996e-07	-8.019468e-10	1.574694e+00	-5.415724e+01
8.800000e-07	2.894616e-07	-6.645356e-10	1.952096e+00	-4.505076e+01
8.900000e-07	3.452810e-07	-5.333476e-10	2.328536e+00	-3.586587e+01
9.000000e-07	4.009642e-07	-3.962095e-10	2.704057e+00	-2.659267e+01
9.100000e-07	4.564653e-07	-2.497282e-10	3.078350e+00	-1.722790e+01
9.200000e-07	5.117887e-07	-1.015343e-10	3.451445e+00	-7.774499e+00
9.300000e-07	5.669371e-07	4.602080e-11	3.823359e+00	1.760569e+00
9.400000e-07	6.218784e-07	1.958260e-10	4.193877e+00	1.136929e+01
9.500000e-07	6.766018e-07	3.479979e-10	4.562925e+00	2.104530e+01
9.600000e-07	7.311287e-07	4.968313e-10	4.930648e+00	3.078561e+01
9.700000e-07	7.854549e-07	6.411172e-10	5.297018e+00	4.059092e+01
9.800000e-07	8.395488e-07	7.867004e-10	5.661821e+00	5.046480e+01
9.900000e-07	8.932974e-07	9.378095e-10	6.024296e+00	6.041224e+01
1.000000e-06	9.465995e-07	1.093928e-09	6.383759e+00	7.043802e+01
1.010000e-06	9.995346e-07	1.251076e-09	6.740747e+00	8.054542e+01
1.020000e-06	1.052174e-06	1.407830e-09	7.095740e+00	9.073530e+01
1.030000e-06	1.104476e-06	1.564446e-09	7.448457e+00	1.010057e+02
1.040000e-06	1.156334e-06	1.721963e-09	7.798184e+00	1.113519e+02
1.050000e-06	1.207625e-06	1.879257e-09	8.144088e+00	1.217660e+02
1.060000e-06	1.258158e-06	2.035610e-09	8.484871e+00	1.322383e+02
1.070000e-06	1.307932e-06	2.193638e-09	8.820544e+00	1.427571e+02
1.080000e-06	1.357107e-06	2.356355e-09	9.152173e+00	1.533101e+02
1.090000e-06	1.405812e-06	2.521886e-09	9.480638e+00	1.638857e+02
1.100000e-06	1.454162e-06	2.686496e-09	9.806699e+00	1.744739e+02
1.110000e-06	1.502105e-06	2.849821e-09	1.013002e+01	1.850667e+02
1.120000e-06	1.549488e-06	3.012176e-09	1.044957e+01	1.956587e+02
1.130000e-06	1.596293e-06	3.172864e-09	1.076522e+01	2.062457e+02
1.140000e-06	1.642511e-06	3.331440e-09	1.107690e+01	2.168241e+02
1.150000e-06	1.688144e-06	3.489683e-09	1.138465e+01	2.273887e+02
1.160000e-06	1.733253e-06	3.650059e-09	1.168886e+01	2.379318e+02
1.170000e-06	1.777908e-06	3.811691e-09	1.199001e+01	2.484430e+02
1.180000e-06	1.822206e-06	3.972543e-09	1.228875e+01	2.589086e+02
1.190000e-06	1.865904e-06	4.133586e-09	1.258344e+01	2.693130e+02
1.200000e-06	1.908669e-06	4.293308e-09	1.287185e+01	2.796396e+02
1.210000e-06	1.950400e-06	4.448637e-09	1.315327e+01	2.898715e+02
1.220000e-06	1.991301e-06	4.599598e-09	1.342910e+01	2.999922e+02
1.230000e-06	2.031658e-06	4.748609e-09	1.370127e+01	3.099852e+02
1.240000e-06	2.071412e-06	4.897178e-09	1.396936e+01	3.198338e+02
1.250000e-06	2.110457e-06	5.045023e-09	1.423268e+01	3.295202e+02
1.260000e-06	2.148793e-06	5.191957e-09	1.449122e+01	3.390254e+02
1.270000e-06	2.186356e-06	5.335961e-09	1.474454e+01	3.483296e+02
1.280000e-06	2.223247e-06	5.475396e-09	1.499332e+01	3.574127e+02
1.290000e-06	2.259582e-06	5.609650e-09	1.523837e+01	3.662559e+02
1.300000e-06	2.295176e-06	5.737916e-09	1.547841e+01	3.748423e+02
1.310000e-06	2.329684e-06	5.860414e-09	1.571112e+01	3.831584e+02
1.320000e-06	2.363067e-06	5.979720e-09	1.593625e+01	3.911939e+02
1.330000e-06	2.395583e-06	6.098106e-09	1.615554e+01	3.989427e+02
1.340000e-06	2.427394e-06	6.212233e-09	1.637007e+01	4.064021e+02
1.350000e-06	2.458453e-06	6.319548e-09	1.657953e+01	4.135728e+02
1.360000e-06	2.488667e-06	6.421218e-09	1.678328e+01	4.204584e+02
1.370000e-06	2.518064e-06	6.519873e-09	1.698154e+01	4.270649e+02
1.380000e-06	2.546716e-06	6.615907e-09	1.717476e+01	4.334003e+02
1.390000e-06	2.574616e-06	6.707367e-09	1.736292e+01	4.394728e+02
1.400000e-06	2.601487e-06	6.794820e-09	1.754413e+01	4.452905e+02
1.410000e-06	2.627147e-06	6.878651e-09	1.771718e+01	4.508597e+02
1.420000e-06	2.651771e-06	6.958823e-09	1.788324e+01	4.561849e+02
1.430000e-06	2.675490e-06	7.034174e-09	1.804320e+01	4.612682e+02
1.440000e-06	2.698315e-06	7.105159e-09	1.819713e+01	4.661103e+02
1.450000e-06	2.720249e-06	7.173515e-09	1.834505e+01	4.707117e+02
1.460000e-06	2.741347e-06	7.239683e-09	1.848733e+01	4.750734e+02
1.470000e-06	2.761669e-06	7.302503e-09	1.862438e+01	4.791974e+02
1.480000e-06	2.781083e-06	7.359795e-09	1.875531e+01	4.830866e+02
1.490000e-06	2.799455e-06	7.412137e-09	1.887921e+01	4.867431e+02
1.500000e-06	2.816819e-06	7.461043e-09	1.899630e+01	4.901671e+02
1.510000e-06	2.833189e-06	7.506809e-09	1.910670e+01	4.933561e+02
1.520000e-06	2.848462e-06	7.550349e-09	1.920970e+01	4.963050e+02
1.530000e-06	2.862609e-06	7.590822e-09	1.930511e+01	4.990077e+02
1.540000e-06	2.875708e-06	7.625645e-09	1.939344e+01	5.014599e+02
1.550000e-06	2.887716e-06	7.656261e-09	1.947442e+01	5.036621e+02
1.560000e-06	2.898444e-06	7.684804e-09	1.954678e+01	5.056218e+02
1.570000e-06	2.907870e-06	7.711329e-09	1.961034e+01	5.073531e+02
1.580000e-06	2.916248e-06	7.733808e-09	1.966684e+01	5.088751e+02
1.590000e-06	2.923677e-06	7.752452e-09	1.971694e+01	5.102081e+02
1.600000e-06	2.930064e-06	7.769521e-09	1.976002e+01	5.113687e+02
1.610000e-06	2.935487e-06	7.785705e-09	1.979659e+01	5.123675e+02
1.620000e-06	2.940104e-06	7.799795e-09	1.982772e+01	5.132072e+02
1.630000e-06	2.943784e-06	7.809667e-09	1.985254e+01	5.138849e+02
1.640000e-06	2.946221e-06	7.815899e-09	1.986898e+01	5.143953e+02
1.650000e-06	2.947433e-06	7.820465e-09	1.987715e+01	5.147353e+02
1.660000e-06	2.947633e-06	7.823816e-09	1.987850e+01	5.149067e+02
1.670000e-06	2.946916e-06	7.825296e-09	1.987366e+01	5.149163e+02
1.680000e-06	2.945273e-06	7.824881e-09	1.986258e+01	5.147731e+02
1.690000e-06	2.942707e-06	7.821775e-09	1.984528e+01	5.144839e+02
1.700000e-06	2.939352e-06	7.815111e-09	1.982266e+01	5.140487e+02
1.710000e-06	2.935129e-06	7.805061e-09	1.979418e+01	5.134581e+02
1.720000e-06	2.929743e-06	7.796712e-09	1.975785e+01	5.126960e+02
1.730000e-06	2.923201e-06	7.799131e-09	1.971374e+01	5.117445e+02
1.740000e-06	2.915793e-06	7.769706e-09	1.966377e+01	5.105930e+02
1.750000e-06	2.907414e-06	7.694922e-09	1.960727e+01	5.092456e+02
1.760000e-06	2.897488e-06	7.653448e-09	1.954033e+01	5.077253e+02
1.770000e-06	2.885949e-06	7.721909e-09	1.946251e+01	5.060725e+02
1.780000e-06	2.873744e-06	7.754697e-09	1.938020e+01	5.043365e+02
1.790000e-06	2.861377e-06	7.614625e-09	1.929680e+01	5.025637e+02
1.800000e-06	2.847920e-06	7.552060e-09	1.920604e+01	5.007840e+02
1.810000e-06	2.832788e-06	7.631407e-09	1.910400e+01	4.990018e+02
1.820000e-06	2.816714e-06	7.588800e-09	1.899560e+01	4.971931e+02
1.830000e-06	2.800024e-06	7.461390e-09	1.888304e+01	4.953109e+02
1.840000e-06	2.782133e-06	7.511564e-09	1.876238e+01	4.932974e+02
1.850000e-06	2.763123e-06	7.525489e-09	1.863419e+01	4.910989e+02
1.860000e-06	2.743404e-06	7.366999e-09	1.850120e+01	4.886792e+02
1.870000e-06	2.722573e-06	7.393692e-09	1.836072e+01	4.860266e+02
1.880000e-06	2.700396e-06	7.440062e-09	1.821116e+01	4.831539e+02
1.890000e-06	2.677258e-06	7.256286e-09	1.805512e+01	4.800899e+02
1.900000e-06	2.653235e-06	7.220133e-09	1.789312e+01	4.768675e+02
1.910000e-06	2.628305e-06	7.288568e-09	1.772499e+01	4.735116e+02
1.920000e-06	2.602666e-06	7.178937e-09	1.755208e+01	4.700313e+02
1.930000e-06	2.576237e-06	7.102652e-09	1.737384e+01	4.664193e+02
1.940000e-06	2.549009e-06	7.071074e-09	1.719023e+01	4.626573e+02
1.950000e-06	2.521014e-06	6.984897e-09	1.700143e+01	4.587256e+02
1.960000e-06	2.491809e-06	6.956004e-09	1.680447e+01	4.546132e+02
1.970000e-06	2.461286e-06	6.877809e-09	1.659863e+01	4.503237e+02
1.980000e-06	2.429863e-06	6.745674e-09	1.638672e+01	4.458756e+02
1.990000e-06	2.397669e-06	6.754622e-09	1.616961e+01	4.412966e+02
2.000000e-06	2.364702e-06	6.700968e-09	1.594728e+01	4.366148e+02
2.010000e-06	2.330953e-06	6.555316e-09	1.571968e+01	4.318498e+02
2.020000e-06	2.296412e-06	6.520828e-09	1.548674e+01	4.270068e+02
2.030000e-06	2.261237e-06	6.441559e-09	1.524952e+01	4.220777e+02
2.040000e-06	2.225303e-06	6.333469e-09	1.500719e+01	4.170453e+02
2.050000e-06	2.188331e-06	6.303227e-09	1.475785e+01	4.118925e+02
2.060000e-06	2.150343e-06	6.204945e-09	1.450167e+01	4.066096e+02
2.070000e-06	2.111536e-06	6.091467e-09	1.423996e+01	4.011991e+02
2.080000e-06	2.072087e-06	6.042273e-09	1.397392e+01	3.956747e+02
2.090000e-06	2.032022e-06	5.958702e-09	1.370373e+01	3.900563e+02
2.100000e-06	1.991238e-06	5.860679e-09	1.342868e+01	3.843619e+02
2.110000e-06	1.949809e-06	5.768165e-09	1.314929e+01	3.786009e+02
2.120000e-06	1.907784e-06	5.675725e-09	1.286588e+01	3.727702e+02
2.130000e-06	1.865125e-06	5.603971e-09	1.257819e+01	3.668559e+02
2.140000e-06	1.821936e-06	5.513021e-09	1.228693e+01	3.608388e+02
2.150000e-06	1.778256e-06	5.406640e-09	1.199235e+01	3.547019e+02
2.160000e-06	1.733968e-06	5.307707e-09	1.169368e+01	3.484367e+02
2.170000e-06	1.688934e-06	5.220286e-09	1.138998e+01	3.420464e+02
2.180000e-06	1.643261e-06	5.126767e-09	1.108196e+01	3.355443e+02
2.190000e-06	1.597099e-06	5.013785e-09	1.077065e+01	3.289480e+02
2.200000e-06	1.550455e-06	4.910997e-09	1.045609e+01	3.222726e+02
2.210000e-06	1.503291e-06	4.817606e-09	1.013802e+01	3.155249e+02
2.220000e-06	1.455424e-06	4.716313e-09	9.815216e+00	3.087009e+02
2.230000e-06	1.406816e-06	4.610163e-09	9.487406e+00	3.017881e+02
2.240000e-06	1.357678e-06	4.491362e-09	9.156028e+00	2.947709e+02
2.250000e-06	1.308148e-06	4.377552e-09	8.822001e+00	2.876369e+02
2.260000e-06	1.258180e-06	4.278791e-09	8.485023e+00	2.803828e+02
2.270000e-06	1.207680e-06	4.166789e-09	8.144458e+00	2.730155e+02
2.280000e-06	1.156730e-06	4.051693e-09	7.800857e+00	2.655499e+02
2.290000e-06	1.105410e-06	3.938504e-09	7.454759e+00	2.580040e+02
2.300000e-06	1.053683e-06	3.823559e-09	7.105915e+00	2.503928e+02
2.310000e-06	1.001483e-06	3.708160e-09	6.753885e+00	2.427232e+02
2.320000e-06	9.487429e-07	3.584317e-09	6.398213e+00	2.349938e+02
2.330000e-06	8.954276e-07	3.462205e-09	6.038661e+00	2.271964e+02
2.340000e-06	8.415974e-07	3.345495e-09	5.675637e+00	2.193218e+02
2.350000e-06	7.873459e-07	3.230885e-09	5.309771e+00	2.113646e+02
2.360000e-06	7.326682e-07	3.110557e-09	4.941030e+00	2.033268e+02
2.370000e-06	6.776866e-07	2.983770e-09	4.570241e+00	1.952181e+02
2.380000e-06	6.225640e-07	2.861865e-09	4.198500e+00	1.870529e+02
2.390000e-06	5.673543e-07	2.741968e-09	3.826172e+00	1.788442e+02
2.400000e-06	5.120552e-07	2.615681e-09	3.453242e+00	1.705992e+02
2.410000e-06	4.566492e-07	2.484891e-09	3.079590e+00	1.623155e+02
2.420000e-06	4.011463e-07	2.355336e-09	2.705285e+00	1.539816e+02
2.430000e-06	3.455223e-07	2.229908e-09	2.330163e+00	1.455804e+02
2.440000e-06	2.897782e-07	2.103843e-09	1.954231e+00	1.370952e+02
2.450000e-06	2.339287e-07	1.971920e-09	1.577589e+00	1.285152e+02
2.460000e-06	1.779779e-07	1.838971e-09	1.200262e+00	1.198394e+02
2.470000e-06	1.219685e-07	1.705627e-09	8.225419e-01	1.110770e+02
2.480000e-06	6.592856e-08	1.573036e-09	4.446147e-01	1.022441e+02
2.490000e-06	9.859324e-09	1.439338e-09	6.649015e-02	9.335900e+01
2.500000e-06	-4.616621e-08	1.302204e-09	-3.113396e-01	8.443571e+01
2.510000e-06	-1.021147e-07	1.165662e-09	-6.886499e-01	7.548025e+01
2.520000e-06	-1.580512e-07	1.029667e-09	-1.065879e+00	6.648911e+01
2.530000e-06	-2.139261e-07	8.920241e-10	-1.442693e+00	5.745081e+01
2.540000e-06	-2.696721e-07	7.496538e-10	-1.818638e+00	4.834987e+01
2.550000e-06	-3.252915e-07	6.071037e-10	-2.193729e+00	3.917142e+01
2.560000e-06	-3.808437e-07	4.685241e-10	-2.568366e+00	2.990518e+01
2.570000e-06	-4.363319e-07	3.306903e-10	-2.942573e+00	2.054737e+01
2.580000e-06	-4.917143e-07	1.883360e-10	-3.316065e+00	1.110055e+01
2.590000e-06	-5.470037e-07	4.146512e-11	-3.688930e+00	1.571495e+00
2.600000e-06	-6.022015e-07	-1.057666e-10	-4.061178e+00	-8.031751e+00
2.610000e-06	-6.573020e-07	-2.526988e-10	-4.432769e+00	-1.770265e+01
2.620000e-06	-7.122260e-07	-4.005049e-10	-4.803170e+00	-2.743794e+01
2.630000e-06	-7.668904e-07	-5.501991e-10	-5.171821e+00	-3.723806e+01
2.640000e-06	-8.212300e-07	-7.000688e-10	-5.538281e+00	-4.710643e+01
2.650000e-06	-8.751153e-07	-8.494664e-10	-5.901678e+00	-5.704799e+01
2.660000e-06	-9.283927e-07	-1.001941e-09	-6.260974e+00	-6.706759e+01
2.670000e-06	-9.809978e-07	-1.159344e-09	-6.615737e+00	-7.716865e+01
2.680000e-06	-1.033052e-06	-1.317793e-09	-6.966786e+00	-8.735222e+01
2.690000e-06	-1.084703e-06	-1.474810e-09	-7.315112e+00	-9.761657e+01
2.700000e-06	-1.136008e-06	-1.631599e-09	-7.661105e+00	-1.079571e+02
2.710000e-06	-1.186974e-06	-1.790101e-09	-8.004816e+00	-1.183662e+02
2.720000e-06	-1.237529e-06	-1.950731e-09	-8.345752e+00	-1.288343e+02
2.730000e-06	-1.287595e-06	-2.109946e-09	-8.683391e+00	-1.393497e+02
2.740000e-06	-1.337173e-06	-2.268038e-09	-9.017742e+00	-1.499002e+02
2.750000e-06	-1.386241e-06	-2.429103e-09	-9.348649e+00	-1.604741e+02
2.760000e-06	-1.434700e-06	-2.592787e-09	-9.675452e+00	-1.710612e+02
2.770000e-06	-1.482373e-06	-2.754081e-09	-9.996956e+00	-1.816535e+02
2.780000e-06	-1.529129e-06	-2.912694e-09	-1.031227e+01	-1.922452e+02
2.790000e-06	-1.575204e-06	-3.073112e-09	-1.062299e+01	-2.028323e+02
2.800000e-06	-1.620894e-06	-3.236170e-09	-1.093112e+01	-2.134109e+02
2.810000e-06	-1.666213e-06	-3.398970e-09	-1.123675e+01	-2.239762e+02
2.820000e-06	-1.711042e-06	-3.558603e-09	-1.153907e+01	-2.345208e+02
2.830000e-06	-1.755273e-06	-3.716919e-09	-1.183736e+01	-2.450342e+02
2.840000e-06	-1.798972e-06	-3.877149e-09	-1.213206e+01	-2.555031e+02
2.850000e-06	-1.842241e-06	-4.039203e-09	-1.242386e+01	-2.659120e+02
2.860000e-06	-1.885004e-06	-4.197853e-09	-1.271225e+01	-2.762442e+02
2.870000e-06	-1.927170e-06	-4.351676e-09	-1.299661e+01	-2.864830e+02
2.880000e-06	-1.968702e-06	-4.505107e-09	-1.327670e+01	-2.966117e+02
2.890000e-06	-2.009534e-06	-4.659945e-09	-1.355207e+01	-3.066140e+02
2.900000e-06	-2.049637e-06	-4.812344e-09	-1.382251e+01	-3.164730e+02
2.910000e-06	-2.089150e-06	-4.958501e-09	-1.408899e+01	-3.261712e+02
2.920000e-06	-2.128084e-06	-5.101774e-09	-1.435155e+01	-3.356895e+02
2.930000e-06	-2.166160e-06	-5.246342e-09	-1.460833e+01	-3.450083e+02
2.940000e-06	-2.203194e-06	-5.389235e-09	-1.485809e+01	-3.541074e+02
