# Temperatura_=_25.26
# Concentracion g/m^3_=_18700.0
# C_Vs_to_Am_M_A/Vsm_=_65563218390.804596
# pendiente_HvsI_1/m_=_3716.3
# ordenada_HvsI_A/m_=_1297.0
# frecuencia_Hz_=_301075.8091190566

Tiempo_(s)	Campo_(V.s)	Magnetizacion_(V.s)	Campo_(kA/m)	Magnetizacion_(A/m)
0.000000e+00	-2.932945e-06	-7.794655e-09	-1.977442e+01	-5.088119e+02
1.000000e-08	-2.932430e-06	-7.797558e-09	-1.977095e+01	-5.087787e+02
2.000000e-08	-2.931104e-06	-7.796755e-09	-1.976201e+01	-5.086197e+02
3.000000e-08	-2.928511e-06	-7.790963e-09	-1.974453e+01	-5.083334e+02
4.000000e-08	-2.924645e-06	-7.784060e-09	-1.971846e+01	-5.079024e+02
5.000000e-08	-2.919980e-06	-7.775001e-09	-1.968701e+01	-5.072986e+02
6.000000e-08	-2.914526e-06	-7.760697e-09	-1.965024e+01	-5.064938e+02
7.000000e-08	-2.908114e-06	-7.736783e-09	-1.960701e+01	-5.054709e+02
8.000000e-08	-2.900644e-06	-7.718739e-09	-1.955665e+01	-5.042333e+02
9.000000e-08	-2.892107e-06	-7.731719e-09	-1.949909e+01	-5.028070e+02
1.000000e-07	-2.882204e-06	-7.738422e-09	-1.943232e+01	-5.012365e+02
1.100000e-07	-2.870739e-06	-7.665227e-09	-1.935502e+01	-4.995737e+02
1.200000e-07	-2.858321e-06	-7.567293e-09	-1.927130e+01	-4.978644e+02
1.300000e-07	-2.845208e-06	-7.576499e-09	-1.918289e+01	-4.961365e+02
1.400000e-07	-2.831065e-06	-7.631303e-09	-1.908753e+01	-4.943932e+02
1.500000e-07	-2.815786e-06	-7.535229e-09	-1.898452e+01	-4.926139e+02
1.600000e-07	-2.799355e-06	-7.472604e-09	-1.887374e+01	-4.907607e+02
1.700000e-07	-2.781737e-06	-7.536219e-09	-1.875495e+01	-4.887890e+02
1.800000e-07	-2.763065e-06	-7.479178e-09	-1.862907e+01	-4.866588e+02
1.900000e-07	-2.743601e-06	-7.385909e-09	-1.849784e+01	-4.843413e+02
2.000000e-07	-2.723378e-06	-7.396328e-09	-1.836149e+01	-4.818228e+02
2.100000e-07	-2.702208e-06	-7.336986e-09	-1.821875e+01	-4.791024e+02
2.200000e-07	-2.680177e-06	-7.223042e-09	-1.807021e+01	-4.761878e+02
2.300000e-07	-2.657334e-06	-7.249327e-09	-1.791621e+01	-4.730903e+02
2.400000e-07	-2.633553e-06	-7.228932e-09	-1.775587e+01	-4.698208e+02
2.500000e-07	-2.608974e-06	-7.094504e-09	-1.759016e+01	-4.663887e+02
2.600000e-07	-2.583484e-06	-7.042496e-09	-1.741830e+01	-4.628024e+02
2.700000e-07	-2.556710e-06	-7.016840e-09	-1.723778e+01	-4.590698e+02
2.800000e-07	-2.528799e-06	-6.952162e-09	-1.704960e+01	-4.551989e+02
2.900000e-07	-2.500075e-06	-6.906913e-09	-1.685594e+01	-4.511970e+02
3.000000e-07	-2.470515e-06	-6.797431e-09	-1.665664e+01	-4.470690e+02
3.100000e-07	-2.440140e-06	-6.726796e-09	-1.645184e+01	-4.428157e+02
3.200000e-07	-2.409029e-06	-6.740257e-09	-1.624209e+01	-4.384339e+02
3.300000e-07	-2.377150e-06	-6.623667e-09	-1.602716e+01	-4.339181e+02
3.400000e-07	-2.344610e-06	-6.503534e-09	-1.580777e+01	-4.292643e+02
3.500000e-07	-2.311356e-06	-6.496475e-09	-1.558356e+01	-4.244733e+02
3.600000e-07	-2.277004e-06	-6.416396e-09	-1.535196e+01	-4.195532e+02
3.700000e-07	-2.241444e-06	-6.307688e-09	-1.511220e+01	-4.145187e+02
3.800000e-07	-2.205070e-06	-6.271074e-09	-1.486697e+01	-4.093878e+02
3.900000e-07	-2.168123e-06	-6.159000e-09	-1.461786e+01	-4.041761e+02
4.000000e-07	-2.130442e-06	-6.048023e-09	-1.436381e+01	-3.988922e+02
4.100000e-07	-2.091969e-06	-6.022105e-09	-1.410441e+01	-3.935345e+02
4.200000e-07	-2.052663e-06	-5.935987e-09	-1.383941e+01	-3.880923e+02
4.300000e-07	-2.012605e-06	-5.811599e-09	-1.356933e+01	-3.825506e+02
4.400000e-07	-1.972074e-06	-5.742972e-09	-1.329607e+01	-3.768963e+02
4.500000e-07	-1.931059e-06	-5.673324e-09	-1.301953e+01	-3.711237e+02
4.600000e-07	-1.889284e-06	-5.569416e-09	-1.273788e+01	-3.652375e+02
4.700000e-07	-1.846476e-06	-5.466948e-09	-1.244926e+01	-3.592511e+02
4.800000e-07	-1.802664e-06	-5.365662e-09	-1.215387e+01	-3.531807e+02
4.900000e-07	-1.758237e-06	-5.284427e-09	-1.185434e+01	-3.470388e+02
5.000000e-07	-1.713426e-06	-5.204205e-09	-1.155222e+01	-3.408278e+02
5.100000e-07	-1.668065e-06	-5.096121e-09	-1.124639e+01	-3.345389e+02
5.200000e-07	-1.622048e-06	-4.989633e-09	-1.093613e+01	-3.281540e+02
5.300000e-07	-1.575490e-06	-4.899025e-09	-1.062222e+01	-3.216532e+02
5.400000e-07	-1.528345e-06	-4.797714e-09	-1.030436e+01	-3.150223e+02
5.500000e-07	-1.480580e-06	-4.692970e-09	-9.982325e+00	-3.082590e+02
5.600000e-07	-1.432415e-06	-4.591167e-09	-9.657588e+00	-3.013739e+02
5.700000e-07	-1.383894e-06	-4.477632e-09	-9.330452e+00	-2.943872e+02
5.800000e-07	-1.334891e-06	-4.377483e-09	-9.000064e+00	-2.873208e+02
5.900000e-07	-1.285218e-06	-4.277075e-09	-8.665160e+00	-2.801899e+02
6.000000e-07	-1.234785e-06	-4.154697e-09	-8.325131e+00	-2.729975e+02
6.100000e-07	-1.183597e-06	-4.035601e-09	-7.980016e+00	-2.657334e+02
6.200000e-07	-1.131745e-06	-3.932828e-09	-7.630418e+00	-2.583793e+02
6.300000e-07	-1.079502e-06	-3.823093e-09	-7.278187e+00	-2.509167e+02
6.400000e-07	-1.026981e-06	-3.701059e-09	-6.924086e+00	-2.433359e+02
6.500000e-07	-9.741220e-07	-3.580027e-09	-6.567699e+00	-2.356412e+02
6.600000e-07	-9.208383e-07	-3.464626e-09	-6.208451e+00	-2.278509e+02
6.700000e-07	-8.671857e-07	-3.351975e-09	-5.846716e+00	-2.199916e+02
6.800000e-07	-8.132366e-07	-3.229315e-09	-5.482982e+00	-2.120893e+02
6.900000e-07	-7.590144e-07	-3.100540e-09	-5.117406e+00	-2.041605e+02
7.000000e-07	-7.045790e-07	-2.976682e-09	-4.750394e+00	-1.962074e+02
7.100000e-07	-6.499516e-07	-2.858184e-09	-4.382086e+00	-1.882179e+02
7.200000e-07	-5.951649e-07	-2.733929e-09	-4.012705e+00	-1.801718e+02
7.300000e-07	-5.401834e-07	-2.604352e-09	-3.642010e+00	-1.720494e+02
7.400000e-07	-4.849664e-07	-2.478174e-09	-3.269727e+00	-1.638392e+02
7.500000e-07	-4.295007e-07	-2.357578e-09	-2.895768e+00	-1.555420e+02
7.600000e-07	-3.738015e-07	-2.236940e-09	-2.520234e+00	-1.471693e+02
7.700000e-07	-3.179353e-07	-2.105393e-09	-2.143575e+00	-1.387370e+02
7.800000e-07	-2.619783e-07	-1.967655e-09	-1.766303e+00	-1.302576e+02
7.900000e-07	-2.059912e-07	-1.834262e-09	-1.388828e+00	-1.217337e+02
8.000000e-07	-1.499101e-07	-1.704740e-09	-1.010720e+00	-1.131561e+02
8.100000e-07	-9.374061e-08	-1.572051e-09	-6.320154e-01	-1.045077e+02
8.200000e-07	-3.755238e-08	-1.436595e-09	-2.531847e-01	-9.577119e+01
8.300000e-07	1.863371e-08	-1.304331e-09	1.256317e-01	-8.693749e+01
8.400000e-07	7.480890e-08	-1.175230e-09	5.043745e-01	-7.801110e+01
8.500000e-07	1.309331e-07	-1.041814e-09	8.827738e-01	-6.901003e+01
8.600000e-07	1.869733e-07	-8.978492e-10	1.260606e+00	-5.995977e+01
8.700000e-07	2.429597e-07	-7.514870e-10	1.638076e+00	-5.088359e+01
8.800000e-07	2.988947e-07	-6.122973e-10	2.015200e+00	-4.179283e+01
8.900000e-07	3.547009e-07	-4.762279e-10	2.391455e+00	-3.268136e+01
9.000000e-07	4.103672e-07	-3.358349e-10	2.766767e+00	-2.352642e+01
9.100000e-07	4.659212e-07	-1.947054e-10	3.141321e+00	-1.429591e+01
9.200000e-07	5.212522e-07	-5.604710e-11	3.514372e+00	-4.959534e+00
9.300000e-07	5.763192e-07	8.528003e-11	3.885644e+00	4.500510e+00
9.400000e-07	6.311755e-07	2.322708e-10	4.255494e+00	1.408330e+01
9.500000e-07	6.858536e-07	3.846807e-10	4.624144e+00	2.376991e+01
9.600000e-07	7.403602e-07	5.375674e-10	4.991637e+00	3.353070e+01
9.700000e-07	7.946713e-07	6.862219e-10	5.357812e+00	4.333655e+01
9.800000e-07	8.486839e-07	8.328533e-10	5.721974e+00	5.316944e+01
9.900000e-07	9.023337e-07	9.816558e-10	6.083690e+00	6.302864e+01
1.000000e-06	9.556554e-07	1.131434e-09	6.443194e+00	7.292992e+01
1.010000e-06	1.008627e-06	1.281444e-09	6.800336e+00	8.289839e+01
1.020000e-06	1.061199e-06	1.435168e-09	7.154788e+00	9.295786e+01
1.030000e-06	1.113385e-06	1.592118e-09	7.506636e+00	1.031207e+02
1.040000e-06	1.165175e-06	1.750792e-09	7.855814e+00	1.133824e+02
1.050000e-06	1.216410e-06	1.908998e-09	8.201244e+00	1.237224e+02
1.060000e-06	1.266952e-06	2.067043e-09	8.542007e+00	1.341108e+02
1.070000e-06	1.316769e-06	2.226277e-09	8.877882e+00	1.445184e+02
1.080000e-06	1.365902e-06	2.383836e-09	9.209151e+00	1.549255e+02
1.090000e-06	1.414567e-06	2.539790e-09	9.537256e+00	1.653270e+02
1.100000e-06	1.462838e-06	2.696565e-09	9.862707e+00	1.757305e+02
1.110000e-06	1.510666e-06	2.857501e-09	1.018517e+01	1.861507e+02
1.120000e-06	1.557996e-06	3.020502e-09	1.050428e+01	1.965998e+02
1.130000e-06	1.604791e-06	3.182539e-09	1.081978e+01	2.070805e+02
1.140000e-06	1.651040e-06	3.340313e-09	1.113160e+01	2.175822e+02
1.150000e-06	1.696622e-06	3.497775e-09	1.143892e+01	2.280821e+02
1.160000e-06	1.741626e-06	3.657264e-09	1.174234e+01	2.385517e+02
1.170000e-06	1.786228e-06	3.815584e-09	1.204306e+01	2.489635e+02
1.180000e-06	1.830430e-06	3.971320e-09	1.234108e+01	2.592975e+02
1.190000e-06	1.873992e-06	4.126241e-09	1.263478e+01	2.695428e+02
1.200000e-06	1.916576e-06	4.282360e-09	1.292189e+01	2.796964e+02
1.210000e-06	1.958126e-06	4.437672e-09	1.320203e+01	2.897568e+02
1.220000e-06	1.998907e-06	4.589020e-09	1.347698e+01	2.997188e+02
1.230000e-06	2.039100e-06	4.735751e-09	1.374796e+01	3.095691e+02
1.240000e-06	2.078704e-06	4.881231e-09	1.401498e+01	3.192853e+02
1.250000e-06	2.117683e-06	5.025156e-09	1.427778e+01	3.288390e+02
1.260000e-06	2.155951e-06	5.167928e-09	1.453580e+01	3.382009e+02
1.270000e-06	2.193433e-06	5.307486e-09	1.478851e+01	3.473457e+02
1.280000e-06	2.230211e-06	5.442627e-09	1.503647e+01	3.562556e+02
1.290000e-06	2.266399e-06	5.573616e-09	1.528046e+01	3.649203e+02
1.300000e-06	2.301783e-06	5.700869e-09	1.551902e+01	3.733342e+02
1.310000e-06	2.336079e-06	5.822533e-09	1.575025e+01	3.814933e+02
1.320000e-06	2.369352e-06	5.939324e-09	1.597458e+01	3.893922e+02
1.330000e-06	2.401822e-06	6.053602e-09	1.619350e+01	3.970231e+02
1.340000e-06	2.433554e-06	6.164436e-09	1.640744e+01	4.043775e+02
1.350000e-06	2.464499e-06	6.270302e-09	1.661608e+01	4.114494e+02
1.360000e-06	2.494614e-06	6.371090e-09	1.681912e+01	4.182382e+02
1.370000e-06	2.523913e-06	6.468431e-09	1.701666e+01	4.247496e+02
1.380000e-06	2.552506e-06	6.563079e-09	1.720943e+01	4.309947e+02
1.390000e-06	2.580298e-06	6.654217e-09	1.739682e+01	4.369865e+02
1.400000e-06	2.606942e-06	6.740445e-09	1.757645e+01	4.427362e+02
1.410000e-06	2.632361e-06	6.821323e-09	1.774783e+01	4.482496e+02
1.420000e-06	2.656764e-06	6.898520e-09	1.791236e+01	4.535274e+02
1.430000e-06	2.680277e-06	6.973321e-09	1.807089e+01	4.585661e+02
1.440000e-06	2.702914e-06	7.044778e-09	1.822351e+01	4.633620e+02
1.450000e-06	2.724669e-06	7.112518e-09	1.837019e+01	4.679143e+02
1.460000e-06	2.745589e-06	7.178447e-09	1.851124e+01	4.722261e+02
1.470000e-06	2.765729e-06	7.242570e-09	1.864702e+01	4.763039e+02
1.480000e-06	2.784966e-06	7.301245e-09	1.877672e+01	4.801537e+02
1.490000e-06	2.803145e-06	7.352057e-09	1.889929e+01	4.837776e+02
1.500000e-06	2.820392e-06	7.398562e-09	1.901557e+01	4.871713e+02
1.510000e-06	2.836592e-06	7.444259e-09	1.912479e+01	4.903246e+02
1.520000e-06	2.851578e-06	7.488551e-09	1.922583e+01	4.932251e+02
1.530000e-06	2.865501e-06	7.527864e-09	1.931970e+01	4.958640e+02
1.540000e-06	2.878420e-06	7.560789e-09	1.940681e+01	4.982414e+02
1.550000e-06	2.890244e-06	7.593091e-09	1.948652e+01	5.003688e+02
1.560000e-06	2.900743e-06	7.624714e-09	1.955731e+01	5.022679e+02
1.570000e-06	2.909968e-06	7.650574e-09	1.961951e+01	5.039653e+02
1.580000e-06	2.918222e-06	7.670575e-09	1.967516e+01	5.054849e+02
1.590000e-06	2.925520e-06	7.688548e-09	1.972436e+01	5.068416e+02
1.600000e-06	2.931807e-06	7.706406e-09	1.976675e+01	5.080377e+02
1.610000e-06	2.937165e-06	7.722797e-09	1.980287e+01	5.090650e+02
1.620000e-06	2.941649e-06	7.735336e-09	1.983311e+01	5.099101e+02
1.630000e-06	2.945089e-06	7.744840e-09	1.985630e+01	5.105630e+02
1.640000e-06	2.947285e-06	7.753635e-09	1.987110e+01	5.110229e+02
1.650000e-06	2.948332e-06	7.760092e-09	1.987816e+01	5.113011e+02
1.660000e-06	2.948382e-06	7.761208e-09	1.987850e+01	5.114176e+02
1.670000e-06	2.947486e-06	7.758843e-09	1.987246e+01	5.113939e+02
1.680000e-06	2.945701e-06	7.756380e-09	1.986043e+01	5.112440e+02
1.690000e-06	2.943057e-06	7.752870e-09	1.984260e+01	5.109675e+02
1.700000e-06	2.939612e-06	7.746576e-09	1.981937e+01	5.105478e+02
1.710000e-06	2.935253e-06	7.738295e-09	1.978999e+01	5.099576e+02
1.720000e-06	2.929712e-06	7.730968e-09	1.975262e+01	5.091681e+02
1.730000e-06	2.923082e-06	7.730817e-09	1.970792e+01	5.081612e+02
1.740000e-06	2.915561e-06	7.696430e-09	1.965722e+01	5.069385e+02
1.750000e-06	2.906895e-06	7.624711e-09	1.959879e+01	5.055246e+02
1.760000e-06	2.896588e-06	7.596178e-09	1.952930e+01	5.039629e+02
1.770000e-06	2.884774e-06	7.661214e-09	1.944965e+01	5.023053e+02
1.780000e-06	2.872471e-06	7.663806e-09	1.936670e+01	5.005983e+02
1.790000e-06	2.859965e-06	7.536158e-09	1.928238e+01	4.988715e+02
1.800000e-06	2.846185e-06	7.494554e-09	1.918947e+01	4.971300e+02
1.810000e-06	2.830769e-06	7.567954e-09	1.908554e+01	4.953546e+02
1.820000e-06	2.814590e-06	7.514369e-09	1.897645e+01	4.935083e+02
1.830000e-06	2.797756e-06	7.416947e-09	1.886296e+01	4.915468e+02
1.840000e-06	2.779647e-06	7.474970e-09	1.874086e+01	4.894291e+02
1.850000e-06	2.760528e-06	7.430168e-09	1.861196e+01	4.871259e+02
1.860000e-06	2.740753e-06	7.292581e-09	1.847863e+01	4.846221e+02
1.870000e-06	2.719781e-06	7.357076e-09	1.833724e+01	4.819162e+02
1.880000e-06	2.697407e-06	7.357328e-09	1.818639e+01	4.790153e+02
1.890000e-06	2.674088e-06	7.189411e-09	1.802917e+01	4.759307e+02
1.900000e-06	2.649858e-06	7.204013e-09	1.786580e+01	4.726733e+02
1.910000e-06	2.624767e-06	7.217337e-09	1.769663e+01	4.692528e+02
1.920000e-06	2.598994e-06	7.084447e-09	1.752287e+01	4.656775e+02
1.930000e-06	2.572383e-06	7.036183e-09	1.734345e+01	4.619552e+02
1.940000e-06	2.544987e-06	6.984536e-09	1.715874e+01	4.580942e+02
1.950000e-06	2.516754e-06	6.907454e-09	1.696839e+01	4.541017e+02
1.960000e-06	2.487171e-06	6.920860e-09	1.676894e+01	4.499828e+02
1.970000e-06	2.456375e-06	6.801319e-09	1.656130e+01	4.457388e+02
1.980000e-06	2.424836e-06	6.674923e-09	1.634866e+01	4.413665e+02
1.990000e-06	2.392511e-06	6.728418e-09	1.613072e+01	4.368607e+02
2.000000e-06	2.359408e-06	6.615188e-09	1.590754e+01	4.322169e+02
2.010000e-06	2.325515e-06	6.462789e-09	1.567903e+01	4.274358e+02
2.020000e-06	2.290801e-06	6.474524e-09	1.544497e+01	4.225247e+02
2.030000e-06	2.255512e-06	6.364202e-09	1.520706e+01	4.174980e+02
2.040000e-06	2.219525e-06	6.252608e-09	1.496442e+01	4.123736e+02
2.050000e-06	2.182387e-06	6.256084e-09	1.471403e+01	4.071675e+02
2.060000e-06	2.144210e-06	6.139385e-09	1.445664e+01	4.018889e+02
2.070000e-06	2.105312e-06	6.023244e-09	1.419438e+01	3.965369e+02
2.080000e-06	2.065817e-06	5.983849e-09	1.392809e+01	3.911015e+02
2.090000e-06	2.025642e-06	5.889463e-09	1.365723e+01	3.855676e+02
2.100000e-06	1.984710e-06	5.790001e-09	1.338126e+01	3.799218e+02
2.110000e-06	1.943162e-06	5.698037e-09	1.310113e+01	3.741578e+02
2.120000e-06	1.900943e-06	5.615121e-09	1.281649e+01	3.682797e+02
2.130000e-06	1.858074e-06	5.551511e-09	1.252746e+01	3.623001e+02
2.140000e-06	1.814756e-06	5.447540e-09	1.223540e+01	3.562354e+02
2.150000e-06	1.770978e-06	5.337125e-09	1.194024e+01	3.500986e+02
2.160000e-06	1.726566e-06	5.253104e-09	1.164081e+01	3.438929e+02
2.170000e-06	1.681455e-06	5.167803e-09	1.133666e+01	3.376103e+02
2.180000e-06	1.635729e-06	5.066136e-09	1.102837e+01	3.312331e+02
2.190000e-06	1.589515e-06	4.961508e-09	1.071678e+01	3.247414e+02
2.200000e-06	1.542803e-06	4.863551e-09	1.040185e+01	3.181203e+02
2.210000e-06	1.495528e-06	4.754169e-09	1.008311e+01	3.113664e+02
2.220000e-06	1.447560e-06	4.653025e-09	9.759702e+00	3.044897e+02
2.230000e-06	1.398833e-06	4.558481e-09	9.431174e+00	2.975097e+02
2.240000e-06	1.349612e-06	4.436137e-09	9.099317e+00	2.904485e+02
2.250000e-06	1.299983e-06	4.330916e-09	8.764708e+00	2.833222e+02
2.260000e-06	1.249898e-06	4.239874e-09	8.427031e+00	2.761346e+02
2.270000e-06	1.199355e-06	4.121048e-09	8.086258e+00	2.688764e+02
2.280000e-06	1.148371e-06	4.000099e-09	7.742519e+00	2.615296e+02
2.290000e-06	1.097017e-06	3.881824e-09	7.396279e+00	2.540754e+02
2.300000e-06	1.045207e-06	3.772388e-09	7.046968e+00	2.465033e+02
2.310000e-06	9.929199e-07	3.663473e-09	6.694438e+00	2.388165e+02
2.320000e-06	9.400842e-07	3.540322e-09	6.338210e+00	2.310324e+02
2.330000e-06	8.866660e-07	3.422486e-09	5.978056e+00	2.231773e+02
2.340000e-06	8.327421e-07	3.306891e-09	5.614492e+00	2.152776e+02
2.350000e-06	7.783272e-07	3.185136e-09	5.247617e+00	2.073506e+02
2.360000e-06	7.235337e-07	3.060705e-09	4.878190e+00	1.993997e+02
2.370000e-06	6.684962e-07	2.936657e-09	4.507117e+00	1.914136e+02
2.380000e-06	6.133231e-07	2.818530e-09	4.135130e+00	1.833726e+02
2.390000e-06	5.580615e-07	2.698667e-09	3.762547e+00	1.752564e+02
2.400000e-06	5.027140e-07	2.574006e-09	3.389385e+00	1.670528e+02
2.410000e-06	4.472665e-07	2.446315e-09	3.015548e+00	1.587617e+02
2.420000e-06	3.917400e-07	2.315339e-09	2.641179e+00	1.503940e+02
2.430000e-06	3.361263e-07	2.190330e-09	2.266222e+00	1.419657e+02
2.440000e-06	2.804078e-07	2.064687e-09	1.890558e+00	1.334897e+02
2.450000e-06	2.245994e-07	1.932165e-09	1.514288e+00	1.249693e+02
2.460000e-06	1.687240e-07	1.799159e-09	1.137566e+00	1.163963e+02
2.470000e-06	1.128052e-07	1.667999e-09	7.605521e-01	1.077538e+02
2.480000e-06	5.687097e-08	1.538385e-09	3.834339e-01	9.902422e+01
2.490000e-06	8.754684e-10	1.402293e-09	5.902560e-03	9.019770e+01
2.500000e-06	-5.519960e-08	1.262682e-09	-3.721652e-01	8.127769e+01
2.510000e-06	-1.112233e-07	1.127238e-09	-7.498866e-01	7.228135e+01
2.520000e-06	-1.671218e-07	9.920672e-10	-1.126764e+00	6.323397e+01
2.530000e-06	-2.229006e-07	8.538809e-10	-1.502835e+00	5.415928e+01
2.540000e-06	-2.786237e-07	7.108597e-10	-1.878529e+00	4.506976e+01
2.550000e-06	-3.342754e-07	5.694916e-10	-2.253742e+00	3.596057e+01
2.560000e-06	-3.897983e-07	4.334731e-10	-2.628087e+00	2.680995e+01
2.570000e-06	-4.452312e-07	2.964970e-10	-3.001826e+00	1.758615e+01
2.580000e-06	-5.005889e-07	1.551279e-10	-3.375057e+00	8.258333e+00
2.590000e-06	-5.558645e-07	1.046892e-11	-3.747735e+00	-1.192460e+00
2.600000e-06	-6.110634e-07	-1.368011e-10	-4.119895e+00	-1.076672e+01
2.610000e-06	-6.661704e-07	-2.849979e-10	-4.491436e+00	-2.044661e+01
2.620000e-06	-7.210964e-07	-4.339204e-10	-4.861757e+00	-3.020294e+01
2.630000e-06	-7.757153e-07	-5.847792e-10	-5.230006e+00	-4.000613e+01
2.640000e-06	-8.300089e-07	-7.351194e-10	-5.596064e+00	-4.983712e+01
2.650000e-06	-8.838488e-07	-8.838842e-10	-5.959062e+00	-5.969388e+01
2.660000e-06	-9.370216e-07	-1.033921e-09	-6.317562e+00	-6.959115e+01
2.670000e-06	-9.896257e-07	-1.186506e-09	-6.672227e+00	-7.955375e+01
2.680000e-06	-1.041753e-06	-1.339986e-09	-7.023681e+00	-8.960591e+01
2.690000e-06	-1.093396e-06	-1.494642e-09	-7.371863e+00	-9.976112e+01
2.700000e-06	-1.144663e-06	-1.652892e-09	-7.717516e+00	-1.100161e+02
2.710000e-06	-1.195582e-06	-1.812700e-09	-8.060821e+00	-1.203512e+02
2.720000e-06	-1.246106e-06	-1.970102e-09	-8.401463e+00	-1.307369e+02
2.730000e-06	-1.296166e-06	-2.126074e-09	-8.738975e+00	-1.411437e+02
2.740000e-06	-1.345709e-06	-2.284142e-09	-9.073005e+00	-1.515510e+02
2.750000e-06	-1.394689e-06	-2.444163e-09	-9.403235e+00	-1.619526e+02
2.760000e-06	-1.442977e-06	-2.603242e-09	-9.728799e+00	-1.723553e+02
2.770000e-06	-1.490456e-06	-2.760642e-09	-1.004891e+01	-1.827736e+02
2.780000e-06	-1.537180e-06	-2.919291e-09	-1.036393e+01	-1.932202e+02
2.790000e-06	-1.583281e-06	-3.080424e-09	-1.067475e+01	-2.036986e+02
2.800000e-06	-1.628926e-06	-3.241196e-09	-1.098250e+01	-2.141992e+02
2.810000e-06	-1.674197e-06	-3.401052e-09	-1.128772e+01	-2.247000e+02
2.820000e-06	-1.718934e-06	-3.560821e-09	-1.158935e+01	-2.351725e+02
2.830000e-06	-1.763062e-06	-3.721068e-09	-1.188687e+01	-2.455890e+02
2.840000e-06	-1.806667e-06	-3.880838e-09	-1.218086e+01	-2.559288e+02
2.850000e-06	-1.849862e-06	-4.038698e-09	-1.247209e+01	-2.661804e+02
2.860000e-06	-1.892594e-06	-4.193157e-09	-1.276020e+01	-2.763403e+02
2.870000e-06	-1.934691e-06	-4.344634e-09	-1.304402e+01	-2.864073e+02
2.880000e-06	-1.976136e-06	-4.495894e-09	-1.332345e+01	-2.963765e+02
2.890000e-06	-2.016903e-06	-4.647218e-09	-1.359831e+01	-3.062352e+02
2.900000e-06	-2.056959e-06	-4.797136e-09	-1.386837e+01	-3.159616e+02
2.910000e-06	-2.096419e-06	-4.944693e-09	-1.413442e+01	-3.255277e+02
2.920000e-06	-2.135251e-06	-5.089602e-09	-1.439623e+01	-3.349040e+02
2.930000e-06	-2.173160e-06	-5.232124e-09	-1.465182e+01	-3.440648e+02
2.940000e-06	-2.209986e-06	-5.370379e-09	-1.490011e+01	-3.529917e+02
