# Temperatura_=_20.55
# Concentracion g/m^3_=_18700.0
# C_Vs_to_Am_M_A/Vsm_=_65563218390.804596
# pendiente_HvsI_1/m_=_3716.3
# ordenada_HvsI_A/m_=_1297.0
# frecuencia_Hz_=_301077.3565541377

Tiempo_(s)	Campo_(V.s)	Magnetizacion_(V.s)	Campo_(kA/m)	Magnetizacion_(A/m)
0.000000e+00	-2.932878e-06	-7.620825e-09	-1.977384e+01	-4.976056e+02
1.000000e-08	-2.932531e-06	-7.624545e-09	-1.977150e+01	-4.976117e+02
2.000000e-08	-2.931402e-06	-7.626190e-09	-1.976388e+01	-4.974380e+02
3.000000e-08	-2.929080e-06	-7.622431e-09	-1.974823e+01	-4.970982e+02
4.000000e-08	-2.925436e-06	-7.615587e-09	-1.972366e+01	-4.966081e+02
5.000000e-08	-2.920892e-06	-7.603884e-09	-1.969302e+01	-4.959788e+02
6.000000e-08	-2.915583e-06	-7.584788e-09	-1.965723e+01	-4.952128e+02
7.000000e-08	-2.909328e-06	-7.551637e-09	-1.961506e+01	-4.943026e+02
8.000000e-08	-2.902050e-06	-7.523805e-09	-1.956599e+01	-4.932352e+02
9.000000e-08	-2.893713e-06	-7.570385e-09	-1.950978e+01	-4.919982e+02
1.000000e-07	-2.883980e-06	-7.622586e-09	-1.944416e+01	-4.905882e+02
1.100000e-07	-2.872671e-06	-7.530173e-09	-1.936791e+01	-4.890159e+02
1.200000e-07	-2.860417e-06	-7.328839e-09	-1.928530e+01	-4.873069e+02
1.300000e-07	-2.847535e-06	-7.366025e-09	-1.919844e+01	-4.854966e+02
1.400000e-07	-2.833586e-06	-7.557906e-09	-1.910439e+01	-4.836206e+02
1.500000e-07	-2.818392e-06	-7.367572e-09	-1.900196e+01	-4.817038e+02
1.600000e-07	-2.802125e-06	-7.196112e-09	-1.889228e+01	-4.797520e+02
1.700000e-07	-2.784685e-06	-7.398277e-09	-1.877470e+01	-4.777479e+02
1.800000e-07	-2.766113e-06	-7.379418e-09	-1.864949e+01	-4.756551e+02
1.900000e-07	-2.746724e-06	-7.141586e-09	-1.851876e+01	-4.734268e+02
2.000000e-07	-2.726619e-06	-7.227317e-09	-1.838321e+01	-4.710189e+02
2.100000e-07	-2.705612e-06	-7.250215e-09	-1.824158e+01	-4.684005e+02
2.200000e-07	-2.683679e-06	-6.986372e-09	-1.809371e+01	-4.655617e+02
2.300000e-07	-2.660996e-06	-7.038208e-09	-1.794077e+01	-4.625127e+02
2.400000e-07	-2.637395e-06	-7.147289e-09	-1.778165e+01	-4.592787e+02
2.500000e-07	-2.612923e-06	-6.919547e-09	-1.761666e+01	-4.558889e+02
2.600000e-07	-2.587596e-06	-6.833800e-09	-1.744590e+01	-4.523663e+02
2.700000e-07	-2.561045e-06	-6.888267e-09	-1.726689e+01	-4.487211e+02
2.800000e-07	-2.533312e-06	-6.794637e-09	-1.707991e+01	-4.449484e+02
2.900000e-07	-2.504767e-06	-6.736779e-09	-1.688746e+01	-4.410336e+02
3.000000e-07	-2.475412e-06	-6.645671e-09	-1.668954e+01	-4.369597e+02
3.100000e-07	-2.445198e-06	-6.566820e-09	-1.648583e+01	-4.327165e+02
3.200000e-07	-2.414215e-06	-6.597550e-09	-1.627694e+01	-4.283064e+02
3.300000e-07	-2.382430e-06	-6.477815e-09	-1.606265e+01	-4.237455e+02
3.400000e-07	-2.349946e-06	-6.328999e-09	-1.584363e+01	-4.190594e+02
3.500000e-07	-2.316791e-06	-6.344182e-09	-1.562010e+01	-4.142751e+02
3.600000e-07	-2.282648e-06	-6.259548e-09	-1.538990e+01	-4.094125e+02
3.700000e-07	-2.247302e-06	-6.143666e-09	-1.515159e+01	-4.044793e+02
3.800000e-07	-2.211049e-06	-6.143539e-09	-1.490717e+01	-3.994691e+02
3.900000e-07	-2.174213e-06	-6.006587e-09	-1.465882e+01	-3.943652e+02
4.000000e-07	-2.136654e-06	-5.879780e-09	-1.440559e+01	-3.891480e+02
4.100000e-07	-2.098260e-06	-5.883882e-09	-1.414674e+01	-3.838027e+02
4.200000e-07	-2.059110e-06	-5.791320e-09	-1.388278e+01	-3.783251e+02
4.300000e-07	-2.019245e-06	-5.643862e-09	-1.361401e+01	-3.727229e+02
4.400000e-07	-1.978863e-06	-5.587846e-09	-1.334175e+01	-3.670130e+02
4.500000e-07	-1.938024e-06	-5.527023e-09	-1.306640e+01	-3.612151e+02
4.600000e-07	-1.896428e-06	-5.424261e-09	-1.278596e+01	-3.553449e+02
4.700000e-07	-1.853766e-06	-5.322134e-09	-1.249832e+01	-3.494087e+02
4.800000e-07	-1.810099e-06	-5.215464e-09	-1.220392e+01	-3.434022e+02
4.900000e-07	-1.765804e-06	-5.137175e-09	-1.190527e+01	-3.373124e+02
5.000000e-07	-1.721071e-06	-5.063248e-09	-1.160368e+01	-3.311237e+02
5.100000e-07	-1.675826e-06	-4.958022e-09	-1.129863e+01	-3.248235e+02
5.200000e-07	-1.629938e-06	-4.839677e-09	-1.098925e+01	-3.184069e+02
5.300000e-07	-1.583418e-06	-4.747810e-09	-1.067560e+01	-3.118781e+02
5.400000e-07	-1.536335e-06	-4.654780e-09	-1.035817e+01	-3.052485e+02
5.500000e-07	-1.488666e-06	-4.555872e-09	-1.003678e+01	-2.985315e+02
5.600000e-07	-1.440522e-06	-4.448579e-09	-9.712183e+00	-2.917377e+02
5.700000e-07	-1.392095e-06	-4.327608e-09	-9.385680e+00	-2.848707e+02
5.800000e-07	-1.343288e-06	-4.232741e-09	-9.056621e+00	-2.779262e+02
5.900000e-07	-1.293775e-06	-4.140766e-09	-8.722794e+00	-2.708944e+02
6.000000e-07	-1.243412e-06	-4.019484e-09	-8.383240e+00	-2.637644e+02
6.100000e-07	-1.192273e-06	-3.894245e-09	-8.038454e+00	-2.565292e+02
6.200000e-07	-1.140524e-06	-3.793715e-09	-7.689559e+00	-2.491896e+02
6.300000e-07	-1.088382e-06	-3.690134e-09	-7.338007e+00	-2.417548e+02
6.400000e-07	-1.035911e-06	-3.570662e-09	-6.984246e+00	-2.342407e+02
6.500000e-07	-9.830929e-07	-3.443941e-09	-6.628137e+00	-2.266652e+02
6.600000e-07	-9.298826e-07	-3.325453e-09	-6.269387e+00	-2.190431e+02
6.700000e-07	-8.763020e-07	-3.218960e-09	-5.908140e+00	-2.113822e+02
6.800000e-07	-8.223869e-07	-3.104468e-09	-5.544637e+00	-2.036819e+02
6.900000e-07	-7.681766e-07	-2.980121e-09	-5.179144e+00	-1.959341e+02
7.000000e-07	-7.137553e-07	-2.855156e-09	-4.812229e+00	-1.881273e+02
7.100000e-07	-6.591598e-07	-2.738197e-09	-4.444139e+00	-1.802506e+02
7.200000e-07	-6.044072e-07	-2.617050e-09	-4.074990e+00	-1.722980e+02
7.300000e-07	-5.494752e-07	-2.489161e-09	-3.704631e+00	-1.642700e+02
7.400000e-07	-4.943350e-07	-2.360609e-09	-3.332869e+00	-1.561730e+02
7.500000e-07	-4.389266e-07	-2.238472e-09	-2.959299e+00	-1.480163e+02
7.600000e-07	-3.832418e-07	-2.121912e-09	-2.583865e+00	-1.398087e+02
7.700000e-07	-3.273886e-07	-1.997308e-09	-2.207296e+00	-1.315552e+02
7.800000e-07	-2.714084e-07	-1.862413e-09	-1.829870e+00	-1.232550e+02
7.900000e-07	-2.153892e-07	-1.728756e-09	-1.452181e+00	-1.149028e+02
8.000000e-07	-1.593608e-07	-1.603262e-09	-1.074430e+00	-1.064905e+02
8.100000e-07	-1.032461e-07	-1.476193e-09	-6.960986e-01	-9.801141e+01
8.200000e-07	-4.708834e-08	-1.344897e-09	-3.174755e-01	-8.946292e+01
8.300000e-07	9.072185e-09	-1.212963e-09	6.116582e-02	-8.084810e+01
8.400000e-07	6.524703e-08	-1.085008e-09	4.399038e-01	-7.217492e+01
8.500000e-07	1.214002e-07	-9.541190e-10	8.184959e-01	-6.345352e+01
8.600000e-07	1.775262e-07	-8.129069e-10	1.196904e+00	-5.469233e+01
8.700000e-07	2.335873e-07	-6.704261e-10	1.574875e+00	-4.589440e+01
8.800000e-07	2.895508e-07	-5.370614e-10	1.952188e+00	-3.705543e+01
8.900000e-07	3.454226e-07	-4.103953e-10	2.328883e+00	-2.816409e+01
9.000000e-07	4.011246e-07	-2.768272e-10	2.704433e+00	-1.920483e+01
9.100000e-07	4.566373e-07	-1.357449e-10	3.078707e+00	-1.016227e+01
9.200000e-07	5.119535e-07	6.121429e-12	3.451655e+00	-1.025873e+00
9.300000e-07	5.670839e-07	1.470782e-10	3.823352e+00	8.206818e+00
9.400000e-07	6.220334e-07	2.906890e-10	4.193828e+00	1.752930e+01
9.500000e-07	6.767491e-07	4.367843e-10	4.562728e+00	2.692811e+01
9.600000e-07	7.312487e-07	5.814638e-10	4.930172e+00	3.638709e+01
9.700000e-07	7.855563e-07	7.221630e-10	5.296320e+00	4.589252e+01
9.800000e-07	8.396540e-07	8.611735e-10	5.661054e+00	5.543749e+01
9.900000e-07	8.934617e-07	1.006127e-09	6.023832e+00	6.502397e+01
1.000000e-06	9.468822e-07	1.154744e-09	6.384000e+00	7.466182e+01
1.010000e-06	9.999230e-07	1.303686e-09	6.741608e+00	8.436504e+01
1.020000e-06	1.052585e-06	1.452563e-09	7.096660e+00	9.414638e+01
1.030000e-06	1.104884e-06	1.604345e-09	7.449270e+00	1.040121e+02
1.040000e-06	1.156786e-06	1.758449e-09	7.799200e+00	1.139588e+02
1.050000e-06	1.208119e-06	1.909503e-09	8.145289e+00	1.239727e+02
1.060000e-06	1.258806e-06	2.057911e-09	8.487030e+00	1.340331e+02
1.070000e-06	1.308738e-06	2.209530e-09	8.823679e+00	1.441172e+02
1.080000e-06	1.357923e-06	2.365679e-09	9.155291e+00	1.542059e+02
1.090000e-06	1.406590e-06	2.521099e-09	9.483410e+00	1.642878e+02
1.100000e-06	1.454893e-06	2.673342e-09	9.809073e+00	1.743613e+02
1.110000e-06	1.502776e-06	2.827114e-09	1.013191e+01	1.844320e+02
1.120000e-06	1.550117e-06	2.984506e-09	1.045108e+01	1.945090e+02
1.130000e-06	1.596921e-06	3.141457e-09	1.076665e+01	2.045986e+02
1.140000e-06	1.643196e-06	3.293376e-09	1.107864e+01	2.147005e+02
1.150000e-06	1.688850e-06	3.442257e-09	1.138644e+01	2.248045e+02
1.160000e-06	1.733941e-06	3.593319e-09	1.169045e+01	2.348919e+02
1.170000e-06	1.778629e-06	3.747988e-09	1.199174e+01	2.449390e+02
1.180000e-06	1.822905e-06	3.902611e-09	1.229026e+01	2.549215e+02
1.190000e-06	1.866621e-06	4.053993e-09	1.258499e+01	2.648191e+02
1.200000e-06	1.909435e-06	4.204047e-09	1.287365e+01	2.746180e+02
1.210000e-06	1.951155e-06	4.355506e-09	1.315494e+01	2.843102e+02
1.220000e-06	1.992019e-06	4.503979e-09	1.343045e+01	2.938908e+02
1.230000e-06	2.032313e-06	4.644017e-09	1.370211e+01	3.033536e+02
1.240000e-06	2.072043e-06	4.779013e-09	1.396998e+01	3.126877e+02
1.250000e-06	2.111109e-06	4.913995e-09	1.423336e+01	3.218752e+02
1.260000e-06	2.149499e-06	5.052976e-09	1.449220e+01	3.308925e+02
1.270000e-06	2.187107e-06	5.191491e-09	1.474575e+01	3.397130e+02
1.280000e-06	2.223943e-06	5.324449e-09	1.499411e+01	3.483118e+02
1.290000e-06	2.260248e-06	5.450511e-09	1.523888e+01	3.566697e+02
1.300000e-06	2.295906e-06	5.572460e-09	1.547929e+01	3.647753e+02
1.310000e-06	2.330471e-06	5.689796e-09	1.571233e+01	3.726253e+02
1.320000e-06	2.363849e-06	5.802302e-09	1.593737e+01	3.802217e+02
1.330000e-06	2.396396e-06	5.911075e-09	1.615681e+01	3.875689e+02
1.340000e-06	2.428221e-06	6.018019e-09	1.637138e+01	3.946703e+02
1.350000e-06	2.459241e-06	6.123942e-09	1.658051e+01	4.015267e+02
1.360000e-06	2.489470e-06	6.226123e-09	1.678433e+01	4.081364e+02
1.370000e-06	2.518862e-06	6.322765e-09	1.698248e+01	4.144969e+02
1.380000e-06	2.547532e-06	6.413962e-09	1.717578e+01	4.206078e+02
1.390000e-06	2.575553e-06	6.502397e-09	1.736471e+01	4.264720e+02
1.400000e-06	2.602535e-06	6.587274e-09	1.754662e+01	4.320960e+02
1.410000e-06	2.628213e-06	6.666195e-09	1.771975e+01	4.374890e+02
1.420000e-06	2.652823e-06	6.741324e-09	1.788567e+01	4.426592e+02
1.430000e-06	2.676529e-06	6.814927e-09	1.804550e+01	4.476121e+02
1.440000e-06	2.699348e-06	6.886528e-09	1.819935e+01	4.523479e+02
1.450000e-06	2.721276e-06	6.955458e-09	1.834719e+01	4.568622e+02
1.460000e-06	2.742319e-06	7.021560e-09	1.848906e+01	4.611472e+02
1.470000e-06	2.762586e-06	7.083638e-09	1.862570e+01	4.651948e+02
1.480000e-06	2.782032e-06	7.139175e-09	1.875681e+01	4.689989e+02
1.490000e-06	2.800462e-06	7.187616e-09	1.888107e+01	4.725570e+02
1.500000e-06	2.817896e-06	7.231634e-09	1.899861e+01	4.758702e+02
1.510000e-06	2.834285e-06	7.275144e-09	1.910911e+01	4.789415e+02
1.520000e-06	2.849497e-06	7.318769e-09	1.921167e+01	4.817741e+02
1.530000e-06	2.863604e-06	7.359407e-09	1.930678e+01	4.843702e+02
1.540000e-06	2.876684e-06	7.393334e-09	1.939497e+01	4.867311e+02
1.550000e-06	2.888661e-06	7.422093e-09	1.947572e+01	4.888591e+02
1.560000e-06	2.899313e-06	7.450014e-09	1.954754e+01	4.907599e+02
1.570000e-06	2.908667e-06	7.475688e-09	1.961060e+01	4.924446e+02
1.580000e-06	2.917041e-06	7.496240e-09	1.966706e+01	4.939298e+02
1.590000e-06	2.924504e-06	7.514535e-09	1.971738e+01	4.952358e+02
1.600000e-06	2.930974e-06	7.532364e-09	1.976100e+01	4.963822e+02
1.610000e-06	2.936455e-06	7.548267e-09	1.979795e+01	4.973833e+02
1.620000e-06	2.941068e-06	7.560411e-09	1.982905e+01	4.982446e+02
1.630000e-06	2.944772e-06	7.570376e-09	1.985403e+01	4.989616e+02
1.640000e-06	2.947152e-06	7.580186e-09	1.987007e+01	4.995222e+02
1.650000e-06	2.948243e-06	7.588502e-09	1.987743e+01	4.999116e+02
1.660000e-06	2.948402e-06	7.592784e-09	1.987850e+01	5.001180e+02
1.670000e-06	2.947696e-06	7.591606e-09	1.987374e+01	5.001379e+02
1.680000e-06	2.946061e-06	7.587072e-09	1.986272e+01	4.999772e+02
1.690000e-06	2.943496e-06	7.583968e-09	1.984542e+01	4.996493e+02
1.700000e-06	2.940170e-06	7.579442e-09	1.982300e+01	4.991700e+02
1.710000e-06	2.935982e-06	7.569997e-09	1.979476e+01	4.985511e+02
1.720000e-06	2.930588e-06	7.562487e-09	1.975840e+01	4.977955e+02
1.730000e-06	2.924003e-06	7.578131e-09	1.971400e+01	4.968966e+02
1.740000e-06	2.916576e-06	7.551878e-09	1.966393e+01	4.958415e+02
1.750000e-06	2.908173e-06	7.435428e-09	1.960727e+01	4.946174e+02
1.760000e-06	2.898148e-06	7.375996e-09	1.953968e+01	4.932202e+02
1.770000e-06	2.886448e-06	7.533698e-09	1.946080e+01	4.916594e+02
1.780000e-06	2.874105e-06	7.585616e-09	1.937758e+01	4.899597e+02
1.790000e-06	2.861805e-06	7.358735e-09	1.929466e+01	4.881559e+02
1.800000e-06	2.848478e-06	7.266240e-09	1.920480e+01	4.862841e+02
1.810000e-06	2.833215e-06	7.480661e-09	1.910189e+01	4.843704e+02
1.820000e-06	2.816989e-06	7.395900e-09	1.899250e+01	4.824220e+02
1.830000e-06	2.800316e-06	7.134058e-09	1.888009e+01	4.804233e+02
1.840000e-06	2.782392e-06	7.323758e-09	1.875924e+01	4.783388e+02
1.850000e-06	2.763326e-06	7.367706e-09	1.863070e+01	4.761224e+02
1.860000e-06	2.743680e-06	7.057773e-09	1.849824e+01	4.737291e+02
1.870000e-06	2.722895e-06	7.176699e-09	1.835810e+01	4.711269e+02
1.880000e-06	2.700659e-06	7.324250e-09	1.820819e+01	4.683043e+02
1.890000e-06	2.677537e-06	6.985415e-09	1.805230e+01	4.652702e+02
1.900000e-06	2.653521e-06	6.953010e-09	1.789038e+01	4.620490e+02
1.910000e-06	2.628567e-06	7.110896e-09	1.772213e+01	4.586700e+02
1.920000e-06	2.602978e-06	6.930824e-09	1.754961e+01	4.551570e+02
1.930000e-06	2.576534e-06	6.845490e-09	1.737132e+01	4.515211e+02
1.940000e-06	2.549225e-06	6.867442e-09	1.718720e+01	4.477586e+02
1.950000e-06	2.521197e-06	6.746668e-09	1.699823e+01	4.438551e+02
1.960000e-06	2.491858e-06	6.767844e-09	1.680043e+01	4.397935e+02
1.970000e-06	2.461148e-06	6.660097e-09	1.659337e+01	4.355630e+02
1.980000e-06	2.429679e-06	6.471974e-09	1.638121e+01	4.311651e+02
1.990000e-06	2.397456e-06	6.577483e-09	1.616395e+01	4.266148e+02
2.000000e-06	2.364441e-06	6.476845e-09	1.594136e+01	4.219373e+02
2.010000e-06	2.330723e-06	6.284054e-09	1.571403e+01	4.171597e+02
2.020000e-06	2.296159e-06	6.348928e-09	1.548100e+01	4.123030e+02
2.030000e-06	2.260959e-06	6.212502e-09	1.524367e+01	4.073755e+02
2.040000e-06	2.225058e-06	6.069513e-09	1.500162e+01	4.023717e+02
2.050000e-06	2.188044e-06	6.135069e-09	1.475207e+01	3.972758e+02
2.060000e-06	2.150053e-06	5.987768e-09	1.449593e+01	3.920678e+02
2.070000e-06	2.111285e-06	5.849830e-09	1.423455e+01	3.867325e+02
2.080000e-06	2.071852e-06	5.841790e-09	1.396869e+01	3.812648e+02
2.090000e-06	2.031804e-06	5.735631e-09	1.369868e+01	3.756717e+02
2.100000e-06	1.991019e-06	5.647034e-09	1.342370e+01	3.699694e+02
2.110000e-06	1.949593e-06	5.553513e-09	1.314440e+01	3.641777e+02
2.120000e-06	1.907550e-06	5.458640e-09	1.286095e+01	3.583130e+02
2.130000e-06	1.864835e-06	5.408697e-09	1.257295e+01	3.523821e+02
2.140000e-06	1.821632e-06	5.293983e-09	1.228167e+01	3.463815e+02
2.150000e-06	1.778017e-06	5.176663e-09	1.198762e+01	3.402988e+02
2.160000e-06	1.733831e-06	5.092773e-09	1.168971e+01	3.341183e+02
2.170000e-06	1.688905e-06	5.004996e-09	1.138681e+01	3.278268e+02
2.180000e-06	1.643264e-06	4.921025e-09	1.107909e+01	3.214191e+02
2.190000e-06	1.597150e-06	4.814526e-09	1.076819e+01	3.148986e+02
2.200000e-06	1.550572e-06	4.710115e-09	1.045416e+01	3.082763e+02
2.210000e-06	1.503413e-06	4.603294e-09	1.013620e+01	3.015657e+02
2.220000e-06	1.455536e-06	4.495020e-09	9.813411e+00	2.947778e+02
2.230000e-06	1.406884e-06	4.407414e-09	9.485393e+00	2.879166e+02
2.240000e-06	1.357721e-06	4.281419e-09	9.153924e+00	2.809785e+02
2.250000e-06	1.308242e-06	4.175765e-09	8.820335e+00	2.739539e+02
2.260000e-06	1.258329e-06	4.096823e-09	8.483811e+00	2.668318e+02
2.270000e-06	1.207862e-06	3.975088e-09	8.143561e+00	2.596048e+02
2.280000e-06	1.156908e-06	3.852715e-09	7.800020e+00	2.522730e+02
2.290000e-06	1.105592e-06	3.733095e-09	7.454044e+00	2.448451e+02
2.300000e-06	1.053928e-06	3.625503e-09	7.105716e+00	2.373366e+02
2.310000e-06	1.001798e-06	3.523912e-09	6.754253e+00	2.297655e+02
2.320000e-06	9.490494e-07	3.399596e-09	6.398612e+00	2.221470e+02
2.330000e-06	8.956805e-07	3.282186e-09	6.038791e+00	2.144894e+02
2.340000e-06	8.418429e-07	3.170539e-09	5.675812e+00	2.067927e+02
2.350000e-06	7.875495e-07	3.052233e-09	5.309759e+00	1.990492e+02
2.360000e-06	7.328511e-07	2.929920e-09	4.940976e+00	1.912476e+02
2.370000e-06	6.778841e-07	2.802675e-09	4.570381e+00	1.833767e+02
2.380000e-06	6.227342e-07	2.689364e-09	4.198553e+00	1.754302e+02
2.390000e-06	5.674579e-07	2.577980e-09	3.825873e+00	1.674080e+02
2.400000e-06	5.120784e-07	2.455667e-09	3.452497e+00	1.593162e+02
2.410000e-06	4.566222e-07	2.328967e-09	3.078605e+00	1.511640e+02
2.420000e-06	4.011262e-07	2.195789e-09	2.704444e+00	1.429604e+02
2.430000e-06	3.455322e-07	2.071232e-09	2.329622e+00	1.347107e+02
2.440000e-06	2.898190e-07	1.948515e-09	1.953997e+00	1.264146e+02
2.450000e-06	2.340290e-07	1.818500e-09	1.577853e+00	1.180669e+02
2.460000e-06	1.781963e-07	1.690100e-09	1.201422e+00	1.096598e+02
2.470000e-06	1.222984e-07	1.564613e-09	8.245516e-01	1.011862e+02
2.480000e-06	6.629886e-08	1.443273e-09	4.469953e-01	9.264321e+01
2.490000e-06	1.027183e-08	1.312493e-09	6.925401e-02	8.403348e+01
2.500000e-06	-4.573048e-08	1.172541e-09	-3.083207e-01	7.536472e+01
2.510000e-06	-1.017079e-07	1.037983e-09	-6.857273e-01	6.664703e+01
2.520000e-06	-1.576120e-07	9.065842e-10	-1.062640e+00	5.788907e+01
2.530000e-06	-2.134091e-07	7.724467e-10	-1.438831e+00	4.909440e+01
2.540000e-06	-2.691704e-07	6.336873e-10	-1.814781e+00	4.025924e+01
2.550000e-06	-3.249182e-07	4.969343e-10	-2.190640e+00	3.137271e+01
2.560000e-06	-3.805691e-07	3.672102e-10	-2.565845e+00	2.241942e+01
2.570000e-06	-4.360866e-07	2.349470e-10	-2.940152e+00	1.338382e+01
2.580000e-06	-4.914762e-07	9.508433e-11	-3.313595e+00	4.254894e+00
2.590000e-06	-5.467819e-07	-4.761825e-11	-3.686473e+00	-4.970454e+00
2.600000e-06	-6.020249e-07	-1.918239e-10	-4.058929e+00	-1.428632e+01
2.610000e-06	-6.571688e-07	-3.353051e-10	-4.430716e+00	-2.367964e+01
2.620000e-06	-7.121066e-07	-4.798702e-10	-4.801113e+00	-3.313425e+01
2.630000e-06	-7.667622e-07	-6.261596e-10	-5.169608e+00	-4.263612e+01
2.640000e-06	-8.210376e-07	-7.725995e-10	-5.535540e+00	-5.217773e+01
2.650000e-06	-8.748298e-07	-9.174845e-10	-5.898214e+00	-6.176041e+01
2.660000e-06	-9.281217e-07	-1.062634e-09	-6.257514e+00	-7.139356e+01
2.670000e-06	-9.808531e-07	-1.211754e-09	-6.613036e+00	-8.109106e+01
2.680000e-06	-1.033029e-06	-1.362898e-09	-6.964815e+00	-9.086594e+01
2.690000e-06	-1.084719e-06	-1.513991e-09	-7.313314e+00	-1.007251e+02
2.700000e-06	-1.136009e-06	-1.666404e-09	-7.659117e+00	-1.106657e+02
2.710000e-06	-1.186985e-06	-1.821666e-09	-8.002805e+00	-1.206749e+02
2.720000e-06	-1.237531e-06	-1.976489e-09	-8.343593e+00	-1.307321e+02
2.730000e-06	-1.287588e-06	-2.129437e-09	-8.681081e+00	-1.408147e+02
2.740000e-06	-1.337186e-06	-2.281323e-09	-9.015477e+00	-1.509029e+02
2.750000e-06	-1.386276e-06	-2.433955e-09	-9.346452e+00	-1.609849e+02
2.760000e-06	-1.434659e-06	-2.587200e-09	-9.672655e+00	-1.710583e+02
2.770000e-06	-1.482151e-06	-2.739632e-09	-9.992852e+00	-1.811284e+02
2.780000e-06	-1.528918e-06	-2.893024e-09	-1.030816e+01	-1.912040e+02
2.790000e-06	-1.575105e-06	-3.048348e-09	-1.061956e+01	-2.012921e+02
2.800000e-06	-1.620839e-06	-3.204701e-09	-1.092790e+01	-2.113927e+02
2.810000e-06	-1.666238e-06	-3.360377e-09	-1.123399e+01	-2.214965e+02
2.820000e-06	-1.711186e-06	-3.513952e-09	-1.153703e+01	-2.315853e+02
2.830000e-06	-1.755494e-06	-3.665975e-09	-1.183576e+01	-2.416355e+02
2.840000e-06	-1.799188e-06	-3.818261e-09	-1.213035e+01	-2.516228e+02
2.850000e-06	-1.842476e-06	-3.970174e-09	-1.242221e+01	-2.615264e+02
2.860000e-06	-1.885284e-06	-4.119465e-09	-1.271082e+01	-2.713321e+02
2.870000e-06	-1.927432e-06	-4.266611e-09	-1.299499e+01	-2.810316e+02
2.880000e-06	-1.968958e-06	-4.412637e-09	-1.327497e+01	-2.906197e+02
2.890000e-06	-2.009826e-06	-4.558484e-09	-1.355050e+01	-3.000907e+02
2.900000e-06	-2.049975e-06	-4.702564e-09	-1.382119e+01	-3.094338e+02
2.910000e-06	-2.089533e-06	-4.844132e-09	-1.408790e+01	-3.186320e+02
2.920000e-06	-2.128519e-06	-4.983443e-09	-1.435074e+01	-3.276617e+02
2.930000e-06	-2.166633e-06	-5.120194e-09	-1.460771e+01	-3.364966e+02
2.940000e-06	-2.203608e-06	-5.252907e-09	-1.485700e+01	-3.451114e+02
