# Temperatura_=_17.27
# Concentracion g/m^3_=_18700.0
# C_Vs_to_Am_M_A/Vsm_=_65563218390.804596
# pendiente_HvsI_1/m_=_3716.3
# ordenada_HvsI_A/m_=_1297.0
# frecuencia_Hz_=_301073.96699673746

Tiempo_(s)	Campo_(V.s)	Magnetizacion_(V.s)	Campo_(kA/m)	Magnetizacion_(A/m)
0.000000e+00	-2.933865e-06	-7.497621e-09	-1.977577e+01	-4.895452e+02
1.000000e-08	-2.933406e-06	-7.498422e-09	-1.977267e+01	-4.894911e+02
2.000000e-08	-2.932087e-06	-7.497889e-09	-1.976378e+01	-4.892618e+02
3.000000e-08	-2.929649e-06	-7.492617e-09	-1.974735e+01	-4.888977e+02
4.000000e-08	-2.926032e-06	-7.483836e-09	-1.972297e+01	-4.884244e+02
5.000000e-08	-2.921484e-06	-7.473100e-09	-1.969231e+01	-4.878404e+02
6.000000e-08	-2.916095e-06	-7.460226e-09	-1.965599e+01	-4.871166e+02
7.000000e-08	-2.909793e-06	-7.440672e-09	-1.961351e+01	-4.862077e+02
8.000000e-08	-2.902449e-06	-7.407205e-09	-1.956400e+01	-4.850726e+02
9.000000e-08	-2.893998e-06	-7.412967e-09	-1.950704e+01	-4.836951e+02
1.000000e-07	-2.884256e-06	-7.438778e-09	-1.944137e+01	-4.820966e+02
1.100000e-07	-2.872998e-06	-7.419849e-09	-1.936549e+01	-4.803349e+02
1.200000e-07	-2.860677e-06	-7.261506e-09	-1.928244e+01	-4.784890e+02
1.300000e-07	-2.847636e-06	-7.210666e-09	-1.919454e+01	-4.766343e+02
1.400000e-07	-2.833566e-06	-7.345555e-09	-1.909970e+01	-4.748171e+02
1.500000e-07	-2.818284e-06	-7.309242e-09	-1.899669e+01	-4.730385e+02
1.600000e-07	-2.801917e-06	-7.115305e-09	-1.888637e+01	-4.712528e+02
1.700000e-07	-2.784428e-06	-7.180511e-09	-1.876848e+01	-4.693816e+02
1.800000e-07	-2.765801e-06	-7.282421e-09	-1.864293e+01	-4.673389e+02
1.900000e-07	-2.746411e-06	-7.068486e-09	-1.851223e+01	-4.650576e+02
2.000000e-07	-2.726374e-06	-7.045531e-09	-1.837717e+01	-4.625085e+02
2.100000e-07	-2.705375e-06	-7.130590e-09	-1.823563e+01	-4.597049e+02
2.200000e-07	-2.683391e-06	-6.929595e-09	-1.808744e+01	-4.566926e+02
2.300000e-07	-2.660576e-06	-6.864099e-09	-1.793366e+01	-4.535290e+02
2.400000e-07	-2.636855e-06	-6.987167e-09	-1.777377e+01	-4.502604e+02
2.500000e-07	-2.612377e-06	-6.831422e-09	-1.760877e+01	-4.469057e+02
2.600000e-07	-2.587065e-06	-6.707674e-09	-1.743816e+01	-4.434524e+02
2.700000e-07	-2.560458e-06	-6.755759e-09	-1.725881e+01	-4.398657e+02
2.800000e-07	-2.532657e-06	-6.684524e-09	-1.707142e+01	-4.361058e+02
2.900000e-07	-2.503988e-06	-6.587452e-09	-1.687817e+01	-4.321465e+02
3.000000e-07	-2.474440e-06	-6.537894e-09	-1.667901e+01	-4.279868e+02
3.100000e-07	-2.444093e-06	-6.445139e-09	-1.647445e+01	-4.236519e+02
3.200000e-07	-2.413071e-06	-6.416219e-09	-1.626534e+01	-4.191832e+02
3.300000e-07	-2.381308e-06	-6.380559e-09	-1.605124e+01	-4.146220e+02
3.400000e-07	-2.348849e-06	-6.223651e-09	-1.583246e+01	-4.099938e+02
3.500000e-07	-2.315698e-06	-6.179554e-09	-1.560900e+01	-4.052993e+02
3.600000e-07	-2.281569e-06	-6.138365e-09	-1.537895e+01	-4.005172e+02
3.700000e-07	-2.246255e-06	-6.030567e-09	-1.514092e+01	-3.956143e+02
3.800000e-07	-2.210003e-06	-5.982521e-09	-1.489656e+01	-3.905617e+02
3.900000e-07	-2.173098e-06	-5.895748e-09	-1.464780e+01	-3.853477e+02
4.000000e-07	-2.135508e-06	-5.769841e-09	-1.439443e+01	-3.799838e+02
4.100000e-07	-2.097150e-06	-5.721900e-09	-1.413588e+01	-3.745006e+02
4.200000e-07	-2.057956e-06	-5.655304e-09	-1.387169e+01	-3.689356e+02
4.300000e-07	-2.018026e-06	-5.526084e-09	-1.360254e+01	-3.633192e+02
4.400000e-07	-1.977607e-06	-5.449782e-09	-1.333009e+01	-3.576627e+02
4.500000e-07	-1.936686e-06	-5.384551e-09	-1.305426e+01	-3.519553e+02
4.600000e-07	-1.894961e-06	-5.293922e-09	-1.277301e+01	-3.461699e+02
4.700000e-07	-1.852194e-06	-5.187605e-09	-1.248474e+01	-3.402747e+02
4.800000e-07	-1.808478e-06	-5.087199e-09	-1.219008e+01	-3.342471e+02
4.900000e-07	-1.764124e-06	-4.993706e-09	-1.189111e+01	-3.280823e+02
5.000000e-07	-1.719344e-06	-4.913496e-09	-1.158926e+01	-3.217952e+02
5.100000e-07	-1.674013e-06	-4.825270e-09	-1.128371e+01	-3.154132e+02
5.200000e-07	-1.628014e-06	-4.709344e-09	-1.097366e+01	-3.089643e+02
5.300000e-07	-1.581509e-06	-4.606681e-09	-1.066019e+01	-3.024662e+02
5.400000e-07	-1.534516e-06	-4.512115e-09	-1.034343e+01	-2.959188e+02
5.500000e-07	-1.486872e-06	-4.414546e-09	-1.002228e+01	-2.893056e+02
5.600000e-07	-1.438693e-06	-4.307083e-09	-9.697534e+00	-2.826011e+02
5.700000e-07	-1.390197e-06	-4.202292e-09	-9.370648e+00	-2.757821e+02
5.800000e-07	-1.341221e-06	-4.099326e-09	-9.040523e+00	-2.688374e+02
5.900000e-07	-1.291538e-06	-4.000499e-09	-8.705631e+00	-2.617721e+02
6.000000e-07	-1.241057e-06	-3.886902e-09	-8.365364e+00	-2.546045e+02
6.100000e-07	-1.189811e-06	-3.761829e-09	-8.019944e+00	-2.473585e+02
6.200000e-07	-1.137966e-06	-3.651173e-09	-7.670476e+00	-2.400528e+02
6.300000e-07	-1.085704e-06	-3.544805e-09	-7.318209e+00	-2.326944e+02
6.400000e-07	-1.033162e-06	-3.436833e-09	-6.964047e+00	-2.252769e+02
6.500000e-07	-9.803330e-07	-3.318196e-09	-6.607951e+00	-2.177852e+02
6.600000e-07	-9.271337e-07	-3.201764e-09	-6.249360e+00	-2.102048e+02
6.700000e-07	-8.735121e-07	-3.087082e-09	-5.887923e+00	-2.025305e+02
6.800000e-07	-8.195142e-07	-2.970816e-09	-5.523949e+00	-1.947712e+02
6.900000e-07	-7.652656e-07	-2.845578e-09	-5.158286e+00	-1.869485e+02
7.000000e-07	-7.108641e-07	-2.717593e-09	-4.791592e+00	-1.790895e+02
7.100000e-07	-6.562984e-07	-2.599888e-09	-4.423790e+00	-1.712163e+02
7.200000e-07	-6.015411e-07	-2.484344e-09	-4.054698e+00	-1.633374e+02
7.300000e-07	-5.465427e-07	-2.364955e-09	-3.683980e+00	-1.554442e+02
7.400000e-07	-4.913084e-07	-2.237833e-09	-3.311672e+00	-1.475143e+02
7.500000e-07	-4.358881e-07	-2.113651e-09	-2.938111e+00	-1.395193e+02
7.600000e-07	-3.802957e-07	-1.992275e-09	-2.563389e+00	-1.314363e+02
7.700000e-07	-3.245203e-07	-1.869778e-09	-2.187434e+00	-1.232553e+02
7.800000e-07	-2.685755e-07	-1.738738e-09	-1.810337e+00	-1.149829e+02
7.900000e-07	-2.125264e-07	-1.606263e-09	-1.432538e+00	-1.066378e+02
8.000000e-07	-1.564386e-07	-1.480576e-09	-1.054477e+00	-9.824343e+01
8.100000e-07	-1.003134e-07	-1.354531e-09	-6.761642e-01	-8.981804e+01
8.200000e-07	-4.414205e-08	-1.225058e-09	-2.975402e-01	-8.136845e+01
8.300000e-07	1.205827e-08	-1.090800e-09	8.127900e-02	-7.288875e+01
8.400000e-07	6.827087e-08	-9.602882e-10	4.601809e-01	-6.436456e+01
8.500000e-07	1.244189e-07	-8.312490e-10	8.386479e-01	-5.578053e+01
8.600000e-07	1.804592e-07	-6.992195e-10	1.216388e+00	-4.712767e+01
8.700000e-07	2.364558e-07	-5.610148e-10	1.593834e+00	-3.840710e+01
8.800000e-07	2.924018e-07	-4.251533e-10	1.970939e+00	-2.962883e+01
8.900000e-07	3.482239e-07	-2.947465e-10	2.347209e+00	-2.080604e+01
9.000000e-07	4.039102e-07	-1.630596e-10	2.722563e+00	-1.194783e+01
9.100000e-07	4.594499e-07	-2.737371e-11	3.096930e+00	-3.053649e+00
9.200000e-07	5.147778e-07	1.122108e-10	3.469868e+00	5.887809e+00
9.300000e-07	5.699035e-07	2.515420e-10	3.841444e+00	1.489468e+01
9.400000e-07	6.248567e-07	3.928201e-10	4.211857e+00	2.398455e+01
9.500000e-07	6.796146e-07	5.342451e-10	4.580954e+00	3.316682e+01
9.600000e-07	7.341901e-07	6.779712e-10	4.948820e+00	4.243816e+01
9.700000e-07	7.885251e-07	8.196244e-10	5.315066e+00	5.178318e+01
9.800000e-07	8.426052e-07	9.579889e-10	5.679594e+00	6.118001e+01
9.900000e-07	8.964026e-07	1.098167e-09	6.042217e+00	7.060855e+01
1.000000e-06	9.498492e-07	1.242092e-09	6.402475e+00	8.005789e+01
1.010000e-06	1.002912e-06	1.389902e-09	6.760145e+00	8.952969e+01
1.020000e-06	1.055594e-06	1.537399e-09	7.115251e+00	9.903601e+01
1.030000e-06	1.107898e-06	1.683698e-09	7.467805e+00	1.085927e+02
1.040000e-06	1.159760e-06	1.829732e-09	7.817385e+00	1.182109e+02
1.050000e-06	1.211038e-06	1.977648e-09	8.163022e+00	1.278906e+02
1.060000e-06	1.261623e-06	2.124917e-09	8.503991e+00	1.376189e+02
1.070000e-06	1.311494e-06	2.272776e-09	8.840150e+00	1.473734e+02
1.080000e-06	1.360685e-06	2.421613e-09	9.171722e+00	1.571300e+02
1.090000e-06	1.409360e-06	2.571051e-09	9.499814e+00	1.668709e+02
1.100000e-06	1.457661e-06	2.720361e-09	9.825386e+00	1.765900e+02
1.110000e-06	1.505590e-06	2.867862e-09	1.014846e+01	1.862932e+02
1.120000e-06	1.552988e-06	3.015271e-09	1.046794e+01	1.959930e+02
1.130000e-06	1.599785e-06	3.164199e-09	1.078338e+01	2.057003e+02
1.140000e-06	1.646059e-06	3.313825e-09	1.109529e+01	2.154167e+02
1.150000e-06	1.691741e-06	3.461652e-09	1.140321e+01	2.251306e+02
1.160000e-06	1.736815e-06	3.608007e-09	1.170703e+01	2.348181e+02
1.170000e-06	1.781440e-06	3.752780e-09	1.200782e+01	2.444492e+02
1.180000e-06	1.825666e-06	3.897429e-09	1.230593e+01	2.539964e+02
1.190000e-06	1.869315e-06	4.041021e-09	1.260015e+01	2.634411e+02
1.200000e-06	1.912097e-06	4.183466e-09	1.288852e+01	2.727766e+02
1.210000e-06	1.953868e-06	4.326422e-09	1.317008e+01	2.820053e+02
1.220000e-06	1.994752e-06	4.466320e-09	1.344566e+01	2.911323e+02
1.230000e-06	2.035064e-06	4.602326e-09	1.371738e+01	3.001577e+02
1.240000e-06	2.074811e-06	4.735012e-09	1.398530e+01	3.090714e+02
1.250000e-06	2.113819e-06	4.865826e-09	1.424823e+01	3.178524e+02
1.260000e-06	2.152143e-06	4.996090e-09	1.450656e+01	3.264731e+02
1.270000e-06	2.189748e-06	5.124342e-09	1.476004e+01	3.349063e+02
1.280000e-06	2.226618e-06	5.249256e-09	1.500856e+01	3.431318e+02
1.290000e-06	2.262896e-06	5.370045e-09	1.525309e+01	3.511401e+02
1.300000e-06	2.298434e-06	5.487806e-09	1.549263e+01	3.589310e+02
1.310000e-06	2.332935e-06	5.601825e-09	1.572519e+01	3.665087e+02
1.320000e-06	2.366359e-06	5.711551e-09	1.595048e+01	3.738749e+02
1.330000e-06	2.398903e-06	5.817900e-09	1.616984e+01	3.810245e+02
1.340000e-06	2.430748e-06	5.923111e-09	1.638450e+01	3.879450e+02
1.350000e-06	2.461820e-06	6.024937e-09	1.659394e+01	3.946206e+02
1.360000e-06	2.492064e-06	6.121013e-09	1.679780e+01	4.010398e+02
1.370000e-06	2.521519e-06	6.211500e-09	1.699634e+01	4.072013e+02
1.380000e-06	2.550268e-06	6.299687e-09	1.719012e+01	4.131172e+02
1.390000e-06	2.578232e-06	6.387928e-09	1.737862e+01	4.188098e+02
1.400000e-06	2.605095e-06	6.473213e-09	1.755969e+01	4.243038e+02
1.410000e-06	2.630651e-06	6.553369e-09	1.773195e+01	4.296170e+02
1.420000e-06	2.655149e-06	6.628886e-09	1.789708e+01	4.347522e+02
1.430000e-06	2.678785e-06	6.702437e-09	1.805639e+01	4.396956e+02
1.440000e-06	2.701502e-06	6.773114e-09	1.820952e+01	4.444219e+02
1.450000e-06	2.723369e-06	6.838649e-09	1.835692e+01	4.489039e+02
1.460000e-06	2.744400e-06	6.899968e-09	1.849867e+01	4.531237e+02
1.470000e-06	2.764662e-06	6.959164e-09	1.863525e+01	4.570799e+02
1.480000e-06	2.784049e-06	7.015502e-09	1.876593e+01	4.607883e+02
1.490000e-06	2.802296e-06	7.067445e-09	1.888892e+01	4.642746e+02
1.500000e-06	2.819537e-06	7.115083e-09	1.900514e+01	4.675628e+02
1.510000e-06	2.835823e-06	7.159379e-09	1.911492e+01	4.706635e+02
1.520000e-06	2.850965e-06	7.202137e-09	1.921698e+01	4.735681e+02
1.530000e-06	2.865003e-06	7.241322e-09	1.931160e+01	4.762509e+02
1.540000e-06	2.878002e-06	7.274356e-09	1.939922e+01	4.786797e+02
1.550000e-06	2.889891e-06	7.302903e-09	1.947936e+01	4.808304e+02
1.560000e-06	2.900503e-06	7.330313e-09	1.955089e+01	4.826999e+02
1.570000e-06	2.909845e-06	7.357035e-09	1.961386e+01	4.843117e+02
1.580000e-06	2.918181e-06	7.380122e-09	1.967005e+01	4.857113e+02
1.590000e-06	2.925579e-06	7.399420e-09	1.971991e+01	4.869527e+02
1.600000e-06	2.931982e-06	7.415925e-09	1.976307e+01	4.880806e+02
1.610000e-06	2.937421e-06	7.431077e-09	1.979974e+01	4.891160e+02
1.620000e-06	2.941970e-06	7.444347e-09	1.983040e+01	4.900496e+02
1.630000e-06	2.945552e-06	7.454401e-09	1.985454e+01	4.908476e+02
1.640000e-06	2.947880e-06	7.463272e-09	1.987023e+01	4.914658e+02
1.650000e-06	2.948963e-06	7.470497e-09	1.987754e+01	4.918684e+02
1.660000e-06	2.949106e-06	7.475349e-09	1.987850e+01	4.920424e+02
1.670000e-06	2.948352e-06	7.477071e-09	1.987341e+01	4.920026e+02
1.680000e-06	2.946688e-06	7.473222e-09	1.986220e+01	4.917848e+02
1.690000e-06	2.944140e-06	7.469014e-09	1.984503e+01	4.914295e+02
1.700000e-06	2.940736e-06	7.464571e-09	1.982208e+01	4.909640e+02
1.710000e-06	2.936466e-06	7.455783e-09	1.979330e+01	4.903889e+02
1.720000e-06	2.931067e-06	7.445247e-09	1.975691e+01	4.896768e+02
1.730000e-06	2.924493e-06	7.442511e-09	1.971259e+01	4.887830e+02
1.740000e-06	2.917019e-06	7.442060e-09	1.966222e+01	4.876653e+02
1.750000e-06	2.908526e-06	7.364455e-09	1.960497e+01	4.863052e+02
1.760000e-06	2.898513e-06	7.290669e-09	1.953748e+01	4.847212e+02
1.770000e-06	2.886939e-06	7.346104e-09	1.945946e+01	4.829690e+02
1.780000e-06	2.874620e-06	7.418749e-09	1.937642e+01	4.811267e+02
1.790000e-06	2.862164e-06	7.307760e-09	1.929246e+01	4.792709e+02
1.800000e-06	2.848684e-06	7.121882e-09	1.920160e+01	4.774507e+02
1.810000e-06	2.833463e-06	7.258050e-09	1.909900e+01	4.756707e+02
1.820000e-06	2.817253e-06	7.303910e-09	1.898974e+01	4.738882e+02
1.830000e-06	2.800481e-06	7.077111e-09	1.887669e+01	4.720263e+02
1.840000e-06	2.782539e-06	7.108330e-09	1.875575e+01	4.699988e+02
1.850000e-06	2.763448e-06	7.209878e-09	1.862707e+01	4.677363e+02
1.860000e-06	2.743737e-06	6.999582e-09	1.849421e+01	4.652066e+02
1.870000e-06	2.722924e-06	6.952961e-09	1.835391e+01	4.624203e+02
1.880000e-06	2.700559e-06	7.127403e-09	1.820316e+01	4.594213e+02
1.890000e-06	2.677239e-06	6.938631e-09	1.804597e+01	4.562670e+02
1.900000e-06	2.653161e-06	6.788844e-09	1.788367e+01	4.530052e+02
1.910000e-06	2.628159e-06	6.934892e-09	1.771515e+01	4.496570e+02
1.920000e-06	2.602444e-06	6.816129e-09	1.754182e+01	4.462120e+02
1.930000e-06	2.575951e-06	6.663597e-09	1.736324e+01	4.426366e+02
1.940000e-06	2.548649e-06	6.724335e-09	1.717921e+01	4.388905e+02
1.950000e-06	2.520573e-06	6.619171e-09	1.698996e+01	4.349461e+02
1.960000e-06	2.491236e-06	6.570786e-09	1.679222e+01	4.308004e+02
1.970000e-06	2.460567e-06	6.546543e-09	1.658549e+01	4.264771e+02
1.980000e-06	2.429110e-06	6.358986e-09	1.637346e+01	4.220168e+02
1.990000e-06	2.396922e-06	6.352147e-09	1.615649e+01	4.174614e+02
2.000000e-06	2.363907e-06	6.350836e-09	1.593395e+01	4.128379e+02
2.010000e-06	2.330132e-06	6.168181e-09	1.570629e+01	4.081490e+02
2.020000e-06	2.295575e-06	6.148804e-09	1.547336e+01	4.033745e+02
2.030000e-06	2.260391e-06	6.096859e-09	1.523620e+01	3.984817e+02
2.040000e-06	2.224534e-06	5.941264e-09	1.499451e+01	3.934407e+02
2.050000e-06	2.187566e-06	5.939032e-09	1.474533e+01	3.882385e+02
2.060000e-06	2.149515e-06	5.849727e-09	1.448884e+01	3.828847e+02
2.070000e-06	2.110706e-06	5.712478e-09	1.422725e+01	3.774091e+02
2.080000e-06	2.071232e-06	5.679004e-09	1.396117e+01	3.718491e+02
2.090000e-06	2.031110e-06	5.587703e-09	1.369073e+01	3.662360e+02
2.100000e-06	1.990302e-06	5.488874e-09	1.341566e+01	3.605827e+02
2.110000e-06	1.948868e-06	5.403874e-09	1.313637e+01	3.548801e+02
2.120000e-06	1.906791e-06	5.305302e-09	1.285275e+01	3.491016e+02
2.130000e-06	1.864011e-06	5.245167e-09	1.256439e+01	3.432155e+02
2.140000e-06	1.820748e-06	5.153762e-09	1.227279e+01	3.371980e+02
2.150000e-06	1.777049e-06	5.043779e-09	1.197823e+01	3.310431e+02
2.160000e-06	1.732739e-06	4.947025e-09	1.167955e+01	3.247642e+02
2.170000e-06	1.687671e-06	4.845083e-09	1.137578e+01	3.183883e+02
2.180000e-06	1.641918e-06	4.767911e-09	1.106737e+01	3.119438e+02
2.190000e-06	1.595716e-06	4.662835e-09	1.075595e+01	3.054492e+02
2.200000e-06	1.549054e-06	4.556606e-09	1.044142e+01	2.989061e+02
2.210000e-06	1.501805e-06	4.463835e-09	1.012294e+01	2.922986e+02
2.220000e-06	1.453889e-06	4.350898e-09	9.799960e+00	2.856018e+02
2.230000e-06	1.405257e-06	4.257943e-09	9.472156e+00	2.787919e+02
2.240000e-06	1.356099e-06	4.144274e-09	9.140805e+00	2.718565e+02
2.250000e-06	1.306536e-06	4.026971e-09	8.806728e+00	2.647996e+02
2.260000e-06	1.256474e-06	3.938587e-09	8.469281e+00	2.576389e+02
2.270000e-06	1.205934e-06	3.831950e-09	8.128618e+00	2.503980e+02
2.280000e-06	1.154960e-06	3.715324e-09	7.785026e+00	2.430964e+02
2.290000e-06	1.103644e-06	3.597387e-09	7.439131e+00	2.357422e+02
2.300000e-06	1.051983e-06	3.479990e-09	7.090910e+00	2.283297e+02
2.310000e-06	9.997905e-07	3.375681e-09	6.739105e+00	2.208442e+02
2.320000e-06	9.469013e-07	3.259567e-09	6.382604e+00	2.132707e+02
2.330000e-06	8.933632e-07	3.140700e-09	6.021729e+00	2.056033e+02
2.340000e-06	8.393534e-07	3.027704e-09	5.657675e+00	1.978498e+02
2.350000e-06	7.849276e-07	2.909554e-09	5.290818e+00	1.900311e+02
2.360000e-06	7.301431e-07	2.792375e-09	4.921542e+00	1.821741e+02
2.370000e-06	6.751126e-07	2.664764e-09	4.550608e+00	1.743017e+02
2.380000e-06	6.199166e-07	2.544699e-09	4.178558e+00	1.664236e+02
2.390000e-06	5.646421e-07	2.433426e-09	3.805979e+00	1.585324e+02
2.400000e-06	5.093165e-07	2.316282e-09	3.433056e+00	1.506063e+02
2.410000e-06	4.539279e-07	2.195873e-09	3.059709e+00	1.426172e+02
2.420000e-06	3.984522e-07	2.067214e-09	2.685773e+00	1.345412e+02
2.430000e-06	3.428337e-07	1.942209e-09	2.310876e+00	1.263676e+02
2.440000e-06	2.870649e-07	1.819489e-09	1.934965e+00	1.181014e+02
2.450000e-06	2.311976e-07	1.691848e-09	1.558391e+00	1.097611e+02
2.460000e-06	1.752625e-07	1.564102e-09	1.181360e+00	1.013698e+02
2.470000e-06	1.192781e-07	1.438416e-09	8.039962e-01	9.294658e+01
2.480000e-06	6.326846e-08	1.314930e-09	4.264621e-01	8.449908e+01
2.490000e-06	7.227746e-09	1.187473e-09	4.871874e-02	7.602226e+01
2.500000e-06	-4.881615e-08	1.053810e-09	-3.290461e-01	6.750210e+01
2.510000e-06	-1.047951e-07	9.207531e-10	-7.063729e-01	5.892306e+01
2.520000e-06	-1.607036e-07	7.910394e-10	-1.083225e+00	5.027550e+01
2.530000e-06	-2.165518e-07	6.607714e-10	-1.459671e+00	4.155983e+01
2.540000e-06	-2.723391e-07	5.262954e-10	-1.835706e+00	3.278554e+01
2.550000e-06	-3.280826e-07	3.881795e-10	-2.211446e+00	2.396585e+01
2.560000e-06	-3.836879e-07	2.543480e-10	-2.586255e+00	1.511036e+01
2.570000e-06	-4.391333e-07	1.220192e-10	-2.959985e+00	6.219315e+00
2.580000e-06	-4.944925e-07	-1.313237e-11	-3.333135e+00	-2.717903e+00
2.590000e-06	-5.497826e-07	-1.501825e-10	-3.705819e+00	-1.171916e+01
2.600000e-06	-6.050016e-07	-2.877559e-10	-4.078023e+00	-2.080235e+01
2.610000e-06	-6.601092e-07	-4.245414e-10	-4.449477e+00	-2.997766e+01
2.620000e-06	-7.150707e-07	-5.636827e-10	-4.819946e+00	-3.924273e+01
2.630000e-06	-7.697999e-07	-7.067167e-10	-5.188849e+00	-4.858287e+01
2.640000e-06	-8.241230e-07	-8.536562e-10	-5.555014e+00	-5.797642e+01
2.650000e-06	-8.779806e-07	-9.994515e-10	-5.918043e+00	-6.740289e+01
2.660000e-06	-9.313093e-07	-1.143555e-09	-6.277506e+00	-7.685054e+01
2.670000e-06	-9.840731e-07	-1.287732e-09	-6.633161e+00	-8.632012e+01
2.680000e-06	-1.036336e-06	-1.433310e-09	-6.985439e+00	-9.582314e+01
2.690000e-06	-1.088112e-06	-1.578215e-09	-7.334438e+00	-1.053754e+02
2.700000e-06	-1.139454e-06	-1.722957e-09	-7.680510e+00	-1.149888e+02
2.710000e-06	-1.190425e-06	-1.870695e-09	-8.024081e+00	-1.246641e+02
2.720000e-06	-1.240986e-06	-2.020499e-09	-8.364883e+00	-1.343893e+02
2.730000e-06	-1.291069e-06	-2.171653e-09	-8.702471e+00	-1.441424e+02
2.740000e-06	-1.340645e-06	-2.320616e-09	-9.036638e+00	-1.538992e+02
2.750000e-06	-1.389709e-06	-2.466977e-09	-9.367356e+00	-1.636413e+02
2.760000e-06	-1.438123e-06	-2.614020e-09	-9.693692e+00	-1.733616e+02
2.770000e-06	-1.485755e-06	-2.763040e-09	-1.001476e+01	-1.830653e+02
2.780000e-06	-1.532611e-06	-2.911797e-09	-1.033059e+01	-1.927646e+02
2.790000e-06	-1.578801e-06	-3.059435e-09	-1.064193e+01	-2.024708e+02
2.800000e-06	-1.624541e-06	-3.206987e-09	-1.095025e+01	-2.121865e+02
2.810000e-06	-1.669882e-06	-3.356017e-09	-1.125586e+01	-2.219010e+02
2.820000e-06	-1.714710e-06	-3.505759e-09	-1.155803e+01	-2.315910e+02
2.830000e-06	-1.758958e-06	-3.653438e-09	-1.185628e+01	-2.412269e+02
2.840000e-06	-1.802657e-06	-3.800083e-09	-1.215084e+01	-2.507805e+02
2.850000e-06	-1.845871e-06	-3.946627e-09	-1.244212e+01	-2.602326e+02
2.860000e-06	-1.888567e-06	-4.091924e-09	-1.272992e+01	-2.695755e+02
2.870000e-06	-1.930637e-06	-4.232933e-09	-1.301349e+01	-2.788114e+02
2.880000e-06	-1.972062e-06	-4.370117e-09	-1.329272e+01	-2.879452e+02
2.890000e-06	-2.012841e-06	-4.507980e-09	-1.356759e+01	-2.969778e+02
2.900000e-06	-2.052951e-06	-4.646656e-09	-1.383795e+01	-3.058997e+02
2.910000e-06	-2.092435e-06	-4.783452e-09	-1.410409e+01	-3.146907e+02
2.920000e-06	-2.131320e-06	-4.916368e-09	-1.436620e+01	-3.233235e+02
2.930000e-06	-2.169393e-06	-5.046343e-09	-1.462283e+01	-3.317706e+02
2.940000e-06	-2.206414e-06	-5.173891e-09	-1.487237e+01	-3.400111e+02
