# Temperatura_=_21.04
# Concentracion g/m^3_=_18700.0
# C_Vs_to_Am_M_A/Vsm_=_65563218390.804596
# pendiente_HvsI_1/m_=_3716.3
# ordenada_HvsI_A/m_=_1297.0
# frecuencia_Hz_=_301077.3002620018

Tiempo_(s)	Campo_(V.s)	Magnetizacion_(V.s)	Campo_(kA/m)	Magnetizacion_(A/m)
0.000000e+00	-2.932352e-06	-7.627322e-09	-1.977257e+01	-4.976586e+02
1.000000e-08	-2.931238e-06	-7.627679e-09	-1.976505e+01	-4.974139e+02
2.000000e-08	-2.928960e-06	-7.622028e-09	-1.974969e+01	-4.970585e+02
3.000000e-08	-2.925413e-06	-7.614348e-09	-1.972577e+01	-4.966245e+02
4.000000e-08	-2.920964e-06	-7.606544e-09	-1.969577e+01	-4.961112e+02
5.000000e-08	-2.915700e-06	-7.593070e-09	-1.966028e+01	-4.954834e+02
6.000000e-08	-2.909526e-06	-7.564468e-09	-1.961865e+01	-4.946842e+02
7.000000e-08	-2.902403e-06	-7.525893e-09	-1.957062e+01	-4.936589e+02
8.000000e-08	-2.894237e-06	-7.567832e-09	-1.951556e+01	-4.923798e+02
9.000000e-08	-2.884695e-06	-7.633774e-09	-1.945122e+01	-4.908633e+02
1.000000e-07	-2.873543e-06	-7.576699e-09	-1.937602e+01	-4.891715e+02
1.100000e-07	-2.861349e-06	-7.328798e-09	-1.929380e+01	-4.873968e+02
1.200000e-07	-2.848520e-06	-7.330517e-09	-1.920729e+01	-4.856339e+02
1.300000e-07	-2.834702e-06	-7.572023e-09	-1.911412e+01	-4.839490e+02
1.400000e-07	-2.819628e-06	-7.425149e-09	-1.901248e+01	-4.823565e+02
1.500000e-07	-2.803339e-06	-7.189571e-09	-1.890264e+01	-4.808120e+02
1.600000e-07	-2.785879e-06	-7.393208e-09	-1.878491e+01	-4.792237e+02
1.700000e-07	-2.767378e-06	-7.475822e-09	-1.866016e+01	-4.774796e+02
1.800000e-07	-2.748085e-06	-7.153992e-09	-1.853007e+01	-4.754793e+02
1.900000e-07	-2.728077e-06	-7.211426e-09	-1.839516e+01	-4.731615e+02
2.000000e-07	-2.707128e-06	-7.328872e-09	-1.825390e+01	-4.705177e+02
2.100000e-07	-2.685225e-06	-7.015104e-09	-1.810621e+01	-4.675874e+02
2.200000e-07	-2.662581e-06	-7.014892e-09	-1.795352e+01	-4.644397e+02
2.300000e-07	-2.639070e-06	-7.219615e-09	-1.779499e+01	-4.611464e+02
2.400000e-07	-2.614672e-06	-6.976518e-09	-1.763048e+01	-4.577588e+02
2.500000e-07	-2.589460e-06	-6.831229e-09	-1.746047e+01	-4.542937e+02
2.600000e-07	-2.563011e-06	-6.921468e-09	-1.728213e+01	-4.507346e+02
2.700000e-07	-2.535329e-06	-6.838206e-09	-1.709548e+01	-4.470446e+02
2.800000e-07	-2.506882e-06	-6.753845e-09	-1.690366e+01	-4.431852e+02
2.900000e-07	-2.477615e-06	-6.688607e-09	-1.670632e+01	-4.391337e+02
3.000000e-07	-2.447462e-06	-6.600252e-09	-1.650300e+01	-4.348922e+02
3.100000e-07	-2.416561e-06	-6.608003e-09	-1.629463e+01	-4.304855e+02
3.200000e-07	-2.384909e-06	-6.536229e-09	-1.608121e+01	-4.259496e+02
3.300000e-07	-2.352556e-06	-6.363009e-09	-1.586305e+01	-4.213175e+02
3.400000e-07	-2.319483e-06	-6.361766e-09	-1.564005e+01	-4.166065e+02
3.500000e-07	-2.285419e-06	-6.299942e-09	-1.541036e+01	-4.118136e+02
3.600000e-07	-2.250197e-06	-6.184506e-09	-1.517286e+01	-4.069198e+02
3.700000e-07	-2.214062e-06	-6.184056e-09	-1.492920e+01	-4.019005e+02
3.800000e-07	-2.177297e-06	-6.057153e-09	-1.468130e+01	-3.967379e+02
3.900000e-07	-2.139841e-06	-5.915842e-09	-1.442874e+01	-3.914298e+02
4.000000e-07	-2.101555e-06	-5.909203e-09	-1.417058e+01	-3.859908e+02
4.100000e-07	-2.062446e-06	-5.833486e-09	-1.390687e+01	-3.804468e+02
4.200000e-07	-2.022644e-06	-5.681930e-09	-1.363849e+01	-3.748246e+02
4.300000e-07	-1.982345e-06	-5.621547e-09	-1.336676e+01	-3.691413e+02
4.400000e-07	-1.941534e-06	-5.561771e-09	-1.309157e+01	-3.633983e+02
4.500000e-07	-1.899933e-06	-5.469945e-09	-1.281106e+01	-3.575823e+02
4.600000e-07	-1.857313e-06	-5.363845e-09	-1.252368e+01	-3.516718e+02
4.700000e-07	-1.813757e-06	-5.250770e-09	-1.222999e+01	-3.456468e+02
4.800000e-07	-1.769571e-06	-5.161084e-09	-1.193204e+01	-3.394979e+02
4.900000e-07	-1.724910e-06	-5.087089e-09	-1.163090e+01	-3.332295e+02
5.000000e-07	-1.679692e-06	-4.998662e-09	-1.132600e+01	-3.268578e+02
5.100000e-07	-1.633862e-06	-4.876589e-09	-1.101697e+01	-3.204035e+02
5.200000e-07	-1.587492e-06	-4.777571e-09	-1.070430e+01	-3.138828e+02
5.300000e-07	-1.540552e-06	-4.685818e-09	-1.038779e+01	-3.073014e+02
5.400000e-07	-1.492999e-06	-4.590440e-09	-1.006715e+01	-3.006522e+02
5.500000e-07	-1.444950e-06	-4.477299e-09	-9.743154e+00	-2.939194e+02
5.600000e-07	-1.396480e-06	-4.361465e-09	-9.416330e+00	-2.870857e+02
5.700000e-07	-1.347509e-06	-4.264881e-09	-9.086123e+00	-2.801401e+02
5.800000e-07	-1.297912e-06	-4.171604e-09	-8.751695e+00	-2.730828e+02
5.900000e-07	-1.247543e-06	-4.054546e-09	-8.412062e+00	-2.659244e+02
6.000000e-07	-1.196394e-06	-3.926162e-09	-8.067171e+00	-2.586819e+02
6.100000e-07	-1.144658e-06	-3.822895e-09	-7.718318e+00	-2.513710e+02
6.200000e-07	-1.092492e-06	-3.720529e-09	-7.366566e+00	-2.440003e+02
6.300000e-07	-1.040022e-06	-3.608843e-09	-7.012770e+00	-2.365686e+02
6.400000e-07	-9.872970e-07	-3.480992e-09	-6.657247e+00	-2.290665e+02
6.500000e-07	-9.341787e-07	-3.360931e-09	-6.299076e+00	-2.214826e+02
6.600000e-07	-8.806138e-07	-3.252751e-09	-5.937893e+00	-2.138101e+02
6.700000e-07	-8.267179e-07	-3.140207e-09	-5.574478e+00	-2.060517e+02
6.800000e-07	-7.725698e-07	-3.014448e-09	-5.209363e+00	-1.982206e+02
6.900000e-07	-7.182293e-07	-2.883853e-09	-4.842950e+00	-1.903362e+02
7.000000e-07	-6.637282e-07	-2.768930e-09	-4.475454e+00	-1.824177e+02
7.100000e-07	-6.090452e-07	-2.651822e-09	-4.106732e+00	-1.744770e+02
7.200000e-07	-5.541942e-07	-2.523601e-09	-3.736877e+00	-1.665139e+02
7.300000e-07	-4.990736e-07	-2.389391e-09	-3.365205e+00	-1.585163e+02
7.400000e-07	-4.436497e-07	-2.268434e-09	-2.991486e+00	-1.504646e+02
7.500000e-07	-3.880253e-07	-2.155149e-09	-2.616416e+00	-1.423381e+02
7.600000e-07	-3.322131e-07	-2.033637e-09	-2.240081e+00	-1.341224e+02
7.700000e-07	-2.762689e-07	-1.898306e-09	-1.862854e+00	-1.258130e+02
7.800000e-07	-2.202547e-07	-1.762443e-09	-1.485156e+00	-1.174159e+02
7.900000e-07	-1.641994e-07	-1.637499e-09	-1.107180e+00	-1.089439e+02
8.000000e-07	-1.081355e-07	-1.509608e-09	-7.291468e-01	-1.004113e+02
8.100000e-07	-5.205546e-08	-1.375882e-09	-3.510049e-01	-9.182912e+01
8.200000e-07	4.065210e-09	-1.238958e-09	2.741132e-02	-8.320245e+01
8.300000e-07	6.018160e-08	-1.110431e-09	4.057986e-01	-7.453037e+01
8.400000e-07	1.162490e-07	-9.824726e-10	7.838559e-01	-6.580855e+01
8.500000e-07	1.722403e-07	-8.458862e-10	1.161399e+00	-5.703223e+01
8.600000e-07	2.282122e-07	-7.034993e-10	1.538812e+00	-4.819824e+01
8.700000e-07	2.841682e-07	-5.658443e-10	1.916118e+00	-3.930514e+01
8.800000e-07	3.399893e-07	-4.371623e-10	2.292515e+00	-3.035168e+01
8.900000e-07	3.956459e-07	-3.031807e-10	2.667802e+00	-2.133470e+01
9.000000e-07	4.511534e-07	-1.610187e-10	3.042083e+00	-1.224814e+01
9.100000e-07	5.065007e-07	-1.676340e-11	3.415285e+00	-3.083854e+00
9.200000e-07	5.616462e-07	1.234675e-10	3.787125e+00	6.165434e+00
9.300000e-07	6.165407e-07	2.666456e-10	4.157274e+00	1.550257e+01
9.400000e-07	6.712344e-07	4.127188e-10	4.526068e+00	2.492335e+01
9.500000e-07	7.257628e-07	5.592254e-10	4.893748e+00	3.441648e+01
9.600000e-07	7.800870e-07	7.018458e-10	5.260050e+00	4.396659e+01
9.700000e-07	8.341870e-07	8.411736e-10	5.624842e+00	5.355955e+01
9.800000e-07	8.880230e-07	9.859839e-10	5.987852e+00	6.318781e+01
9.900000e-07	9.414731e-07	1.135676e-09	6.348261e+00	7.285383e+01
1.000000e-06	9.944768e-07	1.287613e-09	6.705660e+00	8.256963e+01
1.010000e-06	1.047113e-06	1.436040e-09	7.060581e+00	9.235247e+01
1.020000e-06	1.099402e-06	1.585411e-09	7.413162e+00	1.022180e+02
1.030000e-06	1.151330e-06	1.738110e-09	7.763305e+00	1.121736e+02
1.040000e-06	1.202811e-06	1.892254e-09	8.110437e+00	1.222144e+02
1.050000e-06	1.253662e-06	2.043957e-09	8.453319e+00	1.323233e+02
1.060000e-06	1.303697e-06	2.195526e-09	8.790703e+00	1.424758e+02
1.070000e-06	1.352909e-06	2.350591e-09	9.122535e+00	1.526472e+02
1.080000e-06	1.401563e-06	2.507397e-09	9.450604e+00	1.628188e+02
1.090000e-06	1.449888e-06	2.664224e-09	9.776452e+00	1.729817e+02
1.100000e-06	1.497845e-06	2.820988e-09	1.009982e+01	1.831364e+02
1.110000e-06	1.545287e-06	2.979041e-09	1.041972e+01	1.932882e+02
1.120000e-06	1.592140e-06	3.135954e-09	1.073565e+01	2.034408e+02
1.130000e-06	1.638477e-06	3.290630e-09	1.104809e+01	2.135908e+02
1.140000e-06	1.684240e-06	3.441026e-09	1.135667e+01	2.237256e+02
1.150000e-06	1.729342e-06	3.591069e-09	1.166078e+01	2.338254e+02
1.160000e-06	1.773962e-06	3.745015e-09	1.196165e+01	2.438678e+02
1.170000e-06	1.818256e-06	3.899996e-09	1.226033e+01	2.538340e+02
1.180000e-06	1.862089e-06	4.053048e-09	1.255588e+01	2.637122e+02
1.190000e-06	1.905111e-06	4.202704e-09	1.284598e+01	2.734983e+02
1.200000e-06	1.947074e-06	4.351429e-09	1.312893e+01	2.831919e+02
1.210000e-06	1.988052e-06	4.499243e-09	1.340524e+01	2.927909e+02
1.220000e-06	2.028377e-06	4.643092e-09	1.367715e+01	3.022862e+02
1.230000e-06	2.068165e-06	4.780096e-09	1.394544e+01	3.116589e+02
1.240000e-06	2.107300e-06	4.913781e-09	1.420932e+01	3.208824e+02
1.250000e-06	2.145743e-06	5.050056e-09	1.446854e+01	3.299274e+02
1.260000e-06	2.183393e-06	5.186881e-09	1.472241e+01	3.387680e+02
1.270000e-06	2.220272e-06	5.320091e-09	1.497108e+01	3.473869e+02
1.280000e-06	2.256608e-06	5.446753e-09	1.521609e+01	3.557764e+02
1.290000e-06	2.292348e-06	5.570158e-09	1.545708e+01	3.639353e+02
1.300000e-06	2.327056e-06	5.689385e-09	1.569111e+01	3.718635e+02
1.310000e-06	2.360537e-06	5.802498e-09	1.591687e+01	3.795561e+02
1.320000e-06	2.393116e-06	5.910618e-09	1.613655e+01	3.870013e+02
1.330000e-06	2.424998e-06	6.015764e-09	1.635153e+01	3.941817e+02
1.340000e-06	2.456087e-06	6.118594e-09	1.656116e+01	4.010807e+02
1.350000e-06	2.486397e-06	6.218634e-09	1.676553e+01	4.076897e+02
1.360000e-06	2.515866e-06	6.315553e-09	1.696424e+01	4.140143e+02
1.370000e-06	2.544562e-06	6.408236e-09	1.715773e+01	4.200745e+02
1.380000e-06	2.572630e-06	6.498155e-09	1.734699e+01	4.259001e+02
1.390000e-06	2.599669e-06	6.583397e-09	1.752931e+01	4.315208e+02
1.400000e-06	2.625378e-06	6.663403e-09	1.770266e+01	4.369561e+02
1.410000e-06	2.650067e-06	6.739764e-09	1.786914e+01	4.422078e+02
1.420000e-06	2.673905e-06	6.813436e-09	1.802988e+01	4.472598e+02
1.430000e-06	2.696799e-06	6.884240e-09	1.818425e+01	4.520841e+02
1.440000e-06	2.718815e-06	6.952595e-09	1.833271e+01	4.566526e+02
1.450000e-06	2.739960e-06	7.018395e-09	1.847528e+01	4.609480e+02
1.460000e-06	2.760289e-06	7.080431e-09	1.861236e+01	4.649714e+02
1.470000e-06	2.779815e-06	7.136904e-09	1.874402e+01	4.687414e+02
1.480000e-06	2.798350e-06	7.187084e-09	1.886900e+01	4.722863e+02
1.490000e-06	2.815858e-06	7.233617e-09	1.898705e+01	4.756311e+02
1.500000e-06	2.832320e-06	7.278334e-09	1.909806e+01	4.787859e+02
1.510000e-06	2.847637e-06	7.321445e-09	1.920134e+01	4.817406e+02
1.520000e-06	2.861857e-06	7.361161e-09	1.929722e+01	4.844674e+02
1.530000e-06	2.875066e-06	7.396163e-09	1.938629e+01	4.869330e+02
1.540000e-06	2.887236e-06	7.427106e-09	1.946835e+01	4.891132e+02
1.550000e-06	2.898132e-06	7.455635e-09	1.954182e+01	4.910066e+02
1.560000e-06	2.907612e-06	7.481676e-09	1.960575e+01	4.926391e+02
1.570000e-06	2.916032e-06	7.503277e-09	1.966252e+01	4.940586e+02
1.580000e-06	2.923566e-06	7.520437e-09	1.971332e+01	4.953201e+02
1.590000e-06	2.930073e-06	7.536161e-09	1.975720e+01	4.964679e+02
1.600000e-06	2.935570e-06	7.551664e-09	1.979426e+01	4.975202e+02
1.610000e-06	2.940226e-06	7.564982e-09	1.982566e+01	4.984637e+02
1.620000e-06	2.944007e-06	7.575930e-09	1.985115e+01	4.992606e+02
1.630000e-06	2.946554e-06	7.584704e-09	1.986833e+01	4.998646e+02
1.640000e-06	2.947812e-06	7.591365e-09	1.987681e+01	5.002409e+02
1.650000e-06	2.948063e-06	7.596178e-09	1.987850e+01	5.003818e+02
1.660000e-06	2.947428e-06	7.596496e-09	1.987422e+01	5.003110e+02
1.670000e-06	2.945911e-06	7.589426e-09	1.986399e+01	5.000752e+02
1.680000e-06	2.943463e-06	7.582625e-09	1.984749e+01	4.997254e+02
1.690000e-06	2.940154e-06	7.576941e-09	1.982517e+01	4.992958e+02
1.700000e-06	2.936074e-06	7.569758e-09	1.979766e+01	4.987881e+02
1.710000e-06	2.930898e-06	7.565729e-09	1.976276e+01	4.981693e+02
1.720000e-06	2.924464e-06	7.581714e-09	1.971938e+01	4.973835e+02
1.730000e-06	2.917089e-06	7.576858e-09	1.966964e+01	4.963749e+02
1.740000e-06	2.908783e-06	7.451340e-09	1.961364e+01	4.951131e+02
1.750000e-06	2.898986e-06	7.360291e-09	1.954758e+01	4.936111e+02
1.760000e-06	2.887468e-06	7.507944e-09	1.946991e+01	4.919281e+02
1.770000e-06	2.875190e-06	7.601521e-09	1.938713e+01	4.901551e+02
1.780000e-06	2.862953e-06	7.401497e-09	1.930461e+01	4.883879e+02
1.790000e-06	2.849766e-06	7.216734e-09	1.921569e+01	4.866954e+02
1.800000e-06	2.834677e-06	7.466232e-09	1.911395e+01	4.850963e+02
1.810000e-06	2.818569e-06	7.452463e-09	1.900534e+01	4.835500e+02
1.820000e-06	2.802069e-06	7.126591e-09	1.889408e+01	4.819677e+02
1.830000e-06	2.784326e-06	7.306339e-09	1.877444e+01	4.802375e+02
1.840000e-06	2.765270e-06	7.435372e-09	1.864595e+01	4.782572e+02
1.850000e-06	2.745632e-06	7.081230e-09	1.851353e+01	4.759622e+02
1.860000e-06	2.724989e-06	7.120344e-09	1.837433e+01	4.733400e+02
1.870000e-06	2.702800e-06	7.373162e-09	1.822472e+01	4.704272e+02
1.880000e-06	2.679633e-06	7.041066e-09	1.806850e+01	4.672916e+02
1.890000e-06	2.655671e-06	6.908941e-09	1.790693e+01	4.640059e+02
1.900000e-06	2.630741e-06	7.153518e-09	1.773883e+01	4.606231e+02
1.910000e-06	2.605131e-06	6.998459e-09	1.756614e+01	4.571629e+02
1.920000e-06	2.578703e-06	6.826616e-09	1.738794e+01	4.536108e+02
1.930000e-06	2.551405e-06	6.893142e-09	1.720388e+01	4.499306e+02
1.940000e-06	2.523473e-06	6.766104e-09	1.701553e+01	4.460834e+02
1.950000e-06	2.494388e-06	6.763331e-09	1.681942e+01	4.420450e+02
1.960000e-06	2.463870e-06	6.707263e-09	1.661363e+01	4.378157e+02
1.970000e-06	2.432438e-06	6.494203e-09	1.640169e+01	4.334188e+02
1.980000e-06	2.400284e-06	6.577295e-09	1.618488e+01	4.288901e+02
1.990000e-06	2.367370e-06	6.531909e-09	1.596294e+01	4.242632e+02
2.000000e-06	2.333724e-06	6.308362e-09	1.573607e+01	4.195568e+02
2.010000e-06	2.299227e-06	6.358164e-09	1.550346e+01	4.147694e+02
2.020000e-06	2.264032e-06	6.254858e-09	1.526615e+01	4.098827e+02
2.030000e-06	2.228275e-06	6.079431e-09	1.502504e+01	4.048722e+02
2.040000e-06	2.191571e-06	6.152213e-09	1.477755e+01	3.997193e+02
2.050000e-06	2.153821e-06	6.024617e-09	1.452300e+01	3.944204e+02
2.060000e-06	2.115182e-06	5.871264e-09	1.426247e+01	3.889891e+02
2.070000e-06	2.075796e-06	5.873677e-09	1.399689e+01	3.834509e+02
2.080000e-06	2.035788e-06	5.764091e-09	1.372712e+01	3.778327e+02
2.090000e-06	1.995065e-06	5.666055e-09	1.345252e+01	3.721526e+02
2.100000e-06	1.953648e-06	5.575577e-09	1.317326e+01	3.664133e+02
2.110000e-06	1.911635e-06	5.467182e-09	1.288997e+01	3.606024e+02
2.120000e-06	1.868997e-06	5.428603e-09	1.260247e+01	3.546984e+02
2.130000e-06	1.825831e-06	5.331950e-09	1.231140e+01	3.486813e+02
2.140000e-06	1.782209e-06	5.212705e-09	1.201726e+01	3.425404e+02
2.150000e-06	1.738051e-06	5.122052e-09	1.171951e+01	3.362792e+02
2.160000e-06	1.693197e-06	5.017993e-09	1.141706e+01	3.299134e+02
2.170000e-06	1.647602e-06	4.940914e-09	1.110962e+01	3.234634e+02
2.180000e-06	1.601477e-06	4.835736e-09	1.079860e+01	3.169463e+02
2.190000e-06	1.554903e-06	4.727867e-09	1.048456e+01	3.103685e+02
2.200000e-06	1.507845e-06	4.635278e-09	1.016725e+01	3.037237e+02
2.210000e-06	1.460118e-06	4.524509e-09	9.845433e+00	2.969966e+02
2.220000e-06	1.411575e-06	4.437356e-09	9.518110e+00	2.901697e+02
2.230000e-06	1.362481e-06	4.312583e-09	9.187079e+00	2.832314e+02
2.240000e-06	1.313015e-06	4.196326e-09	8.853534e+00	2.761810e+02
2.250000e-06	1.263088e-06	4.117707e-09	8.516878e+00	2.690284e+02
2.260000e-06	1.212650e-06	4.004340e-09	8.176781e+00	2.617904e+02
2.270000e-06	1.161737e-06	3.885866e-09	7.833477e+00	2.544832e+02
2.280000e-06	1.110455e-06	3.766308e-09	7.487693e+00	2.471159e+02
2.290000e-06	1.058804e-06	3.651270e-09	7.139410e+00	2.396879e+02
2.300000e-06	1.006719e-06	3.550474e-09	6.788206e+00	2.321903e+02
2.310000e-06	9.541194e-07	3.430290e-09	6.433534e+00	2.246117e+02
2.320000e-06	9.009127e-07	3.309332e-09	6.074766e+00	2.169447e+02
2.330000e-06	8.471798e-07	3.197525e-09	5.712451e+00	2.091913e+02
2.340000e-06	7.930066e-07	3.080161e-09	5.347166e+00	2.013639e+02
2.350000e-06	7.384080e-07	2.963467e-09	4.979013e+00	1.934817e+02
2.360000e-06	6.834677e-07	2.834234e-09	4.608556e+00	1.855643e+02
2.370000e-06	6.283131e-07	2.717017e-09	4.236654e+00	1.776242e+02
2.380000e-06	5.730148e-07	2.606789e-09	3.863782e+00	1.696621e+02
2.390000e-06	5.176067e-07	2.484266e-09	3.490171e+00	1.616667e+02
2.400000e-06	4.621487e-07	2.360691e-09	3.116224e+00	1.536187e+02
2.410000e-06	4.066308e-07	2.229759e-09	2.741872e+00	1.454973e+02
2.420000e-06	3.510078e-07	2.107333e-09	2.366811e+00	1.372874e+02
2.430000e-06	2.952639e-07	1.986847e-09	1.990936e+00	1.289838e+02
2.440000e-06	2.394437e-07	1.857917e-09	1.614545e+00	1.205917e+02
2.450000e-06	1.835838e-07	1.728273e-09	1.237888e+00	1.121236e+02
2.460000e-06	1.276665e-07	1.599023e-09	8.608426e-01	1.035941e+02
2.470000e-06	7.168753e-08	1.473495e-09	4.833820e-01	9.501438e+01
2.480000e-06	1.567556e-08	1.344690e-09	1.056988e-01	8.639000e+01
2.490000e-06	-4.032034e-08	1.207413e-09	-2.718761e-01	7.772042e+01
2.500000e-06	-9.630190e-08	1.072183e-09	-6.493543e-01	6.900147e+01
2.510000e-06	-1.522373e-07	9.440890e-10	-1.026521e+00	6.022831e+01
2.520000e-06	-2.080772e-07	8.133178e-10	-1.403044e+00	5.139764e+01
2.530000e-06	-2.638313e-07	6.736895e-10	-1.778989e+00	4.250793e+01
2.540000e-06	-3.195249e-07	5.303749e-10	-2.154525e+00	3.355799e+01
2.550000e-06	-3.751380e-07	3.953407e-10	-2.529519e+00	2.454486e+01
2.560000e-06	-4.306320e-07	2.624427e-10	-2.903710e+00	1.546266e+01
2.570000e-06	-4.860512e-07	1.243198e-10	-3.277396e+00	6.303344e+00
2.580000e-06	-5.414207e-07	-1.623196e-11	-3.650747e+00	-2.940567e+00
2.590000e-06	-5.966991e-07	-1.586974e-10	-4.023484e+00	-1.227234e+01
2.600000e-06	-6.518598e-07	-3.019597e-10	-4.395427e+00	-2.168830e+01
2.610000e-06	-7.068435e-07	-4.483626e-10	-4.766177e+00	-3.117761e+01
2.620000e-06	-7.615995e-07	-5.964282e-10	-5.135391e+00	-4.072503e+01
2.630000e-06	-8.159939e-07	-7.448869e-10	-5.502167e+00	-5.031614e+01
2.640000e-06	-8.698548e-07	-8.898054e-10	-5.865346e+00	-5.994279e+01
2.650000e-06	-9.231410e-07	-1.033922e-09	-6.224649e+00	-6.960667e+01
2.660000e-06	-9.758097e-07	-1.182856e-09	-6.579790e+00	-7.931923e+01
2.670000e-06	-1.027894e-06	-1.334881e-09	-6.930992e+00	-8.909756e+01
2.680000e-06	-1.079581e-06	-1.485854e-09	-7.279507e+00	-9.895769e+01
2.690000e-06	-1.131004e-06	-1.636444e-09	-7.626246e+00	-1.089077e+02
2.700000e-06	-1.182101e-06	-1.791284e-09	-7.970790e+00	-1.189437e+02
2.710000e-06	-1.232714e-06	-1.947779e-09	-8.312071e+00	-1.290493e+02
2.720000e-06	-1.282835e-06	-2.102806e-09	-8.650028e+00	-1.392005e+02
2.730000e-06	-1.332487e-06	-2.255042e-09	-8.984827e+00	-1.493722e+02
2.740000e-06	-1.381633e-06	-2.409605e-09	-9.316213e+00	-1.595450e+02
2.750000e-06	-1.430088e-06	-2.566733e-09	-9.642943e+00	-1.697094e+02
2.760000e-06	-1.477591e-06	-2.720716e-09	-9.963249e+00	-1.798654e+02
2.770000e-06	-1.524326e-06	-2.871884e-09	-1.027838e+01	-1.900181e+02
2.780000e-06	-1.570530e-06	-3.024117e-09	-1.058993e+01	-2.001715e+02
2.790000e-06	-1.616344e-06	-3.180501e-09	-1.089885e+01	-2.103229e+02
2.800000e-06	-1.661852e-06	-3.337857e-09	-1.120570e+01	-2.204602e+02
2.810000e-06	-1.706854e-06	-3.492481e-09	-1.150915e+01	-2.305641e+02
2.820000e-06	-1.751200e-06	-3.644443e-09	-1.180817e+01	-2.406122e+02
2.830000e-06	-1.794953e-06	-3.796779e-09	-1.210319e+01	-2.505852e+02
2.840000e-06	-1.838281e-06	-3.948820e-09	-1.239535e+01	-2.604708e+02
2.850000e-06	-1.881137e-06	-4.097846e-09	-1.268433e+01	-2.702643e+02
2.860000e-06	-1.923328e-06	-4.243716e-09	-1.296881e+01	-2.799654e+02
2.870000e-06	-1.964899e-06	-4.388824e-09	-1.324912e+01	-2.895722e+02
2.880000e-06	-2.005853e-06	-4.537024e-09	-1.352527e+01	-2.990762e+02
2.890000e-06	-2.046044e-06	-4.684233e-09	-1.379627e+01	-3.084594e+02
2.900000e-06	-2.085632e-06	-4.826973e-09	-1.406321e+01	-3.176954e+02
2.910000e-06	-2.124710e-06	-4.966097e-09	-1.432671e+01	-3.267549e+02
2.920000e-06	-2.162997e-06	-5.103692e-09	-1.458488e+01	-3.356117e+02
2.930000e-06	-2.200158e-06	-5.238162e-09	-1.483545e+01	-3.442477e+02
2.940000e-06	-2.236232e-06	-5.366596e-09	-1.507869e+01	-3.526545e+02
