# Temperatura_=_19.82
# Concentracion g/m^3_=_18700.0
# C_Vs_to_Am_M_A/Vsm_=_65563218390.804596
# pendiente_HvsI_1/m_=_3716.3
# ordenada_HvsI_A/m_=_1297.0
# frecuencia_Hz_=_301074.70727192704

Tiempo_(s)	Campo_(V.s)	Magnetizacion_(V.s)	Campo_(kA/m)	Magnetizacion_(A/m)
0.000000e+00	-2.936309e-06	-7.604928e-09	-1.977708e+01	-4.976342e+02
1.000000e-08	-2.935874e-06	-7.607562e-09	-1.977414e+01	-4.975988e+02
2.000000e-08	-2.934588e-06	-7.608252e-09	-1.976548e+01	-4.974344e+02
3.000000e-08	-2.932131e-06	-7.604528e-09	-1.974894e+01	-4.971602e+02
4.000000e-08	-2.928480e-06	-7.598157e-09	-1.972434e+01	-4.967771e+02
5.000000e-08	-2.923943e-06	-7.589447e-09	-1.969379e+01	-4.962649e+02
6.000000e-08	-2.918568e-06	-7.576151e-09	-1.965758e+01	-4.955884e+02
7.000000e-08	-2.912250e-06	-7.554016e-09	-1.961503e+01	-4.947093e+02
8.000000e-08	-2.904918e-06	-7.535162e-09	-1.956564e+01	-4.936013e+02
9.000000e-08	-2.896450e-06	-7.546817e-09	-1.950861e+01	-4.922617e+02
1.000000e-07	-2.886565e-06	-7.546833e-09	-1.944203e+01	-4.907174e+02
1.100000e-07	-2.875192e-06	-7.483657e-09	-1.936543e+01	-4.890198e+02
1.200000e-07	-2.862875e-06	-7.387724e-09	-1.928247e+01	-4.872332e+02
1.300000e-07	-2.849856e-06	-7.405599e-09	-1.919478e+01	-4.854169e+02
1.400000e-07	-2.835788e-06	-7.460432e-09	-1.910003e+01	-4.836085e+02
1.500000e-07	-2.820419e-06	-7.347889e-09	-1.899652e+01	-4.818133e+02
1.600000e-07	-2.803931e-06	-7.297995e-09	-1.888546e+01	-4.800020e+02
1.700000e-07	-2.786303e-06	-7.374990e-09	-1.876673e+01	-4.781196e+02
1.800000e-07	-2.767586e-06	-7.333527e-09	-1.864067e+01	-4.761002e+02
1.900000e-07	-2.748159e-06	-7.234142e-09	-1.850982e+01	-4.738843e+02
2.000000e-07	-2.728022e-06	-7.254961e-09	-1.837419e+01	-4.714335e+02
2.100000e-07	-2.706944e-06	-7.203560e-09	-1.823222e+01	-4.687367e+02
2.200000e-07	-2.684985e-06	-7.067415e-09	-1.808432e+01	-4.658087e+02
2.300000e-07	-2.662215e-06	-7.099191e-09	-1.793095e+01	-4.626807e+02
2.400000e-07	-2.638519e-06	-7.096281e-09	-1.777135e+01	-4.593875e+02
2.500000e-07	-2.613979e-06	-6.954187e-09	-1.760607e+01	-4.559551e+02
2.600000e-07	-2.588463e-06	-6.905713e-09	-1.743421e+01	-4.523946e+02
2.700000e-07	-2.561655e-06	-6.887364e-09	-1.725365e+01	-4.487012e+02
2.800000e-07	-2.533763e-06	-6.804492e-09	-1.706579e+01	-4.448606e+02
2.900000e-07	-2.505099e-06	-6.745520e-09	-1.687273e+01	-4.408575e+02
3.000000e-07	-2.475583e-06	-6.659463e-09	-1.667392e+01	-4.366847e+02
3.100000e-07	-2.445199e-06	-6.607461e-09	-1.646928e+01	-4.323471e+02
3.200000e-07	-2.414067e-06	-6.591009e-09	-1.625960e+01	-4.278614e+02
3.300000e-07	-2.382212e-06	-6.492263e-09	-1.604504e+01	-4.232504e+02
3.400000e-07	-2.349684e-06	-6.389938e-09	-1.582595e+01	-4.185356e+02
3.500000e-07	-2.316403e-06	-6.337172e-09	-1.560179e+01	-4.137298e+02
3.600000e-07	-2.282035e-06	-6.246202e-09	-1.537031e+01	-4.088339e+02
3.700000e-07	-2.246532e-06	-6.176682e-09	-1.513119e+01	-4.038387e+02
3.800000e-07	-2.210187e-06	-6.131514e-09	-1.488639e+01	-3.987297e+02
3.900000e-07	-2.173169e-06	-6.012726e-09	-1.463706e+01	-3.934951e+02
4.000000e-07	-2.135502e-06	-5.933814e-09	-1.438336e+01	-3.881315e+02
4.100000e-07	-2.097106e-06	-5.883381e-09	-1.412475e+01	-3.826467e+02
4.200000e-07	-2.057843e-06	-5.771804e-09	-1.386030e+01	-3.770579e+02
4.300000e-07	-2.017885e-06	-5.659211e-09	-1.359117e+01	-3.713861e+02
4.400000e-07	-1.977435e-06	-5.590486e-09	-1.331872e+01	-3.656490e+02
4.500000e-07	-1.936364e-06	-5.513887e-09	-1.304209e+01	-3.598550e+02
4.600000e-07	-1.894471e-06	-5.424088e-09	-1.275993e+01	-3.540009e+02
4.700000e-07	-1.851599e-06	-5.328218e-09	-1.247117e+01	-3.480731e+02
4.800000e-07	-1.807833e-06	-5.222212e-09	-1.217639e+01	-3.420532e+02
4.900000e-07	-1.763505e-06	-5.129811e-09	-1.187783e+01	-3.359241e+02
5.000000e-07	-1.718665e-06	-5.041245e-09	-1.157581e+01	-3.296761e+02
5.100000e-07	-1.673222e-06	-4.945479e-09	-1.126974e+01	-3.233093e+02
5.200000e-07	-1.627194e-06	-4.840077e-09	-1.095972e+01	-3.168328e+02
5.300000e-07	-1.580608e-06	-4.743577e-09	-1.064595e+01	-3.102604e+02
5.400000e-07	-1.533429e-06	-4.646268e-09	-1.032819e+01	-3.036055e+02
5.500000e-07	-1.485704e-06	-4.543915e-09	-1.000674e+01	-2.968763e+02
5.600000e-07	-1.437573e-06	-4.429918e-09	-9.682562e+00	-2.900738e+02
5.700000e-07	-1.388979e-06	-4.315329e-09	-9.355261e+00	-2.831928e+02
5.800000e-07	-1.339853e-06	-4.220865e-09	-9.024384e+00	-2.762254e+02
5.900000e-07	-1.290088e-06	-4.122487e-09	-8.689194e+00	-2.691649e+02
6.000000e-07	-1.239522e-06	-4.009394e-09	-8.348615e+00	-2.620095e+02
6.100000e-07	-1.188244e-06	-3.892108e-09	-8.003240e+00	-2.547632e+02
6.200000e-07	-1.136435e-06	-3.781525e-09	-7.654292e+00	-2.474344e+02
6.300000e-07	-1.084190e-06	-3.668176e-09	-7.302402e+00	-2.400328e+02
6.400000e-07	-1.031598e-06	-3.551051e-09	-6.948173e+00	-2.325659e+02
6.500000e-07	-9.786597e-07	-3.431512e-09	-6.591618e+00	-2.250363e+02
6.600000e-07	-9.253478e-07	-3.316734e-09	-6.232544e+00	-2.174424e+02
6.700000e-07	-8.716993e-07	-3.208003e-09	-5.871202e+00	-2.097799e+02
6.800000e-07	-8.177272e-07	-3.093610e-09	-5.507681e+00	-2.020456e+02
6.900000e-07	-7.634709e-07	-2.969356e-09	-5.142246e+00	-1.942404e+02
7.000000e-07	-7.090356e-07	-2.840530e-09	-4.775605e+00	-1.863708e+02
7.100000e-07	-6.544279e-07	-2.719921e-09	-4.407802e+00	-1.784477e+02
7.200000e-07	-5.996235e-07	-2.600167e-09	-4.038676e+00	-1.704838e+02
7.300000e-07	-5.445788e-07	-2.475091e-09	-3.667930e+00	-1.624886e+02
7.400000e-07	-4.892844e-07	-2.346640e-09	-3.295503e+00	-1.544649e+02
7.500000e-07	-4.337709e-07	-2.224485e-09	-2.921600e+00	-1.464074e+02
7.600000e-07	-3.780241e-07	-2.109094e-09	-2.546125e+00	-1.383033e+02
7.700000e-07	-3.221149e-07	-1.986255e-09	-2.169557e+00	-1.301362e+02
7.800000e-07	-2.660953e-07	-1.853568e-09	-1.792245e+00	-1.218908e+02
7.900000e-07	-2.099974e-07	-1.720544e-09	-1.414406e+00	-1.135578e+02
8.000000e-07	-1.538523e-07	-1.593429e-09	-1.036250e+00	-1.051361e+02
8.100000e-07	-9.771151e-08	-1.464611e-09	-6.581215e-01	-9.663323e+01
8.200000e-07	-4.157364e-08	-1.331565e-09	-2.800131e-01	-8.806169e+01
8.300000e-07	1.458372e-08	-1.197314e-09	9.822647e-02	-7.943515e+01
8.400000e-07	7.073523e-08	-1.067590e-09	4.764267e-01	-7.076379e+01
8.500000e-07	1.268915e-07	-9.391926e-10	8.546593e-01	-6.205130e+01
8.600000e-07	1.830052e-07	-8.036245e-10	1.232605e+00	-5.329429e+01
8.700000e-07	2.390777e-07	-6.627936e-10	1.610273e+00	-4.448400e+01
8.800000e-07	2.951092e-07	-5.256923e-10	1.987664e+00	-3.560967e+01
8.900000e-07	3.510446e-07	-3.945685e-10	2.364409e+00	-2.666202e+01
9.000000e-07	4.068220e-07	-2.598154e-10	2.740090e+00	-1.763576e+01
9.100000e-07	4.623782e-07	-1.173677e-10	3.114280e+00	-8.530376e+00
9.200000e-07	5.177331e-07	2.797940e-11	3.487115e+00	6.509865e-01
9.300000e-07	5.729245e-07	1.697529e-10	3.858849e+00	9.903704e+00
9.400000e-07	6.279047e-07	3.105794e-10	4.229159e+00	1.922398e+01
9.500000e-07	6.826391e-07	4.549879e-10	4.597815e+00	2.861030e+01
9.600000e-07	7.371558e-07	6.011646e-10	4.965004e+00	3.806342e+01
9.700000e-07	7.914734e-07	7.448850e-10	5.330853e+00	4.758523e+01
9.800000e-07	8.455448e-07	8.871227e-10	5.695042e+00	5.717683e+01
9.900000e-07	8.993151e-07	1.034903e-09	6.057205e+00	6.683705e+01
1.000000e-06	9.527662e-07	1.186822e-09	6.417216e+00	7.656187e+01
1.010000e-06	1.005831e-06	1.338882e-09	6.774626e+00	8.634518e+01
1.020000e-06	1.058487e-06	1.488264e-09	7.129286e+00	9.618049e+01
1.030000e-06	1.110761e-06	1.635537e-09	7.481365e+00	1.060628e+02
1.040000e-06	1.162570e-06	1.785775e-09	7.830318e+00	1.159897e+02
1.050000e-06	1.213797e-06	1.938389e-09	8.175352e+00	1.259613e+02
1.060000e-06	1.264409e-06	2.090661e-09	8.516243e+00	1.359787e+02
1.070000e-06	1.314287e-06	2.243451e-09	8.852188e+00	1.460411e+02
1.080000e-06	1.363445e-06	2.398351e-09	9.183280e+00	1.561439e+02
1.090000e-06	1.412134e-06	2.554739e-09	9.511221e+00	1.662773e+02
1.100000e-06	1.460445e-06	2.710644e-09	9.836611e+00	1.764265e+02
1.110000e-06	1.508348e-06	2.865553e-09	1.015925e+01	1.865743e+02
1.120000e-06	1.555781e-06	3.020539e-09	1.047874e+01	1.967042e+02
1.130000e-06	1.602622e-06	3.175554e-09	1.079423e+01	2.068036e+02
1.140000e-06	1.648869e-06	3.329553e-09	1.110571e+01	2.168659e+02
1.150000e-06	1.694557e-06	3.482025e-09	1.141344e+01	2.268897e+02
1.160000e-06	1.739681e-06	3.633575e-09	1.171737e+01	2.368769e+02
1.170000e-06	1.784344e-06	3.785263e-09	1.201819e+01	2.468284e+02
1.180000e-06	1.828614e-06	3.936365e-09	1.231636e+01	2.567404e+02
1.190000e-06	1.872300e-06	4.086712e-09	1.261060e+01	2.666011e+02
1.200000e-06	1.915087e-06	4.235732e-09	1.289878e+01	2.763913e+02
1.210000e-06	1.956831e-06	4.384771e-09	1.317995e+01	2.860855e+02
1.220000e-06	1.997760e-06	4.533021e-09	1.345562e+01	2.956570e+02
1.230000e-06	2.038153e-06	4.678015e-09	1.372768e+01	3.050816e+02
1.240000e-06	2.077904e-06	4.816848e-09	1.399541e+01	3.143416e+02
1.250000e-06	2.116929e-06	4.950212e-09	1.425827e+01	3.234262e+02
1.260000e-06	2.155270e-06	5.083719e-09	1.451650e+01	3.323304e+02
1.270000e-06	2.192830e-06	5.217120e-09	1.476948e+01	3.410505e+02
1.280000e-06	2.229688e-06	5.347331e-09	1.501773e+01	3.495801e+02
1.290000e-06	2.266009e-06	5.472064e-09	1.526237e+01	3.579065e+02
1.300000e-06	2.301568e-06	5.594567e-09	1.550187e+01	3.660102e+02
1.310000e-06	2.336056e-06	5.715880e-09	1.573416e+01	3.738677e+02
1.320000e-06	2.369448e-06	5.831715e-09	1.595907e+01	3.814557e+02
1.330000e-06	2.401964e-06	5.939260e-09	1.617808e+01	3.887579e+02
1.340000e-06	2.433796e-06	6.041721e-09	1.639247e+01	3.957691e+02
1.350000e-06	2.464829e-06	6.142061e-09	1.660149e+01	4.024971e+02
1.360000e-06	2.495016e-06	6.239473e-09	1.680481e+01	4.089608e+02
1.370000e-06	2.524397e-06	6.332720e-09	1.700271e+01	4.151846e+02
1.380000e-06	2.553042e-06	6.422129e-09	1.719564e+01	4.211911e+02
1.390000e-06	2.580932e-06	6.510938e-09	1.738349e+01	4.269950e+02
1.400000e-06	2.607746e-06	6.598400e-09	1.756409e+01	4.325991e+02
1.410000e-06	2.633348e-06	6.680959e-09	1.773653e+01	4.379949e+02
1.420000e-06	2.657884e-06	6.756486e-09	1.790178e+01	4.431667e+02
1.430000e-06	2.681502e-06	6.826551e-09	1.806086e+01	4.480984e+02
1.440000e-06	2.704294e-06	6.894520e-09	1.821438e+01	4.527797e+02
1.450000e-06	2.726187e-06	6.959727e-09	1.836183e+01	4.572104e+02
1.460000e-06	2.747174e-06	7.021428e-09	1.850318e+01	4.613999e+02
1.470000e-06	2.767357e-06	7.081131e-09	1.863912e+01	4.653633e+02
1.480000e-06	2.786642e-06	7.138108e-09	1.876902e+01	4.691149e+02
1.490000e-06	2.804897e-06	7.190698e-09	1.889197e+01	4.726616e+02
1.500000e-06	2.822178e-06	7.238462e-09	1.900836e+01	4.759989e+02
1.510000e-06	2.838449e-06	7.281126e-09	1.911795e+01	4.791121e+02
1.520000e-06	2.853567e-06	7.321388e-09	1.921978e+01	4.819808e+02
1.530000e-06	2.867514e-06	7.359834e-09	1.931372e+01	4.845873e+02
1.540000e-06	2.880443e-06	7.393675e-09	1.940080e+01	4.869248e+02
1.550000e-06	2.892295e-06	7.423759e-09	1.948063e+01	4.890019e+02
1.560000e-06	2.902822e-06	7.452352e-09	1.955153e+01	4.908432e+02
1.570000e-06	2.912101e-06	7.479012e-09	1.961403e+01	4.924831e+02
1.580000e-06	2.920404e-06	7.500500e-09	1.966995e+01	4.939569e+02
1.590000e-06	2.927791e-06	7.516977e-09	1.971970e+01	4.952908e+02
1.600000e-06	2.934172e-06	7.531749e-09	1.976268e+01	4.964947e+02
1.610000e-06	2.939588e-06	7.547474e-09	1.979916e+01	4.975609e+02
1.620000e-06	2.944162e-06	7.563107e-09	1.982997e+01	4.984689e+02
1.630000e-06	2.947757e-06	7.576095e-09	1.985418e+01	4.991944e+02
1.640000e-06	2.950093e-06	7.585933e-09	1.986992e+01	4.997201e+02
1.650000e-06	2.951236e-06	7.592081e-09	1.987761e+01	5.000435e+02
1.660000e-06	2.951367e-06	7.594422e-09	1.987850e+01	5.001792e+02
1.670000e-06	2.950586e-06	7.592595e-09	1.987324e+01	5.001543e+02
1.680000e-06	2.948884e-06	7.588144e-09	1.986177e+01	4.999985e+02
1.690000e-06	2.946289e-06	7.583373e-09	1.984430e+01	4.997322e+02
1.700000e-06	2.942910e-06	7.579444e-09	1.982153e+01	4.993576e+02
1.710000e-06	2.938603e-06	7.576934e-09	1.979253e+01	4.988559e+02
1.720000e-06	2.933126e-06	7.573300e-09	1.975564e+01	4.981926e+02
1.730000e-06	2.926515e-06	7.570966e-09	1.971111e+01	4.973294e+02
1.740000e-06	2.919010e-06	7.539540e-09	1.966056e+01	4.962383e+02
1.750000e-06	2.910461e-06	7.474634e-09	1.960298e+01	4.949151e+02
1.760000e-06	2.900317e-06	7.450295e-09	1.953466e+01	4.933841e+02
1.770000e-06	2.888646e-06	7.508479e-09	1.945605e+01	4.916956e+02
1.780000e-06	2.876418e-06	7.493616e-09	1.937369e+01	4.899135e+02
1.790000e-06	2.863992e-06	7.378990e-09	1.928999e+01	4.880979e+02
1.800000e-06	2.850377e-06	7.334235e-09	1.919829e+01	4.862887e+02
1.810000e-06	2.835074e-06	7.398535e-09	1.909522e+01	4.844933e+02
1.820000e-06	2.818932e-06	7.329372e-09	1.898650e+01	4.826850e+02
1.830000e-06	2.802161e-06	7.233455e-09	1.887354e+01	4.808101e+02
1.840000e-06	2.784125e-06	7.304269e-09	1.875207e+01	4.788029e+02
1.850000e-06	2.765056e-06	7.247652e-09	1.862363e+01	4.766029e+02
1.860000e-06	2.745302e-06	7.119218e-09	1.849057e+01	4.741698e+02
1.870000e-06	2.724336e-06	7.194427e-09	1.834936e+01	4.714905e+02
1.880000e-06	2.702011e-06	7.188122e-09	1.819899e+01	4.685784e+02
1.890000e-06	2.678759e-06	7.014888e-09	1.804239e+01	4.654638e+02
1.900000e-06	2.654565e-06	7.016902e-09	1.787943e+01	4.621816e+02
1.910000e-06	2.629503e-06	7.027971e-09	1.771063e+01	4.587588e+02
1.920000e-06	2.603765e-06	6.908452e-09	1.753727e+01	4.552077e+02
1.930000e-06	2.577183e-06	6.859446e-09	1.735823e+01	4.515245e+02
1.940000e-06	2.549813e-06	6.828289e-09	1.717389e+01	4.476951e+02
1.950000e-06	2.521633e-06	6.751909e-09	1.698409e+01	4.437043e+02
1.960000e-06	2.492156e-06	6.729892e-09	1.678555e+01	4.395438e+02
1.970000e-06	2.461430e-06	6.608750e-09	1.657860e+01	4.352178e+02
1.980000e-06	2.429884e-06	6.504774e-09	1.636612e+01	4.307421e+02
1.990000e-06	2.397547e-06	6.519379e-09	1.614832e+01	4.261396e+02
2.000000e-06	2.364463e-06	6.415099e-09	1.592549e+01	4.214319e+02
2.010000e-06	2.330608e-06	6.329392e-09	1.569747e+01	4.166327e+02
2.020000e-06	2.295947e-06	6.308514e-09	1.546401e+01	4.117437e+02
2.030000e-06	2.260672e-06	6.172830e-09	1.522643e+01	4.067562e+02
2.040000e-06	2.224645e-06	6.097939e-09	1.498377e+01	4.016561e+02
2.050000e-06	2.187513e-06	6.064495e-09	1.473367e+01	3.964309e+02
2.060000e-06	2.149356e-06	5.924425e-09	1.447667e+01	3.910767e+02
2.070000e-06	2.110473e-06	5.853693e-09	1.421478e+01	3.856003e+02
2.080000e-06	2.070983e-06	5.808853e-09	1.394880e+01	3.800185e+02
2.090000e-06	2.030854e-06	5.706737e-09	1.367852e+01	3.743522e+02
2.100000e-06	1.990018e-06	5.622218e-09	1.340347e+01	3.686195e+02
2.110000e-06	1.948497e-06	5.517814e-09	1.312382e+01	3.628298e+02
2.120000e-06	1.906319e-06	5.428096e-09	1.283973e+01	3.569806e+02
2.130000e-06	1.863543e-06	5.357283e-09	1.255162e+01	3.510590e+02
2.140000e-06	1.820272e-06	5.258877e-09	1.226017e+01	3.450465e+02
2.150000e-06	1.776441e-06	5.169824e-09	1.196496e+01	3.389259e+02
2.160000e-06	1.731985e-06	5.072611e-09	1.166553e+01	3.326867e+02
2.170000e-06	1.686867e-06	4.973665e-09	1.136164e+01	3.263284e+02
2.180000e-06	1.641141e-06	4.883392e-09	1.105366e+01	3.198595e+02
2.190000e-06	1.594929e-06	4.776953e-09	1.074241e+01	3.132938e+02
2.200000e-06	1.548201e-06	4.675508e-09	1.042768e+01	3.066446e+02
2.210000e-06	1.500871e-06	4.575634e-09	1.010889e+01	2.999209e+02
2.220000e-06	1.452823e-06	4.475957e-09	9.785278e+00	2.931240e+02
2.230000e-06	1.404085e-06	4.376116e-09	9.457009e+00	2.862491e+02
2.240000e-06	1.354852e-06	4.252838e-09	9.125409e+00	2.792884e+02
2.250000e-06	1.305193e-06	4.148087e-09	8.790932e+00	2.722349e+02
2.260000e-06	1.255092e-06	4.051701e-09	8.453490e+00	2.650864e+02
2.270000e-06	1.204516e-06	3.940580e-09	8.112838e+00	2.578466e+02
2.280000e-06	1.153517e-06	3.831799e-09	7.769346e+00	2.505236e+02
2.290000e-06	1.102158e-06	3.713599e-09	7.423425e+00	2.431272e+02
2.300000e-06	1.050310e-06	3.602096e-09	7.074205e+00	2.356650e+02
2.310000e-06	9.979393e-07	3.490718e-09	6.721473e+00	2.281402e+02
2.320000e-06	9.450428e-07	3.370408e-09	6.365196e+00	2.205512e+02
2.330000e-06	8.915521e-07	3.254734e-09	6.004918e+00	2.128940e+02
2.340000e-06	8.375782e-07	3.140187e-09	5.641384e+00	2.051651e+02
2.350000e-06	7.832086e-07	3.027189e-09	5.275186e+00	1.973651e+02
2.360000e-06	7.284987e-07	2.910026e-09	4.906695e+00	1.895000e+02
2.370000e-06	6.735673e-07	2.784201e-09	4.536713e+00	1.815806e+02
2.380000e-06	6.184345e-07	2.662799e-09	4.165374e+00	1.736194e+02
2.390000e-06	5.631321e-07	2.544838e-09	3.792893e+00	1.656265e+02
2.400000e-06	5.077039e-07	2.426386e-09	3.419564e+00	1.576052e+02
2.410000e-06	4.521908e-07	2.303618e-09	3.045664e+00	1.495507e+02
2.420000e-06	3.966200e-07	2.176849e-09	2.671376e+00	1.414507e+02
2.430000e-06	3.409320e-07	2.056279e-09	2.296297e+00	1.332888e+02
2.440000e-06	2.851122e-07	1.934458e-09	1.920331e+00	1.250497e+02
2.450000e-06	2.291909e-07	1.807400e-09	1.543681e+00	1.167233e+02
2.460000e-06	1.731778e-07	1.677278e-09	1.166414e+00	1.083081e+02
2.470000e-06	1.171279e-07	1.548040e-09	7.888978e-01	9.981086e+01
2.480000e-06	6.109324e-08	1.422909e-09	4.114845e-01	9.124399e+01
2.490000e-06	5.021029e-09	1.293285e-09	3.381840e-02	8.262122e+01
2.500000e-06	-5.108434e-08	1.159306e-09	-3.440710e-01	7.395310e+01
2.510000e-06	-1.071401e-07	1.025778e-09	-7.216266e-01	6.524382e+01
2.520000e-06	-1.631199e-07	8.947375e-10	-1.098670e+00	5.649047e+01
2.530000e-06	-2.190319e-07	7.628552e-10	-1.475257e+00	4.768459e+01
2.540000e-06	-2.748932e-07	6.249720e-10	-1.851502e+00	3.881542e+01
2.550000e-06	-3.306366e-07	4.849539e-10	-2.226954e+00	2.987348e+01
2.560000e-06	-3.862327e-07	3.491342e-10	-2.601414e+00	2.085315e+01
2.570000e-06	-4.417344e-07	2.165644e-10	-2.975237e+00	1.175359e+01
2.580000e-06	-4.971744e-07	8.035373e-11	-3.348645e+00	2.577745e+00
2.590000e-06	-5.525480e-07	-6.211377e-11	-3.721605e+00	-6.669780e+00
2.600000e-06	-6.078236e-07	-2.062565e-10	-4.093906e+00	-1.598507e+01
2.610000e-06	-6.629703e-07	-3.471536e-10	-4.465339e+00	-2.536642e+01
2.620000e-06	-7.179556e-07	-4.892450e-10	-4.835684e+00	-3.481447e+01
2.630000e-06	-7.727108e-07	-6.352545e-10	-5.204479e+00	-4.433107e+01
2.640000e-06	-8.270821e-07	-7.829464e-10	-5.570689e+00	-5.391746e+01
2.650000e-06	-8.809236e-07	-9.288424e-10	-5.933331e+00	-6.357264e+01
2.660000e-06	-9.341415e-07	-1.075258e-09	-6.291772e+00	-7.329278e+01
2.670000e-06	-9.867587e-07	-1.225593e-09	-6.646168e+00	-8.307190e+01
2.680000e-06	-1.038892e-06	-1.377782e-09	-6.997303e+00	-9.290344e+01
2.690000e-06	-1.090608e-06	-1.529787e-09	-7.345632e+00	-1.027822e+02
2.700000e-06	-1.141960e-06	-1.680914e-09	-7.691502e+00	-1.127057e+02
2.710000e-06	-1.193000e-06	-1.833152e-09	-8.035273e+00	-1.226739e+02
2.720000e-06	-1.243640e-06	-1.986964e-09	-8.376352e+00	-1.326877e+02
2.730000e-06	-1.293764e-06	-2.141152e-09	-8.713954e+00	-1.427468e+02
2.740000e-06	-1.343403e-06	-2.293681e-09	-9.048291e+00	-1.528467e+02
2.750000e-06	-1.392522e-06	-2.446816e-09	-9.379128e+00	-1.629781e+02
2.760000e-06	-1.440957e-06	-2.602515e-09	-9.705353e+00	-1.731265e+02
2.770000e-06	-1.488584e-06	-2.758497e-09	-1.002614e+01	-1.832748e+02
2.780000e-06	-1.535368e-06	-2.912245e-09	-1.034124e+01	-1.934062e+02
2.790000e-06	-1.581495e-06	-3.064756e-09	-1.065192e+01	-2.035079e+02
2.800000e-06	-1.627214e-06	-3.218881e-09	-1.095986e+01	-2.135726e+02
2.810000e-06	-1.672533e-06	-3.372760e-09	-1.126510e+01	-2.235989e+02
2.820000e-06	-1.717342e-06	-3.524455e-09	-1.156690e+01	-2.335884e+02
2.830000e-06	-1.761564e-06	-3.675460e-09	-1.186475e+01	-2.435423e+02
2.840000e-06	-1.805250e-06	-3.828984e-09	-1.215900e+01	-2.534571e+02
2.850000e-06	-1.848505e-06	-3.984080e-09	-1.245033e+01	-2.633218e+02
2.860000e-06	-1.891280e-06	-4.135922e-09	-1.273844e+01	-2.731175e+02
2.870000e-06	-1.933422e-06	-4.281398e-09	-1.302228e+01	-2.828193e+02
2.880000e-06	-1.974918e-06	-4.422706e-09	-1.330177e+01	-2.924001e+02
2.890000e-06	-2.015749e-06	-4.565209e-09	-1.357678e+01	-3.018357e+02
2.900000e-06	-2.055870e-06	-4.708655e-09	-1.384701e+01	-3.111076e+02
2.910000e-06	-2.095380e-06	-4.848474e-09	-1.411312e+01	-3.202048e+02
2.920000e-06	-2.134270e-06	-4.984933e-09	-1.437506e+01	-3.291217e+02
2.930000e-06	-2.172288e-06	-5.121754e-09	-1.463112e+01	-3.378549e+02
2.940000e-06	-2.209215e-06	-5.256688e-09	-1.487984e+01	-3.463981e+02
