# Temperatura_=_29.03
# Concentracion g/m^3_=_18700.0
# C_Vs_to_Am_M_A/Vsm_=_65563218390.804596
# pendiente_HvsI_1/m_=_3716.3
# ordenada_HvsI_A/m_=_1297.0
# frecuencia_Hz_=_301070.4739564187

Tiempo_(s)	Campo_(V.s)	Magnetizacion_(V.s)	Campo_(kA/m)	Magnetizacion_(A/m)
0.000000e+00	-2.937177e-06	-7.903655e-09	-1.977626e+01	-5.155702e+02
1.000000e-08	-2.936556e-06	-7.904861e-09	-1.977207e+01	-5.154960e+02
2.000000e-08	-2.935120e-06	-7.903199e-09	-1.976240e+01	-5.153038e+02
3.000000e-08	-2.932485e-06	-7.896553e-09	-1.974467e+01	-5.150036e+02
4.000000e-08	-2.928624e-06	-7.890069e-09	-1.971867e+01	-5.145829e+02
5.000000e-08	-2.923915e-06	-7.884086e-09	-1.968696e+01	-5.140102e+02
6.000000e-08	-2.918383e-06	-7.872760e-09	-1.964971e+01	-5.132475e+02
7.000000e-08	-2.911923e-06	-7.848657e-09	-1.960622e+01	-5.122656e+02
8.000000e-08	-2.904437e-06	-7.826143e-09	-1.955581e+01	-5.110573e+02
9.000000e-08	-2.895843e-06	-7.843872e-09	-1.949795e+01	-5.096439e+02
1.000000e-07	-2.885888e-06	-7.854531e-09	-1.943092e+01	-5.080705e+02
1.100000e-07	-2.874398e-06	-7.782085e-09	-1.935356e+01	-5.063938e+02
1.200000e-07	-2.861919e-06	-7.658894e-09	-1.926953e+01	-5.046647e+02
1.300000e-07	-2.848714e-06	-7.676527e-09	-1.918062e+01	-5.029134e+02
1.400000e-07	-2.834478e-06	-7.763652e-09	-1.908477e+01	-5.011413e+02
1.500000e-07	-2.819155e-06	-7.639824e-09	-1.898160e+01	-4.993226e+02
1.600000e-07	-2.802672e-06	-7.560623e-09	-1.887062e+01	-4.974154e+02
1.700000e-07	-2.784906e-06	-7.651623e-09	-1.875100e+01	-4.953763e+02
1.800000e-07	-2.766097e-06	-7.596178e-09	-1.862436e+01	-4.931741e+02
1.900000e-07	-2.746565e-06	-7.455794e-09	-1.849285e+01	-4.907972e+02
2.000000e-07	-2.726266e-06	-7.489304e-09	-1.835618e+01	-4.882520e+02
2.100000e-07	-2.704985e-06	-7.456929e-09	-1.821288e+01	-4.855546e+02
2.200000e-07	-2.682814e-06	-7.296844e-09	-1.806361e+01	-4.827187e+02
2.300000e-07	-2.659928e-06	-7.338103e-09	-1.790952e+01	-4.797458e+02
2.400000e-07	-2.636110e-06	-7.365581e-09	-1.774915e+01	-4.766223e+02
2.500000e-07	-2.611350e-06	-7.195631e-09	-1.758243e+01	-4.733232e+02
2.600000e-07	-2.585655e-06	-7.126056e-09	-1.740942e+01	-4.698234e+02
2.700000e-07	-2.558734e-06	-7.130971e-09	-1.722817e+01	-4.661087e+02
2.800000e-07	-2.530765e-06	-7.049057e-09	-1.703985e+01	-4.621846e+02
2.900000e-07	-2.502001e-06	-6.984511e-09	-1.684618e+01	-4.580768e+02
3.000000e-07	-2.472356e-06	-6.904938e-09	-1.664658e+01	-4.538246e+02
3.100000e-07	-2.441899e-06	-6.849810e-09	-1.644150e+01	-4.494680e+02
3.200000e-07	-2.410683e-06	-6.830683e-09	-1.623132e+01	-4.450351e+02
3.300000e-07	-2.378654e-06	-6.721984e-09	-1.601567e+01	-4.405333e+02
3.400000e-07	-2.345980e-06	-6.618123e-09	-1.579567e+01	-4.359488e+02
3.500000e-07	-2.312597e-06	-6.582782e-09	-1.557090e+01	-4.312539e+02
3.600000e-07	-2.278155e-06	-6.494855e-09	-1.533901e+01	-4.264196e+02
3.700000e-07	-2.242575e-06	-6.418901e-09	-1.509944e+01	-4.214282e+02
3.800000e-07	-2.206134e-06	-6.375917e-09	-1.485408e+01	-4.162812e+02
3.900000e-07	-2.169068e-06	-6.247973e-09	-1.460451e+01	-4.109990e+02
4.000000e-07	-2.131319e-06	-6.164623e-09	-1.435035e+01	-4.056132e+02
4.100000e-07	-2.092798e-06	-6.129533e-09	-1.409098e+01	-4.001546e+02
4.200000e-07	-2.053484e-06	-6.021015e-09	-1.382628e+01	-3.946411e+02
4.300000e-07	-2.013459e-06	-5.903794e-09	-1.355679e+01	-3.890717e+02
4.400000e-07	-1.972904e-06	-5.839077e-09	-1.328372e+01	-3.834276e+02
4.500000e-07	-1.931783e-06	-5.764448e-09	-1.300685e+01	-3.776800e+02
4.600000e-07	-1.889826e-06	-5.671100e-09	-1.272435e+01	-3.718028e+02
4.700000e-07	-1.846847e-06	-5.572267e-09	-1.243497e+01	-3.657823e+02
4.800000e-07	-1.802965e-06	-5.467836e-09	-1.213951e+01	-3.596233e+02
4.900000e-07	-1.758471e-06	-5.383280e-09	-1.183993e+01	-3.533461e+02
5.000000e-07	-1.713524e-06	-5.296892e-09	-1.153730e+01	-3.469786e+02
5.100000e-07	-1.668027e-06	-5.193498e-09	-1.123096e+01	-3.405446e+02
5.200000e-07	-1.621894e-06	-5.081304e-09	-1.092034e+01	-3.340544e+02
5.300000e-07	-1.575214e-06	-4.984504e-09	-1.060605e+01	-3.275014e+02
5.400000e-07	-1.527982e-06	-4.890769e-09	-1.028803e+01	-3.208652e+02
5.500000e-07	-1.480130e-06	-4.791709e-09	-9.965840e+00	-3.141206e+02
5.600000e-07	-1.431811e-06	-4.680202e-09	-9.640504e+00	-3.072484e+02
5.700000e-07	-1.383117e-06	-4.566177e-09	-9.312639e+00	-3.002436e+02
5.800000e-07	-1.333881e-06	-4.470264e-09	-8.981130e+00	-2.931171e+02
5.900000e-07	-1.283968e-06	-4.365752e-09	-8.645065e+00	-2.858920e+02
6.000000e-07	-1.233306e-06	-4.244407e-09	-8.303949e+00	-2.785935e+02
6.100000e-07	-1.181966e-06	-4.125950e-09	-7.958276e+00	-2.712397e+02
6.200000e-07	-1.130083e-06	-4.019769e-09	-7.608940e+00	-2.638341e+02
6.300000e-07	-1.077781e-06	-3.907736e-09	-7.256788e+00	-2.563654e+02
6.400000e-07	-1.025151e-06	-3.787810e-09	-6.902428e+00	-2.488130e+02
6.500000e-07	-9.721690e-07	-3.666134e-09	-6.545694e+00	-2.411565e+02
6.600000e-07	-9.187783e-07	-3.550948e-09	-6.186210e+00	-2.333858e+02
6.700000e-07	-8.650373e-07	-3.439080e-09	-5.824367e+00	-2.255064e+02
6.800000e-07	-8.110340e-07	-3.319023e-09	-5.460759e+00	-2.175390e+02
6.900000e-07	-7.567637e-07	-3.193570e-09	-5.095352e+00	-2.095131e+02
7.000000e-07	-7.022863e-07	-3.065354e-09	-4.728551e+00	-2.014562e+02
7.100000e-07	-6.476282e-07	-2.940296e-09	-4.360534e+00	-1.933846e+02
7.200000e-07	-5.927570e-07	-2.813212e-09	-3.991081e+00	-1.852970e+02
7.300000e-07	-5.376670e-07	-2.684906e-09	-3.620156e+00	-1.771762e+02
7.400000e-07	-4.823336e-07	-2.560915e-09	-3.247592e+00	-1.689946e+02
7.500000e-07	-4.267839e-07	-2.443751e-09	-2.873571e+00	-1.607250e+02
7.600000e-07	-3.710240e-07	-2.324728e-09	-2.498135e+00	-1.523493e+02
7.700000e-07	-3.150886e-07	-2.191324e-09	-2.121518e+00	-1.438644e+02
7.800000e-07	-2.590633e-07	-2.050312e-09	-1.744295e+00	-1.352819e+02
7.900000e-07	-2.029651e-07	-1.912722e-09	-1.366580e+00	-1.266222e+02
8.000000e-07	-1.468294e-07	-1.781585e-09	-9.886146e-01	-1.179067e+02
8.100000e-07	-9.066694e-08	-1.648356e-09	-6.104680e-01	-1.091500e+02
8.200000e-07	-3.446402e-08	-1.513287e-09	-2.320491e-01	-1.003550e+02
8.300000e-07	2.176640e-08	-1.381793e-09	1.465550e-01	-9.151372e+01
8.400000e-07	7.800564e-08	-1.252279e-09	5.252184e-01	-8.261176e+01
8.500000e-07	1.341995e-07	-1.116097e-09	9.035765e-01	-7.363454e+01
8.600000e-07	1.903202e-07	-9.695821e-10	1.281441e+00	-6.457304e+01
8.700000e-07	2.463788e-07	-8.218155e-10	1.658889e+00	-5.542641e+01
8.800000e-07	3.023437e-07	-6.806764e-10	2.035705e+00	-4.620073e+01
8.900000e-07	3.581712e-07	-5.432411e-10	2.411596e+00	-3.690489e+01
9.000000e-07	4.139041e-07	-4.014519e-10	2.786850e+00	-2.754556e+01
9.100000e-07	4.694874e-07	-2.562875e-10	3.161097e+00	-1.812337e+01
9.200000e-07	5.248029e-07	-1.101416e-10	3.533541e+00	-8.632118e+00
9.300000e-07	5.798993e-07	3.557595e-11	3.904510e+00	9.390206e-01
9.400000e-07	6.348396e-07	1.840683e-10	4.274427e+00	1.060125e+01
9.500000e-07	6.895840e-07	3.375482e-10	4.643026e+00	2.036182e+01
9.600000e-07	7.441130e-07	4.898389e-10	5.010174e+00	3.022135e+01
9.700000e-07	7.984610e-07	6.383967e-10	5.376104e+00	4.017405e+01
9.800000e-07	8.525592e-07	7.875645e-10	5.740351e+00	5.021032e+01
9.900000e-07	9.063262e-07	9.412175e-10	6.102369e+00	6.032078e+01
1.000000e-06	9.597489e-07	1.097483e-09	6.462069e+00	7.049976e+01
1.010000e-06	1.012773e-06	1.254722e-09	6.819085e+00	8.074692e+01
1.020000e-06	1.065395e-06	1.412212e-09	7.173390e+00	9.106629e+01
1.030000e-06	1.117693e-06	1.571153e-09	7.525521e+00	1.014633e+02
1.040000e-06	1.169533e-06	1.731254e-09	7.874563e+00	1.119413e+02
1.050000e-06	1.220764e-06	1.891199e-09	8.219505e+00	1.224981e+02
1.060000e-06	1.271309e-06	2.052119e-09	8.559828e+00	1.331254e+02
1.070000e-06	1.321062e-06	2.215344e-09	8.894819e+00	1.438099e+02
1.080000e-06	1.370123e-06	2.380159e-09	9.225153e+00	1.545358e+02
1.090000e-06	1.418756e-06	2.543687e-09	9.552598e+00	1.652884e+02
1.100000e-06	1.467087e-06	2.708483e-09	9.878015e+00	1.760562e+02
1.110000e-06	1.515001e-06	2.874716e-09	1.020062e+01	1.868316e+02
1.120000e-06	1.562351e-06	3.039944e-09	1.051944e+01	1.976106e+02
1.130000e-06	1.609129e-06	3.202649e-09	1.083440e+01	2.083899e+02
1.140000e-06	1.655371e-06	3.364288e-09	1.114575e+01	2.191655e+02
1.150000e-06	1.701033e-06	3.528488e-09	1.145319e+01	2.299303e+02
1.160000e-06	1.746126e-06	3.693115e-09	1.175681e+01	2.406738e+02
1.170000e-06	1.790764e-06	3.857106e-09	1.205736e+01	2.513820e+02
1.180000e-06	1.834988e-06	4.019956e-09	1.235513e+01	2.620384e+02
1.190000e-06	1.878639e-06	4.180744e-09	1.264903e+01	2.726247e+02
1.200000e-06	1.921374e-06	4.340055e-09	1.293677e+01	2.831215e+02
1.210000e-06	1.963048e-06	4.498960e-09	1.321736e+01	2.935090e+02
1.220000e-06	2.003895e-06	4.655530e-09	1.349239e+01	3.037676e+02
1.230000e-06	2.044183e-06	4.809135e-09	1.376365e+01	3.138785e+02
1.240000e-06	2.083870e-06	4.959371e-09	1.403087e+01	3.238241e+02
1.250000e-06	2.122847e-06	5.106709e-09	1.429330e+01	3.335891e+02
1.260000e-06	2.161118e-06	5.251750e-09	1.455099e+01	3.431598e+02
1.270000e-06	2.198627e-06	5.393923e-09	1.480353e+01	3.525231e+02
1.280000e-06	2.235444e-06	5.532435e-09	1.505143e+01	3.616649e+02
1.290000e-06	2.271686e-06	5.666997e-09	1.529545e+01	3.705687e+02
1.300000e-06	2.307144e-06	5.798340e-09	1.553419e+01	3.792145e+02
1.310000e-06	2.341469e-06	5.923984e-09	1.576530e+01	3.875802e+02
1.320000e-06	2.374710e-06	6.043036e-09	1.598912e+01	3.956449e+02
1.330000e-06	2.407210e-06	6.157261e-09	1.620794e+01	4.033933e+02
1.340000e-06	2.438961e-06	6.268912e-09	1.642173e+01	4.108197e+02
1.350000e-06	2.469867e-06	6.377368e-09	1.662982e+01	4.179305e+02
1.360000e-06	2.499945e-06	6.480159e-09	1.683233e+01	4.247432e+02
1.370000e-06	2.529190e-06	6.577354e-09	1.702925e+01	4.312819e+02
1.380000e-06	2.557770e-06	6.671609e-09	1.722168e+01	4.375708e+02
1.390000e-06	2.585596e-06	6.763916e-09	1.740903e+01	4.436268e+02
1.400000e-06	2.612236e-06	6.853191e-09	1.758840e+01	4.494551e+02
1.410000e-06	2.637658e-06	6.937146e-09	1.775957e+01	4.550490e+02
1.420000e-06	2.662111e-06	7.015159e-09	1.792421e+01	4.603934e+02
1.430000e-06	2.685656e-06	7.089426e-09	1.808274e+01	4.654724e+02
1.440000e-06	2.708267e-06	7.161281e-09	1.823499e+01	4.702769e+02
1.450000e-06	2.729951e-06	7.229318e-09	1.838098e+01	4.748096e+02
1.460000e-06	2.750831e-06	7.293468e-09	1.852157e+01	4.790851e+02
1.470000e-06	2.770987e-06	7.353371e-09	1.865728e+01	4.831249e+02
1.480000e-06	2.790227e-06	7.409398e-09	1.878683e+01	4.869492e+02
1.490000e-06	2.808389e-06	7.462416e-09	1.890912e+01	4.905686e+02
1.500000e-06	2.825526e-06	7.511407e-09	1.902450e+01	4.939785e+02
1.510000e-06	2.841571e-06	7.555223e-09	1.913253e+01	4.971610e+02
1.520000e-06	2.856485e-06	7.596837e-09	1.923295e+01	5.000907e+02
1.530000e-06	2.870361e-06	7.636607e-09	1.932637e+01	5.027456e+02
1.540000e-06	2.883191e-06	7.670354e-09	1.941276e+01	5.051175e+02
1.550000e-06	2.894892e-06	7.699021e-09	1.949154e+01	5.072173e+02
1.560000e-06	2.905241e-06	7.725599e-09	1.956123e+01	5.090743e+02
1.570000e-06	2.914390e-06	7.751000e-09	1.962283e+01	5.107284e+02
1.580000e-06	2.922600e-06	7.773382e-09	1.967810e+01	5.122175e+02
1.590000e-06	2.929859e-06	7.792336e-09	1.972698e+01	5.135664e+02
1.600000e-06	2.936109e-06	7.809588e-09	1.976906e+01	5.147797e+02
1.610000e-06	2.941374e-06	7.826432e-09	1.980452e+01	5.158425e+02
1.620000e-06	2.945803e-06	7.841170e-09	1.983433e+01	5.167286e+02
1.630000e-06	2.949247e-06	7.851634e-09	1.985752e+01	5.174130e+02
1.640000e-06	2.951397e-06	7.858023e-09	1.987200e+01	5.178838e+02
1.650000e-06	2.952353e-06	7.861641e-09	1.987843e+01	5.181482e+02
1.660000e-06	2.952363e-06	7.862866e-09	1.987850e+01	5.182313e+02
1.670000e-06	2.951430e-06	7.862151e-09	1.987222e+01	5.181664e+02
1.680000e-06	2.949535e-06	7.860923e-09	1.985946e+01	5.179821e+02
1.690000e-06	2.946776e-06	7.858754e-09	1.984088e+01	5.176898e+02
1.700000e-06	2.943266e-06	7.854020e-09	1.981725e+01	5.172785e+02
1.710000e-06	2.938868e-06	7.845779e-09	1.978764e+01	5.167180e+02
1.720000e-06	2.933287e-06	7.836470e-09	1.975006e+01	5.159700e+02
1.730000e-06	2.926554e-06	7.835260e-09	1.970473e+01	5.150043e+02
1.740000e-06	2.918934e-06	7.803679e-09	1.965342e+01	5.138118e+02
1.750000e-06	2.910205e-06	7.725119e-09	1.959465e+01	5.124118e+02
1.760000e-06	2.899854e-06	7.686718e-09	1.952496e+01	5.108480e+02
1.770000e-06	2.887999e-06	7.770947e-09	1.944514e+01	5.091768e+02
1.780000e-06	2.875711e-06	7.784446e-09	1.936240e+01	5.074502e+02
1.790000e-06	2.863225e-06	7.644538e-09	1.927833e+01	5.057001e+02
1.800000e-06	2.849358e-06	7.584513e-09	1.918497e+01	5.039299e+02
1.810000e-06	2.833784e-06	7.684741e-09	1.908010e+01	5.021159e+02
1.820000e-06	2.817485e-06	7.618273e-09	1.897036e+01	5.002165e+02
1.830000e-06	2.800585e-06	7.480709e-09	1.885657e+01	4.981881e+02
1.840000e-06	2.782405e-06	7.580473e-09	1.873416e+01	4.959982e+02
1.850000e-06	2.763254e-06	7.565766e-09	1.860521e+01	4.936337e+02
1.860000e-06	2.743421e-06	7.388218e-09	1.847168e+01	4.911000e+02
1.870000e-06	2.722265e-06	7.452938e-09	1.832924e+01	4.884130e+02
1.880000e-06	2.699746e-06	7.484799e-09	1.817761e+01	4.855867e+02
1.890000e-06	2.676397e-06	7.277635e-09	1.802040e+01	4.826239e+02
1.900000e-06	2.652131e-06	7.278632e-09	1.785702e+01	4.795119e+02
1.910000e-06	2.626964e-06	7.343992e-09	1.768756e+01	4.762263e+02
1.920000e-06	2.601097e-06	7.210006e-09	1.751340e+01	4.727415e+02
1.930000e-06	2.574369e-06	7.133469e-09	1.733344e+01	4.690422e+02
1.940000e-06	2.546904e-06	7.110224e-09	1.714851e+01	4.651324e+02
1.950000e-06	2.518625e-06	7.023530e-09	1.695811e+01	4.610365e+02
1.960000e-06	2.488964e-06	7.005182e-09	1.675840e+01	4.567932e+02
1.970000e-06	2.458116e-06	6.897202e-09	1.655070e+01	4.524429e+02
1.980000e-06	2.426491e-06	6.784952e-09	1.633777e+01	4.480150e+02
1.990000e-06	2.394043e-06	6.820535e-09	1.611929e+01	4.435183e+02
2.000000e-06	2.360875e-06	6.714306e-09	1.589597e+01	4.389406e+02
2.010000e-06	2.326968e-06	6.591779e-09	1.566767e+01	4.342545e+02
2.020000e-06	2.292249e-06	6.585623e-09	1.543390e+01	4.294310e+02
2.030000e-06	2.256906e-06	6.457168e-09	1.519593e+01	4.244510e+02
2.040000e-06	2.220739e-06	6.372066e-09	1.495242e+01	4.193147e+02
2.050000e-06	2.183452e-06	6.367875e-09	1.470136e+01	4.140412e+02
2.060000e-06	2.145178e-06	6.225503e-09	1.444366e+01	4.086617e+02
2.070000e-06	2.106176e-06	6.130520e-09	1.418106e+01	4.032074e+02
2.080000e-06	2.066596e-06	6.094848e-09	1.391456e+01	3.976976e+02
2.090000e-06	2.026338e-06	5.991302e-09	1.364350e+01	3.921327e+02
2.100000e-06	1.985348e-06	5.901806e-09	1.336751e+01	3.864948e+02
2.110000e-06	1.943740e-06	5.805643e-09	1.308736e+01	3.807556e+02
2.120000e-06	1.901478e-06	5.719023e-09	1.280281e+01	3.748883e+02
2.130000e-06	1.858602e-06	5.651467e-09	1.251412e+01	3.688781e+02
2.140000e-06	1.815258e-06	5.542911e-09	1.222228e+01	3.627284e+02
2.150000e-06	1.771384e-06	5.440165e-09	1.192688e+01	3.564588e+02
2.160000e-06	1.726847e-06	5.347402e-09	1.162700e+01	3.500969e+02
2.170000e-06	1.681572e-06	5.252004e-09	1.132216e+01	3.436671e+02
2.180000e-06	1.635723e-06	5.161182e-09	1.101345e+01	3.371809e+02
2.190000e-06	1.589426e-06	5.052063e-09	1.070173e+01	3.306329e+02
2.200000e-06	1.542667e-06	4.944932e-09	1.038690e+01	3.240035e+02
2.210000e-06	1.495407e-06	4.845523e-09	1.006870e+01	3.172674e+02
2.220000e-06	1.447346e-06	4.745697e-09	9.745099e+00	3.104047e+02
2.230000e-06	1.398491e-06	4.642944e-09	9.416153e+00	3.034092e+02
2.240000e-06	1.349195e-06	4.518266e-09	9.084242e+00	2.962908e+02
2.250000e-06	1.299516e-06	4.413181e-09	8.749749e+00	2.890718e+02
2.260000e-06	1.249345e-06	4.315687e-09	8.411942e+00	2.817778e+02
2.270000e-06	1.198656e-06	4.196324e-09	8.070650e+00	2.744276e+02
2.280000e-06	1.147532e-06	4.081464e-09	7.726426e+00	2.670259e+02
2.290000e-06	1.096019e-06	3.966046e-09	7.379589e+00	2.595624e+02
2.300000e-06	1.044067e-06	3.857208e-09	7.029792e+00	2.520167e+02
2.310000e-06	9.915993e-07	3.744008e-09	6.676519e+00	2.443682e+02
2.320000e-06	9.385215e-07	3.618339e-09	6.319142e+00	2.366056e+02
2.330000e-06	8.848893e-07	3.498549e-09	5.958032e+00	2.287334e+02
2.340000e-06	8.308158e-07	3.378301e-09	5.593951e+00	2.207714e+02
2.350000e-06	7.763128e-07	3.256485e-09	5.226978e+00	2.127487e+02
2.360000e-06	7.214734e-07	3.136364e-09	4.857740e+00	2.046933e+02
2.370000e-06	6.664664e-07	3.013148e-09	4.487373e+00	1.966225e+02
2.380000e-06	6.113257e-07	2.893383e-09	4.116106e+00	1.885366e+02
2.390000e-06	5.560839e-07	2.771828e-09	3.744159e+00	1.804189e+02
2.400000e-06	5.007507e-07	2.645431e-09	3.371596e+00	1.722427e+02
2.410000e-06	4.452824e-07	2.517264e-09	2.998123e+00	1.639801e+02
2.420000e-06	3.897096e-07	2.385954e-09	2.623947e+00	1.556123e+02
2.430000e-06	3.340449e-07	2.259245e-09	2.249152e+00	1.471350e+02
2.440000e-06	2.782070e-07	2.131799e-09	1.873190e+00	1.385588e+02
2.450000e-06	2.221824e-07	2.000888e-09	1.495973e+00	1.299038e+02
2.460000e-06	1.660981e-07	1.869392e-09	1.118352e+00	1.211918e+02
2.470000e-06	1.100144e-07	1.736058e-09	7.407358e-01	1.124377e+02
2.480000e-06	5.390854e-08	1.603812e-09	3.629707e-01	1.036456e+02
2.490000e-06	-2.174341e-09	1.468217e-09	-1.464002e-02	9.480808e+01
2.500000e-06	-5.823336e-08	1.330855e-09	-3.920900e-01	8.591097e+01
2.510000e-06	-1.142760e-07	1.194399e-09	-7.694296e-01	7.693952e+01
2.520000e-06	-1.702489e-07	1.057564e-09	-1.146300e+00	6.788417e+01
2.530000e-06	-2.261372e-07	9.196448e-10	-1.522600e+00	5.874348e+01
2.540000e-06	-2.819771e-07	7.781667e-10	-1.898575e+00	4.952315e+01
2.550000e-06	-3.376869e-07	6.359355e-10	-2.273673e+00	4.023206e+01
2.560000e-06	-3.932261e-07	4.961081e-10	-2.647624e+00	3.087715e+01
2.570000e-06	-4.487038e-07	3.559352e-10	-3.021160e+00	2.145958e+01
2.580000e-06	-5.040781e-07	2.120678e-10	-3.393999e+00	1.197359e+01
2.590000e-06	-5.593590e-07	6.493272e-11	-3.766210e+00	2.408555e+00
2.600000e-06	-6.145660e-07	-8.293056e-11	-4.137924e+00	-7.246863e+00
2.610000e-06	-6.696632e-07	-2.304771e-10	-4.508897e+00	-1.700029e+01
2.620000e-06	-7.246399e-07	-3.801688e-10	-4.879060e+00	-2.685289e+01
2.630000e-06	-7.793818e-07	-5.315211e-10	-5.247642e+00	-3.679922e+01
2.640000e-06	-8.337469e-07	-6.842114e-10	-5.613686e+00	-4.682986e+01
2.650000e-06	-8.876602e-07	-8.387907e-10	-5.976689e+00	-5.693527e+01
2.660000e-06	-9.410661e-07	-9.954387e-10	-6.336275e+00	-6.710943e+01
2.670000e-06	-9.939148e-07	-1.153428e-09	-6.692110e+00	-7.735162e+01
2.680000e-06	-1.046180e-06	-1.311243e-09	-7.044019e+00	-8.766565e+01
2.690000e-06	-1.097920e-06	-1.469339e-09	-7.392388e+00	-9.805700e+01
2.700000e-06	-1.149226e-06	-1.628227e-09	-7.737831e+00	-1.085292e+02
2.710000e-06	-1.200140e-06	-1.788178e-09	-8.080644e+00	-1.190805e+02
2.720000e-06	-1.250656e-06	-1.949333e-09	-8.420770e+00	-1.297032e+02
2.730000e-06	-1.300681e-06	-2.112894e-09	-8.757595e+00	-1.403841e+02
2.740000e-06	-1.350223e-06	-2.277866e-09	-9.091162e+00	-1.511076e+02
2.750000e-06	-1.399365e-06	-2.444010e-09	-9.422039e+00	-1.618587e+02
2.760000e-06	-1.447879e-06	-2.610126e-09	-9.748685e+00	-1.726257e+02
2.770000e-06	-1.495469e-06	-2.773414e-09	-1.006911e+01	-1.834008e+02
2.780000e-06	-1.542197e-06	-2.934594e-09	-1.038374e+01	-1.941796e+02
2.790000e-06	-1.588249e-06	-3.096807e-09	-1.069381e+01	-2.049590e+02
2.800000e-06	-1.633835e-06	-3.262897e-09	-1.100074e+01	-2.157350e+02
2.810000e-06	-1.679092e-06	-3.429736e-09	-1.130546e+01	-2.265009e+02
2.820000e-06	-1.723917e-06	-3.594349e-09	-1.160727e+01	-2.372464e+02
2.830000e-06	-1.768144e-06	-3.758540e-09	-1.190506e+01	-2.479576e+02
2.840000e-06	-1.811766e-06	-3.923472e-09	-1.219877e+01	-2.586183e+02
2.850000e-06	-1.854906e-06	-4.086335e-09	-1.248923e+01	-2.692102e+02
2.860000e-06	-1.897562e-06	-4.245018e-09	-1.277644e+01	-2.797140e+02
2.870000e-06	-1.939596e-06	-4.400610e-09	-1.305946e+01	-2.901100e+02
2.880000e-06	-1.980970e-06	-4.555891e-09	-1.333803e+01	-3.003785e+02
2.890000e-06	-2.021732e-06	-4.711798e-09	-1.361249e+01	-3.105005e+02
2.900000e-06	-2.061780e-06	-4.864969e-09	-1.388213e+01	-3.204585e+02
2.910000e-06	-2.101171e-06	-5.013967e-09	-1.414736e+01	-3.302369e+02
2.920000e-06	-2.140019e-06	-5.161617e-09	-1.440892e+01	-3.398219e+02
2.930000e-06	-2.178046e-06	-5.309394e-09	-1.466497e+01	-3.492004e+02
2.940000e-06	-2.214987e-06	-5.452600e-09	-1.491369e+01	-3.583586e+02
