# Temperatura_=_20.9
# Concentracion g/m^3_=_18700.0
# C_Vs_to_Am_M_A/Vsm_=_65563218390.804596
# pendiente_HvsI_1/m_=_3716.3
# ordenada_HvsI_A/m_=_1297.0
# frecuencia_Hz_=_301075.85801183386

Tiempo_(s)	Campo_(V.s)	Magnetizacion_(V.s)	Campo_(kA/m)	Magnetizacion_(A/m)
0.000000e+00	-2.934311e-06	-7.662152e-09	-1.977592e+01	-4.992994e+02
1.000000e-08	-2.933835e-06	-7.661695e-09	-1.977271e+01	-4.992560e+02
2.000000e-08	-2.932527e-06	-7.659427e-09	-1.976390e+01	-4.990441e+02
3.000000e-08	-2.929976e-06	-7.654252e-09	-1.974671e+01	-4.986756e+02
4.000000e-08	-2.926214e-06	-7.647773e-09	-1.972135e+01	-4.981593e+02
5.000000e-08	-2.921618e-06	-7.638017e-09	-1.969038e+01	-4.974988e+02
6.000000e-08	-2.916192e-06	-7.621664e-09	-1.965381e+01	-4.966913e+02
7.000000e-08	-2.909839e-06	-7.590551e-09	-1.961099e+01	-4.957302e+02
8.000000e-08	-2.902480e-06	-7.564793e-09	-1.956139e+01	-4.946092e+02
9.000000e-08	-2.894021e-06	-7.603338e-09	-1.950439e+01	-4.933263e+02
1.000000e-07	-2.884144e-06	-7.638179e-09	-1.943782e+01	-4.918872e+02
1.100000e-07	-2.872714e-06	-7.545387e-09	-1.936079e+01	-4.903066e+02
1.200000e-07	-2.860364e-06	-7.373693e-09	-1.927756e+01	-4.886053e+02
1.300000e-07	-2.847365e-06	-7.413849e-09	-1.918994e+01	-4.868061e+02
1.400000e-07	-2.833280e-06	-7.570458e-09	-1.909502e+01	-4.849275e+02
1.500000e-07	-2.817953e-06	-7.383737e-09	-1.899172e+01	-4.829784e+02
1.600000e-07	-2.801523e-06	-7.258924e-09	-1.888099e+01	-4.809550e+02
1.700000e-07	-2.783922e-06	-7.424772e-09	-1.876237e+01	-4.788411e+02
1.800000e-07	-2.765242e-06	-7.365785e-09	-1.863648e+01	-4.766117e+02
1.900000e-07	-2.745844e-06	-7.169070e-09	-1.850574e+01	-4.742392e+02
2.000000e-07	-2.725682e-06	-7.247627e-09	-1.836986e+01	-4.716996e+02
2.100000e-07	-2.704534e-06	-7.237358e-09	-1.822733e+01	-4.689781e+02
2.200000e-07	-2.682519e-06	-7.002759e-09	-1.807896e+01	-4.660713e+02
2.300000e-07	-2.659723e-06	-7.067180e-09	-1.792532e+01	-4.629867e+02
2.400000e-07	-2.635974e-06	-7.142326e-09	-1.776527e+01	-4.597385e+02
2.500000e-07	-2.611422e-06	-6.928482e-09	-1.759980e+01	-4.563422e+02
2.600000e-07	-2.586035e-06	-6.857146e-09	-1.742870e+01	-4.528098e+02
2.700000e-07	-2.559342e-06	-6.895166e-09	-1.724880e+01	-4.491464e+02
2.800000e-07	-2.531479e-06	-6.796927e-09	-1.706102e+01	-4.453500e+02
2.900000e-07	-2.502848e-06	-6.736980e-09	-1.686806e+01	-4.414136e+02
3.000000e-07	-2.473364e-06	-6.646751e-09	-1.666935e+01	-4.373300e+02
3.100000e-07	-2.443024e-06	-6.582398e-09	-1.646487e+01	-4.330955e+02
3.200000e-07	-2.411987e-06	-6.593346e-09	-1.625570e+01	-4.287133e+02
3.300000e-07	-2.380175e-06	-6.474035e-09	-1.604130e+01	-4.241933e+02
3.400000e-07	-2.347658e-06	-6.352971e-09	-1.582215e+01	-4.195506e+02
3.500000e-07	-2.314483e-06	-6.340424e-09	-1.559857e+01	-4.148008e+02
3.600000e-07	-2.280266e-06	-6.250737e-09	-1.536796e+01	-4.099557e+02
3.700000e-07	-2.244803e-06	-6.158996e-09	-1.512895e+01	-4.050203e+02
3.800000e-07	-2.208457e-06	-6.138115e-09	-1.488400e+01	-3.999922e+02
3.900000e-07	-2.171474e-06	-5.997233e-09	-1.463475e+01	-3.948629e+02
4.000000e-07	-2.133796e-06	-5.897070e-09	-1.438081e+01	-3.896222e+02
4.100000e-07	-2.095360e-06	-5.883713e-09	-1.412177e+01	-3.842627e+02
4.200000e-07	-2.056114e-06	-5.783276e-09	-1.385727e+01	-3.787830e+02
4.300000e-07	-2.016172e-06	-5.654822e-09	-1.358808e+01	-3.731889e+02
4.400000e-07	-1.975763e-06	-5.593041e-09	-1.331575e+01	-3.674919e+02
4.500000e-07	-1.934854e-06	-5.525178e-09	-1.304004e+01	-3.617056e+02
4.600000e-07	-1.893106e-06	-5.423786e-09	-1.275867e+01	-3.558408e+02
4.700000e-07	-1.850293e-06	-5.319228e-09	-1.247014e+01	-3.499019e+02
4.800000e-07	-1.806565e-06	-5.212229e-09	-1.217542e+01	-3.438858e+02
4.900000e-07	-1.762208e-06	-5.133122e-09	-1.187648e+01	-3.377823e+02
5.000000e-07	-1.717417e-06	-5.053570e-09	-1.157461e+01	-3.315790e+02
5.100000e-07	-1.672102e-06	-4.953802e-09	-1.126921e+01	-3.252650e+02
5.200000e-07	-1.626150e-06	-4.840516e-09	-1.095951e+01	-3.188355e+02
5.300000e-07	-1.579652e-06	-4.744857e-09	-1.064614e+01	-3.122936e+02
5.400000e-07	-1.532547e-06	-4.650353e-09	-1.032867e+01	-3.056494e+02
5.500000e-07	-1.484842e-06	-4.548483e-09	-1.000716e+01	-2.989165e+02
5.600000e-07	-1.436701e-06	-4.438192e-09	-9.682713e+00	-2.921072e+02
5.700000e-07	-1.388166e-06	-4.320427e-09	-9.355605e+00	-2.852285e+02
5.800000e-07	-1.339163e-06	-4.227103e-09	-9.025353e+00	-2.782798e+02
5.900000e-07	-1.289479e-06	-4.130590e-09	-8.690502e+00	-2.712533e+02
6.000000e-07	-1.238962e-06	-4.011878e-09	-8.350040e+00	-2.641375e+02
6.100000e-07	-1.187672e-06	-3.890329e-09	-8.004367e+00	-2.569218e+02
6.200000e-07	-1.135813e-06	-3.788821e-09	-7.654864e+00	-2.496011e+02
6.300000e-07	-1.083564e-06	-3.684000e-09	-7.302726e+00	-2.421781e+02
6.400000e-07	-1.031031e-06	-3.562381e-09	-6.948678e+00	-2.346633e+02
6.500000e-07	-9.782233e-07	-3.434941e-09	-6.592781e+00	-2.270718e+02
6.600000e-07	-9.249399e-07	-3.317969e-09	-6.233675e+00	-2.194188e+02
6.700000e-07	-8.712341e-07	-3.212229e-09	-5.871722e+00	-2.117155e+02
6.800000e-07	-8.172837e-07	-3.095848e-09	-5.508121e+00	-2.039663e+02
6.900000e-07	-7.630970e-07	-2.971125e-09	-5.142927e+00	-1.961689e+02
7.000000e-07	-7.087124e-07	-2.846235e-09	-4.776400e+00	-1.883164e+02
7.100000e-07	-6.541600e-07	-2.730463e-09	-4.408741e+00	-1.804018e+02
7.200000e-07	-5.994000e-07	-2.609409e-09	-4.039684e+00	-1.724213e+02
7.300000e-07	-5.444135e-07	-2.478186e-09	-3.669099e+00	-1.643765e+02
7.400000e-07	-4.891761e-07	-2.347537e-09	-3.296825e+00	-1.562735e+02
7.500000e-07	-4.336867e-07	-2.226206e-09	-2.922851e+00	-1.481206e+02
7.600000e-07	-3.780426e-07	-2.111771e-09	-2.547835e+00	-1.399233e+02
7.700000e-07	-3.222367e-07	-1.987531e-09	-2.171729e+00	-1.316821e+02
7.800000e-07	-2.662975e-07	-1.852227e-09	-1.794724e+00	-1.233900e+02
7.900000e-07	-2.102586e-07	-1.718476e-09	-1.417047e+00	-1.150351e+02
8.000000e-07	-1.541404e-07	-1.594329e-09	-1.038836e+00	-1.066040e+02
8.100000e-07	-9.798241e-08	-1.466635e-09	-6.603569e-01	-9.808714e+01
8.200000e-07	-4.180183e-08	-1.330901e-09	-2.817253e-01	-8.948313e+01
8.300000e-07	1.436268e-08	-1.193601e-09	9.679791e-02	-8.080011e+01
8.400000e-07	7.050901e-08	-1.063121e-09	4.751987e-01	-7.205394e+01
8.500000e-07	1.266397e-07	-9.346019e-10	8.534941e-01	-6.326315e+01
8.600000e-07	1.827712e-07	-7.965156e-10	1.231795e+00	-5.444260e+01
8.700000e-07	2.388539e-07	-6.552646e-10	1.609767e+00	-4.559780e+01
8.800000e-07	2.948080e-07	-5.202342e-10	1.986872e+00	-3.672229e+01
8.900000e-07	3.506179e-07	-3.906206e-10	2.363005e+00	-2.779888e+01
9.000000e-07	4.063249e-07	-2.544648e-10	2.738445e+00	-1.880475e+01
9.100000e-07	4.619091e-07	-1.110031e-10	3.113057e+00	-9.718604e+00
9.200000e-07	5.173064e-07	3.348318e-11	3.486410e+00	-5.276347e-01
9.300000e-07	5.724951e-07	1.748498e-10	3.858357e+00	8.768237e+00
9.400000e-07	6.274304e-07	3.159980e-10	4.228596e+00	1.815623e+01
9.500000e-07	6.821393e-07	4.613803e-10	4.597309e+00	2.761482e+01
9.600000e-07	7.366641e-07	6.082377e-10	4.964781e+00	3.712073e+01
9.700000e-07	7.909812e-07	7.523085e-10	5.330854e+00	4.665640e+01
9.800000e-07	8.450493e-07	8.927520e-10	5.695248e+00	5.621546e+01
9.900000e-07	8.987775e-07	1.039626e-09	6.057352e+00	6.580434e+01
1.000000e-06	9.521173e-07	1.191824e-09	6.416838e+00	7.543957e+01
1.010000e-06	1.005060e-06	1.341191e-09	6.773646e+00	8.514171e+01
1.020000e-06	1.057680e-06	1.486365e-09	7.128284e+00	9.492805e+01
1.030000e-06	1.110021e-06	1.634396e-09	7.481036e+00	1.048065e+02
1.040000e-06	1.161956e-06	1.788781e-09	7.831057e+00	1.147725e+02
1.050000e-06	1.213285e-06	1.942742e-09	8.176986e+00	1.248102e+02
1.060000e-06	1.263846e-06	2.094197e-09	8.517748e+00	1.348969e+02
1.070000e-06	1.313599e-06	2.246493e-09	8.853059e+00	1.450091e+02
1.080000e-06	1.362680e-06	2.402431e-09	9.183841e+00	1.551284e+02
1.090000e-06	1.411364e-06	2.558077e-09	9.511951e+00	1.652449e+02
1.100000e-06	1.459748e-06	2.711005e-09	9.838035e+00	1.753577e+02
1.110000e-06	1.507701e-06	2.863685e-09	1.016122e+01	1.854716e+02
1.120000e-06	1.555056e-06	3.018362e-09	1.048037e+01	1.955924e+02
1.130000e-06	1.601810e-06	3.174885e-09	1.079547e+01	2.057223e+02
1.140000e-06	1.648041e-06	3.330133e-09	1.110705e+01	2.158563e+02
1.150000e-06	1.693649e-06	3.482617e-09	1.141442e+01	2.259820e+02
1.160000e-06	1.738628e-06	3.634282e-09	1.171757e+01	2.360806e+02
1.170000e-06	1.783211e-06	3.787617e-09	1.201803e+01	2.461312e+02
1.180000e-06	1.827461e-06	3.939750e-09	1.231626e+01	2.561141e+02
1.190000e-06	1.871176e-06	4.089346e-09	1.261088e+01	2.660140e+02
1.200000e-06	1.913988e-06	4.238062e-09	1.289941e+01	2.758199e+02
1.210000e-06	1.955682e-06	4.387364e-09	1.318041e+01	2.855246e+02
1.220000e-06	1.996506e-06	4.535726e-09	1.345555e+01	2.951216e+02
1.230000e-06	2.036773e-06	4.679898e-09	1.372692e+01	3.046019e+02
1.240000e-06	2.076475e-06	4.817980e-09	1.399450e+01	3.139524e+02
1.250000e-06	2.115496e-06	4.952390e-09	1.425748e+01	3.231545e+02
1.260000e-06	2.153797e-06	5.088512e-09	1.451561e+01	3.321861e+02
1.270000e-06	2.191287e-06	5.223434e-09	1.476828e+01	3.410231e+02
1.280000e-06	2.228078e-06	5.353953e-09	1.501623e+01	3.496431e+02
1.290000e-06	2.264405e-06	5.479414e-09	1.526106e+01	3.580276e+02
1.300000e-06	2.300024e-06	5.602015e-09	1.550112e+01	3.661634e+02
1.310000e-06	2.334497e-06	5.720670e-09	1.573345e+01	3.740433e+02
1.320000e-06	2.367816e-06	5.833687e-09	1.595801e+01	3.816651e+02
1.330000e-06	2.400346e-06	5.941535e-09	1.617724e+01	3.890301e+02
1.340000e-06	2.432189e-06	6.045771e-09	1.639185e+01	3.961413e+02
1.350000e-06	2.463179e-06	6.148840e-09	1.660071e+01	4.030027e+02
1.360000e-06	2.493327e-06	6.249224e-09	1.680389e+01	4.096177e+02
1.370000e-06	2.522671e-06	6.345930e-09	1.700166e+01	4.159891e+02
1.380000e-06	2.551259e-06	6.438151e-09	1.719432e+01	4.221191e+02
1.390000e-06	2.579129e-06	6.527047e-09	1.738216e+01	4.280096e+02
1.400000e-06	2.605965e-06	6.613320e-09	1.756302e+01	4.336622e+02
1.410000e-06	2.631505e-06	6.694092e-09	1.773515e+01	4.390788e+02
1.420000e-06	2.655978e-06	6.769614e-09	1.790008e+01	4.442619e+02
1.430000e-06	2.679603e-06	6.842683e-09	1.805931e+01	4.492147e+02
1.440000e-06	2.702346e-06	6.913248e-09	1.821259e+01	4.539408e+02
1.450000e-06	2.724160e-06	6.979698e-09	1.835960e+01	4.584440e+02
1.460000e-06	2.745135e-06	7.043492e-09	1.850097e+01	4.627270e+02
1.470000e-06	2.765383e-06	7.105166e-09	1.863743e+01	4.667907e+02
1.480000e-06	2.784730e-06	7.162110e-09	1.876781e+01	4.706330e+02
1.490000e-06	2.803000e-06	7.212882e-09	1.889095e+01	4.742479e+02
1.500000e-06	2.820265e-06	7.259651e-09	1.900730e+01	4.776269e+02
1.510000e-06	2.836515e-06	7.303856e-09	1.911683e+01	4.807596e+02
1.520000e-06	2.851683e-06	7.345809e-09	1.921905e+01	4.836371e+02
1.530000e-06	2.865778e-06	7.384070e-09	1.931404e+01	4.862545e+02
1.540000e-06	2.878839e-06	7.416768e-09	1.940207e+01	4.886140e+02
1.550000e-06	2.890794e-06	7.446703e-09	1.948264e+01	4.907256e+02
1.560000e-06	2.901425e-06	7.474390e-09	1.955428e+01	4.926070e+02
1.570000e-06	2.910735e-06	7.499673e-09	1.961703e+01	4.942806e+02
1.580000e-06	2.919030e-06	7.521901e-09	1.967293e+01	4.957695e+02
1.590000e-06	2.926423e-06	7.540923e-09	1.972276e+01	4.970930e+02
1.600000e-06	2.932809e-06	7.557417e-09	1.976580e+01	4.982630e+02
1.610000e-06	2.938182e-06	7.571965e-09	1.980201e+01	4.992825e+02
1.620000e-06	2.942703e-06	7.584479e-09	1.983248e+01	5.001460e+02
1.630000e-06	2.946233e-06	7.595027e-09	1.985627e+01	5.008434e+02
1.640000e-06	2.948398e-06	7.603834e-09	1.987086e+01	5.013634e+02
1.650000e-06	2.949410e-06	7.611027e-09	1.987768e+01	5.016988e+02
1.660000e-06	2.949531e-06	7.615754e-09	1.987850e+01	5.018482e+02
1.670000e-06	2.948704e-06	7.615741e-09	1.987293e+01	5.018177e+02
1.680000e-06	2.946947e-06	7.612427e-09	1.986108e+01	5.016177e+02
1.690000e-06	2.944301e-06	7.607993e-09	1.984325e+01	5.012603e+02
1.700000e-06	2.940881e-06	7.600305e-09	1.982020e+01	5.007547e+02
1.710000e-06	2.936631e-06	7.590592e-09	1.979156e+01	5.001048e+02
1.720000e-06	2.931170e-06	7.585180e-09	1.975476e+01	4.993082e+02
1.730000e-06	2.924501e-06	7.597827e-09	1.970981e+01	4.983587e+02
1.740000e-06	2.917014e-06	7.564811e-09	1.965935e+01	4.972496e+02
1.750000e-06	2.908555e-06	7.461360e-09	1.960234e+01	4.959784e+02
1.760000e-06	2.898512e-06	7.413858e-09	1.953466e+01	4.945504e+02
1.770000e-06	2.886873e-06	7.552588e-09	1.945621e+01	4.929795e+02
1.780000e-06	2.874689e-06	7.574577e-09	1.937410e+01	4.912864e+02
1.790000e-06	2.862422e-06	7.371366e-09	1.929143e+01	4.894938e+02
1.800000e-06	2.848874e-06	7.313729e-09	1.920012e+01	4.876207e+02
1.810000e-06	2.833476e-06	7.482533e-09	1.909634e+01	4.856769e+02
1.820000e-06	2.817255e-06	7.374921e-09	1.898702e+01	4.836595e+02
1.830000e-06	2.800490e-06	7.153625e-09	1.887403e+01	4.815531e+02
1.840000e-06	2.782423e-06	7.328694e-09	1.875227e+01	4.793332e+02
1.850000e-06	2.763283e-06	7.326068e-09	1.862327e+01	4.769721e+02
1.860000e-06	2.743562e-06	7.056439e-09	1.849036e+01	4.744454e+02
1.870000e-06	2.722683e-06	7.192855e-09	1.834965e+01	4.717373e+02
1.880000e-06	2.700373e-06	7.281092e-09	1.819929e+01	4.688440e+02
1.890000e-06	2.677148e-06	6.969295e-09	1.804276e+01	4.657719e+02
1.900000e-06	2.652977e-06	6.974555e-09	1.787986e+01	4.625352e+02
1.910000e-06	2.627863e-06	7.087913e-09	1.771060e+01	4.591493e+02
1.920000e-06	2.602120e-06	6.912562e-09	1.753710e+01	4.556267e+02
1.930000e-06	2.575530e-06	6.843578e-09	1.735790e+01	4.519729e+02
1.940000e-06	2.548154e-06	6.850878e-09	1.717340e+01	4.481865e+02
1.950000e-06	2.520059e-06	6.747864e-09	1.698405e+01	4.442606e+02
1.960000e-06	2.490631e-06	6.754156e-09	1.678572e+01	4.401880e+02
1.970000e-06	2.459867e-06	6.633373e-09	1.657839e+01	4.359646e+02
1.980000e-06	2.428328e-06	6.481877e-09	1.636583e+01	4.315929e+02
1.990000e-06	2.396015e-06	6.562715e-09	1.614805e+01	4.270827e+02
2.000000e-06	2.362936e-06	6.445638e-09	1.592512e+01	4.224485e+02
2.010000e-06	2.329135e-06	6.299184e-09	1.569731e+01	4.177061e+02
2.020000e-06	2.294471e-06	6.337363e-09	1.546369e+01	4.128679e+02
2.030000e-06	2.259192e-06	6.192785e-09	1.522593e+01	4.079393e+02
2.040000e-06	2.223216e-06	6.090533e-09	1.498347e+01	4.029183e+02
2.050000e-06	2.186097e-06	6.120521e-09	1.473330e+01	3.977968e+02
2.060000e-06	2.147966e-06	5.964614e-09	1.447631e+01	3.925647e+02
2.070000e-06	2.109111e-06	5.857366e-09	1.421445e+01	3.872141e+02
2.080000e-06	2.069640e-06	5.831471e-09	1.394843e+01	3.817432e+02
2.090000e-06	2.029493e-06	5.726487e-09	1.367786e+01	3.761572e+02
2.100000e-06	1.988600e-06	5.645667e-09	1.340226e+01	3.704674e+02
2.110000e-06	1.947074e-06	5.541899e-09	1.312239e+01	3.646873e+02
2.120000e-06	1.904892e-06	5.457616e-09	1.283810e+01	3.588282e+02
2.130000e-06	1.862072e-06	5.404089e-09	1.254952e+01	3.528950e+02
2.140000e-06	1.818779e-06	5.288932e-09	1.225775e+01	3.468849e+02
2.150000e-06	1.775040e-06	5.184582e-09	1.196296e+01	3.407884e+02
2.160000e-06	1.730686e-06	5.094721e-09	1.166404e+01	3.345929e+02
2.170000e-06	1.685547e-06	5.003197e-09	1.135982e+01	3.282873e+02
2.180000e-06	1.639717e-06	4.917579e-09	1.105095e+01	3.218664e+02
2.190000e-06	1.593469e-06	4.811656e-09	1.073926e+01	3.153325e+02
2.200000e-06	1.546839e-06	4.711102e-09	1.042499e+01	3.086955e+02
2.210000e-06	1.499628e-06	4.606345e-09	1.010681e+01	3.019687e+02
2.220000e-06	1.451638e-06	4.501819e-09	9.783379e+00	2.951649e+02
2.230000e-06	1.402922e-06	4.411658e-09	9.455058e+00	2.882914e+02
2.240000e-06	1.353762e-06	4.285695e-09	9.123739e+00	2.813482e+02
2.250000e-06	1.304223e-06	4.180667e-09	8.789869e+00	2.743279e+02
2.260000e-06	1.254196e-06	4.093213e-09	8.452709e+00	2.672191e+02
2.270000e-06	1.203642e-06	3.974351e-09	8.112000e+00	2.600111e+02
2.280000e-06	1.152631e-06	3.858671e-09	7.768208e+00	2.526982e+02
2.290000e-06	1.101264e-06	3.739411e-09	7.422018e+00	2.452826e+02
2.300000e-06	1.049535e-06	3.634626e-09	7.073388e+00	2.377741e+02
2.310000e-06	9.973238e-07	3.529046e-09	6.721509e+00	2.301878e+02
2.320000e-06	9.445218e-07	3.403140e-09	6.365648e+00	2.225391e+02
2.330000e-06	8.911031e-07	3.285479e-09	6.005630e+00	2.148394e+02
2.340000e-06	8.371263e-07	3.169651e-09	5.641851e+00	2.070939e+02
2.350000e-06	7.826811e-07	3.051251e-09	5.274915e+00	1.993003e+02
2.360000e-06	7.278897e-07	2.930754e-09	4.905646e+00	1.914523e+02
2.370000e-06	6.728409e-07	2.808550e-09	4.534642e+00	1.835426e+02
2.380000e-06	6.176083e-07	2.695906e-09	4.162399e+00	1.755672e+02
2.390000e-06	5.622965e-07	2.578467e-09	3.789623e+00	1.675271e+02
2.400000e-06	5.069187e-07	2.452580e-09	3.416401e+00	1.594283e+02
2.410000e-06	4.514688e-07	2.325410e-09	3.042695e+00	1.512790e+02
2.420000e-06	3.959215e-07	2.193469e-09	2.668331e+00	1.430851e+02
2.430000e-06	3.402770e-07	2.070531e-09	2.293312e+00	1.348474e+02
2.440000e-06	2.845544e-07	1.949282e-09	1.917767e+00	1.265597e+02
2.450000e-06	2.287150e-07	1.822104e-09	1.541435e+00	1.182100e+02
2.460000e-06	1.727801e-07	1.694219e-09	1.164459e+00	1.097850e+02
2.470000e-06	1.167973e-07	1.565784e-09	7.871604e-01	1.012747e+02
2.480000e-06	6.076806e-08	1.440568e-09	4.095491e-01	9.267706e+01
2.490000e-06	4.724820e-09	1.307972e-09	3.184314e-02	8.399952e+01
2.500000e-06	-5.130575e-08	1.169638e-09	-3.457775e-01	7.525753e+01
2.510000e-06	-1.073297e-07	1.035955e-09	-7.233534e-01	6.646966e+01
2.520000e-06	-1.632864e-07	9.061161e-10	-1.100476e+00	5.765120e+01
2.530000e-06	-2.191604e-07	7.724131e-10	-1.477042e+00	4.880850e+01
2.540000e-06	-2.749608e-07	6.307908e-10	-1.853111e+00	3.993594e+01
2.550000e-06	-3.306357e-07	4.917186e-10	-2.228334e+00	3.101698e+01
2.560000e-06	-3.862069e-07	3.604399e-10	-2.602859e+00	2.202896e+01
2.570000e-06	-4.416958e-07	2.270108e-10	-2.976829e+00	1.295024e+01
2.580000e-06	-4.971021e-07	8.530818e-11	-3.350242e+00	3.767212e+00
2.590000e-06	-5.524132e-07	-5.860234e-11	-3.723014e+00	-5.521159e+00
2.600000e-06	-6.076252e-07	-2.019291e-10	-4.095118e+00	-1.490292e+01
2.610000e-06	-6.627324e-07	-3.451305e-10	-4.466515e+00	-2.435698e+01
2.620000e-06	-7.176731e-07	-4.900428e-10	-4.836791e+00	-3.385990e+01
2.630000e-06	-7.723984e-07	-6.362383e-10	-5.205614e+00	-4.339352e+01
2.640000e-06	-8.267480e-07	-7.816402e-10	-5.571906e+00	-5.295055e+01
2.650000e-06	-8.805187e-07	-9.249462e-10	-5.934296e+00	-6.253655e+01
2.660000e-06	-9.336869e-07	-1.070402e-09	-6.292626e+00	-7.216749e+01
2.670000e-06	-9.863062e-07	-1.221589e-09	-6.647256e+00	-8.186391e+01
2.680000e-06	-1.038414e-06	-1.373145e-09	-6.998439e+00	-9.164354e+01
2.690000e-06	-1.090074e-06	-1.523669e-09	-7.346603e+00	-1.015151e+02
2.700000e-06	-1.141393e-06	-1.675854e-09	-7.692470e+00	-1.114749e+02
2.710000e-06	-1.192395e-06	-1.830731e-09	-8.036197e+00	-1.215080e+02
2.720000e-06	-1.242961e-06	-1.984799e-09	-8.376995e+00	-1.315917e+02
2.730000e-06	-1.293003e-06	-2.137357e-09	-8.714254e+00	-1.417025e+02
2.740000e-06	-1.342543e-06	-2.290830e-09	-9.048130e+00	-1.518214e+02
2.750000e-06	-1.391578e-06	-2.446768e-09	-9.378601e+00	-1.619380e+02
2.760000e-06	-1.439973e-06	-2.603110e-09	-9.704766e+00	-1.720506e+02
2.770000e-06	-1.487554e-06	-2.756552e-09	-1.002544e+01	-1.821639e+02
2.780000e-06	-1.534336e-06	-2.909869e-09	-1.034073e+01	-1.922838e+02
2.790000e-06	-1.580500e-06	-3.064666e-09	-1.065185e+01	-2.024128e+02
2.800000e-06	-1.626202e-06	-3.219878e-09	-1.095986e+01	-2.125466e+02
2.810000e-06	-1.671519e-06	-3.372901e-09	-1.126528e+01	-2.226731e+02
2.820000e-06	-1.716368e-06	-3.524747e-09	-1.156754e+01	-2.327740e+02
2.830000e-06	-1.760608e-06	-3.678662e-09	-1.186570e+01	-2.428284e+02
2.840000e-06	-1.804274e-06	-3.835146e-09	-1.215999e+01	-2.528165e+02
2.850000e-06	-1.847545e-06	-3.991086e-09	-1.245161e+01	-2.627224e+02
2.860000e-06	-1.890305e-06	-4.141547e-09	-1.273980e+01	-2.725350e+02
2.870000e-06	-1.932388e-06	-4.287784e-09	-1.302341e+01	-2.822469e+02
2.880000e-06	-1.973855e-06	-4.433736e-09	-1.330289e+01	-2.918515e+02
2.890000e-06	-2.014680e-06	-4.579117e-09	-1.357803e+01	-3.013403e+02
2.900000e-06	-2.054779e-06	-4.721513e-09	-1.384827e+01	-3.107003e+02
2.910000e-06	-2.094251e-06	-4.862306e-09	-1.411430e+01	-3.199134e+02
2.920000e-06	-2.133132e-06	-5.004011e-09	-1.437634e+01	-3.289576e+02
2.930000e-06	-2.171163e-06	-5.145282e-09	-1.463266e+01	-3.378090e+02
2.940000e-06	-2.208038e-06	-5.280889e-09	-1.488117e+01	-3.464449e+02
