# Temperatura_=_19.63
# Concentracion g/m^3_=_18700.0
# C_Vs_to_Am_M_A/Vsm_=_65563218390.804596
# pendiente_HvsI_1/m_=_3716.3
# ordenada_HvsI_A/m_=_1297.0
# frecuencia_Hz_=_301077.37710477604

Tiempo_(s)	Campo_(V.s)	Magnetizacion_(V.s)	Campo_(kA/m)	Magnetizacion_(A/m)
0.000000e+00	-2.934992e-06	-7.599744e-09	-1.977268e+01	-4.972130e+02
1.000000e-08	-2.934539e-06	-7.597979e-09	-1.976963e+01	-4.970563e+02
2.000000e-08	-2.933260e-06	-7.594030e-09	-1.976101e+01	-4.967741e+02
3.000000e-08	-2.930716e-06	-7.587524e-09	-1.974387e+01	-4.964015e+02
4.000000e-08	-2.926946e-06	-7.581127e-09	-1.971847e+01	-4.959470e+02
5.000000e-08	-2.922343e-06	-7.572793e-09	-1.968747e+01	-4.953873e+02
6.000000e-08	-2.916921e-06	-7.558144e-09	-1.965093e+01	-4.946751e+02
7.000000e-08	-2.910556e-06	-7.527025e-09	-1.960806e+01	-4.937571e+02
8.000000e-08	-2.903156e-06	-7.503017e-09	-1.955821e+01	-4.925961e+02
9.000000e-08	-2.894682e-06	-7.546119e-09	-1.950112e+01	-4.911888e+02
1.000000e-07	-2.884750e-06	-7.577482e-09	-1.943421e+01	-4.895723e+02
1.100000e-07	-2.873211e-06	-7.462690e-09	-1.935647e+01	-4.878167e+02
1.200000e-07	-2.860822e-06	-7.288770e-09	-1.927301e+01	-4.860044e+02
1.300000e-07	-2.847762e-06	-7.362444e-09	-1.918502e+01	-4.842049e+02
1.400000e-07	-2.833669e-06	-7.528607e-09	-1.909008e+01	-4.824515e+02
1.500000e-07	-2.818405e-06	-7.306852e-09	-1.898725e+01	-4.807300e+02
1.600000e-07	-2.801932e-06	-7.203841e-09	-1.887627e+01	-4.789819e+02
1.700000e-07	-2.784285e-06	-7.415745e-09	-1.875738e+01	-4.771218e+02
1.800000e-07	-2.765604e-06	-7.337776e-09	-1.863153e+01	-4.750625e+02
1.900000e-07	-2.746165e-06	-7.135020e-09	-1.850058e+01	-4.727404e+02
2.000000e-07	-2.725990e-06	-7.243397e-09	-1.836466e+01	-4.701310e+02
2.100000e-07	-2.704851e-06	-7.221516e-09	-1.822225e+01	-4.672520e+02
2.200000e-07	-2.682892e-06	-6.964667e-09	-1.807431e+01	-4.641526e+02
2.300000e-07	-2.660139e-06	-7.055032e-09	-1.792103e+01	-4.608938e+02
2.400000e-07	-2.636404e-06	-7.123853e-09	-1.776113e+01	-4.575281e+02
2.500000e-07	-2.611875e-06	-6.887773e-09	-1.759588e+01	-4.540839e+02
2.600000e-07	-2.586447e-06	-6.840343e-09	-1.742458e+01	-4.505610e+02
2.700000e-07	-2.559677e-06	-6.897519e-09	-1.724423e+01	-4.469366e+02
2.800000e-07	-2.531764e-06	-6.781890e-09	-1.705618e+01	-4.431785e+02
2.900000e-07	-2.503085e-06	-6.711674e-09	-1.686298e+01	-4.392600e+02
3.000000e-07	-2.473564e-06	-6.623348e-09	-1.666409e+01	-4.351705e+02
3.100000e-07	-2.443238e-06	-6.565363e-09	-1.645979e+01	-4.309180e+02
3.200000e-07	-2.412188e-06	-6.575335e-09	-1.625061e+01	-4.265246e+02
3.300000e-07	-2.380355e-06	-6.452955e-09	-1.603616e+01	-4.220154e+02
3.400000e-07	-2.347854e-06	-6.347596e-09	-1.581720e+01	-4.174091e+02
3.500000e-07	-2.314631e-06	-6.332844e-09	-1.559338e+01	-4.127108e+02
3.600000e-07	-2.280265e-06	-6.231715e-09	-1.536186e+01	-4.079124e+02
3.700000e-07	-2.244671e-06	-6.151646e-09	-1.512207e+01	-4.029980e+02
3.800000e-07	-2.208248e-06	-6.133154e-09	-1.487670e+01	-3.979524e+02
3.900000e-07	-2.171253e-06	-5.978493e-09	-1.462746e+01	-3.927693e+02
4.000000e-07	-2.133603e-06	-5.890649e-09	-1.437382e+01	-3.874544e+02
4.100000e-07	-2.095187e-06	-5.877688e-09	-1.411502e+01	-3.820234e+02
4.200000e-07	-2.055950e-06	-5.760828e-09	-1.385068e+01	-3.764960e+02
4.300000e-07	-2.015992e-06	-5.640190e-09	-1.358149e+01	-3.708880e+02
4.400000e-07	-1.975588e-06	-5.589603e-09	-1.330929e+01	-3.652055e+02
4.500000e-07	-1.934633e-06	-5.519092e-09	-1.303338e+01	-3.594435e+02
4.600000e-07	-1.892741e-06	-5.415332e-09	-1.275116e+01	-3.535891e+02
4.700000e-07	-1.849823e-06	-5.312489e-09	-1.246203e+01	-3.476283e+02
4.800000e-07	-1.806022e-06	-5.201207e-09	-1.216695e+01	-3.415523e+02
4.900000e-07	-1.761668e-06	-5.118076e-09	-1.186814e+01	-3.353617e+02
5.000000e-07	-1.716861e-06	-5.037382e-09	-1.156628e+01	-3.290668e+02
5.100000e-07	-1.671436e-06	-4.941868e-09	-1.126026e+01	-3.226823e+02
5.200000e-07	-1.625422e-06	-4.831317e-09	-1.095027e+01	-3.162219e+02
5.300000e-07	-1.578856e-06	-4.734083e-09	-1.063656e+01	-3.096916e+02
5.400000e-07	-1.531724e-06	-4.637138e-09	-1.031903e+01	-3.030879e+02
5.500000e-07	-1.484026e-06	-4.533901e-09	-9.997700e+00	-2.963991e+02
5.600000e-07	-1.435862e-06	-4.423967e-09	-9.673227e+00	-2.896104e+02
5.700000e-07	-1.387302e-06	-4.308316e-09	-9.346080e+00	-2.827107e+02
5.800000e-07	-1.338248e-06	-4.216640e-09	-9.015610e+00	-2.756972e+02
5.900000e-07	-1.288455e-06	-4.114788e-09	-8.680165e+00	-2.685772e+02
6.000000e-07	-1.237801e-06	-3.994300e-09	-8.338915e+00	-2.613655e+02
6.100000e-07	-1.186438e-06	-3.874230e-09	-7.992884e+00	-2.540789e+02
6.200000e-07	-1.134543e-06	-3.770156e-09	-7.643278e+00	-2.467301e+02
6.300000e-07	-1.082314e-06	-3.663433e-09	-7.291415e+00	-2.393234e+02
6.400000e-07	-1.029772e-06	-3.546547e-09	-6.937450e+00	-2.318543e+02
6.500000e-07	-9.768892e-07	-3.423679e-09	-6.581182e+00	-2.243129e+02
6.600000e-07	-9.236048e-07	-3.304208e-09	-6.222211e+00	-2.166893e+02
6.700000e-07	-8.699078e-07	-3.193462e-09	-5.860461e+00	-2.089794e+02
6.800000e-07	-8.159397e-07	-3.074036e-09	-5.496885e+00	-2.011880e+02
6.900000e-07	-7.617337e-07	-2.948791e-09	-5.131706e+00	-1.933291e+02
7.000000e-07	-7.073384e-07	-2.822770e-09	-4.765251e+00	-1.854213e+02
7.100000e-07	-6.527496e-07	-2.706675e-09	-4.397493e+00	-1.774823e+02
7.200000e-07	-5.979453e-07	-2.586914e-09	-4.028283e+00	-1.695230e+02
7.300000e-07	-5.428573e-07	-2.457734e-09	-3.657162e+00	-1.615442e+02
7.400000e-07	-4.875220e-07	-2.327492e-09	-3.284375e+00	-1.535361e+02
7.500000e-07	-4.319832e-07	-2.204625e-09	-2.910217e+00	-1.454821e+02
7.600000e-07	-3.762560e-07	-2.088334e-09	-2.534790e+00	-1.373635e+02
7.700000e-07	-3.203955e-07	-1.963435e-09	-2.158465e+00	-1.291650e+02
7.800000e-07	-2.644232e-07	-1.831204e-09	-1.781386e+00	-1.208783e+02
7.900000e-07	-2.084139e-07	-1.700555e-09	-1.404059e+00	-1.125032e+02
8.000000e-07	-1.523558e-07	-1.576188e-09	-1.026402e+00	-1.040463e+02
8.100000e-07	-9.625695e-08	-1.445266e-09	-6.484712e-01	-9.551836e+01
8.200000e-07	-4.013267e-08	-1.307968e-09	-2.703688e-01	-8.693079e+01
8.300000e-07	1.602700e-08	-1.172296e-09	1.079719e-01	-7.829357e+01
8.400000e-07	7.220008e-08	-1.042942e-09	4.864030e-01	-6.961375e+01
8.500000e-07	1.283561e-07	-9.153385e-10	8.647193e-01	-6.089504e+01
8.600000e-07	1.844778e-07	-7.789961e-10	1.242804e+00	-5.213801e+01
8.700000e-07	2.405171e-07	-6.389093e-10	1.620334e+00	-4.334019e+01
8.800000e-07	2.964922e-07	-5.026046e-10	1.997431e+00	-3.449618e+01
8.900000e-07	3.523996e-07	-3.707655e-10	2.374073e+00	-2.559794e+01
9.000000e-07	4.081480e-07	-2.336989e-10	2.749643e+00	-1.663562e+01
9.100000e-07	4.637218e-07	-9.276171e-11	3.124036e+00	-7.599311e+00
9.200000e-07	5.190974e-07	4.689276e-11	3.497095e+00	1.518626e+00
9.300000e-07	5.742265e-07	1.855117e-10	3.868493e+00	1.072124e+01
9.400000e-07	6.291450e-07	3.271471e-10	4.238472e+00	2.000561e+01
9.500000e-07	6.838952e-07	4.736909e-10	4.607317e+00	2.936330e+01
9.600000e-07	7.384631e-07	6.204403e-10	4.974935e+00	3.878263e+01
9.700000e-07	7.928147e-07	7.642897e-10	5.341095e+00	4.825242e+01
9.800000e-07	8.469110e-07	9.043794e-10	5.705535e+00	5.776580e+01
9.900000e-07	9.006844e-07	1.049002e-09	6.067800e+00	6.732268e+01
1.000000e-06	9.541135e-07	1.197564e-09	6.427745e+00	7.692979e+01
1.010000e-06	1.007140e-06	1.345931e-09	6.784977e+00	8.659813e+01
1.020000e-06	1.059734e-06	1.492938e-09	7.139300e+00	9.633864e+01
1.030000e-06	1.111975e-06	1.641143e-09	7.491236e+00	1.061576e+02
1.040000e-06	1.163792e-06	1.793519e-09	7.840321e+00	1.160533e+02
1.050000e-06	1.215118e-06	1.946241e-09	8.186097e+00	1.260159e+02
1.060000e-06	1.265812e-06	2.098681e-09	8.527622e+00	1.360295e+02
1.070000e-06	1.315684e-06	2.252907e-09	8.863603e+00	1.460761e+02
1.080000e-06	1.364870e-06	2.408167e-09	9.194960e+00	1.561405e+02
1.090000e-06	1.413557e-06	2.561912e-09	9.522956e+00	1.662126e+02
1.100000e-06	1.461865e-06	2.713374e-09	9.848406e+00	1.762880e+02
1.110000e-06	1.509798e-06	2.864948e-09	1.017133e+01	1.863661e+02
1.120000e-06	1.557162e-06	3.019871e-09	1.049041e+01	1.964460e+02
1.130000e-06	1.603897e-06	3.178135e-09	1.080526e+01	2.065234e+02
1.140000e-06	1.650079e-06	3.333875e-09	1.111638e+01	2.165891e+02
1.150000e-06	1.695649e-06	3.485956e-09	1.142338e+01	2.266292e+02
1.160000e-06	1.740647e-06	3.636394e-09	1.172652e+01	2.366279e+02
1.170000e-06	1.785247e-06	3.787269e-09	1.202699e+01	2.465707e+02
1.180000e-06	1.829464e-06	3.936500e-09	1.232487e+01	2.564467e+02
1.190000e-06	1.873129e-06	4.083615e-09	1.261904e+01	2.662488e+02
1.200000e-06	1.915937e-06	4.230961e-09	1.290743e+01	2.759720e+02
1.210000e-06	1.957711e-06	4.380777e-09	1.318886e+01	2.856095e+02
1.220000e-06	1.998589e-06	4.530404e-09	1.346425e+01	2.951504e+02
1.230000e-06	2.038847e-06	4.673836e-09	1.373546e+01	3.045775e+02
1.240000e-06	2.078456e-06	4.811052e-09	1.400230e+01	3.138685e+02
1.250000e-06	2.117377e-06	4.945504e-09	1.426451e+01	3.229990e+02
1.260000e-06	2.155679e-06	5.081716e-09	1.452254e+01	3.319467e+02
1.270000e-06	2.193229e-06	5.215289e-09	1.477552e+01	3.406943e+02
1.280000e-06	2.230069e-06	5.344138e-09	1.502370e+01	3.492303e+02
1.290000e-06	2.266365e-06	5.468860e-09	1.526822e+01	3.575474e+02
1.300000e-06	2.301946e-06	5.593199e-09	1.550793e+01	3.656397e+02
1.310000e-06	2.336416e-06	5.714543e-09	1.574015e+01	3.734988e+02
1.320000e-06	2.369741e-06	5.829352e-09	1.596465e+01	3.811129e+02
1.330000e-06	2.402243e-06	5.938367e-09	1.618361e+01	3.884681e+02
1.340000e-06	2.434022e-06	6.043378e-09	1.639771e+01	3.955523e+02
1.350000e-06	2.465010e-06	6.146489e-09	1.660647e+01	4.023600e+02
1.360000e-06	2.495172e-06	6.244987e-09	1.680966e+01	4.088954e+02
1.370000e-06	2.524492e-06	6.339197e-09	1.700719e+01	4.151724e+02
1.380000e-06	2.553108e-06	6.430983e-09	1.719997e+01	4.212112e+02
1.390000e-06	2.581022e-06	6.521927e-09	1.738803e+01	4.270311e+02
1.400000e-06	2.607826e-06	6.609375e-09	1.756860e+01	4.326442e+02
1.410000e-06	2.633339e-06	6.690245e-09	1.774048e+01	4.380505e+02
1.420000e-06	2.657851e-06	6.765460e-09	1.790561e+01	4.432386e+02
1.430000e-06	2.681491e-06	6.837553e-09	1.806488e+01	4.481904e+02
1.440000e-06	2.704200e-06	6.907974e-09	1.821786e+01	4.528897e+02
1.450000e-06	2.725973e-06	6.975145e-09	1.836454e+01	4.573295e+02
1.460000e-06	2.746925e-06	7.038408e-09	1.850570e+01	4.615163e+02
1.470000e-06	2.767133e-06	7.099001e-09	1.864184e+01	4.654686e+02
1.480000e-06	2.786421e-06	7.156663e-09	1.877178e+01	4.692099e+02
1.490000e-06	2.804628e-06	7.208197e-09	1.889443e+01	4.727579e+02
1.500000e-06	2.821843e-06	7.254004e-09	1.901041e+01	4.761163e+02
1.510000e-06	2.838011e-06	7.297543e-09	1.911933e+01	4.792708e+02
1.520000e-06	2.853073e-06	7.340303e-09	1.922080e+01	4.821924e+02
1.530000e-06	2.867119e-06	7.379130e-09	1.931542e+01	4.848481e+02
1.540000e-06	2.880109e-06	7.411706e-09	1.940294e+01	4.872140e+02
1.550000e-06	2.891977e-06	7.441103e-09	1.948289e+01	4.892866e+02
1.560000e-06	2.902564e-06	7.469357e-09	1.955422e+01	4.910877e+02
1.570000e-06	2.911860e-06	7.495261e-09	1.961684e+01	4.926597e+02
1.580000e-06	2.920150e-06	7.515624e-09	1.967269e+01	4.940538e+02
1.590000e-06	2.927516e-06	7.532494e-09	1.972231e+01	4.953134e+02
1.600000e-06	2.933857e-06	7.548642e-09	1.976503e+01	4.964604e+02
1.610000e-06	2.939218e-06	7.564641e-09	1.980115e+01	4.974893e+02
1.620000e-06	2.943763e-06	7.577911e-09	1.983177e+01	4.983710e+02
1.630000e-06	2.947362e-06	7.586575e-09	1.985601e+01	4.990659e+02
1.640000e-06	2.949627e-06	7.592824e-09	1.987127e+01	4.995411e+02
1.650000e-06	2.950654e-06	7.598305e-09	1.987819e+01	4.997854e+02
1.660000e-06	2.950700e-06	7.603258e-09	1.987850e+01	4.998149e+02
1.670000e-06	2.949801e-06	7.603635e-09	1.987244e+01	4.996685e+02
1.680000e-06	2.947974e-06	7.597247e-09	1.986014e+01	4.993935e+02
1.690000e-06	2.945267e-06	7.590371e-09	1.984190e+01	4.990263e+02
1.700000e-06	2.941818e-06	7.585993e-09	1.981866e+01	4.985777e+02
1.710000e-06	2.937556e-06	7.579894e-09	1.978996e+01	4.980265e+02
1.720000e-06	2.932108e-06	7.573675e-09	1.975325e+01	4.973267e+02
1.730000e-06	2.925455e-06	7.587286e-09	1.970843e+01	4.964246e+02
1.740000e-06	2.917927e-06	7.549340e-09	1.965772e+01	4.952811e+02
1.750000e-06	2.909377e-06	7.439213e-09	1.960011e+01	4.938903e+02
1.760000e-06	2.899207e-06	7.399127e-09	1.953160e+01	4.922864e+02
1.770000e-06	2.887431e-06	7.554694e-09	1.945227e+01	4.905376e+02
1.780000e-06	2.875148e-06	7.558549e-09	1.936952e+01	4.887264e+02
1.790000e-06	2.862847e-06	7.321266e-09	1.928665e+01	4.869239e+02
1.800000e-06	2.849264e-06	7.277014e-09	1.919514e+01	4.851668e+02
1.810000e-06	2.833838e-06	7.476903e-09	1.909122e+01	4.834442e+02
1.820000e-06	2.817671e-06	7.353950e-09	1.898230e+01	4.817003e+02
1.830000e-06	2.800927e-06	7.125081e-09	1.886950e+01	4.798508e+02
1.840000e-06	2.782824e-06	7.330888e-09	1.874754e+01	4.778079e+02
1.850000e-06	2.763661e-06	7.304130e-09	1.861844e+01	4.755055e+02
1.860000e-06	2.743933e-06	7.000375e-09	1.848554e+01	4.729161e+02
1.870000e-06	2.723004e-06	7.170042e-09	1.834454e+01	4.700547e+02
1.880000e-06	2.700584e-06	7.264337e-09	1.819350e+01	4.669686e+02
1.890000e-06	2.677261e-06	6.923023e-09	1.803637e+01	4.637189e+02
1.900000e-06	2.653039e-06	6.944370e-09	1.787320e+01	4.603592e+02
1.910000e-06	2.627883e-06	7.058460e-09	1.770373e+01	4.569200e+02
1.920000e-06	2.602071e-06	6.852314e-09	1.752983e+01	4.534029e+02
1.930000e-06	2.575434e-06	6.786772e-09	1.735038e+01	4.497864e+02
1.940000e-06	2.548033e-06	6.813701e-09	1.716579e+01	4.460385e+02
1.950000e-06	2.519892e-06	6.715797e-09	1.697620e+01	4.421316e+02
1.960000e-06	2.490360e-06	6.723558e-09	1.677725e+01	4.380539e+02
1.970000e-06	2.459532e-06	6.592822e-09	1.656956e+01	4.338122e+02
1.980000e-06	2.427966e-06	6.448514e-09	1.635691e+01	4.294275e+02
1.990000e-06	2.395609e-06	6.529484e-09	1.613892e+01	4.249255e+02
2.000000e-06	2.362543e-06	6.392267e-09	1.591616e+01	4.203254e+02
2.010000e-06	2.328720e-06	6.269318e-09	1.568830e+01	4.156335e+02
2.020000e-06	2.293998e-06	6.314921e-09	1.545438e+01	4.108424e+02
2.030000e-06	2.258713e-06	6.143191e-09	1.521667e+01	4.059364e+02
2.040000e-06	2.222783e-06	6.054173e-09	1.497461e+01	4.009002e+02
2.050000e-06	2.185717e-06	6.085136e-09	1.472490e+01	3.957265e+02
2.060000e-06	2.147566e-06	5.911207e-09	1.446789e+01	3.904202e+02
2.070000e-06	2.108650e-06	5.824978e-09	1.420571e+01	3.849965e+02
2.080000e-06	2.069122e-06	5.802931e-09	1.393942e+01	3.794750e+02
2.090000e-06	2.028934e-06	5.681524e-09	1.366868e+01	3.738721e+02
2.100000e-06	1.987997e-06	5.601347e-09	1.339289e+01	3.681945e+02
2.110000e-06	1.946451e-06	5.494802e-09	1.311300e+01	3.624382e+02
2.120000e-06	1.904248e-06	5.411166e-09	1.282868e+01	3.565906e+02
2.130000e-06	1.861371e-06	5.358216e-09	1.253983e+01	3.506374e+02
2.140000e-06	1.818053e-06	5.243452e-09	1.224800e+01	3.445693e+02
2.150000e-06	1.774304e-06	5.149099e-09	1.195327e+01	3.383864e+02
2.160000e-06	1.729945e-06	5.049047e-09	1.165443e+01	3.320980e+02
2.170000e-06	1.684778e-06	4.944966e-09	1.135014e+01	3.257191e+02
2.180000e-06	1.638899e-06	4.863205e-09	1.104106e+01	3.192634e+02
2.190000e-06	1.592567e-06	4.757786e-09	1.072893e+01	3.127378e+02
2.200000e-06	1.545806e-06	4.660296e-09	1.041390e+01	3.061393e+02
2.210000e-06	1.498517e-06	4.559182e-09	1.009533e+01	2.994567e+02
2.220000e-06	1.450533e-06	4.451856e-09	9.772062e+00	2.926752e+02
2.230000e-06	1.401837e-06	4.359135e-09	9.444004e+00	2.857833e+02
2.240000e-06	1.352664e-06	4.229800e-09	9.112728e+00	2.787774e+02
2.250000e-06	1.303092e-06	4.124658e-09	8.778773e+00	2.716642e+02
2.260000e-06	1.253017e-06	4.037145e-09	8.441420e+00	2.644581e+02
2.270000e-06	1.202384e-06	3.919932e-09	8.100311e+00	2.571760e+02
2.280000e-06	1.151280e-06	3.809151e-09	7.756033e+00	2.498310e+02
2.290000e-06	1.099858e-06	3.684882e-09	7.409609e+00	2.424282e+02
2.300000e-06	1.048073e-06	3.573653e-09	7.060736e+00	2.349635e+02
2.310000e-06	9.957942e-07	3.467784e-09	6.708542e+00	2.274273e+02
2.320000e-06	9.429173e-07	3.344923e-09	6.352318e+00	2.198094e+02
2.330000e-06	8.894559e-07	3.230446e-09	5.992155e+00	2.121052e+02
2.340000e-06	8.354777e-07	3.115168e-09	5.628510e+00	2.043189e+02
2.350000e-06	7.810483e-07	2.999767e-09	5.261826e+00	1.964639e+02
2.360000e-06	7.263051e-07	2.881565e-09	4.893028e+00	1.885585e+02
2.370000e-06	6.713287e-07	2.754187e-09	4.522659e+00	1.806209e+02
2.380000e-06	6.161577e-07	2.636309e-09	4.150978e+00	1.726626e+02
2.390000e-06	5.608417e-07	2.520052e-09	3.778322e+00	1.646850e+02
2.400000e-06	5.054387e-07	2.401127e-09	3.405078e+00	1.566792e+02
2.410000e-06	4.499752e-07	2.280911e-09	3.031428e+00	1.486287e+02
2.420000e-06	3.944164e-07	2.151977e-09	2.657134e+00	1.405149e+02
2.430000e-06	3.386954e-07	2.029467e-09	2.281749e+00	1.323221e+02
2.440000e-06	2.828795e-07	1.906480e-09	1.905724e+00	1.240415e+02
2.450000e-06	2.269900e-07	1.778372e-09	1.529204e+00	1.156722e+02
2.460000e-06	1.709839e-07	1.649876e-09	1.151897e+00	1.072205e+02
2.470000e-06	1.150022e-07	1.519116e-09	7.747555e-01	9.869680e+01
2.480000e-06	5.905308e-08	1.392440e-09	3.978333e-01	9.011276e+01
2.490000e-06	3.048920e-09	1.261773e-09	2.054020e-02	8.147846e+01
2.500000e-06	-5.295988e-08	1.127882e-09	-3.567842e-01	7.280115e+01
2.510000e-06	-1.089333e-07	9.949294e-10	-7.338703e-01	6.408481e+01
2.520000e-06	-1.648854e-07	8.628909e-10	-1.110813e+00	5.533020e+01
2.530000e-06	-2.207891e-07	7.306700e-10	-1.487429e+00	4.653507e+01
2.540000e-06	-2.765790e-07	5.935121e-10	-1.863279e+00	3.769423e+01
2.550000e-06	-3.322671e-07	4.571180e-10	-2.238442e+00	2.879981e+01
2.560000e-06	-3.878437e-07	3.239061e-10	-2.612855e+00	1.984205e+01
2.570000e-06	-4.433439e-07	1.890260e-10	-2.986753e+00	1.081095e+01
2.580000e-06	-4.987918e-07	5.179504e-11	-3.360299e+00	1.698651e+00
2.590000e-06	-5.541507e-07	-8.658651e-11	-3.733245e+00	-7.498299e+00
2.600000e-06	-6.094228e-07	-2.290788e-10	-4.105606e+00	-1.677742e+01
2.610000e-06	-6.645905e-07	-3.723590e-10	-4.477264e+00	-2.613061e+01
2.620000e-06	-7.195665e-07	-5.148624e-10	-4.847631e+00	-3.554629e+01
2.630000e-06	-7.742454e-07	-6.581857e-10	-5.215995e+00	-4.501314e+01
2.640000e-06	-8.285171e-07	-8.036630e-10	-5.581617e+00	-5.452386e+01
2.650000e-06	-8.823227e-07	-9.490648e-10	-5.944099e+00	-6.407785e+01
2.660000e-06	-9.355608e-07	-1.094172e-09	-6.302758e+00	-7.368140e+01
2.670000e-06	-9.881756e-07	-1.242472e-09	-6.657217e+00	-8.334534e+01
2.680000e-06	-1.040286e-06	-1.392115e-09	-7.008277e+00	-9.308077e+01
2.690000e-06	-1.091990e-06	-1.543315e-09	-7.356603e+00	-1.028944e+02
2.700000e-06	-1.143328e-06	-1.695926e-09	-7.702458e+00	-1.127852e+02
2.710000e-06	-1.194295e-06	-1.848125e-09	-8.045820e+00	-1.227439e+02
2.720000e-06	-1.244817e-06	-1.997723e-09	-8.386175e+00	-1.327548e+02
2.730000e-06	-1.294858e-06	-2.147483e-09	-8.723297e+00	-1.428000e+02
2.740000e-06	-1.344439e-06	-2.300726e-09	-9.057318e+00	-1.528639e+02
2.750000e-06	-1.393533e-06	-2.455866e-09	-9.388060e+00	-1.629360e+02
2.760000e-06	-1.441935e-06	-2.609654e-09	-9.714141e+00	-1.730116e+02
2.770000e-06	-1.489443e-06	-2.761638e-09	-1.003419e+01	-1.830899e+02
2.780000e-06	-1.536172e-06	-2.915903e-09	-1.034900e+01	-1.931701e+02
2.790000e-06	-1.582398e-06	-3.071874e-09	-1.066042e+01	-2.032483e+02
2.800000e-06	-1.628180e-06	-3.226318e-09	-1.096885e+01	-2.133156e+02
2.810000e-06	-1.673470e-06	-3.377228e-09	-1.127396e+01	-2.233584e+02
2.820000e-06	-1.718264e-06	-3.526997e-09	-1.157574e+01	-2.333609e+02
2.830000e-06	-1.762465e-06	-3.678641e-09	-1.187351e+01	-2.433085e+02
2.840000e-06	-1.806129e-06	-3.832678e-09	-1.216767e+01	-2.531899e+02
2.850000e-06	-1.849420e-06	-3.985736e-09	-1.245932e+01	-2.629979e+02
2.860000e-06	-1.892210e-06	-4.134074e-09	-1.274758e+01	-2.727272e+02
2.870000e-06	-1.934327e-06	-4.279322e-09	-1.303133e+01	-2.823715e+02
2.880000e-06	-1.975788e-06	-4.425298e-09	-1.331064e+01	-2.919202e+02
2.890000e-06	-2.016581e-06	-4.570847e-09	-1.358546e+01	-3.013565e+02
2.900000e-06	-2.056674e-06	-4.711912e-09	-1.385556e+01	-3.106583e+02
2.910000e-06	-2.096181e-06	-4.849588e-09	-1.412171e+01	-3.198015e+02
2.920000e-06	-2.135107e-06	-4.987743e-09	-1.438396e+01	-3.287633e+02
2.930000e-06	-2.173062e-06	-5.127004e-09	-1.463965e+01	-3.375259e+02
2.940000e-06	-2.209886e-06	-5.261640e-09	-1.488773e+01	-3.460776e+02
