# Temperatura_=_21.58
# Concentracion g/m^3_=_18700.0
# C_Vs_to_Am_M_A/Vsm_=_65563218390.804596
# pendiente_HvsI_1/m_=_3716.3
# ordenada_HvsI_A/m_=_1297.0
# frecuencia_Hz_=_301077.83982523397

Tiempo_(s)	Campo_(V.s)	Magnetizacion_(V.s)	Campo_(kA/m)	Magnetizacion_(A/m)
0.000000e+00	-2.929275e-06	-7.657758e-09	-1.977132e+01	-4.996624e+02
1.000000e-08	-2.928279e-06	-7.656715e-09	-1.976460e+01	-4.994974e+02
2.000000e-08	-2.926233e-06	-7.650954e-09	-1.975078e+01	-4.991893e+02
3.000000e-08	-2.922960e-06	-7.643726e-09	-1.972869e+01	-4.987554e+02
4.000000e-08	-2.918701e-06	-7.635969e-09	-1.969995e+01	-4.981956e+02
5.000000e-08	-2.913622e-06	-7.623862e-09	-1.966567e+01	-4.974917e+02
6.000000e-08	-2.907622e-06	-7.604590e-09	-1.962517e+01	-4.966148e+02
7.000000e-08	-2.900603e-06	-7.579917e-09	-1.957779e+01	-4.955387e+02
8.000000e-08	-2.892557e-06	-7.582879e-09	-1.952349e+01	-4.942541e+02
9.000000e-08	-2.883253e-06	-7.585627e-09	-1.946069e+01	-4.927779e+02
1.000000e-07	-2.872404e-06	-7.551296e-09	-1.938746e+01	-4.911531e+02
1.100000e-07	-2.860344e-06	-7.444926e-09	-1.930606e+01	-4.894391e+02
1.200000e-07	-2.847550e-06	-7.441967e-09	-1.921971e+01	-4.876946e+02
1.300000e-07	-2.833838e-06	-7.493984e-09	-1.912716e+01	-4.859591e+02
1.400000e-07	-2.818999e-06	-7.423764e-09	-1.902700e+01	-4.842397e+02
1.500000e-07	-2.803093e-06	-7.338277e-09	-1.891965e+01	-4.825069e+02
1.600000e-07	-2.785973e-06	-7.393180e-09	-1.880409e+01	-4.807032e+02
1.700000e-07	-2.767694e-06	-7.395683e-09	-1.868071e+01	-4.787589e+02
1.800000e-07	-2.748561e-06	-7.240944e-09	-1.855158e+01	-4.766123e+02
1.900000e-07	-2.728664e-06	-7.268046e-09	-1.841728e+01	-4.742259e+02
2.000000e-07	-2.707893e-06	-7.274981e-09	-1.827709e+01	-4.715941e+02
2.100000e-07	-2.686220e-06	-7.112612e-09	-1.813080e+01	-4.687396e+02
2.200000e-07	-2.663736e-06	-7.103456e-09	-1.797905e+01	-4.657018e+02
2.300000e-07	-2.640372e-06	-7.146880e-09	-1.782135e+01	-4.625207e+02
2.400000e-07	-2.616166e-06	-7.000561e-09	-1.765797e+01	-4.592222e+02
2.500000e-07	-2.591111e-06	-6.918232e-09	-1.748886e+01	-4.558112e+02
2.600000e-07	-2.564853e-06	-6.918570e-09	-1.731163e+01	-4.522730e+02
2.700000e-07	-2.537377e-06	-6.859644e-09	-1.712618e+01	-4.485822e+02
2.800000e-07	-2.509016e-06	-6.788472e-09	-1.693475e+01	-4.447157e+02
2.900000e-07	-2.479851e-06	-6.719165e-09	-1.673790e+01	-4.406629e+02
3.000000e-07	-2.449826e-06	-6.653280e-09	-1.653524e+01	-4.364313e+02
3.100000e-07	-2.419000e-06	-6.615742e-09	-1.632719e+01	-4.320440e+02
3.200000e-07	-2.387464e-06	-6.543875e-09	-1.611433e+01	-4.275311e+02
3.300000e-07	-2.355288e-06	-6.431345e-09	-1.589716e+01	-4.229192e+02
3.400000e-07	-2.322409e-06	-6.396159e-09	-1.567524e+01	-4.182226e+02
3.500000e-07	-2.288553e-06	-6.313333e-09	-1.544673e+01	-4.134396e+02
3.600000e-07	-2.253573e-06	-6.230779e-09	-1.521063e+01	-4.085557e+02
3.700000e-07	-2.217634e-06	-6.193422e-09	-1.496805e+01	-4.035517e+02
3.800000e-07	-2.180952e-06	-6.081941e-09	-1.472047e+01	-3.984125e+02
3.900000e-07	-2.143559e-06	-5.980769e-09	-1.446808e+01	-3.931346e+02
4.000000e-07	-2.105367e-06	-5.938621e-09	-1.421030e+01	-3.877284e+02
4.100000e-07	-2.066444e-06	-5.847695e-09	-1.394759e+01	-3.822142e+02
4.200000e-07	-2.026852e-06	-5.729600e-09	-1.368036e+01	-3.766151e+02
4.300000e-07	-1.986659e-06	-5.665164e-09	-1.340907e+01	-3.709487e+02
4.400000e-07	-1.945937e-06	-5.585451e-09	-1.313422e+01	-3.652212e+02
4.500000e-07	-1.904511e-06	-5.495347e-09	-1.285461e+01	-3.594260e+02
4.600000e-07	-1.862138e-06	-5.396380e-09	-1.256861e+01	-3.535476e+02
4.700000e-07	-1.818797e-06	-5.293974e-09	-1.227608e+01	-3.475676e+02
4.800000e-07	-1.774711e-06	-5.202172e-09	-1.197852e+01	-3.414723e+02
4.900000e-07	-1.730113e-06	-5.118338e-09	-1.167750e+01	-3.352572e+02
5.000000e-07	-1.685004e-06	-5.024995e-09	-1.137303e+01	-3.289279e+02
5.100000e-07	-1.639289e-06	-4.917789e-09	-1.106448e+01	-3.224965e+02
5.200000e-07	-1.593017e-06	-4.820645e-09	-1.075216e+01	-3.159764e+02
5.300000e-07	-1.546203e-06	-4.719371e-09	-1.043619e+01	-3.093769e+02
5.400000e-07	-1.498841e-06	-4.621775e-09	-1.011651e+01	-3.027001e+02
5.500000e-07	-1.450959e-06	-4.511528e-09	-9.793336e+00	-2.959409e+02
5.600000e-07	-1.402597e-06	-4.401732e-09	-9.466915e+00	-2.890904e+02
5.700000e-07	-1.353815e-06	-4.300781e-09	-9.137656e+00	-2.821403e+02
5.800000e-07	-1.304449e-06	-4.201649e-09	-8.804458e+00	-2.750871e+02
5.900000e-07	-1.254288e-06	-4.087892e-09	-8.465892e+00	-2.679332e+02
6.000000e-07	-1.203328e-06	-3.970327e-09	-8.121937e+00	-2.606870e+02
6.100000e-07	-1.151738e-06	-3.864134e-09	-7.773727e+00	-2.533586e+02
6.200000e-07	-1.099698e-06	-3.753543e-09	-7.422474e+00	-2.459569e+02
6.300000e-07	-1.047321e-06	-3.639874e-09	-7.068954e+00	-2.384866e+02
6.400000e-07	-9.946444e-07	-3.516490e-09	-6.713412e+00	-2.309481e+02
6.500000e-07	-9.416061e-07	-3.400953e-09	-6.355426e+00	-2.233384e+02
6.600000e-07	-8.881984e-07	-3.288897e-09	-5.994948e+00	-2.156551e+02
6.700000e-07	-8.344506e-07	-3.173119e-09	-5.632174e+00	-2.078987e+02
6.800000e-07	-7.804191e-07	-3.049856e-09	-5.267485e+00	-2.000746e+02
6.900000e-07	-7.261541e-07	-2.924549e-09	-4.901220e+00	-1.921920e+02
7.000000e-07	-6.716698e-07	-2.805416e-09	-4.533475e+00	-1.842616e+02
7.100000e-07	-6.169923e-07	-2.684536e-09	-4.164427e+00	-1.762918e+02
7.200000e-07	-5.621193e-07	-2.559809e-09	-3.794058e+00	-1.682862e+02
7.300000e-07	-5.070269e-07	-2.429595e-09	-3.422208e+00	-1.602422e+02
7.400000e-07	-4.517032e-07	-2.307348e-09	-3.048798e+00	-1.521513e+02
7.500000e-07	-3.961454e-07	-2.188581e-09	-2.673807e+00	-1.440025e+02
7.600000e-07	-3.403952e-07	-2.066344e-09	-2.297518e+00	-1.357851e+02
7.700000e-07	-2.845119e-07	-1.934757e-09	-1.920330e+00	-1.274921e+02
7.800000e-07	-2.285687e-07	-1.801798e-09	-1.542738e+00	-1.191210e+02
7.900000e-07	-1.725966e-07	-1.674713e-09	-1.164951e+00	-1.106747e+02
8.000000e-07	-1.165747e-07	-1.545601e-09	-7.868279e-01	-1.021590e+02
8.100000e-07	-6.052080e-08	-1.414461e-09	-4.084888e-01	-9.358126e+01
8.200000e-07	-4.465614e-09	-1.280893e-09	-3.014093e-02	-8.494799e+01
8.300000e-07	5.160610e-08	-1.151356e-09	3.483184e-01	-7.626374e+01
8.400000e-07	1.077119e-07	-1.020045e-09	7.270077e-01	-6.753065e+01
8.500000e-07	1.637975e-07	-8.838831e-10	1.105561e+00	-5.874861e+01
8.600000e-07	2.198163e-07	-7.431433e-10	1.483663e+00	-4.991561e+01
8.700000e-07	2.757510e-07	-6.059464e-10	1.861198e+00	-4.102817e+01
8.800000e-07	3.315533e-07	-4.744963e-10	2.237839e+00	-3.208156e+01
8.900000e-07	3.871881e-07	-3.396750e-10	2.613349e+00	-2.307026e+01
9.000000e-07	4.426991e-07	-2.009948e-10	2.988024e+00	-1.398866e+01
9.100000e-07	4.980737e-07	-5.945591e-11	3.361778e+00	-4.832084e+00
9.200000e-07	5.532696e-07	8.125143e-11	3.734326e+00	4.402002e+00
9.300000e-07	6.082188e-07	2.254944e-10	4.105209e+00	1.371323e+01
9.400000e-07	6.629189e-07	3.719064e-10	4.474410e+00	2.309836e+01
9.500000e-07	7.174436e-07	5.189486e-10	4.842428e+00	3.255240e+01
9.600000e-07	7.717633e-07	6.616409e-10	5.209063e+00	4.207046e+01
9.700000e-07	8.257984e-07	8.016571e-10	5.573776e+00	5.164990e+01
9.800000e-07	8.795154e-07	9.446626e-10	5.936342e+00	6.129153e+01
9.900000e-07	9.329146e-07	1.092582e-09	6.296763e+00	7.099957e+01
1.000000e-06	9.859763e-07	1.244387e-09	6.654906e+00	8.077982e+01
1.010000e-06	1.038668e-06	1.395699e-09	7.010549e+00	9.063680e+01
1.020000e-06	1.091007e-06	1.549106e-09	7.363820e+00	1.005708e+02
1.030000e-06	1.142980e-06	1.702483e-09	7.714612e+00	1.105758e+02
1.040000e-06	1.194443e-06	1.856557e-09	8.061964e+00	1.206399e+02
1.050000e-06	1.245267e-06	2.008710e-09	8.405002e+00	1.307474e+02
1.060000e-06	1.295285e-06	2.161723e-09	8.742606e+00	1.408823e+02
1.070000e-06	1.344545e-06	2.317315e-09	9.075084e+00	1.510320e+02
1.080000e-06	1.393283e-06	2.472834e-09	9.404044e+00	1.611897e+02
1.090000e-06	1.441681e-06	2.628494e-09	9.730710e+00	1.713542e+02
1.100000e-06	1.489741e-06	2.784431e-09	1.005510e+01	1.815276e+02
1.110000e-06	1.537268e-06	2.942462e-09	1.037588e+01	1.917120e+02
1.120000e-06	1.584178e-06	3.099781e-09	1.069251e+01	2.019052e+02
1.130000e-06	1.630500e-06	3.255565e-09	1.100516e+01	2.120993e+02
1.140000e-06	1.676280e-06	3.408046e-09	1.131415e+01	2.222809e+02
1.150000e-06	1.721511e-06	3.560668e-09	1.161944e+01	2.324337e+02
1.160000e-06	1.766243e-06	3.714590e-09	1.192136e+01	2.425416e+02
1.170000e-06	1.810574e-06	3.868114e-09	1.222058e+01	2.525919e+02
1.180000e-06	1.854368e-06	4.020869e-09	1.251617e+01	2.625762e+02
1.190000e-06	1.897343e-06	4.173143e-09	1.280623e+01	2.724884e+02
1.200000e-06	1.939279e-06	4.325719e-09	1.308928e+01	2.823213e+02
1.210000e-06	1.980285e-06	4.474662e-09	1.336605e+01	2.920631e+02
1.220000e-06	2.020691e-06	4.619143e-09	1.363877e+01	3.016948e+02
1.230000e-06	2.060561e-06	4.759412e-09	1.390788e+01	3.111905e+02
1.240000e-06	2.099785e-06	4.898628e-09	1.417263e+01	3.205210e+02
1.250000e-06	2.138327e-06	5.037118e-09	1.443277e+01	3.296584e+02
1.260000e-06	2.176106e-06	5.173657e-09	1.468775e+01	3.385812e+02
1.270000e-06	2.213121e-06	5.307078e-09	1.493759e+01	3.472766e+02
1.280000e-06	2.249536e-06	5.437258e-09	1.518338e+01	3.557405e+02
1.290000e-06	2.285291e-06	5.562580e-09	1.542471e+01	3.639737e+02
1.300000e-06	2.320058e-06	5.679683e-09	1.565937e+01	3.719766e+02
1.310000e-06	2.353712e-06	5.792202e-09	1.588652e+01	3.797449e+02
1.320000e-06	2.386456e-06	5.903412e-09	1.610753e+01	3.872683e+02
1.330000e-06	2.418447e-06	6.014469e-09	1.632346e+01	3.945318e+02
1.340000e-06	2.449672e-06	6.122655e-09	1.653420e+01	4.015213e+02
1.350000e-06	2.480112e-06	6.225354e-09	1.673966e+01	4.082289e+02
1.360000e-06	2.509710e-06	6.323264e-09	1.693944e+01	4.146575e+02
1.370000e-06	2.538512e-06	6.417009e-09	1.713384e+01	4.208212e+02
1.380000e-06	2.566581e-06	6.505344e-09	1.732329e+01	4.267413e+02
1.390000e-06	2.593720e-06	6.587243e-09	1.750647e+01	4.324399e+02
1.400000e-06	2.619676e-06	6.666130e-09	1.768166e+01	4.379319e+02
1.410000e-06	2.644499e-06	6.745588e-09	1.784920e+01	4.432203e+02
1.420000e-06	2.668371e-06	6.823741e-09	1.801033e+01	4.482956e+02
1.430000e-06	2.691332e-06	6.896472e-09	1.816530e+01	4.531402e+02
1.440000e-06	2.713407e-06	6.964144e-09	1.831430e+01	4.577356e+02
1.450000e-06	2.734621e-06	7.028682e-09	1.845749e+01	4.620709e+02
1.460000e-06	2.755051e-06	7.090604e-09	1.859538e+01	4.661468e+02
1.470000e-06	2.774657e-06	7.146977e-09	1.872772e+01	4.699758e+02
1.480000e-06	2.793270e-06	7.196635e-09	1.885334e+01	4.735767e+02
1.490000e-06	2.810823e-06	7.242972e-09	1.897182e+01	4.769662e+02
1.500000e-06	2.827271e-06	7.289221e-09	1.908284e+01	4.801515e+02
1.510000e-06	2.842601e-06	7.334494e-09	1.918630e+01	4.831261e+02
1.520000e-06	2.856895e-06	7.375139e-09	1.928279e+01	4.858720e+02
1.530000e-06	2.870217e-06	7.410895e-09	1.937270e+01	4.883673e+02
1.540000e-06	2.882489e-06	7.443023e-09	1.945553e+01	4.905964e+02
1.550000e-06	2.893500e-06	7.473014e-09	1.952985e+01	4.925582e+02
1.560000e-06	2.903165e-06	7.499555e-09	1.959508e+01	4.942707e+02
1.570000e-06	2.911771e-06	7.519508e-09	1.965317e+01	4.957672e+02
1.580000e-06	2.919438e-06	7.536430e-09	1.970492e+01	4.970873e+02
1.590000e-06	2.926095e-06	7.554590e-09	1.974985e+01	4.982648e+02
1.600000e-06	2.931767e-06	7.571874e-09	1.978813e+01	4.993181e+02
1.610000e-06	2.936569e-06	7.586239e-09	1.982055e+01	5.002451e+02
1.620000e-06	2.940500e-06	7.597466e-09	1.984708e+01	5.010268e+02
1.630000e-06	2.943253e-06	7.606296e-09	1.986566e+01	5.016363e+02
1.640000e-06	2.944722e-06	7.612025e-09	1.987558e+01	5.020510e+02
1.650000e-06	2.945155e-06	7.614566e-09	1.987850e+01	5.022623e+02
1.660000e-06	2.944689e-06	7.614386e-09	1.987535e+01	5.022794e+02
1.670000e-06	2.943310e-06	7.612204e-09	1.986605e+01	5.021252e+02
1.680000e-06	2.941035e-06	7.610290e-09	1.985069e+01	5.018262e+02
1.690000e-06	2.937913e-06	7.606604e-09	1.982962e+01	5.014007e+02
1.700000e-06	2.933973e-06	7.600450e-09	1.980302e+01	5.008499e+02
1.710000e-06	2.929007e-06	7.591752e-09	1.976951e+01	5.001569e+02
1.720000e-06	2.922829e-06	7.583625e-09	1.972781e+01	4.992929e+02
1.730000e-06	2.915614e-06	7.569902e-09	1.967911e+01	4.982312e+02
1.740000e-06	2.907411e-06	7.510417e-09	1.962375e+01	4.969609e+02
1.750000e-06	2.897814e-06	7.476379e-09	1.955897e+01	4.954968e+02
1.760000e-06	2.886625e-06	7.510451e-09	1.948344e+01	4.938804e+02
1.770000e-06	2.874530e-06	7.523737e-09	1.940181e+01	4.921703e+02
1.780000e-06	2.862225e-06	7.443774e-09	1.931876e+01	4.904259e+02
1.790000e-06	2.849132e-06	7.344223e-09	1.923039e+01	4.886888e+02
1.800000e-06	2.834416e-06	7.430186e-09	1.913106e+01	4.869684e+02
1.810000e-06	2.818517e-06	7.397232e-09	1.902375e+01	4.852379e+02
1.820000e-06	2.802015e-06	7.278686e-09	1.891237e+01	4.834411e+02
1.830000e-06	2.784452e-06	7.343839e-09	1.879383e+01	4.815086e+02
1.840000e-06	2.765689e-06	7.346247e-09	1.866718e+01	4.793777e+02
1.850000e-06	2.746169e-06	7.192807e-09	1.853543e+01	4.770087e+02
1.860000e-06	2.725726e-06	7.192163e-09	1.839745e+01	4.743935e+02
1.870000e-06	2.703936e-06	7.265954e-09	1.825038e+01	4.715533e+02
1.880000e-06	2.681001e-06	7.102793e-09	1.809558e+01	4.685269e+02
1.890000e-06	2.657134e-06	7.031769e-09	1.793449e+01	4.653545e+02
1.900000e-06	2.632360e-06	7.116395e-09	1.776727e+01	4.620636e+02
1.910000e-06	2.606900e-06	7.005802e-09	1.759542e+01	4.586605e+02
1.920000e-06	2.580670e-06	6.895344e-09	1.741838e+01	4.551318e+02
1.930000e-06	2.553584e-06	6.901213e-09	1.723557e+01	4.514524e+02
1.940000e-06	2.525757e-06	6.817744e-09	1.704775e+01	4.475985e+02
1.950000e-06	2.496824e-06	6.785799e-09	1.685246e+01	4.435586e+02
1.960000e-06	2.466527e-06	6.716121e-09	1.664797e+01	4.393388e+02
1.970000e-06	2.435283e-06	6.594964e-09	1.643709e+01	4.349613e+02
1.980000e-06	2.403306e-06	6.588891e-09	1.622126e+01	4.304560e+02
1.990000e-06	2.370558e-06	6.517079e-09	1.600023e+01	4.258501e+02
2.000000e-06	2.337049e-06	6.390599e-09	1.577405e+01	4.211590e+02
2.010000e-06	2.302727e-06	6.376149e-09	1.554239e+01	4.163821e+02
2.020000e-06	2.267703e-06	6.278320e-09	1.530599e+01	4.115058e+02
2.030000e-06	2.232029e-06	6.168459e-09	1.506521e+01	4.065105e+02
2.040000e-06	2.195424e-06	6.168176e-09	1.481815e+01	4.013808e+02
2.050000e-06	2.157783e-06	6.052782e-09	1.456408e+01	3.961123e+02
2.060000e-06	2.119227e-06	5.940202e-09	1.430385e+01	3.907143e+02
2.070000e-06	2.079961e-06	5.900093e-09	1.403882e+01	3.852066e+02
2.080000e-06	2.040107e-06	5.796554e-09	1.376982e+01	3.796125e+02
2.090000e-06	1.999558e-06	5.706266e-09	1.349613e+01	3.739501e+02
2.100000e-06	1.958299e-06	5.622188e-09	1.321765e+01	3.682267e+02
2.110000e-06	1.916410e-06	5.526360e-09	1.293492e+01	3.624364e+02
2.120000e-06	1.873914e-06	5.466130e-09	1.264809e+01	3.565642e+02
2.130000e-06	1.830868e-06	5.371474e-09	1.235756e+01	3.505915e+02
2.140000e-06	1.787341e-06	5.262701e-09	1.206376e+01	3.445044e+02
2.150000e-06	1.743249e-06	5.172542e-09	1.176616e+01	3.382974e+02
2.160000e-06	1.698477e-06	5.067160e-09	1.146397e+01	3.319755e+02
2.170000e-06	1.652972e-06	4.979942e-09	1.115683e+01	3.255506e+02
2.180000e-06	1.606890e-06	4.882082e-09	1.084580e+01	3.190360e+02
2.190000e-06	1.560344e-06	4.779450e-09	1.053163e+01	3.124416e+02
2.200000e-06	1.513363e-06	4.682825e-09	1.021453e+01	3.057700e+02
2.210000e-06	1.465839e-06	4.578093e-09	9.893764e+00	2.990166e+02
2.220000e-06	1.417514e-06	4.480737e-09	9.567598e+00	2.921726e+02
2.230000e-06	1.368532e-06	4.361679e-09	9.236992e+00	2.852294e+02
2.240000e-06	1.319136e-06	4.251480e-09	8.903588e+00	2.781831e+02
2.250000e-06	1.269324e-06	4.157785e-09	8.567377e+00	2.710359e+02
2.260000e-06	1.219019e-06	4.045894e-09	8.227842e+00	2.637955e+02
2.270000e-06	1.168217e-06	3.930531e-09	7.884948e+00	2.564722e+02
2.280000e-06	1.116983e-06	3.817135e-09	7.539145e+00	2.490751e+02
2.290000e-06	1.065379e-06	3.704031e-09	7.190839e+00	2.416094e+02
2.300000e-06	1.013310e-06	3.594577e-09	6.839400e+00	2.340754e+02
2.310000e-06	9.606859e-07	3.472464e-09	6.484207e+00	2.264705e+02
2.320000e-06	9.075197e-07	3.352393e-09	6.125359e+00	2.187921e+02
2.330000e-06	8.538834e-07	3.240304e-09	5.763337e+00	2.110404e+02
2.340000e-06	7.998207e-07	3.121526e-09	5.398437e+00	2.032205e+02
2.350000e-06	7.452669e-07	3.003141e-09	5.030224e+00	1.953413e+02
2.360000e-06	6.903606e-07	2.879342e-09	4.659630e+00	1.874136e+02
2.370000e-06	6.352711e-07	2.761988e-09	4.287800e+00	1.794460e+02
2.380000e-06	5.800341e-07	2.645782e-09	3.914975e+00	1.714427e+02
2.390000e-06	5.247000e-07	2.522549e-09	3.541494e+00	1.634012e+02
2.400000e-06	4.693075e-07	2.398636e-09	3.167619e+00	1.553136e+02
2.410000e-06	4.138395e-07	2.270196e-09	2.793235e+00	1.471689e+02
2.420000e-06	3.582700e-07	2.146810e-09	2.418165e+00	1.389564e+02
2.430000e-06	3.025980e-07	2.023359e-09	2.042403e+00	1.306685e+02
2.440000e-06	2.468768e-07	1.895164e-09	1.666309e+00	1.223026e+02
2.450000e-06	1.911082e-07	1.767494e-09	1.289896e+00	1.138610e+02
2.460000e-06	1.352107e-07	1.639963e-09	9.126124e-01	1.053497e+02
2.470000e-06	7.924889e-08	1.511579e-09	5.348951e-01	9.677577e+01
2.480000e-06	2.332379e-08	1.379989e-09	1.574253e-01	8.814589e+01
2.490000e-06	-3.256324e-08	1.245154e-09	-2.197875e-01	7.946480e+01
2.500000e-06	-8.843799e-08	1.112219e-09	-5.969175e-01	7.073479e+01
2.510000e-06	-1.442652e-07	9.795707e-10	-9.737264e-01	6.195590e+01
2.520000e-06	-2.000262e-07	8.431897e-10	-1.350089e+00	5.312625e+01
2.530000e-06	-2.557661e-07	7.056722e-10	-1.726309e+00	4.424245e+01
2.540000e-06	-3.114606e-07	5.686546e-10	-2.102222e+00	3.529985e+01
2.550000e-06	-3.670370e-07	4.358243e-10	-2.477338e+00	2.629298e+01
2.560000e-06	-4.225034e-07	3.002138e-10	-2.851712e+00	1.721618e+01
2.570000e-06	-4.779233e-07	1.601584e-10	-3.225772e+00	8.064688e+00
2.580000e-06	-5.332621e-07	1.955136e-11	-3.599284e+00	-1.164225e+00
2.590000e-06	-5.885132e-07	-1.228065e-10	-3.972205e+00	-1.047041e+01
2.600000e-06	-6.436903e-07	-2.662805e-10	-4.344626e+00	-1.985081e+01
2.610000e-06	-6.986922e-07	-4.114843e-10	-4.715865e+00	-2.930048e+01
2.620000e-06	-7.533489e-07	-5.565929e-10	-5.084773e+00	-3.881449e+01
2.630000e-06	-8.075976e-07	-7.026297e-10	-5.450928e+00	-4.838995e+01
2.640000e-06	-8.614234e-07	-8.494477e-10	-5.814228e+00	-5.802743e+01
2.650000e-06	-9.147086e-07	-9.985916e-10	-6.173881e+00	-6.773092e+01
2.660000e-06	-9.674207e-07	-1.149673e-09	-6.529664e+00	-7.750622e+01
2.670000e-06	-1.019633e-06	-1.300298e-09	-6.882077e+00	-8.735803e+01
2.680000e-06	-1.071404e-06	-1.451157e-09	-7.231505e+00	-9.728700e+01
2.690000e-06	-1.122790e-06	-1.604317e-09	-7.578337e+00	-1.072877e+02
2.700000e-06	-1.173823e-06	-1.759606e-09	-7.922788e+00	-1.173484e+02
2.710000e-06	-1.224425e-06	-1.914103e-09	-8.264333e+00	-1.274538e+02
2.720000e-06	-1.274544e-06	-2.067451e-09	-8.602614e+00	-1.375876e+02
2.730000e-06	-1.324229e-06	-2.220232e-09	-8.937960e+00	-1.477369e+02
2.740000e-06	-1.373401e-06	-2.375459e-09	-9.269852e+00	-1.578945e+02
2.750000e-06	-1.421972e-06	-2.531125e-09	-9.597685e+00	-1.680589e+02
2.760000e-06	-1.469733e-06	-2.686089e-09	-9.920049e+00	-1.782320e+02
2.770000e-06	-1.516575e-06	-2.841449e-09	-1.023621e+01	-1.884160e+02
2.780000e-06	-1.562817e-06	-2.997486e-09	-1.054833e+01	-1.986091e+02
2.790000e-06	-1.608662e-06	-3.153632e-09	-1.085776e+01	-2.088039e+02
2.800000e-06	-1.654084e-06	-3.308440e-09	-1.116434e+01	-2.189874e+02
2.810000e-06	-1.699025e-06	-3.462786e-09	-1.146767e+01	-2.291431e+02
2.820000e-06	-1.743366e-06	-3.615818e-09	-1.176695e+01	-2.392551e+02
2.830000e-06	-1.787114e-06	-3.768867e-09	-1.206223e+01	-2.493103e+02
2.840000e-06	-1.830443e-06	-3.923996e-09	-1.235469e+01	-2.592999e+02
2.850000e-06	-1.873336e-06	-4.078914e-09	-1.264420e+01	-2.692178e+02
2.860000e-06	-1.915603e-06	-4.229987e-09	-1.292948e+01	-2.790570e+02
2.870000e-06	-1.957215e-06	-4.377573e-09	-1.321034e+01	-2.888063e+02
2.880000e-06	-1.998210e-06	-4.523428e-09	-1.348704e+01	-2.984470e+02
2.890000e-06	-2.038505e-06	-4.668578e-09	-1.375901e+01	-3.079538e+02
2.900000e-06	-2.078157e-06	-4.811994e-09	-1.402665e+01	-3.172975e+02
2.910000e-06	-2.117237e-06	-4.952529e-09	-1.429042e+01	-3.264499e+02
2.920000e-06	-2.155509e-06	-5.091556e-09	-1.454874e+01	-3.353889e+02
2.930000e-06	-2.192743e-06	-5.228283e-09	-1.480005e+01	-3.441011e+02
2.940000e-06	-2.228986e-06	-5.360822e-09	-1.504468e+01	-3.525820e+02
