# Temperatura_=_19.2
# Concentracion g/m^3_=_18700.0
# C_Vs_to_Am_M_A/Vsm_=_65563218390.804596
# pendiente_HvsI_1/m_=_3716.3
# ordenada_HvsI_A/m_=_1297.0
# frecuencia_Hz_=_301074.2254326182

Tiempo_(s)	Campo_(V.s)	Magnetizacion_(V.s)	Campo_(kA/m)	Magnetizacion_(A/m)
0.000000e+00	-2.933500e-06	-7.610898e-09	-1.977467e+01	-4.964284e+02
1.000000e-08	-2.932390e-06	-7.609360e-09	-1.976719e+01	-4.962500e+02
2.000000e-08	-2.930125e-06	-7.603335e-09	-1.975193e+01	-4.959106e+02
3.000000e-08	-2.926626e-06	-7.594318e-09	-1.972834e+01	-4.954132e+02
4.000000e-08	-2.922219e-06	-7.582401e-09	-1.969863e+01	-4.947568e+02
5.000000e-08	-2.917021e-06	-7.567525e-09	-1.966359e+01	-4.939363e+02
6.000000e-08	-2.910866e-06	-7.545556e-09	-1.962210e+01	-4.929452e+02
7.000000e-08	-2.903719e-06	-7.526390e-09	-1.957392e+01	-4.917798e+02
8.000000e-08	-2.895535e-06	-7.536234e-09	-1.951875e+01	-4.904434e+02
9.000000e-08	-2.886024e-06	-7.538374e-09	-1.945464e+01	-4.889485e+02
1.000000e-07	-2.875009e-06	-7.472755e-09	-1.938039e+01	-4.873171e+02
1.100000e-07	-2.862861e-06	-7.375405e-09	-1.929850e+01	-4.855772e+02
1.200000e-07	-2.849957e-06	-7.387227e-09	-1.921151e+01	-4.837573e+02
1.300000e-07	-2.836098e-06	-7.444488e-09	-1.911809e+01	-4.818800e+02
1.400000e-07	-2.821056e-06	-7.326089e-09	-1.901669e+01	-4.799562e+02
1.500000e-07	-2.804904e-06	-7.275904e-09	-1.890781e+01	-4.779820e+02
1.600000e-07	-2.787611e-06	-7.353024e-09	-1.879124e+01	-4.759391e+02
1.700000e-07	-2.769239e-06	-7.293128e-09	-1.866739e+01	-4.737987e+02
1.800000e-07	-2.750034e-06	-7.197704e-09	-1.853793e+01	-4.715270e+02
1.900000e-07	-2.730080e-06	-7.216637e-09	-1.840343e+01	-4.690925e+02
2.000000e-07	-2.709205e-06	-7.168389e-09	-1.826271e+01	-4.664713e+02
2.100000e-07	-2.687390e-06	-7.035966e-09	-1.811565e+01	-4.636514e+02
2.200000e-07	-2.664742e-06	-7.053897e-09	-1.796298e+01	-4.606326e+02
2.300000e-07	-2.641199e-06	-7.057847e-09	-1.780428e+01	-4.574252e+02
2.400000e-07	-2.616861e-06	-6.933801e-09	-1.764022e+01	-4.540456e+02
2.500000e-07	-2.591624e-06	-6.862836e-09	-1.747009e+01	-4.505118e+02
2.600000e-07	-2.565187e-06	-6.837165e-09	-1.729188e+01	-4.468393e+02
2.700000e-07	-2.537610e-06	-6.775969e-09	-1.710599e+01	-4.430381e+02
2.800000e-07	-2.509150e-06	-6.719383e-09	-1.691414e+01	-4.391118e+02
2.900000e-07	-2.479861e-06	-6.621879e-09	-1.671670e+01	-4.350589e+02
3.000000e-07	-2.449692e-06	-6.576434e-09	-1.651334e+01	-4.308748e+02
3.100000e-07	-2.418741e-06	-6.558192e-09	-1.630470e+01	-4.265548e+02
3.200000e-07	-2.387057e-06	-6.446414e-09	-1.609111e+01	-4.220976e+02
3.300000e-07	-2.354666e-06	-6.366770e-09	-1.587277e+01	-4.175062e+02
3.400000e-07	-2.321559e-06	-6.318632e-09	-1.564959e+01	-4.127887e+02
3.500000e-07	-2.287501e-06	-6.216458e-09	-1.542001e+01	-4.079570e+02
3.600000e-07	-2.252290e-06	-6.154457e-09	-1.518265e+01	-4.030235e+02
3.700000e-07	-2.216121e-06	-6.114991e-09	-1.493883e+01	-3.979989e+02
3.800000e-07	-2.179282e-06	-5.981939e-09	-1.469050e+01	-3.928892e+02
3.900000e-07	-2.141770e-06	-5.906642e-09	-1.443764e+01	-3.876945e+02
4.000000e-07	-2.103492e-06	-5.872481e-09	-1.417960e+01	-3.824097e+02
4.100000e-07	-2.064437e-06	-5.763144e-09	-1.391634e+01	-3.770267e+02
4.200000e-07	-2.024671e-06	-5.655188e-09	-1.364828e+01	-3.715376e+02
4.300000e-07	-1.984350e-06	-5.586701e-09	-1.337647e+01	-3.659378e+02
4.400000e-07	-1.943519e-06	-5.508033e-09	-1.310123e+01	-3.602273e+02
4.500000e-07	-1.901912e-06	-5.420705e-09	-1.282076e+01	-3.544112e+02
4.600000e-07	-1.859301e-06	-5.328778e-09	-1.253352e+01	-3.484972e+02
4.700000e-07	-1.815751e-06	-5.221581e-09	-1.223995e+01	-3.424925e+02
4.800000e-07	-1.771523e-06	-5.132999e-09	-1.194181e+01	-3.364006e+02
4.900000e-07	-1.726783e-06	-5.046855e-09	-1.164022e+01	-3.302193e+02
5.000000e-07	-1.681516e-06	-4.952523e-09	-1.133507e+01	-3.239414e+02
5.100000e-07	-1.635644e-06	-4.847226e-09	-1.102585e+01	-3.175572e+02
5.200000e-07	-1.589193e-06	-4.744687e-09	-1.071272e+01	-3.110581e+02
5.300000e-07	-1.542186e-06	-4.650783e-09	-1.039585e+01	-3.044410e+02
5.400000e-07	-1.494618e-06	-4.555333e-09	-1.007519e+01	-2.977100e+02
5.500000e-07	-1.446557e-06	-4.440968e-09	-9.751213e+00	-2.908761e+02
5.600000e-07	-1.398098e-06	-4.323098e-09	-9.424558e+00	-2.839540e+02
5.700000e-07	-1.349222e-06	-4.230811e-09	-9.095086e+00	-2.769573e+02
5.800000e-07	-1.299698e-06	-4.129449e-09	-8.761240e+00	-2.698936e+02
5.900000e-07	-1.249448e-06	-4.013193e-09	-8.422511e+00	-2.627620e+02
6.000000e-07	-1.198441e-06	-3.899576e-09	-8.078672e+00	-2.555537e+02
6.100000e-07	-1.146762e-06	-3.791317e-09	-7.730305e+00	-2.482550e+02
6.200000e-07	-1.094664e-06	-3.679861e-09	-7.379115e+00	-2.408536e+02
6.300000e-07	-1.042240e-06	-3.563438e-09	-7.025723e+00	-2.333437e+02
6.400000e-07	-9.894705e-07	-3.441551e-09	-6.670004e+00	-2.257298e+02
6.500000e-07	-9.363150e-07	-3.320457e-09	-6.311684e+00	-2.180263e+02
6.600000e-07	-8.827842e-07	-3.208406e-09	-5.950833e+00	-2.102541e+02
6.700000e-07	-8.289016e-07	-3.092574e-09	-5.587612e+00	-2.024346e+02
6.800000e-07	-7.747378e-07	-2.970112e-09	-5.222495e+00	-1.945835e+02
6.900000e-07	-7.203551e-07	-2.843189e-09	-4.855902e+00	-1.867065e+02
7.000000e-07	-6.657752e-07	-2.721057e-09	-4.487980e+00	-1.787988e+02
7.100000e-07	-6.110243e-07	-2.599635e-09	-4.118905e+00	-1.708482e+02
7.200000e-07	-5.560631e-07	-2.473066e-09	-3.748412e+00	-1.628401e+02
7.300000e-07	-5.008608e-07	-2.344024e-09	-3.376294e+00	-1.547637e+02
7.400000e-07	-4.454460e-07	-2.219436e-09	-3.002744e+00	-1.466151e+02
7.500000e-07	-3.898030e-07	-2.100814e-09	-2.627656e+00	-1.383980e+02
7.600000e-07	-3.340193e-07	-1.974895e-09	-2.251618e+00	-1.301208e+02
7.700000e-07	-2.781386e-07	-1.841656e-09	-1.874928e+00	-1.217916e+02
7.800000e-07	-2.221328e-07	-1.708930e-09	-1.497393e+00	-1.134139e+02
7.900000e-07	-1.660478e-07	-1.581286e-09	-1.119326e+00	-1.049841e+02
8.000000e-07	-1.099345e-07	-1.451690e-09	-7.410669e-01	-9.649322e+01
8.100000e-07	-5.380863e-08	-1.317881e-09	-3.627231e-01	-8.793078e+01
8.200000e-07	2.364313e-09	-1.183242e-09	1.593779e-02	-7.929051e+01
8.300000e-07	5.851531e-08	-1.051433e-09	3.944507e-01	-7.057469e+01
8.400000e-07	1.146343e-07	-9.198850e-10	7.727478e-01	-6.179529e+01
8.500000e-07	1.707243e-07	-7.819406e-10	1.150850e+00	-5.297101e+01
8.600000e-07	2.267398e-07	-6.412135e-10	1.528449e+00	-4.412104e+01
8.700000e-07	2.826754e-07	-5.034267e-10	1.905510e+00	-3.525784e+01
8.800000e-07	3.384703e-07	-3.704761e-10	2.281623e+00	-2.638169e+01
8.900000e-07	3.941621e-07	-2.350857e-10	2.657040e+00	-1.747927e+01
9.000000e-07	4.497836e-07	-9.503950e-11	3.031984e+00	-8.527197e+00
9.100000e-07	5.052319e-07	4.541302e-11	3.405760e+00	5.005553e-01
9.200000e-07	5.604368e-07	1.837702e-10	3.777895e+00	9.624057e+00
9.300000e-07	6.153871e-07	3.239063e-10	4.148314e+00	1.885067e+01
9.400000e-07	6.701053e-07	4.699591e-10	4.517169e+00	2.817278e+01
9.500000e-07	7.246351e-07	6.171790e-10	4.884753e+00	3.757091e+01
9.600000e-07	7.789869e-07	7.611156e-10	5.251137e+00	4.702114e+01
9.700000e-07	8.330634e-07	9.014441e-10	5.615667e+00	5.650398e+01
9.800000e-07	8.868371e-07	1.044586e-09	5.978154e+00	6.601144e+01
9.900000e-07	9.403019e-07	1.191295e-09	6.338560e+00	7.554958e+01
1.000000e-06	9.933715e-07	1.338428e-09	6.696301e+00	8.513540e+01
1.010000e-06	1.046054e-06	1.484896e-09	7.051431e+00	9.478947e+01
1.020000e-06	1.098393e-06	1.632661e-09	7.404251e+00	1.045268e+02
1.030000e-06	1.150340e-06	1.783775e-09	7.754424e+00	1.143498e+02
1.040000e-06	1.201756e-06	1.935336e-09	8.101017e+00	1.242454e+02
1.050000e-06	1.252469e-06	2.085239e-09	8.442876e+00	1.341884e+02
1.060000e-06	1.302397e-06	2.234102e-09	8.779434e+00	1.441492e+02
1.070000e-06	1.351610e-06	2.385697e-09	9.111177e+00	1.541026e+02
1.080000e-06	1.400327e-06	2.538819e-09	9.439582e+00	1.640355e+02
1.090000e-06	1.448709e-06	2.690687e-09	9.765727e+00	1.739496e+02
1.100000e-06	1.496691e-06	2.841017e-09	1.008917e+01	1.838589e+02
1.110000e-06	1.544132e-06	2.991377e-09	1.040897e+01	1.937818e+02
1.120000e-06	1.591008e-06	3.143299e-09	1.072496e+01	2.037321e+02
1.130000e-06	1.637343e-06	3.294537e-09	1.103730e+01	2.137112e+02
1.140000e-06	1.683108e-06	3.445202e-09	1.134580e+01	2.237051e+02
1.150000e-06	1.728302e-06	3.596595e-09	1.165046e+01	2.336864e+02
1.160000e-06	1.773015e-06	3.748382e-09	1.195186e+01	2.436212e+02
1.170000e-06	1.817320e-06	3.898604e-09	1.225053e+01	2.534776e+02
1.180000e-06	1.861102e-06	4.047260e-09	1.254566e+01	2.632335e+02
1.190000e-06	1.904077e-06	4.194497e-09	1.283535e+01	2.728796e+02
1.200000e-06	1.946046e-06	4.340009e-09	1.311827e+01	2.824177e+02
1.210000e-06	1.987128e-06	4.483513e-09	1.339520e+01	2.918551e+02
1.220000e-06	2.027578e-06	4.623766e-09	1.366787e+01	3.011964e+02
1.230000e-06	2.067427e-06	4.760810e-09	1.393649e+01	3.104371e+02
1.240000e-06	2.106560e-06	4.897116e-09	1.420029e+01	3.195601e+02
1.250000e-06	2.144955e-06	5.033657e-09	1.445911e+01	3.285372e+02
1.260000e-06	2.182591e-06	5.167485e-09	1.471281e+01	3.373342e+02
1.270000e-06	2.219534e-06	5.297929e-09	1.496184e+01	3.459187e+02
1.280000e-06	2.255942e-06	5.424190e-09	1.520726e+01	3.542661e+02
1.290000e-06	2.291640e-06	5.547186e-09	1.544791e+01	3.623633e+02
1.300000e-06	2.326292e-06	5.665476e-09	1.568149e+01	3.702089e+02
1.310000e-06	2.359852e-06	5.778044e-09	1.590772e+01	3.778092e+02
1.320000e-06	2.392539e-06	5.887801e-09	1.612807e+01	3.851731e+02
1.330000e-06	2.424519e-06	5.995420e-09	1.634364e+01	3.923069e+02
1.340000e-06	2.455712e-06	6.099862e-09	1.655391e+01	3.992113e+02
1.350000e-06	2.486107e-06	6.199745e-09	1.675881e+01	4.058817e+02
1.360000e-06	2.515700e-06	6.296164e-09	1.695829e+01	4.123103e+02
1.370000e-06	2.544505e-06	6.390092e-09	1.715247e+01	4.184899e+02
1.380000e-06	2.572620e-06	6.480545e-09	1.734199e+01	4.244170e+02
1.390000e-06	2.599717e-06	6.565575e-09	1.752465e+01	4.300938e+02
1.400000e-06	2.625512e-06	6.645456e-09	1.769853e+01	4.355273e+02
1.410000e-06	2.650213e-06	6.721340e-09	1.786504e+01	4.407276e+02
1.420000e-06	2.674035e-06	6.794207e-09	1.802562e+01	4.457042e+02
1.430000e-06	2.696970e-06	6.864822e-09	1.818023e+01	4.504639e+02
1.440000e-06	2.718984e-06	6.932131e-09	1.832863e+01	4.550089e+02
1.450000e-06	2.740152e-06	6.996685e-09	1.847132e+01	4.593373e+02
1.460000e-06	2.760584e-06	7.058887e-09	1.860905e+01	4.634440e+02
1.470000e-06	2.780161e-06	7.116694e-09	1.874102e+01	4.673221e+02
1.480000e-06	2.798648e-06	7.168802e-09	1.886564e+01	4.709649e+02
1.490000e-06	2.816069e-06	7.216968e-09	1.898308e+01	4.743664e+02
1.500000e-06	2.832446e-06	7.261768e-09	1.909347e+01	4.775222e+02
1.510000e-06	2.847704e-06	7.303959e-09	1.919633e+01	4.804295e+02
1.520000e-06	2.861915e-06	7.343487e-09	1.929212e+01	4.830881e+02
1.530000e-06	2.875153e-06	7.377576e-09	1.938136e+01	4.855004e+02
1.540000e-06	2.887351e-06	7.407164e-09	1.946358e+01	4.876733e+02
1.550000e-06	2.898285e-06	7.435601e-09	1.953729e+01	4.896175e+02
1.560000e-06	2.907919e-06	7.462847e-09	1.960223e+01	4.913476e+02
1.570000e-06	2.916463e-06	7.485810e-09	1.965983e+01	4.928803e+02
1.580000e-06	2.924029e-06	7.504305e-09	1.971083e+01	4.942313e+02
1.590000e-06	2.930612e-06	7.520895e-09	1.975520e+01	4.954133e+02
1.600000e-06	2.936242e-06	7.535788e-09	1.979316e+01	4.964331e+02
1.610000e-06	2.940987e-06	7.547746e-09	1.982514e+01	4.972919e+02
1.620000e-06	2.944752e-06	7.556813e-09	1.985052e+01	4.979862e+02
1.630000e-06	2.947291e-06	7.564577e-09	1.986764e+01	4.985103e+02
1.640000e-06	2.948598e-06	7.572651e-09	1.987645e+01	4.988597e+02
1.650000e-06	2.948902e-06	7.578822e-09	1.987850e+01	4.990332e+02
1.660000e-06	2.948311e-06	7.579261e-09	1.987452e+01	4.990335e+02
1.670000e-06	2.946786e-06	7.575581e-09	1.986424e+01	4.988664e+02
1.680000e-06	2.944355e-06	7.570516e-09	1.984785e+01	4.985379e+02
1.690000e-06	2.941159e-06	7.563742e-09	1.982630e+01	4.980514e+02
1.700000e-06	2.937151e-06	7.554823e-09	1.979928e+01	4.974060e+02
1.710000e-06	2.932043e-06	7.544932e-09	1.976486e+01	4.965970e+02
1.720000e-06	2.925785e-06	7.542573e-09	1.972267e+01	4.956178e+02
1.730000e-06	2.918575e-06	7.512395e-09	1.967406e+01	4.944645e+02
1.740000e-06	2.910309e-06	7.452462e-09	1.961835e+01	4.931395e+02
1.750000e-06	2.900526e-06	7.423421e-09	1.955240e+01	4.916549e+02
1.760000e-06	2.889153e-06	7.484911e-09	1.947574e+01	4.900319e+02
1.770000e-06	2.877021e-06	7.470959e-09	1.939395e+01	4.882984e+02
1.780000e-06	2.864675e-06	7.352649e-09	1.931073e+01	4.864829e+02
1.790000e-06	2.851348e-06	7.322793e-09	1.922089e+01	4.846088e+02
1.800000e-06	2.836399e-06	7.369489e-09	1.912012e+01	4.826877e+02
1.810000e-06	2.820448e-06	7.288976e-09	1.901259e+01	4.807171e+02
1.820000e-06	2.803853e-06	7.194618e-09	1.890073e+01	4.786796e+02
1.830000e-06	2.786121e-06	7.272010e-09	1.878120e+01	4.765468e+02
1.840000e-06	2.767277e-06	7.217281e-09	1.865417e+01	4.742852e+02
1.850000e-06	2.747725e-06	7.072010e-09	1.852237e+01	4.718627e+02
1.860000e-06	2.727083e-06	7.145536e-09	1.838322e+01	4.692551e+02
1.870000e-06	2.705047e-06	7.143163e-09	1.823468e+01	4.664490e+02
1.880000e-06	2.681994e-06	6.974282e-09	1.807928e+01	4.634438e+02
1.890000e-06	2.658012e-06	6.979059e-09	1.791762e+01	4.602489e+02
1.900000e-06	2.633153e-06	6.987573e-09	1.775004e+01	4.568806e+02
1.910000e-06	2.607573e-06	6.891259e-09	1.757761e+01	4.533568e+02
1.920000e-06	2.581166e-06	6.840636e-09	1.739960e+01	4.496933e+02
1.930000e-06	2.553970e-06	6.773886e-09	1.721627e+01	4.459007e+02
1.940000e-06	2.526002e-06	6.711136e-09	1.702774e+01	4.419829e+02
1.950000e-06	2.496835e-06	6.707540e-09	1.683112e+01	4.379388e+02
1.960000e-06	2.466404e-06	6.582346e-09	1.662599e+01	4.337637e+02
1.970000e-06	2.435048e-06	6.486675e-09	1.641462e+01	4.294531e+02
1.980000e-06	2.402891e-06	6.509206e-09	1.619785e+01	4.250052e+02
1.990000e-06	2.370017e-06	6.390249e-09	1.597624e+01	4.204227e+02
2.000000e-06	2.336408e-06	6.303499e-09	1.574968e+01	4.157135e+02
2.010000e-06	2.302006e-06	6.291477e-09	1.551778e+01	4.108890e+02
2.020000e-06	2.266937e-06	6.148815e-09	1.528138e+01	4.059620e+02
2.030000e-06	2.231125e-06	6.078596e-09	1.503998e+01	4.009433e+02
2.040000e-06	2.194215e-06	6.063679e-09	1.479117e+01	3.958391e+02
2.050000e-06	2.156251e-06	5.923742e-09	1.453525e+01	3.906501e+02
2.060000e-06	2.117549e-06	5.840847e-09	1.427436e+01	3.853716e+02
2.070000e-06	2.078191e-06	5.797994e-09	1.400905e+01	3.799954e+02
2.080000e-06	2.038142e-06	5.699827e-09	1.373908e+01	3.745137e+02
2.090000e-06	1.997422e-06	5.617996e-09	1.346459e+01	3.689214e+02
2.100000e-06	1.956116e-06	5.520806e-09	1.318615e+01	3.632183e+02
2.110000e-06	1.914129e-06	5.429895e-09	1.290311e+01	3.574090e+02
2.120000e-06	1.871470e-06	5.359702e-09	1.261555e+01	3.515014e+02
2.130000e-06	1.828318e-06	5.263969e-09	1.232466e+01	3.455025e+02
2.140000e-06	1.784662e-06	5.170896e-09	1.203038e+01	3.394164e+02
2.150000e-06	1.740408e-06	5.073098e-09	1.173206e+01	3.332412e+02
2.160000e-06	1.695453e-06	4.973327e-09	1.142902e+01	3.269701e+02
2.170000e-06	1.649860e-06	4.884050e-09	1.112168e+01	3.205933e+02
2.180000e-06	1.603682e-06	4.787298e-09	1.081040e+01	3.141022e+02
2.190000e-06	1.557029e-06	4.683345e-09	1.049591e+01	3.074930e+02
2.200000e-06	1.509978e-06	4.581293e-09	1.017873e+01	3.007694e+02
2.210000e-06	1.462246e-06	4.487608e-09	9.856976e+00	2.939420e+02
2.220000e-06	1.413729e-06	4.383553e-09	9.529926e+00	2.870253e+02
2.230000e-06	1.364649e-06	4.257870e-09	9.199073e+00	2.800331e+02
2.240000e-06	1.315125e-06	4.151946e-09	8.865238e+00	2.729737e+02
2.250000e-06	1.265141e-06	4.053062e-09	8.528297e+00	2.658468e+02
2.260000e-06	1.214658e-06	3.942373e-09	8.187990e+00	2.586439e+02
2.270000e-06	1.163747e-06	3.837538e-09	7.844801e+00	2.513517e+02
2.280000e-06	1.112480e-06	3.723017e-09	7.499211e+00	2.439575e+02
2.290000e-06	1.060772e-06	3.611594e-09	7.150649e+00	2.364549e+02
2.300000e-06	1.008597e-06	3.497665e-09	6.798936e+00	2.288476e+02
2.310000e-06	9.558624e-07	3.374415e-09	6.443452e+00	2.211494e+02
2.320000e-06	9.025048e-07	3.254517e-09	6.083770e+00	2.133809e+02
2.330000e-06	8.486513e-07	3.135128e-09	5.720745e+00	2.055637e+02
2.340000e-06	7.943535e-07	3.022795e-09	5.354724e+00	1.977141e+02
2.350000e-06	7.396242e-07	2.909773e-09	4.985794e+00	1.898386e+02
2.360000e-06	6.846497e-07	2.787675e-09	4.615213e+00	1.819330e+02
2.370000e-06	6.295592e-07	2.666713e-09	4.243848e+00	1.739855e+02
2.380000e-06	5.743345e-07	2.548583e-09	3.871579e+00	1.659816e+02
2.390000e-06	5.190042e-07	2.428249e-09	3.498599e+00	1.579098e+02
2.400000e-06	4.636050e-07	2.302541e-09	3.125154e+00	1.497658e+02
2.410000e-06	4.081170e-07	2.172911e-09	2.751110e+00	1.415530e+02
2.420000e-06	3.524862e-07	2.049092e-09	2.376104e+00	1.332793e+02
2.430000e-06	2.967194e-07	1.926413e-09	2.000181e+00	1.249532e+02
2.440000e-06	2.408883e-07	1.801085e-09	1.623824e+00	1.165785e+02
2.450000e-06	1.849405e-07	1.674997e-09	1.246681e+00	1.081523e+02
2.460000e-06	1.289080e-07	1.546568e-09	8.689669e-01	9.966574e+01
2.470000e-06	7.287737e-08	1.418638e-09	4.912651e-01	9.110827e+01
2.480000e-06	1.684754e-08	1.287438e-09	1.135690e-01	8.247316e+01
2.490000e-06	-3.916400e-08	1.153667e-09	-2.640039e-01	7.376201e+01
2.500000e-06	-9.516181e-08	1.019550e-09	-6.414842e-01	6.498614e+01
2.510000e-06	-1.510885e-07	8.861347e-10	-1.018485e+00	5.616395e+01
2.520000e-06	-2.069605e-07	7.524098e-10	-1.395117e+00	4.731485e+01
2.530000e-06	-2.627291e-07	6.157926e-10	-1.771052e+00	3.845199e+01
2.540000e-06	-3.183830e-07	4.802318e-10	-2.146215e+00	2.957662e+01
2.550000e-06	-3.739578e-07	3.472827e-10	-2.520843e+00	2.067632e+01
2.560000e-06	-4.294075e-07	2.136451e-10	-2.894629e+00	1.172825e+01
2.570000e-06	-4.847861e-07	7.729547e-11	-3.267935e+00	2.706244e+00
2.580000e-06	-5.401201e-07	-6.056568e-11	-3.640941e+00	-6.410435e+00
2.590000e-06	-5.953713e-07	-2.004815e-10	-4.013388e+00	-1.563020e+01
2.600000e-06	-6.505011e-07	-3.418704e-10	-4.385017e+00	-2.494646e+01
2.610000e-06	-7.054715e-07	-4.857788e-10	-4.755572e+00	-3.434040e+01
2.620000e-06	-7.602099e-07	-6.305969e-10	-5.124562e+00	-4.378809e+01
2.630000e-06	-8.146452e-07	-7.741162e-10	-5.491510e+00	-5.326946e+01
2.640000e-06	-8.685652e-07	-9.173148e-10	-5.854984e+00	-6.277557e+01
2.650000e-06	-9.219020e-07	-1.062126e-09	-6.214526e+00	-7.231148e+01
2.660000e-06	-9.746648e-07	-1.209583e-09	-6.570199e+00	-8.189364e+01
2.670000e-06	-1.026838e-06	-1.357930e-09	-6.921899e+00	-9.154265e+01
2.680000e-06	-1.078583e-06	-1.507542e-09	-7.270713e+00	-1.012742e+02
2.690000e-06	-1.129988e-06	-1.658762e-09	-7.617229e+00	-1.110918e+02
2.700000e-06	-1.181039e-06	-1.811145e-09	-7.961367e+00	-1.209833e+02
2.710000e-06	-1.231652e-06	-1.963374e-09	-8.302547e+00	-1.309244e+02
2.720000e-06	-1.281757e-06	-2.113593e-09	-8.640305e+00	-1.408854e+02
2.730000e-06	-1.331372e-06	-2.262188e-09	-8.974755e+00	-1.508403e+02
2.740000e-06	-1.380514e-06	-2.413154e-09	-9.306025e+00	-1.607752e+02
2.750000e-06	-1.429102e-06	-2.566857e-09	-9.633552e+00	-1.706907e+02
2.760000e-06	-1.476912e-06	-2.719297e-09	-9.955841e+00	-1.806002e+02
2.770000e-06	-1.523843e-06	-2.870664e-09	-1.027220e+01	-1.905220e+02
2.780000e-06	-1.570099e-06	-3.023310e-09	-1.058401e+01	-2.004705e+02
2.790000e-06	-1.615862e-06	-3.176673e-09	-1.089250e+01	-2.104483e+02
2.800000e-06	-1.661225e-06	-3.328776e-09	-1.119829e+01	-2.204424e+02
2.810000e-06	-1.706144e-06	-3.479269e-09	-1.150109e+01	-2.304261e+02
2.820000e-06	-1.750492e-06	-3.629893e-09	-1.180004e+01	-2.403658e+02
2.830000e-06	-1.794241e-06	-3.782042e-09	-1.209495e+01	-2.502291e+02
2.840000e-06	-1.837521e-06	-3.935331e-09	-1.238670e+01	-2.599931e+02
2.850000e-06	-1.880385e-06	-4.084989e-09	-1.267564e+01	-2.696475e+02
2.860000e-06	-1.922645e-06	-4.229360e-09	-1.296052e+01	-2.791935e+02
2.870000e-06	-1.964238e-06	-4.372598e-09	-1.324089e+01	-2.886383e+02
2.880000e-06	-2.005223e-06	-4.516657e-09	-1.351717e+01	-2.979870e+02
2.890000e-06	-2.045495e-06	-4.659515e-09	-1.378865e+01	-3.072357e+02
2.900000e-06	-2.085062e-06	-4.799070e-09	-1.405537e+01	-3.163684e+02
2.910000e-06	-2.124091e-06	-4.935982e-09	-1.431847e+01	-3.253574e+02
2.920000e-06	-2.162354e-06	-5.072311e-09	-1.457640e+01	-3.341689e+02
2.930000e-06	-2.199531e-06	-5.207053e-09	-1.482700e+01	-3.427699e+02
2.940000e-06	-2.235685e-06	-5.336668e-09	-1.507071e+01	-3.511352e+02
