# Temperatura_=_28.1
# Concentracion g/m^3_=_18700.0
# C_Vs_to_Am_M_A/Vsm_=_65563218390.804596
# pendiente_HvsI_1/m_=_3716.3
# ordenada_HvsI_A/m_=_1297.0
# frecuencia_Hz_=_301075.2554407182

Tiempo_(s)	Campo_(V.s)	Magnetizacion_(V.s)	Campo_(kA/m)	Magnetizacion_(A/m)
0.000000e+00	-2.935039e-06	-7.896647e-09	-1.977773e+01	-5.154688e+02
1.000000e-08	-2.934652e-06	-7.899425e-09	-1.977513e+01	-5.154321e+02
2.000000e-08	-2.933377e-06	-7.898371e-09	-1.976653e+01	-5.152696e+02
3.000000e-08	-2.930886e-06	-7.892535e-09	-1.974975e+01	-5.149962e+02
4.000000e-08	-2.927207e-06	-7.885552e-09	-1.972495e+01	-5.146041e+02
5.000000e-08	-2.922625e-06	-7.877995e-09	-1.969408e+01	-5.140638e+02
6.000000e-08	-2.917218e-06	-7.868122e-09	-1.965765e+01	-5.133353e+02
7.000000e-08	-2.910868e-06	-7.851959e-09	-1.961486e+01	-5.123843e+02
8.000000e-08	-2.903534e-06	-7.828774e-09	-1.956544e+01	-5.111980e+02
9.000000e-08	-2.895054e-06	-7.820050e-09	-1.950829e+01	-5.097950e+02
1.000000e-07	-2.885193e-06	-7.821389e-09	-1.944185e+01	-5.082236e+02
1.100000e-07	-2.873971e-06	-7.794995e-09	-1.936622e+01	-5.065503e+02
1.200000e-07	-2.861710e-06	-7.714899e-09	-1.928360e+01	-5.048403e+02
1.300000e-07	-2.848673e-06	-7.665894e-09	-1.919575e+01	-5.031380e+02
1.400000e-07	-2.834610e-06	-7.702300e-09	-1.910099e+01	-5.014527e+02
1.500000e-07	-2.819301e-06	-7.689919e-09	-1.899783e+01	-4.997562e+02
1.600000e-07	-2.802839e-06	-7.599380e-09	-1.888690e+01	-4.979917e+02
1.700000e-07	-2.785276e-06	-7.593998e-09	-1.876856e+01	-4.960912e+02
1.800000e-07	-2.766675e-06	-7.606332e-09	-1.864321e+01	-4.939957e+02
1.900000e-07	-2.747287e-06	-7.521027e-09	-1.851256e+01	-4.916705e+02
2.000000e-07	-2.727128e-06	-7.475757e-09	-1.837672e+01	-4.891121e+02
2.100000e-07	-2.706038e-06	-7.468454e-09	-1.823461e+01	-4.863429e+02
2.200000e-07	-2.684072e-06	-7.368287e-09	-1.808659e+01	-4.833989e+02
2.300000e-07	-2.661271e-06	-7.309843e-09	-1.793295e+01	-4.803133e+02
2.400000e-07	-2.637616e-06	-7.326313e-09	-1.777355e+01	-4.771044e+02
2.500000e-07	-2.613137e-06	-7.228847e-09	-1.760860e+01	-4.737699e+02
2.600000e-07	-2.587725e-06	-7.133902e-09	-1.743736e+01	-4.702911e+02
2.700000e-07	-2.561092e-06	-7.131704e-09	-1.725789e+01	-4.666432e+02
2.800000e-07	-2.533327e-06	-7.082664e-09	-1.707080e+01	-4.628087e+02
2.900000e-07	-2.504715e-06	-7.000235e-09	-1.687800e+01	-4.587859e+02
3.000000e-07	-2.475268e-06	-6.936342e-09	-1.667957e+01	-4.545922e+02
3.100000e-07	-2.444970e-06	-6.853827e-09	-1.647540e+01	-4.502585e+02
3.200000e-07	-2.413869e-06	-6.806127e-09	-1.626584e+01	-4.458182e+02
3.300000e-07	-2.382023e-06	-6.750917e-09	-1.605124e+01	-4.412957e+02
3.400000e-07	-2.349535e-06	-6.644904e-09	-1.583232e+01	-4.366976e+02
3.500000e-07	-2.316301e-06	-6.586587e-09	-1.560837e+01	-4.320119e+02
3.600000e-07	-2.282009e-06	-6.542175e-09	-1.537730e+01	-4.272139e+02
3.700000e-07	-2.246589e-06	-6.452779e-09	-1.513862e+01	-4.222766e+02
3.800000e-07	-2.210314e-06	-6.372972e-09	-1.489418e+01	-4.171826e+02
3.900000e-07	-2.173398e-06	-6.287086e-09	-1.464542e+01	-4.119315e+02
4.000000e-07	-2.135775e-06	-6.183903e-09	-1.439190e+01	-4.065409e+02
4.100000e-07	-2.097347e-06	-6.121001e-09	-1.413295e+01	-4.010403e+02
4.200000e-07	-2.058137e-06	-6.047249e-09	-1.386874e+01	-3.954614e+02
4.300000e-07	-2.018246e-06	-5.942111e-09	-1.359993e+01	-3.898270e+02
4.400000e-07	-1.977806e-06	-5.859975e-09	-1.332743e+01	-3.841438e+02
4.500000e-07	-1.936790e-06	-5.787649e-09	-1.305104e+01	-3.784017e+02
4.600000e-07	-1.895024e-06	-5.692027e-09	-1.276960e+01	-3.725789e+02
4.700000e-07	-1.852324e-06	-5.586418e-09	-1.248187e+01	-3.666503e+02
4.800000e-07	-1.808694e-06	-5.488276e-09	-1.218787e+01	-3.605971e+02
4.900000e-07	-1.764420e-06	-5.401456e-09	-1.188953e+01	-3.544129e+02
5.000000e-07	-1.719635e-06	-5.319844e-09	-1.158774e+01	-3.481047e+02
5.100000e-07	-1.674277e-06	-5.220661e-09	-1.128210e+01	-3.416885e+02
5.200000e-07	-1.628297e-06	-5.109524e-09	-1.097226e+01	-3.351825e+02
5.300000e-07	-1.581735e-06	-5.007861e-09	-1.065851e+01	-3.285996e+02
5.400000e-07	-1.534670e-06	-4.912561e-09	-1.034136e+01	-3.219429e+02
5.500000e-07	-1.487085e-06	-4.809861e-09	-1.002071e+01	-3.152059e+02
5.600000e-07	-1.438987e-06	-4.702260e-09	-9.696598e+00	-3.083761e+02
5.700000e-07	-1.390437e-06	-4.595300e-09	-9.369447e+00	-3.014408e+02
5.800000e-07	-1.341410e-06	-4.492105e-09	-9.039079e+00	-2.943928e+02
5.900000e-07	-1.291692e-06	-4.385846e-09	-8.704056e+00	-2.872334e+02
6.000000e-07	-1.241131e-06	-4.267331e-09	-8.363352e+00	-2.799711e+02
6.100000e-07	-1.189868e-06	-4.151321e-09	-8.017916e+00	-2.726182e+02
6.200000e-07	-1.138149e-06	-4.046380e-09	-7.669409e+00	-2.651858e+02
6.300000e-07	-1.086028e-06	-3.939411e-09	-7.318191e+00	-2.576792e+02
6.400000e-07	-1.033502e-06	-3.821277e-09	-6.964243e+00	-2.500967e+02
6.500000e-07	-9.806070e-07	-3.697769e-09	-6.607811e+00	-2.424315e+02
6.600000e-07	-9.273055e-07	-3.578318e-09	-6.248639e+00	-2.346753e+02
6.700000e-07	-8.736559e-07	-3.461507e-09	-5.887122e+00	-2.268235e+02
6.800000e-07	-8.196973e-07	-3.339842e-09	-5.523522e+00	-2.188784e+02
6.900000e-07	-7.654830e-07	-3.213463e-09	-5.158200e+00	-2.108501e+02
7.000000e-07	-7.110898e-07	-3.089083e-09	-4.791672e+00	-2.027540e+02
7.100000e-07	-6.565281e-07	-2.968227e-09	-4.424009e+00	-1.946068e+02
7.200000e-07	-6.017332e-07	-2.845312e-09	-4.054774e+00	-1.864210e+02
7.300000e-07	-5.466977e-07	-2.715018e-09	-3.683917e+00	-1.782018e+02
7.400000e-07	-4.914079e-07	-2.582860e-09	-3.311347e+00	-1.699456e+02
7.500000e-07	-4.358837e-07	-2.456626e-09	-2.937198e+00	-1.616412e+02
7.600000e-07	-3.802153e-07	-2.333023e-09	-2.562077e+00	-1.532737e+02
7.700000e-07	-3.243604e-07	-2.204869e-09	-2.185699e+00	-1.448289e+02
7.800000e-07	-2.683366e-07	-2.071023e-09	-1.808183e+00	-1.362963e+02
7.900000e-07	-2.122338e-07	-1.938424e-09	-1.430135e+00	-1.276719e+02
8.000000e-07	-1.560895e-07	-1.807147e-09	-1.051807e+00	-1.189580e+02
8.100000e-07	-9.994261e-08	-1.672189e-09	-6.734623e-01	-1.101617e+02
8.200000e-07	-4.379393e-08	-1.534478e-09	-2.951050e-01	-1.012924e+02
8.300000e-07	1.241044e-08	-1.397682e-09	8.362760e-02	-9.235978e+01
8.400000e-07	6.861112e-08	-1.261113e-09	4.623354e-01	-8.337142e+01
8.500000e-07	1.247634e-07	-1.123221e-09	8.407167e-01	-7.433195e+01
8.600000e-07	1.808655e-07	-9.836452e-10	1.218761e+00	-6.524261e+01
8.700000e-07	2.369395e-07	-8.408412e-10	1.596614e+00	-5.610138e+01
8.800000e-07	2.929424e-07	-6.997555e-10	1.973989e+00	-4.690341e+01
8.900000e-07	3.488107e-07	-5.608842e-10	2.350458e+00	-3.764172e+01
9.000000e-07	4.045480e-07	-4.198028e-10	2.726042e+00	-2.830818e+01
9.100000e-07	4.600980e-07	-2.733976e-10	3.100366e+00	-1.889461e+01
9.200000e-07	5.154622e-07	-1.249481e-10	3.473437e+00	-9.394176e+00
9.300000e-07	5.706121e-07	2.227895e-11	3.845064e+00	1.974709e-01
9.400000e-07	6.255275e-07	1.699988e-10	4.215111e+00	9.881459e+00
9.500000e-07	6.802060e-07	3.205011e-10	4.583561e+00	1.965571e+01
9.600000e-07	7.346605e-07	4.726077e-10	4.950503e+00	2.951575e+01
9.700000e-07	7.889750e-07	6.225812e-10	5.316501e+00	3.945605e+01
9.800000e-07	8.430586e-07	7.719906e-10	5.680942e+00	4.947160e+01
9.900000e-07	8.968163e-07	9.248889e-10	6.043188e+00	5.955897e+01
1.000000e-06	9.502050e-07	1.082420e-09	6.402947e+00	6.971670e+01
1.010000e-06	1.003209e-06	1.241166e-09	6.760114e+00	7.994489e+01
1.020000e-06	1.055821e-06	1.399862e-09	7.114643e+00	9.024412e+01
1.030000e-06	1.108033e-06	1.558769e-09	7.466469e+00	1.006143e+02
1.040000e-06	1.159868e-06	1.717013e-09	7.815760e+00	1.110535e+02
1.050000e-06	1.211190e-06	1.875357e-09	8.161590e+00	1.215580e+02
1.060000e-06	1.261843e-06	2.034345e-09	8.502918e+00	1.321219e+02
1.070000e-06	1.311731e-06	2.195886e-09	8.839090e+00	1.427378e+02
1.080000e-06	1.360899e-06	2.361444e-09	9.170402e+00	1.533973e+02
1.090000e-06	1.409551e-06	2.528075e-09	9.498243e+00	1.640908e+02
1.100000e-06	1.457838e-06	2.693446e-09	9.823629e+00	1.748078e+02
1.110000e-06	1.505755e-06	2.859372e-09	1.014651e+01	1.855368e+02
1.120000e-06	1.553149e-06	3.025441e-09	1.046588e+01	1.962659e+02
1.130000e-06	1.599969e-06	3.188583e-09	1.078137e+01	2.069834e+02
1.140000e-06	1.646235e-06	3.348200e-09	1.109314e+01	2.176793e+02
1.150000e-06	1.691912e-06	3.508051e-09	1.140093e+01	2.283457e+02
1.160000e-06	1.737001e-06	3.671107e-09	1.170476e+01	2.389776e+02
1.170000e-06	1.781624e-06	3.834924e-09	1.200546e+01	2.495714e+02
1.180000e-06	1.825841e-06	3.996772e-09	1.230341e+01	2.601228e+02
1.190000e-06	1.869493e-06	4.156228e-09	1.259756e+01	2.706238e+02
1.200000e-06	1.912327e-06	4.315269e-09	1.288619e+01	2.810606e+02
1.210000e-06	1.954168e-06	4.474147e-09	1.316814e+01	2.914124e+02
1.220000e-06	1.995109e-06	4.630975e-09	1.344402e+01	3.016530e+02
1.230000e-06	2.035403e-06	4.783212e-09	1.371555e+01	3.117537e+02
1.240000e-06	2.075138e-06	4.931565e-09	1.398330e+01	3.216878e+02
1.250000e-06	2.114206e-06	5.078248e-09	1.424656e+01	3.314340e+02
1.260000e-06	2.152537e-06	5.222554e-09	1.450485e+01	3.409785e+02
1.270000e-06	2.190127e-06	5.364343e-09	1.475815e+01	3.503134e+02
1.280000e-06	2.227016e-06	5.503632e-09	1.500673e+01	3.594337e+02
1.290000e-06	2.263310e-06	5.639479e-09	1.525129e+01	3.683320e+02
1.300000e-06	2.298892e-06	5.771358e-09	1.549106e+01	3.769954e+02
1.310000e-06	2.333414e-06	5.897327e-09	1.572369e+01	3.854037e+02
1.320000e-06	2.366840e-06	6.016866e-09	1.594893e+01	3.935327e+02
1.330000e-06	2.399399e-06	6.131156e-09	1.616833e+01	4.013587e+02
1.340000e-06	2.431222e-06	6.241069e-09	1.638277e+01	4.088659e+02
1.350000e-06	2.462285e-06	6.348574e-09	1.659209e+01	4.160511e+02
1.360000e-06	2.492527e-06	6.453859e-09	1.679587e+01	4.229255e+02
1.370000e-06	2.521956e-06	6.555337e-09	1.699417e+01	4.295111e+02
1.380000e-06	2.550650e-06	6.652290e-09	1.718753e+01	4.358343e+02
1.390000e-06	2.578606e-06	6.744489e-09	1.737591e+01	4.419171e+02
1.400000e-06	2.605512e-06	6.832569e-09	1.755722e+01	4.477710e+02
1.410000e-06	2.631145e-06	6.915017e-09	1.772994e+01	4.533936e+02
1.420000e-06	2.655714e-06	6.992037e-09	1.789550e+01	4.587724e+02
1.430000e-06	2.679396e-06	7.066517e-09	1.805508e+01	4.638911e+02
1.440000e-06	2.702165e-06	7.139516e-09	1.820851e+01	4.687388e+02
1.450000e-06	2.723996e-06	7.209968e-09	1.835562e+01	4.733159e+02
1.460000e-06	2.744964e-06	7.276220e-09	1.849692e+01	4.776368e+02
1.470000e-06	2.765189e-06	7.337132e-09	1.863320e+01	4.817247e+02
1.480000e-06	2.784570e-06	7.393402e-09	1.876380e+01	4.856040e+02
1.490000e-06	2.802914e-06	7.447263e-09	1.888741e+01	4.892898e+02
1.500000e-06	2.820250e-06	7.497431e-09	1.900423e+01	4.927814e+02
1.510000e-06	2.836566e-06	7.542658e-09	1.911417e+01	4.960612e+02
1.520000e-06	2.851691e-06	7.584763e-09	1.921609e+01	4.991004e+02
1.530000e-06	2.865715e-06	7.625162e-09	1.931059e+01	5.018697e+02
1.540000e-06	2.878730e-06	7.663384e-09	1.939829e+01	5.043512e+02
1.550000e-06	2.890655e-06	7.697557e-09	1.947865e+01	5.065469e+02
1.560000e-06	2.901308e-06	7.727326e-09	1.955044e+01	5.084803e+02
1.570000e-06	2.910664e-06	7.753553e-09	1.961348e+01	5.101900e+02
1.580000e-06	2.918989e-06	7.775160e-09	1.966958e+01	5.117184e+02
1.590000e-06	2.926376e-06	7.792816e-09	1.971936e+01	5.130982e+02
1.600000e-06	2.932756e-06	7.808187e-09	1.976235e+01	5.143427e+02
1.610000e-06	2.938164e-06	7.822481e-09	1.979879e+01	5.154443e+02
1.620000e-06	2.942701e-06	7.836748e-09	1.982936e+01	5.163797e+02
1.630000e-06	2.946269e-06	7.849574e-09	1.985340e+01	5.171220e+02
1.640000e-06	2.948615e-06	7.859395e-09	1.986921e+01	5.176539e+02
1.650000e-06	2.949783e-06	7.865154e-09	1.987708e+01	5.179758e+02
1.660000e-06	2.949993e-06	7.866520e-09	1.987850e+01	5.181076e+02
1.670000e-06	2.949240e-06	7.865501e-09	1.987343e+01	5.180812e+02
1.680000e-06	2.947527e-06	7.862103e-09	1.986188e+01	5.179272e+02
1.690000e-06	2.944934e-06	7.856620e-09	1.984441e+01	5.176620e+02
1.700000e-06	2.941542e-06	7.851080e-09	1.982155e+01	5.172793e+02
1.710000e-06	2.937269e-06	7.845079e-09	1.979276e+01	5.167511e+02
1.720000e-06	2.931912e-06	7.837720e-09	1.975666e+01	5.160376e+02
1.730000e-06	2.925460e-06	7.830772e-09	1.971318e+01	5.151034e+02
1.740000e-06	2.918039e-06	7.815366e-09	1.966317e+01	5.139340e+02
1.750000e-06	2.909538e-06	7.763097e-09	1.960589e+01	5.125453e+02
1.760000e-06	2.899502e-06	7.709186e-09	1.953827e+01	5.109841e+02
1.770000e-06	2.887975e-06	7.720917e-09	1.946059e+01	5.093160e+02
1.780000e-06	2.875716e-06	7.757205e-09	1.937799e+01	5.076070e+02
1.790000e-06	2.863148e-06	7.699815e-09	1.929329e+01	5.059036e+02
1.800000e-06	2.849581e-06	7.602122e-09	1.920187e+01	5.042178e+02
1.810000e-06	2.834439e-06	7.627292e-09	1.909984e+01	5.025240e+02
1.820000e-06	2.818333e-06	7.657872e-09	1.899131e+01	5.007669e+02
1.830000e-06	2.801548e-06	7.563060e-09	1.887820e+01	4.988785e+02
1.840000e-06	2.783589e-06	7.531316e-09	1.875719e+01	4.967986e+02
1.850000e-06	2.764540e-06	7.553238e-09	1.862882e+01	4.944905e+02
1.860000e-06	2.744756e-06	7.456353e-09	1.849551e+01	4.919485e+02
1.870000e-06	2.723886e-06	7.412437e-09	1.835488e+01	4.891935e+02
1.880000e-06	2.701670e-06	7.455678e-09	1.820517e+01	4.862609e+02
1.890000e-06	2.678450e-06	7.362869e-09	1.804871e+01	4.831849e+02
1.900000e-06	2.654326e-06	7.281696e-09	1.788615e+01	4.799848e+02
1.910000e-06	2.629286e-06	7.313736e-09	1.771742e+01	4.766600e+02
1.920000e-06	2.603543e-06	7.229938e-09	1.754395e+01	4.731925e+02
1.930000e-06	2.577026e-06	7.121730e-09	1.736527e+01	4.695577e+02
1.940000e-06	2.549701e-06	7.108803e-09	1.718114e+01	4.657370e+02
1.950000e-06	2.521591e-06	7.043835e-09	1.699172e+01	4.617275e+02
1.960000e-06	2.492217e-06	6.982816e-09	1.679378e+01	4.575453e+02
1.970000e-06	2.461501e-06	6.938037e-09	1.658680e+01	4.532207e+02
1.980000e-06	2.429988e-06	6.817761e-09	1.637445e+01	4.487873e+02
1.990000e-06	2.397748e-06	6.769836e-09	1.615720e+01	4.442704e+02
2.000000e-06	2.364703e-06	6.741707e-09	1.593453e+01	4.396781e+02
2.010000e-06	2.330896e-06	6.613561e-09	1.570672e+01	4.349997e+02
2.020000e-06	2.296325e-06	6.546914e-09	1.547377e+01	4.302108e+02
2.030000e-06	2.261094e-06	6.496586e-09	1.523636e+01	4.252844e+02
2.040000e-06	2.225125e-06	6.391994e-09	1.499399e+01	4.202021e+02
2.050000e-06	2.188181e-06	6.338931e-09	1.474504e+01	4.149621e+02
2.060000e-06	2.150237e-06	6.259764e-09	1.448935e+01	4.095807e+02
2.070000e-06	2.111461e-06	6.143889e-09	1.422806e+01	4.040871e+02
2.080000e-06	2.071997e-06	6.079178e-09	1.396213e+01	3.985132e+02
2.090000e-06	2.031869e-06	5.998371e-09	1.369173e+01	3.928824e+02
2.100000e-06	1.991041e-06	5.900070e-09	1.341661e+01	3.872031e+02
2.110000e-06	1.949585e-06	5.816708e-09	1.313726e+01	3.814661e+02
2.120000e-06	1.907501e-06	5.727809e-09	1.285368e+01	3.756501e+02
2.130000e-06	1.864735e-06	5.649825e-09	1.256550e+01	3.697300e+02
2.140000e-06	1.821396e-06	5.555825e-09	1.227346e+01	3.636863e+02
2.150000e-06	1.777585e-06	5.445453e-09	1.197824e+01	3.575117e+02
2.160000e-06	1.733245e-06	5.349778e-09	1.167945e+01	3.512121e+02
2.170000e-06	1.688253e-06	5.260659e-09	1.137628e+01	3.448032e+02
2.180000e-06	1.642556e-06	5.172365e-09	1.106835e+01	3.383033e+02
2.190000e-06	1.596327e-06	5.067732e-09	1.075683e+01	3.317259e+02
2.200000e-06	1.549694e-06	4.958233e-09	1.044260e+01	3.250748e+02
2.210000e-06	1.502521e-06	4.856593e-09	1.012472e+01	3.183441e+02
2.220000e-06	1.454625e-06	4.750088e-09	9.801977e+00	3.115216e+02
2.230000e-06	1.406001e-06	4.646254e-09	9.474327e+00	3.045944e+02
2.240000e-06	1.356842e-06	4.538856e-09	9.143064e+00	2.975548e+02
2.250000e-06	1.307289e-06	4.430958e-09	8.809154e+00	2.904033e+02
2.260000e-06	1.257294e-06	4.332252e-09	8.472263e+00	2.831482e+02
2.270000e-06	1.206768e-06	4.218418e-09	8.131791e+00	2.758016e+02
2.280000e-06	1.155753e-06	4.094229e-09	7.788029e+00	2.683748e+02
2.290000e-06	1.104329e-06	3.976075e-09	7.441507e+00	2.608737e+02
2.300000e-06	1.052510e-06	3.863444e-09	7.092326e+00	2.532971e+02
2.310000e-06	1.000177e-06	3.753044e-09	6.739686e+00	2.456383e+02
2.320000e-06	9.472680e-07	3.633769e-09	6.383156e+00	2.378891e+02
2.330000e-06	8.937978e-07	3.514638e-09	6.022848e+00	2.300443e+02
2.340000e-06	8.397992e-07	3.399490e-09	5.658979e+00	2.221059e+02
2.350000e-06	7.853321e-07	3.277692e-09	5.291953e+00	2.140832e+02
2.360000e-06	7.304864e-07	3.151570e-09	4.922376e+00	2.059916e+02
2.370000e-06	6.754358e-07	3.023985e-09	4.551417e+00	1.978478e+02
2.380000e-06	6.202557e-07	2.901957e-09	4.179587e+00	1.896647e+02
2.390000e-06	5.649512e-07	2.783142e-09	3.806918e+00	1.814482e+02
2.400000e-06	5.095502e-07	2.657895e-09	3.433599e+00	1.731951e+02
2.410000e-06	4.540661e-07	2.528694e-09	3.059720e+00	1.648948e+02
2.420000e-06	3.984965e-07	2.400160e-09	2.685265e+00	1.565326e+02
2.430000e-06	3.428014e-07	2.274798e-09	2.309964e+00	1.480939e+02
2.440000e-06	2.870239e-07	2.148030e-09	1.934108e+00	1.395680e+02
2.450000e-06	2.311354e-07	2.015267e-09	1.557504e+00	1.309504e+02
2.460000e-06	1.751130e-07	1.881178e-09	1.179997e+00	1.222430e+02
2.470000e-06	1.190901e-07	1.747961e-09	8.024873e-01	1.134524e+02
2.480000e-06	6.305569e-08	1.613788e-09	4.249002e-01	1.045883e+02
2.490000e-06	6.988192e-09	1.477622e-09	4.708987e-02	9.566013e+01
2.500000e-06	-4.906766e-08	1.340090e-09	-3.306420e-01	8.667577e+01
2.510000e-06	-1.050975e-07	1.204339e-09	-7.081987e-01	7.764009e+01
2.520000e-06	-1.610583e-07	1.069069e-09	-1.085290e+00	6.855457e+01
2.530000e-06	-2.169389e-07	9.304033e-10	-1.461841e+00	5.941740e+01
2.540000e-06	-2.727388e-07	7.861896e-10	-1.837848e+00	5.022392e+01
2.550000e-06	-3.284404e-07	6.407023e-10	-2.213192e+00	4.096727e+01
2.560000e-06	-3.840367e-07	5.000682e-10	-2.587827e+00	3.163936e+01
2.570000e-06	-4.395659e-07	3.605511e-10	-2.962011e+00	2.223198e+01
2.580000e-06	-4.950236e-07	2.171037e-10	-3.335711e+00	1.273816e+01
2.590000e-06	-5.503770e-07	7.052675e-11	-3.708710e+00	3.153326e+00
2.600000e-06	-6.056199e-07	-7.539263e-11	-4.080964e+00	-6.523876e+00
2.610000e-06	-6.607340e-07	-2.212115e-10	-4.452350e+00	-1.629158e+01
2.620000e-06	-7.156797e-07	-3.715572e-10	-4.822601e+00	-2.614545e+01
2.630000e-06	-7.703879e-07	-5.257816e-10	-5.191252e+00	-3.607998e+01
2.640000e-06	-8.247554e-07	-6.803145e-10	-5.557606e+00	-4.609007e+01
2.650000e-06	-8.785781e-07	-8.336449e-10	-5.920290e+00	-5.617215e+01
2.660000e-06	-9.318079e-07	-9.882973e-10	-6.278978e+00	-6.632464e+01
2.670000e-06	-9.845312e-07	-1.145108e-09	-6.634254e+00	-7.654755e+01
2.680000e-06	-1.036716e-06	-1.301210e-09	-6.985900e+00	-8.684148e+01
2.690000e-06	-1.088439e-06	-1.456083e-09	-7.334437e+00	-9.720636e+01
2.700000e-06	-1.139815e-06	-1.613625e-09	-7.680630e+00	-1.076405e+02
2.710000e-06	-1.190814e-06	-1.775708e-09	-8.024287e+00	-1.181403e+02
2.720000e-06	-1.241390e-06	-1.939777e-09	-8.365095e+00	-1.287000e+02
2.730000e-06	-1.291513e-06	-2.102303e-09	-8.702846e+00	-1.393123e+02
2.740000e-06	-1.341126e-06	-2.263779e-09	-9.037167e+00	-1.499687e+02
2.750000e-06	-1.390182e-06	-2.425559e-09	-9.367727e+00	-1.606599e+02
2.760000e-06	-1.438572e-06	-2.586610e-09	-9.693803e+00	-1.713753e+02
2.770000e-06	-1.486109e-06	-2.746654e-09	-1.001413e+01	-1.821037e+02
2.780000e-06	-1.532875e-06	-2.907324e-09	-1.032926e+01	-1.928329e+02
2.790000e-06	-1.579052e-06	-3.069933e-09	-1.064043e+01	-2.035514e+02
2.800000e-06	-1.624776e-06	-3.235525e-09	-1.094854e+01	-2.142489e+02
2.810000e-06	-1.670153e-06	-3.401719e-09	-1.125431e+01	-2.249174e+02
2.820000e-06	-1.715016e-06	-3.563776e-09	-1.155662e+01	-2.355516e+02
2.830000e-06	-1.759233e-06	-3.723907e-09	-1.185458e+01	-2.461481e+02
2.840000e-06	-1.802913e-06	-3.885013e-09	-1.214891e+01	-2.567025e+02
2.850000e-06	-1.846155e-06	-4.045814e-09	-1.244030e+01	-2.672072e+02
2.860000e-06	-1.888874e-06	-4.204199e-09	-1.272816e+01	-2.776490e+02
2.870000e-06	-1.930974e-06	-4.361193e-09	-1.301185e+01	-2.880075e+02
2.880000e-06	-1.972462e-06	-4.519175e-09	-1.329142e+01	-2.982567e+02
2.890000e-06	-2.013271e-06	-4.675907e-09	-1.356641e+01	-3.083681e+02
2.900000e-06	-2.053376e-06	-4.828763e-09	-1.383665e+01	-3.183147e+02
2.910000e-06	-2.092894e-06	-4.977237e-09	-1.410294e+01	-3.280747e+02
2.920000e-06	-2.131797e-06	-5.122643e-09	-1.436509e+01	-3.376336e+02
2.930000e-06	-2.169828e-06	-5.267316e-09	-1.462137e+01	-3.469835e+02
2.940000e-06	-2.206826e-06	-5.409783e-09	-1.487068e+01	-3.561191e+02
