# Temperatura_=_26.38
# Concentracion g/m^3_=_18700.0
# C_Vs_to_Am_M_A/Vsm_=_65563218390.804596
# pendiente_HvsI_1/m_=_3716.3
# ordenada_HvsI_A/m_=_1297.0
# frecuencia_Hz_=_301075.1965733253

Tiempo_(s)	Campo_(V.s)	Magnetizacion_(V.s)	Campo_(kA/m)	Magnetizacion_(A/m)
0.000000e+00	-2.932774e-06	-7.815660e-09	-1.977159e+01	-5.103357e+02
1.000000e-08	-2.931663e-06	-7.817987e-09	-1.976410e+01	-5.101731e+02
2.000000e-08	-2.929444e-06	-7.815285e-09	-1.974914e+01	-5.099065e+02
3.000000e-08	-2.925952e-06	-7.810770e-09	-1.972560e+01	-5.095386e+02
4.000000e-08	-2.921570e-06	-7.803539e-09	-1.969606e+01	-5.090459e+02
5.000000e-08	-2.916430e-06	-7.787914e-09	-1.966141e+01	-5.083872e+02
6.000000e-08	-2.910343e-06	-7.752431e-09	-1.962037e+01	-5.075197e+02
7.000000e-08	-2.903226e-06	-7.705089e-09	-1.957239e+01	-5.064179e+02
8.000000e-08	-2.895053e-06	-7.763369e-09	-1.951729e+01	-5.050866e+02
9.000000e-08	-2.885529e-06	-7.851230e-09	-1.945308e+01	-5.035653e+02
1.000000e-07	-2.874389e-06	-7.784073e-09	-1.937798e+01	-5.019195e+02
1.100000e-07	-2.862209e-06	-7.483382e-09	-1.929587e+01	-5.002239e+02
1.200000e-07	-2.849417e-06	-7.512274e-09	-1.920963e+01	-4.985406e+02
1.300000e-07	-2.835681e-06	-7.822231e-09	-1.911703e+01	-4.969002e+02
1.400000e-07	-2.820687e-06	-7.614900e-09	-1.901594e+01	-4.952926e+02
1.500000e-07	-2.804493e-06	-7.332683e-09	-1.890677e+01	-4.936691e+02
1.600000e-07	-2.787136e-06	-7.611546e-09	-1.878976e+01	-4.919554e+02
1.700000e-07	-2.768677e-06	-7.689139e-09	-1.866531e+01	-4.900721e+02
1.800000e-07	-2.749441e-06	-7.278301e-09	-1.853563e+01	-4.879551e+02
1.900000e-07	-2.729552e-06	-7.403814e-09	-1.840155e+01	-4.855707e+02
2.000000e-07	-2.708715e-06	-7.558154e-09	-1.826107e+01	-4.829200e+02
2.100000e-07	-2.686916e-06	-7.148858e-09	-1.811411e+01	-4.800340e+02
2.200000e-07	-2.664360e-06	-7.192840e-09	-1.796205e+01	-4.769593e+02
2.300000e-07	-2.640850e-06	-7.462042e-09	-1.780356e+01	-4.737422e+02
2.400000e-07	-2.616467e-06	-7.136754e-09	-1.763918e+01	-4.704140e+02
2.500000e-07	-2.591305e-06	-6.990288e-09	-1.746955e+01	-4.669833e+02
2.600000e-07	-2.564874e-06	-7.127037e-09	-1.729135e+01	-4.634378e+02
2.700000e-07	-2.537187e-06	-7.010773e-09	-1.710470e+01	-4.597513e+02
2.800000e-07	-2.508785e-06	-6.933438e-09	-1.691323e+01	-4.558964e+02
2.900000e-07	-2.479570e-06	-6.886892e-09	-1.671627e+01	-4.518555e+02
3.000000e-07	-2.449443e-06	-6.780334e-09	-1.651317e+01	-4.476277e+02
3.100000e-07	-2.418584e-06	-6.800418e-09	-1.630513e+01	-4.432292e+02
3.200000e-07	-2.386906e-06	-6.735429e-09	-1.609157e+01	-4.386878e+02
3.300000e-07	-2.354545e-06	-6.534214e-09	-1.587340e+01	-4.340333e+02
3.400000e-07	-2.321554e-06	-6.547308e-09	-1.565099e+01	-4.292879e+02
3.500000e-07	-2.287558e-06	-6.487603e-09	-1.542180e+01	-4.244606e+02
3.600000e-07	-2.252288e-06	-6.361348e-09	-1.518402e+01	-4.195453e+02
3.700000e-07	-2.216077e-06	-6.379998e-09	-1.493990e+01	-4.145255e+02
3.800000e-07	-2.179259e-06	-6.244254e-09	-1.469169e+01	-4.093818e+02
3.900000e-07	-2.141752e-06	-6.093847e-09	-1.443884e+01	-4.041004e+02
4.000000e-07	-2.103509e-06	-6.107183e-09	-1.418102e+01	-3.986788e+02
4.100000e-07	-2.064483e-06	-6.034082e-09	-1.391792e+01	-3.931270e+02
4.200000e-07	-2.024710e-06	-5.864242e-09	-1.364979e+01	-3.874645e+02
4.300000e-07	-1.984408e-06	-5.806000e-09	-1.337808e+01	-3.817129e+02
4.400000e-07	-1.943637e-06	-5.748078e-09	-1.310323e+01	-3.758888e+02
4.500000e-07	-1.902108e-06	-5.654308e-09	-1.282325e+01	-3.699977e+02
4.600000e-07	-1.859571e-06	-5.548010e-09	-1.253648e+01	-3.640330e+02
4.700000e-07	-1.816059e-06	-5.434738e-09	-1.224315e+01	-3.579791e+02
4.800000e-07	-1.771844e-06	-5.346417e-09	-1.194506e+01	-3.518180e+02
4.900000e-07	-1.727151e-06	-5.277722e-09	-1.164376e+01	-3.455367e+02
5.000000e-07	-1.681906e-06	-5.189258e-09	-1.133874e+01	-3.391332e+02
5.100000e-07	-1.636071e-06	-5.053722e-09	-1.102974e+01	-3.326174e+02
5.200000e-07	-1.589715e-06	-4.952951e-09	-1.071722e+01	-3.260082e+02
5.300000e-07	-1.542820e-06	-4.862415e-09	-1.040108e+01	-3.193266e+02
5.400000e-07	-1.495333e-06	-4.768166e-09	-1.008094e+01	-3.125873e+02
5.500000e-07	-1.447303e-06	-4.655161e-09	-9.757136e+00	-3.057935e+02
5.600000e-07	-1.398845e-06	-4.537449e-09	-9.430454e+00	-2.989344e+02
5.700000e-07	-1.349978e-06	-4.442615e-09	-9.101011e+00	-2.919893e+02
5.800000e-07	-1.300479e-06	-4.355178e-09	-8.767308e+00	-2.849351e+02
5.900000e-07	-1.250086e-06	-4.236698e-09	-8.427580e+00	-2.777546e+02
6.000000e-07	-1.198921e-06	-4.100512e-09	-8.082649e+00	-2.704438e+02
6.100000e-07	-1.147211e-06	-3.996335e-09	-7.734036e+00	-2.630141e+02
6.200000e-07	-1.095047e-06	-3.894082e-09	-7.382371e+00	-2.554888e+02
6.300000e-07	-1.042581e-06	-3.781256e-09	-7.028666e+00	-2.478955e+02
6.400000e-07	-9.898247e-07	-3.648860e-09	-6.673003e+00	-2.402567e+02
6.500000e-07	-9.366551e-07	-3.528228e-09	-6.314555e+00	-2.325826e+02
6.600000e-07	-8.830716e-07	-3.423516e-09	-5.953316e+00	-2.248677e+02
6.700000e-07	-8.291922e-07	-3.312761e-09	-5.590083e+00	-2.170949e+02
6.800000e-07	-7.750782e-07	-3.184393e-09	-5.225268e+00	-2.092426e+02
6.900000e-07	-7.207371e-07	-3.048003e-09	-4.858921e+00	-2.012948e+02
7.000000e-07	-6.662323e-07	-2.931618e-09	-4.491472e+00	-1.932486e+02
7.100000e-07	-6.115247e-07	-2.814491e-09	-4.122655e+00	-1.851162e+02
7.200000e-07	-5.566114e-07	-2.686094e-09	-3.752452e+00	-1.769214e+02
7.300000e-07	-5.014995e-07	-2.549233e-09	-3.380909e+00	-1.686906e+02
7.400000e-07	-4.460730e-07	-2.426586e-09	-3.007246e+00	-1.604421e+02
7.500000e-07	-3.904427e-07	-2.312566e-09	-2.632209e+00	-1.521782e+02
7.600000e-07	-3.346970e-07	-2.188669e-09	-2.256393e+00	-1.438829e+02
7.700000e-07	-2.787881e-07	-2.048809e-09	-1.879478e+00	-1.355270e+02
7.800000e-07	-2.227844e-07	-1.909544e-09	-1.501923e+00	-1.270781e+02
7.900000e-07	-1.667614e-07	-1.785631e-09	-1.124239e+00	-1.185126e+02
8.000000e-07	-1.107106e-07	-1.659195e-09	-7.463664e-01	-1.098255e+02
8.100000e-07	-5.461212e-08	-1.525077e-09	-3.681731e-01	-1.010326e+02
8.200000e-07	1.501126e-09	-1.384125e-09	1.011999e-02	-9.216570e+01
8.300000e-07	5.760645e-08	-1.250947e-09	3.883597e-01	-8.326106e+01
8.400000e-07	1.136894e-07	-1.119037e-09	7.664488e-01	-7.434603e+01
8.500000e-07	1.697383e-07	-9.790576e-10	1.144308e+00	-6.542834e+01
8.600000e-07	2.257599e-07	-8.327286e-10	1.521983e+00	-5.649239e+01
8.700000e-07	2.817449e-07	-6.938486e-10	1.899412e+00	-4.750409e+01
8.800000e-07	3.376223e-07	-5.648207e-10	2.276115e+00	-3.842245e+01
8.900000e-07	3.933417e-07	-4.278332e-10	2.651752e+00	-2.921388e+01
9.000000e-07	4.488950e-07	-2.820119e-10	3.026271e+00	-1.986390e+01
9.100000e-07	5.042159e-07	-1.326671e-10	3.399222e+00	-1.038172e+01
9.200000e-07	5.593026e-07	1.116126e-11	3.770595e+00	-7.962720e-01
9.300000e-07	6.142338e-07	1.571524e-10	4.140919e+00	8.855015e+00
9.400000e-07	6.689902e-07	3.069164e-10	4.510065e+00	1.854034e+01
9.500000e-07	7.235351e-07	4.579798e-10	4.877785e+00	2.824521e+01
9.600000e-07	7.778732e-07	6.054886e-10	5.244111e+00	3.797737e+01
9.700000e-07	8.319832e-07	7.496677e-10	5.608899e+00	4.776308e+01
9.800000e-07	8.858060e-07	8.993708e-10	5.971751e+00	5.763652e+01
9.900000e-07	9.392681e-07	1.054060e-09	6.332170e+00	6.762619e+01
1.000000e-06	9.923341e-07	1.210215e-09	6.689920e+00	7.774387e+01
1.010000e-06	1.045017e-06	1.363433e-09	7.045085e+00	8.798003e+01
1.020000e-06	1.097357e-06	1.520673e-09	7.397942e+00	9.830753e+01
1.030000e-06	1.149324e-06	1.680506e-09	7.748285e+00	1.086918e+02
1.040000e-06	1.200743e-06	1.839991e-09	8.094928e+00	1.191033e+02
1.050000e-06	1.251398e-06	1.996700e-09	8.436428e+00	1.295276e+02
1.060000e-06	1.301270e-06	2.154575e-09	8.772642e+00	1.399683e+02
1.070000e-06	1.350482e-06	2.315931e-09	9.104413e+00	1.504430e+02
1.080000e-06	1.399210e-06	2.477606e-09	9.432916e+00	1.609726e+02
1.090000e-06	1.447600e-06	2.639066e-09	9.759144e+00	1.715697e+02
1.100000e-06	1.495603e-06	2.800612e-09	1.008276e+01	1.822302e+02
1.110000e-06	1.543054e-06	2.965880e-09	1.040265e+01	1.929308e+02
1.120000e-06	1.589939e-06	3.132119e-09	1.071873e+01	2.036357e+02
1.130000e-06	1.636301e-06	3.294855e-09	1.103129e+01	2.143065e+02
1.140000e-06	1.682057e-06	3.453759e-09	1.133976e+01	2.249144e+02
1.150000e-06	1.727199e-06	3.613535e-09	1.164409e+01	2.354473e+02
1.160000e-06	1.771866e-06	3.773995e-09	1.194522e+01	2.459107e+02
1.170000e-06	1.816190e-06	3.933050e-09	1.224403e+01	2.563202e+02
1.180000e-06	1.860040e-06	4.091285e-09	1.253964e+01	2.666903e+02
1.190000e-06	1.903055e-06	4.249596e-09	1.282963e+01	2.770230e+02
1.200000e-06	1.944993e-06	4.408951e-09	1.311236e+01	2.873013e+02
1.210000e-06	1.985989e-06	4.565854e-09	1.338874e+01	2.974900e+02
1.220000e-06	2.026405e-06	4.717814e-09	1.366122e+01	3.075437e+02
1.230000e-06	2.066260e-06	4.864311e-09	1.392990e+01	3.174189e+02
1.240000e-06	2.105395e-06	5.008710e-09	1.419373e+01	3.270852e+02
1.250000e-06	2.143851e-06	5.153075e-09	1.445299e+01	3.365306e+02
1.260000e-06	2.181541e-06	5.293795e-09	1.470708e+01	3.457600e+02
1.270000e-06	2.218447e-06	5.431126e-09	1.495588e+01	3.547856e+02
1.280000e-06	2.254840e-06	5.565756e-09	1.520123e+01	3.636149e+02
1.290000e-06	2.290654e-06	5.698767e-09	1.544267e+01	3.722410e+02
1.300000e-06	2.325434e-06	5.824858e-09	1.567714e+01	3.806378e+02
1.310000e-06	2.359010e-06	5.943483e-09	1.590351e+01	3.887658e+02
1.320000e-06	2.391652e-06	6.057976e-09	1.612356e+01	3.965825e+02
1.330000e-06	2.423594e-06	6.170291e-09	1.633890e+01	4.040570e+02
1.340000e-06	2.454750e-06	6.279010e-09	1.654894e+01	4.111812e+02
1.350000e-06	2.485083e-06	6.381501e-09	1.675344e+01	4.179729e+02
1.360000e-06	2.514600e-06	6.479260e-09	1.695243e+01	4.244707e+02
1.370000e-06	2.543330e-06	6.573959e-09	1.714611e+01	4.307207e+02
1.380000e-06	2.571452e-06	6.666619e-09	1.733570e+01	4.367612e+02
1.390000e-06	2.598662e-06	6.755186e-09	1.751914e+01	4.426100e+02
1.400000e-06	2.624522e-06	6.838478e-09	1.769348e+01	4.482598e+02
1.410000e-06	2.649269e-06	6.916541e-09	1.786031e+01	4.536836e+02
1.420000e-06	2.673113e-06	6.992451e-09	1.802106e+01	4.588466e+02
1.430000e-06	2.696012e-06	7.065491e-09	1.817544e+01	4.637216e+02
1.440000e-06	2.717991e-06	7.133701e-09	1.832361e+01	4.683007e+02
1.450000e-06	2.739074e-06	7.198165e-09	1.846574e+01	4.725988e+02
1.460000e-06	2.759447e-06	7.260377e-09	1.860309e+01	4.766480e+02
1.470000e-06	2.779047e-06	7.319899e-09	1.873523e+01	4.804849e+02
1.480000e-06	2.797613e-06	7.373903e-09	1.886039e+01	4.841355e+02
1.490000e-06	2.815193e-06	7.422101e-09	1.897891e+01	4.876044e+02
1.500000e-06	2.831691e-06	7.466854e-09	1.909013e+01	4.908726e+02
1.510000e-06	2.846940e-06	7.510232e-09	1.919293e+01	4.939041e+02
1.520000e-06	2.861140e-06	7.549568e-09	1.928866e+01	4.966607e+02
1.530000e-06	2.874375e-06	7.583690e-09	1.937789e+01	4.991181e+02
1.540000e-06	2.886577e-06	7.614544e-09	1.946015e+01	5.012769e+02
1.550000e-06	2.897584e-06	7.643560e-09	1.953436e+01	5.031657e+02
1.560000e-06	2.907233e-06	7.669745e-09	1.959940e+01	5.048333e+02
1.570000e-06	2.915798e-06	7.691672e-09	1.965714e+01	5.063338e+02
1.580000e-06	2.923445e-06	7.711289e-09	1.970870e+01	5.077090e+02
1.590000e-06	2.930076e-06	7.729364e-09	1.975340e+01	5.089766e+02
1.600000e-06	2.935689e-06	7.745161e-09	1.979124e+01	5.101259e+02
1.610000e-06	2.940423e-06	7.758731e-09	1.982316e+01	5.111248e+02
1.620000e-06	2.944295e-06	7.770908e-09	1.984926e+01	5.119342e+02
1.630000e-06	2.946958e-06	7.781627e-09	1.986721e+01	5.125242e+02
1.640000e-06	2.948316e-06	7.789462e-09	1.987637e+01	5.128870e+02
1.650000e-06	2.948632e-06	7.793868e-09	1.987850e+01	5.130399e+02
1.660000e-06	2.948008e-06	7.793880e-09	1.987429e+01	5.130187e+02
1.670000e-06	2.946475e-06	7.788204e-09	1.986396e+01	5.128639e+02
1.680000e-06	2.944047e-06	7.784039e-09	1.984759e+01	5.126038e+02
1.690000e-06	2.940813e-06	7.779313e-09	1.982578e+01	5.122431e+02
1.700000e-06	2.936833e-06	7.771003e-09	1.979895e+01	5.117601e+02
1.710000e-06	2.931737e-06	7.765934e-09	1.976460e+01	5.111142e+02
1.720000e-06	2.925335e-06	7.788824e-09	1.972144e+01	5.102623e+02
1.730000e-06	2.918001e-06	7.783712e-09	1.967199e+01	5.091770e+02
1.740000e-06	2.909793e-06	7.627601e-09	1.961666e+01	5.078607e+02
1.750000e-06	2.900134e-06	7.524322e-09	1.955155e+01	5.063505e+02
1.760000e-06	2.888749e-06	7.725833e-09	1.947479e+01	5.047106e+02
1.770000e-06	2.876487e-06	7.839623e-09	1.939213e+01	5.030157e+02
1.780000e-06	2.864313e-06	7.585233e-09	1.931006e+01	5.013295e+02
1.790000e-06	2.851233e-06	7.374728e-09	1.922188e+01	4.996854e+02
1.800000e-06	2.836157e-06	7.710644e-09	1.912024e+01	4.980762e+02
1.810000e-06	2.820061e-06	7.662946e-09	1.901172e+01	4.964556e+02
1.820000e-06	2.803591e-06	7.251892e-09	1.890069e+01	4.947505e+02
1.830000e-06	2.785882e-06	7.524835e-09	1.878130e+01	4.928812e+02
1.840000e-06	2.766874e-06	7.678444e-09	1.865316e+01	4.907820e+02
1.850000e-06	2.747355e-06	7.223259e-09	1.852157e+01	4.884165e+02
1.860000e-06	2.726827e-06	7.312724e-09	1.838318e+01	4.857836e+02
1.870000e-06	2.704713e-06	7.629173e-09	1.823410e+01	4.829124e+02
1.880000e-06	2.681636e-06	7.186574e-09	1.807852e+01	4.798491e+02
1.890000e-06	2.657721e-06	7.066982e-09	1.791729e+01	4.766404e+02
1.900000e-06	2.632767e-06	7.401772e-09	1.774906e+01	4.733190e+02
1.910000e-06	2.607177e-06	7.188534e-09	1.757655e+01	4.698954e+02
1.920000e-06	2.580823e-06	7.006710e-09	1.739888e+01	4.663583e+02
1.930000e-06	2.553578e-06	7.127884e-09	1.721521e+01	4.626823e+02
1.940000e-06	2.525739e-06	6.952647e-09	1.702753e+01	4.588397e+02
1.950000e-06	2.496715e-06	6.967057e-09	1.683185e+01	4.548118e+02
1.960000e-06	2.466176e-06	6.921589e-09	1.662597e+01	4.505965e+02
1.970000e-06	2.434801e-06	6.662238e-09	1.641446e+01	4.462089e+02
1.980000e-06	2.402719e-06	6.789799e-09	1.619817e+01	4.416762e+02
1.990000e-06	2.369833e-06	6.747567e-09	1.597647e+01	4.370284e+02
2.000000e-06	2.336248e-06	6.486987e-09	1.575005e+01	4.322886e+02
2.010000e-06	2.301788e-06	6.577173e-09	1.551773e+01	4.274666e+02
2.020000e-06	2.266603e-06	6.458942e-09	1.528053e+01	4.225576e+02
2.030000e-06	2.230886e-06	6.260532e-09	1.503974e+01	4.175454e+02
2.040000e-06	2.194211e-06	6.376759e-09	1.479250e+01	4.124106e+02
2.050000e-06	2.156434e-06	6.225523e-09	1.453782e+01	4.071388e+02
2.060000e-06	2.117729e-06	6.054336e-09	1.427688e+01	4.017264e+02
2.070000e-06	2.078326e-06	6.076841e-09	1.401124e+01	3.961829e+02
2.080000e-06	2.038386e-06	5.960915e-09	1.374199e+01	3.905270e+02
2.090000e-06	1.997721e-06	5.868807e-09	1.346784e+01	3.847807e+02
2.100000e-06	1.956360e-06	5.777022e-09	1.318900e+01	3.789609e+02
2.110000e-06	1.914398e-06	5.664345e-09	1.290610e+01	3.730742e+02
2.120000e-06	1.871734e-06	5.632506e-09	1.261848e+01	3.671147e+02
2.130000e-06	1.828542e-06	5.525016e-09	1.232730e+01	3.610673e+02
2.140000e-06	1.784918e-06	5.400998e-09	1.203320e+01	3.549138e+02
2.150000e-06	1.740728e-06	5.311754e-09	1.173530e+01	3.486409e+02
2.160000e-06	1.695893e-06	5.210176e-09	1.143304e+01	3.422453e+02
2.170000e-06	1.650351e-06	5.143168e-09	1.112601e+01	3.357365e+02
2.180000e-06	1.604247e-06	5.028343e-09	1.081519e+01	3.291328e+02
2.190000e-06	1.557681e-06	4.916507e-09	1.050126e+01	3.224552e+02
2.200000e-06	1.510649e-06	4.826799e-09	1.018419e+01	3.157193e+02
2.210000e-06	1.462945e-06	4.710937e-09	9.862592e+00	3.089291e+02
2.220000e-06	1.414406e-06	4.627392e-09	9.535358e+00	3.020747e+02
2.230000e-06	1.365282e-06	4.494543e-09	9.204183e+00	2.951361e+02
2.240000e-06	1.315772e-06	4.378485e-09	8.870409e+00	2.880899e+02
2.250000e-06	1.265886e-06	4.309684e-09	8.534099e+00	2.809182e+02
2.260000e-06	1.215497e-06	4.188776e-09	8.194395e+00	2.736160e+02
2.270000e-06	1.164560e-06	4.063539e-09	7.850999e+00	2.661936e+02
2.280000e-06	1.113285e-06	3.942119e-09	7.505322e+00	2.586737e+02
2.290000e-06	1.061733e-06	3.830523e-09	7.157778e+00	2.510839e+02
2.300000e-06	1.009708e-06	3.733797e-09	6.807047e+00	2.434474e+02
2.310000e-06	9.570381e-07	3.606256e-09	6.451969e+00	2.357752e+02
2.320000e-06	9.037397e-07	3.479929e-09	6.092652e+00	2.280633e+02
2.330000e-06	8.499147e-07	3.366294e-09	5.729785e+00	2.202948e+02
2.340000e-06	7.956357e-07	3.247525e-09	5.363858e+00	2.124483e+02
2.350000e-06	7.409717e-07	3.131183e-09	4.995335e+00	2.045072e+02
2.360000e-06	6.860206e-07	2.998510e-09	4.624877e+00	1.964672e+02
2.370000e-06	6.308550e-07	2.881966e-09	4.252973e+00	1.883397e+02
2.380000e-06	5.755413e-07	2.771406e-09	3.880069e+00	1.801480e+02
2.390000e-06	5.201611e-07	2.643174e-09	3.506718e+00	1.719185e+02
2.400000e-06	4.647129e-07	2.513124e-09	3.132909e+00	1.636705e+02
2.410000e-06	4.091652e-07	2.374398e-09	2.758429e+00	1.554075e+02
2.420000e-06	3.535097e-07	2.250072e-09	2.383221e+00	1.471149e+02
2.430000e-06	2.977592e-07	2.130653e-09	2.007374e+00	1.387639e+02
2.440000e-06	2.419412e-07	2.002122e-09	1.631071e+00	1.303220e+02
2.450000e-06	1.859993e-07	1.873249e-09	1.253933e+00	1.217648e+02
2.460000e-06	1.299890e-07	1.742690e-09	8.763343e-01	1.130856e+02
2.470000e-06	7.400122e-08	1.613914e-09	4.988867e-01	1.042988e+02
2.480000e-06	1.801474e-08	1.477638e-09	1.214482e-01	9.543549e+01
2.490000e-06	-3.799263e-08	1.331654e-09	-2.561311e-01	8.653195e+01
2.500000e-06	-9.401435e-08	1.192836e-09	-6.338072e-01	7.761663e+01
2.510000e-06	-1.499798e-07	1.063320e-09	-1.011104e+00	6.869887e+01
2.520000e-06	-2.058809e-07	9.306511e-10	-1.387967e+00	5.976469e+01
2.530000e-06	-2.616935e-07	7.914153e-10	-1.764233e+00	5.078099e+01
2.540000e-06	-3.173877e-07	6.496726e-10	-2.139701e+00	4.170679e+01
2.550000e-06	-3.729788e-07	5.149987e-10	-2.514474e+00	3.250754e+01
2.560000e-06	-4.285022e-07	3.772147e-10	-2.888791e+00	2.316712e+01
2.570000e-06	-4.839555e-07	2.292224e-10	-3.262635e+00	1.369311e+01
2.580000e-06	-5.393122e-07	7.925178e-11	-3.635827e+00	4.113313e+00
2.590000e-06	-5.945832e-07	-7.070539e-11	-4.008443e+00	-5.534973e+00
2.600000e-06	-6.497218e-07	-2.176731e-10	-4.380165e+00	-1.521910e+01
2.610000e-06	-7.047136e-07	-3.651731e-10	-4.750897e+00	-2.492309e+01
2.620000e-06	-7.594470e-07	-5.122966e-10	-5.119889e+00	-3.465310e+01
2.630000e-06	-8.137979e-07	-6.591950e-10	-5.486300e+00	-4.443437e+01
2.640000e-06	-8.677467e-07	-8.057737e-10	-5.850002e+00	-5.430096e+01
2.650000e-06	-9.211061e-07	-9.581894e-10	-6.209729e+00	-6.428220e+01
2.660000e-06	-9.737957e-07	-1.118756e-09	-6.564942e+00	-7.439131e+01
2.670000e-06	-1.025954e-06	-1.279783e-09	-6.916570e+00	-8.462024e+01
2.680000e-06	-1.077666e-06	-1.436318e-09	-7.265194e+00	-9.494285e+01
2.690000e-06	-1.129027e-06	-1.591035e-09	-7.611452e+00	-1.053247e+02
2.700000e-06	-1.180111e-06	-1.749693e-09	-7.955836e+00	-1.157354e+02
2.710000e-06	-1.230804e-06	-1.909186e-09	-8.297589e+00	-1.261594e+02
2.720000e-06	-1.280956e-06	-2.067474e-09	-8.635695e+00	-1.365990e+02
2.730000e-06	-1.330592e-06	-2.224892e-09	-8.970320e+00	-1.470710e+02
2.740000e-06	-1.379796e-06	-2.386414e-09	-9.302031e+00	-1.575966e+02
2.750000e-06	-1.428353e-06	-2.550693e-09	-9.629387e+00	-1.681894e+02
2.760000e-06	-1.476032e-06	-2.713671e-09	-9.950818e+00	-1.788463e+02
2.770000e-06	-1.522887e-06	-2.875406e-09	-1.026670e+01	-1.895457e+02
2.780000e-06	-1.569100e-06	-3.037405e-09	-1.057825e+01	-2.002521e+02
2.790000e-06	-1.614917e-06	-3.200911e-09	-1.088713e+01	-2.109269e+02
2.800000e-06	-1.660401e-06	-3.362597e-09	-1.119376e+01	-2.215404e+02
2.810000e-06	-1.705369e-06	-3.521935e-09	-1.149691e+01	-2.320793e+02
2.820000e-06	-1.749690e-06	-3.680473e-09	-1.179571e+01	-2.425477e+02
2.830000e-06	-1.793436e-06	-3.841135e-09	-1.209063e+01	-2.529610e+02
2.840000e-06	-1.836799e-06	-4.002465e-09	-1.238296e+01	-2.633341e+02
2.850000e-06	-1.879697e-06	-4.161548e-09	-1.267217e+01	-2.736703e+02
2.860000e-06	-1.921929e-06	-4.317020e-09	-1.295688e+01	-2.839540e+02
2.870000e-06	-1.963547e-06	-4.471367e-09	-1.323745e+01	-2.941510e+02
2.880000e-06	-2.004534e-06	-4.625617e-09	-1.351377e+01	-3.042164e+02
2.890000e-06	-2.044765e-06	-4.775729e-09	-1.378499e+01	-3.141061e+02
2.900000e-06	-2.084355e-06	-4.921971e-09	-1.405189e+01	-3.237884e+02
2.910000e-06	-2.123397e-06	-5.065771e-09	-1.431510e+01	-3.332501e+02
2.920000e-06	-2.161638e-06	-5.210277e-09	-1.457290e+01	-3.424950e+02
2.930000e-06	-2.198774e-06	-5.353317e-09	-1.482325e+01	-3.515353e+02
2.940000e-06	-2.234883e-06	-5.490217e-09	-1.506669e+01	-3.603792e+02
