# Temperatura_=_18.88
# Concentracion g/m^3_=_18700.0
# C_Vs_to_Am_M_A/Vsm_=_65563218390.804596
# pendiente_HvsI_1/m_=_3716.3
# ordenada_HvsI_A/m_=_1297.0
# frecuencia_Hz_=_301075.36935254186

Tiempo_(s)	Campo_(V.s)	Magnetizacion_(V.s)	Campo_(kA/m)	Magnetizacion_(A/m)
0.000000e+00	-2.932787e-06	-7.558193e-09	-1.977234e+01	-4.935823e+02
1.000000e-08	-2.931841e-06	-7.561593e-09	-1.976597e+01	-4.934691e+02
2.000000e-08	-2.929877e-06	-7.559753e-09	-1.975272e+01	-4.932271e+02
3.000000e-08	-2.926662e-06	-7.553184e-09	-1.973105e+01	-4.928488e+02
4.000000e-08	-2.922431e-06	-7.543878e-09	-1.970253e+01	-4.923161e+02
5.000000e-08	-2.917387e-06	-7.530290e-09	-1.966852e+01	-4.916084e+02
6.000000e-08	-2.911425e-06	-7.504263e-09	-1.962832e+01	-4.907109e+02
7.000000e-08	-2.904484e-06	-7.470686e-09	-1.958153e+01	-4.896220e+02
8.000000e-08	-2.896531e-06	-7.488709e-09	-1.952791e+01	-4.883557e+02
9.000000e-08	-2.887342e-06	-7.537981e-09	-1.946596e+01	-4.869389e+02
1.000000e-07	-2.876596e-06	-7.493656e-09	-1.939351e+01	-4.854038e+02
1.100000e-07	-2.864607e-06	-7.318116e-09	-1.931269e+01	-4.837786e+02
1.200000e-07	-2.851949e-06	-7.290539e-09	-1.922735e+01	-4.820799e+02
1.300000e-07	-2.838400e-06	-7.450287e-09	-1.913601e+01	-4.803092e+02
1.400000e-07	-2.823643e-06	-7.385245e-09	-1.903651e+01	-4.784543e+02
1.500000e-07	-2.807730e-06	-7.173423e-09	-1.892923e+01	-4.764959e+02
1.600000e-07	-2.790642e-06	-7.289770e-09	-1.881402e+01	-4.744147e+02
1.700000e-07	-2.772409e-06	-7.358922e-09	-1.869111e+01	-4.721978e+02
1.800000e-07	-2.753290e-06	-7.127453e-09	-1.856221e+01	-4.698414e+02
1.900000e-07	-2.733496e-06	-7.139420e-09	-1.842876e+01	-4.673488e+02
2.000000e-07	-2.712849e-06	-7.214622e-09	-1.828956e+01	-4.647249e+02
2.100000e-07	-2.691210e-06	-6.993764e-09	-1.814367e+01	-4.619711e+02
2.200000e-07	-2.668748e-06	-6.946397e-09	-1.799224e+01	-4.590804e+02
2.300000e-07	-2.645404e-06	-7.094070e-09	-1.783486e+01	-4.560378e+02
2.400000e-07	-2.621173e-06	-6.933070e-09	-1.767150e+01	-4.528243e+02
2.500000e-07	-2.596163e-06	-6.783766e-09	-1.750289e+01	-4.494231e+02
2.600000e-07	-2.570041e-06	-6.836456e-09	-1.732677e+01	-4.458266e+02
2.700000e-07	-2.542618e-06	-6.774804e-09	-1.714189e+01	-4.420400e+02
2.800000e-07	-2.514298e-06	-6.678512e-09	-1.695097e+01	-4.380811e+02
2.900000e-07	-2.485172e-06	-6.633035e-09	-1.675460e+01	-4.339754e+02
3.000000e-07	-2.455163e-06	-6.536015e-09	-1.655229e+01	-4.297487e+02
3.100000e-07	-2.424425e-06	-6.519596e-09	-1.634506e+01	-4.254200e+02
3.200000e-07	-2.392930e-06	-6.479710e-09	-1.613272e+01	-4.209964e+02
3.300000e-07	-2.360704e-06	-6.327181e-09	-1.591546e+01	-4.164736e+02
3.400000e-07	-2.327827e-06	-6.280143e-09	-1.569381e+01	-4.118394e+02
3.500000e-07	-2.294034e-06	-6.229159e-09	-1.546598e+01	-4.070807e+02
3.600000e-07	-2.259032e-06	-6.126752e-09	-1.523000e+01	-4.021895e+02
3.700000e-07	-2.223017e-06	-6.087952e-09	-1.498720e+01	-3.971673e+02
3.800000e-07	-2.186312e-06	-5.999755e-09	-1.473974e+01	-3.920249e+02
3.900000e-07	-2.148918e-06	-5.868294e-09	-1.448764e+01	-3.867784e+02
4.000000e-07	-2.110812e-06	-5.835710e-09	-1.423073e+01	-3.814436e+02
4.100000e-07	-2.071920e-06	-5.770436e-09	-1.396853e+01	-3.760303e+02
4.200000e-07	-2.032271e-06	-5.631998e-09	-1.370122e+01	-3.705389e+02
4.300000e-07	-1.992067e-06	-5.548068e-09	-1.343017e+01	-3.649615e+02
4.400000e-07	-1.951354e-06	-5.489043e-09	-1.315569e+01	-3.592853e+02
4.500000e-07	-1.909948e-06	-5.406487e-09	-1.287654e+01	-3.534982e+02
4.600000e-07	-1.867557e-06	-5.305705e-09	-1.259075e+01	-3.475938e+02
4.700000e-07	-1.824163e-06	-5.200888e-09	-1.229819e+01	-3.415741e+02
4.800000e-07	-1.780034e-06	-5.102718e-09	-1.200068e+01	-3.354483e+02
4.900000e-07	-1.735424e-06	-5.026304e-09	-1.169993e+01	-3.292293e+02
5.000000e-07	-1.690337e-06	-4.937012e-09	-1.139596e+01	-3.229288e+02
5.100000e-07	-1.644619e-06	-4.821368e-09	-1.108774e+01	-3.165528e+02
5.200000e-07	-1.598295e-06	-4.715895e-09	-1.077543e+01	-3.100998e+02
5.300000e-07	-1.551459e-06	-4.628081e-09	-1.045967e+01	-3.035623e+02
5.400000e-07	-1.504053e-06	-4.535601e-09	-1.014006e+01	-2.969296e+02
5.500000e-07	-1.456093e-06	-4.427163e-09	-9.816729e+00	-2.901930e+02
5.600000e-07	-1.407708e-06	-4.312459e-09	-9.490526e+00	-2.833491e+02
5.700000e-07	-1.358909e-06	-4.207840e-09	-9.161531e+00	-2.764012e+02
5.800000e-07	-1.309513e-06	-4.117325e-09	-8.828513e+00	-2.693583e+02
5.900000e-07	-1.259313e-06	-4.004429e-09	-8.490072e+00	-2.622315e+02
6.000000e-07	-1.208300e-06	-3.877379e-09	-8.146148e+00	-2.550306e+02
6.100000e-07	-1.156666e-06	-3.765051e-09	-7.798044e+00	-2.477607e+02
6.200000e-07	-1.104588e-06	-3.664146e-09	-7.446942e+00	-2.404216e+02
6.300000e-07	-1.052199e-06	-3.555842e-09	-7.093741e+00	-2.330092e+02
6.400000e-07	-9.995166e-07	-3.432972e-09	-6.738568e+00	-2.255186e+02
6.500000e-07	-9.464288e-07	-3.311392e-09	-6.380660e+00	-2.179471e+02
6.600000e-07	-8.929348e-07	-3.198487e-09	-6.020012e+00	-2.102970e+02
6.700000e-07	-8.390974e-07	-3.087731e-09	-5.657050e+00	-2.025757e+02
6.800000e-07	-7.849798e-07	-2.963241e-09	-5.292198e+00	-1.947943e+02
6.900000e-07	-7.306768e-07	-2.832656e-09	-4.926097e+00	-1.869644e+02
7.000000e-07	-6.762227e-07	-2.711740e-09	-4.558977e+00	-1.790952e+02
7.100000e-07	-6.215622e-07	-2.599335e-09	-4.190465e+00	-1.711906e+02
7.200000e-07	-5.666493e-07	-2.479660e-09	-3.820252e+00	-1.632492e+02
7.300000e-07	-5.114682e-07	-2.349564e-09	-3.448230e+00	-1.552646e+02
7.400000e-07	-4.560517e-07	-2.222574e-09	-3.074622e+00	-1.472284e+02
7.500000e-07	-4.004099e-07	-2.103174e-09	-2.699495e+00	-1.391322e+02
7.600000e-07	-3.445856e-07	-1.982823e-09	-2.323136e+00	-1.309701e+02
7.700000e-07	-2.886956e-07	-1.850208e-09	-1.946336e+00	-1.227397e+02
7.800000e-07	-2.327693e-07	-1.717351e-09	-1.569291e+00	-1.144419e+02
7.900000e-07	-1.767401e-07	-1.595595e-09	-1.191551e+00	-1.060803e+02
8.000000e-07	-1.206170e-07	-1.475289e-09	-8.131793e-01	-9.765961e+01
8.100000e-07	-6.446889e-08	-1.343824e-09	-4.346381e-01	-8.918439e+01
8.200000e-07	-8.324851e-09	-1.204668e-09	-5.612471e-02	-8.065849e+01
8.300000e-07	4.780877e-08	-1.071354e-09	3.223185e-01	-7.208442e+01
8.400000e-07	1.039085e-07	-9.431042e-10	7.005334e-01	-6.346318e+01
8.500000e-07	1.599617e-07	-8.104338e-10	1.078434e+00	-5.479422e+01
8.600000e-07	2.159579e-07	-6.709424e-10	1.455951e+00	-4.607537e+01
8.700000e-07	2.719298e-07	-5.362330e-10	1.833304e+00	-3.730295e+01
8.800000e-07	3.278482e-07	-4.093703e-10	2.210296e+00	-2.847210e+01
8.900000e-07	3.835856e-07	-2.779661e-10	2.586068e+00	-1.957740e+01
9.000000e-07	4.391837e-07	-1.351194e-10	2.960901e+00	-1.061392e+01
9.100000e-07	4.946527e-07	1.030234e-11	3.334863e+00	-1.578205e+00
9.200000e-07	5.498526e-07	1.498180e-10	3.707011e+00	7.530857e+00
9.300000e-07	6.047918e-07	2.880096e-10	4.077402e+00	1.671183e+01
9.400000e-07	6.595383e-07	4.286679e-10	4.446494e+00	2.596114e+01
9.500000e-07	7.141171e-07	5.721832e-10	4.814454e+00	3.527415e+01
9.600000e-07	7.685252e-07	7.132396e-10	5.181264e+00	4.464643e+01
9.700000e-07	8.227077e-07	8.510218e-10	5.546553e+00	5.407491e+01
9.800000e-07	8.765693e-07	9.928024e-10	5.909679e+00	6.355852e+01
9.900000e-07	9.300549e-07	1.143385e-09	6.270269e+00	7.309805e+01
1.000000e-06	9.831899e-07	1.295041e-09	6.628497e+00	8.269549e+01
1.010000e-06	1.035945e-06	1.441284e-09	6.984160e+00	9.235291e+01
1.020000e-06	1.088360e-06	1.586891e-09	7.337536e+00	1.020714e+02
1.030000e-06	1.140406e-06	1.735908e-09	7.688423e+00	1.118502e+02
1.040000e-06	1.191942e-06	1.886247e-09	8.035864e+00	1.216862e+02
1.050000e-06	1.242815e-06	2.033448e-09	8.378841e+00	1.315738e+02
1.060000e-06	1.292908e-06	2.182179e-09	8.716562e+00	1.415050e+02
1.070000e-06	1.342293e-06	2.335374e-09	9.049507e+00	1.514696e+02
1.080000e-06	1.391125e-06	2.491123e-09	9.378723e+00	1.614559e+02
1.090000e-06	1.439544e-06	2.645105e-09	9.705158e+00	1.714511e+02
1.100000e-06	1.487589e-06	2.796506e-09	1.002907e+01	1.814427e+02
1.110000e-06	1.535141e-06	2.949407e-09	1.034966e+01	1.914198e+02
1.120000e-06	1.582119e-06	3.102884e-09	1.066638e+01	2.013745e+02
1.130000e-06	1.628575e-06	3.254086e-09	1.097957e+01	2.113023e+02
1.140000e-06	1.674456e-06	3.401439e-09	1.128889e+01	2.212021e+02
1.150000e-06	1.719686e-06	3.548679e-09	1.159383e+01	2.310744e+02
1.160000e-06	1.764428e-06	3.698665e-09	1.189547e+01	2.409186e+02
1.170000e-06	1.808837e-06	3.850230e-09	1.219487e+01	2.507300e+02
1.180000e-06	1.852807e-06	4.000834e-09	1.249130e+01	2.604973e+02
1.190000e-06	1.896017e-06	4.149814e-09	1.278262e+01	2.702018e+02
1.200000e-06	1.938198e-06	4.297729e-09	1.306700e+01	2.798190e+02
1.210000e-06	1.979380e-06	4.444016e-09	1.334464e+01	2.893219e+02
1.220000e-06	2.019850e-06	4.586192e-09	1.361748e+01	2.986853e+02
1.230000e-06	2.059783e-06	4.721242e-09	1.388670e+01	3.078898e+02
1.240000e-06	2.099109e-06	4.852686e-09	1.415183e+01	3.169237e+02
1.250000e-06	2.137739e-06	4.986722e-09	1.441226e+01	3.257823e+02
1.260000e-06	2.175574e-06	5.121892e-09	1.466735e+01	3.344641e+02
1.270000e-06	2.212643e-06	5.254160e-09	1.491726e+01	3.429667e+02
1.280000e-06	2.249158e-06	5.381322e-09	1.516344e+01	3.512820e+02
1.290000e-06	2.285090e-06	5.503389e-09	1.540568e+01	3.593941e+02
1.300000e-06	2.320044e-06	5.622194e-09	1.564133e+01	3.672811e+02
1.310000e-06	2.353812e-06	5.735096e-09	1.586900e+01	3.749188e+02
1.320000e-06	2.386642e-06	5.842178e-09	1.609033e+01	3.822875e+02
1.330000e-06	2.418772e-06	5.946195e-09	1.630695e+01	3.893772e+02
1.340000e-06	2.450171e-06	6.048460e-09	1.651863e+01	3.961910e+02
1.350000e-06	2.480707e-06	6.149532e-09	1.672450e+01	4.027435e+02
1.360000e-06	2.510350e-06	6.247827e-09	1.692435e+01	4.090564e+02
1.370000e-06	2.539224e-06	6.341249e-09	1.711901e+01	4.151510e+02
1.380000e-06	2.567461e-06	6.430068e-09	1.730938e+01	4.210412e+02
1.390000e-06	2.594821e-06	6.515117e-09	1.749383e+01	4.267298e+02
1.400000e-06	2.620868e-06	6.595803e-09	1.766944e+01	4.322080e+02
1.410000e-06	2.645709e-06	6.672092e-09	1.783691e+01	4.374605e+02
1.420000e-06	2.669662e-06	6.744313e-09	1.799840e+01	4.424720e+02
1.430000e-06	2.692749e-06	6.814389e-09	1.815405e+01	4.472338e+02
1.440000e-06	2.714887e-06	6.883915e-09	1.830330e+01	4.517478e+02
1.450000e-06	2.736084e-06	6.951118e-09	1.844621e+01	4.560256e+02
1.460000e-06	2.756524e-06	7.013790e-09	1.858401e+01	4.600840e+02
1.470000e-06	2.776167e-06	7.070947e-09	1.871644e+01	4.639371e+02
1.480000e-06	2.794794e-06	7.122242e-09	1.884202e+01	4.675903e+02
1.490000e-06	2.812440e-06	7.169684e-09	1.896098e+01	4.710362e+02
1.500000e-06	2.829101e-06	7.215271e-09	1.907331e+01	4.742569e+02
1.510000e-06	2.844633e-06	7.259019e-09	1.917802e+01	4.772298e+02
1.520000e-06	2.859053e-06	7.299298e-09	1.927524e+01	4.799359e+02
1.530000e-06	2.872450e-06	7.335707e-09	1.936556e+01	4.823685e+02
1.540000e-06	2.884823e-06	7.368419e-09	1.944898e+01	4.845363e+02
1.550000e-06	2.896008e-06	7.397388e-09	1.952438e+01	4.864631e+02
1.560000e-06	2.905828e-06	7.423027e-09	1.959059e+01	4.881806e+02
1.570000e-06	2.914512e-06	7.445090e-09	1.964914e+01	4.897198e+02
1.580000e-06	2.922277e-06	7.463998e-09	1.970149e+01	4.911025e+02
1.590000e-06	2.929084e-06	7.480783e-09	1.974738e+01	4.923363e+02
1.600000e-06	2.934874e-06	7.496183e-09	1.978641e+01	4.934151e+02
1.610000e-06	2.939719e-06	7.510130e-09	1.981908e+01	4.943248e+02
1.620000e-06	2.943723e-06	7.521991e-09	1.984607e+01	4.950513e+02
1.630000e-06	2.946542e-06	7.531667e-09	1.986508e+01	4.955877e+02
1.640000e-06	2.948034e-06	7.538642e-09	1.987514e+01	4.959389e+02
1.650000e-06	2.948533e-06	7.542709e-09	1.987850e+01	4.961199e+02
1.660000e-06	2.948150e-06	7.543498e-09	1.987592e+01	4.961502e+02
1.670000e-06	2.946843e-06	7.539777e-09	1.986711e+01	4.960460e+02
1.680000e-06	2.944598e-06	7.535061e-09	1.985197e+01	4.958132e+02
1.690000e-06	2.941525e-06	7.529785e-09	1.983126e+01	4.954448e+02
1.700000e-06	2.937686e-06	7.522514e-09	1.980537e+01	4.949237e+02
1.710000e-06	2.932744e-06	7.516227e-09	1.977206e+01	4.942289e+02
1.720000e-06	2.926533e-06	7.522292e-09	1.973018e+01	4.933450e+02
1.730000e-06	2.919383e-06	7.513556e-09	1.968198e+01	4.922692e+02
1.740000e-06	2.911361e-06	7.423276e-09	1.962789e+01	4.910146e+02
1.750000e-06	2.902003e-06	7.348479e-09	1.956480e+01	4.896074e+02
1.760000e-06	2.890963e-06	7.430358e-09	1.949037e+01	4.880795e+02
1.770000e-06	2.878829e-06	7.519583e-09	1.940857e+01	4.864598e+02
1.780000e-06	2.866528e-06	7.368276e-09	1.932564e+01	4.847659e+02
1.790000e-06	2.853569e-06	7.217619e-09	1.923827e+01	4.830003e+02
1.800000e-06	2.838861e-06	7.368231e-09	1.913911e+01	4.811519e+02
1.810000e-06	2.822895e-06	7.369860e-09	1.903147e+01	4.792013e+02
1.820000e-06	2.806456e-06	7.124749e-09	1.892064e+01	4.771292e+02
1.830000e-06	2.788987e-06	7.181452e-09	1.880287e+01	4.749221e+02
1.840000e-06	2.770230e-06	7.299997e-09	1.867641e+01	4.725754e+02
1.850000e-06	2.750763e-06	7.049790e-09	1.854517e+01	4.700921e+02
1.860000e-06	2.730431e-06	7.018255e-09	1.840809e+01	4.674773e+02
1.870000e-06	2.708632e-06	7.222311e-09	1.826113e+01	4.647326e+02
1.880000e-06	2.685698e-06	7.002804e-09	1.810651e+01	4.618519e+02
1.890000e-06	2.661982e-06	6.849661e-09	1.794662e+01	4.588206e+02
1.900000e-06	2.637307e-06	7.024445e-09	1.778027e+01	4.556197e+02
1.910000e-06	2.611856e-06	6.918902e-09	1.760868e+01	4.522321e+02
1.920000e-06	2.585647e-06	6.766172e-09	1.743199e+01	4.486493e+02
1.930000e-06	2.558594e-06	6.801872e-09	1.724960e+01	4.448756e+02
1.940000e-06	2.530917e-06	6.705336e-09	1.706300e+01	4.409280e+02
1.950000e-06	2.502147e-06	6.658973e-09	1.686904e+01	4.368317e+02
1.960000e-06	2.471857e-06	6.628132e-09	1.666483e+01	4.326128e+02
1.970000e-06	2.440650e-06	6.445146e-09	1.645444e+01	4.282907e+02
1.980000e-06	2.408766e-06	6.446440e-09	1.623948e+01	4.238737e+02
1.990000e-06	2.376005e-06	6.446836e-09	1.601861e+01	4.193581e+02
2.000000e-06	2.342500e-06	6.264798e-09	1.579273e+01	4.147322e+02
2.010000e-06	2.308199e-06	6.253172e-09	1.556148e+01	4.099825e+02
2.020000e-06	2.273166e-06	6.193027e-09	1.532529e+01	4.051006e+02
2.030000e-06	2.237499e-06	6.029730e-09	1.508483e+01	4.000874e+02
2.040000e-06	2.200866e-06	6.040052e-09	1.483786e+01	3.949528e+02
2.050000e-06	2.163142e-06	5.955600e-09	1.458353e+01	3.897130e+02
2.060000e-06	2.124541e-06	5.803574e-09	1.432329e+01	3.843839e+02
2.070000e-06	2.085240e-06	5.779120e-09	1.405833e+01	3.789758e+02
2.080000e-06	2.045342e-06	5.701277e-09	1.378934e+01	3.734900e+02
2.090000e-06	2.004767e-06	5.602021e-09	1.351579e+01	3.679189e+02
2.100000e-06	1.963478e-06	5.517522e-09	1.323743e+01	3.622500e+02
2.110000e-06	1.921579e-06	5.412397e-09	1.295496e+01	3.564709e+02
2.120000e-06	1.879008e-06	5.352610e-09	1.266795e+01	3.505747e+02
2.130000e-06	1.835853e-06	5.265745e-09	1.237700e+01	3.445628e+02
2.140000e-06	1.792328e-06	5.153181e-09	1.208356e+01	3.384440e+02
2.150000e-06	1.748295e-06	5.059585e-09	1.178670e+01	3.322310e+02
2.160000e-06	1.703542e-06	4.960430e-09	1.148499e+01	3.259358e+02
2.170000e-06	1.658058e-06	4.880858e-09	1.117834e+01	3.195649e+02
2.180000e-06	1.612029e-06	4.779712e-09	1.086802e+01	3.131175e+02
2.190000e-06	1.565549e-06	4.670632e-09	1.055466e+01	3.065861e+02
2.200000e-06	1.518583e-06	4.575612e-09	1.023803e+01	2.999604e+02
2.210000e-06	1.470979e-06	4.467946e-09	9.917087e+00	2.932312e+02
2.220000e-06	1.422555e-06	4.371983e-09	9.590619e+00	2.863947e+02
2.230000e-06	1.373533e-06	4.257253e-09	9.260125e+00	2.794538e+02
2.240000e-06	1.324116e-06	4.137655e-09	8.926961e+00	2.724171e+02
2.250000e-06	1.274274e-06	4.051374e-09	8.590938e+00	2.652957e+02
2.260000e-06	1.223978e-06	3.946611e-09	8.251848e+00	2.580996e+02
2.270000e-06	1.173195e-06	3.828406e-09	7.909479e+00	2.508344e+02
2.280000e-06	1.121997e-06	3.712854e-09	7.564310e+00	2.435001e+02
2.290000e-06	1.070421e-06	3.595502e-09	7.216591e+00	2.360930e+02
2.300000e-06	1.018369e-06	3.491787e-09	6.865671e+00	2.286079e+02
2.310000e-06	9.658102e-07	3.373950e-09	6.511326e+00	2.210419e+02
2.320000e-06	9.126796e-07	3.252641e-09	6.153128e+00	2.133970e+02
2.330000e-06	8.589801e-07	3.140100e-09	5.791096e+00	2.056803e+02
2.340000e-06	8.048291e-07	3.024715e-09	5.426019e+00	1.979026e+02
2.350000e-06	7.502117e-07	2.909863e-09	5.057798e+00	1.900756e+02
2.360000e-06	6.952358e-07	2.783771e-09	4.687160e+00	1.822088e+02
2.370000e-06	6.400872e-07	2.662077e-09	4.315358e+00	1.743065e+02
2.380000e-06	5.848186e-07	2.548320e-09	3.942746e+00	1.663677e+02
2.390000e-06	5.294754e-07	2.429391e-09	3.569632e+00	1.583863e+02
2.400000e-06	4.740763e-07	2.308768e-09	3.196141e+00	1.503538e+02
2.410000e-06	4.185656e-07	2.182523e-09	2.821897e+00	1.422619e+02
2.420000e-06	3.629311e-07	2.058712e-09	2.446819e+00	1.341045e+02
2.430000e-06	3.071978e-07	1.938438e-09	2.071075e+00	1.258787e+02
2.440000e-06	2.513879e-07	1.810813e-09	1.694814e+00	1.175855e+02
2.450000e-06	1.955100e-07	1.680939e-09	1.318094e+00	1.092281e+02
2.460000e-06	1.395376e-07	1.552332e-09	9.407382e-01	1.008112e+02
2.470000e-06	8.354420e-08	1.427684e-09	5.632406e-01	9.233954e+01
2.480000e-06	2.753625e-08	1.303041e-09	1.856447e-01	8.381695e+01
2.490000e-06	-2.847830e-08	1.170298e-09	-1.919958e-01	7.524607e+01
2.500000e-06	-8.445673e-08	1.036952e-09	-5.693927e-01	6.662799e+01
2.510000e-06	-1.403962e-07	9.070542e-10	-9.465268e-01	5.796228e+01
2.520000e-06	-1.962356e-07	7.764397e-10	-1.322987e+00	4.924689e+01
2.530000e-06	-2.520051e-07	6.412525e-10	-1.698975e+00	4.047824e+01
2.540000e-06	-3.077370e-07	5.022447e-10	-2.074710e+00	3.165153e+01
2.550000e-06	-3.633493e-07	3.686967e-10	-2.449639e+00	2.276137e+01
2.560000e-06	-4.188543e-07	2.379265e-10	-2.823843e+00	1.380273e+01
2.570000e-06	-4.742999e-07	1.026704e-10	-3.197648e+00	4.772036e+00
2.580000e-06	-5.296669e-07	-3.720263e-11	-3.570922e+00	-4.332011e+00
2.590000e-06	-5.849623e-07	-1.794528e-10	-3.943715e+00	-1.350815e+01
2.600000e-06	-6.401694e-07	-3.208529e-10	-4.315912e+00	-2.275294e+01
2.610000e-06	-6.952166e-07	-4.621198e-10	-4.687031e+00	-3.206176e+01
2.620000e-06	-7.499882e-07	-6.045986e-10	-5.056291e+00	-4.143014e+01
2.630000e-06	-8.043801e-07	-7.488832e-10	-5.422992e+00	-5.085487e+01
2.640000e-06	-8.583356e-07	-8.937723e-10	-5.786751e+00	-6.033474e+01
2.650000e-06	-9.118161e-07	-1.039393e-09	-6.147307e+00	-6.987042e+01
2.660000e-06	-9.647104e-07	-1.187008e-09	-6.503911e+00	-7.946386e+01
2.670000e-06	-1.017011e-06	-1.334899e-09	-6.856514e+00	-8.911715e+01
2.680000e-06	-1.068839e-06	-1.481368e-09	-7.205926e+00	-9.883149e+01
2.690000e-06	-1.120294e-06	-1.629703e-09	-7.552828e+00	-1.086063e+02
2.700000e-06	-1.171399e-06	-1.782061e-09	-7.897371e+00	-1.184385e+02
2.710000e-06	-1.222105e-06	-1.935155e-09	-8.239220e+00	-1.283229e+02
2.720000e-06	-1.272351e-06	-2.086715e-09	-8.577968e+00	-1.382515e+02
2.730000e-06	-1.322130e-06	-2.237945e-09	-8.913572e+00	-1.482143e+02
2.740000e-06	-1.371397e-06	-2.390640e-09	-9.245720e+00	-1.581997e+02
2.750000e-06	-1.420014e-06	-2.543492e-09	-9.573492e+00	-1.681949e+02
2.760000e-06	-1.467813e-06	-2.694331e-09	-9.895739e+00	-1.781873e+02
2.770000e-06	-1.514751e-06	-2.844160e-09	-1.021219e+01	-1.881660e+02
2.780000e-06	-1.561064e-06	-2.996614e-09	-1.052442e+01	-1.981227e+02
2.790000e-06	-1.606959e-06	-3.151206e-09	-1.083384e+01	-2.080526e+02
2.800000e-06	-1.652464e-06	-3.304521e-09	-1.114062e+01	-2.179546e+02
2.810000e-06	-1.697503e-06	-3.455621e-09	-1.144427e+01	-2.278291e+02
2.820000e-06	-1.741966e-06	-3.605226e-09	-1.174403e+01	-2.376757e+02
2.830000e-06	-1.785819e-06	-3.755815e-09	-1.203968e+01	-2.474899e+02
2.840000e-06	-1.829216e-06	-3.906372e-09	-1.233226e+01	-2.572611e+02
2.850000e-06	-1.872162e-06	-4.053905e-09	-1.262179e+01	-2.669710e+02
2.860000e-06	-1.914504e-06	-4.198415e-09	-1.290726e+01	-2.765955e+02
2.870000e-06	-1.956209e-06	-4.342088e-09	-1.318843e+01	-2.861077e+02
2.880000e-06	-1.997284e-06	-4.487277e-09	-1.346534e+01	-2.954820e+02
2.890000e-06	-2.037694e-06	-4.632260e-09	-1.373778e+01	-3.046985e+02
2.900000e-06	-2.077415e-06	-4.772659e-09	-1.400557e+01	-3.137451e+02
2.910000e-06	-2.116538e-06	-4.908030e-09	-1.426934e+01	-3.226164e+02
2.920000e-06	-2.154944e-06	-5.041517e-09	-1.452826e+01	-3.313111e+02
2.930000e-06	-2.192302e-06	-5.173498e-09	-1.478012e+01	-3.398269e+02
2.940000e-06	-2.228598e-06	-5.300892e-09	-1.502482e+01	-3.481562e+02
