# Temperatura_=_24.33
# Concentracion g/m^3_=_18700.0
# C_Vs_to_Am_M_A/Vsm_=_65563218390.804596
# pendiente_HvsI_1/m_=_3716.3
# ordenada_HvsI_A/m_=_1297.0
# frecuencia_Hz_=_301074.9966141141

Tiempo_(s)	Campo_(V.s)	Magnetizacion_(V.s)	Campo_(kA/m)	Magnetizacion_(A/m)
0.000000e+00	-2.933252e-06	-7.752556e-09	-1.976921e+01	-5.058072e+02
1.000000e-08	-2.932170e-06	-7.752875e-09	-1.976192e+01	-5.056461e+02
2.000000e-08	-2.929956e-06	-7.749260e-09	-1.974699e+01	-5.053249e+02
3.000000e-08	-2.926540e-06	-7.741733e-09	-1.972397e+01	-5.048551e+02
4.000000e-08	-2.922202e-06	-7.731513e-09	-1.969473e+01	-5.042402e+02
5.000000e-08	-2.917017e-06	-7.717827e-09	-1.965978e+01	-5.034749e+02
6.000000e-08	-2.910878e-06	-7.696657e-09	-1.961841e+01	-5.025475e+02
7.000000e-08	-2.903743e-06	-7.675266e-09	-1.957032e+01	-5.014470e+02
8.000000e-08	-2.895569e-06	-7.670765e-09	-1.951523e+01	-5.001717e+02
9.000000e-08	-2.886139e-06	-7.682594e-09	-1.945168e+01	-4.987347e+02
1.000000e-07	-2.875175e-06	-7.649126e-09	-1.937779e+01	-4.971651e+02
1.100000e-07	-2.863002e-06	-7.571742e-09	-1.929574e+01	-4.955031e+02
1.200000e-07	-2.850067e-06	-7.521957e-09	-1.920857e+01	-4.937896e+02
1.300000e-07	-2.836201e-06	-7.552942e-09	-1.911511e+01	-4.920541e+02
1.400000e-07	-2.821214e-06	-7.552197e-09	-1.901411e+01	-4.903043e+02
1.500000e-07	-2.805088e-06	-7.449766e-09	-1.890542e+01	-4.885222e+02
1.600000e-07	-2.787788e-06	-7.450188e-09	-1.878883e+01	-4.866672e+02
1.700000e-07	-2.769397e-06	-7.468026e-09	-1.866488e+01	-4.846865e+02
1.800000e-07	-2.750165e-06	-7.380083e-09	-1.853526e+01	-4.825286e+02
1.900000e-07	-2.730194e-06	-7.326951e-09	-1.840066e+01	-4.801562e+02
2.000000e-07	-2.709333e-06	-7.321241e-09	-1.826006e+01	-4.775548e+02
2.100000e-07	-2.687544e-06	-7.240042e-09	-1.811321e+01	-4.747330e+02
2.200000e-07	-2.664931e-06	-7.174169e-09	-1.796080e+01	-4.717160e+02
2.300000e-07	-2.641454e-06	-7.192960e-09	-1.780258e+01	-4.685352e+02
2.400000e-07	-2.617100e-06	-7.119020e-09	-1.763844e+01	-4.652165e+02
2.500000e-07	-2.591849e-06	-7.009560e-09	-1.746826e+01	-4.617725e+02
2.600000e-07	-2.565431e-06	-6.990104e-09	-1.729021e+01	-4.582010e+02
2.700000e-07	-2.537820e-06	-6.944729e-09	-1.710412e+01	-4.544888e+02
2.800000e-07	-2.509306e-06	-6.862510e-09	-1.691194e+01	-4.506201e+02
2.900000e-07	-2.479988e-06	-6.813150e-09	-1.671435e+01	-4.465849e+02
3.000000e-07	-2.449840e-06	-6.733092e-09	-1.651116e+01	-4.423845e+02
3.100000e-07	-2.418893e-06	-6.687806e-09	-1.630258e+01	-4.380318e+02
3.200000e-07	-2.387188e-06	-6.642010e-09	-1.608891e+01	-4.335470e+02
3.300000e-07	-2.354824e-06	-6.529100e-09	-1.587078e+01	-4.289500e+02
3.400000e-07	-2.321800e-06	-6.451434e-09	-1.564821e+01	-4.242537e+02
3.500000e-07	-2.287800e-06	-6.410624e-09	-1.541906e+01	-4.194596e+02
3.600000e-07	-2.252639e-06	-6.325815e-09	-1.518209e+01	-4.145592e+02
3.700000e-07	-2.216537e-06	-6.243399e-09	-1.493877e+01	-4.095383e+02
3.800000e-07	-2.179710e-06	-6.180853e-09	-1.469057e+01	-4.043849e+02
3.900000e-07	-2.142162e-06	-6.079612e-09	-1.443750e+01	-3.990950e+02
4.000000e-07	-2.103875e-06	-6.005011e-09	-1.417946e+01	-3.936756e+02
4.100000e-07	-2.064836e-06	-5.934050e-09	-1.391635e+01	-3.881432e+02
4.200000e-07	-2.025050e-06	-5.827795e-09	-1.364820e+01	-3.825180e+02
4.300000e-07	-1.984703e-06	-5.732509e-09	-1.337628e+01	-3.768170e+02
4.400000e-07	-1.943888e-06	-5.665387e-09	-1.310120e+01	-3.710477e+02
4.500000e-07	-1.902338e-06	-5.579958e-09	-1.282116e+01	-3.652060e+02
4.600000e-07	-1.859789e-06	-5.478830e-09	-1.253440e+01	-3.592783e+02
4.700000e-07	-1.816296e-06	-5.383376e-09	-1.224127e+01	-3.532465e+02
4.800000e-07	-1.772100e-06	-5.287906e-09	-1.194340e+01	-3.470956e+02
4.900000e-07	-1.727447e-06	-5.201547e-09	-1.164245e+01	-3.408191e+02
5.000000e-07	-1.682314e-06	-5.103453e-09	-1.133827e+01	-3.344208e+02
5.100000e-07	-1.636543e-06	-4.994271e-09	-1.102979e+01	-3.279135e+02
5.200000e-07	-1.590150e-06	-4.891297e-09	-1.071712e+01	-3.213135e+02
5.300000e-07	-1.543182e-06	-4.802353e-09	-1.040056e+01	-3.146350e+02
5.400000e-07	-1.495652e-06	-4.699944e-09	-1.008023e+01	-3.078847e+02
5.500000e-07	-1.447650e-06	-4.591146e-09	-9.756711e+00	-3.010606e+02
5.600000e-07	-1.399239e-06	-4.485037e-09	-9.430432e+00	-2.941534e+02
5.700000e-07	-1.350381e-06	-4.378669e-09	-9.101148e+00	-2.871513e+02
5.800000e-07	-1.300929e-06	-4.276101e-09	-8.767855e+00	-2.800451e+02
5.900000e-07	-1.250673e-06	-4.162934e-09	-8.429146e+00	-2.728318e+02
6.000000e-07	-1.199599e-06	-4.044656e-09	-8.084923e+00	-2.655161e+02
6.100000e-07	-1.147901e-06	-3.931439e-09	-7.736497e+00	-2.581085e+02
6.200000e-07	-1.095782e-06	-3.824743e-09	-7.385226e+00	-2.506213e+02
6.300000e-07	-1.043352e-06	-3.708720e-09	-7.031868e+00	-2.430652e+02
6.400000e-07	-9.905925e-07	-3.587804e-09	-6.676285e+00	-2.354460e+02
6.500000e-07	-9.374294e-07	-3.468402e-09	-6.317982e+00	-2.277649e+02
6.600000e-07	-8.838775e-07	-3.352511e-09	-5.957059e+00	-2.200199e+02
6.700000e-07	-8.300071e-07	-3.236887e-09	-5.593989e+00	-2.122093e+02
6.800000e-07	-7.758585e-07	-3.112724e-09	-5.229045e+00	-2.043343e+02
6.900000e-07	-7.214788e-07	-2.986194e-09	-4.862542e+00	-1.964003e+02
7.000000e-07	-6.669122e-07	-2.862962e-09	-4.494781e+00	-1.884159e+02
7.100000e-07	-6.121644e-07	-2.744057e-09	-4.125797e+00	-1.803897e+02
7.200000e-07	-5.572005e-07	-2.619500e-09	-3.755358e+00	-1.723273e+02
7.300000e-07	-5.020206e-07	-2.492454e-09	-3.383463e+00	-1.642282e+02
7.400000e-07	-4.465599e-07	-2.367812e-09	-3.009675e+00	-1.560850e+02
7.500000e-07	-3.908718e-07	-2.244782e-09	-2.634354e+00	-1.478849e+02
7.600000e-07	-3.350682e-07	-2.118448e-09	-2.258255e+00	-1.396130e+02
7.700000e-07	-2.791167e-07	-1.985889e-09	-1.881160e+00	-1.312564e+02
7.800000e-07	-2.230595e-07	-1.854281e-09	-1.503351e+00	-1.228076e+02
7.900000e-07	-1.669973e-07	-1.724655e-09	-1.125510e+00	-1.142666e+02
8.000000e-07	-1.108786e-07	-1.594853e-09	-7.472876e-01	-1.056401e+02
8.100000e-07	-5.465446e-08	-1.461365e-09	-3.683541e-01	-9.693989e+01
8.200000e-07	1.568213e-09	-1.327125e-09	1.056927e-02	-8.817955e+01
8.300000e-07	5.775391e-08	-1.193289e-09	3.892434e-01	-7.937126e+01
8.400000e-07	1.138828e-07	-1.059048e-09	7.675348e-01	-7.052339e+01
8.500000e-07	1.699737e-07	-9.213639e-10	1.145570e+00	-6.163922e+01
8.600000e-07	2.259964e-07	-7.797875e-10	1.523146e+00	-5.271673e+01
8.700000e-07	2.819264e-07	-6.413921e-10	1.900096e+00	-4.374929e+01
8.800000e-07	3.377883e-07	-5.074051e-10	2.276588e+00	-3.472689e+01
8.900000e-07	3.935503e-07	-3.725251e-10	2.652407e+00	-2.563774e+01
9.000000e-07	4.491641e-07	-2.315013e-10	3.027226e+00	-1.646999e+01
9.100000e-07	5.045753e-07	-8.890664e-11	3.400680e+00	-7.213758e+00
9.200000e-07	5.597450e-07	5.520377e-11	3.772507e+00	2.137150e+00
9.300000e-07	6.146903e-07	2.018461e-10	4.142821e+00	1.158380e+01
9.400000e-07	6.694401e-07	3.510171e-10	4.511818e+00	2.112176e+01
9.500000e-07	7.239674e-07	5.004238e-10	4.879315e+00	3.074195e+01
9.600000e-07	7.782857e-07	6.461933e-10	5.245403e+00	4.043296e+01
9.700000e-07	8.323852e-07	7.898977e-10	5.610017e+00	5.018426e+01
9.800000e-07	8.861633e-07	9.357891e-10	5.972465e+00	5.998938e+01
9.900000e-07	9.395800e-07	1.087097e-09	6.332477e+00	6.984813e+01
1.000000e-06	9.926719e-07	1.240075e-09	6.690300e+00	7.976673e+01
1.010000e-06	1.045413e-06	1.393865e-09	7.045756e+00	8.975581e+01
1.020000e-06	1.097781e-06	1.548232e-09	7.398703e+00	9.982647e+01
1.030000e-06	1.149726e-06	1.703131e-09	7.748797e+00	1.099858e+02
1.040000e-06	1.201061e-06	1.858723e-09	8.094775e+00	1.202332e+02
1.050000e-06	1.251656e-06	2.015042e-09	8.435769e+00	1.305592e+02
1.060000e-06	1.301537e-06	2.173585e-09	8.771951e+00	1.409464e+02
1.070000e-06	1.350786e-06	2.334432e-09	9.103877e+00	1.513735e+02
1.080000e-06	1.399546e-06	2.495138e-09	9.432502e+00	1.618199e+02
1.090000e-06	1.447939e-06	2.653786e-09	9.758655e+00	1.722698e+02
1.100000e-06	1.495937e-06	2.813063e-09	1.008215e+01	1.827150e+02
1.110000e-06	1.543428e-06	2.973998e-09	1.040222e+01	1.931534e+02
1.120000e-06	1.590340e-06	3.135773e-09	1.071840e+01	2.035865e+02
1.130000e-06	1.636683e-06	3.295819e-09	1.103073e+01	2.140148e+02
1.140000e-06	1.682440e-06	3.453415e-09	1.133912e+01	2.244342e+02
1.150000e-06	1.727611e-06	3.610722e-09	1.164356e+01	2.348337e+02
1.160000e-06	1.772320e-06	3.768017e-09	1.194489e+01	2.451960e+02
1.170000e-06	1.816631e-06	3.925381e-09	1.224353e+01	2.555004e+02
1.180000e-06	1.860412e-06	4.082253e-09	1.253859e+01	2.657265e+02
1.190000e-06	1.903401e-06	4.238546e-09	1.282833e+01	2.758574e+02
1.200000e-06	1.945413e-06	4.392634e-09	1.311148e+01	2.858816e+02
1.210000e-06	1.986512e-06	4.544867e-09	1.338847e+01	2.957914e+02
1.220000e-06	2.026943e-06	4.693553e-09	1.366097e+01	3.055804e+02
1.230000e-06	2.066782e-06	4.837794e-09	1.392947e+01	3.152398e+02
1.240000e-06	2.105956e-06	4.978692e-09	1.419349e+01	3.247554e+02
1.250000e-06	2.144427e-06	5.118149e-09	1.445277e+01	3.341069e+02
1.260000e-06	2.182161e-06	5.258147e-09	1.470709e+01	3.432689e+02
1.270000e-06	2.219220e-06	5.395739e-09	1.495685e+01	3.522147e+02
1.280000e-06	2.255654e-06	5.528674e-09	1.520241e+01	3.609195e+02
1.290000e-06	2.291365e-06	5.656391e-09	1.544308e+01	3.693648e+02
1.300000e-06	2.326055e-06	5.779154e-09	1.567689e+01	3.775389e+02
1.310000e-06	2.359649e-06	5.895680e-09	1.590330e+01	3.854374e+02
1.320000e-06	2.392389e-06	6.006863e-09	1.612396e+01	3.930610e+02
1.330000e-06	2.424418e-06	6.113913e-09	1.633982e+01	4.004129e+02
1.340000e-06	2.455658e-06	6.218669e-09	1.655037e+01	4.074969e+02
1.350000e-06	2.486003e-06	6.322892e-09	1.675489e+01	4.143163e+02
1.360000e-06	2.515517e-06	6.424062e-09	1.695380e+01	4.208738e+02
1.370000e-06	2.544297e-06	6.520725e-09	1.714777e+01	4.271720e+02
1.380000e-06	2.572368e-06	6.612880e-09	1.733696e+01	4.332145e+02
1.390000e-06	2.599468e-06	6.699918e-09	1.751961e+01	4.390054e+02
1.400000e-06	2.625335e-06	6.781811e-09	1.769394e+01	4.445488e+02
1.410000e-06	2.650090e-06	6.858649e-09	1.786078e+01	4.498480e+02
1.420000e-06	2.673948e-06	6.931440e-09	1.802158e+01	4.549044e+02
1.430000e-06	2.696959e-06	7.003564e-09	1.817666e+01	4.597178e+02
1.440000e-06	2.719060e-06	7.074715e-09	1.832562e+01	4.642870e+02
1.450000e-06	2.740263e-06	7.141151e-09	1.846852e+01	4.686115e+02
1.460000e-06	2.760666e-06	7.201644e-09	1.860603e+01	4.726927e+02
1.470000e-06	2.780229e-06	7.257624e-09	1.873788e+01	4.765341e+02
1.480000e-06	2.798792e-06	7.309548e-09	1.886298e+01	4.801406e+02
1.490000e-06	2.816300e-06	7.356012e-09	1.898098e+01	4.835161e+02
1.500000e-06	2.832747e-06	7.398849e-09	1.909183e+01	4.866622e+02
1.510000e-06	2.848081e-06	7.440783e-09	1.919518e+01	4.895764e+02
1.520000e-06	2.862362e-06	7.481173e-09	1.929143e+01	4.922537e+02
1.530000e-06	2.875637e-06	7.516715e-09	1.938090e+01	4.946882e+02
1.540000e-06	2.887805e-06	7.547132e-09	1.946291e+01	4.968780e+02
1.550000e-06	2.898725e-06	7.575346e-09	1.953651e+01	4.988280e+02
1.560000e-06	2.908339e-06	7.601832e-09	1.960130e+01	5.005518e+02
1.570000e-06	2.916822e-06	7.624508e-09	1.965847e+01	5.020703e+02
1.580000e-06	2.924400e-06	7.643156e-09	1.970954e+01	5.034077e+02
1.590000e-06	2.931034e-06	7.659466e-09	1.975426e+01	5.045856e+02
1.600000e-06	2.936678e-06	7.673988e-09	1.979229e+01	5.056178e+02
1.610000e-06	2.941448e-06	7.686904e-09	1.982444e+01	5.065070e+02
1.620000e-06	2.945246e-06	7.697463e-09	1.985004e+01	5.072455e+02
1.630000e-06	2.947813e-06	7.705824e-09	1.986734e+01	5.078196e+02
1.640000e-06	2.949148e-06	7.712022e-09	1.987634e+01	5.082156e+02
1.650000e-06	2.949469e-06	7.716067e-09	1.987850e+01	5.084256e+02
1.660000e-06	2.948875e-06	7.717492e-09	1.987450e+01	5.084510e+02
1.670000e-06	2.947362e-06	7.714948e-09	1.986430e+01	5.083015e+02
1.680000e-06	2.944971e-06	7.709659e-09	1.984819e+01	5.079910e+02
1.690000e-06	2.941756e-06	7.703474e-09	1.982652e+01	5.075312e+02
1.700000e-06	2.937633e-06	7.694929e-09	1.979873e+01	5.069264e+02
1.710000e-06	2.932356e-06	7.685491e-09	1.976317e+01	5.061719e+02
1.720000e-06	2.925916e-06	7.679797e-09	1.971976e+01	5.052561e+02
1.730000e-06	2.918565e-06	7.662752e-09	1.967022e+01	5.041679e+02
1.740000e-06	2.910264e-06	7.614557e-09	1.961427e+01	5.029045e+02
1.750000e-06	2.900538e-06	7.571266e-09	1.954873e+01	5.014779e+02
1.760000e-06	2.889242e-06	7.580997e-09	1.947259e+01	4.999161e+02
1.770000e-06	2.877093e-06	7.620420e-09	1.939071e+01	4.982590e+02
1.780000e-06	2.864681e-06	7.549838e-09	1.930706e+01	4.965477e+02
1.790000e-06	2.851398e-06	7.462170e-09	1.921753e+01	4.948128e+02
1.800000e-06	2.836510e-06	7.476699e-09	1.911719e+01	4.930640e+02
1.810000e-06	2.820481e-06	7.496690e-09	1.900916e+01	4.912850e+02
1.820000e-06	2.803798e-06	7.412691e-09	1.889673e+01	4.894366e+02
1.830000e-06	2.786110e-06	7.370250e-09	1.877752e+01	4.874664e+02
1.840000e-06	2.767326e-06	7.403919e-09	1.865092e+01	4.853222e+02
1.850000e-06	2.747767e-06	7.315474e-09	1.851909e+01	4.829656e+02
1.860000e-06	2.727204e-06	7.261388e-09	1.838050e+01	4.803802e+02
1.870000e-06	2.705274e-06	7.311806e-09	1.823270e+01	4.775730e+02
1.880000e-06	2.682265e-06	7.230342e-09	1.807763e+01	4.745686e+02
1.890000e-06	2.658385e-06	7.132630e-09	1.791669e+01	4.713982e+02
1.900000e-06	2.633573e-06	7.164247e-09	1.774946e+01	4.680884e+02
1.910000e-06	2.607996e-06	7.102888e-09	1.757708e+01	4.646530e+02
1.920000e-06	2.581643e-06	7.001316e-09	1.739947e+01	4.610905e+02
1.930000e-06	2.554435e-06	6.971199e-09	1.721609e+01	4.573886e+02
1.940000e-06	2.526443e-06	6.913967e-09	1.702744e+01	4.535312e+02
1.950000e-06	2.497308e-06	6.851949e-09	1.683108e+01	4.495077e+02
1.960000e-06	2.466852e-06	6.813991e-09	1.662582e+01	4.453185e+02
1.970000e-06	2.435501e-06	6.698675e-09	1.641452e+01	4.409757e+02
1.980000e-06	2.403426e-06	6.638211e-09	1.619835e+01	4.364992e+02
1.990000e-06	2.370558e-06	6.623867e-09	1.597682e+01	4.319094e+02
2.000000e-06	2.336916e-06	6.500152e-09	1.575009e+01	4.272196e+02
2.010000e-06	2.302483e-06	6.423089e-09	1.551802e+01	4.224324e+02
2.020000e-06	2.267371e-06	6.384147e-09	1.528137e+01	4.175397e+02
2.030000e-06	2.231573e-06	6.276237e-09	1.504011e+01	4.125275e+02
2.040000e-06	2.194795e-06	6.210481e-09	1.479223e+01	4.073835e+02
2.050000e-06	2.156913e-06	6.150589e-09	1.453692e+01	4.021029e+02
2.060000e-06	2.118173e-06	6.034885e-09	1.427582e+01	3.966919e+02
2.070000e-06	2.078820e-06	5.960887e-09	1.401060e+01	3.911666e+02
2.080000e-06	2.038808e-06	5.890446e-09	1.374093e+01	3.855471e+02
2.090000e-06	1.998058e-06	5.791281e-09	1.346629e+01	3.798507e+02
2.100000e-06	1.956654e-06	5.702500e-09	1.318724e+01	3.740860e+02
2.110000e-06	1.914642e-06	5.611208e-09	1.290409e+01	3.682496e+02
2.120000e-06	1.871977e-06	5.529402e-09	1.261654e+01	3.623282e+02
2.130000e-06	1.828793e-06	5.444412e-09	1.232550e+01	3.563041e+02
2.140000e-06	1.785145e-06	5.342168e-09	1.203132e+01	3.501617e+02
2.150000e-06	1.740906e-06	5.241574e-09	1.173316e+01	3.438938e+02
2.160000e-06	1.695996e-06	5.148565e-09	1.143049e+01	3.375035e+02
2.170000e-06	1.650358e-06	5.055445e-09	1.112290e+01	3.310031e+02
2.180000e-06	1.604201e-06	4.949416e-09	1.081181e+01	3.244089e+02
2.190000e-06	1.557633e-06	4.845725e-09	1.049796e+01	3.177354e+02
2.200000e-06	1.510520e-06	4.748277e-09	1.018043e+01	3.109899e+02
2.210000e-06	1.462731e-06	4.640985e-09	9.858352e+00	3.041709e+02
2.220000e-06	1.414184e-06	4.533558e-09	9.531159e+00	2.972696e+02
2.230000e-06	1.365120e-06	4.427562e-09	9.200485e+00	2.902744e+02
2.240000e-06	1.315663e-06	4.314599e-09	8.867159e+00	2.831754e+02
2.250000e-06	1.265714e-06	4.212217e-09	8.530520e+00	2.759694e+02
2.260000e-06	1.215258e-06	4.104501e-09	8.190457e+00	2.686604e+02
2.270000e-06	1.164339e-06	3.988020e-09	7.847284e+00	2.612586e+02
2.280000e-06	1.113082e-06	3.874488e-09	7.501828e+00	2.537764e+02
2.290000e-06	1.061466e-06	3.757029e-09	7.153948e+00	2.462246e+02
2.300000e-06	1.009310e-06	3.642840e-09	6.802434e+00	2.386095e+02
2.310000e-06	9.565363e-07	3.525150e-09	6.446757e+00	2.309325e+02
2.320000e-06	9.031744e-07	3.406095e-09	6.087114e+00	2.231918e+02
2.330000e-06	8.492609e-07	3.290861e-09	5.723754e+00	2.153856e+02
2.340000e-06	7.948900e-07	3.174876e-09	5.357311e+00	2.075147e+02
2.350000e-06	7.401797e-07	3.053811e-09	4.988581e+00	1.995844e+02
2.360000e-06	6.852204e-07	2.929467e-09	4.618172e+00	1.916029e+02
2.370000e-06	6.301272e-07	2.808866e-09	4.246861e+00	1.835791e+02
2.380000e-06	5.749137e-07	2.690904e-09	3.874739e+00	1.755189e+02
2.390000e-06	5.195967e-07	2.568297e-09	3.501920e+00	1.674222e+02
2.400000e-06	4.641994e-07	2.441922e-09	3.128559e+00	1.592822e+02
2.410000e-06	4.087144e-07	2.316003e-09	2.754608e+00	1.510864e+02
2.420000e-06	3.531378e-07	2.189978e-09	2.380039e+00	1.428197e+02
2.430000e-06	2.974652e-07	2.064908e-09	2.004823e+00	1.344691e+02
2.440000e-06	2.416881e-07	1.938449e-09	1.628903e+00	1.260267e+02
2.450000e-06	1.858223e-07	1.810820e-09	1.252384e+00	1.174918e+02
2.460000e-06	1.298367e-07	1.680183e-09	8.750589e-01	1.088707e+02
2.470000e-06	7.377195e-08	1.547184e-09	4.972000e-01	1.001750e+02
2.480000e-06	1.773864e-08	1.414610e-09	1.195529e-01	9.141816e+01
2.490000e-06	-3.830952e-08	1.280694e-09	-2.581943e-01	8.261262e+01
2.500000e-06	-9.431619e-08	1.146676e-09	-6.356618e-01	7.376707e+01
2.510000e-06	-1.502402e-07	1.011927e-09	-1.012572e+00	6.488516e+01
2.520000e-06	-2.061101e-07	8.776485e-10	-1.389118e+00	5.596524e+01
2.530000e-06	-2.619070e-07	7.408897e-10	-1.765171e+00	4.700098e+01
2.540000e-06	-3.176221e-07	6.013280e-10	-2.140674e+00	3.798255e+01
2.550000e-06	-3.732095e-07	4.620294e-10	-2.515316e+00	2.889822e+01
2.560000e-06	-4.286883e-07	3.227792e-10	-2.889225e+00	1.973612e+01
2.570000e-06	-4.841000e-07	1.834162e-10	-3.262683e+00	1.048613e+01
2.580000e-06	-5.394342e-07	4.311505e-11	-3.635618e+00	1.141748e+00
2.590000e-06	-5.946629e-07	-9.891960e-11	-4.007843e+00	-8.298488e+00
2.600000e-06	-6.497785e-07	-2.445172e-10	-4.379305e+00	-1.783051e+01
2.610000e-06	-7.047266e-07	-3.916679e-10	-4.749638e+00	-2.744553e+01
2.620000e-06	-7.594548e-07	-5.385016e-10	-5.118489e+00	-3.713220e+01
2.630000e-06	-8.138599e-07	-6.859497e-10	-5.485162e+00	-4.687981e+01
2.640000e-06	-8.677681e-07	-8.363809e-10	-5.848487e+00	-5.668151e+01
2.650000e-06	-9.211589e-07	-9.890831e-10	-6.208324e+00	-6.653663e+01
2.660000e-06	-9.740371e-07	-1.141377e-09	-6.564707e+00	-7.645097e+01
2.670000e-06	-1.026330e-06	-1.292388e-09	-6.917142e+00	-8.643497e+01
2.680000e-06	-1.078092e-06	-1.443635e-09	-7.266006e+00	-9.649982e+01
2.690000e-06	-1.129479e-06	-1.598234e-09	-7.612340e+00	-1.066531e+02
2.700000e-06	-1.180523e-06	-1.755644e-09	-7.956359e+00	-1.168948e+02
2.710000e-06	-1.231142e-06	-1.913429e-09	-8.297513e+00	-1.272160e+02
2.720000e-06	-1.281309e-06	-2.070811e-09	-8.635622e+00	-1.375998e+02
2.730000e-06	-1.330983e-06	-2.230316e-09	-8.970409e+00	-1.480251e+02
2.740000e-06	-1.380099e-06	-2.391328e-09	-9.301439e+00	-1.584710e+02
2.750000e-06	-1.428620e-06	-2.550365e-09	-9.628452e+00	-1.689215e+02
2.760000e-06	-1.476368e-06	-2.705829e-09	-9.950259e+00	-1.793674e+02
2.770000e-06	-1.523265e-06	-2.860126e-09	-1.026633e+01	-1.898066e+02
2.780000e-06	-1.569486e-06	-3.018815e-09	-1.057785e+01	-2.002403e+02
2.790000e-06	-1.615235e-06	-3.181410e-09	-1.088618e+01	-2.106694e+02
2.800000e-06	-1.660622e-06	-3.343263e-09	-1.119207e+01	-2.210901e+02
2.810000e-06	-1.705552e-06	-3.501645e-09	-1.149489e+01	-2.314919e+02
2.820000e-06	-1.749892e-06	-3.657992e-09	-1.179373e+01	-2.418578e+02
2.830000e-06	-1.793674e-06	-3.815125e-09	-1.208881e+01	-2.521674e+02
2.840000e-06	-1.836990e-06	-3.972241e-09	-1.238074e+01	-2.624000e+02
2.850000e-06	-1.879817e-06	-4.126258e-09	-1.266938e+01	-2.725385e+02
2.860000e-06	-1.922062e-06	-4.277727e-09	-1.295410e+01	-2.825709e+02
2.870000e-06	-1.963702e-06	-4.429509e-09	-1.323474e+01	-2.924894e+02
2.880000e-06	-2.004718e-06	-4.582732e-09	-1.351118e+01	-3.022876e+02
2.890000e-06	-2.045042e-06	-4.733750e-09	-1.378295e+01	-3.119570e+02
2.900000e-06	-2.084687e-06	-4.879100e-09	-1.405014e+01	-3.214839e+02
2.910000e-06	-2.123703e-06	-5.021693e-09	-1.431310e+01	-3.308482e+02
2.920000e-06	-2.161958e-06	-5.164161e-09	-1.457092e+01	-3.400250e+02
2.930000e-06	-2.199213e-06	-5.303081e-09	-1.482201e+01	-3.489874e+02
2.940000e-06	-2.235423e-06	-5.434621e-09	-1.506606e+01	-3.577105e+02
