# Temperatura_=_16.64
# Concentracion g/m^3_=_18700.0
# C_Vs_to_Am_M_A/Vsm_=_65563218390.804596
# pendiente_HvsI_1/m_=_3716.3
# ordenada_HvsI_A/m_=_1297.0
# frecuencia_Hz_=_301075.9323335614

Tiempo_(s)	Campo_(V.s)	Magnetizacion_(V.s)	Campo_(kA/m)	Magnetizacion_(A/m)
0.000000e+00	-2.933435e-06	-7.408215e-09	-1.977641e+01	-4.835420e+02
1.000000e-08	-2.932473e-06	-7.405981e-09	-1.976992e+01	-4.832839e+02
2.000000e-08	-2.930405e-06	-7.401644e-09	-1.975598e+01	-4.829026e+02
3.000000e-08	-2.927038e-06	-7.395197e-09	-1.973329e+01	-4.824284e+02
4.000000e-08	-2.922688e-06	-7.385681e-09	-1.970395e+01	-4.818668e+02
5.000000e-08	-2.917533e-06	-7.371378e-09	-1.966920e+01	-4.811951e+02
6.000000e-08	-2.911464e-06	-7.345277e-09	-1.962829e+01	-4.803707e+02
7.000000e-08	-2.904393e-06	-7.316344e-09	-1.958062e+01	-4.793474e+02
8.000000e-08	-2.896254e-06	-7.344002e-09	-1.952574e+01	-4.780945e+02
9.000000e-08	-2.886803e-06	-7.384507e-09	-1.946203e+01	-4.766113e+02
1.000000e-07	-2.875773e-06	-7.317286e-09	-1.938767e+01	-4.749311e+02
1.100000e-07	-2.863617e-06	-7.139387e-09	-1.930572e+01	-4.731131e+02
1.200000e-07	-2.850812e-06	-7.145392e-09	-1.921939e+01	-4.712250e+02
1.300000e-07	-2.837080e-06	-7.311149e-09	-1.912681e+01	-4.693211e+02
1.400000e-07	-2.822136e-06	-7.175838e-09	-1.902606e+01	-4.674255e+02
1.500000e-07	-2.806013e-06	-7.006982e-09	-1.891736e+01	-4.655239e+02
1.600000e-07	-2.788696e-06	-7.149292e-09	-1.880062e+01	-4.635684e+02
1.700000e-07	-2.770273e-06	-7.164068e-09	-1.867642e+01	-4.614936e+02
1.800000e-07	-2.751050e-06	-6.942467e-09	-1.854682e+01	-4.592363e+02
1.900000e-07	-2.731128e-06	-6.977376e-09	-1.841251e+01	-4.567546e+02
2.000000e-07	-2.710260e-06	-7.028858e-09	-1.827182e+01	-4.540384e+02
2.100000e-07	-2.688475e-06	-6.800594e-09	-1.812495e+01	-4.511078e+02
2.200000e-07	-2.665923e-06	-6.801191e-09	-1.797292e+01	-4.480032e+02
2.300000e-07	-2.642440e-06	-6.908925e-09	-1.781460e+01	-4.447678e+02
2.400000e-07	-2.618148e-06	-6.720008e-09	-1.765083e+01	-4.414322e+02
2.500000e-07	-2.593022e-06	-6.622459e-09	-1.748144e+01	-4.380044e+02
2.600000e-07	-2.566642e-06	-6.668240e-09	-1.730359e+01	-4.344697e+02
2.700000e-07	-2.539056e-06	-6.569157e-09	-1.711762e+01	-4.307986e+02
2.800000e-07	-2.510665e-06	-6.504459e-09	-1.692621e+01	-4.269601e+02
2.900000e-07	-2.481449e-06	-6.450298e-09	-1.672924e+01	-4.229351e+02
3.000000e-07	-2.451344e-06	-6.356826e-09	-1.652629e+01	-4.187234e+02
3.100000e-07	-2.420508e-06	-6.345277e-09	-1.631840e+01	-4.143449e+02
3.200000e-07	-2.388891e-06	-6.275936e-09	-1.610525e+01	-4.098315e+02
3.300000e-07	-2.356557e-06	-6.135614e-09	-1.588726e+01	-4.052169e+02
3.400000e-07	-2.323637e-06	-6.104349e-09	-1.566532e+01	-4.005250e+02
3.500000e-07	-2.289820e-06	-6.046198e-09	-1.543734e+01	-3.957634e+02
3.600000e-07	-2.254746e-06	-5.936034e-09	-1.520087e+01	-3.909235e+02
3.700000e-07	-2.218628e-06	-5.904472e-09	-1.495737e+01	-3.859860e+02
3.800000e-07	-2.181847e-06	-5.805384e-09	-1.470941e+01	-3.809306e+02
3.900000e-07	-2.144437e-06	-5.689302e-09	-1.445720e+01	-3.757444e+02
4.000000e-07	-2.106290e-06	-5.656923e-09	-1.420003e+01	-3.704274e+02
4.100000e-07	-2.067346e-06	-5.583044e-09	-1.393748e+01	-3.649922e+02
4.200000e-07	-2.027627e-06	-5.454355e-09	-1.366970e+01	-3.594589e+02
4.300000e-07	-1.987336e-06	-5.378509e-09	-1.339807e+01	-3.538471e+02
4.400000e-07	-1.946546e-06	-5.313217e-09	-1.312307e+01	-3.481685e+02
4.500000e-07	-1.905012e-06	-5.219205e-09	-1.284306e+01	-3.424235e+02
4.600000e-07	-1.862556e-06	-5.125102e-09	-1.255684e+01	-3.366011e+02
4.700000e-07	-1.819156e-06	-5.028270e-09	-1.226425e+01	-3.306842e+02
4.800000e-07	-1.775011e-06	-4.940348e-09	-1.196663e+01	-3.246561e+02
4.900000e-07	-1.730362e-06	-4.859196e-09	-1.166563e+01	-3.185071e+02
5.000000e-07	-1.685234e-06	-4.766785e-09	-1.136138e+01	-3.122377e+02
5.100000e-07	-1.639522e-06	-4.649168e-09	-1.105320e+01	-3.058580e+02
5.200000e-07	-1.593177e-06	-4.547603e-09	-1.074076e+01	-2.993837e+02
5.300000e-07	-1.546251e-06	-4.457125e-09	-1.042440e+01	-2.928298e+02
5.400000e-07	-1.498727e-06	-4.359988e-09	-1.010400e+01	-2.862057e+02
5.500000e-07	-1.450698e-06	-4.256354e-09	-9.780208e+00	-2.795115e+02
5.600000e-07	-1.402304e-06	-4.147050e-09	-9.453944e+00	-2.727392e+02
5.700000e-07	-1.353498e-06	-4.047351e-09	-9.124908e+00	-2.658759e+02
5.800000e-07	-1.304125e-06	-3.947305e-09	-8.792054e+00	-2.589094e+02
5.900000e-07	-1.254000e-06	-3.832838e-09	-8.454124e+00	-2.518326e+02
6.000000e-07	-1.203015e-06	-3.712132e-09	-8.110392e+00	-2.446473e+02
6.100000e-07	-1.151336e-06	-3.605968e-09	-7.761987e+00	-2.373633e+02
6.200000e-07	-1.099215e-06	-3.499310e-09	-7.410604e+00	-2.299962e+02
6.300000e-07	-1.046750e-06	-3.385336e-09	-7.056897e+00	-2.225621e+02
6.400000e-07	-9.939937e-07	-3.267167e-09	-6.701231e+00	-2.150734e+02
6.500000e-07	-9.408784e-07	-3.150715e-09	-6.343143e+00	-2.075355e+02
6.600000e-07	-8.873611e-07	-3.040197e-09	-5.982344e+00	-1.999464e+02
6.700000e-07	-8.334847e-07	-2.926022e-09	-5.619124e+00	-1.922983e+02
6.800000e-07	-7.792810e-07	-2.803327e-09	-5.253697e+00	-1.845824e+02
6.900000e-07	-7.248671e-07	-2.674982e-09	-4.886854e+00	-1.767925e+02
7.000000e-07	-6.703239e-07	-2.555730e-09	-4.519139e+00	-1.689290e+02
7.100000e-07	-6.156249e-07	-2.437557e-09	-4.150373e+00	-1.609993e+02
7.200000e-07	-5.607483e-07	-2.313030e-09	-3.780410e+00	-1.530163e+02
7.300000e-07	-5.056551e-07	-2.186909e-09	-3.408987e+00	-1.449945e+02
7.400000e-07	-4.503366e-07	-2.066431e-09	-3.036045e+00	-1.369454e+02
7.500000e-07	-3.948088e-07	-1.948942e-09	-2.661692e+00	-1.288726e+02
7.600000e-07	-3.391063e-07	-1.824870e-09	-2.286161e+00	-1.207710e+02
7.700000e-07	-2.832656e-07	-1.694964e-09	-1.909699e+00	-1.126271e+02
7.800000e-07	-2.272736e-07	-1.564870e-09	-1.532216e+00	-1.044236e+02
7.900000e-07	-1.711693e-07	-1.440477e-09	-1.153976e+00	-9.614479e+01
8.000000e-07	-1.150180e-07	-1.314089e-09	-7.754195e-01	-8.778288e+01
8.100000e-07	-5.887291e-08	-1.183544e-09	-3.969049e-01	-7.934114e+01
8.200000e-07	-2.737059e-09	-1.051495e-09	-1.845250e-02	-7.083429e+01
8.300000e-07	5.339708e-08	-9.232907e-10	3.599884e-01	-6.228473e+01
8.400000e-07	1.094932e-07	-7.959456e-10	7.381727e-01	-5.371598e+01
8.500000e-07	1.655909e-07	-6.624581e-10	1.116368e+00	-4.514508e+01
8.600000e-07	2.217093e-07	-5.261080e-10	1.494703e+00	-3.657667e+01
8.700000e-07	2.777329e-07	-3.935152e-10	1.872399e+00	-2.800066e+01
8.800000e-07	3.336313e-07	-2.673513e-10	2.249250e+00	-1.939469e+01
8.900000e-07	3.893905e-07	-1.363072e-10	2.625163e+00	-1.073066e+01
9.000000e-07	4.449322e-07	1.386264e-12	2.999610e+00	-1.983391e+00
9.100000e-07	5.002513e-07	1.384451e-10	3.372557e+00	6.861367e+00
9.200000e-07	5.553517e-07	2.727860e-10	3.744028e+00	1.580247e+01
9.300000e-07	6.102648e-07	4.102058e-10	4.114237e+00	2.482391e+01
9.400000e-07	6.650261e-07	5.521066e-10	4.483422e+00	3.390040e+01
9.500000e-07	7.196021e-07	6.930934e-10	4.851359e+00	4.300600e+01
9.600000e-07	7.739713e-07	8.297982e-10	5.217901e+00	5.212293e+01
9.700000e-07	8.280843e-07	9.645918e-10	5.582716e+00	6.124735e+01
9.800000e-07	8.818908e-07	1.104325e-09	5.945465e+00	7.039006e+01
9.900000e-07	9.353445e-07	1.246477e-09	6.305834e+00	7.957184e+01
1.000000e-06	9.884087e-07	1.387509e-09	6.663579e+00	8.881520e+01
1.010000e-06	1.041098e-06	1.526736e-09	7.018796e+00	9.813545e+01
1.020000e-06	1.093450e-06	1.668151e-09	7.371739e+00	1.075344e+02
1.030000e-06	1.145432e-06	1.813012e-09	7.722186e+00	1.169989e+02
1.040000e-06	1.196886e-06	1.958315e-09	8.069073e+00	1.265052e+02
1.050000e-06	1.247642e-06	2.102236e-09	8.411258e+00	1.360263e+02
1.060000e-06	1.297646e-06	2.247091e-09	8.748375e+00	1.455407e+02
1.070000e-06	1.346966e-06	2.394323e-09	9.080875e+00	1.550383e+02
1.080000e-06	1.395772e-06	2.539759e-09	9.409908e+00	1.645221e+02
1.090000e-06	1.444209e-06	2.681627e-09	9.736458e+00	1.740036e+02
1.100000e-06	1.492212e-06	2.823256e-09	1.006008e+01	1.834958e+02
1.110000e-06	1.539692e-06	2.969369e-09	1.038018e+01	1.930053e+02
1.120000e-06	1.586616e-06	3.117543e-09	1.069653e+01	2.025265e+02
1.130000e-06	1.632986e-06	3.261958e-09	1.100914e+01	2.120418e+02
1.140000e-06	1.678767e-06	3.403156e-09	1.131778e+01	2.215255e+02
1.150000e-06	1.723939e-06	3.545005e-09	1.162232e+01	2.309514e+02
1.160000e-06	1.768649e-06	3.687904e-09	1.192375e+01	2.403007e+02
1.170000e-06	1.812996e-06	3.827883e-09	1.222272e+01	2.495660e+02
1.180000e-06	1.856817e-06	3.965916e-09	1.251815e+01	2.587510e+02
1.190000e-06	1.899833e-06	4.104084e-09	1.280815e+01	2.678651e+02
1.200000e-06	1.941821e-06	4.241987e-09	1.309122e+01	2.769154e+02
1.210000e-06	1.982875e-06	4.379185e-09	1.336799e+01	2.858991e+02
1.220000e-06	2.023321e-06	4.512627e-09	1.364067e+01	2.948005e+02
1.230000e-06	2.063247e-06	4.642362e-09	1.390984e+01	3.035915e+02
1.240000e-06	2.102501e-06	4.770747e-09	1.417448e+01	3.122389e+02
1.250000e-06	2.140993e-06	4.898540e-09	1.443398e+01	3.207118e+02
1.260000e-06	2.178675e-06	5.023036e-09	1.468803e+01	3.289895e+02
1.270000e-06	2.215632e-06	5.145023e-09	1.493718e+01	3.370646e+02
1.280000e-06	2.252086e-06	5.264867e-09	1.518294e+01	3.449405e+02
1.290000e-06	2.287945e-06	5.382302e-09	1.542470e+01	3.526256e+02
1.300000e-06	2.322755e-06	5.495178e-09	1.565938e+01	3.601252e+02
1.310000e-06	2.356362e-06	5.603242e-09	1.588594e+01	3.674354e+02
1.320000e-06	2.389085e-06	5.709531e-09	1.610656e+01	3.745423e+02
1.330000e-06	2.421090e-06	5.813776e-09	1.632232e+01	3.814255e+02
1.340000e-06	2.452350e-06	5.914357e-09	1.653307e+01	3.880660e+02
1.350000e-06	2.482808e-06	6.010551e-09	1.673841e+01	3.944543e+02
1.360000e-06	2.512400e-06	6.103536e-09	1.693791e+01	4.005953e+02
1.370000e-06	2.541239e-06	6.194305e-09	1.713233e+01	4.065078e+02
1.380000e-06	2.569412e-06	6.282251e-09	1.732227e+01	4.122179e+02
1.390000e-06	2.596590e-06	6.365544e-09	1.750549e+01	4.177495e+02
1.400000e-06	2.622504e-06	6.445060e-09	1.768020e+01	4.231147e+02
1.410000e-06	2.647338e-06	6.521989e-09	1.784762e+01	4.283089e+02
1.420000e-06	2.671259e-06	6.597043e-09	1.800889e+01	4.333117e+02
1.430000e-06	2.694260e-06	6.669678e-09	1.816396e+01	4.380948e+02
1.440000e-06	2.716375e-06	6.737883e-09	1.831305e+01	4.426325e+02
1.450000e-06	2.737644e-06	6.801371e-09	1.845644e+01	4.469116e+02
1.460000e-06	2.758120e-06	6.862560e-09	1.859448e+01	4.509360e+02
1.470000e-06	2.777751e-06	6.919850e-09	1.872683e+01	4.547239e+02
1.480000e-06	2.796357e-06	6.971019e-09	1.885227e+01	4.582997e+02
1.490000e-06	2.813964e-06	7.018704e-09	1.897097e+01	4.616817e+02
1.500000e-06	2.830567e-06	7.064705e-09	1.908290e+01	4.648724e+02
1.510000e-06	2.846032e-06	7.109211e-09	1.918716e+01	4.678559e+02
1.520000e-06	2.860375e-06	7.150047e-09	1.928386e+01	4.706018e+02
1.530000e-06	2.873692e-06	7.185923e-09	1.937364e+01	4.730771e+02
1.540000e-06	2.885966e-06	7.217214e-09	1.945638e+01	4.752599e+02
1.550000e-06	2.896965e-06	7.245333e-09	1.953054e+01	4.771507e+02
1.560000e-06	2.906626e-06	7.270735e-09	1.959567e+01	4.787755e+02
1.570000e-06	2.915225e-06	7.292402e-09	1.965364e+01	4.801802e+02
1.580000e-06	2.922903e-06	7.310899e-09	1.970541e+01	4.814169e+02
1.590000e-06	2.929585e-06	7.328075e-09	1.975045e+01	4.825278e+02
1.600000e-06	2.935256e-06	7.344052e-09	1.978869e+01	4.835323e+02
1.610000e-06	2.940059e-06	7.357488e-09	1.982107e+01	4.844225e+02
1.620000e-06	2.944034e-06	7.367753e-09	1.984787e+01	4.851681e+02
1.630000e-06	2.946778e-06	7.376128e-09	1.986636e+01	4.857305e+02
1.640000e-06	2.948178e-06	7.383337e-09	1.987580e+01	4.860793e+02
1.650000e-06	2.948578e-06	7.387963e-09	1.987850e+01	4.862055e+02
1.660000e-06	2.948089e-06	7.387773e-09	1.987520e+01	4.861257e+02
1.670000e-06	2.946684e-06	7.382727e-09	1.986573e+01	4.858771e+02
1.680000e-06	2.944345e-06	7.377219e-09	1.984996e+01	4.855024e+02
1.690000e-06	2.941162e-06	7.371119e-09	1.982851e+01	4.850335e+02
1.700000e-06	2.937159e-06	7.363433e-09	1.980151e+01	4.844777e+02
1.710000e-06	2.932074e-06	7.356218e-09	1.976724e+01	4.838142e+02
1.720000e-06	2.925798e-06	7.364272e-09	1.972492e+01	4.830014e+02
1.730000e-06	2.918626e-06	7.347597e-09	1.967657e+01	4.819926e+02
1.740000e-06	2.910545e-06	7.253288e-09	1.962209e+01	4.807557e+02
1.750000e-06	2.900965e-06	7.189162e-09	1.955750e+01	4.792873e+02
1.760000e-06	2.889676e-06	7.301698e-09	1.948140e+01	4.776185e+02
1.770000e-06	2.877495e-06	7.350180e-09	1.939928e+01	4.758072e+02
1.780000e-06	2.865190e-06	7.175498e-09	1.931632e+01	4.739211e+02
1.790000e-06	2.852046e-06	7.061948e-09	1.922771e+01	4.720163e+02
1.800000e-06	2.837158e-06	7.219107e-09	1.912734e+01	4.701192e+02
1.810000e-06	2.821124e-06	7.178017e-09	1.901924e+01	4.682183e+02
1.820000e-06	2.804565e-06	6.939167e-09	1.890760e+01	4.662679e+02
1.830000e-06	2.786969e-06	7.064288e-09	1.878898e+01	4.642029e+02
1.840000e-06	2.768186e-06	7.128583e-09	1.866235e+01	4.619595e+02
1.850000e-06	2.748721e-06	6.863578e-09	1.853112e+01	4.594937e+02
1.860000e-06	2.728225e-06	6.906394e-09	1.839294e+01	4.567929e+02
1.870000e-06	2.706252e-06	7.046467e-09	1.824481e+01	4.538756e+02
1.880000e-06	2.683290e-06	6.793716e-09	1.809000e+01	4.507810e+02
1.890000e-06	2.659464e-06	6.722349e-09	1.792937e+01	4.475528e+02
1.900000e-06	2.634659e-06	6.850043e-09	1.776215e+01	4.442229e+02
1.910000e-06	2.609161e-06	6.710724e-09	1.759024e+01	4.408010e+02
1.920000e-06	2.582879e-06	6.613492e-09	1.741306e+01	4.372739e+02
1.930000e-06	2.555729e-06	6.636662e-09	1.723002e+01	4.336127e+02
1.940000e-06	2.527883e-06	6.513865e-09	1.704229e+01	4.297862e+02
1.950000e-06	2.498915e-06	6.506307e-09	1.684700e+01	4.257738e+02
1.960000e-06	2.468589e-06	6.454752e-09	1.664255e+01	4.215742e+02
1.970000e-06	2.437339e-06	6.268959e-09	1.643186e+01	4.172056e+02
1.980000e-06	2.405278e-06	6.309978e-09	1.621572e+01	4.126998e+02
1.990000e-06	2.372426e-06	6.267749e-09	1.599424e+01	4.080906e+02
2.000000e-06	2.338869e-06	6.085531e-09	1.576801e+01	4.034029e+02
2.010000e-06	2.304500e-06	6.096139e-09	1.553630e+01	3.986455e+02
2.020000e-06	2.269445e-06	6.014683e-09	1.529997e+01	3.938108e+02
2.030000e-06	2.233753e-06	5.869208e-09	1.505935e+01	3.888801e+02
2.040000e-06	2.197082e-06	5.886387e-09	1.481212e+01	3.838328e+02
2.050000e-06	2.159304e-06	5.787253e-09	1.455743e+01	3.786551e+02
2.060000e-06	2.120663e-06	5.652554e-09	1.429692e+01	3.733463e+02
2.070000e-06	2.081360e-06	5.619241e-09	1.403196e+01	3.679181e+02
2.080000e-06	2.041415e-06	5.532222e-09	1.376266e+01	3.623902e+02
2.090000e-06	2.000782e-06	5.438860e-09	1.348872e+01	3.567825e+02
2.100000e-06	1.959475e-06	5.347591e-09	1.321024e+01	3.511077e+02
2.110000e-06	1.917513e-06	5.252939e-09	1.292734e+01	3.453668e+02
2.120000e-06	1.874923e-06	5.189876e-09	1.264022e+01	3.395495e+02
2.130000e-06	1.831857e-06	5.097753e-09	1.234988e+01	3.336390e+02
2.140000e-06	1.788339e-06	4.992508e-09	1.205649e+01	3.276184e+02
2.150000e-06	1.744219e-06	4.894083e-09	1.175904e+01	3.214773e+02
2.160000e-06	1.699365e-06	4.803308e-09	1.145665e+01	3.152153e+02
2.170000e-06	1.653778e-06	4.722277e-09	1.114931e+01	3.088421e+02
2.180000e-06	1.607714e-06	4.614690e-09	1.083876e+01	3.023731e+02
2.190000e-06	1.561216e-06	4.512226e-09	1.052529e+01	2.958236e+02
2.200000e-06	1.514159e-06	4.415812e-09	1.020804e+01	2.892034e+02
2.210000e-06	1.466490e-06	4.307497e-09	9.886668e+00	2.825136e+02
2.220000e-06	1.418117e-06	4.217383e-09	9.560555e+00	2.757463e+02
2.230000e-06	1.369152e-06	4.101870e-09	9.230447e+00	2.688891e+02
2.240000e-06	1.319721e-06	3.989340e-09	8.897193e+00	2.619294e+02
2.250000e-06	1.269842e-06	3.901631e-09	8.560922e+00	2.548596e+02
2.260000e-06	1.219460e-06	3.789680e-09	8.221261e+00	2.476809e+02
2.270000e-06	1.168565e-06	3.674943e-09	7.878140e+00	2.404026e+02
2.280000e-06	1.117309e-06	3.558806e-09	7.532586e+00	2.330400e+02
2.290000e-06	1.065683e-06	3.445240e-09	7.184543e+00	2.256092e+02
2.300000e-06	1.013593e-06	3.339782e-09	6.833367e+00	2.181233e+02
2.310000e-06	9.609241e-07	3.222710e-09	6.478285e+00	2.105880e+02
2.320000e-06	9.076204e-07	3.103645e-09	6.118926e+00	2.030018e+02
2.330000e-06	8.538167e-07	2.988365e-09	5.756197e+00	1.953574e+02
2.340000e-06	7.995603e-07	2.874574e-09	5.390415e+00	1.876456e+02
2.350000e-06	7.448666e-07	2.759938e-09	5.021685e+00	1.798603e+02
2.360000e-06	6.899227e-07	2.635605e-09	4.651268e+00	1.720009e+02
2.370000e-06	6.348498e-07	2.516559e-09	4.279982e+00	1.640746e+02
2.380000e-06	5.796403e-07	2.401637e-09	3.907775e+00	1.560940e+02
2.390000e-06	5.243263e-07	2.280375e-09	3.534863e+00	1.480737e+02
2.400000e-06	4.689239e-07	2.156349e-09	3.161355e+00	1.400254e+02
2.410000e-06	4.134030e-07	2.027405e-09	2.787049e+00	1.319535e+02
2.420000e-06	3.577417e-07	1.904710e-09	2.411796e+00	1.238534e+02
2.430000e-06	3.020059e-07	1.784597e-09	2.036041e+00	1.157122e+02
2.440000e-06	2.462246e-07	1.660222e-09	1.659978e+00	1.075126e+02
2.450000e-06	1.903680e-07	1.534942e-09	1.283409e+00	9.923866e+01
2.460000e-06	1.344371e-07	1.407927e-09	9.063376e-01	9.088182e+01
2.470000e-06	7.842093e-08	1.282469e-09	5.286923e-01	8.244451e+01
2.480000e-06	2.237686e-08	1.154336e-09	1.508586e-01	7.394072e+01
2.490000e-06	-3.363617e-08	1.021879e-09	-2.267658e-01	6.539250e+01
2.500000e-06	-8.961999e-08	8.893137e-10	-6.041932e-01	5.682354e+01
2.510000e-06	-1.455476e-07	7.601062e-10	-9.812419e-01	4.825157e+01
2.520000e-06	-2.014125e-07	6.321290e-10	-1.357867e+00	3.968223e+01
2.530000e-06	-2.572296e-07	4.992194e-10	-1.734171e+00	3.110649e+01
2.540000e-06	-3.129769e-07	3.627091e-10	-2.110004e+00	2.250267e+01
2.550000e-06	-3.685836e-07	2.316049e-10	-2.484889e+00	1.384280e+01
2.560000e-06	-4.240341e-07	1.044986e-10	-2.858721e+00	5.101221e+00
2.570000e-06	-4.793997e-07	-2.668740e-11	-3.231980e+00	-3.737323e+00
2.580000e-06	-5.347122e-07	-1.626161e-10	-3.604882e+00	-1.267282e+01
2.590000e-06	-5.899365e-07	-3.023746e-10	-3.977189e+00	-2.169020e+01
2.600000e-06	-6.450461e-07	-4.425864e-10	-4.348723e+00	-3.076457e+01
2.610000e-06	-7.000244e-07	-5.825468e-10	-4.719371e+00	-3.986972e+01
2.620000e-06	-7.548301e-07	-7.211399e-10	-5.088857e+00	-4.898705e+01
2.630000e-06	-8.093553e-07	-8.596432e-10	-5.456450e+00	-5.811164e+01
2.640000e-06	-8.634029e-07	-9.975589e-10	-5.820824e+00	-6.725333e+01
2.650000e-06	-9.168992e-07	-1.135634e-09	-6.181481e+00	-7.643244e+01
2.660000e-06	-9.698121e-07	-1.277240e-09	-6.538206e+00	-8.567167e+01
2.670000e-06	-1.022114e-06	-1.421197e-09	-6.890808e+00	-9.498709e+01
2.680000e-06	-1.073903e-06	-1.567732e-09	-7.239955e+00	-1.043816e+02
2.690000e-06	-1.125261e-06	-1.714550e-09	-7.586199e+00	-1.138431e+02
2.700000e-06	-1.176301e-06	-1.859651e-09	-7.930297e+00	-1.233482e+02
2.710000e-06	-1.227012e-06	-2.003850e-09	-8.272179e+00	-1.328699e+02
2.720000e-06	-1.277239e-06	-2.147691e-09	-8.610791e+00	-1.423862e+02
2.730000e-06	-1.326942e-06	-2.291125e-09	-8.945875e+00	-1.518860e+02
2.740000e-06	-1.376132e-06	-2.435188e-09	-9.277504e+00	-1.613713e+02
2.750000e-06	-1.424680e-06	-2.581376e-09	-9.604803e+00	-1.708534e+02
2.760000e-06	-1.472481e-06	-2.727407e-09	-9.927058e+00	-1.803454e+02
2.770000e-06	-1.519457e-06	-2.871979e-09	-1.024376e+01	-1.898546e+02
2.780000e-06	-1.565753e-06	-3.016539e-09	-1.055587e+01	-1.993764e+02
2.790000e-06	-1.611582e-06	-3.162234e-09	-1.086484e+01	-2.088938e+02
2.800000e-06	-1.656997e-06	-3.308537e-09	-1.117102e+01	-2.183815e+02
2.810000e-06	-1.701971e-06	-3.454437e-09	-1.147422e+01	-2.278132e+02
2.820000e-06	-1.746368e-06	-3.598100e-09	-1.177353e+01	-2.371692e+02
2.830000e-06	-1.790161e-06	-3.739749e-09	-1.206877e+01	-2.464415e+02
2.840000e-06	-1.833506e-06	-3.881905e-09	-1.236099e+01	-2.556328e+02
2.850000e-06	-1.876445e-06	-4.023431e-09	-1.265047e+01	-2.647526e+02
2.860000e-06	-1.918782e-06	-4.161040e-09	-1.293590e+01	-2.738082e+02
2.870000e-06	-1.960450e-06	-4.296418e-09	-1.321681e+01	-2.827980e+02
2.880000e-06	-2.001464e-06	-4.434980e-09	-1.349332e+01	-2.917069e+02
2.890000e-06	-2.041799e-06	-4.575606e-09	-1.376525e+01	-3.005079e+02
2.900000e-06	-2.081504e-06	-4.712146e-09	-1.403293e+01	-3.091675e+02
2.910000e-06	-2.120586e-06	-4.841989e-09	-1.429641e+01	-3.176546e+02
2.920000e-06	-2.158883e-06	-4.968859e-09	-1.455459e+01	-3.259476e+02
2.930000e-06	-2.196125e-06	-5.094624e-09	-1.480567e+01	-3.340380e+02
2.940000e-06	-2.232330e-06	-5.216138e-09	-1.504976e+01	-3.419288e+02
