# Temperatura_=_18.2
# Concentracion g/m^3_=_18700.0
# C_Vs_to_Am_M_A/Vsm_=_65563218390.804596
# pendiente_HvsI_1/m_=_3716.3
# ordenada_HvsI_A/m_=_1297.0
# frecuencia_Hz_=_301077.88500163873

Tiempo_(s)	Campo_(V.s)	Magnetizacion_(V.s)	Campo_(kA/m)	Magnetizacion_(A/m)
0.000000e+00	-2.929834e-06	-7.535740e-09	-1.977366e+01	-4.918526e+02
1.000000e-08	-2.928766e-06	-7.533976e-09	-1.976645e+01	-4.917045e+02
2.000000e-08	-2.926641e-06	-7.529381e-09	-1.975211e+01	-4.913855e+02
3.000000e-08	-2.923279e-06	-7.523240e-09	-1.972942e+01	-4.909042e+02
4.000000e-08	-2.918897e-06	-7.515014e-09	-1.969984e+01	-4.902698e+02
5.000000e-08	-2.913700e-06	-7.501423e-09	-1.966477e+01	-4.894891e+02
6.000000e-08	-2.907632e-06	-7.472895e-09	-1.962382e+01	-4.885629e+02
7.000000e-08	-2.900603e-06	-7.442128e-09	-1.957638e+01	-4.874865e+02
8.000000e-08	-2.892538e-06	-7.471528e-09	-1.952195e+01	-4.862521e+02
9.000000e-08	-2.883088e-06	-7.511136e-09	-1.945817e+01	-4.848548e+02
1.000000e-07	-2.872034e-06	-7.433651e-09	-1.938356e+01	-4.832978e+02
1.100000e-07	-2.859877e-06	-7.261607e-09	-1.930152e+01	-4.815964e+02
1.200000e-07	-2.847039e-06	-7.282045e-09	-1.921487e+01	-4.797774e+02
1.300000e-07	-2.833320e-06	-7.451577e-09	-1.912228e+01	-4.778733e+02
1.400000e-07	-2.818401e-06	-7.294622e-09	-1.902159e+01	-4.759141e+02
1.500000e-07	-2.802378e-06	-7.148110e-09	-1.891345e+01	-4.739169e+02
1.600000e-07	-2.785225e-06	-7.299029e-09	-1.879769e+01	-4.718790e+02
1.700000e-07	-2.766862e-06	-7.281970e-09	-1.867375e+01	-4.697758e+02
1.800000e-07	-2.747646e-06	-7.082518e-09	-1.854406e+01	-4.675658e+02
1.900000e-07	-2.727739e-06	-7.125213e-09	-1.840971e+01	-4.652009e+02
2.000000e-07	-2.706942e-06	-7.158492e-09	-1.826935e+01	-4.626384e+02
2.100000e-07	-2.685235e-06	-6.939375e-09	-1.812284e+01	-4.598522e+02
2.200000e-07	-2.662700e-06	-6.958440e-09	-1.797075e+01	-4.568381e+02
2.300000e-07	-2.639262e-06	-7.055561e-09	-1.781257e+01	-4.536128e+02
2.400000e-07	-2.614991e-06	-6.866301e-09	-1.764876e+01	-4.502056e+02
2.500000e-07	-2.589901e-06	-6.762726e-09	-1.747943e+01	-4.466481e+02
2.600000e-07	-2.563593e-06	-6.796985e-09	-1.730187e+01	-4.429634e+02
2.700000e-07	-2.536038e-06	-6.708668e-09	-1.711591e+01	-4.391604e+02
2.800000e-07	-2.507634e-06	-6.649325e-09	-1.692420e+01	-4.352342e+02
2.900000e-07	-2.478413e-06	-6.572580e-09	-1.672699e+01	-4.311715e+02
3.000000e-07	-2.448334e-06	-6.496982e-09	-1.652398e+01	-4.269600e+02
3.100000e-07	-2.417470e-06	-6.499668e-09	-1.631568e+01	-4.225966e+02
3.200000e-07	-2.385796e-06	-6.405673e-09	-1.610191e+01	-4.180906e+02
3.300000e-07	-2.353471e-06	-6.276284e-09	-1.588374e+01	-4.134628e+02
3.400000e-07	-2.320594e-06	-6.242558e-09	-1.566185e+01	-4.087378e+02
3.500000e-07	-2.286775e-06	-6.164269e-09	-1.543361e+01	-4.039356e+02
3.600000e-07	-2.251724e-06	-6.066782e-09	-1.519705e+01	-3.990640e+02
3.700000e-07	-2.215670e-06	-6.052058e-09	-1.495372e+01	-3.941158e+02
3.800000e-07	-2.178947e-06	-5.936822e-09	-1.470587e+01	-3.890721e+02
3.900000e-07	-2.141570e-06	-5.827104e-09	-1.445361e+01	-3.839103e+02
4.000000e-07	-2.103429e-06	-5.804301e-09	-1.419619e+01	-3.786135e+02
4.100000e-07	-2.064508e-06	-5.713405e-09	-1.393352e+01	-3.731779e+02
4.200000e-07	-2.024837e-06	-5.576719e-09	-1.366577e+01	-3.676146e+02
4.300000e-07	-1.984588e-06	-5.503228e-09	-1.339413e+01	-3.619462e+02
4.400000e-07	-1.943865e-06	-5.442632e-09	-1.311928e+01	-3.561978e+02
4.500000e-07	-1.902440e-06	-5.356134e-09	-1.283970e+01	-3.503873e+02
4.600000e-07	-1.860063e-06	-5.265180e-09	-1.255370e+01	-3.445186e+02
4.700000e-07	-1.816705e-06	-5.156928e-09	-1.226108e+01	-3.385796e+02
4.800000e-07	-1.772582e-06	-5.064998e-09	-1.196329e+01	-3.325473e+02
4.900000e-07	-1.727963e-06	-4.979995e-09	-1.166214e+01	-3.263968e+02
5.000000e-07	-1.682878e-06	-4.884005e-09	-1.135787e+01	-3.201111e+02
5.100000e-07	-1.637179e-06	-4.770416e-09	-1.104944e+01	-3.136884e+02
5.200000e-07	-1.590833e-06	-4.672522e-09	-1.073664e+01	-3.071430e+02
5.300000e-07	-1.543935e-06	-4.582754e-09	-1.042013e+01	-3.005003e+02
5.400000e-07	-1.496458e-06	-4.486127e-09	-1.009970e+01	-2.937875e+02
5.500000e-07	-1.448453e-06	-4.377472e-09	-9.775714e+00	-2.870236e+02
5.600000e-07	-1.400059e-06	-4.257044e-09	-9.449096e+00	-2.802127e+02
5.700000e-07	-1.351258e-06	-4.161017e-09	-9.119739e+00	-2.733430e+02
5.800000e-07	-1.301849e-06	-4.066790e-09	-8.786276e+00	-2.663920e+02
5.900000e-07	-1.251649e-06	-3.953467e-09	-8.447468e+00	-2.593357e+02
6.000000e-07	-1.200725e-06	-3.831948e-09	-8.103779e+00	-2.521581e+02
6.100000e-07	-1.149190e-06	-3.723971e-09	-7.755967e+00	-2.448578e+02
6.200000e-07	-1.097156e-06	-3.616943e-09	-7.404786e+00	-2.374479e+02
6.300000e-07	-1.044752e-06	-3.501714e-09	-7.051104e+00	-2.299521e+02
6.400000e-07	-9.920255e-07	-3.379154e-09	-6.695252e+00	-2.223952e+02
6.500000e-07	-9.389217e-07	-3.257718e-09	-6.336850e+00	-2.147955e+02
6.600000e-07	-8.854135e-07	-3.148832e-09	-5.975720e+00	-2.071591e+02
6.700000e-07	-8.315755e-07	-3.036347e-09	-5.612363e+00	-1.994803e+02
6.800000e-07	-7.774377e-07	-2.914916e-09	-5.246983e+00	-1.917463e+02
6.900000e-07	-7.230800e-07	-2.786476e-09	-4.880119e+00	-1.839453e+02
7.000000e-07	-6.685967e-07	-2.666014e-09	-4.512407e+00	-1.760728e+02
7.100000e-07	-6.139495e-07	-2.546535e-09	-4.143590e+00	-1.681350e+02
7.200000e-07	-5.591014e-07	-2.420335e-09	-3.773416e+00	-1.601468e+02
7.300000e-07	-5.040698e-07	-2.292633e-09	-3.402003e+00	-1.521255e+02
7.400000e-07	-4.488066e-07	-2.170937e-09	-3.029028e+00	-1.440827e+02
7.500000e-07	-3.932453e-07	-2.056427e-09	-2.654041e+00	-1.360183e+02
7.600000e-07	-3.374755e-07	-1.934019e-09	-2.277647e+00	-1.279184e+02
7.700000e-07	-2.816250e-07	-1.801891e-09	-1.900707e+00	-1.197595e+02
7.800000e-07	-2.256666e-07	-1.669227e-09	-1.523040e+00	-1.115161e+02
7.900000e-07	-1.695966e-07	-1.544199e-09	-1.144620e+00	-1.031705e+02
8.000000e-07	-1.134924e-07	-1.417339e-09	-7.659685e-01	-9.471968e+01
8.100000e-07	-5.737784e-08	-1.285059e-09	-3.872472e-01	-8.617748e+01
8.200000e-07	-1.253980e-09	-1.150571e-09	-8.463203e-03	-7.757046e+01
8.300000e-07	5.484827e-08	-1.020003e-09	3.701749e-01	-6.892924e+01
8.400000e-07	1.109030e-07	-8.919566e-10	7.484922e-01	-6.027826e+01
8.500000e-07	1.669252e-07	-7.563736e-10	1.126590e+00	-5.162753e+01
8.600000e-07	2.229095e-07	-6.165147e-10	1.504432e+00	-4.296946e+01
8.700000e-07	2.788394e-07	-4.812777e-10	1.881907e+00	-3.428173e+01
8.800000e-07	3.346598e-07	-3.533309e-10	2.258643e+00	-2.553496e+01
8.900000e-07	3.903324e-07	-2.212022e-10	2.634381e+00	-1.670254e+01
9.000000e-07	4.458671e-07	-8.214938e-11	3.009189e+00	-7.768838e+00
9.100000e-07	5.012168e-07	5.909532e-11	3.382749e+00	1.266687e+00
9.200000e-07	5.563363e-07	1.988552e-10	3.754754e+00	1.039088e+01
9.300000e-07	6.112484e-07	3.383547e-10	4.125359e+00	1.958274e+01
9.400000e-07	6.659672e-07	4.801883e-10	4.494660e+00	2.882146e+01
9.500000e-07	7.204988e-07	6.225396e-10	4.862698e+00	3.809360e+01
9.600000e-07	7.748721e-07	7.637604e-10	5.229668e+00	4.739691e+01
9.700000e-07	8.290241e-07	9.017441e-10	5.595144e+00	5.673981e+01
9.800000e-07	8.828287e-07	1.042994e-09	5.958274e+00	6.613710e+01
9.900000e-07	9.362177e-07	1.189732e-09	6.318601e+00	7.560370e+01
1.000000e-06	9.892371e-07	1.338687e-09	6.676433e+00	8.514889e+01
1.010000e-06	1.041902e-06	1.485186e-09	7.031875e+00	9.477300e+01
1.020000e-06	1.094209e-06	1.629875e-09	7.384897e+00	1.044674e+02
1.030000e-06	1.146120e-06	1.776721e-09	7.735244e+00	1.142172e+02
1.040000e-06	1.197466e-06	1.924614e-09	8.081784e+00	1.240059e+02
1.050000e-06	1.248082e-06	2.072768e-09	8.423397e+00	1.338194e+02
1.060000e-06	1.297914e-06	2.221845e-09	8.759717e+00	1.436483e+02
1.070000e-06	1.347064e-06	2.373190e-09	9.091432e+00	1.534885e+02
1.080000e-06	1.395774e-06	2.525372e-09	9.420180e+00	1.633393e+02
1.090000e-06	1.444142e-06	2.676389e-09	9.746621e+00	1.732010e+02
1.100000e-06	1.492073e-06	2.825860e-09	1.007011e+01	1.830721e+02
1.110000e-06	1.539502e-06	2.975518e-09	1.039021e+01	1.929481e+02
1.120000e-06	1.586396e-06	3.127083e-09	1.070670e+01	2.028211e+02
1.130000e-06	1.632734e-06	3.277778e-09	1.101944e+01	2.126805e+02
1.140000e-06	1.678439e-06	3.425916e-09	1.132790e+01	2.225142e+02
1.150000e-06	1.723564e-06	3.573357e-09	1.163246e+01	2.323099e+02
1.160000e-06	1.768278e-06	3.721708e-09	1.193423e+01	2.420550e+02
1.170000e-06	1.812611e-06	3.869460e-09	1.223344e+01	2.517377e+02
1.180000e-06	1.856383e-06	4.016298e-09	1.252886e+01	2.613464e+02
1.190000e-06	1.899310e-06	4.161978e-09	1.281858e+01	2.708698e+02
1.200000e-06	1.941249e-06	4.306757e-09	1.310163e+01	2.802971e+02
1.210000e-06	1.982336e-06	4.449541e-09	1.337893e+01	2.896183e+02
1.220000e-06	2.022770e-06	4.588331e-09	1.365182e+01	2.988237e+02
1.230000e-06	2.062570e-06	4.722616e-09	1.392043e+01	3.079035e+02
1.240000e-06	2.101734e-06	4.853044e-09	1.418476e+01	3.168464e+02
1.250000e-06	2.140197e-06	4.985020e-09	1.444435e+01	3.256388e+02
1.260000e-06	2.177827e-06	5.117749e-09	1.469831e+01	3.342635e+02
1.270000e-06	2.214739e-06	5.248155e-09	1.494743e+01	3.427008e+02
1.280000e-06	2.251148e-06	5.373402e-09	1.519316e+01	3.509294e+02
1.290000e-06	2.286899e-06	5.494069e-09	1.543445e+01	3.589299e+02
1.300000e-06	2.321611e-06	5.611052e-09	1.566872e+01	3.666867e+02
1.310000e-06	2.355172e-06	5.723431e-09	1.589523e+01	3.741912e+02
1.320000e-06	2.387838e-06	5.829909e-09	1.611569e+01	3.814421e+02
1.330000e-06	2.419777e-06	5.931472e-09	1.633125e+01	3.884443e+02
1.340000e-06	2.450968e-06	6.032253e-09	1.654176e+01	3.952067e+02
1.350000e-06	2.481391e-06	6.132782e-09	1.674709e+01	4.017387e+02
1.360000e-06	2.510990e-06	6.230545e-09	1.694685e+01	4.080475e+02
1.370000e-06	2.539820e-06	6.323352e-09	1.714143e+01	4.141361e+02
1.380000e-06	2.567920e-06	6.412809e-09	1.733108e+01	4.200039e+02
1.390000e-06	2.595017e-06	6.499392e-09	1.751396e+01	4.256474e+02
1.400000e-06	2.620845e-06	6.580990e-09	1.768827e+01	4.310628e+02
1.410000e-06	2.645573e-06	6.655267e-09	1.785516e+01	4.362478e+02
1.420000e-06	2.669407e-06	6.724632e-09	1.801602e+01	4.412022e+02
1.430000e-06	2.692342e-06	6.793278e-09	1.817081e+01	4.459280e+02
1.440000e-06	2.714337e-06	6.862118e-09	1.831926e+01	4.504281e+02
1.450000e-06	2.735480e-06	6.929733e-09	1.846195e+01	4.547042e+02
1.460000e-06	2.755920e-06	6.993236e-09	1.859990e+01	4.587566e+02
1.470000e-06	2.775499e-06	7.050894e-09	1.873204e+01	4.625831e+02
1.480000e-06	2.793987e-06	7.102109e-09	1.885682e+01	4.661805e+02
1.490000e-06	2.811503e-06	7.147357e-09	1.897504e+01	4.695451e+02
1.500000e-06	2.828085e-06	7.188797e-09	1.908695e+01	4.726744e+02
1.510000e-06	2.843509e-06	7.228471e-09	1.919105e+01	4.755678e+02
1.520000e-06	2.857795e-06	7.267478e-09	1.928747e+01	4.782265e+02
1.530000e-06	2.871059e-06	7.304094e-09	1.937698e+01	4.806535e+02
1.540000e-06	2.883281e-06	7.336922e-09	1.945947e+01	4.828531e+02
1.550000e-06	2.894261e-06	7.367716e-09	1.953357e+01	4.848307e+02
1.560000e-06	2.903899e-06	7.395427e-09	1.959862e+01	4.865933e+02
1.570000e-06	2.912470e-06	7.418588e-09	1.965647e+01	4.881500e+02
1.580000e-06	2.920098e-06	7.437821e-09	1.970795e+01	4.895119e+02
1.590000e-06	2.926712e-06	7.453844e-09	1.975259e+01	4.906916e+02
1.600000e-06	2.932316e-06	7.467875e-09	1.979041e+01	4.917014e+02
1.610000e-06	2.937052e-06	7.480049e-09	1.982237e+01	4.925511e+02
1.620000e-06	2.940922e-06	7.490361e-09	1.984849e+01	4.932459e+02
1.630000e-06	2.943574e-06	7.499413e-09	1.986640e+01	4.937855e+02
1.640000e-06	2.944974e-06	7.507355e-09	1.987584e+01	4.941649e+02
1.650000e-06	2.945368e-06	7.513259e-09	1.987850e+01	4.943771e+02
1.660000e-06	2.944822e-06	7.514851e-09	1.987481e+01	4.944161e+02
1.670000e-06	2.943400e-06	7.511253e-09	1.986522e+01	4.942801e+02
1.680000e-06	2.941059e-06	7.505822e-09	1.984942e+01	4.939728e+02
1.690000e-06	2.937860e-06	7.499178e-09	1.982783e+01	4.935025e+02
1.700000e-06	2.933866e-06	7.490328e-09	1.980087e+01	4.928786e+02
1.710000e-06	2.928799e-06	7.483381e-09	1.976667e+01	4.921079e+02
1.720000e-06	2.922532e-06	7.494776e-09	1.972438e+01	4.911920e+02
1.730000e-06	2.915309e-06	7.471862e-09	1.967563e+01	4.901263e+02
1.740000e-06	2.907144e-06	7.376177e-09	1.962052e+01	4.889032e+02
1.750000e-06	2.897539e-06	7.317096e-09	1.955570e+01	4.875172e+02
1.760000e-06	2.886250e-06	7.446641e-09	1.947951e+01	4.859710e+02
1.770000e-06	2.874056e-06	7.481733e-09	1.939721e+01	4.842790e+02
1.780000e-06	2.861753e-06	7.293298e-09	1.931418e+01	4.824670e+02
1.790000e-06	2.848574e-06	7.205697e-09	1.922523e+01	4.805677e+02
1.800000e-06	2.833666e-06	7.354759e-09	1.912462e+01	4.786114e+02
1.810000e-06	2.817684e-06	7.293069e-09	1.901675e+01	4.766166e+02
1.820000e-06	2.801159e-06	7.063269e-09	1.890522e+01	4.745818e+02
1.830000e-06	2.783514e-06	7.200267e-09	1.878614e+01	4.724842e+02
1.840000e-06	2.764663e-06	7.232989e-09	1.865891e+01	4.702833e+02
1.850000e-06	2.745187e-06	6.963404e-09	1.852747e+01	4.679307e+02
1.860000e-06	2.724762e-06	7.040395e-09	1.838961e+01	4.653832e+02
1.870000e-06	2.702875e-06	7.158630e-09	1.824189e+01	4.626131e+02
1.880000e-06	2.679937e-06	6.896587e-09	1.808709e+01	4.596147e+02
1.890000e-06	2.656095e-06	6.857425e-09	1.792618e+01	4.564033e+02
1.900000e-06	2.631312e-06	6.972419e-09	1.775892e+01	4.530078e+02
1.910000e-06	2.605858e-06	6.834152e-09	1.758712e+01	4.494599e+02
1.920000e-06	2.579606e-06	6.739232e-09	1.740994e+01	4.457835e+02
1.930000e-06	2.552546e-06	6.738452e-09	1.722731e+01	4.419888e+02
1.940000e-06	2.524768e-06	6.631553e-09	1.703984e+01	4.380715e+02
1.950000e-06	2.495764e-06	6.627888e-09	1.684409e+01	4.340187e+02
1.960000e-06	2.465377e-06	6.547015e-09	1.663901e+01	4.298179e+02
1.970000e-06	2.434122e-06	6.380856e-09	1.642807e+01	4.254649e+02
1.980000e-06	2.402106e-06	6.434132e-09	1.621199e+01	4.209683e+02
1.990000e-06	2.369283e-06	6.360974e-09	1.599046e+01	4.163481e+02
2.000000e-06	2.335720e-06	6.205670e-09	1.576394e+01	4.116291e+02
2.010000e-06	2.301361e-06	6.225069e-09	1.553205e+01	4.068317e+02
2.020000e-06	2.266329e-06	6.108948e-09	1.529562e+01	4.019649e+02
2.030000e-06	2.230665e-06	5.978454e-09	1.505492e+01	3.970224e+02
2.040000e-06	2.193970e-06	5.999466e-09	1.480726e+01	3.919860e+02
2.050000e-06	2.156171e-06	5.879813e-09	1.455215e+01	3.868331e+02
2.060000e-06	2.117508e-06	5.762648e-09	1.429122e+01	3.815460e+02
2.070000e-06	2.078172e-06	5.740770e-09	1.402573e+01	3.761198e+02
2.080000e-06	2.038236e-06	5.648144e-09	1.375620e+01	3.705648e+02
2.090000e-06	1.997592e-06	5.556876e-09	1.348189e+01	3.649028e+02
2.100000e-06	1.956287e-06	5.453945e-09	1.320312e+01	3.591591e+02
2.110000e-06	1.914340e-06	5.353595e-09	1.292002e+01	3.533525e+02
2.120000e-06	1.871756e-06	5.295547e-09	1.263261e+01	3.474879e+02
2.130000e-06	1.828625e-06	5.204379e-09	1.234152e+01	3.415543e+02
2.140000e-06	1.785023e-06	5.107238e-09	1.204725e+01	3.355293e+02
2.150000e-06	1.740923e-06	5.015489e-09	1.174961e+01	3.293877e+02
2.160000e-06	1.696146e-06	4.918271e-09	1.144741e+01	3.231117e+02
2.170000e-06	1.650624e-06	4.828432e-09	1.114018e+01	3.166983e+02
2.180000e-06	1.604548e-06	4.721848e-09	1.082921e+01	3.101606e+02
2.190000e-06	1.558080e-06	4.617231e-09	1.051559e+01	3.035237e+02
2.200000e-06	1.511095e-06	4.518789e-09	1.019849e+01	2.968148e+02
2.210000e-06	1.463403e-06	4.416614e-09	9.876609e+00	2.900540e+02
2.220000e-06	1.414973e-06	4.326411e-09	9.549753e+00	2.832464e+02
2.230000e-06	1.365989e-06	4.204623e-09	9.219158e+00	2.763813e+02
2.240000e-06	1.316579e-06	4.090834e-09	8.885685e+00	2.694367e+02
2.250000e-06	1.266732e-06	4.002106e-09	8.549267e+00	2.623883e+02
2.260000e-06	1.216418e-06	3.890570e-09	8.209690e+00	2.552195e+02
2.270000e-06	1.165632e-06	3.779946e-09	7.866936e+00	2.479273e+02
2.280000e-06	1.114470e-06	3.663400e-09	7.521640e+00	2.405244e+02
2.290000e-06	1.062946e-06	3.551333e-09	7.173899e+00	2.330335e+02
2.300000e-06	1.010935e-06	3.445553e-09	6.822870e+00	2.254800e+02
2.310000e-06	9.583459e-07	3.324326e-09	6.467945e+00	2.178828e+02
2.320000e-06	9.051592e-07	3.203238e-09	6.108984e+00	2.102488e+02
2.330000e-06	8.514457e-07	3.087550e-09	5.746468e+00	2.025732e+02
2.340000e-06	7.972576e-07	2.975166e-09	5.380749e+00	1.948434e+02
2.350000e-06	7.426811e-07	2.862301e-09	5.012408e+00	1.870472e+02
2.360000e-06	6.878232e-07	2.739333e-09	4.642168e+00	1.791794e+02
2.370000e-06	6.327319e-07	2.619813e-09	4.270353e+00	1.712456e+02
2.380000e-06	5.775150e-07	2.504421e-09	3.897690e+00	1.632602e+02
2.390000e-06	5.222189e-07	2.383269e-09	3.524493e+00	1.552404e+02
2.400000e-06	4.668535e-07	2.259037e-09	3.150828e+00	1.471988e+02
2.410000e-06	4.113932e-07	2.129731e-09	2.776522e+00	1.391360e+02
2.420000e-06	3.558160e-07	2.008604e-09	2.401428e+00	1.310391e+02
2.430000e-06	3.001363e-07	1.891447e-09	2.025641e+00	1.228851e+02
2.440000e-06	2.443296e-07	1.768434e-09	1.648998e+00	1.146482e+02
2.450000e-06	1.884126e-07	1.642763e-09	1.271610e+00	1.063099e+02
2.460000e-06	1.325006e-07	1.512945e-09	8.942563e-01	9.786609e+01
2.470000e-06	7.657871e-08	1.385472e-09	5.168352e-01	8.932939e+01
2.480000e-06	2.063034e-08	1.256018e-09	1.392356e-01	8.072572e+01
2.490000e-06	-3.531137e-08	1.121618e-09	-2.383190e-01	7.208576e+01
2.500000e-06	-9.127871e-08	9.887189e-10	-6.160466e-01	6.343469e+01
2.510000e-06	-1.471856e-07	8.611903e-10	-9.933664e-01	5.478373e+01
2.520000e-06	-2.029839e-07	7.345884e-10	-1.369953e+00	4.612654e+01
2.530000e-06	-2.587090e-07	6.010341e-10	-1.746045e+00	3.744162e+01
2.540000e-06	-3.143727e-07	4.637876e-10	-2.121724e+00	2.869979e+01
2.550000e-06	-3.699372e-07	3.306388e-10	-2.496733e+00	1.987392e+01
2.560000e-06	-4.253747e-07	1.995025e-10	-2.870885e+00	1.094741e+01
2.570000e-06	-4.807369e-07	6.333055e-11	-3.244528e+00	1.918604e+00
2.580000e-06	-5.360385e-07	-7.705029e-11	-3.617762e+00	-7.200150e+00
2.590000e-06	-5.912542e-07	-2.190636e-10	-3.990417e+00	-1.638817e+01
2.600000e-06	-6.463342e-07	-3.597846e-10	-4.362156e+00	-2.562436e+01
2.610000e-06	-7.012184e-07	-5.010743e-10	-4.732573e+00	-3.489458e+01
2.620000e-06	-7.559241e-07	-6.431204e-10	-5.101786e+00	-4.419574e+01
2.630000e-06	-8.102934e-07	-7.848124e-10	-5.468728e+00	-5.353561e+01
2.640000e-06	-8.641439e-07	-9.265019e-10	-5.832169e+00	-6.292874e+01
2.650000e-06	-9.174099e-07	-1.069492e-09	-6.191666e+00	-7.239023e+01
2.660000e-06	-9.701124e-07	-1.216793e-09	-6.547358e+00	-8.192993e+01
2.670000e-06	-1.022306e-06	-1.366588e-09	-6.899618e+00	-9.154885e+01
2.680000e-06	-1.074042e-06	-1.516668e-09	-7.248789e+00	-1.012389e+02
2.690000e-06	-1.125434e-06	-1.665952e-09	-7.595636e+00	-1.109856e+02
2.700000e-06	-1.176468e-06	-1.815817e-09	-7.940070e+00	-1.207723e+02
2.710000e-06	-1.227099e-06	-1.965329e-09	-8.281780e+00	-1.305846e+02
2.720000e-06	-1.277248e-06	-2.113418e-09	-8.620238e+00	-1.404129e+02
2.730000e-06	-1.326876e-06	-2.261632e-09	-8.955179e+00	-1.502525e+02
2.740000e-06	-1.375996e-06	-2.412467e-09	-9.286696e+00	-1.601028e+02
2.750000e-06	-1.424464e-06	-2.566019e-09	-9.613810e+00	-1.699640e+02
2.760000e-06	-1.472120e-06	-2.717898e-09	-9.935444e+00	-1.798348e+02
2.770000e-06	-1.518979e-06	-2.867328e-09	-1.025170e+01	-1.897109e+02
2.780000e-06	-1.565217e-06	-3.016333e-09	-1.056376e+01	-1.995847e+02
2.790000e-06	-1.611039e-06	-3.165923e-09	-1.087302e+01	-2.094457e+02
2.800000e-06	-1.656505e-06	-3.314831e-09	-1.117987e+01	-2.192820e+02
2.810000e-06	-1.701471e-06	-3.464760e-09	-1.148335e+01	-2.290810e+02
2.820000e-06	-1.745782e-06	-3.616566e-09	-1.178241e+01	-2.388304e+02
2.830000e-06	-1.789529e-06	-3.767990e-09	-1.207766e+01	-2.485182e+02
2.840000e-06	-1.832822e-06	-3.917223e-09	-1.236985e+01	-2.581328e+02
2.850000e-06	-1.875616e-06	-4.062554e-09	-1.265866e+01	-2.676629e+02
2.860000e-06	-1.917817e-06	-4.204280e-09	-1.294348e+01	-2.770976e+02
2.870000e-06	-1.959423e-06	-4.344391e-09	-1.322429e+01	-2.864270e+02
2.880000e-06	-2.000390e-06	-4.485729e-09	-1.350077e+01	-2.956412e+02
2.890000e-06	-2.040615e-06	-4.627771e-09	-1.377226e+01	-3.047306e+02
2.900000e-06	-2.080211e-06	-4.768434e-09	-1.403950e+01	-3.136840e+02
2.910000e-06	-2.119281e-06	-4.906047e-09	-1.430318e+01	-3.224879e+02
2.920000e-06	-2.157519e-06	-5.040737e-09	-1.456125e+01	-3.311255e+02
2.930000e-06	-2.194664e-06	-5.171700e-09	-1.481194e+01	-3.395770e+02
2.940000e-06	-2.230831e-06	-5.297312e-09	-1.505604e+01	-3.478216e+02
