# Temperatura_=_29.24
# Concentracion g/m^3_=_18700.0
# C_Vs_to_Am_M_A/Vsm_=_65563218390.804596
# pendiente_HvsI_1/m_=_3716.3
# ordenada_HvsI_A/m_=_1297.0
# frecuencia_Hz_=_301070.30314981093

Tiempo_(s)	Campo_(V.s)	Magnetizacion_(V.s)	Campo_(kA/m)	Magnetizacion_(A/m)
0.000000e+00	-2.937555e-06	-7.914606e-09	-1.977357e+01	-5.169517e+02
1.000000e-08	-2.937129e-06	-7.913914e-09	-1.977070e+01	-5.168969e+02
2.000000e-08	-2.935866e-06	-7.910278e-09	-1.976220e+01	-5.166694e+02
3.000000e-08	-2.933485e-06	-7.904424e-09	-1.974617e+01	-5.162951e+02
4.000000e-08	-2.929891e-06	-7.897694e-09	-1.972198e+01	-5.157936e+02
5.000000e-08	-2.925354e-06	-7.888753e-09	-1.969144e+01	-5.151689e+02
6.000000e-08	-2.919968e-06	-7.875645e-09	-1.965518e+01	-5.144067e+02
7.000000e-08	-2.913650e-06	-7.853504e-09	-1.961266e+01	-5.134795e+02
8.000000e-08	-2.906335e-06	-7.834546e-09	-1.956342e+01	-5.123585e+02
9.000000e-08	-2.897953e-06	-7.851268e-09	-1.950700e+01	-5.110271e+02
1.000000e-07	-2.888206e-06	-7.859723e-09	-1.944138e+01	-5.094929e+02
1.100000e-07	-2.876957e-06	-7.784975e-09	-1.936566e+01	-5.077910e+02
1.200000e-07	-2.864696e-06	-7.676305e-09	-1.928313e+01	-5.059782e+02
1.300000e-07	-2.851667e-06	-7.690103e-09	-1.919543e+01	-5.041183e+02
1.400000e-07	-2.837605e-06	-7.775029e-09	-1.910077e+01	-5.022637e+02
1.500000e-07	-2.822453e-06	-7.648898e-09	-1.899878e+01	-5.004384e+02
1.600000e-07	-2.806110e-06	-7.581216e-09	-1.888877e+01	-4.986286e+02
1.700000e-07	-2.788480e-06	-7.676096e-09	-1.877010e+01	-4.967851e+02
1.800000e-07	-2.769838e-06	-7.616995e-09	-1.864461e+01	-4.948348e+02
1.900000e-07	-2.750425e-06	-7.501614e-09	-1.851394e+01	-4.927007e+02
2.000000e-07	-2.730284e-06	-7.522304e-09	-1.837836e+01	-4.903217e+02
2.100000e-07	-2.709210e-06	-7.491058e-09	-1.823651e+01	-4.876673e+02
2.200000e-07	-2.687200e-06	-7.341677e-09	-1.808836e+01	-4.847426e+02
2.300000e-07	-2.664373e-06	-7.363132e-09	-1.793469e+01	-4.815826e+02
2.400000e-07	-2.640629e-06	-7.379733e-09	-1.777487e+01	-4.782375e+02
2.500000e-07	-2.616094e-06	-7.226791e-09	-1.760971e+01	-4.747564e+02
2.600000e-07	-2.590722e-06	-7.162548e-09	-1.743893e+01	-4.711723e+02
2.700000e-07	-2.564074e-06	-7.166031e-09	-1.725955e+01	-4.674950e+02
2.800000e-07	-2.536228e-06	-7.077091e-09	-1.707212e+01	-4.637131e+02
2.900000e-07	-2.507546e-06	-7.022251e-09	-1.687905e+01	-4.598030e+02
3.000000e-07	-2.478033e-06	-6.946202e-09	-1.668039e+01	-4.557409e+02
3.100000e-07	-2.447718e-06	-6.878413e-09	-1.647633e+01	-4.515143e+02
3.200000e-07	-2.416704e-06	-6.863238e-09	-1.626756e+01	-4.471271e+02
3.300000e-07	-2.384918e-06	-6.763938e-09	-1.605360e+01	-4.425985e+02
3.400000e-07	-2.352395e-06	-6.659554e-09	-1.583468e+01	-4.379548e+02
3.500000e-07	-2.319135e-06	-6.616500e-09	-1.561079e+01	-4.332201e+02
3.600000e-07	-2.284878e-06	-6.545747e-09	-1.538020e+01	-4.284069e+02
3.700000e-07	-2.249456e-06	-6.461664e-09	-1.514176e+01	-4.235127e+02
3.800000e-07	-2.213134e-06	-6.414206e-09	-1.489727e+01	-4.185215e+02
3.900000e-07	-2.176232e-06	-6.302148e-09	-1.464887e+01	-4.134112e+02
4.000000e-07	-2.138582e-06	-6.212945e-09	-1.439544e+01	-4.081625e+02
4.100000e-07	-2.100087e-06	-6.169617e-09	-1.413632e+01	-4.027667e+02
4.200000e-07	-2.060807e-06	-6.070542e-09	-1.387191e+01	-3.972292e+02
4.300000e-07	-2.020829e-06	-5.954122e-09	-1.360281e+01	-3.915669e+02
4.400000e-07	-1.980343e-06	-5.881848e-09	-1.333028e+01	-3.858025e+02
4.500000e-07	-1.939320e-06	-5.815190e-09	-1.305415e+01	-3.799561e+02
4.600000e-07	-1.897530e-06	-5.717051e-09	-1.277285e+01	-3.740381e+02
4.700000e-07	-1.854776e-06	-5.616755e-09	-1.248506e+01	-3.680467e+02
4.800000e-07	-1.811063e-06	-5.512366e-09	-1.219081e+01	-3.619697e+02
4.900000e-07	-1.766714e-06	-5.424026e-09	-1.189228e+01	-3.557900e+02
5.000000e-07	-1.721918e-06	-5.337636e-09	-1.159075e+01	-3.494927e+02
5.100000e-07	-1.676555e-06	-5.240557e-09	-1.128540e+01	-3.430713e+02
5.200000e-07	-1.630579e-06	-5.130930e-09	-1.097592e+01	-3.365296e+02
5.300000e-07	-1.584034e-06	-5.031007e-09	-1.066261e+01	-3.298802e+02
5.400000e-07	-1.536905e-06	-4.933694e-09	-1.034537e+01	-3.231394e+02
5.500000e-07	-1.489199e-06	-4.826458e-09	-1.002425e+01	-3.163209e+02
5.600000e-07	-1.441019e-06	-4.715911e-09	-9.699933e+00	-3.094309e+02
5.700000e-07	-1.392428e-06	-4.602583e-09	-9.372854e+00	-3.024660e+02
5.800000e-07	-1.343381e-06	-4.508438e-09	-9.042703e+00	-2.954155e+02
5.900000e-07	-1.293669e-06	-4.407343e-09	-8.708075e+00	-2.882657e+02
6.000000e-07	-1.243157e-06	-4.289843e-09	-8.368064e+00	-2.810059e+02
6.100000e-07	-1.191915e-06	-4.168264e-09	-8.023139e+00	-2.736328e+02
6.200000e-07	-1.140070e-06	-4.057002e-09	-7.674157e+00	-2.661515e+02
6.300000e-07	-1.087798e-06	-3.943948e-09	-7.322293e+00	-2.585746e+02
6.400000e-07	-1.035208e-06	-3.822047e-09	-6.968298e+00	-2.509170e+02
6.500000e-07	-9.823228e-07	-3.701510e-09	-6.612310e+00	-2.431916e+02
6.600000e-07	-9.290293e-07	-3.585467e-09	-6.253576e+00	-2.354050e+02
6.700000e-07	-8.753317e-07	-3.475426e-09	-5.892121e+00	-2.275566e+02
6.800000e-07	-8.213101e-07	-3.355524e-09	-5.528485e+00	-2.196405e+02
6.900000e-07	-7.670162e-07	-3.227471e-09	-5.163017e+00	-2.116495e+02
7.000000e-07	-7.125587e-07	-3.095931e-09	-4.796447e+00	-2.035795e+02
7.100000e-07	-6.579437e-07	-2.971491e-09	-4.428817e+00	-1.954326e+02
7.200000e-07	-6.031219e-07	-2.847456e-09	-4.059795e+00	-1.872177e+02
7.300000e-07	-5.481005e-07	-2.718106e-09	-3.689430e+00	-1.789481e+02
7.400000e-07	-4.928564e-07	-2.590339e-09	-3.317565e+00	-1.706367e+02
7.500000e-07	-4.373330e-07	-2.466354e-09	-2.943820e+00	-1.622914e+02
7.600000e-07	-3.815893e-07	-2.344877e-09	-2.568593e+00	-1.539113e+02
7.700000e-07	-3.257257e-07	-2.213401e-09	-2.192558e+00	-1.454866e+02
7.800000e-07	-2.697901e-07	-2.075598e-09	-1.816039e+00	-1.370007e+02
7.900000e-07	-2.137605e-07	-1.939588e-09	-1.438886e+00	-1.284358e+02
8.000000e-07	-1.576317e-07	-1.809128e-09	-1.061066e+00	-1.197780e+02
8.100000e-07	-1.014387e-07	-1.676851e-09	-6.828143e-01	-1.110226e+02
8.200000e-07	-4.518472e-08	-1.540872e-09	-3.041519e-01	-1.021750e+02
8.300000e-07	1.107158e-08	-1.405513e-09	7.452615e-02	-9.324893e+01
8.400000e-07	6.729496e-08	-1.270700e-09	4.529826e-01	-8.426221e+01
8.500000e-07	1.234957e-07	-1.133601e-09	8.312868e-01	-7.523002e+01
8.600000e-07	1.795915e-07	-9.892770e-10	1.208884e+00	-6.615972e+01
8.700000e-07	2.356192e-07	-8.444458e-10	1.586024e+00	-5.704789e+01
8.800000e-07	2.916470e-07	-7.047152e-10	1.963164e+00	-4.788092e+01
8.900000e-07	3.475831e-07	-5.686767e-10	2.339687e+00	-3.863904e+01
9.000000e-07	4.033288e-07	-4.285122e-10	2.714928e+00	-2.930235e+01
9.100000e-07	4.589147e-07	-2.828882e-10	3.089093e+00	-1.985696e+01
9.200000e-07	5.143638e-07	-1.352442e-10	3.462338e+00	-1.029920e+01
9.300000e-07	5.695893e-07	1.244452e-11	3.834077e+00	-6.364721e-01
9.400000e-07	6.245644e-07	1.615808e-10	4.204131e+00	9.115456e+00
9.500000e-07	6.793272e-07	3.141433e-10	4.572756e+00	1.893787e+01
9.600000e-07	7.339192e-07	4.661630e-10	4.940231e+00	2.881538e+01
9.700000e-07	7.883320e-07	6.156775e-10	5.306500e+00	3.874094e+01
9.800000e-07	8.424753e-07	7.627898e-10	5.670955e+00	4.871801e+01
9.900000e-07	8.962758e-07	9.149008e-10	6.033102e+00	5.875911e+01
1.000000e-06	9.497291e-07	1.072431e-09	6.392913e+00	6.888132e+01
1.010000e-06	1.002832e-06	1.230816e-09	6.750363e+00	7.910022e+01
1.020000e-06	1.055561e-06	1.388908e-09	7.105302e+00	8.942431e+01
1.030000e-06	1.107906e-06	1.547983e-09	7.457647e+00	9.985177e+01
1.040000e-06	1.159832e-06	1.709799e-09	7.807178e+00	1.103705e+02
1.050000e-06	1.211213e-06	1.870902e-09	8.153041e+00	1.209614e+02
1.060000e-06	1.261861e-06	2.031635e-09	8.493969e+00	1.316034e+02
1.070000e-06	1.311781e-06	2.193336e-09	8.829996e+00	1.422786e+02
1.080000e-06	1.361053e-06	2.357488e-09	9.161656e+00	1.529761e+02
1.090000e-06	1.409803e-06	2.522197e-09	9.489806e+00	1.636925e+02
1.100000e-06	1.458217e-06	2.686711e-09	9.815700e+00	1.744296e+02
1.110000e-06	1.506253e-06	2.852018e-09	1.013904e+01	1.851905e+02
1.120000e-06	1.553774e-06	3.017682e-09	1.045892e+01	1.959748e+02
1.130000e-06	1.600696e-06	3.183962e-09	1.077477e+01	2.067762e+02
1.140000e-06	1.647043e-06	3.347418e-09	1.108674e+01	2.175815e+02
1.150000e-06	1.692829e-06	3.509617e-09	1.139494e+01	2.283726e+02
1.160000e-06	1.738037e-06	3.672384e-09	1.169925e+01	2.391302e+02
1.170000e-06	1.782785e-06	3.835745e-09	1.200046e+01	2.498372e+02
1.180000e-06	1.827138e-06	3.998335e-09	1.229901e+01	2.604813e+02
1.190000e-06	1.870922e-06	4.160597e-09	1.259374e+01	2.710542e+02
1.200000e-06	1.913791e-06	4.322237e-09	1.288230e+01	2.815498e+02
1.210000e-06	1.955596e-06	4.481337e-09	1.316370e+01	2.919602e+02
1.220000e-06	1.996602e-06	4.637338e-09	1.343973e+01	3.022723e+02
1.230000e-06	2.037032e-06	4.790957e-09	1.371188e+01	3.124664e+02
1.240000e-06	2.076848e-06	4.943257e-09	1.397989e+01	3.225168e+02
1.250000e-06	2.115972e-06	5.092930e-09	1.424325e+01	3.323947e+02
1.260000e-06	2.154358e-06	5.240318e-09	1.450163e+01	3.420729e+02
1.270000e-06	2.191973e-06	5.384729e-09	1.475483e+01	3.515288e+02
1.280000e-06	2.228915e-06	5.525712e-09	1.500350e+01	3.607467e+02
1.290000e-06	2.265275e-06	5.662714e-09	1.524825e+01	3.697163e+02
1.300000e-06	2.300890e-06	5.794230e-09	1.548798e+01	3.784306e+02
1.310000e-06	2.335473e-06	5.919636e-09	1.572077e+01	3.868817e+02
1.320000e-06	2.368959e-06	6.041919e-09	1.594617e+01	3.950591e+02
1.330000e-06	2.401584e-06	6.160068e-09	1.616578e+01	4.029488e+02
1.340000e-06	2.433444e-06	6.272990e-09	1.638025e+01	4.105363e+02
1.350000e-06	2.464517e-06	6.382403e-09	1.658941e+01	4.178105e+02
1.360000e-06	2.494807e-06	6.487988e-09	1.679330e+01	4.247678e+02
1.370000e-06	2.524255e-06	6.589261e-09	1.699152e+01	4.314152e+02
1.380000e-06	2.552965e-06	6.686016e-09	1.718477e+01	4.377688e+02
1.390000e-06	2.580995e-06	6.778574e-09	1.737345e+01	4.438505e+02
1.400000e-06	2.607933e-06	6.865787e-09	1.755478e+01	4.496815e+02
1.410000e-06	2.633561e-06	6.947855e-09	1.772729e+01	4.552768e+02
1.420000e-06	2.658133e-06	7.026382e-09	1.789269e+01	4.606415e+02
1.430000e-06	2.681817e-06	7.101453e-09	1.805212e+01	4.657709e+02
1.440000e-06	2.704642e-06	7.173204e-09	1.820576e+01	4.706541e+02
1.450000e-06	2.726542e-06	7.242785e-09	1.835318e+01	4.752799e+02
1.460000e-06	2.747583e-06	7.309757e-09	1.849481e+01	4.796433e+02
1.470000e-06	2.767881e-06	7.372360e-09	1.863144e+01	4.837477e+02
1.480000e-06	2.787279e-06	7.430449e-09	1.876201e+01	4.876049e+02
1.490000e-06	2.805611e-06	7.483165e-09	1.888541e+01	4.912302e+02
1.500000e-06	2.822985e-06	7.530808e-09	1.900236e+01	4.946361e+02
1.510000e-06	2.839334e-06	7.574630e-09	1.911241e+01	4.978264e+02
1.520000e-06	2.854516e-06	7.616905e-09	1.921461e+01	5.007936e+02
1.530000e-06	2.868606e-06	7.657800e-09	1.930945e+01	5.035215e+02
1.540000e-06	2.881675e-06	7.694146e-09	1.939742e+01	5.059919e+02
1.550000e-06	2.893623e-06	7.725180e-09	1.947785e+01	5.081925e+02
1.560000e-06	2.904242e-06	7.753165e-09	1.954933e+01	5.101248e+02
1.570000e-06	2.913610e-06	7.779247e-09	1.961238e+01	5.118069e+02
1.580000e-06	2.921958e-06	7.801104e-09	1.966858e+01	5.132702e+02
1.590000e-06	2.929372e-06	7.818784e-09	1.971849e+01	5.145521e+02
1.600000e-06	2.935808e-06	7.833847e-09	1.976181e+01	5.156850e+02
1.610000e-06	2.941260e-06	7.848832e-09	1.979850e+01	5.166877e+02
1.620000e-06	2.945832e-06	7.863109e-09	1.982928e+01	5.175602e+02
1.630000e-06	2.949417e-06	7.874559e-09	1.985341e+01	5.182867e+02
1.640000e-06	2.951757e-06	7.883052e-09	1.986916e+01	5.188428e+02
1.650000e-06	2.952944e-06	7.888484e-09	1.987716e+01	5.192067e+02
1.660000e-06	2.953144e-06	7.891500e-09	1.987850e+01	5.193682e+02
1.670000e-06	2.952431e-06	7.891084e-09	1.987370e+01	5.193337e+02
1.680000e-06	2.950780e-06	7.887164e-09	1.986259e+01	5.191236e+02
1.690000e-06	2.948179e-06	7.880943e-09	1.984508e+01	5.187642e+02
1.700000e-06	2.944817e-06	7.874320e-09	1.982245e+01	5.182761e+02
1.710000e-06	2.940557e-06	7.866770e-09	1.979378e+01	5.176653e+02
1.720000e-06	2.935068e-06	7.858909e-09	1.975682e+01	5.169192e+02
1.730000e-06	2.928470e-06	7.858350e-09	1.971241e+01	5.160115e+02
1.740000e-06	2.920988e-06	7.825999e-09	1.966205e+01	5.149126e+02
1.750000e-06	2.912467e-06	7.754600e-09	1.960469e+01	5.136042e+02
1.760000e-06	2.902422e-06	7.715801e-09	1.953707e+01	5.120908e+02
1.770000e-06	2.890795e-06	7.797465e-09	1.945881e+01	5.104048e+02
1.780000e-06	2.878526e-06	7.796471e-09	1.937623e+01	5.086010e+02
1.790000e-06	2.866032e-06	7.661620e-09	1.929213e+01	5.067436e+02
1.800000e-06	2.852372e-06	7.622106e-09	1.920017e+01	5.048869e+02
1.810000e-06	2.837031e-06	7.700332e-09	1.909691e+01	5.030587e+02
1.820000e-06	2.820832e-06	7.640398e-09	1.898787e+01	5.012494e+02
1.830000e-06	2.804069e-06	7.505574e-09	1.887503e+01	4.994130e+02
1.840000e-06	2.786139e-06	7.598022e-09	1.875434e+01	4.974782e+02
1.850000e-06	2.767167e-06	7.578889e-09	1.862663e+01	4.953674e+02
1.860000e-06	2.747501e-06	7.396652e-09	1.849426e+01	4.930170e+02
1.870000e-06	2.726641e-06	7.468525e-09	1.835384e+01	4.903927e+02
1.880000e-06	2.704376e-06	7.495858e-09	1.820397e+01	4.874961e+02
1.890000e-06	2.681166e-06	7.300698e-09	1.804774e+01	4.843593e+02
1.900000e-06	2.657045e-06	7.301247e-09	1.788537e+01	4.810318e+02
1.910000e-06	2.632029e-06	7.331638e-09	1.771698e+01	4.775636e+02
1.920000e-06	2.606311e-06	7.204593e-09	1.754386e+01	4.739899e+02
1.930000e-06	2.579755e-06	7.149748e-09	1.736511e+01	4.703231e+02
1.940000e-06	2.552431e-06	7.120043e-09	1.718118e+01	4.665537e+02
1.950000e-06	2.524321e-06	7.030870e-09	1.699196e+01	4.626588e+02
1.960000e-06	2.494916e-06	7.020884e-09	1.679403e+01	4.586141e+02
1.970000e-06	2.464270e-06	6.929730e-09	1.658775e+01	4.544056e+02
1.980000e-06	2.432824e-06	6.802072e-09	1.637607e+01	4.500352e+02
1.990000e-06	2.400567e-06	6.826177e-09	1.615894e+01	4.455208e+02
2.000000e-06	2.367514e-06	6.733132e-09	1.593645e+01	4.408884e+02
2.010000e-06	2.333702e-06	6.609454e-09	1.570885e+01	4.361629e+02
2.020000e-06	2.299108e-06	6.601038e-09	1.547599e+01	4.313583e+02
2.030000e-06	2.263935e-06	6.487191e-09	1.523923e+01	4.264736e+02
2.040000e-06	2.228003e-06	6.392351e-09	1.499736e+01	4.214941e+02
2.050000e-06	2.190870e-06	6.379732e-09	1.474740e+01	4.163978e+02
2.060000e-06	2.152728e-06	6.258682e-09	1.449066e+01	4.111649e+02
2.070000e-06	2.113908e-06	6.161454e-09	1.422935e+01	4.057852e+02
2.080000e-06	2.074445e-06	6.117071e-09	1.396372e+01	4.002625e+02
2.090000e-06	2.034281e-06	6.018661e-09	1.369336e+01	3.946128e+02
2.100000e-06	1.993386e-06	5.925927e-09	1.341808e+01	3.888586e+02
2.110000e-06	1.951849e-06	5.828340e-09	1.313848e+01	3.830205e+02
2.120000e-06	1.909653e-06	5.740824e-09	1.285445e+01	3.771103e+02
2.130000e-06	1.866852e-06	5.667698e-09	1.256634e+01	3.711275e+02
2.140000e-06	1.823573e-06	5.567969e-09	1.227502e+01	3.650607e+02
2.150000e-06	1.779805e-06	5.470886e-09	1.198041e+01	3.588931e+02
2.160000e-06	1.735422e-06	5.371524e-09	1.168165e+01	3.526092e+02
2.170000e-06	1.690279e-06	5.275762e-09	1.137778e+01	3.462014e+02
2.180000e-06	1.644521e-06	5.183318e-09	1.106977e+01	3.396723e+02
2.190000e-06	1.598348e-06	5.079166e-09	1.075896e+01	3.330340e+02
2.200000e-06	1.551699e-06	4.977812e-09	1.044495e+01	3.263025e+02
2.210000e-06	1.504485e-06	4.872818e-09	1.012714e+01	3.194922e+02
2.220000e-06	1.456507e-06	4.766595e-09	9.804190e+00	3.126101e+02
2.230000e-06	1.407780e-06	4.666661e-09	9.476193e+00	3.056540e+02
2.240000e-06	1.358583e-06	4.546084e-09	9.145033e+00	2.986135e+02
2.250000e-06	1.309004e-06	4.438789e-09	8.811300e+00	2.914753e+02
2.260000e-06	1.258945e-06	4.342967e-09	8.474334e+00	2.842279e+02
2.270000e-06	1.208336e-06	4.226400e-09	8.133673e+00	2.768671e+02
2.280000e-06	1.157267e-06	4.111885e-09	7.789915e+00	2.693972e+02
2.290000e-06	1.105863e-06	3.991860e-09	7.443896e+00	2.618301e+02
2.300000e-06	1.054022e-06	3.877123e-09	7.094942e+00	2.541807e+02
2.310000e-06	1.001591e-06	3.762961e-09	6.742008e+00	2.464624e+02
2.320000e-06	9.486213e-07	3.640113e-09	6.385455e+00	2.386825e+02
2.330000e-06	8.951265e-07	3.521685e-09	6.025366e+00	2.308412e+02
2.340000e-06	8.411252e-07	3.403056e-09	5.661867e+00	2.229331e+02
2.350000e-06	7.866890e-07	3.283339e-09	5.295441e+00	2.149507e+02
2.360000e-06	7.319229e-07	3.160419e-09	4.926794e+00	2.068894e+02
2.370000e-06	6.769462e-07	3.034597e-09	4.556729e+00	1.987507e+02
2.380000e-06	6.218100e-07	2.912570e-09	4.185590e+00	1.905428e+02
2.390000e-06	5.665429e-07	2.790261e-09	3.813570e+00	1.822787e+02
2.400000e-06	5.111857e-07	2.664121e-09	3.440945e+00	1.739715e+02
2.410000e-06	4.557312e-07	2.535958e-09	3.067664e+00	1.656300e+02
2.420000e-06	4.001206e-07	2.405861e-09	2.693332e+00	1.572543e+02
2.430000e-06	3.443787e-07	2.281073e-09	2.318117e+00	1.488353e+02
2.440000e-06	2.885270e-07	2.154408e-09	1.942162e+00	1.403571e+02
2.450000e-06	2.325784e-07	2.023107e-09	1.565555e+00	1.318017e+02
2.460000e-06	1.765324e-07	1.892858e-09	1.188293e+00	1.231546e+02
2.470000e-06	1.204548e-07	1.760309e-09	8.108175e-01	1.144099e+02
2.480000e-06	6.435123e-08	1.628209e-09	4.331675e-01	1.055718e+02
2.490000e-06	8.183976e-09	1.492343e-09	5.508881e-02	9.665363e+01
2.500000e-06	-4.792822e-08	1.354210e-09	-3.226192e-01	8.767287e+01
2.510000e-06	-1.039771e-07	1.217446e-09	-6.999010e-01	7.864531e+01
2.520000e-06	-1.599952e-07	1.081460e-09	-1.076976e+00	6.957934e+01
2.530000e-06	-2.159761e-07	9.448632e-10	-1.453800e+00	6.047273e+01
2.540000e-06	-2.718905e-07	8.025081e-10	-1.830176e+00	5.131284e+01
2.550000e-06	-3.277078e-07	6.592439e-10	-2.205900e+00	4.208027e+01
2.560000e-06	-3.833837e-07	5.198502e-10	-2.580671e+00	3.275483e+01
2.570000e-06	-4.388851e-07	3.800531e-10	-2.954268e+00	2.332174e+01
2.580000e-06	-4.942920e-07	2.344985e-10	-3.327228e+00	1.377613e+01
2.590000e-06	-5.496280e-07	8.530420e-11	-3.699712e+00	4.124290e+00
2.600000e-06	-6.048388e-07	-6.349287e-11	-4.071352e+00	-5.618696e+00
2.610000e-06	-6.599383e-07	-2.117945e-10	-4.442243e+00	-1.543413e+01
2.620000e-06	-7.149170e-07	-3.631042e-10	-4.812322e+00	-2.530597e+01
2.630000e-06	-7.696846e-07	-5.161783e-10	-5.180979e+00	-3.522612e+01
2.640000e-06	-8.241152e-07	-6.673912e-10	-5.547368e+00	-4.519692e+01
2.650000e-06	-8.780606e-07	-8.186092e-10	-5.910490e+00	-5.523010e+01
2.660000e-06	-9.314757e-07	-9.727141e-10	-6.270043e+00	-6.534251e+01
2.670000e-06	-9.843303e-07	-1.130321e-09	-6.625823e+00	-7.555020e+01
2.680000e-06	-1.036650e-06	-1.287287e-09	-6.978002e+00	-8.586263e+01
2.690000e-06	-1.088487e-06	-1.443867e-09	-7.326933e+00	-9.627915e+01
2.700000e-06	-1.139899e-06	-1.603368e-09	-7.673001e+00	-1.067887e+02
2.710000e-06	-1.190943e-06	-1.766268e-09	-8.016598e+00	-1.173726e+02
2.720000e-06	-1.241568e-06	-1.929429e-09	-8.357371e+00	-1.280097e+02
2.730000e-06	-1.291704e-06	-2.090249e-09	-8.694846e+00	-1.386818e+02
2.740000e-06	-1.341365e-06	-2.251326e-09	-9.029130e+00	-1.493769e+02
2.750000e-06	-1.390539e-06	-2.415077e-09	-9.360133e+00	-1.600910e+02
2.760000e-06	-1.439078e-06	-2.580706e-09	-9.686868e+00	-1.708254e+02
2.770000e-06	-1.486773e-06	-2.743217e-09	-1.000792e+01	-1.815834e+02
2.780000e-06	-1.533651e-06	-2.904768e-09	-1.032347e+01	-1.923651e+02
2.790000e-06	-1.579938e-06	-3.070155e-09	-1.063504e+01	-2.031649e+02
2.800000e-06	-1.625732e-06	-3.238104e-09	-1.094329e+01	-2.139703e+02
2.810000e-06	-1.671117e-06	-3.404088e-09	-1.124879e+01	-2.247636e+02
2.820000e-06	-1.715978e-06	-3.566101e-09	-1.155076e+01	-2.355254e+02
2.830000e-06	-1.760196e-06	-3.727399e-09	-1.184841e+01	-2.462382e+02
2.840000e-06	-1.803896e-06	-3.891069e-09	-1.214257e+01	-2.568892e+02
2.850000e-06	-1.847163e-06	-4.054578e-09	-1.243381e+01	-2.674697e+02
2.860000e-06	-1.889986e-06	-4.214619e-09	-1.272206e+01	-2.779737e+02
2.870000e-06	-1.932226e-06	-4.372203e-09	-1.300640e+01	-2.883934e+02
2.880000e-06	-1.973802e-06	-4.530146e-09	-1.328625e+01	-2.987166e+02
2.890000e-06	-2.014696e-06	-4.688032e-09	-1.356152e+01	-3.089243e+02
2.900000e-06	-2.054899e-06	-4.842014e-09	-1.383214e+01	-3.189910e+02
2.910000e-06	-2.094469e-06	-4.990968e-09	-1.409850e+01	-3.288885e+02
2.920000e-06	-2.133402e-06	-5.137893e-09	-1.436057e+01	-3.385890e+02
2.930000e-06	-2.171509e-06	-5.285764e-09	-1.461708e+01	-3.480694e+02
2.940000e-06	-2.208548e-06	-5.430772e-09	-1.486640e+01	-3.573131e+02
