# Temperatura_=_25.44
# Concentracion g/m^3_=_13400.0
# C_Vs_to_Am_M_A/Vsm_=_65563218390.804596
# pendiente_HvsI_1/m_=_3716.3
# ordenada_HvsI_A/m_=_1297.0
# frecuencia_Hz_=_301395.6644482942

Tiempo_(s)	Campo_(V.s)	Magnetizacion_(V.s)	Campo_(kA/m)	Magnetizacion_(A/m)
0.000000e+00	-8.469429e-06	-9.646654e-09	-5.692631e+01	-6.333385e+02
1.000000e-08	-8.465376e-06	-9.645414e-09	-5.689907e+01	-6.333608e+02
2.000000e-08	-8.458673e-06	-9.644454e-09	-5.685401e+01	-6.335267e+02
3.000000e-08	-8.449181e-06	-9.645149e-09	-5.679021e+01	-6.336863e+02
4.000000e-08	-8.436638e-06	-9.645186e-09	-5.670591e+01	-6.336663e+02
5.000000e-08	-8.421016e-06	-9.642156e-09	-5.660091e+01	-6.333453e+02
6.000000e-08	-8.402496e-06	-9.632033e-09	-5.647643e+01	-6.327061e+02
7.000000e-08	-8.381502e-06	-9.614361e-09	-5.633532e+01	-6.318446e+02
8.000000e-08	-8.357819e-06	-9.645687e-09	-5.617614e+01	-6.309301e+02
9.000000e-08	-8.330770e-06	-9.665852e-09	-5.599433e+01	-6.301357e+02
1.000000e-07	-8.300321e-06	-9.632095e-09	-5.578967e+01	-6.295663e+02
1.100000e-07	-8.266730e-06	-9.599689e-09	-5.556389e+01	-6.292164e+02
1.200000e-07	-8.230215e-06	-9.570978e-09	-5.531846e+01	-6.289728e+02
1.300000e-07	-8.191205e-06	-9.539501e-09	-5.505625e+01	-6.286613e+02
1.400000e-07	-8.149816e-06	-9.502134e-09	-5.477807e+01	-6.281167e+02
1.500000e-07	-8.105772e-06	-9.566586e-09	-5.448203e+01	-6.272458e+02
1.600000e-07	-8.058812e-06	-9.557954e-09	-5.416640e+01	-6.260577e+02
1.700000e-07	-8.008893e-06	-9.497834e-09	-5.383087e+01	-6.246509e+02
1.800000e-07	-7.955923e-06	-9.545089e-09	-5.347484e+01	-6.231643e+02
1.900000e-07	-7.899933e-06	-9.462054e-09	-5.309850e+01	-6.217148e+02
2.000000e-07	-7.841153e-06	-9.402252e-09	-5.270342e+01	-6.203501e+02
2.100000e-07	-7.779605e-06	-9.385714e-09	-5.228973e+01	-6.190349e+02
2.200000e-07	-7.715270e-06	-9.390434e-09	-5.185732e+01	-6.176767e+02
2.300000e-07	-7.648116e-06	-9.436635e-09	-5.140595e+01	-6.161755e+02
2.400000e-07	-7.578107e-06	-9.379545e-09	-5.093539e+01	-6.144750e+02
2.500000e-07	-7.505180e-06	-9.341946e-09	-5.044522e+01	-6.125910e+02
2.600000e-07	-7.429303e-06	-9.293848e-09	-4.993522e+01	-6.106036e+02
2.700000e-07	-7.350572e-06	-9.265816e-09	-4.940604e+01	-6.086180e+02
2.800000e-07	-7.269022e-06	-9.224102e-09	-4.885791e+01	-6.067119e+02
2.900000e-07	-7.184896e-06	-9.191425e-09	-4.829246e+01	-6.048953e+02
3.000000e-07	-7.098440e-06	-9.214331e-09	-4.771136e+01	-6.031004e+02
3.100000e-07	-7.009518e-06	-9.186898e-09	-4.711368e+01	-6.012091e+02
3.200000e-07	-6.918008e-06	-9.157181e-09	-4.649861e+01	-5.991042e+02
3.300000e-07	-6.824051e-06	-9.079337e-09	-4.586708e+01	-5.967223e+02
3.400000e-07	-6.727693e-06	-9.019488e-09	-4.521943e+01	-5.940836e+02
3.500000e-07	-6.628874e-06	-9.001161e-09	-4.455522e+01	-5.912842e+02
3.600000e-07	-6.527646e-06	-8.981296e-09	-4.387483e+01	-5.884533e+02
3.700000e-07	-6.424035e-06	-8.946074e-09	-4.317842e+01	-5.856942e+02
3.800000e-07	-6.318034e-06	-8.893407e-09	-4.246595e+01	-5.830353e+02
3.900000e-07	-6.209728e-06	-8.864764e-09	-4.173799e+01	-5.804138e+02
4.000000e-07	-6.099268e-06	-8.812301e-09	-4.099554e+01	-5.776998e+02
4.100000e-07	-5.986546e-06	-8.748180e-09	-4.023789e+01	-5.747522e+02
4.200000e-07	-5.871454e-06	-8.680531e-09	-3.946431e+01	-5.714800e+02
4.300000e-07	-5.754176e-06	-8.638867e-09	-3.867605e+01	-5.678832e+02
4.400000e-07	-5.634747e-06	-8.609823e-09	-3.787331e+01	-5.640528e+02
4.500000e-07	-5.513228e-06	-8.564080e-09	-3.705654e+01	-5.601296e+02
4.600000e-07	-5.389793e-06	-8.494048e-09	-3.622688e+01	-5.562389e+02
4.700000e-07	-5.264486e-06	-8.422467e-09	-3.538465e+01	-5.524308e+02
4.800000e-07	-5.137264e-06	-8.366495e-09	-3.452954e+01	-5.486525e+02
4.900000e-07	-5.008159e-06	-8.305660e-09	-3.366177e+01	-5.447665e+02
5.000000e-07	-4.877222e-06	-8.234071e-09	-3.278170e+01	-5.406085e+02
5.100000e-07	-4.744458e-06	-8.153969e-09	-3.188934e+01	-5.360586e+02
5.200000e-07	-4.610004e-06	-8.089022e-09	-3.098562e+01	-5.310957e+02
5.300000e-07	-4.473832e-06	-8.025452e-09	-3.007035e+01	-5.258074e+02
5.400000e-07	-4.335967e-06	-7.948134e-09	-2.914371e+01	-5.203517e+02
5.500000e-07	-4.196499e-06	-7.855595e-09	-2.820629e+01	-5.148849e+02
5.600000e-07	-4.055300e-06	-7.769402e-09	-2.725724e+01	-5.094865e+02
5.700000e-07	-3.912476e-06	-7.689699e-09	-2.629727e+01	-5.041175e+02
5.800000e-07	-3.768250e-06	-7.602335e-09	-2.532787e+01	-4.986297e+02
5.900000e-07	-3.622688e-06	-7.503344e-09	-2.434949e+01	-4.928264e+02
6.000000e-07	-3.475832e-06	-7.400614e-09	-2.336241e+01	-4.865463e+02
6.100000e-07	-3.327770e-06	-7.306087e-09	-2.236723e+01	-4.797356e+02
6.200000e-07	-3.178531e-06	-7.209071e-09	-2.136414e+01	-4.724712e+02
6.300000e-07	-3.028204e-06	-7.102241e-09	-2.035373e+01	-4.649258e+02
6.400000e-07	-2.876860e-06	-6.984567e-09	-1.933649e+01	-4.572831e+02
6.500000e-07	-2.724442e-06	-6.865675e-09	-1.831203e+01	-4.496442e+02
6.600000e-07	-2.571028e-06	-6.741346e-09	-1.728088e+01	-4.419643e+02
6.700000e-07	-2.416710e-06	-6.607106e-09	-1.624364e+01	-4.340539e+02
6.800000e-07	-2.261541e-06	-6.466250e-09	-1.520069e+01	-4.256475e+02
6.900000e-07	-2.105577e-06	-6.326651e-09	-1.415240e+01	-4.165128e+02
7.000000e-07	-1.948865e-06	-6.187878e-09	-1.309908e+01	-4.065526e+02
7.100000e-07	-1.791433e-06	-6.038099e-09	-1.204091e+01	-3.958517e+02
7.200000e-07	-1.633348e-06	-5.875381e-09	-1.097837e+01	-3.846396e+02
7.300000e-07	-1.474664e-06	-5.701265e-09	-9.911788e+00	-3.731808e+02
7.400000e-07	-1.315363e-06	-5.523989e-09	-8.841062e+00	-3.616336e+02
7.500000e-07	-1.155530e-06	-5.336446e-09	-7.766764e+00	-3.499415e+02
7.600000e-07	-9.953003e-07	-5.134433e-09	-6.689798e+00	-3.378103e+02
7.700000e-07	-8.347253e-07	-4.921993e-09	-5.610512e+00	-3.247919e+02
7.800000e-07	-6.738564e-07	-4.702792e-09	-4.529250e+00	-3.104486e+02
7.900000e-07	-5.127838e-07	-4.475056e-09	-3.446619e+00	-2.945309e+02
8.000000e-07	-3.515223e-07	-4.226963e-09	-2.362718e+00	-2.770860e+02
8.100000e-07	-1.901057e-07	-3.958178e-09	-1.277774e+00	-2.584331e+02
8.200000e-07	-2.863064e-08	-3.669567e-09	-1.924376e-01	-2.389912e+02
8.300000e-07	1.328430e-07	-3.359921e-09	8.928889e-01	-2.190060e+02
8.400000e-07	2.942674e-07	-3.020914e-09	1.977885e+00	-1.982761e+02
8.500000e-07	4.555663e-07	-2.650094e-09	3.062037e+00	-1.759954e+02
8.600000e-07	6.166378e-07	-2.246278e-09	4.144661e+00	-1.508042e+02
8.700000e-07	7.775014e-07	-1.798486e-09	5.225888e+00	-1.210712e+02
8.800000e-07	9.381426e-07	-1.283950e-09	6.305619e+00	-8.535246e+01
8.900000e-07	1.098408e-06	-6.744197e-10	7.382828e+00	-4.289477e+01
9.000000e-07	1.258248e-06	5.016792e-11	8.457174e+00	5.975376e+00
9.100000e-07	1.417621e-06	8.898744e-10	9.528377e+00	5.971619e+01
9.200000e-07	1.576463e-06	1.795295e-09	1.059602e+01	1.157546e+02
9.300000e-07	1.734743e-06	2.680001e-09	1.165988e+01	1.709575e+02
9.400000e-07	1.892388e-06	3.461436e-09	1.271947e+01	2.222664e+02
9.500000e-07	2.049362e-06	4.104583e-09	1.377455e+01	2.673168e+02
9.600000e-07	2.205615e-06	4.623618e-09	1.482479e+01	3.048689e+02
9.700000e-07	2.361019e-06	5.051905e-09	1.586932e+01	3.349368e+02
9.800000e-07	2.515536e-06	5.413147e-09	1.690789e+01	3.585949e+02
9.900000e-07	2.669221e-06	5.719300e-09	1.794087e+01	3.775447e+02
1.000000e-06	2.821976e-06	5.984293e-09	1.896759e+01	3.935880e+02
1.010000e-06	2.973648e-06	6.223120e-09	1.998704e+01	4.081693e+02
1.020000e-06	3.124175e-06	6.440268e-09	2.099879e+01	4.221146e+02
1.030000e-06	3.273532e-06	6.633392e-09	2.200267e+01	4.356132e+02
1.040000e-06	3.421725e-06	6.807027e-09	2.299874e+01	4.484063e+02
1.050000e-06	3.568721e-06	6.967987e-09	2.398676e+01	4.600824e+02
1.060000e-06	3.714454e-06	7.120530e-09	2.496628e+01	4.703556e+02
1.070000e-06	3.858837e-06	7.261952e-09	2.593674e+01	4.792290e+02
1.080000e-06	4.001763e-06	7.391082e-09	2.689740e+01	4.870012e+02
1.090000e-06	4.143200e-06	7.511062e-09	2.784805e+01	4.941383e+02
1.100000e-06	4.283087e-06	7.626899e-09	2.878828e+01	5.010847e+02
1.110000e-06	4.421315e-06	7.737518e-09	2.971737e+01	5.080999e+02
1.120000e-06	4.557902e-06	7.838421e-09	3.063542e+01	5.151864e+02
1.130000e-06	4.692854e-06	7.934576e-09	3.154249e+01	5.221330e+02
1.140000e-06	4.826107e-06	8.026701e-09	3.243813e+01	5.286425e+02
1.150000e-06	4.957658e-06	8.112503e-09	3.332234e+01	5.344842e+02
1.160000e-06	5.087510e-06	8.189047e-09	3.419512e+01	5.396039e+02
1.170000e-06	5.215564e-06	8.259409e-09	3.505583e+01	5.441479e+02
1.180000e-06	5.341755e-06	8.332194e-09	3.590400e+01	5.483978e+02
1.190000e-06	5.466055e-06	8.405580e-09	3.673947e+01	5.526482e+02
1.200000e-06	5.588379e-06	8.475001e-09	3.756166e+01	5.570860e+02
1.210000e-06	5.708627e-06	8.539042e-09	3.836989e+01	5.617210e+02
1.220000e-06	5.826748e-06	8.602046e-09	3.916383e+01	5.663962e+02
1.230000e-06	5.942691e-06	8.662845e-09	3.994313e+01	5.708691e+02
1.240000e-06	6.056376e-06	8.717952e-09	4.070724e+01	5.749244e+02
1.250000e-06	6.167842e-06	8.769118e-09	4.145645e+01	5.784696e+02
1.260000e-06	6.277127e-06	8.820377e-09	4.219100e+01	5.815718e+02
1.270000e-06	6.384189e-06	8.874250e-09	4.291060e+01	5.844234e+02
1.280000e-06	6.488970e-06	8.927076e-09	4.361488e+01	5.872541e+02
1.290000e-06	6.591373e-06	8.975622e-09	4.430317e+01	5.902300e+02
1.300000e-06	6.691371e-06	9.018661e-09	4.497530e+01	5.933847e+02
1.310000e-06	6.788907e-06	9.058367e-09	4.563087e+01	5.966095e+02
1.320000e-06	6.884004e-06	9.098608e-09	4.627006e+01	5.997076e+02
1.330000e-06	6.976761e-06	9.136711e-09	4.689351e+01	6.024842e+02
1.340000e-06	7.067074e-06	9.173381e-09	4.750054e+01	6.048336e+02
1.350000e-06	7.154838e-06	9.213504e-09	4.809043e+01	6.067850e+02
1.360000e-06	7.240197e-06	9.254590e-09	4.866416e+01	6.084881e+02
1.370000e-06	7.323117e-06	9.289040e-09	4.922151e+01	6.101467e+02
1.380000e-06	7.403340e-06	9.313743e-09	4.976071e+01	6.119302e+02
1.390000e-06	7.480821e-06	9.337032e-09	5.028149e+01	6.139027e+02
1.400000e-06	7.555505e-06	9.364589e-09	5.078347e+01	6.159987e+02
1.410000e-06	7.627386e-06	9.392293e-09	5.126661e+01	6.180572e+02
1.420000e-06	7.696578e-06	9.417539e-09	5.173168e+01	6.198955e+02
1.430000e-06	7.763005e-06	9.444036e-09	5.217816e+01	6.213917e+02
1.440000e-06	7.826639e-06	9.471390e-09	5.260587e+01	6.225382e+02
1.450000e-06	7.887631e-06	9.493619e-09	5.301582e+01	6.234447e+02
1.460000e-06	7.945851e-06	9.508164e-09	5.340714e+01	6.242889e+02
1.470000e-06	8.001180e-06	9.521356e-09	5.377903e+01	6.252386e+02
1.480000e-06	8.053423e-06	9.537284e-09	5.413017e+01	6.263787e+02
1.490000e-06	8.102430e-06	9.552961e-09	5.445956e+01	6.276758e+02
1.500000e-06	8.148523e-06	9.568121e-09	5.476937e+01	6.289949e+02
1.510000e-06	8.191754e-06	9.584991e-09	5.505995e+01	6.301601e+02
1.520000e-06	8.231999e-06	9.603465e-09	5.533045e+01	6.310331e+02
1.530000e-06	8.269391e-06	9.620177e-09	5.558178e+01	6.315744e+02
1.540000e-06	8.303879e-06	9.629369e-09	5.581358e+01	6.318603e+02
1.550000e-06	8.335404e-06	9.632348e-09	5.602548e+01	6.320499e+02
1.560000e-06	8.364127e-06	9.636639e-09	5.621854e+01	6.323154e+02
1.570000e-06	8.389865e-06	9.644177e-09	5.639153e+01	6.327675e+02
1.580000e-06	8.412588e-06	9.652270e-09	5.654426e+01	6.334078e+02
1.590000e-06	8.432501e-06	9.660710e-09	5.667810e+01	6.341290e+02
1.600000e-06	8.449427e-06	9.669707e-09	5.679187e+01	6.347624e+02
1.610000e-06	8.463172e-06	9.677336e-09	5.688426e+01	6.351518e+02
1.620000e-06	8.473639e-06	9.681314e-09	5.695461e+01	6.352222e+02
1.630000e-06	8.480946e-06	9.681499e-09	5.700372e+01	6.350120e+02
1.640000e-06	8.485252e-06	9.680574e-09	5.703266e+01	6.346567e+02
1.650000e-06	8.486567e-06	9.680069e-09	5.704150e+01	6.343297e+02
1.660000e-06	8.485047e-06	9.674574e-09	5.703128e+01	6.341674e+02
1.670000e-06	8.480742e-06	9.671092e-09	5.700235e+01	6.342098e+02
1.680000e-06	8.473593e-06	9.671444e-09	5.695430e+01	6.343830e+02
1.690000e-06	8.463608e-06	9.668348e-09	5.688718e+01	6.345311e+02
1.700000e-06	8.450604e-06	9.667171e-09	5.679978e+01	6.344829e+02
1.710000e-06	8.434747e-06	9.671940e-09	5.669320e+01	6.341263e+02
1.720000e-06	8.416452e-06	9.681199e-09	5.657023e+01	6.334568e+02
1.730000e-06	8.395544e-06	9.645324e-09	5.642970e+01	6.325805e+02
1.740000e-06	8.371449e-06	9.572838e-09	5.626775e+01	6.316710e+02
1.750000e-06	8.343445e-06	9.568626e-09	5.607952e+01	6.308972e+02
1.760000e-06	8.311574e-06	9.581286e-09	5.586531e+01	6.303536e+02
1.770000e-06	8.276869e-06	9.589569e-09	5.563204e+01	6.300218e+02
1.780000e-06	8.239689e-06	9.625207e-09	5.538214e+01	6.297795e+02
1.790000e-06	8.200161e-06	9.660779e-09	5.511646e+01	6.294498e+02
1.800000e-06	8.158675e-06	9.556345e-09	5.483761e+01	6.288729e+02
1.810000e-06	8.114589e-06	9.551372e-09	5.454129e+01	6.279655e+02
1.820000e-06	8.067476e-06	9.577271e-09	5.422463e+01	6.267478e+02
1.830000e-06	8.017511e-06	9.522923e-09	5.388880e+01	6.253255e+02
1.840000e-06	7.964172e-06	9.583895e-09	5.353028e+01	6.238380e+02
1.850000e-06	7.907770e-06	9.526906e-09	5.315118e+01	6.223965e+02
1.860000e-06	7.848668e-06	9.550074e-09	5.275393e+01	6.210399e+02
1.870000e-06	7.786632e-06	9.502737e-09	5.233697e+01	6.197250e+02
1.880000e-06	7.721836e-06	9.407115e-09	5.190144e+01	6.183556e+02
1.890000e-06	7.654082e-06	9.416936e-09	5.144605e+01	6.168344e+02
1.900000e-06	7.583422e-06	9.353853e-09	5.097112e+01	6.151119e+02
1.910000e-06	7.509812e-06	9.408448e-09	5.047635e+01	6.132119e+02
1.920000e-06	7.433266e-06	9.374428e-09	4.996186e+01	6.112195e+02
1.930000e-06	7.354028e-06	9.345323e-09	4.942927e+01	6.092394e+02
1.940000e-06	7.272207e-06	9.309347e-09	4.887932e+01	6.073437e+02
1.950000e-06	7.187876e-06	9.220097e-09	4.831250e+01	6.055336e+02
1.960000e-06	7.100797e-06	9.224089e-09	4.772720e+01	6.037343e+02
1.970000e-06	7.011197e-06	9.156493e-09	4.712497e+01	6.018249e+02
1.980000e-06	6.919207e-06	9.170086e-09	4.650667e+01	5.996918e+02
1.990000e-06	6.824724e-06	9.143386e-09	4.587161e+01	5.972797e+02
2.000000e-06	6.727844e-06	9.111801e-09	4.522044e+01	5.946179e+02
2.010000e-06	6.628569e-06	9.060802e-09	4.455318e+01	5.918087e+02
2.020000e-06	6.526893e-06	8.980337e-09	4.386977e+01	5.889813e+02
2.030000e-06	6.422781e-06	8.948244e-09	4.316999e+01	5.862330e+02
2.040000e-06	6.316419e-06	8.898901e-09	4.245509e+01	5.835825e+02
2.050000e-06	6.207828e-06	8.888751e-09	4.172521e+01	5.809577e+02
2.060000e-06	6.097012e-06	8.837352e-09	4.098038e+01	5.782248e+02
2.070000e-06	5.983909e-06	8.794720e-09	4.022017e+01	5.752452e+02
2.080000e-06	5.868408e-06	8.735878e-09	3.944384e+01	5.719362e+02
2.090000e-06	5.750619e-06	8.676894e-09	3.865213e+01	5.683085e+02
2.100000e-06	5.630684e-06	8.615855e-09	3.784600e+01	5.644609e+02
2.110000e-06	5.508745e-06	8.559729e-09	3.702641e+01	5.605358e+02
2.120000e-06	5.384783e-06	8.510189e-09	3.619321e+01	5.566531e+02
2.130000e-06	5.258919e-06	8.455298e-09	3.534723e+01	5.528523e+02
2.140000e-06	5.131189e-06	8.394525e-09	3.448871e+01	5.490699e+02
2.150000e-06	5.001642e-06	8.318872e-09	3.361797e+01	5.451622e+02
2.160000e-06	4.870281e-06	8.251732e-09	3.273504e+01	5.409663e+02
2.170000e-06	4.737165e-06	8.179680e-09	3.184032e+01	5.363710e+02
2.180000e-06	4.602380e-06	8.113578e-09	3.093438e+01	5.313671e+02
2.190000e-06	4.465937e-06	8.038729e-09	3.001729e+01	5.260524e+02
2.200000e-06	4.327805e-06	7.968869e-09	2.908885e+01	5.205887e+02
2.210000e-06	4.187972e-06	7.887535e-09	2.814898e+01	5.151270e+02
2.220000e-06	4.046567e-06	7.802036e-09	2.719854e+01	5.097357e+02
2.230000e-06	3.903667e-06	7.707656e-09	2.623806e+01	5.043622e+02
2.240000e-06	3.759405e-06	7.613513e-09	2.526841e+01	4.988499e+02
2.250000e-06	3.613863e-06	7.523307e-09	2.429017e+01	4.930016e+02
2.260000e-06	3.466951e-06	7.431164e-09	2.330272e+01	4.866648e+02
2.270000e-06	3.318749e-06	7.333106e-09	2.230659e+01	4.797993e+02
2.280000e-06	3.169465e-06	7.225569e-09	2.130320e+01	4.724954e+02
2.290000e-06	3.019100e-06	7.117570e-09	2.029254e+01	4.649312e+02
2.300000e-06	2.867660e-06	7.005462e-09	1.927465e+01	4.572862e+02
2.310000e-06	2.715188e-06	6.889476e-09	1.824983e+01	4.496476e+02
2.320000e-06	2.561798e-06	6.764121e-09	1.721884e+01	4.419539e+02
2.330000e-06	2.407442e-06	6.633870e-09	1.618135e+01	4.340033e+02
2.340000e-06	2.252095e-06	6.498116e-09	1.513720e+01	4.255281e+02
2.350000e-06	2.095865e-06	6.359893e-09	1.408712e+01	4.163063e+02
2.360000e-06	1.938895e-06	6.214264e-09	1.303207e+01	4.062593e+02
2.370000e-06	1.781265e-06	6.060178e-09	1.197257e+01	3.954906e+02
2.380000e-06	1.623018e-06	5.898958e-09	1.090894e+01	3.842399e+02
2.390000e-06	1.464273e-06	5.730497e-09	9.841948e+00	3.727670e+02
2.400000e-06	1.305054e-06	5.552091e-09	8.771772e+00	3.612111e+02
2.410000e-06	1.145326e-06	5.359291e-09	7.698179e+00	3.494896e+02
2.420000e-06	9.851511e-07	5.157248e-09	6.621581e+00	3.372859e+02
2.430000e-06	8.246329e-07	4.946346e-09	5.542677e+00	3.241443e+02
2.440000e-06	6.638313e-07	4.726002e-09	4.461867e+00	3.096394e+02
2.450000e-06	5.027795e-07	4.492348e-09	3.379375e+00	2.935501e+02
2.460000e-06	3.415457e-07	4.242529e-09	2.295661e+00	2.759565e+02
2.470000e-06	1.801546e-07	3.974474e-09	1.210889e+00	2.571994e+02
2.480000e-06	1.866816e-08	3.685075e-09	1.254759e-01	2.376932e+02
2.490000e-06	-1.427681e-07	3.370171e-09	-9.595995e-01	2.176476e+02
2.500000e-06	-3.040750e-07	3.024972e-09	-2.043806e+00	1.968008e+02
2.510000e-06	-4.652094e-07	2.652282e-09	-3.126853e+00	1.742811e+02
2.520000e-06	-6.261954e-07	2.248559e-09	-4.208902e+00	1.486820e+02
2.530000e-06	-7.870110e-07	1.798490e-09	-5.289806e+00	1.183684e+02
2.540000e-06	-9.475896e-07	1.279336e-09	-6.369116e+00	8.194695e+01
2.550000e-06	-1.107757e-06	6.666491e-10	-7.445665e+00	3.876498e+01
2.560000e-06	-1.267408e-06	-6.078475e-11	-8.518740e+00	-1.072188e+01
2.570000e-06	-1.426596e-06	-9.032068e-10	-9.588701e+00	-6.484682e+01
2.580000e-06	-1.585270e-06	-1.813697e-09	-1.065522e+01	-1.209500e+02
2.590000e-06	-1.743387e-06	-2.703888e-09	-1.171798e+01	-1.758748e+02
2.600000e-06	-1.900881e-06	-3.489350e-09	-1.277656e+01	-2.266093e+02
2.610000e-06	-2.057666e-06	-4.136254e-09	-1.383037e+01	-2.708935e+02
2.620000e-06	-2.213681e-06	-4.659046e-09	-1.487901e+01	-3.076220e+02
2.630000e-06	-2.368901e-06	-5.090979e-09	-1.592230e+01	-3.369366e+02
2.640000e-06	-2.523248e-06	-5.456384e-09	-1.695973e+01	-3.600028e+02
2.650000e-06	-2.676635e-06	-5.766260e-09	-1.799070e+01	-3.785583e+02
2.660000e-06	-2.829021e-06	-6.032101e-09	-1.901495e+01	-3.943856e+02
2.670000e-06	-2.980352e-06	-6.268709e-09	-2.003210e+01	-4.088714e+02
2.680000e-06	-3.130610e-06	-6.487443e-09	-2.104204e+01	-4.227701e+02
2.690000e-06	-3.279791e-06	-6.686374e-09	-2.204474e+01	-4.362110e+02
2.700000e-06	-3.427848e-06	-6.861864e-09	-2.303989e+01	-4.489042e+02
2.710000e-06	-3.574647e-06	-7.021365e-09	-2.402659e+01	-4.604396e+02
2.720000e-06	-3.720120e-06	-7.171835e-09	-2.500436e+01	-4.705572e+02
2.730000e-06	-3.864269e-06	-7.311020e-09	-2.597324e+01	-4.792942e+02
2.740000e-06	-4.007028e-06	-7.437217e-09	-2.693279e+01	-4.869750e+02
2.750000e-06	-4.148309e-06	-7.554433e-09	-2.788239e+01	-4.940727e+02
2.760000e-06	-4.288017e-06	-7.667551e-09	-2.882142e+01	-5.010187e+02
2.770000e-06	-4.426064e-06	-7.776438e-09	-2.974929e+01	-5.080461e+02
2.780000e-06	-4.562433e-06	-7.878799e-09	-3.066588e+01	-5.151307e+02
2.790000e-06	-4.697166e-06	-7.975684e-09	-3.157147e+01	-5.220450e+02
2.800000e-06	-4.830237e-06	-8.066230e-09	-3.246589e+01	-5.284918e+02
2.810000e-06	-4.961576e-06	-8.148002e-09	-3.334867e+01	-5.342553e+02
2.820000e-06	-5.091076e-06	-8.224167e-09	-3.421909e+01	-5.393032e+02
2.830000e-06	-5.218765e-06	-8.300368e-09	-3.507734e+01	-5.438011e+02
2.840000e-06	-5.344707e-06	-8.378409e-09	-3.592385e+01	-5.480382e+02
2.850000e-06	-5.468769e-06	-8.454783e-09	-3.675771e+01	-5.523028e+02
2.860000e-06	-5.590847e-06	-8.524488e-09	-3.757825e+01	-5.567648e+02
2.870000e-06	-5.710908e-06	-8.589908e-09	-3.838522e+01	-5.614142e+02
2.880000e-06	-5.828840e-06	-8.654513e-09	-3.917789e+01	-5.660801e+02
2.890000e-06	-5.944452e-06	-8.718023e-09	-3.995496e+01	-5.705172e+02
2.900000e-06	-6.057637e-06	-8.776752e-09	-4.071572e+01	-5.745197e+02
2.910000e-06	-6.168443e-06	-8.828641e-09	-4.146049e+01	-5.780117e+02
2.920000e-06	-6.277050e-06	-8.879719e-09	-4.219048e+01	-5.810766e+02
2.930000e-06	-6.383594e-06	-8.932220e-09	-4.290661e+01	-5.839155e+02
2.940000e-06	-6.487899e-06	-8.982284e-09	-4.360768e+01	-5.867559e+02
