# Temperatura_=_59.24
# Concentracion g/m^3_=_13400.0
# C_Vs_to_Am_M_A/Vsm_=_65563218390.804596
# pendiente_HvsI_1/m_=_3716.3
# ordenada_HvsI_A/m_=_1297.0
# frecuencia_Hz_=_301398.82656229404

Tiempo_(s)	Campo_(V.s)	Magnetizacion_(V.s)	Campo_(kA/m)	Magnetizacion_(A/m)
0.000000e+00	-8.399670e-06	-1.239730e-08	-5.692466e+01	-8.136994e+02
1.000000e-08	-8.395507e-06	-1.238885e-08	-5.689645e+01	-8.137558e+02
2.000000e-08	-8.388662e-06	-1.238081e-08	-5.685006e+01	-8.138371e+02
3.000000e-08	-8.379098e-06	-1.237426e-08	-5.678525e+01	-8.137704e+02
4.000000e-08	-8.366580e-06	-1.236728e-08	-5.670041e+01	-8.134019e+02
5.000000e-08	-8.350993e-06	-1.235838e-08	-5.659478e+01	-8.126642e+02
6.000000e-08	-8.332556e-06	-1.234477e-08	-5.646983e+01	-8.116073e+02
7.000000e-08	-8.311637e-06	-1.233073e-08	-5.632806e+01	-8.103794e+02
8.000000e-08	-8.288006e-06	-1.235189e-08	-5.616791e+01	-8.091655e+02
9.000000e-08	-8.261057e-06	-1.236150e-08	-5.598528e+01	-8.081102e+02
1.000000e-07	-8.230805e-06	-1.234829e-08	-5.578026e+01	-8.072592e+02
1.100000e-07	-8.197514e-06	-1.231817e-08	-5.555465e+01	-8.065424e+02
1.200000e-07	-8.161282e-06	-1.227284e-08	-5.530910e+01	-8.058062e+02
1.300000e-07	-8.122480e-06	-1.223048e-08	-5.504614e+01	-8.048792e+02
1.400000e-07	-8.081359e-06	-1.219261e-08	-5.476747e+01	-8.036428e+02
1.500000e-07	-8.037658e-06	-1.222097e-08	-5.447130e+01	-8.020753e+02
1.600000e-07	-7.991084e-06	-1.216965e-08	-5.415567e+01	-8.002509e+02
1.700000e-07	-7.941634e-06	-1.216778e-08	-5.382054e+01	-7.982974e+02
1.800000e-07	-7.889126e-06	-1.218143e-08	-5.346470e+01	-7.963309e+02
1.900000e-07	-7.833582e-06	-1.209028e-08	-5.308827e+01	-7.943998e+02
2.000000e-07	-7.775205e-06	-1.205388e-08	-5.269265e+01	-7.924632e+02
2.100000e-07	-7.714010e-06	-1.199113e-08	-5.227793e+01	-7.904132e+02
2.200000e-07	-7.650084e-06	-1.197096e-08	-5.184471e+01	-7.881304e+02
2.300000e-07	-7.583337e-06	-1.197650e-08	-5.139236e+01	-7.855464e+02
2.400000e-07	-7.513753e-06	-1.193972e-08	-5.092079e+01	-7.826834e+02
2.500000e-07	-7.441346e-06	-1.188799e-08	-5.043009e+01	-7.796506e+02
2.600000e-07	-7.366061e-06	-1.184457e-08	-4.991988e+01	-7.765987e+02
2.700000e-07	-7.287958e-06	-1.181667e-08	-4.939057e+01	-7.736509e+02
2.800000e-07	-7.207055e-06	-1.173289e-08	-4.884229e+01	-7.708425e+02
2.900000e-07	-7.123545e-06	-1.167778e-08	-4.827635e+01	-7.680975e+02
3.000000e-07	-7.037676e-06	-1.165937e-08	-4.769441e+01	-7.652545e+02
3.100000e-07	-6.949434e-06	-1.161936e-08	-4.709640e+01	-7.621323e+02
3.200000e-07	-6.858714e-06	-1.158127e-08	-4.648158e+01	-7.586080e+02
3.300000e-07	-6.765501e-06	-1.150718e-08	-4.584988e+01	-7.546720e+02
3.400000e-07	-6.669855e-06	-1.142868e-08	-4.520169e+01	-7.504358e+02
3.500000e-07	-6.571784e-06	-1.137013e-08	-4.453706e+01	-7.460862e+02
3.600000e-07	-6.471291e-06	-1.132140e-08	-4.385601e+01	-7.418051e+02
3.700000e-07	-6.368467e-06	-1.125470e-08	-4.315917e+01	-7.376896e+02
3.800000e-07	-6.263374e-06	-1.118318e-08	-4.244696e+01	-7.337072e+02
3.900000e-07	-6.155992e-06	-1.113021e-08	-4.171923e+01	-7.297073e+02
4.000000e-07	-6.046413e-06	-1.106292e-08	-4.097661e+01	-7.254846e+02
4.100000e-07	-5.934680e-06	-1.098185e-08	-4.021940e+01	-7.208685e+02
4.200000e-07	-5.820708e-06	-1.089042e-08	-3.944700e+01	-7.157979e+02
4.300000e-07	-5.704457e-06	-1.081893e-08	-3.865917e+01	-7.103490e+02
4.400000e-07	-5.585969e-06	-1.075824e-08	-3.785618e+01	-7.047022e+02
4.500000e-07	-5.465426e-06	-1.068673e-08	-3.703925e+01	-6.990607e+02
4.600000e-07	-5.342959e-06	-1.059555e-08	-3.620929e+01	-6.935569e+02
4.700000e-07	-5.218558e-06	-1.049875e-08	-3.536623e+01	-6.881880e+02
4.800000e-07	-5.092275e-06	-1.040786e-08	-3.451041e+01	-6.828103e+02
4.900000e-07	-4.964175e-06	-1.031244e-08	-3.364227e+01	-6.771971e+02
5.000000e-07	-4.834314e-06	-1.021505e-08	-3.276220e+01	-6.711359e+02
5.100000e-07	-4.702702e-06	-1.011318e-08	-3.187026e+01	-6.645224e+02
5.200000e-07	-4.569331e-06	-1.002029e-08	-3.096641e+01	-6.574088e+02
5.300000e-07	-4.434326e-06	-9.928364e-09	-3.005148e+01	-6.499833e+02
5.400000e-07	-4.297725e-06	-9.820314e-09	-2.912573e+01	-6.424863e+02
5.500000e-07	-4.159490e-06	-9.696123e-09	-2.818891e+01	-6.351001e+02
5.600000e-07	-4.019600e-06	-9.572641e-09	-2.724088e+01	-6.278600e+02
5.700000e-07	-3.878062e-06	-9.457258e-09	-2.628167e+01	-6.206274e+02
5.800000e-07	-3.735031e-06	-9.338301e-09	-2.531235e+01	-6.131416e+02
5.900000e-07	-3.590658e-06	-9.213775e-09	-2.433393e+01	-6.051278e+02
6.000000e-07	-3.444904e-06	-9.083688e-09	-2.334615e+01	-5.964173e+02
6.100000e-07	-3.297837e-06	-8.952861e-09	-2.234948e+01	-5.870238e+02
6.200000e-07	-3.149687e-06	-8.814503e-09	-2.134546e+01	-5.771406e+02
6.300000e-07	-3.000492e-06	-8.661608e-09	-2.033437e+01	-5.670538e+02
6.400000e-07	-2.850267e-06	-8.498869e-09	-1.931629e+01	-5.570081e+02
6.500000e-07	-2.699087e-06	-8.337447e-09	-1.829174e+01	-5.470823e+02
6.600000e-07	-2.546973e-06	-8.177871e-09	-1.726086e+01	-5.371332e+02
6.700000e-07	-2.393890e-06	-8.012597e-09	-1.622342e+01	-5.268370e+02
6.800000e-07	-2.239876e-06	-7.839939e-09	-1.517967e+01	-5.158171e+02
6.900000e-07	-2.085076e-06	-7.659707e-09	-1.413059e+01	-5.038038e+02
7.000000e-07	-1.929601e-06	-7.473627e-09	-1.307693e+01	-4.907577e+02
7.100000e-07	-1.773482e-06	-7.275581e-09	-1.201891e+01	-4.768930e+02
7.200000e-07	-1.616647e-06	-7.064306e-09	-1.095604e+01	-4.625837e+02
7.300000e-07	-1.459104e-06	-6.843223e-09	-9.888361e+00	-4.481845e+02
7.400000e-07	-1.300966e-06	-6.618848e-09	-8.816662e+00	-4.338384e+02
7.500000e-07	-1.142322e-06	-6.387638e-09	-7.741527e+00	-4.193605e+02
7.600000e-07	-9.833054e-07	-6.142080e-09	-6.663872e+00	-4.042587e+02
7.700000e-07	-8.239864e-07	-5.882001e-09	-5.584165e+00	-3.878952e+02
7.800000e-07	-6.643887e-07	-5.607385e-09	-4.502570e+00	-3.697338e+02
7.900000e-07	-5.046115e-07	-5.317138e-09	-3.419758e+00	-3.495647e+02
8.000000e-07	-3.446832e-07	-5.001975e-09	-2.335922e+00	-3.275995e+02
8.100000e-07	-1.845924e-07	-4.661146e-09	-1.250985e+00	-3.043677e+02
8.200000e-07	-2.444573e-08	-4.298519e-09	-1.656690e-01	-2.804229e+02
8.300000e-07	1.357046e-07	-3.913988e-09	9.196718e-01	-2.559538e+02
8.400000e-07	2.958687e-07	-3.498226e-09	2.005106e+00	-2.304473e+02
8.500000e-07	4.559248e-07	-3.038046e-09	3.089808e+00	-2.025595e+02
8.600000e-07	6.157757e-07	-2.525577e-09	4.173119e+00	-1.702896e+02
8.700000e-07	7.753508e-07	-1.947227e-09	5.254561e+00	-1.314549e+02
8.800000e-07	9.346382e-07	-1.274118e-09	6.334054e+00	-8.434900e+01
8.900000e-07	1.093594e-06	-4.692437e-10	7.411300e+00	-2.839011e+01
9.000000e-07	1.252166e-06	4.912941e-10	8.485944e+00	3.545788e+01
9.100000e-07	1.410354e-06	1.592886e-09	9.557987e+00	1.046477e+02
9.200000e-07	1.568043e-06	2.748110e-09	1.062665e+01	1.754401e+02
9.300000e-07	1.725057e-06	3.828867e-09	1.169073e+01	2.436354e+02
9.400000e-07	1.881341e-06	4.744757e-09	1.274987e+01	3.054433e+02
9.500000e-07	2.036968e-06	5.479685e-09	1.380455e+01	3.582479e+02
9.600000e-07	2.191922e-06	6.069788e-09	1.485468e+01	4.010519e+02
9.700000e-07	2.346060e-06	6.556311e-09	1.589928e+01	4.344898e+02
9.800000e-07	2.499308e-06	6.965647e-09	1.693784e+01	4.604334e+02
9.900000e-07	2.651650e-06	7.315738e-09	1.797026e+01	4.813348e+02
1.000000e-06	2.803075e-06	7.624222e-09	1.899647e+01	4.995222e+02
1.010000e-06	2.953527e-06	7.901281e-09	2.001608e+01	5.166596e+02
1.020000e-06	3.102837e-06	8.149872e-09	2.102796e+01	5.335075e+02
1.030000e-06	3.250989e-06	8.374999e-09	2.203199e+01	5.500109e+02
1.040000e-06	3.398077e-06	8.583421e-09	2.302881e+01	5.656306e+02
1.050000e-06	3.543956e-06	8.781394e-09	2.401743e+01	5.797632e+02
1.060000e-06	3.688484e-06	8.970249e-09	2.499690e+01	5.920872e+02
1.070000e-06	3.831671e-06	9.146243e-09	2.596728e+01	6.027220e+02
1.080000e-06	3.973409e-06	9.307712e-09	2.692784e+01	6.121700e+02
1.090000e-06	4.113620e-06	9.459685e-09	2.787805e+01	6.210988e+02
1.100000e-06	4.252283e-06	9.607196e-09	2.881777e+01	6.300727e+02
1.110000e-06	4.389369e-06	9.747709e-09	2.974680e+01	6.393518e+02
1.120000e-06	4.524852e-06	9.877550e-09	3.066497e+01	6.488328e+02
1.130000e-06	4.658711e-06	1.000346e-08	3.157214e+01	6.581435e+02
1.140000e-06	4.790876e-06	1.013055e-08	3.246782e+01	6.668381e+02
1.150000e-06	4.921308e-06	1.025362e-08	3.335176e+01	6.746031e+02
1.160000e-06	5.049988e-06	1.036504e-08	3.422382e+01	6.813894e+02
1.170000e-06	5.176875e-06	1.046447e-08	3.508374e+01	6.874208e+02
1.180000e-06	5.301956e-06	1.056008e-08	3.593141e+01	6.930871e+02
1.190000e-06	5.425189e-06	1.065474e-08	3.676657e+01	6.987746e+02
1.200000e-06	5.546508e-06	1.074552e-08	3.758875e+01	7.047108e+02
1.210000e-06	5.665757e-06	1.083073e-08	3.839690e+01	7.108873e+02
1.220000e-06	5.782799e-06	1.091548e-08	3.919009e+01	7.170877e+02
1.230000e-06	5.897644e-06	1.100062e-08	3.996840e+01	7.230021e+02
1.240000e-06	6.010293e-06	1.107969e-08	4.073182e+01	7.283727e+02
1.250000e-06	6.120799e-06	1.115087e-08	4.148072e+01	7.331075e+02
1.260000e-06	6.229200e-06	1.121958e-08	4.221536e+01	7.373147e+02
1.270000e-06	6.335369e-06	1.129095e-08	4.293487e+01	7.412486e+02
1.280000e-06	6.439227e-06	1.135976e-08	4.363871e+01	7.451944e+02
1.290000e-06	6.540725e-06	1.142230e-08	4.432657e+01	7.493451e+02
1.300000e-06	6.639846e-06	1.148021e-08	4.499831e+01	7.537248e+02
1.310000e-06	6.736582e-06	1.153718e-08	4.565389e+01	7.581873e+02
1.320000e-06	6.830942e-06	1.159569e-08	4.629337e+01	7.624891e+02
1.330000e-06	6.922881e-06	1.165317e-08	4.691644e+01	7.664004e+02
1.340000e-06	7.012313e-06	1.170811e-08	4.752253e+01	7.698046e+02
1.350000e-06	7.099321e-06	1.176160e-08	4.811218e+01	7.727452e+02
1.360000e-06	7.183956e-06	1.181330e-08	4.868575e+01	7.753997e+02
1.370000e-06	7.266044e-06	1.186001e-08	4.924206e+01	7.779984e+02
1.380000e-06	7.345478e-06	1.190118e-08	4.978039e+01	7.807228e+02
1.390000e-06	7.422187e-06	1.194035e-08	5.030025e+01	7.836301e+02
1.400000e-06	7.496067e-06	1.198130e-08	5.080093e+01	7.866356e+02
1.410000e-06	7.567231e-06	1.202294e-08	5.128321e+01	7.895578e+02
1.420000e-06	7.635775e-06	1.206395e-08	5.174773e+01	7.922037e+02
1.430000e-06	7.701567e-06	1.210479e-08	5.219361e+01	7.944562e+02
1.440000e-06	7.764664e-06	1.214294e-08	5.262121e+01	7.963242e+02
1.450000e-06	7.825104e-06	1.217341e-08	5.303082e+01	7.979350e+02
1.460000e-06	7.882709e-06	1.219717e-08	5.342121e+01	7.994742e+02
1.470000e-06	7.937427e-06	1.222131e-08	5.379203e+01	8.011013e+02
1.480000e-06	7.989078e-06	1.224643e-08	5.414207e+01	8.028795e+02
1.490000e-06	8.037580e-06	1.227001e-08	5.447077e+01	8.047497e+02
1.500000e-06	8.083177e-06	1.229404e-08	5.477978e+01	8.065607e+02
1.510000e-06	8.125901e-06	1.232119e-08	5.506933e+01	8.081389e+02
1.520000e-06	8.165733e-06	1.234827e-08	5.533926e+01	8.093677e+02
1.530000e-06	8.202762e-06	1.236945e-08	5.559021e+01	8.102391e+02
1.540000e-06	8.236907e-06	1.238134e-08	5.582161e+01	8.108567e+02
1.550000e-06	8.268159e-06	1.238866e-08	5.603341e+01	8.113887e+02
1.560000e-06	8.296593e-06	1.239858e-08	5.622611e+01	8.119925e+02
1.570000e-06	8.322047e-06	1.241061e-08	5.639861e+01	8.127452e+02
1.580000e-06	8.344482e-06	1.242251e-08	5.655065e+01	8.136117e+02
1.590000e-06	8.364052e-06	1.243422e-08	5.668328e+01	8.144621e+02
1.600000e-06	8.380678e-06	1.244545e-08	5.679595e+01	8.151330e+02
1.610000e-06	8.394111e-06	1.245330e-08	5.688699e+01	8.155017e+02
1.620000e-06	8.404279e-06	1.245561e-08	5.695590e+01	8.155427e+02
1.630000e-06	8.411416e-06	1.245563e-08	5.700426e+01	8.153397e+02
1.640000e-06	8.415651e-06	1.245434e-08	5.703296e+01	8.150480e+02
1.650000e-06	8.416911e-06	1.245241e-08	5.704150e+01	8.148248e+02
1.660000e-06	8.415321e-06	1.244853e-08	5.703072e+01	8.147578e+02
1.670000e-06	8.410945e-06	1.245061e-08	5.700107e+01	8.148239e+02
1.680000e-06	8.403784e-06	1.245216e-08	5.695254e+01	8.148978e+02
1.690000e-06	8.393824e-06	1.244662e-08	5.688504e+01	8.148050e+02
1.700000e-06	8.380843e-06	1.243966e-08	5.679707e+01	8.143981e+02
1.710000e-06	8.365038e-06	1.243604e-08	5.668996e+01	8.136216e+02
1.720000e-06	8.346769e-06	1.243775e-08	5.656615e+01	8.125380e+02
1.730000e-06	8.325866e-06	1.239108e-08	5.642449e+01	8.113028e+02
1.740000e-06	8.301805e-06	1.233812e-08	5.626143e+01	8.101002e+02
1.750000e-06	8.273955e-06	1.230863e-08	5.607269e+01	8.090666e+02
1.760000e-06	8.242350e-06	1.229753e-08	5.585850e+01	8.082352e+02
1.770000e-06	8.207876e-06	1.231493e-08	5.562487e+01	8.075245e+02
1.780000e-06	8.170917e-06	1.235451e-08	5.537439e+01	8.067755e+02
1.790000e-06	8.131675e-06	1.232690e-08	5.510845e+01	8.058195e+02
1.800000e-06	8.090453e-06	1.225720e-08	5.482910e+01	8.045468e+02
1.810000e-06	8.046665e-06	1.228693e-08	5.453234e+01	8.029466e+02
1.820000e-06	7.999942e-06	1.222348e-08	5.421570e+01	8.011019e+02
1.830000e-06	7.950296e-06	1.221193e-08	5.387925e+01	7.991422e+02
1.840000e-06	7.897300e-06	1.220901e-08	5.352009e+01	7.971786e+02
1.850000e-06	7.841300e-06	1.213920e-08	5.314058e+01	7.952503e+02
1.860000e-06	7.782583e-06	1.217783e-08	5.274266e+01	7.933074e+02
1.870000e-06	7.721009e-06	1.210738e-08	5.232537e+01	7.912376e+02
1.880000e-06	7.656674e-06	1.203366e-08	5.188937e+01	7.889244e+02
1.890000e-06	7.589415e-06	1.197563e-08	5.143355e+01	7.863076e+02
1.900000e-06	7.519272e-06	1.192223e-08	5.095819e+01	7.834199e+02
1.910000e-06	7.446229e-06	1.191332e-08	5.046318e+01	7.803777e+02
1.920000e-06	7.370336e-06	1.187382e-08	4.994885e+01	7.773321e+02
1.930000e-06	7.291700e-06	1.186786e-08	4.941594e+01	7.743993e+02
1.940000e-06	7.210469e-06	1.179973e-08	4.886543e+01	7.716032e+02
1.950000e-06	7.126769e-06	1.174260e-08	4.829819e+01	7.688564e+02
1.960000e-06	7.040356e-06	1.168302e-08	4.771257e+01	7.659916e+02
1.970000e-06	6.951413e-06	1.159499e-08	4.710981e+01	7.628305e+02
1.980000e-06	6.860093e-06	1.155444e-08	4.649093e+01	7.592601e+02
1.990000e-06	6.766258e-06	1.151394e-08	4.585500e+01	7.552847e+02
2.000000e-06	6.670066e-06	1.148337e-08	4.520311e+01	7.510267e+02
2.010000e-06	6.571617e-06	1.141359e-08	4.453592e+01	7.466765e+02
2.020000e-06	6.470796e-06	1.134438e-08	4.385266e+01	7.424105e+02
2.030000e-06	6.367528e-06	1.125946e-08	4.315281e+01	7.383131e+02
2.040000e-06	6.261989e-06	1.119432e-08	4.243757e+01	7.343376e+02
2.050000e-06	6.154263e-06	1.113074e-08	4.170751e+01	7.303237e+02
2.060000e-06	6.044370e-06	1.105977e-08	4.096276e+01	7.260656e+02
2.070000e-06	5.932179e-06	1.100099e-08	4.020245e+01	7.214012e+02
2.080000e-06	5.817699e-06	1.092218e-08	3.942661e+01	7.162840e+02
2.090000e-06	5.700948e-06	1.085022e-08	3.863539e+01	7.108040e+02
2.100000e-06	5.581909e-06	1.075315e-08	3.782866e+01	7.051485e+02
2.110000e-06	5.460853e-06	1.066668e-08	3.700826e+01	6.995173e+02
2.120000e-06	5.337897e-06	1.058055e-08	3.617499e+01	6.940307e+02
2.130000e-06	5.213086e-06	1.050303e-08	3.532914e+01	6.886698e+02
2.140000e-06	5.086340e-06	1.042182e-08	3.447019e+01	6.832783e+02
2.150000e-06	4.957726e-06	1.032406e-08	3.359857e+01	6.776259e+02
2.160000e-06	4.827353e-06	1.023007e-08	3.271503e+01	6.715079e+02
2.170000e-06	4.695245e-06	1.012547e-08	3.181973e+01	6.648354e+02
2.180000e-06	4.561494e-06	1.001865e-08	3.091330e+01	6.576775e+02
2.190000e-06	4.426069e-06	9.912294e-09	2.999552e+01	6.502328e+02
2.200000e-06	4.288959e-06	9.810230e-09	2.906632e+01	6.427409e+02
2.210000e-06	4.150287e-06	9.706743e-09	2.812654e+01	6.353718e+02
2.220000e-06	4.010067e-06	9.592248e-09	2.717627e+01	6.281418e+02
2.230000e-06	3.868341e-06	9.465077e-09	2.621579e+01	6.208958e+02
2.240000e-06	3.725175e-06	9.335294e-09	2.524555e+01	6.133655e+02
2.250000e-06	3.580660e-06	9.205567e-09	2.426617e+01	6.052823e+02
2.260000e-06	3.434922e-06	9.075301e-09	2.327850e+01	5.964943e+02
2.270000e-06	3.287929e-06	8.941734e-09	2.228233e+01	5.870365e+02
2.280000e-06	3.139753e-06	8.808466e-09	2.127814e+01	5.771172e+02
2.290000e-06	2.990536e-06	8.671032e-09	2.026690e+01	5.670251e+02
2.300000e-06	2.840342e-06	8.522060e-09	1.924903e+01	5.569921e+02
2.310000e-06	2.689083e-06	8.361959e-09	1.822395e+01	5.470744e+02
2.320000e-06	2.536725e-06	8.189151e-09	1.719141e+01	5.371058e+02
2.330000e-06	2.383458e-06	8.015822e-09	1.615272e+01	5.267495e+02
2.340000e-06	2.229382e-06	7.842425e-09	1.510855e+01	5.156326e+02
2.350000e-06	2.074472e-06	7.666115e-09	1.405872e+01	5.035058e+02
2.360000e-06	1.918788e-06	7.481231e-09	1.300365e+01	4.903577e+02
2.370000e-06	1.762442e-06	7.285897e-09	1.194409e+01	4.764259e+02
2.380000e-06	1.605521e-06	7.080949e-09	1.088063e+01	4.620923e+02
2.390000e-06	1.448053e-06	6.861818e-09	9.813469e+00	4.476971e+02
2.400000e-06	1.290099e-06	6.628785e-09	8.743019e+00	4.333517e+02
2.410000e-06	1.131735e-06	6.383826e-09	7.669781e+00	4.188348e+02
2.420000e-06	9.729459e-07	6.133228e-09	6.593665e+00	4.036286e+02
2.430000e-06	8.137514e-07	5.873636e-09	5.514803e+00	3.870939e+02
2.440000e-06	6.542047e-07	5.600072e-09	4.433553e+00	3.687201e+02
2.450000e-06	4.944121e-07	5.308697e-09	3.350637e+00	3.483411e+02
2.460000e-06	3.344540e-07	4.998882e-09	2.266599e+00	3.262114e+02
2.470000e-06	1.742838e-07	4.667001e-09	1.181123e+00	3.028797e+02
2.480000e-06	1.400355e-08	4.305702e-09	9.490221e-02	2.788797e+02
2.490000e-06	-1.462011e-07	3.912089e-09	-9.908063e-01	2.543384e+02
2.500000e-06	-3.062835e-07	3.482172e-09	-2.075687e+00	2.286553e+02
2.510000e-06	-4.661777e-07	3.015124e-09	-3.159291e+00	2.004016e+02
2.520000e-06	-6.258170e-07	2.500337e-09	-4.241169e+00	1.675301e+02
2.530000e-06	-7.852015e-07	1.919210e-09	-5.321319e+00	1.278758e+02
2.540000e-06	-9.442696e-07	1.245511e-09	-6.399326e+00	7.982425e+01
2.550000e-06	-1.102957e-06	4.451637e-10	-7.474751e+00	2.294474e+01
2.560000e-06	-1.261280e-06	-5.120298e-10	-8.547710e+00	-4.162326e+01
2.570000e-06	-1.419187e-06	-1.616309e-09	-9.617847e+00	-1.111788e+02
2.580000e-06	-1.576621e-06	-2.781775e-09	-1.068478e+01	-1.818941e+02
2.590000e-06	-1.733481e-06	-3.875976e-09	-1.174782e+01	-2.495712e+02
2.600000e-06	-1.889620e-06	-4.800296e-09	-1.280598e+01	-3.105134e+02
2.610000e-06	-2.045082e-06	-5.539445e-09	-1.385955e+01	-3.622640e+02
2.620000e-06	-2.199817e-06	-6.129388e-09	-1.490818e+01	-4.040078e+02
2.630000e-06	-2.353771e-06	-6.611981e-09	-1.595153e+01	-4.365370e+02
2.640000e-06	-2.506889e-06	-7.017205e-09	-1.698922e+01	-4.618198e+02
2.650000e-06	-2.659003e-06	-7.366256e-09	-1.802010e+01	-4.823272e+02
2.660000e-06	-2.810072e-06	-7.677103e-09	-1.904389e+01	-5.003378e+02
2.670000e-06	-2.960148e-06	-7.959673e-09	-2.006096e+01	-5.174240e+02
2.680000e-06	-3.109206e-06	-8.217134e-09	-2.107113e+01	-5.342496e+02
2.690000e-06	-3.257179e-06	-8.453671e-09	-2.207394e+01	-5.506889e+02
2.700000e-06	-3.404034e-06	-8.669022e-09	-2.306918e+01	-5.661756e+02
2.710000e-06	-3.549692e-06	-8.863846e-09	-2.405631e+01	-5.801226e+02
2.720000e-06	-3.694014e-06	-9.041413e-09	-2.503437e+01	-5.922520e+02
2.730000e-06	-3.836908e-06	-9.206695e-09	-2.600277e+01	-6.027306e+02
2.740000e-06	-3.978378e-06	-9.365504e-09	-2.696152e+01	-6.120908e+02
2.750000e-06	-4.118359e-06	-9.518384e-09	-2.791016e+01	-6.210016e+02
2.760000e-06	-4.256762e-06	-9.664936e-09	-2.884812e+01	-6.300023e+02
2.770000e-06	-4.393642e-06	-9.805332e-09	-2.977576e+01	-6.393141e+02
2.780000e-06	-4.528931e-06	-9.941424e-09	-3.069261e+01	-6.487979e+02
2.790000e-06	-4.662508e-06	-1.006952e-08	-3.159787e+01	-6.580633e+02
2.800000e-06	-4.794427e-06	-1.018439e-08	-3.249189e+01	-6.666693e+02
2.810000e-06	-4.924653e-06	-1.028817e-08	-3.337443e+01	-6.743267e+02
2.820000e-06	-5.053138e-06	-1.038883e-08	-3.424518e+01	-6.810173e+02
2.830000e-06	-5.179894e-06	-1.049310e-08	-3.510420e+01	-6.869896e+02
2.840000e-06	-5.304849e-06	-1.059625e-08	-3.595102e+01	-6.926415e+02
2.850000e-06	-5.427920e-06	-1.069395e-08	-3.678507e+01	-6.983487e+02
2.860000e-06	-5.549002e-06	-1.078622e-08	-3.760565e+01	-7.043154e+02
2.870000e-06	-5.668003e-06	-1.087292e-08	-3.841212e+01	-7.105077e+02
2.880000e-06	-5.784894e-06	-1.095491e-08	-3.920429e+01	-7.166927e+02
2.890000e-06	-5.899456e-06	-1.103113e-08	-3.998068e+01	-7.225591e+02
2.900000e-06	-6.011598e-06	-1.110500e-08	-4.074067e+01	-7.278625e+02
2.910000e-06	-6.121413e-06	-1.118024e-08	-4.148488e+01	-7.325323e+02
2.920000e-06	-6.229018e-06	-1.125674e-08	-4.221413e+01	-7.366965e+02
2.930000e-06	-6.334588e-06	-1.133008e-08	-4.292957e+01	-7.406188e+02
2.940000e-06	-6.437967e-06	-1.139737e-08	-4.363018e+01	-7.445799e+02
