# Temperatura_=_20.68
# Concentracion g/m^3_=_13400.0
# C_Vs_to_Am_M_A/Vsm_=_65563218390.804596
# pendiente_HvsI_1/m_=_3716.3
# ordenada_HvsI_A/m_=_1297.0
# frecuencia_Hz_=_301399.12696453166

Tiempo_(s)	Campo_(V.s)	Magnetizacion_(V.s)	Campo_(kA/m)	Magnetizacion_(A/m)
0.000000e+00	-8.411784e-06	-9.618859e-09	-5.692399e+01	-6.299128e+02
1.000000e-08	-8.407902e-06	-9.616050e-09	-5.689772e+01	-6.298168e+02
2.000000e-08	-8.401318e-06	-9.614454e-09	-5.685317e+01	-6.298766e+02
3.000000e-08	-8.392012e-06	-9.614549e-09	-5.679019e+01	-6.299989e+02
4.000000e-08	-8.379724e-06	-9.612743e-09	-5.670703e+01	-6.300350e+02
5.000000e-08	-8.364393e-06	-9.607158e-09	-5.660329e+01	-6.298448e+02
6.000000e-08	-8.346196e-06	-9.598341e-09	-5.648014e+01	-6.293565e+02
7.000000e-08	-8.325494e-06	-9.587691e-09	-5.634005e+01	-6.285989e+02
8.000000e-08	-8.302130e-06	-9.594210e-09	-5.618194e+01	-6.276909e+02
9.000000e-08	-8.275462e-06	-9.611228e-09	-5.600148e+01	-6.267934e+02
1.000000e-07	-8.245439e-06	-9.596556e-09	-5.579831e+01	-6.260440e+02
1.100000e-07	-8.212324e-06	-9.562625e-09	-5.557421e+01	-6.255008e+02
1.200000e-07	-8.176301e-06	-9.527674e-09	-5.533044e+01	-6.251201e+02
1.300000e-07	-8.137719e-06	-9.494470e-09	-5.506934e+01	-6.247751e+02
1.400000e-07	-8.096748e-06	-9.477110e-09	-5.479209e+01	-6.243081e+02
1.500000e-07	-8.053177e-06	-9.514074e-09	-5.449724e+01	-6.235932e+02
1.600000e-07	-8.006732e-06	-9.513584e-09	-5.418293e+01	-6.225831e+02
1.700000e-07	-7.957418e-06	-9.475623e-09	-5.384922e+01	-6.213210e+02
1.800000e-07	-7.905070e-06	-9.495726e-09	-5.349497e+01	-6.199149e+02
1.900000e-07	-7.849681e-06	-9.442068e-09	-5.312014e+01	-6.184865e+02
2.000000e-07	-7.791450e-06	-9.382885e-09	-5.272608e+01	-6.171173e+02
2.100000e-07	-7.730394e-06	-9.354761e-09	-5.231291e+01	-6.158174e+02
2.200000e-07	-7.666666e-06	-9.340362e-09	-5.188165e+01	-6.145268e+02
2.300000e-07	-7.600187e-06	-9.370707e-09	-5.143178e+01	-6.131498e+02
2.400000e-07	-7.530849e-06	-9.347704e-09	-5.096255e+01	-6.116033e+02
2.500000e-07	-7.458665e-06	-9.303021e-09	-5.047407e+01	-6.098582e+02
2.600000e-07	-7.383550e-06	-9.267118e-09	-4.996575e+01	-6.079530e+02
2.700000e-07	-7.305546e-06	-9.234786e-09	-4.943789e+01	-6.059749e+02
2.800000e-07	-7.224717e-06	-9.192644e-09	-4.889090e+01	-6.040164e+02
2.900000e-07	-7.141269e-06	-9.159177e-09	-4.832620e+01	-6.021287e+02
3.000000e-07	-7.055444e-06	-9.160627e-09	-4.774541e+01	-6.002925e+02
3.100000e-07	-6.967241e-06	-9.140396e-09	-4.714852e+01	-5.984221e+02
3.200000e-07	-6.876580e-06	-9.111546e-09	-4.653500e+01	-5.963999e+02
3.300000e-07	-6.783418e-06	-9.057783e-09	-4.590456e+01	-5.941283e+02
3.400000e-07	-6.687876e-06	-8.991950e-09	-4.525801e+01	-5.915741e+02
3.500000e-07	-6.589961e-06	-8.963382e-09	-4.459540e+01	-5.887853e+02
3.600000e-07	-6.489580e-06	-8.937381e-09	-4.391610e+01	-5.858730e+02
3.700000e-07	-6.386824e-06	-8.899514e-09	-4.322074e+01	-5.829633e+02
3.800000e-07	-6.281796e-06	-8.849675e-09	-4.251000e+01	-5.801423e+02
3.900000e-07	-6.174433e-06	-8.808649e-09	-4.178345e+01	-5.774166e+02
4.000000e-07	-6.064837e-06	-8.760429e-09	-4.104180e+01	-5.747084e+02
4.100000e-07	-5.953102e-06	-8.704212e-09	-4.028567e+01	-5.718877e+02
4.200000e-07	-5.839129e-06	-8.650518e-09	-3.951439e+01	-5.688276e+02
4.300000e-07	-5.722846e-06	-8.604803e-09	-3.872748e+01	-5.654586e+02
4.400000e-07	-5.604350e-06	-8.569933e-09	-3.792560e+01	-5.617981e+02
4.500000e-07	-5.483800e-06	-8.522180e-09	-3.710982e+01	-5.579406e+02
4.600000e-07	-5.361246e-06	-8.456931e-09	-3.628048e+01	-5.540132e+02
4.700000e-07	-5.236774e-06	-8.384352e-09	-3.543815e+01	-5.501155e+02
4.800000e-07	-5.110451e-06	-8.319270e-09	-3.458330e+01	-5.462707e+02
4.900000e-07	-4.982293e-06	-8.258823e-09	-3.371603e+01	-5.424107e+02
5.000000e-07	-4.852328e-06	-8.196137e-09	-3.283654e+01	-5.384019e+02
5.100000e-07	-4.720581e-06	-8.128122e-09	-3.194499e+01	-5.341025e+02
5.200000e-07	-4.587123e-06	-8.062346e-09	-3.104185e+01	-5.294238e+02
5.300000e-07	-4.451994e-06	-7.996009e-09	-3.012741e+01	-5.243705e+02
5.400000e-07	-4.315249e-06	-7.917435e-09	-2.920203e+01	-5.190378e+02
5.500000e-07	-4.176913e-06	-7.827489e-09	-2.826589e+01	-5.135682e+02
5.600000e-07	-4.036897e-06	-7.739029e-09	-2.731838e+01	-5.080838e+02
5.700000e-07	-3.895210e-06	-7.656527e-09	-2.635955e+01	-5.026262e+02
5.800000e-07	-3.752059e-06	-7.571062e-09	-2.539083e+01	-4.971299e+02
5.900000e-07	-3.607600e-06	-7.479284e-09	-2.441325e+01	-4.914444e+02
6.000000e-07	-3.461797e-06	-7.385316e-09	-2.342658e+01	-4.853957e+02
6.100000e-07	-3.314715e-06	-7.290437e-09	-2.243125e+01	-4.788614e+02
6.200000e-07	-3.166460e-06	-7.188971e-09	-2.142798e+01	-4.718242e+02
6.300000e-07	-3.017124e-06	-7.079227e-09	-2.041740e+01	-4.643799e+02
6.400000e-07	-2.866768e-06	-6.962704e-09	-1.939991e+01	-4.566910e+02
6.500000e-07	-2.715454e-06	-6.842770e-09	-1.837594e+01	-4.489066e+02
6.600000e-07	-2.563153e-06	-6.716553e-09	-1.734530e+01	-4.410824e+02
6.700000e-07	-2.409955e-06	-6.584249e-09	-1.630858e+01	-4.331378e+02
6.800000e-07	-2.255942e-06	-6.451363e-09	-1.526635e+01	-4.248730e+02
6.900000e-07	-2.101105e-06	-6.317679e-09	-1.421854e+01	-4.160432e+02
7.000000e-07	-1.945502e-06	-6.176764e-09	-1.316554e+01	-4.064573e+02
7.100000e-07	-1.789212e-06	-6.022807e-09	-1.210791e+01	-3.960608e+02
7.200000e-07	-1.632291e-06	-5.858580e-09	-1.104600e+01	-3.849597e+02
7.300000e-07	-1.474684e-06	-5.687881e-09	-9.979437e+00	-3.733705e+02
7.400000e-07	-1.316401e-06	-5.509663e-09	-8.908314e+00	-3.615122e+02
7.500000e-07	-1.157602e-06	-5.320868e-09	-7.833693e+00	-3.494846e+02
7.600000e-07	-9.984633e-07	-5.122150e-09	-6.756773e+00	-3.371873e+02
7.700000e-07	-8.390233e-07	-4.914959e-09	-5.677815e+00	-3.243218e+02
7.800000e-07	-6.792857e-07	-4.700009e-09	-4.596843e+00	-3.104853e+02
7.900000e-07	-5.192767e-07	-4.473864e-09	-3.514035e+00	-2.953230e+02
8.000000e-07	-3.590820e-07	-4.228319e-09	-2.429969e+00	-2.786739e+02
8.100000e-07	-1.987760e-07	-3.962403e-09	-1.345151e+00	-2.606416e+02
8.200000e-07	-3.841092e-08	-3.680939e-09	-2.599333e-01	-2.415404e+02
8.300000e-07	1.219971e-07	-3.383840e-09	8.255750e-01	-2.217188e+02
8.400000e-07	2.823131e-07	-3.065318e-09	1.910462e+00	-2.013129e+02
8.500000e-07	4.424735e-07	-2.719638e-09	2.994294e+00	-1.800250e+02
8.600000e-07	6.025360e-07	-2.346450e-09	4.077465e+00	-1.570253e+02
8.700000e-07	7.624361e-07	-1.942059e-09	5.159536e+00	-1.310453e+02
8.800000e-07	9.220914e-07	-1.488764e-09	6.239951e+00	-1.006672e+02
8.900000e-07	1.081421e-06	-9.642613e-10	7.318163e+00	-6.474263e+01
9.000000e-07	1.240354e-06	-3.504795e-10	8.393690e+00	-2.281861e+01
9.100000e-07	1.398835e-06	3.644315e-10	9.466160e+00	2.456825e+01
9.200000e-07	1.556761e-06	1.167654e-09	1.053487e+01	7.583597e+01
9.300000e-07	1.713978e-06	2.010032e-09	1.159878e+01	1.285785e+02
9.400000e-07	1.870584e-06	2.819805e-09	1.265856e+01	1.800158e+02
9.500000e-07	2.026640e-06	3.535628e-09	1.371462e+01	2.275515e+02
9.600000e-07	2.181938e-06	4.135673e-09	1.476555e+01	2.692817e+02
9.700000e-07	2.336331e-06	4.631597e-09	1.581035e+01	3.043147e+02
9.800000e-07	2.489777e-06	5.044723e-09	1.684875e+01	3.328217e+02
9.900000e-07	2.642336e-06	5.395846e-09	1.788114e+01	3.558222e+02
1.000000e-06	2.794068e-06	5.701159e-09	1.890794e+01	3.747892e+02
1.010000e-06	2.944852e-06	5.968729e-09	1.992832e+01	3.912060e+02
1.020000e-06	3.094492e-06	6.207129e-09	2.094096e+01	4.062089e+02
1.030000e-06	3.242934e-06	6.420214e-09	2.194549e+01	4.204087e+02
1.040000e-06	3.390207e-06	6.612265e-09	2.294211e+01	4.339145e+02
1.050000e-06	3.536314e-06	6.788486e-09	2.393085e+01	4.465143e+02
1.060000e-06	3.681174e-06	6.951009e-09	2.491114e+01	4.579217e+02
1.070000e-06	3.824707e-06	7.101657e-09	2.588245e+01	4.679870e+02
1.080000e-06	3.966799e-06	7.241581e-09	2.684401e+01	4.768016e+02
1.090000e-06	4.107342e-06	7.370793e-09	2.779509e+01	4.846738e+02
1.100000e-06	4.246309e-06	7.491142e-09	2.873550e+01	4.920067e+02
1.110000e-06	4.383696e-06	7.604053e-09	2.966523e+01	4.991442e+02
1.120000e-06	4.519497e-06	7.711710e-09	3.058421e+01	5.062548e+02
1.130000e-06	4.653636e-06	7.817295e-09	3.149196e+01	5.132985e+02
1.140000e-06	4.786089e-06	7.916982e-09	3.238829e+01	5.200849e+02
1.150000e-06	4.916873e-06	8.005328e-09	3.327333e+01	5.263873e+02
1.160000e-06	5.045934e-06	8.083555e-09	3.414670e+01	5.320629e+02
1.170000e-06	5.173199e-06	8.159420e-09	3.500793e+01	5.371234e+02
1.180000e-06	5.298642e-06	8.235434e-09	3.585682e+01	5.417333e+02
1.190000e-06	5.422214e-06	8.309461e-09	3.669305e+01	5.461381e+02
1.200000e-06	5.543845e-06	8.379396e-09	3.751615e+01	5.505617e+02
1.210000e-06	5.663426e-06	8.444957e-09	3.832538e+01	5.551161e+02
1.220000e-06	5.780800e-06	8.510386e-09	3.911967e+01	5.597645e+02
1.230000e-06	5.895971e-06	8.576517e-09	3.989905e+01	5.643495e+02
1.240000e-06	6.008967e-06	8.637176e-09	4.066371e+01	5.686717e+02
1.250000e-06	6.119801e-06	8.690044e-09	4.141375e+01	5.725824e+02
1.260000e-06	6.228525e-06	8.739923e-09	4.214950e+01	5.760481e+02
1.270000e-06	6.335033e-06	8.792104e-09	4.287026e+01	5.791627e+02
1.280000e-06	6.439200e-06	8.843781e-09	4.357517e+01	5.821023e+02
1.290000e-06	6.541054e-06	8.891774e-09	4.426444e+01	5.850452e+02
1.300000e-06	6.640566e-06	8.937741e-09	4.493785e+01	5.880947e+02
1.310000e-06	6.737585e-06	8.982852e-09	4.559439e+01	5.912371e+02
1.320000e-06	6.832202e-06	9.025051e-09	4.623469e+01	5.943523e+02
1.330000e-06	6.924476e-06	9.063012e-09	4.685912e+01	5.972721e+02
1.340000e-06	7.014283e-06	9.099424e-09	4.746686e+01	5.998575e+02
1.350000e-06	7.101651e-06	9.137061e-09	4.805810e+01	6.020619e+02
1.360000e-06	7.186664e-06	9.173471e-09	4.863339e+01	6.039526e+02
1.370000e-06	7.269180e-06	9.204951e-09	4.919179e+01	6.056812e+02
1.380000e-06	7.349027e-06	9.232672e-09	4.973213e+01	6.074187e+02
1.390000e-06	7.426173e-06	9.260143e-09	5.025419e+01	6.092829e+02
1.400000e-06	7.500516e-06	9.290212e-09	5.075728e+01	6.112896e+02
1.410000e-06	7.572096e-06	9.321592e-09	5.124168e+01	6.133503e+02
1.420000e-06	7.641032e-06	9.351306e-09	5.170818e+01	6.153140e+02
1.430000e-06	7.707207e-06	9.376829e-09	5.215600e+01	6.170357e+02
1.440000e-06	7.770581e-06	9.397586e-09	5.258486e+01	6.184406e+02
1.450000e-06	7.831303e-06	9.414357e-09	5.299577e+01	6.195560e+02
1.460000e-06	7.889307e-06	9.430888e-09	5.338830e+01	6.204982e+02
1.470000e-06	7.944429e-06	9.451347e-09	5.376132e+01	6.214202e+02
1.480000e-06	7.996420e-06	9.471069e-09	5.411315e+01	6.224453e+02
1.490000e-06	8.045190e-06	9.486157e-09	5.444318e+01	6.236135e+02
1.500000e-06	8.091066e-06	9.502218e-09	5.475363e+01	6.248665e+02
1.510000e-06	8.134172e-06	9.519583e-09	5.504534e+01	6.260753e+02
1.520000e-06	8.174372e-06	9.534259e-09	5.531738e+01	6.270993e+02
1.530000e-06	8.211705e-06	9.545474e-09	5.557002e+01	6.278487e+02
1.540000e-06	8.246146e-06	9.555250e-09	5.580309e+01	6.283251e+02
1.550000e-06	8.277664e-06	9.564131e-09	5.601637e+01	6.286200e+02
1.560000e-06	8.306386e-06	9.571620e-09	5.621074e+01	6.288746e+02
1.570000e-06	8.332142e-06	9.579115e-09	5.638504e+01	6.292176e+02
1.580000e-06	8.354884e-06	9.587938e-09	5.653893e+01	6.297087e+02
1.590000e-06	8.374742e-06	9.598617e-09	5.667332e+01	6.303130e+02
1.600000e-06	8.391603e-06	9.607179e-09	5.678742e+01	6.309170e+02
1.610000e-06	8.405337e-06	9.611059e-09	5.688036e+01	6.313797e+02
1.620000e-06	8.415851e-06	9.612800e-09	5.695151e+01	6.315954e+02
1.630000e-06	8.423245e-06	9.615037e-09	5.700155e+01	6.315414e+02
1.640000e-06	8.427690e-06	9.615307e-09	5.703163e+01	6.312890e+02
1.650000e-06	8.429149e-06	9.611456e-09	5.704150e+01	6.309735e+02
1.660000e-06	8.427804e-06	9.606863e-09	5.703240e+01	6.307350e+02
1.670000e-06	8.423726e-06	9.606121e-09	5.700480e+01	6.306571e+02
1.680000e-06	8.416782e-06	9.610195e-09	5.695781e+01	6.307292e+02
1.690000e-06	8.407029e-06	9.610191e-09	5.689181e+01	6.308494e+02
1.700000e-06	8.394313e-06	9.606735e-09	5.680576e+01	6.308669e+02
1.710000e-06	8.378716e-06	9.604031e-09	5.670021e+01	6.306462e+02
1.720000e-06	8.360653e-06	9.602878e-09	5.657798e+01	6.301256e+02
1.730000e-06	8.340009e-06	9.588457e-09	5.643828e+01	6.293446e+02
1.740000e-06	8.316215e-06	9.536707e-09	5.627726e+01	6.284295e+02
1.750000e-06	8.288592e-06	9.513842e-09	5.609033e+01	6.275420e+02
1.760000e-06	8.257165e-06	9.526287e-09	5.587766e+01	6.268134e+02
1.770000e-06	8.222813e-06	9.545050e-09	5.564519e+01	6.262911e+02
1.780000e-06	8.186005e-06	9.571714e-09	5.539610e+01	6.259210e+02
1.790000e-06	8.146925e-06	9.573798e-09	5.513165e+01	6.255701e+02
1.800000e-06	8.105862e-06	9.510934e-09	5.485376e+01	6.250811e+02
1.810000e-06	8.062303e-06	9.494765e-09	5.455899e+01	6.243349e+02
1.820000e-06	8.015735e-06	9.507101e-09	5.424386e+01	6.232939e+02
1.830000e-06	7.966259e-06	9.469550e-09	5.390905e+01	6.220102e+02
1.840000e-06	7.913424e-06	9.493772e-09	5.355150e+01	6.205959e+02
1.850000e-06	7.857474e-06	9.476719e-09	5.317288e+01	6.191707e+02
1.860000e-06	7.798859e-06	9.477160e-09	5.277622e+01	6.178095e+02
1.870000e-06	7.737392e-06	9.464304e-09	5.236026e+01	6.165142e+02
1.880000e-06	7.673235e-06	9.377245e-09	5.192610e+01	6.152188e+02
1.890000e-06	7.606254e-06	9.354441e-09	5.147283e+01	6.138265e+02
1.900000e-06	7.536358e-06	9.321935e-09	5.099983e+01	6.122586e+02
1.910000e-06	7.463491e-06	9.338699e-09	5.050673e+01	6.104931e+02
1.920000e-06	7.387693e-06	9.334805e-09	4.999379e+01	6.085750e+02
1.930000e-06	7.309184e-06	9.290363e-09	4.946250e+01	6.065946e+02
1.940000e-06	7.228032e-06	9.264479e-09	4.891334e+01	6.046421e+02
1.950000e-06	7.144379e-06	9.196394e-09	4.834724e+01	6.027618e+02
1.960000e-06	7.058086e-06	9.178565e-09	4.776328e+01	6.009267e+02
1.970000e-06	6.969234e-06	9.129643e-09	4.716200e+01	5.990454e+02
1.980000e-06	6.877954e-06	9.107766e-09	4.654430e+01	5.970000e+02
1.990000e-06	6.784188e-06	9.100982e-09	4.590977e+01	5.946980e+02
2.000000e-06	6.688049e-06	9.059288e-09	4.525918e+01	5.921146e+02
2.010000e-06	6.589575e-06	9.019760e-09	4.459279e+01	5.893062e+02
2.020000e-06	6.488800e-06	8.940606e-09	4.391082e+01	5.863881e+02
2.030000e-06	6.385583e-06	8.903529e-09	4.321234e+01	5.834846e+02
2.040000e-06	6.280027e-06	8.866613e-09	4.249802e+01	5.806748e+02
2.050000e-06	6.172282e-06	8.844860e-09	4.176889e+01	5.779556e+02
2.060000e-06	6.062345e-06	8.800314e-09	4.102493e+01	5.752418e+02
2.070000e-06	5.950089e-06	8.744509e-09	4.026528e+01	5.724006e+02
2.080000e-06	5.835505e-06	8.697300e-09	3.948987e+01	5.693089e+02
2.090000e-06	5.718690e-06	8.636260e-09	3.869936e+01	5.659060e+02
2.100000e-06	5.599634e-06	8.582216e-09	3.789368e+01	5.622185e+02
2.110000e-06	5.478511e-06	8.521252e-09	3.707402e+01	5.583470e+02
2.120000e-06	5.355460e-06	8.476974e-09	3.624132e+01	5.544188e+02
2.130000e-06	5.230597e-06	8.426000e-09	3.539635e+01	5.505269e+02
2.140000e-06	5.103876e-06	8.369586e-09	3.453881e+01	5.466849e+02
2.150000e-06	4.975264e-06	8.297793e-09	3.366847e+01	5.428157e+02
2.160000e-06	4.844808e-06	8.228757e-09	3.278565e+01	5.387818e+02
2.170000e-06	4.712657e-06	8.158405e-09	3.189136e+01	5.344442e+02
2.180000e-06	4.578888e-06	8.086449e-09	3.098612e+01	5.297231e+02
2.190000e-06	4.443461e-06	8.013262e-09	3.006967e+01	5.246336e+02
2.200000e-06	4.306336e-06	7.942602e-09	2.914172e+01	5.192788e+02
2.210000e-06	4.167546e-06	7.873002e-09	2.820250e+01	5.138025e+02
2.220000e-06	4.027210e-06	7.791897e-09	2.725282e+01	5.083205e+02
2.230000e-06	3.885338e-06	7.700373e-09	2.629275e+01	5.028634e+02
2.240000e-06	3.742053e-06	7.602366e-09	2.532311e+01	4.973547e+02
2.250000e-06	3.597509e-06	7.510792e-09	2.434496e+01	4.916380e+02
2.260000e-06	3.451666e-06	7.416591e-09	2.335802e+01	4.855413e+02
2.270000e-06	3.304498e-06	7.318969e-09	2.236210e+01	4.789514e+02
2.280000e-06	3.156226e-06	7.215249e-09	2.135873e+01	4.718641e+02
2.290000e-06	3.006882e-06	7.112582e-09	2.034809e+01	4.643849e+02
2.300000e-06	2.856450e-06	7.005589e-09	1.933009e+01	4.566794e+02
2.310000e-06	2.705027e-06	6.888383e-09	1.830539e+01	4.488900e+02
2.320000e-06	2.552634e-06	6.760539e-09	1.727411e+01	4.410589e+02
2.330000e-06	2.399318e-06	6.629889e-09	1.623659e+01	4.330907e+02
2.340000e-06	2.245092e-06	6.498735e-09	1.519292e+01	4.247767e+02
2.350000e-06	2.089997e-06	6.364469e-09	1.414337e+01	4.158728e+02
2.360000e-06	1.934186e-06	6.221520e-09	1.308897e+01	4.061994e+02
2.370000e-06	1.777775e-06	6.067184e-09	1.203051e+01	3.957195e+02
2.380000e-06	1.620742e-06	5.905852e-09	1.096784e+01	3.845543e+02
2.390000e-06	1.463116e-06	5.735970e-09	9.901156e+00	3.729266e+02
2.400000e-06	1.304980e-06	5.555912e-09	8.831021e+00	3.610481e+02
2.410000e-06	1.146370e-06	5.363826e-09	7.757683e+00	3.490000e+02
2.420000e-06	9.873507e-07	5.166079e-09	6.681572e+00	3.366586e+02
2.430000e-06	8.279720e-07	4.961158e-09	5.603029e+00	3.237086e+02
2.440000e-06	6.682788e-07	4.742624e-09	4.522357e+00	3.097444e+02
2.450000e-06	5.083661e-07	4.507861e-09	3.440201e+00	2.944256e+02
2.460000e-06	3.483078e-07	4.259798e-09	2.357059e+00	2.776184e+02
2.470000e-06	1.881000e-07	3.999388e-09	1.272905e+00	2.594537e+02
2.480000e-06	2.773526e-08	3.721751e-09	1.876893e-01	2.402600e+02
2.490000e-06	-1.326396e-07	3.422751e-09	-8.975953e-01	2.203750e+02
2.500000e-06	-2.928657e-07	3.098151e-09	-1.981872e+00	1.998977e+02
2.510000e-06	-4.529346e-07	2.749234e-09	-3.065087e+00	1.784751e+02
2.520000e-06	-6.128149e-07	2.374051e-09	-4.147024e+00	1.552221e+02
2.530000e-06	-7.724279e-07	1.962557e-09	-5.227153e+00	1.288373e+02
2.540000e-06	-9.317544e-07	1.503116e-09	-6.305342e+00	9.791054e+01
2.550000e-06	-1.090777e-06	9.789270e-10	-7.381475e+00	6.134885e+01
2.560000e-06	-1.249420e-06	3.681354e-10	-8.455042e+00	1.879457e+01
2.570000e-06	-1.407596e-06	-3.454787e-10	-9.525445e+00	-2.910144e+01
2.580000e-06	-1.565221e-06	-1.154115e-09	-1.059212e+01	-8.065358e+01
2.590000e-06	-1.722269e-06	-2.007557e-09	-1.165489e+01	-1.333911e+02
2.600000e-06	-1.878729e-06	-2.826156e-09	-1.271368e+01	-1.845265e+02
2.610000e-06	-2.034522e-06	-3.545419e-09	-1.376796e+01	-2.315154e+02
2.620000e-06	-2.189537e-06	-4.146834e-09	-1.481697e+01	-2.725517e+02
2.630000e-06	-2.343757e-06	-4.644894e-09	-1.586061e+01	-3.068600e+02
2.640000e-06	-2.497121e-06	-5.061177e-09	-1.689844e+01	-3.347169e+02
2.650000e-06	-2.649513e-06	-5.414174e-09	-1.792971e+01	-3.572113e+02
2.660000e-06	-2.800927e-06	-5.718991e-09	-1.895436e+01	-3.758381e+02
2.670000e-06	-2.951354e-06	-5.987968e-09	-1.997232e+01	-3.920579e+02
2.680000e-06	-3.100712e-06	-6.231157e-09	-2.098305e+01	-4.069556e+02
2.690000e-06	-3.248931e-06	-6.454500e-09	-2.198608e+01	-4.210838e+02
2.700000e-06	-3.396041e-06	-6.654348e-09	-2.298159e+01	-4.345064e+02
2.710000e-06	-3.541936e-06	-6.828996e-09	-2.396889e+01	-4.469915e+02
2.720000e-06	-3.686479e-06	-6.986653e-09	-2.494703e+01	-4.582588e+02
2.730000e-06	-3.829632e-06	-7.134115e-09	-2.591578e+01	-4.681815e+02
2.740000e-06	-3.971408e-06	-7.270826e-09	-2.687520e+01	-4.768779e+02
2.750000e-06	-4.111783e-06	-7.397475e-09	-2.782515e+01	-4.846731e+02
2.760000e-06	-4.250606e-06	-7.519160e-09	-2.876458e+01	-4.919713e+02
2.770000e-06	-4.387747e-06	-7.636634e-09	-2.969264e+01	-4.991019e+02
2.780000e-06	-4.523244e-06	-7.747415e-09	-3.060957e+01	-5.062110e+02
2.790000e-06	-4.657168e-06	-7.849582e-09	-3.151586e+01	-5.132383e+02
2.800000e-06	-4.789436e-06	-7.942306e-09	-3.241094e+01	-5.199834e+02
2.810000e-06	-4.919956e-06	-8.027027e-09	-3.329419e+01	-5.262235e+02
2.820000e-06	-5.048796e-06	-8.107538e-09	-3.416607e+01	-5.318299e+02
2.830000e-06	-5.175936e-06	-8.185237e-09	-3.502645e+01	-5.368324e+02
2.840000e-06	-5.301215e-06	-8.261798e-09	-3.587424e+01	-5.414083e+02
2.850000e-06	-5.424611e-06	-8.340405e-09	-3.670927e+01	-5.458062e+02
2.860000e-06	-5.546091e-06	-8.419000e-09	-3.753135e+01	-5.502413e+02
2.870000e-06	-5.665508e-06	-8.493996e-09	-3.833947e+01	-5.548105e+02
2.880000e-06	-5.782726e-06	-8.563729e-09	-3.913270e+01	-5.594614e+02
2.890000e-06	-5.897617e-06	-8.627834e-09	-3.991019e+01	-5.640279e+02
2.900000e-06	-6.010084e-06	-8.685035e-09	-4.067127e+01	-5.683119e+02
2.910000e-06	-6.120227e-06	-8.736141e-09	-4.141663e+01	-5.721744e+02
2.920000e-06	-6.228252e-06	-8.787562e-09	-4.214766e+01	-5.755963e+02
2.930000e-06	-6.334241e-06	-8.842264e-09	-4.286490e+01	-5.786834e+02
2.940000e-06	-6.438034e-06	-8.897826e-09	-4.356728e+01	-5.816158e+02
