# Temperatura_=_20.88
# Concentracion g/m^3_=_13400.0
# C_Vs_to_Am_M_A/Vsm_=_65563218390.804596
# pendiente_HvsI_1/m_=_3716.3
# ordenada_HvsI_A/m_=_1297.0
# frecuencia_Hz_=_301399.4872944022

Tiempo_(s)	Campo_(V.s)	Magnetizacion_(V.s)	Campo_(kA/m)	Magnetizacion_(A/m)
0.000000e+00	-8.464398e-06	-9.634409e-09	-5.692863e+01	-6.312210e+02
1.000000e-08	-8.460702e-06	-9.629960e-09	-5.690377e+01	-6.310736e+02
2.000000e-08	-8.454255e-06	-9.621768e-09	-5.686041e+01	-6.310882e+02
3.000000e-08	-8.445065e-06	-9.617323e-09	-5.679860e+01	-6.311785e+02
4.000000e-08	-8.432914e-06	-9.618403e-09	-5.671688e+01	-6.311991e+02
5.000000e-08	-8.417643e-06	-9.617591e-09	-5.661417e+01	-6.310084e+02
6.000000e-08	-8.399429e-06	-9.610369e-09	-5.649167e+01	-6.305306e+02
7.000000e-08	-8.378702e-06	-9.599949e-09	-5.635227e+01	-6.297887e+02
8.000000e-08	-8.355333e-06	-9.608982e-09	-5.619510e+01	-6.288957e+02
9.000000e-08	-8.328664e-06	-9.631054e-09	-5.601573e+01	-6.280074e+02
1.000000e-07	-8.298576e-06	-9.606475e-09	-5.581337e+01	-6.272573e+02
1.100000e-07	-8.265401e-06	-9.560787e-09	-5.559024e+01	-6.267007e+02
1.200000e-07	-8.229303e-06	-9.537029e-09	-5.534746e+01	-6.262932e+02
1.300000e-07	-8.190586e-06	-9.525006e-09	-5.508707e+01	-6.259096e+02
1.400000e-07	-8.149489e-06	-9.506327e-09	-5.481066e+01	-6.253968e+02
1.500000e-07	-8.105822e-06	-9.512368e-09	-5.451697e+01	-6.246355e+02
1.600000e-07	-8.059290e-06	-9.526084e-09	-5.420401e+01	-6.235858e+02
1.700000e-07	-8.009792e-06	-9.480900e-09	-5.387110e+01	-6.222966e+02
1.800000e-07	-7.957234e-06	-9.485707e-09	-5.351762e+01	-6.208781e+02
1.900000e-07	-7.901653e-06	-9.462614e-09	-5.314380e+01	-6.194491e+02
2.000000e-07	-7.843217e-06	-9.388578e-09	-5.275078e+01	-6.180843e+02
2.100000e-07	-7.781952e-06	-9.372011e-09	-5.233874e+01	-6.167847e+02
2.200000e-07	-7.717945e-06	-9.366673e-09	-5.190824e+01	-6.154830e+02
2.300000e-07	-7.651135e-06	-9.378360e-09	-5.145890e+01	-6.140809e+02
2.400000e-07	-7.581460e-06	-9.350459e-09	-5.099029e+01	-6.124989e+02
2.500000e-07	-7.508927e-06	-9.308377e-09	-5.050246e+01	-6.107164e+02
2.600000e-07	-7.433428e-06	-9.285086e-09	-4.999468e+01	-6.087827e+02
2.700000e-07	-7.355046e-06	-9.253394e-09	-4.946751e+01	-6.067935e+02
2.800000e-07	-7.273836e-06	-9.217604e-09	-4.892132e+01	-6.048445e+02
2.900000e-07	-7.190037e-06	-9.169968e-09	-4.835772e+01	-6.029834e+02
3.000000e-07	-7.103894e-06	-9.164532e-09	-4.777835e+01	-6.011829e+02
3.100000e-07	-7.015317e-06	-9.159296e-09	-4.718261e+01	-5.993485e+02
3.200000e-07	-6.924211e-06	-9.123360e-09	-4.656986e+01	-5.973580e+02
3.300000e-07	-6.830586e-06	-9.070076e-09	-4.594017e+01	-5.951156e+02
3.400000e-07	-6.734516e-06	-9.010985e-09	-4.529403e+01	-5.925960e+02
3.500000e-07	-6.636003e-06	-8.983437e-09	-4.463148e+01	-5.898580e+02
3.600000e-07	-6.535072e-06	-8.950281e-09	-4.395265e+01	-5.870195e+02
3.700000e-07	-6.431756e-06	-8.908159e-09	-4.325778e+01	-5.842055e+02
3.800000e-07	-6.326120e-06	-8.864813e-09	-4.254730e+01	-5.814901e+02
3.900000e-07	-6.218247e-06	-8.834582e-09	-4.182179e+01	-5.788595e+02
4.000000e-07	-6.108178e-06	-8.798957e-09	-4.108150e+01	-5.762134e+02
4.100000e-07	-5.995869e-06	-8.737494e-09	-4.032615e+01	-5.734054e+02
4.200000e-07	-5.881249e-06	-8.673360e-09	-3.955525e+01	-5.703053e+02
4.300000e-07	-5.764341e-06	-8.618076e-09	-3.876898e+01	-5.668558e+02
4.400000e-07	-5.645150e-06	-8.578615e-09	-3.796734e+01	-5.630982e+02
4.500000e-07	-5.523827e-06	-8.533125e-09	-3.715136e+01	-5.591554e+02
4.600000e-07	-5.400594e-06	-8.474050e-09	-3.632254e+01	-5.551765e+02
4.700000e-07	-5.275475e-06	-8.408933e-09	-3.548103e+01	-5.512689e+02
4.800000e-07	-5.148490e-06	-8.350024e-09	-3.462697e+01	-5.474464e+02
4.900000e-07	-5.019680e-06	-8.288779e-09	-3.376064e+01	-5.436182e+02
5.000000e-07	-4.888992e-06	-8.214878e-09	-3.288168e+01	-5.396245e+02
5.100000e-07	-4.756518e-06	-8.135901e-09	-3.199071e+01	-5.353035e+02
5.200000e-07	-4.622412e-06	-8.066145e-09	-3.108876e+01	-5.305627e+02
5.300000e-07	-4.486615e-06	-8.002835e-09	-3.017543e+01	-5.254200e+02
5.400000e-07	-4.349109e-06	-7.929425e-09	-2.925061e+01	-5.199966e+02
5.500000e-07	-4.209983e-06	-7.843813e-09	-2.831489e+01	-5.144628e+02
5.600000e-07	-4.069157e-06	-7.757350e-09	-2.736775e+01	-5.089593e+02
5.700000e-07	-3.926572e-06	-7.676518e-09	-2.640877e+01	-5.035281e+02
5.800000e-07	-3.782444e-06	-7.589598e-09	-2.543942e+01	-4.980859e+02
5.900000e-07	-3.637054e-06	-7.493563e-09	-2.446157e+01	-4.924520e+02
6.000000e-07	-3.490459e-06	-7.394005e-09	-2.347563e+01	-4.864223e+02
6.100000e-07	-3.342642e-06	-7.295863e-09	-2.248146e+01	-4.798564e+02
6.200000e-07	-3.193705e-06	-7.195298e-09	-2.147976e+01	-4.727391e+02
6.300000e-07	-3.043661e-06	-7.085806e-09	-2.047062e+01	-4.651879e+02
6.400000e-07	-2.892497e-06	-6.969706e-09	-1.945394e+01	-4.573987e+02
6.500000e-07	-2.740285e-06	-6.851788e-09	-1.843022e+01	-4.495528e+02
6.600000e-07	-2.587083e-06	-6.730527e-09	-1.739983e+01	-4.417236e+02
6.700000e-07	-2.433044e-06	-6.600755e-09	-1.636382e+01	-4.338275e+02
6.800000e-07	-2.278154e-06	-6.463201e-09	-1.532208e+01	-4.256421e+02
6.900000e-07	-2.122340e-06	-6.322910e-09	-1.427413e+01	-4.168895e+02
7.000000e-07	-1.965774e-06	-6.181454e-09	-1.322112e+01	-4.073494e+02
7.100000e-07	-1.808565e-06	-6.033654e-09	-1.216379e+01	-3.969528e+02
7.200000e-07	-1.650725e-06	-5.872274e-09	-1.110221e+01	-3.858126e+02
7.300000e-07	-1.492221e-06	-5.697403e-09	-1.003616e+01	-3.741691e+02
7.400000e-07	-1.333083e-06	-5.517847e-09	-8.965858e+00	-3.622723e+02
7.500000e-07	-1.173415e-06	-5.333402e-09	-7.891982e+00	-3.502453e+02
7.600000e-07	-1.013276e-06	-5.137272e-09	-6.814944e+00	-3.379937e+02
7.700000e-07	-8.527611e-07	-4.926835e-09	-5.735378e+00	-3.252043e+02
7.800000e-07	-6.919959e-07	-4.705885e-09	-4.654127e+00	-3.114450e+02
7.900000e-07	-5.310212e-07	-4.478532e-09	-3.571466e+00	-2.963293e+02
8.000000e-07	-3.698432e-07	-4.238107e-09	-2.487438e+00	-2.796753e+02
8.100000e-07	-2.085252e-07	-3.976742e-09	-1.402469e+00	-2.615835e+02
8.200000e-07	-4.711271e-08	-3.694145e-09	-3.168639e-01	-2.423812e+02
8.300000e-07	1.143397e-07	-3.392947e-09	7.690093e-01	-2.224341e+02
8.400000e-07	2.757256e-07	-3.070848e-09	1.854436e+00	-2.018848e+02
8.500000e-07	4.369850e-07	-2.722372e-09	2.939011e+00	-1.804177e+02
8.600000e-07	5.981046e-07	-2.344861e-09	4.022646e+00	-1.571577e+02
8.700000e-07	7.590229e-07	-1.932492e-09	5.104927e+00	-1.307748e+02
8.800000e-07	9.196667e-07	-1.469448e-09	6.185362e+00	-9.979564e+01
8.900000e-07	1.079963e-06	-9.354974e-10	7.263459e+00	-6.304912e+01
9.000000e-07	1.239838e-06	-3.102786e-10	8.338723e+00	-2.011387e+01
9.100000e-07	1.399211e-06	4.222296e-10	9.410614e+00	2.838079e+01
9.200000e-07	1.558010e-06	1.246362e-09	1.047864e+01	8.071266e+01
9.300000e-07	1.716171e-06	2.104619e-09	1.154238e+01	1.343191e+02
9.400000e-07	1.873704e-06	2.920288e-09	1.260189e+01	1.862878e+02
9.500000e-07	2.030619e-06	3.633218e-09	1.365724e+01	2.339508e+02
9.600000e-07	2.186832e-06	4.226874e-09	1.470788e+01	2.754151e+02
9.700000e-07	2.342191e-06	4.715970e-09	1.575277e+01	3.098801e+02
9.800000e-07	2.496646e-06	5.122753e-09	1.679158e+01	3.376624e+02
9.900000e-07	2.650282e-06	5.465974e-09	1.782489e+01	3.599408e+02
1.000000e-06	2.803070e-06	5.762090e-09	1.885248e+01	3.783189e+02
1.010000e-06	2.954827e-06	6.023163e-09	1.987315e+01	3.943498e+02
1.020000e-06	3.105382e-06	6.257186e-09	2.088573e+01	4.091686e+02
1.030000e-06	3.254754e-06	6.465555e-09	2.189036e+01	4.233261e+02
1.040000e-06	3.402992e-06	6.654037e-09	2.288735e+01	4.368424e+02
1.050000e-06	3.550051e-06	6.831822e-09	2.387642e+01	4.494232e+02
1.060000e-06	3.695913e-06	6.997945e-09	2.485744e+01	4.607350e+02
1.070000e-06	3.840477e-06	7.148189e-09	2.582973e+01	4.706293e+02
1.080000e-06	3.983597e-06	7.283565e-09	2.679230e+01	4.792395e+02
1.090000e-06	4.125166e-06	7.411020e-09	2.774444e+01	4.869351e+02
1.100000e-06	4.265124e-06	7.533287e-09	2.868576e+01	4.941725e+02
1.110000e-06	4.403509e-06	7.644566e-09	2.961649e+01	5.013182e+02
1.120000e-06	4.540242e-06	7.745409e-09	3.053611e+01	5.085242e+02
1.130000e-06	4.675286e-06	7.844817e-09	3.144437e+01	5.157028e+02
1.140000e-06	4.808635e-06	7.946806e-09	3.234122e+01	5.226032e+02
1.150000e-06	4.940260e-06	8.045630e-09	3.322649e+01	5.289504e+02
1.160000e-06	5.070192e-06	8.131097e-09	3.410037e+01	5.345823e+02
1.170000e-06	5.198265e-06	8.204654e-09	3.496174e+01	5.395270e+02
1.180000e-06	5.324474e-06	8.276157e-09	3.581058e+01	5.439921e+02
1.190000e-06	5.448845e-06	8.348098e-09	3.664706e+01	5.482752e+02
1.200000e-06	5.571304e-06	8.415242e-09	3.747067e+01	5.526400e+02
1.210000e-06	5.691774e-06	8.476838e-09	3.828091e+01	5.572111e+02
1.220000e-06	5.810086e-06	8.541136e-09	3.907664e+01	5.619338e+02
1.230000e-06	5.926169e-06	8.611048e-09	3.985737e+01	5.666102e+02
1.240000e-06	6.040011e-06	8.677673e-09	4.062303e+01	5.709952e+02
1.250000e-06	6.151648e-06	8.733833e-09	4.137387e+01	5.749067e+02
1.260000e-06	6.261065e-06	8.782188e-09	4.210977e+01	5.783034e+02
1.270000e-06	6.368289e-06	8.830475e-09	4.283092e+01	5.812987e+02
1.280000e-06	6.473266e-06	8.880751e-09	4.353696e+01	5.841061e+02
1.290000e-06	6.575934e-06	8.929211e-09	4.422747e+01	5.869455e+02
1.300000e-06	6.676232e-06	8.972830e-09	4.490204e+01	5.899484e+02
1.310000e-06	6.774046e-06	9.014142e-09	4.555991e+01	5.931069e+02
1.320000e-06	6.869395e-06	9.057341e-09	4.620119e+01	5.962835e+02
1.330000e-06	6.962348e-06	9.101010e-09	4.682636e+01	5.992769e+02
1.340000e-06	7.052902e-06	9.141473e-09	4.743539e+01	6.019139e+02
1.350000e-06	7.140985e-06	9.178228e-09	4.802781e+01	6.041248e+02
1.360000e-06	7.226575e-06	9.213256e-09	4.860346e+01	6.059735e+02
1.370000e-06	7.309606e-06	9.245078e-09	4.916189e+01	6.076272e+02
1.380000e-06	7.390049e-06	9.272595e-09	4.970293e+01	6.092840e+02
1.390000e-06	7.467812e-06	9.298610e-09	5.022593e+01	6.110883e+02
1.400000e-06	7.542740e-06	9.327920e-09	5.072987e+01	6.130722e+02
1.410000e-06	7.614864e-06	9.358403e-09	5.121496e+01	6.151471e+02
1.420000e-06	7.684272e-06	9.386804e-09	5.168177e+01	6.171474e+02
1.430000e-06	7.750932e-06	9.413850e-09	5.213010e+01	6.189058e+02
1.440000e-06	7.814872e-06	9.438527e-09	5.256014e+01	6.203271e+02
1.450000e-06	7.876176e-06	9.458877e-09	5.297245e+01	6.214283e+02
1.460000e-06	7.934713e-06	9.474687e-09	5.336615e+01	6.223287e+02
1.470000e-06	7.990370e-06	9.490076e-09	5.374048e+01	6.231953e+02
1.480000e-06	8.042945e-06	9.505431e-09	5.409408e+01	6.241689e+02
1.490000e-06	8.092246e-06	9.519568e-09	5.442566e+01	6.253037e+02
1.500000e-06	8.138572e-06	9.535640e-09	5.473723e+01	6.265460e+02
1.510000e-06	8.182078e-06	9.554189e-09	5.502984e+01	6.277606e+02
1.520000e-06	8.222577e-06	9.571487e-09	5.530223e+01	6.287929e+02
1.530000e-06	8.260162e-06	9.585991e-09	5.555501e+01	6.295382e+02
1.540000e-06	8.294904e-06	9.596136e-09	5.578867e+01	6.299882e+02
1.550000e-06	8.326791e-06	9.601888e-09	5.600313e+01	6.302337e+02
1.560000e-06	8.355877e-06	9.606364e-09	5.619875e+01	6.304245e+02
1.570000e-06	8.381909e-06	9.611773e-09	5.637384e+01	6.307035e+02
1.580000e-06	8.404887e-06	9.618684e-09	5.652838e+01	6.311442e+02
1.590000e-06	8.425071e-06	9.628982e-09	5.666413e+01	6.317199e+02
1.600000e-06	8.442309e-06	9.640383e-09	5.678007e+01	6.323172e+02
1.610000e-06	8.456377e-06	9.647153e-09	5.687468e+01	6.327870e+02
1.620000e-06	8.467175e-06	9.648544e-09	5.694731e+01	6.330114e+02
1.630000e-06	8.474837e-06	9.648462e-09	5.699884e+01	6.329557e+02
1.640000e-06	8.479514e-06	9.647899e-09	5.703029e+01	6.326843e+02
1.650000e-06	8.481180e-06	9.645498e-09	5.704150e+01	6.323320e+02
1.660000e-06	8.480044e-06	9.641492e-09	5.703386e+01	6.320448e+02
1.670000e-06	8.476112e-06	9.638672e-09	5.700741e+01	6.319157e+02
1.680000e-06	8.469263e-06	9.642150e-09	5.696135e+01	6.319436e+02
1.690000e-06	8.459577e-06	9.642959e-09	5.689621e+01	6.320335e+02
1.700000e-06	8.446901e-06	9.639251e-09	5.681095e+01	6.320371e+02
1.710000e-06	8.431354e-06	9.635601e-09	5.670639e+01	6.318173e+02
1.720000e-06	8.413353e-06	9.635101e-09	5.658532e+01	6.313079e+02
1.730000e-06	8.392747e-06	9.620946e-09	5.644673e+01	6.305428e+02
1.740000e-06	8.368991e-06	9.563682e-09	5.628696e+01	6.296423e+02
1.750000e-06	8.341402e-06	9.541333e-09	5.610140e+01	6.287630e+02
1.760000e-06	8.309927e-06	9.565027e-09	5.588971e+01	6.280323e+02
1.770000e-06	8.275477e-06	9.578420e-09	5.565801e+01	6.274952e+02
1.780000e-06	8.238553e-06	9.583757e-09	5.540967e+01	6.270968e+02
1.790000e-06	8.199314e-06	9.592457e-09	5.514577e+01	6.267062e+02
1.800000e-06	8.158068e-06	9.546271e-09	5.486836e+01	6.261709e+02
1.810000e-06	8.114320e-06	9.505065e-09	5.457412e+01	6.253787e+02
1.820000e-06	8.067549e-06	9.541261e-09	5.425956e+01	6.242991e+02
1.830000e-06	8.017906e-06	9.500855e-09	5.392568e+01	6.229898e+02
1.840000e-06	7.964978e-06	9.497615e-09	5.356971e+01	6.215645e+02
1.850000e-06	7.908933e-06	9.486908e-09	5.319276e+01	6.201396e+02
1.860000e-06	7.850176e-06	9.459071e-09	5.279759e+01	6.187827e+02
1.870000e-06	7.788470e-06	9.460881e-09	5.238257e+01	6.174866e+02
1.880000e-06	7.724007e-06	9.382736e-09	5.194902e+01	6.161786e+02
1.890000e-06	7.656666e-06	9.367277e-09	5.149610e+01	6.147598e+02
1.900000e-06	7.586354e-06	9.333284e-09	5.102321e+01	6.131557e+02
1.910000e-06	7.513105e-06	9.326146e-09	5.053056e+01	6.113531e+02
1.920000e-06	7.436926e-06	9.324234e-09	5.001821e+01	6.094081e+02
1.930000e-06	7.357997e-06	9.272083e-09	4.948736e+01	6.074187e+02
1.940000e-06	7.276462e-06	9.265124e-09	4.893898e+01	6.054776e+02
1.950000e-06	7.192446e-06	9.202524e-09	4.837392e+01	6.036252e+02
1.960000e-06	7.105733e-06	9.181066e-09	4.779072e+01	6.018261e+02
1.970000e-06	7.016502e-06	9.141395e-09	4.719058e+01	5.999805e+02
1.980000e-06	6.924862e-06	9.102975e-09	4.657424e+01	5.979662e+02
1.990000e-06	6.830699e-06	9.095803e-09	4.594093e+01	5.956935e+02
2.000000e-06	6.734145e-06	9.055828e-09	4.529154e+01	5.931459e+02
2.010000e-06	6.635204e-06	9.032026e-09	4.462610e+01	5.903904e+02
2.020000e-06	6.533869e-06	8.962676e-09	4.394456e+01	5.875487e+02
2.030000e-06	6.430103e-06	8.920248e-09	4.324666e+01	5.847427e+02
2.040000e-06	6.324079e-06	8.872239e-09	4.253358e+01	5.820383e+02
2.050000e-06	6.215848e-06	8.839567e-09	4.180565e+01	5.794117e+02
2.060000e-06	6.105368e-06	8.803354e-09	4.106260e+01	5.767551e+02
2.070000e-06	5.992626e-06	8.752336e-09	4.030434e+01	5.739208e+02
2.080000e-06	5.877530e-06	8.713105e-09	3.953024e+01	5.707840e+02
2.090000e-06	5.760114e-06	8.658281e-09	3.874054e+01	5.672973e+02
2.100000e-06	5.640499e-06	8.603748e-09	3.793606e+01	5.635126e+02
2.110000e-06	5.518851e-06	8.531738e-09	3.711790e+01	5.595586e+02
2.120000e-06	5.395201e-06	8.474719e-09	3.628627e+01	5.555831e+02
2.130000e-06	5.269657e-06	8.421678e-09	3.544190e+01	5.516855e+02
2.140000e-06	5.142275e-06	8.373974e-09	3.458517e+01	5.478680e+02
2.150000e-06	5.013063e-06	8.311028e-09	3.371613e+01	5.440300e+02
2.160000e-06	4.882027e-06	8.241536e-09	3.283483e+01	5.400078e+02
2.170000e-06	4.749201e-06	8.168546e-09	3.194149e+01	5.356442e+02
2.180000e-06	4.614700e-06	8.096123e-09	3.103689e+01	5.308570e+02
2.190000e-06	4.478530e-06	8.022318e-09	3.012106e+01	5.256766e+02
2.200000e-06	4.340628e-06	7.947674e-09	2.919357e+01	5.202326e+02
2.210000e-06	4.201085e-06	7.874363e-09	2.825505e+01	5.146962e+02
2.220000e-06	4.060034e-06	7.793657e-09	2.730639e+01	5.092002e+02
2.230000e-06	3.917504e-06	7.706309e-09	2.634778e+01	5.037736e+02
2.240000e-06	3.773540e-06	7.608623e-09	2.537953e+01	4.983202e+02
2.250000e-06	3.628201e-06	7.512772e-09	2.440203e+01	4.926529e+02
2.260000e-06	3.481529e-06	7.415430e-09	2.341557e+01	4.865702e+02
2.270000e-06	3.333559e-06	7.322417e-09	2.242037e+01	4.799431e+02
2.280000e-06	3.184434e-06	7.225838e-09	2.141741e+01	4.727713e+02
2.290000e-06	3.034199e-06	7.123750e-09	2.040698e+01	4.651842e+02
2.300000e-06	2.882944e-06	7.009624e-09	1.938969e+01	4.573811e+02
2.310000e-06	2.730753e-06	6.886922e-09	1.836610e+01	4.495356e+02
2.320000e-06	2.577543e-06	6.758773e-09	1.733567e+01	4.417057e+02
2.330000e-06	2.423302e-06	6.628280e-09	1.629829e+01	4.337907e+02
2.340000e-06	2.268102e-06	6.496265e-09	1.525448e+01	4.255575e+02
2.350000e-06	2.112038e-06	6.361279e-09	1.420484e+01	4.167286e+02
2.360000e-06	1.955253e-06	6.222060e-09	1.315036e+01	4.070963e+02
2.370000e-06	1.797840e-06	6.074194e-09	1.209166e+01	3.966113e+02
2.380000e-06	1.639786e-06	5.916578e-09	1.102863e+01	3.854039e+02
2.390000e-06	1.481134e-06	5.743651e-09	9.961601e+00	3.737221e+02
2.400000e-06	1.321982e-06	5.558292e-09	8.891196e+00	3.618084e+02
2.410000e-06	1.162417e-06	5.363125e-09	7.818016e+00	3.497657e+02
2.420000e-06	1.002462e-06	5.164772e-09	6.742215e+00	3.374743e+02
2.430000e-06	8.421407e-07	4.959206e-09	5.663949e+00	3.246020e+02
2.440000e-06	6.815095e-07	4.743866e-09	4.583598e+00	3.107130e+02
2.450000e-06	5.206102e-07	4.517647e-09	3.501445e+00	2.954361e+02
2.460000e-06	3.595053e-07	4.276612e-09	2.417909e+00	2.786178e+02
2.470000e-06	1.982763e-07	4.015736e-09	1.333538e+00	2.603883e+02
2.480000e-06	3.694742e-08	3.731461e-09	2.484957e-01	2.410900e+02
2.490000e-06	-1.243622e-07	3.423462e-09	-8.364171e-01	2.210776e+02
2.500000e-06	-2.855760e-07	3.091664e-09	-1.920686e+00	2.004544e+02
2.510000e-06	-4.466827e-07	2.738110e-09	-3.004234e+00	1.788462e+02
2.520000e-06	-6.075819e-07	2.360676e-09	-4.086387e+00	1.553207e+02
2.530000e-06	-7.682000e-07	1.951493e-09	-5.166649e+00	1.285141e+02
2.540000e-06	-9.284866e-07	1.490106e-09	-6.244681e+00	9.696284e+01
2.550000e-06	-1.088451e-06	9.533695e-10	-7.320544e+00	5.955620e+01
2.560000e-06	-1.248016e-06	3.228279e-10	-8.393729e+00	1.597482e+01
2.570000e-06	-1.407164e-06	-4.136456e-10	-9.464104e+00	-3.303168e+01
2.580000e-06	-1.565889e-06	-1.244281e-09	-1.053163e+01	-8.563399e+01
2.590000e-06	-1.724034e-06	-2.113082e-09	-1.159526e+01	-1.392054e+02
2.600000e-06	-1.881519e-06	-2.935726e-09	-1.265445e+01	-1.908309e+02
2.610000e-06	-2.038310e-06	-3.647688e-09	-1.370897e+01	-2.379031e+02
2.620000e-06	-2.194388e-06	-4.236767e-09	-1.475870e+01	-2.786357e+02
2.630000e-06	-2.349640e-06	-4.723300e-09	-1.580287e+01	-3.123517e+02
2.640000e-06	-2.503962e-06	-5.131220e-09	-1.684079e+01	-3.394767e+02
2.650000e-06	-2.657350e-06	-5.479420e-09	-1.787242e+01	-3.612580e+02
2.660000e-06	-2.809697e-06	-5.781202e-09	-1.889706e+01	-3.793156e+02
2.670000e-06	-2.961016e-06	-6.047501e-09	-1.991478e+01	-3.951724e+02
2.680000e-06	-3.111332e-06	-6.288120e-09	-2.092575e+01	-4.099050e+02
2.690000e-06	-3.260538e-06	-6.507279e-09	-2.192925e+01	-4.240010e+02
2.700000e-06	-3.408629e-06	-6.701306e-09	-2.292527e+01	-4.374346e+02
2.710000e-06	-3.555559e-06	-6.872393e-09	-2.391347e+01	-4.498940e+02
2.720000e-06	-3.701156e-06	-7.028944e-09	-2.489270e+01	-4.610567e+02
2.730000e-06	-3.845341e-06	-7.175348e-09	-2.586244e+01	-4.708024e+02
2.740000e-06	-3.988106e-06	-7.311394e-09	-2.682263e+01	-4.792943e+02
2.750000e-06	-4.129439e-06	-7.438726e-09	-2.777319e+01	-4.869196e+02
2.760000e-06	-4.269243e-06	-7.561570e-09	-2.871346e+01	-4.941330e+02
2.770000e-06	-4.407418e-06	-7.680236e-09	-2.964278e+01	-5.012827e+02
2.780000e-06	-4.543919e-06	-7.790512e-09	-3.056084e+01	-5.084942e+02
2.790000e-06	-4.678712e-06	-7.890725e-09	-3.146741e+01	-5.156571e+02
2.800000e-06	-4.811873e-06	-7.983634e-09	-3.236300e+01	-5.225108e+02
2.810000e-06	-4.943365e-06	-8.072362e-09	-3.324737e+01	-5.287865e+02
2.820000e-06	-5.073096e-06	-8.156100e-09	-3.411990e+01	-5.343402e+02
2.830000e-06	-5.201004e-06	-8.232466e-09	-3.498016e+01	-5.392215e+02
2.840000e-06	-5.327097e-06	-8.305022e-09	-3.582822e+01	-5.436527e+02
2.850000e-06	-5.451331e-06	-8.380541e-09	-3.666378e+01	-5.479341e+02
2.860000e-06	-5.573602e-06	-8.458310e-09	-3.748613e+01	-5.523185e+02
2.870000e-06	-5.693864e-06	-8.532383e-09	-3.829497e+01	-5.569120e+02
2.880000e-06	-5.812036e-06	-8.600776e-09	-3.908976e+01	-5.616414e+02
2.890000e-06	-5.927907e-06	-8.665186e-09	-3.986906e+01	-5.662985e+02
2.900000e-06	-6.041312e-06	-8.725878e-09	-4.063179e+01	-5.706398e+02
2.910000e-06	-6.152323e-06	-8.781134e-09	-4.137841e+01	-5.744956e+02
2.920000e-06	-6.261045e-06	-8.832010e-09	-4.210964e+01	-5.778419e+02
2.930000e-06	-6.367653e-06	-8.881609e-09	-4.282665e+01	-5.808062e+02
2.940000e-06	-6.472123e-06	-8.932576e-09	-4.352927e+01	-5.836078e+02
