# Temperatura_=_42.4
# Concentracion g/m^3_=_13400.0
# C_Vs_to_Am_M_A/Vsm_=_65563218390.804596
# pendiente_HvsI_1/m_=_3716.3
# ordenada_HvsI_A/m_=_1297.0
# frecuencia_Hz_=_301403.37904038804

Tiempo_(s)	Campo_(V.s)	Magnetizacion_(V.s)	Campo_(kA/m)	Magnetizacion_(A/m)
0.000000e+00	-8.415028e-06	-1.050839e-08	-5.692385e+01	-6.885504e+02
1.000000e-08	-8.411042e-06	-1.050519e-08	-5.689689e+01	-6.886338e+02
2.000000e-08	-8.404359e-06	-1.050096e-08	-5.685168e+01	-6.888453e+02
3.000000e-08	-8.394944e-06	-1.049898e-08	-5.678799e+01	-6.890140e+02
4.000000e-08	-8.382571e-06	-1.049498e-08	-5.670429e+01	-6.889545e+02
5.000000e-08	-8.367116e-06	-1.048584e-08	-5.659974e+01	-6.885473e+02
6.000000e-08	-8.348749e-06	-1.047120e-08	-5.647550e+01	-6.877912e+02
7.000000e-08	-8.327880e-06	-1.045609e-08	-5.633433e+01	-6.868047e+02
8.000000e-08	-8.304348e-06	-1.048884e-08	-5.617515e+01	-6.857778e+02
9.000000e-08	-8.277514e-06	-1.051083e-08	-5.599363e+01	-6.848931e+02
1.000000e-07	-8.247261e-06	-1.047887e-08	-5.578899e+01	-6.842508e+02
1.100000e-07	-8.213924e-06	-1.044566e-08	-5.556347e+01	-6.838293e+02
1.200000e-07	-8.177713e-06	-1.041644e-08	-5.531852e+01	-6.834972e+02
1.300000e-07	-8.138978e-06	-1.037597e-08	-5.505650e+01	-6.830695e+02
1.400000e-07	-8.097889e-06	-1.034086e-08	-5.477855e+01	-6.823842e+02
1.500000e-07	-8.054168e-06	-1.039951e-08	-5.448279e+01	-6.813652e+02
1.600000e-07	-8.007603e-06	-1.037316e-08	-5.416781e+01	-6.800453e+02
1.700000e-07	-7.958109e-06	-1.034631e-08	-5.383300e+01	-6.785414e+02
1.800000e-07	-7.905480e-06	-1.038753e-08	-5.347699e+01	-6.769953e+02
1.900000e-07	-7.849869e-06	-1.029503e-08	-5.310081e+01	-6.755065e+02
2.000000e-07	-7.791467e-06	-1.023885e-08	-5.270575e+01	-6.740890e+02
2.100000e-07	-7.730249e-06	-1.020610e-08	-5.229163e+01	-6.726704e+02
2.200000e-07	-7.666339e-06	-1.019714e-08	-5.185931e+01	-6.711318e+02
2.300000e-07	-7.599623e-06	-1.022537e-08	-5.140800e+01	-6.693701e+02
2.400000e-07	-7.530055e-06	-1.019474e-08	-5.093741e+01	-6.673520e+02
2.500000e-07	-7.457674e-06	-1.016391e-08	-5.044779e+01	-6.651352e+02
2.600000e-07	-7.382347e-06	-1.011812e-08	-4.993823e+01	-6.628439e+02
2.700000e-07	-7.304145e-06	-1.008516e-08	-4.940923e+01	-6.606124e+02
2.800000e-07	-7.223122e-06	-1.002504e-08	-4.886114e+01	-6.585189e+02
2.900000e-07	-7.139472e-06	-9.974959e-09	-4.829529e+01	-6.565435e+02
3.000000e-07	-7.053489e-06	-9.984165e-09	-4.771366e+01	-6.545690e+02
3.100000e-07	-6.965147e-06	-9.965333e-09	-4.711606e+01	-6.524270e+02
3.200000e-07	-6.874303e-06	-9.939409e-09	-4.650154e+01	-6.499694e+02
3.300000e-07	-6.780988e-06	-9.872797e-09	-4.587031e+01	-6.471346e+02
3.400000e-07	-6.685350e-06	-9.803214e-09	-4.522336e+01	-6.439778e+02
3.500000e-07	-6.587292e-06	-9.756396e-09	-4.456004e+01	-6.406505e+02
3.600000e-07	-6.486767e-06	-9.716325e-09	-4.388004e+01	-6.373369e+02
3.700000e-07	-6.383884e-06	-9.674453e-09	-4.318408e+01	-6.341735e+02
3.800000e-07	-6.278640e-06	-9.627197e-09	-4.247215e+01	-6.311874e+02
3.900000e-07	-6.171055e-06	-9.598615e-09	-4.174439e+01	-6.282810e+02
4.000000e-07	-6.061313e-06	-9.545617e-09	-4.100204e+01	-6.252708e+02
4.100000e-07	-5.949481e-06	-9.475909e-09	-4.024554e+01	-6.219647e+02
4.200000e-07	-5.835404e-06	-9.400338e-09	-3.947387e+01	-6.182445e+02
4.300000e-07	-5.718977e-06	-9.342164e-09	-3.868629e+01	-6.141175e+02
4.400000e-07	-5.600299e-06	-9.296207e-09	-3.788349e+01	-6.097130e+02
4.500000e-07	-5.479574e-06	-9.246408e-09	-3.706684e+01	-6.052255e+02
4.600000e-07	-5.356880e-06	-9.183852e-09	-3.623686e+01	-6.008271e+02
4.700000e-07	-5.232265e-06	-9.111538e-09	-3.539390e+01	-5.965885e+02
4.800000e-07	-5.105816e-06	-9.040456e-09	-3.453853e+01	-5.924433e+02
4.900000e-07	-4.977547e-06	-8.960359e-09	-3.367085e+01	-5.882124e+02
5.000000e-07	-4.847424e-06	-8.878000e-09	-3.279063e+01	-5.836791e+02
5.100000e-07	-4.715507e-06	-8.793850e-09	-3.189827e+01	-5.786828e+02
5.200000e-07	-4.581860e-06	-8.719705e-09	-3.099421e+01	-5.731891e+02
5.300000e-07	-4.446602e-06	-8.646816e-09	-3.007925e+01	-5.673052e+02
5.400000e-07	-4.309748e-06	-8.564261e-09	-2.915349e+01	-5.612319e+02
5.500000e-07	-4.171269e-06	-8.470810e-09	-2.821675e+01	-5.551716e+02
5.600000e-07	-4.031154e-06	-8.375814e-09	-2.726893e+01	-5.492340e+02
5.700000e-07	-3.889327e-06	-8.281610e-09	-2.630954e+01	-5.433801e+02
5.800000e-07	-3.745995e-06	-8.181289e-09	-2.533996e+01	-5.374321e+02
5.900000e-07	-3.601351e-06	-8.076644e-09	-2.436150e+01	-5.311465e+02
6.000000e-07	-3.455413e-06	-7.967699e-09	-2.337431e+01	-5.243194e+02
6.100000e-07	-3.308226e-06	-7.859888e-09	-2.237865e+01	-5.168764e+02
6.200000e-07	-3.159917e-06	-7.750445e-09	-2.137541e+01	-5.089066e+02
6.300000e-07	-3.010567e-06	-7.633587e-09	-2.036512e+01	-5.006211e+02
6.400000e-07	-2.860151e-06	-7.506109e-09	-1.934762e+01	-4.922532e+02
6.500000e-07	-2.708745e-06	-7.376623e-09	-1.832343e+01	-4.839413e+02
6.600000e-07	-2.556359e-06	-7.242595e-09	-1.729261e+01	-4.756497e+02
6.700000e-07	-2.403056e-06	-7.098304e-09	-1.625559e+01	-4.671648e+02
6.800000e-07	-2.248914e-06	-6.947644e-09	-1.521289e+01	-4.581731e+02
6.900000e-07	-2.093955e-06	-6.794864e-09	-1.416466e+01	-4.483911e+02
7.000000e-07	-1.938216e-06	-6.640921e-09	-1.311115e+01	-4.376887e+02
7.100000e-07	-1.781758e-06	-6.478589e-09	-1.205278e+01	-4.261498e+02
7.200000e-07	-1.624684e-06	-6.305507e-09	-1.099025e+01	-4.140344e+02
7.300000e-07	-1.466930e-06	-6.120949e-09	-9.923116e+00	-4.016534e+02
7.400000e-07	-1.308488e-06	-5.930722e-09	-8.851328e+00	-3.892044e+02
7.500000e-07	-1.149568e-06	-5.730539e-09	-7.776307e+00	-3.766418e+02
7.600000e-07	-9.903391e-07	-5.514505e-09	-6.699195e+00	-3.636461e+02
7.700000e-07	-8.308316e-07	-5.285259e-09	-5.620199e+00	-3.497156e+02
7.800000e-07	-6.710458e-07	-5.045476e-09	-4.539320e+00	-3.343532e+02
7.900000e-07	-5.110199e-07	-4.797309e-09	-3.456818e+00	-3.172696e+02
8.000000e-07	-3.507785e-07	-4.531008e-09	-2.372858e+00	-2.985098e+02
8.100000e-07	-1.904348e-07	-4.241399e-09	-1.288205e+00	-2.784270e+02
8.200000e-07	-3.005526e-08	-3.929481e-09	-2.033102e-01	-2.574872e+02
8.300000e-07	1.303559e-07	-3.596179e-09	8.817984e-01	-2.359602e+02
8.400000e-07	2.906662e-07	-3.235187e-09	1.966225e+00	-2.136090e+02
8.500000e-07	4.508627e-07	-2.836079e-09	3.049882e+00	-1.895149e+02
8.600000e-07	6.109562e-07	-2.394933e-09	4.132842e+00	-1.621388e+02
8.700000e-07	7.708518e-07	-1.903914e-09	5.214463e+00	-1.296476e+02
8.800000e-07	9.304669e-07	-1.340711e-09	6.294187e+00	-9.043671e+01
8.900000e-07	1.089747e-06	-6.719356e-10	7.371642e+00	-4.369987e+01
9.000000e-07	1.248701e-06	1.294121e-10	8.446894e+00	1.013822e+01
9.100000e-07	1.407211e-06	1.058282e-09	9.519142e+00	6.928189e+01
9.200000e-07	1.565178e-06	2.053893e-09	1.058772e+01	1.307895e+02
9.300000e-07	1.722586e-06	3.016401e-09	1.165252e+01	1.911219e+02
9.400000e-07	1.879290e-06	3.859306e-09	1.271254e+01	2.468678e+02
9.500000e-07	2.035229e-06	4.549627e-09	1.376740e+01	2.954419e+02
9.600000e-07	2.190429e-06	5.101674e-09	1.481726e+01	3.355582e+02
9.700000e-07	2.344821e-06	5.552560e-09	1.586165e+01	3.673520e+02
9.800000e-07	2.498375e-06	5.934955e-09	1.690037e+01	3.921376e+02
9.900000e-07	2.651024e-06	6.264754e-09	1.793298e+01	4.118978e+02
1.000000e-06	2.802729e-06	6.549064e-09	1.895919e+01	4.286785e+02
1.010000e-06	2.953510e-06	6.796109e-09	1.997916e+01	4.440764e+02
1.020000e-06	3.103233e-06	7.018064e-09	2.099196e+01	4.589584e+02
1.030000e-06	3.251737e-06	7.220276e-09	2.199653e+01	4.734633e+02
1.040000e-06	3.398991e-06	7.405317e-09	2.299263e+01	4.872363e+02
1.050000e-06	3.545039e-06	7.577692e-09	2.398058e+01	4.997771e+02
1.060000e-06	3.689853e-06	7.741796e-09	2.496018e+01	5.107581e+02
1.070000e-06	3.833390e-06	7.897787e-09	2.593115e+01	5.202015e+02
1.080000e-06	3.975484e-06	8.041162e-09	2.689235e+01	5.284731e+02
1.090000e-06	4.115975e-06	8.170643e-09	2.784270e+01	5.361217e+02
1.100000e-06	4.254897e-06	8.292476e-09	2.878245e+01	5.436550e+02
1.110000e-06	4.392284e-06	8.408747e-09	2.971181e+01	5.513506e+02
1.120000e-06	4.528081e-06	8.517310e-09	3.063042e+01	5.591805e+02
1.130000e-06	4.662227e-06	8.621528e-09	3.153785e+01	5.668695e+02
1.140000e-06	4.794607e-06	8.724103e-09	3.243334e+01	5.740511e+02
1.150000e-06	4.925261e-06	8.822668e-09	3.331716e+01	5.804479e+02
1.160000e-06	5.054255e-06	8.911779e-09	3.418974e+01	5.859990e+02
1.170000e-06	5.181496e-06	8.991516e-09	3.505047e+01	5.908834e+02
1.180000e-06	5.306883e-06	9.067320e-09	3.589866e+01	5.954379e+02
1.190000e-06	5.430317e-06	9.141697e-09	3.673363e+01	6.000123e+02
1.200000e-06	5.551870e-06	9.213852e-09	3.755588e+01	6.048259e+02
1.210000e-06	5.671519e-06	9.282504e-09	3.836525e+01	6.098880e+02
1.220000e-06	5.788973e-06	9.350373e-09	3.915978e+01	6.150124e+02
1.230000e-06	5.904150e-06	9.418462e-09	3.993890e+01	6.199139e+02
1.240000e-06	6.017126e-06	9.482600e-09	4.070313e+01	6.243412e+02
1.250000e-06	6.127920e-06	9.540555e-09	4.145260e+01	6.281880e+02
1.260000e-06	6.236486e-06	9.596558e-09	4.218700e+01	6.315344e+02
1.270000e-06	6.342852e-06	9.654049e-09	4.290652e+01	6.346054e+02
1.280000e-06	6.447014e-06	9.708416e-09	4.361113e+01	6.376683e+02
1.290000e-06	6.548847e-06	9.756508e-09	4.429998e+01	6.409144e+02
1.300000e-06	6.648251e-06	9.801283e-09	4.497241e+01	6.443802e+02
1.310000e-06	6.745220e-06	9.846786e-09	4.562836e+01	6.479374e+02
1.320000e-06	6.839851e-06	9.892913e-09	4.626849e+01	6.513562e+02
1.330000e-06	6.932047e-06	9.936265e-09	4.689216e+01	6.544100e+02
1.340000e-06	7.021803e-06	9.976835e-09	4.749932e+01	6.569756e+02
1.350000e-06	7.109131e-06	1.001839e-08	4.809005e+01	6.590860e+02
1.360000e-06	7.193978e-06	1.005947e-08	4.866400e+01	6.609133e+02
1.370000e-06	7.276316e-06	1.009395e-08	4.922098e+01	6.626916e+02
1.380000e-06	7.356056e-06	1.012022e-08	4.976038e+01	6.646167e+02
1.390000e-06	7.433093e-06	1.014494e-08	5.028151e+01	6.667639e+02
1.400000e-06	7.507291e-06	1.017616e-08	5.078342e+01	6.690622e+02
1.410000e-06	7.578709e-06	1.020948e-08	5.126653e+01	6.713320e+02
1.420000e-06	7.647442e-06	1.023886e-08	5.173148e+01	6.733691e+02
1.430000e-06	7.713458e-06	1.026483e-08	5.217804e+01	6.750374e+02
1.440000e-06	7.776767e-06	1.028989e-08	5.260631e+01	6.763280e+02
1.450000e-06	7.837384e-06	1.031311e-08	5.301635e+01	6.773617e+02
1.460000e-06	7.895229e-06	1.033033e-08	5.340765e+01	6.783332e+02
1.470000e-06	7.950194e-06	1.034545e-08	5.377946e+01	6.794239e+02
1.480000e-06	8.002037e-06	1.036280e-08	5.413016e+01	6.807216e+02
1.490000e-06	8.050691e-06	1.038116e-08	5.445928e+01	6.821832e+02
1.500000e-06	8.096492e-06	1.039882e-08	5.476910e+01	6.836549e+02
1.510000e-06	8.139505e-06	1.041594e-08	5.506006e+01	6.849416e+02
1.520000e-06	8.179580e-06	1.043224e-08	5.533115e+01	6.858937e+02
1.530000e-06	8.216763e-06	1.044725e-08	5.558268e+01	6.864732e+02
1.540000e-06	8.251047e-06	1.045636e-08	5.581459e+01	6.867702e+02
1.550000e-06	8.282474e-06	1.046008e-08	5.602718e+01	6.869637e+02
1.560000e-06	8.311089e-06	1.046677e-08	5.622075e+01	6.872437e+02
1.570000e-06	8.336683e-06	1.047696e-08	5.639388e+01	6.877296e+02
1.580000e-06	8.359279e-06	1.048723e-08	5.654674e+01	6.884198e+02
1.590000e-06	8.378977e-06	1.049725e-08	5.667998e+01	6.891953e+02
1.600000e-06	8.395646e-06	1.050681e-08	5.679274e+01	6.898742e+02
1.610000e-06	8.409224e-06	1.051326e-08	5.688459e+01	6.902925e+02
1.620000e-06	8.419586e-06	1.051377e-08	5.695468e+01	6.903773e+02
1.630000e-06	8.426817e-06	1.051141e-08	5.700360e+01	6.901777e+02
1.640000e-06	8.431106e-06	1.051028e-08	5.703261e+01	6.898431e+02
1.650000e-06	8.432420e-06	1.051186e-08	5.704150e+01	6.895560e+02
1.660000e-06	8.430896e-06	1.050928e-08	5.703119e+01	6.894509e+02
1.670000e-06	8.426615e-06	1.050874e-08	5.700223e+01	6.895539e+02
1.680000e-06	8.419535e-06	1.051193e-08	5.695434e+01	6.897697e+02
1.690000e-06	8.409612e-06	1.051144e-08	5.688721e+01	6.899221e+02
1.700000e-06	8.396682e-06	1.050875e-08	5.679975e+01	6.898291e+02
1.710000e-06	8.380964e-06	1.050814e-08	5.669343e+01	6.893823e+02
1.720000e-06	8.362816e-06	1.051539e-08	5.657066e+01	6.885938e+02
1.730000e-06	8.342047e-06	1.047857e-08	5.643017e+01	6.875932e+02
1.740000e-06	8.318127e-06	1.041494e-08	5.626836e+01	6.865736e+02
1.750000e-06	8.290380e-06	1.040557e-08	5.608066e+01	6.857119e+02
1.760000e-06	8.258807e-06	1.041101e-08	5.586709e+01	6.850963e+02
1.770000e-06	8.224317e-06	1.042344e-08	5.563378e+01	6.846921e+02
1.780000e-06	8.187327e-06	1.047243e-08	5.538355e+01	6.843587e+02
1.790000e-06	8.148102e-06	1.046896e-08	5.511822e+01	6.839099e+02
1.800000e-06	8.106986e-06	1.037520e-08	5.484009e+01	6.831905e+02
1.810000e-06	8.063293e-06	1.039523e-08	5.454452e+01	6.821357e+02
1.820000e-06	8.016521e-06	1.037399e-08	5.422813e+01	6.807893e+02
1.830000e-06	7.966828e-06	1.034446e-08	5.389198e+01	6.792742e+02
1.840000e-06	7.913828e-06	1.037708e-08	5.353346e+01	6.777306e+02
1.850000e-06	7.857791e-06	1.031607e-08	5.315439e+01	6.762502e+02
1.860000e-06	7.799066e-06	1.035883e-08	5.275715e+01	6.748373e+02
1.870000e-06	7.737459e-06	1.031261e-08	5.234041e+01	6.734117e+02
1.880000e-06	7.673098e-06	1.022699e-08	5.190503e+01	6.718531e+02
1.890000e-06	7.605807e-06	1.020845e-08	5.144984e+01	6.700637e+02
1.900000e-06	7.535599e-06	1.013840e-08	5.097491e+01	6.680200e+02
1.910000e-06	7.462516e-06	1.015894e-08	5.048054e+01	6.657883e+02
1.920000e-06	7.386539e-06	1.014134e-08	4.996659e+01	6.634974e+02
1.930000e-06	7.307830e-06	1.012126e-08	4.943416e+01	6.612782e+02
1.940000e-06	7.226581e-06	1.009176e-08	4.888455e+01	6.592001e+02
1.950000e-06	7.142872e-06	1.002536e-08	4.831829e+01	6.572317e+02
1.960000e-06	7.056395e-06	9.996292e-09	4.773331e+01	6.552474e+02
1.970000e-06	6.967351e-06	9.919107e-09	4.713097e+01	6.530775e+02
1.980000e-06	6.875921e-06	9.899629e-09	4.651249e+01	6.505803e+02
1.990000e-06	6.782018e-06	9.877511e-09	4.587728e+01	6.477062e+02
2.000000e-06	6.685760e-06	9.855574e-09	4.522614e+01	6.445225e+02
2.010000e-06	6.587129e-06	9.810920e-09	4.455894e+01	6.411879e+02
2.020000e-06	6.486105e-06	9.742793e-09	4.387556e+01	6.378852e+02
2.030000e-06	6.382630e-06	9.684590e-09	4.317560e+01	6.347417e+02
2.040000e-06	6.276946e-06	9.626430e-09	4.246069e+01	6.317707e+02
2.050000e-06	6.169117e-06	9.592049e-09	4.173128e+01	6.288627e+02
2.060000e-06	6.059078e-06	9.538080e-09	4.098692e+01	6.258292e+02
2.070000e-06	5.946751e-06	9.499870e-09	4.022707e+01	6.224823e+02
2.080000e-06	5.832033e-06	9.444259e-09	3.945106e+01	6.187156e+02
2.090000e-06	5.714993e-06	9.389995e-09	3.865934e+01	6.145507e+02
2.100000e-06	5.595806e-06	9.309976e-09	3.785309e+01	6.101275e+02
2.110000e-06	5.474672e-06	9.234430e-09	3.703367e+01	6.056424e+02
2.120000e-06	5.351579e-06	9.172943e-09	3.620101e+01	6.012599e+02
2.130000e-06	5.226563e-06	9.112552e-09	3.535533e+01	5.970368e+02
2.140000e-06	5.099629e-06	9.057549e-09	3.449668e+01	5.928923e+02
2.150000e-06	4.970868e-06	8.980332e-09	3.362567e+01	5.886389e+02
2.160000e-06	4.840345e-06	8.910882e-09	3.274274e+01	5.840618e+02
2.170000e-06	4.708102e-06	8.827278e-09	3.184817e+01	5.790111e+02
2.180000e-06	4.574190e-06	8.744058e-09	3.094232e+01	5.734681e+02
2.190000e-06	4.438602e-06	8.660536e-09	3.002513e+01	5.675533e+02
2.200000e-06	4.301316e-06	8.583089e-09	2.909645e+01	5.614724e+02
2.210000e-06	4.162400e-06	8.505175e-09	2.815675e+01	5.554222e+02
2.220000e-06	4.021933e-06	8.411048e-09	2.720655e+01	5.494981e+02
2.230000e-06	3.879959e-06	8.302729e-09	2.624616e+01	5.436445e+02
2.240000e-06	3.736559e-06	8.195017e-09	2.527613e+01	5.376720e+02
2.250000e-06	3.591838e-06	8.094942e-09	2.429716e+01	5.313364e+02
2.260000e-06	3.445890e-06	7.995205e-09	2.330988e+01	5.244438e+02
2.270000e-06	3.298687e-06	7.890163e-09	2.231412e+01	5.169372e+02
2.280000e-06	3.150286e-06	7.781398e-09	2.131025e+01	5.089220e+02
2.290000e-06	3.000768e-06	7.670086e-09	2.029883e+01	5.006171e+02
2.300000e-06	2.850284e-06	7.547350e-09	1.928088e+01	4.922510e+02
2.310000e-06	2.698816e-06	7.413243e-09	1.825626e+01	4.839463e+02
2.320000e-06	2.546289e-06	7.268252e-09	1.722449e+01	4.756467e+02
2.330000e-06	2.392806e-06	7.128173e-09	1.618625e+01	4.671230e+02
2.340000e-06	2.238472e-06	6.990668e-09	1.514225e+01	4.580583e+02
2.350000e-06	2.083304e-06	6.847800e-09	1.409261e+01	4.481802e+02
2.360000e-06	1.927396e-06	6.693030e-09	1.303796e+01	4.373802e+02
2.370000e-06	1.770861e-06	6.528731e-09	1.197908e+01	4.257647e+02
2.380000e-06	1.613704e-06	6.356832e-09	1.091597e+01	4.136065e+02
2.390000e-06	1.455944e-06	6.171823e-09	9.848804e+00	4.012121e+02
2.400000e-06	1.297667e-06	5.972460e-09	8.778132e+00	3.887579e+02
2.410000e-06	1.138957e-06	5.761118e-09	7.704526e+00	3.761685e+02
2.420000e-06	9.798353e-07	5.546940e-09	6.628142e+00	3.630982e+02
2.430000e-06	8.203613e-07	5.325667e-09	5.549372e+00	3.490359e+02
2.440000e-06	6.606008e-07	5.092416e-09	4.468665e+00	3.334974e+02
2.450000e-06	5.005568e-07	4.843901e-09	3.386040e+00	3.162256e+02
2.460000e-06	3.402621e-07	4.578903e-09	2.301719e+00	2.973029e+02
2.470000e-06	1.798333e-07	4.293918e-09	1.216491e+00	2.771065e+02
2.480000e-06	1.931134e-08	3.981087e-09	1.306325e-01	2.560974e+02
2.490000e-06	-1.411886e-07	3.634907e-09	-9.550771e-01	2.345045e+02
2.500000e-06	-3.015363e-07	3.258007e-09	-2.039756e+00	2.120227e+02
2.510000e-06	-4.617044e-07	2.857294e-09	-3.123221e+00	1.876593e+02
2.520000e-06	-6.216609e-07	2.422098e-09	-4.205254e+00	1.598235e+02
2.530000e-06	-7.813921e-07	1.930511e-09	-5.285764e+00	1.266794e+02
2.540000e-06	-9.408012e-07	1.361523e-09	-6.364093e+00	8.668170e+01
2.550000e-06	-1.099802e-06	6.932624e-10	-7.439665e+00	3.913928e+01
2.560000e-06	-1.258370e-06	-1.042076e-10	-8.512302e+00	-1.537670e+01
2.570000e-06	-1.416490e-06	-1.037416e-09	-9.581916e+00	-7.493057e+01
2.580000e-06	-1.574130e-06	-2.047977e-09	-1.064828e+01	-1.364858e+02
2.590000e-06	-1.731227e-06	-3.025385e-09	-1.171097e+01	-1.964808e+02
2.600000e-06	-1.887731e-06	-3.873617e-09	-1.276964e+01	-2.515620e+02
2.610000e-06	-2.043571e-06	-4.565094e-09	-1.382383e+01	-2.992662e+02
2.620000e-06	-2.198595e-06	-5.121403e-09	-1.487250e+01	-3.384604e+02
2.630000e-06	-2.352769e-06	-5.574652e-09	-1.591541e+01	-3.694239e+02
2.640000e-06	-2.506118e-06	-5.951719e-09	-1.695275e+01	-3.935703e+02
2.650000e-06	-2.658528e-06	-6.275176e-09	-1.798374e+01	-4.129177e+02
2.660000e-06	-2.809873e-06	-6.562190e-09	-1.900751e+01	-4.294856e+02
2.670000e-06	-2.960171e-06	-6.819680e-09	-2.002422e+01	-4.448007e+02
2.680000e-06	-3.109490e-06	-7.051330e-09	-2.103429e+01	-4.596471e+02
2.690000e-06	-3.257777e-06	-7.262149e-09	-2.203739e+01	-4.740963e+02
2.700000e-06	-3.404927e-06	-7.452783e-09	-2.303279e+01	-4.877607e+02
2.710000e-06	-3.550863e-06	-7.625484e-09	-2.401998e+01	-5.001449e+02
2.720000e-06	-3.695498e-06	-7.783278e-09	-2.499837e+01	-5.109534e+02
2.730000e-06	-3.838648e-06	-7.926635e-09	-2.596671e+01	-5.202489e+02
2.740000e-06	-3.980328e-06	-8.061400e-09	-2.692512e+01	-5.284264e+02
2.750000e-06	-4.120601e-06	-8.193583e-09	-2.787400e+01	-5.360414e+02
2.760000e-06	-4.259400e-06	-8.322016e-09	-2.881291e+01	-5.435842e+02
2.770000e-06	-4.396655e-06	-8.441103e-09	-2.974138e+01	-5.513009e+02
2.780000e-06	-4.532212e-06	-8.551561e-09	-3.065836e+01	-5.591322e+02
2.790000e-06	-4.666024e-06	-8.657972e-09	-3.156354e+01	-5.667844e+02
2.800000e-06	-4.798211e-06	-8.758536e-09	-3.245772e+01	-5.738922e+02
2.810000e-06	-4.928779e-06	-8.846492e-09	-3.334096e+01	-5.801970e+02
2.820000e-06	-5.057644e-06	-8.925370e-09	-3.421267e+01	-5.856645e+02
2.830000e-06	-5.184675e-06	-9.006055e-09	-3.507197e+01	-5.904959e+02
2.840000e-06	-5.309840e-06	-9.091497e-09	-3.591866e+01	-5.950373e+02
2.850000e-06	-5.433191e-06	-9.176517e-09	-3.675307e+01	-5.996303e+02
2.860000e-06	-5.554621e-06	-9.254430e-09	-3.757450e+01	-6.044741e+02
2.870000e-06	-5.673912e-06	-9.327721e-09	-3.838144e+01	-6.095548e+02
2.880000e-06	-5.791009e-06	-9.401118e-09	-3.917355e+01	-6.146696e+02
2.890000e-06	-5.905861e-06	-9.470524e-09	-3.995047e+01	-6.195306e+02
2.900000e-06	-6.018293e-06	-9.529977e-09	-4.071103e+01	-6.238977e+02
2.910000e-06	-6.128402e-06	-9.583289e-09	-4.145586e+01	-6.276840e+02
2.920000e-06	-6.236346e-06	-9.639929e-09	-4.218605e+01	-6.309885e+02
2.930000e-06	-6.342219e-06	-9.699547e-09	-4.290224e+01	-6.340465e+02
2.940000e-06	-6.445872e-06	-9.755281e-09	-4.360340e+01	-6.371222e+02
