# Temperatura_=_41.06
# Concentracion g/m^3_=_13400.0
# C_Vs_to_Am_M_A/Vsm_=_65563218390.804596
# pendiente_HvsI_1/m_=_3716.3
# ordenada_HvsI_A/m_=_1297.0
# frecuencia_Hz_=_301399.05988191697

Tiempo_(s)	Campo_(V.s)	Magnetizacion_(V.s)	Campo_(kA/m)	Magnetizacion_(A/m)
0.000000e+00	-8.418215e-06	-1.072126e-08	-5.693128e+01	-7.035559e+02
1.000000e-08	-8.414828e-06	-1.072157e-08	-5.690838e+01	-7.035959e+02
2.000000e-08	-8.408696e-06	-1.071736e-08	-5.686691e+01	-7.037597e+02
3.000000e-08	-8.399920e-06	-1.071443e-08	-5.680755e+01	-7.038874e+02
4.000000e-08	-8.388237e-06	-1.071224e-08	-5.672854e+01	-7.038026e+02
5.000000e-08	-8.373466e-06	-1.070580e-08	-5.662865e+01	-7.033889e+02
6.000000e-08	-8.355698e-06	-1.069432e-08	-5.650848e+01	-7.026415e+02
7.000000e-08	-8.335327e-06	-1.067203e-08	-5.637072e+01	-7.016703e+02
8.000000e-08	-8.312387e-06	-1.066942e-08	-5.621558e+01	-7.006543e+02
9.000000e-08	-8.286212e-06	-1.073985e-08	-5.603856e+01	-6.997662e+02
1.000000e-07	-8.256614e-06	-1.072870e-08	-5.583840e+01	-6.991008e+02
1.100000e-07	-8.223931e-06	-1.065727e-08	-5.561737e+01	-6.986362e+02
1.200000e-07	-8.188321e-06	-1.062775e-08	-5.537654e+01	-6.982446e+02
1.300000e-07	-8.150008e-06	-1.061658e-08	-5.511743e+01	-6.977477e+02
1.400000e-07	-8.109328e-06	-1.057712e-08	-5.484232e+01	-6.969899e+02
1.500000e-07	-8.066160e-06	-1.053925e-08	-5.455038e+01	-6.959003e+02
1.600000e-07	-8.020094e-06	-1.063418e-08	-5.423884e+01	-6.945147e+02
1.700000e-07	-7.971125e-06	-1.054989e-08	-5.390767e+01	-6.929511e+02
1.800000e-07	-7.919139e-06	-1.054941e-08	-5.355609e+01	-6.913513e+02
1.900000e-07	-7.864119e-06	-1.057327e-08	-5.318400e+01	-6.898142e+02
2.000000e-07	-7.806334e-06	-1.042655e-08	-5.279321e+01	-6.883534e+02
2.100000e-07	-7.745696e-06	-1.043391e-08	-5.238312e+01	-6.868950e+02
2.200000e-07	-7.682318e-06	-1.040334e-08	-5.195450e+01	-6.853185e+02
2.300000e-07	-7.616197e-06	-1.042844e-08	-5.150734e+01	-6.835181e+02
2.400000e-07	-7.547207e-06	-1.041981e-08	-5.104077e+01	-6.814582e+02
2.500000e-07	-7.475445e-06	-1.035325e-08	-5.055545e+01	-6.791944e+02
2.600000e-07	-7.400773e-06	-1.033339e-08	-5.005045e+01	-6.768504e+02
2.700000e-07	-7.323192e-06	-1.027861e-08	-4.952578e+01	-6.745615e+02
2.800000e-07	-7.242773e-06	-1.025747e-08	-4.898192e+01	-6.724082e+02
2.900000e-07	-7.159681e-06	-1.017963e-08	-4.841998e+01	-6.703729e+02
3.000000e-07	-7.074223e-06	-1.017382e-08	-4.784204e+01	-6.683399e+02
3.100000e-07	-6.986379e-06	-1.018548e-08	-4.724796e+01	-6.661402e+02
3.200000e-07	-6.896021e-06	-1.012825e-08	-4.663689e+01	-6.636239e+02
3.300000e-07	-6.803144e-06	-1.008451e-08	-4.600877e+01	-6.607268e+02
3.400000e-07	-6.707861e-06	-9.996626e-09	-4.536438e+01	-6.575023e+02
3.500000e-07	-6.610167e-06	-9.956212e-09	-4.470369e+01	-6.541022e+02
3.600000e-07	-6.510010e-06	-9.916648e-09	-4.402634e+01	-6.507129e+02
3.700000e-07	-6.407486e-06	-9.879043e-09	-4.333299e+01	-6.474743e+02
3.800000e-07	-6.302626e-06	-9.832655e-09	-4.262383e+01	-6.444164e+02
3.900000e-07	-6.195470e-06	-9.790713e-09	-4.189915e+01	-6.414422e+02
4.000000e-07	-6.086162e-06	-9.753365e-09	-4.115991e+01	-6.383655e+02
4.100000e-07	-5.974721e-06	-9.671186e-09	-4.040625e+01	-6.349893e+02
4.200000e-07	-5.860977e-06	-9.598053e-09	-3.963702e+01	-6.311894e+02
4.300000e-07	-5.744929e-06	-9.528823e-09	-3.885220e+01	-6.269692e+02
4.400000e-07	-5.626714e-06	-9.489255e-09	-3.805272e+01	-6.224575e+02
4.500000e-07	-5.506336e-06	-9.443168e-09	-3.723863e+01	-6.178523e+02
4.600000e-07	-5.383965e-06	-9.378822e-09	-3.641105e+01	-6.133323e+02
4.700000e-07	-5.259728e-06	-9.297553e-09	-3.557085e+01	-6.089745e+02
4.800000e-07	-5.133635e-06	-9.223227e-09	-3.471810e+01	-6.047163e+02
4.900000e-07	-5.005667e-06	-9.152128e-09	-3.385267e+01	-6.003785e+02
5.000000e-07	-4.875809e-06	-9.067153e-09	-3.297446e+01	-5.957401e+02
5.100000e-07	-4.744155e-06	-8.984738e-09	-3.208410e+01	-5.906349e+02
5.200000e-07	-4.610772e-06	-8.906976e-09	-3.118204e+01	-5.850248e+02
5.300000e-07	-4.475795e-06	-8.837658e-09	-3.026921e+01	-5.790176e+02
5.400000e-07	-4.339190e-06	-8.753232e-09	-2.934537e+01	-5.728197e+02
5.500000e-07	-4.200912e-06	-8.652857e-09	-2.841022e+01	-5.666421e+02
5.600000e-07	-4.061107e-06	-8.548803e-09	-2.746473e+01	-5.606014e+02
5.700000e-07	-3.919677e-06	-8.456975e-09	-2.650826e+01	-5.546601e+02
5.800000e-07	-3.776599e-06	-8.364939e-09	-2.554064e+01	-5.486335e+02
5.900000e-07	-3.632138e-06	-8.258081e-09	-2.456367e+01	-5.422637e+02
6.000000e-07	-3.486445e-06	-8.145400e-09	-2.357837e+01	-5.353298e+02
6.100000e-07	-3.339471e-06	-8.033727e-09	-2.258440e+01	-5.277443e+02
6.200000e-07	-3.191262e-06	-7.923406e-09	-2.158209e+01	-5.195934e+02
6.300000e-07	-3.041972e-06	-7.801903e-09	-2.057245e+01	-5.110978e+02
6.400000e-07	-2.891719e-06	-7.671979e-09	-1.955632e+01	-5.025112e+02
6.500000e-07	-2.740515e-06	-7.540562e-09	-1.853374e+01	-4.939960e+02
6.600000e-07	-2.588310e-06	-7.405937e-09	-1.750440e+01	-4.855348e+02
6.700000e-07	-2.435128e-06	-7.261615e-09	-1.646845e+01	-4.769189e+02
6.800000e-07	-2.281038e-06	-7.108665e-09	-1.542636e+01	-4.678241e+02
6.900000e-07	-2.126131e-06	-6.954719e-09	-1.437874e+01	-4.579436e+02
7.000000e-07	-1.970459e-06	-6.797852e-09	-1.332596e+01	-4.471220e+02
7.100000e-07	-1.814081e-06	-6.635439e-09	-1.226839e+01	-4.354266e+02
7.200000e-07	-1.657087e-06	-6.462206e-09	-1.120666e+01	-4.231192e+02
7.300000e-07	-1.499561e-06	-6.276379e-09	-1.014133e+01	-4.105312e+02
7.400000e-07	-1.341487e-06	-6.079163e-09	-9.072299e+00	-3.978932e+02
7.500000e-07	-1.182858e-06	-5.872973e-09	-7.999511e+00	-3.851913e+02
7.600000e-07	-1.023734e-06	-5.656808e-09	-6.923376e+00	-3.721207e+02
7.700000e-07	-8.642205e-07	-5.428240e-09	-5.844610e+00	-3.581685e+02
7.800000e-07	-7.043978e-07	-5.188358e-09	-4.763750e+00	-3.428001e+02
7.900000e-07	-5.443363e-07	-4.937105e-09	-3.681275e+00	-3.256761e+02
8.000000e-07	-3.840919e-07	-4.669999e-09	-2.597563e+00	-3.067990e+02
8.100000e-07	-2.236502e-07	-4.377360e-09	-1.512517e+00	-2.865090e+02
8.200000e-07	-6.312194e-08	-4.061819e-09	-4.268854e-01	-2.653023e+02
8.300000e-07	9.740192e-08	-3.726705e-09	6.587164e-01	-2.435191e+02
8.400000e-07	2.578450e-07	-3.366667e-09	1.743772e+00	-2.210141e+02
8.500000e-07	4.181620e-07	-2.970775e-09	2.827974e+00	-1.969474e+02
8.600000e-07	5.783521e-07	-2.529535e-09	3.911319e+00	-1.698101e+02
8.700000e-07	7.383550e-07	-2.036098e-09	4.993398e+00	-1.377248e+02
8.800000e-07	8.981118e-07	-1.471795e-09	6.073812e+00	-9.896263e+01
8.900000e-07	1.057552e-06	-8.076839e-10	7.152086e+00	-5.253379e+01
9.000000e-07	1.216611e-06	-1.440957e-11	8.227782e+00	1.336782e+00
9.100000e-07	1.375159e-06	9.118267e-10	9.300021e+00	6.101595e+01
9.200000e-07	1.533100e-06	1.922826e-09	1.036816e+01	1.236391e+02
9.300000e-07	1.690396e-06	2.917697e-09	1.143192e+01	1.856308e+02
9.400000e-07	1.847061e-06	3.802049e-09	1.249143e+01	2.434329e+02
9.500000e-07	2.003158e-06	4.534968e-09	1.354710e+01	2.942357e+02
9.600000e-07	2.158588e-06	5.124146e-09	1.459824e+01	3.365048e+02
9.700000e-07	2.313237e-06	5.600065e-09	1.564412e+01	3.701632e+02
9.800000e-07	2.467099e-06	5.993201e-09	1.668466e+01	3.963953e+02
9.900000e-07	2.620073e-06	6.328788e-09	1.771921e+01	4.171581e+02
1.000000e-06	2.772077e-06	6.621273e-09	1.874719e+01	4.345674e+02
1.010000e-06	2.923069e-06	6.879232e-09	1.976833e+01	4.503509e+02
1.020000e-06	3.072961e-06	7.111516e-09	2.078203e+01	4.655206e+02
1.030000e-06	3.221689e-06	7.323613e-09	2.178786e+01	4.803310e+02
1.040000e-06	3.369234e-06	7.517788e-09	2.278568e+01	4.944852e+02
1.050000e-06	3.515660e-06	7.697211e-09	2.377595e+01	5.074791e+02
1.060000e-06	3.660877e-06	7.865041e-09	2.475803e+01	5.189361e+02
1.070000e-06	3.804741e-06	8.021200e-09	2.573097e+01	5.288148e+02
1.080000e-06	3.947151e-06	8.166561e-09	2.669406e+01	5.374325e+02
1.090000e-06	4.088012e-06	8.301091e-09	2.764669e+01	5.453252e+02
1.100000e-06	4.227389e-06	8.427651e-09	2.858927e+01	5.530254e+02
1.110000e-06	4.365219e-06	8.546795e-09	2.952140e+01	5.608607e+02
1.120000e-06	4.501384e-06	8.659996e-09	3.044227e+01	5.688559e+02
1.130000e-06	4.635873e-06	8.771333e-09	3.135180e+01	5.767692e+02
1.140000e-06	4.768646e-06	8.881011e-09	3.224973e+01	5.842358e+02
1.150000e-06	4.899714e-06	8.983358e-09	3.313612e+01	5.909491e+02
1.160000e-06	5.029084e-06	9.071511e-09	3.401103e+01	5.968012e+02
1.170000e-06	5.156703e-06	9.151571e-09	3.487410e+01	6.019265e+02
1.180000e-06	5.282497e-06	9.229815e-09	3.572484e+01	6.066378e+02
1.190000e-06	5.406421e-06	9.307716e-09	3.656291e+01	6.112901e+02
1.200000e-06	5.528433e-06	9.381084e-09	3.738806e+01	6.161346e+02
1.210000e-06	5.648412e-06	9.451972e-09	3.819947e+01	6.212263e+02
1.220000e-06	5.766251e-06	9.524963e-09	3.899640e+01	6.264204e+02
1.230000e-06	5.881908e-06	9.597473e-09	3.977857e+01	6.314535e+02
1.240000e-06	5.995323e-06	9.664164e-09	4.054558e+01	6.360701e+02
1.250000e-06	6.106547e-06	9.722412e-09	4.129777e+01	6.401366e+02
1.260000e-06	6.215625e-06	9.777407e-09	4.203545e+01	6.436958e+02
1.270000e-06	6.322512e-06	9.834408e-09	4.275832e+01	6.469402e+02
1.280000e-06	6.427123e-06	9.891417e-09	4.346579e+01	6.501217e+02
1.290000e-06	6.529392e-06	9.944013e-09	4.415742e+01	6.534390e+02
1.300000e-06	6.629367e-06	9.992426e-09	4.483354e+01	6.569534e+02
1.310000e-06	6.726895e-06	1.003897e-08	4.549310e+01	6.605688e+02
1.320000e-06	6.821932e-06	1.008692e-08	4.613583e+01	6.640814e+02
1.330000e-06	6.914632e-06	1.013426e-08	4.676275e+01	6.672748e+02
1.340000e-06	7.004963e-06	1.017715e-08	4.737364e+01	6.700176e+02
1.350000e-06	7.092811e-06	1.021840e-08	4.796775e+01	6.723204e+02
1.360000e-06	7.178197e-06	1.025971e-08	4.854520e+01	6.743284e+02
1.370000e-06	7.261106e-06	1.029857e-08	4.910591e+01	6.762557e+02
1.380000e-06	7.341377e-06	1.033076e-08	4.964877e+01	6.782911e+02
1.390000e-06	7.418909e-06	1.035904e-08	5.017311e+01	6.805180e+02
1.400000e-06	7.493626e-06	1.039049e-08	5.067840e+01	6.828829e+02
1.410000e-06	7.565602e-06	1.042450e-08	5.116517e+01	6.852249e+02
1.420000e-06	7.634947e-06	1.045677e-08	5.163414e+01	6.873512e+02
1.430000e-06	7.701544e-06	1.048625e-08	5.208453e+01	6.891252e+02
1.440000e-06	7.765369e-06	1.051329e-08	5.251617e+01	6.905270e+02
1.450000e-06	7.826551e-06	1.053681e-08	5.292994e+01	6.916608e+02
1.460000e-06	7.885031e-06	1.055603e-08	5.332543e+01	6.927069e+02
1.470000e-06	7.940665e-06	1.057329e-08	5.370168e+01	6.938415e+02
1.480000e-06	7.993242e-06	1.059103e-08	5.405724e+01	6.951588e+02
1.490000e-06	8.042609e-06	1.060893e-08	5.439111e+01	6.966311e+02
1.500000e-06	8.088998e-06	1.062725e-08	5.470483e+01	6.981234e+02
1.510000e-06	8.132529e-06	1.064704e-08	5.499922e+01	6.994550e+02
1.520000e-06	8.173125e-06	1.066597e-08	5.527377e+01	7.004813e+02
1.530000e-06	8.210906e-06	1.068332e-08	5.552928e+01	7.011578e+02
1.540000e-06	8.245837e-06	1.069685e-08	5.576551e+01	7.015599e+02
1.550000e-06	8.277847e-06	1.070427e-08	5.598199e+01	7.018496e+02
1.560000e-06	8.307040e-06	1.070992e-08	5.617942e+01	7.022033e+02
1.570000e-06	8.333258e-06	1.071723e-08	5.635673e+01	7.027352e+02
1.580000e-06	8.356461e-06	1.072665e-08	5.651365e+01	7.034474e+02
1.590000e-06	8.376858e-06	1.073714e-08	5.665159e+01	7.042305e+02
1.600000e-06	8.394330e-06	1.074678e-08	5.676975e+01	7.049133e+02
1.610000e-06	8.408636e-06	1.075254e-08	5.686650e+01	7.053390e+02
1.620000e-06	8.419632e-06	1.075555e-08	5.694087e+01	7.054354e+02
1.630000e-06	8.427501e-06	1.075946e-08	5.699408e+01	7.052465e+02
1.640000e-06	8.432510e-06	1.076234e-08	5.702795e+01	7.049134e+02
1.650000e-06	8.434513e-06	1.076013e-08	5.704150e+01	7.046120e+02
1.660000e-06	8.433580e-06	1.075684e-08	5.703519e+01	7.044751e+02
1.670000e-06	8.429932e-06	1.074944e-08	5.701052e+01	7.045336e+02
1.680000e-06	8.423474e-06	1.075240e-08	5.696684e+01	7.047020e+02
1.690000e-06	8.414155e-06	1.075355e-08	5.690382e+01	7.048147e+02
1.700000e-06	8.401836e-06	1.074819e-08	5.682051e+01	7.046984e+02
1.710000e-06	8.386613e-06	1.074580e-08	5.671756e+01	7.042468e+02
1.720000e-06	8.368921e-06	1.075231e-08	5.659791e+01	7.034682e+02
1.730000e-06	8.348734e-06	1.076641e-08	5.646139e+01	7.024829e+02
1.740000e-06	8.325534e-06	1.066486e-08	5.630449e+01	7.014730e+02
1.750000e-06	8.298605e-06	1.061092e-08	5.612238e+01	7.006060e+02
1.760000e-06	8.267761e-06	1.065613e-08	5.591378e+01	6.999651e+02
1.770000e-06	8.233845e-06	1.066698e-08	5.568441e+01	6.995157e+02
1.780000e-06	8.197390e-06	1.066186e-08	5.543787e+01	6.991214e+02
1.790000e-06	8.158551e-06	1.071505e-08	5.517521e+01	6.986027e+02
1.800000e-06	8.117757e-06	1.067781e-08	5.489932e+01	6.978107e+02
1.810000e-06	8.074593e-06	1.055866e-08	5.460741e+01	6.966857e+02
1.820000e-06	8.028409e-06	1.066266e-08	5.429508e+01	6.952742e+02
1.830000e-06	7.979375e-06	1.056824e-08	5.396347e+01	6.937000e+02
1.840000e-06	7.927102e-06	1.057027e-08	5.360995e+01	6.921032e+02
1.850000e-06	7.871617e-06	1.060131e-08	5.323471e+01	6.905752e+02
1.860000e-06	7.813448e-06	1.050793e-08	5.284132e+01	6.891193e+02
1.870000e-06	7.752405e-06	1.059717e-08	5.242850e+01	6.876541e+02
1.880000e-06	7.688614e-06	1.043784e-08	5.199709e+01	6.860576e+02
1.890000e-06	7.621980e-06	1.043184e-08	5.154645e+01	6.842294e+02
1.900000e-06	7.552454e-06	1.039613e-08	5.107625e+01	6.821432e+02
1.910000e-06	7.480000e-06	1.034173e-08	5.058626e+01	6.798639e+02
1.920000e-06	7.404544e-06	1.040919e-08	5.007596e+01	6.775197e+02
1.930000e-06	7.326389e-06	1.029593e-08	4.954741e+01	6.752428e+02
1.940000e-06	7.245617e-06	1.034189e-08	4.900116e+01	6.731047e+02
1.950000e-06	7.162355e-06	1.024142e-08	4.843807e+01	6.710764e+02
1.960000e-06	7.076431e-06	1.020111e-08	4.785697e+01	6.690338e+02
1.970000e-06	6.987849e-06	1.016950e-08	4.725790e+01	6.668061e+02
1.980000e-06	6.896887e-06	1.008019e-08	4.664274e+01	6.642499e+02
1.990000e-06	6.803475e-06	1.011550e-08	4.601101e+01	6.613129e+02
2.000000e-06	6.707685e-06	1.005156e-08	4.536319e+01	6.580609e+02
2.010000e-06	6.609578e-06	1.004930e-08	4.469971e+01	6.546530e+02
2.020000e-06	6.509123e-06	9.948131e-09	4.402034e+01	6.512745e+02
2.030000e-06	6.406195e-06	9.891205e-09	4.332426e+01	6.480560e+02
2.040000e-06	6.301003e-06	9.828913e-09	4.261286e+01	6.450136e+02
2.050000e-06	6.193621e-06	9.784150e-09	4.188665e+01	6.420380e+02
2.060000e-06	6.083994e-06	9.752012e-09	4.114525e+01	6.389378e+02
2.070000e-06	5.972169e-06	9.693232e-09	4.038899e+01	6.355200e+02
2.080000e-06	5.858001e-06	9.658794e-09	3.961689e+01	6.316723e+02
2.090000e-06	5.741508e-06	9.585024e-09	3.882907e+01	6.274126e+02
2.100000e-06	5.622737e-06	9.517787e-09	3.802583e+01	6.228808e+02
2.110000e-06	5.501878e-06	9.422652e-09	3.720848e+01	6.182773e+02
2.120000e-06	5.379060e-06	9.366156e-09	3.637787e+01	6.137731e+02
2.130000e-06	5.254344e-06	9.293559e-09	3.553444e+01	6.094312e+02
2.140000e-06	5.127737e-06	9.244453e-09	3.467821e+01	6.051745e+02
2.150000e-06	4.999296e-06	9.168242e-09	3.380958e+01	6.008146e+02
2.160000e-06	4.869095e-06	9.094477e-09	3.292905e+01	5.961321e+02
2.170000e-06	4.737142e-06	9.013995e-09	3.203667e+01	5.909718e+02
2.180000e-06	4.603533e-06	8.926709e-09	3.113309e+01	5.853115e+02
2.190000e-06	4.468307e-06	8.840303e-09	3.021857e+01	5.792729e+02
2.200000e-06	4.331426e-06	8.747317e-09	2.929286e+01	5.730678e+02
2.210000e-06	4.192802e-06	8.667076e-09	2.835537e+01	5.669015e+02
2.220000e-06	4.052525e-06	8.572329e-09	2.740669e+01	5.608760e+02
2.230000e-06	3.910805e-06	8.475930e-09	2.644826e+01	5.549363e+02
2.240000e-06	3.767717e-06	8.367175e-09	2.548057e+01	5.488853e+02
2.250000e-06	3.623265e-06	8.266610e-09	2.450367e+01	5.424638e+02
2.260000e-06	3.477556e-06	8.160869e-09	2.351825e+01	5.354611e+02
2.270000e-06	3.330564e-06	8.053544e-09	2.252417e+01	5.278078e+02
2.280000e-06	3.182311e-06	7.936421e-09	2.152155e+01	5.196076e+02
2.290000e-06	3.032949e-06	7.817789e-09	2.051143e+01	5.110906e+02
2.300000e-06	2.882632e-06	7.692101e-09	1.949486e+01	5.025063e+02
2.310000e-06	2.731371e-06	7.560125e-09	1.847191e+01	4.940011e+02
2.320000e-06	2.579098e-06	7.419579e-09	1.744210e+01	4.855361e+02
2.330000e-06	2.425876e-06	7.276310e-09	1.640588e+01	4.768852e+02
2.340000e-06	2.271767e-06	7.134336e-09	1.536366e+01	4.677190e+02
2.350000e-06	2.116691e-06	6.985457e-09	1.431490e+01	4.577412e+02
2.360000e-06	1.960749e-06	6.826509e-09	1.326029e+01	4.468186e+02
2.370000e-06	1.804135e-06	6.654501e-09	1.220113e+01	4.350424e+02
2.380000e-06	1.646908e-06	6.475898e-09	1.113782e+01	4.226891e+02
2.390000e-06	1.489137e-06	6.291372e-09	1.007084e+01	4.100879e+02
2.400000e-06	1.330828e-06	6.098499e-09	9.000212e+00	3.974488e+02
2.410000e-06	1.172079e-06	5.890794e-09	7.926614e+00	3.847266e+02
2.420000e-06	1.012994e-06	5.673608e-09	6.850743e+00	3.715881e+02
2.430000e-06	8.535901e-07	5.448427e-09	5.772717e+00	3.575078e+02
2.440000e-06	6.938290e-07	5.210811e-09	4.692274e+00	3.419621e+02
2.450000e-06	5.338222e-07	4.955798e-09	3.610169e+00	3.246434e+02
2.460000e-06	3.737049e-07	4.684030e-09	2.527317e+00	3.055936e+02
2.470000e-06	2.134533e-07	4.396864e-09	1.443557e+00	2.851813e+02
2.480000e-06	5.314611e-08	4.087232e-09	3.594202e-01	2.639023e+02
2.490000e-06	-1.071540e-07	3.744966e-09	-7.246681e-01	2.420598e+02
2.500000e-06	-2.673879e-07	3.368100e-09	-1.808309e+00	2.194404e+02
2.510000e-06	-4.274359e-07	2.962937e-09	-2.890693e+00	1.951266e+02
2.520000e-06	-5.873068e-07	2.525045e-09	-3.971879e+00	1.675511e+02
2.530000e-06	-7.470191e-07	2.035682e-09	-5.051992e+00	1.348248e+02
2.540000e-06	-9.064899e-07	1.471944e-09	-6.130472e+00	9.527009e+01
2.550000e-06	-1.065666e-06	8.087240e-10	-7.206961e+00	4.800850e+01
2.560000e-06	-1.224523e-06	1.683271e-11	-8.281285e+00	-6.587278e+00
2.570000e-06	-1.382938e-06	-9.142621e-10	-9.352629e+00	-6.673700e+01
2.580000e-06	-1.540862e-06	-1.937125e-09	-1.042065e+01	-1.294698e+02
2.590000e-06	-1.698281e-06	-2.946553e-09	-1.148525e+01	-1.911755e+02
2.600000e-06	-1.855102e-06	-3.835828e-09	-1.254581e+01	-2.483431e+02
2.610000e-06	-2.011216e-06	-4.563470e-09	-1.360159e+01	-2.982796e+02
2.620000e-06	-2.166529e-06	-5.147184e-09	-1.465195e+01	-3.396049e+02
2.630000e-06	-2.321004e-06	-5.622194e-09	-1.569665e+01	-3.723927e+02
2.640000e-06	-2.474605e-06	-6.020276e-09	-1.673543e+01	-3.979373e+02
2.650000e-06	-2.627224e-06	-6.362238e-09	-1.776757e+01	-4.182427e+02
2.660000e-06	-2.778826e-06	-6.661281e-09	-1.879283e+01	-4.354062e+02
2.670000e-06	-2.929448e-06	-6.924871e-09	-1.981147e+01	-4.510897e+02
2.680000e-06	-3.079085e-06	-7.161160e-09	-2.082345e+01	-4.662211e+02
2.690000e-06	-3.227674e-06	-7.376855e-09	-2.182833e+01	-4.809823e+02
2.700000e-06	-3.375080e-06	-7.571585e-09	-2.282522e+01	-4.950368e+02
2.710000e-06	-3.521279e-06	-7.748743e-09	-2.381395e+01	-5.078794e+02
2.720000e-06	-3.666197e-06	-7.912085e-09	-2.479401e+01	-5.191626e+02
2.730000e-06	-3.809693e-06	-8.063251e-09	-2.576446e+01	-5.288858e+02
2.740000e-06	-3.951849e-06	-8.206112e-09	-2.672584e+01	-5.373985e+02
2.750000e-06	-4.092636e-06	-8.342288e-09	-2.767796e+01	-5.452474e+02
2.760000e-06	-4.231844e-06	-8.472059e-09	-2.861941e+01	-5.529516e+02
2.770000e-06	-4.369393e-06	-8.593143e-09	-2.954963e+01	-5.608084e+02
2.780000e-06	-4.505272e-06	-8.706658e-09	-3.046856e+01	-5.688103e+02
2.790000e-06	-4.639557e-06	-8.814885e-09	-3.137671e+01	-5.766939e+02
2.800000e-06	-4.772240e-06	-8.916219e-09	-3.227403e+01	-5.840920e+02
2.810000e-06	-4.903187e-06	-9.007799e-09	-3.315961e+01	-5.907141e+02
2.820000e-06	-5.032378e-06	-9.093774e-09	-3.403331e+01	-5.964780e+02
2.830000e-06	-5.159791e-06	-9.181075e-09	-3.489499e+01	-6.015421e+02
2.840000e-06	-5.285425e-06	-9.267900e-09	-3.574463e+01	-6.062310e+02
2.850000e-06	-5.409209e-06	-9.350986e-09	-3.658177e+01	-6.108950e+02
2.860000e-06	-5.530993e-06	-9.429287e-09	-3.740538e+01	-6.157674e+02
2.870000e-06	-5.650699e-06	-9.504541e-09	-3.821494e+01	-6.208803e+02
2.880000e-06	-5.768324e-06	-9.576978e-09	-3.901042e+01	-6.260709e+02
2.890000e-06	-5.883762e-06	-9.645001e-09	-3.979111e+01	-6.310704e+02
2.900000e-06	-5.996804e-06	-9.706072e-09	-4.055560e+01	-6.356316e+02
2.910000e-06	-6.107443e-06	-9.763480e-09	-4.130384e+01	-6.396388e+02
2.920000e-06	-6.215838e-06	-9.824733e-09	-4.203690e+01	-6.431532e+02
2.930000e-06	-6.322158e-06	-9.887623e-09	-4.275592e+01	-6.463791e+02
2.940000e-06	-6.426283e-06	-9.945135e-09	-4.346011e+01	-6.495677e+02
