# Temperatura_=_47.93
# Concentracion g/m^3_=_13400.0
# C_Vs_to_Am_M_A/Vsm_=_65563218390.804596
# pendiente_HvsI_1/m_=_3716.3
# ordenada_HvsI_A/m_=_1297.0
# frecuencia_Hz_=_301397.9790082613

Tiempo_(s)	Campo_(V.s)	Magnetizacion_(V.s)	Campo_(kA/m)	Magnetizacion_(A/m)
0.000000e+00	-8.398291e-06	-1.109689e-08	-5.692288e+01	-7.275226e+02
1.000000e-08	-8.394150e-06	-1.108923e-08	-5.689482e+01	-7.274651e+02
2.000000e-08	-8.387323e-06	-1.108214e-08	-5.684854e+01	-7.275286e+02
3.000000e-08	-8.377790e-06	-1.107848e-08	-5.678393e+01	-7.275594e+02
4.000000e-08	-8.365298e-06	-1.107430e-08	-5.669926e+01	-7.273844e+02
5.000000e-08	-8.349734e-06	-1.106652e-08	-5.659377e+01	-7.268871e+02
6.000000e-08	-8.331329e-06	-1.105161e-08	-5.646902e+01	-7.260577e+02
7.000000e-08	-8.310408e-06	-1.103640e-08	-5.632722e+01	-7.249980e+02
8.000000e-08	-8.286714e-06	-1.105644e-08	-5.616663e+01	-7.238781e+02
9.000000e-08	-8.259732e-06	-1.107062e-08	-5.598374e+01	-7.228649e+02
1.000000e-07	-8.229447e-06	-1.105627e-08	-5.577848e+01	-7.220528e+02
1.100000e-07	-8.196097e-06	-1.102097e-08	-5.555243e+01	-7.214263e+02
1.200000e-07	-8.159876e-06	-1.097710e-08	-5.530693e+01	-7.208688e+02
1.300000e-07	-8.121128e-06	-1.093960e-08	-5.504430e+01	-7.202127e+02
1.400000e-07	-8.079973e-06	-1.091511e-08	-5.476536e+01	-7.193085e+02
1.500000e-07	-8.036169e-06	-1.094732e-08	-5.446845e+01	-7.180813e+02
1.600000e-07	-7.989546e-06	-1.090347e-08	-5.415245e+01	-7.165540e+02
1.700000e-07	-7.940034e-06	-1.090032e-08	-5.381686e+01	-7.148262e+02
1.800000e-07	-7.887421e-06	-1.090885e-08	-5.346025e+01	-7.130224e+02
1.900000e-07	-7.831762e-06	-1.082385e-08	-5.308300e+01	-7.112344e+02
2.000000e-07	-7.773338e-06	-1.077997e-08	-5.268700e+01	-7.094823e+02
2.100000e-07	-7.712174e-06	-1.072731e-08	-5.227244e+01	-7.077127e+02
2.200000e-07	-7.648267e-06	-1.072420e-08	-5.183929e+01	-7.058327e+02
2.300000e-07	-7.581543e-06	-1.073915e-08	-5.138704e+01	-7.037613e+02
2.400000e-07	-7.511978e-06	-1.071508e-08	-5.091553e+01	-7.014745e+02
2.500000e-07	-7.439599e-06	-1.067043e-08	-5.042495e+01	-6.990204e+02
2.600000e-07	-7.364329e-06	-1.062608e-08	-4.991478e+01	-6.964987e+02
2.700000e-07	-7.286225e-06	-1.059045e-08	-4.938540e+01	-6.940124e+02
2.800000e-07	-7.205311e-06	-1.051234e-08	-4.883697e+01	-6.916150e+02
2.900000e-07	-7.121767e-06	-1.046714e-08	-4.827071e+01	-6.892795e+02
3.000000e-07	-7.035873e-06	-1.046547e-08	-4.768853e+01	-6.869033e+02
3.100000e-07	-6.947571e-06	-1.044934e-08	-4.709003e+01	-6.843505e+02
3.200000e-07	-6.856746e-06	-1.041759e-08	-4.647443e+01	-6.815110e+02
3.300000e-07	-6.763451e-06	-1.034671e-08	-4.584208e+01	-6.783512e+02
3.400000e-07	-6.667776e-06	-1.027264e-08	-4.519361e+01	-6.749319e+02
3.500000e-07	-6.569706e-06	-1.021743e-08	-4.452890e+01	-6.713833e+02
3.600000e-07	-6.469209e-06	-1.017055e-08	-4.384774e+01	-6.678479e+02
3.700000e-07	-6.366350e-06	-1.011499e-08	-4.315057e+01	-6.644148e+02
3.800000e-07	-6.261226e-06	-1.006898e-08	-4.243804e+01	-6.610762e+02
3.900000e-07	-6.153836e-06	-1.004037e-08	-4.171017e+01	-6.577264e+02
4.000000e-07	-6.044235e-06	-9.988745e-09	-4.096730e+01	-6.542048e+02
4.100000e-07	-5.932425e-06	-9.911818e-09	-4.020946e+01	-6.503653e+02
4.200000e-07	-5.818349e-06	-9.823114e-09	-3.943626e+01	-6.461418e+02
4.300000e-07	-5.702031e-06	-9.754989e-09	-3.864787e+01	-6.415790e+02
4.400000e-07	-5.583487e-06	-9.699251e-09	-3.784439e+01	-6.368142e+02
4.500000e-07	-5.462891e-06	-9.638035e-09	-3.702700e+01	-6.320161e+02
4.600000e-07	-5.340387e-06	-9.568770e-09	-3.619668e+01	-6.273065e+02
4.700000e-07	-5.215937e-06	-9.501044e-09	-3.535317e+01	-6.227008e+02
4.800000e-07	-5.089599e-06	-9.433523e-09	-3.449686e+01	-6.180936e+02
4.900000e-07	-4.961533e-06	-9.348143e-09	-3.362884e+01	-6.132996e+02
5.000000e-07	-4.831714e-06	-9.250177e-09	-3.274893e+01	-6.081316e+02
5.100000e-07	-4.700074e-06	-9.151886e-09	-3.185669e+01	-6.024833e+02
5.200000e-07	-4.566701e-06	-9.070600e-09	-3.095270e+01	-5.963783e+02
5.300000e-07	-4.431733e-06	-8.995709e-09	-3.003790e+01	-5.899627e+02
5.400000e-07	-4.295168e-06	-8.906403e-09	-2.911228e+01	-5.834411e+02
5.500000e-07	-4.156955e-06	-8.802020e-09	-2.817548e+01	-5.769834e+02
5.600000e-07	-4.017104e-06	-8.698535e-09	-2.722758e+01	-5.706421e+02
5.700000e-07	-3.875617e-06	-8.599669e-09	-2.626860e+01	-5.643190e+02
5.800000e-07	-3.732613e-06	-8.491453e-09	-2.529933e+01	-5.577987e+02
5.900000e-07	-3.588242e-06	-8.375025e-09	-2.432079e+01	-5.508362e+02
6.000000e-07	-3.442545e-06	-8.259297e-09	-2.333327e+01	-5.432623e+02
6.100000e-07	-3.295504e-06	-8.149053e-09	-2.233664e+01	-5.350594e+02
6.200000e-07	-3.147334e-06	-8.031874e-09	-2.133235e+01	-5.263716e+02
6.300000e-07	-2.998184e-06	-7.897013e-09	-2.032143e+01	-5.174406e+02
6.400000e-07	-2.848008e-06	-7.751654e-09	-1.930355e+01	-5.084929e+02
6.500000e-07	-2.696850e-06	-7.610144e-09	-1.827902e+01	-4.996258e+02
6.600000e-07	-2.544758e-06	-7.469715e-09	-1.724815e+01	-4.907454e+02
6.700000e-07	-2.391756e-06	-7.319112e-09	-1.621112e+01	-4.815877e+02
6.800000e-07	-2.237867e-06	-7.161212e-09	-1.516806e+01	-4.718193e+02
6.900000e-07	-2.083122e-06	-7.001913e-09	-1.411922e+01	-4.611771e+02
7.000000e-07	-1.927675e-06	-6.841186e-09	-1.306561e+01	-4.495849e+02
7.100000e-07	-1.771644e-06	-6.665457e-09	-1.200805e+01	-4.371924e+02
7.200000e-07	-1.614913e-06	-6.471534e-09	-1.094574e+01	-4.243104e+02
7.300000e-07	-1.457378e-06	-6.270835e-09	-9.877984e+00	-4.112623e+02
7.400000e-07	-1.299187e-06	-6.072590e-09	-8.805777e+00	-3.982135e+02
7.500000e-07	-1.140583e-06	-5.866599e-09	-7.730773e+00	-3.850526e+02
7.600000e-07	-9.816915e-07	-5.640062e-09	-6.653820e+00	-3.713864e+02
7.700000e-07	-8.225306e-07	-5.399921e-09	-5.575041e+00	-3.566627e+02
7.800000e-07	-6.630638e-07	-5.152520e-09	-4.494189e+00	-3.403787e+02
7.900000e-07	-5.033189e-07	-4.892650e-09	-3.411452e+00	-3.222877e+02
8.000000e-07	-3.434314e-07	-4.607260e-09	-2.327748e+00	-3.025080e+02
8.100000e-07	-1.834505e-07	-4.297584e-09	-1.243411e+00	-2.814621e+02
8.200000e-07	-2.338528e-08	-3.969742e-09	-1.585034e-01	-2.596448e+02
8.300000e-07	1.366980e-07	-3.623809e-09	9.265273e-01	-2.372883e+02
8.400000e-07	2.967204e-07	-3.249700e-09	2.011145e+00	-2.140515e+02
8.500000e-07	4.566299e-07	-2.834129e-09	3.094997e+00	-1.888693e+02
8.600000e-07	6.164057e-07	-2.371852e-09	4.177944e+00	-1.600612e+02
8.700000e-07	7.759405e-07	-1.852766e-09	5.259257e+00	-1.257095e+02
8.800000e-07	9.351345e-07	-1.256101e-09	6.338260e+00	-8.422087e+01
8.900000e-07	1.093977e-06	-5.476350e-10	7.414880e+00	-3.490936e+01
9.000000e-07	1.252516e-06	2.973779e-10	8.489442e+00	2.159219e+01
9.100000e-07	1.410723e-06	1.266221e-09	9.561759e+00	8.324064e+01
9.200000e-07	1.568442e-06	2.292507e-09	1.063076e+01	1.468698e+02
9.300000e-07	1.725526e-06	3.275422e-09	1.169546e+01	2.087949e+02
9.400000e-07	1.881894e-06	4.133147e-09	1.275531e+01	2.655711e+02
9.500000e-07	2.037526e-06	4.833310e-09	1.381017e+01	3.146920e+02
9.600000e-07	2.192373e-06	5.391772e-09	1.485971e+01	3.550308e+02
9.700000e-07	2.346407e-06	5.846013e-09	1.590374e+01	3.869123e+02
9.800000e-07	2.499594e-06	6.229532e-09	1.694203e+01	4.118158e+02
9.900000e-07	2.651860e-06	6.560330e-09	1.797408e+01	4.318254e+02
1.000000e-06	2.803176e-06	6.847087e-09	1.899968e+01	4.490097e+02
1.010000e-06	2.953582e-06	7.101486e-09	2.001912e+01	4.649219e+02
1.020000e-06	3.102991e-06	7.334124e-09	2.103180e+01	4.803505e+02
1.030000e-06	3.251214e-06	7.549537e-09	2.203644e+01	4.953585e+02
1.040000e-06	3.398239e-06	7.745243e-09	2.303297e+01	5.095483e+02
1.050000e-06	3.544078e-06	7.921440e-09	2.402145e+01	5.224215e+02
1.060000e-06	3.688673e-06	8.084790e-09	2.500151e+01	5.336906e+02
1.070000e-06	3.831939e-06	8.241125e-09	2.597255e+01	5.434356e+02
1.080000e-06	3.973711e-06	8.389666e-09	2.693347e+01	5.520710e+02
1.090000e-06	4.113844e-06	8.529246e-09	2.788327e+01	5.601672e+02
1.100000e-06	4.252356e-06	8.661834e-09	2.882210e+01	5.682190e+02
1.110000e-06	4.389291e-06	8.788222e-09	2.975023e+01	5.764649e+02
1.120000e-06	4.524663e-06	8.907046e-09	3.066777e+01	5.848291e+02
1.130000e-06	4.658471e-06	9.018313e-09	3.157471e+01	5.929994e+02
1.140000e-06	4.790612e-06	9.124045e-09	3.247035e+01	6.005960e+02
1.150000e-06	4.920984e-06	9.225421e-09	3.335400e+01	6.073551e+02
1.160000e-06	5.049602e-06	9.321038e-09	3.422576e+01	6.132467e+02
1.170000e-06	5.176508e-06	9.409385e-09	3.508592e+01	6.184836e+02
1.180000e-06	5.301635e-06	9.493198e-09	3.593402e+01	6.234245e+02
1.190000e-06	5.424870e-06	9.573125e-09	3.676929e+01	6.284196e+02
1.200000e-06	5.546150e-06	9.650058e-09	3.759132e+01	6.336691e+02
1.210000e-06	5.665383e-06	9.724743e-09	3.839947e+01	6.391523e+02
1.220000e-06	5.782436e-06	9.799507e-09	3.919285e+01	6.446560e+02
1.230000e-06	5.897227e-06	9.873597e-09	3.997089e+01	6.498831e+02
1.240000e-06	6.009818e-06	9.942320e-09	4.073402e+01	6.545911e+02
1.250000e-06	6.120309e-06	1.000479e-08	4.148292e+01	6.587000e+02
1.260000e-06	6.228656e-06	1.006430e-08	4.221728e+01	6.623243e+02
1.270000e-06	6.334757e-06	1.012383e-08	4.293643e+01	6.657183e+02
1.280000e-06	6.438598e-06	1.018129e-08	4.364026e+01	6.691622e+02
1.290000e-06	6.540104e-06	1.023568e-08	4.432826e+01	6.728413e+02
1.300000e-06	6.639167e-06	1.028885e-08	4.499969e+01	6.767682e+02
1.310000e-06	6.735772e-06	1.034314e-08	4.565447e+01	6.807839e+02
1.320000e-06	6.830008e-06	1.039798e-08	4.629320e+01	6.846309e+02
1.330000e-06	6.921871e-06	1.044746e-08	4.691584e+01	6.880680e+02
1.340000e-06	7.011290e-06	1.049104e-08	4.752191e+01	6.909744e+02
1.350000e-06	7.098287e-06	1.053437e-08	4.811157e+01	6.933991e+02
1.360000e-06	7.182894e-06	1.057806e-08	4.868503e+01	6.955369e+02
1.370000e-06	7.264957e-06	1.061686e-08	4.924125e+01	6.976421e+02
1.380000e-06	7.344327e-06	1.064995e-08	4.977921e+01	6.999203e+02
1.390000e-06	7.421017e-06	1.068412e-08	5.029901e+01	7.024435e+02
1.400000e-06	7.494964e-06	1.072391e-08	5.080021e+01	7.051256e+02
1.410000e-06	7.566178e-06	1.076339e-08	5.128290e+01	7.077660e+02
1.420000e-06	7.634675e-06	1.079698e-08	5.174716e+01	7.101408e+02
1.430000e-06	7.700388e-06	1.082747e-08	5.219256e+01	7.121014e+02
1.440000e-06	7.763420e-06	1.085826e-08	5.261978e+01	7.136372e+02
1.450000e-06	7.823844e-06	1.088565e-08	5.302933e+01	7.148768e+02
1.460000e-06	7.881494e-06	1.090597e-08	5.342008e+01	7.160291e+02
1.470000e-06	7.936249e-06	1.092512e-08	5.379121e+01	7.172910e+02
1.480000e-06	7.987881e-06	1.094673e-08	5.414116e+01	7.187624e+02
1.490000e-06	8.036362e-06	1.096932e-08	5.446976e+01	7.204058e+02
1.500000e-06	8.082003e-06	1.099133e-08	5.477911e+01	7.220657e+02
1.510000e-06	8.124754e-06	1.101268e-08	5.506887e+01	7.235395e+02
1.520000e-06	8.164547e-06	1.103414e-08	5.533859e+01	7.246667e+02
1.530000e-06	8.201554e-06	1.105272e-08	5.558942e+01	7.253986e+02
1.540000e-06	8.235732e-06	1.106440e-08	5.582107e+01	7.258180e+02
1.550000e-06	8.267024e-06	1.107074e-08	5.603317e+01	7.261013e+02
1.560000e-06	8.295442e-06	1.107731e-08	5.622578e+01	7.264413e+02
1.570000e-06	8.320837e-06	1.108566e-08	5.639791e+01	7.269643e+02
1.580000e-06	8.343274e-06	1.109512e-08	5.654998e+01	7.276779e+02
1.590000e-06	8.362866e-06	1.110831e-08	5.668278e+01	7.284709e+02
1.600000e-06	8.379466e-06	1.112324e-08	5.679529e+01	7.291651e+02
1.610000e-06	8.392931e-06	1.113054e-08	5.688656e+01	7.295950e+02
1.620000e-06	8.403161e-06	1.112836e-08	5.695590e+01	7.296801e+02
1.630000e-06	8.410327e-06	1.112534e-08	5.700447e+01	7.294596e+02
1.640000e-06	8.414568e-06	1.112646e-08	5.703321e+01	7.290731e+02
1.650000e-06	8.415791e-06	1.112927e-08	5.704150e+01	7.286981e+02
1.660000e-06	8.414190e-06	1.112528e-08	5.703064e+01	7.284723e+02
1.670000e-06	8.409802e-06	1.112274e-08	5.700091e+01	7.284326e+02
1.680000e-06	8.402574e-06	1.112326e-08	5.695192e+01	7.285007e+02
1.690000e-06	8.392509e-06	1.112190e-08	5.688369e+01	7.285169e+02
1.700000e-06	8.379453e-06	1.111743e-08	5.679520e+01	7.283111e+02
1.710000e-06	8.363612e-06	1.111072e-08	5.668783e+01	7.277763e+02
1.720000e-06	8.345339e-06	1.111077e-08	5.656398e+01	7.269153e+02
1.730000e-06	8.324492e-06	1.107715e-08	5.642268e+01	7.258402e+02
1.740000e-06	8.300457e-06	1.103457e-08	5.625977e+01	7.247242e+02
1.750000e-06	8.272594e-06	1.100582e-08	5.607092e+01	7.237295e+02
1.760000e-06	8.240990e-06	1.099699e-08	5.585671e+01	7.229397e+02
1.770000e-06	8.206506e-06	1.101830e-08	5.562298e+01	7.223273e+02
1.780000e-06	8.169544e-06	1.105875e-08	5.537246e+01	7.217672e+02
1.790000e-06	8.130327e-06	1.102968e-08	5.510665e+01	7.210905e+02
1.800000e-06	8.089128e-06	1.096235e-08	5.482741e+01	7.201532e+02
1.810000e-06	8.045317e-06	1.098483e-08	5.453046e+01	7.188909e+02
1.820000e-06	7.998490e-06	1.094211e-08	5.421307e+01	7.173361e+02
1.830000e-06	7.948747e-06	1.093615e-08	5.387591e+01	7.155940e+02
1.840000e-06	7.895697e-06	1.093391e-08	5.351635e+01	7.137883e+02
1.850000e-06	7.839643e-06	1.088519e-08	5.313642e+01	7.120043e+02
1.860000e-06	7.780882e-06	1.091433e-08	5.273814e+01	7.102536e+02
1.870000e-06	7.719215e-06	1.085402e-08	5.232016e+01	7.084766e+02
1.880000e-06	7.654835e-06	1.077661e-08	5.188380e+01	7.065789e+02
1.890000e-06	7.587620e-06	1.071575e-08	5.142823e+01	7.044841e+02
1.900000e-06	7.517516e-06	1.067405e-08	5.095307e+01	7.021755e+02
1.910000e-06	7.444486e-06	1.067986e-08	5.045808e+01	6.997086e+02
1.920000e-06	7.368566e-06	1.066461e-08	4.994350e+01	6.971859e+02
1.930000e-06	7.289902e-06	1.065284e-08	4.941032e+01	6.947076e+02
1.940000e-06	7.208670e-06	1.059569e-08	4.885974e+01	6.923193e+02
1.950000e-06	7.124992e-06	1.054156e-08	4.829257e+01	6.899851e+02
1.960000e-06	7.038636e-06	1.048395e-08	4.770726e+01	6.875962e+02
1.970000e-06	6.949753e-06	1.041306e-08	4.710482e+01	6.850167e+02
1.980000e-06	6.858415e-06	1.037656e-08	4.648574e+01	6.821425e+02
1.990000e-06	6.764597e-06	1.035514e-08	4.584985e+01	6.789501e+02
2.000000e-06	6.668422e-06	1.034124e-08	4.519798e+01	6.755096e+02
2.010000e-06	6.569895e-06	1.029111e-08	4.453018e+01	6.719558e+02
2.020000e-06	6.468970e-06	1.023068e-08	4.384611e+01	6.684282e+02
2.030000e-06	6.365623e-06	1.014933e-08	4.314564e+01	6.650072e+02
2.040000e-06	6.260074e-06	1.008976e-08	4.243024e+01	6.616736e+02
2.050000e-06	6.152336e-06	1.003386e-08	4.170000e+01	6.583132e+02
2.060000e-06	6.042419e-06	9.974988e-09	4.095499e+01	6.547632e+02
2.070000e-06	5.930224e-06	9.927207e-09	4.019454e+01	6.508836e+02
2.080000e-06	5.815673e-06	9.872321e-09	3.941812e+01	6.466193e+02
2.090000e-06	5.698841e-06	9.822914e-09	3.862625e+01	6.420268e+02
2.100000e-06	5.579791e-06	9.739239e-09	3.781933e+01	6.372503e+02
2.110000e-06	5.458720e-06	9.652866e-09	3.699873e+01	6.324571e+02
2.120000e-06	5.335763e-06	9.569721e-09	3.616534e+01	6.277598e+02
2.130000e-06	5.210958e-06	9.503740e-09	3.531942e+01	6.231605e+02
2.140000e-06	5.084247e-06	9.443511e-09	3.446058e+01	6.185427e+02
2.150000e-06	4.955690e-06	9.367273e-09	3.358924e+01	6.137165e+02
2.160000e-06	4.825376e-06	9.288571e-09	3.270598e+01	6.084998e+02
2.170000e-06	4.693350e-06	9.198895e-09	3.181112e+01	6.027987e+02
2.180000e-06	4.559672e-06	9.103882e-09	3.090506e+01	5.966513e+02
2.190000e-06	4.424347e-06	9.005942e-09	2.998784e+01	5.902141e+02
2.200000e-06	4.287291e-06	8.911063e-09	2.905888e+01	5.836924e+02
2.210000e-06	4.148585e-06	8.827593e-09	2.811875e+01	5.772470e+02
2.220000e-06	4.008345e-06	8.740375e-09	2.716822e+01	5.709146e+02
2.230000e-06	3.866634e-06	8.637218e-09	2.620771e+01	5.645818e+02
2.240000e-06	3.723524e-06	8.519760e-09	2.523772e+01	5.580250e+02
2.250000e-06	3.579049e-06	8.394743e-09	2.425848e+01	5.510026e+02
2.260000e-06	3.433291e-06	8.274350e-09	2.327054e+01	5.433588e+02
2.270000e-06	3.286310e-06	8.157634e-09	2.227432e+01	5.350943e+02
2.280000e-06	3.138170e-06	8.043593e-09	2.127024e+01	5.263678e+02
2.290000e-06	2.988916e-06	7.926071e-09	2.025861e+01	5.174253e+02
2.300000e-06	2.838691e-06	7.799911e-09	1.924040e+01	5.084844e+02
2.310000e-06	2.687478e-06	7.660602e-09	1.821549e+01	4.996235e+02
2.320000e-06	2.535160e-06	7.506085e-09	1.718309e+01	4.907280e+02
2.330000e-06	2.381870e-06	7.346353e-09	1.614410e+01	4.815205e+02
2.340000e-06	2.227754e-06	7.186236e-09	1.509952e+01	4.716683e+02
2.350000e-06	2.072844e-06	7.026193e-09	1.404956e+01	4.609236e+02
2.360000e-06	1.917194e-06	6.862855e-09	1.299457e+01	4.492345e+02
2.370000e-06	1.760929e-06	6.692148e-09	1.193542e+01	4.367727e+02
2.380000e-06	1.604069e-06	6.509803e-09	1.087224e+01	4.238585e+02
2.390000e-06	1.446562e-06	6.313371e-09	9.804674e+00	4.108064e+02
2.400000e-06	1.288534e-06	6.103119e-09	8.733574e+00	3.977560e+02
2.410000e-06	1.130131e-06	5.880489e-09	7.659932e+00	3.845637e+02
2.420000e-06	9.714333e-07	5.650239e-09	6.584290e+00	3.708113e+02
2.430000e-06	8.123966e-07	5.413986e-09	5.506353e+00	3.559413e+02
2.440000e-06	6.529479e-07	5.170698e-09	4.425624e+00	3.394690e+02
2.450000e-06	4.931989e-07	4.913190e-09	3.342859e+00	3.211847e+02
2.460000e-06	3.332534e-07	4.634592e-09	2.258762e+00	3.012451e+02
2.470000e-06	1.731179e-07	4.331100e-09	1.173378e+00	2.800942e+02
2.480000e-06	1.288185e-08	3.999772e-09	8.731206e-02	2.582156e+02
2.490000e-06	-1.472942e-07	3.639783e-09	-9.983473e-01	2.357931e+02
2.500000e-06	-3.073649e-07	3.249840e-09	-2.083292e+00	2.124113e+02
2.510000e-06	-4.673132e-07	2.829825e-09	-3.167408e+00	1.869289e+02
2.520000e-06	-6.270904e-07	2.371529e-09	-4.250364e+00	1.576176e+02
2.530000e-06	-7.865202e-07	1.857116e-09	-5.330966e+00	1.225657e+02
2.540000e-06	-9.455097e-07	1.259255e-09	-6.408583e+00	8.025068e+01
2.550000e-06	-1.104137e-06	5.490007e-10	-7.483747e+00	3.011277e+01
2.560000e-06	-1.262416e-06	-2.976823e-10	-8.556542e+00	-2.706179e+01
2.570000e-06	-1.420271e-06	-1.275891e-09	-9.626472e+00	-8.908928e+01
2.580000e-06	-1.577621e-06	-2.317910e-09	-1.069298e+01	-1.527147e+02
2.590000e-06	-1.734406e-06	-3.313799e-09	-1.175565e+01	-2.142418e+02
2.600000e-06	-1.890548e-06	-4.170766e-09	-1.281397e+01	-2.702962e+02
2.610000e-06	-2.046001e-06	-4.864947e-09	-1.386762e+01	-3.185039e+02
2.620000e-06	-2.200643e-06	-5.424395e-09	-1.491577e+01	-3.578973e+02
2.630000e-06	-2.354439e-06	-5.884537e-09	-1.595818e+01	-3.889449e+02
2.640000e-06	-2.507489e-06	-6.271774e-09	-1.699554e+01	-4.132199e+02
2.650000e-06	-2.659701e-06	-6.602887e-09	-1.802722e+01	-4.328337e+02
2.660000e-06	-2.810868e-06	-6.893134e-09	-1.905182e+01	-4.498202e+02
2.670000e-06	-2.960886e-06	-7.153724e-09	-2.006863e+01	-4.656573e+02
2.680000e-06	-3.109797e-06	-7.390691e-09	-2.107794e+01	-4.810490e+02
2.690000e-06	-3.257687e-06	-7.607561e-09	-2.208032e+01	-4.959936e+02
2.700000e-06	-3.404430e-06	-7.804495e-09	-2.307493e+01	-5.100649e+02
2.710000e-06	-3.549965e-06	-7.982689e-09	-2.406135e+01	-5.227744e+02
2.720000e-06	-3.694303e-06	-8.146375e-09	-2.503966e+01	-5.338699e+02
2.730000e-06	-3.837213e-06	-8.296647e-09	-2.600830e+01	-5.434718e+02
2.740000e-06	-3.978626e-06	-8.436757e-09	-2.696678e+01	-5.520219e+02
2.750000e-06	-4.118572e-06	-8.574299e-09	-2.791532e+01	-5.600934e+02
2.760000e-06	-4.256956e-06	-8.708437e-09	-2.885328e+01	-5.681604e+02
2.770000e-06	-4.393825e-06	-8.833402e-09	-2.978096e+01	-5.764281e+02
2.780000e-06	-4.529144e-06	-8.949038e-09	-3.069815e+01	-5.847896e+02
2.790000e-06	-4.662746e-06	-9.060249e-09	-3.160369e+01	-5.929162e+02
2.800000e-06	-4.794655e-06	-9.166474e-09	-3.249776e+01	-6.004326e+02
2.810000e-06	-4.924875e-06	-9.263275e-09	-3.338037e+01	-6.070958e+02
2.820000e-06	-5.053346e-06	-9.351664e-09	-3.425114e+01	-6.129037e+02
2.830000e-06	-5.179997e-06	-9.437456e-09	-3.510957e+01	-6.180908e+02
2.840000e-06	-5.304797e-06	-9.525408e-09	-3.595545e+01	-6.230227e+02
2.850000e-06	-5.427757e-06	-9.614586e-09	-3.678887e+01	-6.280394e+02
2.860000e-06	-5.548831e-06	-9.697363e-09	-3.760949e+01	-6.333192e+02
2.870000e-06	-5.667812e-06	-9.773947e-09	-3.841594e+01	-6.388177e+02
2.880000e-06	-5.784570e-06	-9.851258e-09	-3.920731e+01	-6.443065e+02
2.890000e-06	-5.899036e-06	-9.927437e-09	-3.998315e+01	-6.494877e+02
2.900000e-06	-6.011080e-06	-9.995186e-09	-4.074257e+01	-6.541321e+02
2.910000e-06	-6.120852e-06	-1.005520e-08	-4.148660e+01	-6.581808e+02
2.920000e-06	-6.228567e-06	-1.011568e-08	-4.221668e+01	-6.617670e+02
2.930000e-06	-6.334209e-06	-1.017751e-08	-4.293271e+01	-6.651539e+02
2.940000e-06	-6.437583e-06	-1.023623e-08	-4.363338e+01	-6.686172e+02
