# Temperatura_=_41.81
# Concentracion g/m^3_=_13400.0
# C_Vs_to_Am_M_A/Vsm_=_65563218390.804596
# pendiente_HvsI_1/m_=_3716.3
# ordenada_HvsI_A/m_=_1297.0
# frecuencia_Hz_=_301404.0436839326

Tiempo_(s)	Campo_(V.s)	Magnetizacion_(V.s)	Campo_(kA/m)	Magnetizacion_(A/m)
0.000000e+00	-8.410405e-06	-1.059410e-08	-5.692533e+01	-6.950326e+02
1.000000e-08	-8.406851e-06	-1.059492e-08	-5.690128e+01	-6.950094e+02
2.000000e-08	-8.400594e-06	-1.059462e-08	-5.685893e+01	-6.951409e+02
3.000000e-08	-8.391621e-06	-1.059029e-08	-5.679820e+01	-6.952883e+02
4.000000e-08	-8.379695e-06	-1.058492e-08	-5.671748e+01	-6.952788e+02
5.000000e-08	-8.364707e-06	-1.057860e-08	-5.661603e+01	-6.949804e+02
6.000000e-08	-8.346774e-06	-1.057136e-08	-5.649466e+01	-6.943585e+02
7.000000e-08	-8.326287e-06	-1.056289e-08	-5.635599e+01	-6.934901e+02
8.000000e-08	-8.303192e-06	-1.055041e-08	-5.619967e+01	-6.925315e+02
9.000000e-08	-8.276825e-06	-1.057525e-08	-5.602121e+01	-6.916512e+02
1.000000e-07	-8.247077e-06	-1.059259e-08	-5.581986e+01	-6.909595e+02
1.100000e-07	-8.214232e-06	-1.055296e-08	-5.559755e+01	-6.904636e+02
1.200000e-07	-8.178428e-06	-1.050143e-08	-5.535522e+01	-6.900670e+02
1.300000e-07	-8.140014e-06	-1.048080e-08	-5.509521e+01	-6.896115e+02
1.400000e-07	-8.099297e-06	-1.048759e-08	-5.481962e+01	-6.889436e+02
1.500000e-07	-8.056016e-06	-1.045737e-08	-5.452668e+01	-6.879755e+02
1.600000e-07	-8.009841e-06	-1.046071e-08	-5.421414e+01	-6.867151e+02
1.700000e-07	-7.960826e-06	-1.046249e-08	-5.388239e+01	-6.852532e+02
1.800000e-07	-7.908801e-06	-1.043025e-08	-5.353026e+01	-6.837162e+02
1.900000e-07	-7.853709e-06	-1.042048e-08	-5.315737e+01	-6.822057e+02
2.000000e-07	-7.795755e-06	-1.035040e-08	-5.276511e+01	-6.807535e+02
2.100000e-07	-7.734975e-06	-1.031704e-08	-5.235373e+01	-6.793119e+02
2.200000e-07	-7.671482e-06	-1.031138e-08	-5.192398e+01	-6.777813e+02
2.300000e-07	-7.605218e-06	-1.030561e-08	-5.147547e+01	-6.760628e+02
2.400000e-07	-7.536096e-06	-1.030117e-08	-5.100763e+01	-6.741086e+02
2.500000e-07	-7.464197e-06	-1.023216e-08	-5.052098e+01	-6.719487e+02
2.600000e-07	-7.389445e-06	-1.021026e-08	-5.001503e+01	-6.696782e+02
2.700000e-07	-7.311798e-06	-1.018255e-08	-4.948948e+01	-6.674129e+02
2.800000e-07	-7.231272e-06	-1.013858e-08	-4.894444e+01	-6.652325e+02
2.900000e-07	-7.148076e-06	-1.009042e-08	-4.838134e+01	-6.631384e+02
3.000000e-07	-7.062538e-06	-1.006668e-08	-4.780238e+01	-6.610467e+02
3.100000e-07	-6.974651e-06	-1.006883e-08	-4.720752e+01	-6.588206e+02
3.200000e-07	-6.884238e-06	-1.001559e-08	-4.659556e+01	-6.563292e+02
3.300000e-07	-6.791333e-06	-9.962632e-09	-4.596674e+01	-6.535063e+02
3.400000e-07	-6.696077e-06	-9.893568e-09	-4.532201e+01	-6.503824e+02
3.500000e-07	-6.598387e-06	-9.851720e-09	-4.466080e+01	-6.470744e+02
3.600000e-07	-6.498219e-06	-9.820077e-09	-4.398282e+01	-6.437362e+02
3.700000e-07	-6.395720e-06	-9.771628e-09	-4.328906e+01	-6.404907e+02
3.800000e-07	-6.290950e-06	-9.722761e-09	-4.257993e+01	-6.373740e+02
3.900000e-07	-6.183891e-06	-9.675210e-09	-4.185531e+01	-6.343158e+02
4.000000e-07	-6.074605e-06	-9.634782e-09	-4.111561e+01	-6.311672e+02
4.100000e-07	-5.963109e-06	-9.561195e-09	-4.036095e+01	-6.277636e+02
4.200000e-07	-5.849329e-06	-9.489054e-09	-3.959084e+01	-6.239957e+02
4.300000e-07	-5.733258e-06	-9.430657e-09	-3.880522e+01	-6.198579e+02
4.400000e-07	-5.614946e-06	-9.388736e-09	-3.800444e+01	-6.154502e+02
4.500000e-07	-5.494536e-06	-9.335035e-09	-3.718945e+01	-6.109336e+02
4.600000e-07	-5.372208e-06	-9.262026e-09	-3.636148e+01	-6.064569e+02
4.700000e-07	-5.247941e-06	-9.183640e-09	-3.552038e+01	-6.020866e+02
4.800000e-07	-5.121794e-06	-9.112893e-09	-3.466657e+01	-5.977729e+02
4.900000e-07	-4.993830e-06	-9.043285e-09	-3.380045e+01	-5.933674e+02
5.000000e-07	-4.864086e-06	-8.961196e-09	-3.292228e+01	-5.886847e+02
5.100000e-07	-4.732576e-06	-8.877459e-09	-3.203216e+01	-5.835840e+02
5.200000e-07	-4.599290e-06	-8.799839e-09	-3.113003e+01	-5.780316e+02
5.300000e-07	-4.464370e-06	-8.729067e-09	-3.021683e+01	-5.721164e+02
5.400000e-07	-4.327783e-06	-8.641004e-09	-2.929234e+01	-5.660109e+02
5.500000e-07	-4.189587e-06	-8.537681e-09	-2.835697e+01	-5.598914e+02
5.600000e-07	-4.049851e-06	-8.436572e-09	-2.741118e+01	-5.538542e+02
5.700000e-07	-3.908392e-06	-8.348569e-09	-2.645372e+01	-5.478649e+02
5.800000e-07	-3.765344e-06	-8.257009e-09	-2.548551e+01	-5.417655e+02
5.900000e-07	-3.620982e-06	-8.151315e-09	-2.450841e+01	-5.353384e+02
6.000000e-07	-3.475350e-06	-8.039113e-09	-2.352270e+01	-5.284007e+02
6.100000e-07	-3.328456e-06	-7.928139e-09	-2.252846e+01	-5.208857e+02
6.200000e-07	-3.180385e-06	-7.816782e-09	-2.152625e+01	-5.128747e+02
6.300000e-07	-3.031264e-06	-7.693194e-09	-2.051693e+01	-5.045602e+02
6.400000e-07	-2.881103e-06	-7.562653e-09	-1.950058e+01	-4.961550e+02
6.500000e-07	-2.729884e-06	-7.434027e-09	-1.847706e+01	-4.877848e+02
6.600000e-07	-2.577607e-06	-7.305733e-09	-1.744638e+01	-4.794133e+02
6.700000e-07	-2.424385e-06	-7.166715e-09	-1.640931e+01	-4.708375e+02
6.800000e-07	-2.270288e-06	-7.014713e-09	-1.536631e+01	-4.617599e+02
6.900000e-07	-2.115398e-06	-6.858368e-09	-1.431795e+01	-4.519089e+02
7.000000e-07	-1.959810e-06	-6.701587e-09	-1.326486e+01	-4.411574e+02
7.100000e-07	-1.803578e-06	-6.538222e-09	-1.220741e+01	-4.295819e+02
7.200000e-07	-1.646705e-06	-6.361948e-09	-1.114563e+01	-4.174303e+02
7.300000e-07	-1.489140e-06	-6.177115e-09	-1.007916e+01	-4.050041e+02
7.400000e-07	-1.330967e-06	-5.989521e-09	-9.008571e+00	-3.925014e+02
7.500000e-07	-1.172322e-06	-5.794481e-09	-7.934794e+00	-3.798892e+02
7.600000e-07	-1.013288e-06	-5.579839e-09	-6.858382e+00	-3.668667e+02
7.700000e-07	-8.539271e-07	-5.347420e-09	-5.779756e+00	-3.529483e+02
7.800000e-07	-6.942626e-07	-5.105942e-09	-4.699076e+00	-3.376400e+02
7.900000e-07	-5.343119e-07	-4.855784e-09	-3.616459e+00	-3.206392e+02
8.000000e-07	-3.741910e-07	-4.588619e-09	-2.532690e+00	-3.019650e+02
8.100000e-07	-2.139660e-07	-4.300573e-09	-1.448217e+00	-2.819465e+02
8.200000e-07	-5.363581e-08	-3.994240e-09	-3.630309e-01	-2.610435e+02
8.300000e-07	1.067302e-07	-3.666330e-09	7.223974e-01	-2.395505e+02
8.400000e-07	2.670091e-07	-3.309983e-09	1.807236e+00	-2.172879e+02
8.500000e-07	4.271773e-07	-2.916127e-09	2.891324e+00	-1.934123e+02
8.600000e-07	5.872128e-07	-2.478600e-09	3.974516e+00	-1.664510e+02
8.700000e-07	7.470598e-07	-1.987329e-09	5.056431e+00	-1.345969e+02
8.800000e-07	9.066321e-07	-1.425890e-09	6.136487e+00	-9.620583e+01
8.900000e-07	1.065840e-06	-7.685062e-10	7.214077e+00	-5.035959e+01
9.000000e-07	1.224676e-06	1.173786e-11	8.289151e+00	2.684360e+00
9.100000e-07	1.383075e-06	9.177294e-10	9.361262e+00	6.131504e+01
9.200000e-07	1.540940e-06	1.903055e-09	1.042976e+01	1.227438e+02
9.300000e-07	1.698200e-06	2.874904e-09	1.149417e+01	1.835079e+02
9.400000e-07	1.854813e-06	3.743682e-09	1.255419e+01	2.401701e+02
9.500000e-07	2.010748e-06	4.466336e-09	1.360963e+01	2.900202e+02
9.600000e-07	2.165933e-06	5.048522e-09	1.465999e+01	3.315786e+02
9.700000e-07	2.320342e-06	5.520696e-09	1.570510e+01	3.647700e+02
9.800000e-07	2.474014e-06	5.912073e-09	1.674522e+01	3.907348e+02
9.900000e-07	2.626820e-06	6.244030e-09	1.777948e+01	4.113590e+02
1.000000e-06	2.778638e-06	6.531557e-09	1.880705e+01	4.286843e+02
1.010000e-06	2.929434e-06	6.784568e-09	1.982770e+01	4.443821e+02
1.020000e-06	3.079132e-06	7.014004e-09	2.084093e+01	4.594370e+02
1.030000e-06	3.227652e-06	7.227409e-09	2.184617e+01	4.741048e+02
1.040000e-06	3.374982e-06	7.425766e-09	2.284337e+01	4.881091e+02
1.050000e-06	3.521189e-06	7.607775e-09	2.383297e+01	5.009711e+02
1.060000e-06	3.666204e-06	7.772359e-09	2.481449e+01	5.123318e+02
1.070000e-06	3.809935e-06	7.922865e-09	2.578732e+01	5.221532e+02
1.080000e-06	3.952193e-06	8.063735e-09	2.675019e+01	5.307413e+02
1.090000e-06	4.092874e-06	8.196372e-09	2.770238e+01	5.386131e+02
1.100000e-06	4.232038e-06	8.324740e-09	2.864430e+01	5.462825e+02
1.110000e-06	4.369591e-06	8.447524e-09	2.957532e+01	5.540669e+02
1.120000e-06	4.505481e-06	8.562713e-09	3.049509e+01	5.619913e+02
1.130000e-06	4.639720e-06	8.673048e-09	3.140368e+01	5.698229e+02
1.140000e-06	4.772284e-06	8.781359e-09	3.230093e+01	5.772098e+02
1.150000e-06	4.903155e-06	8.881531e-09	3.318672e+01	5.838564e+02
1.160000e-06	5.032297e-06	8.967983e-09	3.406081e+01	5.896599e+02
1.170000e-06	5.159655e-06	9.047799e-09	3.492282e+01	5.947525e+02
1.180000e-06	5.285210e-06	9.127306e-09	3.577264e+01	5.994404e+02
1.190000e-06	5.408952e-06	9.206523e-09	3.661017e+01	6.040703e+02
1.200000e-06	5.530798e-06	9.281895e-09	3.743489e+01	6.088874e+02
1.210000e-06	5.650591e-06	9.353463e-09	3.824570e+01	6.139445e+02
1.220000e-06	5.768240e-06	9.423262e-09	3.904200e+01	6.190979e+02
1.230000e-06	5.883687e-06	9.492212e-09	3.982339e+01	6.240875e+02
1.240000e-06	5.996880e-06	9.557630e-09	4.058953e+01	6.286610e+02
1.250000e-06	6.107879e-06	9.616370e-09	4.134082e+01	6.326871e+02
1.260000e-06	6.216744e-06	9.672082e-09	4.207767e+01	6.362097e+02
1.270000e-06	6.323440e-06	9.729489e-09	4.279984e+01	6.394221e+02
1.280000e-06	6.427855e-06	9.786018e-09	4.350656e+01	6.425774e+02
1.290000e-06	6.529945e-06	9.838519e-09	4.419755e+01	6.458753e+02
1.300000e-06	6.629671e-06	9.888310e-09	4.487254e+01	6.493775e+02
1.310000e-06	6.726918e-06	9.936308e-09	4.553075e+01	6.529854e+02
1.320000e-06	6.821732e-06	9.983384e-09	4.617250e+01	6.564892e+02
1.330000e-06	6.914197e-06	1.002771e-08	4.679834e+01	6.596643e+02
1.340000e-06	7.004276e-06	1.006918e-08	4.740804e+01	6.623706e+02
1.350000e-06	7.091912e-06	1.011088e-08	4.800119e+01	6.646138e+02
1.360000e-06	7.177098e-06	1.015186e-08	4.857777e+01	6.665407e+02
1.370000e-06	7.259804e-06	1.018668e-08	4.913756e+01	6.683747e+02
1.380000e-06	7.339897e-06	1.021590e-08	4.967967e+01	6.703197e+02
1.390000e-06	7.417267e-06	1.024630e-08	5.020334e+01	6.724752e+02
1.400000e-06	7.491847e-06	1.027867e-08	5.070813e+01	6.747992e+02
1.410000e-06	7.563667e-06	1.030798e-08	5.119424e+01	6.771329e+02
1.420000e-06	7.632788e-06	1.033504e-08	5.166208e+01	6.792755e+02
1.430000e-06	7.699113e-06	1.036566e-08	5.211100e+01	6.810745e+02
1.440000e-06	7.762698e-06	1.039690e-08	5.254137e+01	6.824921e+02
1.450000e-06	7.823707e-06	1.042056e-08	5.295430e+01	6.836197e+02
1.460000e-06	7.882022e-06	1.043686e-08	5.334900e+01	6.846350e+02
1.470000e-06	7.937460e-06	1.045295e-08	5.372423e+01	6.857223e+02
1.480000e-06	7.989788e-06	1.047053e-08	5.407842e+01	6.869914e+02
1.490000e-06	8.038895e-06	1.048938e-08	5.441079e+01	6.884304e+02
1.500000e-06	8.085058e-06	1.050829e-08	5.472324e+01	6.899133e+02
1.510000e-06	8.128383e-06	1.052595e-08	5.501649e+01	6.912571e+02
1.520000e-06	8.168775e-06	1.054216e-08	5.528988e+01	6.923036e+02
1.530000e-06	8.206371e-06	1.055784e-08	5.554434e+01	6.929889e+02
1.540000e-06	8.241120e-06	1.057090e-08	5.577954e+01	6.933718e+02
1.550000e-06	8.272928e-06	1.057693e-08	5.599483e+01	6.936072e+02
1.560000e-06	8.301946e-06	1.058014e-08	5.619124e+01	6.938789e+02
1.570000e-06	8.327993e-06	1.058583e-08	5.636754e+01	6.943203e+02
1.580000e-06	8.351001e-06	1.059516e-08	5.652326e+01	6.949577e+02
1.590000e-06	8.371208e-06	1.060656e-08	5.666003e+01	6.957011e+02
1.600000e-06	8.388507e-06	1.061584e-08	5.677712e+01	6.963858e+02
1.610000e-06	8.402637e-06	1.062124e-08	5.687276e+01	6.968457e+02
1.620000e-06	8.413429e-06	1.062555e-08	5.694580e+01	6.969863e+02
1.630000e-06	8.421047e-06	1.063002e-08	5.699736e+01	6.968261e+02
1.640000e-06	8.425800e-06	1.063015e-08	5.702954e+01	6.964875e+02
1.650000e-06	8.427568e-06	1.062420e-08	5.704150e+01	6.961434e+02
1.660000e-06	8.426417e-06	1.062001e-08	5.703371e+01	6.959409e+02
1.670000e-06	8.422580e-06	1.061852e-08	5.700774e+01	6.959382e+02
1.680000e-06	8.415959e-06	1.062016e-08	5.696293e+01	6.960789e+02
1.690000e-06	8.406509e-06	1.061748e-08	5.689896e+01	6.962174e+02
1.700000e-06	8.394075e-06	1.061232e-08	5.681481e+01	6.961816e+02
1.710000e-06	8.378764e-06	1.060861e-08	5.671118e+01	6.958480e+02
1.720000e-06	8.360975e-06	1.060557e-08	5.659077e+01	6.951938e+02
1.730000e-06	8.340642e-06	1.060621e-08	5.645315e+01	6.943072e+02
1.740000e-06	8.317237e-06	1.056908e-08	5.629474e+01	6.933491e+02
1.750000e-06	8.290072e-06	1.051088e-08	5.611087e+01	6.924850e+02
1.760000e-06	8.259025e-06	1.051404e-08	5.590073e+01	6.918157e+02
1.770000e-06	8.224938e-06	1.054659e-08	5.567002e+01	6.913364e+02
1.780000e-06	8.188380e-06	1.055430e-08	5.542257e+01	6.909413e+02
1.790000e-06	8.149486e-06	1.052981e-08	5.515932e+01	6.904693e+02
1.800000e-06	8.108586e-06	1.053162e-08	5.488250e+01	6.897716e+02
1.810000e-06	8.065280e-06	1.047987e-08	5.458938e+01	6.887698e+02
1.820000e-06	8.018963e-06	1.049130e-08	5.427588e+01	6.874821e+02
1.830000e-06	7.969743e-06	1.049669e-08	5.394274e+01	6.860058e+02
1.840000e-06	7.917298e-06	1.044598e-08	5.358777e+01	6.844675e+02
1.850000e-06	7.861719e-06	1.046357e-08	5.321159e+01	6.829628e+02
1.860000e-06	7.803405e-06	1.040888e-08	5.281689e+01	6.815150e+02
1.870000e-06	7.742174e-06	1.041677e-08	5.240245e+01	6.800689e+02
1.880000e-06	7.678166e-06	1.034449e-08	5.196922e+01	6.785221e+02
1.890000e-06	7.611332e-06	1.028813e-08	5.151686e+01	6.767790e+02
1.900000e-06	7.541610e-06	1.030139e-08	5.104495e+01	6.747997e+02
1.910000e-06	7.469010e-06	1.024432e-08	5.055356e+01	6.726223e+02
1.920000e-06	7.393540e-06	1.026799e-08	5.004274e+01	6.703468e+02
1.930000e-06	7.315307e-06	1.020701e-08	4.951323e+01	6.680876e+02
1.940000e-06	7.234449e-06	1.018331e-08	4.896595e+01	6.659177e+02
1.950000e-06	7.151135e-06	1.014272e-08	4.840204e+01	6.638289e+02
1.960000e-06	7.065092e-06	1.007025e-08	4.781966e+01	6.617295e+02
1.970000e-06	6.976436e-06	1.005805e-08	4.721960e+01	6.594803e+02
1.980000e-06	6.885404e-06	9.989006e-09	4.660346e+01	6.569547e+02
1.990000e-06	6.791898e-06	9.994354e-09	4.597057e+01	6.540960e+02
2.000000e-06	6.696033e-06	9.944591e-09	4.532171e+01	6.509453e+02
2.010000e-06	6.597842e-06	9.900366e-09	4.465711e+01	6.476264e+02
2.020000e-06	6.497302e-06	9.839281e-09	4.397661e+01	6.442931e+02
2.030000e-06	6.394313e-06	9.771340e-09	4.327954e+01	6.410614e+02
2.040000e-06	6.289041e-06	9.735773e-09	4.256701e+01	6.379558e+02
2.050000e-06	6.181581e-06	9.676702e-09	4.183967e+01	6.348956e+02
2.060000e-06	6.071895e-06	9.639071e-09	4.109727e+01	6.317269e+02
2.070000e-06	5.959959e-06	9.580336e-09	4.033963e+01	6.282876e+02
2.080000e-06	5.845683e-06	9.529538e-09	3.956617e+01	6.244781e+02
2.090000e-06	5.729133e-06	9.461256e-09	3.877730e+01	6.203047e+02
2.100000e-06	5.610320e-06	9.390559e-09	3.797312e+01	6.158769e+02
2.110000e-06	5.489496e-06	9.319947e-09	3.715533e+01	6.113582e+02
2.120000e-06	5.366729e-06	9.264797e-09	3.632439e+01	6.068913e+02
2.130000e-06	5.242025e-06	9.199732e-09	3.548034e+01	6.025313e+02
2.140000e-06	5.115447e-06	9.132652e-09	3.462360e+01	5.982159e+02
2.150000e-06	4.987026e-06	9.051741e-09	3.375440e+01	5.937891e+02
2.160000e-06	4.856833e-06	8.972709e-09	3.287319e+01	5.890666e+02
2.170000e-06	4.724890e-06	8.894111e-09	3.198014e+01	5.839167e+02
2.180000e-06	4.591295e-06	8.808752e-09	3.107592e+01	5.783188e+02
2.190000e-06	4.456099e-06	8.731818e-09	3.016085e+01	5.723739e+02
2.200000e-06	4.319215e-06	8.647034e-09	2.923436e+01	5.662590e+02
2.210000e-06	4.180682e-06	8.566840e-09	2.829671e+01	5.601455e+02
2.220000e-06	4.040567e-06	8.470146e-09	2.734834e+01	5.541172e+02
2.230000e-06	3.898925e-06	8.366752e-09	2.638965e+01	5.481252e+02
2.240000e-06	3.755873e-06	8.257718e-09	2.542141e+01	5.420010e+02
2.250000e-06	3.611464e-06	8.152505e-09	2.444398e+01	5.355262e+02
2.260000e-06	3.465805e-06	8.046835e-09	2.345810e+01	5.285270e+02
2.270000e-06	3.318866e-06	7.941733e-09	2.246355e+01	5.209522e+02
2.280000e-06	3.170674e-06	7.835370e-09	2.146052e+01	5.128979e+02
2.290000e-06	3.021359e-06	7.722684e-09	2.044989e+01	5.045639e+02
2.300000e-06	2.871060e-06	7.597462e-09	1.943260e+01	4.961586e+02
2.310000e-06	2.719821e-06	7.462498e-09	1.840895e+01	4.877929e+02
2.320000e-06	2.567585e-06	7.321648e-09	1.737855e+01	4.794115e+02
2.330000e-06	2.414373e-06	7.180681e-09	1.634154e+01	4.707965e+02
2.340000e-06	2.260295e-06	7.037281e-09	1.529867e+01	4.616470e+02
2.350000e-06	2.105407e-06	6.886063e-09	1.425033e+01	4.517020e+02
2.360000e-06	1.949692e-06	6.729013e-09	1.319637e+01	4.408546e+02
2.370000e-06	1.793227e-06	6.564335e-09	1.213735e+01	4.292031e+02
2.380000e-06	1.636103e-06	6.391594e-09	1.107387e+01	4.170078e+02
2.390000e-06	1.478432e-06	6.206455e-09	1.000668e+01	4.045670e+02
2.400000e-06	1.320320e-06	6.010588e-09	8.936511e+00	3.920587e+02
2.410000e-06	1.161766e-06	5.803202e-09	7.863347e+00	3.794210e+02
2.420000e-06	1.002807e-06	5.588458e-09	6.787444e+00	3.663273e+02
2.430000e-06	8.435138e-07	5.364411e-09	5.709274e+00	3.522816e+02
2.440000e-06	6.839395e-07	5.128436e-09	4.629204e+00	3.368012e+02
2.450000e-06	5.240958e-07	4.877134e-09	3.547312e+00	3.196136e+02
2.460000e-06	3.640249e-07	4.610601e-09	2.463882e+00	3.007751e+02
2.470000e-06	2.038016e-07	4.328399e-09	1.379419e+00	2.806397e+02
2.480000e-06	4.347905e-08	4.021921e-09	2.942854e-01	2.596651e+02
2.490000e-06	-1.168041e-07	3.680412e-09	-7.905819e-01	2.381088e+02
2.500000e-06	-2.770279e-07	3.304559e-09	-1.875048e+00	2.157257e+02
2.510000e-06	-4.371079e-07	2.905530e-09	-2.958539e+00	1.915989e+02
2.520000e-06	-5.969241e-07	2.475433e-09	-4.040246e+00	1.642014e+02
2.530000e-06	-7.565509e-07	1.989172e-09	-5.120671e+00	1.317171e+02
2.540000e-06	-9.159429e-07	1.425985e-09	-6.199506e+00	9.255315e+01
2.550000e-06	-1.074958e-06	7.688005e-10	-7.275788e+00	4.589955e+01
2.560000e-06	-1.233542e-06	-1.019393e-11	-8.349157e+00	-7.843856e+00
2.570000e-06	-1.391702e-06	-9.251769e-10	-9.419655e+00	-6.692508e+01
2.580000e-06	-1.549421e-06	-1.928993e-09	-1.048717e+01	-1.284543e+02
2.590000e-06	-1.706672e-06	-2.916599e-09	-1.155151e+01	-1.889362e+02
2.600000e-06	-1.863285e-06	-3.787198e-09	-1.261153e+01	-2.449800e+02
2.610000e-06	-2.019097e-06	-4.502792e-09	-1.366614e+01	-2.939880e+02
2.620000e-06	-2.174096e-06	-5.080744e-09	-1.471525e+01	-3.346296e+02
2.630000e-06	-2.328307e-06	-5.553050e-09	-1.575901e+01	-3.669747e+02
2.640000e-06	-2.481709e-06	-5.946363e-09	-1.679730e+01	-3.922696e+02
2.650000e-06	-2.634155e-06	-6.280166e-09	-1.782912e+01	-4.124456e+02
2.660000e-06	-2.785583e-06	-6.571813e-09	-1.885406e+01	-4.295273e+02
2.670000e-06	-2.935990e-06	-6.832683e-09	-1.987208e+01	-4.451228e+02
2.680000e-06	-3.085442e-06	-7.068119e-09	-2.088364e+01	-4.601360e+02
2.690000e-06	-3.233915e-06	-7.283693e-09	-2.188857e+01	-4.747527e+02
2.700000e-06	-3.381143e-06	-7.479795e-09	-2.288507e+01	-4.886581e+02
2.710000e-06	-3.527079e-06	-7.656744e-09	-2.387283e+01	-5.013721e+02
2.720000e-06	-3.671740e-06	-7.816712e-09	-2.485196e+01	-5.125636e+02
2.730000e-06	-3.815057e-06	-7.963677e-09	-2.582199e+01	-5.222332e+02
2.740000e-06	-3.957024e-06	-8.102614e-09	-2.678289e+01	-5.307182e+02
2.750000e-06	-4.097529e-06	-8.237512e-09	-2.773388e+01	-5.385461e+02
2.760000e-06	-4.236424e-06	-8.368735e-09	-2.867399e+01	-5.462178e+02
2.770000e-06	-4.373700e-06	-8.491284e-09	-2.960313e+01	-5.540215e+02
2.780000e-06	-4.509371e-06	-8.606173e-09	-3.052142e+01	-5.619509e+02
2.790000e-06	-4.643461e-06	-8.714371e-09	-3.142899e+01	-5.697524e+02
2.800000e-06	-4.775930e-06	-8.812225e-09	-3.232560e+01	-5.770719e+02
2.810000e-06	-4.906670e-06	-8.898626e-09	-3.321051e+01	-5.836292e+02
2.820000e-06	-5.035658e-06	-8.980507e-09	-3.408356e+01	-5.893465e+02
2.830000e-06	-5.162863e-06	-9.067377e-09	-3.494454e+01	-5.943794e+02
2.840000e-06	-5.288260e-06	-9.155356e-09	-3.579328e+01	-5.990455e+02
2.850000e-06	-5.411805e-06	-9.238128e-09	-3.662949e+01	-6.036869e+02
2.860000e-06	-5.533441e-06	-9.316314e-09	-3.745277e+01	-6.085312e+02
2.870000e-06	-5.653063e-06	-9.392610e-09	-3.826243e+01	-6.136087e+02
2.880000e-06	-5.770540e-06	-9.466143e-09	-3.905757e+01	-6.187583e+02
2.890000e-06	-5.885654e-06	-9.531654e-09	-3.983671e+01	-6.237143e+02
2.900000e-06	-5.998306e-06	-9.590205e-09	-4.059918e+01	-6.282328e+02
2.910000e-06	-6.108658e-06	-9.649941e-09	-4.134609e+01	-6.322000e+02
2.920000e-06	-6.216848e-06	-9.712583e-09	-4.207837e+01	-6.356784e+02
2.930000e-06	-6.322972e-06	-9.771700e-09	-4.279667e+01	-6.388729e+02
2.940000e-06	-6.426924e-06	-9.824490e-09	-4.350026e+01	-6.420361e+02
