# Temperatura_=_55.7
# Concentracion g/m^3_=_13400.0
# C_Vs_to_Am_M_A/Vsm_=_65563218390.804596
# pendiente_HvsI_1/m_=_3716.3
# ordenada_HvsI_A/m_=_1297.0
# frecuencia_Hz_=_301399.4081685826

Tiempo_(s)	Campo_(V.s)	Magnetizacion_(V.s)	Campo_(kA/m)	Magnetizacion_(A/m)
0.000000e+00	-8.413493e-06	-1.179087e-08	-5.692768e+01	-7.749488e+02
1.000000e-08	-8.409767e-06	-1.178889e-08	-5.690247e+01	-7.749684e+02
2.000000e-08	-8.403258e-06	-1.178915e-08	-5.685843e+01	-7.750734e+02
3.000000e-08	-8.394029e-06	-1.178495e-08	-5.679598e+01	-7.750833e+02
4.000000e-08	-8.381901e-06	-1.177693e-08	-5.671392e+01	-7.748180e+02
5.000000e-08	-8.366692e-06	-1.176984e-08	-5.661101e+01	-7.741752e+02
6.000000e-08	-8.348538e-06	-1.176077e-08	-5.648817e+01	-7.731754e+02
7.000000e-08	-8.327812e-06	-1.174455e-08	-5.634794e+01	-7.719533e+02
8.000000e-08	-8.304440e-06	-1.172670e-08	-5.618980e+01	-7.707012e+02
9.000000e-08	-8.277816e-06	-1.175820e-08	-5.600965e+01	-7.695889e+02
1.000000e-07	-8.247779e-06	-1.177394e-08	-5.580642e+01	-7.686937e+02
1.100000e-07	-8.214606e-06	-1.172735e-08	-5.558196e+01	-7.679714e+02
1.200000e-07	-8.178538e-06	-1.167347e-08	-5.533792e+01	-7.672787e+02
1.300000e-07	-8.139940e-06	-1.165322e-08	-5.507675e+01	-7.664368e+02
1.400000e-07	-8.099031e-06	-1.164116e-08	-5.479996e+01	-7.653066e+02
1.500000e-07	-8.055531e-06	-1.158198e-08	-5.450562e+01	-7.638432e+02
1.600000e-07	-8.009140e-06	-1.159535e-08	-5.419173e+01	-7.621064e+02
1.700000e-07	-7.959863e-06	-1.158097e-08	-5.385831e+01	-7.602236e+02
1.800000e-07	-7.907597e-06	-1.155496e-08	-5.350467e+01	-7.583251e+02
1.900000e-07	-7.852282e-06	-1.155215e-08	-5.313039e+01	-7.564800e+02
2.000000e-07	-7.794097e-06	-1.146596e-08	-5.273670e+01	-7.546638e+02
2.100000e-07	-7.733147e-06	-1.143174e-08	-5.232430e+01	-7.527723e+02
2.200000e-07	-7.669445e-06	-1.140285e-08	-5.189327e+01	-7.506741e+02
2.300000e-07	-7.602883e-06	-1.139263e-08	-5.144290e+01	-7.482784e+02
2.400000e-07	-7.533456e-06	-1.137162e-08	-5.097314e+01	-7.455842e+02
2.500000e-07	-7.461255e-06	-1.129991e-08	-5.048461e+01	-7.426891e+02
2.600000e-07	-7.386198e-06	-1.128568e-08	-4.997676e+01	-7.397503e+02
2.700000e-07	-7.308261e-06	-1.124978e-08	-4.944942e+01	-7.369152e+02
2.800000e-07	-7.227480e-06	-1.119448e-08	-4.890284e+01	-7.342523e+02
2.900000e-07	-7.144059e-06	-1.112408e-08	-4.833839e+01	-7.317140e+02
3.000000e-07	-7.058269e-06	-1.109152e-08	-4.775791e+01	-7.291502e+02
3.100000e-07	-6.970067e-06	-1.108315e-08	-4.716112e+01	-7.263677e+02
3.200000e-07	-6.879350e-06	-1.102619e-08	-4.654731e+01	-7.232119e+02
3.300000e-07	-6.786164e-06	-1.097263e-08	-4.591679e+01	-7.196336e+02
3.400000e-07	-6.690620e-06	-1.089345e-08	-4.527031e+01	-7.157124e+02
3.500000e-07	-6.592674e-06	-1.084454e-08	-4.460759e+01	-7.116236e+02
3.600000e-07	-6.492270e-06	-1.079762e-08	-4.392823e+01	-7.075630e+02
3.700000e-07	-6.389514e-06	-1.073247e-08	-4.323296e+01	-7.036611e+02
3.800000e-07	-6.284445e-06	-1.066949e-08	-4.252204e+01	-6.999241e+02
3.900000e-07	-6.177087e-06	-1.061385e-08	-4.179563e+01	-6.962290e+02
4.000000e-07	-6.067552e-06	-1.056589e-08	-4.105449e+01	-6.923749e+02
4.100000e-07	-5.955862e-06	-1.048199e-08	-4.029877e+01	-6.881698e+02
4.200000e-07	-5.841893e-06	-1.039769e-08	-3.952763e+01	-6.835144e+02
4.300000e-07	-5.725599e-06	-1.032410e-08	-3.874075e+01	-6.784460e+02
4.400000e-07	-5.607106e-06	-1.027072e-08	-3.793900e+01	-6.731216e+02
4.500000e-07	-5.486556e-06	-1.020586e-08	-3.712333e+01	-6.677477e+02
4.600000e-07	-5.364054e-06	-1.012111e-08	-3.629445e+01	-6.624854e+02
4.700000e-07	-5.239637e-06	-1.003063e-08	-3.545262e+01	-6.573750e+02
4.800000e-07	-5.113308e-06	-9.947880e-09	-3.459785e+01	-6.523116e+02
4.900000e-07	-4.985117e-06	-9.866692e-09	-3.373047e+01	-6.470869e+02
5.000000e-07	-4.855112e-06	-9.771634e-09	-3.285083e+01	-6.414780e+02
5.100000e-07	-4.723407e-06	-9.672347e-09	-3.195969e+01	-6.353451e+02
5.200000e-07	-4.589984e-06	-9.578674e-09	-3.105692e+01	-6.286950e+02
5.300000e-07	-4.454942e-06	-9.492672e-09	-3.014319e+01	-6.216796e+02
5.400000e-07	-4.318290e-06	-9.390150e-09	-2.921857e+01	-6.145283e+02
5.500000e-07	-4.180024e-06	-9.274195e-09	-2.828303e+01	-6.074430e+02
5.600000e-07	-4.040191e-06	-9.159986e-09	-2.733688e+01	-6.005016e+02
5.700000e-07	-3.898664e-06	-9.057060e-09	-2.637928e+01	-5.936138e+02
5.800000e-07	-3.755510e-06	-8.948655e-09	-2.541067e+01	-5.865514e+02
5.900000e-07	-3.610943e-06	-8.824166e-09	-2.443249e+01	-5.790428e+02
6.000000e-07	-3.465112e-06	-8.694188e-09	-2.344576e+01	-5.708908e+02
6.100000e-07	-3.318048e-06	-8.567706e-09	-2.245069e+01	-5.620610e+02
6.200000e-07	-3.169839e-06	-8.442795e-09	-2.144788e+01	-5.526994e+02
6.300000e-07	-3.020604e-06	-8.304331e-09	-2.043812e+01	-5.430670e+02
6.400000e-07	-2.870334e-06	-8.155294e-09	-1.942135e+01	-5.334176e+02
6.500000e-07	-2.719066e-06	-8.005978e-09	-1.839784e+01	-5.238710e+02
6.600000e-07	-2.566848e-06	-7.853674e-09	-1.736790e+01	-5.143401e+02
6.700000e-07	-2.413603e-06	-7.689759e-09	-1.633100e+01	-5.045481e+02
6.800000e-07	-2.259391e-06	-7.515320e-09	-1.528757e+01	-4.941354e+02
6.900000e-07	-2.104391e-06	-7.339900e-09	-1.423880e+01	-4.828105e+02
7.000000e-07	-1.948676e-06	-7.166089e-09	-1.318520e+01	-4.704813e+02
7.100000e-07	-1.792255e-06	-6.986552e-09	-1.212682e+01	-4.573013e+02
7.200000e-07	-1.635199e-06	-6.791757e-09	-1.106414e+01	-4.436042e+02
7.300000e-07	-1.477562e-06	-6.581583e-09	-9.997532e+00	-4.297453e+02
7.400000e-07	-1.319357e-06	-6.364767e-09	-8.927079e+00	-4.159151e+02
7.500000e-07	-1.160713e-06	-6.140833e-09	-7.853660e+00	-4.020073e+02
7.600000e-07	-1.001690e-06	-5.901753e-09	-6.777671e+00	-3.876086e+02
7.700000e-07	-8.422787e-07	-5.648042e-09	-5.699056e+00	-3.721274e+02
7.800000e-07	-6.825339e-07	-5.386611e-09	-4.618186e+00	-3.550184e+02
7.900000e-07	-5.225522e-07	-5.116605e-09	-3.535711e+00	-3.360080e+02
8.000000e-07	-3.624098e-07	-4.824169e-09	-2.452150e+00	-3.152156e+02
8.100000e-07	-2.021880e-07	-4.501194e-09	-1.368052e+00	-2.930935e+02
8.200000e-07	-4.194970e-08	-4.153989e-09	-2.838416e-01	-2.701795e+02
8.300000e-07	1.184017e-07	-3.785847e-09	8.011339e-01	-2.467366e+02
8.400000e-07	2.788057e-07	-3.390239e-09	1.886465e+00	-2.224152e+02
8.500000e-07	4.390558e-07	-2.954236e-09	2.970755e+00	-1.960875e+02
8.600000e-07	5.990672e-07	-2.469360e-09	4.053430e+00	-1.659584e+02
8.700000e-07	7.588242e-07	-1.927189e-09	5.134383e+00	-1.299701e+02
8.800000e-07	9.183071e-07	-1.304639e-09	6.213482e+00	-8.640524e+01
8.900000e-07	1.077487e-06	-5.656153e-10	7.290533e+00	-3.451479e+01
9.000000e-07	1.236223e-06	3.223471e-10	8.364574e+00	2.503664e+01
9.100000e-07	1.394455e-06	1.350123e-09	9.435215e+00	9.007037e+01
9.200000e-07	1.552214e-06	2.442257e-09	1.050264e+01	1.572012e+02
9.300000e-07	1.709420e-06	3.483023e-09	1.156634e+01	2.224873e+02
9.400000e-07	1.866029e-06	4.382871e-09	1.262599e+01	2.822470e+02
9.500000e-07	2.022002e-06	5.113710e-09	1.368134e+01	3.338100e+02
9.600000e-07	2.177332e-06	5.696093e-09	1.473234e+01	3.759921e+02
9.700000e-07	2.331932e-06	6.168484e-09	1.577840e+01	4.091701e+02
9.800000e-07	2.485624e-06	6.564205e-09	1.681832e+01	4.349591e+02
9.900000e-07	2.638346e-06	6.906691e-09	1.785167e+01	4.556179e+02
1.000000e-06	2.790057e-06	7.208105e-09	1.887818e+01	4.733790e+02
1.010000e-06	2.940703e-06	7.475099e-09	1.989749e+01	4.899088e+02
1.020000e-06	3.090260e-06	7.717066e-09	2.090943e+01	5.060418e+02
1.030000e-06	3.238692e-06	7.940790e-09	2.191375e+01	5.218247e+02
1.040000e-06	3.386075e-06	8.147481e-09	2.291098e+01	5.368060e+02
1.050000e-06	3.532372e-06	8.336243e-09	2.390086e+01	5.504275e+02
1.060000e-06	3.677383e-06	8.508149e-09	2.488204e+01	5.623633e+02
1.070000e-06	3.820973e-06	8.669018e-09	2.585360e+01	5.726900e+02
1.080000e-06	3.963083e-06	8.823927e-09	2.681516e+01	5.818516e+02
1.090000e-06	4.103736e-06	8.974372e-09	2.776684e+01	5.904651e+02
1.100000e-06	4.242926e-06	9.119833e-09	2.870864e+01	5.990685e+02
1.110000e-06	4.380458e-06	9.256741e-09	2.963921e+01	6.079237e+02
1.120000e-06	4.516244e-06	9.384709e-09	3.055797e+01	6.169504e+02
1.130000e-06	4.650421e-06	9.506555e-09	3.146585e+01	6.258085e+02
1.140000e-06	4.782987e-06	9.623232e-09	3.236282e+01	6.340796e+02
1.150000e-06	4.913854e-06	9.733346e-09	3.324830e+01	6.414658e+02
1.160000e-06	5.042880e-06	9.834490e-09	3.412131e+01	6.479194e+02
1.170000e-06	5.170080e-06	9.930967e-09	3.498198e+01	6.536563e+02
1.180000e-06	5.295518e-06	1.002597e-08	3.583073e+01	6.590545e+02
1.190000e-06	5.419195e-06	1.011696e-08	3.666755e+01	6.644906e+02
1.200000e-06	5.540941e-06	1.020362e-08	3.749132e+01	6.701862e+02
1.210000e-06	5.660598e-06	1.028767e-08	3.830094e+01	6.761306e+02
1.220000e-06	5.778162e-06	1.036922e-08	3.909640e+01	6.821069e+02
1.230000e-06	5.893528e-06	1.044681e-08	3.987700e+01	6.878040e+02
1.240000e-06	6.006575e-06	1.051916e-08	4.064190e+01	6.929631e+02
1.250000e-06	6.117424e-06	1.058829e-08	4.139193e+01	6.974925e+02
1.260000e-06	6.226240e-06	1.065534e-08	4.212821e+01	7.015037e+02
1.270000e-06	6.332893e-06	1.072122e-08	4.284985e+01	7.052572e+02
1.280000e-06	6.437219e-06	1.078605e-08	4.355575e+01	7.090455e+02
1.290000e-06	6.539197e-06	1.084934e-08	4.424575e+01	7.130663e+02
1.300000e-06	6.638776e-06	1.091060e-08	4.491952e+01	7.173416e+02
1.310000e-06	6.735822e-06	1.096683e-08	4.557616e+01	7.217155e+02
1.320000e-06	6.830469e-06	1.101969e-08	4.621656e+01	7.259287e+02
1.330000e-06	6.922840e-06	1.107144e-08	4.684157e+01	7.297343e+02
1.340000e-06	7.012766e-06	1.112262e-08	4.745003e+01	7.330051e+02
1.350000e-06	7.100224e-06	1.117363e-08	4.804179e+01	7.357844e+02
1.360000e-06	7.185328e-06	1.122303e-08	4.861762e+01	7.382625e+02
1.370000e-06	7.267897e-06	1.126867e-08	4.917631e+01	7.406908e+02
1.380000e-06	7.347750e-06	1.131059e-08	4.971661e+01	7.432727e+02
1.390000e-06	7.424914e-06	1.135088e-08	5.023872e+01	7.460798e+02
1.400000e-06	7.499292e-06	1.139042e-08	5.074198e+01	7.490281e+02
1.410000e-06	7.570906e-06	1.142846e-08	5.122654e+01	7.519221e+02
1.420000e-06	7.639902e-06	1.146638e-08	5.169338e+01	7.545460e+02
1.430000e-06	7.706113e-06	1.150502e-08	5.214138e+01	7.567599e+02
1.440000e-06	7.769568e-06	1.154099e-08	5.257073e+01	7.585592e+02
1.450000e-06	7.830437e-06	1.157059e-08	5.298259e+01	7.600729e+02
1.460000e-06	7.888552e-06	1.159649e-08	5.337580e+01	7.615025e+02
1.470000e-06	7.943800e-06	1.162308e-08	5.374963e+01	7.630312e+02
1.480000e-06	7.995990e-06	1.164845e-08	5.410276e+01	7.647431e+02
1.490000e-06	8.044963e-06	1.167196e-08	5.443411e+01	7.665884e+02
1.500000e-06	8.090991e-06	1.169717e-08	5.474556e+01	7.684088e+02
1.510000e-06	8.134172e-06	1.172412e-08	5.503773e+01	7.700103e+02
1.520000e-06	8.174416e-06	1.174654e-08	5.531002e+01	7.712500e+02
1.530000e-06	8.211812e-06	1.176349e-08	5.556306e+01	7.720999e+02
1.540000e-06	8.246297e-06	1.177781e-08	5.579639e+01	7.726575e+02
1.550000e-06	8.277850e-06	1.178960e-08	5.600989e+01	7.731017e+02
1.560000e-06	8.306586e-06	1.179971e-08	5.620432e+01	7.736126e+02
1.570000e-06	8.332351e-06	1.180899e-08	5.637865e+01	7.742927e+02
1.580000e-06	8.355158e-06	1.182079e-08	5.653297e+01	7.751233e+02
1.590000e-06	8.375152e-06	1.183628e-08	5.666825e+01	7.759747e+02
1.600000e-06	8.392122e-06	1.184883e-08	5.678308e+01	7.766668e+02
1.610000e-06	8.405970e-06	1.185417e-08	5.687677e+01	7.770507e+02
1.620000e-06	8.416621e-06	1.185589e-08	5.694885e+01	7.770766e+02
1.630000e-06	8.424131e-06	1.185740e-08	5.699966e+01	7.768162e+02
1.640000e-06	8.428711e-06	1.185708e-08	5.703064e+01	7.764325e+02
1.650000e-06	8.430315e-06	1.185231e-08	5.704150e+01	7.761069e+02
1.660000e-06	8.429092e-06	1.184806e-08	5.703322e+01	7.759596e+02
1.670000e-06	8.425092e-06	1.184536e-08	5.700616e+01	7.759950e+02
1.680000e-06	8.418198e-06	1.184808e-08	5.695951e+01	7.760990e+02
1.690000e-06	8.408494e-06	1.184719e-08	5.689385e+01	7.760870e+02
1.700000e-06	8.395857e-06	1.184014e-08	5.680835e+01	7.757840e+02
1.710000e-06	8.380372e-06	1.183057e-08	5.670357e+01	7.750995e+02
1.720000e-06	8.362401e-06	1.182052e-08	5.658198e+01	7.740676e+02
1.730000e-06	8.341843e-06	1.181733e-08	5.644288e+01	7.728326e+02
1.740000e-06	8.318150e-06	1.176149e-08	5.628257e+01	7.715883e+02
1.750000e-06	8.290641e-06	1.169600e-08	5.609643e+01	7.704975e+02
1.760000e-06	8.259305e-06	1.169918e-08	5.588441e+01	7.696249e+02
1.770000e-06	8.225015e-06	1.172583e-08	5.565239e+01	7.689136e+02
1.780000e-06	8.188281e-06	1.172445e-08	5.540384e+01	7.682132e+02
1.790000e-06	8.149257e-06	1.171439e-08	5.513980e+01	7.673456e+02
1.800000e-06	8.108229e-06	1.171114e-08	5.486219e+01	7.661797e+02
1.810000e-06	8.064729e-06	1.164620e-08	5.456786e+01	7.646823e+02
1.820000e-06	8.018211e-06	1.167365e-08	5.425310e+01	7.629229e+02
1.830000e-06	7.968773e-06	1.165657e-08	5.391859e+01	7.610326e+02
1.840000e-06	7.916086e-06	1.161759e-08	5.356210e+01	7.591379e+02
1.850000e-06	7.860295e-06	1.161828e-08	5.318461e+01	7.572985e+02
1.860000e-06	7.801751e-06	1.155291e-08	5.278848e+01	7.554801e+02
1.870000e-06	7.740289e-06	1.157766e-08	5.237262e+01	7.535723e+02
1.880000e-06	7.676090e-06	1.148215e-08	5.193824e+01	7.514452e+02
1.890000e-06	7.609095e-06	1.142753e-08	5.148493e+01	7.490155e+02
1.900000e-06	7.539200e-06	1.140683e-08	5.101201e+01	7.462934e+02
1.910000e-06	7.466362e-06	1.133560e-08	5.051916e+01	7.433854e+02
1.920000e-06	7.390602e-06	1.135078e-08	5.000655e+01	7.404513e+02
1.930000e-06	7.312118e-06	1.127472e-08	4.947551e+01	7.376331e+02
1.940000e-06	7.231053e-06	1.126236e-08	4.892701e+01	7.349878e+02
1.950000e-06	7.147524e-06	1.120521e-08	4.836184e+01	7.324552e+02
1.960000e-06	7.061285e-06	1.114180e-08	4.777832e+01	7.298770e+02
1.970000e-06	6.972516e-06	1.110451e-08	4.717769e+01	7.270603e+02
1.980000e-06	6.881375e-06	1.100975e-08	4.656100e+01	7.238591e+02
1.990000e-06	6.787666e-06	1.100532e-08	4.592695e+01	7.202379e+02
2.000000e-06	6.691566e-06	1.094641e-08	4.527672e+01	7.162890e+02
2.010000e-06	6.593162e-06	1.090952e-08	4.461089e+01	7.121942e+02
2.020000e-06	6.492402e-06	1.083066e-08	4.392912e+01	7.081460e+02
2.030000e-06	6.389192e-06	1.075403e-08	4.323078e+01	7.042638e+02
2.040000e-06	6.283730e-06	1.070137e-08	4.251720e+01	7.005390e+02
2.050000e-06	6.176088e-06	1.063246e-08	4.178887e+01	6.968369e+02
2.060000e-06	6.066223e-06	1.058114e-08	4.104549e+01	6.929531e+02
2.070000e-06	5.954144e-06	1.050904e-08	4.028714e+01	6.887021e+02
2.080000e-06	5.839727e-06	1.045017e-08	3.951297e+01	6.839980e+02
2.090000e-06	5.722946e-06	1.037204e-08	3.872280e+01	6.788928e+02
2.100000e-06	5.603874e-06	1.028916e-08	3.791713e+01	6.735531e+02
2.110000e-06	5.482809e-06	1.019591e-08	3.709798e+01	6.681848e+02
2.120000e-06	5.359899e-06	1.012388e-08	3.626634e+01	6.629394e+02
2.130000e-06	5.235092e-06	1.004855e-08	3.542187e+01	6.578411e+02
2.140000e-06	5.108364e-06	9.977139e-09	3.456439e+01	6.527713e+02
2.150000e-06	4.979800e-06	9.881199e-09	3.369450e+01	6.475153e+02
2.160000e-06	4.849443e-06	9.786638e-09	3.281248e+01	6.418544e+02
2.170000e-06	4.717320e-06	9.692306e-09	3.191850e+01	6.356628e+02
2.180000e-06	4.583569e-06	9.592077e-09	3.101351e+01	6.289640e+02
2.190000e-06	4.448210e-06	9.496084e-09	3.009764e+01	6.219224e+02
2.200000e-06	4.311122e-06	9.392730e-09	2.917007e+01	6.147698e+02
2.210000e-06	4.172350e-06	9.299401e-09	2.823110e+01	6.076989e+02
2.220000e-06	4.032052e-06	9.189646e-09	2.728181e+01	6.007703e+02
2.230000e-06	3.890236e-06	9.072784e-09	2.632225e+01	5.938762e+02
2.240000e-06	3.746972e-06	8.945961e-09	2.535290e+01	5.867785e+02
2.250000e-06	3.602391e-06	8.823601e-09	2.437463e+01	5.792079e+02
2.260000e-06	3.456578e-06	8.699288e-09	2.338802e+01	5.709814e+02
2.270000e-06	3.309504e-06	8.572902e-09	2.239289e+01	5.620846e+02
2.280000e-06	3.161154e-06	8.441311e-09	2.138912e+01	5.526802e+02
2.290000e-06	3.011692e-06	8.307870e-09	2.037782e+01	5.430351e+02
2.300000e-06	2.861306e-06	8.167675e-09	1.936027e+01	5.333941e+02
2.310000e-06	2.709920e-06	8.018849e-09	1.833596e+01	5.238571e+02
2.320000e-06	2.557496e-06	7.859143e-09	1.730462e+01	5.143138e+02
2.330000e-06	2.404159e-06	7.694365e-09	1.626711e+01	5.044724e+02
2.340000e-06	2.250043e-06	7.529225e-09	1.522432e+01	4.939731e+02
2.350000e-06	2.095112e-06	7.356619e-09	1.417602e+01	4.825405e+02
2.360000e-06	1.939304e-06	7.175972e-09	1.312179e+01	4.701085e+02
2.370000e-06	1.782750e-06	6.986901e-09	1.206251e+01	4.568550e+02
2.380000e-06	1.625560e-06	6.794153e-09	1.099892e+01	4.431247e+02
2.390000e-06	1.467799e-06	6.590671e-09	9.931477e+00	4.292641e+02
2.400000e-06	1.309499e-06	6.371907e-09	8.860376e+00	4.154363e+02
2.410000e-06	1.150692e-06	6.137673e-09	7.785852e+00	4.015002e+02
2.420000e-06	9.914982e-07	5.896292e-09	6.708710e+00	3.870149e+02
2.430000e-06	8.320475e-07	5.644615e-09	5.629830e+00	3.713821e+02
2.440000e-06	6.723394e-07	5.379928e-09	4.549207e+00	3.540757e+02
2.450000e-06	5.123823e-07	5.102292e-09	3.466900e+00	3.348614e+02
2.460000e-06	3.522240e-07	4.813252e-09	2.383231e+00	3.139006e+02
2.470000e-06	1.919229e-07	4.505635e-09	1.298595e+00	2.916694e+02
2.480000e-06	3.158498e-08	4.164429e-09	2.137114e-01	2.686943e+02
2.490000e-06	-1.287015e-07	3.786633e-09	-8.708248e-01	2.451870e+02
2.500000e-06	-2.889041e-07	3.375657e-09	-1.954793e+00	2.207182e+02
2.510000e-06	-4.489576e-07	2.934193e-09	-3.037753e+00	1.940778e+02
2.520000e-06	-6.088785e-07	2.450949e-09	-4.119815e+00	1.634187e+02
2.530000e-06	-7.686249e-07	1.906685e-09	-5.200697e+00	1.266884e+02
2.540000e-06	-9.280840e-07	1.279732e-09	-6.279635e+00	8.224490e+01
2.550000e-06	-1.087219e-06	5.409428e-10	-7.356380e+00	2.947434e+01
2.560000e-06	-1.245954e-06	-3.448129e-10	-8.430418e+00	-3.079417e+01
2.570000e-06	-1.404218e-06	-1.377408e-09	-9.501268e+00	-9.623090e+01
2.580000e-06	-1.561994e-06	-2.480296e-09	-1.056882e+01	-1.633552e+02
2.590000e-06	-1.719238e-06	-3.531835e-09	-1.163277e+01	-2.282132e+02
2.600000e-06	-1.875821e-06	-4.435224e-09	-1.269225e+01	-2.871991e+02
2.610000e-06	-2.031625e-06	-5.164646e-09	-1.374645e+01	-3.377854e+02
2.620000e-06	-2.186596e-06	-5.747400e-09	-1.479503e+01	-3.789592e+02
2.630000e-06	-2.340753e-06	-6.222537e-09	-1.583809e+01	-4.112514e+02
2.640000e-06	-2.494071e-06	-6.620554e-09	-1.687547e+01	-4.363780e+02
2.650000e-06	-2.646437e-06	-6.962065e-09	-1.790641e+01	-4.566260e+02
2.660000e-06	-2.797825e-06	-7.263950e-09	-1.893075e+01	-4.741891e+02
2.670000e-06	-2.948262e-06	-7.535834e-09	-1.994864e+01	-4.906521e+02
2.680000e-06	-3.097714e-06	-7.783596e-09	-2.095986e+01	-5.067574e+02
2.690000e-06	-3.246067e-06	-8.012227e-09	-2.196366e+01	-5.224814e+02
2.700000e-06	-3.393194e-06	-8.221624e-09	-2.295915e+01	-5.373422e+02
2.710000e-06	-3.539056e-06	-8.411229e-09	-2.394609e+01	-5.507924e+02
2.720000e-06	-3.683607e-06	-8.584652e-09	-2.492415e+01	-5.625448e+02
2.730000e-06	-3.826851e-06	-8.745113e-09	-2.589337e+01	-5.727206e+02
2.740000e-06	-3.968793e-06	-8.895630e-09	-2.685379e+01	-5.817935e+02
2.750000e-06	-4.109237e-06	-9.040236e-09	-2.780407e+01	-5.903840e+02
2.760000e-06	-4.248006e-06	-9.180575e-09	-2.874301e+01	-5.990081e+02
2.770000e-06	-4.385178e-06	-9.315265e-09	-2.967115e+01	-6.078914e+02
2.780000e-06	-4.520754e-06	-9.444101e-09	-3.058848e+01	-6.169196e+02
2.790000e-06	-4.654755e-06	-9.566352e-09	-3.149517e+01	-6.257344e+02
2.800000e-06	-4.787176e-06	-9.679704e-09	-3.239116e+01	-6.339215e+02
2.810000e-06	-4.917804e-06	-9.782257e-09	-3.327502e+01	-6.412052e+02
2.820000e-06	-5.046669e-06	-9.876649e-09	-3.414696e+01	-6.475679e+02
2.830000e-06	-5.173824e-06	-9.968047e-09	-3.500732e+01	-6.532491e+02
2.840000e-06	-5.299196e-06	-1.006018e-08	-3.585561e+01	-6.586352e+02
2.850000e-06	-5.422612e-06	-1.015506e-08	-3.669067e+01	-6.640925e+02
2.860000e-06	-5.544017e-06	-1.024794e-08	-3.751213e+01	-6.698197e+02
2.870000e-06	-5.663489e-06	-1.033489e-08	-3.832050e+01	-6.757809e+02
2.880000e-06	-5.780917e-06	-1.041572e-08	-3.911505e+01	-6.817426e+02
2.890000e-06	-5.895974e-06	-1.049259e-08	-3.989355e+01	-6.873925e+02
2.900000e-06	-6.008571e-06	-1.056583e-08	-4.065541e+01	-6.924851e+02
2.910000e-06	-6.118834e-06	-1.063303e-08	-4.140147e+01	-6.969505e+02
2.920000e-06	-6.226867e-06	-1.069803e-08	-4.213245e+01	-7.009201e+02
2.930000e-06	-6.332852e-06	-1.076595e-08	-4.284957e+01	-7.046642e+02
2.940000e-06	-6.436704e-06	-1.083544e-08	-4.355226e+01	-7.084708e+02
