# Temperatura_=_52.98
# Concentracion g/m^3_=_13400.0
# C_Vs_to_Am_M_A/Vsm_=_65563218390.804596
# pendiente_HvsI_1/m_=_3716.3
# ordenada_HvsI_A/m_=_1297.0
# frecuencia_Hz_=_301400.9182964411

Tiempo_(s)	Campo_(V.s)	Magnetizacion_(V.s)	Campo_(kA/m)	Magnetizacion_(A/m)
0.000000e+00	-8.419100e-06	-1.148990e-08	-5.692546e+01	-7.543029e+02
1.000000e-08	-8.415195e-06	-1.148383e-08	-5.689906e+01	-7.542957e+02
2.000000e-08	-8.408586e-06	-1.147715e-08	-5.685437e+01	-7.543946e+02
3.000000e-08	-8.399223e-06	-1.147267e-08	-5.679107e+01	-7.544297e+02
4.000000e-08	-8.386867e-06	-1.146865e-08	-5.670752e+01	-7.542204e+02
5.000000e-08	-8.371508e-06	-1.146266e-08	-5.660367e+01	-7.536535e+02
6.000000e-08	-8.353253e-06	-1.145315e-08	-5.648024e+01	-7.527324e+02
7.000000e-08	-8.332428e-06	-1.143912e-08	-5.633944e+01	-7.515771e+02
8.000000e-08	-8.308927e-06	-1.144768e-08	-5.618053e+01	-7.503744e+02
9.000000e-08	-8.282125e-06	-1.146575e-08	-5.599931e+01	-7.493001e+02
1.000000e-07	-8.251960e-06	-1.145190e-08	-5.579535e+01	-7.484479e+02
1.100000e-07	-8.218725e-06	-1.141334e-08	-5.557063e+01	-7.477928e+02
1.200000e-07	-8.182562e-06	-1.137195e-08	-5.532612e+01	-7.472057e+02
1.300000e-07	-8.143811e-06	-1.133914e-08	-5.506411e+01	-7.465097e+02
1.400000e-07	-8.102756e-06	-1.131517e-08	-5.478652e+01	-7.455534e+02
1.500000e-07	-8.059086e-06	-1.131767e-08	-5.449124e+01	-7.442692e+02
1.600000e-07	-8.012508e-06	-1.130658e-08	-5.417630e+01	-7.426919e+02
1.700000e-07	-7.963025e-06	-1.128441e-08	-5.384173e+01	-7.409315e+02
1.800000e-07	-7.910460e-06	-1.128436e-08	-5.348631e+01	-7.391154e+02
1.900000e-07	-7.854865e-06	-1.123389e-08	-5.311041e+01	-7.373257e+02
2.000000e-07	-7.796493e-06	-1.116365e-08	-5.271573e+01	-7.355626e+02
2.100000e-07	-7.735372e-06	-1.112705e-08	-5.230246e+01	-7.337489e+02
2.200000e-07	-7.671537e-06	-1.110900e-08	-5.187084e+01	-7.317722e+02
2.300000e-07	-7.604892e-06	-1.111232e-08	-5.142023e+01	-7.295451e+02
2.400000e-07	-7.535398e-06	-1.108690e-08	-5.095034e+01	-7.270536e+02
2.500000e-07	-7.463026e-06	-1.103723e-08	-5.046100e+01	-7.243705e+02
2.600000e-07	-7.387687e-06	-1.099788e-08	-4.995160e+01	-7.216258e+02
2.700000e-07	-7.309512e-06	-1.096134e-08	-4.942302e+01	-7.189477e+02
2.800000e-07	-7.228506e-06	-1.090627e-08	-4.887530e+01	-7.164002e+02
2.900000e-07	-7.144886e-06	-1.084619e-08	-4.830991e+01	-7.139479e+02
3.000000e-07	-7.058978e-06	-1.082891e-08	-4.772904e+01	-7.114638e+02
3.100000e-07	-6.970685e-06	-1.080982e-08	-4.713206e+01	-7.087805e+02
3.200000e-07	-6.879836e-06	-1.076326e-08	-4.651778e+01	-7.057619e+02
3.300000e-07	-6.786505e-06	-1.069824e-08	-4.588673e+01	-7.023639e+02
3.400000e-07	-6.690861e-06	-1.062841e-08	-4.524003e+01	-6.986567e+02
3.500000e-07	-6.592749e-06	-1.057986e-08	-4.457665e+01	-6.947968e+02
3.600000e-07	-6.492180e-06	-1.053492e-08	-4.389666e+01	-6.909590e+02
3.700000e-07	-6.389310e-06	-1.048002e-08	-4.320111e+01	-6.872590e+02
3.800000e-07	-6.284100e-06	-1.042054e-08	-4.248973e+01	-6.836993e+02
3.900000e-07	-6.176602e-06	-1.037255e-08	-4.176289e+01	-6.801640e+02
4.000000e-07	-6.066942e-06	-1.031500e-08	-4.102143e+01	-6.764662e+02
4.100000e-07	-5.955089e-06	-1.023565e-08	-4.026514e+01	-6.724280e+02
4.200000e-07	-5.840844e-06	-1.015559e-08	-3.949267e+01	-6.679585e+02
4.300000e-07	-5.724255e-06	-1.009036e-08	-3.870436e+01	-6.630947e+02
4.400000e-07	-5.605552e-06	-1.003700e-08	-3.790175e+01	-6.579863e+02
4.500000e-07	-5.484850e-06	-9.976199e-09	-3.708563e+01	-6.528295e+02
4.600000e-07	-5.362172e-06	-9.897125e-09	-3.625614e+01	-6.477779e+02
4.700000e-07	-5.237566e-06	-9.807538e-09	-3.541363e+01	-6.428705e+02
4.800000e-07	-5.111113e-06	-9.725017e-09	-3.455862e+01	-6.380080e+02
4.900000e-07	-4.982863e-06	-9.641063e-09	-3.369146e+01	-6.329915e+02
5.000000e-07	-4.852708e-06	-9.550940e-09	-3.281143e+01	-6.276059e+02
5.100000e-07	-4.720709e-06	-9.460351e-09	-3.191892e+01	-6.217136e+02
5.200000e-07	-4.587047e-06	-9.376150e-09	-3.101517e+01	-6.153161e+02
5.300000e-07	-4.451758e-06	-9.291877e-09	-3.010042e+01	-6.085540e+02
5.400000e-07	-4.314850e-06	-9.192421e-09	-2.917471e+01	-6.016448e+02
5.500000e-07	-4.176303e-06	-9.079956e-09	-2.823794e+01	-5.947832e+02
5.600000e-07	-4.036146e-06	-8.966706e-09	-2.729026e+01	-5.880486e+02
5.700000e-07	-3.894379e-06	-8.860042e-09	-2.633172e+01	-5.813609e+02
5.800000e-07	-3.751062e-06	-8.750814e-09	-2.536268e+01	-5.745072e+02
5.900000e-07	-3.606307e-06	-8.634268e-09	-2.438392e+01	-5.672301e+02
6.000000e-07	-3.460250e-06	-8.513329e-09	-2.339637e+01	-5.593393e+02
6.100000e-07	-3.312995e-06	-8.391110e-09	-2.240070e+01	-5.507969e+02
6.200000e-07	-3.164607e-06	-8.265596e-09	-2.139739e+01	-5.417360e+02
6.300000e-07	-3.015174e-06	-8.129840e-09	-2.038700e+01	-5.324010e+02
6.400000e-07	-2.864725e-06	-7.987181e-09	-1.936974e+01	-5.230323e+02
6.500000e-07	-2.713327e-06	-7.841943e-09	-1.834607e+01	-5.137456e+02
6.600000e-07	-2.561001e-06	-7.689201e-09	-1.731612e+01	-5.044609e+02
6.700000e-07	-2.407698e-06	-7.528186e-09	-1.627957e+01	-4.949179e+02
6.800000e-07	-2.253451e-06	-7.364051e-09	-1.523663e+01	-4.847753e+02
6.900000e-07	-2.098337e-06	-7.197398e-09	-1.418784e+01	-4.737543e+02
7.000000e-07	-1.942429e-06	-7.028087e-09	-1.313367e+01	-4.617636e+02
7.100000e-07	-1.785814e-06	-6.850338e-09	-1.207472e+01	-4.489451e+02
7.200000e-07	-1.628593e-06	-6.658216e-09	-1.101168e+01	-4.356127e+02
7.300000e-07	-1.470763e-06	-6.452989e-09	-9.944512e+00	-4.221019e+02
7.400000e-07	-1.312347e-06	-6.241055e-09	-8.873393e+00	-4.085917e+02
7.500000e-07	-1.153452e-06	-6.021589e-09	-7.799024e+00	-3.949788e+02
7.600000e-07	-9.941773e-07	-5.787574e-09	-6.722097e+00	-3.808663e+02
7.700000e-07	-8.345890e-07	-5.541406e-09	-5.643046e+00	-3.656870e+02
7.800000e-07	-6.747080e-07	-5.288037e-09	-4.562016e+00	-3.489181e+02
7.900000e-07	-5.146255e-07	-5.024824e-09	-3.479623e+00	-3.302981e+02
8.000000e-07	-3.544328e-07	-4.736907e-09	-2.396486e+00	-3.099423e+02
8.100000e-07	-1.941462e-07	-4.418331e-09	-1.312713e+00	-2.882856e+02
8.200000e-07	-3.381928e-08	-4.075119e-09	-2.286679e-01	-2.658431e+02
8.300000e-07	1.265402e-07	-3.714312e-09	8.555974e-01	-2.428617e+02
8.400000e-07	2.868837e-07	-3.328995e-09	1.939755e+00	-2.189929e+02
8.500000e-07	4.471101e-07	-2.901802e-09	3.023120e+00	-1.931317e+02
8.600000e-07	6.072264e-07	-2.425759e-09	4.105741e+00	-1.635252e+02
8.700000e-07	7.671730e-07	-1.892680e-09	5.187214e+00	-1.281651e+02
8.800000e-07	9.268552e-07	-1.280240e-09	6.266900e+00	-8.537642e+01
8.900000e-07	1.086288e-06	-5.527045e-10	7.344900e+00	-3.442976e+01
9.000000e-07	1.245318e-06	3.195256e-10	8.420176e+00	2.402194e+01
9.100000e-07	1.403793e-06	1.325744e-09	9.491702e+00	8.784346e+01
9.200000e-07	1.561765e-06	2.395044e-09	1.055983e+01	1.537162e+02
9.300000e-07	1.719236e-06	3.415076e-09	1.162456e+01	2.177736e+02
9.400000e-07	1.876105e-06	4.295950e-09	1.268522e+01	2.764010e+02
9.500000e-07	2.032206e-06	5.010306e-09	1.374069e+01	3.269750e+02
9.600000e-07	2.187511e-06	5.581865e-09	1.479079e+01	3.683312e+02
9.700000e-07	2.342056e-06	6.049525e-09	1.583573e+01	4.008410e+02
9.800000e-07	2.495700e-06	6.441497e-09	1.687459e+01	4.260965e+02
9.900000e-07	2.648405e-06	6.775967e-09	1.790710e+01	4.463247e+02
1.000000e-06	2.800243e-06	7.066450e-09	1.893375e+01	4.637269e+02
1.010000e-06	2.951091e-06	7.326337e-09	1.995371e+01	4.799445e+02
1.020000e-06	3.100818e-06	7.564684e-09	2.096608e+01	4.957932e+02
1.030000e-06	3.249378e-06	7.784784e-09	2.197056e+01	5.113065e+02
1.040000e-06	3.396809e-06	7.987518e-09	2.296741e+01	5.260225e+02
1.050000e-06	3.543076e-06	8.174710e-09	2.395639e+01	5.393737e+02
1.060000e-06	3.688069e-06	8.347365e-09	2.493675e+01	5.510269e+02
1.070000e-06	3.831790e-06	8.506445e-09	2.590852e+01	5.610553e+02
1.080000e-06	3.974073e-06	8.655128e-09	2.687056e+01	5.699047e+02
1.090000e-06	4.114733e-06	8.797521e-09	2.782163e+01	5.782003e+02
1.100000e-06	4.253818e-06	8.933649e-09	2.876205e+01	5.864922e+02
1.110000e-06	4.391296e-06	9.061618e-09	2.969160e+01	5.950539e+02
1.120000e-06	4.527118e-06	9.185758e-09	3.060996e+01	6.038123e+02
1.130000e-06	4.661312e-06	9.308914e-09	3.151731e+01	6.124261e+02
1.140000e-06	4.793793e-06	9.427597e-09	3.241307e+01	6.204679e+02
1.150000e-06	4.924554e-06	9.535823e-09	3.329721e+01	6.276261e+02
1.160000e-06	5.053629e-06	9.631511e-09	3.416994e+01	6.338404e+02
1.170000e-06	5.180946e-06	9.720258e-09	3.503079e+01	6.393197e+02
1.180000e-06	5.306405e-06	9.806315e-09	3.587908e+01	6.444448e+02
1.190000e-06	5.429985e-06	9.890115e-09	3.671466e+01	6.496037e+02
1.200000e-06	5.551682e-06	9.972571e-09	3.753751e+01	6.550342e+02
1.210000e-06	5.671368e-06	1.005384e-08	3.834676e+01	6.607400e+02
1.220000e-06	5.788858e-06	1.013498e-08	3.914117e+01	6.665112e+02
1.230000e-06	5.904095e-06	1.021342e-08	3.992034e+01	6.720337e+02
1.240000e-06	6.017127e-06	1.028540e-08	4.068460e+01	6.770370e+02
1.250000e-06	6.128026e-06	1.035134e-08	4.143445e+01	6.814131e+02
1.260000e-06	6.236757e-06	1.041353e-08	4.216963e+01	6.852600e+02
1.270000e-06	6.343255e-06	1.047597e-08	4.288970e+01	6.888316e+02
1.280000e-06	6.447484e-06	1.053702e-08	4.359445e+01	6.924237e+02
1.290000e-06	6.549329e-06	1.059493e-08	4.428307e+01	6.962445e+02
1.300000e-06	6.648783e-06	1.065218e-08	4.495553e+01	7.003289e+02
1.310000e-06	6.745820e-06	1.071008e-08	4.561163e+01	7.045301e+02
1.320000e-06	6.840463e-06	1.076725e-08	4.625156e+01	7.085899e+02
1.330000e-06	6.932741e-06	1.081985e-08	4.687550e+01	7.122539e+02
1.340000e-06	7.022582e-06	1.086869e-08	4.748296e+01	7.153819e+02
1.350000e-06	7.110009e-06	1.091624e-08	4.807409e+01	7.180043e+02
1.360000e-06	7.194964e-06	1.096136e-08	4.864851e+01	7.203049e+02
1.370000e-06	7.277356e-06	1.100101e-08	4.920560e+01	7.225375e+02
1.380000e-06	7.357122e-06	1.103692e-08	4.974494e+01	7.249169e+02
1.390000e-06	7.434151e-06	1.107497e-08	5.026576e+01	7.275306e+02
1.400000e-06	7.508378e-06	1.111593e-08	5.076765e+01	7.303085e+02
1.410000e-06	7.579901e-06	1.115600e-08	5.125125e+01	7.330618e+02
1.420000e-06	7.648822e-06	1.119390e-08	5.171726e+01	7.355712e+02
1.430000e-06	7.714986e-06	1.123107e-08	5.216462e+01	7.376852e+02
1.440000e-06	7.778373e-06	1.126467e-08	5.259321e+01	7.393841e+02
1.450000e-06	7.839119e-06	1.128946e-08	5.300394e+01	7.407847e+02
1.460000e-06	7.897101e-06	1.130782e-08	5.339598e+01	7.420838e+02
1.470000e-06	7.952213e-06	1.132864e-08	5.376862e+01	7.434692e+02
1.480000e-06	8.004197e-06	1.135470e-08	5.412011e+01	7.450362e+02
1.490000e-06	8.052968e-06	1.138168e-08	5.444987e+01	7.467478e+02
1.500000e-06	8.098845e-06	1.140541e-08	5.476007e+01	7.484539e+02
1.510000e-06	8.141871e-06	1.142725e-08	5.505099e+01	7.499607e+02
1.520000e-06	8.181962e-06	1.144857e-08	5.532206e+01	7.511181e+02
1.530000e-06	8.219220e-06	1.146729e-08	5.557398e+01	7.518864e+02
1.540000e-06	8.253649e-06	1.147717e-08	5.580677e+01	7.523538e+02
1.550000e-06	8.285191e-06	1.147959e-08	5.602005e+01	7.526964e+02
1.560000e-06	8.313889e-06	1.148587e-08	5.621408e+01	7.531014e+02
1.570000e-06	8.339560e-06	1.150109e-08	5.638766e+01	7.536849e+02
1.580000e-06	8.362197e-06	1.151954e-08	5.654072e+01	7.544437e+02
1.590000e-06	8.381979e-06	1.153279e-08	5.667447e+01	7.552591e+02
1.600000e-06	8.398821e-06	1.154029e-08	5.678835e+01	7.559515e+02
1.610000e-06	8.412547e-06	1.154497e-08	5.688116e+01	7.563622e+02
1.620000e-06	8.423018e-06	1.154733e-08	5.695195e+01	7.564235e+02
1.630000e-06	8.430354e-06	1.154675e-08	5.700156e+01	7.561890e+02
1.640000e-06	8.434774e-06	1.154299e-08	5.703144e+01	7.558094e+02
1.650000e-06	8.436261e-06	1.154041e-08	5.704150e+01	7.554653e+02
1.660000e-06	8.434889e-06	1.154104e-08	5.703222e+01	7.552873e+02
1.670000e-06	8.430717e-06	1.154437e-08	5.700401e+01	7.552973e+02
1.680000e-06	8.423729e-06	1.154619e-08	5.695676e+01	7.553981e+02
1.690000e-06	8.413932e-06	1.154147e-08	5.689052e+01	7.554149e+02
1.700000e-06	8.401096e-06	1.153496e-08	5.680373e+01	7.551707e+02
1.710000e-06	8.385430e-06	1.152887e-08	5.669781e+01	7.545631e+02
1.720000e-06	8.367341e-06	1.152402e-08	5.657549e+01	7.536092e+02
1.730000e-06	8.346641e-06	1.149502e-08	5.643553e+01	7.524391e+02
1.740000e-06	8.322807e-06	1.143836e-08	5.627438e+01	7.512425e+02
1.750000e-06	8.295184e-06	1.140618e-08	5.608761e+01	7.501893e+02
1.760000e-06	8.263756e-06	1.140811e-08	5.587511e+01	7.493613e+02
1.770000e-06	8.229367e-06	1.142585e-08	5.564259e+01	7.487208e+02
1.780000e-06	8.192455e-06	1.145211e-08	5.539301e+01	7.481305e+02
1.790000e-06	8.153278e-06	1.144034e-08	5.512812e+01	7.474125e+02
1.800000e-06	8.112148e-06	1.139028e-08	5.485002e+01	7.464222e+02
1.810000e-06	8.068469e-06	1.136808e-08	5.455468e+01	7.451030e+02
1.820000e-06	8.021771e-06	1.135146e-08	5.423894e+01	7.434997e+02
1.830000e-06	7.972155e-06	1.132782e-08	5.390346e+01	7.417274e+02
1.840000e-06	7.919234e-06	1.132322e-08	5.354563e+01	7.399112e+02
1.850000e-06	7.863264e-06	1.129491e-08	5.316719e+01	7.381257e+02
1.860000e-06	7.804557e-06	1.128887e-08	5.277025e+01	7.363617e+02
1.870000e-06	7.742937e-06	1.126638e-08	5.235361e+01	7.345358e+02
1.880000e-06	7.678616e-06	1.117979e-08	5.191871e+01	7.325352e+02
1.890000e-06	7.611480e-06	1.113659e-08	5.146477e+01	7.302786e+02
1.900000e-06	7.541431e-06	1.108978e-08	5.099113e+01	7.277615e+02
1.910000e-06	7.468416e-06	1.106710e-08	5.049745e+01	7.250648e+02
1.920000e-06	7.392461e-06	1.105581e-08	4.998388e+01	7.223215e+02
1.930000e-06	7.313779e-06	1.101285e-08	4.945187e+01	7.196557e+02
1.940000e-06	7.232545e-06	1.098569e-08	4.890261e+01	7.171218e+02
1.950000e-06	7.148821e-06	1.092426e-08	4.833651e+01	7.146731e+02
1.960000e-06	7.062339e-06	1.086983e-08	4.775177e+01	7.121755e+02
1.970000e-06	6.973311e-06	1.080993e-08	4.714981e+01	7.094614e+02
1.980000e-06	6.881905e-06	1.075572e-08	4.653177e+01	7.064019e+02
1.990000e-06	6.787946e-06	1.072611e-08	4.589647e+01	7.029653e+02
2.000000e-06	6.691650e-06	1.068634e-08	4.524537e+01	6.992331e+02
2.010000e-06	6.593109e-06	1.063882e-08	4.457909e+01	6.953673e+02
2.020000e-06	6.492131e-06	1.057004e-08	4.389633e+01	6.915402e+02
2.030000e-06	6.388667e-06	1.049986e-08	4.319676e+01	6.878572e+02
2.040000e-06	6.283019e-06	1.044003e-08	4.248242e+01	6.843072e+02
2.050000e-06	6.175206e-06	1.038365e-08	4.175345e+01	6.807637e+02
2.060000e-06	6.065142e-06	1.032285e-08	4.100925e+01	6.770367e+02
2.070000e-06	5.952794e-06	1.026388e-08	4.024962e+01	6.729544e+02
2.080000e-06	5.838148e-06	1.019933e-08	3.947444e+01	6.684383e+02
2.090000e-06	5.721106e-06	1.013245e-08	3.868307e+01	6.635394e+02
2.100000e-06	5.601837e-06	1.004690e-08	3.787663e+01	6.584162e+02
2.110000e-06	5.480693e-06	9.963192e-09	3.705752e+01	6.532646e+02
2.120000e-06	5.357650e-06	9.890601e-09	3.622557e+01	6.482288e+02
2.130000e-06	5.232666e-06	9.815374e-09	3.538049e+01	6.433330e+02
2.140000e-06	5.105755e-06	9.745572e-09	3.452239e+01	6.384644e+02
2.150000e-06	4.977008e-06	9.657226e-09	3.365188e+01	6.334178e+02
2.160000e-06	4.846463e-06	9.570817e-09	3.276920e+01	6.279821e+02
2.170000e-06	4.714188e-06	9.476545e-09	3.187483e+01	6.220327e+02
2.180000e-06	4.580224e-06	9.378834e-09	3.096903e+01	6.155871e+02
2.190000e-06	4.444675e-06	9.284785e-09	3.005252e+01	6.087981e+02
2.200000e-06	4.307549e-06	9.188452e-09	2.912535e+01	6.018858e+02
2.210000e-06	4.168776e-06	9.098559e-09	2.818704e+01	5.950365e+02
2.220000e-06	4.028328e-06	8.995250e-09	2.723741e+01	5.883134e+02
2.230000e-06	3.886248e-06	8.879299e-09	2.627673e+01	5.816195e+02
2.240000e-06	3.742731e-06	8.754587e-09	2.530635e+01	5.747322e+02
2.250000e-06	3.597960e-06	8.634868e-09	2.432748e+01	5.673961e+02
2.260000e-06	3.452013e-06	8.518717e-09	2.334067e+01	5.594339e+02
2.270000e-06	3.304819e-06	8.398536e-09	2.234542e+01	5.508266e+02
2.280000e-06	3.156431e-06	8.275572e-09	2.134210e+01	5.417234e+02
2.290000e-06	3.006901e-06	8.146030e-09	2.033106e+01	5.323744e+02
2.300000e-06	2.856265e-06	8.005921e-09	1.931254e+01	5.230118e+02
2.310000e-06	2.704617e-06	7.853707e-09	1.828717e+01	5.137325e+02
2.320000e-06	2.552039e-06	7.696210e-09	1.725553e+01	5.044349e+02
2.330000e-06	2.398549e-06	7.537503e-09	1.621771e+01	4.948439e+02
2.340000e-06	2.244158e-06	7.378439e-09	1.517380e+01	4.846179e+02
2.350000e-06	2.089007e-06	7.212462e-09	1.412475e+01	4.734930e+02
2.360000e-06	1.933109e-06	7.039657e-09	1.307065e+01	4.614027e+02
2.370000e-06	1.776456e-06	6.858797e-09	1.201145e+01	4.485120e+02
2.380000e-06	1.619137e-06	6.669721e-09	1.094774e+01	4.351455e+02
2.390000e-06	1.461263e-06	6.467837e-09	9.880284e+00	4.216302e+02
2.400000e-06	1.302864e-06	6.250911e-09	8.809271e+00	4.081193e+02
2.410000e-06	1.143936e-06	6.021902e-09	7.734687e+00	3.944760e+02
2.420000e-06	9.845839e-07	5.785341e-09	6.657231e+00	3.802773e+02
2.430000e-06	8.249204e-07	5.540377e-09	5.577672e+00	3.649495e+02
2.440000e-06	6.650013e-07	5.283981e-09	4.496384e+00	3.479884e+02
2.450000e-06	5.048330e-07	5.015434e-09	3.413411e+00	3.291698e+02
2.460000e-06	3.444335e-07	4.730987e-09	2.328876e+00	3.086496e+02
2.470000e-06	1.838796e-07	4.425224e-09	1.243295e+00	2.868855e+02
2.480000e-06	2.327515e-08	4.088912e-09	1.573742e-01	2.643813e+02
2.490000e-06	-1.372511e-07	3.719911e-09	-9.280190e-01	2.413341e+02
2.500000e-06	-2.976695e-07	3.316478e-09	-2.012683e+00	2.173178e+02
2.510000e-06	-4.579673e-07	2.881103e-09	-3.096531e+00	1.911477e+02
2.520000e-06	-6.181009e-07	2.407277e-09	-4.179268e+00	1.610200e+02
2.530000e-06	-7.780464e-07	1.877533e-09	-5.260734e+00	1.249320e+02
2.540000e-06	-9.377085e-07	1.265898e-09	-6.340285e+00	8.128221e+01
2.550000e-06	-1.096953e-06	5.385361e-10	-7.417013e+00	2.947326e+01
2.560000e-06	-1.255735e-06	-3.356895e-10	-8.490608e+00	-2.968091e+01
2.570000e-06	-1.414031e-06	-1.350907e-09	-9.560927e+00	-9.389710e+01
2.580000e-06	-1.571841e-06	-2.433272e-09	-1.062795e+01	-1.597630e+02
2.590000e-06	-1.729141e-06	-3.465366e-09	-1.169153e+01	-2.233997e+02
2.600000e-06	-1.885760e-06	-4.352846e-09	-1.275051e+01	-2.812669e+02
2.610000e-06	-2.041588e-06	-5.069305e-09	-1.380413e+01	-3.308812e+02
2.620000e-06	-2.196628e-06	-5.636970e-09	-1.485243e+01	-3.712466e+02
2.630000e-06	-2.350927e-06	-6.096159e-09	-1.589572e+01	-4.028866e+02
2.640000e-06	-2.504389e-06	-6.485546e-09	-1.693334e+01	-4.274922e+02
2.650000e-06	-2.656888e-06	-6.827507e-09	-1.796446e+01	-4.473187e+02
2.660000e-06	-2.808366e-06	-7.129044e-09	-1.898868e+01	-4.645292e+02
2.670000e-06	-2.958792e-06	-7.394419e-09	-2.000577e+01	-4.806837e+02
2.680000e-06	-3.108222e-06	-7.633834e-09	-2.101614e+01	-4.965068e+02
2.690000e-06	-3.256538e-06	-7.858368e-09	-2.201897e+01	-5.119623e+02
2.700000e-06	-3.403702e-06	-8.065457e-09	-2.301402e+01	-5.265577e+02
2.710000e-06	-3.549709e-06	-8.249046e-09	-2.400124e+01	-5.397367e+02
2.720000e-06	-3.694459e-06	-8.412983e-09	-2.497996e+01	-5.512050e+02
2.730000e-06	-3.837826e-06	-8.566874e-09	-2.594933e+01	-5.610807e+02
2.740000e-06	-3.979739e-06	-8.717023e-09	-2.690887e+01	-5.698403e+02
2.750000e-06	-4.120126e-06	-8.863238e-09	-2.785810e+01	-5.781131e+02
2.760000e-06	-4.258947e-06	-9.000825e-09	-2.879673e+01	-5.864271e+02
2.770000e-06	-4.396206e-06	-9.127647e-09	-2.972480e+01	-5.950195e+02
2.780000e-06	-4.531766e-06	-9.248592e-09	-3.064139e+01	-6.037822e+02
2.790000e-06	-4.665698e-06	-9.367163e-09	-3.154696e+01	-6.123549e+02
2.800000e-06	-4.797997e-06	-9.477654e-09	-3.244149e+01	-6.203135e+02
2.810000e-06	-4.928595e-06	-9.574566e-09	-3.332453e+01	-6.273687e+02
2.820000e-06	-5.057477e-06	-9.666254e-09	-3.419596e+01	-6.334902e+02
2.830000e-06	-5.184545e-06	-9.761382e-09	-3.505513e+01	-6.389120e+02
2.840000e-06	-5.309780e-06	-9.856463e-09	-3.590190e+01	-6.440240e+02
2.850000e-06	-5.433190e-06	-9.944968e-09	-3.673633e+01	-6.492046e+02
2.860000e-06	-5.554693e-06	-1.002665e-08	-3.755787e+01	-6.546690e+02
2.870000e-06	-5.674088e-06	-1.010655e-08	-3.836516e+01	-6.603951e+02
2.880000e-06	-5.791368e-06	-1.018667e-08	-3.915814e+01	-6.661553e+02
2.890000e-06	-5.906352e-06	-1.026366e-08	-3.993560e+01	-6.716333e+02
2.900000e-06	-6.018873e-06	-1.033398e-08	-4.069641e+01	-6.765711e+02
2.910000e-06	-6.129092e-06	-1.039927e-08	-4.144165e+01	-6.808827e+02
2.920000e-06	-6.237123e-06	-1.046506e-08	-4.217210e+01	-6.846863e+02
2.930000e-06	-6.343040e-06	-1.053071e-08	-4.288825e+01	-6.882468e+02
2.940000e-06	-6.446782e-06	-1.059224e-08	-4.358970e+01	-6.918562e+02
