# Temperatura_=_52.6
# Concentracion g/m^3_=_13400.0
# C_Vs_to_Am_M_A/Vsm_=_65563218390.804596
# pendiente_HvsI_1/m_=_3716.3
# ordenada_HvsI_A/m_=_1297.0
# frecuencia_Hz_=_301401.288602414

Tiempo_(s)	Campo_(V.s)	Magnetizacion_(V.s)	Campo_(kA/m)	Magnetizacion_(A/m)
0.000000e+00	-8.379050e-06	-1.144790e-08	-5.691845e+01	-7.505828e+02
1.000000e-08	-8.374916e-06	-1.144501e-08	-5.689037e+01	-7.505748e+02
2.000000e-08	-8.368148e-06	-1.143968e-08	-5.684439e+01	-7.506228e+02
3.000000e-08	-8.358631e-06	-1.143598e-08	-5.677974e+01	-7.505599e+02
4.000000e-08	-8.346134e-06	-1.142781e-08	-5.669485e+01	-7.502283e+02
5.000000e-08	-8.330571e-06	-1.141365e-08	-5.658914e+01	-7.495488e+02
6.000000e-08	-8.312113e-06	-1.139184e-08	-5.646375e+01	-7.485575e+02
7.000000e-08	-8.291188e-06	-1.136899e-08	-5.632161e+01	-7.473924e+02
8.000000e-08	-8.267580e-06	-1.142448e-08	-5.616124e+01	-7.462361e+02
9.000000e-08	-8.240650e-06	-1.144819e-08	-5.597831e+01	-7.452400e+02
1.000000e-07	-8.210324e-06	-1.140049e-08	-5.577231e+01	-7.444622e+02
1.100000e-07	-8.176886e-06	-1.136941e-08	-5.554516e+01	-7.438456e+02
1.200000e-07	-8.140575e-06	-1.134526e-08	-5.529850e+01	-7.432447e+02
1.300000e-07	-8.101762e-06	-1.129026e-08	-5.503485e+01	-7.424891e+02
1.400000e-07	-8.060684e-06	-1.121791e-08	-5.475581e+01	-7.414543e+02
1.500000e-07	-8.017025e-06	-1.131003e-08	-5.445924e+01	-7.401092e+02
1.600000e-07	-7.970491e-06	-1.125400e-08	-5.414313e+01	-7.385213e+02
1.700000e-07	-7.921081e-06	-1.121082e-08	-5.380749e+01	-7.368160e+02
1.800000e-07	-7.868610e-06	-1.128744e-08	-5.345106e+01	-7.351130e+02
1.900000e-07	-7.813118e-06	-1.116071e-08	-5.307411e+01	-7.334669e+02
2.000000e-07	-7.754813e-06	-1.112650e-08	-5.267804e+01	-7.318399e+02
2.100000e-07	-7.693685e-06	-1.108192e-08	-5.226280e+01	-7.301207e+02
2.200000e-07	-7.629852e-06	-1.105198e-08	-5.182919e+01	-7.281782e+02
2.300000e-07	-7.563245e-06	-1.107431e-08	-5.137673e+01	-7.259275e+02
2.400000e-07	-7.493796e-06	-1.102112e-08	-5.090497e+01	-7.233761e+02
2.500000e-07	-7.421535e-06	-1.100034e-08	-5.041410e+01	-7.206274e+02
2.600000e-07	-7.346374e-06	-1.094581e-08	-4.990354e+01	-7.178403e+02
2.700000e-07	-7.268398e-06	-1.092200e-08	-4.937385e+01	-7.151592e+02
2.800000e-07	-7.187548e-06	-1.084747e-08	-4.882464e+01	-7.126476e+02
2.900000e-07	-7.104043e-06	-1.079085e-08	-4.825740e+01	-7.102549e+02
3.000000e-07	-7.018279e-06	-1.079820e-08	-4.767480e+01	-7.078322e+02
3.100000e-07	-6.930177e-06	-1.074705e-08	-4.707633e+01	-7.051927e+02
3.200000e-07	-6.839545e-06	-1.072387e-08	-4.646068e+01	-7.021909e+02
3.300000e-07	-6.746424e-06	-1.064844e-08	-4.582811e+01	-6.987865e+02
3.400000e-07	-6.650958e-06	-1.058028e-08	-4.517961e+01	-6.950633e+02
3.500000e-07	-6.553059e-06	-1.052962e-08	-4.451459e+01	-6.911948e+02
3.600000e-07	-6.452712e-06	-1.048136e-08	-4.383294e+01	-6.873693e+02
3.700000e-07	-6.350041e-06	-1.043005e-08	-4.313550e+01	-6.837071e+02
3.800000e-07	-6.245135e-06	-1.036849e-08	-4.242288e+01	-6.802054e+02
3.900000e-07	-6.137982e-06	-1.033401e-08	-4.169499e+01	-6.767370e+02
4.000000e-07	-6.028641e-06	-1.026405e-08	-4.095225e+01	-6.731021e+02
4.100000e-07	-5.917168e-06	-1.018878e-08	-4.019501e+01	-6.691141e+02
4.200000e-07	-5.803451e-06	-1.010318e-08	-3.942254e+01	-6.646798e+02
4.300000e-07	-5.687384e-06	-1.004347e-08	-3.863411e+01	-6.598399e+02
4.400000e-07	-5.569083e-06	-9.991437e-09	-3.783049e+01	-6.547504e+02
4.500000e-07	-5.448796e-06	-9.927593e-09	-3.701339e+01	-6.496127e+02
4.600000e-07	-5.326609e-06	-9.845836e-09	-3.618338e+01	-6.445814e+02
4.700000e-07	-5.202463e-06	-9.759292e-09	-3.534006e+01	-6.396927e+02
4.800000e-07	-5.076359e-06	-9.682751e-09	-3.448344e+01	-6.348426e+02
4.900000e-07	-4.948465e-06	-9.594550e-09	-3.361467e+01	-6.298287e+02
5.000000e-07	-4.818826e-06	-9.504601e-09	-3.273404e+01	-6.244372e+02
5.100000e-07	-4.687408e-06	-9.409801e-09	-3.184132e+01	-6.185361e+02
5.200000e-07	-4.554293e-06	-9.326292e-09	-3.093707e+01	-6.121346e+02
5.300000e-07	-4.419607e-06	-9.238260e-09	-3.002216e+01	-6.053804e+02
5.400000e-07	-4.283360e-06	-9.138449e-09	-2.909665e+01	-5.984932e+02
5.500000e-07	-4.145495e-06	-9.027123e-09	-2.816013e+01	-5.916639e+02
5.600000e-07	-4.005993e-06	-8.919869e-09	-2.721250e+01	-5.849635e+02
5.700000e-07	-3.864816e-06	-8.816318e-09	-2.625350e+01	-5.783029e+02
5.800000e-07	-3.722106e-06	-8.702940e-09	-2.528407e+01	-5.714641e+02
5.900000e-07	-3.578039e-06	-8.582737e-09	-2.430543e+01	-5.641912e+02
6.000000e-07	-3.432646e-06	-8.459611e-09	-2.331779e+01	-5.563022e+02
6.100000e-07	-3.285902e-06	-8.340825e-09	-2.232096e+01	-5.477712e+02
6.200000e-07	-3.137980e-06	-8.214319e-09	-2.131614e+01	-5.387414e+02
6.300000e-07	-2.989109e-06	-8.077453e-09	-2.030486e+01	-5.294607e+02
6.400000e-07	-2.839246e-06	-7.934729e-09	-1.928685e+01	-5.201640e+02
6.500000e-07	-2.688395e-06	-7.793234e-09	-1.826213e+01	-5.109543e+02
6.600000e-07	-2.536653e-06	-7.643678e-09	-1.723135e+01	-5.017366e+02
6.700000e-07	-2.384026e-06	-7.482006e-09	-1.619456e+01	-4.922392e+02
6.800000e-07	-2.230516e-06	-7.313918e-09	-1.515178e+01	-4.821182e+02
6.900000e-07	-2.076175e-06	-7.144823e-09	-1.410335e+01	-4.711021e+02
7.000000e-07	-1.921055e-06	-6.977748e-09	-1.304963e+01	-4.591135e+02
7.100000e-07	-1.765225e-06	-6.799997e-09	-1.199108e+01	-4.463094e+02
7.200000e-07	-1.608687e-06	-6.609143e-09	-1.092773e+01	-4.330124e+02
7.300000e-07	-1.451460e-06	-6.404110e-09	-9.859691e+00	-4.195574e+02
7.400000e-07	-1.293703e-06	-6.193546e-09	-8.788056e+00	-4.061133e+02
7.500000e-07	-1.135524e-06	-5.975024e-09	-7.713555e+00	-3.925625e+02
7.600000e-07	-9.769648e-07	-5.740715e-09	-6.636471e+00	-3.784968e+02
7.700000e-07	-8.180619e-07	-5.494247e-09	-5.557052e+00	-3.633468e+02
7.800000e-07	-6.588369e-07	-5.239807e-09	-4.475445e+00	-3.465987e+02
7.900000e-07	-4.993845e-07	-4.976114e-09	-3.392293e+00	-3.280074e+02
8.000000e-07	-3.397611e-07	-4.688762e-09	-2.307979e+00	-3.077048e+02
8.100000e-07	-1.800233e-07	-4.372749e-09	-1.222889e+00	-2.861324e+02
8.200000e-07	-2.026305e-08	-4.030502e-09	-1.376458e-01	-2.637968e+02
8.300000e-07	1.395275e-07	-3.670276e-09	9.478031e-01	-2.409213e+02
8.400000e-07	2.993008e-07	-3.284177e-09	2.033135e+00	-2.171262e+02
8.500000e-07	4.589561e-07	-2.858385e-09	3.117665e+00	-1.912806e+02
8.600000e-07	6.184267e-07	-2.384318e-09	4.200940e+00	-1.616242e+02
8.700000e-07	7.776635e-07	-1.850242e-09	5.282628e+00	-1.261677e+02
8.800000e-07	9.365841e-07	-1.235214e-09	6.362167e+00	-8.328061e+01
8.900000e-07	1.095115e-06	-5.046429e-10	7.439063e+00	-3.229317e+01
9.000000e-07	1.253272e-06	3.669580e-10	8.513410e+00	2.608460e+01
9.100000e-07	1.411035e-06	1.372385e-09	9.585088e+00	8.968138e+01
9.200000e-07	1.568348e-06	2.436884e-09	1.065371e+01	1.551764e+02
9.300000e-07	1.725023e-06	3.447621e-09	1.171799e+01	2.187375e+02
9.400000e-07	1.880945e-06	4.318882e-09	1.277716e+01	2.768124e+02
9.500000e-07	2.036176e-06	5.027511e-09	1.383164e+01	3.268496e+02
9.600000e-07	2.190689e-06	5.594214e-09	1.488124e+01	3.677468e+02
9.700000e-07	2.344396e-06	6.053834e-09	1.592536e+01	3.999109e+02
9.800000e-07	2.497241e-06	6.439862e-09	1.696363e+01	4.249364e+02
9.900000e-07	2.649196e-06	6.771933e-09	1.799585e+01	4.450247e+02
1.000000e-06	2.800179e-06	7.063616e-09	1.902147e+01	4.623366e+02
1.010000e-06	2.950178e-06	7.323623e-09	2.004041e+01	4.784745e+02
1.020000e-06	3.099171e-06	7.559773e-09	2.105251e+01	4.942305e+02
1.030000e-06	3.246988e-06	7.776967e-09	2.205662e+01	5.096351e+02
1.040000e-06	3.393597e-06	7.976943e-09	2.305253e+01	5.242403e+02
1.050000e-06	3.539056e-06	8.162009e-09	2.404062e+01	5.374999e+02
1.060000e-06	3.683273e-06	8.333870e-09	2.502028e+01	5.490960e+02
1.070000e-06	3.826120e-06	8.492532e-09	2.599064e+01	5.591028e+02
1.080000e-06	3.967466e-06	8.641182e-09	2.695079e+01	5.679519e+02
1.090000e-06	4.107195e-06	8.783721e-09	2.789996e+01	5.762444e+02
1.100000e-06	4.245356e-06	8.919407e-09	2.883849e+01	5.845068e+02
1.110000e-06	4.382013e-06	9.048633e-09	2.976679e+01	5.930006e+02
1.120000e-06	4.517152e-06	9.171741e-09	3.068478e+01	6.016567e+02
1.130000e-06	4.650670e-06	9.290542e-09	3.159176e+01	6.101529e+02
1.140000e-06	4.782436e-06	9.405362e-09	3.248684e+01	6.180875e+02
1.150000e-06	4.912465e-06	9.512597e-09	3.337012e+01	6.251694e+02
1.160000e-06	5.040802e-06	9.609768e-09	3.424190e+01	6.313451e+02
1.170000e-06	5.167418e-06	9.697975e-09	3.510201e+01	6.368139e+02
1.180000e-06	5.292235e-06	9.781986e-09	3.594987e+01	6.419341e+02
1.190000e-06	5.415134e-06	9.865513e-09	3.678472e+01	6.470687e+02
1.200000e-06	5.536056e-06	9.948284e-09	3.760614e+01	6.524394e+02
1.210000e-06	5.654941e-06	1.002784e-08	3.841372e+01	6.580500e+02
1.220000e-06	5.771630e-06	1.010561e-08	3.920639e+01	6.637078e+02
1.230000e-06	5.886074e-06	1.018121e-08	3.998380e+01	6.691266e+02
1.240000e-06	5.998333e-06	1.025198e-08	4.074637e+01	6.740619e+02
1.250000e-06	6.108523e-06	1.031760e-08	4.149488e+01	6.784195e+02
1.260000e-06	6.216587e-06	1.037986e-08	4.222895e+01	6.822919e+02
1.270000e-06	6.322358e-06	1.044211e-08	4.294745e+01	6.859105e+02
1.280000e-06	6.425875e-06	1.050317e-08	4.365064e+01	6.895394e+02
1.290000e-06	6.527122e-06	1.056235e-08	4.433840e+01	6.933593e+02
1.300000e-06	6.625960e-06	1.061871e-08	4.500980e+01	6.973932e+02
1.310000e-06	6.722327e-06	1.067130e-08	4.566442e+01	7.015027e+02
1.320000e-06	6.816322e-06	1.072354e-08	4.630292e+01	7.054549e+02
1.330000e-06	6.908001e-06	1.077506e-08	4.692569e+01	7.090279e+02
1.340000e-06	6.997262e-06	1.082347e-08	4.753204e+01	7.121074e+02
1.350000e-06	7.084071e-06	1.086867e-08	4.812173e+01	7.147326e+02
1.360000e-06	7.168428e-06	1.091170e-08	4.869476e+01	7.170749e+02
1.370000e-06	7.250282e-06	1.095465e-08	4.925079e+01	7.193602e+02
1.380000e-06	7.329528e-06	1.099597e-08	4.978911e+01	7.217707e+02
1.390000e-06	7.406004e-06	1.103330e-08	5.030860e+01	7.243701e+02
1.400000e-06	7.479689e-06	1.106934e-08	5.080914e+01	7.270829e+02
1.410000e-06	7.550679e-06	1.110701e-08	5.129137e+01	7.297357e+02
1.420000e-06	7.618963e-06	1.114431e-08	5.175522e+01	7.321385e+02
1.430000e-06	7.684511e-06	1.117672e-08	5.220049e+01	7.341707e+02
1.440000e-06	7.747427e-06	1.120446e-08	5.262787e+01	7.358325e+02
1.450000e-06	7.807662e-06	1.123081e-08	5.303704e+01	7.372409e+02
1.460000e-06	7.865108e-06	1.125939e-08	5.342727e+01	7.385736e+02
1.470000e-06	7.919706e-06	1.128730e-08	5.379816e+01	7.399876e+02
1.480000e-06	7.971155e-06	1.130722e-08	5.414764e+01	7.415494e+02
1.490000e-06	8.019408e-06	1.132391e-08	5.447542e+01	7.432071e+02
1.500000e-06	8.064796e-06	1.134454e-08	5.478374e+01	7.448168e+02
1.510000e-06	8.107372e-06	1.136758e-08	5.507296e+01	7.462097e+02
1.520000e-06	8.147089e-06	1.138533e-08	5.534275e+01	7.472701e+02
1.530000e-06	8.183995e-06	1.139764e-08	5.559345e+01	7.479882e+02
1.540000e-06	8.218020e-06	1.140994e-08	5.582459e+01	7.484656e+02
1.550000e-06	8.249158e-06	1.142372e-08	5.603611e+01	7.488702e+02
1.560000e-06	8.277452e-06	1.143647e-08	5.622830e+01	7.493624e+02
1.570000e-06	8.302786e-06	1.144437e-08	5.640039e+01	7.500241e+02
1.580000e-06	8.325188e-06	1.145111e-08	5.655257e+01	7.508236e+02
1.590000e-06	8.344717e-06	1.146197e-08	5.668523e+01	7.516304e+02
1.600000e-06	8.361252e-06	1.147475e-08	5.679755e+01	7.522740e+02
1.610000e-06	8.374639e-06	1.148256e-08	5.688849e+01	7.526199e+02
1.620000e-06	8.384764e-06	1.148324e-08	5.695727e+01	7.526295e+02
1.630000e-06	8.391827e-06	1.148174e-08	5.700525e+01	7.523765e+02
1.640000e-06	8.395982e-06	1.148136e-08	5.703347e+01	7.520147e+02
1.650000e-06	8.397164e-06	1.148267e-08	5.704150e+01	7.517085e+02
1.660000e-06	8.395525e-06	1.147431e-08	5.703037e+01	7.515606e+02
1.670000e-06	8.391079e-06	1.147055e-08	5.700017e+01	7.515649e+02
1.680000e-06	8.383778e-06	1.147115e-08	5.695057e+01	7.516093e+02
1.690000e-06	8.373668e-06	1.146704e-08	5.688189e+01	7.515242e+02
1.700000e-06	8.360620e-06	1.146104e-08	5.679326e+01	7.511570e+02
1.710000e-06	8.344806e-06	1.145974e-08	5.668583e+01	7.504400e+02
1.720000e-06	8.326574e-06	1.147430e-08	5.656199e+01	7.494219e+02
1.730000e-06	8.305767e-06	1.141209e-08	5.642064e+01	7.482488e+02
1.740000e-06	8.281775e-06	1.132961e-08	5.625767e+01	7.471034e+02
1.750000e-06	8.253881e-06	1.133437e-08	5.606819e+01	7.461298e+02
1.760000e-06	8.222221e-06	1.133634e-08	5.585312e+01	7.453738e+02
1.770000e-06	8.187765e-06	1.133094e-08	5.561906e+01	7.447666e+02
1.780000e-06	8.150852e-06	1.139323e-08	5.536831e+01	7.441569e+02
1.790000e-06	8.111671e-06	1.139691e-08	5.510216e+01	7.433758e+02
1.800000e-06	8.070498e-06	1.125107e-08	5.482248e+01	7.423071e+02
1.810000e-06	8.026689e-06	1.132096e-08	5.452489e+01	7.409312e+02
1.820000e-06	7.979907e-06	1.127669e-08	5.420710e+01	7.393240e+02
1.830000e-06	7.930248e-06	1.122798e-08	5.386976e+01	7.376137e+02
1.840000e-06	7.877237e-06	1.128648e-08	5.350967e+01	7.359156e+02
1.850000e-06	7.821283e-06	1.116304e-08	5.312957e+01	7.342748e+02
1.860000e-06	7.762674e-06	1.125393e-08	5.273144e+01	7.326440e+02
1.870000e-06	7.701169e-06	1.117936e-08	5.231364e+01	7.309066e+02
1.880000e-06	7.636948e-06	1.109802e-08	5.187739e+01	7.289336e+02
1.890000e-06	7.569845e-06	1.109213e-08	5.142156e+01	7.266483e+02
1.900000e-06	7.499808e-06	1.098248e-08	5.094581e+01	7.240691e+02
1.910000e-06	7.426811e-06	1.102481e-08	5.044994e+01	7.213082e+02
1.920000e-06	7.351011e-06	1.095950e-08	4.993504e+01	7.185263e+02
1.930000e-06	7.272499e-06	1.095941e-08	4.940171e+01	7.158620e+02
1.940000e-06	7.191327e-06	1.091004e-08	4.885031e+01	7.133675e+02
1.950000e-06	7.107716e-06	1.083432e-08	4.828234e+01	7.109798e+02
1.960000e-06	7.021422e-06	1.081936e-08	4.769615e+01	7.085425e+02
1.970000e-06	6.932559e-06	1.070703e-08	4.709252e+01	7.058695e+02
1.980000e-06	6.841363e-06	1.070524e-08	4.647303e+01	7.028241e+02
1.990000e-06	6.747760e-06	1.065220e-08	4.583718e+01	6.993793e+02
2.000000e-06	6.651723e-06	1.063413e-08	4.518481e+01	6.956311e+02
2.010000e-06	6.553291e-06	1.057128e-08	4.451616e+01	6.917585e+02
2.020000e-06	6.452482e-06	1.049828e-08	4.383137e+01	6.879465e+02
2.030000e-06	6.349246e-06	1.043582e-08	4.313010e+01	6.843037e+02
2.040000e-06	6.243818e-06	1.036452e-08	4.241394e+01	6.808134e+02
2.050000e-06	6.136322e-06	1.032790e-08	4.168372e+01	6.773370e+02
2.060000e-06	6.026665e-06	1.025268e-08	4.093882e+01	6.736720e+02
2.070000e-06	5.914687e-06	1.021163e-08	4.017816e+01	6.696382e+02
2.080000e-06	5.800406e-06	1.013791e-08	3.940186e+01	6.651559e+02
2.090000e-06	5.683881e-06	1.007961e-08	3.861031e+01	6.602801e+02
2.100000e-06	5.565057e-06	9.987780e-09	3.780315e+01	6.551757e+02
2.110000e-06	5.444177e-06	9.908606e-09	3.698201e+01	6.500434e+02
2.120000e-06	5.321452e-06	9.833297e-09	3.614835e+01	6.450281e+02
2.130000e-06	5.196893e-06	9.760213e-09	3.530223e+01	6.401505e+02
2.140000e-06	5.070413e-06	9.691649e-09	3.444305e+01	6.352934e+02
2.150000e-06	4.942061e-06	9.599869e-09	3.357116e+01	6.302484e+02
2.160000e-06	4.811940e-06	9.518476e-09	3.268726e+01	6.248062e+02
2.170000e-06	4.680197e-06	9.423585e-09	3.179233e+01	6.188481e+02
2.180000e-06	4.546819e-06	9.333565e-09	3.088631e+01	6.123996e+02
2.190000e-06	4.411704e-06	9.235549e-09	2.996847e+01	6.056201e+02
2.200000e-06	4.274916e-06	9.140591e-09	2.903928e+01	5.987312e+02
2.210000e-06	4.136601e-06	9.041737e-09	2.809972e+01	5.919149e+02
2.220000e-06	3.996760e-06	8.939215e-09	2.714979e+01	5.852256e+02
2.230000e-06	3.855358e-06	8.825287e-09	2.618925e+01	5.785577e+02
2.240000e-06	3.712482e-06	8.707910e-09	2.521870e+01	5.716840e+02
2.250000e-06	3.568183e-06	8.590697e-09	2.423848e+01	5.643514e+02
2.260000e-06	3.422632e-06	8.472672e-09	2.324976e+01	5.563916e+02
2.270000e-06	3.275951e-06	8.350871e-09	2.225337e+01	5.477974e+02
2.280000e-06	3.128158e-06	8.224342e-09	2.124942e+01	5.387278e+02
2.290000e-06	2.979242e-06	8.095016e-09	2.023784e+01	5.294354e+02
2.300000e-06	2.829267e-06	7.957088e-09	1.921906e+01	5.201461e+02
2.310000e-06	2.678287e-06	7.813430e-09	1.819347e+01	5.109435e+02
2.320000e-06	2.526309e-06	7.659392e-09	1.716108e+01	5.017110e+02
2.330000e-06	2.373406e-06	7.502275e-09	1.612242e+01	4.921631e+02
2.340000e-06	2.219653e-06	7.342200e-09	1.507799e+01	4.819564e+02
2.350000e-06	2.065136e-06	7.177430e-09	1.402836e+01	4.708354e+02
2.360000e-06	1.909969e-06	7.003721e-09	1.297432e+01	4.587479e+02
2.370000e-06	1.754129e-06	6.819466e-09	1.191571e+01	4.458736e+02
2.380000e-06	1.597600e-06	6.628830e-09	1.085242e+01	4.325450e+02
2.390000e-06	1.440485e-06	6.428703e-09	9.785142e+00	4.190872e+02
2.400000e-06	1.282886e-06	6.217148e-09	8.714579e+00	4.056428e+02
2.410000e-06	1.124861e-06	5.991135e-09	7.641125e+00	3.920605e+02
2.420000e-06	9.664053e-07	5.755131e-09	6.564741e+00	3.779066e+02
2.430000e-06	8.075382e-07	5.509590e-09	5.485565e+00	3.626067e+02
2.440000e-06	6.483452e-07	5.252596e-09	4.404175e+00	3.456663e+02
2.450000e-06	4.888879e-07	4.984154e-09	3.320990e+00	3.268785e+02
2.460000e-06	3.292273e-07	4.701608e-09	2.236424e+00	3.064147e+02
2.470000e-06	1.694492e-07	4.396539e-09	1.151059e+00	2.847381e+02
2.480000e-06	9.600855e-09	4.060537e-09	6.521811e-02	2.623422e+02
2.490000e-06	-1.501889e-07	3.694460e-09	-1.020225e+00	2.393989e+02
2.500000e-06	-3.098443e-07	3.295776e-09	-2.104756e+00	2.154512e+02
2.510000e-06	-4.693554e-07	2.863539e-09	-3.188307e+00	1.892896e+02
2.520000e-06	-6.287134e-07	2.388128e-09	-4.270817e+00	1.591057e+02
2.530000e-06	-7.878045e-07	1.854379e-09	-5.351515e+00	1.229186e+02
2.540000e-06	-9.465146e-07	1.240256e-09	-6.429625e+00	7.917361e+01
2.550000e-06	-1.104857e-06	5.129890e-10	-7.505238e+00	2.733371e+01
2.560000e-06	-1.262788e-06	-3.595511e-10	-8.578051e+00	-3.173154e+01
2.570000e-06	-1.420254e-06	-1.372174e-09	-9.647709e+00	-9.570598e+01
2.580000e-06	-1.577230e-06	-2.448176e-09	-1.071404e+01	-1.611791e+02
2.590000e-06	-1.733622e-06	-3.468441e-09	-1.177640e+01	-2.243102e+02
2.600000e-06	-1.889319e-06	-4.343225e-09	-1.283405e+01	-2.816231e+02
2.610000e-06	-2.044355e-06	-5.050152e-09	-1.388720e+01	-3.307063e+02
2.620000e-06	-2.198706e-06	-5.612892e-09	-1.493569e+01	-3.706237e+02
2.630000e-06	-2.352227e-06	-6.071534e-09	-1.597856e+01	-4.019306e+02
2.640000e-06	-2.504864e-06	-6.460091e-09	-1.701541e+01	-4.263175e+02
2.650000e-06	-2.656595e-06	-6.798471e-09	-1.804611e+01	-4.460115e+02
2.660000e-06	-2.807327e-06	-7.096099e-09	-1.907003e+01	-4.631345e+02
2.670000e-06	-2.957031e-06	-7.359611e-09	-2.008696e+01	-4.792087e+02
2.680000e-06	-3.105733e-06	-7.598571e-09	-2.109709e+01	-4.949371e+02
2.690000e-06	-3.253332e-06	-7.820677e-09	-2.209971e+01	-5.102826e+02
2.700000e-06	-3.399737e-06	-8.023190e-09	-2.309424e+01	-5.247683e+02
2.710000e-06	-3.544949e-06	-8.204979e-09	-2.408066e+01	-5.378588e+02
2.720000e-06	-3.688902e-06	-8.371661e-09	-2.505852e+01	-5.492739e+02
2.730000e-06	-3.831451e-06	-8.528162e-09	-2.602684e+01	-5.591313e+02
2.740000e-06	-3.972514e-06	-8.677482e-09	-2.698508e+01	-5.678915e+02
2.750000e-06	-4.112098e-06	-8.820310e-09	-2.793327e+01	-5.761592e+02
2.760000e-06	-4.250155e-06	-8.956351e-09	-2.887108e+01	-5.844399e+02
2.770000e-06	-4.386662e-06	-9.083666e-09	-2.979837e+01	-5.929601e+02
2.780000e-06	-4.521553e-06	-9.203330e-09	-3.071467e+01	-6.016178e+02
2.790000e-06	-4.654775e-06	-9.318452e-09	-3.161964e+01	-6.100728e+02
2.800000e-06	-4.786334e-06	-9.427038e-09	-3.251332e+01	-6.179266e+02
2.810000e-06	-4.916236e-06	-9.525803e-09	-3.339573e+01	-6.249094e+02
2.820000e-06	-5.044421e-06	-9.618550e-09	-3.426649e+01	-6.309962e+02
2.830000e-06	-5.170783e-06	-9.711478e-09	-3.512486e+01	-6.364092e+02
2.840000e-06	-5.295315e-06	-9.805241e-09	-3.597080e+01	-6.415152e+02
2.850000e-06	-5.418019e-06	-9.895832e-09	-3.680432e+01	-6.466682e+02
2.860000e-06	-5.538773e-06	-9.979439e-09	-3.762460e+01	-6.520685e+02
2.870000e-06	-5.657422e-06	-1.005856e-08	-3.843058e+01	-6.576963e+02
2.880000e-06	-5.773896e-06	-1.013643e-08	-3.922178e+01	-6.633429e+02
2.890000e-06	-5.888078e-06	-1.021169e-08	-3.999741e+01	-6.687198e+02
2.900000e-06	-5.999826e-06	-1.028209e-08	-4.075651e+01	-6.735945e+02
2.910000e-06	-6.109285e-06	-1.034827e-08	-4.150005e+01	-6.778928e+02
2.920000e-06	-6.216662e-06	-1.041508e-08	-4.222946e+01	-6.817256e+02
2.930000e-06	-6.321933e-06	-1.048261e-08	-4.294456e+01	-6.853334e+02
2.940000e-06	-6.424973e-06	-1.054617e-08	-4.364451e+01	-6.889767e+02
