# Temperatura_=_20.41
# Concentracion g/m^3_=_13400.0
# C_Vs_to_Am_M_A/Vsm_=_65563218390.804596
# pendiente_HvsI_1/m_=_3716.3
# ordenada_HvsI_A/m_=_1297.0
# frecuencia_Hz_=_301396.3189056082

Tiempo_(s)	Campo_(V.s)	Magnetizacion_(V.s)	Campo_(kA/m)	Magnetizacion_(A/m)
0.000000e+00	-8.436460e-06	-9.601870e-09	-5.692565e+01	-6.288972e+02
1.000000e-08	-8.432529e-06	-9.596327e-09	-5.689913e+01	-6.286591e+02
2.000000e-08	-8.425927e-06	-9.591433e-09	-5.685457e+01	-6.285724e+02
3.000000e-08	-8.416537e-06	-9.590400e-09	-5.679122e+01	-6.285882e+02
4.000000e-08	-8.404186e-06	-9.588803e-09	-5.670788e+01	-6.285881e+02
5.000000e-08	-8.388788e-06	-9.582601e-09	-5.660398e+01	-6.284352e+02
6.000000e-08	-8.370494e-06	-9.573134e-09	-5.648054e+01	-6.280335e+02
7.000000e-08	-8.349692e-06	-9.566385e-09	-5.634017e+01	-6.273691e+02
8.000000e-08	-8.326165e-06	-9.571562e-09	-5.618142e+01	-6.265162e+02
9.000000e-08	-8.299291e-06	-9.583867e-09	-5.600009e+01	-6.256065e+02
1.000000e-07	-8.269042e-06	-9.571089e-09	-5.579598e+01	-6.247742e+02
1.100000e-07	-8.235684e-06	-9.536889e-09	-5.557090e+01	-6.241012e+02
1.200000e-07	-8.199420e-06	-9.503483e-09	-5.532620e+01	-6.235849e+02
1.300000e-07	-8.160650e-06	-9.479414e-09	-5.506460e+01	-6.231417e+02
1.400000e-07	-8.119520e-06	-9.474687e-09	-5.478707e+01	-6.226433e+02
1.500000e-07	-8.075717e-06	-9.487208e-09	-5.449151e+01	-6.219702e+02
1.600000e-07	-8.029027e-06	-9.484932e-09	-5.417646e+01	-6.210584e+02
1.700000e-07	-7.979454e-06	-9.468401e-09	-5.384196e+01	-6.199202e+02
1.800000e-07	-7.926807e-06	-9.467211e-09	-5.348672e+01	-6.186319e+02
1.900000e-07	-7.871110e-06	-9.425063e-09	-5.311091e+01	-6.172945e+02
2.000000e-07	-7.812578e-06	-9.367411e-09	-5.271595e+01	-6.159866e+02
2.100000e-07	-7.751273e-06	-9.346331e-09	-5.230230e+01	-6.147299e+02
2.200000e-07	-7.687265e-06	-9.349135e-09	-5.187040e+01	-6.134826e+02
2.300000e-07	-7.620413e-06	-9.357102e-09	-5.141931e+01	-6.121618e+02
2.400000e-07	-7.550702e-06	-9.325251e-09	-5.094893e+01	-6.106848e+02
2.500000e-07	-7.478132e-06	-9.283023e-09	-5.045926e+01	-6.090080e+02
2.600000e-07	-7.402621e-06	-9.254876e-09	-4.994974e+01	-6.071475e+02
2.700000e-07	-7.324251e-06	-9.221760e-09	-4.942094e+01	-6.051709e+02
2.800000e-07	-7.243049e-06	-9.186020e-09	-4.887302e+01	-6.031645e+02
2.900000e-07	-7.159279e-06	-9.156714e-09	-4.830777e+01	-6.011922e+02
3.000000e-07	-7.073176e-06	-9.148136e-09	-4.772678e+01	-5.992636e+02
3.100000e-07	-6.984670e-06	-9.133844e-09	-4.712959e+01	-5.973283e+02
3.200000e-07	-6.893652e-06	-9.093860e-09	-4.651543e+01	-5.952972e+02
3.300000e-07	-6.800146e-06	-9.032766e-09	-4.588449e+01	-5.930827e+02
3.400000e-07	-6.704251e-06	-8.978156e-09	-4.523744e+01	-5.906386e+02
3.500000e-07	-6.605873e-06	-8.955972e-09	-4.457363e+01	-5.879814e+02
3.600000e-07	-6.505061e-06	-8.931356e-09	-4.389339e+01	-5.851835e+02
3.700000e-07	-6.401948e-06	-8.890713e-09	-4.319762e+01	-5.823393e+02
3.800000e-07	-6.296531e-06	-8.845706e-09	-4.248632e+01	-5.795217e+02
3.900000e-07	-6.188799e-06	-8.805690e-09	-4.175939e+01	-5.767468e+02
4.000000e-07	-6.078872e-06	-8.759210e-09	-4.101765e+01	-5.739637e+02
4.100000e-07	-5.966783e-06	-8.697608e-09	-4.026132e+01	-5.710753e+02
4.200000e-07	-5.852375e-06	-8.639263e-09	-3.948934e+01	-5.679805e+02
4.300000e-07	-5.735619e-06	-8.594480e-09	-3.870152e+01	-5.646187e+02
4.400000e-07	-5.616676e-06	-8.559538e-09	-3.789894e+01	-5.609972e+02
4.500000e-07	-5.495732e-06	-8.511997e-09	-3.708286e+01	-5.571869e+02
4.600000e-07	-5.372808e-06	-8.448842e-09	-3.625343e+01	-5.532890e+02
4.700000e-07	-5.247946e-06	-8.383988e-09	-3.541091e+01	-5.493865e+02
4.800000e-07	-5.121231e-06	-8.324416e-09	-3.455589e+01	-5.455018e+02
4.900000e-07	-4.992703e-06	-8.260969e-09	-3.368864e+01	-5.415815e+02
5.000000e-07	-4.862332e-06	-8.186046e-09	-3.280895e+01	-5.375155e+02
5.100000e-07	-4.730135e-06	-8.111363e-09	-3.191694e+01	-5.331823e+02
5.200000e-07	-4.596234e-06	-8.047365e-09	-3.101343e+01	-5.285018e+02
5.300000e-07	-4.460656e-06	-7.984756e-09	-3.009861e+01	-5.234710e+02
5.400000e-07	-4.323471e-06	-7.906565e-09	-2.917294e+01	-5.181643e+02
5.500000e-07	-4.184678e-06	-7.818206e-09	-2.823643e+01	-5.126996e+02
5.600000e-07	-4.044157e-06	-7.733255e-09	-2.728825e+01	-5.071811e+02
5.700000e-07	-3.901971e-06	-7.651223e-09	-2.632884e+01	-5.016470e+02
5.800000e-07	-3.758269e-06	-7.560459e-09	-2.535921e+01	-4.960450e+02
5.900000e-07	-3.613141e-06	-7.459004e-09	-2.437994e+01	-4.902487e+02
6.000000e-07	-3.466690e-06	-7.358282e-09	-2.339175e+01	-4.841093e+02
6.100000e-07	-3.319084e-06	-7.263339e-09	-2.239577e+01	-4.775199e+02
6.200000e-07	-3.170417e-06	-7.167255e-09	-2.139263e+01	-4.704641e+02
6.300000e-07	-3.020703e-06	-7.061071e-09	-2.038242e+01	-4.630232e+02
6.400000e-07	-2.869986e-06	-6.945767e-09	-1.936544e+01	-4.553385e+02
6.500000e-07	-2.718280e-06	-6.827064e-09	-1.834180e+01	-4.475403e+02
6.600000e-07	-2.565599e-06	-6.701041e-09	-1.731157e+01	-4.396769e+02
6.700000e-07	-2.411988e-06	-6.565578e-09	-1.627507e+01	-4.316750e+02
6.800000e-07	-2.257515e-06	-6.426829e-09	-1.523275e+01	-4.233537e+02
6.900000e-07	-2.102167e-06	-6.290524e-09	-1.418453e+01	-4.144887e+02
7.000000e-07	-1.945913e-06	-6.152280e-09	-1.313019e+01	-4.049027e+02
7.100000e-07	-1.788862e-06	-6.003507e-09	-1.207048e+01	-3.945405e+02
7.200000e-07	-1.631204e-06	-5.841647e-09	-1.100667e+01	-3.834929e+02
7.300000e-07	-1.473049e-06	-5.668370e-09	-9.939509e+00	-3.719537e+02
7.400000e-07	-1.314404e-06	-5.487046e-09	-8.869043e+00	-3.601223e+02
7.500000e-07	-1.155310e-06	-5.297615e-09	-7.795542e+00	-3.480910e+02
7.600000e-07	-9.957826e-07	-5.098771e-09	-6.719118e+00	-3.357683e+02
7.700000e-07	-8.358416e-07	-4.891957e-09	-5.639904e+00	-3.228781e+02
7.800000e-07	-6.755803e-07	-4.677647e-09	-4.558529e+00	-3.090436e+02
7.900000e-07	-5.151263e-07	-4.451903e-09	-3.475853e+00	-2.939270e+02
8.000000e-07	-3.545267e-07	-4.207741e-09	-2.392195e+00	-2.773687e+02
8.100000e-07	-1.938178e-07	-3.942924e-09	-1.307800e+00	-2.594567e+02
8.200000e-07	-3.305152e-08	-3.662241e-09	-2.230176e-01	-2.404818e+02
8.300000e-07	1.277299e-07	-3.366779e-09	8.618674e-01	-2.207754e+02
8.400000e-07	2.884417e-07	-3.051654e-09	1.946282e+00	-2.004778e+02
8.500000e-07	4.490142e-07	-2.710207e-09	3.029757e+00	-1.793231e+02
8.600000e-07	6.094352e-07	-2.339995e-09	4.112210e+00	-1.565368e+02
8.700000e-07	7.696797e-07	-1.938116e-09	5.193472e+00	-1.309125e+02
8.800000e-07	9.296502e-07	-1.490005e-09	6.272885e+00	-1.010780e+02
8.900000e-07	1.089271e-06	-9.741908e-10	7.349938e+00	-6.589141e+01
9.000000e-07	1.248494e-06	-3.732019e-10	8.424306e+00	-2.485444e+01
9.100000e-07	1.407254e-06	3.240251e-10	9.495551e+00	2.159012e+01
9.200000e-07	1.565535e-06	1.108790e-09	1.056357e+01	7.198338e+01
9.300000e-07	1.723316e-06	1.938317e-09	1.162820e+01	1.240414e+02
9.400000e-07	1.880532e-06	2.743313e-09	1.268903e+01	1.750736e+02
9.500000e-07	2.037076e-06	3.460395e-09	1.374532e+01	2.225170e+02
9.600000e-07	2.192837e-06	4.065651e-09	1.479633e+01	2.644387e+02
9.700000e-07	2.347721e-06	4.570815e-09	1.584142e+01	2.998665e+02
9.800000e-07	2.501687e-06	4.995102e-09	1.688032e+01	3.288648e+02
9.900000e-07	2.654757e-06	5.353859e-09	1.791317e+01	3.523502e+02
1.000000e-06	2.806838e-06	5.660188e-09	1.893935e+01	3.717230e+02
1.010000e-06	2.957875e-06	5.926666e-09	1.995849e+01	3.884372e+02
1.020000e-06	3.107895e-06	6.165500e-09	2.097076e+01	4.036410e+02
1.030000e-06	3.256813e-06	6.383224e-09	2.197559e+01	4.179838e+02
1.040000e-06	3.404506e-06	6.583079e-09	2.297216e+01	4.316190e+02
1.050000e-06	3.550981e-06	6.766695e-09	2.396051e+01	4.443671e+02
1.060000e-06	3.696250e-06	6.934449e-09	2.494072e+01	4.559511e+02
1.070000e-06	3.840134e-06	7.086156e-09	2.591159e+01	4.662095e+02
1.080000e-06	3.982589e-06	7.225598e-09	2.687282e+01	4.752101e+02
1.090000e-06	4.123577e-06	7.354994e-09	2.782414e+01	4.832381e+02
1.100000e-06	4.262905e-06	7.476403e-09	2.876427e+01	4.906857e+02
1.110000e-06	4.400631e-06	7.591784e-09	2.969359e+01	4.979012e+02
1.120000e-06	4.536721e-06	7.701952e-09	3.061187e+01	5.050691e+02
1.130000e-06	4.671127e-06	7.808153e-09	3.151878e+01	5.121690e+02
1.140000e-06	4.803929e-06	7.909258e-09	3.241487e+01	5.190226e+02
1.150000e-06	4.935004e-06	8.002725e-09	3.329931e+01	5.254040e+02
1.160000e-06	5.064266e-06	8.086280e-09	3.417152e+01	5.311588e+02
1.170000e-06	5.191797e-06	8.162973e-09	3.503204e+01	5.362816e+02
1.180000e-06	5.317612e-06	8.237132e-09	3.588099e+01	5.409225e+02
1.190000e-06	5.441596e-06	8.308257e-09	3.671758e+01	5.453225e+02
1.200000e-06	5.563553e-06	8.374520e-09	3.754049e+01	5.497130e+02
1.210000e-06	5.683428e-06	8.438696e-09	3.834936e+01	5.542220e+02
1.220000e-06	5.801199e-06	8.506033e-09	3.914403e+01	5.588308e+02
1.230000e-06	5.916686e-06	8.575046e-09	3.992329e+01	5.633939e+02
1.240000e-06	6.029852e-06	8.637850e-09	4.068688e+01	5.677137e+02
1.250000e-06	6.140862e-06	8.692194e-09	4.143593e+01	5.716329e+02
1.260000e-06	6.249835e-06	8.742450e-09	4.217123e+01	5.751060e+02
1.270000e-06	6.356605e-06	8.793097e-09	4.289167e+01	5.782170e+02
1.280000e-06	6.461018e-06	8.842725e-09	4.359621e+01	5.811407e+02
1.290000e-06	6.563152e-06	8.888406e-09	4.428536e+01	5.840644e+02
1.300000e-06	6.662932e-06	8.931860e-09	4.495863e+01	5.871061e+02
1.310000e-06	6.760225e-06	8.977700e-09	4.561512e+01	5.902654e+02
1.320000e-06	6.855089e-06	9.026679e-09	4.625523e+01	5.934272e+02
1.330000e-06	6.947571e-06	9.071665e-09	4.687926e+01	5.964158e+02
1.340000e-06	7.037559e-06	9.110019e-09	4.748646e+01	5.990743e+02
1.350000e-06	7.125091e-06	9.145250e-09	4.807709e+01	6.013345e+02
1.360000e-06	7.210272e-06	9.179405e-09	4.865185e+01	6.032474e+02
1.370000e-06	7.292956e-06	9.210437e-09	4.920977e+01	6.049617e+02
1.380000e-06	7.372953e-06	9.236158e-09	4.974956e+01	6.066600e+02
1.390000e-06	7.450151e-06	9.261932e-09	5.027046e+01	6.084819e+02
1.400000e-06	7.524509e-06	9.293780e-09	5.077219e+01	6.104661e+02
1.410000e-06	7.596160e-06	9.328996e-09	5.125566e+01	6.125377e+02
1.420000e-06	7.665191e-06	9.359454e-09	5.172145e+01	6.145432e+02
1.430000e-06	7.731416e-06	9.384200e-09	5.216831e+01	6.163194e+02
1.440000e-06	7.794848e-06	9.407246e-09	5.259632e+01	6.177643e+02
1.450000e-06	7.855637e-06	9.426667e-09	5.300650e+01	6.188812e+02
1.460000e-06	7.913653e-06	9.440540e-09	5.339797e+01	6.197765e+02
1.470000e-06	7.968831e-06	9.452716e-09	5.377029e+01	6.206130e+02
1.480000e-06	8.020940e-06	9.466789e-09	5.412190e+01	6.215406e+02
1.490000e-06	8.069794e-06	9.483471e-09	5.445154e+01	6.226334e+02
1.500000e-06	8.115730e-06	9.501393e-09	5.476150e+01	6.238607e+02
1.510000e-06	8.158828e-06	9.518702e-09	5.505231e+01	6.251027e+02
1.520000e-06	8.198959e-06	9.534654e-09	5.532309e+01	6.262051e+02
1.530000e-06	8.236254e-06	9.548674e-09	5.557475e+01	6.270458e+02
1.540000e-06	8.270715e-06	9.559251e-09	5.580727e+01	6.275878e+02
1.550000e-06	8.302265e-06	9.564877e-09	5.602016e+01	6.278933e+02
1.560000e-06	8.330940e-06	9.566739e-09	5.621364e+01	6.280952e+02
1.570000e-06	8.356595e-06	9.569124e-09	5.638675e+01	6.283387e+02
1.580000e-06	8.379269e-06	9.577120e-09	5.653975e+01	6.287186e+02
1.590000e-06	8.399131e-06	9.590024e-09	5.667377e+01	6.292398e+02
1.600000e-06	8.416019e-06	9.600596e-09	5.678772e+01	6.298170e+02
1.610000e-06	8.429752e-06	9.605358e-09	5.688039e+01	6.303139e+02
1.620000e-06	8.440246e-06	9.606390e-09	5.695119e+01	6.306035e+02
1.630000e-06	8.447639e-06	9.606651e-09	5.700108e+01	6.306240e+02
1.640000e-06	8.452127e-06	9.605773e-09	5.703137e+01	6.304057e+02
1.650000e-06	8.453629e-06	9.601511e-09	5.704150e+01	6.300566e+02
1.660000e-06	8.452221e-06	9.595598e-09	5.703200e+01	6.297159e+02
1.670000e-06	8.447981e-06	9.592710e-09	5.700339e+01	6.294931e+02
1.680000e-06	8.440905e-06	9.595995e-09	5.695564e+01	6.294208e+02
1.690000e-06	8.431026e-06	9.597264e-09	5.688898e+01	6.294410e+02
1.700000e-06	8.418138e-06	9.594813e-09	5.680202e+01	6.294302e+02
1.710000e-06	8.402408e-06	9.591558e-09	5.669588e+01	6.292536e+02
1.720000e-06	8.384225e-06	9.587482e-09	5.657319e+01	6.288224e+02
1.730000e-06	8.363426e-06	9.574295e-09	5.643284e+01	6.281324e+02
1.740000e-06	8.339466e-06	9.532554e-09	5.627118e+01	6.272661e+02
1.750000e-06	8.311683e-06	9.504309e-09	5.608371e+01	6.263583e+02
1.760000e-06	8.280082e-06	9.512881e-09	5.587047e+01	6.255400e+02
1.770000e-06	8.245554e-06	9.535334e-09	5.563750e+01	6.248850e+02
1.780000e-06	8.208560e-06	9.550794e-09	5.538788e+01	6.243813e+02
1.790000e-06	8.169308e-06	9.540184e-09	5.512302e+01	6.239381e+02
1.800000e-06	8.128070e-06	9.499594e-09	5.484476e+01	6.234256e+02
1.810000e-06	8.084295e-06	9.467262e-09	5.454939e+01	6.227283e+02
1.820000e-06	8.037502e-06	9.473370e-09	5.423365e+01	6.217898e+02
1.830000e-06	7.987764e-06	9.452485e-09	5.389804e+01	6.206306e+02
1.840000e-06	7.934706e-06	9.451598e-09	5.354003e+01	6.193318e+02
1.850000e-06	7.878601e-06	9.460738e-09	5.316146e+01	6.179941e+02
1.860000e-06	7.819804e-06	9.450059e-09	5.276472e+01	6.166914e+02
1.870000e-06	7.758098e-06	9.426946e-09	5.234835e+01	6.154382e+02
1.880000e-06	7.693631e-06	9.355450e-09	5.191335e+01	6.141868e+02
1.890000e-06	7.626274e-06	9.323396e-09	5.145886e+01	6.128525e+02
1.900000e-06	7.555991e-06	9.300888e-09	5.098462e+01	6.113547e+02
1.910000e-06	7.482762e-06	9.305546e-09	5.049050e+01	6.096558e+02
1.920000e-06	7.406596e-06	9.311690e-09	4.997656e+01	6.077785e+02
1.930000e-06	7.327713e-06	9.264307e-09	4.944429e+01	6.057942e+02
1.940000e-06	7.246277e-06	9.235207e-09	4.889480e+01	6.037888e+02
1.950000e-06	7.162351e-06	9.184519e-09	4.832850e+01	6.018213e+02
1.960000e-06	7.075726e-06	9.146633e-09	4.774399e+01	5.998949e+02
1.970000e-06	6.986598e-06	9.106409e-09	4.714260e+01	5.979535e+02
1.980000e-06	6.895037e-06	9.077874e-09	4.652478e+01	5.959060e+02
1.990000e-06	6.800904e-06	9.068910e-09	4.588961e+01	5.936676e+02
2.000000e-06	6.704407e-06	9.030915e-09	4.523849e+01	5.911983e+02
2.010000e-06	6.605619e-06	8.993416e-09	4.457191e+01	5.885214e+02
2.020000e-06	6.504441e-06	8.928619e-09	4.388921e+01	5.857135e+02
2.030000e-06	6.400824e-06	8.886403e-09	4.319004e+01	5.828690e+02
2.040000e-06	6.294981e-06	8.851692e-09	4.247585e+01	5.800560e+02
2.050000e-06	6.186988e-06	8.816978e-09	4.174716e+01	5.772832e+02
2.060000e-06	6.076821e-06	8.773078e-09	4.100380e+01	5.744935e+02
2.070000e-06	5.964295e-06	8.717265e-09	4.024453e+01	5.715870e+02
2.080000e-06	5.849387e-06	8.671640e-09	3.946918e+01	5.684649e+02
2.090000e-06	5.732135e-06	8.614561e-09	3.867801e+01	5.650733e+02
2.100000e-06	5.612634e-06	8.559341e-09	3.787167e+01	5.614267e+02
2.110000e-06	5.491184e-06	8.499945e-09	3.705218e+01	5.576016e+02
2.120000e-06	5.367807e-06	8.451573e-09	3.621968e+01	5.536996e+02
2.130000e-06	5.242542e-06	8.398023e-09	3.537445e+01	5.497988e+02
2.140000e-06	5.115402e-06	8.338835e-09	3.451656e+01	5.459136e+02
2.150000e-06	4.986419e-06	8.269781e-09	3.364623e+01	5.419832e+02
2.160000e-06	4.855678e-06	8.199865e-09	3.276405e+01	5.378936e+02
2.170000e-06	4.723217e-06	8.129180e-09	3.187026e+01	5.335254e+02
2.180000e-06	4.588989e-06	8.055679e-09	3.096455e+01	5.288056e+02
2.190000e-06	4.453087e-06	7.983732e-09	3.004754e+01	5.237400e+02
2.200000e-06	4.315549e-06	7.914084e-09	2.911949e+01	5.184100e+02
2.210000e-06	4.176375e-06	7.845147e-09	2.818040e+01	5.129349e+02
2.220000e-06	4.035638e-06	7.763889e-09	2.723077e+01	5.074139e+02
2.230000e-06	3.893294e-06	7.673432e-09	2.627030e+01	5.018761e+02
2.240000e-06	3.749530e-06	7.576614e-09	2.530024e+01	4.962598e+02
2.250000e-06	3.604537e-06	7.481398e-09	2.432188e+01	4.904333e+02
2.260000e-06	3.458300e-06	7.382036e-09	2.333514e+01	4.842490e+02
2.270000e-06	3.310800e-06	7.281845e-09	2.233987e+01	4.776081e+02
2.280000e-06	3.162120e-06	7.181274e-09	2.133664e+01	4.705051e+02
2.290000e-06	3.012258e-06	7.081566e-09	2.032544e+01	4.630304e+02
2.300000e-06	2.861263e-06	6.973880e-09	1.930659e+01	4.553278e+02
2.310000e-06	2.709317e-06	6.853099e-09	1.828132e+01	4.475218e+02
2.320000e-06	2.556473e-06	6.724559e-09	1.724999e+01	4.396489e+02
2.330000e-06	2.402700e-06	6.595761e-09	1.621240e+01	4.316224e+02
2.340000e-06	2.248061e-06	6.464199e-09	1.516896e+01	4.232530e+02
2.350000e-06	2.092618e-06	6.325246e-09	1.412010e+01	4.143171e+02
2.360000e-06	1.936408e-06	6.180280e-09	1.306606e+01	4.046476e+02
2.370000e-06	1.779548e-06	6.029408e-09	1.200764e+01	3.942046e+02
2.380000e-06	1.622053e-06	5.871946e-09	1.094492e+01	3.830936e+02
2.390000e-06	1.463923e-06	5.702488e-09	9.877927e+00	3.715141e+02
2.400000e-06	1.305213e-06	5.521313e-09	8.807022e+00	3.596592e+02
2.410000e-06	1.146014e-06	5.329610e-09	7.732814e+00	3.476041e+02
2.420000e-06	9.863877e-07	5.133596e-09	6.655725e+00	3.352361e+02
2.430000e-06	8.263688e-07	4.928077e-09	5.575986e+00	3.222630e+02
2.440000e-06	6.660567e-07	4.708090e-09	4.494268e+00	3.083046e+02
2.450000e-06	5.055296e-07	4.475299e-09	3.411099e+00	2.930366e+02
2.460000e-06	3.448096e-07	4.231152e-09	2.326629e+00	2.763242e+02
2.470000e-06	1.839628e-07	3.973410e-09	1.241303e+00	2.582815e+02
2.480000e-06	2.311582e-08	3.695048e-09	1.559757e-01	2.392132e+02
2.490000e-06	-1.377140e-07	3.393203e-09	-9.292353e-01	2.194419e+02
2.500000e-06	-2.985221e-07	3.068889e-09	-2.014300e+00	1.990735e+02
2.510000e-06	-4.592173e-07	2.726525e-09	-3.098603e+00	1.777895e+02
2.520000e-06	-6.197222e-07	2.361841e-09	-4.181622e+00	1.547621e+02
2.530000e-06	-7.799769e-07	1.960271e-09	-5.262953e+00	1.287514e+02
2.540000e-06	-9.399573e-07	1.507466e-09	-6.342432e+00	9.838948e+01
2.550000e-06	-1.099588e-06	9.915958e-10	-7.419555e+00	6.258469e+01
2.560000e-06	-1.258778e-06	3.923030e-10	-8.493701e+00	2.092846e+01
2.570000e-06	-1.417442e-06	-3.101125e-10	-9.564300e+00	-2.602651e+01
2.580000e-06	-1.575483e-06	-1.107780e-09	-1.063069e+01	-7.671916e+01
2.590000e-06	-1.732854e-06	-1.949354e-09	-1.169256e+01	-1.287988e+02
2.600000e-06	-1.889582e-06	-2.757655e-09	-1.275010e+01	-1.795622e+02
2.610000e-06	-2.045723e-06	-3.473283e-09	-1.380367e+01	-2.264919e+02
2.620000e-06	-2.201160e-06	-4.078146e-09	-1.485249e+01	-2.677462e+02
2.630000e-06	-2.355732e-06	-4.582260e-09	-1.589548e+01	-3.024651e+02
2.640000e-06	-2.509420e-06	-5.004343e-09	-1.693250e+01	-3.308172e+02
2.650000e-06	-2.662260e-06	-5.365012e-09	-1.796380e+01	-3.537910e+02
2.660000e-06	-2.814207e-06	-5.679847e-09	-1.898907e+01	-3.728128e+02
2.670000e-06	-2.965062e-06	-5.957262e-09	-2.000698e+01	-3.893186e+02
2.680000e-06	-3.114763e-06	-6.202202e-09	-2.101710e+01	-4.044090e+02
2.690000e-06	-3.263376e-06	-6.421469e-09	-2.201988e+01	-4.186767e+02
2.700000e-06	-3.410848e-06	-6.618589e-09	-2.301495e+01	-4.322297e+02
2.710000e-06	-3.557085e-06	-6.795306e-09	-2.400170e+01	-4.448662e+02
2.720000e-06	-3.702094e-06	-6.956145e-09	-2.498016e+01	-4.563129e+02
2.730000e-06	-3.845791e-06	-7.105348e-09	-2.594976e+01	-4.664294e+02
2.740000e-06	-3.988008e-06	-7.247204e-09	-2.690938e+01	-4.753095e+02
2.750000e-06	-4.128710e-06	-7.383783e-09	-2.785878e+01	-4.832566e+02
2.760000e-06	-4.267813e-06	-7.510368e-09	-2.879739e+01	-4.906652e+02
2.770000e-06	-4.405282e-06	-7.623751e-09	-2.972497e+01	-4.978708e+02
2.780000e-06	-4.541161e-06	-7.729109e-09	-3.064183e+01	-5.050364e+02
2.790000e-06	-4.675433e-06	-7.831416e-09	-3.154783e+01	-5.121208e+02
2.800000e-06	-4.808025e-06	-7.927903e-09	-3.244251e+01	-5.189347e+02
2.810000e-06	-4.938853e-06	-8.013393e-09	-3.332529e+01	-5.252547e+02
2.820000e-06	-5.067975e-06	-8.091930e-09	-3.419654e+01	-5.309394e+02
2.830000e-06	-5.195348e-06	-8.170878e-09	-3.505600e+01	-5.360016e+02
2.840000e-06	-5.320841e-06	-8.251483e-09	-3.590277e+01	-5.406048e+02
2.850000e-06	-5.444416e-06	-8.331025e-09	-3.673660e+01	-5.449944e+02
2.860000e-06	-5.566091e-06	-8.407055e-09	-3.755762e+01	-5.493944e+02
2.870000e-06	-5.685865e-06	-8.478569e-09	-3.836580e+01	-5.539181e+02
2.880000e-06	-5.803439e-06	-8.545707e-09	-3.915914e+01	-5.585311e+02
2.890000e-06	-5.918608e-06	-8.608432e-09	-3.993625e+01	-5.630781e+02
2.900000e-06	-6.031399e-06	-8.665800e-09	-4.069732e+01	-5.673614e+02
2.910000e-06	-6.141793e-06	-8.719766e-09	-4.144221e+01	-5.712332e+02
2.920000e-06	-6.249977e-06	-8.774533e-09	-4.217219e+01	-5.746617e+02
2.930000e-06	-6.356124e-06	-8.829179e-09	-4.288842e+01	-5.777438e+02
2.940000e-06	-6.460094e-06	-8.882048e-09	-4.358997e+01	-5.806596e+02
