# Temperatura_=_63.36
# Concentracion g/m^3_=_13400.0
# C_Vs_to_Am_M_A/Vsm_=_65563218390.804596
# pendiente_HvsI_1/m_=_3716.3
# ordenada_HvsI_A/m_=_1297.0
# frecuencia_Hz_=_301396.98015079333

Tiempo_(s)	Campo_(V.s)	Magnetizacion_(V.s)	Campo_(kA/m)	Magnetizacion_(A/m)
0.000000e+00	-8.386213e-06	-1.304020e-08	-5.692540e+01	-8.560330e+02
1.000000e-08	-8.382383e-06	-1.303272e-08	-5.689940e+01	-8.560563e+02
2.000000e-08	-8.375909e-06	-1.302690e-08	-5.685546e+01	-8.561611e+02
3.000000e-08	-8.366770e-06	-1.302234e-08	-5.679342e+01	-8.561616e+02
4.000000e-08	-8.354668e-06	-1.301743e-08	-5.671127e+01	-8.558721e+02
5.000000e-08	-8.339490e-06	-1.300921e-08	-5.660824e+01	-8.551885e+02
6.000000e-08	-8.321368e-06	-1.299724e-08	-5.648523e+01	-8.541340e+02
7.000000e-08	-8.300701e-06	-1.298386e-08	-5.634494e+01	-8.528505e+02
8.000000e-08	-8.277426e-06	-1.296642e-08	-5.618695e+01	-8.515390e+02
9.000000e-08	-8.250878e-06	-1.299511e-08	-5.600675e+01	-8.503758e+02
1.000000e-07	-8.220897e-06	-1.300753e-08	-5.580324e+01	-8.494394e+02
1.100000e-07	-8.187859e-06	-1.295564e-08	-5.557898e+01	-8.486802e+02
1.200000e-07	-8.151963e-06	-1.290020e-08	-5.533532e+01	-8.479447e+02
1.300000e-07	-8.113473e-06	-1.287822e-08	-5.507405e+01	-8.470418e+02
1.400000e-07	-8.072635e-06	-1.286415e-08	-5.479684e+01	-8.458217e+02
1.500000e-07	-8.029225e-06	-1.281506e-08	-5.450217e+01	-8.442342e+02
1.600000e-07	-7.983002e-06	-1.283078e-08	-5.418841e+01	-8.423403e+02
1.700000e-07	-7.933950e-06	-1.280783e-08	-5.385545e+01	-8.402750e+02
1.800000e-07	-7.881862e-06	-1.277480e-08	-5.350188e+01	-8.381800e+02
1.900000e-07	-7.826710e-06	-1.275897e-08	-5.312750e+01	-8.361367e+02
2.000000e-07	-7.768687e-06	-1.266514e-08	-5.273365e+01	-8.341302e+02
2.100000e-07	-7.707877e-06	-1.263550e-08	-5.232087e+01	-8.320602e+02
2.200000e-07	-7.644358e-06	-1.260910e-08	-5.188970e+01	-8.297924e+02
2.300000e-07	-7.578009e-06	-1.259857e-08	-5.143933e+01	-8.272259e+02
2.400000e-07	-7.508773e-06	-1.258265e-08	-5.096936e+01	-8.243445e+02
2.500000e-07	-7.436789e-06	-1.250264e-08	-5.048074e+01	-8.212281e+02
2.600000e-07	-7.361994e-06	-1.247093e-08	-4.997303e+01	-8.180178e+02
2.700000e-07	-7.284337e-06	-1.242119e-08	-4.944589e+01	-8.148509e+02
2.800000e-07	-7.203840e-06	-1.236011e-08	-4.889948e+01	-8.117947e+02
2.900000e-07	-7.120699e-06	-1.229113e-08	-4.833512e+01	-8.088108e+02
3.000000e-07	-7.035185e-06	-1.226221e-08	-4.775465e+01	-8.057674e+02
3.100000e-07	-6.947276e-06	-1.224985e-08	-4.715793e+01	-8.024942e+02
3.200000e-07	-6.856883e-06	-1.217529e-08	-4.654434e+01	-7.988577e+02
3.300000e-07	-6.764022e-06	-1.211288e-08	-4.591401e+01	-7.948217e+02
3.400000e-07	-6.668758e-06	-1.202861e-08	-4.526736e+01	-7.904656e+02
3.500000e-07	-6.571092e-06	-1.196845e-08	-4.460440e+01	-7.859506e+02
3.600000e-07	-6.470994e-06	-1.191192e-08	-4.392494e+01	-7.814485e+02
3.700000e-07	-6.368530e-06	-1.184469e-08	-4.322942e+01	-7.770635e+02
3.800000e-07	-6.263748e-06	-1.178159e-08	-4.251816e+01	-7.727828e+02
3.900000e-07	-6.156717e-06	-1.171736e-08	-4.179163e+01	-7.684790e+02
4.000000e-07	-6.047547e-06	-1.165260e-08	-4.105059e+01	-7.639642e+02
4.100000e-07	-5.936187e-06	-1.155424e-08	-4.029468e+01	-7.590730e+02
4.200000e-07	-5.822608e-06	-1.146446e-08	-3.952371e+01	-7.537379e+02
4.300000e-07	-5.706773e-06	-1.138306e-08	-3.873743e+01	-7.480207e+02
4.400000e-07	-5.588667e-06	-1.131983e-08	-3.793573e+01	-7.420872e+02
4.500000e-07	-5.468445e-06	-1.124709e-08	-3.711966e+01	-7.361319e+02
4.600000e-07	-5.346314e-06	-1.115488e-08	-3.629064e+01	-7.302876e+02
4.700000e-07	-5.222276e-06	-1.105427e-08	-3.544868e+01	-7.245596e+02
4.800000e-07	-5.096293e-06	-1.095718e-08	-3.459351e+01	-7.188153e+02
4.900000e-07	-4.968479e-06	-1.085810e-08	-3.372591e+01	-7.128370e+02
5.000000e-07	-4.838915e-06	-1.074720e-08	-3.284643e+01	-7.064146e+02
5.100000e-07	-4.707619e-06	-1.064100e-08	-3.195520e+01	-6.994396e+02
5.200000e-07	-4.574597e-06	-1.054287e-08	-3.105225e+01	-6.919560e+02
5.300000e-07	-4.439957e-06	-1.044837e-08	-3.013832e+01	-6.841440e+02
5.400000e-07	-4.303657e-06	-1.033051e-08	-2.921311e+01	-6.762401e+02
5.500000e-07	-4.165751e-06	-1.019876e-08	-2.827701e+01	-6.684283e+02
5.600000e-07	-4.026310e-06	-1.007032e-08	-2.733049e+01	-6.607491e+02
5.700000e-07	-3.885250e-06	-9.952793e-09	-2.637298e+01	-6.530702e+02
5.800000e-07	-3.742635e-06	-9.829028e-09	-2.540491e+01	-6.451335e+02
5.900000e-07	-3.598595e-06	-9.690685e-09	-2.442717e+01	-6.366624e+02
6.000000e-07	-3.453240e-06	-9.548850e-09	-2.344050e+01	-6.274824e+02
6.100000e-07	-3.306601e-06	-9.410004e-09	-2.244512e+01	-6.176011e+02
6.200000e-07	-3.158789e-06	-9.269523e-09	-2.144178e+01	-6.072087e+02
6.300000e-07	-3.009884e-06	-9.110732e-09	-2.043102e+01	-5.965931e+02
6.400000e-07	-2.859976e-06	-8.942452e-09	-1.941344e+01	-5.860054e+02
6.500000e-07	-2.709164e-06	-8.777561e-09	-1.838974e+01	-5.755318e+02
6.600000e-07	-2.557370e-06	-8.613163e-09	-1.735936e+01	-5.650332e+02
6.700000e-07	-2.404583e-06	-8.434495e-09	-1.632225e+01	-5.541838e+02
6.800000e-07	-2.250946e-06	-8.243383e-09	-1.527936e+01	-5.425990e+02
6.900000e-07	-2.096509e-06	-8.051793e-09	-1.423105e+01	-5.299997e+02
7.000000e-07	-1.941266e-06	-7.860433e-09	-1.317727e+01	-5.163399e+02
7.100000e-07	-1.785335e-06	-7.659547e-09	-1.211881e+01	-5.018360e+02
7.200000e-07	-1.628730e-06	-7.439682e-09	-1.105578e+01	-4.868733e+02
7.300000e-07	-1.471439e-06	-7.209454e-09	-9.988088e+00	-4.718222e+02
7.400000e-07	-1.313607e-06	-6.977445e-09	-8.916733e+00	-4.568381e+02
7.500000e-07	-1.155377e-06	-6.736992e-09	-7.842667e+00	-4.417365e+02
7.600000e-07	-9.967687e-07	-6.475635e-09	-6.766040e+00	-4.260076e+02
7.700000e-07	-8.377925e-07	-6.195625e-09	-5.686914e+00	-4.089815e+02
7.800000e-07	-6.784914e-07	-5.908847e-09	-4.605582e+00	-3.900845e+02
7.900000e-07	-5.189712e-07	-5.612773e-09	-3.522763e+00	-3.690793e+02
8.000000e-07	-3.593142e-07	-5.290501e-09	-2.439016e+00	-3.461736e+02
8.100000e-07	-1.994896e-07	-4.935070e-09	-1.354130e+00	-3.219220e+02
8.200000e-07	-3.947976e-08	-4.557024e-09	-2.679876e-01	-2.969260e+02
8.300000e-07	1.205565e-07	-4.157974e-09	8.183342e-01	-2.714253e+02
8.400000e-07	2.804604e-07	-3.724563e-09	1.903758e+00	-2.449347e+02
8.500000e-07	4.402143e-07	-3.243274e-09	2.988163e+00	-2.160893e+02
8.600000e-07	5.997804e-07	-2.709161e-09	4.071294e+00	-1.828067e+02
8.700000e-07	7.591059e-07	-2.110826e-09	5.152792e+00	-1.427678e+02
8.800000e-07	9.181381e-07	-1.417234e-09	6.232298e+00	-9.410385e+01
8.900000e-07	1.076853e-06	-5.868866e-10	7.309651e+00	-3.608665e+01
9.000000e-07	1.235227e-06	4.088923e-10	8.384688e+00	3.040353e+01
9.100000e-07	1.393183e-06	1.554495e-09	9.456893e+00	1.028056e+02
9.200000e-07	1.550573e-06	2.767127e-09	1.052525e+01	1.772575e+02
9.300000e-07	1.707366e-06	3.915869e-09	1.158955e+01	2.493440e+02
9.400000e-07	1.863552e-06	4.898975e-09	1.264974e+01	3.150094e+02
9.500000e-07	2.018983e-06	5.687000e-09	1.370480e+01	3.713778e+02
9.600000e-07	2.173623e-06	6.312361e-09	1.475450e+01	4.172516e+02
9.700000e-07	2.327500e-06	6.827393e-09	1.579901e+01	4.531627e+02
9.800000e-07	2.480645e-06	7.264433e-09	1.683855e+01	4.809879e+02
9.900000e-07	2.632901e-06	7.638258e-09	1.787207e+01	5.032755e+02
1.000000e-06	2.784120e-06	7.962007e-09	1.889854e+01	5.225035e+02
1.010000e-06	2.934373e-06	8.251773e-09	1.991845e+01	5.404932e+02
1.020000e-06	3.083591e-06	8.517004e-09	2.093133e+01	5.581313e+02
1.030000e-06	3.231687e-06	8.757095e-09	2.193661e+01	5.754341e+02
1.040000e-06	3.378624e-06	8.974201e-09	2.293401e+01	5.918771e+02
1.050000e-06	3.524353e-06	9.178791e-09	2.392321e+01	6.068306e+02
1.060000e-06	3.668814e-06	9.376457e-09	2.490381e+01	6.199300e+02
1.070000e-06	3.811933e-06	9.562483e-09	2.587530e+01	6.312596e+02
1.080000e-06	3.953604e-06	9.733233e-09	2.683696e+01	6.413096e+02
1.090000e-06	4.093682e-06	9.893772e-09	2.778781e+01	6.507610e+02
1.100000e-06	4.232145e-06	1.005095e-08	2.872769e+01	6.602098e+02
1.110000e-06	4.369037e-06	1.020014e-08	2.965691e+01	6.699517e+02
1.120000e-06	4.504340e-06	1.033778e-08	3.057534e+01	6.799111e+02
1.130000e-06	4.638088e-06	1.046873e-08	3.148322e+01	6.897277e+02
1.140000e-06	4.770212e-06	1.059970e-08	3.238007e+01	6.989524e+02
1.150000e-06	4.900629e-06	1.072878e-08	3.326535e+01	7.072590e+02
1.160000e-06	5.029296e-06	1.084661e-08	3.413873e+01	7.145831e+02
1.170000e-06	5.156181e-06	1.095688e-08	3.500002e+01	7.211369e+02
1.180000e-06	5.281284e-06	1.106634e-08	3.584922e+01	7.273037e+02
1.190000e-06	5.404522e-06	1.117177e-08	3.668576e+01	7.334662e+02
1.200000e-06	5.525810e-06	1.126562e-08	3.750906e+01	7.398481e+02
1.210000e-06	5.645044e-06	1.135109e-08	3.831841e+01	7.464345e+02
1.220000e-06	5.762089e-06	1.144026e-08	3.911291e+01	7.530012e+02
1.230000e-06	5.876856e-06	1.153295e-08	3.989195e+01	7.592331e+02
1.240000e-06	5.989387e-06	1.161848e-08	4.065580e+01	7.648747e+02
1.250000e-06	6.099842e-06	1.169420e-08	4.140557e+01	7.698467e+02
1.260000e-06	6.208251e-06	1.176778e-08	4.214145e+01	7.742790e+02
1.270000e-06	6.314458e-06	1.184466e-08	4.286238e+01	7.784504e+02
1.280000e-06	6.418382e-06	1.191796e-08	4.356781e+01	7.826645e+02
1.290000e-06	6.520001e-06	1.198122e-08	4.425760e+01	7.871198e+02
1.300000e-06	6.619233e-06	1.204083e-08	4.493118e+01	7.918290e+02
1.310000e-06	6.715980e-06	1.210387e-08	4.558790e+01	7.966222e+02
1.320000e-06	6.810328e-06	1.216874e-08	4.622833e+01	8.012282e+02
1.330000e-06	6.902330e-06	1.222794e-08	4.685284e+01	8.053971e+02
1.340000e-06	6.991890e-06	1.228329e-08	4.746077e+01	8.090083e+02
1.350000e-06	7.079022e-06	1.234068e-08	4.805222e+01	8.121199e+02
1.360000e-06	7.163756e-06	1.239896e-08	4.862739e+01	8.149375e+02
1.370000e-06	7.245914e-06	1.245254e-08	4.918508e+01	8.177211e+02
1.380000e-06	7.325414e-06	1.249717e-08	4.972472e+01	8.206713e+02
1.390000e-06	7.402223e-06	1.253771e-08	5.024610e+01	8.238448e+02
1.400000e-06	7.476220e-06	1.258006e-08	5.074839e+01	8.271357e+02
1.410000e-06	7.547527e-06	1.262351e-08	5.123242e+01	8.303279e+02
1.420000e-06	7.616219e-06	1.266527e-08	5.169870e+01	8.331940e+02
1.430000e-06	7.682165e-06	1.270611e-08	5.214634e+01	8.355968e+02
1.440000e-06	7.745453e-06	1.274762e-08	5.257594e+01	8.375473e+02
1.450000e-06	7.806113e-06	1.278469e-08	5.298770e+01	8.391979e+02
1.460000e-06	7.863954e-06	1.281401e-08	5.338032e+01	8.407724e+02
1.470000e-06	7.918950e-06	1.283967e-08	5.375363e+01	8.424666e+02
1.480000e-06	7.970799e-06	1.286297e-08	5.410558e+01	8.443640e+02
1.490000e-06	8.019394e-06	1.288471e-08	5.443544e+01	8.464018e+02
1.500000e-06	8.065194e-06	1.291028e-08	5.474633e+01	8.484016e+02
1.510000e-06	8.108205e-06	1.293953e-08	5.503829e+01	8.501513e+02
1.520000e-06	8.148258e-06	1.296634e-08	5.531017e+01	8.514990e+02
1.530000e-06	8.185499e-06	1.298819e-08	5.556295e+01	8.524202e+02
1.540000e-06	8.219893e-06	1.300462e-08	5.579642e+01	8.530273e+02
1.550000e-06	8.251404e-06	1.301839e-08	5.601032e+01	8.535191e+02
1.560000e-06	8.280065e-06	1.303018e-08	5.620487e+01	8.540940e+02
1.570000e-06	8.305721e-06	1.303863e-08	5.637902e+01	8.548641e+02
1.580000e-06	8.328415e-06	1.304788e-08	5.653307e+01	8.558084e+02
1.590000e-06	8.348286e-06	1.306264e-08	5.666795e+01	8.567857e+02
1.600000e-06	8.365200e-06	1.307830e-08	5.678276e+01	8.575990e+02
1.610000e-06	8.379018e-06	1.308615e-08	5.687656e+01	8.580845e+02
1.620000e-06	8.389621e-06	1.308759e-08	5.694853e+01	8.581834e+02
1.630000e-06	8.397102e-06	1.308874e-08	5.699932e+01	8.579675e+02
1.640000e-06	8.401675e-06	1.308909e-08	5.703036e+01	8.576062e+02
1.650000e-06	8.403317e-06	1.308595e-08	5.704150e+01	8.572907e+02
1.660000e-06	8.402090e-06	1.308288e-08	5.703317e+01	8.571486e+02
1.670000e-06	8.398038e-06	1.307945e-08	5.700566e+01	8.571874e+02
1.680000e-06	8.391120e-06	1.308057e-08	5.695871e+01	8.572904e+02
1.690000e-06	8.381391e-06	1.307955e-08	5.689266e+01	8.572677e+02
1.700000e-06	8.368713e-06	1.307326e-08	5.680661e+01	8.569388e+02
1.710000e-06	8.353214e-06	1.306229e-08	5.670140e+01	8.562118e+02
1.720000e-06	8.335238e-06	1.304915e-08	5.657938e+01	8.551241e+02
1.730000e-06	8.314681e-06	1.304532e-08	5.643984e+01	8.538275e+02
1.740000e-06	8.291030e-06	1.299356e-08	5.627930e+01	8.525245e+02
1.750000e-06	8.263602e-06	1.292543e-08	5.609312e+01	8.513839e+02
1.760000e-06	8.232372e-06	1.292732e-08	5.588113e+01	8.504708e+02
1.770000e-06	8.198187e-06	1.295697e-08	5.564909e+01	8.497226e+02
1.780000e-06	8.161524e-06	1.296106e-08	5.540021e+01	8.489781e+02
1.790000e-06	8.122529e-06	1.294361e-08	5.513552e+01	8.480467e+02
1.800000e-06	8.081557e-06	1.292785e-08	5.485740e+01	8.467875e+02
1.810000e-06	8.038147e-06	1.286481e-08	5.456274e+01	8.451623e+02
1.820000e-06	7.991723e-06	1.288545e-08	5.424761e+01	8.432426e+02
1.830000e-06	7.942397e-06	1.286763e-08	5.391278e+01	8.411677e+02
1.840000e-06	7.889818e-06	1.283187e-08	5.355588e+01	8.390758e+02
1.850000e-06	7.834139e-06	1.283799e-08	5.317794e+01	8.370387e+02
1.860000e-06	7.775738e-06	1.277003e-08	5.278151e+01	8.350311e+02
1.870000e-06	7.714443e-06	1.278204e-08	5.236544e+01	8.329461e+02
1.880000e-06	7.650436e-06	1.267862e-08	5.193096e+01	8.306499e+02
1.890000e-06	7.583591e-06	1.261959e-08	5.147722e+01	8.280484e+02
1.900000e-06	7.513838e-06	1.260548e-08	5.100374e+01	8.251363e+02
1.910000e-06	7.441188e-06	1.253983e-08	5.051059e+01	8.220023e+02
1.920000e-06	7.365644e-06	1.256422e-08	4.999780e+01	8.187907e+02
1.930000e-06	7.287425e-06	1.248316e-08	4.946686e+01	8.156340e+02
1.940000e-06	7.206609e-06	1.245386e-08	4.891828e+01	8.125891e+02
1.950000e-06	7.123320e-06	1.238088e-08	4.835291e+01	8.096062e+02
1.960000e-06	7.037368e-06	1.230031e-08	4.776947e+01	8.065461e+02
1.970000e-06	6.948832e-06	1.226301e-08	4.716850e+01	8.032389e+02
1.980000e-06	6.857902e-06	1.216742e-08	4.655126e+01	7.995591e+02
1.990000e-06	6.764502e-06	1.216552e-08	4.591727e+01	7.954829e+02
2.000000e-06	6.668690e-06	1.210271e-08	4.526690e+01	7.911010e+02
2.010000e-06	6.570459e-06	1.205749e-08	4.460011e+01	7.865795e+02
2.020000e-06	6.469887e-06	1.196876e-08	4.391743e+01	7.820866e+02
2.030000e-06	6.366992e-06	1.187350e-08	4.321898e+01	7.777155e+02
2.040000e-06	6.261856e-06	1.180763e-08	4.250532e+01	7.734399e+02
2.050000e-06	6.154488e-06	1.172931e-08	4.177650e+01	7.691227e+02
2.060000e-06	6.044937e-06	1.167387e-08	4.103288e+01	7.645740e+02
2.070000e-06	5.933190e-06	1.159374e-08	4.027434e+01	7.596361e+02
2.080000e-06	5.819114e-06	1.153164e-08	3.949999e+01	7.542546e+02
2.090000e-06	5.702760e-06	1.144362e-08	3.871019e+01	7.485049e+02
2.100000e-06	5.584147e-06	1.134896e-08	3.790504e+01	7.425599e+02
2.110000e-06	5.463472e-06	1.124195e-08	3.708591e+01	7.366118e+02
2.120000e-06	5.340899e-06	1.115459e-08	3.625389e+01	7.307821e+02
2.130000e-06	5.216447e-06	1.106598e-08	3.540911e+01	7.250607e+02
2.140000e-06	5.090111e-06	1.098757e-08	3.455154e+01	7.193023e+02
2.150000e-06	4.961893e-06	1.089011e-08	3.368120e+01	7.132852e+02
2.160000e-06	4.831896e-06	1.078603e-08	3.279879e+01	7.068061e+02
2.170000e-06	4.700219e-06	1.067487e-08	3.190497e+01	6.997715e+02
2.180000e-06	4.566900e-06	1.055669e-08	3.100000e+01	6.922421e+02
2.190000e-06	4.431927e-06	1.045065e-08	3.008381e+01	6.844087e+02
2.200000e-06	4.295246e-06	1.033650e-08	2.915602e+01	6.765076e+02
2.210000e-06	4.156910e-06	1.023366e-08	2.821700e+01	6.687110e+02
2.220000e-06	4.017067e-06	1.011015e-08	2.726775e+01	6.610409e+02
2.230000e-06	3.875717e-06	9.981650e-09	2.630827e+01	6.533479e+02
2.240000e-06	3.732857e-06	9.840825e-09	2.533854e+01	6.453661e+02
2.250000e-06	3.588689e-06	9.703789e-09	2.435993e+01	6.368244e+02
2.260000e-06	3.443346e-06	9.564354e-09	2.337334e+01	6.275652e+02
2.270000e-06	3.296687e-06	9.423452e-09	2.237783e+01	6.176172e+02
2.280000e-06	3.148788e-06	9.280878e-09	2.137389e+01	6.071863e+02
2.290000e-06	2.999880e-06	9.133876e-09	2.036311e+01	5.965635e+02
2.300000e-06	2.849953e-06	8.977344e-09	1.934540e+01	5.859875e+02
2.310000e-06	2.698986e-06	8.807728e-09	1.832065e+01	5.755217e+02
2.320000e-06	2.547064e-06	8.630086e-09	1.728941e+01	5.650032e+02
2.330000e-06	2.394264e-06	8.447887e-09	1.625220e+01	5.540928e+02
2.340000e-06	2.240561e-06	8.266047e-09	1.520887e+01	5.424092e+02
2.350000e-06	2.085944e-06	8.075212e-09	1.415934e+01	5.296934e+02
2.360000e-06	1.930570e-06	7.878742e-09	1.310466e+01	5.159285e+02
2.370000e-06	1.774558e-06	7.673097e-09	1.204565e+01	5.013553e+02
2.380000e-06	1.617909e-06	7.459281e-09	1.098233e+01	4.863675e+02
2.390000e-06	1.460711e-06	7.234243e-09	9.915268e+00	4.713213e+02
2.400000e-06	1.303017e-06	6.996770e-09	8.844846e+00	4.563397e+02
2.410000e-06	1.144804e-06	6.745081e-09	7.770903e+00	4.411997e+02
2.420000e-06	9.861969e-07	6.482564e-09	6.694279e+00	4.253643e+02
2.430000e-06	8.273030e-07	6.209489e-09	5.615711e+00	4.081608e+02
2.440000e-06	6.681325e-07	5.921265e-09	4.535266e+00	3.890415e+02
2.450000e-06	5.086583e-07	5.615024e-09	3.452759e+00	3.678149e+02
2.460000e-06	3.489672e-07	5.291482e-09	2.368780e+00	3.447343e+02
2.470000e-06	1.891931e-07	4.947439e-09	1.284238e+00	3.203768e+02
2.480000e-06	2.931096e-08	4.573934e-09	1.989620e-01	2.953253e+02
2.490000e-06	-1.305985e-07	4.166178e-09	-8.864992e-01	2.697568e+02
2.500000e-06	-2.903594e-07	3.719736e-09	-1.970952e+00	2.430942e+02
2.510000e-06	-4.499195e-07	3.235347e-09	-3.054042e+00	2.138820e+02
2.520000e-06	-6.092817e-07	2.703047e-09	-4.135789e+00	1.799845e+02
2.530000e-06	-7.683981e-07	2.101906e-09	-5.215867e+00	1.390959e+02
2.540000e-06	-9.272355e-07	1.403772e-09	-6.294050e+00	8.943880e+01
2.550000e-06	-1.085764e-06	5.743403e-10	-7.370139e+00	3.044082e+01
2.560000e-06	-1.243860e-06	-4.178408e-10	-8.443286e+00	-3.683314e+01
2.570000e-06	-1.401487e-06	-1.568981e-09	-9.513260e+00	-1.096567e+02
2.580000e-06	-1.558641e-06	-2.795652e-09	-1.058001e+01	-1.840680e+02
2.590000e-06	-1.715207e-06	-3.958463e-09	-1.164278e+01	-2.556459e+02
2.600000e-06	-1.871171e-06	-4.946732e-09	-1.270146e+01	-3.204260e+02
2.610000e-06	-2.026522e-06	-5.737436e-09	-1.375598e+01	-3.756957e+02
2.620000e-06	-2.181099e-06	-6.368650e-09	-1.480524e+01	-4.204486e+02
2.630000e-06	-2.334786e-06	-6.885088e-09	-1.584847e+01	-4.553855e+02
2.640000e-06	-2.487636e-06	-7.318784e-09	-1.688601e+01	-4.824910e+02
2.650000e-06	-2.639616e-06	-7.692477e-09	-1.791764e+01	-5.043400e+02
2.660000e-06	-2.790598e-06	-8.021977e-09	-1.894251e+01	-5.233638e+02
2.670000e-06	-2.940542e-06	-8.318502e-09	-1.996033e+01	-5.412907e+02
2.680000e-06	-3.089440e-06	-8.589484e-09	-2.097104e+01	-5.589052e+02
2.690000e-06	-3.237317e-06	-8.837088e-09	-2.197483e+01	-5.761467e+02
2.700000e-06	-3.384003e-06	-9.061909e-09	-2.297052e+01	-5.924584e+02
2.710000e-06	-3.529424e-06	-9.268565e-09	-2.395764e+01	-6.072236e+02
2.720000e-06	-3.673636e-06	-9.461468e-09	-2.493654e+01	-6.201213e+02
2.730000e-06	-3.816428e-06	-9.640708e-09	-2.590581e+01	-6.312850e+02
2.740000e-06	-3.957744e-06	-9.807830e-09	-2.686507e+01	-6.412377e+02
2.750000e-06	-4.097642e-06	-9.967602e-09	-2.781469e+01	-6.506644e+02
2.760000e-06	-4.236011e-06	-1.012393e-08	-2.875394e+01	-6.601371e+02
2.770000e-06	-4.372810e-06	-1.027441e-08	-2.968252e+01	-6.699124e+02
2.780000e-06	-4.507995e-06	-1.041524e-08	-3.060015e+01	-6.798773e+02
2.790000e-06	-4.641560e-06	-1.054733e-08	-3.150679e+01	-6.896517e+02
2.800000e-06	-4.773521e-06	-1.067259e-08	-3.240254e+01	-6.987900e+02
2.810000e-06	-4.903727e-06	-1.079051e-08	-3.328637e+01	-7.069893e+02
2.820000e-06	-5.032171e-06	-1.090100e-08	-3.415825e+01	-7.142166e+02
2.830000e-06	-5.158866e-06	-1.100833e-08	-3.501825e+01	-7.207094e+02
2.840000e-06	-5.283773e-06	-1.111692e-08	-3.586612e+01	-7.268592e+02
2.850000e-06	-5.406837e-06	-1.122450e-08	-3.670147e+01	-7.330387e+02
2.860000e-06	-5.527952e-06	-1.132381e-08	-3.752359e+01	-7.394477e+02
2.870000e-06	-5.646975e-06	-1.141509e-08	-3.833152e+01	-7.460457e+02
2.880000e-06	-5.763854e-06	-1.150276e-08	-3.912489e+01	-7.525920e+02
2.890000e-06	-5.878404e-06	-1.158693e-08	-3.990246e+01	-7.587706e+02
2.900000e-06	-5.990514e-06	-1.166585e-08	-4.066346e+01	-7.643407e+02
2.910000e-06	-6.100356e-06	-1.174067e-08	-4.140906e+01	-7.692454e+02
2.920000e-06	-6.208071e-06	-1.181625e-08	-4.214023e+01	-7.736350e+02
2.930000e-06	-6.313710e-06	-1.189326e-08	-4.285730e+01	-7.777975e+02
2.940000e-06	-6.417100e-06	-1.196812e-08	-4.355911e+01	-7.820310e+02
