# Temperatura_=_41.23
# Concentracion g/m^3_=_13400.0
# C_Vs_to_Am_M_A/Vsm_=_65563218390.804596
# pendiente_HvsI_1/m_=_3716.3
# ordenada_HvsI_A/m_=_1297.0
# frecuencia_Hz_=_301405.35415176576

Tiempo_(s)	Campo_(V.s)	Magnetizacion_(V.s)	Campo_(kA/m)	Magnetizacion_(A/m)
0.000000e+00	-8.416908e-06	-1.064159e-08	-5.692497e+01	-6.977473e+02
1.000000e-08	-8.413001e-06	-1.063426e-08	-5.689854e+01	-6.976841e+02
2.000000e-08	-8.406370e-06	-1.062891e-08	-5.685369e+01	-6.977368e+02
3.000000e-08	-8.396992e-06	-1.062858e-08	-5.679027e+01	-6.977834e+02
4.000000e-08	-8.384718e-06	-1.062765e-08	-5.670726e+01	-6.976742e+02
5.000000e-08	-8.369431e-06	-1.062127e-08	-5.660387e+01	-6.972975e+02
6.000000e-08	-8.351234e-06	-1.060869e-08	-5.648080e+01	-6.966275e+02
7.000000e-08	-8.330501e-06	-1.059414e-08	-5.634058e+01	-6.957349e+02
8.000000e-08	-8.307079e-06	-1.061405e-08	-5.618217e+01	-6.947562e+02
9.000000e-08	-8.280334e-06	-1.063235e-08	-5.600129e+01	-6.938357e+02
1.000000e-07	-8.250229e-06	-1.061120e-08	-5.579769e+01	-6.930658e+02
1.100000e-07	-8.217052e-06	-1.057792e-08	-5.557330e+01	-6.924512e+02
1.200000e-07	-8.180961e-06	-1.054579e-08	-5.532922e+01	-6.919107e+02
1.300000e-07	-8.142311e-06	-1.051305e-08	-5.506782e+01	-6.913156e+02
1.400000e-07	-8.101308e-06	-1.047433e-08	-5.479051e+01	-6.905448e+02
1.500000e-07	-8.057727e-06	-1.051430e-08	-5.449576e+01	-6.895332e+02
1.600000e-07	-8.011260e-06	-1.050252e-08	-5.418150e+01	-6.882918e+02
1.700000e-07	-7.961933e-06	-1.045820e-08	-5.384789e+01	-6.868931e+02
1.800000e-07	-7.909624e-06	-1.049617e-08	-5.349412e+01	-6.854301e+02
1.900000e-07	-7.854244e-06	-1.042992e-08	-5.311958e+01	-6.839683e+02
2.000000e-07	-7.795984e-06	-1.036735e-08	-5.272555e+01	-6.825155e+02
2.100000e-07	-7.734874e-06	-1.033652e-08	-5.231226e+01	-6.810214e+02
2.200000e-07	-7.671005e-06	-1.032138e-08	-5.188030e+01	-6.794061e+02
2.300000e-07	-7.604376e-06	-1.033949e-08	-5.142967e+01	-6.776049e+02
2.400000e-07	-7.534947e-06	-1.029869e-08	-5.096011e+01	-6.756048e+02
2.500000e-07	-7.462719e-06	-1.026657e-08	-5.047162e+01	-6.734557e+02
2.600000e-07	-7.387565e-06	-1.023048e-08	-4.996334e+01	-6.712495e+02
2.700000e-07	-7.309531e-06	-1.020257e-08	-4.943559e+01	-6.690764e+02
2.800000e-07	-7.228701e-06	-1.015346e-08	-4.888892e+01	-6.669785e+02
2.900000e-07	-7.145227e-06	-1.010370e-08	-4.832437e+01	-6.649234e+02
3.000000e-07	-7.059321e-06	-1.009854e-08	-4.774338e+01	-6.628122e+02
3.100000e-07	-6.970991e-06	-1.007417e-08	-4.714598e+01	-6.605196e+02
3.200000e-07	-6.880231e-06	-1.004134e-08	-4.653216e+01	-6.579488e+02
3.300000e-07	-6.787030e-06	-9.974682e-09	-4.590182e+01	-6.550776e+02
3.400000e-07	-6.691421e-06	-9.907432e-09	-4.525521e+01	-6.519723e+02
3.500000e-07	-6.593357e-06	-9.870249e-09	-4.459198e+01	-6.487617e+02
3.600000e-07	-6.492785e-06	-9.839417e-09	-4.391180e+01	-6.455818e+02
3.700000e-07	-6.389855e-06	-9.797198e-09	-4.321567e+01	-6.425133e+02
3.800000e-07	-6.284708e-06	-9.747456e-09	-4.250454e+01	-6.395413e+02
3.900000e-07	-6.177329e-06	-9.711061e-09	-4.177832e+01	-6.365566e+02
4.000000e-07	-6.067723e-06	-9.655313e-09	-4.103703e+01	-6.333983e+02
4.100000e-07	-5.955922e-06	-9.582102e-09	-4.028090e+01	-6.299228e+02
4.200000e-07	-5.841887e-06	-9.507642e-09	-3.950967e+01	-6.260671e+02
4.300000e-07	-5.725517e-06	-9.454222e-09	-3.872263e+01	-6.218793e+02
4.400000e-07	-5.606838e-06	-9.412969e-09	-3.791999e+01	-6.174996e+02
4.500000e-07	-5.486135e-06	-9.363333e-09	-3.710365e+01	-6.131001e+02
4.600000e-07	-5.363548e-06	-9.295933e-09	-3.627458e+01	-6.088065e+02
4.700000e-07	-5.239024e-06	-9.220734e-09	-3.543240e+01	-6.046379e+02
4.800000e-07	-5.112616e-06	-9.150719e-09	-3.457748e+01	-6.004915e+02
4.900000e-07	-4.984422e-06	-9.074844e-09	-3.371049e+01	-5.961808e+02
5.000000e-07	-4.854460e-06	-8.993984e-09	-3.283153e+01	-5.915133e+02
5.100000e-07	-4.722657e-06	-8.913111e-09	-3.194013e+01	-5.863732e+02
5.200000e-07	-4.589114e-06	-8.839795e-09	-3.103695e+01	-5.807739e+02
5.300000e-07	-4.453908e-06	-8.765516e-09	-3.012253e+01	-5.748537e+02
5.400000e-07	-4.317019e-06	-8.680531e-09	-2.919673e+01	-5.688153e+02
5.500000e-07	-4.178574e-06	-8.583569e-09	-2.826040e+01	-5.628339e+02
5.600000e-07	-4.038486e-06	-8.488593e-09	-2.731296e+01	-5.569726e+02
5.700000e-07	-3.896740e-06	-8.398418e-09	-2.635431e+01	-5.511451e+02
5.800000e-07	-3.753550e-06	-8.301392e-09	-2.538589e+01	-5.451433e+02
5.900000e-07	-3.608995e-06	-8.193932e-09	-2.440824e+01	-5.387218e+02
6.000000e-07	-3.463059e-06	-8.081986e-09	-2.342125e+01	-5.317023e+02
6.100000e-07	-3.315869e-06	-7.974298e-09	-2.242578e+01	-5.240540e+02
6.200000e-07	-3.167542e-06	-7.864263e-09	-2.142262e+01	-5.159093e+02
6.300000e-07	-3.018105e-06	-7.743557e-09	-2.041195e+01	-5.075072e+02
6.400000e-07	-2.867630e-06	-7.613308e-09	-1.939426e+01	-4.990823e+02
6.500000e-07	-2.716214e-06	-7.484378e-09	-1.837021e+01	-4.907500e+02
6.600000e-07	-2.563874e-06	-7.350096e-09	-1.733991e+01	-4.824359e+02
6.700000e-07	-2.410627e-06	-7.204373e-09	-1.630348e+01	-4.738884e+02
6.800000e-07	-2.256519e-06	-7.051869e-09	-1.526122e+01	-4.647707e+02
6.900000e-07	-2.101596e-06	-6.899717e-09	-1.421345e+01	-4.547983e+02
7.000000e-07	-1.945882e-06	-6.747527e-09	-1.316033e+01	-4.438627e+02
7.100000e-07	-1.789438e-06	-6.584667e-09	-1.210227e+01	-4.320811e+02
7.200000e-07	-1.632286e-06	-6.407421e-09	-1.103943e+01	-4.197466e+02
7.300000e-07	-1.474493e-06	-6.216847e-09	-9.972246e+00	-4.071901e+02
7.400000e-07	-1.316173e-06	-6.021385e-09	-8.901503e+00	-3.946093e+02
7.500000e-07	-1.157338e-06	-5.816691e-09	-7.827275e+00	-3.819415e+02
7.600000e-07	-9.980682e-07	-5.597670e-09	-6.750103e+00	-3.688392e+02
7.700000e-07	-8.384528e-07	-5.366665e-09	-5.670597e+00	-3.547746e+02
7.800000e-07	-6.785685e-07	-5.128152e-09	-4.589273e+00	-3.392346e+02
7.900000e-07	-5.184521e-07	-4.882343e-09	-3.506379e+00	-3.219302e+02
8.000000e-07	-3.581970e-07	-4.615901e-09	-2.422546e+00	-3.029205e+02
8.100000e-07	-1.978734e-07	-4.320062e-09	-1.338251e+00	-2.825799e+02
8.200000e-07	-3.741691e-08	-3.999719e-09	-2.530568e-01	-2.613937e+02
8.300000e-07	1.230851e-07	-3.660416e-09	8.324454e-01	-2.396409e+02
8.400000e-07	2.835136e-07	-3.294037e-09	1.917450e+00	-2.170799e+02
8.500000e-07	4.438301e-07	-2.891023e-09	3.001698e+00	-1.927740e+02
8.600000e-07	6.040175e-07	-2.446244e-09	4.085072e+00	-1.651577e+02
8.700000e-07	7.640074e-07	-1.951755e-09	5.167111e+00	-1.323698e+02
8.800000e-07	9.237319e-07	-1.384524e-09	6.247354e+00	-9.278293e+01
8.900000e-07	1.083119e-06	-7.090730e-10	7.325318e+00	-4.557694e+01
9.000000e-07	1.242077e-06	1.000013e-10	8.400374e+00	8.825670e+00
9.100000e-07	1.400623e-06	1.037089e-09	9.472648e+00	6.862009e+01
9.200000e-07	1.558622e-06	2.043080e-09	1.054122e+01	1.308454e+02
9.300000e-07	1.716014e-06	3.018576e-09	1.160569e+01	1.919350e+02
9.400000e-07	1.872791e-06	3.876810e-09	1.266600e+01	2.484441e+02
9.500000e-07	2.028884e-06	4.582639e-09	1.372168e+01	2.977514e+02
9.600000e-07	2.184230e-06	5.146857e-09	1.477232e+01	3.385358e+02
9.700000e-07	2.338648e-06	5.605025e-09	1.581667e+01	3.709046e+02
9.800000e-07	2.492132e-06	5.991352e-09	1.685471e+01	3.961550e+02
9.900000e-07	2.644766e-06	6.322772e-09	1.788700e+01	4.162677e+02
1.000000e-06	2.796512e-06	6.607587e-09	1.891328e+01	4.333017e+02
1.010000e-06	2.947317e-06	6.857886e-09	1.993320e+01	4.488782e+02
1.020000e-06	3.097068e-06	7.086816e-09	2.094599e+01	4.638939e+02
1.030000e-06	3.245684e-06	7.297191e-09	2.195111e+01	4.785141e+02
1.040000e-06	3.393153e-06	7.487995e-09	2.294846e+01	4.924015e+02
1.050000e-06	3.539381e-06	7.660763e-09	2.393743e+01	5.050603e+02
1.060000e-06	3.684324e-06	7.820875e-09	2.491770e+01	5.161567e+02
1.070000e-06	3.827972e-06	7.972917e-09	2.588922e+01	5.257019e+02
1.080000e-06	3.970191e-06	8.114789e-09	2.685107e+01	5.340519e+02
1.090000e-06	4.110845e-06	8.246784e-09	2.780234e+01	5.417541e+02
1.100000e-06	4.249856e-06	8.372600e-09	2.874249e+01	5.493240e+02
1.110000e-06	4.387276e-06	8.492819e-09	2.967188e+01	5.570547e+02
1.120000e-06	4.523104e-06	8.604915e-09	3.059052e+01	5.649344e+02
1.130000e-06	4.657278e-06	8.709151e-09	3.149795e+01	5.726979e+02
1.140000e-06	4.789823e-06	8.810678e-09	3.239438e+01	5.799780e+02
1.150000e-06	4.920641e-06	8.909748e-09	3.327912e+01	5.864852e+02
1.160000e-06	5.049671e-06	8.999661e-09	3.415177e+01	5.921398e+02
1.170000e-06	5.176942e-06	9.080437e-09	3.501253e+01	5.971026e+02
1.180000e-06	5.302485e-06	9.157706e-09	3.586159e+01	6.017006e+02
1.190000e-06	5.426159e-06	9.234206e-09	3.669802e+01	6.062864e+02
1.200000e-06	5.547859e-06	9.308300e-09	3.752110e+01	6.110940e+02
1.210000e-06	5.667527e-06	9.376324e-09	3.833044e+01	6.161538e+02
1.220000e-06	5.785027e-06	9.442458e-09	3.912511e+01	6.212984e+02
1.230000e-06	5.900268e-06	9.510869e-09	3.990451e+01	6.262523e+02
1.240000e-06	6.013228e-06	9.577782e-09	4.066847e+01	6.307614e+02
1.250000e-06	6.124064e-06	9.639313e-09	4.141808e+01	6.347055e+02
1.260000e-06	6.232858e-06	9.695556e-09	4.215386e+01	6.381473e+02
1.270000e-06	6.339426e-06	9.750719e-09	4.287460e+01	6.412984e+02
1.280000e-06	6.443620e-06	9.806335e-09	4.357929e+01	6.444229e+02
1.290000e-06	6.545521e-06	9.859515e-09	4.426846e+01	6.477210e+02
1.300000e-06	6.645053e-06	9.908114e-09	4.494161e+01	6.512457e+02
1.310000e-06	6.742075e-06	9.953269e-09	4.559779e+01	6.548854e+02
1.320000e-06	6.836730e-06	9.999012e-09	4.623795e+01	6.584190e+02
1.330000e-06	6.929075e-06	1.004505e-08	4.686250e+01	6.616155e+02
1.340000e-06	7.018970e-06	1.008819e-08	4.747047e+01	6.643362e+02
1.350000e-06	7.106386e-06	1.012929e-08	4.806168e+01	6.665931e+02
1.360000e-06	7.191402e-06	1.016920e-08	4.863666e+01	6.685411e+02
1.370000e-06	7.273911e-06	1.020656e-08	4.919469e+01	6.704096e+02
1.380000e-06	7.353735e-06	1.023897e-08	4.973454e+01	6.724044e+02
1.390000e-06	7.430851e-06	1.026767e-08	5.025610e+01	6.746224e+02
1.400000e-06	7.505194e-06	1.029794e-08	5.075889e+01	6.770161e+02
1.410000e-06	7.576785e-06	1.032999e-08	5.124307e+01	6.794210e+02
1.420000e-06	7.645710e-06	1.036208e-08	5.170923e+01	6.816308e+02
1.430000e-06	7.711854e-06	1.039273e-08	5.215656e+01	6.834892e+02
1.440000e-06	7.775283e-06	1.042148e-08	5.258555e+01	6.849555e+02
1.450000e-06	7.836098e-06	1.044521e-08	5.299685e+01	6.861187e+02
1.460000e-06	7.894092e-06	1.046424e-08	5.338907e+01	6.871546e+02
1.470000e-06	7.949233e-06	1.048213e-08	5.376200e+01	6.882469e+02
1.480000e-06	8.001254e-06	1.049880e-08	5.411383e+01	6.895074e+02
1.490000e-06	8.050018e-06	1.051491e-08	5.444363e+01	6.909297e+02
1.500000e-06	8.095932e-06	1.053315e-08	5.475415e+01	6.923959e+02
1.510000e-06	8.139011e-06	1.055534e-08	5.504550e+01	6.937321e+02
1.520000e-06	8.179158e-06	1.057601e-08	5.531702e+01	6.947864e+02
1.530000e-06	8.216527e-06	1.059178e-08	5.556975e+01	6.954959e+02
1.540000e-06	8.251031e-06	1.060204e-08	5.580311e+01	6.959139e+02
1.550000e-06	8.282579e-06	1.060893e-08	5.601648e+01	6.961850e+02
1.560000e-06	8.311256e-06	1.061679e-08	5.621042e+01	6.964818e+02
1.570000e-06	8.336943e-06	1.062338e-08	5.638415e+01	6.969302e+02
1.580000e-06	8.359660e-06	1.063004e-08	5.653778e+01	6.975568e+02
1.590000e-06	8.379580e-06	1.064231e-08	5.667251e+01	6.982802e+02
1.600000e-06	8.396526e-06	1.065622e-08	5.678712e+01	6.989494e+02
1.610000e-06	8.410263e-06	1.066449e-08	5.688002e+01	6.994112e+02
1.620000e-06	8.420754e-06	1.066501e-08	5.695098e+01	6.995775e+02
1.630000e-06	8.428157e-06	1.066392e-08	5.700104e+01	6.994622e+02
1.640000e-06	8.432628e-06	1.066532e-08	5.703128e+01	6.991727e+02
1.650000e-06	8.434139e-06	1.066646e-08	5.704150e+01	6.988612e+02
1.660000e-06	8.432811e-06	1.066143e-08	5.703252e+01	6.986570e+02
1.670000e-06	8.428684e-06	1.065825e-08	5.700460e+01	6.986096e+02
1.680000e-06	8.421704e-06	1.066070e-08	5.695740e+01	6.986683e+02
1.690000e-06	8.411920e-06	1.065978e-08	5.689123e+01	6.987049e+02
1.700000e-06	8.399153e-06	1.065582e-08	5.680488e+01	6.985709e+02
1.710000e-06	8.383518e-06	1.065231e-08	5.669914e+01	6.981620e+02
1.720000e-06	8.365426e-06	1.065443e-08	5.657678e+01	6.974629e+02
1.730000e-06	8.344761e-06	1.062807e-08	5.643702e+01	6.965536e+02
1.740000e-06	8.320943e-06	1.057529e-08	5.627594e+01	6.955744e+02
1.750000e-06	8.293285e-06	1.055665e-08	5.608888e+01	6.946667e+02
1.760000e-06	8.261831e-06	1.055597e-08	5.587615e+01	6.939147e+02
1.770000e-06	8.227441e-06	1.056498e-08	5.564357e+01	6.933128e+02
1.780000e-06	8.190534e-06	1.059855e-08	5.539396e+01	6.927727e+02
1.790000e-06	8.151366e-06	1.060693e-08	5.512906e+01	6.921637e+02
1.800000e-06	8.110262e-06	1.051836e-08	5.485107e+01	6.913686e+02
1.810000e-06	8.066620e-06	1.052498e-08	5.455591e+01	6.903302e+02
1.820000e-06	8.019999e-06	1.052495e-08	5.424060e+01	6.890675e+02
1.830000e-06	7.970524e-06	1.048077e-08	5.390600e+01	6.876573e+02
1.840000e-06	7.917724e-06	1.051375e-08	5.354890e+01	6.861918e+02
1.850000e-06	7.861846e-06	1.045863e-08	5.317098e+01	6.847315e+02
1.860000e-06	7.803206e-06	1.047909e-08	5.277440e+01	6.832773e+02
1.870000e-06	7.741652e-06	1.045261e-08	5.235809e+01	6.817738e+02
1.880000e-06	7.677386e-06	1.036372e-08	5.192345e+01	6.801408e+02
1.890000e-06	7.610235e-06	1.034698e-08	5.146930e+01	6.783175e+02
1.900000e-06	7.540225e-06	1.028963e-08	5.099581e+01	6.762977e+02
1.910000e-06	7.467266e-06	1.029815e-08	5.050238e+01	6.741374e+02
1.920000e-06	7.391399e-06	1.028805e-08	4.998927e+01	6.719307e+02
1.930000e-06	7.312908e-06	1.025126e-08	4.945843e+01	6.697646e+02
1.940000e-06	7.231754e-06	1.021983e-08	4.890957e+01	6.676739e+02
1.950000e-06	7.148031e-06	1.016249e-08	4.834334e+01	6.656181e+02
1.960000e-06	7.061657e-06	1.012929e-08	4.775917e+01	6.634932e+02
1.970000e-06	6.972761e-06	1.006540e-08	4.715796e+01	6.611741e+02
1.980000e-06	6.881464e-06	1.003185e-08	4.654049e+01	6.585704e+02
1.990000e-06	6.787708e-06	1.001518e-08	4.590641e+01	6.556692e+02
2.000000e-06	6.691576e-06	9.987239e-09	4.525626e+01	6.525455e+02
2.010000e-06	6.593059e-06	9.940479e-09	4.458997e+01	6.493319e+02
2.020000e-06	6.492149e-06	9.872780e-09	4.390749e+01	6.461613e+02
2.030000e-06	6.388799e-06	9.810124e-09	4.320852e+01	6.431053e+02
2.040000e-06	6.283193e-06	9.762527e-09	4.249429e+01	6.401384e+02
2.050000e-06	6.175381e-06	9.723491e-09	4.176514e+01	6.371428e+02
2.060000e-06	6.065365e-06	9.675148e-09	4.102108e+01	6.339561e+02
2.070000e-06	5.953058e-06	9.628692e-09	4.026153e+01	6.304408e+02
2.080000e-06	5.838411e-06	9.567633e-09	3.948616e+01	6.265450e+02
2.090000e-06	5.721537e-06	9.506978e-09	3.869571e+01	6.223284e+02
2.100000e-06	5.602439e-06	9.427880e-09	3.789024e+01	6.179383e+02
2.110000e-06	5.481286e-06	9.356993e-09	3.707086e+01	6.135454e+02
2.120000e-06	5.358177e-06	9.299556e-09	3.623825e+01	6.092662e+02
2.130000e-06	5.233196e-06	9.242133e-09	3.539299e+01	6.051066e+02
2.140000e-06	5.106330e-06	9.186221e-09	3.453497e+01	6.009520e+02
2.150000e-06	4.977614e-06	9.106568e-09	3.366444e+01	5.966113e+02
2.160000e-06	4.847108e-06	9.028124e-09	3.278181e+01	5.918964e+02
2.170000e-06	4.714906e-06	8.942241e-09	3.188770e+01	5.867038e+02
2.180000e-06	4.581094e-06	8.859328e-09	3.098271e+01	5.810614e+02
2.190000e-06	4.445593e-06	8.779147e-09	3.006629e+01	5.751182e+02
2.200000e-06	4.308363e-06	8.700981e-09	2.913819e+01	5.690786e+02
2.210000e-06	4.169494e-06	8.623064e-09	2.819899e+01	5.631093e+02
2.220000e-06	4.029109e-06	8.529868e-09	2.724954e+01	5.572581e+02
2.230000e-06	3.887220e-06	8.424048e-09	2.628993e+01	5.514231e+02
2.240000e-06	3.743868e-06	8.314792e-09	2.532041e+01	5.453876e+02
2.250000e-06	3.599160e-06	8.210487e-09	2.434172e+01	5.389081e+02
2.260000e-06	3.453210e-06	8.105475e-09	2.335464e+01	5.318195e+02
2.270000e-06	3.306027e-06	7.998063e-09	2.235921e+01	5.241087e+02
2.280000e-06	3.157652e-06	7.888029e-09	2.135573e+01	5.159238e+02
2.290000e-06	3.008167e-06	7.775689e-09	2.034474e+01	5.075090e+02
2.300000e-06	2.857721e-06	7.650621e-09	1.932724e+01	4.990913e+02
2.310000e-06	2.706301e-06	7.515575e-09	1.830317e+01	4.907677e+02
2.320000e-06	2.553816e-06	7.371680e-09	1.727188e+01	4.824429e+02
2.330000e-06	2.400349e-06	7.229470e-09	1.623397e+01	4.738504e+02
2.340000e-06	2.245962e-06	7.086644e-09	1.518982e+01	4.646522e+02
2.350000e-06	2.090772e-06	6.936824e-09	1.414024e+01	4.545776e+02
2.360000e-06	1.934925e-06	6.778486e-09	1.308622e+01	4.435416e+02
2.370000e-06	1.778448e-06	6.610729e-09	1.202795e+01	4.316844e+02
2.380000e-06	1.621373e-06	6.436391e-09	1.096562e+01	4.193110e+02
2.390000e-06	1.463686e-06	6.248706e-09	9.899157e+00	4.067459e+02
2.400000e-06	1.305446e-06	6.048998e-09	8.828953e+00	3.941639e+02
2.410000e-06	1.146764e-06	5.838486e-09	7.755759e+00	3.814703e+02
2.420000e-06	9.876666e-07	5.623904e-09	6.679755e+00	3.682915e+02
2.430000e-06	8.281757e-07	5.399236e-09	5.601092e+00	3.540907e+02
2.440000e-06	6.683637e-07	5.158578e-09	4.520256e+00	3.383696e+02
2.450000e-06	5.082837e-07	4.900866e-09	3.437608e+00	3.208729e+02
2.460000e-06	3.479992e-07	4.630552e-09	2.353577e+00	3.016982e+02
2.470000e-06	1.875687e-07	4.345065e-09	1.268559e+00	2.812443e+02
2.480000e-06	2.704828e-08	4.032232e-09	1.829320e-01	2.599907e+02
2.490000e-06	-1.334742e-07	3.685102e-09	-9.027085e-01	2.381741e+02
2.500000e-06	-2.938721e-07	3.305701e-09	-1.987506e+00	2.154833e+02
2.510000e-06	-4.540590e-07	2.900774e-09	-3.070877e+00	1.909061e+02
2.520000e-06	-6.140378e-07	2.458998e-09	-4.152841e+00	1.628252e+02
2.530000e-06	-7.737710e-07	1.959933e-09	-5.233143e+00	1.293769e+02
2.540000e-06	-9.332089e-07	1.384094e-09	-6.311449e+00	8.899346e+01
2.550000e-06	-1.092303e-06	7.075224e-10	-7.387431e+00	4.097144e+01
2.560000e-06	-1.251048e-06	-9.886464e-11	-8.461050e+00	-1.411907e+01
2.570000e-06	-1.409367e-06	-1.039524e-09	-9.531785e+00	-7.433207e+01
2.580000e-06	-1.567147e-06	-2.057460e-09	-1.059888e+01	-1.366108e+02
2.590000e-06	-1.724279e-06	-3.043496e-09	-1.166159e+01	-1.973655e+02
2.600000e-06	-1.880744e-06	-3.905803e-09	-1.271979e+01	-2.532086e+02
2.610000e-06	-2.036606e-06	-4.613017e-09	-1.377391e+01	-3.016406e+02
2.620000e-06	-2.191778e-06	-5.181369e-09	-1.482337e+01	-3.414944e+02
2.630000e-06	-2.346083e-06	-5.641497e-09	-1.586696e+01	-3.730217e+02
2.640000e-06	-2.499534e-06	-6.022489e-09	-1.690477e+01	-3.976207e+02
2.650000e-06	-2.652095e-06	-6.351419e-09	-1.793656e+01	-4.173094e+02
2.660000e-06	-2.803623e-06	-6.642506e-09	-1.896138e+01	-4.341213e+02
2.670000e-06	-2.954102e-06	-6.902399e-09	-1.997909e+01	-4.496090e+02
2.680000e-06	-3.103470e-06	-7.135594e-09	-2.098929e+01	-4.645861e+02
2.690000e-06	-3.251747e-06	-7.349984e-09	-2.199211e+01	-4.791501e+02
2.700000e-06	-3.398938e-06	-7.545279e-09	-2.298759e+01	-4.929293e+02
2.710000e-06	-3.544923e-06	-7.717034e-09	-2.397491e+01	-5.054317e+02
2.720000e-06	-3.689624e-06	-7.871498e-09	-2.495354e+01	-5.163550e+02
2.730000e-06	-3.832941e-06	-8.016787e-09	-2.592283e+01	-5.257502e+02
2.740000e-06	-3.974830e-06	-8.157996e-09	-2.688244e+01	-5.340036e+02
2.750000e-06	-4.115239e-06	-8.294349e-09	-2.783205e+01	-5.416698e+02
2.760000e-06	-4.254078e-06	-8.422087e-09	-2.877104e+01	-5.492484e+02
2.770000e-06	-4.391329e-06	-8.539330e-09	-2.969930e+01	-5.570013e+02
2.780000e-06	-4.526989e-06	-8.650823e-09	-3.061679e+01	-5.648848e+02
2.790000e-06	-4.660993e-06	-8.757845e-09	-3.152308e+01	-5.726144e+02
2.800000e-06	-4.793303e-06	-8.854921e-09	-3.241791e+01	-5.798229e+02
2.810000e-06	-4.923915e-06	-8.940319e-09	-3.330127e+01	-5.862385e+02
2.820000e-06	-5.052781e-06	-9.022982e-09	-3.417281e+01	-5.918077e+02
2.830000e-06	-5.179874e-06	-9.109946e-09	-3.503236e+01	-5.967142e+02
2.840000e-06	-5.305129e-06	-9.197882e-09	-3.587948e+01	-6.012953e+02
2.850000e-06	-5.428524e-06	-9.281005e-09	-3.671402e+01	-6.058972e+02
2.860000e-06	-5.550054e-06	-9.356394e-09	-3.753595e+01	-6.107345e+02
2.870000e-06	-5.669555e-06	-9.427807e-09	-3.834415e+01	-6.158145e+02
2.880000e-06	-5.786876e-06	-9.498802e-09	-3.913762e+01	-6.209529e+02
2.890000e-06	-5.901873e-06	-9.566519e-09	-3.991536e+01	-6.258700e+02
2.900000e-06	-6.014404e-06	-9.628984e-09	-4.067643e+01	-6.303215e+02
2.910000e-06	-6.124607e-06	-9.688084e-09	-4.142174e+01	-6.342059e+02
2.920000e-06	-6.232650e-06	-9.746762e-09	-4.215246e+01	-6.376048e+02
2.930000e-06	-6.338592e-06	-9.804814e-09	-4.286897e+01	-6.407409e+02
2.940000e-06	-6.442334e-06	-9.859293e-09	-4.357059e+01	-6.438767e+02
