# Temperatura_=_43.41
# Concentracion g/m^3_=_13400.0
# C_Vs_to_Am_M_A/Vsm_=_65563218390.804596
# pendiente_HvsI_1/m_=_3716.3
# ordenada_HvsI_A/m_=_1297.0
# frecuencia_Hz_=_301397.67029596603

Tiempo_(s)	Campo_(V.s)	Magnetizacion_(V.s)	Campo_(kA/m)	Magnetizacion_(A/m)
0.000000e+00	-8.429538e-06	-1.050095e-08	-5.692695e+01	-6.879022e+02
1.000000e-08	-8.425323e-06	-1.049776e-08	-5.689848e+01	-6.878975e+02
2.000000e-08	-8.418413e-06	-1.049217e-08	-5.685182e+01	-6.880159e+02
3.000000e-08	-8.408768e-06	-1.048696e-08	-5.678669e+01	-6.881163e+02
4.000000e-08	-8.396185e-06	-1.048112e-08	-5.670171e+01	-6.880355e+02
5.000000e-08	-8.380530e-06	-1.047523e-08	-5.659599e+01	-6.876583e+02
6.000000e-08	-8.362022e-06	-1.046380e-08	-5.647100e+01	-6.869672e+02
7.000000e-08	-8.341029e-06	-1.044859e-08	-5.632923e+01	-6.860506e+02
8.000000e-08	-8.317237e-06	-1.048634e-08	-5.616855e+01	-6.850656e+02
9.000000e-08	-8.290088e-06	-1.050445e-08	-5.598521e+01	-6.841730e+02
1.000000e-07	-8.259622e-06	-1.046913e-08	-5.577946e+01	-6.834723e+02
1.100000e-07	-8.226069e-06	-1.043578e-08	-5.555287e+01	-6.829632e+02
1.200000e-07	-8.189607e-06	-1.040223e-08	-5.530663e+01	-6.825495e+02
1.300000e-07	-8.150639e-06	-1.036187e-08	-5.504347e+01	-6.820812e+02
1.400000e-07	-8.109304e-06	-1.032399e-08	-5.476432e+01	-6.814166e+02
1.500000e-07	-8.065339e-06	-1.038503e-08	-5.446742e+01	-6.804756e+02
1.600000e-07	-8.018499e-06	-1.035761e-08	-5.415109e+01	-6.792633e+02
1.700000e-07	-7.968714e-06	-1.033250e-08	-5.381488e+01	-6.778559e+02
1.800000e-07	-7.915813e-06	-1.037575e-08	-5.345763e+01	-6.763566e+02
1.900000e-07	-7.859908e-06	-1.027501e-08	-5.308009e+01	-6.748453e+02
2.000000e-07	-7.801205e-06	-1.022162e-08	-5.268365e+01	-6.733433e+02
2.100000e-07	-7.739705e-06	-1.017810e-08	-5.226832e+01	-6.718103e+02
2.200000e-07	-7.675494e-06	-1.016230e-08	-5.183469e+01	-6.701725e+02
2.300000e-07	-7.608431e-06	-1.019457e-08	-5.138179e+01	-6.683665e+02
2.400000e-07	-7.538528e-06	-1.016163e-08	-5.090972e+01	-6.663777e+02
2.500000e-07	-7.465812e-06	-1.014036e-08	-5.041865e+01	-6.642532e+02
2.600000e-07	-7.390174e-06	-1.010345e-08	-4.990785e+01	-6.620821e+02
2.700000e-07	-7.311696e-06	-1.007719e-08	-4.937786e+01	-6.599521e+02
2.800000e-07	-7.230372e-06	-1.000625e-08	-4.882866e+01	-6.579027e+02
2.900000e-07	-7.146474e-06	-9.952975e-09	-4.826207e+01	-6.558995e+02
3.000000e-07	-7.060249e-06	-9.960507e-09	-4.767977e+01	-6.538406e+02
3.100000e-07	-6.971581e-06	-9.933978e-09	-4.708098e+01	-6.515972e+02
3.200000e-07	-6.880381e-06	-9.914960e-09	-4.646507e+01	-6.490693e+02
3.300000e-07	-6.786757e-06	-9.851791e-09	-4.583281e+01	-6.462322e+02
3.400000e-07	-6.690815e-06	-9.789423e-09	-4.518489e+01	-6.431510e+02
3.500000e-07	-6.592393e-06	-9.745931e-09	-4.452021e+01	-6.399563e+02
3.600000e-07	-6.491448e-06	-9.704984e-09	-4.383851e+01	-6.367874e+02
3.700000e-07	-6.388113e-06	-9.657510e-09	-4.314066e+01	-6.337307e+02
3.800000e-07	-6.282425e-06	-9.606942e-09	-4.242692e+01	-6.307779e+02
3.900000e-07	-6.174476e-06	-9.580186e-09	-4.169791e+01	-6.278252e+02
4.000000e-07	-6.064427e-06	-9.527910e-09	-4.095472e+01	-6.247150e+02
4.100000e-07	-5.952243e-06	-9.460617e-09	-4.019711e+01	-6.213036e+02
4.200000e-07	-5.837737e-06	-9.384145e-09	-3.942382e+01	-6.175245e+02
4.300000e-07	-5.720852e-06	-9.329279e-09	-3.863446e+01	-6.134186e+02
4.400000e-07	-5.601789e-06	-9.284676e-09	-3.783040e+01	-6.091182e+02
4.500000e-07	-5.480765e-06	-9.233794e-09	-3.701309e+01	-6.047880e+02
4.600000e-07	-5.357793e-06	-9.167548e-09	-3.618263e+01	-6.005497e+02
4.700000e-07	-5.232891e-06	-9.096225e-09	-3.533913e+01	-5.964227e+02
4.800000e-07	-5.106137e-06	-9.030411e-09	-3.448313e+01	-5.923090e+02
4.900000e-07	-4.977576e-06	-8.953133e-09	-3.361492e+01	-5.880299e+02
5.000000e-07	-4.847190e-06	-8.872494e-09	-3.273438e+01	-5.834006e+02
5.100000e-07	-4.714933e-06	-8.790076e-09	-3.184122e+01	-5.783105e+02
5.200000e-07	-4.580942e-06	-8.719574e-09	-3.093634e+01	-5.727733e+02
5.300000e-07	-4.445362e-06	-8.647671e-09	-3.002073e+01	-5.669227e+02
5.400000e-07	-4.308214e-06	-8.562076e-09	-2.909453e+01	-5.609539e+02
5.500000e-07	-4.169473e-06	-8.462801e-09	-2.815758e+01	-5.550349e+02
5.600000e-07	-4.029019e-06	-8.367460e-09	-2.720905e+01	-5.492258e+02
5.700000e-07	-3.886891e-06	-8.276649e-09	-2.624923e+01	-5.434437e+02
5.800000e-07	-3.743234e-06	-8.177724e-09	-2.527907e+01	-5.374902e+02
5.900000e-07	-3.598171e-06	-8.071144e-09	-2.429942e+01	-5.311322e+02
6.000000e-07	-3.451821e-06	-7.964013e-09	-2.331108e+01	-5.242024e+02
6.100000e-07	-3.304244e-06	-7.862926e-09	-2.231445e+01	-5.166731e+02
6.200000e-07	-3.155581e-06	-7.755765e-09	-2.131049e+01	-5.086700e+02
6.300000e-07	-3.005919e-06	-7.634714e-09	-2.029979e+01	-5.004154e+02
6.400000e-07	-2.855207e-06	-7.501882e-09	-1.928198e+01	-4.921225e+02
6.500000e-07	-2.703462e-06	-7.370243e-09	-1.825721e+01	-4.838873e+02
6.600000e-07	-2.550794e-06	-7.234754e-09	-1.722620e+01	-4.756267e+02
6.700000e-07	-2.397222e-06	-7.092177e-09	-1.618909e+01	-4.670944e+02
6.800000e-07	-2.242758e-06	-6.944667e-09	-1.514595e+01	-4.579737e+02
6.900000e-07	-2.087425e-06	-6.795218e-09	-1.409695e+01	-4.480091e+02
7.000000e-07	-1.931303e-06	-6.643773e-09	-1.304261e+01	-4.371191e+02
7.100000e-07	-1.774500e-06	-6.480915e-09	-1.198368e+01	-4.254375e+02
7.200000e-07	-1.617053e-06	-6.304515e-09	-1.092039e+01	-4.132557e+02
7.300000e-07	-1.458999e-06	-6.113648e-09	-9.853012e+00	-4.008844e+02
7.400000e-07	-1.300382e-06	-5.918009e-09	-8.781831e+00	-3.884902e+02
7.500000e-07	-1.141305e-06	-5.716776e-09	-7.707544e+00	-3.759787e+02
7.600000e-07	-9.818334e-07	-5.504074e-09	-6.630587e+00	-3.629837e+02
7.700000e-07	-8.219978e-07	-5.278473e-09	-5.551174e+00	-3.489786e+02
7.800000e-07	-6.618753e-07	-5.042104e-09	-4.469823e+00	-3.334728e+02
7.900000e-07	-5.015400e-07	-4.794789e-09	-3.387036e+00	-3.162123e+02
8.000000e-07	-3.410847e-07	-4.525364e-09	-2.303437e+00	-2.972895e+02
8.100000e-07	-1.805151e-07	-4.231026e-09	-1.219067e+00	-2.770956e+02
8.200000e-07	-1.990466e-08	-3.914528e-09	-1.344216e-01	-2.561068e+02
8.300000e-07	1.406727e-07	-3.578328e-09	9.500011e-01	-2.345666e+02
8.400000e-07	3.012496e-07	-3.215055e-09	2.034420e+00	-2.121846e+02
8.500000e-07	4.617651e-07	-2.815914e-09	3.118424e+00	-1.879805e+02
8.600000e-07	6.221035e-07	-2.375044e-09	4.201234e+00	-1.603725e+02
8.700000e-07	7.821859e-07	-1.879866e-09	5.282313e+00	-1.275253e+02
8.800000e-07	9.420057e-07	-1.307449e-09	6.361619e+00	-8.788091e+01
8.900000e-07	1.101497e-06	-6.284310e-10	7.438705e+00	-4.072041e+01
9.000000e-07	1.260589e-06	1.778631e-10	8.513099e+00	1.342735e+01
9.100000e-07	1.419230e-06	1.105715e-09	9.584445e+00	7.267645e+01
9.200000e-07	1.577402e-06	2.097540e-09	1.065262e+01	1.340367e+02
9.300000e-07	1.735019e-06	3.054408e-09	1.171705e+01	1.939769e+02
9.400000e-07	1.891964e-06	3.888593e-09	1.277694e+01	2.491487e+02
9.500000e-07	2.048215e-06	4.569522e-09	1.383215e+01	2.970652e+02
9.600000e-07	2.203656e-06	5.115943e-09	1.488189e+01	3.365463e+02
9.700000e-07	2.358218e-06	5.563486e-09	1.592569e+01	3.678125e+02
9.800000e-07	2.511922e-06	5.939527e-09	1.696369e+01	3.922225e+02
9.900000e-07	2.664731e-06	6.259169e-09	1.799565e+01	4.117579e+02
1.000000e-06	2.816668e-06	6.536128e-09	1.902172e+01	4.284265e+02
1.010000e-06	2.967646e-06	6.785120e-09	2.004131e+01	4.437692e+02
1.020000e-06	3.117465e-06	7.012730e-09	2.105309e+01	4.586005e+02
1.030000e-06	3.266092e-06	7.216599e-09	2.205680e+01	4.730257e+02
1.040000e-06	3.413543e-06	7.400645e-09	2.305258e+01	4.866829e+02
1.050000e-06	3.559797e-06	7.574112e-09	2.404027e+01	4.990862e+02
1.060000e-06	3.704824e-06	7.737186e-09	2.501968e+01	5.099336e+02
1.070000e-06	3.848552e-06	7.884868e-09	2.599032e+01	5.192713e+02
1.080000e-06	3.990794e-06	8.019203e-09	2.695091e+01	5.274772e+02
1.090000e-06	4.131427e-06	8.147022e-09	2.790064e+01	5.350978e+02
1.100000e-06	4.270493e-06	8.273110e-09	2.883980e+01	5.426260e+02
1.110000e-06	4.407984e-06	8.394981e-09	2.976831e+01	5.503201e+02
1.120000e-06	4.543815e-06	8.507416e-09	3.068561e+01	5.581359e+02
1.130000e-06	4.678035e-06	8.612953e-09	3.159204e+01	5.657895e+02
1.140000e-06	4.810602e-06	8.714090e-09	3.248730e+01	5.729154e+02
1.150000e-06	4.941403e-06	8.807502e-09	3.337063e+01	5.792436e+02
1.160000e-06	5.070441e-06	8.890482e-09	3.424206e+01	5.847226e+02
1.170000e-06	5.197734e-06	8.966535e-09	3.510171e+01	5.895388e+02
1.180000e-06	5.323234e-06	9.043680e-09	3.594924e+01	5.940326e+02
1.190000e-06	5.446807e-06	9.123067e-09	3.678376e+01	5.985533e+02
1.200000e-06	5.568429e-06	9.199458e-09	3.760511e+01	6.033180e+02
1.210000e-06	5.688041e-06	9.268532e-09	3.841288e+01	6.083347e+02
1.220000e-06	5.805517e-06	9.333070e-09	3.920623e+01	6.134171e+02
1.230000e-06	5.920740e-06	9.396954e-09	3.998436e+01	6.182813e+02
1.240000e-06	6.033679e-06	9.458871e-09	4.074707e+01	6.226779e+02
1.250000e-06	6.144454e-06	9.516037e-09	4.149516e+01	6.265010e+02
1.260000e-06	6.253102e-06	9.570199e-09	4.222889e+01	6.298303e+02
1.270000e-06	6.359567e-06	9.626691e-09	4.294788e+01	6.328898e+02
1.280000e-06	6.463733e-06	9.683341e-09	4.365134e+01	6.359465e+02
1.290000e-06	6.565529e-06	9.735019e-09	4.433879e+01	6.391940e+02
1.300000e-06	6.664960e-06	9.780108e-09	4.501028e+01	6.426729e+02
1.310000e-06	6.761991e-06	9.823360e-09	4.566556e+01	6.462590e+02
1.320000e-06	6.856632e-06	9.869321e-09	4.630469e+01	6.497242e+02
1.330000e-06	6.948842e-06	9.914677e-09	4.692741e+01	6.528388e+02
1.340000e-06	7.038566e-06	9.955912e-09	4.753334e+01	6.554713e+02
1.350000e-06	7.125844e-06	9.995207e-09	4.812275e+01	6.576433e+02
1.360000e-06	7.210723e-06	1.003504e-08	4.869596e+01	6.595157e+02
1.370000e-06	7.293033e-06	1.007066e-08	4.925182e+01	6.613171e+02
1.380000e-06	7.372675e-06	1.009970e-08	4.978967e+01	6.632453e+02
1.390000e-06	7.449632e-06	1.012847e-08	5.030938e+01	6.653862e+02
1.400000e-06	7.523748e-06	1.016117e-08	5.080991e+01	6.676831e+02
1.410000e-06	7.595121e-06	1.019249e-08	5.129191e+01	6.699695e+02
1.420000e-06	7.663841e-06	1.021912e-08	5.175599e+01	6.720477e+02
1.430000e-06	7.729800e-06	1.024481e-08	5.220143e+01	6.737775e+02
1.440000e-06	7.793018e-06	1.027046e-08	5.262836e+01	6.751374e+02
1.450000e-06	7.853557e-06	1.029235e-08	5.303719e+01	6.762315e+02
1.460000e-06	7.911348e-06	1.031177e-08	5.342747e+01	6.772410e+02
1.470000e-06	7.966301e-06	1.033301e-08	5.379859e+01	6.783429e+02
1.480000e-06	8.018130e-06	1.035518e-08	5.414860e+01	6.796328e+02
1.490000e-06	8.066742e-06	1.037442e-08	5.447689e+01	6.810842e+02
1.500000e-06	8.112418e-06	1.039116e-08	5.478535e+01	6.825631e+02
1.510000e-06	8.155220e-06	1.040836e-08	5.507441e+01	6.838886e+02
1.520000e-06	8.195122e-06	1.042365e-08	5.534388e+01	6.849137e+02
1.530000e-06	8.232216e-06	1.043635e-08	5.559438e+01	6.855892e+02
1.540000e-06	8.266433e-06	1.044670e-08	5.582546e+01	6.859847e+02
1.550000e-06	8.297692e-06	1.045617e-08	5.603656e+01	6.862572e+02
1.560000e-06	8.326086e-06	1.046688e-08	5.622831e+01	6.865818e+02
1.570000e-06	8.351508e-06	1.047689e-08	5.639999e+01	6.870762e+02
1.580000e-06	8.374012e-06	1.048546e-08	5.655197e+01	6.877509e+02
1.590000e-06	8.393694e-06	1.049513e-08	5.668489e+01	6.885070e+02
1.600000e-06	8.410326e-06	1.050541e-08	5.679721e+01	6.891817e+02
1.610000e-06	8.423776e-06	1.051164e-08	5.688804e+01	6.896205e+02
1.620000e-06	8.433949e-06	1.051278e-08	5.695674e+01	6.897452e+02
1.630000e-06	8.441032e-06	1.051215e-08	5.700457e+01	6.895873e+02
1.640000e-06	8.445241e-06	1.051226e-08	5.703300e+01	6.892729e+02
1.650000e-06	8.446500e-06	1.051432e-08	5.704150e+01	6.889669e+02
1.660000e-06	8.444923e-06	1.051125e-08	5.703085e+01	6.888003e+02
1.670000e-06	8.440493e-06	1.051093e-08	5.700094e+01	6.888132e+02
1.680000e-06	8.433205e-06	1.051224e-08	5.695172e+01	6.889372e+02
1.690000e-06	8.423128e-06	1.050919e-08	5.688366e+01	6.890255e+02
1.700000e-06	8.410050e-06	1.050636e-08	5.679535e+01	6.889167e+02
1.710000e-06	8.394155e-06	1.050695e-08	5.668800e+01	6.885045e+02
1.720000e-06	8.375819e-06	1.051459e-08	5.656417e+01	6.877832e+02
1.730000e-06	8.354822e-06	1.047082e-08	5.642237e+01	6.868508e+02
1.740000e-06	8.330589e-06	1.040905e-08	5.625872e+01	6.858684e+02
1.750000e-06	8.302469e-06	1.040833e-08	5.606882e+01	6.849930e+02
1.760000e-06	8.270595e-06	1.041217e-08	5.585357e+01	6.843145e+02
1.770000e-06	8.235896e-06	1.041985e-08	5.561924e+01	6.838214e+02
1.780000e-06	8.198736e-06	1.046323e-08	5.536828e+01	6.834091e+02
1.790000e-06	8.159324e-06	1.046394e-08	5.510212e+01	6.829257e+02
1.800000e-06	8.117945e-06	1.036281e-08	5.482268e+01	6.822336e+02
1.810000e-06	8.073993e-06	1.038376e-08	5.452586e+01	6.812616e+02
1.820000e-06	8.027043e-06	1.036677e-08	5.420880e+01	6.800236e+02
1.830000e-06	7.977154e-06	1.033383e-08	5.387188e+01	6.786012e+02
1.840000e-06	7.923886e-06	1.037666e-08	5.351215e+01	6.770974e+02
1.850000e-06	7.867556e-06	1.030730e-08	5.313173e+01	6.755870e+02
1.860000e-06	7.808520e-06	1.035800e-08	5.273305e+01	6.740843e+02
1.870000e-06	7.746605e-06	1.031325e-08	5.231492e+01	6.725437e+02
1.880000e-06	7.681968e-06	1.022676e-08	5.187841e+01	6.708900e+02
1.890000e-06	7.614491e-06	1.020432e-08	5.142272e+01	6.690638e+02
1.900000e-06	7.544095e-06	1.013104e-08	5.094732e+01	6.670569e+02
1.910000e-06	7.470749e-06	1.015683e-08	5.045199e+01	6.649226e+02
1.920000e-06	7.394501e-06	1.012425e-08	4.993706e+01	6.627520e+02
1.930000e-06	7.315511e-06	1.012276e-08	4.940363e+01	6.606297e+02
1.940000e-06	7.233962e-06	1.009440e-08	4.885290e+01	6.585881e+02
1.950000e-06	7.149887e-06	1.002234e-08	4.828512e+01	6.565844e+02
1.960000e-06	7.063052e-06	9.993660e-09	4.769870e+01	6.545116e+02
1.970000e-06	6.973747e-06	9.907251e-09	4.709560e+01	6.522413e+02
1.980000e-06	6.882038e-06	9.889081e-09	4.647626e+01	6.496797e+02
1.990000e-06	6.787826e-06	9.863822e-09	4.584003e+01	6.468115e+02
2.000000e-06	6.691284e-06	9.851599e-09	4.518805e+01	6.437111e+02
2.010000e-06	6.592414e-06	9.807920e-09	4.452035e+01	6.405126e+02
2.020000e-06	6.491147e-06	9.743628e-09	4.383647e+01	6.373529e+02
2.030000e-06	6.387406e-06	9.683987e-09	4.313588e+01	6.343094e+02
2.040000e-06	6.281450e-06	9.622055e-09	4.242033e+01	6.313627e+02
2.050000e-06	6.173329e-06	9.581139e-09	4.169016e+01	6.284008e+02
2.060000e-06	6.062932e-06	9.524135e-09	4.094462e+01	6.252641e+02
2.070000e-06	5.950233e-06	9.490728e-09	4.018353e+01	6.218145e+02
2.080000e-06	5.835239e-06	9.435185e-09	3.940695e+01	6.179962e+02
2.090000e-06	5.717928e-06	9.385858e-09	3.861472e+01	6.138617e+02
2.100000e-06	5.598371e-06	9.306640e-09	3.780732e+01	6.095502e+02
2.110000e-06	5.476812e-06	9.236750e-09	3.698640e+01	6.052252e+02
2.120000e-06	5.353354e-06	9.169517e-09	3.615265e+01	6.009998e+02
2.130000e-06	5.228014e-06	9.108392e-09	3.530619e+01	5.968806e+02
2.140000e-06	5.100763e-06	9.051651e-09	3.444683e+01	5.927583e+02
2.150000e-06	4.971712e-06	8.974277e-09	3.357532e+01	5.884496e+02
2.160000e-06	4.840883e-06	8.905798e-09	3.269179e+01	5.837741e+02
2.170000e-06	4.708324e-06	8.824551e-09	3.179659e+01	5.786329e+02
2.180000e-06	4.574102e-06	8.744209e-09	3.089015e+01	5.730537e+02
2.190000e-06	4.438219e-06	8.656910e-09	2.997249e+01	5.671806e+02
2.200000e-06	4.300665e-06	8.576238e-09	2.904356e+01	5.612102e+02
2.210000e-06	4.161486e-06	8.492396e-09	2.810364e+01	5.553023e+02
2.220000e-06	4.020680e-06	8.401839e-09	2.715274e+01	5.495023e+02
2.230000e-06	3.878338e-06	8.301920e-09	2.619146e+01	5.437126e+02
2.240000e-06	3.734659e-06	8.203262e-09	2.522116e+01	5.377263e+02
2.250000e-06	3.589687e-06	8.102537e-09	2.424213e+01	5.313128e+02
2.260000e-06	3.443498e-06	7.996099e-09	2.325487e+01	5.243170e+02
2.270000e-06	3.296082e-06	7.884661e-09	2.225933e+01	5.167283e+02
2.280000e-06	3.147432e-06	7.773239e-09	2.125546e+01	5.086866e+02
2.290000e-06	2.997623e-06	7.661053e-09	2.024376e+01	5.004187e+02
2.300000e-06	2.846762e-06	7.538664e-09	1.922495e+01	4.921301e+02
2.310000e-06	2.694912e-06	7.409368e-09	1.819947e+01	4.838993e+02
2.320000e-06	2.542104e-06	7.271184e-09	1.716752e+01	4.756233e+02
2.330000e-06	2.388376e-06	7.131998e-09	1.612935e+01	4.670430e+02
2.340000e-06	2.233799e-06	6.984968e-09	1.508545e+01	4.578416e+02
2.350000e-06	2.078392e-06	6.831749e-09	1.403595e+01	4.477776e+02
2.360000e-06	1.922191e-06	6.672587e-09	1.298108e+01	4.367926e+02
2.370000e-06	1.765305e-06	6.507713e-09	1.192158e+01	4.250416e+02
2.380000e-06	1.607804e-06	6.335413e-09	1.085794e+01	4.128256e+02
2.390000e-06	1.449650e-06	6.150617e-09	9.789881e+00	4.004476e+02
2.400000e-06	1.290900e-06	5.953151e-09	8.717797e+00	3.880502e+02
2.410000e-06	1.131767e-06	5.745632e-09	7.643127e+00	3.755084e+02
2.420000e-06	9.723199e-07	5.531179e-09	6.566340e+00	3.624313e+02
2.430000e-06	8.125169e-07	5.305419e-09	5.487146e+00	3.482859e+02
2.440000e-06	6.524044e-07	5.067666e-09	4.405863e+00	3.325984e+02
2.450000e-06	4.920480e-07	4.816205e-09	3.322933e+00	3.151489e+02
2.460000e-06	3.314596e-07	4.549941e-09	2.238436e+00	2.960671e+02
2.470000e-06	1.707232e-07	4.262294e-09	1.152940e+00	2.757664e+02
2.480000e-06	9.949495e-09	3.946916e-09	6.719164e-02	2.547138e+02
2.490000e-06	-1.507896e-07	3.601514e-09	-1.018323e+00	2.331088e+02
2.500000e-06	-3.114387e-07	3.225874e-09	-2.103230e+00	2.105905e+02
2.510000e-06	-4.719160e-07	2.822541e-09	-3.186977e+00	1.861053e+02
2.520000e-06	-6.321989e-07	2.382150e-09	-4.269410e+00	1.580235e+02
2.530000e-06	-7.922519e-07	1.887711e-09	-5.350291e+00	1.245119e+02
2.540000e-06	-9.519627e-07	1.315539e-09	-6.428862e+00	8.407698e+01
2.550000e-06	-1.111282e-06	6.378700e-10	-7.504789e+00	3.611803e+01
2.560000e-06	-1.270200e-06	-1.707976e-10	-8.578006e+00	-1.868960e+01
2.570000e-06	-1.428655e-06	-1.107886e-09	-9.648093e+00	-7.832328e+01
2.580000e-06	-1.586607e-06	-2.111480e-09	-1.071479e+01	-1.397035e+02
2.590000e-06	-1.743998e-06	-3.076444e-09	-1.177769e+01	-1.992832e+02
2.600000e-06	-1.900703e-06	-3.913556e-09	-1.283596e+01	-2.537763e+02
2.610000e-06	-2.056708e-06	-4.595487e-09	-1.388950e+01	-3.008204e+02
2.620000e-06	-2.211959e-06	-5.142407e-09	-1.493796e+01	-3.393876e+02
2.630000e-06	-2.366339e-06	-5.589086e-09	-1.598053e+01	-3.698385e+02
2.640000e-06	-2.519889e-06	-5.965789e-09	-1.701749e+01	-3.936264e+02
2.650000e-06	-2.672554e-06	-6.290136e-09	-1.804848e+01	-4.127635e+02
2.660000e-06	-2.824201e-06	-6.572717e-09	-1.907260e+01	-4.292282e+02
2.670000e-06	-2.974759e-06	-6.822619e-09	-2.008935e+01	-4.444910e+02
2.680000e-06	-3.124213e-06	-7.050457e-09	-2.109866e+01	-4.592848e+02
2.690000e-06	-3.272595e-06	-7.261961e-09	-2.210072e+01	-4.736504e+02
2.700000e-06	-3.419837e-06	-7.453337e-09	-2.309509e+01	-4.871957e+02
2.710000e-06	-3.565857e-06	-7.624529e-09	-2.408120e+01	-4.994416e+02
2.720000e-06	-3.710594e-06	-7.780123e-09	-2.505865e+01	-5.101186e+02
2.730000e-06	-3.853958e-06	-7.922830e-09	-2.602682e+01	-5.193125e+02
2.740000e-06	-3.995884e-06	-8.057423e-09	-2.698528e+01	-5.274289e+02
2.750000e-06	-4.136304e-06	-8.188435e-09	-2.793358e+01	-5.350191e+02
2.760000e-06	-4.275156e-06	-8.315569e-09	-2.887128e+01	-5.425582e+02
2.770000e-06	-4.412444e-06	-8.434420e-09	-2.979843e+01	-5.502729e+02
2.780000e-06	-4.548150e-06	-8.545012e-09	-3.071489e+01	-5.580881e+02
2.790000e-06	-4.682183e-06	-8.649692e-09	-3.162005e+01	-5.657026e+02
2.800000e-06	-4.814517e-06	-8.746526e-09	-3.251374e+01	-5.727530e+02
2.810000e-06	-4.945145e-06	-8.832403e-09	-3.339590e+01	-5.789885e+02
2.820000e-06	-5.074037e-06	-8.912598e-09	-3.426635e+01	-5.843840e+02
2.830000e-06	-5.201124e-06	-8.994071e-09	-3.512460e+01	-5.891481e+02
2.840000e-06	-5.326378e-06	-9.077568e-09	-3.597047e+01	-5.936296e+02
2.850000e-06	-5.449808e-06	-9.160050e-09	-3.680403e+01	-5.981696e+02
2.860000e-06	-5.571283e-06	-9.236188e-09	-3.762438e+01	-6.029652e+02
2.870000e-06	-5.690670e-06	-9.308215e-09	-3.843064e+01	-6.080008e+02
2.880000e-06	-5.807892e-06	-9.379089e-09	-3.922227e+01	-6.130741e+02
2.890000e-06	-5.922857e-06	-9.446278e-09	-3.999866e+01	-6.178986e+02
2.900000e-06	-6.035396e-06	-9.506923e-09	-4.075866e+01	-6.222358e+02
2.910000e-06	-6.145568e-06	-9.563482e-09	-4.150269e+01	-6.259992e+02
2.920000e-06	-6.253592e-06	-9.620907e-09	-4.223220e+01	-6.292874e+02
2.930000e-06	-6.359505e-06	-9.677695e-09	-4.294746e+01	-6.323344e+02
2.940000e-06	-6.463216e-06	-9.731214e-09	-4.364785e+01	-6.354047e+02
