# Temperatura_=_26.79
# Concentracion g/m^3_=_13400.0
# C_Vs_to_Am_M_A/Vsm_=_65563218390.804596
# pendiente_HvsI_1/m_=_3716.3
# ordenada_HvsI_A/m_=_1297.0
# frecuencia_Hz_=_301397.58497021016

Tiempo_(s)	Campo_(V.s)	Magnetizacion_(V.s)	Campo_(kA/m)	Magnetizacion_(A/m)
0.000000e+00	-8.411957e-06	-9.613825e-09	-5.693460e+01	-6.298378e+02
1.000000e-08	-8.408336e-06	-9.613852e-09	-5.691009e+01	-6.297105e+02
2.000000e-08	-8.402021e-06	-9.611270e-09	-5.686735e+01	-6.297523e+02
3.000000e-08	-8.392989e-06	-9.604792e-09	-5.680622e+01	-6.298639e+02
4.000000e-08	-8.381009e-06	-9.600631e-09	-5.672514e+01	-6.298905e+02
5.000000e-08	-8.365990e-06	-9.599287e-09	-5.662348e+01	-6.296889e+02
6.000000e-08	-8.348028e-06	-9.594602e-09	-5.650191e+01	-6.291906e+02
7.000000e-08	-8.327517e-06	-9.582324e-09	-5.636309e+01	-6.284323e+02
8.000000e-08	-8.304391e-06	-9.571282e-09	-5.620656e+01	-6.275417e+02
9.000000e-08	-8.277942e-06	-9.607799e-09	-5.602755e+01	-6.266845e+02
1.000000e-07	-8.248101e-06	-9.617810e-09	-5.582557e+01	-6.259960e+02
1.100000e-07	-8.215166e-06	-9.567848e-09	-5.560266e+01	-6.255253e+02
1.200000e-07	-8.179259e-06	-9.518817e-09	-5.535963e+01	-6.252163e+02
1.300000e-07	-8.140781e-06	-9.499822e-09	-5.509920e+01	-6.249318e+02
1.400000e-07	-8.099976e-06	-9.501127e-09	-5.482302e+01	-6.245096e+02
1.500000e-07	-8.056613e-06	-9.485814e-09	-5.452953e+01	-6.238266e+02
1.600000e-07	-8.010433e-06	-9.515465e-09	-5.421697e+01	-6.228431e+02
1.700000e-07	-7.961303e-06	-9.492037e-09	-5.388444e+01	-6.216114e+02
1.800000e-07	-7.909095e-06	-9.477438e-09	-5.353108e+01	-6.202444e+02
1.900000e-07	-7.853916e-06	-9.476888e-09	-5.315761e+01	-6.188626e+02
2.000000e-07	-7.795921e-06	-9.384546e-09	-5.276509e+01	-6.175410e+02
2.100000e-07	-7.735110e-06	-9.356600e-09	-5.235350e+01	-6.162810e+02
2.200000e-07	-7.671568e-06	-9.354722e-09	-5.192343e+01	-6.150161e+02
2.300000e-07	-7.605216e-06	-9.368885e-09	-5.147434e+01	-6.136496e+02
2.400000e-07	-7.536003e-06	-9.361731e-09	-5.100589e+01	-6.121030e+02
2.500000e-07	-7.463955e-06	-9.303057e-09	-5.051825e+01	-6.103543e+02
2.600000e-07	-7.388972e-06	-9.283751e-09	-5.001074e+01	-6.084476e+02
2.700000e-07	-7.311123e-06	-9.245453e-09	-4.948383e+01	-6.064706e+02
2.800000e-07	-7.230458e-06	-9.214320e-09	-4.893787e+01	-6.045106e+02
2.900000e-07	-7.147172e-06	-9.170813e-09	-4.837416e+01	-6.026108e+02
3.000000e-07	-7.061583e-06	-9.153550e-09	-4.779487e+01	-6.007465e+02
3.100000e-07	-6.973626e-06	-9.157514e-09	-4.719955e+01	-5.988333e+02
3.200000e-07	-6.883104e-06	-9.112447e-09	-4.658687e+01	-5.967641e+02
3.300000e-07	-6.790083e-06	-9.061710e-09	-4.595728e+01	-5.944578e+02
3.400000e-07	-6.694695e-06	-8.995352e-09	-4.531167e+01	-5.918965e+02
3.500000e-07	-6.596920e-06	-8.976167e-09	-4.464990e+01	-5.891353e+02
3.600000e-07	-6.496750e-06	-8.955914e-09	-4.397191e+01	-5.862782e+02
3.700000e-07	-6.394223e-06	-8.912400e-09	-4.327798e+01	-5.834310e+02
3.800000e-07	-6.289331e-06	-8.859913e-09	-4.256804e+01	-5.806521e+02
3.900000e-07	-6.182187e-06	-8.809632e-09	-4.184286e+01	-5.779239e+02
4.000000e-07	-6.072854e-06	-8.770480e-09	-4.110286e+01	-5.751581e+02
4.100000e-07	-5.961301e-06	-8.708123e-09	-4.034784e+01	-5.722333e+02
4.200000e-07	-5.847466e-06	-8.655796e-09	-3.957737e+01	-5.690482e+02
4.300000e-07	-5.731278e-06	-8.610284e-09	-3.879098e+01	-5.655665e+02
4.400000e-07	-5.612888e-06	-8.580891e-09	-3.798968e+01	-5.618328e+02
4.500000e-07	-5.492458e-06	-8.534544e-09	-3.717457e+01	-5.579518e+02
4.600000e-07	-5.370062e-06	-8.464934e-09	-3.634616e+01	-5.540387e+02
4.700000e-07	-5.245724e-06	-8.388337e-09	-3.550460e+01	-5.501650e+02
4.800000e-07	-5.119495e-06	-8.321840e-09	-3.465025e+01	-5.463210e+02
4.900000e-07	-4.991465e-06	-8.263626e-09	-3.378370e+01	-5.424169e+02
5.000000e-07	-4.861646e-06	-8.196447e-09	-3.290505e+01	-5.383193e+02
5.100000e-07	-4.730001e-06	-8.129071e-09	-3.201404e+01	-5.339094e+02
5.200000e-07	-4.596651e-06	-8.064030e-09	-3.111149e+01	-5.291360e+02
5.300000e-07	-4.461719e-06	-8.000153e-09	-3.019823e+01	-5.240386e+02
5.400000e-07	-4.325105e-06	-7.919134e-09	-2.927358e+01	-5.187286e+02
5.500000e-07	-4.186818e-06	-7.827145e-09	-2.833761e+01	-5.133363e+02
5.600000e-07	-4.046917e-06	-7.737563e-09	-2.739073e+01	-5.079466e+02
5.700000e-07	-3.905359e-06	-7.657135e-09	-2.643262e+01	-5.025536e+02
5.800000e-07	-3.762204e-06	-7.572558e-09	-2.546370e+01	-4.970550e+02
5.900000e-07	-3.617666e-06	-7.477791e-09	-2.448543e+01	-4.912924e+02
6.000000e-07	-3.471893e-06	-7.380162e-09	-2.349879e+01	-4.851191e+02
6.100000e-07	-3.324952e-06	-7.281867e-09	-2.250426e+01	-4.784658e+02
6.200000e-07	-3.176887e-06	-7.182957e-09	-2.150211e+01	-4.713738e+02
6.300000e-07	-3.027752e-06	-7.074064e-09	-2.049272e+01	-4.639756e+02
6.400000e-07	-2.877601e-06	-6.957885e-09	-1.947645e+01	-4.564314e+02
6.500000e-07	-2.726457e-06	-6.838961e-09	-1.845346e+01	-4.488457e+02
6.600000e-07	-2.574294e-06	-6.716989e-09	-1.742358e+01	-4.412044e+02
6.700000e-07	-2.421123e-06	-6.587566e-09	-1.638687e+01	-4.333618e+02
6.800000e-07	-2.267112e-06	-6.451614e-09	-1.534448e+01	-4.250884e+02
6.900000e-07	-2.112352e-06	-6.313702e-09	-1.429702e+01	-4.161628e+02
7.000000e-07	-1.956763e-06	-6.172956e-09	-1.324395e+01	-4.064668e+02
7.100000e-07	-1.800388e-06	-6.024213e-09	-1.218556e+01	-3.960396e+02
7.200000e-07	-1.643368e-06	-5.862041e-09	-1.112280e+01	-3.850617e+02
7.300000e-07	-1.485745e-06	-5.690636e-09	-1.005596e+01	-3.737670e+02
7.400000e-07	-1.327560e-06	-5.515005e-09	-8.985314e+00	-3.623178e+02
7.500000e-07	-1.168933e-06	-5.333844e-09	-7.911683e+00	-3.506972e+02
7.600000e-07	-1.009950e-06	-5.138671e-09	-6.835641e+00	-3.386698e+02
7.700000e-07	-8.506362e-07	-4.928030e-09	-5.757356e+00	-3.258403e+02
7.800000e-07	-6.910162e-07	-4.708597e-09	-4.677001e+00	-3.117921e+02
7.900000e-07	-5.311516e-07	-4.481115e-09	-3.594990e+00	-2.962540e+02
8.000000e-07	-3.710919e-07	-4.235879e-09	-2.511659e+00	-2.792157e+02
8.100000e-07	-2.108651e-07	-3.967878e-09	-1.427197e+00	-2.609300e+02
8.200000e-07	-5.054664e-08	-3.682727e-09	-3.421145e-01	-2.417739e+02
8.300000e-07	1.097675e-07	-3.381919e-09	7.429385e-01	-2.220033e+02
8.400000e-07	2.700147e-07	-3.057736e-09	1.827539e+00	-2.014868e+02
8.500000e-07	4.301426e-07	-2.697042e-09	2.911331e+00	-1.795294e+02
8.600000e-07	5.900802e-07	-2.295865e-09	3.993836e+00	-1.548816e+02
8.700000e-07	7.498106e-07	-1.851539e-09	5.074939e+00	-1.259735e+02
8.800000e-07	9.093315e-07	-1.348194e-09	6.154623e+00	-9.133441e+01
8.900000e-07	1.068575e-06	-7.560930e-10	7.232428e+00	-5.008533e+01
9.000000e-07	1.227454e-06	-4.748336e-11	8.307768e+00	-2.351615e+00
9.100000e-07	1.385909e-06	7.735735e-10	9.380242e+00	5.054850e+01
9.200000e-07	1.543839e-06	1.661470e-09	1.044915e+01	1.062222e+02
9.300000e-07	1.701196e-06	2.541690e-09	1.151420e+01	1.616169e+02
9.400000e-07	1.857925e-06	3.340649e-09	1.257498e+01	2.136281e+02
9.500000e-07	2.013950e-06	4.013356e-09	1.363100e+01	2.597310e+02
9.600000e-07	2.169222e-06	4.557215e-09	1.468193e+01	2.984590e+02
9.700000e-07	2.323693e-06	4.998445e-09	1.572744e+01	3.295991e+02
9.800000e-07	2.477324e-06	5.367051e-09	1.676726e+01	3.540620e+02
9.900000e-07	2.630014e-06	5.681251e-09	1.780071e+01	3.734871e+02
1.000000e-06	2.781740e-06	5.947806e-09	1.882763e+01	3.897179e+02
1.010000e-06	2.932498e-06	6.179074e-09	1.984801e+01	4.043131e+02
1.020000e-06	3.082207e-06	6.388947e-09	2.086129e+01	4.182336e+02
1.030000e-06	3.230787e-06	6.585117e-09	2.186692e+01	4.317721e+02
1.040000e-06	3.378213e-06	6.767759e-09	2.286474e+01	4.447102e+02
1.050000e-06	3.524414e-06	6.937237e-09	2.385427e+01	4.566095e+02
1.060000e-06	3.669350e-06	7.094265e-09	2.483524e+01	4.671139e+02
1.070000e-06	3.812970e-06	7.236697e-09	2.580730e+01	4.761522e+02
1.080000e-06	3.955154e-06	7.363928e-09	2.676965e+01	4.839803e+02
1.090000e-06	4.095832e-06	7.478949e-09	2.772179e+01	4.910729e+02
1.100000e-06	4.234969e-06	7.589695e-09	2.866351e+01	4.979286e+02
1.110000e-06	4.372513e-06	7.695955e-09	2.959446e+01	5.048809e+02
1.120000e-06	4.508451e-06	7.798760e-09	3.051452e+01	5.119926e+02
1.130000e-06	4.642740e-06	7.900856e-09	3.142343e+01	5.190714e+02
1.140000e-06	4.775307e-06	8.000337e-09	3.232068e+01	5.257890e+02
1.150000e-06	4.906174e-06	8.091899e-09	3.320643e+01	5.318475e+02
1.160000e-06	5.035297e-06	8.170489e-09	3.408037e+01	5.371185e+02
1.170000e-06	5.162608e-06	8.240152e-09	3.494205e+01	5.416990e+02
1.180000e-06	5.288132e-06	8.306521e-09	3.579163e+01	5.458673e+02
1.190000e-06	5.411843e-06	8.372272e-09	3.662895e+01	5.499626e+02
1.200000e-06	5.533622e-06	8.438835e-09	3.745318e+01	5.542445e+02
1.210000e-06	5.653412e-06	8.506292e-09	3.826395e+01	5.587932e+02
1.220000e-06	5.771076e-06	8.573443e-09	3.906034e+01	5.634898e+02
1.230000e-06	5.886461e-06	8.637817e-09	3.984130e+01	5.680820e+02
1.240000e-06	5.999547e-06	8.696488e-09	4.060670e+01	5.723017e+02
1.250000e-06	6.110446e-06	8.748183e-09	4.135729e+01	5.759835e+02
1.260000e-06	6.219243e-06	8.796166e-09	4.209366e+01	5.791325e+02
1.270000e-06	6.325880e-06	8.845228e-09	4.281542e+01	5.819167e+02
1.280000e-06	6.430260e-06	8.893644e-09	4.352189e+01	5.845886e+02
1.290000e-06	6.532332e-06	8.937743e-09	4.421274e+01	5.873748e+02
1.300000e-06	6.632009e-06	8.980961e-09	4.488739e+01	5.903800e+02
1.310000e-06	6.729190e-06	9.025992e-09	4.554514e+01	5.935479e+02
1.320000e-06	6.824003e-06	9.068943e-09	4.618686e+01	5.966925e+02
1.330000e-06	6.916466e-06	9.106772e-09	4.681267e+01	5.995838e+02
1.340000e-06	7.006426e-06	9.141579e-09	4.742155e+01	6.020506e+02
1.350000e-06	7.093920e-06	9.177562e-09	4.801374e+01	6.040545e+02
1.360000e-06	7.179049e-06	9.212872e-09	4.858991e+01	6.057049e+02
1.370000e-06	7.261694e-06	9.241926e-09	4.914928e+01	6.072105e+02
1.380000e-06	7.341699e-06	9.265648e-09	4.969078e+01	6.087891e+02
1.390000e-06	7.419027e-06	9.292145e-09	5.021416e+01	6.105771e+02
1.400000e-06	7.493591e-06	9.325190e-09	5.071883e+01	6.125751e+02
1.410000e-06	7.565369e-06	9.357022e-09	5.120464e+01	6.146541e+02
1.420000e-06	7.634430e-06	9.380106e-09	5.167207e+01	6.166160e+02
1.430000e-06	7.700741e-06	9.400019e-09	5.212088e+01	6.182818e+02
1.440000e-06	7.764296e-06	9.422778e-09	5.255104e+01	6.195690e+02
1.450000e-06	7.825203e-06	9.443604e-09	5.296327e+01	6.205250e+02
1.460000e-06	7.883406e-06	9.457778e-09	5.335721e+01	6.213031e+02
1.470000e-06	7.938804e-06	9.470945e-09	5.373216e+01	6.220942e+02
1.480000e-06	7.991127e-06	9.487907e-09	5.408630e+01	6.230435e+02
1.490000e-06	8.040183e-06	9.505628e-09	5.441832e+01	6.241895e+02
1.500000e-06	8.086287e-06	9.521385e-09	5.473037e+01	6.254504e+02
1.510000e-06	8.129561e-06	9.534865e-09	5.502326e+01	6.266636e+02
1.520000e-06	8.169890e-06	9.548012e-09	5.529622e+01	6.276584e+02
1.530000e-06	8.207382e-06	9.561004e-09	5.554998e+01	6.283321e+02
1.540000e-06	8.242022e-06	9.570019e-09	5.578443e+01	6.286936e+02
1.550000e-06	8.273749e-06	9.574777e-09	5.599917e+01	6.288586e+02
1.560000e-06	8.302666e-06	9.579088e-09	5.619488e+01	6.289986e+02
1.570000e-06	8.328611e-06	9.586299e-09	5.637049e+01	6.292660e+02
1.580000e-06	8.351524e-06	9.595876e-09	5.652557e+01	6.297290e+02
1.590000e-06	8.371641e-06	9.604224e-09	5.666173e+01	6.303439e+02
1.600000e-06	8.388843e-06	9.609960e-09	5.677815e+01	6.309769e+02
1.610000e-06	8.402885e-06	9.614514e-09	5.687320e+01	6.314637e+02
1.620000e-06	8.413664e-06	9.617227e-09	5.694615e+01	6.316818e+02
1.630000e-06	8.421282e-06	9.618148e-09	5.699771e+01	6.316038e+02
1.640000e-06	8.425987e-06	9.617893e-09	5.702956e+01	6.313079e+02
1.650000e-06	8.427751e-06	9.617183e-09	5.704150e+01	6.309425e+02
1.660000e-06	8.426628e-06	9.617656e-09	5.703390e+01	6.306606e+02
1.670000e-06	8.422768e-06	9.613540e-09	5.700777e+01	6.305530e+02
1.680000e-06	8.416097e-06	9.610439e-09	5.696262e+01	6.306080e+02
1.690000e-06	8.406544e-06	9.605816e-09	5.689796e+01	6.307180e+02
1.700000e-06	8.394052e-06	9.601740e-09	5.681341e+01	6.307257e+02
1.710000e-06	8.378761e-06	9.600723e-09	5.670992e+01	6.304935e+02
1.720000e-06	8.360927e-06	9.602814e-09	5.658922e+01	6.299633e+02
1.730000e-06	8.340500e-06	9.610483e-09	5.645096e+01	6.291831e+02
1.740000e-06	8.317051e-06	9.560963e-09	5.629225e+01	6.282878e+02
1.750000e-06	8.289843e-06	9.503177e-09	5.610810e+01	6.274430e+02
1.760000e-06	8.258751e-06	9.514843e-09	5.589766e+01	6.267769e+02
1.770000e-06	8.224560e-06	9.544476e-09	5.566624e+01	6.263275e+02
1.780000e-06	8.187868e-06	9.556415e-09	5.541790e+01	6.260283e+02
1.790000e-06	8.148928e-06	9.567060e-09	5.515434e+01	6.257363e+02
1.800000e-06	8.107981e-06	9.562396e-09	5.487720e+01	6.252905e+02
1.810000e-06	8.064559e-06	9.488104e-09	5.458330e+01	6.245750e+02
1.820000e-06	8.018155e-06	9.520160e-09	5.426923e+01	6.235607e+02
1.830000e-06	7.968909e-06	9.494382e-09	5.393592e+01	6.223080e+02
1.840000e-06	7.916400e-06	9.463035e-09	5.358052e+01	6.209337e+02
1.850000e-06	7.860806e-06	9.501831e-09	5.320425e+01	6.195556e+02
1.860000e-06	7.802548e-06	9.451052e-09	5.280994e+01	6.182415e+02
1.870000e-06	7.741401e-06	9.470125e-09	5.239608e+01	6.169847e+02
1.880000e-06	7.677496e-06	9.381266e-09	5.196355e+01	6.157133e+02
1.890000e-06	7.610693e-06	9.342280e-09	5.151141e+01	6.143301e+02
1.900000e-06	7.540950e-06	9.339670e-09	5.103937e+01	6.127613e+02
1.910000e-06	7.468313e-06	9.307160e-09	5.054774e+01	6.109921e+02
1.920000e-06	7.392778e-06	9.344641e-09	5.003650e+01	6.090729e+02
1.930000e-06	7.314552e-06	9.276300e-09	4.950704e+01	6.070936e+02
1.940000e-06	7.233694e-06	9.267632e-09	4.895977e+01	6.051387e+02
1.950000e-06	7.150259e-06	9.205531e-09	4.839506e+01	6.032448e+02
1.960000e-06	7.064146e-06	9.158821e-09	4.781222e+01	6.013796e+02
1.970000e-06	6.975473e-06	9.140189e-09	4.721205e+01	5.994544e+02
1.980000e-06	6.884389e-06	9.085922e-09	4.659557e+01	5.973625e+02
1.990000e-06	6.790816e-06	9.104432e-09	4.596224e+01	5.950279e+02
2.000000e-06	6.694876e-06	9.047699e-09	4.531289e+01	5.924410e+02
2.010000e-06	6.596646e-06	9.020311e-09	4.464804e+01	5.896637e+02
2.020000e-06	6.496123e-06	8.943670e-09	4.396767e+01	5.868027e+02
2.030000e-06	6.393142e-06	8.899491e-09	4.327066e+01	5.839609e+02
2.040000e-06	6.287804e-06	8.870214e-09	4.255770e+01	5.811893e+02
2.050000e-06	6.180301e-06	8.833200e-09	4.183010e+01	5.784618e+02
2.060000e-06	6.070651e-06	8.803814e-09	4.108795e+01	5.756845e+02
2.070000e-06	5.958719e-06	8.736670e-09	4.033036e+01	5.727354e+02
2.080000e-06	5.844461e-06	8.695268e-09	3.955703e+01	5.695185e+02
2.090000e-06	5.727906e-06	8.625728e-09	3.876815e+01	5.660059e+02
2.100000e-06	5.609052e-06	8.571328e-09	3.796371e+01	5.622504e+02
2.110000e-06	5.488201e-06	8.507911e-09	3.714576e+01	5.583604e+02
2.120000e-06	5.365429e-06	8.466482e-09	3.631480e+01	5.544490e+02
2.130000e-06	5.240711e-06	8.417652e-09	3.547068e+01	5.505800e+02
2.140000e-06	5.114088e-06	8.359802e-09	3.461365e+01	5.467348e+02
2.150000e-06	4.985628e-06	8.285787e-09	3.374420e+01	5.428162e+02
2.160000e-06	4.855390e-06	8.209091e-09	3.286271e+01	5.386896e+02
2.170000e-06	4.723398e-06	8.137123e-09	3.196934e+01	5.342412e+02
2.180000e-06	4.589746e-06	8.065871e-09	3.106475e+01	5.294293e+02
2.190000e-06	4.454487e-06	8.002218e-09	3.014928e+01	5.243026e+02
2.200000e-06	4.317612e-06	7.933219e-09	2.922287e+01	5.189774e+02
2.210000e-06	4.179116e-06	7.863668e-09	2.828549e+01	5.135822e+02
2.220000e-06	4.039025e-06	7.776318e-09	2.733731e+01	5.081939e+02
2.230000e-06	3.897405e-06	7.685077e-09	2.637879e+01	5.027956e+02
2.240000e-06	3.754322e-06	7.586229e-09	2.541035e+01	4.972763e+02
2.250000e-06	3.609841e-06	7.493312e-09	2.443246e+01	4.914755e+02
2.260000e-06	3.464124e-06	7.398743e-09	2.344621e+01	4.852517e+02
2.270000e-06	3.317165e-06	7.304293e-09	2.245155e+01	4.785472e+02
2.280000e-06	3.168948e-06	7.206438e-09	2.144837e+01	4.714145e+02
2.290000e-06	3.019669e-06	7.104117e-09	2.043801e+01	4.639929e+02
2.300000e-06	2.869418e-06	6.994998e-09	1.942107e+01	4.564405e+02
2.310000e-06	2.718107e-06	6.877167e-09	1.839695e+01	4.488516e+02
2.320000e-06	2.565793e-06	6.751740e-09	1.736605e+01	4.411974e+02
2.330000e-06	2.412607e-06	6.620060e-09	1.632924e+01	4.333200e+02
2.340000e-06	2.258561e-06	6.485081e-09	1.528661e+01	4.249858e+02
2.350000e-06	2.103635e-06	6.347733e-09	1.423802e+01	4.159804e+02
2.360000e-06	1.947880e-06	6.208996e-09	1.318382e+01	4.062009e+02
2.370000e-06	1.791407e-06	6.064084e-09	1.212477e+01	3.957038e+02
2.380000e-06	1.634346e-06	5.910593e-09	1.106173e+01	3.846806e+02
2.390000e-06	1.476777e-06	5.744287e-09	9.995264e+00	3.733635e+02
2.400000e-06	1.318671e-06	5.564458e-09	8.925153e+00	3.619003e+02
2.410000e-06	1.160037e-06	5.372165e-09	7.851471e+00	3.502506e+02
2.420000e-06	1.000979e-06	5.173402e-09	6.774923e+00	3.381576e+02
2.430000e-06	8.415773e-07	4.967051e-09	5.696043e+00	3.252158e+02
2.440000e-06	6.818126e-07	4.748902e-09	4.614708e+00	3.110167e+02
2.450000e-06	5.217753e-07	4.518858e-09	3.531529e+00	2.953127e+02
2.460000e-06	3.616329e-07	4.277529e-09	2.447638e+00	2.781245e+02
2.470000e-06	2.013830e-07	4.019016e-09	1.363019e+00	2.597269e+02
2.480000e-06	4.098502e-08	3.734627e-09	2.773987e-01	2.404971e+02
2.490000e-06	-1.194462e-07	3.421988e-09	-8.084468e-01	2.206615e+02
2.500000e-06	-2.797789e-07	3.083177e-09	-1.893626e+00	2.000341e+02
2.510000e-06	-4.399247e-07	2.719446e-09	-2.977539e+00	1.778562e+02
2.520000e-06	-5.998797e-07	2.322528e-09	-4.060162e+00	1.528289e+02
2.530000e-06	-7.596153e-07	1.876001e-09	-5.141300e+00	1.233705e+02
2.540000e-06	-9.190315e-07	1.364507e-09	-6.220275e+00	8.804994e+01
2.550000e-06	-1.078087e-06	7.725734e-10	-7.296807e+00	4.607921e+01
2.560000e-06	-1.236773e-06	7.456493e-11	-8.370846e+00	-2.292577e+00
2.570000e-06	-1.394982e-06	-7.453074e-10	-9.441645e+00	-5.562073e+01
2.580000e-06	-1.552629e-06	-1.649945e-09	-1.050865e+01	-1.114173e+02
2.590000e-06	-1.709755e-06	-2.549476e-09	-1.157212e+01	-1.665932e+02
2.600000e-06	-1.866304e-06	-3.353902e-09	-1.263169e+01	-2.180770e+02
2.610000e-06	-2.022094e-06	-4.023766e-09	-1.368612e+01	-2.634386e+02
2.620000e-06	-2.177009e-06	-4.568379e-09	-1.473464e+01	-3.013421e+02
2.630000e-06	-2.331152e-06	-5.010673e-09	-1.577793e+01	-3.317067e+02
2.640000e-06	-2.484590e-06	-5.374052e-09	-1.681643e+01	-3.555437e+02
2.650000e-06	-2.637183e-06	-5.684520e-09	-1.784923e+01	-3.745402e+02
2.660000e-06	-2.788701e-06	-5.959877e-09	-1.887475e+01	-3.905303e+02
2.670000e-06	-2.939174e-06	-6.206849e-09	-1.989319e+01	-4.050198e+02
2.680000e-06	-3.088624e-06	-6.427131e-09	-2.090472e+01	-4.188967e+02
2.690000e-06	-3.236915e-06	-6.625104e-09	-2.190840e+01	-4.323883e+02
2.700000e-06	-3.384051e-06	-6.805965e-09	-2.290425e+01	-4.452373e+02
2.710000e-06	-3.530050e-06	-6.969830e-09	-2.389242e+01	-4.570007e+02
2.720000e-06	-3.674732e-06	-7.117076e-09	-2.487167e+01	-4.673458e+02
2.730000e-06	-3.818009e-06	-7.251912e-09	-2.584141e+01	-4.762374e+02
2.740000e-06	-3.959894e-06	-7.381202e-09	-2.680173e+01	-4.839622e+02
2.750000e-06	-4.100267e-06	-7.506418e-09	-2.775182e+01	-4.910074e+02
2.760000e-06	-4.239113e-06	-7.622625e-09	-2.869156e+01	-4.978622e+02
2.770000e-06	-4.376402e-06	-7.728410e-09	-2.962077e+01	-5.048340e+02
2.780000e-06	-4.512033e-06	-7.830124e-09	-3.053876e+01	-5.119555e+02
2.790000e-06	-4.646071e-06	-7.932230e-09	-3.144597e+01	-5.190125e+02
2.800000e-06	-4.778492e-06	-8.027468e-09	-3.234224e+01	-5.256721e+02
2.810000e-06	-4.909174e-06	-8.109271e-09	-3.322673e+01	-5.316489e+02
2.820000e-06	-5.038122e-06	-8.184867e-09	-3.409949e+01	-5.368377e+02
2.830000e-06	-5.165336e-06	-8.261969e-09	-3.496051e+01	-5.413589e+02
2.840000e-06	-5.290773e-06	-8.338288e-09	-3.580951e+01	-5.455038e+02
2.850000e-06	-5.414305e-06	-8.409723e-09	-3.664561e+01	-5.496097e+02
2.860000e-06	-5.535852e-06	-8.476770e-09	-3.746828e+01	-5.539204e+02
2.870000e-06	-5.655386e-06	-8.545427e-09	-3.827731e+01	-5.584941e+02
2.880000e-06	-5.772793e-06	-8.616316e-09	-3.907196e+01	-5.631933e+02
2.890000e-06	-5.887895e-06	-8.681280e-09	-3.985100e+01	-5.677579e+02
2.900000e-06	-6.000593e-06	-8.736638e-09	-4.061378e+01	-5.719257e+02
2.910000e-06	-6.110971e-06	-8.789762e-09	-4.136085e+01	-5.755472e+02
2.920000e-06	-6.219187e-06	-8.844987e-09	-4.209329e+01	-5.786472e+02
2.930000e-06	-6.325305e-06	-8.895159e-09	-4.281152e+01	-5.814071e+02
2.940000e-06	-6.429216e-06	-8.938184e-09	-4.351483e+01	-5.840823e+02
