# Temperatura_=_21.45
# Concentracion g/m^3_=_13400.0
# C_Vs_to_Am_M_A/Vsm_=_65563218390.804596
# pendiente_HvsI_1/m_=_3716.3
# ordenada_HvsI_A/m_=_1297.0
# frecuencia_Hz_=_301395.81606615416

Tiempo_(s)	Campo_(V.s)	Magnetizacion_(V.s)	Campo_(kA/m)	Magnetizacion_(A/m)
0.000000e+00	-8.401681e-06	-9.569845e-09	-5.692497e+01	-6.262077e+02
1.000000e-08	-8.397862e-06	-9.566755e-09	-5.689910e+01	-6.260782e+02
2.000000e-08	-8.391362e-06	-9.559155e-09	-5.685506e+01	-6.261088e+02
3.000000e-08	-8.382097e-06	-9.552539e-09	-5.679228e+01	-6.262077e+02
4.000000e-08	-8.369884e-06	-9.549243e-09	-5.670954e+01	-6.262272e+02
5.000000e-08	-8.354631e-06	-9.547091e-09	-5.660619e+01	-6.260280e+02
6.000000e-08	-8.336449e-06	-9.540110e-09	-5.648300e+01	-6.255411e+02
7.000000e-08	-8.315711e-06	-9.523458e-09	-5.634249e+01	-6.247984e+02
8.000000e-08	-8.292315e-06	-9.538797e-09	-5.618397e+01	-6.239212e+02
9.000000e-08	-8.265676e-06	-9.567062e-09	-5.600348e+01	-6.230699e+02
1.000000e-07	-8.235682e-06	-9.546535e-09	-5.580026e+01	-6.223770e+02
1.100000e-07	-8.202604e-06	-9.505550e-09	-5.557615e+01	-6.218930e+02
1.200000e-07	-8.166598e-06	-9.471320e-09	-5.533219e+01	-6.215655e+02
1.300000e-07	-8.128072e-06	-9.441851e-09	-5.507116e+01	-6.212620e+02
1.400000e-07	-8.087246e-06	-9.417818e-09	-5.479454e+01	-6.208240e+02
1.500000e-07	-8.043752e-06	-9.469883e-09	-5.449985e+01	-6.201299e+02
1.600000e-07	-7.997304e-06	-9.467184e-09	-5.418515e+01	-6.191394e+02
1.700000e-07	-7.948016e-06	-9.415520e-09	-5.385120e+01	-6.179024e+02
1.800000e-07	-7.895691e-06	-9.454701e-09	-5.349668e+01	-6.165295e+02
1.900000e-07	-7.840281e-06	-9.387440e-09	-5.312125e+01	-6.151396e+02
2.000000e-07	-7.782053e-06	-9.317499e-09	-5.272673e+01	-6.138085e+02
2.100000e-07	-7.721044e-06	-9.301218e-09	-5.231337e+01	-6.125400e+02
2.200000e-07	-7.657374e-06	-9.295542e-09	-5.188198e+01	-6.112725e+02
2.300000e-07	-7.590890e-06	-9.330589e-09	-5.143152e+01	-6.099152e+02
2.400000e-07	-7.521543e-06	-9.298866e-09	-5.096166e+01	-6.083957e+02
2.500000e-07	-7.449475e-06	-9.257594e-09	-5.047337e+01	-6.066972e+02
2.600000e-07	-7.374516e-06	-9.211753e-09	-4.996550e+01	-6.048659e+02
2.700000e-07	-7.296617e-06	-9.184182e-09	-4.943769e+01	-6.029873e+02
2.800000e-07	-7.215879e-06	-9.150716e-09	-4.889066e+01	-6.011412e+02
2.900000e-07	-7.132539e-06	-9.112273e-09	-4.832600e+01	-5.993580e+02
3.000000e-07	-7.046808e-06	-9.125342e-09	-4.774513e+01	-5.975978e+02
3.100000e-07	-6.958659e-06	-9.107346e-09	-4.714789e+01	-5.957621e+02
3.200000e-07	-6.868047e-06	-9.073768e-09	-4.653395e+01	-5.937359e+02
3.300000e-07	-6.774970e-06	-9.009078e-09	-4.590331e+01	-5.914398e+02
3.400000e-07	-6.679502e-06	-8.944442e-09	-4.525648e+01	-5.888692e+02
3.500000e-07	-6.581604e-06	-8.918639e-09	-4.459317e+01	-5.861007e+02
3.600000e-07	-6.481262e-06	-8.895450e-09	-4.391332e+01	-5.832624e+02
3.700000e-07	-6.378601e-06	-8.865652e-09	-4.321775e+01	-5.804780e+02
3.800000e-07	-6.273654e-06	-8.820165e-09	-4.250668e+01	-5.778111e+02
3.900000e-07	-6.166422e-06	-8.784603e-09	-4.178014e+01	-5.752329e+02
4.000000e-07	-6.056996e-06	-8.733211e-09	-4.103873e+01	-5.726302e+02
4.100000e-07	-5.945399e-06	-8.672035e-09	-4.028262e+01	-5.698508e+02
4.200000e-07	-5.831522e-06	-8.614435e-09	-3.951105e+01	-5.667684e+02
4.300000e-07	-5.715346e-06	-8.569861e-09	-3.872391e+01	-5.633372e+02
4.400000e-07	-5.596966e-06	-8.536541e-09	-3.792183e+01	-5.596129e+02
4.500000e-07	-5.476516e-06	-8.489895e-09	-3.710574e+01	-5.557287e+02
4.600000e-07	-5.354116e-06	-8.425930e-09	-3.627642e+01	-5.518361e+02
4.700000e-07	-5.229821e-06	-8.357598e-09	-3.543427e+01	-5.480348e+02
4.800000e-07	-5.103625e-06	-8.296919e-09	-3.457924e+01	-5.443244e+02
4.900000e-07	-4.975605e-06	-8.233160e-09	-3.371185e+01	-5.405979e+02
5.000000e-07	-4.845756e-06	-8.166292e-09	-3.283207e+01	-5.366838e+02
5.100000e-07	-4.714141e-06	-8.099354e-09	-3.194031e+01	-5.324168e+02
5.200000e-07	-4.580875e-06	-8.037657e-09	-3.103738e+01	-5.277098e+02
5.300000e-07	-4.445945e-06	-7.971197e-09	-3.012317e+01	-5.225917e+02
5.400000e-07	-4.309402e-06	-7.891096e-09	-2.919804e+01	-5.171957e+02
5.500000e-07	-4.171235e-06	-7.798549e-09	-2.826190e+01	-5.116999e+02
5.600000e-07	-4.031479e-06	-7.710630e-09	-2.731499e+01	-5.062463e+02
5.700000e-07	-3.890107e-06	-7.630085e-09	-2.635714e+01	-5.008721e+02
5.800000e-07	-3.747137e-06	-7.544404e-09	-2.538845e+01	-4.954867e+02
5.900000e-07	-3.602743e-06	-7.452788e-09	-2.441012e+01	-4.899041e+02
6.000000e-07	-3.457050e-06	-7.358209e-09	-2.342299e+01	-4.839196e+02
6.100000e-07	-3.310104e-06	-7.264386e-09	-2.242737e+01	-4.773975e+02
6.200000e-07	-3.162003e-06	-7.162820e-09	-2.142392e+01	-4.703299e+02
6.300000e-07	-3.012846e-06	-7.050742e-09	-2.041332e+01	-4.628401e+02
6.400000e-07	-2.862667e-06	-6.932317e-09	-1.939579e+01	-4.551249e+02
6.500000e-07	-2.711544e-06	-6.816348e-09	-1.837187e+01	-4.473597e+02
6.600000e-07	-2.559500e-06	-6.696910e-09	-1.734171e+01	-4.396088e+02
6.700000e-07	-2.406571e-06	-6.567393e-09	-1.630555e+01	-4.317800e+02
6.800000e-07	-2.252734e-06	-6.432065e-09	-1.526323e+01	-4.236488e+02
6.900000e-07	-2.097984e-06	-6.295608e-09	-1.421473e+01	-4.149438e+02
7.000000e-07	-1.942512e-06	-6.155502e-09	-1.316134e+01	-4.054586e+02
7.100000e-07	-1.786389e-06	-6.003286e-09	-1.210355e+01	-3.951403e+02
7.200000e-07	-1.629650e-06	-5.840825e-09	-1.104157e+01	-3.841109e+02
7.300000e-07	-1.472288e-06	-5.671146e-09	-9.975382e+00	-3.726081e+02
7.400000e-07	-1.314251e-06	-5.497115e-09	-8.904611e+00	-3.608644e+02
7.500000e-07	-1.155635e-06	-5.313584e-09	-7.829918e+00	-3.489763e+02
7.600000e-07	-9.965835e-07	-5.116854e-09	-6.752279e+00	-3.368228e+02
7.700000e-07	-8.372317e-07	-4.908182e-09	-5.672602e+00	-3.240764e+02
7.800000e-07	-6.776233e-07	-4.691815e-09	-4.591187e+00	-3.103104e+02
7.900000e-07	-5.178316e-07	-4.466630e-09	-3.508530e+00	-2.951645e+02
8.000000e-07	-3.579207e-07	-4.222076e-09	-2.425065e+00	-2.784945e+02
8.100000e-07	-1.979068e-07	-3.957925e-09	-1.340903e+00	-2.604344e+02
8.200000e-07	-3.783316e-08	-3.678746e-09	-2.563358e-01	-2.413227e+02
8.300000e-07	1.222921e-07	-3.381945e-09	8.285815e-01	-2.215014e+02
8.400000e-07	2.823769e-07	-3.058725e-09	1.913224e+00	-2.010541e+02
8.500000e-07	4.423157e-07	-2.706452e-09	2.996877e+00	-1.795830e+02
8.600000e-07	6.021149e-07	-2.326719e-09	4.079585e+00	-1.561329e+02
8.700000e-07	7.617649e-07	-1.912615e-09	5.161282e+00	-1.293234e+02
8.800000e-07	9.212195e-07	-1.443262e-09	6.241655e+00	-9.768436e+01
8.900000e-07	1.080406e-06	-8.953981e-10	7.320215e+00	-6.011089e+01
9.000000e-07	1.239190e-06	-2.515193e-10	8.396042e+00	-1.630172e+01
9.100000e-07	1.397449e-06	4.978721e-10	9.468315e+00	3.296595e+01
9.200000e-07	1.555105e-06	1.331153e-09	1.053650e+01	8.583023e+01
9.300000e-07	1.712143e-06	2.191845e-09	1.160050e+01	1.396324e+02
9.400000e-07	1.868559e-06	3.002434e-09	1.266028e+01	1.914311e+02
9.500000e-07	2.024355e-06	3.703687e-09	1.371587e+01	2.386018e+02
9.600000e-07	2.179424e-06	4.281921e-09	1.476653e+01	2.793522e+02
9.700000e-07	2.333625e-06	4.757017e-09	1.581130e+01	3.130099e+02
9.800000e-07	2.486880e-06	5.155380e-09	1.684967e+01	3.400131e+02
9.900000e-07	2.639191e-06	5.493622e-09	1.788165e+01	3.616266e+02
1.000000e-06	2.790655e-06	5.782752e-09	1.890788e+01	3.794892e+02
1.010000e-06	2.941163e-06	6.032986e-09	1.992763e+01	3.951414e+02
1.020000e-06	3.090565e-06	6.257894e-09	2.093990e+01	4.096734e+02
1.030000e-06	3.238842e-06	6.464799e-09	2.194453e+01	4.235826e+02
1.040000e-06	3.385986e-06	6.654990e-09	2.294150e+01	4.368479e+02
1.050000e-06	3.531981e-06	6.829479e-09	2.393068e+01	4.491592e+02
1.060000e-06	3.676753e-06	6.990528e-09	2.491157e+01	4.601921e+02
1.070000e-06	3.820151e-06	7.138546e-09	2.588315e+01	4.698220e+02
1.080000e-06	3.962053e-06	7.271879e-09	2.684460e+01	4.782067e+02
1.090000e-06	4.102385e-06	7.390915e-09	2.779541e+01	4.857274e+02
1.100000e-06	4.241162e-06	7.503997e-09	2.873568e+01	4.928335e+02
1.110000e-06	4.378412e-06	7.615780e-09	2.966561e+01	4.998695e+02
1.120000e-06	4.514061e-06	7.722950e-09	3.058469e+01	5.069603e+02
1.130000e-06	4.648034e-06	7.824862e-09	3.149242e+01	5.139974e+02
1.140000e-06	4.780315e-06	7.921905e-09	3.238867e+01	5.207252e+02
1.150000e-06	4.910916e-06	8.013337e-09	3.327355e+01	5.268810e+02
1.160000e-06	5.039782e-06	8.093447e-09	3.414667e+01	5.323265e+02
1.170000e-06	5.166874e-06	8.163184e-09	3.500778e+01	5.371147e+02
1.180000e-06	5.292196e-06	8.230121e-09	3.585689e+01	5.414683e+02
1.190000e-06	5.415665e-06	8.299205e-09	3.669344e+01	5.456841e+02
1.200000e-06	5.537173e-06	8.368683e-09	3.751671e+01	5.500092e+02
1.210000e-06	5.656628e-06	8.434799e-09	3.832607e+01	5.545435e+02
1.220000e-06	5.773949e-06	8.499520e-09	3.912097e+01	5.592089e+02
1.230000e-06	5.889029e-06	8.563318e-09	3.990068e+01	5.637959e+02
1.240000e-06	6.001862e-06	8.623726e-09	4.066518e+01	5.680634e+02
1.250000e-06	6.112571e-06	8.678349e-09	4.141528e+01	5.718471e+02
1.260000e-06	6.221201e-06	8.728021e-09	4.215129e+01	5.751291e+02
1.270000e-06	6.327585e-06	8.777274e-09	4.287209e+01	5.780416e+02
1.280000e-06	6.431593e-06	8.826566e-09	4.357679e+01	5.808051e+02
1.290000e-06	6.533318e-06	8.872856e-09	4.426602e+01	5.836307e+02
1.300000e-06	6.632661e-06	8.915138e-09	4.493911e+01	5.866303e+02
1.310000e-06	6.729547e-06	8.955203e-09	4.559555e+01	5.897723e+02
1.320000e-06	6.824087e-06	8.997534e-09	4.623610e+01	5.929019e+02
1.330000e-06	6.916274e-06	9.041180e-09	4.686071e+01	5.958134e+02
1.340000e-06	7.005996e-06	9.080573e-09	4.746861e+01	5.983430e+02
1.350000e-06	7.093240e-06	9.114378e-09	4.805973e+01	6.004403e+02
1.360000e-06	7.178067e-06	9.145871e-09	4.863447e+01	6.021893e+02
1.370000e-06	7.260364e-06	9.176889e-09	4.919206e+01	6.037703e+02
1.380000e-06	7.340054e-06	9.203119e-09	4.973200e+01	6.053815e+02
1.390000e-06	7.417080e-06	9.225198e-09	5.025388e+01	6.071550e+02
1.400000e-06	7.491305e-06	9.251011e-09	5.075679e+01	6.091030e+02
1.410000e-06	7.562755e-06	9.281982e-09	5.124089e+01	6.111179e+02
1.420000e-06	7.631545e-06	9.311710e-09	5.170698e+01	6.130238e+02
1.430000e-06	7.697610e-06	9.335695e-09	5.215459e+01	6.146561e+02
1.440000e-06	7.760941e-06	9.356449e-09	5.258369e+01	6.159342e+02
1.450000e-06	7.821624e-06	9.375073e-09	5.299484e+01	6.168961e+02
1.460000e-06	7.879546e-06	9.389333e-09	5.338729e+01	6.176803e+02
1.470000e-06	7.934608e-06	9.402187e-09	5.376036e+01	6.184647e+02
1.480000e-06	7.986548e-06	9.416361e-09	5.411227e+01	6.193892e+02
1.490000e-06	8.035300e-06	9.430881e-09	5.444259e+01	6.204964e+02
1.500000e-06	8.081210e-06	9.445317e-09	5.475364e+01	6.217160e+02
1.510000e-06	8.124267e-06	9.461384e-09	5.504538e+01	6.228982e+02
1.520000e-06	8.164367e-06	9.478812e-09	5.531707e+01	6.238810e+02
1.530000e-06	8.201642e-06	9.495098e-09	5.556962e+01	6.245624e+02
1.540000e-06	8.236015e-06	9.504878e-09	5.580252e+01	6.249443e+02
1.550000e-06	8.267455e-06	9.505948e-09	5.601553e+01	6.251316e+02
1.560000e-06	8.296107e-06	9.505089e-09	5.620967e+01	6.252851e+02
1.570000e-06	8.321817e-06	9.509007e-09	5.638386e+01	6.255523e+02
1.580000e-06	8.344551e-06	9.518916e-09	5.653789e+01	6.260033e+02
1.590000e-06	8.364420e-06	9.531982e-09	5.667252e+01	6.266027e+02
1.600000e-06	8.381313e-06	9.543036e-09	5.678698e+01	6.272261e+02
1.610000e-06	8.395066e-06	9.549326e-09	5.688015e+01	6.277167e+02
1.620000e-06	8.405527e-06	9.551573e-09	5.695103e+01	6.279536e+02
1.630000e-06	8.412897e-06	9.552397e-09	5.700097e+01	6.279047e+02
1.640000e-06	8.417379e-06	9.550017e-09	5.703133e+01	6.276393e+02
1.650000e-06	8.418879e-06	9.544198e-09	5.704150e+01	6.272970e+02
1.660000e-06	8.417562e-06	9.538665e-09	5.703257e+01	6.270251e+02
1.670000e-06	8.413434e-06	9.538794e-09	5.700461e+01	6.269141e+02
1.680000e-06	8.406405e-06	9.545204e-09	5.695698e+01	6.269574e+02
1.690000e-06	8.396571e-06	9.545721e-09	5.689035e+01	6.270550e+02
1.700000e-06	8.383822e-06	9.541833e-09	5.680397e+01	6.270565e+02
1.710000e-06	8.368259e-06	9.540235e-09	5.669853e+01	6.268278e+02
1.720000e-06	8.350235e-06	9.545799e-09	5.657640e+01	6.263097e+02
1.730000e-06	8.329632e-06	9.531661e-09	5.643681e+01	6.255452e+02
1.740000e-06	8.305898e-06	9.465311e-09	5.627600e+01	6.246627e+02
1.750000e-06	8.278348e-06	9.440394e-09	5.608934e+01	6.238227e+02
1.760000e-06	8.246971e-06	9.458398e-09	5.587675e+01	6.231512e+02
1.770000e-06	8.212643e-06	9.479181e-09	5.564416e+01	6.226878e+02
1.780000e-06	8.175863e-06	9.509868e-09	5.539496e+01	6.223698e+02
1.790000e-06	8.136844e-06	9.525644e-09	5.513059e+01	6.220590e+02
1.800000e-06	8.095846e-06	9.439110e-09	5.485281e+01	6.215978e+02
1.810000e-06	8.052284e-06	9.424458e-09	5.455766e+01	6.208719e+02
1.820000e-06	8.005720e-06	9.454936e-09	5.424217e+01	6.198508e+02
1.830000e-06	7.956345e-06	9.411969e-09	5.390763e+01	6.185930e+02
1.840000e-06	7.903627e-06	9.456585e-09	5.355045e+01	6.172125e+02
1.850000e-06	7.847784e-06	9.427111e-09	5.317209e+01	6.158261e+02
1.860000e-06	7.789248e-06	9.433920e-09	5.277548e+01	6.145024e+02
1.870000e-06	7.727852e-06	9.412543e-09	5.235949e+01	6.132375e+02
1.880000e-06	7.663805e-06	9.311600e-09	5.192555e+01	6.119645e+02
1.890000e-06	7.596870e-06	9.299913e-09	5.147204e+01	6.105921e+02
1.900000e-06	7.526993e-06	9.255588e-09	5.099859e+01	6.090527e+02
1.910000e-06	7.454182e-06	9.294345e-09	5.050526e+01	6.073364e+02
1.920000e-06	7.378471e-06	9.290188e-09	4.999229e+01	6.054953e+02
1.930000e-06	7.300029e-06	9.250785e-09	4.946082e+01	6.036165e+02
1.940000e-06	7.218953e-06	9.229664e-09	4.891149e+01	6.017765e+02
1.950000e-06	7.135428e-06	9.141322e-09	4.834557e+01	5.999986e+02
1.960000e-06	7.049226e-06	9.129195e-09	4.776151e+01	5.982353e+02
1.970000e-06	6.960454e-06	9.074787e-09	4.716005e+01	5.963841e+02
1.980000e-06	6.869264e-06	9.068251e-09	4.654220e+01	5.943314e+02
1.990000e-06	6.775552e-06	9.065392e-09	4.590726e+01	5.920042e+02
2.000000e-06	6.679464e-06	9.027082e-09	4.525622e+01	5.894071e+02
2.010000e-06	6.581090e-06	8.989949e-09	4.458970e+01	5.866242e+02
2.020000e-06	6.480386e-06	8.904542e-09	4.390738e+01	5.837860e+02
2.030000e-06	6.377212e-06	8.867323e-09	4.320833e+01	5.810123e+02
2.040000e-06	6.271833e-06	8.821189e-09	4.249435e+01	5.783576e+02
2.050000e-06	6.164317e-06	8.803145e-09	4.176588e+01	5.757830e+02
2.060000e-06	6.054581e-06	8.763882e-09	4.102237e+01	5.731683e+02
2.070000e-06	5.942580e-06	8.718763e-09	4.026351e+01	5.703611e+02
2.080000e-06	5.828246e-06	8.672727e-09	3.948886e+01	5.672414e+02
2.090000e-06	5.711604e-06	8.607544e-09	3.869856e+01	5.637740e+02
2.100000e-06	5.592707e-06	8.548594e-09	3.789297e+01	5.600249e+02
2.110000e-06	5.471750e-06	8.486960e-09	3.707344e+01	5.561326e+02
2.120000e-06	5.348878e-06	8.441838e-09	3.624093e+01	5.522461e+02
2.130000e-06	5.224178e-06	8.389573e-09	3.539604e+01	5.484562e+02
2.140000e-06	5.097564e-06	8.336910e-09	3.453817e+01	5.447504e+02
2.150000e-06	4.969056e-06	8.269783e-09	3.366748e+01	5.410123e+02
2.160000e-06	4.838791e-06	8.204403e-09	3.278487e+01	5.370670e+02
2.170000e-06	4.706850e-06	8.131736e-09	3.189092e+01	5.327548e+02
2.180000e-06	4.573214e-06	8.059905e-09	3.098548e+01	5.279998e+02
2.190000e-06	4.437914e-06	7.986428e-09	3.006876e+01	5.228438e+02
2.200000e-06	4.300994e-06	7.917616e-09	2.914107e+01	5.174281e+02
2.210000e-06	4.162468e-06	7.842852e-09	2.820250e+01	5.119311e+02
2.220000e-06	4.022324e-06	7.758286e-09	2.725296e+01	5.064861e+02
2.230000e-06	3.880628e-06	7.670695e-09	2.629291e+01	5.011169e+02
2.240000e-06	3.737576e-06	7.580712e-09	2.532367e+01	4.957199e+02
2.250000e-06	3.593209e-06	7.493582e-09	2.434552e+01	4.901032e+02
2.260000e-06	3.447511e-06	7.397479e-09	2.335836e+01	4.840653e+02
2.270000e-06	3.300535e-06	7.300468e-09	2.236253e+01	4.774821e+02
2.280000e-06	3.152421e-06	7.197602e-09	2.135900e+01	4.703611e+02
2.290000e-06	3.003172e-06	7.092913e-09	2.034777e+01	4.628369e+02
2.300000e-06	2.852900e-06	6.979492e-09	1.932961e+01	4.551088e+02
2.310000e-06	2.701705e-06	6.860797e-09	1.830521e+01	4.473443e+02
2.320000e-06	2.549509e-06	6.737501e-09	1.727401e+01	4.395919e+02
2.330000e-06	2.396285e-06	6.612378e-09	1.623585e+01	4.317428e+02
2.340000e-06	2.242187e-06	6.482914e-09	1.519177e+01	4.235625e+02
2.350000e-06	2.087381e-06	6.347876e-09	1.414290e+01	4.147813e+02
2.360000e-06	1.931861e-06	6.206158e-09	1.308918e+01	4.052059e+02
2.370000e-06	1.775597e-06	6.056129e-09	1.203043e+01	3.948023e+02
2.380000e-06	1.618621e-06	5.898377e-09	1.096685e+01	3.837094e+02
2.390000e-06	1.461076e-06	5.729269e-09	9.899412e+00	3.721707e+02
2.400000e-06	1.303009e-06	5.548567e-09	8.828440e+00	3.604099e+02
2.410000e-06	1.144446e-06	5.356349e-09	7.754111e+00	3.485029e+02
2.420000e-06	9.855261e-07	5.160566e-09	6.677360e+00	3.363042e+02
2.430000e-06	8.263422e-07	4.955763e-09	5.598821e+00	3.234688e+02
2.440000e-06	6.669038e-07	4.739132e-09	4.518558e+00	3.095691e+02
2.450000e-06	5.072012e-07	4.510289e-09	3.436504e+00	2.942616e+02
2.460000e-06	3.473008e-07	4.268565e-09	2.353111e+00	2.774312e+02
2.470000e-06	1.873062e-07	4.008381e-09	1.269079e+00	2.592397e+02
2.480000e-06	2.721662e-08	3.725285e-09	1.844042e-01	2.400375e+02
2.490000e-06	-1.328774e-07	3.419936e-09	-9.003009e-01	2.201518e+02
2.500000e-06	-2.928630e-07	3.090645e-09	-1.984272e+00	1.996233e+02
2.510000e-06	-4.526665e-07	2.737187e-09	-3.067009e+00	1.779949e+02
2.520000e-06	-6.122640e-07	2.356260e-09	-4.148350e+00	1.542555e+02
2.530000e-06	-7.716654e-07	1.938612e-09	-5.228363e+00	1.269961e+02
2.540000e-06	-9.308189e-07	1.469082e-09	-6.306696e+00	9.476283e+01
2.550000e-06	-1.089650e-06	9.258962e-10	-7.382843e+00	5.651774e+01
2.560000e-06	-1.248080e-06	2.845578e-10	-8.456276e+00	1.206602e+01
2.570000e-06	-1.406049e-06	-4.680705e-10	-9.526579e+00	-3.769388e+01
2.580000e-06	-1.563494e-06	-1.311312e-09	-1.059334e+01	-9.079605e+01
2.590000e-06	-1.720361e-06	-2.182368e-09	-1.165618e+01	-1.445240e+02
2.600000e-06	-1.876605e-06	-2.999892e-09	-1.271480e+01	-1.959418e+02
2.610000e-06	-2.032104e-06	-3.703545e-09	-1.376837e+01	-2.424924e+02
2.620000e-06	-2.186805e-06	-4.281182e-09	-1.481653e+01	-2.824946e+02
2.630000e-06	-2.340775e-06	-4.754509e-09	-1.585975e+01	-3.154009e+02
2.640000e-06	-2.493955e-06	-5.151541e-09	-1.689761e+01	-3.417558e+02
2.650000e-06	-2.646184e-06	-5.492374e-09	-1.792902e+01	-3.628874e+02
2.660000e-06	-2.797381e-06	-5.788680e-09	-1.895345e+01	-3.804456e+02
2.670000e-06	-2.947623e-06	-6.049720e-09	-1.997140e+01	-3.959361e+02
2.680000e-06	-3.096846e-06	-6.284546e-09	-2.098245e+01	-4.103884e+02
2.690000e-06	-3.244876e-06	-6.496792e-09	-2.198542e+01	-4.242373e+02
2.700000e-06	-3.391734e-06	-6.683287e-09	-2.298044e+01	-4.374181e+02
2.710000e-06	-3.537454e-06	-6.847904e-09	-2.396776e+01	-4.496062e+02
2.720000e-06	-3.681958e-06	-7.000851e-09	-2.494684e+01	-4.604903e+02
2.730000e-06	-3.825111e-06	-7.145634e-09	-2.591676e+01	-4.699747e+02
2.740000e-06	-3.966760e-06	-7.283267e-09	-2.687649e+01	-4.782463e+02
2.750000e-06	-4.106842e-06	-7.412571e-09	-2.782561e+01	-4.857019e+02
2.760000e-06	-4.245421e-06	-7.532332e-09	-2.876454e+01	-4.927876e+02
2.770000e-06	-4.382458e-06	-7.644537e-09	-2.969302e+01	-4.998283e+02
2.780000e-06	-4.517858e-06	-7.751231e-09	-3.061042e+01	-5.069225e+02
2.790000e-06	-4.651642e-06	-7.851891e-09	-3.151686e+01	-5.139405e+02
2.800000e-06	-4.783761e-06	-7.942327e-09	-3.241202e+01	-5.206187e+02
2.810000e-06	-4.914159e-06	-8.023914e-09	-3.329552e+01	-5.267022e+02
2.820000e-06	-5.042842e-06	-8.103773e-09	-3.416741e+01	-5.320716e+02
2.830000e-06	-5.169712e-06	-8.183991e-09	-3.502701e+01	-5.368007e+02
2.840000e-06	-5.294730e-06	-8.261358e-09	-3.587405e+01	-5.411255e+02
2.850000e-06	-5.417913e-06	-8.335817e-09	-3.670868e+01	-5.453436e+02
2.860000e-06	-5.539239e-06	-8.409904e-09	-3.753071e+01	-5.496899e+02
2.870000e-06	-5.658573e-06	-8.482458e-09	-3.833925e+01	-5.542453e+02
2.880000e-06	-5.775708e-06	-8.551069e-09	-3.913288e+01	-5.589141e+02
2.890000e-06	-5.890516e-06	-8.613382e-09	-3.991076e+01	-5.634783e+02
2.900000e-06	-6.002910e-06	-8.670220e-09	-4.067228e+01	-5.677001e+02
2.910000e-06	-6.112942e-06	-8.724772e-09	-4.141779e+01	-5.714283e+02
2.920000e-06	-6.220797e-06	-8.778393e-09	-4.214855e+01	-5.746625e+02
2.930000e-06	-6.326586e-06	-8.828802e-09	-4.286532e+01	-5.775481e+02
2.940000e-06	-6.430217e-06	-8.877323e-09	-4.356746e+01	-5.803097e+02
