# Temperatura_=_53.16
# Concentracion g/m^3_=_13400.0
# C_Vs_to_Am_M_A/Vsm_=_65563218390.804596
# pendiente_HvsI_1/m_=_3716.3
# ordenada_HvsI_A/m_=_1297.0
# frecuencia_Hz_=_301402.0080929105

Tiempo_(s)	Campo_(V.s)	Magnetizacion_(V.s)	Campo_(kA/m)	Magnetizacion_(A/m)
0.000000e+00	-8.443302e-06	-1.157318e-08	-5.692659e+01	-7.597964e+02
1.000000e-08	-8.439757e-06	-1.157155e-08	-5.690269e+01	-7.597517e+02
2.000000e-08	-8.433474e-06	-1.156509e-08	-5.686033e+01	-7.598252e+02
3.000000e-08	-8.424532e-06	-1.156107e-08	-5.680004e+01	-7.598637e+02
4.000000e-08	-8.412645e-06	-1.156292e-08	-5.671989e+01	-7.596882e+02
5.000000e-08	-8.397676e-06	-1.156100e-08	-5.661897e+01	-7.591717e+02
6.000000e-08	-8.379708e-06	-1.154644e-08	-5.649782e+01	-7.582947e+02
7.000000e-08	-8.359146e-06	-1.151789e-08	-5.635919e+01	-7.571551e+02
8.000000e-08	-8.335996e-06	-1.151148e-08	-5.620311e+01	-7.559288e+02
9.000000e-08	-8.309562e-06	-1.156484e-08	-5.602488e+01	-7.547970e+02
1.000000e-07	-8.279667e-06	-1.155896e-08	-5.582333e+01	-7.538734e+02
1.100000e-07	-8.246681e-06	-1.149963e-08	-5.560093e+01	-7.531610e+02
1.200000e-07	-8.210776e-06	-1.146364e-08	-5.535885e+01	-7.525550e+02
1.300000e-07	-8.172255e-06	-1.145067e-08	-5.509913e+01	-7.518904e+02
1.400000e-07	-8.131396e-06	-1.140892e-08	-5.482365e+01	-7.510107e+02
1.500000e-07	-8.087920e-06	-1.135824e-08	-5.453053e+01	-7.498291e+02
1.600000e-07	-8.041573e-06	-1.141720e-08	-5.421805e+01	-7.483543e+02
1.700000e-07	-7.992426e-06	-1.135542e-08	-5.388669e+01	-7.466743e+02
1.800000e-07	-7.940198e-06	-1.135810e-08	-5.353455e+01	-7.449051e+02
1.900000e-07	-7.884845e-06	-1.136528e-08	-5.316135e+01	-7.431318e+02
2.000000e-07	-7.826670e-06	-1.124647e-08	-5.276912e+01	-7.413684e+02
2.100000e-07	-7.765702e-06	-1.122985e-08	-5.235806e+01	-7.395541e+02
2.200000e-07	-7.702017e-06	-1.118044e-08	-5.192869e+01	-7.375880e+02
2.300000e-07	-7.635491e-06	-1.119413e-08	-5.148015e+01	-7.353836e+02
2.400000e-07	-7.566103e-06	-1.117575e-08	-5.101232e+01	-7.329174e+02
2.500000e-07	-7.493900e-06	-1.111185e-08	-5.052551e+01	-7.302466e+02
2.600000e-07	-7.418778e-06	-1.109932e-08	-5.001903e+01	-7.274884e+02
2.700000e-07	-7.340789e-06	-1.105542e-08	-4.949321e+01	-7.247670e+02
2.800000e-07	-7.259985e-06	-1.100501e-08	-4.894841e+01	-7.221543e+02
2.900000e-07	-7.176544e-06	-1.092149e-08	-4.838583e+01	-7.196311e+02
3.000000e-07	-7.090732e-06	-1.090672e-08	-4.780727e+01	-7.170886e+02
3.100000e-07	-7.002548e-06	-1.089430e-08	-4.721271e+01	-7.143704e+02
3.200000e-07	-6.911826e-06	-1.083907e-08	-4.660104e+01	-7.113394e+02
3.300000e-07	-6.818582e-06	-1.079821e-08	-4.597237e+01	-7.079373e+02
3.400000e-07	-6.722945e-06	-1.071454e-08	-4.532756e+01	-7.042132e+02
3.500000e-07	-6.624866e-06	-1.066573e-08	-4.466630e+01	-7.003039e+02
3.600000e-07	-6.524304e-06	-1.061611e-08	-4.398828e+01	-6.963756e+02
3.700000e-07	-6.421365e-06	-1.055717e-08	-4.329425e+01	-6.925508e+02
3.800000e-07	-6.316079e-06	-1.049237e-08	-4.258439e+01	-6.888527e+02
3.900000e-07	-6.208495e-06	-1.043942e-08	-4.185903e+01	-6.851924e+02
4.000000e-07	-6.098761e-06	-1.039100e-08	-4.111918e+01	-6.814057e+02
4.100000e-07	-5.986851e-06	-1.030754e-08	-4.036466e+01	-6.773231e+02
4.200000e-07	-5.872607e-06	-1.023100e-08	-3.959440e+01	-6.728446e+02
4.300000e-07	-5.756018e-06	-1.015943e-08	-3.880833e+01	-6.679828e+02
4.400000e-07	-5.637259e-06	-1.010714e-08	-3.800764e+01	-6.628573e+02
4.500000e-07	-5.516481e-06	-1.004391e-08	-3.719332e+01	-6.576401e+02
4.600000e-07	-5.393714e-06	-9.965656e-09	-3.636560e+01	-6.524764e+02
4.700000e-07	-5.269009e-06	-9.879089e-09	-3.552481e+01	-6.474155e+02
4.800000e-07	-5.142444e-06	-9.795964e-09	-3.467149e+01	-6.423843e+02
4.900000e-07	-5.014012e-06	-9.710240e-09	-3.380557e+01	-6.372152e+02
5.000000e-07	-4.883744e-06	-9.613678e-09	-3.292727e+01	-6.317183e+02
5.100000e-07	-4.751662e-06	-9.517462e-09	-3.203675e+01	-6.257659e+02
5.200000e-07	-4.617867e-06	-9.426626e-09	-3.113467e+01	-6.193507e+02
5.300000e-07	-4.482515e-06	-9.344304e-09	-3.022210e+01	-6.125905e+02
5.400000e-07	-4.345468e-06	-9.249189e-09	-2.929810e+01	-6.056749e+02
5.500000e-07	-4.206794e-06	-9.139322e-09	-2.836313e+01	-5.987771e+02
5.600000e-07	-4.066522e-06	-9.024870e-09	-2.741738e+01	-5.919688e+02
5.700000e-07	-3.924478e-06	-8.914977e-09	-2.645969e+01	-5.851781e+02
5.800000e-07	-3.780906e-06	-8.802651e-09	-2.549170e+01	-5.782121e+02
5.900000e-07	-3.636011e-06	-8.682479e-09	-2.451478e+01	-5.708363e+02
6.000000e-07	-3.489782e-06	-8.560535e-09	-2.352887e+01	-5.628770e+02
6.100000e-07	-3.342282e-06	-8.439834e-09	-2.253440e+01	-5.543013e+02
6.200000e-07	-3.193628e-06	-8.318793e-09	-2.153214e+01	-5.452347e+02
6.300000e-07	-3.043967e-06	-8.184929e-09	-2.052309e+01	-5.359062e+02
6.400000e-07	-2.893331e-06	-8.038091e-09	-1.950747e+01	-5.265403e+02
6.500000e-07	-2.741672e-06	-7.887988e-09	-1.848495e+01	-5.172429e+02
6.600000e-07	-2.588998e-06	-7.735855e-09	-1.745559e+01	-5.079331e+02
6.700000e-07	-2.435371e-06	-7.578275e-09	-1.641980e+01	-4.983577e+02
6.800000e-07	-2.280814e-06	-7.412286e-09	-1.537774e+01	-4.881847e+02
6.900000e-07	-2.125446e-06	-7.243909e-09	-1.433023e+01	-4.771425e+02
7.000000e-07	-1.969358e-06	-7.074017e-09	-1.327784e+01	-4.651408e+02
7.100000e-07	-1.812452e-06	-6.897174e-09	-1.221995e+01	-4.523171e+02
7.200000e-07	-1.654826e-06	-6.705292e-09	-1.115720e+01	-4.389790e+02
7.300000e-07	-1.496662e-06	-6.499962e-09	-1.009082e+01	-4.254588e+02
7.400000e-07	-1.338023e-06	-6.289393e-09	-9.021241e+00	-4.119393e+02
7.500000e-07	-1.178901e-06	-6.071795e-09	-7.948410e+00	-3.983262e+02
7.600000e-07	-1.019256e-06	-5.839622e-09	-6.872048e+00	-3.842335e+02
7.700000e-07	-8.591700e-07	-5.591561e-09	-5.792712e+00	-3.690999e+02
7.800000e-07	-6.987690e-07	-5.334138e-09	-4.711254e+00	-3.523983e+02
7.900000e-07	-5.381511e-07	-5.065763e-09	-3.628333e+00	-3.338528e+02
8.000000e-07	-3.773500e-07	-4.779245e-09	-2.544176e+00	-3.135603e+02
8.100000e-07	-2.164136e-07	-4.469282e-09	-1.459108e+00	-2.919433e+02
8.200000e-07	-5.543396e-08	-4.134266e-09	-3.737479e-01	-2.695211e+02
8.300000e-07	1.055402e-07	-3.773712e-09	7.115749e-01	-2.465670e+02
8.400000e-07	2.665012e-07	-3.384725e-09	1.796809e+00	-2.227769e+02
8.500000e-07	4.274069e-07	-2.959618e-09	2.881671e+00	-1.970952e+02
8.600000e-07	5.881524e-07	-2.488229e-09	3.965452e+00	-1.678024e+02
8.700000e-07	7.486522e-07	-1.958576e-09	5.047577e+00	-1.328883e+02
8.800000e-07	9.088820e-07	-1.350461e-09	6.127882e+00	-9.062838e+01
8.900000e-07	1.068743e-06	-6.332144e-10	7.205702e+00	-4.019947e+01
9.000000e-07	1.228117e-06	2.249537e-10	8.280233e+00	1.786567e+01
9.100000e-07	1.386997e-06	1.223236e-09	9.351440e+00	8.154810e+01
9.200000e-07	1.545410e-06	2.298093e-09	1.041949e+01	1.476087e+02
9.300000e-07	1.703340e-06	3.334464e-09	1.148429e+01	2.121980e+02
9.400000e-07	1.860714e-06	4.235054e-09	1.254534e+01	2.716482e+02
9.500000e-07	2.017416e-06	4.967340e-09	1.360186e+01	3.232227e+02
9.600000e-07	2.173359e-06	5.551246e-09	1.465326e+01	3.656132e+02
9.700000e-07	2.328432e-06	6.026279e-09	1.569880e+01	3.990535e+02
9.800000e-07	2.482569e-06	6.424178e-09	1.673802e+01	4.250384e+02
9.900000e-07	2.635849e-06	6.767431e-09	1.777147e+01	4.457591e+02
1.000000e-06	2.788283e-06	7.067223e-09	1.879921e+01	4.634438e+02
1.010000e-06	2.939703e-06	7.331142e-09	1.982012e+01	4.798065e+02
1.020000e-06	3.089970e-06	7.569856e-09	2.083325e+01	4.957529e+02
1.030000e-06	3.239110e-06	7.790033e-09	2.183879e+01	5.113935e+02
1.040000e-06	3.387113e-06	7.994724e-09	2.283666e+01	5.263082e+02
1.050000e-06	3.533873e-06	8.184162e-09	2.382615e+01	5.399295e+02
1.060000e-06	3.679398e-06	8.359733e-09	2.480731e+01	5.518906e+02
1.070000e-06	3.823653e-06	8.522761e-09	2.577990e+01	5.622158e+02
1.080000e-06	3.966470e-06	8.675704e-09	2.674281e+01	5.713090e+02
1.090000e-06	4.107764e-06	8.821656e-09	2.769544e+01	5.797754e+02
1.100000e-06	4.247485e-06	8.961734e-09	2.863748e+01	5.881726e+02
1.110000e-06	4.385580e-06	9.091570e-09	2.956854e+01	5.968032e+02
1.120000e-06	4.522019e-06	9.213557e-09	3.048844e+01	6.056304e+02
1.130000e-06	4.656820e-06	9.335974e-09	3.139730e+01	6.143421e+02
1.140000e-06	4.789970e-06	9.455519e-09	3.229502e+01	6.225227e+02
1.150000e-06	4.921360e-06	9.565710e-09	3.318089e+01	6.298527e+02
1.160000e-06	5.051001e-06	9.664244e-09	3.405495e+01	6.362504e+02
1.170000e-06	5.178871e-06	9.758646e-09	3.491708e+01	6.419005e+02
1.180000e-06	5.304914e-06	9.851716e-09	3.576689e+01	6.471671e+02
1.190000e-06	5.429162e-06	9.937899e-09	3.660460e+01	6.524340e+02
1.200000e-06	5.551552e-06	1.001757e-08	3.742978e+01	6.579471e+02
1.210000e-06	5.671881e-06	1.009624e-08	3.824106e+01	6.637242e+02
1.220000e-06	5.789991e-06	1.017731e-08	3.903738e+01	6.695671e+02
1.230000e-06	5.905876e-06	1.025799e-08	3.981871e+01	6.751660e+02
1.240000e-06	6.019505e-06	1.033158e-08	4.058482e+01	6.802449e+02
1.250000e-06	6.130907e-06	1.039816e-08	4.133591e+01	6.846857e+02
1.260000e-06	6.240217e-06	1.046308e-08	4.207291e+01	6.885769e+02
1.270000e-06	6.347377e-06	1.052882e-08	4.279541e+01	6.921716e+02
1.280000e-06	6.452264e-06	1.059096e-08	4.350258e+01	6.957741e+02
1.290000e-06	6.554784e-06	1.064635e-08	4.419379e+01	6.996095e+02
1.300000e-06	6.654884e-06	1.070034e-08	4.486868e+01	7.037306e+02
1.310000e-06	6.752510e-06	1.075710e-08	4.552690e+01	7.080020e+02
1.320000e-06	6.847740e-06	1.081654e-08	4.616896e+01	7.121652e+02
1.330000e-06	6.940638e-06	1.087224e-08	4.679530e+01	7.159538e+02
1.340000e-06	7.031032e-06	1.092230e-08	4.740476e+01	7.192078e+02
1.350000e-06	7.118938e-06	1.097273e-08	4.799744e+01	7.219389e+02
1.360000e-06	7.204463e-06	1.102166e-08	4.857407e+01	7.243200e+02
1.370000e-06	7.287473e-06	1.106353e-08	4.913374e+01	7.266070e+02
1.380000e-06	7.367832e-06	1.109752e-08	4.967554e+01	7.290272e+02
1.390000e-06	7.445502e-06	1.113189e-08	5.019920e+01	7.316851e+02
1.400000e-06	7.520372e-06	1.117282e-08	5.070399e+01	7.345243e+02
1.410000e-06	7.592471e-06	1.121542e-08	5.119010e+01	7.373590e+02
1.420000e-06	7.661908e-06	1.125321e-08	5.165826e+01	7.399613e+02
1.430000e-06	7.728576e-06	1.128737e-08	5.210775e+01	7.421626e+02
1.440000e-06	7.792476e-06	1.132257e-08	5.253858e+01	7.439258e+02
1.450000e-06	7.853758e-06	1.135395e-08	5.295176e+01	7.453585e+02
1.460000e-06	7.912285e-06	1.137714e-08	5.334636e+01	7.466623e+02
1.470000e-06	7.967956e-06	1.139680e-08	5.372170e+01	7.480422e+02
1.480000e-06	8.020506e-06	1.141945e-08	5.407601e+01	7.496176e+02
1.490000e-06	8.069807e-06	1.144530e-08	5.440840e+01	7.513720e+02
1.500000e-06	8.116203e-06	1.146973e-08	5.472122e+01	7.531638e+02
1.510000e-06	8.159781e-06	1.149188e-08	5.501503e+01	7.547907e+02
1.520000e-06	8.200394e-06	1.151373e-08	5.528885e+01	7.560797e+02
1.530000e-06	8.238123e-06	1.153595e-08	5.554323e+01	7.569622e+02
1.540000e-06	8.273011e-06	1.155188e-08	5.577845e+01	7.575027e+02
1.550000e-06	8.304980e-06	1.155853e-08	5.599399e+01	7.578684e+02
1.560000e-06	8.334068e-06	1.156503e-08	5.619011e+01	7.582557e+02
1.570000e-06	8.360164e-06	1.157596e-08	5.636606e+01	7.588054e+02
1.580000e-06	8.383258e-06	1.158825e-08	5.652176e+01	7.595439e+02
1.590000e-06	8.403496e-06	1.159931e-08	5.665821e+01	7.603761e+02
1.600000e-06	8.420776e-06	1.160833e-08	5.677471e+01	7.611306e+02
1.610000e-06	8.434926e-06	1.161633e-08	5.687012e+01	7.616380e+02
1.620000e-06	8.445831e-06	1.162257e-08	5.694364e+01	7.618064e+02
1.630000e-06	8.453613e-06	1.162578e-08	5.699611e+01	7.616609e+02
1.640000e-06	8.458480e-06	1.162580e-08	5.702892e+01	7.613313e+02
1.650000e-06	8.460345e-06	1.162283e-08	5.704150e+01	7.609929e+02
1.660000e-06	8.459327e-06	1.162027e-08	5.703464e+01	7.607874e+02
1.670000e-06	8.455550e-06	1.161339e-08	5.700917e+01	7.607601e+02
1.680000e-06	8.448900e-06	1.161238e-08	5.696433e+01	7.608379e+02
1.690000e-06	8.439388e-06	1.161127e-08	5.690020e+01	7.608615e+02
1.700000e-06	8.426849e-06	1.160876e-08	5.681566e+01	7.606537e+02
1.710000e-06	8.411442e-06	1.160682e-08	5.671179e+01	7.600971e+02
1.720000e-06	8.393627e-06	1.160544e-08	5.659167e+01	7.591851e+02
1.730000e-06	8.373234e-06	1.160095e-08	5.645418e+01	7.580268e+02
1.740000e-06	8.349723e-06	1.151023e-08	5.629566e+01	7.568023e+02
1.750000e-06	8.322445e-06	1.145773e-08	5.611175e+01	7.556888e+02
1.760000e-06	8.291292e-06	1.147974e-08	5.590170e+01	7.547896e+02
1.770000e-06	8.257118e-06	1.149010e-08	5.567129e+01	7.540949e+02
1.780000e-06	8.220433e-06	1.149438e-08	5.542396e+01	7.534907e+02
1.790000e-06	8.181392e-06	1.153953e-08	5.516073e+01	7.528094e+02
1.800000e-06	8.140372e-06	1.150268e-08	5.488417e+01	7.518996e+02
1.810000e-06	8.096929e-06	1.140952e-08	5.459127e+01	7.506842e+02
1.820000e-06	8.050451e-06	1.147780e-08	5.427790e+01	7.491820e+02
1.830000e-06	8.001123e-06	1.139679e-08	5.394532e+01	7.474867e+02
1.840000e-06	7.948504e-06	1.139725e-08	5.359055e+01	7.457137e+02
1.850000e-06	7.892746e-06	1.139659e-08	5.321462e+01	7.439419e+02
1.860000e-06	7.834318e-06	1.133659e-08	5.282069e+01	7.421768e+02
1.870000e-06	7.772945e-06	1.140779e-08	5.240689e+01	7.403510e+02
1.880000e-06	7.708810e-06	1.126172e-08	5.197449e+01	7.383625e+02
1.890000e-06	7.641779e-06	1.123721e-08	5.152255e+01	7.361295e+02
1.900000e-06	7.571813e-06	1.118924e-08	5.105082e+01	7.336369e+02
1.910000e-06	7.498898e-06	1.112589e-08	5.055921e+01	7.309503e+02
1.920000e-06	7.423010e-06	1.115905e-08	5.004756e+01	7.281903e+02
1.930000e-06	7.344408e-06	1.107909e-08	4.951761e+01	7.254782e+02
1.940000e-06	7.263232e-06	1.110316e-08	4.897030e+01	7.228775e+02
1.950000e-06	7.179634e-06	1.101151e-08	4.840666e+01	7.203585e+02
1.960000e-06	7.093322e-06	1.096615e-08	4.782473e+01	7.178046e+02
1.970000e-06	7.004430e-06	1.090879e-08	4.722540e+01	7.150582e+02
1.980000e-06	6.913165e-06	1.081569e-08	4.661007e+01	7.119881e+02
1.990000e-06	6.819331e-06	1.082467e-08	4.597742e+01	7.085471e+02
2.000000e-06	6.723094e-06	1.075948e-08	4.532857e+01	7.047952e+02
2.010000e-06	6.624470e-06	1.074039e-08	4.466363e+01	7.008758e+02
2.020000e-06	6.523464e-06	1.065254e-08	4.398262e+01	6.969538e+02
2.030000e-06	6.420043e-06	1.059273e-08	4.328533e+01	6.931433e+02
2.040000e-06	6.314387e-06	1.052626e-08	4.257298e+01	6.894550e+02
2.050000e-06	6.206580e-06	1.046338e-08	4.184612e+01	6.857895e+02
2.060000e-06	6.096510e-06	1.040647e-08	4.110401e+01	6.819782e+02
2.070000e-06	5.984167e-06	1.033461e-08	4.034656e+01	6.778560e+02
2.080000e-06	5.869464e-06	1.028026e-08	3.957321e+01	6.733334e+02
2.090000e-06	5.752461e-06	1.020754e-08	3.878435e+01	6.684358e+02
2.100000e-06	5.633190e-06	1.013497e-08	3.798020e+01	6.632918e+02
2.110000e-06	5.511879e-06	1.003999e-08	3.716229e+01	6.580743e+02
2.120000e-06	5.388648e-06	9.968238e-09	3.633145e+01	6.529211e+02
2.130000e-06	5.263572e-06	9.883673e-09	3.548816e+01	6.478687e+02
2.140000e-06	5.136628e-06	9.813826e-09	3.463227e+01	6.428316e+02
2.150000e-06	5.007808e-06	9.718704e-09	3.376374e+01	6.376357e+02
2.160000e-06	4.877165e-06	9.633728e-09	3.288291e+01	6.320940e+02
2.170000e-06	4.744732e-06	9.543630e-09	3.199002e+01	6.260898e+02
2.180000e-06	4.610673e-06	9.448020e-09	3.108617e+01	6.196298e+02
2.190000e-06	4.474958e-06	9.353821e-09	3.017114e+01	6.128431e+02
2.200000e-06	4.337522e-06	9.255278e-09	2.924452e+01	6.059220e+02
2.210000e-06	4.198400e-06	9.162669e-09	2.830653e+01	5.990325e+02
2.220000e-06	4.057713e-06	9.055564e-09	2.735799e+01	5.922318e+02
2.230000e-06	3.915552e-06	8.943193e-09	2.639950e+01	5.854328e+02
2.240000e-06	3.771967e-06	8.818475e-09	2.543143e+01	5.784336e+02
2.250000e-06	3.627070e-06	8.696712e-09	2.445450e+01	5.710014e+02
2.260000e-06	3.480936e-06	8.572335e-09	2.346923e+01	5.629745e+02
2.270000e-06	3.333443e-06	8.451376e-09	2.247480e+01	5.543373e+02
2.280000e-06	3.184696e-06	8.326832e-09	2.147192e+01	5.452305e+02
2.290000e-06	3.034887e-06	8.199645e-09	2.046187e+01	5.358882e+02
2.300000e-06	2.884061e-06	8.061619e-09	1.944497e+01	5.265273e+02
2.310000e-06	2.732196e-06	7.916984e-09	1.842106e+01	5.172356e+02
2.320000e-06	2.579338e-06	7.762535e-09	1.739046e+01	5.079116e+02
2.330000e-06	2.425584e-06	7.600926e-09	1.635382e+01	4.982879e+02
2.340000e-06	2.270865e-06	7.434813e-09	1.531067e+01	4.880321e+02
2.350000e-06	2.115276e-06	7.266128e-09	1.426165e+01	4.768872e+02
2.360000e-06	1.959010e-06	7.094215e-09	1.320808e+01	4.647868e+02
2.370000e-06	1.802089e-06	6.913351e-09	1.215008e+01	4.518911e+02
2.380000e-06	1.644520e-06	6.723193e-09	1.108771e+01	4.385185e+02
2.390000e-06	1.486399e-06	6.521786e-09	1.002162e+01	4.249935e+02
2.400000e-06	1.327734e-06	6.309855e-09	8.951875e+00	4.114736e+02
2.410000e-06	1.168515e-06	6.083316e-09	7.878382e+00	3.978318e+02
2.420000e-06	1.008820e-06	5.846332e-09	6.801685e+00	3.836556e+02
2.430000e-06	8.487235e-07	5.600158e-09	5.722279e+00	3.683761e+02
2.440000e-06	6.883035e-07	5.345024e-09	4.640693e+00	3.514838e+02
2.450000e-06	5.276679e-07	5.075350e-09	3.557652e+00	3.327394e+02
2.460000e-06	3.668764e-07	4.788864e-09	2.473561e+00	3.122803e+02
2.470000e-06	2.059412e-07	4.482176e-09	1.388501e+00	2.905532e+02
2.480000e-06	4.495069e-08	4.149104e-09	3.030674e-01	2.680684e+02
2.490000e-06	-1.160286e-07	3.785000e-09	-7.822902e-01	2.450516e+02
2.500000e-06	-2.769361e-07	3.386206e-09	-1.867164e+00	2.211225e+02
2.510000e-06	-4.377008e-07	2.954602e-09	-2.951074e+00	1.951451e+02
2.520000e-06	-5.983313e-07	2.483350e-09	-4.034080e+00	1.653461e+02
2.530000e-06	-7.587554e-07	1.954313e-09	-5.115695e+00	1.297162e+02
2.540000e-06	-9.188793e-07	1.343063e-09	-6.195285e+00	8.659907e+01
2.550000e-06	-1.078601e-06	6.212233e-10	-7.272163e+00	3.529972e+01
2.560000e-06	-1.237867e-06	-2.398402e-10	-8.345970e+00	-2.348927e+01
2.570000e-06	-1.396672e-06	-1.243459e-09	-9.416671e+00	-8.759857e+01
2.580000e-06	-1.554928e-06	-2.327846e-09	-1.048367e+01	-1.536896e+02
2.590000e-06	-1.712600e-06	-3.373625e-09	-1.154673e+01	-2.178933e+02
2.600000e-06	-1.869658e-06	-4.276007e-09	-1.260564e+01	-2.766085e+02
2.610000e-06	-2.026068e-06	-5.005943e-09	-1.366019e+01	-3.272341e+02
2.620000e-06	-2.181765e-06	-5.590232e-09	-1.470994e+01	-3.686289e+02
2.630000e-06	-2.336635e-06	-6.067253e-09	-1.575411e+01	-4.011815e+02
2.640000e-06	-2.490573e-06	-6.467651e-09	-1.679199e+01	-4.264918e+02
2.650000e-06	-2.643552e-06	-6.811163e-09	-1.782340e+01	-4.467861e+02
2.660000e-06	-2.795630e-06	-7.112944e-09	-1.884875e+01	-4.642603e+02
2.670000e-06	-2.946718e-06	-7.383053e-09	-1.986742e+01	-4.805505e+02
2.680000e-06	-3.096701e-06	-7.627269e-09	-2.087863e+01	-4.964714e+02
2.690000e-06	-3.245558e-06	-7.853179e-09	-2.188226e+01	-5.120605e+02
2.700000e-06	-3.393298e-06	-8.062606e-09	-2.287836e+01	-5.268630e+02
2.710000e-06	-3.539821e-06	-8.253612e-09	-2.386625e+01	-5.403183e+02
2.720000e-06	-3.685058e-06	-8.426893e-09	-2.484547e+01	-5.520957e+02
2.730000e-06	-3.829053e-06	-8.583692e-09	-2.581632e+01	-5.622644e+02
2.740000e-06	-3.971622e-06	-8.731215e-09	-2.677754e+01	-5.712604e+02
2.750000e-06	-4.112626e-06	-8.876255e-09	-2.772822e+01	-5.796961e+02
2.760000e-06	-4.252102e-06	-9.017918e-09	-2.866860e+01	-5.881100e+02
2.770000e-06	-4.389965e-06	-9.151343e-09	-2.959811e+01	-5.967696e+02
2.780000e-06	-4.526181e-06	-9.276819e-09	-3.051650e+01	-6.056031e+02
2.790000e-06	-4.660750e-06	-9.398065e-09	-3.142380e+01	-6.142779e+02
2.800000e-06	-4.793679e-06	-9.510273e-09	-3.232003e+01	-6.223796e+02
2.810000e-06	-4.924910e-06	-9.609184e-09	-3.320482e+01	-6.296090e+02
2.820000e-06	-5.054359e-06	-9.701448e-09	-3.407760e+01	-6.359138e+02
2.830000e-06	-5.182087e-06	-9.795573e-09	-3.493876e+01	-6.415039e+02
2.840000e-06	-5.307961e-06	-9.892215e-09	-3.578743e+01	-6.467537e+02
2.850000e-06	-5.431896e-06	-9.985671e-09	-3.662303e+01	-6.520391e+02
2.860000e-06	-5.553948e-06	-1.007186e-08	-3.744593e+01	-6.575842e+02
2.870000e-06	-5.674025e-06	-1.015483e-08	-3.825552e+01	-6.633811e+02
2.880000e-06	-5.791962e-06	-1.023694e-08	-3.905067e+01	-6.692137e+02
2.890000e-06	-5.907588e-06	-1.031429e-08	-3.983025e+01	-6.747684e+02
2.900000e-06	-6.020778e-06	-1.038351e-08	-4.059340e+01	-6.797813e+02
2.910000e-06	-6.131603e-06	-1.044776e-08	-4.134061e+01	-6.841557e+02
2.920000e-06	-6.240262e-06	-1.051401e-08	-4.207321e+01	-6.880013e+02
2.930000e-06	-6.346830e-06	-1.058126e-08	-4.279172e+01	-6.915829e+02
2.940000e-06	-6.451234e-06	-1.064428e-08	-4.349563e+01	-6.952024e+02
