# Temperatura_=_20.78
# Concentracion g/m^3_=_13400.0
# C_Vs_to_Am_M_A/Vsm_=_65563218390.804596
# pendiente_HvsI_1/m_=_3716.3
# ordenada_HvsI_A/m_=_1297.0
# frecuencia_Hz_=_301398.306637948

Tiempo_(s)	Campo_(V.s)	Magnetizacion_(V.s)	Campo_(kA/m)	Magnetizacion_(A/m)
0.000000e+00	-8.435908e-06	-9.638918e-09	-5.692755e+01	-6.321531e+02
1.000000e-08	-8.432093e-06	-9.637755e-09	-5.690180e+01	-6.320942e+02
2.000000e-08	-8.425559e-06	-9.635410e-09	-5.685771e+01	-6.321463e+02
3.000000e-08	-8.416314e-06	-9.634431e-09	-5.679532e+01	-6.322294e+02
4.000000e-08	-8.404088e-06	-9.633035e-09	-5.671282e+01	-6.322200e+02
5.000000e-08	-8.388762e-06	-9.627556e-09	-5.660940e+01	-6.320061e+02
6.000000e-08	-8.370511e-06	-9.616248e-09	-5.648623e+01	-6.315369e+02
7.000000e-08	-8.349717e-06	-9.603351e-09	-5.634591e+01	-6.308479e+02
8.000000e-08	-8.326235e-06	-9.623421e-09	-5.618745e+01	-6.300478e+02
9.000000e-08	-8.299443e-06	-9.646084e-09	-5.600665e+01	-6.292735e+02
1.000000e-07	-8.269292e-06	-9.615882e-09	-5.580318e+01	-6.286324e+02
1.100000e-07	-8.236093e-06	-9.575162e-09	-5.557915e+01	-6.281558e+02
1.200000e-07	-8.199964e-06	-9.555643e-09	-5.533534e+01	-6.277847e+02
1.300000e-07	-8.161247e-06	-9.538814e-09	-5.507407e+01	-6.273930e+02
1.400000e-07	-8.120209e-06	-9.506836e-09	-5.479713e+01	-6.268393e+02
1.500000e-07	-8.076544e-06	-9.538901e-09	-5.450247e+01	-6.260230e+02
1.600000e-07	-8.029934e-06	-9.543388e-09	-5.418794e+01	-6.249236e+02
1.700000e-07	-7.980442e-06	-9.491435e-09	-5.385395e+01	-6.236041e+02
1.800000e-07	-7.927932e-06	-9.521360e-09	-5.349960e+01	-6.221799e+02
1.900000e-07	-7.872369e-06	-9.474259e-09	-5.312465e+01	-6.207663e+02
2.000000e-07	-7.813987e-06	-9.419245e-09	-5.273067e+01	-6.194288e+02
2.100000e-07	-7.752809e-06	-9.400151e-09	-5.231783e+01	-6.181579e+02
2.200000e-07	-7.688872e-06	-9.384689e-09	-5.188636e+01	-6.168781e+02
2.300000e-07	-7.622122e-06	-9.413194e-09	-5.143592e+01	-6.154874e+02
2.400000e-07	-7.552548e-06	-9.372508e-09	-5.096642e+01	-6.139073e+02
2.500000e-07	-7.480137e-06	-9.333446e-09	-5.047777e+01	-6.121212e+02
2.600000e-07	-7.404778e-06	-9.311340e-09	-4.996923e+01	-6.101826e+02
2.700000e-07	-7.326599e-06	-9.282932e-09	-4.944166e+01	-6.081898e+02
2.800000e-07	-7.245655e-06	-9.237639e-09	-4.889543e+01	-6.062378e+02
2.900000e-07	-7.162039e-06	-9.198052e-09	-4.833117e+01	-6.043704e+02
3.000000e-07	-7.076031e-06	-9.202072e-09	-4.775077e+01	-6.025546e+02
3.100000e-07	-6.987619e-06	-9.177362e-09	-4.715414e+01	-6.006895e+02
3.200000e-07	-6.896683e-06	-9.149888e-09	-4.654049e+01	-5.986477e+02
3.300000e-07	-6.803250e-06	-9.096470e-09	-4.590997e+01	-5.963314e+02
3.400000e-07	-6.707425e-06	-9.033982e-09	-4.526333e+01	-5.937164e+02
3.500000e-07	-6.609258e-06	-9.003738e-09	-4.460087e+01	-5.908665e+02
3.600000e-07	-6.508668e-06	-8.967942e-09	-4.392206e+01	-5.879072e+02
3.700000e-07	-6.405633e-06	-8.925681e-09	-4.322676e+01	-5.849718e+02
3.800000e-07	-6.300252e-06	-8.879304e-09	-4.251562e+01	-5.821420e+02
3.900000e-07	-6.192553e-06	-8.850010e-09	-4.178884e+01	-5.794089e+02
4.000000e-07	-6.082668e-06	-8.804981e-09	-4.104732e+01	-5.766730e+02
4.100000e-07	-5.970629e-06	-8.744849e-09	-4.029125e+01	-5.737846e+02
4.200000e-07	-5.856282e-06	-8.683441e-09	-3.951960e+01	-5.706077e+02
4.300000e-07	-5.739632e-06	-8.634021e-09	-3.873243e+01	-5.670786e+02
4.400000e-07	-5.620822e-06	-8.595239e-09	-3.793066e+01	-5.632349e+02
4.500000e-07	-5.499937e-06	-8.544256e-09	-3.711490e+01	-5.591996e+02
4.600000e-07	-5.377024e-06	-8.481276e-09	-3.628546e+01	-5.551266e+02
4.700000e-07	-5.252172e-06	-8.413811e-09	-3.544292e+01	-5.511308e+02
4.800000e-07	-5.125445e-06	-8.350608e-09	-3.458774e+01	-5.472337e+02
4.900000e-07	-4.996915e-06	-8.284776e-09	-3.372039e+01	-5.433479e+02
5.000000e-07	-4.866666e-06	-8.215509e-09	-3.284144e+01	-5.393111e+02
5.100000e-07	-4.734608e-06	-8.144154e-09	-3.195028e+01	-5.349536e+02
5.200000e-07	-4.600823e-06	-8.078969e-09	-3.104747e+01	-5.301713e+02
5.300000e-07	-4.465372e-06	-8.010710e-09	-3.013341e+01	-5.249726e+02
5.400000e-07	-4.328202e-06	-7.929229e-09	-2.920776e+01	-5.194754e+02
5.500000e-07	-4.189515e-06	-7.837717e-09	-2.827186e+01	-5.138559e+02
5.600000e-07	-4.049179e-06	-7.749114e-09	-2.732484e+01	-5.082692e+02
5.700000e-07	-3.907097e-06	-7.665128e-09	-2.636604e+01	-5.027755e+02
5.800000e-07	-3.763521e-06	-7.576715e-09	-2.539715e+01	-4.973068e+02
5.900000e-07	-3.618654e-06	-7.483685e-09	-2.441955e+01	-4.916877e+02
6.000000e-07	-3.472495e-06	-7.388995e-09	-2.343323e+01	-4.857063e+02
6.100000e-07	-3.325012e-06	-7.295254e-09	-2.243798e+01	-4.792015e+02
6.200000e-07	-3.176367e-06	-7.194340e-09	-2.143489e+01	-4.721321e+02
6.300000e-07	-3.026711e-06	-7.082961e-09	-2.042498e+01	-4.645921e+02
6.400000e-07	-2.875998e-06	-6.964522e-09	-1.940793e+01	-4.567670e+02
6.500000e-07	-2.724196e-06	-6.843089e-09	-1.838354e+01	-4.488447e+02
6.600000e-07	-2.571449e-06	-6.716247e-09	-1.735276e+01	-4.409216e+02
6.700000e-07	-2.417855e-06	-6.582894e-09	-1.631627e+01	-4.329455e+02
6.800000e-07	-2.263387e-06	-6.448549e-09	-1.527388e+01	-4.247226e+02
6.900000e-07	-2.108065e-06	-6.315322e-09	-1.422573e+01	-4.159893e+02
7.000000e-07	-1.951938e-06	-6.177144e-09	-1.317215e+01	-4.065193e+02
7.100000e-07	-1.795103e-06	-6.026708e-09	-1.211379e+01	-3.962191e+02
7.200000e-07	-1.637673e-06	-5.865435e-09	-1.105141e+01	-3.851658e+02
7.300000e-07	-1.479606e-06	-5.695195e-09	-9.984739e+00	-3.735683e+02
7.400000e-07	-1.320889e-06	-5.516302e-09	-8.913679e+00	-3.616599e+02
7.500000e-07	-1.161632e-06	-5.323933e-09	-7.838971e+00	-3.495707e+02
7.600000e-07	-1.001955e-06	-5.119444e-09	-6.761434e+00	-3.372340e+02
7.700000e-07	-8.419454e-07	-4.909261e-09	-5.681651e+00	-3.243759e+02
7.800000e-07	-6.816704e-07	-4.695940e-09	-4.600077e+00	-3.105992e+02
7.900000e-07	-5.211852e-07	-4.475550e-09	-3.517083e+00	-2.955345e+02
8.000000e-07	-3.605286e-07	-4.235832e-09	-2.432934e+00	-2.789914e+02
8.100000e-07	-1.997790e-07	-3.973568e-09	-1.348157e+00	-2.610395e+02
8.200000e-07	-3.897161e-08	-3.691584e-09	-2.629898e-01	-2.419641e+02
8.300000e-07	1.218686e-07	-3.391312e-09	8.223987e-01	-2.220956e+02
8.400000e-07	2.826495e-07	-3.068444e-09	1.907387e+00	-2.015636e+02
8.500000e-07	4.433198e-07	-2.718157e-09	2.991629e+00	-1.800691e+02
8.600000e-07	6.038520e-07	-2.340982e-09	4.074939e+00	-1.567807e+02
8.700000e-07	7.641734e-07	-1.933440e-09	5.156827e+00	-1.304235e+02
8.800000e-07	9.242451e-07	-1.476492e-09	6.237029e+00	-9.957098e+01
8.900000e-07	1.084053e-06	-9.454326e-10	7.315452e+00	-6.307177e+01
9.000000e-07	1.243479e-06	-3.220271e-10	8.391299e+00	-2.048698e+01
9.100000e-07	1.402364e-06	4.052000e-10	9.463491e+00	2.760625e+01
9.200000e-07	1.560625e-06	1.222065e-09	1.053148e+01	7.955765e+01
9.300000e-07	1.718234e-06	2.077031e-09	1.159506e+01	1.328744e+02
9.400000e-07	1.875253e-06	2.891398e-09	1.265466e+01	1.846906e+02
9.500000e-07	2.031669e-06	3.602321e-09	1.371019e+01	2.323481e+02
9.600000e-07	2.187356e-06	4.195199e-09	1.476081e+01	2.739271e+02
9.700000e-07	2.342242e-06	4.686680e-09	1.580601e+01	3.085749e+02
9.800000e-07	2.496216e-06	5.098496e-09	1.684507e+01	3.365511e+02
9.900000e-07	2.649293e-06	5.446266e-09	1.787807e+01	3.589918e+02
1.000000e-06	2.801490e-06	5.743984e-09	1.890514e+01	3.774847e+02
1.010000e-06	2.952662e-06	6.004255e-09	1.992528e+01	3.935950e+02
1.020000e-06	3.102686e-06	6.239138e-09	2.093767e+01	4.084878e+02
1.030000e-06	3.251529e-06	6.450693e-09	2.194210e+01	4.227456e+02
1.040000e-06	3.399199e-06	6.641419e-09	2.293862e+01	4.364061e+02
1.050000e-06	3.545721e-06	6.819577e-09	2.392738e+01	4.491698e+02
1.060000e-06	3.691062e-06	6.990161e-09	2.490818e+01	4.606770e+02
1.070000e-06	3.835111e-06	7.149014e-09	2.588026e+01	4.707432e+02
1.080000e-06	3.977674e-06	7.288655e-09	2.684231e+01	4.794720e+02
1.090000e-06	4.118592e-06	7.412644e-09	2.779325e+01	4.872226e+02
1.100000e-06	4.257923e-06	7.529747e-09	2.873349e+01	4.944656e+02
1.110000e-06	4.395708e-06	7.641914e-09	2.966330e+01	5.016022e+02
1.120000e-06	4.531850e-06	7.746072e-09	3.058202e+01	5.088251e+02
1.130000e-06	4.666322e-06	7.848211e-09	3.148947e+01	5.160770e+02
1.140000e-06	4.799155e-06	7.953163e-09	3.238586e+01	5.231142e+02
1.150000e-06	4.930309e-06	8.055990e-09	3.327092e+01	5.296424e+02
1.160000e-06	5.059736e-06	8.145701e-09	3.414432e+01	5.354599e+02
1.170000e-06	5.187366e-06	8.221628e-09	3.500560e+01	5.405510e+02
1.180000e-06	5.313147e-06	8.293705e-09	3.585440e+01	5.450914e+02
1.190000e-06	5.437045e-06	8.364704e-09	3.669050e+01	5.493720e+02
1.200000e-06	5.559030e-06	8.430804e-09	3.751368e+01	5.536769e+02
1.210000e-06	5.678935e-06	8.492364e-09	3.832283e+01	5.581702e+02
1.220000e-06	5.796658e-06	8.556662e-09	3.911725e+01	5.628394e+02
1.230000e-06	5.912209e-06	8.626181e-09	3.989701e+01	5.675156e+02
1.240000e-06	6.025539e-06	8.692888e-09	4.066179e+01	5.719573e+02
1.250000e-06	6.136672e-06	8.752214e-09	4.141175e+01	5.759603e+02
1.260000e-06	6.245655e-06	8.805526e-09	4.214719e+01	5.794447e+02
1.270000e-06	6.352444e-06	8.855800e-09	4.286783e+01	5.824845e+02
1.280000e-06	6.456932e-06	8.903347e-09	4.357294e+01	5.852706e+02
1.290000e-06	6.559123e-06	8.947283e-09	4.426255e+01	5.880253e+02
1.300000e-06	6.658935e-06	8.987844e-09	4.493610e+01	5.909081e+02
1.310000e-06	6.756260e-06	9.027234e-09	4.559288e+01	5.939529e+02
1.320000e-06	6.851150e-06	9.069515e-09	4.623322e+01	5.970609e+02
1.330000e-06	6.943673e-06	9.114512e-09	4.685758e+01	6.000512e+02
1.340000e-06	7.033787e-06	9.158834e-09	4.746569e+01	6.027428e+02
1.350000e-06	7.121407e-06	9.200072e-09	4.805697e+01	6.050341e+02
1.360000e-06	7.206603e-06	9.235402e-09	4.863190e+01	6.069433e+02
1.370000e-06	7.289376e-06	9.263469e-09	4.919047e+01	6.085979e+02
1.380000e-06	7.369470e-06	9.287198e-09	4.973096e+01	6.101766e+02
1.390000e-06	7.446760e-06	9.310835e-09	5.025253e+01	6.118332e+02
1.400000e-06	7.521255e-06	9.338083e-09	5.075525e+01	6.136354e+02
1.410000e-06	7.592991e-06	9.365128e-09	5.123934e+01	6.155424e+02
1.420000e-06	7.662052e-06	9.391895e-09	5.170538e+01	6.174315e+02
1.430000e-06	7.728358e-06	9.420220e-09	5.215283e+01	6.191572e+02
1.440000e-06	7.791895e-06	9.447055e-09	5.258159e+01	6.206177e+02
1.450000e-06	7.852826e-06	9.468390e-09	5.299277e+01	6.217983e+02
1.460000e-06	7.911027e-06	9.483330e-09	5.338552e+01	6.227739e+02
1.470000e-06	7.966368e-06	9.497159e-09	5.375897e+01	6.236722e+02
1.480000e-06	8.018655e-06	9.510961e-09	5.411182e+01	6.246144e+02
1.490000e-06	8.067666e-06	9.524054e-09	5.444256e+01	6.256618e+02
1.500000e-06	8.113713e-06	9.538154e-09	5.475330e+01	6.267907e+02
1.510000e-06	8.156923e-06	9.554209e-09	5.504489e+01	6.279070e+02
1.520000e-06	8.197153e-06	9.571029e-09	5.531637e+01	6.288923e+02
1.530000e-06	8.234571e-06	9.585273e-09	5.556887e+01	6.296591e+02
1.540000e-06	8.269146e-06	9.593895e-09	5.580220e+01	6.301917e+02
1.550000e-06	8.300772e-06	9.599995e-09	5.601562e+01	6.305529e+02
1.560000e-06	8.329556e-06	9.607553e-09	5.620986e+01	6.308550e+02
1.570000e-06	8.355331e-06	9.615479e-09	5.638379e+01	6.312087e+02
1.580000e-06	8.378079e-06	9.622611e-09	5.653730e+01	6.316730e+02
1.590000e-06	8.397986e-06	9.631975e-09	5.667164e+01	6.322288e+02
1.600000e-06	8.414957e-06	9.641331e-09	5.678617e+01	6.327888e+02
1.610000e-06	8.428789e-06	9.646255e-09	5.687951e+01	6.332373e+02
1.620000e-06	8.439321e-06	9.647757e-09	5.695058e+01	6.334837e+02
1.630000e-06	8.446741e-06	9.650425e-09	5.700065e+01	6.335041e+02
1.640000e-06	8.451269e-06	9.653722e-09	5.703121e+01	6.333530e+02
1.650000e-06	8.452794e-06	9.652968e-09	5.704150e+01	6.331391e+02
1.660000e-06	8.451444e-06	9.647382e-09	5.703239e+01	6.329760e+02
1.670000e-06	8.447337e-06	9.644992e-09	5.700467e+01	6.329304e+02
1.680000e-06	8.440369e-06	9.648473e-09	5.695765e+01	6.329906e+02
1.690000e-06	8.430603e-06	9.647657e-09	5.689174e+01	6.330697e+02
1.700000e-06	8.417887e-06	9.642477e-09	5.680594e+01	6.330429e+02
1.710000e-06	8.402270e-06	9.640458e-09	5.670055e+01	6.328023e+02
1.720000e-06	8.384175e-06	9.645756e-09	5.657844e+01	6.323061e+02
1.730000e-06	8.363518e-06	9.628240e-09	5.643904e+01	6.315988e+02
1.740000e-06	8.339705e-06	9.569851e-09	5.627835e+01	6.307947e+02
1.750000e-06	8.312033e-06	9.559673e-09	5.609161e+01	6.300304e+02
1.760000e-06	8.280524e-06	9.580399e-09	5.587897e+01	6.294068e+02
1.770000e-06	8.246103e-06	9.588866e-09	5.564669e+01	6.289456e+02
1.780000e-06	8.209200e-06	9.605259e-09	5.539767e+01	6.285788e+02
1.790000e-06	8.169967e-06	9.617458e-09	5.513291e+01	6.281761e+02
1.800000e-06	8.128758e-06	9.541932e-09	5.485483e+01	6.275976e+02
1.810000e-06	8.085022e-06	9.530968e-09	5.455968e+01	6.267502e+02
1.820000e-06	8.038302e-06	9.562821e-09	5.424440e+01	6.256226e+02
1.830000e-06	7.988742e-06	9.511854e-09	5.390996e+01	6.242858e+02
1.840000e-06	7.935821e-06	9.537235e-09	5.355284e+01	6.228575e+02
1.850000e-06	7.879786e-06	9.495175e-09	5.317470e+01	6.214499e+02
1.860000e-06	7.821063e-06	9.499021e-09	5.277842e+01	6.201211e+02
1.870000e-06	7.759434e-06	9.487705e-09	5.236254e+01	6.188535e+02
1.880000e-06	7.695064e-06	9.398122e-09	5.192815e+01	6.175665e+02
1.890000e-06	7.627776e-06	9.405227e-09	5.147408e+01	6.161581e+02
1.900000e-06	7.557582e-06	9.353331e-09	5.100039e+01	6.145552e+02
1.910000e-06	7.484491e-06	9.355025e-09	5.050716e+01	6.127489e+02
1.920000e-06	7.408450e-06	9.342343e-09	4.999401e+01	6.107992e+02
1.930000e-06	7.329657e-06	9.308117e-09	4.946230e+01	6.088065e+02
1.940000e-06	7.248268e-06	9.292939e-09	4.891307e+01	6.068625e+02
1.950000e-06	7.164456e-06	9.223401e-09	4.834748e+01	6.050035e+02
1.960000e-06	7.077959e-06	9.218557e-09	4.776378e+01	6.031879e+02
1.970000e-06	6.988868e-06	9.155036e-09	4.716257e+01	6.013096e+02
1.980000e-06	6.897344e-06	9.131982e-09	4.654494e+01	5.992419e+02
1.990000e-06	6.803345e-06	9.116101e-09	4.591062e+01	5.968929e+02
2.000000e-06	6.707029e-06	9.073828e-09	4.526066e+01	5.942481e+02
2.010000e-06	6.608386e-06	9.046231e-09	4.459498e+01	5.913795e+02
2.020000e-06	6.507349e-06	8.977453e-09	4.391316e+01	5.884166e+02
2.030000e-06	6.403827e-06	8.944672e-09	4.321457e+01	5.854898e+02
2.040000e-06	6.298011e-06	8.893056e-09	4.250050e+01	5.826724e+02
2.050000e-06	6.189990e-06	8.864303e-09	4.177155e+01	5.799448e+02
2.060000e-06	6.079786e-06	8.815212e-09	4.102787e+01	5.771998e+02
2.070000e-06	5.967347e-06	8.763578e-09	4.026910e+01	5.742860e+02
2.080000e-06	5.852545e-06	8.714283e-09	3.949439e+01	5.710724e+02
2.090000e-06	5.735443e-06	8.655075e-09	3.870416e+01	5.675058e+02
2.100000e-06	5.616046e-06	8.600173e-09	3.789844e+01	5.636343e+02
2.110000e-06	5.494628e-06	8.533543e-09	3.707908e+01	5.595875e+02
2.120000e-06	5.371331e-06	8.482834e-09	3.624704e+01	5.555184e+02
2.130000e-06	5.246156e-06	8.428424e-09	3.540233e+01	5.515339e+02
2.140000e-06	5.119074e-06	8.373519e-09	3.454475e+01	5.476437e+02
2.150000e-06	4.990128e-06	8.301297e-09	3.367459e+01	5.437500e+02
2.160000e-06	4.859411e-06	8.228899e-09	3.279248e+01	5.396862e+02
2.170000e-06	4.726969e-06	8.151894e-09	3.189873e+01	5.352861e+02
2.180000e-06	4.592876e-06	8.078174e-09	3.099383e+01	5.304565e+02
2.190000e-06	4.457079e-06	8.008062e-09	3.007745e+01	5.252183e+02
2.200000e-06	4.319539e-06	7.940886e-09	2.914930e+01	5.196990e+02
2.210000e-06	4.180337e-06	7.869546e-09	2.820993e+01	5.140766e+02
2.220000e-06	4.039612e-06	7.785905e-09	2.726028e+01	5.084989e+02
2.230000e-06	3.897428e-06	7.692506e-09	2.630078e+01	5.030132e+02
2.240000e-06	3.753794e-06	7.591257e-09	2.533151e+01	4.975378e+02
2.250000e-06	3.608868e-06	7.494370e-09	2.435351e+01	4.918897e+02
2.260000e-06	3.462685e-06	7.399813e-09	2.336704e+01	4.858580e+02
2.270000e-06	3.315189e-06	7.309861e-09	2.237169e+01	4.792920e+02
2.280000e-06	3.166557e-06	7.214015e-09	2.136869e+01	4.721652e+02
2.290000e-06	3.016817e-06	7.111473e-09	2.035821e+01	4.645847e+02
2.300000e-06	2.866058e-06	6.997917e-09	1.934085e+01	4.567409e+02
2.310000e-06	2.714288e-06	6.873525e-09	1.831667e+01	4.488160e+02
2.320000e-06	2.561441e-06	6.742442e-09	1.728523e+01	4.408923e+02
2.330000e-06	2.407662e-06	6.611116e-09	1.624749e+01	4.329008e+02
2.340000e-06	2.252930e-06	6.479794e-09	1.520332e+01	4.246359e+02
2.350000e-06	2.097318e-06	6.345209e-09	1.415321e+01	4.158326e+02
2.360000e-06	1.941076e-06	6.206343e-09	1.309885e+01	4.062750e+02
2.370000e-06	1.784231e-06	6.059182e-09	1.204043e+01	3.958872e+02
2.380000e-06	1.626703e-06	5.900855e-09	1.097739e+01	3.847639e+02
2.390000e-06	1.468562e-06	5.727630e-09	9.910213e+00	3.731224e+02
2.400000e-06	1.309913e-06	5.543133e-09	8.839608e+00	3.611911e+02
2.410000e-06	1.150814e-06	5.350598e-09	7.765972e+00	3.490823e+02
2.420000e-06	9.913396e-07	5.154242e-09	6.689799e+00	3.367059e+02
2.430000e-06	8.315505e-07	4.948312e-09	5.611504e+00	3.237690e+02
2.440000e-06	6.714490e-07	4.729522e-09	4.531100e+00	3.098697e+02
2.450000e-06	5.110951e-07	4.501399e-09	3.448993e+00	2.946511e+02
2.460000e-06	3.505509e-07	4.263419e-09	2.365602e+00	2.779490e+02
2.470000e-06	1.898367e-07	4.007257e-09	1.281064e+00	2.598601e+02
2.480000e-06	2.904529e-08	3.723978e-09	1.960047e-01	2.406851e+02
2.490000e-06	-1.317853e-07	3.416216e-09	-8.893193e-01	2.207451e+02
2.500000e-06	-2.925213e-07	3.086576e-09	-1.974005e+00	2.001331e+02
2.510000e-06	-4.530305e-07	2.736048e-09	-3.057159e+00	1.784953e+02
2.520000e-06	-6.134169e-07	2.359133e-09	-4.139485e+00	1.549447e+02
2.530000e-06	-7.735907e-07	1.946173e-09	-5.220377e+00	1.281728e+02
2.540000e-06	-9.334117e-07	1.484668e-09	-6.298888e+00	9.676093e+01
2.550000e-06	-1.092903e-06	9.563695e-10	-7.375172e+00	5.961434e+01
2.560000e-06	-1.251988e-06	3.350066e-10	-8.448719e+00	1.639206e+01
2.570000e-06	-1.410623e-06	-3.982011e-10	-9.519226e+00	-3.221149e+01
2.580000e-06	-1.568794e-06	-1.227181e-09	-1.058660e+01	-8.443981e+01
2.590000e-06	-1.726378e-06	-2.091008e-09	-1.165002e+01	-1.377344e+02
2.600000e-06	-1.883295e-06	-2.908841e-09	-1.270893e+01	-1.892232e+02
2.610000e-06	-2.039504e-06	-3.622770e-09	-1.376306e+01	-2.363046e+02
2.620000e-06	-2.194972e-06	-4.217022e-09	-1.481220e+01	-2.771616e+02
2.630000e-06	-2.349643e-06	-4.704653e-09	-1.585596e+01	-3.110641e+02
2.640000e-06	-2.503406e-06	-5.109694e-09	-1.689359e+01	-3.383811e+02
2.650000e-06	-2.656221e-06	-5.457538e-09	-1.792482e+01	-3.603197e+02
2.660000e-06	-2.808063e-06	-5.764119e-09	-1.894949e+01	-3.784872e+02
2.670000e-06	-2.958899e-06	-6.034314e-09	-1.996737e+01	-3.944210e+02
2.680000e-06	-3.108640e-06	-6.274885e-09	-2.097785e+01	-4.092288e+02
2.690000e-06	-3.257283e-06	-6.494343e-09	-2.198093e+01	-4.234293e+02
2.700000e-06	-3.404869e-06	-6.693078e-09	-2.297688e+01	-4.370116e+02
2.710000e-06	-3.551190e-06	-6.867907e-09	-2.396429e+01	-4.496566e+02
2.720000e-06	-3.696129e-06	-7.022354e-09	-2.494237e+01	-4.610138e+02
2.730000e-06	-3.839723e-06	-7.165442e-09	-2.591138e+01	-4.709267e+02
2.740000e-06	-3.981934e-06	-7.304171e-09	-2.687105e+01	-4.795303e+02
2.750000e-06	-4.122621e-06	-7.438779e-09	-2.782045e+01	-4.872040e+02
2.760000e-06	-4.261762e-06	-7.563913e-09	-2.875940e+01	-4.944195e+02
2.770000e-06	-4.399336e-06	-7.678556e-09	-2.968779e+01	-5.015608e+02
2.780000e-06	-4.535260e-06	-7.788961e-09	-3.060503e+01	-5.087939e+02
2.790000e-06	-4.669585e-06	-7.895392e-09	-3.151149e+01	-5.160368e+02
2.800000e-06	-4.802266e-06	-7.989824e-09	-3.240685e+01	-5.230333e+02
2.810000e-06	-4.933207e-06	-8.071095e-09	-3.329047e+01	-5.294924e+02
2.820000e-06	-5.062375e-06	-8.149398e-09	-3.416213e+01	-5.352294e+02
2.830000e-06	-5.189740e-06	-8.232617e-09	-3.502162e+01	-5.402504e+02
2.840000e-06	-5.315303e-06	-8.316136e-09	-3.586895e+01	-5.447483e+02
2.850000e-06	-5.439008e-06	-8.393578e-09	-3.670374e+01	-5.490195e+02
2.860000e-06	-5.560781e-06	-8.465125e-09	-3.752549e+01	-5.533398e+02
2.870000e-06	-5.680508e-06	-8.536709e-09	-3.833344e+01	-5.578560e+02
2.880000e-06	-5.798037e-06	-8.609125e-09	-3.912656e+01	-5.625364e+02
2.890000e-06	-5.913251e-06	-8.675052e-09	-3.990405e+01	-5.671995e+02
2.900000e-06	-6.026115e-06	-8.730721e-09	-4.066568e+01	-5.716026e+02
2.910000e-06	-6.136675e-06	-8.782090e-09	-4.141177e+01	-5.755514e+02
2.920000e-06	-6.245015e-06	-8.837175e-09	-4.214287e+01	-5.789822e+02
2.930000e-06	-6.351265e-06	-8.892608e-09	-4.285987e+01	-5.819846e+02
2.940000e-06	-6.455343e-06	-8.942838e-09	-4.356221e+01	-5.847572e+02
