# Temperatura_=_54.56
# Concentracion g/m^3_=_13400.0
# C_Vs_to_Am_M_A/Vsm_=_65563218390.804596
# pendiente_HvsI_1/m_=_3716.3
# ordenada_HvsI_A/m_=_1297.0
# frecuencia_Hz_=_301400.39305007417

Tiempo_(s)	Campo_(V.s)	Magnetizacion_(V.s)	Campo_(kA/m)	Magnetizacion_(A/m)
0.000000e+00	-8.419354e-06	-1.161885e-08	-5.692715e+01	-7.625870e+02
1.000000e-08	-8.415483e-06	-1.161198e-08	-5.690098e+01	-7.625025e+02
2.000000e-08	-8.408950e-06	-1.160423e-08	-5.685681e+01	-7.625596e+02
3.000000e-08	-8.399723e-06	-1.159869e-08	-5.679442e+01	-7.625965e+02
4.000000e-08	-8.387577e-06	-1.159730e-08	-5.671230e+01	-7.624235e+02
5.000000e-08	-8.372331e-06	-1.159553e-08	-5.660921e+01	-7.619058e+02
6.000000e-08	-8.354116e-06	-1.158568e-08	-5.648605e+01	-7.610212e+02
7.000000e-08	-8.333352e-06	-1.156721e-08	-5.634566e+01	-7.598699e+02
8.000000e-08	-8.309903e-06	-1.156514e-08	-5.618711e+01	-7.586315e+02
9.000000e-08	-8.283154e-06	-1.158885e-08	-5.600624e+01	-7.574905e+02
1.000000e-07	-8.253013e-06	-1.158706e-08	-5.580245e+01	-7.565607e+02
1.100000e-07	-8.219821e-06	-1.154349e-08	-5.557802e+01	-7.558418e+02
1.200000e-07	-8.183732e-06	-1.149450e-08	-5.533401e+01	-7.552241e+02
1.300000e-07	-8.145061e-06	-1.146850e-08	-5.507253e+01	-7.545377e+02
1.400000e-07	-8.104071e-06	-1.144549e-08	-5.479538e+01	-7.536237e+02
1.500000e-07	-8.060511e-06	-1.143379e-08	-5.450085e+01	-7.523949e+02
1.600000e-07	-8.014079e-06	-1.143328e-08	-5.418690e+01	-7.508616e+02
1.700000e-07	-7.964720e-06	-1.140621e-08	-5.385316e+01	-7.491135e+02
1.800000e-07	-7.912281e-06	-1.140656e-08	-5.349860e+01	-7.472685e+02
1.900000e-07	-7.856808e-06	-1.136500e-08	-5.312352e+01	-7.454129e+02
2.000000e-07	-7.798570e-06	-1.128563e-08	-5.272974e+01	-7.435625e+02
2.100000e-07	-7.737558e-06	-1.124749e-08	-5.231721e+01	-7.416601e+02
2.200000e-07	-7.673783e-06	-1.122346e-08	-5.188600e+01	-7.396103e+02
2.300000e-07	-7.607206e-06	-1.123401e-08	-5.143584e+01	-7.373324e+02
2.400000e-07	-7.537771e-06	-1.121244e-08	-5.096637e+01	-7.348066e+02
2.500000e-07	-7.465516e-06	-1.115296e-08	-5.047782e+01	-7.320897e+02
2.600000e-07	-7.390362e-06	-1.111941e-08	-4.996966e+01	-7.292918e+02
2.700000e-07	-7.312369e-06	-1.108320e-08	-4.944232e+01	-7.265255e+02
2.800000e-07	-7.231537e-06	-1.101767e-08	-4.889577e+01	-7.238495e+02
2.900000e-07	-7.147989e-06	-1.094983e-08	-4.833087e+01	-7.212360e+02
3.000000e-07	-7.062065e-06	-1.093470e-08	-4.774990e+01	-7.185762e+02
3.100000e-07	-6.973808e-06	-1.092006e-08	-4.715315e+01	-7.157252e+02
3.200000e-07	-6.883087e-06	-1.087123e-08	-4.653974e+01	-7.125654e+02
3.300000e-07	-6.789864e-06	-1.080777e-08	-4.590942e+01	-7.090609e+02
3.400000e-07	-6.694174e-06	-1.072927e-08	-4.526241e+01	-7.052765e+02
3.500000e-07	-6.596075e-06	-1.067856e-08	-4.459912e+01	-7.013517e+02
3.600000e-07	-6.495576e-06	-1.063188e-08	-4.391960e+01	-6.974396e+02
3.700000e-07	-6.392726e-06	-1.057103e-08	-4.322418e+01	-6.936366e+02
3.800000e-07	-6.287614e-06	-1.050966e-08	-4.251347e+01	-6.899355e+02
3.900000e-07	-6.180177e-06	-1.046279e-08	-4.178704e+01	-6.862241e+02
4.000000e-07	-6.070490e-06	-1.040920e-08	-4.104539e+01	-6.823303e+02
4.100000e-07	-5.958654e-06	-1.032457e-08	-4.028922e+01	-6.780970e+02
4.200000e-07	-5.844612e-06	-1.023621e-08	-3.951813e+01	-6.734522e+02
4.300000e-07	-5.728250e-06	-1.016587e-08	-3.873135e+01	-6.684429e+02
4.400000e-07	-5.609566e-06	-1.011544e-08	-3.792888e+01	-6.632163e+02
4.500000e-07	-5.488862e-06	-1.005279e-08	-3.711274e+01	-6.579551e+02
4.600000e-07	-5.366269e-06	-9.968569e-09	-3.628383e+01	-6.527937e+02
4.700000e-07	-5.241732e-06	-9.880576e-09	-3.544178e+01	-6.477528e+02
4.800000e-07	-5.115317e-06	-9.800059e-09	-3.458703e+01	-6.427238e+02
4.900000e-07	-4.987088e-06	-9.714430e-09	-3.372001e+01	-6.375098e+02
5.000000e-07	-4.857071e-06	-9.616968e-09	-3.284091e+01	-6.319095e+02
5.100000e-07	-4.725272e-06	-9.518261e-09	-3.194975e+01	-6.258051e+02
5.200000e-07	-4.591722e-06	-9.431311e-09	-3.104676e+01	-6.192171e+02
5.300000e-07	-4.456501e-06	-9.350563e-09	-3.013247e+01	-6.122975e+02
5.400000e-07	-4.319668e-06	-9.252277e-09	-2.920728e+01	-6.052638e+02
5.500000e-07	-4.181239e-06	-9.135822e-09	-2.827129e+01	-5.982996e+02
5.600000e-07	-4.041210e-06	-9.017629e-09	-2.732450e+01	-5.914666e+02
5.700000e-07	-3.899538e-06	-8.907385e-09	-2.636659e+01	-5.846671e+02
5.800000e-07	-3.756338e-06	-8.797062e-09	-2.539835e+01	-5.776773e+02
5.900000e-07	-3.611764e-06	-8.680245e-09	-2.442081e+01	-5.702393e+02
6.000000e-07	-3.465841e-06	-8.560006e-09	-2.343416e+01	-5.621720e+02
6.100000e-07	-3.318580e-06	-8.438789e-09	-2.243846e+01	-5.534534e+02
6.200000e-07	-3.170145e-06	-8.311589e-09	-2.143482e+01	-5.442321e+02
6.300000e-07	-3.020749e-06	-8.169467e-09	-2.042469e+01	-5.347621e+02
6.400000e-07	-2.870351e-06	-8.016804e-09	-1.940777e+01	-5.252838e+02
6.500000e-07	-2.718970e-06	-7.867379e-09	-1.838422e+01	-5.159039e+02
6.600000e-07	-2.566610e-06	-7.718316e-09	-1.735404e+01	-5.065284e+02
6.700000e-07	-2.413267e-06	-7.559588e-09	-1.631722e+01	-4.968833e+02
6.800000e-07	-2.259101e-06	-7.393523e-09	-1.527483e+01	-4.866197e+02
6.900000e-07	-2.104147e-06	-7.226299e-09	-1.422712e+01	-4.754604e+02
7.000000e-07	-1.948340e-06	-7.055609e-09	-1.317363e+01	-4.633245e+02
7.100000e-07	-1.791806e-06	-6.872039e-09	-1.211523e+01	-4.503687e+02
7.200000e-07	-1.634686e-06	-6.673933e-09	-1.105287e+01	-4.369209e+02
7.300000e-07	-1.476909e-06	-6.467650e-09	-9.986064e+00	-4.233245e+02
7.400000e-07	-1.318470e-06	-6.258552e-09	-8.914786e+00	-4.097575e+02
7.500000e-07	-1.159517e-06	-6.040426e-09	-7.840033e+00	-3.961070e+02
7.600000e-07	-1.000219e-06	-5.807382e-09	-6.762943e+00	-3.819626e+02
7.700000e-07	-8.406266e-07	-5.561095e-09	-5.683866e+00	-3.667442e+02
7.800000e-07	-6.807605e-07	-5.303916e-09	-4.602937e+00	-3.499214e+02
7.900000e-07	-5.206705e-07	-5.034255e-09	-3.520495e+00	-3.312323e+02
8.000000e-07	-3.604096e-07	-4.741517e-09	-2.436896e+00	-3.107988e+02
8.100000e-07	-2.000410e-07	-4.422846e-09	-1.352570e+00	-2.890640e+02
8.200000e-07	-3.961713e-08	-4.084128e-09	-2.678698e-01	-2.665493e+02
8.300000e-07	1.208116e-07	-3.726320e-09	8.168631e-01	-2.435015e+02
8.400000e-07	2.811734e-07	-3.340119e-09	1.901144e+00	-2.195647e+02
8.500000e-07	4.414296e-07	-2.912187e-09	2.984710e+00	-1.936221e+02
8.600000e-07	6.015650e-07	-2.434770e-09	4.067460e+00	-1.639087e+02
8.700000e-07	7.615272e-07	-1.899208e-09	5.149038e+00	-1.284093e+02
8.800000e-07	9.211895e-07	-1.281524e-09	6.228589e+00	-8.545068e+01
8.900000e-07	1.080520e-06	-5.472478e-10	7.305896e+00	-3.431403e+01
9.000000e-07	1.239580e-06	3.271153e-10	8.381377e+00	2.433168e+01
9.100000e-07	1.398166e-06	1.332125e-09	9.453647e+00	8.833563e+01
9.200000e-07	1.556174e-06	2.401450e-09	1.052201e+01	1.543700e+02
9.300000e-07	1.713568e-06	3.423714e-09	1.158623e+01	2.185689e+02
9.400000e-07	1.870350e-06	4.307911e-09	1.264631e+01	2.773285e+02
9.500000e-07	2.026584e-06	5.027045e-09	1.370267e+01	3.280417e+02
9.600000e-07	2.182017e-06	5.603118e-09	1.475363e+01	3.695595e+02
9.700000e-07	2.336497e-06	6.074068e-09	1.579814e+01	4.022612e+02
9.800000e-07	2.490105e-06	6.468786e-09	1.683675e+01	4.277350e+02
9.900000e-07	2.642837e-06	6.805561e-09	1.786945e+01	4.481932e+02
1.000000e-06	2.794678e-06	7.097515e-09	1.889611e+01	4.658165e+02
1.010000e-06	2.945536e-06	7.359174e-09	1.991613e+01	4.822273e+02
1.020000e-06	3.095252e-06	7.599805e-09	2.092844e+01	4.982320e+02
1.030000e-06	3.243837e-06	7.820748e-09	2.193309e+01	5.138684e+02
1.040000e-06	3.391273e-06	8.023959e-09	2.292997e+01	5.286919e+02
1.050000e-06	3.537506e-06	8.213107e-09	2.391871e+01	5.421598e+02
1.060000e-06	3.682527e-06	8.389864e-09	2.489927e+01	5.539619e+02
1.070000e-06	3.826233e-06	8.553022e-09	2.587093e+01	5.641841e+02
1.080000e-06	3.968509e-06	8.705411e-09	2.683293e+01	5.732690e+02
1.090000e-06	4.109301e-06	8.850375e-09	2.778489e+01	5.818233e+02
1.100000e-06	4.248455e-06	8.990540e-09	2.872578e+01	5.903689e+02
1.110000e-06	4.385979e-06	9.124009e-09	2.965564e+01	5.991514e+02
1.120000e-06	4.521891e-06	9.246923e-09	3.057460e+01	6.080804e+02
1.130000e-06	4.656146e-06	9.365520e-09	3.148236e+01	6.168140e+02
1.140000e-06	4.788772e-06	9.484974e-09	3.237911e+01	6.249416e+02
1.150000e-06	4.919634e-06	9.601144e-09	3.326393e+01	6.321800e+02
1.160000e-06	5.048768e-06	9.704553e-09	3.413706e+01	6.384983e+02
1.170000e-06	5.176160e-06	9.794770e-09	3.499842e+01	6.441259e+02
1.180000e-06	5.301753e-06	9.882710e-09	3.584761e+01	6.494468e+02
1.190000e-06	5.425486e-06	9.970660e-09	3.668422e+01	6.548338e+02
1.200000e-06	5.547224e-06	1.005520e-08	3.750735e+01	6.604966e+02
1.210000e-06	5.666908e-06	1.013541e-08	3.831660e+01	6.664078e+02
1.220000e-06	5.784453e-06	1.021621e-08	3.911137e+01	6.723350e+02
1.230000e-06	5.899809e-06	1.029975e-08	3.989135e+01	6.779584e+02
1.240000e-06	6.012910e-06	1.037754e-08	4.065607e+01	6.830204e+02
1.250000e-06	6.123847e-06	1.044551e-08	4.140617e+01	6.874405e+02
1.260000e-06	6.232690e-06	1.050798e-08	4.214211e+01	6.913478e+02
1.270000e-06	6.339342e-06	1.057027e-08	4.286323e+01	6.950206e+02
1.280000e-06	6.443650e-06	1.063275e-08	4.356850e+01	6.987623e+02
1.290000e-06	6.545606e-06	1.069259e-08	4.425787e+01	7.027699e+02
1.300000e-06	6.645235e-06	1.075037e-08	4.493151e+01	7.070523e+02
1.310000e-06	6.742400e-06	1.080804e-08	4.558849e+01	7.114316e+02
1.320000e-06	6.837141e-06	1.086536e-08	4.622908e+01	7.156247e+02
1.330000e-06	6.929529e-06	1.092048e-08	4.685376e+01	7.193684e+02
1.340000e-06	7.019399e-06	1.097146e-08	4.746141e+01	7.225322e+02
1.350000e-06	7.106797e-06	1.101987e-08	4.805235e+01	7.251718e+02
1.360000e-06	7.191864e-06	1.106774e-08	4.862752e+01	7.275015e+02
1.370000e-06	7.274410e-06	1.111181e-08	4.918566e+01	7.297999e+02
1.380000e-06	7.354273e-06	1.114838e-08	4.972565e+01	7.322912e+02
1.390000e-06	7.431425e-06	1.118266e-08	5.024731e+01	7.350526e+02
1.400000e-06	7.505826e-06	1.122245e-08	5.075037e+01	7.379877e+02
1.410000e-06	7.577516e-06	1.126630e-08	5.123510e+01	7.408750e+02
1.420000e-06	7.646518e-06	1.130829e-08	5.170166e+01	7.434678e+02
1.430000e-06	7.712736e-06	1.134551e-08	5.214938e+01	7.456024e+02
1.440000e-06	7.776226e-06	1.137817e-08	5.257867e+01	7.472671e+02
1.450000e-06	7.837093e-06	1.140499e-08	5.299022e+01	7.486041e+02
1.460000e-06	7.895130e-06	1.142555e-08	5.338263e+01	7.498444e+02
1.470000e-06	7.950279e-06	1.144568e-08	5.375553e+01	7.512065e+02
1.480000e-06	8.002365e-06	1.146903e-08	5.410770e+01	7.528025e+02
1.490000e-06	8.051240e-06	1.149338e-08	5.443816e+01	7.545930e+02
1.500000e-06	8.097230e-06	1.151846e-08	5.474912e+01	7.564074e+02
1.510000e-06	8.140412e-06	1.154412e-08	5.504110e+01	7.580218e+02
1.520000e-06	8.180636e-06	1.156766e-08	5.531308e+01	7.592574e+02
1.530000e-06	8.217994e-06	1.158736e-08	5.556567e+01	7.600579e+02
1.540000e-06	8.252501e-06	1.159895e-08	5.579898e+01	7.605128e+02
1.550000e-06	8.284140e-06	1.160411e-08	5.601291e+01	7.608168e+02
1.560000e-06	8.312942e-06	1.161108e-08	5.620766e+01	7.611851e+02
1.570000e-06	8.338680e-06	1.162225e-08	5.638168e+01	7.617616e+02
1.580000e-06	8.361452e-06	1.163556e-08	5.653566e+01	7.625592e+02
1.590000e-06	8.381456e-06	1.164956e-08	5.667091e+01	7.634576e+02
1.600000e-06	8.398437e-06	1.166163e-08	5.678573e+01	7.642587e+02
1.610000e-06	8.412239e-06	1.166963e-08	5.687905e+01	7.647741e+02
1.620000e-06	8.422798e-06	1.167196e-08	5.695044e+01	7.649066e+02
1.630000e-06	8.430234e-06	1.167058e-08	5.700072e+01	7.646902e+02
1.640000e-06	8.434747e-06	1.166842e-08	5.703123e+01	7.642733e+02
1.650000e-06	8.436265e-06	1.166554e-08	5.704150e+01	7.638517e+02
1.660000e-06	8.434936e-06	1.166196e-08	5.703251e+01	7.635830e+02
1.670000e-06	8.430847e-06	1.165840e-08	5.700486e+01	7.635184e+02
1.680000e-06	8.423928e-06	1.165768e-08	5.695808e+01	7.635820e+02
1.690000e-06	8.414176e-06	1.165723e-08	5.689214e+01	7.636048e+02
1.700000e-06	8.401427e-06	1.165480e-08	5.680594e+01	7.633993e+02
1.710000e-06	8.385866e-06	1.164877e-08	5.670073e+01	7.628407e+02
1.720000e-06	8.367883e-06	1.164146e-08	5.657914e+01	7.619205e+02
1.730000e-06	8.347323e-06	1.162151e-08	5.644012e+01	7.607501e+02
1.740000e-06	8.323579e-06	1.156741e-08	5.627957e+01	7.595137e+02
1.750000e-06	8.296032e-06	1.152270e-08	5.609332e+01	7.583913e+02
1.760000e-06	8.264704e-06	1.152022e-08	5.588149e+01	7.574859e+02
1.770000e-06	8.230403e-06	1.153854e-08	5.564957e+01	7.567843e+02
1.780000e-06	8.193642e-06	1.155608e-08	5.540101e+01	7.561674e+02
1.790000e-06	8.154559e-06	1.155590e-08	5.513676e+01	7.554631e+02
1.800000e-06	8.113484e-06	1.151118e-08	5.485903e+01	7.545175e+02
1.810000e-06	8.069905e-06	1.147849e-08	5.456437e+01	7.532535e+02
1.820000e-06	8.023292e-06	1.148681e-08	5.424920e+01	7.516915e+02
1.830000e-06	7.973803e-06	1.146479e-08	5.391458e+01	7.499272e+02
1.840000e-06	7.920982e-06	1.146235e-08	5.355743e+01	7.480775e+02
1.850000e-06	7.865084e-06	1.143291e-08	5.317948e+01	7.462228e+02
1.860000e-06	7.806511e-06	1.141126e-08	5.278344e+01	7.443703e+02
1.870000e-06	7.745031e-06	1.140517e-08	5.236774e+01	7.424565e+02
1.880000e-06	7.680829e-06	1.130546e-08	5.193364e+01	7.403850e+02
1.890000e-06	7.613812e-06	1.126011e-08	5.148051e+01	7.380797e+02
1.900000e-06	7.543884e-06	1.121939e-08	5.100770e+01	7.355291e+02
1.910000e-06	7.470977e-06	1.118415e-08	5.051474e+01	7.327974e+02
1.920000e-06	7.395175e-06	1.118919e-08	5.000220e+01	7.299977e+02
1.930000e-06	7.316638e-06	1.113949e-08	4.947118e+01	7.272392e+02
1.940000e-06	7.235391e-06	1.110991e-08	4.892184e+01	7.245726e+02
1.950000e-06	7.151666e-06	1.104150e-08	4.835573e+01	7.219600e+02
1.960000e-06	7.065324e-06	1.098195e-08	4.777193e+01	7.192864e+02
1.970000e-06	6.976427e-06	1.092381e-08	4.717086e+01	7.164065e+02
1.980000e-06	6.885091e-06	1.085827e-08	4.655329e+01	7.132094e+02
1.990000e-06	6.791217e-06	1.084473e-08	4.591857e+01	7.096697e+02
2.000000e-06	6.694994e-06	1.080045e-08	4.526796e+01	7.058624e+02
2.010000e-06	6.596493e-06	1.075703e-08	4.460194e+01	7.019318e+02
2.020000e-06	6.495624e-06	1.068324e-08	4.391992e+01	6.980279e+02
2.030000e-06	6.392288e-06	1.060638e-08	4.322122e+01	6.942378e+02
2.040000e-06	6.286657e-06	1.054312e-08	4.250700e+01	6.905422e+02
2.050000e-06	6.178906e-06	1.047949e-08	4.177845e+01	6.868195e+02
2.060000e-06	6.069011e-06	1.042386e-08	4.103540e+01	6.828955e+02
2.070000e-06	5.956755e-06	1.036280e-08	4.027638e+01	6.786193e+02
2.080000e-06	5.842137e-06	1.030271e-08	3.950139e+01	6.739307e+02
2.090000e-06	5.725267e-06	1.023143e-08	3.871119e+01	6.688894e+02
2.100000e-06	5.606117e-06	1.014247e-08	3.790556e+01	6.636501e+02
2.110000e-06	5.484929e-06	1.004857e-08	3.708615e+01	6.583945e+02
2.120000e-06	5.361820e-06	9.968808e-09	3.625375e+01	6.532470e+02
2.130000e-06	5.236864e-06	9.892421e-09	3.540886e+01	6.482143e+02
2.140000e-06	5.110078e-06	9.825056e-09	3.455161e+01	6.431754e+02
2.150000e-06	4.981430e-06	9.741139e-09	3.368176e+01	6.379285e+02
2.160000e-06	4.851007e-06	9.653607e-09	3.279990e+01	6.322772e+02
2.170000e-06	4.718881e-06	9.552094e-09	3.190654e+01	6.261171e+02
2.180000e-06	4.585028e-06	9.445131e-09	3.100150e+01	6.194841e+02
2.190000e-06	4.449444e-06	9.346658e-09	3.008475e+01	6.125412e+02
2.200000e-06	4.312150e-06	9.248432e-09	2.915644e+01	6.055073e+02
2.210000e-06	4.173277e-06	9.156988e-09	2.821746e+01	5.985566e+02
2.220000e-06	4.032930e-06	9.053837e-09	2.726851e+01	5.917343e+02
2.230000e-06	3.891087e-06	8.940671e-09	2.630945e+01	5.849263e+02
2.240000e-06	3.747769e-06	8.815750e-09	2.534041e+01	5.779000e+02
2.250000e-06	3.603042e-06	8.688579e-09	2.436184e+01	5.704005e+02
2.260000e-06	3.457061e-06	8.562628e-09	2.337479e+01	5.622610e+02
2.270000e-06	3.309846e-06	8.437922e-09	2.237940e+01	5.534783e+02
2.280000e-06	3.161457e-06	8.312988e-09	2.137607e+01	5.442170e+02
2.290000e-06	3.011980e-06	8.183957e-09	2.036540e+01	5.347357e+02
2.300000e-06	2.861489e-06	8.045889e-09	1.934786e+01	5.252658e+02
2.310000e-06	2.709962e-06	7.898024e-09	1.832331e+01	5.158942e+02
2.320000e-06	2.557372e-06	7.739680e-09	1.729158e+01	5.065050e+02
2.330000e-06	2.403820e-06	7.576970e-09	1.625334e+01	4.968100e+02
2.340000e-06	2.249451e-06	7.411864e-09	1.520958e+01	4.864607e+02
2.350000e-06	2.094310e-06	7.243823e-09	1.416060e+01	4.751961e+02
2.360000e-06	1.938403e-06	7.069745e-09	1.310644e+01	4.629604e+02
2.370000e-06	1.781820e-06	6.885872e-09	1.204771e+01	4.499341e+02
2.380000e-06	1.624613e-06	6.693811e-09	1.098476e+01	4.364551e+02
2.390000e-06	1.466865e-06	6.490624e-09	9.918152e+00	4.228574e+02
2.400000e-06	1.308594e-06	6.274883e-09	8.848010e+00	4.092921e+02
2.410000e-06	1.149763e-06	6.045351e-09	7.774084e+00	3.956125e+02
2.420000e-06	9.904784e-07	5.807824e-09	6.697084e+00	3.813816e+02
2.430000e-06	8.308699e-07	5.562347e-09	5.617897e+00	3.660131e+02
2.440000e-06	6.709565e-07	5.307266e-09	4.536648e+00	3.489962e+02
2.450000e-06	5.107885e-07	5.038254e-09	3.453678e+00	3.301072e+02
2.460000e-06	3.504373e-07	4.750534e-09	2.369469e+00	3.095086e+02
2.470000e-06	1.899499e-07	4.439939e-09	1.284340e+00	2.876668e+02
2.480000e-06	2.937960e-08	4.102987e-09	1.986491e-01	2.650910e+02
2.490000e-06	-1.311791e-07	3.736508e-09	-8.869626e-01	2.419776e+02
2.500000e-06	-2.916675e-07	3.334371e-09	-1.972099e+00	2.178924e+02
2.510000e-06	-4.519815e-07	2.897626e-09	-3.056057e+00	1.916385e+02
2.520000e-06	-6.120785e-07	2.421288e-09	-4.138547e+00	1.614005e+02
2.530000e-06	-7.719469e-07	1.887706e-09	-5.219491e+00	1.251696e+02
2.540000e-06	-9.315266e-07	1.268699e-09	-6.298483e+00	8.134689e+01
2.550000e-06	-1.090757e-06	5.339512e-10	-7.375117e+00	2.934658e+01
2.560000e-06	-1.249556e-06	-3.420847e-10	-8.448831e+00	-3.000117e+01
2.570000e-06	-1.407886e-06	-1.354618e-09	-9.519368e+00	-9.439795e+01
2.580000e-06	-1.565676e-06	-2.436190e-09	-1.058626e+01	-1.604231e+02
2.590000e-06	-1.722837e-06	-3.471467e-09	-1.164890e+01	-2.241999e+02
2.600000e-06	-1.879386e-06	-4.361095e-09	-1.270740e+01	-2.821993e+02
2.610000e-06	-2.035282e-06	-5.076167e-09	-1.376149e+01	-3.319547e+02
2.620000e-06	-2.190361e-06	-5.647150e-09	-1.481004e+01	-3.724850e+02
2.630000e-06	-2.344666e-06	-6.117573e-09	-1.585337e+01	-4.043201e+02
2.640000e-06	-2.498135e-06	-6.515009e-09	-1.689105e+01	-4.291463e+02
2.650000e-06	-2.650659e-06	-6.854158e-09	-1.792234e+01	-4.492030e+02
2.660000e-06	-2.802258e-06	-7.149808e-09	-1.894736e+01	-4.666325e+02
2.670000e-06	-2.952864e-06	-7.418330e-09	-1.996568e+01	-4.829766e+02
2.680000e-06	-3.102323e-06	-7.667077e-09	-2.097624e+01	-4.989519e+02
2.690000e-06	-3.250614e-06	-7.895095e-09	-2.197891e+01	-5.145279e+02
2.700000e-06	-3.397855e-06	-8.099685e-09	-2.297447e+01	-5.292306e+02
2.710000e-06	-3.543945e-06	-8.285936e-09	-2.396225e+01	-5.425288e+02
2.720000e-06	-3.688745e-06	-8.458999e-09	-2.494131e+01	-5.541507e+02
2.730000e-06	-3.832233e-06	-8.618417e-09	-2.591150e+01	-5.642253e+02
2.740000e-06	-3.974261e-06	-8.766293e-09	-2.687182e+01	-5.732242e+02
2.750000e-06	-4.114682e-06	-8.909274e-09	-2.782127e+01	-5.817565e+02
2.760000e-06	-4.253559e-06	-9.051731e-09	-2.876028e+01	-5.903221e+02
2.770000e-06	-4.390829e-06	-9.188322e-09	-2.968843e+01	-5.991306e+02
2.780000e-06	-4.526461e-06	-9.315710e-09	-3.060550e+01	-6.080583e+02
2.790000e-06	-4.660461e-06	-9.435302e-09	-3.151154e+01	-6.167462e+02
2.800000e-06	-4.792800e-06	-9.546104e-09	-3.240634e+01	-6.247887e+02
2.810000e-06	-4.923489e-06	-9.646025e-09	-3.328999e+01	-6.319253e+02
2.820000e-06	-5.052443e-06	-9.738160e-09	-3.416191e+01	-6.381551e+02
2.830000e-06	-5.179671e-06	-9.830240e-09	-3.502216e+01	-6.437306e+02
2.840000e-06	-5.305089e-06	-9.925386e-09	-3.587017e+01	-6.490429e+02
2.850000e-06	-5.428607e-06	-1.002061e-08	-3.670533e+01	-6.544537e+02
2.860000e-06	-5.550188e-06	-1.011072e-08	-3.752739e+01	-6.601490e+02
2.870000e-06	-5.669761e-06	-1.019562e-08	-3.833588e+01	-6.660762e+02
2.880000e-06	-5.787182e-06	-1.027884e-08	-3.912982e+01	-6.719866e+02
2.890000e-06	-5.902265e-06	-1.035804e-08	-3.990795e+01	-6.775601e+02
2.900000e-06	-6.014958e-06	-1.042775e-08	-4.066992e+01	-6.825538e+02
2.910000e-06	-6.125293e-06	-1.049006e-08	-4.141594e+01	-6.869097e+02
2.920000e-06	-6.233413e-06	-1.055366e-08	-4.214700e+01	-6.907773e+02
2.930000e-06	-6.339437e-06	-1.062250e-08	-4.286387e+01	-6.944442e+02
2.940000e-06	-6.443272e-06	-1.069315e-08	-4.356595e+01	-6.982082e+02
