# Temperatura_=_52.06
# Concentracion g/m^3_=_13400.0
# C_Vs_to_Am_M_A/Vsm_=_65563218390.804596
# pendiente_HvsI_1/m_=_3716.3
# ordenada_HvsI_A/m_=_1297.0
# frecuencia_Hz_=_301398.6878551077

Tiempo_(s)	Campo_(V.s)	Magnetizacion_(V.s)	Campo_(kA/m)	Magnetizacion_(A/m)
0.000000e+00	-8.393445e-06	-1.140650e-08	-5.692629e+01	-7.489524e+02
1.000000e-08	-8.389574e-06	-1.140369e-08	-5.690003e+01	-7.489320e+02
2.000000e-08	-8.383024e-06	-1.140011e-08	-5.685561e+01	-7.490346e+02
3.000000e-08	-8.373761e-06	-1.139447e-08	-5.679278e+01	-7.490878e+02
4.000000e-08	-8.361507e-06	-1.138863e-08	-5.670968e+01	-7.489029e+02
5.000000e-08	-8.346175e-06	-1.138307e-08	-5.660569e+01	-7.483577e+02
6.000000e-08	-8.327962e-06	-1.137300e-08	-5.648216e+01	-7.474515e+02
7.000000e-08	-8.307254e-06	-1.135405e-08	-5.634172e+01	-7.463065e+02
8.000000e-08	-8.283876e-06	-1.135120e-08	-5.618316e+01	-7.451181e+02
9.000000e-08	-8.257195e-06	-1.137925e-08	-5.600221e+01	-7.440730e+02
1.000000e-07	-8.227135e-06	-1.138183e-08	-5.579833e+01	-7.432709e+02
1.100000e-07	-8.193974e-06	-1.133894e-08	-5.557343e+01	-7.426846e+02
1.200000e-07	-8.157889e-06	-1.129344e-08	-5.532869e+01	-7.421727e+02
1.300000e-07	-8.119245e-06	-1.126969e-08	-5.506659e+01	-7.415401e+02
1.400000e-07	-8.078257e-06	-1.124635e-08	-5.478861e+01	-7.406187e+02
1.500000e-07	-8.034718e-06	-1.123338e-08	-5.449332e+01	-7.393336e+02
1.600000e-07	-7.988389e-06	-1.123441e-08	-5.417910e+01	-7.377273e+02
1.700000e-07	-7.939195e-06	-1.120743e-08	-5.384546e+01	-7.359319e+02
1.800000e-07	-7.886942e-06	-1.120236e-08	-5.349106e+01	-7.341043e+02
1.900000e-07	-7.831584e-06	-1.116880e-08	-5.311561e+01	-7.323533e+02
2.000000e-07	-7.773385e-06	-1.109302e-08	-5.272089e+01	-7.306919e+02
2.100000e-07	-7.712423e-06	-1.106192e-08	-5.230744e+01	-7.290348e+02
2.200000e-07	-7.648757e-06	-1.104811e-08	-5.187564e+01	-7.272424e+02
2.300000e-07	-7.582300e-06	-1.104858e-08	-5.142491e+01	-7.251891e+02
2.400000e-07	-7.512966e-06	-1.101952e-08	-5.095467e+01	-7.228248e+02
2.500000e-07	-7.440828e-06	-1.096803e-08	-5.046542e+01	-7.202019e+02
2.600000e-07	-7.365820e-06	-1.093785e-08	-4.995669e+01	-7.174533e+02
2.700000e-07	-7.287923e-06	-1.089530e-08	-4.942838e+01	-7.147331e+02
2.800000e-07	-7.207187e-06	-1.084273e-08	-4.888081e+01	-7.121443e+02
2.900000e-07	-7.123845e-06	-1.078738e-08	-4.831557e+01	-7.096891e+02
3.000000e-07	-7.038207e-06	-1.076913e-08	-4.773475e+01	-7.072626e+02
3.100000e-07	-6.950203e-06	-1.075314e-08	-4.713788e+01	-7.046950e+02
3.200000e-07	-6.859686e-06	-1.070296e-08	-4.652397e+01	-7.018246e+02
3.300000e-07	-6.766706e-06	-1.064188e-08	-4.589336e+01	-6.985681e+02
3.400000e-07	-6.671322e-06	-1.057229e-08	-4.524645e+01	-6.949585e+02
3.500000e-07	-6.573554e-06	-1.052590e-08	-4.458336e+01	-6.911311e+02
3.600000e-07	-6.473348e-06	-1.047784e-08	-4.390374e+01	-6.872645e+02
3.700000e-07	-6.370737e-06	-1.042035e-08	-4.320781e+01	-6.835015e+02
3.800000e-07	-6.265833e-06	-1.036570e-08	-4.249633e+01	-6.798848e+02
3.900000e-07	-6.158710e-06	-1.031763e-08	-4.176980e+01	-6.763358e+02
4.000000e-07	-6.049384e-06	-1.025977e-08	-4.102832e+01	-6.726880e+02
4.100000e-07	-5.937828e-06	-1.017647e-08	-4.027172e+01	-6.687591e+02
4.200000e-07	-5.824010e-06	-1.009981e-08	-3.949978e+01	-6.644306e+02
4.300000e-07	-5.707935e-06	-1.004039e-08	-3.871253e+01	-6.597003e+02
4.400000e-07	-5.589660e-06	-9.990867e-09	-3.791037e+01	-6.546821e+02
4.500000e-07	-5.469277e-06	-9.929185e-09	-3.709390e+01	-6.495537e+02
4.600000e-07	-5.346981e-06	-9.848419e-09	-3.626446e+01	-6.444748e+02
4.700000e-07	-5.222820e-06	-9.760767e-09	-3.542237e+01	-6.395114e+02
4.800000e-07	-5.096746e-06	-9.677794e-09	-3.456731e+01	-6.346020e+02
4.900000e-07	-4.968823e-06	-9.591152e-09	-3.369970e+01	-6.295807e+02
5.000000e-07	-4.839115e-06	-9.498000e-09	-3.281999e+01	-6.242485e+02
5.100000e-07	-4.707613e-06	-9.410320e-09	-3.192812e+01	-6.184614e+02
5.200000e-07	-4.574382e-06	-9.331712e-09	-3.102451e+01	-6.121952e+02
5.300000e-07	-4.439589e-06	-9.250765e-09	-3.011032e+01	-6.055573e+02
5.400000e-07	-4.303182e-06	-9.150389e-09	-2.918518e+01	-5.987378e+02
5.500000e-07	-4.165155e-06	-9.036744e-09	-2.824904e+01	-5.919206e+02
5.600000e-07	-4.025526e-06	-8.925433e-09	-2.730205e+01	-5.851945e+02
5.700000e-07	-3.884170e-06	-8.821590e-09	-2.634334e+01	-5.785041e+02
5.800000e-07	-3.741264e-06	-8.713417e-09	-2.537412e+01	-5.716660e+02
5.900000e-07	-3.597052e-06	-8.596145e-09	-2.439604e+01	-5.644443e+02
6.000000e-07	-3.451601e-06	-8.474950e-09	-2.340955e+01	-5.566539e+02
6.100000e-07	-3.304861e-06	-8.354951e-09	-2.241433e+01	-5.482449e+02
6.200000e-07	-3.156870e-06	-8.232053e-09	-2.141062e+01	-5.393267e+02
6.300000e-07	-3.007828e-06	-8.098051e-09	-2.039979e+01	-5.301198e+02
6.400000e-07	-2.857810e-06	-7.956165e-09	-1.938233e+01	-5.208502e+02
6.500000e-07	-2.706862e-06	-7.813637e-09	-1.835856e+01	-5.116350e+02
6.600000e-07	-2.554953e-06	-7.666367e-09	-1.732828e+01	-5.024098e+02
6.700000e-07	-2.402101e-06	-7.506273e-09	-1.629160e+01	-4.929363e+02
6.800000e-07	-2.248442e-06	-7.338706e-09	-1.524945e+01	-4.828907e+02
6.900000e-07	-2.093941e-06	-7.170773e-09	-1.420159e+01	-4.719997e+02
7.000000e-07	-1.938599e-06	-7.002580e-09	-1.314803e+01	-4.601624e+02
7.100000e-07	-1.782544e-06	-6.826639e-09	-1.208963e+01	-4.475011e+02
7.200000e-07	-1.625868e-06	-6.638001e-09	-1.102701e+01	-4.343097e+02
7.300000e-07	-1.468595e-06	-6.438972e-09	-9.960350e+00	-4.209137e+02
7.400000e-07	-1.310720e-06	-6.231187e-09	-8.889604e+00	-4.074987e+02
7.500000e-07	-1.152304e-06	-6.009875e-09	-7.815192e+00	-3.939822e+02
7.600000e-07	-9.934204e-07	-5.773529e-09	-6.737607e+00	-3.799946e+02
7.700000e-07	-8.342258e-07	-5.528959e-09	-5.657912e+00	-3.649893e+02
7.800000e-07	-6.747934e-07	-5.278821e-09	-4.576605e+00	-3.484461e+02
7.900000e-07	-5.151014e-07	-5.015996e-09	-3.493536e+00	-3.300847e+02
8.000000e-07	-3.552398e-07	-4.730382e-09	-2.409319e+00	-3.099860e+02
8.100000e-07	-1.952821e-07	-4.420981e-09	-1.324448e+00	-2.885485e+02
8.200000e-07	-3.529280e-08	-4.089682e-09	-2.393639e-01	-2.662664e+02
8.300000e-07	1.246813e-07	-3.732881e-09	8.456176e-01	-2.433945e+02
8.400000e-07	2.846272e-07	-3.342078e-09	1.930407e+00	-2.196251e+02
8.500000e-07	4.444907e-07	-2.913267e-09	3.014639e+00	-1.939170e+02
8.600000e-07	6.041567e-07	-2.444158e-09	4.097530e+00	-1.645843e+02
8.700000e-07	7.635629e-07	-1.919602e-09	5.178660e+00	-1.296650e+02
8.800000e-07	9.227350e-07	-1.313099e-09	6.258202e+00	-8.748872e+01
8.900000e-07	1.081634e-06	-5.936336e-10	7.335891e+00	-3.728100e+01
9.000000e-07	1.240171e-06	2.634683e-10	8.411123e+00	2.039291e+01
9.100000e-07	1.398251e-06	1.252768e-09	9.483261e+00	8.350706e+01
9.200000e-07	1.555773e-06	2.312082e-09	1.055161e+01	1.488447e+02
9.300000e-07	1.712679e-06	3.332230e-09	1.161578e+01	2.126064e+02
9.400000e-07	1.868935e-06	4.218724e-09	1.267555e+01	2.711930e+02
9.500000e-07	2.024505e-06	4.939722e-09	1.373066e+01	3.219426e+02
9.600000e-07	2.179302e-06	5.515853e-09	1.478053e+01	3.636130e+02
9.700000e-07	2.333259e-06	5.984625e-09	1.582470e+01	3.964814e+02
9.800000e-07	2.486408e-06	6.377699e-09	1.686340e+01	4.220563e+02
9.900000e-07	2.638718e-06	6.714716e-09	1.789639e+01	4.425114e+02
1.000000e-06	2.790096e-06	7.008958e-09	1.892308e+01	4.600336e+02
1.010000e-06	2.940462e-06	7.271267e-09	1.994289e+01	4.762840e+02
1.020000e-06	3.089709e-06	7.510156e-09	2.095512e+01	4.921181e+02
1.030000e-06	3.237771e-06	7.729110e-09	2.195931e+01	5.076113e+02
1.040000e-06	3.384691e-06	7.930289e-09	2.295576e+01	5.223304e+02
1.050000e-06	3.530502e-06	8.117262e-09	2.394468e+01	5.357168e+02
1.060000e-06	3.675057e-06	8.291915e-09	2.492508e+01	5.474271e+02
1.070000e-06	3.818259e-06	8.454625e-09	2.589632e+01	5.575138e+02
1.080000e-06	3.960039e-06	8.604303e-09	2.685790e+01	5.664023e+02
1.090000e-06	4.100208e-06	8.742876e-09	2.780856e+01	5.747060e+02
1.100000e-06	4.238753e-06	8.876113e-09	2.874820e+01	5.829754e+02
1.110000e-06	4.375795e-06	9.004836e-09	2.967765e+01	5.914946e+02
1.120000e-06	4.511272e-06	9.128407e-09	3.059649e+01	6.002052e+02
1.130000e-06	4.645084e-06	9.249289e-09	3.150403e+01	6.087786e+02
1.140000e-06	4.777183e-06	9.368049e-09	3.239996e+01	6.167931e+02
1.150000e-06	4.907571e-06	9.480105e-09	3.328428e+01	6.239354e+02
1.160000e-06	5.036323e-06	9.579023e-09	3.415751e+01	6.301387e+02
1.170000e-06	5.163319e-06	9.665074e-09	3.501882e+01	6.356051e+02
1.180000e-06	5.288528e-06	9.746130e-09	3.586802e+01	6.407120e+02
1.190000e-06	5.411859e-06	9.827236e-09	3.670448e+01	6.458480e+02
1.200000e-06	5.533148e-06	9.908524e-09	3.752709e+01	6.512551e+02
1.210000e-06	5.652400e-06	9.989827e-09	3.833588e+01	6.569410e+02
1.220000e-06	5.769554e-06	1.007254e-08	3.913045e+01	6.626968e+02
1.230000e-06	5.884480e-06	1.015457e-08	3.990990e+01	6.682051e+02
1.240000e-06	5.997149e-06	1.022785e-08	4.067405e+01	6.731889e+02
1.250000e-06	6.107720e-06	1.029084e-08	4.142397e+01	6.775337e+02
1.260000e-06	6.216185e-06	1.034966e-08	4.215960e+01	6.813335e+02
1.270000e-06	6.322407e-06	1.040954e-08	4.288002e+01	6.848445e+02
1.280000e-06	6.426347e-06	1.047010e-08	4.358497e+01	6.883685e+02
1.290000e-06	6.527997e-06	1.052804e-08	4.427439e+01	6.921229e+02
1.300000e-06	6.627250e-06	1.058423e-08	4.494754e+01	6.961499e+02
1.310000e-06	6.724027e-06	1.064077e-08	4.560390e+01	7.003057e+02
1.320000e-06	6.818441e-06	1.069755e-08	4.624424e+01	7.043292e+02
1.330000e-06	6.910521e-06	1.075059e-08	4.686875e+01	7.079600e+02
1.340000e-06	7.000149e-06	1.079757e-08	4.747663e+01	7.110508e+02
1.350000e-06	7.087342e-06	1.084254e-08	4.806799e+01	7.136286e+02
1.360000e-06	7.172146e-06	1.088697e-08	4.864315e+01	7.158792e+02
1.370000e-06	7.254364e-06	1.092924e-08	4.920077e+01	7.180631e+02
1.380000e-06	7.333909e-06	1.096668e-08	4.974027e+01	7.204037e+02
1.390000e-06	7.410767e-06	1.100117e-08	5.026153e+01	7.229941e+02
1.400000e-06	7.484804e-06	1.103882e-08	5.076367e+01	7.257640e+02
1.410000e-06	7.556127e-06	1.107919e-08	5.124740e+01	7.285168e+02
1.420000e-06	7.624801e-06	1.111826e-08	5.171316e+01	7.310206e+02
1.430000e-06	7.690756e-06	1.115410e-08	5.216049e+01	7.331103e+02
1.440000e-06	7.754055e-06	1.118614e-08	5.258979e+01	7.347578e+02
1.450000e-06	7.814701e-06	1.121243e-08	5.300111e+01	7.360793e+02
1.460000e-06	7.872529e-06	1.123393e-08	5.339331e+01	7.372801e+02
1.470000e-06	7.927466e-06	1.125633e-08	5.376590e+01	7.385620e+02
1.480000e-06	7.979292e-06	1.127955e-08	5.411740e+01	7.400348e+02
1.490000e-06	8.027923e-06	1.130024e-08	5.444723e+01	7.416715e+02
1.500000e-06	8.073680e-06	1.132046e-08	5.475756e+01	7.433240e+02
1.510000e-06	8.116555e-06	1.134303e-08	5.504835e+01	7.447927e+02
1.520000e-06	8.156503e-06	1.136522e-08	5.531929e+01	7.459179e+02
1.530000e-06	8.193672e-06	1.138187e-08	5.557138e+01	7.466510e+02
1.540000e-06	8.227955e-06	1.139055e-08	5.580389e+01	7.470765e+02
1.550000e-06	8.259369e-06	1.139807e-08	5.601695e+01	7.473740e+02
1.560000e-06	8.288000e-06	1.141029e-08	5.621113e+01	7.477395e+02
1.570000e-06	8.313647e-06	1.142266e-08	5.638507e+01	7.482994e+02
1.580000e-06	8.336331e-06	1.143231e-08	5.653892e+01	7.490567e+02
1.590000e-06	8.356181e-06	1.144182e-08	5.667355e+01	7.498915e+02
1.600000e-06	8.373036e-06	1.145155e-08	5.678786e+01	7.506160e+02
1.610000e-06	8.386725e-06	1.145878e-08	5.688071e+01	7.510583e+02
1.620000e-06	8.397163e-06	1.146070e-08	5.695150e+01	7.511384e+02
1.630000e-06	8.404546e-06	1.146142e-08	5.700157e+01	7.509032e+02
1.640000e-06	8.408984e-06	1.146179e-08	5.703167e+01	7.505050e+02
1.650000e-06	8.410433e-06	1.145997e-08	5.704150e+01	7.501333e+02
1.660000e-06	8.409063e-06	1.145628e-08	5.703221e+01	7.499306e+02
1.670000e-06	8.404901e-06	1.145237e-08	5.700398e+01	7.499290e+02
1.680000e-06	8.397924e-06	1.145096e-08	5.695666e+01	7.500353e+02
1.690000e-06	8.388130e-06	1.144749e-08	5.689023e+01	7.500712e+02
1.700000e-06	8.375357e-06	1.144364e-08	5.680360e+01	7.498514e+02
1.710000e-06	8.359759e-06	1.143961e-08	5.669782e+01	7.492651e+02
1.720000e-06	8.341725e-06	1.143540e-08	5.657551e+01	7.483252e+02
1.730000e-06	8.321121e-06	1.141803e-08	5.643577e+01	7.471654e+02
1.740000e-06	8.297365e-06	1.136398e-08	5.627464e+01	7.459841e+02
1.750000e-06	8.269765e-06	1.131949e-08	5.608746e+01	7.449620e+02
1.760000e-06	8.238342e-06	1.132148e-08	5.587434e+01	7.441864e+02
1.770000e-06	8.204040e-06	1.134056e-08	5.564170e+01	7.436162e+02
1.780000e-06	8.167260e-06	1.135505e-08	5.539224e+01	7.431007e+02
1.790000e-06	8.128167e-06	1.134730e-08	5.512711e+01	7.424437e+02
1.800000e-06	8.087113e-06	1.130365e-08	5.484867e+01	7.414845e+02
1.810000e-06	8.043533e-06	1.127260e-08	5.455310e+01	7.401607e+02
1.820000e-06	7.996946e-06	1.128018e-08	5.423713e+01	7.385265e+02
1.830000e-06	7.947462e-06	1.126245e-08	5.390152e+01	7.367202e+02
1.840000e-06	7.894698e-06	1.125333e-08	5.354367e+01	7.348968e+02
1.850000e-06	7.838917e-06	1.122936e-08	5.316535e+01	7.331564e+02
1.860000e-06	7.780431e-06	1.120666e-08	5.276868e+01	7.315007e+02
1.870000e-06	7.719028e-06	1.119268e-08	5.235223e+01	7.298359e+02
1.880000e-06	7.654891e-06	1.110738e-08	5.191724e+01	7.280204e+02
1.890000e-06	7.587902e-06	1.107753e-08	5.146290e+01	7.259341e+02
1.900000e-06	7.518055e-06	1.103980e-08	5.098918e+01	7.235375e+02
1.910000e-06	7.445338e-06	1.100747e-08	5.049600e+01	7.208936e+02
1.920000e-06	7.369740e-06	1.101140e-08	4.998328e+01	7.181408e+02
1.930000e-06	7.291437e-06	1.094912e-08	4.945221e+01	7.154309e+02
1.940000e-06	7.210534e-06	1.092047e-08	4.890351e+01	7.128581e+02
1.950000e-06	7.127113e-06	1.086258e-08	4.833772e+01	7.104124e+02
1.960000e-06	7.040970e-06	1.080506e-08	4.775349e+01	7.079791e+02
1.970000e-06	6.952246e-06	1.075553e-08	4.715174e+01	7.053856e+02
1.980000e-06	6.861152e-06	1.069768e-08	4.653392e+01	7.024756e+02
1.990000e-06	6.767640e-06	1.068411e-08	4.589970e+01	6.991774e+02
2.000000e-06	6.671749e-06	1.063824e-08	4.524934e+01	6.955364e+02
2.010000e-06	6.573466e-06	1.059324e-08	4.458276e+01	6.916959e+02
2.020000e-06	6.472808e-06	1.052006e-08	4.390008e+01	6.878346e+02
2.030000e-06	6.369737e-06	1.044629e-08	4.320103e+01	6.840872e+02
2.040000e-06	6.264418e-06	1.038947e-08	4.248673e+01	6.804832e+02
2.050000e-06	6.156920e-06	1.032943e-08	4.175766e+01	6.769323e+02
2.060000e-06	6.047251e-06	1.027590e-08	4.101385e+01	6.732623e+02
2.070000e-06	5.935356e-06	1.021487e-08	4.025495e+01	6.692942e+02
2.080000e-06	5.821089e-06	1.015594e-08	3.947997e+01	6.649203e+02
2.090000e-06	5.704508e-06	1.008621e-08	3.868929e+01	6.601517e+02
2.100000e-06	5.585712e-06	9.999852e-09	3.788359e+01	6.551125e+02
2.110000e-06	5.464883e-06	9.913623e-09	3.706410e+01	6.499826e+02
2.120000e-06	5.342071e-06	9.842441e-09	3.623116e+01	6.449148e+02
2.130000e-06	5.217386e-06	9.769208e-09	3.538551e+01	6.399621e+02
2.140000e-06	5.090861e-06	9.701807e-09	3.452739e+01	6.350497e+02
2.150000e-06	4.962521e-06	9.614578e-09	3.365696e+01	6.300041e+02
2.160000e-06	4.832388e-06	9.524899e-09	3.277437e+01	6.246280e+02
2.170000e-06	4.700491e-06	9.429206e-09	3.187982e+01	6.187880e+02
2.180000e-06	4.566992e-06	9.333472e-09	3.097439e+01	6.124745e+02
2.190000e-06	4.431929e-06	9.245289e-09	3.005837e+01	6.058071e+02
2.200000e-06	4.295218e-06	9.152498e-09	2.913116e+01	5.989798e+02
2.210000e-06	4.156814e-06	9.060612e-09	2.819247e+01	5.921702e+02
2.220000e-06	4.016842e-06	8.950895e-09	2.724315e+01	5.854529e+02
2.230000e-06	3.875392e-06	8.834315e-09	2.628381e+01	5.787569e+02
2.240000e-06	3.732514e-06	8.712826e-09	2.531477e+01	5.718887e+02
2.250000e-06	3.588270e-06	8.596465e-09	2.433648e+01	5.646128e+02
2.260000e-06	3.442743e-06	8.481184e-09	2.334948e+01	5.567555e+02
2.270000e-06	3.295889e-06	8.363611e-09	2.235348e+01	5.482837e+02
2.280000e-06	3.147848e-06	8.240375e-09	2.134943e+01	5.393227e+02
2.290000e-06	2.998737e-06	8.111366e-09	2.033813e+01	5.300991e+02
2.300000e-06	2.848626e-06	7.972960e-09	1.932004e+01	5.208323e+02
2.310000e-06	2.697613e-06	7.822850e-09	1.829583e+01	5.116222e+02
2.320000e-06	2.545564e-06	7.664954e-09	1.726460e+01	5.023841e+02
2.330000e-06	2.392562e-06	7.508280e-09	1.622691e+01	4.928648e+02
2.340000e-06	2.238722e-06	7.354264e-09	1.518353e+01	4.827392e+02
2.350000e-06	2.084009e-06	7.192981e-09	1.413423e+01	4.717476e+02
2.360000e-06	1.928484e-06	7.020937e-09	1.307943e+01	4.598120e+02
2.370000e-06	1.772333e-06	6.837956e-09	1.202037e+01	4.470776e+02
2.380000e-06	1.615635e-06	6.649482e-09	1.095761e+01	4.338495e+02
2.390000e-06	1.458337e-06	6.449904e-09	9.890781e+00	4.204463e+02
2.400000e-06	1.300471e-06	6.236229e-09	8.820092e+00	4.070294e+02
2.410000e-06	1.142157e-06	6.010140e-09	7.746371e+00	3.934844e+02
2.420000e-06	9.834644e-07	5.779521e-09	6.670083e+00	3.794151e+02
2.430000e-06	8.244175e-07	5.540757e-09	5.591390e+00	3.642669e+02
2.440000e-06	6.650717e-07	5.287186e-09	4.510670e+00	3.475362e+02
2.450000e-06	5.054470e-07	5.017061e-09	3.428058e+00	3.289779e+02
2.460000e-06	3.456133e-07	4.732366e-09	2.344029e+00	3.087124e+02
2.470000e-06	1.856726e-07	4.429552e-09	1.259274e+00	2.871617e+02
2.480000e-06	2.565119e-08	4.097374e-09	1.739723e-01	2.648114e+02
2.490000e-06	-1.344091e-07	3.731210e-09	-9.115935e-01	2.418702e+02
2.500000e-06	-2.943700e-07	3.331992e-09	-1.996486e+00	2.179557e+02
2.510000e-06	-4.541383e-07	2.903763e-09	-3.080071e+00	1.919485e+02
2.520000e-06	-6.137172e-07	2.435034e-09	-4.162372e+00	1.621109e+02
2.530000e-06	-7.730518e-07	1.905956e-09	-5.243016e+00	1.264827e+02
2.540000e-06	-9.320872e-07	1.295996e-09	-6.321631e+00	8.346179e+01
2.550000e-06	-1.090779e-06	5.784997e-10	-7.397913e+00	3.240070e+01
2.560000e-06	-1.249039e-06	-2.787128e-10	-8.471271e+00	-2.597792e+01
2.570000e-06	-1.406813e-06	-1.277635e-09	-9.541328e+00	-8.950076e+01
2.580000e-06	-1.564107e-06	-2.349006e-09	-1.060813e+01	-1.548548e+02
2.590000e-06	-1.720861e-06	-3.375260e-09	-1.167128e+01	-2.182234e+02
2.600000e-06	-1.876994e-06	-4.261063e-09	-1.273020e+01	-2.760757e+02
2.610000e-06	-2.032454e-06	-4.980692e-09	-1.378458e+01	-3.258848e+02
2.620000e-06	-2.187101e-06	-5.558497e-09	-1.483342e+01	-3.665737e+02
2.630000e-06	-2.340914e-06	-6.028822e-09	-1.587662e+01	-3.985717e+02
2.640000e-06	-2.493894e-06	-6.420933e-09	-1.691417e+01	-4.234887e+02
2.650000e-06	-2.645925e-06	-6.758436e-09	-1.794528e+01	-4.435308e+02
2.660000e-06	-2.796995e-06	-7.058251e-09	-1.896987e+01	-4.608505e+02
2.670000e-06	-2.947034e-06	-7.326547e-09	-1.998746e+01	-4.770307e+02
2.680000e-06	-3.096004e-06	-7.568911e-09	-2.099781e+01	-4.928368e+02
2.690000e-06	-3.243963e-06	-7.793057e-09	-2.200131e+01	-5.082736e+02
2.700000e-06	-3.390792e-06	-7.997263e-09	-2.299713e+01	-5.228755e+02
2.710000e-06	-3.536382e-06	-8.180455e-09	-2.398456e+01	-5.360928e+02
2.720000e-06	-3.680692e-06	-8.348139e-09	-2.496330e+01	-5.476195e+02
2.730000e-06	-3.823602e-06	-8.505289e-09	-2.593255e+01	-5.575524e+02
2.740000e-06	-3.965047e-06	-8.655178e-09	-2.689186e+01	-5.663482e+02
2.750000e-06	-4.105030e-06	-8.799717e-09	-2.784126e+01	-5.746255e+02
2.760000e-06	-4.243474e-06	-8.937800e-09	-2.878022e+01	-5.829143e+02
2.770000e-06	-4.380322e-06	-9.065768e-09	-2.970836e+01	-5.914629e+02
2.780000e-06	-4.515571e-06	-9.186174e-09	-3.062565e+01	-6.001782e+02
2.790000e-06	-4.649160e-06	-9.302909e-09	-3.153168e+01	-6.087118e+02
2.800000e-06	-4.781120e-06	-9.412938e-09	-3.242666e+01	-6.166445e+02
2.810000e-06	-4.911415e-06	-9.512970e-09	-3.331035e+01	-6.236847e+02
2.820000e-06	-5.039957e-06	-9.604669e-09	-3.418216e+01	-6.297954e+02
2.830000e-06	-5.166723e-06	-9.696471e-09	-3.504191e+01	-6.352039e+02
2.840000e-06	-5.291662e-06	-9.790989e-09	-3.588928e+01	-6.402969e+02
2.850000e-06	-5.414752e-06	-9.881438e-09	-3.672410e+01	-6.454544e+02
2.860000e-06	-5.535891e-06	-9.965501e-09	-3.754569e+01	-6.508957e+02
2.870000e-06	-5.654942e-06	-1.004772e-08	-3.835313e+01	-6.566024e+02
2.880000e-06	-5.771856e-06	-1.012924e-08	-3.914606e+01	-6.623476e+02
2.890000e-06	-5.886468e-06	-1.020500e-08	-3.992339e+01	-6.678113e+02
2.900000e-06	-5.998665e-06	-1.027131e-08	-4.068433e+01	-6.727287e+02
2.910000e-06	-6.108560e-06	-1.033346e-08	-4.142967e+01	-6.770073e+02
2.920000e-06	-6.216295e-06	-1.039966e-08	-4.216035e+01	-6.807623e+02
2.930000e-06	-6.321952e-06	-1.046791e-08	-4.287694e+01	-6.842609e+02
2.940000e-06	-6.425470e-06	-1.053156e-08	-4.357902e+01	-6.878021e+02
