# Temperatura_=_20.5
# Concentracion g/m^3_=_13400.0
# C_Vs_to_Am_M_A/Vsm_=_65563218390.804596
# pendiente_HvsI_1/m_=_3716.3
# ordenada_HvsI_A/m_=_1297.0
# frecuencia_Hz_=_301391.95710966404

Tiempo_(s)	Campo_(V.s)	Magnetizacion_(V.s)	Campo_(kA/m)	Magnetizacion_(A/m)
0.000000e+00	-8.419499e-06	-9.548893e-09	-5.693120e+01	-6.253045e+02
1.000000e-08	-8.415657e-06	-9.545244e-09	-5.690522e+01	-6.251713e+02
2.000000e-08	-8.409126e-06	-9.538591e-09	-5.686106e+01	-6.251591e+02
3.000000e-08	-8.399834e-06	-9.532580e-09	-5.679822e+01	-6.252025e+02
4.000000e-08	-8.387606e-06	-9.528670e-09	-5.671554e+01	-6.251828e+02
5.000000e-08	-8.372259e-06	-9.525417e-09	-5.661177e+01	-6.249810e+02
6.000000e-08	-8.353971e-06	-9.518673e-09	-5.648811e+01	-6.245309e+02
7.000000e-08	-8.333187e-06	-9.504459e-09	-5.634757e+01	-6.238499e+02
8.000000e-08	-8.309712e-06	-9.509486e-09	-5.618884e+01	-6.230342e+02
9.000000e-08	-8.282978e-06	-9.542122e-09	-5.600807e+01	-6.222189e+02
1.000000e-07	-8.252872e-06	-9.527506e-09	-5.580450e+01	-6.215222e+02
1.100000e-07	-8.219650e-06	-9.482607e-09	-5.557986e+01	-6.209959e+02
1.200000e-07	-8.183539e-06	-9.449037e-09	-5.533568e+01	-6.206033e+02
1.300000e-07	-8.144860e-06	-9.426231e-09	-5.507414e+01	-6.202348e+02
1.400000e-07	-8.103850e-06	-9.414093e-09	-5.479684e+01	-6.197527e+02
1.500000e-07	-8.060236e-06	-9.429669e-09	-5.450192e+01	-6.190463e+02
1.600000e-07	-8.013726e-06	-9.449782e-09	-5.418743e+01	-6.180738e+02
1.700000e-07	-7.964359e-06	-9.407387e-09	-5.385362e+01	-6.168736e+02
1.800000e-07	-7.911920e-06	-9.420364e-09	-5.349904e+01	-6.155415e+02
1.900000e-07	-7.856460e-06	-9.381394e-09	-5.312403e+01	-6.141848e+02
2.000000e-07	-7.798195e-06	-9.307618e-09	-5.273005e+01	-6.128749e+02
2.100000e-07	-7.737104e-06	-9.298204e-09	-5.231696e+01	-6.116184e+02
2.200000e-07	-7.673293e-06	-9.278566e-09	-5.188548e+01	-6.103599e+02
2.300000e-07	-7.606663e-06	-9.305940e-09	-5.143494e+01	-6.090130e+02
2.400000e-07	-7.537176e-06	-9.285392e-09	-5.096508e+01	-6.075047e+02
2.500000e-07	-7.464886e-06	-9.233753e-09	-5.047627e+01	-6.058123e+02
2.600000e-07	-7.389683e-06	-9.202938e-09	-4.996776e+01	-6.039750e+02
2.700000e-07	-7.311645e-06	-9.173843e-09	-4.944008e+01	-6.020749e+02
2.800000e-07	-7.230779e-06	-9.141615e-09	-4.889328e+01	-6.001965e+02
2.900000e-07	-7.147278e-06	-9.102077e-09	-4.832866e+01	-5.983829e+02
3.000000e-07	-7.061432e-06	-9.112087e-09	-4.774819e+01	-5.966109e+02
3.100000e-07	-6.973186e-06	-9.097735e-09	-4.715148e+01	-5.947958e+02
3.200000e-07	-6.882430e-06	-9.054809e-09	-4.653780e+01	-5.928260e+02
3.300000e-07	-6.789185e-06	-9.001446e-09	-4.590730e+01	-5.906121e+02
3.400000e-07	-6.693597e-06	-8.935606e-09	-4.526095e+01	-5.881283e+02
3.500000e-07	-6.595582e-06	-8.907235e-09	-4.459819e+01	-5.854261e+02
3.600000e-07	-6.495103e-06	-8.881837e-09	-4.391876e+01	-5.826144e+02
3.700000e-07	-6.392279e-06	-8.849768e-09	-4.322349e+01	-5.798116e+02
3.800000e-07	-6.287124e-06	-8.808157e-09	-4.251245e+01	-5.770928e+02
3.900000e-07	-6.179666e-06	-8.775799e-09	-4.178584e+01	-5.744534e+02
4.000000e-07	-6.070039e-06	-8.731910e-09	-4.104456e+01	-5.718077e+02
4.100000e-07	-5.958252e-06	-8.666491e-09	-4.028867e+01	-5.690233e+02
4.200000e-07	-5.844193e-06	-8.604913e-09	-3.951742e+01	-5.659781e+02
4.300000e-07	-5.727758e-06	-8.555149e-09	-3.873011e+01	-5.626129e+02
4.400000e-07	-5.609085e-06	-8.522647e-09	-3.792767e+01	-5.589588e+02
4.500000e-07	-5.488367e-06	-8.477509e-09	-3.711139e+01	-5.551232e+02
4.600000e-07	-5.365700e-06	-8.416660e-09	-3.628193e+01	-5.512416e+02
4.700000e-07	-5.241142e-06	-8.352919e-09	-3.543970e+01	-5.474150e+02
4.800000e-07	-5.114724e-06	-8.295215e-09	-3.458488e+01	-5.436600e+02
4.900000e-07	-4.986498e-06	-8.233199e-09	-3.371784e+01	-5.398957e+02
5.000000e-07	-4.856411e-06	-8.162187e-09	-3.283821e+01	-5.359735e+02
5.100000e-07	-4.724533e-06	-8.089306e-09	-3.194648e+01	-5.317384e+02
5.200000e-07	-4.590981e-06	-8.021789e-09	-3.104342e+01	-5.270958e+02
5.300000e-07	-4.455807e-06	-7.955876e-09	-3.012940e+01	-5.220529e+02
5.400000e-07	-4.318908e-06	-7.879675e-09	-2.920371e+01	-5.167165e+02
5.500000e-07	-4.180406e-06	-7.794339e-09	-2.826718e+01	-5.112448e+02
5.600000e-07	-4.040385e-06	-7.711152e-09	-2.732039e+01	-5.057751e+02
5.700000e-07	-3.898662e-06	-7.632711e-09	-2.636208e+01	-5.003573e+02
5.800000e-07	-3.755352e-06	-7.547584e-09	-2.539304e+01	-4.949239e+02
5.900000e-07	-3.610669e-06	-7.451948e-09	-2.441472e+01	-4.893121e+02
6.000000e-07	-3.464687e-06	-7.351940e-09	-2.342761e+01	-4.833296e+02
6.100000e-07	-3.317453e-06	-7.253683e-09	-2.243204e+01	-4.768361e+02
6.200000e-07	-3.169120e-06	-7.154503e-09	-2.142905e+01	-4.698050e+02
6.300000e-07	-3.019741e-06	-7.044792e-09	-2.041897e+01	-4.623356e+02
6.400000e-07	-2.869303e-06	-6.925909e-09	-1.940173e+01	-4.546076e+02
6.500000e-07	-2.717891e-06	-6.809357e-09	-1.837791e+01	-4.467962e+02
6.600000e-07	-2.565496e-06	-6.692471e-09	-1.734744e+01	-4.389831e+02
6.700000e-07	-2.412122e-06	-6.566183e-09	-1.631035e+01	-4.311041e+02
6.800000e-07	-2.257870e-06	-6.429054e-09	-1.526732e+01	-4.229598e+02
6.900000e-07	-2.102824e-06	-6.289935e-09	-1.421893e+01	-4.142876e+02
7.000000e-07	-1.947012e-06	-6.148858e-09	-1.316536e+01	-4.048677e+02
7.100000e-07	-1.790539e-06	-5.997060e-09	-1.210732e+01	-3.946145e+02
7.200000e-07	-1.633438e-06	-5.832450e-09	-1.104502e+01	-3.836132e+02
7.300000e-07	-1.475664e-06	-5.660454e-09	-9.978184e+00	-3.720782e+02
7.400000e-07	-1.317341e-06	-5.487224e-09	-8.907636e+00	-3.602466e+02
7.500000e-07	-1.158567e-06	-5.307533e-09	-7.834033e+00	-3.482506e+02
7.600000e-07	-9.993930e-07	-5.113605e-09	-6.757723e+00	-3.360243e+02
7.700000e-07	-8.398603e-07	-4.904115e-09	-5.678990e+00	-3.232931e+02
7.800000e-07	-6.799452e-07	-4.685991e-09	-4.597672e+00	-3.096568e+02
7.900000e-07	-5.197573e-07	-4.460463e-09	-3.514509e+00	-2.947406e+02
8.000000e-07	-3.594345e-07	-4.218337e-09	-2.430434e+00	-2.783483e+02
8.100000e-07	-1.989808e-07	-3.954563e-09	-1.345474e+00	-2.605476e+02
8.200000e-07	-3.843764e-08	-3.676476e-09	-2.599087e-01	-2.416322e+02
8.300000e-07	1.220761e-07	-3.387022e-09	8.254574e-01	-2.219573e+02
8.400000e-07	2.825092e-07	-3.078513e-09	1.910279e+00	-2.016951e+02
8.500000e-07	4.428685e-07	-2.740515e-09	2.994601e+00	-1.806037e+02
8.600000e-07	6.030457e-07	-2.369258e-09	4.077691e+00	-1.579108e+02
8.700000e-07	7.629607e-07	-1.965761e-09	5.159008e+00	-1.323855e+02
8.800000e-07	9.226357e-07	-1.517508e-09	6.238703e+00	-1.026108e+02
8.900000e-07	1.082032e-06	-1.003149e-09	7.316514e+00	-6.739602e+01
9.000000e-07	1.241035e-06	-4.011077e-10	8.391666e+00	-2.621027e+01
9.100000e-07	1.399555e-06	3.020053e-10	9.463551e+00	2.050414e+01
9.200000e-07	1.557519e-06	1.095064e-09	1.053168e+01	7.125092e+01
9.300000e-07	1.714817e-06	1.932132e-09	1.159530e+01	1.236784e+02
9.400000e-07	1.871497e-06	2.741503e-09	1.265474e+01	1.750163e+02
9.500000e-07	2.027641e-06	3.460903e-09	1.371056e+01	2.226339e+02
9.600000e-07	2.183080e-06	4.065152e-09	1.476161e+01	2.645621e+02
9.700000e-07	2.337617e-06	4.564752e-09	1.580657e+01	2.998347e+02
9.800000e-07	2.491274e-06	4.980861e-09	1.684557e+01	3.285597e+02
9.900000e-07	2.644066e-06	5.333176e-09	1.787872e+01	3.517208e+02
1.000000e-06	2.795920e-06	5.638749e-09	1.890553e+01	3.707860e+02
1.010000e-06	2.946787e-06	5.906567e-09	1.992567e+01	3.872576e+02
1.020000e-06	3.096548e-06	6.144805e-09	2.093832e+01	4.023008e+02
1.030000e-06	3.245133e-06	6.357853e-09	2.194303e+01	4.165504e+02
1.040000e-06	3.392543e-06	6.551538e-09	2.293979e+01	4.301244e+02
1.050000e-06	3.538751e-06	6.730274e-09	2.392842e+01	4.428032e+02
1.060000e-06	3.683705e-06	6.894961e-09	2.490858e+01	4.542824e+02
1.070000e-06	3.827300e-06	7.045172e-09	2.587954e+01	4.643949e+02
1.080000e-06	3.969440e-06	7.183154e-09	2.684067e+01	4.732254e+02
1.090000e-06	4.110101e-06	7.312855e-09	2.779179e+01	4.810906e+02
1.100000e-06	4.249234e-06	7.436003e-09	2.873259e+01	4.884145e+02
1.110000e-06	4.386763e-06	7.550156e-09	2.966253e+01	4.955653e+02
1.120000e-06	4.522649e-06	7.656624e-09	3.058137e+01	5.027280e+02
1.130000e-06	4.656903e-06	7.761116e-09	3.148917e+01	5.098629e+02
1.140000e-06	4.789507e-06	7.862545e-09	3.238582e+01	5.167618e+02
1.150000e-06	4.920346e-06	7.956341e-09	3.327053e+01	5.231685e+02
1.160000e-06	5.049427e-06	8.038601e-09	3.414335e+01	5.289094e+02
1.170000e-06	5.176781e-06	8.114034e-09	3.500450e+01	5.339772e+02
1.180000e-06	5.302327e-06	8.187595e-09	3.585342e+01	5.385361e+02
1.190000e-06	5.426027e-06	8.258872e-09	3.668985e+01	5.428513e+02
1.200000e-06	5.547820e-06	8.325977e-09	3.751340e+01	5.471781e+02
1.210000e-06	5.667563e-06	8.390809e-09	3.832308e+01	5.516597e+02
1.220000e-06	5.785137e-06	8.457941e-09	3.911810e+01	5.562781e+02
1.230000e-06	5.900480e-06	8.526002e-09	3.989803e+01	5.608748e+02
1.240000e-06	6.013539e-06	8.587862e-09	4.066251e+01	5.652307e+02
1.250000e-06	6.124408e-06	8.641677e-09	4.141219e+01	5.691665e+02
1.260000e-06	6.233198e-06	8.692406e-09	4.214781e+01	5.726213e+02
1.270000e-06	6.339783e-06	8.744156e-09	4.286852e+01	5.756759e+02
1.280000e-06	6.444066e-06	8.794222e-09	4.357366e+01	5.785134e+02
1.290000e-06	6.545995e-06	8.840103e-09	4.426289e+01	5.813374e+02
1.300000e-06	6.645519e-06	8.883928e-09	4.493585e+01	5.842848e+02
1.310000e-06	6.742626e-06	8.928952e-09	4.559247e+01	5.873700e+02
1.320000e-06	6.837352e-06	8.974522e-09	4.623299e+01	5.904845e+02
1.330000e-06	6.929719e-06	9.015401e-09	4.685756e+01	5.934495e+02
1.340000e-06	7.019627e-06	9.052560e-09	4.746550e+01	5.960972e+02
1.350000e-06	7.107074e-06	9.090204e-09	4.805681e+01	5.983451e+02
1.360000e-06	7.192125e-06	9.127025e-09	4.863191e+01	6.002304e+02
1.370000e-06	7.274655e-06	9.158264e-09	4.918996e+01	6.018934e+02
1.380000e-06	7.354497e-06	9.181311e-09	4.972984e+01	6.035158e+02
1.390000e-06	7.431640e-06	9.205243e-09	5.025147e+01	6.052443e+02
1.400000e-06	7.505996e-06	9.237415e-09	5.075425e+01	6.071311e+02
1.410000e-06	7.577573e-06	9.270543e-09	5.123824e+01	6.091169e+02
1.420000e-06	7.646469e-06	9.297678e-09	5.170410e+01	6.110624e+02
1.430000e-06	7.712666e-06	9.321160e-09	5.215172e+01	6.128126e+02
1.440000e-06	7.776158e-06	9.344361e-09	5.258104e+01	6.142655e+02
1.450000e-06	7.836955e-06	9.365784e-09	5.299214e+01	6.154154e+02
1.460000e-06	7.894968e-06	9.382697e-09	5.338441e+01	6.163525e+02
1.470000e-06	7.950114e-06	9.396727e-09	5.375730e+01	6.172211e+02
1.480000e-06	8.002225e-06	9.409890e-09	5.410967e+01	6.181548e+02
1.490000e-06	8.051108e-06	9.423595e-09	5.444021e+01	6.192192e+02
1.500000e-06	8.097006e-06	9.440540e-09	5.475055e+01	6.203848e+02
1.510000e-06	8.140110e-06	9.459172e-09	5.504202e+01	6.215437e+02
1.520000e-06	8.180327e-06	9.474841e-09	5.531396e+01	6.225591e+02
1.530000e-06	8.217688e-06	9.487420e-09	5.556659e+01	6.233277e+02
1.540000e-06	8.252190e-06	9.496373e-09	5.579989e+01	6.238248e+02
1.550000e-06	8.283809e-06	9.500850e-09	5.601369e+01	6.241155e+02
1.560000e-06	8.312584e-06	9.504934e-09	5.620826e+01	6.243246e+02
1.570000e-06	8.338379e-06	9.510342e-09	5.638268e+01	6.245823e+02
1.580000e-06	8.361159e-06	9.516920e-09	5.653671e+01	6.249675e+02
1.590000e-06	8.381047e-06	9.526291e-09	5.667120e+01	6.254750e+02
1.600000e-06	8.397961e-06	9.537586e-09	5.678556e+01	6.260206e+02
1.610000e-06	8.411741e-06	9.545726e-09	5.687874e+01	6.264802e+02
1.620000e-06	8.422297e-06	9.548678e-09	5.695012e+01	6.267463e+02
1.630000e-06	8.429731e-06	9.547216e-09	5.700038e+01	6.267757e+02
1.640000e-06	8.434256e-06	9.542997e-09	5.703098e+01	6.266086e+02
1.650000e-06	8.435811e-06	9.538289e-09	5.704150e+01	6.263492e+02
1.660000e-06	8.434471e-06	9.536371e-09	5.703244e+01	6.261182e+02
1.670000e-06	8.430377e-06	9.534508e-09	5.700475e+01	6.259984e+02
1.680000e-06	8.423461e-06	9.537031e-09	5.695799e+01	6.259963e+02
1.690000e-06	8.413719e-06	9.538813e-09	5.689212e+01	6.260388e+02
1.700000e-06	8.400978e-06	9.537212e-09	5.680597e+01	6.260044e+02
1.710000e-06	8.385372e-06	9.534435e-09	5.670044e+01	6.257775e+02
1.720000e-06	8.367333e-06	9.532923e-09	5.657846e+01	6.252999e+02
1.730000e-06	8.346717e-06	9.527589e-09	5.643906e+01	6.245985e+02
1.740000e-06	8.322948e-06	9.465084e-09	5.627834e+01	6.237758e+02
1.750000e-06	8.295371e-06	9.439949e-09	5.609187e+01	6.229681e+02
1.760000e-06	8.264002e-06	9.465212e-09	5.587976e+01	6.222884e+02
1.770000e-06	8.229700e-06	9.483763e-09	5.564781e+01	6.217794e+02
1.780000e-06	8.192865e-06	9.494481e-09	5.539874e+01	6.213953e+02
1.790000e-06	8.153739e-06	9.501683e-09	5.513418e+01	6.210209e+02
1.800000e-06	8.112677e-06	9.445591e-09	5.485652e+01	6.205187e+02
1.810000e-06	8.069104e-06	9.403156e-09	5.456189e+01	6.197840e+02
1.820000e-06	8.022532e-06	9.448111e-09	5.424698e+01	6.187837e+02
1.830000e-06	7.973065e-06	9.398622e-09	5.391249e+01	6.175638e+02
1.840000e-06	7.920249e-06	9.422044e-09	5.355536e+01	6.162239e+02
1.850000e-06	7.864341e-06	9.417320e-09	5.317731e+01	6.148695e+02
1.860000e-06	7.805719e-06	9.393047e-09	5.278092e+01	6.135659e+02
1.870000e-06	7.744124e-06	9.404994e-09	5.236443e+01	6.123124e+02
1.880000e-06	7.679817e-06	9.297532e-09	5.192960e+01	6.110484e+02
1.890000e-06	7.612749e-06	9.286094e-09	5.147610e+01	6.096867e+02
1.900000e-06	7.542743e-06	9.258499e-09	5.100273e+01	6.081584e+02
1.910000e-06	7.469807e-06	9.270190e-09	5.050954e+01	6.064472e+02
1.920000e-06	7.393965e-06	9.280842e-09	4.999671e+01	6.045985e+02
1.930000e-06	7.315330e-06	9.223007e-09	4.946500e+01	6.026968e+02
1.940000e-06	7.234143e-06	9.214009e-09	4.891603e+01	6.008240e+02
1.950000e-06	7.150525e-06	9.125756e-09	4.835061e+01	5.990169e+02
1.960000e-06	7.064177e-06	9.111428e-09	4.776675e+01	5.972449e+02
1.970000e-06	6.975271e-06	9.068688e-09	4.716558e+01	5.954183e+02
1.980000e-06	6.884011e-06	9.042762e-09	4.654849e+01	5.934254e+02
1.990000e-06	6.790250e-06	9.050053e-09	4.591450e+01	5.911821e+02
2.000000e-06	6.694071e-06	9.006184e-09	4.526415e+01	5.886708e+02
2.010000e-06	6.595571e-06	8.981866e-09	4.459811e+01	5.859508e+02
2.020000e-06	6.494703e-06	8.895549e-09	4.391606e+01	5.831344e+02
2.030000e-06	6.391357e-06	8.857962e-09	4.321725e+01	5.803379e+02
2.040000e-06	6.285739e-06	8.810521e-09	4.250308e+01	5.776291e+02
2.050000e-06	6.177971e-06	8.786881e-09	4.177438e+01	5.749940e+02
2.060000e-06	6.067989e-06	8.748264e-09	4.103069e+01	5.723397e+02
2.070000e-06	5.955728e-06	8.699242e-09	4.027161e+01	5.695323e+02
2.080000e-06	5.841135e-06	8.661153e-09	3.949675e+01	5.664537e+02
2.090000e-06	5.724234e-06	8.598708e-09	3.870629e+01	5.630542e+02
2.100000e-06	5.605064e-06	8.544291e-09	3.790047e+01	5.593742e+02
2.110000e-06	5.483904e-06	8.475907e-09	3.708121e+01	5.555269e+02
2.120000e-06	5.360858e-06	8.428135e-09	3.624919e+01	5.516473e+02
2.130000e-06	5.235908e-06	8.372851e-09	3.540430e+01	5.478290e+02
2.140000e-06	5.109049e-06	8.321934e-09	3.454651e+01	5.440782e+02
2.150000e-06	4.980323e-06	8.252601e-09	3.367609e+01	5.403045e+02
2.160000e-06	4.849783e-06	8.188485e-09	3.279340e+01	5.363552e+02
2.170000e-06	4.717511e-06	8.119477e-09	3.189899e+01	5.320791e+02
2.180000e-06	4.583648e-06	8.048994e-09	3.099383e+01	5.273910e+02
2.190000e-06	4.448120e-06	7.975796e-09	3.007742e+01	5.223098e+02
2.200000e-06	4.310923e-06	7.904800e-09	2.914972e+01	5.169507e+02
2.210000e-06	4.172073e-06	7.833267e-09	2.821084e+01	5.114734e+02
2.220000e-06	4.031598e-06	7.748401e-09	2.726097e+01	5.060086e+02
2.230000e-06	3.889661e-06	7.656688e-09	2.630122e+01	5.005940e+02
2.240000e-06	3.746304e-06	7.559369e-09	2.533186e+01	4.951502e+02
2.250000e-06	3.601624e-06	7.472154e-09	2.435356e+01	4.895073e+02
2.260000e-06	3.455758e-06	7.379518e-09	2.336724e+01	4.834748e+02
2.270000e-06	3.308580e-06	7.285563e-09	2.237205e+01	4.769224e+02
2.280000e-06	3.160190e-06	7.183743e-09	2.136866e+01	4.698373e+02
2.290000e-06	3.010709e-06	7.082169e-09	2.035789e+01	4.623305e+02
2.300000e-06	2.860187e-06	6.970836e-09	1.934009e+01	4.545858e+02
2.310000e-06	2.708619e-06	6.847878e-09	1.831522e+01	4.467724e+02
2.320000e-06	2.556055e-06	6.717456e-09	1.728360e+01	4.389577e+02
2.330000e-06	2.402636e-06	6.588951e-09	1.624621e+01	4.310614e+02
2.340000e-06	2.248335e-06	6.461435e-09	1.520285e+01	4.228729e+02
2.350000e-06	2.093157e-06	6.329123e-09	1.415357e+01	4.141291e+02
2.360000e-06	1.937228e-06	6.191631e-09	1.309920e+01	4.046207e+02
2.370000e-06	1.780627e-06	6.043880e-09	1.204029e+01	3.942801e+02
2.380000e-06	1.623377e-06	5.885189e-09	1.097700e+01	3.832096e+02
2.390000e-06	1.465599e-06	5.710849e-09	9.910125e+00	3.716319e+02
2.400000e-06	1.307355e-06	5.527515e-09	8.840106e+00	3.597790e+02
2.410000e-06	1.148640e-06	5.336646e-09	7.766907e+00	3.477651e+02
2.420000e-06	9.894984e-07	5.140495e-09	6.690818e+00	3.355008e+02
2.430000e-06	8.299754e-07	4.934593e-09	5.612150e+00	3.226923e+02
2.440000e-06	6.701399e-07	4.718907e-09	4.531370e+00	3.089346e+02
2.450000e-06	5.100484e-07	4.494119e-09	3.448859e+00	2.938649e+02
2.460000e-06	3.497596e-07	4.256526e-09	2.365014e+00	2.773134e+02
2.470000e-06	1.893425e-07	4.000122e-09	1.280301e+00	2.593760e+02
2.480000e-06	2.883299e-08	3.719889e-09	1.949637e-01	2.403631e+02
2.490000e-06	-1.316906e-07	3.416412e-09	-8.904693e-01	2.206223e+02
2.500000e-06	-2.921090e-07	3.092422e-09	-1.975191e+00	2.002914e+02
2.510000e-06	-4.523650e-07	2.749036e-09	-3.058814e+00	1.790745e+02
2.520000e-06	-6.124286e-07	2.379991e-09	-4.141136e+00	1.561429e+02
2.530000e-06	-7.722123e-07	1.977659e-09	-5.221566e+00	1.302295e+02
2.540000e-06	-9.316931e-07	1.529792e-09	-6.299948e+00	9.992034e+01
2.550000e-06	-1.090863e-06	1.018804e-09	-7.376230e+00	6.407570e+01
2.560000e-06	-1.249656e-06	4.194034e-10	-8.449961e+00	2.225722e+01
2.570000e-06	-1.407989e-06	-2.866434e-10	-9.520581e+00	-2.497885e+01
2.580000e-06	-1.565806e-06	-1.089758e-09	-1.058771e+01	-7.603021e+01
2.590000e-06	-1.723055e-06	-1.939064e-09	-1.165100e+01	-1.284761e+02
2.600000e-06	-1.879685e-06	-2.756256e-09	-1.271010e+01	-1.795338e+02
2.610000e-06	-2.035629e-06	-3.476780e-09	-1.376457e+01	-2.266206e+02
2.620000e-06	-2.190774e-06	-4.078902e-09	-1.481363e+01	-2.678629e+02
2.630000e-06	-2.345093e-06	-4.576075e-09	-1.585712e+01	-3.024111e+02
2.640000e-06	-2.498591e-06	-4.992657e-09	-1.689504e+01	-3.304810e+02
2.650000e-06	-2.651173e-06	-5.349225e-09	-1.792677e+01	-3.531291e+02
2.660000e-06	-2.802775e-06	-5.659887e-09	-1.895188e+01	-3.718482e+02
2.670000e-06	-2.953345e-06	-5.933258e-09	-1.997001e+01	-3.881198e+02
2.680000e-06	-3.102799e-06	-6.177251e-09	-2.098059e+01	-4.030579e+02
2.690000e-06	-3.251139e-06	-6.398387e-09	-2.198364e+01	-4.172377e+02
2.700000e-06	-3.398363e-06	-6.596827e-09	-2.297915e+01	-4.307302e+02
2.710000e-06	-3.544401e-06	-6.773280e-09	-2.396663e+01	-4.432945e+02
2.720000e-06	-3.689123e-06	-6.932646e-09	-2.494521e+01	-4.546316e+02
2.730000e-06	-3.832500e-06	-7.079271e-09	-2.591470e+01	-4.645983e+02
2.740000e-06	-3.974460e-06	-7.216666e-09	-2.687461e+01	-4.733074e+02
2.750000e-06	-4.114903e-06	-7.347577e-09	-2.782427e+01	-4.810942e+02
2.760000e-06	-4.253833e-06	-7.471177e-09	-2.876368e+01	-4.883847e+02
2.770000e-06	-4.391172e-06	-7.586486e-09	-2.969235e+01	-4.955322e+02
2.780000e-06	-4.526861e-06	-7.694469e-09	-3.060985e+01	-5.026979e+02
2.790000e-06	-4.660872e-06	-7.796955e-09	-3.151601e+01	-5.098198e+02
2.800000e-06	-4.793246e-06	-7.893356e-09	-3.241110e+01	-5.166781e+02
2.810000e-06	-4.923929e-06	-7.980994e-09	-3.329476e+01	-5.230196e+02
2.820000e-06	-5.052871e-06	-8.061483e-09	-3.416664e+01	-5.286858e+02
2.830000e-06	-5.180050e-06	-8.139026e-09	-3.502661e+01	-5.336889e+02
2.840000e-06	-5.305414e-06	-8.216821e-09	-3.587430e+01	-5.382085e+02
2.850000e-06	-5.428924e-06	-8.294122e-09	-3.670945e+01	-5.425143e+02
2.860000e-06	-5.550432e-06	-8.368931e-09	-3.753107e+01	-5.468538e+02
2.870000e-06	-5.669864e-06	-8.440916e-09	-3.833864e+01	-5.513542e+02
2.880000e-06	-5.787204e-06	-8.509934e-09	-3.913208e+01	-5.559801e+02
2.890000e-06	-5.902251e-06	-8.574797e-09	-3.991000e+01	-5.605619e+02
2.900000e-06	-6.014867e-06	-8.633068e-09	-4.067149e+01	-5.648800e+02
2.910000e-06	-6.125210e-06	-8.686688e-09	-4.141761e+01	-5.687650e+02
2.920000e-06	-6.233353e-06	-8.740028e-09	-4.214885e+01	-5.721711e+02
2.930000e-06	-6.339349e-06	-8.791570e-09	-4.286558e+01	-5.751928e+02
2.940000e-06	-6.443157e-06	-8.840640e-09	-4.356752e+01	-5.780199e+02
