# Temperatura_=_27.48
# Concentracion g/m^3_=_13400.0
# C_Vs_to_Am_M_A/Vsm_=_65563218390.804596
# pendiente_HvsI_1/m_=_3716.3
# ordenada_HvsI_A/m_=_1297.0
# frecuencia_Hz_=_301401.6090693933

Tiempo_(s)	Campo_(V.s)	Magnetizacion_(V.s)	Campo_(kA/m)	Magnetizacion_(A/m)
0.000000e+00	-8.429184e-06	-9.720100e-09	-5.692712e+01	-6.376630e+02
1.000000e-08	-8.425501e-06	-9.720570e-09	-5.690225e+01	-6.377430e+02
2.000000e-08	-8.419150e-06	-9.720245e-09	-5.685936e+01	-6.379475e+02
3.000000e-08	-8.410070e-06	-9.720712e-09	-5.679804e+01	-6.381218e+02
4.000000e-08	-8.398035e-06	-9.719618e-09	-5.671676e+01	-6.380922e+02
5.000000e-08	-8.382923e-06	-9.715527e-09	-5.661469e+01	-6.377424e+02
6.000000e-08	-8.364873e-06	-9.704657e-09	-5.649279e+01	-6.370651e+02
7.000000e-08	-8.344313e-06	-9.680443e-09	-5.635394e+01	-6.361675e+02
8.000000e-08	-8.321129e-06	-9.692332e-09	-5.619737e+01	-6.352283e+02
9.000000e-08	-8.294649e-06	-9.741905e-09	-5.601853e+01	-6.344244e+02
1.000000e-07	-8.264779e-06	-9.715920e-09	-5.581680e+01	-6.338583e+02
1.100000e-07	-8.231792e-06	-9.665605e-09	-5.559402e+01	-6.335163e+02
1.200000e-07	-8.195835e-06	-9.642485e-09	-5.535118e+01	-6.332763e+02
1.300000e-07	-8.157300e-06	-9.621069e-09	-5.509093e+01	-6.329586e+02
1.400000e-07	-8.116428e-06	-9.572805e-09	-5.481490e+01	-6.324000e+02
1.500000e-07	-8.073000e-06	-9.590428e-09	-5.452161e+01	-6.315165e+02
1.600000e-07	-8.026703e-06	-9.648630e-09	-5.420894e+01	-6.303306e+02
1.700000e-07	-7.977475e-06	-9.553928e-09	-5.387647e+01	-6.289524e+02
1.800000e-07	-7.925195e-06	-9.599377e-09	-5.352339e+01	-6.275236e+02
1.900000e-07	-7.869825e-06	-9.568453e-09	-5.314945e+01	-6.261524e+02
2.000000e-07	-7.811634e-06	-9.460662e-09	-5.275645e+01	-6.248663e+02
2.100000e-07	-7.750696e-06	-9.469755e-09	-5.234490e+01	-6.236054e+02
2.200000e-07	-7.686999e-06	-9.441655e-09	-5.191472e+01	-6.222564e+02
2.300000e-07	-7.620505e-06	-9.490152e-09	-5.146565e+01	-6.207113e+02
2.400000e-07	-7.551161e-06	-9.442274e-09	-5.099733e+01	-6.189229e+02
2.500000e-07	-7.478941e-06	-9.391523e-09	-5.050959e+01	-6.169308e+02
2.600000e-07	-7.403798e-06	-9.362889e-09	-5.000210e+01	-6.148455e+02
2.700000e-07	-7.325803e-06	-9.328045e-09	-4.947536e+01	-6.127971e+02
2.800000e-07	-7.245009e-06	-9.307006e-09	-4.892971e+01	-6.108725e+02
2.900000e-07	-7.161592e-06	-9.248755e-09	-4.836634e+01	-6.090691e+02
3.000000e-07	-7.075817e-06	-9.265400e-09	-4.778706e+01	-6.072893e+02
3.100000e-07	-6.987618e-06	-9.245927e-09	-4.719140e+01	-6.053774e+02
3.200000e-07	-6.896928e-06	-9.203016e-09	-4.657892e+01	-6.031858e+02
3.300000e-07	-6.803768e-06	-9.144268e-09	-4.594976e+01	-6.006404e+02
3.400000e-07	-6.708178e-06	-9.070946e-09	-4.530418e+01	-5.977763e+02
3.500000e-07	-6.610194e-06	-9.054712e-09	-4.464244e+01	-5.947258e+02
3.600000e-07	-6.509788e-06	-9.032032e-09	-4.396434e+01	-5.916638e+02
3.700000e-07	-6.406988e-06	-8.997972e-09	-4.327007e+01	-5.887326e+02
3.800000e-07	-6.301862e-06	-8.938870e-09	-4.256009e+01	-5.859783e+02
3.900000e-07	-6.194462e-06	-8.898143e-09	-4.183476e+01	-5.833285e+02
4.000000e-07	-6.084869e-06	-8.849993e-09	-4.109461e+01	-5.806211e+02
4.100000e-07	-5.973069e-06	-8.782385e-09	-4.033956e+01	-5.776721e+02
4.200000e-07	-5.858968e-06	-8.725604e-09	-3.956898e+01	-5.743548e+02
4.300000e-07	-5.742559e-06	-8.681755e-09	-3.878280e+01	-5.706542e+02
4.400000e-07	-5.623924e-06	-8.654991e-09	-3.798159e+01	-5.666725e+02
4.500000e-07	-5.503223e-06	-8.606362e-09	-3.716642e+01	-5.625834e+02
4.600000e-07	-5.380576e-06	-8.530995e-09	-3.633812e+01	-5.585529e+02
4.700000e-07	-5.256039e-06	-8.448061e-09	-3.549705e+01	-5.546627e+02
4.800000e-07	-5.129592e-06	-8.384051e-09	-3.464308e+01	-5.508695e+02
4.900000e-07	-5.001238e-06	-8.329706e-09	-3.377624e+01	-5.470206e+02
5.000000e-07	-4.871108e-06	-8.267353e-09	-3.289739e+01	-5.429173e+02
5.100000e-07	-4.739241e-06	-8.197198e-09	-3.200682e+01	-5.384026e+02
5.200000e-07	-4.605678e-06	-8.129596e-09	-3.110479e+01	-5.334303e+02
5.300000e-07	-4.470472e-06	-8.060175e-09	-3.019167e+01	-5.280870e+02
5.400000e-07	-4.333556e-06	-7.976101e-09	-2.926699e+01	-5.225536e+02
5.500000e-07	-4.195048e-06	-7.879975e-09	-2.833157e+01	-5.170229e+02
5.600000e-07	-4.054920e-06	-7.793227e-09	-2.738521e+01	-5.116084e+02
5.700000e-07	-3.913065e-06	-7.719058e-09	-2.642718e+01	-5.062859e+02
5.800000e-07	-3.769683e-06	-7.639451e-09	-2.545883e+01	-5.008947e+02
5.900000e-07	-3.624975e-06	-7.542696e-09	-2.448154e+01	-4.952008e+02
6.000000e-07	-3.478988e-06	-7.437534e-09	-2.349561e+01	-4.889963e+02
6.100000e-07	-3.331777e-06	-7.336051e-09	-2.250141e+01	-4.821896e+02
6.200000e-07	-3.183418e-06	-7.235768e-09	-2.149945e+01	-4.748473e+02
6.300000e-07	-3.033960e-06	-7.127885e-09	-2.049008e+01	-4.671645e+02
6.400000e-07	-2.883408e-06	-7.010990e-09	-1.947331e+01	-4.593748e+02
6.500000e-07	-2.731768e-06	-6.894169e-09	-1.844920e+01	-4.516369e+02
6.600000e-07	-2.579163e-06	-6.770003e-09	-1.741857e+01	-4.439496e+02
6.700000e-07	-2.425691e-06	-6.636426e-09	-1.638208e+01	-4.361345e+02
6.800000e-07	-2.271394e-06	-6.496320e-09	-1.534003e+01	-4.278983e+02
6.900000e-07	-2.116301e-06	-6.357263e-09	-1.429260e+01	-4.189524e+02
7.000000e-07	-1.960437e-06	-6.219195e-09	-1.323996e+01	-4.091360e+02
7.100000e-07	-1.803847e-06	-6.072264e-09	-1.218242e+01	-3.984885e+02
7.200000e-07	-1.646614e-06	-5.909722e-09	-1.112053e+01	-3.872314e+02
7.300000e-07	-1.488791e-06	-5.731528e-09	-1.005466e+01	-3.756627e+02
7.400000e-07	-1.330389e-06	-5.549354e-09	-8.984884e+00	-3.640035e+02
7.500000e-07	-1.171408e-06	-5.363928e-09	-7.911190e+00	-3.522641e+02
7.600000e-07	-1.011898e-06	-5.167986e-09	-6.833929e+00	-3.401940e+02
7.700000e-07	-8.520038e-07	-4.956954e-09	-5.754071e+00	-3.273462e+02
7.800000e-07	-6.918667e-07	-4.738493e-09	-4.672573e+00	-3.132392e+02
7.900000e-07	-5.315701e-07	-4.513835e-09	-3.589999e+00	-2.975520e+02
8.000000e-07	-3.711479e-07	-4.269887e-09	-2.506575e+00	-2.802615e+02
8.100000e-07	-2.105901e-07	-3.996314e-09	-1.422236e+00	-2.616499e+02
8.200000e-07	-4.989317e-08	-3.699820e-09	-3.369572e-01	-2.421523e+02
8.300000e-07	1.108568e-07	-3.390850e-09	7.486799e-01	-2.220840e+02
8.400000e-07	2.715068e-07	-3.062550e-09	1.833642e+00	-2.013451e+02
8.500000e-07	4.319895e-07	-2.701046e-09	2.917474e+00	-1.792267e+02
8.600000e-07	5.923695e-07	-2.298306e-09	4.000612e+00	-1.544213e+02
8.700000e-07	7.526021e-07	-1.852777e-09	5.082754e+00	-1.252794e+02
8.800000e-07	9.126024e-07	-1.345067e-09	6.163328e+00	-9.026265e+01
8.900000e-07	1.072295e-06	-7.440679e-10	7.241824e+00	-4.846914e+01
9.000000e-07	1.231575e-06	-2.516616e-11	8.317536e+00	-6.294967e-02
9.100000e-07	1.390339e-06	8.084956e-10	9.389761e+00	5.354333e+01
9.200000e-07	1.548488e-06	1.710532e-09	1.045783e+01	1.098348e+02
9.300000e-07	1.706076e-06	2.600500e-09	1.152211e+01	1.656494e+02
9.400000e-07	1.863093e-06	3.398781e-09	1.258254e+01	2.178223e+02
9.500000e-07	2.019395e-06	4.065471e-09	1.363813e+01	2.638384e+02
9.600000e-07	2.174959e-06	4.601599e-09	1.468875e+01	3.023063e+02
9.700000e-07	2.329734e-06	5.038686e-09	1.573403e+01	3.331270e+02
9.800000e-07	2.483593e-06	5.406663e-09	1.677313e+01	3.573245e+02
9.900000e-07	2.636548e-06	5.720913e-09	1.780613e+01	3.766152e+02
1.000000e-06	2.788693e-06	5.990077e-09	1.883365e+01	3.928616e+02
1.010000e-06	2.939881e-06	6.225931e-09	1.985471e+01	4.075865e+02
1.020000e-06	3.089917e-06	6.441002e-09	2.086799e+01	4.216812e+02
1.030000e-06	3.238773e-06	6.637302e-09	2.187329e+01	4.353684e+02
1.040000e-06	3.386460e-06	6.817244e-09	2.287071e+01	4.483871e+02
1.050000e-06	3.532962e-06	6.983935e-09	2.386012e+01	4.602983e+02
1.060000e-06	3.678227e-06	7.139514e-09	2.484118e+01	4.707829e+02
1.070000e-06	3.822158e-06	7.281680e-09	2.581323e+01	4.798225e+02
1.080000e-06	3.964575e-06	7.411699e-09	2.677505e+01	4.877158e+02
1.090000e-06	4.105426e-06	7.531940e-09	2.772630e+01	4.949497e+02
1.100000e-06	4.244749e-06	7.647410e-09	2.866723e+01	5.019990e+02
1.110000e-06	4.382535e-06	7.759609e-09	2.959778e+01	5.091480e+02
1.120000e-06	4.518746e-06	7.864172e-09	3.051769e+01	5.164076e+02
1.130000e-06	4.653321e-06	7.962873e-09	3.142655e+01	5.235539e+02
1.140000e-06	4.786166e-06	8.057240e-09	3.232373e+01	5.302619e+02
1.150000e-06	4.917267e-06	8.145932e-09	3.320913e+01	5.362703e+02
1.160000e-06	5.046657e-06	8.225363e-09	3.408298e+01	5.415045e+02
1.170000e-06	5.174305e-06	8.298762e-09	3.494505e+01	5.461098e+02
1.180000e-06	5.300131e-06	8.371196e-09	3.579483e+01	5.503852e+02
1.190000e-06	5.424066e-06	8.443063e-09	3.663183e+01	5.546552e+02
1.200000e-06	5.546090e-06	8.512665e-09	3.745593e+01	5.591350e+02
1.210000e-06	5.666118e-06	8.578710e-09	3.826655e+01	5.638509e+02
1.220000e-06	5.783977e-06	8.642361e-09	3.906252e+01	5.686435e+02
1.230000e-06	5.899610e-06	8.703475e-09	3.984346e+01	5.732511e+02
1.240000e-06	6.013015e-06	8.760706e-09	4.060935e+01	5.774313e+02
1.250000e-06	6.124214e-06	8.814107e-09	4.136034e+01	5.810678e+02
1.260000e-06	6.233254e-06	8.866023e-09	4.209674e+01	5.842178e+02
1.270000e-06	6.340115e-06	8.918781e-09	4.281844e+01	5.870805e+02
1.280000e-06	6.444688e-06	8.969734e-09	4.352468e+01	5.899069e+02
1.290000e-06	6.546949e-06	9.017306e-09	4.421531e+01	5.928888e+02
1.300000e-06	6.646860e-06	9.063038e-09	4.489006e+01	5.960798e+02
1.310000e-06	6.744319e-06	9.106662e-09	4.554826e+01	5.993777e+02
1.320000e-06	6.839386e-06	9.146876e-09	4.619031e+01	6.025759e+02
1.330000e-06	6.932070e-06	9.183892e-09	4.681625e+01	6.054591e+02
1.340000e-06	7.022263e-06	9.221147e-09	4.742537e+01	6.078983e+02
1.350000e-06	7.109941e-06	9.261581e-09	4.801752e+01	6.099069e+02
1.360000e-06	7.195211e-06	9.299418e-09	4.859340e+01	6.116319e+02
1.370000e-06	7.278007e-06	9.331435e-09	4.915256e+01	6.132886e+02
1.380000e-06	7.358216e-06	9.359768e-09	4.969426e+01	6.150662e+02
1.390000e-06	7.435723e-06	9.387487e-09	5.021771e+01	6.170488e+02
1.400000e-06	7.510374e-06	9.415881e-09	5.072187e+01	6.191835e+02
1.410000e-06	7.582230e-06	9.442029e-09	5.120716e+01	6.213091e+02
1.420000e-06	7.651416e-06	9.467442e-09	5.167441e+01	6.232315e+02
1.430000e-06	7.717858e-06	9.494410e-09	5.212313e+01	6.248107e+02
1.440000e-06	7.781567e-06	9.518825e-09	5.255340e+01	6.260228e+02
1.450000e-06	7.842659e-06	9.536624e-09	5.296598e+01	6.269686e+02
1.460000e-06	7.901006e-06	9.551501e-09	5.336003e+01	6.278283e+02
1.470000e-06	7.956504e-06	9.567939e-09	5.373484e+01	6.287815e+02
1.480000e-06	8.008890e-06	9.585672e-09	5.408864e+01	6.299291e+02
1.490000e-06	8.057986e-06	9.600417e-09	5.442021e+01	6.312519e+02
1.500000e-06	8.104155e-06	9.614409e-09	5.473201e+01	6.326212e+02
1.510000e-06	8.147490e-06	9.632886e-09	5.502468e+01	6.338582e+02
1.520000e-06	8.187864e-06	9.652674e-09	5.529735e+01	6.348139e+02
1.530000e-06	8.225474e-06	9.667988e-09	5.555135e+01	6.354344e+02
1.540000e-06	8.260243e-06	9.675101e-09	5.578617e+01	6.357835e+02
1.550000e-06	8.292038e-06	9.677506e-09	5.600089e+01	6.360134e+02
1.560000e-06	8.321023e-06	9.683230e-09	5.619665e+01	6.362968e+02
1.570000e-06	8.347048e-06	9.693784e-09	5.637241e+01	6.367509e+02
1.580000e-06	8.370061e-06	9.703518e-09	5.652783e+01	6.373872e+02
1.590000e-06	8.390211e-06	9.710565e-09	5.666391e+01	6.381084e+02
1.600000e-06	8.407332e-06	9.717214e-09	5.677954e+01	6.387534e+02
1.610000e-06	8.421334e-06	9.724608e-09	5.687410e+01	6.391703e+02
1.620000e-06	8.432129e-06	9.730075e-09	5.694701e+01	6.392846e+02
1.630000e-06	8.439718e-06	9.732488e-09	5.699826e+01	6.391328e+02
1.640000e-06	8.444384e-06	9.732591e-09	5.702977e+01	6.388457e+02
1.650000e-06	8.446120e-06	9.730083e-09	5.704150e+01	6.385909e+02
1.660000e-06	8.444957e-06	9.727389e-09	5.703364e+01	6.384969e+02
1.670000e-06	8.441060e-06	9.724001e-09	5.700733e+01	6.385953e+02
1.680000e-06	8.434334e-06	9.726079e-09	5.696191e+01	6.388049e+02
1.690000e-06	8.424775e-06	9.722515e-09	5.689734e+01	6.389650e+02
1.700000e-06	8.412214e-06	9.718119e-09	5.681251e+01	6.389050e+02
1.710000e-06	8.396721e-06	9.723100e-09	5.670788e+01	6.385182e+02
1.720000e-06	8.378754e-06	9.735907e-09	5.658654e+01	6.378103e+02
1.730000e-06	8.358261e-06	9.734799e-09	5.644814e+01	6.368988e+02
1.740000e-06	8.334739e-06	9.633855e-09	5.628928e+01	6.359663e+02
1.750000e-06	8.307402e-06	9.601213e-09	5.610466e+01	6.351848e+02
1.760000e-06	8.276136e-06	9.631502e-09	5.589350e+01	6.346453e+02
1.770000e-06	8.241911e-06	9.640921e-09	5.566236e+01	6.343216e+02
1.780000e-06	8.205188e-06	9.658095e-09	5.541435e+01	6.340820e+02
1.790000e-06	8.166133e-06	9.725410e-09	5.515059e+01	6.337453e+02
1.800000e-06	8.125176e-06	9.645706e-09	5.487398e+01	6.331539e+02
1.810000e-06	8.081734e-06	9.574253e-09	5.458059e+01	6.322349e+02
1.820000e-06	8.035176e-06	9.658725e-09	5.426616e+01	6.310219e+02
1.830000e-06	7.985829e-06	9.558623e-09	5.393289e+01	6.296314e+02
1.840000e-06	7.933231e-06	9.619704e-09	5.357767e+01	6.282047e+02
1.850000e-06	7.877409e-06	9.596603e-09	5.320067e+01	6.268428e+02
1.860000e-06	7.818863e-06	9.569708e-09	5.280527e+01	6.255635e+02
1.870000e-06	7.757422e-06	9.612003e-09	5.239033e+01	6.242989e+02
1.880000e-06	7.693316e-06	9.466953e-09	5.195738e+01	6.229333e+02
1.890000e-06	7.626315e-06	9.503861e-09	5.150489e+01	6.213627e+02
1.900000e-06	7.556411e-06	9.439198e-09	5.103278e+01	6.195489e+02
1.910000e-06	7.483625e-06	9.448331e-09	5.054122e+01	6.175405e+02
1.920000e-06	7.407855e-06	9.456491e-09	5.002950e+01	6.154531e+02
1.930000e-06	7.329370e-06	9.374462e-09	4.949944e+01	6.134151e+02
1.940000e-06	7.248247e-06	9.392992e-09	4.895158e+01	6.115052e+02
1.950000e-06	7.164608e-06	9.276937e-09	4.838672e+01	6.097103e+02
1.960000e-06	7.078297e-06	9.295419e-09	4.780381e+01	6.079241e+02
1.970000e-06	6.989446e-06	9.238785e-09	4.720374e+01	6.059884e+02
1.980000e-06	6.898164e-06	9.215416e-09	4.658726e+01	6.037605e+02
1.990000e-06	6.804346e-06	9.221848e-09	4.595366e+01	6.011772e+02
2.000000e-06	6.708206e-06	9.150392e-09	4.530437e+01	5.982853e+02
2.010000e-06	6.609797e-06	9.126541e-09	4.463976e+01	5.952250e+02
2.020000e-06	6.508997e-06	9.016528e-09	4.395900e+01	5.921714e+02
2.030000e-06	6.405693e-06	8.994268e-09	4.326132e+01	5.892589e+02
2.040000e-06	6.300142e-06	8.942200e-09	4.254848e+01	5.865211e+02
2.050000e-06	6.192404e-06	8.932687e-09	4.182086e+01	5.838739e+02
2.060000e-06	6.082426e-06	8.894625e-09	4.107812e+01	5.811489e+02
2.070000e-06	5.970198e-06	8.838030e-09	4.032018e+01	5.781647e+02
2.080000e-06	5.855639e-06	8.787780e-09	3.954650e+01	5.748047e+02
2.090000e-06	5.738796e-06	8.708747e-09	3.875739e+01	5.710671e+02
2.100000e-06	5.619692e-06	8.651475e-09	3.795301e+01	5.670649e+02
2.110000e-06	5.498564e-06	8.584544e-09	3.713496e+01	5.629749e+02
2.120000e-06	5.375504e-06	8.548013e-09	3.630387e+01	5.589575e+02
2.130000e-06	5.250533e-06	8.494102e-09	3.545986e+01	5.550818e+02
2.140000e-06	5.123695e-06	8.439725e-09	3.460325e+01	5.512914e+02
2.150000e-06	4.995012e-06	8.357763e-09	3.373418e+01	5.474245e+02
2.160000e-06	4.864470e-06	8.288575e-09	3.285256e+01	5.432831e+02
2.170000e-06	4.732174e-06	8.213183e-09	3.195909e+01	5.387191e+02
2.180000e-06	4.598259e-06	8.143690e-09	3.105468e+01	5.337006e+02
2.190000e-06	4.462679e-06	8.068660e-09	3.013904e+01	5.283271e+02
2.200000e-06	4.325412e-06	7.998078e-09	2.921199e+01	5.227853e+02
2.210000e-06	4.186510e-06	7.922948e-09	2.827391e+01	5.172636e+02
2.220000e-06	4.046051e-06	7.832925e-09	2.732531e+01	5.118627e+02
2.230000e-06	3.904107e-06	7.740483e-09	2.636668e+01	5.065424e+02
2.240000e-06	3.760775e-06	7.645267e-09	2.539867e+01	5.011302e+02
2.250000e-06	3.616083e-06	7.562243e-09	2.442149e+01	4.953901e+02
2.260000e-06	3.470072e-06	7.467150e-09	2.343539e+01	4.891226e+02
2.270000e-06	3.322724e-06	7.368041e-09	2.244026e+01	4.822524e+02
2.280000e-06	3.174189e-06	7.258804e-09	2.143712e+01	4.748625e+02
2.290000e-06	3.024550e-06	7.152197e-09	2.042652e+01	4.671574e+02
2.300000e-06	2.873897e-06	7.040325e-09	1.940908e+01	4.593678e+02
2.310000e-06	2.722293e-06	6.921430e-09	1.838521e+01	4.516385e+02
2.320000e-06	2.569726e-06	6.793256e-09	1.735484e+01	4.439488e+02
2.330000e-06	2.416177e-06	6.663387e-09	1.631783e+01	4.361035e+02
2.340000e-06	2.261603e-06	6.532144e-09	1.527390e+01	4.278036e+02
2.350000e-06	2.106193e-06	6.394564e-09	1.422433e+01	4.187688e+02
2.360000e-06	1.950093e-06	6.249561e-09	1.317010e+01	4.088576e+02
2.370000e-06	1.793296e-06	6.097476e-09	1.211116e+01	3.981316e+02
2.380000e-06	1.635848e-06	5.940636e-09	1.104782e+01	3.868267e+02
2.390000e-06	1.477867e-06	5.772156e-09	9.980884e+00	3.752404e+02
2.400000e-06	1.319380e-06	5.590321e-09	8.910531e+00	3.635766e+02
2.410000e-06	1.160413e-06	5.393605e-09	7.836933e+00	3.518181e+02
2.420000e-06	1.001033e-06	5.192337e-09	6.760552e+00	3.396881e+02
2.430000e-06	8.413131e-07	4.984678e-09	5.681871e+00	3.267270e+02
2.440000e-06	6.813002e-07	4.766451e-09	4.601212e+00	3.124615e+02
2.450000e-06	5.210266e-07	4.535664e-09	3.518792e+00	2.965976e+02
2.460000e-06	3.606327e-07	4.289539e-09	2.435560e+00	2.791474e+02
2.470000e-06	2.001497e-07	4.024814e-09	1.351726e+00	2.604195e+02
2.480000e-06	3.953444e-08	3.736168e-09	2.669988e-01	2.408505e+02
2.490000e-06	-1.210747e-07	3.421264e-09	-8.176871e-01	2.207247e+02
2.500000e-06	-2.815786e-07	3.077919e-09	-1.901662e+00	1.998834e+02
2.510000e-06	-4.419590e-07	2.707138e-09	-2.984803e+00	1.775485e+02
2.520000e-06	-6.021599e-07	2.304515e-09	-4.066732e+00	1.523596e+02
2.530000e-06	-7.621218e-07	1.857933e-09	-5.147046e+00	1.226548e+02
2.540000e-06	-9.218492e-07	1.348554e-09	-6.225777e+00	8.693907e+01
2.550000e-06	-1.081257e-06	7.520332e-10	-7.302353e+00	4.440748e+01
2.560000e-06	-1.240234e-06	3.907015e-11	-8.376011e+00	-4.645437e+00
2.570000e-06	-1.398757e-06	-7.983907e-10	-9.446607e+00	-5.867600e+01
2.580000e-06	-1.556834e-06	-1.713603e-09	-1.051420e+01	-1.150735e+02
2.590000e-06	-1.714376e-06	-2.616640e-09	-1.157817e+01	-1.706431e+02
2.600000e-06	-1.871219e-06	-3.422619e-09	-1.263742e+01	-2.222600e+02
2.610000e-06	-2.027275e-06	-4.092134e-09	-1.369136e+01	-2.675114e+02
2.620000e-06	-2.182610e-06	-4.628700e-09	-1.474042e+01	-3.051425e+02
2.630000e-06	-2.337257e-06	-5.059778e-09	-1.578484e+01	-3.351881e+02
2.640000e-06	-2.491065e-06	-5.419357e-09	-1.682359e+01	-3.587708e+02
2.650000e-06	-2.643877e-06	-5.733670e-09	-1.785562e+01	-3.776487e+02
2.660000e-06	-2.795629e-06	-6.012793e-09	-1.888049e+01	-3.936690e+02
2.670000e-06	-2.946375e-06	-6.258526e-09	-1.989856e+01	-4.082963e+02
2.680000e-06	-3.096117e-06	-6.479678e-09	-2.090986e+01	-4.223475e+02
2.690000e-06	-3.244765e-06	-6.682897e-09	-2.191376e+01	-4.359816e+02
2.700000e-06	-3.392322e-06	-6.864520e-09	-2.291030e+01	-4.489028e+02
2.710000e-06	-3.538685e-06	-7.024220e-09	-2.389877e+01	-4.606723e+02
2.720000e-06	-3.683674e-06	-7.170068e-09	-2.487797e+01	-4.709970e+02
2.730000e-06	-3.827280e-06	-7.307724e-09	-2.584782e+01	-4.798948e+02
2.740000e-06	-3.969457e-06	-7.439030e-09	-2.680802e+01	-4.876928e+02
2.750000e-06	-4.110142e-06	-7.565664e-09	-2.775815e+01	-4.948864e+02
2.760000e-06	-4.249366e-06	-7.687329e-09	-2.869841e+01	-5.019375e+02
2.770000e-06	-4.387032e-06	-7.800182e-09	-2.962814e+01	-5.091028e+02
2.780000e-06	-4.522966e-06	-7.903173e-09	-3.054619e+01	-5.163642e+02
2.790000e-06	-4.657198e-06	-7.999138e-09	-3.145273e+01	-5.234795e+02
2.800000e-06	-4.789824e-06	-8.088496e-09	-3.234843e+01	-5.301226e+02
2.810000e-06	-4.920773e-06	-8.170129e-09	-3.323281e+01	-5.360478e+02
2.820000e-06	-5.049996e-06	-8.247542e-09	-3.410553e+01	-5.412043e+02
2.830000e-06	-5.177430e-06	-8.326039e-09	-3.496616e+01	-5.457583e+02
2.840000e-06	-5.302998e-06	-8.405814e-09	-3.581419e+01	-5.500187e+02
2.850000e-06	-5.426731e-06	-8.483615e-09	-3.664983e+01	-5.543039e+02
2.860000e-06	-5.548548e-06	-8.556873e-09	-3.747253e+01	-5.588116e+02
2.870000e-06	-5.668309e-06	-8.625767e-09	-3.828135e+01	-5.635461e+02
2.880000e-06	-5.785957e-06	-8.691606e-09	-3.907589e+01	-5.683323e+02
2.890000e-06	-5.901328e-06	-8.753255e-09	-3.985506e+01	-5.729043e+02
2.900000e-06	-6.014224e-06	-8.809990e-09	-4.061751e+01	-5.770290e+02
2.910000e-06	-6.124773e-06	-8.863894e-09	-4.136411e+01	-5.806078e+02
2.920000e-06	-6.233208e-06	-8.918084e-09	-4.209644e+01	-5.837157e+02
2.930000e-06	-6.339563e-06	-8.972613e-09	-4.281471e+01	-5.865629e+02
2.940000e-06	-6.443693e-06	-9.023182e-09	-4.351796e+01	-5.893988e+02
