# Temperatura_=_67.7
# Concentracion g/m^3_=_13400.0
# C_Vs_to_Am_M_A/Vsm_=_65563218390.804596
# pendiente_HvsI_1/m_=_3716.3
# ordenada_HvsI_A/m_=_1297.0
# frecuencia_Hz_=_301402.34611598565

Tiempo_(s)	Campo_(V.s)	Magnetizacion_(V.s)	Campo_(kA/m)	Magnetizacion_(A/m)
0.000000e+00	-8.400970e-06	-1.359963e-08	-5.692275e+01	-8.931097e+02
1.000000e-08	-8.397172e-06	-1.359771e-08	-5.689701e+01	-8.931894e+02
2.000000e-08	-8.390705e-06	-1.359341e-08	-5.685319e+01	-8.933343e+02
3.000000e-08	-8.381552e-06	-1.358493e-08	-5.679117e+01	-8.933433e+02
4.000000e-08	-8.369406e-06	-1.357879e-08	-5.670887e+01	-8.930245e+02
5.000000e-08	-8.354200e-06	-1.357496e-08	-5.660584e+01	-8.922795e+02
6.000000e-08	-8.336088e-06	-1.356678e-08	-5.648312e+01	-8.911465e+02
7.000000e-08	-8.315432e-06	-1.355138e-08	-5.634316e+01	-8.897848e+02
8.000000e-08	-8.292164e-06	-1.352041e-08	-5.618550e+01	-8.884083e+02
9.000000e-08	-8.265632e-06	-1.354222e-08	-5.600573e+01	-8.871953e+02
1.000000e-07	-8.235717e-06	-1.356772e-08	-5.580303e+01	-8.862169e+02
1.100000e-07	-8.202698e-06	-1.352231e-08	-5.557931e+01	-8.854109e+02
1.200000e-07	-8.166749e-06	-1.346080e-08	-5.533573e+01	-8.846143e+02
1.300000e-07	-8.128194e-06	-1.343964e-08	-5.507448e+01	-8.836356e+02
1.400000e-07	-8.087301e-06	-1.343955e-08	-5.479741e+01	-8.823367e+02
1.500000e-07	-8.043872e-06	-1.336403e-08	-5.450314e+01	-8.806860e+02
1.600000e-07	-7.997573e-06	-1.337204e-08	-5.418943e+01	-8.787611e+02
1.700000e-07	-7.948391e-06	-1.337112e-08	-5.385619e+01	-8.767023e+02
1.800000e-07	-7.896228e-06	-1.331381e-08	-5.350275e+01	-8.746376e+02
1.900000e-07	-7.841008e-06	-1.331693e-08	-5.312859e+01	-8.726178e+02
2.000000e-07	-7.782938e-06	-1.322615e-08	-5.273512e+01	-8.705895e+02
2.100000e-07	-7.722083e-06	-1.318523e-08	-5.232278e+01	-8.684204e+02
2.200000e-07	-7.658498e-06	-1.316158e-08	-5.189195e+01	-8.659642e+02
2.300000e-07	-7.592167e-06	-1.313224e-08	-5.144251e+01	-8.631351e+02
2.400000e-07	-7.522977e-06	-1.312469e-08	-5.097370e+01	-8.599566e+02
2.500000e-07	-7.450902e-06	-1.304252e-08	-5.048533e+01	-8.565594e+02
2.600000e-07	-7.375935e-06	-1.301256e-08	-4.997737e+01	-8.531283e+02
2.700000e-07	-7.298156e-06	-1.295986e-08	-4.945037e+01	-8.498197e+02
2.800000e-07	-7.217564e-06	-1.289820e-08	-4.890430e+01	-8.466879e+02
2.900000e-07	-7.134307e-06	-1.282619e-08	-4.834017e+01	-8.436525e+02
3.000000e-07	-7.048691e-06	-1.278136e-08	-4.776006e+01	-8.405264e+02
3.100000e-07	-6.960673e-06	-1.278026e-08	-4.716367e+01	-8.370922e+02
3.200000e-07	-6.870171e-06	-1.270461e-08	-4.655046e+01	-8.331957e+02
3.300000e-07	-6.777197e-06	-1.263794e-08	-4.592049e+01	-8.288154e+02
3.400000e-07	-6.681794e-06	-1.254953e-08	-4.527407e+01	-8.240755e+02
3.500000e-07	-6.584000e-06	-1.248103e-08	-4.461144e+01	-8.191951e+02
3.600000e-07	-6.483774e-06	-1.241786e-08	-4.393233e+01	-8.143942e+02
3.700000e-07	-6.381145e-06	-1.234200e-08	-4.323694e+01	-8.097966e+02
3.800000e-07	-6.276197e-06	-1.227827e-08	-4.252585e+01	-8.053726e+02
3.900000e-07	-6.169024e-06	-1.221337e-08	-4.179967e+01	-8.009477e+02
4.000000e-07	-6.059668e-06	-1.215430e-08	-4.105870e+01	-7.962764e+02
4.100000e-07	-5.948136e-06	-1.205325e-08	-4.030299e+01	-7.911477e+02
4.200000e-07	-5.834351e-06	-1.195677e-08	-3.953202e+01	-7.854789e+02
4.300000e-07	-5.718257e-06	-1.186702e-08	-3.874539e+01	-7.793540e+02
4.400000e-07	-5.599919e-06	-1.179216e-08	-3.794357e+01	-7.729882e+02
4.500000e-07	-5.479496e-06	-1.170938e-08	-3.712761e+01	-7.666331e+02
4.600000e-07	-5.357159e-06	-1.161404e-08	-3.629869e+01	-7.604631e+02
4.700000e-07	-5.232929e-06	-1.151605e-08	-3.545694e+01	-7.544923e+02
4.800000e-07	-5.106797e-06	-1.141953e-08	-3.460230e+01	-7.485608e+02
4.900000e-07	-4.978849e-06	-1.132020e-08	-3.373536e+01	-7.423985e+02
5.000000e-07	-4.849150e-06	-1.120433e-08	-3.285655e+01	-7.357400e+02
5.100000e-07	-4.717676e-06	-1.108907e-08	-3.196572e+01	-7.284408e+02
5.200000e-07	-4.584455e-06	-1.097859e-08	-3.106305e+01	-7.205430e+02
5.300000e-07	-4.449596e-06	-1.087660e-08	-3.014928e+01	-7.122596e+02
5.400000e-07	-4.313139e-06	-1.075796e-08	-2.922469e+01	-7.038804e+02
5.500000e-07	-4.175105e-06	-1.062585e-08	-2.828941e+01	-6.956410e+02
5.600000e-07	-4.035368e-06	-1.049134e-08	-2.734258e+01	-6.876100e+02
5.700000e-07	-3.893922e-06	-1.036421e-08	-2.638418e+01	-6.796481e+02
5.800000e-07	-3.750998e-06	-1.023446e-08	-2.541577e+01	-6.714580e+02
5.900000e-07	-3.606705e-06	-1.009428e-08	-2.443807e+01	-6.627086e+02
6.000000e-07	-3.461008e-06	-9.949548e-09	-2.345087e+01	-6.531781e+02
6.100000e-07	-3.314019e-06	-9.801626e-09	-2.245492e+01	-6.428544e+02
6.200000e-07	-3.165903e-06	-9.651439e-09	-2.145132e+01	-6.319430e+02
6.300000e-07	-3.016715e-06	-9.488582e-09	-2.044046e+01	-6.207759e+02
6.400000e-07	-2.866573e-06	-9.317000e-09	-1.942313e+01	-6.096571e+02
6.500000e-07	-2.715534e-06	-9.142442e-09	-1.839974e+01	-5.987122e+02
6.600000e-07	-2.563524e-06	-8.965499e-09	-1.736976e+01	-5.878103e+02
6.700000e-07	-2.410550e-06	-8.778975e-09	-1.633325e+01	-5.765996e+02
6.800000e-07	-2.256687e-06	-8.584974e-09	-1.529071e+01	-5.646455e+02
6.900000e-07	-2.102050e-06	-8.388609e-09	-1.424293e+01	-5.516173e+02
7.000000e-07	-1.946702e-06	-8.187388e-09	-1.319034e+01	-5.374377e+02
7.100000e-07	-1.790663e-06	-7.976874e-09	-1.213306e+01	-5.223252e+02
7.200000e-07	-1.633889e-06	-7.750357e-09	-1.107080e+01	-5.066994e+02
7.300000e-07	-1.476341e-06	-7.512217e-09	-1.000329e+01	-4.909805e+02
7.400000e-07	-1.318194e-06	-7.266908e-09	-8.931732e+00	-4.753657e+02
7.500000e-07	-1.159591e-06	-7.011473e-09	-7.857083e+00	-4.596831e+02
7.600000e-07	-1.000630e-06	-6.741497e-09	-6.780006e+00	-4.433986e+02
7.700000e-07	-8.413486e-07	-6.457692e-09	-5.700755e+00	-4.257892e+02
7.800000e-07	-6.818109e-07	-6.160564e-09	-4.619770e+00	-4.062213e+02
7.900000e-07	-5.221179e-07	-5.847546e-09	-3.537733e+00	-3.844165e+02
8.000000e-07	-3.622640e-07	-5.511836e-09	-2.454605e+00	-3.605780e+02
8.100000e-07	-2.022498e-07	-5.149643e-09	-1.370391e+00	-3.352917e+02
8.200000e-07	-4.208203e-08	-4.759520e-09	-2.851367e-01	-3.092066e+02
8.300000e-07	1.180902e-07	-4.336732e-09	8.001478e-01	-2.825925e+02
8.400000e-07	2.781583e-07	-3.878110e-09	1.884727e+00	-2.549446e+02
8.500000e-07	4.381007e-07	-3.375585e-09	2.968454e+00	-2.248124e+02
8.600000e-07	5.978610e-07	-2.820322e-09	4.050948e+00	-1.899720e+02
8.700000e-07	7.574362e-07	-2.194111e-09	5.132187e+00	-1.479448e+02
8.800000e-07	9.168132e-07	-1.465707e-09	6.212083e+00	-9.673998e+01
8.900000e-07	1.075965e-06	-5.967788e-10	7.290451e+00	-3.559986e+01
9.000000e-07	1.234782e-06	4.480622e-10	8.366556e+00	3.449861e+01
9.100000e-07	1.393136e-06	1.660311e-09	9.439516e+00	1.107729e+02
9.200000e-07	1.550902e-06	2.946048e-09	1.050850e+01	1.890554e+02
9.300000e-07	1.707934e-06	4.152637e-09	1.157250e+01	2.646102e+02
9.400000e-07	1.864220e-06	5.170598e-09	1.263146e+01	3.331232e+02
9.500000e-07	2.019876e-06	5.981285e-09	1.368614e+01	3.915848e+02
9.600000e-07	2.174882e-06	6.625526e-09	1.473642e+01	4.388150e+02
9.700000e-07	2.329140e-06	7.154171e-09	1.578163e+01	4.754987e+02
9.800000e-07	2.482566e-06	7.599170e-09	1.682121e+01	5.037483e+02
9.900000e-07	2.635025e-06	7.980217e-09	1.785423e+01	5.263584e+02
1.000000e-06	2.786571e-06	8.314611e-09	1.888107e+01	5.459968e+02
1.010000e-06	2.937195e-06	8.615850e-09	1.990165e+01	5.645762e+02
1.020000e-06	3.086702e-06	8.889030e-09	2.091467e+01	5.829691e+02
1.030000e-06	3.235067e-06	9.137589e-09	2.191996e+01	6.011017e+02
1.040000e-06	3.382251e-06	9.366328e-09	2.291724e+01	6.183309e+02
1.050000e-06	3.528173e-06	9.584515e-09	2.390596e+01	6.339318e+02
1.060000e-06	3.672807e-06	9.792993e-09	2.488597e+01	6.475025e+02
1.070000e-06	3.816150e-06	9.984974e-09	2.585722e+01	6.591556e+02
1.080000e-06	3.958054e-06	1.015960e-08	2.681872e+01	6.694570e+02
1.090000e-06	4.098410e-06	1.032284e-08	2.776974e+01	6.791765e+02
1.100000e-06	4.237241e-06	1.048388e-08	2.871042e+01	6.889755e+02
1.110000e-06	4.374485e-06	1.063861e-08	2.964035e+01	6.991686e+02
1.120000e-06	4.510162e-06	1.078369e-08	3.055966e+01	7.096493e+02
1.130000e-06	4.644209e-06	1.092431e-08	3.146793e+01	7.199941e+02
1.140000e-06	4.776536e-06	1.106402e-08	3.236454e+01	7.296863e+02
1.150000e-06	4.907163e-06	1.119869e-08	3.324963e+01	7.383551e+02
1.160000e-06	5.036067e-06	1.132072e-08	3.412305e+01	7.459310e+02
1.170000e-06	5.163225e-06	1.143260e-08	3.498464e+01	7.526592e+02
1.180000e-06	5.288613e-06	1.154072e-08	3.583424e+01	7.589779e+02
1.190000e-06	5.412119e-06	1.164728e-08	3.667108e+01	7.653233e+02
1.200000e-06	5.533695e-06	1.174810e-08	3.749485e+01	7.719502e+02
1.210000e-06	5.653236e-06	1.184261e-08	3.830483e+01	7.788418e+02
1.220000e-06	5.770555e-06	1.193717e-08	3.909975e+01	7.857430e+02
1.230000e-06	5.885635e-06	1.203333e-08	3.987950e+01	7.922937e+02
1.240000e-06	5.998480e-06	1.212386e-08	4.064411e+01	7.981989e+02
1.250000e-06	6.109163e-06	1.220479e-08	4.139407e+01	8.033611e+02
1.260000e-06	6.217762e-06	1.228066e-08	4.212991e+01	8.079193e+02
1.270000e-06	6.324189e-06	1.235668e-08	4.285103e+01	8.121825e+02
1.280000e-06	6.428328e-06	1.243076e-08	4.355664e+01	8.164927e+02
1.290000e-06	6.530153e-06	1.249840e-08	4.424658e+01	8.210784e+02
1.300000e-06	6.629619e-06	1.256236e-08	4.492054e+01	8.259633e+02
1.310000e-06	6.726633e-06	1.262789e-08	4.557788e+01	8.309666e+02
1.320000e-06	6.821234e-06	1.269662e-08	4.621887e+01	8.357906e+02
1.330000e-06	6.913490e-06	1.276196e-08	4.684397e+01	8.401559e+02
1.340000e-06	7.003288e-06	1.282158e-08	4.745242e+01	8.439214e+02
1.350000e-06	7.090581e-06	1.287909e-08	4.804389e+01	8.471408e+02
1.360000e-06	7.175479e-06	1.293486e-08	4.861914e+01	8.500324e+02
1.370000e-06	7.257864e-06	1.298617e-08	4.917736e+01	8.528786e+02
1.380000e-06	7.337598e-06	1.303085e-08	4.971762e+01	8.559031e+02
1.390000e-06	7.414645e-06	1.307437e-08	5.023967e+01	8.591772e+02
1.400000e-06	7.488927e-06	1.312068e-08	5.074298e+01	8.625976e+02
1.410000e-06	7.560481e-06	1.316765e-08	5.122782e+01	8.659396e+02
1.420000e-06	7.629351e-06	1.321200e-08	5.169446e+01	8.689618e+02
1.430000e-06	7.695455e-06	1.325456e-08	5.214236e+01	8.715139e+02
1.440000e-06	7.758831e-06	1.329713e-08	5.257178e+01	8.736001e+02
1.450000e-06	7.819586e-06	1.333502e-08	5.298344e+01	8.753720e+02
1.460000e-06	7.877598e-06	1.336516e-08	5.337651e+01	8.770568e+02
1.470000e-06	7.932703e-06	1.339138e-08	5.374989e+01	8.788535e+02
1.480000e-06	7.984698e-06	1.341770e-08	5.410219e+01	8.808452e+02
1.490000e-06	8.033534e-06	1.344573e-08	5.443310e+01	8.829642e+02
1.500000e-06	8.079479e-06	1.347606e-08	5.474440e+01	8.850263e+02
1.510000e-06	8.122587e-06	1.350529e-08	5.503649e+01	8.868156e+02
1.520000e-06	8.162751e-06	1.352867e-08	5.530864e+01	8.881830e+02
1.530000e-06	8.200105e-06	1.354781e-08	5.556174e+01	8.891125e+02
1.540000e-06	8.234641e-06	1.356410e-08	5.579574e+01	8.897296e+02
1.550000e-06	8.266249e-06	1.357687e-08	5.600991e+01	8.902446e+02
1.560000e-06	8.294982e-06	1.358807e-08	5.620460e+01	8.908615e+02
1.570000e-06	8.320711e-06	1.359933e-08	5.637893e+01	8.916889e+02
1.580000e-06	8.343451e-06	1.361313e-08	5.653301e+01	8.926955e+02
1.590000e-06	8.363396e-06	1.363009e-08	5.666815e+01	8.937267e+02
1.600000e-06	8.380392e-06	1.364412e-08	5.678331e+01	8.945763e+02
1.610000e-06	8.394207e-06	1.365120e-08	5.687692e+01	8.950787e+02
1.620000e-06	8.404792e-06	1.365353e-08	5.694864e+01	8.951829e+02
1.630000e-06	8.412285e-06	1.365636e-08	5.699941e+01	8.949741e+02
1.640000e-06	8.416861e-06	1.365971e-08	5.703042e+01	8.946342e+02
1.650000e-06	8.418497e-06	1.365721e-08	5.704150e+01	8.943596e+02
1.660000e-06	8.417290e-06	1.365336e-08	5.703332e+01	8.942731e+02
1.670000e-06	8.413345e-06	1.364925e-08	5.700659e+01	8.943676e+02
1.680000e-06	8.406548e-06	1.364915e-08	5.696054e+01	8.945081e+02
1.690000e-06	8.396862e-06	1.364845e-08	5.689491e+01	8.944900e+02
1.700000e-06	8.384218e-06	1.364244e-08	5.680924e+01	8.941279e+02
1.710000e-06	8.368717e-06	1.363035e-08	5.670420e+01	8.933369e+02
1.720000e-06	8.350704e-06	1.361295e-08	5.658216e+01	8.921699e+02
1.730000e-06	8.330140e-06	1.360982e-08	5.644281e+01	8.907963e+02
1.740000e-06	8.306490e-06	1.357106e-08	5.628257e+01	8.894300e+02
1.750000e-06	8.279060e-06	1.349453e-08	5.609671e+01	8.882410e+02
1.760000e-06	8.247797e-06	1.348731e-08	5.588488e+01	8.872861e+02
1.770000e-06	8.213579e-06	1.352102e-08	5.565303e+01	8.864901e+02
1.780000e-06	8.176931e-06	1.351858e-08	5.540472e+01	8.856827e+02
1.790000e-06	8.138001e-06	1.348568e-08	5.514094e+01	8.846746e+02
1.800000e-06	8.097024e-06	1.350150e-08	5.486329e+01	8.833373e+02
1.810000e-06	8.053549e-06	1.343135e-08	5.456871e+01	8.816517e+02
1.820000e-06	8.007024e-06	1.343927e-08	5.425347e+01	8.797053e+02
1.830000e-06	7.957538e-06	1.344601e-08	5.391817e+01	8.776405e+02
1.840000e-06	7.904819e-06	1.338677e-08	5.356096e+01	8.755799e+02
1.850000e-06	7.849051e-06	1.341649e-08	5.318309e+01	8.735634e+02
1.860000e-06	7.790624e-06	1.333824e-08	5.278720e+01	8.715271e+02
1.870000e-06	7.729338e-06	1.334708e-08	5.237194e+01	8.693337e+02
1.880000e-06	7.665312e-06	1.325560e-08	5.193812e+01	8.668398e+02
1.890000e-06	7.598462e-06	1.316883e-08	5.148516e+01	8.639700e+02
1.900000e-06	7.528681e-06	1.316790e-08	5.101235e+01	8.607601e+02
1.910000e-06	7.455925e-06	1.307829e-08	5.051937e+01	8.573501e+02
1.920000e-06	7.380287e-06	1.310047e-08	5.000687e+01	8.539258e+02
1.930000e-06	7.301992e-06	1.302463e-08	4.947636e+01	8.506358e+02
1.940000e-06	7.221095e-06	1.299545e-08	4.892822e+01	8.475203e+02
1.950000e-06	7.137672e-06	1.293791e-08	4.836297e+01	8.444853e+02
1.960000e-06	7.051571e-06	1.283088e-08	4.777957e+01	8.413362e+02
1.970000e-06	6.962885e-06	1.279802e-08	4.717866e+01	8.378578e+02
1.980000e-06	6.871789e-06	1.269415e-08	4.656142e+01	8.339077e+02
1.990000e-06	6.778220e-06	1.268693e-08	4.592742e+01	8.294805e+02
2.000000e-06	6.682320e-06	1.261776e-08	4.527763e+01	8.247140e+02
2.010000e-06	6.584074e-06	1.256370e-08	4.461194e+01	8.198325e+02
2.020000e-06	6.483456e-06	1.248386e-08	4.393017e+01	8.150498e+02
2.030000e-06	6.380437e-06	1.238641e-08	4.323215e+01	8.104750e+02
2.040000e-06	6.275132e-06	1.232051e-08	4.251863e+01	8.060612e+02
2.050000e-06	6.167669e-06	1.222535e-08	4.179049e+01	8.016219e+02
2.060000e-06	6.057980e-06	1.216528e-08	4.104726e+01	7.969099e+02
2.070000e-06	5.946017e-06	1.208055e-08	4.028863e+01	7.917243e+02
2.080000e-06	5.831727e-06	1.201584e-08	3.951423e+01	7.859997e+02
2.090000e-06	5.715170e-06	1.192404e-08	3.872448e+01	7.798369e+02
2.100000e-06	5.596360e-06	1.182566e-08	3.791945e+01	7.734605e+02
2.110000e-06	5.475492e-06	1.171616e-08	3.710048e+01	7.671192e+02
2.120000e-06	5.352714e-06	1.162152e-08	3.626857e+01	7.609730e+02
2.130000e-06	5.228042e-06	1.152521e-08	3.542382e+01	7.550167e+02
2.140000e-06	5.101450e-06	1.143651e-08	3.456607e+01	7.490742e+02
2.150000e-06	4.973044e-06	1.133900e-08	3.369602e+01	7.428701e+02
2.160000e-06	4.842865e-06	1.123378e-08	3.281397e+01	7.361467e+02
2.170000e-06	4.710935e-06	1.112127e-08	3.192004e+01	7.287778e+02
2.180000e-06	4.577339e-06	1.099293e-08	3.101483e+01	7.208261e+02
2.190000e-06	4.442052e-06	1.087843e-08	3.009817e+01	7.125182e+02
2.200000e-06	4.305160e-06	1.075776e-08	2.917062e+01	7.041448e+02
2.210000e-06	4.166634e-06	1.064960e-08	2.823201e+01	6.959280e+02
2.220000e-06	4.026518e-06	1.052009e-08	2.728262e+01	6.879145e+02
2.230000e-06	3.884892e-06	1.038308e-08	2.632299e+01	6.799441e+02
2.240000e-06	3.741814e-06	1.023780e-08	2.535354e+01	6.717090e+02
2.250000e-06	3.597390e-06	1.009606e-08	2.437496e+01	6.628832e+02
2.260000e-06	3.451710e-06	9.951632e-09	2.338787e+01	6.532641e+02
2.270000e-06	3.304789e-06	9.802307e-09	2.239238e+01	6.428642e+02
2.280000e-06	3.156712e-06	9.654634e-09	2.138904e+01	6.319085e+02
2.290000e-06	3.007563e-06	9.504054e-09	2.037845e+01	6.207339e+02
2.300000e-06	2.857403e-06	9.342800e-09	1.936100e+01	6.096319e+02
2.310000e-06	2.706261e-06	9.162245e-09	1.833691e+01	5.987023e+02
2.320000e-06	2.554088e-06	8.973002e-09	1.730582e+01	5.877870e+02
2.330000e-06	2.400938e-06	8.784201e-09	1.626812e+01	5.765170e+02
2.340000e-06	2.246891e-06	8.598960e-09	1.522434e+01	5.644601e+02
2.350000e-06	2.092012e-06	8.404460e-09	1.417491e+01	5.513068e+02
2.360000e-06	1.936415e-06	8.201552e-09	1.312063e+01	5.370118e+02
2.370000e-06	1.780163e-06	7.991210e-09	1.206191e+01	5.218222e+02
2.380000e-06	1.623270e-06	7.769943e-09	1.099885e+01	5.061684e+02
2.390000e-06	1.465811e-06	7.530449e-09	9.931945e+00	4.904569e+02
2.400000e-06	1.307863e-06	7.275512e-09	8.861732e+00	4.748500e+02
2.410000e-06	1.149485e-06	7.012899e-09	7.788607e+00	4.591336e+02
2.420000e-06	9.906707e-07	6.745264e-09	6.712522e+00	4.427426e+02
2.430000e-06	8.314528e-07	6.466164e-09	5.633703e+00	4.249492e+02
2.440000e-06	6.719207e-07	6.168650e-09	4.552757e+00	4.051467e+02
2.450000e-06	5.121424e-07	5.852407e-09	3.470141e+00	3.831058e+02
2.460000e-06	3.521557e-07	5.515946e-09	2.386114e+00	3.590795e+02
2.470000e-06	1.920007e-07	5.155476e-09	1.300946e+00	3.336794e+02
2.480000e-06	3.170877e-08	4.763079e-09	2.148502e-01	3.075354e+02
2.490000e-06	-1.285903e-07	4.333666e-09	-8.712938e-01	2.808510e+02
2.500000e-06	-2.887555e-07	3.867100e-09	-1.956530e+00	2.530225e+02
2.510000e-06	-4.487116e-07	3.363397e-09	-3.040351e+00	2.225021e+02
2.520000e-06	-6.084468e-07	2.807976e-09	-4.122674e+00	1.870081e+02
2.530000e-06	-7.679153e-07	2.175589e-09	-5.203190e+00	1.440767e+02
2.540000e-06	-9.270452e-07	1.439190e-09	-6.281413e+00	9.181585e+01
2.550000e-06	-1.085834e-06	5.660215e-10	-7.357321e+00	2.963605e+01
2.560000e-06	-1.244266e-06	-4.795396e-10	-8.430813e+00	-4.128696e+01
2.570000e-06	-1.402312e-06	-1.698053e-09	-9.501692e+00	-1.179938e+02
2.580000e-06	-1.559873e-06	-2.994900e-09	-1.056929e+01	-1.962116e+02
2.590000e-06	-1.716805e-06	-4.210136e-09	-1.163261e+01	-2.712018e+02
2.600000e-06	-1.873047e-06	-5.228541e-09	-1.269127e+01	-3.387524e+02
2.610000e-06	-2.028572e-06	-6.039520e-09	-1.374506e+01	-3.960327e+02
2.620000e-06	-2.183358e-06	-6.692068e-09	-1.479386e+01	-4.420701e+02
2.630000e-06	-2.337453e-06	-7.227188e-09	-1.583796e+01	-4.777302e+02
2.640000e-06	-2.490698e-06	-7.671440e-09	-1.687631e+01	-5.052377e+02
2.650000e-06	-2.642920e-06	-8.050997e-09	-1.790772e+01	-5.274110e+02
2.660000e-06	-2.794125e-06	-8.388523e-09	-1.893225e+01	-5.468620e+02
2.670000e-06	-2.944325e-06	-8.693897e-09	-1.994997e+01	-5.653985e+02
2.680000e-06	-3.093474e-06	-8.970520e-09	-2.096056e+01	-5.837811e+02
2.690000e-06	-3.241487e-06	-9.224642e-09	-2.196346e+01	-6.018533e+02
2.700000e-06	-3.388399e-06	-9.461165e-09	-2.295889e+01	-6.189400e+02
2.710000e-06	-3.534205e-06	-9.681767e-09	-2.394684e+01	-6.343343e+02
2.720000e-06	-3.678729e-06	-9.883127e-09	-2.492609e+01	-6.476849e+02
2.730000e-06	-3.821824e-06	-1.006506e-08	-2.589567e+01	-6.591600e+02
2.740000e-06	-3.963530e-06	-1.023553e-08	-2.685582e+01	-6.693618e+02
2.750000e-06	-4.103775e-06	-1.040156e-08	-2.780609e+01	-6.790628e+02
2.760000e-06	-4.242446e-06	-1.056332e-08	-2.874569e+01	-6.888966e+02
2.770000e-06	-4.379531e-06	-1.071644e-08	-2.967454e+01	-6.991328e+02
2.780000e-06	-4.514937e-06	-1.086280e-08	-3.059201e+01	-7.096230e+02
2.790000e-06	-4.648721e-06	-1.100733e-08	-3.149850e+01	-7.199220e+02
2.800000e-06	-4.780908e-06	-1.114428e-08	-3.239416e+01	-7.295179e+02
2.810000e-06	-4.911394e-06	-1.126465e-08	-3.327830e+01	-7.380671e+02
2.820000e-06	-5.040109e-06	-1.137458e-08	-3.415044e+01	-7.455357e+02
2.830000e-06	-5.167020e-06	-1.148719e-08	-3.501036e+01	-7.521975e+02
2.840000e-06	-5.292092e-06	-1.160293e-08	-3.585781e+01	-7.585002e+02
2.850000e-06	-5.415344e-06	-1.171241e-08	-3.669294e+01	-7.648682e+02
2.860000e-06	-5.536744e-06	-1.181145e-08	-3.751551e+01	-7.715292e+02
2.870000e-06	-5.656100e-06	-1.190612e-08	-3.832423e+01	-7.784374e+02
2.880000e-06	-5.773242e-06	-1.200143e-08	-3.911795e+01	-7.853186e+02
2.890000e-06	-5.888052e-06	-1.209176e-08	-3.989588e+01	-7.918117e+02
2.900000e-06	-6.000434e-06	-1.217139e-08	-4.065735e+01	-7.976379e+02
2.910000e-06	-6.110502e-06	-1.224502e-08	-4.140314e+01	-8.027250e+02
2.920000e-06	-6.218479e-06	-1.232157e-08	-4.213477e+01	-8.072350e+02
2.930000e-06	-6.324365e-06	-1.240082e-08	-4.285222e+01	-8.114878e+02
2.940000e-06	-6.428015e-06	-1.247730e-08	-4.355452e+01	-8.158199e+02
