# Temperatura_=_54.89
# Concentracion g/m^3_=_13400.0
# C_Vs_to_Am_M_A/Vsm_=_65563218390.804596
# pendiente_HvsI_1/m_=_3716.3
# ordenada_HvsI_A/m_=_1297.0
# frecuencia_Hz_=_301401.68842193193

Tiempo_(s)	Campo_(V.s)	Magnetizacion_(V.s)	Campo_(kA/m)	Magnetizacion_(A/m)
0.000000e+00	-8.378416e-06	-1.170244e-08	-5.692458e+01	-7.678976e+02
1.000000e-08	-8.374670e-06	-1.169483e-08	-5.689913e+01	-7.678325e+02
2.000000e-08	-8.368233e-06	-1.168731e-08	-5.685540e+01	-7.678445e+02
3.000000e-08	-8.359101e-06	-1.167934e-08	-5.679335e+01	-7.677836e+02
4.000000e-08	-8.347026e-06	-1.167449e-08	-5.671131e+01	-7.674914e+02
5.000000e-08	-8.331894e-06	-1.167169e-08	-5.660850e+01	-7.668710e+02
6.000000e-08	-8.313843e-06	-1.166640e-08	-5.648586e+01	-7.659310e+02
7.000000e-08	-8.293233e-06	-1.165570e-08	-5.634583e+01	-7.647834e+02
8.000000e-08	-8.270003e-06	-1.162761e-08	-5.618801e+01	-7.635966e+02
9.000000e-08	-8.243562e-06	-1.164406e-08	-5.600836e+01	-7.625247e+02
1.000000e-07	-8.213734e-06	-1.167042e-08	-5.580570e+01	-7.616435e+02
1.100000e-07	-8.180812e-06	-1.162841e-08	-5.558202e+01	-7.609201e+02
1.200000e-07	-8.145014e-06	-1.156711e-08	-5.533881e+01	-7.602294e+02
1.300000e-07	-8.106633e-06	-1.154478e-08	-5.507804e+01	-7.594077e+02
1.400000e-07	-8.065884e-06	-1.155497e-08	-5.480118e+01	-7.583209e+02
1.500000e-07	-8.022613e-06	-1.150497e-08	-5.450719e+01	-7.569158e+02
1.600000e-07	-7.976532e-06	-1.149425e-08	-5.419411e+01	-7.552347e+02
1.700000e-07	-7.927542e-06	-1.150155e-08	-5.386126e+01	-7.533871e+02
1.800000e-07	-7.875552e-06	-1.145099e-08	-5.350802e+01	-7.514932e+02
1.900000e-07	-7.820517e-06	-1.143893e-08	-5.313411e+01	-7.496272e+02
2.000000e-07	-7.762593e-06	-1.136296e-08	-5.274056e+01	-7.477843e+02
2.100000e-07	-7.701888e-06	-1.132079e-08	-5.232812e+01	-7.458879e+02
2.200000e-07	-7.638442e-06	-1.131177e-08	-5.189705e+01	-7.438310e+02
2.300000e-07	-7.572198e-06	-1.129140e-08	-5.144698e+01	-7.415333e+02
2.400000e-07	-7.503150e-06	-1.129420e-08	-5.097785e+01	-7.389856e+02
2.500000e-07	-7.431333e-06	-1.121743e-08	-5.048992e+01	-7.362590e+02
2.600000e-07	-7.356670e-06	-1.118515e-08	-4.998264e+01	-7.334757e+02
2.700000e-07	-7.279147e-06	-1.114783e-08	-4.945594e+01	-7.307520e+02
2.800000e-07	-7.198782e-06	-1.109344e-08	-4.890992e+01	-7.281411e+02
2.900000e-07	-7.115740e-06	-1.103509e-08	-4.834572e+01	-7.256016e+02
3.000000e-07	-7.030329e-06	-1.099588e-08	-4.776542e+01	-7.230087e+02
3.100000e-07	-6.942593e-06	-1.100111e-08	-4.716932e+01	-7.202047e+02
3.200000e-07	-6.852437e-06	-1.094210e-08	-4.655679e+01	-7.170670e+02
3.300000e-07	-6.759796e-06	-1.088661e-08	-4.592736e+01	-7.135630e+02
3.400000e-07	-6.664711e-06	-1.081247e-08	-4.528134e+01	-7.097679e+02
3.500000e-07	-6.567210e-06	-1.075441e-08	-4.461890e+01	-7.058339e+02
3.600000e-07	-6.467227e-06	-1.070598e-08	-4.393959e+01	-7.019244e+02
3.700000e-07	-6.364885e-06	-1.064315e-08	-4.324426e+01	-6.981410e+02
3.800000e-07	-6.260292e-06	-1.058999e-08	-4.253364e+01	-6.944750e+02
3.900000e-07	-6.153414e-06	-1.053426e-08	-4.180749e+01	-6.908073e+02
4.000000e-07	-6.044291e-06	-1.048728e-08	-4.106608e+01	-6.869569e+02
4.100000e-07	-5.933045e-06	-1.040584e-08	-4.031026e+01	-6.827588e+02
4.200000e-07	-5.819634e-06	-1.032651e-08	-3.953972e+01	-6.781362e+02
4.300000e-07	-5.703916e-06	-1.025278e-08	-3.875351e+01	-6.731357e+02
4.400000e-07	-5.585946e-06	-1.019201e-08	-3.795200e+01	-6.679074e+02
4.500000e-07	-5.465886e-06	-1.012540e-08	-3.713629e+01	-6.626381e+02
4.600000e-07	-5.343901e-06	-1.004310e-08	-3.630750e+01	-6.574663e+02
4.700000e-07	-5.220024e-06	-9.956893e-09	-3.546585e+01	-6.524156e+02
4.800000e-07	-5.094245e-06	-9.875069e-09	-3.461129e+01	-6.473784e+02
4.900000e-07	-4.966651e-06	-9.793308e-09	-3.374439e+01	-6.421581e+02
5.000000e-07	-4.837283e-06	-9.696064e-09	-3.286544e+01	-6.365529e+02
5.100000e-07	-4.706188e-06	-9.598394e-09	-3.197476e+01	-6.304452e+02
5.200000e-07	-4.573384e-06	-9.507173e-09	-3.107246e+01	-6.238553e+02
5.300000e-07	-4.438917e-06	-9.425372e-09	-3.015886e+01	-6.169350e+02
5.400000e-07	-4.302801e-06	-9.325392e-09	-2.923407e+01	-6.099008e+02
5.500000e-07	-4.165054e-06	-9.208937e-09	-2.829819e+01	-6.029341e+02
5.600000e-07	-4.025793e-06	-9.092089e-09	-2.735202e+01	-5.960939e+02
5.700000e-07	-3.884977e-06	-8.987722e-09	-2.639529e+01	-5.892796e+02
5.800000e-07	-3.742573e-06	-8.879715e-09	-2.542777e+01	-5.822656e+02
5.900000e-07	-3.598755e-06	-8.756862e-09	-2.445064e+01	-5.747936e+02
6.000000e-07	-3.453665e-06	-8.629071e-09	-2.346487e+01	-5.666847e+02
6.100000e-07	-3.307229e-06	-8.503871e-09	-2.246996e+01	-5.579199e+02
6.200000e-07	-3.159486e-06	-8.378654e-09	-2.146616e+01	-5.486515e+02
6.300000e-07	-3.010693e-06	-8.237306e-09	-2.045523e+01	-5.391363e+02
6.400000e-07	-2.860980e-06	-8.086200e-09	-1.943806e+01	-5.296153e+02
6.500000e-07	-2.710299e-06	-7.934727e-09	-1.841430e+01	-5.201931e+02
6.600000e-07	-2.558674e-06	-7.786184e-09	-1.738413e+01	-5.107712e+02
6.700000e-07	-2.406190e-06	-7.627945e-09	-1.634812e+01	-5.010703e+02
6.800000e-07	-2.252824e-06	-7.457715e-09	-1.530612e+01	-4.907362e+02
6.900000e-07	-2.098606e-06	-7.283841e-09	-1.425834e+01	-4.794892e+02
7.000000e-07	-1.943625e-06	-7.108666e-09	-1.320536e+01	-4.672493e+02
7.100000e-07	-1.787990e-06	-6.926778e-09	-1.214795e+01	-4.541786e+02
7.200000e-07	-1.631735e-06	-6.728772e-09	-1.108632e+01	-4.406139e+02
7.300000e-07	-1.474818e-06	-6.521327e-09	-1.002020e+01	-4.269088e+02
7.400000e-07	-1.317283e-06	-6.310726e-09	-8.949874e+00	-4.132503e+02
7.500000e-07	-1.159267e-06	-6.092925e-09	-7.876282e+00	-3.995298e+02
7.600000e-07	-1.000759e-06	-5.857254e-09	-6.799352e+00	-3.853338e+02
7.700000e-07	-8.417109e-07	-5.604557e-09	-5.718747e+00	-3.700718e+02
7.800000e-07	-6.823442e-07	-5.344381e-09	-4.635979e+00	-3.531977e+02
7.900000e-07	-5.228495e-07	-5.076694e-09	-3.552341e+00	-3.344336e+02
8.000000e-07	-3.632308e-07	-4.786441e-09	-2.467860e+00	-3.138913e+02
8.100000e-07	-2.034977e-07	-4.465527e-09	-1.382603e+00	-2.920168e+02
8.200000e-07	-4.372572e-08	-4.124243e-09	-2.970810e-01	-2.693498e+02
8.300000e-07	1.160547e-07	-3.766921e-09	7.884982e-01	-2.461701e+02
8.400000e-07	2.758237e-07	-3.380158e-09	1.874000e+00	-2.221627e+02
8.500000e-07	4.355502e-07	-2.946732e-09	2.959212e+00	-1.962472e+02
8.600000e-07	5.951623e-07	-2.465104e-09	4.043648e+00	-1.666770e+02
8.700000e-07	7.545629e-07	-1.933072e-09	5.126646e+00	-1.314262e+02
8.800000e-07	9.136214e-07	-1.324693e-09	6.207321e+00	-8.877615e+01
8.900000e-07	1.072254e-06	-5.962281e-10	7.285103e+00	-3.793319e+01
9.000000e-07	1.230451e-06	2.779083e-10	8.359922e+00	2.052452e+01
9.100000e-07	1.388084e-06	1.282943e-09	9.430911e+00	8.453168e+01
9.200000e-07	1.545172e-06	2.353256e-09	1.049820e+01	1.508183e+02
9.300000e-07	1.701780e-06	3.384398e-09	1.156222e+01	2.155317e+02
9.400000e-07	1.857874e-06	4.288392e-09	1.262275e+01	2.750297e+02
9.500000e-07	2.013368e-06	5.025107e-09	1.367921e+01	3.266226e+02
9.600000e-07	2.168017e-06	5.609584e-09	1.472993e+01	3.690536e+02
9.700000e-07	2.321718e-06	6.085631e-09	1.577420e+01	4.025944e+02
9.800000e-07	2.474533e-06	6.489660e-09	1.681246e+01	4.287515e+02
9.900000e-07	2.626548e-06	6.838345e-09	1.784527e+01	4.496987e+02
1.000000e-06	2.777677e-06	7.137763e-09	1.887207e+01	4.676256e+02
1.010000e-06	2.927762e-06	7.401194e-09	1.989178e+01	4.842018e+02
1.020000e-06	3.076829e-06	7.643478e-09	2.090458e+01	5.002995e+02
1.030000e-06	3.224876e-06	7.868660e-09	2.191044e+01	5.160184e+02
1.040000e-06	3.371697e-06	8.073367e-09	2.290796e+01	5.309534e+02
1.050000e-06	3.517212e-06	8.262274e-09	2.389662e+01	5.445705e+02
1.060000e-06	3.661499e-06	8.440780e-09	2.487693e+01	5.565409e+02
1.070000e-06	3.804448e-06	8.608438e-09	2.584816e+01	5.669176e+02
1.080000e-06	3.945925e-06	8.763133e-09	2.680938e+01	5.761139e+02
1.090000e-06	4.085955e-06	8.906273e-09	2.776077e+01	5.847233e+02
1.100000e-06	4.224467e-06	9.044705e-09	2.870185e+01	5.932781e+02
1.110000e-06	4.361394e-06	9.179376e-09	2.963216e+01	6.020526e+02
1.120000e-06	4.496685e-06	9.307716e-09	3.055135e+01	6.109910e+02
1.130000e-06	4.630292e-06	9.429590e-09	3.145910e+01	6.197777e+02
1.140000e-06	4.762273e-06	9.546877e-09	3.235581e+01	6.280085e+02
1.150000e-06	4.892532e-06	9.659372e-09	3.324081e+01	6.353835e+02
1.160000e-06	5.021042e-06	9.763843e-09	3.411394e+01	6.418389e+02
1.170000e-06	5.147834e-06	9.858915e-09	3.497538e+01	6.475683e+02
1.180000e-06	5.272890e-06	9.947417e-09	3.582504e+01	6.529319e+02
1.190000e-06	5.396043e-06	1.003337e-08	3.666176e+01	6.583010e+02
1.200000e-06	5.517197e-06	1.011856e-08	3.748491e+01	6.639072e+02
1.210000e-06	5.636350e-06	1.020213e-08	3.829445e+01	6.697610e+02
1.220000e-06	5.753390e-06	1.028282e-08	3.908965e+01	6.756679e+02
1.230000e-06	5.868215e-06	1.036100e-08	3.986979e+01	6.813322e+02
1.240000e-06	5.980841e-06	1.043553e-08	4.063499e+01	6.864960e+02
1.250000e-06	6.091399e-06	1.050606e-08	4.138615e+01	6.910538e+02
1.260000e-06	6.199845e-06	1.057341e-08	4.212295e+01	6.950953e+02
1.270000e-06	6.306010e-06	1.063847e-08	4.284425e+01	6.988597e+02
1.280000e-06	6.409871e-06	1.070058e-08	4.354991e+01	7.026277e+02
1.290000e-06	6.511449e-06	1.076075e-08	4.424005e+01	7.065994e+02
1.300000e-06	6.610597e-06	1.082011e-08	4.491368e+01	7.108118e+02
1.310000e-06	6.707279e-06	1.087646e-08	4.557055e+01	7.151296e+02
1.320000e-06	6.801626e-06	1.093186e-08	4.621157e+01	7.193108e+02
1.330000e-06	6.893657e-06	1.098696e-08	4.683684e+01	7.231156e+02
1.340000e-06	6.983228e-06	1.103870e-08	4.744541e+01	7.264104e+02
1.350000e-06	7.070348e-06	1.108738e-08	4.803732e+01	7.292221e+02
1.360000e-06	7.155064e-06	1.113446e-08	4.861289e+01	7.317216e+02
1.370000e-06	7.237303e-06	1.117948e-08	4.917164e+01	7.341464e+02
1.380000e-06	7.316939e-06	1.122049e-08	4.971270e+01	7.366967e+02
1.390000e-06	7.393851e-06	1.125921e-08	5.023526e+01	7.394524e+02
1.400000e-06	7.467956e-06	1.129902e-08	5.073874e+01	7.423446e+02
1.410000e-06	7.539318e-06	1.133913e-08	5.122359e+01	7.451927e+02
1.420000e-06	7.608018e-06	1.137786e-08	5.169035e+01	7.477881e+02
1.430000e-06	7.673976e-06	1.141458e-08	5.213848e+01	7.499880e+02
1.440000e-06	7.737248e-06	1.144935e-08	5.256836e+01	7.517757e+02
1.450000e-06	7.797883e-06	1.148023e-08	5.298033e+01	7.532652e+02
1.460000e-06	7.855769e-06	1.150487e-08	5.337362e+01	7.546478e+02
1.470000e-06	7.910827e-06	1.152660e-08	5.374769e+01	7.561061e+02
1.480000e-06	7.962785e-06	1.154957e-08	5.410071e+01	7.577347e+02
1.490000e-06	8.011535e-06	1.157393e-08	5.443192e+01	7.595013e+02
1.500000e-06	8.057388e-06	1.159659e-08	5.474346e+01	7.612643e+02
1.510000e-06	8.100353e-06	1.161852e-08	5.503537e+01	7.628385e+02
1.520000e-06	8.140383e-06	1.164114e-08	5.530734e+01	7.640781e+02
1.530000e-06	8.177652e-06	1.166211e-08	5.556055e+01	7.649409e+02
1.540000e-06	8.212042e-06	1.167734e-08	5.579421e+01	7.655059e+02
1.550000e-06	8.243518e-06	1.168584e-08	5.600806e+01	7.659372e+02
1.560000e-06	8.272219e-06	1.169310e-08	5.620306e+01	7.664115e+02
1.570000e-06	8.297926e-06	1.170375e-08	5.637772e+01	7.670409e+02
1.580000e-06	8.320666e-06	1.171668e-08	5.653222e+01	7.678267e+02
1.590000e-06	8.340596e-06	1.172848e-08	5.666763e+01	7.686608e+02
1.600000e-06	8.357525e-06	1.173601e-08	5.678264e+01	7.693769e+02
1.610000e-06	8.371311e-06	1.174188e-08	5.687631e+01	7.698250e+02
1.620000e-06	8.381879e-06	1.174678e-08	5.694811e+01	7.699379e+02
1.630000e-06	8.389379e-06	1.174872e-08	5.699907e+01	7.697599e+02
1.640000e-06	8.393983e-06	1.174824e-08	5.703035e+01	7.694254e+02
1.650000e-06	8.395624e-06	1.174407e-08	5.704150e+01	7.690982e+02
1.660000e-06	8.394434e-06	1.174275e-08	5.703341e+01	7.688976e+02
1.670000e-06	8.390431e-06	1.174314e-08	5.700622e+01	7.688458e+02
1.680000e-06	8.383567e-06	1.174195e-08	5.695958e+01	7.688577e+02
1.690000e-06	8.373900e-06	1.173612e-08	5.689390e+01	7.687788e+02
1.700000e-06	8.361297e-06	1.172769e-08	5.680827e+01	7.684541e+02
1.710000e-06	8.345868e-06	1.171645e-08	5.670344e+01	7.677968e+02
1.720000e-06	8.327918e-06	1.170315e-08	5.658149e+01	7.668274e+02
1.730000e-06	8.307392e-06	1.170201e-08	5.644203e+01	7.656669e+02
1.740000e-06	8.283837e-06	1.167491e-08	5.628200e+01	7.644857e+02
1.750000e-06	8.256548e-06	1.159982e-08	5.609659e+01	7.634322e+02
1.760000e-06	8.225417e-06	1.158907e-08	5.588508e+01	7.625711e+02
1.770000e-06	8.191263e-06	1.162740e-08	5.565303e+01	7.618582e+02
1.780000e-06	8.154660e-06	1.163492e-08	5.540434e+01	7.611611e+02
1.790000e-06	8.115792e-06	1.159546e-08	5.514027e+01	7.603160e+02
1.800000e-06	8.074906e-06	1.160195e-08	5.486247e+01	7.591956e+02
1.810000e-06	8.031556e-06	1.154582e-08	5.456795e+01	7.577572e+02
1.820000e-06	7.985242e-06	1.153543e-08	5.425328e+01	7.560520e+02
1.830000e-06	7.936021e-06	1.155208e-08	5.391886e+01	7.541938e+02
1.840000e-06	7.883515e-06	1.148462e-08	5.356213e+01	7.523003e+02
1.850000e-06	7.827909e-06	1.150292e-08	5.318433e+01	7.504382e+02
1.860000e-06	7.769589e-06	1.144023e-08	5.278809e+01	7.485940e+02
1.870000e-06	7.708450e-06	1.143913e-08	5.237270e+01	7.466852e+02
1.880000e-06	7.644597e-06	1.137037e-08	5.193887e+01	7.446051e+02
1.890000e-06	7.577895e-06	1.128143e-08	5.148569e+01	7.422794e+02
1.900000e-06	7.508367e-06	1.128627e-08	5.101330e+01	7.397075e+02
1.910000e-06	7.435903e-06	1.121332e-08	5.052097e+01	7.369683e+02
1.920000e-06	7.360509e-06	1.123917e-08	5.000872e+01	7.341863e+02
1.930000e-06	7.282439e-06	1.117562e-08	4.947830e+01	7.314735e+02
1.940000e-06	7.201714e-06	1.114337e-08	4.892984e+01	7.288736e+02
1.950000e-06	7.118460e-06	1.110864e-08	4.836420e+01	7.263351e+02
1.960000e-06	7.032577e-06	1.101124e-08	4.778069e+01	7.237269e+02
1.970000e-06	6.944198e-06	1.099305e-08	4.718023e+01	7.208916e+02
1.980000e-06	6.853417e-06	1.090001e-08	4.656344e+01	7.177140e+02
1.990000e-06	6.760169e-06	1.089393e-08	4.592990e+01	7.141731e+02
2.000000e-06	6.664588e-06	1.084271e-08	4.528050e+01	7.103547e+02
2.010000e-06	6.566618e-06	1.079754e-08	4.461488e+01	7.064158e+02
2.020000e-06	6.466263e-06	1.073730e-08	4.393305e+01	7.025164e+02
2.030000e-06	6.363458e-06	1.064988e-08	4.323457e+01	6.987479e+02
2.040000e-06	6.258405e-06	1.060506e-08	4.252081e+01	6.950888e+02
2.050000e-06	6.151211e-06	1.052859e-08	4.179252e+01	6.914103e+02
2.060000e-06	6.041797e-06	1.048351e-08	4.104914e+01	6.875292e+02
2.070000e-06	5.930132e-06	1.040554e-08	4.029047e+01	6.832870e+02
2.080000e-06	5.816144e-06	1.034850e-08	3.951601e+01	6.786193e+02
2.090000e-06	5.699927e-06	1.027430e-08	3.872641e+01	6.735856e+02
2.100000e-06	5.581448e-06	1.019508e-08	3.792144e+01	6.683438e+02
2.110000e-06	5.460898e-06	1.010736e-08	3.710240e+01	6.630797e+02
2.120000e-06	5.338429e-06	1.003015e-08	3.627032e+01	6.579219e+02
2.130000e-06	5.214138e-06	9.955007e-09	3.542587e+01	6.528796e+02
2.140000e-06	5.088024e-06	9.882477e-09	3.456902e+01	6.478328e+02
2.150000e-06	4.960012e-06	9.797723e-09	3.369928e+01	6.425798e+02
2.160000e-06	4.830205e-06	9.700984e-09	3.281735e+01	6.369240e+02
2.170000e-06	4.698685e-06	9.606100e-09	3.192378e+01	6.307608e+02
2.180000e-06	4.565542e-06	9.501262e-09	3.101918e+01	6.241261e+02
2.190000e-06	4.430748e-06	9.409692e-09	3.010336e+01	6.171827e+02
2.200000e-06	4.294252e-06	9.305897e-09	2.917598e+01	6.101483e+02
2.210000e-06	4.156108e-06	9.215335e-09	2.823740e+01	6.031949e+02
2.220000e-06	4.016431e-06	9.108190e-09	2.728841e+01	5.963648e+02
2.230000e-06	3.875329e-06	8.994681e-09	2.632974e+01	5.895411e+02
2.240000e-06	3.732794e-06	8.867748e-09	2.536133e+01	5.824896e+02
2.250000e-06	3.588827e-06	8.744731e-09	2.438319e+01	5.749553e+02
2.260000e-06	3.443517e-06	8.626163e-09	2.339592e+01	5.667735e+02
2.270000e-06	3.296913e-06	8.504129e-09	2.239986e+01	5.579446e+02
2.280000e-06	3.149150e-06	8.377024e-09	2.139594e+01	5.486364e+02
2.290000e-06	3.000378e-06	8.240606e-09	2.038515e+01	5.391103e+02
2.300000e-06	2.850684e-06	8.100713e-09	1.936810e+01	5.295979e+02
2.310000e-06	2.700023e-06	7.951665e-09	1.834448e+01	5.201839e+02
2.320000e-06	2.548325e-06	7.795254e-09	1.731382e+01	5.107477e+02
2.330000e-06	2.395580e-06	7.631600e-09	1.627604e+01	5.009955e+02
2.340000e-06	2.241892e-06	7.471088e-09	1.523185e+01	4.905741e+02
2.350000e-06	2.087455e-06	7.307137e-09	1.418257e+01	4.792200e+02
2.360000e-06	1.932308e-06	7.131163e-09	1.312847e+01	4.668790e+02
2.370000e-06	1.776463e-06	6.938361e-09	1.206963e+01	4.537371e+02
2.380000e-06	1.620013e-06	6.740474e-09	1.100668e+01	4.401416e+02
2.390000e-06	1.463026e-06	6.538240e-09	9.940081e+00	4.264368e+02
2.400000e-06	1.305531e-06	6.326029e-09	8.870032e+00	4.127824e+02
2.410000e-06	1.147515e-06	6.098964e-09	7.796437e+00	3.990351e+02
2.420000e-06	9.890102e-07	5.862432e-09	6.719527e+00	3.847542e+02
2.430000e-06	8.301523e-07	5.618927e-09	5.640216e+00	3.693422e+02
2.440000e-06	6.710630e-07	5.362700e-09	4.559332e+00	3.522723e+02
2.450000e-06	5.118205e-07	5.086474e-09	3.477407e+00	3.333050e+02
2.460000e-06	3.524583e-07	4.792860e-09	2.394670e+00	3.125941e+02
2.470000e-06	1.929553e-07	4.483075e-09	1.310976e+00	2.906101e+02
2.480000e-06	3.337365e-08	4.147077e-09	2.267471e-01	2.678825e+02
2.490000e-06	-1.262123e-07	3.778144e-09	-8.575105e-01	2.446419e+02
2.500000e-06	-2.857196e-07	3.374438e-09	-1.941235e+00	2.204951e+02
2.510000e-06	-4.450578e-07	2.941830e-09	-3.023809e+00	1.942804e+02
2.520000e-06	-6.042782e-07	2.469877e-09	-4.105583e+00	1.641981e+02
2.530000e-06	-7.633077e-07	1.936454e-09	-5.186061e+00	1.282250e+02
2.540000e-06	-9.220808e-07	1.319241e-09	-6.264795e+00	8.471343e+01
2.550000e-06	-1.080561e-06	5.918913e-10	-7.341540e+00	3.300002e+01
2.560000e-06	-1.238618e-06	-2.750755e-10	-8.415414e+00	-2.617634e+01
2.570000e-06	-1.396174e-06	-1.285452e-09	-9.485876e+00	-9.060084e+01
2.580000e-06	-1.553196e-06	-2.373973e-09	-1.055272e+01	-1.569066e+02
2.590000e-06	-1.709615e-06	-3.419854e-09	-1.161546e+01	-2.212244e+02
2.600000e-06	-1.865400e-06	-4.321947e-09	-1.267389e+01	-2.799819e+02
2.610000e-06	-2.020568e-06	-5.050538e-09	-1.372813e+01	-3.306259e+02
2.620000e-06	-2.175042e-06	-5.635438e-09	-1.477766e+01	-3.720662e+02
2.630000e-06	-2.328744e-06	-6.115209e-09	-1.582194e+01	-4.047268e+02
2.640000e-06	-2.481524e-06	-6.517356e-09	-1.685996e+01	-4.302164e+02
2.650000e-06	-2.633299e-06	-6.863079e-09	-1.789115e+01	-4.507409e+02
2.660000e-06	-2.784165e-06	-7.170369e-09	-1.891616e+01	-4.684564e+02
2.670000e-06	-2.934060e-06	-7.448869e-09	-1.993457e+01	-4.849547e+02
2.680000e-06	-3.082789e-06	-7.697284e-09	-2.094507e+01	-5.010191e+02
2.690000e-06	-3.230427e-06	-7.919870e-09	-2.194815e+01	-5.166792e+02
2.700000e-06	-3.377051e-06	-8.123149e-09	-2.294434e+01	-5.314975e+02
2.710000e-06	-3.522461e-06	-8.310785e-09	-2.393228e+01	-5.449482e+02
2.720000e-06	-3.666578e-06	-8.484732e-09	-2.491144e+01	-5.567384e+02
2.730000e-06	-3.809380e-06	-8.646048e-09	-2.588166e+01	-5.669641e+02
2.740000e-06	-3.950704e-06	-8.798604e-09	-2.684185e+01	-5.760684e+02
2.750000e-06	-4.090502e-06	-8.946768e-09	-2.779167e+01	-5.846500e+02
2.760000e-06	-4.228790e-06	-9.090143e-09	-2.873122e+01	-5.932212e+02
2.770000e-06	-4.365487e-06	-9.224035e-09	-2.965996e+01	-6.020218e+02
2.780000e-06	-4.500631e-06	-9.348943e-09	-3.057816e+01	-6.109626e+02
2.790000e-06	-4.634138e-06	-9.468623e-09	-3.148523e+01	-6.197090e+02
2.800000e-06	-4.765931e-06	-9.582243e-09	-3.238066e+01	-6.278593e+02
2.810000e-06	-4.896061e-06	-9.685721e-09	-3.326479e+01	-6.351343e+02
2.820000e-06	-5.024478e-06	-9.779206e-09	-3.413728e+01	-6.414989e+02
2.830000e-06	-5.151132e-06	-9.872049e-09	-3.499779e+01	-6.471706e+02
2.840000e-06	-5.275938e-06	-9.969231e-09	-3.584575e+01	-6.525186e+02
2.850000e-06	-5.398893e-06	-1.006548e-08	-3.668112e+01	-6.579058e+02
2.860000e-06	-5.519921e-06	-1.015434e-08	-3.750341e+01	-6.635424e+02
2.870000e-06	-5.638871e-06	-1.023632e-08	-3.831158e+01	-6.694143e+02
2.880000e-06	-5.755648e-06	-1.031688e-08	-3.910499e+01	-6.753102e+02
2.890000e-06	-5.870139e-06	-1.039728e-08	-3.988286e+01	-6.809316e+02
2.900000e-06	-5.982211e-06	-1.047118e-08	-4.064430e+01	-6.860323e+02
2.910000e-06	-6.091976e-06	-1.053643e-08	-4.139006e+01	-6.905275e+02
2.920000e-06	-6.199655e-06	-1.060196e-08	-4.212166e+01	-6.945264e+02
2.930000e-06	-6.305279e-06	-1.067270e-08	-4.283929e+01	-6.982784e+02
2.940000e-06	-6.408708e-06	-1.074227e-08	-4.354201e+01	-7.020614e+02
