# Temperatura_=_22.65
# Concentracion g/m^3_=_13400.0
# C_Vs_to_Am_M_A/Vsm_=_65563218390.804596
# pendiente_HvsI_1/m_=_3716.3
# ordenada_HvsI_A/m_=_1297.0
# frecuencia_Hz_=_301394.403982127

Tiempo_(s)	Campo_(V.s)	Magnetizacion_(V.s)	Campo_(kA/m)	Magnetizacion_(A/m)
0.000000e+00	-8.402938e-06	-9.633851e-09	-5.692895e+01	-6.309321e+02
1.000000e-08	-8.398898e-06	-9.629434e-09	-5.690157e+01	-6.308491e+02
2.000000e-08	-8.392198e-06	-9.624655e-09	-5.685618e+01	-6.309541e+02
3.000000e-08	-8.382764e-06	-9.625809e-09	-5.679227e+01	-6.311193e+02
4.000000e-08	-8.370360e-06	-9.626119e-09	-5.670824e+01	-6.311641e+02
5.000000e-08	-8.354852e-06	-9.618435e-09	-5.660317e+01	-6.309318e+02
6.000000e-08	-8.336460e-06	-9.601589e-09	-5.647857e+01	-6.303564e+02
7.000000e-08	-8.315642e-06	-9.581043e-09	-5.633753e+01	-6.294910e+02
8.000000e-08	-8.292154e-06	-9.614656e-09	-5.617839e+01	-6.284864e+02
9.000000e-08	-8.265311e-06	-9.643268e-09	-5.599654e+01	-6.275294e+02
1.000000e-07	-8.235097e-06	-9.601951e-09	-5.579184e+01	-6.267662e+02
1.100000e-07	-8.201860e-06	-9.561163e-09	-5.556666e+01	-6.262436e+02
1.200000e-07	-8.165758e-06	-9.538021e-09	-5.532207e+01	-6.258914e+02
1.300000e-07	-8.127044e-06	-9.504757e-09	-5.505979e+01	-6.255527e+02
1.400000e-07	-8.085940e-06	-9.463889e-09	-5.478132e+01	-6.250473e+02
1.500000e-07	-8.042244e-06	-9.526258e-09	-5.448528e+01	-6.242422e+02
1.600000e-07	-7.995646e-06	-9.520562e-09	-5.416959e+01	-6.230998e+02
1.700000e-07	-7.946181e-06	-9.472627e-09	-5.383447e+01	-6.216838e+02
1.800000e-07	-7.893657e-06	-9.520741e-09	-5.347862e+01	-6.201248e+02
1.900000e-07	-7.838085e-06	-9.422478e-09	-5.310213e+01	-6.185606e+02
2.000000e-07	-7.779718e-06	-9.358912e-09	-5.270670e+01	-6.170800e+02
2.100000e-07	-7.718554e-06	-9.338399e-09	-5.229232e+01	-6.156911e+02
2.200000e-07	-7.654700e-06	-9.321279e-09	-5.185972e+01	-6.143292e+02
2.300000e-07	-7.588040e-06	-9.376370e-09	-5.140810e+01	-6.128960e+02
2.400000e-07	-7.518530e-06	-9.345211e-09	-5.093718e+01	-6.113109e+02
2.500000e-07	-7.446254e-06	-9.314431e-09	-5.044752e+01	-6.095503e+02
2.600000e-07	-7.371037e-06	-9.273247e-09	-4.993793e+01	-6.076568e+02
2.700000e-07	-7.292908e-06	-9.238083e-09	-4.940862e+01	-6.057148e+02
2.800000e-07	-7.211934e-06	-9.178666e-09	-4.886003e+01	-6.038054e+02
2.900000e-07	-7.128394e-06	-9.130550e-09	-4.829405e+01	-6.019617e+02
3.000000e-07	-7.042570e-06	-9.157880e-09	-4.771261e+01	-6.001473e+02
3.100000e-07	-6.954378e-06	-9.139609e-09	-4.711511e+01	-5.982681e+02
3.200000e-07	-6.863666e-06	-9.124041e-09	-4.650055e+01	-5.962132e+02
3.300000e-07	-6.770446e-06	-9.061308e-09	-4.586900e+01	-5.939050e+02
3.400000e-07	-6.674880e-06	-8.988180e-09	-4.522155e+01	-5.913370e+02
3.500000e-07	-6.576920e-06	-8.947959e-09	-4.455789e+01	-5.885787e+02
3.600000e-07	-6.476514e-06	-8.911546e-09	-4.387764e+01	-5.857471e+02
3.700000e-07	-6.373756e-06	-8.878925e-09	-4.318147e+01	-5.829530e+02
3.800000e-07	-6.268702e-06	-8.842128e-09	-4.246974e+01	-5.802501e+02
3.900000e-07	-6.161330e-06	-8.828372e-09	-4.174231e+01	-5.776071e+02
4.000000e-07	-6.051771e-06	-8.781786e-09	-4.100005e+01	-5.749173e+02
4.100000e-07	-5.940078e-06	-8.713926e-09	-4.024335e+01	-5.720439e+02
4.200000e-07	-5.826075e-06	-8.637364e-09	-3.947099e+01	-5.688785e+02
4.300000e-07	-5.709692e-06	-8.585111e-09	-3.868251e+01	-5.653893e+02
4.400000e-07	-5.591128e-06	-8.551962e-09	-3.787925e+01	-5.616355e+02
4.500000e-07	-5.470568e-06	-8.511962e-09	-3.706248e+01	-5.577403e+02
4.600000e-07	-5.348049e-06	-8.456271e-09	-3.623242e+01	-5.538349e+02
4.700000e-07	-5.223635e-06	-8.391823e-09	-3.538953e+01	-5.499961e+02
4.800000e-07	-5.097361e-06	-8.332207e-09	-3.453404e+01	-5.462080e+02
4.900000e-07	-4.969231e-06	-8.261085e-09	-3.366597e+01	-5.423638e+02
5.000000e-07	-4.839298e-06	-8.185239e-09	-3.278569e+01	-5.383106e+02
5.100000e-07	-4.707570e-06	-8.109979e-09	-3.189325e+01	-5.339146e+02
5.200000e-07	-4.574093e-06	-8.051757e-09	-3.098896e+01	-5.291215e+02
5.300000e-07	-4.439047e-06	-7.993001e-09	-3.007404e+01	-5.239811e+02
5.400000e-07	-4.302492e-06	-7.915328e-09	-2.914889e+01	-5.186245e+02
5.500000e-07	-4.164321e-06	-7.821348e-09	-2.821280e+01	-5.132035e+02
5.600000e-07	-4.024429e-06	-7.731983e-09	-2.726505e+01	-5.078168e+02
5.700000e-07	-3.882866e-06	-7.651785e-09	-2.630598e+01	-5.024577e+02
5.800000e-07	-3.739789e-06	-7.568416e-09	-2.533664e+01	-4.970076e+02
5.900000e-07	-3.595270e-06	-7.476018e-09	-2.435754e+01	-4.912816e+02
6.000000e-07	-3.449420e-06	-7.377346e-09	-2.336942e+01	-4.851059e+02
6.100000e-07	-3.302394e-06	-7.281510e-09	-2.237334e+01	-4.783951e+02
6.200000e-07	-3.154245e-06	-7.178288e-09	-2.136965e+01	-4.711921e+02
6.300000e-07	-3.005023e-06	-7.062967e-09	-2.035869e+01	-4.636497e+02
6.400000e-07	-2.854841e-06	-6.941192e-09	-1.934122e+01	-4.559604e+02
6.500000e-07	-2.703751e-06	-6.825074e-09	-1.831760e+01	-4.482613e+02
6.600000e-07	-2.551699e-06	-6.708605e-09	-1.728747e+01	-4.405581e+02
6.700000e-07	-2.398698e-06	-6.582503e-09	-1.625090e+01	-4.327030e+02
6.800000e-07	-2.244830e-06	-6.447412e-09	-1.520846e+01	-4.244426e+02
6.900000e-07	-2.090123e-06	-6.307281e-09	-1.416035e+01	-4.155168e+02
7.000000e-07	-1.934585e-06	-6.162535e-09	-1.310659e+01	-4.057684e+02
7.100000e-07	-1.778316e-06	-6.006359e-09	-1.204789e+01	-3.952124e+02
7.200000e-07	-1.621350e-06	-5.842607e-09	-1.098446e+01	-3.840304e+02
7.300000e-07	-1.463728e-06	-5.671623e-09	-9.916590e+00	-3.724848e+02
7.400000e-07	-1.305563e-06	-5.494689e-09	-8.845043e+00	-3.607850e+02
7.500000e-07	-1.146967e-06	-5.309107e-09	-7.770568e+00	-3.489632e+02
7.600000e-07	-9.880547e-07	-5.113732e-09	-6.693958e+00	-3.368176e+02
7.700000e-07	-8.288349e-07	-4.905848e-09	-5.615261e+00	-3.239564e+02
7.800000e-07	-6.692810e-07	-4.685494e-09	-4.534302e+00	-3.099349e+02
7.900000e-07	-5.094610e-07	-4.455117e-09	-3.451540e+00	-2.944303e+02
8.000000e-07	-3.494949e-07	-4.206843e-09	-2.367788e+00	-2.773788e+02
8.100000e-07	-1.894351e-07	-3.938734e-09	-1.283401e+00	-2.590010e+02
8.200000e-07	-2.926946e-08	-3.653696e-09	-1.982973e-01	-2.396834e+02
8.300000e-07	1.309137e-07	-3.353350e-09	8.869255e-01	-2.197420e+02
8.400000e-07	2.910085e-07	-3.027873e-09	1.971549e+00	-1.991481e+02
8.500000e-07	4.509626e-07	-2.668588e-09	3.055220e+00	-1.773283e+02
8.600000e-07	6.107202e-07	-2.275594e-09	4.137560e+00	-1.531410e+02
8.700000e-07	7.702437e-07	-1.843844e-09	5.218313e+00	-1.250754e+02
8.800000e-07	9.294997e-07	-1.352025e-09	6.297254e+00	-9.164678e+01
8.900000e-07	1.088460e-06	-7.760641e-10	7.374192e+00	-5.188063e+01
9.000000e-07	1.247103e-06	-9.749534e-11	8.448979e+00	-5.738519e+00
9.100000e-07	1.405364e-06	6.906953e-10	9.521180e+00	4.566249e+01
9.200000e-07	1.563153e-06	1.558475e-09	1.059018e+01	1.001262e+02
9.300000e-07	1.720367e-06	2.435615e-09	1.165529e+01	1.547503e+02
9.400000e-07	1.876886e-06	3.238323e-09	1.271569e+01	2.065026e+02
9.500000e-07	2.032581e-06	3.916621e-09	1.377050e+01	2.528400e+02
9.600000e-07	2.187459e-06	4.468775e-09	1.481978e+01	2.921957e+02
9.700000e-07	2.341559e-06	4.920412e-09	1.586379e+01	3.242015e+02
9.800000e-07	2.494803e-06	5.298436e-09	1.690201e+01	3.495957e+02
9.900000e-07	2.647111e-06	5.619059e-09	1.793388e+01	3.698676e+02
1.000000e-06	2.798518e-06	5.895211e-09	1.895964e+01	3.867615e+02
1.010000e-06	2.949077e-06	6.139022e-09	1.997966e+01	4.018025e+02
1.020000e-06	3.098598e-06	6.360696e-09	2.099265e+01	4.159780e+02
1.030000e-06	3.246907e-06	6.561994e-09	2.199742e+01	4.296491e+02
1.040000e-06	3.393994e-06	6.743312e-09	2.299392e+01	4.426789e+02
1.050000e-06	3.539913e-06	6.908012e-09	2.398251e+01	4.546970e+02
1.060000e-06	3.684569e-06	7.060782e-09	2.496253e+01	4.653828e+02
1.070000e-06	3.827861e-06	7.203755e-09	2.593332e+01	4.746621e+02
1.080000e-06	3.969770e-06	7.337035e-09	2.689474e+01	4.827559e+02
1.090000e-06	4.110075e-06	7.460985e-09	2.784529e+01	4.900893e+02
1.100000e-06	4.248720e-06	7.579014e-09	2.878459e+01	4.971166e+02
1.110000e-06	4.385822e-06	7.691352e-09	2.971344e+01	5.041482e+02
1.120000e-06	4.521355e-06	7.792735e-09	3.063166e+01	5.112530e+02
1.130000e-06	4.655305e-06	7.886478e-09	3.153916e+01	5.182703e+02
1.140000e-06	4.787519e-06	7.977000e-09	3.243490e+01	5.249176e+02
1.150000e-06	4.917966e-06	8.064613e-09	3.331866e+01	5.309404e+02
1.160000e-06	5.046704e-06	8.145114e-09	3.419084e+01	5.362363e+02
1.170000e-06	5.173683e-06	8.218781e-09	3.505111e+01	5.409041e+02
1.180000e-06	5.298896e-06	8.291600e-09	3.589941e+01	5.452001e+02
1.190000e-06	5.422257e-06	8.364029e-09	3.673517e+01	5.494275e+02
1.200000e-06	5.543719e-06	8.432139e-09	3.755806e+01	5.538100e+02
1.210000e-06	5.663148e-06	8.494335e-09	3.836718e+01	5.584051e+02
1.220000e-06	5.780384e-06	8.555975e-09	3.916144e+01	5.630927e+02
1.230000e-06	5.895369e-06	8.619729e-09	3.994045e+01	5.676397e+02
1.240000e-06	6.008096e-06	8.680138e-09	4.070416e+01	5.718105e+02
1.250000e-06	6.118688e-06	8.733929e-09	4.145341e+01	5.754723e+02
1.260000e-06	6.227157e-06	8.784216e-09	4.218828e+01	5.786518e+02
1.270000e-06	6.333436e-06	8.834961e-09	4.290830e+01	5.815190e+02
1.280000e-06	6.437423e-06	8.883796e-09	4.361281e+01	5.843102e+02
1.290000e-06	6.539071e-06	8.928589e-09	4.430146e+01	5.872234e+02
1.300000e-06	6.638333e-06	8.971385e-09	4.497395e+01	5.903346e+02
1.310000e-06	6.735118e-06	9.014065e-09	4.562966e+01	5.935694e+02
1.320000e-06	6.829523e-06	9.057601e-09	4.626924e+01	5.967408e+02
1.330000e-06	6.921532e-06	9.099334e-09	4.689259e+01	5.996350e+02
1.340000e-06	7.011124e-06	9.136996e-09	4.749956e+01	6.021072e+02
1.350000e-06	7.098313e-06	9.172234e-09	4.809026e+01	6.041444e+02
1.360000e-06	7.183008e-06	9.206431e-09	4.866406e+01	6.058705e+02
1.370000e-06	7.265165e-06	9.236327e-09	4.922066e+01	6.074916e+02
1.380000e-06	7.344742e-06	9.261560e-09	4.975979e+01	6.092070e+02
1.390000e-06	7.421597e-06	9.288369e-09	5.028047e+01	6.111257e+02
1.400000e-06	7.495631e-06	9.319994e-09	5.078205e+01	6.132227e+02
1.410000e-06	7.566964e-06	9.351988e-09	5.126531e+01	6.153550e+02
1.420000e-06	7.635651e-06	9.380019e-09	5.173066e+01	6.173276e+02
1.430000e-06	7.701617e-06	9.404849e-09	5.217758e+01	6.189798e+02
1.440000e-06	7.764862e-06	9.427822e-09	5.260605e+01	6.202557e+02
1.450000e-06	7.825417e-06	9.446880e-09	5.301630e+01	6.212264e+02
1.460000e-06	7.883219e-06	9.460935e-09	5.340791e+01	6.220572e+02
1.470000e-06	7.938155e-06	9.474969e-09	5.378009e+01	6.229345e+02
1.480000e-06	7.989948e-06	9.491656e-09	5.413099e+01	6.239846e+02
1.490000e-06	8.038513e-06	9.508946e-09	5.446001e+01	6.252204e+02
1.500000e-06	8.084187e-06	9.525892e-09	5.476945e+01	6.265387e+02
1.510000e-06	8.127035e-06	9.541538e-09	5.505973e+01	6.277677e+02
1.520000e-06	8.166969e-06	9.556748e-09	5.533028e+01	6.287446e+02
1.530000e-06	8.204084e-06	9.572451e-09	5.558173e+01	6.293875e+02
1.540000e-06	8.238325e-06	9.581668e-09	5.581371e+01	6.297317e+02
1.550000e-06	8.269646e-06	9.584225e-09	5.602591e+01	6.299136e+02
1.560000e-06	8.298141e-06	9.588987e-09	5.621895e+01	6.301113e+02
1.570000e-06	8.323690e-06	9.598731e-09	5.639205e+01	6.304666e+02
1.580000e-06	8.346252e-06	9.609019e-09	5.654490e+01	6.310233e+02
1.590000e-06	8.365957e-06	9.617051e-09	5.667841e+01	6.317088e+02
1.600000e-06	8.382726e-06	9.624477e-09	5.679201e+01	6.323668e+02
1.610000e-06	8.396343e-06	9.630815e-09	5.688427e+01	6.328253e+02
1.620000e-06	8.406645e-06	9.635173e-09	5.695406e+01	6.329727e+02
1.630000e-06	8.413836e-06	9.635388e-09	5.700278e+01	6.328064e+02
1.640000e-06	8.418165e-06	9.632364e-09	5.703210e+01	6.324350e+02
1.650000e-06	8.419552e-06	9.630385e-09	5.704150e+01	6.320314e+02
1.660000e-06	8.418092e-06	9.627077e-09	5.703161e+01	6.317583e+02
1.670000e-06	8.413823e-06	9.624442e-09	5.700269e+01	6.316982e+02
1.680000e-06	8.406665e-06	9.623563e-09	5.695420e+01	6.318170e+02
1.690000e-06	8.396773e-06	9.622036e-09	5.688718e+01	6.319778e+02
1.700000e-06	8.383943e-06	9.622908e-09	5.680026e+01	6.319988e+02
1.710000e-06	8.368263e-06	9.627699e-09	5.669403e+01	6.317305e+02
1.720000e-06	8.350151e-06	9.639150e-09	5.657132e+01	6.311190e+02
1.730000e-06	8.329418e-06	9.614148e-09	5.643085e+01	6.302299e+02
1.740000e-06	8.305483e-06	9.533768e-09	5.626870e+01	6.292212e+02
1.750000e-06	8.277689e-06	9.525299e-09	5.608040e+01	6.282790e+02
1.760000e-06	8.246077e-06	9.542067e-09	5.586623e+01	6.275410e+02
1.770000e-06	8.211626e-06	9.546892e-09	5.563283e+01	6.270416e+02
1.780000e-06	8.174769e-06	9.581217e-09	5.538313e+01	6.266990e+02
1.790000e-06	8.135625e-06	9.604164e-09	5.511793e+01	6.263504e+02
1.800000e-06	8.094505e-06	9.497034e-09	5.483935e+01	6.258174e+02
1.810000e-06	8.050789e-06	9.491345e-09	5.454318e+01	6.249758e+02
1.820000e-06	8.004079e-06	9.512277e-09	5.422672e+01	6.237991e+02
1.830000e-06	7.954577e-06	9.452240e-09	5.389135e+01	6.223605e+02
1.840000e-06	7.901688e-06	9.518086e-09	5.353303e+01	6.207943e+02
1.850000e-06	7.845686e-06	9.448984e-09	5.315362e+01	6.192359e+02
1.860000e-06	7.787073e-06	9.480660e-09	5.275653e+01	6.177658e+02
1.870000e-06	7.725596e-06	9.471506e-09	5.234003e+01	6.163835e+02
1.880000e-06	7.661408e-06	9.344078e-09	5.190516e+01	6.150184e+02
1.890000e-06	7.594350e-06	9.361072e-09	5.145086e+01	6.135717e+02
1.900000e-06	7.524355e-06	9.287169e-09	5.097664e+01	6.119673e+02
1.910000e-06	7.451383e-06	9.316830e-09	5.048227e+01	6.101889e+02
1.920000e-06	7.375482e-06	9.317353e-09	4.996805e+01	6.082855e+02
1.930000e-06	7.296827e-06	9.288513e-09	4.943517e+01	6.063433e+02
1.940000e-06	7.215598e-06	9.279976e-09	4.888485e+01	6.044402e+02
1.950000e-06	7.131970e-06	9.181141e-09	4.831828e+01	6.026022e+02
1.960000e-06	7.045672e-06	9.176949e-09	4.773362e+01	6.007856e+02
1.970000e-06	6.956807e-06	9.094347e-09	4.713157e+01	5.988924e+02
1.980000e-06	6.865537e-06	9.085370e-09	4.651323e+01	5.968127e+02
1.990000e-06	6.771768e-06	9.085696e-09	4.587795e+01	5.944752e+02
2.000000e-06	6.675614e-06	9.066195e-09	4.522652e+01	5.918818e+02
2.010000e-06	6.577151e-06	9.041213e-09	4.455944e+01	5.891094e+02
2.020000e-06	6.476292e-06	8.957999e-09	4.387614e+01	5.862767e+02
2.030000e-06	6.372969e-06	8.908869e-09	4.317614e+01	5.834909e+02
2.040000e-06	6.267438e-06	8.844896e-09	4.246117e+01	5.807971e+02
2.050000e-06	6.159788e-06	8.824489e-09	4.173186e+01	5.781547e+02
2.060000e-06	6.049980e-06	8.780665e-09	4.098792e+01	5.754515e+02
2.070000e-06	5.937859e-06	8.756340e-09	4.022831e+01	5.725506e+02
2.080000e-06	5.823409e-06	8.711017e-09	3.945293e+01	5.693500e+02
2.090000e-06	5.706681e-06	8.658978e-09	3.866211e+01	5.658278e+02
2.100000e-06	5.587677e-06	8.584296e-09	3.785587e+01	5.620518e+02
2.110000e-06	5.466635e-06	8.510310e-09	3.703583e+01	5.581494e+02
2.120000e-06	5.343664e-06	8.456975e-09	3.620272e+01	5.542486e+02
2.130000e-06	5.218823e-06	8.403883e-09	3.535693e+01	5.504174e+02
2.140000e-06	5.092099e-06	8.368197e-09	3.449839e+01	5.466292e+02
2.150000e-06	4.963530e-06	8.301296e-09	3.362735e+01	5.427699e+02
2.160000e-06	4.833179e-06	8.236857e-09	3.274424e+01	5.386849e+02
2.170000e-06	4.701109e-06	8.149951e-09	3.184947e+01	5.342468e+02
2.180000e-06	4.567390e-06	8.073174e-09	3.094355e+01	5.294120e+02
2.190000e-06	4.432021e-06	8.000612e-09	3.002643e+01	5.242408e+02
2.200000e-06	4.294982e-06	7.934566e-09	2.909801e+01	5.188700e+02
2.210000e-06	4.156364e-06	7.867654e-09	2.815889e+01	5.134492e+02
2.220000e-06	4.016193e-06	7.789393e-09	2.720925e+01	5.080675e+02
2.230000e-06	3.874482e-06	7.700682e-09	2.624917e+01	5.027056e+02
2.240000e-06	3.731303e-06	7.598684e-09	2.527915e+01	4.972350e+02
2.250000e-06	3.586703e-06	7.495781e-09	2.429950e+01	4.914677e+02
2.260000e-06	3.440905e-06	7.397855e-09	2.331174e+01	4.852363e+02
2.270000e-06	3.293933e-06	7.306981e-09	2.231602e+01	4.784681e+02
2.280000e-06	3.145792e-06	7.214878e-09	2.131238e+01	4.712195e+02
2.290000e-06	2.996563e-06	7.115154e-09	2.030137e+01	4.636520e+02
2.300000e-06	2.846279e-06	6.999331e-09	1.928322e+01	4.559566e+02
2.310000e-06	2.694940e-06	6.875833e-09	1.825791e+01	4.482592e+02
2.320000e-06	2.542562e-06	6.746001e-09	1.722557e+01	4.405488e+02
2.330000e-06	2.389354e-06	6.614780e-09	1.618760e+01	4.326631e+02
2.340000e-06	2.235358e-06	6.480699e-09	1.514430e+01	4.243426e+02
2.350000e-06	2.080476e-06	6.347477e-09	1.409499e+01	4.153331e+02
2.360000e-06	1.924797e-06	6.212410e-09	1.304028e+01	4.054938e+02
2.370000e-06	1.768488e-06	6.062822e-09	1.198130e+01	3.948593e+02
2.380000e-06	1.611565e-06	5.898306e-09	1.091817e+01	3.836251e+02
2.390000e-06	1.454096e-06	5.724710e-09	9.851336e+00	3.720548e+02
2.400000e-06	1.296133e-06	5.544980e-09	8.781154e+00	3.603440e+02
2.410000e-06	1.137694e-06	5.354786e-09	7.707744e+00	3.485010e+02
2.420000e-06	9.788555e-07	5.153171e-09	6.631634e+00	3.362993e+02
2.430000e-06	8.196215e-07	4.943093e-09	5.552842e+00	3.233341e+02
2.440000e-06	6.599875e-07	4.725822e-09	4.471340e+00	3.091650e+02
2.450000e-06	5.000708e-07	4.497201e-09	3.387922e+00	2.934921e+02
2.460000e-06	3.399721e-07	4.251706e-09	2.303272e+00	2.762831e+02
2.470000e-06	1.797113e-07	3.986495e-09	1.217524e+00	2.577847e+02
2.480000e-06	1.938679e-08	3.701328e-09	1.313433e-01	2.383886e+02
2.490000e-06	-1.409038e-07	3.393061e-09	-9.546070e-01	2.183868e+02
2.500000e-06	-3.010929e-07	3.053851e-09	-2.039870e+00	1.976991e+02
2.510000e-06	-4.611490e-07	2.687141e-09	-3.124232e+00	1.756889e+02
2.520000e-06	-6.209771e-07	2.294880e-09	-4.207049e+00	1.511613e+02
2.530000e-06	-7.804884e-07	1.866805e-09	-5.287720e+00	1.225870e+02
2.540000e-06	-9.396784e-07	1.377125e-09	-6.366214e+00	8.851204e+01
2.550000e-06	-1.098480e-06	8.005158e-10	-7.442074e+00	4.804471e+01
2.560000e-06	-1.256803e-06	1.202097e-10	-8.514698e+00	1.264535e+00
2.570000e-06	-1.414639e-06	-6.705704e-10	-9.584020e+00	-5.058655e+01
2.580000e-06	-1.571996e-06	-1.545649e-09	-1.065010e+01	-1.052142e+02
2.590000e-06	-1.728830e-06	-2.433954e-09	-1.171263e+01	-1.596724e+02
2.600000e-06	-1.885110e-06	-3.244060e-09	-1.277140e+01	-2.109526e+02
2.610000e-06	-2.040639e-06	-3.922848e-09	-1.382509e+01	-2.565969e+02
2.620000e-06	-2.195305e-06	-4.474142e-09	-1.487294e+01	-2.951617e+02
2.630000e-06	-2.349198e-06	-4.928327e-09	-1.591555e+01	-3.264071e+02
2.640000e-06	-2.502340e-06	-5.309862e-09	-1.695307e+01	-3.511729e+02
2.650000e-06	-2.654691e-06	-5.632811e-09	-1.798523e+01	-3.710000e+02
2.660000e-06	-2.805998e-06	-5.911519e-09	-1.901032e+01	-3.876304e+02
2.670000e-06	-2.956111e-06	-6.160418e-09	-2.002732e+01	-4.025430e+02
2.680000e-06	-3.105195e-06	-6.389114e-09	-2.103734e+01	-4.166581e+02
2.690000e-06	-3.253247e-06	-6.597482e-09	-2.204038e+01	-4.302740e+02
2.700000e-06	-3.400146e-06	-6.780525e-09	-2.303560e+01	-4.432148e+02
2.710000e-06	-3.545900e-06	-6.943492e-09	-2.402307e+01	-4.551027e+02
2.720000e-06	-3.690381e-06	-7.095422e-09	-2.500191e+01	-4.656364e+02
2.730000e-06	-3.833365e-06	-7.235352e-09	-2.597061e+01	-4.747736e+02
2.740000e-06	-3.974869e-06	-7.362041e-09	-2.692928e+01	-4.827639e+02
2.750000e-06	-4.114954e-06	-7.482449e-09	-2.787834e+01	-4.900444e+02
2.760000e-06	-4.253528e-06	-7.603147e-09	-2.881717e+01	-4.970615e+02
2.770000e-06	-4.390544e-06	-7.720207e-09	-2.974543e+01	-5.041026e+02
2.780000e-06	-4.525913e-06	-7.827366e-09	-3.066254e+01	-5.112093e+02
2.790000e-06	-4.659579e-06	-7.925030e-09	-3.156812e+01	-5.182016e+02
2.800000e-06	-4.791580e-06	-8.013730e-09	-3.246241e+01	-5.247928e+02
2.810000e-06	-4.921942e-06	-8.093978e-09	-3.334559e+01	-5.307395e+02
2.820000e-06	-5.050610e-06	-8.171031e-09	-3.421730e+01	-5.359603e+02
2.830000e-06	-5.177411e-06	-8.248559e-09	-3.507637e+01	-5.405744e+02
2.840000e-06	-5.302358e-06	-8.326598e-09	-3.592287e+01	-5.448494e+02
2.850000e-06	-5.425535e-06	-8.403952e-09	-3.675738e+01	-5.490855e+02
2.860000e-06	-5.546784e-06	-8.478442e-09	-3.757883e+01	-5.534917e+02
2.870000e-06	-5.665882e-06	-8.548020e-09	-3.838570e+01	-5.581057e+02
2.880000e-06	-5.782818e-06	-8.610821e-09	-3.917793e+01	-5.627907e+02
2.890000e-06	-5.897455e-06	-8.670140e-09	-3.995458e+01	-5.673080e+02
2.900000e-06	-6.009668e-06	-8.728349e-09	-4.071481e+01	-5.714284e+02
2.910000e-06	-6.119650e-06	-8.785638e-09	-4.145993e+01	-5.750347e+02
2.920000e-06	-6.227488e-06	-8.841670e-09	-4.219052e+01	-5.781710e+02
2.930000e-06	-6.333214e-06	-8.892769e-09	-4.290680e+01	-5.810190e+02
2.940000e-06	-6.436710e-06	-8.939403e-09	-4.360798e+01	-5.838157e+02
