# Temperatura_=_22.92
# Concentracion g/m^3_=_13400.0
# C_Vs_to_Am_M_A/Vsm_=_65563218390.804596
# pendiente_HvsI_1/m_=_3716.3
# ordenada_HvsI_A/m_=_1297.0
# frecuencia_Hz_=_301394.47652591445

Tiempo_(s)	Campo_(V.s)	Magnetizacion_(V.s)	Campo_(kA/m)	Magnetizacion_(A/m)
0.000000e+00	-8.412289e-06	-9.625230e-09	-5.692980e+01	-6.307709e+02
1.000000e-08	-8.408449e-06	-9.621992e-09	-5.690382e+01	-6.307442e+02
2.000000e-08	-8.401877e-06	-9.619873e-09	-5.685934e+01	-6.308950e+02
3.000000e-08	-8.392564e-06	-9.620991e-09	-5.679632e+01	-6.310942e+02
4.000000e-08	-8.380274e-06	-9.620915e-09	-5.671314e+01	-6.311633e+02
5.000000e-08	-8.364941e-06	-9.616296e-09	-5.660937e+01	-6.309511e+02
6.000000e-08	-8.346767e-06	-9.605062e-09	-5.648639e+01	-6.303988e+02
7.000000e-08	-8.326067e-06	-9.586559e-09	-5.634630e+01	-6.295660e+02
8.000000e-08	-8.302651e-06	-9.605211e-09	-5.618783e+01	-6.286078e+02
9.000000e-08	-8.275886e-06	-9.639311e-09	-5.600670e+01	-6.277109e+02
1.000000e-07	-8.245739e-06	-9.610862e-09	-5.580268e+01	-6.270173e+02
1.100000e-07	-8.212554e-06	-9.565820e-09	-5.557810e+01	-6.265667e+02
1.200000e-07	-8.176517e-06	-9.540470e-09	-5.533422e+01	-6.262818e+02
1.300000e-07	-8.137929e-06	-9.518428e-09	-5.507308e+01	-6.260009e+02
1.400000e-07	-8.096985e-06	-9.484209e-09	-5.479600e+01	-6.255435e+02
1.500000e-07	-8.053408e-06	-9.522507e-09	-5.450109e+01	-6.247807e+02
1.600000e-07	-8.006901e-06	-9.540179e-09	-5.418636e+01	-6.236808e+02
1.700000e-07	-7.957504e-06	-9.477835e-09	-5.385206e+01	-6.223133e+02
1.800000e-07	-7.905055e-06	-9.520649e-09	-5.349712e+01	-6.208110e+02
1.900000e-07	-7.849536e-06	-9.454073e-09	-5.312140e+01	-6.193089e+02
2.000000e-07	-7.791238e-06	-9.369758e-09	-5.272687e+01	-6.178881e+02
2.100000e-07	-7.730202e-06	-9.364539e-09	-5.231381e+01	-6.165476e+02
2.200000e-07	-7.666402e-06	-9.343979e-09	-5.188205e+01	-6.152148e+02
2.300000e-07	-7.599792e-06	-9.386206e-09	-5.143127e+01	-6.137885e+02
2.400000e-07	-7.530352e-06	-9.359948e-09	-5.096133e+01	-6.121915e+02
2.500000e-07	-7.458116e-06	-9.322200e-09	-5.047247e+01	-6.104084e+02
2.600000e-07	-7.382977e-06	-9.285391e-09	-4.996398e+01	-6.084917e+02
2.700000e-07	-7.304925e-06	-9.249304e-09	-4.943577e+01	-6.065328e+02
2.800000e-07	-7.224000e-06	-9.202095e-09	-4.888811e+01	-6.046139e+02
2.900000e-07	-7.140445e-06	-9.147566e-09	-4.832265e+01	-6.027624e+02
3.000000e-07	-7.054580e-06	-9.168059e-09	-4.774157e+01	-6.009317e+02
3.100000e-07	-6.966378e-06	-9.156645e-09	-4.714466e+01	-5.990174e+02
3.200000e-07	-6.875728e-06	-9.125304e-09	-4.653119e+01	-5.969029e+02
3.300000e-07	-6.782610e-06	-9.069370e-09	-4.590102e+01	-5.945134e+02
3.400000e-07	-6.687019e-06	-8.996762e-09	-4.525411e+01	-5.918540e+02
3.500000e-07	-6.588992e-06	-8.958253e-09	-4.459072e+01	-5.890113e+02
3.600000e-07	-6.488542e-06	-8.923651e-09	-4.391093e+01	-5.861183e+02
3.700000e-07	-6.385689e-06	-8.890461e-09	-4.321487e+01	-5.832957e+02
3.800000e-07	-6.280544e-06	-8.852635e-09	-4.250331e+01	-5.805957e+02
3.900000e-07	-6.173153e-06	-8.831832e-09	-4.177655e+01	-5.779749e+02
4.000000e-07	-6.063571e-06	-8.787091e-09	-4.103496e+01	-5.753077e+02
4.100000e-07	-5.951802e-06	-8.715134e-09	-4.027856e+01	-5.724381e+02
4.200000e-07	-5.837751e-06	-8.644320e-09	-3.950673e+01	-5.692462e+02
4.300000e-07	-5.721379e-06	-8.591707e-09	-3.871919e+01	-5.657009e+02
4.400000e-07	-5.602770e-06	-8.559182e-09	-3.791651e+01	-5.618739e+02
4.500000e-07	-5.482144e-06	-8.522264e-09	-3.710018e+01	-5.579091e+02
4.600000e-07	-5.359620e-06	-8.466693e-09	-3.627100e+01	-5.539577e+02
4.700000e-07	-5.235180e-06	-8.398819e-09	-3.542885e+01	-5.501087e+02
4.800000e-07	-5.108858e-06	-8.334698e-09	-3.457397e+01	-5.463451e+02
4.900000e-07	-4.980688e-06	-8.263062e-09	-3.370659e+01	-5.425460e+02
5.000000e-07	-4.850728e-06	-8.184791e-09	-3.282709e+01	-5.385359e+02
5.100000e-07	-4.719005e-06	-8.111223e-09	-3.193566e+01	-5.341590e+02
5.200000e-07	-4.585547e-06	-8.053219e-09	-3.103249e+01	-5.293481e+02
5.300000e-07	-4.450387e-06	-7.996615e-09	-3.011780e+01	-5.241540e+02
5.400000e-07	-4.313630e-06	-7.920818e-09	-2.919230e+01	-5.187242e+02
5.500000e-07	-4.175341e-06	-7.826671e-09	-2.825644e+01	-5.132362e+02
5.600000e-07	-4.035370e-06	-7.734374e-09	-2.730919e+01	-5.078150e+02
5.700000e-07	-3.893762e-06	-7.650439e-09	-2.635087e+01	-5.024715e+02
5.800000e-07	-3.750700e-06	-7.565428e-09	-2.538270e+01	-4.970903e+02
5.900000e-07	-3.606243e-06	-7.472922e-09	-2.440509e+01	-4.914740e+02
6.000000e-07	-3.460386e-06	-7.376975e-09	-2.341802e+01	-4.854256e+02
6.100000e-07	-3.313265e-06	-7.282956e-09	-2.242238e+01	-4.788343e+02
6.200000e-07	-3.164979e-06	-7.183245e-09	-2.141886e+01	-4.717231e+02
6.300000e-07	-3.015590e-06	-7.073128e-09	-2.040788e+01	-4.642381e+02
6.400000e-07	-2.865221e-06	-6.955022e-09	-1.939026e+01	-4.565775e+02
6.500000e-07	-2.713888e-06	-6.839149e-09	-1.836612e+01	-4.488937e+02
6.600000e-07	-2.561622e-06	-6.721280e-09	-1.733566e+01	-4.412099e+02
6.700000e-07	-2.408441e-06	-6.593446e-09	-1.629902e+01	-4.333908e+02
6.800000e-07	-2.254407e-06	-6.454959e-09	-1.525660e+01	-4.251855e+02
6.900000e-07	-2.099609e-06	-6.312240e-09	-1.420901e+01	-4.163266e+02
7.000000e-07	-1.944066e-06	-6.169257e-09	-1.315638e+01	-4.066434e+02
7.100000e-07	-1.787780e-06	-6.019899e-09	-1.209872e+01	-3.961381e+02
7.200000e-07	-1.630745e-06	-5.861712e-09	-1.103599e+01	-3.849854e+02
7.300000e-07	-1.473049e-06	-5.693069e-09	-9.968799e+00	-3.734502e+02
7.400000e-07	-1.314771e-06	-5.517944e-09	-8.897654e+00	-3.617525e+02
7.500000e-07	-1.156008e-06	-5.332954e-09	-7.823231e+00	-3.499385e+02
7.600000e-07	-9.968708e-07	-5.133234e-09	-6.746280e+00	-3.378178e+02
7.700000e-07	-8.374132e-07	-4.918780e-09	-5.667157e+00	-3.250025e+02
7.800000e-07	-6.776593e-07	-4.696185e-09	-4.586030e+00	-3.110422e+02
7.900000e-07	-5.176606e-07	-4.469698e-09	-3.503245e+00	-2.956019e+02
8.000000e-07	-3.575310e-07	-4.229979e-09	-2.419575e+00	-2.786033e+02
8.100000e-07	-1.972863e-07	-3.968932e-09	-1.335127e+00	-2.602571e+02
8.200000e-07	-3.695213e-08	-3.684798e-09	-2.500720e-01	-2.409484e+02
8.300000e-07	1.233783e-07	-3.380095e-09	8.349570e-01	-2.210004e+02
8.400000e-07	2.836395e-07	-3.051159e-09	1.919518e+00	-2.003973e+02
8.500000e-07	4.437686e-07	-2.691060e-09	3.003185e+00	-1.785782e+02
8.600000e-07	6.037343e-07	-2.296288e-09	4.085746e+00	-1.544078e+02
8.700000e-07	7.634998e-07	-1.861867e-09	5.166952e+00	-1.263718e+02
8.800000e-07	9.230403e-07	-1.372444e-09	6.246635e+00	-9.297263e+01
8.900000e-07	1.082324e-06	-8.032031e-10	7.324583e+00	-5.321866e+01
9.000000e-07	1.241246e-06	-1.285973e-10	8.400079e+00	-7.055752e+00
9.100000e-07	1.399697e-06	6.610483e-10	9.472389e+00	4.440676e+01
9.200000e-07	1.557661e-06	1.533013e-09	1.054140e+01	9.896938e+01
9.300000e-07	1.714998e-06	2.411578e-09	1.160617e+01	1.537166e+02
9.400000e-07	1.871590e-06	3.215667e-09	1.266590e+01	2.055977e+02
9.500000e-07	2.027469e-06	3.898084e-09	1.372081e+01	2.520528e+02
9.600000e-07	2.182616e-06	4.454567e-09	1.477076e+01	2.915051e+02
9.700000e-07	2.336924e-06	4.908553e-09	1.581503e+01	3.235866e+02
9.800000e-07	2.490331e-06	5.285932e-09	1.685320e+01	3.490444e+02
9.900000e-07	2.642904e-06	5.606091e-09	1.788574e+01	3.693801e+02
1.000000e-06	2.794604e-06	5.883139e-09	1.891236e+01	3.863478e+02
1.010000e-06	2.945385e-06	6.128747e-09	1.993277e+01	4.014751e+02
1.020000e-06	3.095044e-06	6.351529e-09	2.094558e+01	4.157431e+02
1.030000e-06	3.243505e-06	6.552266e-09	2.195028e+01	4.294996e+02
1.040000e-06	3.390866e-06	6.733895e-09	2.294754e+01	4.425936e+02
1.050000e-06	3.537004e-06	6.901739e-09	2.393652e+01	4.546454e+02
1.060000e-06	3.681866e-06	7.058438e-09	2.491687e+01	4.653341e+02
1.070000e-06	3.825385e-06	7.201547e-09	2.588813e+01	4.745948e+02
1.080000e-06	3.967464e-06	7.332020e-09	2.684964e+01	4.826645e+02
1.090000e-06	4.108038e-06	7.454128e-09	2.780097e+01	4.899847e+02
1.100000e-06	4.247008e-06	7.570948e-09	2.874145e+01	4.970205e+02
1.110000e-06	4.384362e-06	7.681509e-09	2.967098e+01	5.040835e+02
1.120000e-06	4.520141e-06	7.784096e-09	3.058986e+01	5.112343e+02
1.130000e-06	4.654325e-06	7.883500e-09	3.149794e+01	5.182976e+02
1.140000e-06	4.786785e-06	7.980044e-09	3.239436e+01	5.249764e+02
1.150000e-06	4.917461e-06	8.069358e-09	3.327870e+01	5.310075e+02
1.160000e-06	5.046429e-06	8.147176e-09	3.415149e+01	5.362890e+02
1.170000e-06	5.173692e-06	8.217496e-09	3.501274e+01	5.409294e+02
1.180000e-06	5.299133e-06	8.288581e-09	3.586165e+01	5.451993e+02
1.190000e-06	5.422660e-06	8.360246e-09	3.669762e+01	5.494153e+02
1.200000e-06	5.544306e-06	8.428940e-09	3.752085e+01	5.538077e+02
1.210000e-06	5.663936e-06	8.493809e-09	3.833044e+01	5.584314e+02
1.220000e-06	5.781336e-06	8.557713e-09	3.912494e+01	5.631548e+02
1.230000e-06	5.896498e-06	8.620662e-09	3.990430e+01	5.677293e+02
1.240000e-06	6.009426e-06	8.677705e-09	4.066853e+01	5.719056e+02
1.250000e-06	6.120180e-06	8.729361e-09	4.141805e+01	5.755445e+02
1.260000e-06	6.228812e-06	8.779329e-09	4.215322e+01	5.786762e+02
1.270000e-06	6.335273e-06	8.829888e-09	4.287369e+01	5.814827e+02
1.280000e-06	6.439497e-06	8.879450e-09	4.357901e+01	5.842164e+02
1.290000e-06	6.541393e-06	8.926066e-09	4.426860e+01	5.870902e+02
1.300000e-06	6.640863e-06	8.970638e-09	4.494176e+01	5.901875e+02
1.310000e-06	6.737860e-06	9.012502e-09	4.559817e+01	5.934319e+02
1.320000e-06	6.832468e-06	9.053109e-09	4.623843e+01	5.966258e+02
1.330000e-06	6.924711e-06	9.092322e-09	4.686268e+01	5.995402e+02
1.340000e-06	7.014502e-06	9.129250e-09	4.747034e+01	6.020154e+02
1.350000e-06	7.101828e-06	9.166836e-09	4.806132e+01	6.040293e+02
1.360000e-06	7.186722e-06	9.203672e-09	4.863583e+01	6.057046e+02
1.370000e-06	7.269150e-06	9.235379e-09	4.919366e+01	6.072538e+02
1.380000e-06	7.349007e-06	9.260436e-09	4.973408e+01	6.088875e+02
1.390000e-06	7.426164e-06	9.283749e-09	5.025624e+01	6.107266e+02
1.400000e-06	7.500486e-06	9.310927e-09	5.075921e+01	6.127548e+02
1.410000e-06	7.572020e-06	9.339204e-09	5.124332e+01	6.148327e+02
1.420000e-06	7.640894e-06	9.364818e-09	5.170942e+01	6.167640e+02
1.430000e-06	7.707010e-06	9.389252e-09	5.215686e+01	6.183839e+02
1.440000e-06	7.770401e-06	9.415522e-09	5.258585e+01	6.196322e+02
1.450000e-06	7.831183e-06	9.439283e-09	5.299719e+01	6.205776e+02
1.460000e-06	7.889178e-06	9.455118e-09	5.338967e+01	6.213866e+02
1.470000e-06	7.944276e-06	9.467389e-09	5.376254e+01	6.222485e+02
1.480000e-06	7.996289e-06	9.481601e-09	5.411454e+01	6.232937e+02
1.490000e-06	8.045071e-06	9.498935e-09	5.444467e+01	6.245375e+02
1.500000e-06	8.090966e-06	9.516632e-09	5.475526e+01	6.258764e+02
1.510000e-06	8.134039e-06	9.531933e-09	5.504676e+01	6.271353e+02
1.520000e-06	8.174150e-06	9.547039e-09	5.531821e+01	6.281460e+02
1.530000e-06	8.211437e-06	9.563952e-09	5.557054e+01	6.288207e+02
1.540000e-06	8.245897e-06	9.576587e-09	5.580375e+01	6.291904e+02
1.550000e-06	8.277436e-06	9.581815e-09	5.601719e+01	6.293896e+02
1.560000e-06	8.306126e-06	9.584810e-09	5.621135e+01	6.295972e+02
1.570000e-06	8.331820e-06	9.589853e-09	5.638523e+01	6.299580e+02
1.580000e-06	8.354479e-06	9.598463e-09	5.653857e+01	6.305203e+02
1.590000e-06	8.374343e-06	9.609460e-09	5.667301e+01	6.312162e+02
1.600000e-06	8.391270e-06	9.619861e-09	5.678756e+01	6.318931e+02
1.610000e-06	8.405009e-06	9.627344e-09	5.688054e+01	6.323816e+02
1.620000e-06	8.415463e-06	9.631139e-09	5.695128e+01	6.325708e+02
1.630000e-06	8.422824e-06	9.632262e-09	5.700110e+01	6.324572e+02
1.640000e-06	8.427296e-06	9.630937e-09	5.703136e+01	6.321465e+02
1.650000e-06	8.428794e-06	9.629036e-09	5.704150e+01	6.318072e+02
1.660000e-06	8.427491e-06	9.626105e-09	5.703268e+01	6.315966e+02
1.670000e-06	8.423443e-06	9.623008e-09	5.700528e+01	6.315918e+02
1.680000e-06	8.416458e-06	9.625238e-09	5.695801e+01	6.317552e+02
1.690000e-06	8.406610e-06	9.626123e-09	5.689137e+01	6.319489e+02
1.700000e-06	8.393826e-06	9.625769e-09	5.680485e+01	6.319936e+02
1.710000e-06	8.378274e-06	9.625135e-09	5.669961e+01	6.317455e+02
1.720000e-06	8.360261e-06	9.628313e-09	5.657770e+01	6.311579e+02
1.730000e-06	8.339617e-06	9.615345e-09	5.643800e+01	6.303028e+02
1.740000e-06	8.315856e-06	9.542289e-09	5.627720e+01	6.293421e+02
1.750000e-06	8.288279e-06	9.522934e-09	5.609057e+01	6.284614e+02
1.760000e-06	8.256807e-06	9.545730e-09	5.587759e+01	6.277937e+02
1.770000e-06	8.222372e-06	9.556619e-09	5.564455e+01	6.273662e+02
1.780000e-06	8.185516e-06	9.577830e-09	5.539512e+01	6.270901e+02
1.790000e-06	8.146383e-06	9.611391e-09	5.513029e+01	6.267983e+02
1.800000e-06	8.105293e-06	9.526543e-09	5.485222e+01	6.263126e+02
1.810000e-06	8.061669e-06	9.494778e-09	5.455700e+01	6.255129e+02
1.820000e-06	8.015051e-06	9.543668e-09	5.424151e+01	6.243792e+02
1.830000e-06	7.965610e-06	9.478169e-09	5.390692e+01	6.229901e+02
1.840000e-06	7.912833e-06	9.533482e-09	5.354976e+01	6.214816e+02
1.850000e-06	7.856918e-06	9.495238e-09	5.317136e+01	6.199854e+02
1.860000e-06	7.798286e-06	9.485131e-09	5.277456e+01	6.185744e+02
1.870000e-06	7.736810e-06	9.497810e-09	5.235853e+01	6.172388e+02
1.880000e-06	7.672670e-06	9.371283e-09	5.192446e+01	6.159006e+02
1.890000e-06	7.605640e-06	9.383078e-09	5.147084e+01	6.144586e+02
1.900000e-06	7.535700e-06	9.321514e-09	5.099752e+01	6.128408e+02
1.910000e-06	7.462816e-06	9.329676e-09	5.050429e+01	6.110395e+02
1.920000e-06	7.387000e-06	9.349551e-09	4.999121e+01	6.091133e+02
1.930000e-06	7.308460e-06	9.297993e-09	4.945969e+01	6.071551e+02
1.940000e-06	7.227293e-06	9.304507e-09	4.891039e+01	6.052431e+02
1.950000e-06	7.143663e-06	9.207961e-09	4.834443e+01	6.033971e+02
1.960000e-06	7.057331e-06	9.189496e-09	4.776018e+01	6.015629e+02
1.970000e-06	6.968481e-06	9.129669e-09	4.715889e+01	5.996321e+02
1.980000e-06	6.877281e-06	9.098245e-09	4.654170e+01	5.974901e+02
1.990000e-06	6.783538e-06	9.108971e-09	4.590730e+01	5.950697e+02
2.000000e-06	6.687353e-06	9.074124e-09	4.525637e+01	5.923850e+02
2.010000e-06	6.588837e-06	9.054508e-09	4.458967e+01	5.895300e+02
2.020000e-06	6.487986e-06	8.972415e-09	4.390716e+01	5.866392e+02
2.030000e-06	6.384707e-06	8.918351e-09	4.320823e+01	5.838285e+02
2.040000e-06	6.279192e-06	8.859708e-09	4.249416e+01	5.811406e+02
2.050000e-06	6.171495e-06	8.832956e-09	4.176533e+01	5.785215e+02
2.060000e-06	6.061560e-06	8.800613e-09	4.102135e+01	5.758397e+02
2.070000e-06	5.949353e-06	8.767172e-09	4.026199e+01	5.729398e+02
2.080000e-06	5.834843e-06	8.726309e-09	3.948704e+01	5.697094e+02
2.090000e-06	5.718074e-06	8.666456e-09	3.869682e+01	5.661285e+02
2.100000e-06	5.599046e-06	8.592068e-09	3.789130e+01	5.622789e+02
2.110000e-06	5.477995e-06	8.514728e-09	3.707210e+01	5.583086e+02
2.120000e-06	5.355003e-06	8.462104e-09	3.623975e+01	5.543652e+02
2.130000e-06	5.230164e-06	8.409233e-09	3.539491e+01	5.505279e+02
2.140000e-06	5.103447e-06	8.374186e-09	3.453735e+01	5.467675e+02
2.150000e-06	4.974819e-06	8.309918e-09	3.366687e+01	5.429542e+02
2.160000e-06	4.844419e-06	8.243259e-09	3.278439e+01	5.389109e+02
2.170000e-06	4.712338e-06	8.159585e-09	3.189054e+01	5.344884e+02
2.180000e-06	4.578610e-06	8.078666e-09	3.098555e+01	5.296316e+02
2.190000e-06	4.443176e-06	8.005693e-09	3.006900e+01	5.244037e+02
2.200000e-06	4.306020e-06	7.936630e-09	2.914080e+01	5.189592e+02
2.210000e-06	4.167225e-06	7.871876e-09	2.820152e+01	5.134737e+02
2.220000e-06	4.026947e-06	7.790841e-09	2.725219e+01	5.080624e+02
2.230000e-06	3.885180e-06	7.699743e-09	2.629279e+01	5.027221e+02
2.240000e-06	3.741967e-06	7.599765e-09	2.532360e+01	4.973256e+02
2.250000e-06	3.597372e-06	7.504764e-09	2.434506e+01	4.916712e+02
2.260000e-06	3.451444e-06	7.411372e-09	2.335750e+01	4.855676e+02
2.270000e-06	3.304284e-06	7.319293e-09	2.236160e+01	4.789166e+02
2.280000e-06	3.156025e-06	7.224364e-09	2.135826e+01	4.717565e+02
2.290000e-06	3.006669e-06	7.124680e-09	2.034750e+01	4.642428e+02
2.300000e-06	2.856236e-06	7.010130e-09	1.932945e+01	4.565738e+02
2.310000e-06	2.704785e-06	6.885984e-09	1.830451e+01	4.488915e+02
2.320000e-06	2.552332e-06	6.756228e-09	1.727280e+01	4.412020e+02
2.330000e-06	2.398923e-06	6.627413e-09	1.623461e+01	4.333545e+02
2.340000e-06	2.244625e-06	6.500138e-09	1.519040e+01	4.250909e+02
2.350000e-06	2.089507e-06	6.368286e-09	1.414065e+01	4.161489e+02
2.360000e-06	1.933642e-06	6.229085e-09	1.308584e+01	4.063739e+02
2.370000e-06	1.777166e-06	6.076660e-09	1.202689e+01	3.957880e+02
2.380000e-06	1.620134e-06	5.913137e-09	1.096419e+01	3.845809e+02
2.390000e-06	1.462550e-06	5.739589e-09	9.897741e+00	3.730196e+02
2.400000e-06	1.304438e-06	5.557267e-09	8.827726e+00	3.613110e+02
2.410000e-06	1.145822e-06	5.366515e-09	7.754300e+00	3.494771e+02
2.420000e-06	9.867444e-07	5.169506e-09	6.677750e+00	3.373027e+02
2.430000e-06	8.273313e-07	4.963590e-09	5.598929e+00	3.243855e+02
2.440000e-06	6.676322e-07	4.746659e-09	4.518172e+00	3.102787e+02
2.450000e-06	5.076346e-07	4.515618e-09	3.435396e+00	2.946696e+02
2.460000e-06	3.474322e-07	4.268853e-09	2.351232e+00	2.775117e+02
2.470000e-06	1.870726e-07	4.004121e-09	1.266005e+00	2.590425e+02
2.480000e-06	2.663293e-08	3.717636e-09	1.802372e-01	2.396532e+02
2.490000e-06	-1.337516e-07	3.407928e-09	-9.051583e-01	2.196439e+02
2.500000e-06	-2.939932e-07	3.070718e-09	-1.989587e+00	1.989476e+02
2.510000e-06	-4.540714e-07	2.707739e-09	-3.072908e+00	1.769398e+02
2.520000e-06	-6.139620e-07	2.316945e-09	-4.154961e+00	1.524309e+02
2.530000e-06	-7.735797e-07	1.886487e-09	-5.235167e+00	1.238868e+02
2.540000e-06	-9.329072e-07	1.397211e-09	-6.313409e+00	8.984055e+01
2.550000e-06	-1.091898e-06	8.246942e-10	-7.389376e+00	4.938259e+01
2.560000e-06	-1.250493e-06	1.453852e-10	-8.462655e+00	2.577532e+00
2.570000e-06	-1.408671e-06	-6.514147e-10	-9.533119e+00	-4.933935e+01
2.580000e-06	-1.566315e-06	-1.534237e-09	-1.059997e+01	-1.040692e+02
2.590000e-06	-1.723344e-06	-2.424527e-09	-1.166266e+01	-1.586519e+02
2.600000e-06	-1.879759e-06	-3.233972e-09	-1.272118e+01	-2.100604e+02
2.610000e-06	-2.035480e-06	-3.912970e-09	-1.377503e+01	-2.558203e+02
2.620000e-06	-2.190479e-06	-4.464084e-09	-1.482397e+01	-2.944792e+02
2.630000e-06	-2.344731e-06	-4.914246e-09	-1.586787e+01	-3.257985e+02
2.640000e-06	-2.498125e-06	-5.291529e-09	-1.690595e+01	-3.506272e+02
2.650000e-06	-2.650538e-06	-5.617481e-09	-1.793740e+01	-3.705187e+02
2.660000e-06	-2.801922e-06	-5.905446e-09	-1.896189e+01	-3.872242e+02
2.670000e-06	-2.952283e-06	-6.161548e-09	-1.997945e+01	-4.022241e+02
2.680000e-06	-3.101567e-06	-6.391739e-09	-2.098972e+01	-4.164315e+02
2.690000e-06	-3.249751e-06	-6.598493e-09	-2.199255e+01	-4.301312e+02
2.700000e-06	-3.396860e-06	-6.780752e-09	-2.298811e+01	-4.431332e+02
2.710000e-06	-3.542814e-06	-6.942325e-09	-2.397584e+01	-4.550512e+02
2.720000e-06	-3.687424e-06	-7.091504e-09	-2.495448e+01	-4.655848e+02
2.730000e-06	-3.830613e-06	-7.231111e-09	-2.592351e+01	-4.747019e+02
2.740000e-06	-3.972365e-06	-7.361824e-09	-2.688281e+01	-4.826684e+02
2.750000e-06	-4.112620e-06	-7.486741e-09	-2.783198e+01	-4.899376e+02
2.760000e-06	-4.251399e-06	-7.606563e-09	-2.877116e+01	-4.969657e+02
2.770000e-06	-4.388626e-06	-7.720802e-09	-2.969983e+01	-5.040403e+02
2.780000e-06	-4.524138e-06	-7.828091e-09	-3.061691e+01	-5.111937e+02
2.790000e-06	-4.657946e-06	-7.926977e-09	-3.152245e+01	-5.182310e+02
2.800000e-06	-4.790132e-06	-8.016442e-09	-3.241701e+01	-5.248513e+02
2.810000e-06	-4.920690e-06	-8.096750e-09	-3.330056e+01	-5.308036e+02
2.820000e-06	-5.049569e-06	-8.172350e-09	-3.417274e+01	-5.360080e+02
2.830000e-06	-5.176675e-06	-8.248055e-09	-3.503292e+01	-5.405941e+02
2.840000e-06	-5.301910e-06	-8.325282e-09	-3.588045e+01	-5.448438e+02
2.850000e-06	-5.425298e-06	-8.403282e-09	-3.671547e+01	-5.490705e+02
2.860000e-06	-5.546766e-06	-8.478832e-09	-3.753750e+01	-5.534889e+02
2.870000e-06	-5.666160e-06	-8.550572e-09	-3.834549e+01	-5.581328e+02
2.880000e-06	-5.783401e-06	-8.617324e-09	-3.913891e+01	-5.628534e+02
2.890000e-06	-5.898320e-06	-8.678618e-09	-3.991662e+01	-5.673964e+02
2.900000e-06	-6.010806e-06	-8.734764e-09	-4.067787e+01	-5.715193e+02
2.910000e-06	-6.120957e-06	-8.786370e-09	-4.142331e+01	-5.750996e+02
2.920000e-06	-6.228917e-06	-8.838230e-09	-4.215392e+01	-5.781859e+02
2.930000e-06	-6.334759e-06	-8.890985e-09	-4.287021e+01	-5.809726e+02
2.940000e-06	-6.438419e-06	-8.942497e-09	-4.357172e+01	-5.837132e+02
