# Temperatura_=_21.72
# Concentracion g/m^3_=_13400.0
# C_Vs_to_Am_M_A/Vsm_=_65563218390.804596
# pendiente_HvsI_1/m_=_3716.3
# ordenada_HvsI_A/m_=_1297.0
# frecuencia_Hz_=_301396.7499026023

Tiempo_(s)	Campo_(V.s)	Magnetizacion_(V.s)	Campo_(kA/m)	Magnetizacion_(A/m)
0.000000e+00	-8.383104e-06	-9.574147e-09	-5.692637e+01	-6.266972e+02
1.000000e-08	-8.379043e-06	-9.569653e-09	-5.689880e+01	-6.267035e+02
2.000000e-08	-8.372266e-06	-9.569382e-09	-5.685278e+01	-6.268746e+02
3.000000e-08	-8.362756e-06	-9.571095e-09	-5.678820e+01	-6.270859e+02
4.000000e-08	-8.350332e-06	-9.571729e-09	-5.670383e+01	-6.271668e+02
5.000000e-08	-8.334858e-06	-9.568158e-09	-5.659875e+01	-6.269743e+02
6.000000e-08	-8.316483e-06	-9.559216e-09	-5.647398e+01	-6.264552e+02
7.000000e-08	-8.295565e-06	-9.555201e-09	-5.633193e+01	-6.256700e+02
8.000000e-08	-8.271939e-06	-9.563352e-09	-5.617150e+01	-6.247693e+02
9.000000e-08	-8.245027e-06	-9.561675e-09	-5.598875e+01	-6.239315e+02
1.000000e-07	-8.214735e-06	-9.559990e-09	-5.578305e+01	-6.232886e+02
1.100000e-07	-8.181378e-06	-9.536748e-09	-5.555653e+01	-6.228721e+02
1.200000e-07	-8.145143e-06	-9.489255e-09	-5.531048e+01	-6.225997e+02
1.300000e-07	-8.106386e-06	-9.451397e-09	-5.504729e+01	-6.223102e+02
1.400000e-07	-8.065268e-06	-9.478490e-09	-5.476808e+01	-6.218283e+02
1.500000e-07	-8.021536e-06	-9.518657e-09	-5.447111e+01	-6.210341e+02
1.600000e-07	-7.975016e-06	-9.448779e-09	-5.415521e+01	-6.199063e+02
1.700000e-07	-7.925611e-06	-9.482747e-09	-5.381972e+01	-6.185231e+02
1.800000e-07	-7.873072e-06	-9.459882e-09	-5.346295e+01	-6.170226e+02
1.900000e-07	-7.817515e-06	-9.379915e-09	-5.308568e+01	-6.155399e+02
2.000000e-07	-7.759163e-06	-9.356452e-09	-5.268944e+01	-6.141512e+02
2.100000e-07	-7.698025e-06	-9.298195e-09	-5.227427e+01	-6.128470e+02
2.200000e-07	-7.634192e-06	-9.328563e-09	-5.184081e+01	-6.115452e+02
2.300000e-07	-7.567544e-06	-9.338062e-09	-5.138823e+01	-6.101371e+02
2.400000e-07	-7.498073e-06	-9.327053e-09	-5.091647e+01	-6.085420e+02
2.500000e-07	-7.425880e-06	-9.274978e-09	-5.042624e+01	-6.067469e+02
2.600000e-07	-7.350825e-06	-9.232035e-09	-4.991657e+01	-6.048116e+02
2.700000e-07	-7.272892e-06	-9.205822e-09	-4.938736e+01	-6.028374e+02
2.800000e-07	-7.192100e-06	-9.146016e-09	-4.883873e+01	-6.009148e+02
2.900000e-07	-7.108651e-06	-9.133011e-09	-4.827207e+01	-5.990757e+02
3.000000e-07	-7.022884e-06	-9.126766e-09	-4.768966e+01	-5.972712e+02
3.100000e-07	-6.934764e-06	-9.123099e-09	-4.709127e+01	-5.953889e+02
3.200000e-07	-6.844135e-06	-9.092021e-09	-4.647584e+01	-5.933008e+02
3.300000e-07	-6.751047e-06	-9.019179e-09	-4.584371e+01	-5.909217e+02
3.400000e-07	-6.655593e-06	-8.957111e-09	-4.519552e+01	-5.882510e+02
3.500000e-07	-6.557693e-06	-8.918219e-09	-4.453072e+01	-5.853776e+02
3.600000e-07	-6.457332e-06	-8.889940e-09	-4.384921e+01	-5.824439e+02
3.700000e-07	-6.354623e-06	-8.851508e-09	-4.315175e+01	-5.795844e+02
3.800000e-07	-6.249631e-06	-8.822331e-09	-4.243880e+01	-5.768645e+02
3.900000e-07	-6.142398e-06	-8.791526e-09	-4.171062e+01	-5.742483e+02
4.000000e-07	-6.033026e-06	-8.739072e-09	-4.096791e+01	-5.716094e+02
4.100000e-07	-5.921469e-06	-8.668985e-09	-4.021038e+01	-5.687828e+02
4.200000e-07	-5.807657e-06	-8.599445e-09	-3.943752e+01	-5.656354e+02
4.300000e-07	-5.691557e-06	-8.553726e-09	-3.864913e+01	-5.621237e+02
4.400000e-07	-5.573206e-06	-8.520915e-09	-3.784546e+01	-5.583140e+02
4.500000e-07	-5.452795e-06	-8.477834e-09	-3.702780e+01	-5.543538e+02
4.600000e-07	-5.330449e-06	-8.417899e-09	-3.619699e+01	-5.504065e+02
4.700000e-07	-5.206180e-06	-8.350717e-09	-3.535313e+01	-5.465772e+02
4.800000e-07	-5.080062e-06	-8.283352e-09	-3.449671e+01	-5.428621e+02
4.900000e-07	-4.952112e-06	-8.212098e-09	-3.362785e+01	-5.391448e+02
5.000000e-07	-4.822379e-06	-8.140148e-09	-3.274689e+01	-5.352431e+02
5.100000e-07	-4.690881e-06	-8.074274e-09	-3.185394e+01	-5.309854e+02
5.200000e-07	-4.557710e-06	-8.018367e-09	-3.094962e+01	-5.262845e+02
5.300000e-07	-4.422955e-06	-7.958746e-09	-3.003456e+01	-5.211762e+02
5.400000e-07	-4.286534e-06	-7.877915e-09	-2.910817e+01	-5.158025e+02
5.500000e-07	-4.148557e-06	-7.785192e-09	-2.817123e+01	-5.103481e+02
5.600000e-07	-4.009010e-06	-7.694057e-09	-2.722362e+01	-5.049542e+02
5.700000e-07	-3.867743e-06	-7.609296e-09	-2.626433e+01	-4.996503e+02
5.800000e-07	-3.724955e-06	-7.523946e-09	-2.529471e+01	-4.943332e+02
5.900000e-07	-3.580888e-06	-7.438616e-09	-2.431641e+01	-4.888052e+02
6.000000e-07	-3.435490e-06	-7.349831e-09	-2.332906e+01	-4.828561e+02
6.100000e-07	-3.288792e-06	-7.254339e-09	-2.233290e+01	-4.763530e+02
6.200000e-07	-3.140959e-06	-7.148749e-09	-2.132902e+01	-4.692986e+02
6.300000e-07	-2.992072e-06	-7.033260e-09	-2.031799e+01	-4.618287e+02
6.400000e-07	-2.842162e-06	-6.916401e-09	-1.930001e+01	-4.541487e+02
6.500000e-07	-2.691265e-06	-6.798678e-09	-1.827533e+01	-4.464344e+02
6.600000e-07	-2.539391e-06	-6.678424e-09	-1.724401e+01	-4.387403e+02
6.700000e-07	-2.386622e-06	-6.552562e-09	-1.620661e+01	-4.309593e+02
6.800000e-07	-2.233022e-06	-6.423687e-09	-1.516358e+01	-4.228531e+02
6.900000e-07	-2.078642e-06	-6.289192e-09	-1.411524e+01	-4.141445e+02
7.000000e-07	-1.923527e-06	-6.145024e-09	-1.306192e+01	-4.046327e+02
7.100000e-07	-1.767700e-06	-5.988809e-09	-1.200376e+01	-3.942799e+02
7.200000e-07	-1.611168e-06	-5.824829e-09	-1.094081e+01	-3.832262e+02
7.300000e-07	-1.453939e-06	-5.657335e-09	-9.873133e+00	-3.717215e+02
7.400000e-07	-1.296087e-06	-5.483028e-09	-8.801218e+00	-3.599979e+02
7.500000e-07	-1.137748e-06	-5.296474e-09	-7.726000e+00	-3.481375e+02
7.600000e-07	-9.790508e-07	-5.095903e-09	-6.648351e+00	-3.359966e+02
7.700000e-07	-8.200088e-07	-4.888452e-09	-5.568358e+00	-3.232264e+02
7.800000e-07	-6.606941e-07	-4.674862e-09	-4.486515e+00	-3.093912e+02
7.900000e-07	-5.011970e-07	-4.448751e-09	-3.403433e+00	-2.941389e+02
8.000000e-07	-3.415113e-07	-4.201156e-09	-2.319069e+00	-2.773486e+02
8.100000e-07	-1.816597e-07	-3.935444e-09	-1.233580e+00	-2.591809e+02
8.200000e-07	-2.176782e-08	-3.655784e-09	-1.478167e-01	-2.399879e+02
8.300000e-07	1.381112e-07	-3.356125e-09	9.378591e-01	-2.200993e+02
8.400000e-07	2.979243e-07	-3.028859e-09	2.023087e+00	-1.995541e+02
8.500000e-07	4.575609e-07	-2.671712e-09	3.107117e+00	-1.778873e+02
8.600000e-07	6.170412e-07	-2.288160e-09	4.190085e+00	-1.540740e+02
8.700000e-07	7.763594e-07	-1.867797e-09	5.271952e+00	-1.266899e+02
8.800000e-07	9.354440e-07	-1.388943e-09	6.352234e+00	-9.427141e+01
8.900000e-07	1.094232e-06	-8.291928e-10	7.430504e+00	-5.578283e+01
9.000000e-07	1.252634e-06	-1.698653e-10	8.506148e+00	-1.104761e+01
9.100000e-07	1.410514e-06	5.967461e-10	9.578250e+00	3.900293e+01
9.200000e-07	1.567745e-06	1.444682e-09	1.064594e+01	9.236236e+01
9.300000e-07	1.724314e-06	2.307079e-09	1.170914e+01	1.462765e+02
9.400000e-07	1.880278e-06	3.105657e-09	1.276823e+01	1.977857e+02
9.500000e-07	2.035623e-06	3.789648e-09	1.382312e+01	2.443302e+02
9.600000e-07	2.190179e-06	4.355533e-09	1.487264e+01	2.842490e+02
9.700000e-07	2.343816e-06	4.824008e-09	1.591594e+01	3.170309e+02
9.800000e-07	2.496586e-06	5.215739e-09	1.695334e+01	3.432625e+02
9.900000e-07	2.648526e-06	5.546986e-09	1.798510e+01	3.643074e+02
1.000000e-06	2.799647e-06	5.831669e-09	1.901131e+01	3.818342e+02
1.010000e-06	2.949806e-06	6.082068e-09	2.003097e+01	3.973471e+02
1.020000e-06	3.098832e-06	6.306607e-09	2.104296e+01	4.118573e+02
1.030000e-06	3.246709e-06	6.510694e-09	2.204713e+01	4.257725e+02
1.040000e-06	3.393417e-06	6.698106e-09	2.304337e+01	4.390031e+02
1.050000e-06	3.538955e-06	6.872915e-09	2.403166e+01	4.512106e+02
1.060000e-06	3.683222e-06	7.034249e-09	2.501132e+01	4.620844e+02
1.070000e-06	3.826073e-06	7.179288e-09	2.598137e+01	4.715420e+02
1.080000e-06	3.967468e-06	7.310048e-09	2.694152e+01	4.797886e+02
1.090000e-06	4.107306e-06	7.433050e-09	2.789110e+01	4.872370e+02
1.100000e-06	4.245556e-06	7.551712e-09	2.882991e+01	4.943392e+02
1.110000e-06	4.382284e-06	7.663140e-09	2.975837e+01	5.014149e+02
1.120000e-06	4.517463e-06	7.766695e-09	3.067632e+01	5.085484e+02
1.130000e-06	4.651048e-06	7.866713e-09	3.158344e+01	5.155933e+02
1.140000e-06	4.782899e-06	7.965124e-09	3.247879e+01	5.222740e+02
1.150000e-06	4.912945e-06	8.054948e-09	3.336189e+01	5.283325e+02
1.160000e-06	5.041281e-06	8.131978e-09	3.423336e+01	5.336562e+02
1.170000e-06	5.167917e-06	8.202037e-09	3.509330e+01	5.383319e+02
1.180000e-06	5.292759e-06	8.274182e-09	3.594105e+01	5.426090e+02
1.190000e-06	5.415704e-06	8.348035e-09	3.677592e+01	5.467923e+02
1.200000e-06	5.536702e-06	8.416597e-09	3.759757e+01	5.511157e+02
1.210000e-06	5.655669e-06	8.479180e-09	3.840543e+01	5.556508e+02
1.220000e-06	5.772447e-06	8.540824e-09	3.919843e+01	5.602892e+02
1.230000e-06	5.887000e-06	8.604382e-09	3.997631e+01	5.648024e+02
1.240000e-06	5.999373e-06	8.664243e-09	4.073939e+01	5.689490e+02
1.250000e-06	6.109622e-06	8.716219e-09	4.148805e+01	5.725834e+02
1.260000e-06	6.217722e-06	8.764711e-09	4.222212e+01	5.757168e+02
1.270000e-06	6.323591e-06	8.815204e-09	4.294103e+01	5.785085e+02
1.280000e-06	6.427221e-06	8.865748e-09	4.364474e+01	5.811926e+02
1.290000e-06	6.528551e-06	8.910052e-09	4.433283e+01	5.839754e+02
1.300000e-06	6.627472e-06	8.948156e-09	4.500457e+01	5.869484e+02
1.310000e-06	6.723982e-06	8.987059e-09	4.565992e+01	5.900538e+02
1.320000e-06	6.818138e-06	9.030113e-09	4.629930e+01	5.931163e+02
1.330000e-06	6.909866e-06	9.071836e-09	4.692219e+01	5.959245e+02
1.340000e-06	6.999116e-06	9.108873e-09	4.752825e+01	5.983264e+02
1.350000e-06	7.085973e-06	9.143164e-09	4.811807e+01	6.002955e+02
1.360000e-06	7.170399e-06	9.176787e-09	4.869137e+01	6.019414e+02
1.370000e-06	7.252281e-06	9.205534e-09	4.924740e+01	6.034616e+02
1.380000e-06	7.331562e-06	9.228388e-09	4.978576e+01	6.050556e+02
1.390000e-06	7.408091e-06	9.251037e-09	5.030544e+01	6.068409e+02
1.400000e-06	7.481815e-06	9.278194e-09	5.080607e+01	6.088072e+02
1.410000e-06	7.552888e-06	9.307255e-09	5.128871e+01	6.108256e+02
1.420000e-06	7.621283e-06	9.334864e-09	5.175314e+01	6.127099e+02
1.430000e-06	7.686943e-06	9.360572e-09	5.219902e+01	6.143008e+02
1.440000e-06	7.749939e-06	9.383824e-09	5.262680e+01	6.155353e+02
1.450000e-06	7.810240e-06	9.401710e-09	5.303628e+01	6.164739e+02
1.460000e-06	7.867757e-06	9.412805e-09	5.342686e+01	6.172713e+02
1.470000e-06	7.922371e-06	9.423017e-09	5.379772e+01	6.181086e+02
1.480000e-06	7.973822e-06	9.435204e-09	5.414710e+01	6.191133e+02
1.490000e-06	8.022123e-06	9.450273e-09	5.447509e+01	6.203062e+02
1.500000e-06	8.067568e-06	9.468669e-09	5.478370e+01	6.215942e+02
1.510000e-06	8.110183e-06	9.486781e-09	5.507308e+01	6.228142e+02
1.520000e-06	8.149858e-06	9.503089e-09	5.534249e+01	6.238062e+02
1.530000e-06	8.186743e-06	9.517985e-09	5.559297e+01	6.244845e+02
1.540000e-06	8.220831e-06	9.526370e-09	5.582444e+01	6.248741e+02
1.550000e-06	8.252030e-06	9.526994e-09	5.603630e+01	6.250995e+02
1.560000e-06	8.280363e-06	9.527663e-09	5.622870e+01	6.253286e+02
1.570000e-06	8.305666e-06	9.534035e-09	5.640052e+01	6.256990e+02
1.580000e-06	8.328031e-06	9.544064e-09	5.655240e+01	6.262581e+02
1.590000e-06	8.347562e-06	9.554951e-09	5.668502e+01	6.269433e+02
1.600000e-06	8.364093e-06	9.564803e-09	5.679728e+01	6.276113e+02
1.610000e-06	8.377463e-06	9.572258e-09	5.688807e+01	6.281024e+02
1.620000e-06	8.387605e-06	9.574975e-09	5.695694e+01	6.283115e+02
1.630000e-06	8.394706e-06	9.573092e-09	5.700516e+01	6.282349e+02
1.640000e-06	8.398880e-06	9.568131e-09	5.703350e+01	6.279725e+02
1.650000e-06	8.400058e-06	9.563712e-09	5.704150e+01	6.276837e+02
1.660000e-06	8.398409e-06	9.561044e-09	5.703030e+01	6.275170e+02
1.670000e-06	8.394010e-06	9.563855e-09	5.700043e+01	6.275439e+02
1.680000e-06	8.386809e-06	9.564935e-09	5.695154e+01	6.277264e+02
1.690000e-06	8.376803e-06	9.563027e-09	5.688358e+01	6.279318e+02
1.700000e-06	8.363843e-06	9.564363e-09	5.679558e+01	6.279889e+02
1.710000e-06	8.348098e-06	9.566760e-09	5.668866e+01	6.277618e+02
1.720000e-06	8.329869e-06	9.566202e-09	5.656487e+01	6.272090e+02
1.730000e-06	8.308989e-06	9.532966e-09	5.642309e+01	6.264029e+02
1.740000e-06	8.284941e-06	9.510676e-09	5.625979e+01	6.255004e+02
1.750000e-06	8.257067e-06	9.481623e-09	5.607051e+01	6.246784e+02
1.760000e-06	8.225434e-06	9.474096e-09	5.585570e+01	6.240601e+02
1.770000e-06	8.190927e-06	9.508713e-09	5.562138e+01	6.236645e+02
1.780000e-06	8.153981e-06	9.552075e-09	5.537049e+01	6.233987e+02
1.790000e-06	8.114803e-06	9.493540e-09	5.510444e+01	6.230962e+02
1.800000e-06	8.073595e-06	9.468686e-09	5.482462e+01	6.225849e+02
1.810000e-06	8.029809e-06	9.480977e-09	5.452729e+01	6.217539e+02
1.820000e-06	7.983104e-06	9.408254e-09	5.421013e+01	6.205932e+02
1.830000e-06	7.933499e-06	9.454827e-09	5.387329e+01	6.191901e+02
1.840000e-06	7.880605e-06	9.416150e-09	5.351410e+01	6.176854e+02
1.850000e-06	7.824655e-06	9.411869e-09	5.313417e+01	6.162103e+02
1.860000e-06	7.765934e-06	9.433279e-09	5.273541e+01	6.148325e+02
1.870000e-06	7.704361e-06	9.354094e-09	5.231729e+01	6.135331e+02
1.880000e-06	7.640091e-06	9.331432e-09	5.188086e+01	6.122249e+02
1.890000e-06	7.573012e-06	9.254157e-09	5.142536e+01	6.107994e+02
1.900000e-06	7.503035e-06	9.252716e-09	5.095017e+01	6.091819e+02
1.910000e-06	7.430136e-06	9.259530e-09	5.045514e+01	6.073676e+02
1.920000e-06	7.354393e-06	9.245415e-09	4.994080e+01	6.054228e+02
1.930000e-06	7.275881e-06	9.239354e-09	4.940766e+01	6.034502e+02
1.940000e-06	7.194753e-06	9.168581e-09	4.885675e+01	6.015361e+02
1.950000e-06	7.111169e-06	9.142411e-09	4.828916e+01	5.997042e+02
1.960000e-06	7.024882e-06	9.076977e-09	4.770322e+01	5.978973e+02
1.970000e-06	6.936036e-06	9.042750e-09	4.709990e+01	5.959986e+02
1.980000e-06	6.844828e-06	9.029904e-09	4.648054e+01	5.938819e+02
1.990000e-06	6.751126e-06	9.013811e-09	4.584426e+01	5.914697e+02
2.000000e-06	6.655017e-06	9.000400e-09	4.519161e+01	5.887714e+02
2.010000e-06	6.556648e-06	8.942701e-09	4.452363e+01	5.858841e+02
2.020000e-06	6.455982e-06	8.885787e-09	4.384004e+01	5.829524e+02
2.030000e-06	6.352907e-06	8.815071e-09	4.314010e+01	5.801062e+02
2.040000e-06	6.247526e-06	8.780971e-09	4.242450e+01	5.774007e+02
2.050000e-06	6.139994e-06	8.747804e-09	4.169430e+01	5.747891e+02
2.060000e-06	6.030305e-06	8.715840e-09	4.094944e+01	5.721378e+02
2.070000e-06	5.918306e-06	8.678322e-09	4.018890e+01	5.692818e+02
2.080000e-06	5.803960e-06	8.632900e-09	3.941242e+01	5.660953e+02
2.090000e-06	5.687317e-06	8.576614e-09	3.862034e+01	5.625464e+02
2.100000e-06	5.568432e-06	8.502689e-09	3.781304e+01	5.587124e+02
2.110000e-06	5.447552e-06	8.435544e-09	3.699219e+01	5.547460e+02
2.120000e-06	5.324836e-06	8.380060e-09	3.615888e+01	5.508077e+02
2.130000e-06	5.200331e-06	8.340963e-09	3.531341e+01	5.469927e+02
2.140000e-06	5.073856e-06	8.292006e-09	3.445457e+01	5.432844e+02
2.150000e-06	4.945401e-06	8.228872e-09	3.358228e+01	5.395563e+02
2.160000e-06	4.815174e-06	8.156131e-09	3.269796e+01	5.356235e+02
2.170000e-06	4.683307e-06	8.081664e-09	3.180250e+01	5.313202e+02
2.180000e-06	4.549907e-06	8.008416e-09	3.089663e+01	5.265716e+02
2.190000e-06	4.414836e-06	7.937845e-09	2.997942e+01	5.214264e+02
2.200000e-06	4.277993e-06	7.869626e-09	2.905017e+01	5.160350e+02
2.210000e-06	4.139507e-06	7.802394e-09	2.810977e+01	5.105816e+02
2.220000e-06	3.999542e-06	7.722209e-09	2.715932e+01	5.051981e+02
2.230000e-06	3.858167e-06	7.626229e-09	2.619930e+01	4.998996e+02
2.240000e-06	3.715317e-06	7.526093e-09	2.522926e+01	4.945702e+02
2.250000e-06	3.571079e-06	7.435139e-09	2.424980e+01	4.890063e+02
2.260000e-06	3.425566e-06	7.351008e-09	2.326168e+01	4.830018e+02
2.270000e-06	3.278776e-06	7.263033e-09	2.226489e+01	4.764367e+02
2.280000e-06	3.130846e-06	7.167848e-09	2.126035e+01	4.693291e+02
2.290000e-06	2.981867e-06	7.063506e-09	2.024869e+01	4.618263e+02
2.300000e-06	2.831941e-06	6.950002e-09	1.923060e+01	4.541355e+02
2.310000e-06	2.680975e-06	6.825514e-09	1.820545e+01	4.464232e+02
2.320000e-06	2.528940e-06	6.695098e-09	1.717304e+01	4.387275e+02
2.330000e-06	2.375987e-06	6.568028e-09	1.613440e+01	4.309245e+02
2.340000e-06	2.222132e-06	6.444392e-09	1.508963e+01	4.227664e+02
2.350000e-06	2.067426e-06	6.319293e-09	1.403908e+01	4.139787e+02
2.360000e-06	1.911980e-06	6.180821e-09	1.298351e+01	4.043751e+02
2.370000e-06	1.755922e-06	6.028300e-09	1.192378e+01	3.939375e+02
2.380000e-06	1.599323e-06	5.866806e-09	1.086038e+01	3.828224e+02
2.390000e-06	1.442210e-06	5.697356e-09	9.793480e+00	3.712846e+02
2.400000e-06	1.284641e-06	5.516039e-09	8.723494e+00	3.595458e+02
2.410000e-06	1.126615e-06	5.322145e-09	7.650402e+00	3.476661e+02
2.420000e-06	9.681573e-07	5.126208e-09	6.574377e+00	3.354771e+02
2.430000e-06	8.093327e-07	4.925407e-09	5.495861e+00	3.226134e+02
2.440000e-06	6.502064e-07	4.711808e-09	4.415297e+00	3.086399e+02
2.450000e-06	4.908499e-07	4.481230e-09	3.333169e+00	2.932234e+02
2.460000e-06	3.313269e-07	4.235625e-09	2.249911e+00	2.762730e+02
2.470000e-06	1.716626e-07	3.973249e-09	1.165693e+00	2.579765e+02
2.480000e-06	1.186188e-08	3.689939e-09	8.054938e-02	2.386959e+02
2.490000e-06	-1.479390e-07	3.381837e-09	-1.004596e+00	2.187423e+02
2.500000e-06	-3.076110e-07	3.047224e-09	-2.088866e+00	1.981091e+02
2.510000e-06	-4.671007e-07	2.690900e-09	-3.171898e+00	1.762703e+02
2.520000e-06	-6.263613e-07	2.310300e-09	-4.253374e+00	1.521466e+02
2.530000e-06	-7.853370e-07	1.889675e-09	-5.332916e+00	1.242894e+02
2.540000e-06	-9.440148e-07	1.408797e-09	-6.410435e+00	9.125786e+01
2.550000e-06	-1.102387e-06	8.488355e-10	-7.485879e+00	5.208985e+01
2.560000e-06	-1.260386e-06	1.902049e-10	-8.558785e+00	6.720021e+00
2.570000e-06	-1.417915e-06	-5.774916e-10	-9.628503e+00	-4.379814e+01
2.580000e-06	-1.574888e-06	-1.431473e-09	-1.069445e+01	-9.735765e+01
2.590000e-06	-1.731265e-06	-2.303736e-09	-1.175634e+01	-1.511538e+02
2.600000e-06	-1.887090e-06	-3.108287e-09	-1.281449e+01	-2.022413e+02
2.610000e-06	-2.042259e-06	-3.793187e-09	-1.386818e+01	-2.481365e+02
2.620000e-06	-2.196656e-06	-4.357742e-09	-1.491663e+01	-2.872944e+02
2.630000e-06	-2.350276e-06	-4.824826e-09	-1.595980e+01	-3.193295e+02
2.640000e-06	-2.503036e-06	-5.215668e-09	-1.699714e+01	-3.449308e+02
2.650000e-06	-2.654886e-06	-5.545929e-09	-1.802829e+01	-3.655184e+02
2.660000e-06	-2.805733e-06	-5.832961e-09	-1.905263e+01	-3.827643e+02
2.670000e-06	-2.955500e-06	-6.088442e-09	-2.006964e+01	-3.981323e+02
2.680000e-06	-3.104168e-06	-6.320839e-09	-2.107919e+01	-4.125698e+02
2.690000e-06	-3.251793e-06	-6.531915e-09	-2.208165e+01	-4.264229e+02
2.700000e-06	-3.398380e-06	-6.718235e-09	-2.307707e+01	-4.395620e+02
2.710000e-06	-3.543744e-06	-6.884459e-09	-2.406418e+01	-4.516389e+02
2.720000e-06	-3.687749e-06	-7.037528e-09	-2.504206e+01	-4.623601e+02
2.730000e-06	-3.830338e-06	-7.179520e-09	-2.601033e+01	-4.716735e+02
2.740000e-06	-3.971433e-06	-7.309983e-09	-2.696844e+01	-4.798128e+02
2.750000e-06	-4.111051e-06	-7.433500e-09	-2.791654e+01	-4.872038e+02
2.760000e-06	-4.249217e-06	-7.553155e-09	-2.885477e+01	-4.942918e+02
2.770000e-06	-4.385779e-06	-7.666099e-09	-2.978210e+01	-5.013744e+02
2.780000e-06	-4.520662e-06	-7.771339e-09	-3.069805e+01	-5.085090e+02
2.790000e-06	-4.653909e-06	-7.871303e-09	-3.160287e+01	-5.155293e+02
2.800000e-06	-4.785560e-06	-7.964242e-09	-3.249686e+01	-5.221541e+02
2.810000e-06	-4.915568e-06	-8.046367e-09	-3.337970e+01	-5.281361e+02
2.820000e-06	-5.043798e-06	-8.120780e-09	-3.425046e+01	-5.333830e+02
2.830000e-06	-5.170239e-06	-8.194600e-09	-3.510907e+01	-5.380023e+02
2.840000e-06	-5.294872e-06	-8.271004e-09	-3.595540e+01	-5.422552e+02
2.850000e-06	-5.417634e-06	-8.348196e-09	-3.678903e+01	-5.464449e+02
2.860000e-06	-5.538490e-06	-8.421512e-09	-3.760972e+01	-5.507911e+02
2.870000e-06	-5.657201e-06	-8.490862e-09	-3.841584e+01	-5.553455e+02
2.880000e-06	-5.773670e-06	-8.557646e-09	-3.920673e+01	-5.599829e+02
2.890000e-06	-5.887906e-06	-8.620264e-09	-3.998246e+01	-5.644677e+02
2.900000e-06	-5.999808e-06	-8.676525e-09	-4.074234e+01	-5.685641e+02
2.910000e-06	-6.109495e-06	-8.727281e-09	-4.148719e+01	-5.721416e+02
2.920000e-06	-6.217040e-06	-8.776327e-09	-4.221748e+01	-5.752289e+02
2.930000e-06	-6.322428e-06	-8.825205e-09	-4.293313e+01	-5.779977e+02
2.940000e-06	-6.425551e-06	-8.873805e-09	-4.363340e+01	-5.806842e+02
