# Temperatura_=_65.08
# Concentracion g/m^3_=_13400.0
# C_Vs_to_Am_M_A/Vsm_=_65563218390.804596
# pendiente_HvsI_1/m_=_3716.3
# ordenada_HvsI_A/m_=_1297.0
# frecuencia_Hz_=_301398.60396386567

Tiempo_(s)	Campo_(V.s)	Magnetizacion_(V.s)	Campo_(kA/m)	Magnetizacion_(A/m)
0.000000e+00	-8.391733e-06	-1.318404e-08	-5.692253e+01	-8.662086e+02
1.000000e-08	-8.387688e-06	-1.317649e-08	-5.689509e+01	-8.662229e+02
2.000000e-08	-8.380962e-06	-1.316909e-08	-5.684947e+01	-8.663280e+02
3.000000e-08	-8.371490e-06	-1.316753e-08	-5.678522e+01	-8.663212e+02
4.000000e-08	-8.359074e-06	-1.316532e-08	-5.670100e+01	-8.660036e+02
5.000000e-08	-8.343610e-06	-1.315600e-08	-5.659610e+01	-8.652669e+02
6.000000e-08	-8.325231e-06	-1.313707e-08	-5.647144e+01	-8.641406e+02
7.000000e-08	-8.304379e-06	-1.311027e-08	-5.632999e+01	-8.627802e+02
8.000000e-08	-8.280855e-06	-1.313711e-08	-5.617043e+01	-8.614010e+02
9.000000e-08	-8.254004e-06	-1.316993e-08	-5.598829e+01	-8.601869e+02
1.000000e-07	-8.223824e-06	-1.313715e-08	-5.578357e+01	-8.592148e+02
1.100000e-07	-8.190580e-06	-1.308821e-08	-5.555808e+01	-8.584249e+02
1.200000e-07	-8.154429e-06	-1.305184e-08	-5.531286e+01	-8.576496e+02
1.300000e-07	-8.115713e-06	-1.301458e-08	-5.505024e+01	-8.566863e+02
1.400000e-07	-8.074674e-06	-1.296270e-08	-5.477186e+01	-8.553818e+02
1.500000e-07	-8.031055e-06	-1.299098e-08	-5.447599e+01	-8.536910e+02
1.600000e-07	-7.984534e-06	-1.296900e-08	-5.416043e+01	-8.516861e+02
1.700000e-07	-7.935116e-06	-1.292082e-08	-5.382522e+01	-8.495137e+02
1.800000e-07	-7.882623e-06	-1.295422e-08	-5.346915e+01	-8.473217e+02
1.900000e-07	-7.827122e-06	-1.287114e-08	-5.309268e+01	-8.451890e+02
2.000000e-07	-7.768844e-06	-1.279244e-08	-5.269737e+01	-8.430918e+02
2.100000e-07	-7.707777e-06	-1.275789e-08	-5.228314e+01	-8.409190e+02
2.200000e-07	-7.643981e-06	-1.273536e-08	-5.185041e+01	-8.385299e+02
2.300000e-07	-7.577377e-06	-1.275150e-08	-5.139862e+01	-8.358258e+02
2.400000e-07	-7.507978e-06	-1.270226e-08	-5.092787e+01	-8.328016e+02
2.500000e-07	-7.435806e-06	-1.264704e-08	-5.043832e+01	-8.295528e+02
2.600000e-07	-7.360701e-06	-1.258812e-08	-4.992887e+01	-8.262341e+02
2.700000e-07	-7.282712e-06	-1.254241e-08	-4.939986e+01	-8.229865e+02
2.800000e-07	-7.201845e-06	-1.247851e-08	-4.885132e+01	-8.198693e+02
2.900000e-07	-7.118371e-06	-1.240586e-08	-4.828510e+01	-8.168269e+02
3.000000e-07	-7.032636e-06	-1.239716e-08	-4.770355e+01	-8.137070e+02
3.100000e-07	-6.944511e-06	-1.236461e-08	-4.710578e+01	-8.103263e+02
3.200000e-07	-6.853860e-06	-1.231333e-08	-4.649088e+01	-8.065515e+02
3.300000e-07	-6.760760e-06	-1.222340e-08	-4.585937e+01	-8.023619e+02
3.400000e-07	-6.665291e-06	-1.213330e-08	-4.521178e+01	-7.978622e+02
3.500000e-07	-6.567369e-06	-1.207401e-08	-4.454756e+01	-7.932398e+02
3.600000e-07	-6.467015e-06	-1.201802e-08	-4.386685e+01	-7.886822e+02
3.700000e-07	-6.364334e-06	-1.195924e-08	-4.317035e+01	-7.842917e+02
3.800000e-07	-6.259386e-06	-1.189095e-08	-4.245846e+01	-7.800356e+02
3.900000e-07	-6.152135e-06	-1.184189e-08	-4.173096e+01	-7.757556e+02
4.000000e-07	-6.042691e-06	-1.176920e-08	-4.098859e+01	-7.712331e+02
4.100000e-07	-5.931130e-06	-1.167283e-08	-4.023185e+01	-7.662840e+02
4.200000e-07	-5.817354e-06	-1.156910e-08	-3.946009e+01	-7.608409e+02
4.300000e-07	-5.701251e-06	-1.148461e-08	-3.867254e+01	-7.549839e+02
4.400000e-07	-5.582873e-06	-1.141725e-08	-3.786956e+01	-7.489074e+02
4.500000e-07	-5.462459e-06	-1.134594e-08	-3.705278e+01	-7.428326e+02
4.600000e-07	-5.340108e-06	-1.125778e-08	-3.622285e+01	-7.369062e+02
4.700000e-07	-5.215809e-06	-1.115852e-08	-3.537970e+01	-7.311294e+02
4.800000e-07	-5.089663e-06	-1.106755e-08	-3.452404e+01	-7.253501e+02
4.900000e-07	-4.961714e-06	-1.096578e-08	-3.365614e+01	-7.193245e+02
5.000000e-07	-4.832007e-06	-1.085073e-08	-3.277631e+01	-7.128228e+02
5.100000e-07	-4.700502e-06	-1.073631e-08	-3.188429e+01	-7.057320e+02
5.200000e-07	-4.567255e-06	-1.063956e-08	-3.098046e+01	-6.981097e+02
5.300000e-07	-4.432349e-06	-1.054214e-08	-3.006536e+01	-6.901619e+02
5.400000e-07	-4.295820e-06	-1.042496e-08	-2.913927e+01	-6.821521e+02
5.500000e-07	-4.157780e-06	-1.029401e-08	-2.820292e+01	-6.742797e+02
5.600000e-07	-4.018081e-06	-1.016717e-08	-2.725532e+01	-6.665808e+02
5.700000e-07	-3.876753e-06	-1.004811e-08	-2.629667e+01	-6.588995e+02
5.800000e-07	-3.733917e-06	-9.921240e-09	-2.532778e+01	-6.509429e+02
5.900000e-07	-3.589642e-06	-9.783304e-09	-2.434915e+01	-6.424026e+02
6.000000e-07	-3.444071e-06	-9.641028e-09	-2.336171e+01	-6.330878e+02
6.100000e-07	-3.297276e-06	-9.500594e-09	-2.236598e+01	-6.230123e+02
6.200000e-07	-3.149282e-06	-9.353404e-09	-2.136211e+01	-6.123926e+02
6.300000e-07	-3.000198e-06	-9.190282e-09	-2.035085e+01	-6.015526e+02
6.400000e-07	-2.850111e-06	-9.018648e-09	-1.933278e+01	-5.907738e+02
6.500000e-07	-2.699072e-06	-8.853647e-09	-1.830826e+01	-5.801551e+02
6.600000e-07	-2.547130e-06	-8.688675e-09	-1.727761e+01	-5.695475e+02
6.700000e-07	-2.394296e-06	-8.509731e-09	-1.624091e+01	-5.585970e+02
6.800000e-07	-2.240585e-06	-8.319207e-09	-1.519826e+01	-5.468851e+02
6.900000e-07	-2.085997e-06	-8.124954e-09	-1.414967e+01	-5.341072e+02
7.000000e-07	-1.930584e-06	-7.927527e-09	-1.309548e+01	-5.202113e+02
7.100000e-07	-1.774504e-06	-7.719628e-09	-1.203676e+01	-5.054282e+02
7.200000e-07	-1.617840e-06	-7.498641e-09	-1.097408e+01	-4.901708e+02
7.300000e-07	-1.460573e-06	-7.265314e-09	-9.907312e+00	-4.748365e+02
7.400000e-07	-1.302679e-06	-7.029147e-09	-8.836287e+00	-4.595940e+02
7.500000e-07	-1.144243e-06	-6.784968e-09	-7.761593e+00	-4.442516e+02
7.600000e-07	-9.853883e-07	-6.522326e-09	-6.684054e+00	-4.282759e+02
7.700000e-07	-8.261700e-07	-6.241027e-09	-5.604050e+00	-4.109683e+02
7.800000e-07	-6.667144e-07	-5.946353e-09	-4.522435e+00	-3.917369e+02
7.900000e-07	-5.070844e-07	-5.640061e-09	-3.439639e+00	-3.703469e+02
8.000000e-07	-3.472957e-07	-5.311427e-09	-2.355765e+00	-3.470293e+02
8.100000e-07	-1.873881e-07	-4.955712e-09	-1.271085e+00	-3.223698e+02
8.200000e-07	-2.741982e-08	-4.573087e-09	-1.859932e-01	-2.969883e+02
8.300000e-07	1.325554e-07	-4.166041e-09	8.991453e-01	-2.711092e+02
8.400000e-07	2.924680e-07	-3.724988e-09	1.983860e+00	-2.441886e+02
8.500000e-07	4.522994e-07	-3.233344e-09	3.068023e+00	-2.147687e+02
8.600000e-07	6.120176e-07	-2.683264e-09	4.151418e+00	-1.806654e+02
8.700000e-07	7.715035e-07	-2.067393e-09	5.233237e+00	-1.394887e+02
8.800000e-07	9.307527e-07	-1.357629e-09	6.313452e+00	-8.936570e+01
8.900000e-07	1.089706e-06	-5.086871e-10	7.391657e+00	-2.965218e+01
9.000000e-07	1.248213e-06	5.141705e-10	8.466839e+00	3.860420e+01
9.100000e-07	1.406224e-06	1.697074e-09	9.538653e+00	1.126244e+02
9.200000e-07	1.563627e-06	2.939635e-09	1.060634e+01	1.883306e+02
9.300000e-07	1.720406e-06	4.095776e-09	1.166980e+01	2.611509e+02
9.400000e-07	1.876619e-06	5.069302e-09	1.272942e+01	3.269756e+02
9.500000e-07	2.032192e-06	5.848772e-09	1.378470e+01	3.829927e+02
9.600000e-07	2.187003e-06	6.469518e-09	1.483481e+01	4.281679e+02
9.700000e-07	2.340981e-06	6.976443e-09	1.587927e+01	4.632494e+02
9.800000e-07	2.494078e-06	7.403871e-09	1.691775e+01	4.903240e+02
9.900000e-07	2.646214e-06	7.773437e-09	1.794971e+01	5.120888e+02
1.000000e-06	2.797463e-06	8.097916e-09	1.897566e+01	5.310782e+02
1.010000e-06	2.947767e-06	8.384925e-09	1.999520e+01	5.490768e+02
1.020000e-06	3.096950e-06	8.644139e-09	2.100713e+01	5.668682e+02
1.030000e-06	3.245037e-06	8.885335e-09	2.201163e+01	5.843457e+02
1.040000e-06	3.391948e-06	9.113664e-09	2.300815e+01	6.008862e+02
1.050000e-06	3.537617e-06	9.325259e-09	2.399625e+01	6.158164e+02
1.060000e-06	3.682053e-06	9.519530e-09	2.497598e+01	6.287904e+02
1.070000e-06	3.825149e-06	9.700425e-09	2.594662e+01	6.399554e+02
1.080000e-06	3.966780e-06	9.871691e-09	2.690734e+01	6.498773e+02
1.090000e-06	4.106876e-06	1.003464e-08	2.785763e+01	6.592928e+02
1.100000e-06	4.245417e-06	1.018811e-08	2.879737e+01	6.688118e+02
1.110000e-06	4.382348e-06	1.033448e-08	2.972620e+01	6.786993e+02
1.120000e-06	4.517688e-06	1.047640e-08	3.064423e+01	6.888191e+02
1.130000e-06	4.651408e-06	1.061680e-08	3.155128e+01	6.987476e+02
1.140000e-06	4.783453e-06	1.075237e-08	3.244696e+01	7.079941e+02
1.150000e-06	4.913805e-06	1.087702e-08	3.333116e+01	7.162274e+02
1.160000e-06	5.042399e-06	1.099150e-08	3.420344e+01	7.234150e+02
1.170000e-06	5.169226e-06	1.110118e-08	3.506373e+01	7.298217e+02
1.180000e-06	5.294217e-06	1.120553e-08	3.591156e+01	7.358822e+02
1.190000e-06	5.417308e-06	1.130347e-08	3.674651e+01	7.420095e+02
1.200000e-06	5.538492e-06	1.140097e-08	3.756852e+01	7.484263e+02
1.210000e-06	5.657688e-06	1.149868e-08	3.837704e+01	7.550890e+02
1.220000e-06	5.774716e-06	1.159195e-08	3.917086e+01	7.617314e+02
1.230000e-06	5.889466e-06	1.167830e-08	3.994923e+01	7.680015e+02
1.240000e-06	6.002020e-06	1.175952e-08	4.071271e+01	7.736277e+02
1.250000e-06	6.112461e-06	1.183773e-08	4.146185e+01	7.785402e+02
1.260000e-06	6.220748e-06	1.191237e-08	4.219638e+01	7.828986e+02
1.270000e-06	6.326835e-06	1.198393e-08	4.291598e+01	7.870173e+02
1.280000e-06	6.430662e-06	1.205310e-08	4.362026e+01	7.912263e+02
1.290000e-06	6.532127e-06	1.212143e-08	4.430851e+01	7.957301e+02
1.300000e-06	6.631204e-06	1.218848e-08	4.498057e+01	8.005263e+02
1.310000e-06	6.727892e-06	1.225263e-08	4.563642e+01	8.054158e+02
1.320000e-06	6.822186e-06	1.231313e-08	4.627603e+01	8.100980e+02
1.330000e-06	6.914076e-06	1.237118e-08	4.689934e+01	8.143054e+02
1.340000e-06	7.003524e-06	1.243236e-08	4.750608e+01	8.179192e+02
1.350000e-06	7.090573e-06	1.249315e-08	4.809654e+01	8.210162e+02
1.360000e-06	7.175189e-06	1.254595e-08	4.867051e+01	8.238287e+02
1.370000e-06	7.257243e-06	1.259157e-08	4.922709e+01	8.266394e+02
1.380000e-06	7.336691e-06	1.263650e-08	4.976601e+01	8.296576e+02
1.390000e-06	7.413427e-06	1.268582e-08	5.028652e+01	8.329315e+02
1.400000e-06	7.487371e-06	1.273552e-08	5.078809e+01	8.363341e+02
1.410000e-06	7.558616e-06	1.277889e-08	5.127136e+01	8.396259e+02
1.420000e-06	7.627168e-06	1.281910e-08	5.173636e+01	8.425640e+02
1.430000e-06	7.692947e-06	1.286276e-08	5.218255e+01	8.450106e+02
1.440000e-06	7.756052e-06	1.290653e-08	5.261060e+01	8.469913e+02
1.450000e-06	7.816514e-06	1.293997e-08	5.302072e+01	8.486804e+02
1.460000e-06	7.874202e-06	1.296438e-08	5.341203e+01	8.503210e+02
1.470000e-06	7.929004e-06	1.299339e-08	5.378376e+01	8.521163e+02
1.480000e-06	7.980649e-06	1.302692e-08	5.413408e+01	8.541406e+02
1.490000e-06	8.029104e-06	1.305567e-08	5.446276e+01	8.563086e+02
1.500000e-06	8.074704e-06	1.308020e-08	5.477207e+01	8.584159e+02
1.510000e-06	8.117483e-06	1.310673e-08	5.506225e+01	8.602306e+02
1.520000e-06	8.157344e-06	1.313532e-08	5.533263e+01	8.615968e+02
1.530000e-06	8.194385e-06	1.315949e-08	5.558389e+01	8.625028e+02
1.540000e-06	8.228545e-06	1.317333e-08	5.581560e+01	8.630859e+02
1.550000e-06	8.259858e-06	1.318233e-08	5.602800e+01	8.635719e+02
1.560000e-06	8.288352e-06	1.319568e-08	5.622128e+01	8.641770e+02
1.570000e-06	8.313829e-06	1.321118e-08	5.639409e+01	8.650149e+02
1.580000e-06	8.336355e-06	1.322474e-08	5.654690e+01	8.660500e+02
1.590000e-06	8.356022e-06	1.323815e-08	5.668030e+01	8.671160e+02
1.600000e-06	8.372693e-06	1.325230e-08	5.679338e+01	8.679906e+02
1.610000e-06	8.386199e-06	1.326416e-08	5.688499e+01	8.684944e+02
1.620000e-06	8.396454e-06	1.327049e-08	5.695455e+01	8.685681e+02
1.630000e-06	8.403636e-06	1.327133e-08	5.700327e+01	8.682977e+02
1.640000e-06	8.407934e-06	1.326956e-08	5.703243e+01	8.678739e+02
1.650000e-06	8.409272e-06	1.326785e-08	5.704150e+01	8.675081e+02
1.660000e-06	8.407767e-06	1.326210e-08	5.703129e+01	8.673384e+02
1.670000e-06	8.403477e-06	1.325883e-08	5.700219e+01	8.673699e+02
1.680000e-06	8.396325e-06	1.325812e-08	5.695368e+01	8.674732e+02
1.690000e-06	8.386358e-06	1.325455e-08	5.688607e+01	8.674414e+02
1.700000e-06	8.373413e-06	1.325058e-08	5.679826e+01	8.670817e+02
1.710000e-06	8.357680e-06	1.324754e-08	5.669154e+01	8.662990e+02
1.720000e-06	8.339528e-06	1.325071e-08	5.656841e+01	8.651382e+02
1.730000e-06	8.318784e-06	1.320932e-08	5.642771e+01	8.637651e+02
1.740000e-06	8.294911e-06	1.312717e-08	5.626577e+01	8.623959e+02
1.750000e-06	8.267188e-06	1.310303e-08	5.607772e+01	8.612062e+02
1.760000e-06	8.235649e-06	1.310625e-08	5.586378e+01	8.602586e+02
1.770000e-06	8.201233e-06	1.311012e-08	5.563034e+01	8.594794e+02
1.780000e-06	8.164346e-06	1.314677e-08	5.538013e+01	8.586933e+02
1.790000e-06	8.125204e-06	1.315024e-08	5.511462e+01	8.576990e+02
1.800000e-06	8.084111e-06	1.305202e-08	5.483588e+01	8.563528e+02
1.810000e-06	8.040474e-06	1.305968e-08	5.453988e+01	8.546228e+02
1.820000e-06	7.993830e-06	1.304726e-08	5.422349e+01	8.525921e+02
1.830000e-06	7.944262e-06	1.299626e-08	5.388726e+01	8.504110e+02
1.840000e-06	7.891301e-06	1.301908e-08	5.352802e+01	8.482230e+02
1.850000e-06	7.835311e-06	1.293809e-08	5.314823e+01	8.460969e+02
1.860000e-06	7.776682e-06	1.295160e-08	5.275054e+01	8.439978e+02
1.870000e-06	7.715142e-06	1.289916e-08	5.233310e+01	8.418082e+02
1.880000e-06	7.650884e-06	1.278990e-08	5.189723e+01	8.393885e+02
1.890000e-06	7.583794e-06	1.277373e-08	5.144215e+01	8.366482e+02
1.900000e-06	7.513801e-06	1.268927e-08	5.096737e+01	8.335936e+02
1.910000e-06	7.440845e-06	1.269840e-08	5.047250e+01	8.303293e+02
1.920000e-06	7.365008e-06	1.266531e-08	4.995808e+01	8.270122e+02
1.930000e-06	7.286424e-06	1.260702e-08	4.942503e+01	8.237774e+02
1.940000e-06	7.205238e-06	1.256793e-08	4.887434e+01	8.206728e+02
1.950000e-06	7.121626e-06	1.247737e-08	4.830718e+01	8.176303e+02
1.960000e-06	7.035321e-06	1.243643e-08	4.772176e+01	8.144908e+02
1.970000e-06	6.946486e-06	1.234195e-08	4.711918e+01	8.110724e+02
1.980000e-06	6.855240e-06	1.230330e-08	4.650024e+01	8.072517e+02
1.990000e-06	6.761491e-06	1.226333e-08	4.586433e+01	8.030216e+02
2.000000e-06	6.665402e-06	1.221586e-08	4.521254e+01	7.984988e+02
2.010000e-06	6.567007e-06	1.215364e-08	4.454511e+01	7.938750e+02
2.020000e-06	6.466280e-06	1.205983e-08	4.386186e+01	7.893323e+02
2.030000e-06	6.363054e-06	1.198250e-08	4.316166e+01	7.849601e+02
2.040000e-06	6.257534e-06	1.189937e-08	4.244590e+01	7.807106e+02
2.050000e-06	6.149911e-06	1.184137e-08	4.171587e+01	7.764151e+02
2.060000e-06	6.040130e-06	1.176016e-08	4.097121e+01	7.718539e+02
2.070000e-06	5.928113e-06	1.169700e-08	4.021138e+01	7.668524e+02
2.080000e-06	5.813803e-06	1.162175e-08	3.943600e+01	7.613583e+02
2.090000e-06	5.697186e-06	1.154482e-08	3.864497e+01	7.554670e+02
2.100000e-06	5.578282e-06	1.143984e-08	3.783842e+01	7.493803e+02
2.110000e-06	5.457330e-06	1.133534e-08	3.701798e+01	7.433163e+02
2.120000e-06	5.334491e-06	1.124729e-08	3.618475e+01	7.374086e+02
2.130000e-06	5.209841e-06	1.115697e-08	3.533922e+01	7.316410e+02
2.140000e-06	5.083291e-06	1.107516e-08	3.448082e+01	7.258474e+02
2.150000e-06	4.954899e-06	1.096894e-08	3.360991e+01	7.197802e+02
2.160000e-06	4.824730e-06	1.086803e-08	3.272695e+01	7.132178e+02
2.170000e-06	4.692860e-06	1.075525e-08	3.183245e+01	7.060640e+02
2.180000e-06	4.559343e-06	1.064301e-08	3.092679e+01	6.983948e+02
2.190000e-06	4.424128e-06	1.052913e-08	3.000960e+01	6.904276e+02
2.200000e-06	4.287264e-06	1.041641e-08	2.908123e+01	6.824251e+02
2.210000e-06	4.148815e-06	1.030829e-08	2.814211e+01	6.745727e+02
2.220000e-06	4.008808e-06	1.018895e-08	2.719242e+01	6.668862e+02
2.230000e-06	3.867222e-06	1.005489e-08	2.623201e+01	6.591906e+02
2.240000e-06	3.724191e-06	9.911920e-09	2.526181e+01	6.511850e+02
2.250000e-06	3.579883e-06	9.772807e-09	2.428295e+01	6.425674e+02
2.260000e-06	3.434285e-06	9.637404e-09	2.329533e+01	6.331662e+02
2.270000e-06	3.287453e-06	9.499060e-09	2.229934e+01	6.230189e+02
2.280000e-06	3.139588e-06	9.353990e-09	2.129635e+01	6.123593e+02
2.290000e-06	2.990608e-06	9.199999e-09	2.028580e+01	6.015144e+02
2.300000e-06	2.840465e-06	9.036129e-09	1.926735e+01	5.907520e+02
2.310000e-06	2.689291e-06	8.865039e-09	1.824191e+01	5.801458e+02
2.320000e-06	2.537136e-06	8.684772e-09	1.720982e+01	5.695206e+02
2.330000e-06	2.384023e-06	8.500977e-09	1.617123e+01	5.585078e+02
2.340000e-06	2.230033e-06	8.317746e-09	1.512669e+01	5.466925e+02
2.350000e-06	2.075247e-06	8.129754e-09	1.407674e+01	5.337919e+02
2.360000e-06	1.919777e-06	7.930315e-09	1.302217e+01	5.197852e+02
2.370000e-06	1.763712e-06	7.716623e-09	1.196355e+01	5.049297e+02
2.380000e-06	1.607020e-06	7.493424e-09	1.090069e+01	4.896472e+02
2.390000e-06	1.449692e-06	7.263098e-09	9.833501e+00	4.743201e+02
2.400000e-06	1.291741e-06	7.022399e-09	8.762097e+00	4.590827e+02
2.410000e-06	1.133319e-06	6.766022e-09	7.687491e+00	4.437027e+02
2.420000e-06	9.745777e-07	6.497399e-09	6.610724e+00	4.276180e+02
2.430000e-06	8.155511e-07	6.219696e-09	5.532019e+00	4.101278e+02
2.440000e-06	6.562664e-07	5.929967e-09	4.451565e+00	3.906681e+02
2.450000e-06	4.967346e-07	5.622293e-09	3.369434e+00	3.690523e+02
2.460000e-06	3.370029e-07	5.291926e-09	2.285947e+00	3.455588e+02
2.470000e-06	1.771126e-07	4.939082e-09	1.201385e+00	3.207954e+02
2.480000e-06	1.714794e-08	4.559308e-09	1.163174e-01	2.953606e+02
2.490000e-06	-1.427614e-07	4.144124e-09	-9.683746e-01	2.694116e+02
2.500000e-06	-3.025783e-07	3.685817e-09	-2.052439e+00	2.423085e+02
2.510000e-06	-4.622446e-07	3.188071e-09	-3.135483e+00	2.125000e+02
2.520000e-06	-6.217164e-07	2.644633e-09	-4.217206e+00	1.777502e+02
2.530000e-06	-7.809459e-07	2.033762e-09	-5.297287e+00	1.356881e+02
2.540000e-06	-9.399401e-07	1.322152e-09	-6.375771e+00	8.454088e+01
2.550000e-06	-1.098662e-06	4.695938e-10	-7.452407e+00	2.382981e+01
2.560000e-06	-1.256969e-06	-5.561908e-10	-8.526233e+00	-4.520540e+01
2.570000e-06	-1.414816e-06	-1.744631e-09	-9.596931e+00	-1.196179e+02
2.580000e-06	-1.572115e-06	-2.999319e-09	-1.066392e+01	-1.952337e+02
2.590000e-06	-1.728757e-06	-4.169088e-09	-1.172645e+01	-2.674844e+02
2.600000e-06	-1.884710e-06	-5.145739e-09	-1.278430e+01	-3.323641e+02
2.610000e-06	-2.039957e-06	-5.919524e-09	-1.383737e+01	-3.872360e+02
2.620000e-06	-2.194549e-06	-6.537350e-09	-1.488600e+01	-4.312655e+02
2.630000e-06	-2.348433e-06	-7.045585e-09	-1.592982e+01	-4.653721e+02
2.640000e-06	-2.501432e-06	-7.475302e-09	-1.696763e+01	-4.917457e+02
2.650000e-06	-2.653388e-06	-7.846191e-09	-1.799837e+01	-5.131015e+02
2.660000e-06	-2.804327e-06	-8.172442e-09	-1.902222e+01	-5.319165e+02
2.670000e-06	-2.954320e-06	-8.467046e-09	-2.003965e+01	-5.498734e+02
2.680000e-06	-3.103245e-06	-8.735462e-09	-2.104983e+01	-5.676494e+02
2.690000e-06	-3.251042e-06	-8.980313e-09	-2.205236e+01	-5.850613e+02
2.700000e-06	-3.397749e-06	-9.204766e-09	-2.304750e+01	-6.014585e+02
2.710000e-06	-3.543282e-06	-9.411861e-09	-2.403467e+01	-6.161877e+02
2.720000e-06	-3.687477e-06	-9.603417e-09	-2.501277e+01	-6.289523e+02
2.730000e-06	-3.830296e-06	-9.780603e-09	-2.598154e+01	-6.399517e+02
2.740000e-06	-3.971636e-06	-9.947645e-09	-2.694027e+01	-6.497842e+02
2.750000e-06	-4.111472e-06	-1.010917e-08	-2.788881e+01	-6.591866e+02
2.760000e-06	-4.249844e-06	-1.026545e-08	-2.882740e+01	-6.687399e+02
2.770000e-06	-4.386672e-06	-1.041349e-08	-2.975553e+01	-6.786655e+02
2.780000e-06	-4.521874e-06	-1.055384e-08	-3.067263e+01	-6.887886e+02
2.790000e-06	-4.655414e-06	-1.068674e-08	-3.157846e+01	-6.986666e+02
2.800000e-06	-4.787294e-06	-1.081167e-08	-3.247302e+01	-7.078160e+02
2.810000e-06	-4.917500e-06	-1.092829e-08	-3.335623e+01	-7.159333e+02
2.820000e-06	-5.045997e-06	-1.103900e-08	-3.422784e+01	-7.230203e+02
2.830000e-06	-5.172678e-06	-1.114730e-08	-3.508714e+01	-7.293681e+02
2.840000e-06	-5.297489e-06	-1.125365e-08	-3.593376e+01	-7.354183e+02
2.850000e-06	-5.420420e-06	-1.135684e-08	-3.676762e+01	-7.415707e+02
2.860000e-06	-5.541416e-06	-1.145349e-08	-3.758835e+01	-7.480209e+02
2.870000e-06	-5.660332e-06	-1.154454e-08	-3.839498e+01	-7.546973e+02
2.880000e-06	-5.777046e-06	-1.163197e-08	-3.918667e+01	-7.613167e+02
2.890000e-06	-5.891488e-06	-1.171670e-08	-3.996295e+01	-7.675283e+02
2.900000e-06	-6.003559e-06	-1.179813e-08	-4.072315e+01	-7.730773e+02
2.910000e-06	-6.113360e-06	-1.187465e-08	-4.146794e+01	-7.779194e+02
2.920000e-06	-6.221009e-06	-1.195010e-08	-4.219815e+01	-7.822357e+02
2.930000e-06	-6.326539e-06	-1.202513e-08	-4.291397e+01	-7.863497e+02
2.940000e-06	-6.429876e-06	-1.209736e-08	-4.361492e+01	-7.905840e+02
