# Temperatura_=_40.47
# Concentracion g/m^3_=_13400.0
# C_Vs_to_Am_M_A/Vsm_=_65563218390.804596
# pendiente_HvsI_1/m_=_3716.3
# ordenada_HvsI_A/m_=_1297.0
# frecuencia_Hz_=_301403.0009000069

Tiempo_(s)	Campo_(V.s)	Magnetizacion_(V.s)	Campo_(kA/m)	Magnetizacion_(A/m)
0.000000e+00	-8.440087e-06	-1.038385e-08	-5.692391e+01	-6.802373e+02
1.000000e-08	-8.436293e-06	-1.037964e-08	-5.689833e+01	-6.802161e+02
2.000000e-08	-8.429833e-06	-1.037592e-08	-5.685476e+01	-6.803499e+02
3.000000e-08	-8.420620e-06	-1.037556e-08	-5.679262e+01	-6.804919e+02
4.000000e-08	-8.408373e-06	-1.037488e-08	-5.671002e+01	-6.804637e+02
5.000000e-08	-8.393042e-06	-1.036968e-08	-5.660662e+01	-6.801325e+02
6.000000e-08	-8.374806e-06	-1.036058e-08	-5.648363e+01	-6.794688e+02
7.000000e-08	-8.354059e-06	-1.034733e-08	-5.634370e+01	-6.785603e+02
8.000000e-08	-8.330650e-06	-1.035145e-08	-5.618582e+01	-6.775752e+02
9.000000e-08	-8.303988e-06	-1.037487e-08	-5.600600e+01	-6.766919e+02
1.000000e-07	-8.273970e-06	-1.036500e-08	-5.580354e+01	-6.760251e+02
1.100000e-07	-8.240817e-06	-1.032795e-08	-5.557994e+01	-6.755788e+02
1.200000e-07	-8.204728e-06	-1.029027e-08	-5.533654e+01	-6.752464e+02
1.300000e-07	-8.166061e-06	-1.026510e-08	-5.507575e+01	-6.748562e+02
1.400000e-07	-8.125015e-06	-1.025158e-08	-5.479892e+01	-6.742415e+02
1.500000e-07	-8.081356e-06	-1.025546e-08	-5.450446e+01	-6.733057e+02
1.600000e-07	-8.034825e-06	-1.026006e-08	-5.419064e+01	-6.720540e+02
1.700000e-07	-7.985378e-06	-1.022668e-08	-5.385715e+01	-6.705816e+02
1.800000e-07	-7.932850e-06	-1.022878e-08	-5.350287e+01	-6.690235e+02
1.900000e-07	-7.877271e-06	-1.018881e-08	-5.312802e+01	-6.674920e+02
2.000000e-07	-7.818884e-06	-1.011932e-08	-5.273423e+01	-6.660285e+02
2.100000e-07	-7.757750e-06	-1.010198e-08	-5.232191e+01	-6.645910e+02
2.200000e-07	-7.693890e-06	-1.009571e-08	-5.189121e+01	-6.630817e+02
2.300000e-07	-7.627194e-06	-1.011054e-08	-5.144138e+01	-6.614001e+02
2.400000e-07	-7.557645e-06	-1.007024e-08	-5.097231e+01	-6.594958e+02
2.500000e-07	-7.485253e-06	-1.001313e-08	-5.048407e+01	-6.573961e+02
2.600000e-07	-7.409932e-06	-9.984083e-09	-4.997607e+01	-6.551955e+02
2.700000e-07	-7.331760e-06	-9.952665e-09	-4.944884e+01	-6.530105e+02
2.800000e-07	-7.250740e-06	-9.917203e-09	-4.890240e+01	-6.509227e+02
2.900000e-07	-7.167092e-06	-9.878728e-09	-4.833824e+01	-6.489352e+02
3.000000e-07	-7.081094e-06	-9.877226e-09	-4.775823e+01	-6.469638e+02
3.100000e-07	-6.992703e-06	-9.861185e-09	-4.716207e+01	-6.448692e+02
3.200000e-07	-6.901819e-06	-9.812049e-09	-4.654911e+01	-6.425159e+02
3.300000e-07	-6.808422e-06	-9.744393e-09	-4.591920e+01	-6.398316e+02
3.400000e-07	-6.712621e-06	-9.679133e-09	-4.527307e+01	-6.368415e+02
3.500000e-07	-6.614389e-06	-9.654092e-09	-4.461055e+01	-6.336583e+02
3.600000e-07	-6.513693e-06	-9.627773e-09	-4.393141e+01	-6.304350e+02
3.700000e-07	-6.410640e-06	-9.585824e-09	-4.323637e+01	-6.272968e+02
3.800000e-07	-6.305232e-06	-9.532191e-09	-4.252545e+01	-6.242847e+02
3.900000e-07	-6.197501e-06	-9.484698e-09	-4.179886e+01	-6.213356e+02
4.000000e-07	-6.087641e-06	-9.430818e-09	-4.105791e+01	-6.183082e+02
4.100000e-07	-5.975645e-06	-9.361116e-09	-4.030256e+01	-6.150442e+02
4.200000e-07	-5.861306e-06	-9.298286e-09	-3.953140e+01	-6.114382e+02
4.300000e-07	-5.744615e-06	-9.252044e-09	-3.874439e+01	-6.074845e+02
4.400000e-07	-5.625768e-06	-9.217959e-09	-3.794282e+01	-6.032798e+02
4.500000e-07	-5.504855e-06	-9.163650e-09	-3.712733e+01	-5.989786e+02
4.600000e-07	-5.381951e-06	-9.086980e-09	-3.629841e+01	-5.947215e+02
4.700000e-07	-5.257138e-06	-9.008036e-09	-3.545661e+01	-5.905676e+02
4.800000e-07	-5.130474e-06	-8.939625e-09	-3.460233e+01	-5.864618e+02
4.900000e-07	-5.002006e-06	-8.872164e-09	-3.373588e+01	-5.822537e+02
5.000000e-07	-4.871689e-06	-8.797258e-09	-3.285696e+01	-5.777601e+02
5.100000e-07	-4.739583e-06	-8.721248e-09	-3.196597e+01	-5.728442e+02
5.200000e-07	-4.605791e-06	-8.650282e-09	-3.106362e+01	-5.674773e+02
5.300000e-07	-4.470356e-06	-8.575827e-09	-3.015019e+01	-5.617521e+02
5.400000e-07	-4.333257e-06	-8.487105e-09	-2.922552e+01	-5.558416e+02
5.500000e-07	-4.194477e-06	-8.389966e-09	-2.828952e+01	-5.499193e+02
5.600000e-07	-4.054035e-06	-8.296929e-09	-2.734232e+01	-5.440762e+02
5.700000e-07	-3.911920e-06	-8.208621e-09	-2.638383e+01	-5.382723e+02
5.800000e-07	-3.768214e-06	-8.109914e-09	-2.541461e+01	-5.323459e+02
5.900000e-07	-3.623118e-06	-8.001387e-09	-2.443601e+01	-5.260793e+02
6.000000e-07	-3.476815e-06	-7.895562e-09	-2.344927e+01	-5.192933e+02
6.100000e-07	-3.329338e-06	-7.793863e-09	-2.245462e+01	-5.119276e+02
6.200000e-07	-3.180710e-06	-7.687084e-09	-2.145220e+01	-5.040705e+02
6.300000e-07	-3.031033e-06	-7.569421e-09	-2.044271e+01	-4.959192e+02
6.400000e-07	-2.880324e-06	-7.444826e-09	-1.942626e+01	-4.876870e+02
6.500000e-07	-2.728559e-06	-7.316599e-09	-1.840268e+01	-4.794958e+02
6.600000e-07	-2.575820e-06	-7.179553e-09	-1.737254e+01	-4.713031e+02
6.700000e-07	-2.422157e-06	-7.033573e-09	-1.633617e+01	-4.628996e+02
6.800000e-07	-2.267526e-06	-6.886009e-09	-1.529326e+01	-4.539841e+02
6.900000e-07	-2.112002e-06	-6.741458e-09	-1.424433e+01	-4.442861e+02
7.000000e-07	-1.955749e-06	-6.592532e-09	-1.319049e+01	-4.336842e+02
7.100000e-07	-1.798883e-06	-6.431145e-09	-1.213251e+01	-4.222626e+02
7.200000e-07	-1.641456e-06	-6.257485e-09	-1.107075e+01	-4.102765e+02
7.300000e-07	-1.483440e-06	-6.074001e-09	-1.000501e+01	-3.980315e+02
7.400000e-07	-1.324773e-06	-5.881841e-09	-8.934895e+00	-3.857247e+02
7.500000e-07	-1.165542e-06	-5.677475e-09	-7.860962e+00	-3.733177e+02
7.600000e-07	-1.005909e-06	-5.462312e-09	-6.784323e+00	-3.605026e+02
7.700000e-07	-8.459152e-07	-5.239298e-09	-5.705250e+00	-3.467880e+02
7.800000e-07	-6.855705e-07	-5.011237e-09	-4.623810e+00	-3.316779e+02
7.900000e-07	-5.250029e-07	-4.771896e-09	-3.540866e+00	-3.148718e+02
8.000000e-07	-3.643139e-07	-4.509265e-09	-2.457104e+00	-2.963948e+02
8.100000e-07	-2.035044e-07	-4.220341e-09	-1.372529e+00	-2.765813e+02
8.200000e-07	-4.262548e-08	-3.908881e-09	-2.874863e-01	-2.558949e+02
8.300000e-07	1.182640e-07	-3.576017e-09	7.976281e-01	-2.346307e+02
8.400000e-07	2.791003e-07	-3.217343e-09	1.882384e+00	-2.126087e+02
8.500000e-07	4.398533e-07	-2.829041e-09	2.966578e+00	-1.889890e+02
8.600000e-07	6.005193e-07	-2.404453e-09	4.050184e+00	-1.623115e+02
8.700000e-07	7.610021e-07	-1.929002e-09	5.132556e+00	-1.307946e+02
8.800000e-07	9.212126e-07	-1.377827e-09	6.213091e+00	-9.283194e+01
8.900000e-07	1.080993e-06	-7.246577e-10	7.290726e+00	-4.754934e+01
9.000000e-07	1.240232e-06	5.136707e-11	8.364710e+00	4.757127e+00
9.100000e-07	1.398930e-06	9.499975e-10	9.435042e+00	6.245621e+01
9.200000e-07	1.557126e-06	1.922254e-09	1.050199e+01	1.227687e+02
9.300000e-07	1.714836e-06	2.874466e-09	1.156566e+01	1.822757e+02
9.400000e-07	1.871990e-06	3.717046e-09	1.262558e+01	2.376148e+02
9.500000e-07	2.028565e-06	4.411494e-09	1.368159e+01	2.861675e+02
9.600000e-07	2.184436e-06	4.972275e-09	1.473286e+01	3.265448e+02
9.700000e-07	2.339384e-06	5.432044e-09	1.577790e+01	3.587406e+02
9.800000e-07	2.493465e-06	5.816618e-09	1.681710e+01	3.839282e+02
9.900000e-07	2.646735e-06	6.143044e-09	1.785083e+01	4.039848e+02
1.000000e-06	2.799022e-06	6.425113e-09	1.887792e+01	4.209075e+02
1.010000e-06	2.950237e-06	6.674526e-09	1.989779e+01	4.363020e+02
1.020000e-06	3.100364e-06	6.898834e-09	2.091031e+01	4.510862e+02
1.030000e-06	3.249364e-06	7.101630e-09	2.191524e+01	4.654652e+02
1.040000e-06	3.397204e-06	7.287329e-09	2.291234e+01	4.791404e+02
1.050000e-06	3.543896e-06	7.462118e-09	2.390170e+01	4.916389e+02
1.060000e-06	3.689330e-06	7.628289e-09	2.488257e+01	5.026287e+02
1.070000e-06	3.833359e-06	7.781391e-09	2.585397e+01	5.121051e+02
1.080000e-06	3.975972e-06	7.917295e-09	2.681582e+01	5.203995e+02
1.090000e-06	4.117117e-06	8.041056e-09	2.776777e+01	5.280362e+02
1.100000e-06	4.256694e-06	8.163433e-09	2.870915e+01	5.355171e+02
1.110000e-06	4.394661e-06	8.283328e-09	2.963966e+01	5.431331e+02
1.120000e-06	4.530956e-06	8.393445e-09	3.055890e+01	5.508803e+02
1.130000e-06	4.665538e-06	8.496443e-09	3.146658e+01	5.585058e+02
1.140000e-06	4.798466e-06	8.596873e-09	3.236311e+01	5.656543e+02
1.150000e-06	4.929736e-06	8.694832e-09	3.324846e+01	5.720443e+02
1.160000e-06	5.059274e-06	8.783455e-09	3.412212e+01	5.775988e+02
1.170000e-06	5.186970e-06	8.862496e-09	3.498337e+01	5.824773e+02
1.180000e-06	5.312807e-06	8.938364e-09	3.583207e+01	5.870037e+02
1.190000e-06	5.436817e-06	9.013472e-09	3.666845e+01	5.915266e+02
1.200000e-06	5.558944e-06	9.084888e-09	3.749214e+01	5.962764e+02
1.210000e-06	5.678990e-06	9.151552e-09	3.830178e+01	6.012799e+02
1.220000e-06	5.796878e-06	9.218261e-09	3.909687e+01	6.063665e+02
1.230000e-06	5.912609e-06	9.286615e-09	3.987741e+01	6.112573e+02
1.240000e-06	6.026046e-06	9.352067e-09	4.064249e+01	6.156965e+02
1.250000e-06	6.137251e-06	9.411024e-09	4.139251e+01	6.195646e+02
1.260000e-06	6.246315e-06	9.466575e-09	4.212809e+01	6.229278e+02
1.270000e-06	6.353214e-06	9.521626e-09	4.284906e+01	6.260033e+02
1.280000e-06	6.457854e-06	9.575055e-09	4.355480e+01	6.290611e+02
1.290000e-06	6.560137e-06	9.624357e-09	4.424465e+01	6.323052e+02
1.300000e-06	6.660042e-06	9.669445e-09	4.491845e+01	6.357878e+02
1.310000e-06	6.757494e-06	9.713671e-09	4.557572e+01	6.393921e+02
1.320000e-06	6.852495e-06	9.759886e-09	4.621645e+01	6.428879e+02
1.330000e-06	6.945145e-06	9.805143e-09	4.684133e+01	6.460358e+02
1.340000e-06	7.035425e-06	9.848531e-09	4.745021e+01	6.486915e+02
1.350000e-06	7.123195e-06	9.891986e-09	4.804218e+01	6.508666e+02
1.360000e-06	7.208458e-06	9.932501e-09	4.861723e+01	6.527214e+02
1.370000e-06	7.291217e-06	9.965262e-09	4.917540e+01	6.544932e+02
1.380000e-06	7.371336e-06	9.992054e-09	4.971575e+01	6.563953e+02
1.390000e-06	7.448743e-06	1.001900e-08	5.023783e+01	6.585277e+02
1.400000e-06	7.523386e-06	1.004837e-08	5.074125e+01	6.608409e+02
1.410000e-06	7.595267e-06	1.007764e-08	5.122605e+01	6.631636e+02
1.420000e-06	7.664455e-06	1.010811e-08	5.169269e+01	6.652825e+02
1.430000e-06	7.730887e-06	1.014318e-08	5.214074e+01	6.670373e+02
1.440000e-06	7.794577e-06	1.017625e-08	5.257029e+01	6.683897e+02
1.450000e-06	7.855620e-06	1.019739e-08	5.298199e+01	6.694374e+02
1.460000e-06	7.913900e-06	1.020844e-08	5.337506e+01	6.703681e+02
1.470000e-06	7.969316e-06	1.022206e-08	5.374882e+01	6.713761e+02
1.480000e-06	8.021649e-06	1.024099e-08	5.410177e+01	6.725774e+02
1.490000e-06	8.070717e-06	1.025769e-08	5.443271e+01	6.739619e+02
1.500000e-06	8.116819e-06	1.027168e-08	5.474364e+01	6.754005e+02
1.510000e-06	8.160095e-06	1.029016e-08	5.503552e+01	6.767058e+02
1.520000e-06	8.200437e-06	1.031316e-08	5.530760e+01	6.777157e+02
1.530000e-06	8.237938e-06	1.033260e-08	5.556053e+01	6.783658e+02
1.540000e-06	8.272575e-06	1.034118e-08	5.579414e+01	6.787165e+02
1.550000e-06	8.304286e-06	1.034333e-08	5.600801e+01	6.789265e+02
1.560000e-06	8.333164e-06	1.034814e-08	5.620278e+01	6.791821e+02
1.570000e-06	8.359038e-06	1.035541e-08	5.637728e+01	6.796165e+02
1.580000e-06	8.381869e-06	1.036137e-08	5.653127e+01	6.802528e+02
1.590000e-06	8.401876e-06	1.036834e-08	5.666620e+01	6.809952e+02
1.600000e-06	8.418936e-06	1.038138e-08	5.678126e+01	6.816737e+02
1.610000e-06	8.432883e-06	1.039373e-08	5.687533e+01	6.821189e+02
1.620000e-06	8.443615e-06	1.039642e-08	5.694771e+01	6.822373e+02
1.630000e-06	8.451178e-06	1.039334e-08	5.699872e+01	6.820519e+02
1.640000e-06	8.455828e-06	1.039225e-08	5.703008e+01	6.816913e+02
1.650000e-06	8.457521e-06	1.039126e-08	5.704150e+01	6.813334e+02
1.660000e-06	8.456312e-06	1.038530e-08	5.703335e+01	6.811269e+02
1.670000e-06	8.452316e-06	1.037784e-08	5.700640e+01	6.811265e+02
1.680000e-06	8.445462e-06	1.037903e-08	5.696017e+01	6.812691e+02
1.690000e-06	8.435771e-06	1.038133e-08	5.689480e+01	6.814010e+02
1.700000e-06	8.423065e-06	1.037966e-08	5.680911e+01	6.813449e+02
1.710000e-06	8.407468e-06	1.037710e-08	5.670391e+01	6.809771e+02
1.720000e-06	8.389382e-06	1.037842e-08	5.658194e+01	6.802808e+02
1.730000e-06	8.368699e-06	1.037006e-08	5.644244e+01	6.793549e+02
1.740000e-06	8.344940e-06	1.031350e-08	5.628220e+01	6.783724e+02
1.750000e-06	8.317378e-06	1.027143e-08	5.609631e+01	6.775083e+02
1.760000e-06	8.285930e-06	1.027333e-08	5.588421e+01	6.768668e+02
1.770000e-06	8.251575e-06	1.030064e-08	5.565250e+01	6.764392e+02
1.780000e-06	8.214785e-06	1.032967e-08	5.540437e+01	6.761090e+02
1.790000e-06	8.175639e-06	1.033456e-08	5.514035e+01	6.757017e+02
1.800000e-06	8.134478e-06	1.028781e-08	5.486274e+01	6.750553e+02
1.810000e-06	8.090822e-06	1.024623e-08	5.456831e+01	6.740832e+02
1.820000e-06	8.044129e-06	1.027097e-08	5.425339e+01	6.728019e+02
1.830000e-06	7.994526e-06	1.024466e-08	5.391884e+01	6.713134e+02
1.840000e-06	7.941579e-06	1.024113e-08	5.356174e+01	6.697534e+02
1.850000e-06	7.885538e-06	1.022864e-08	5.318378e+01	6.682285e+02
1.860000e-06	7.826815e-06	1.021098e-08	5.278772e+01	6.667709e+02
1.870000e-06	7.765149e-06	1.019996e-08	5.237182e+01	6.653306e+02
1.880000e-06	7.700788e-06	1.010932e-08	5.193774e+01	6.638069e+02
1.890000e-06	7.633594e-06	1.008504e-08	5.148455e+01	6.621023e+02
1.900000e-06	7.563461e-06	1.005848e-08	5.101154e+01	6.601741e+02
1.910000e-06	7.490400e-06	1.006391e-08	5.051878e+01	6.580579e+02
1.920000e-06	7.414393e-06	1.006213e-08	5.000615e+01	6.558532e+02
1.930000e-06	7.335654e-06	9.998679e-09	4.947510e+01	6.536756e+02
1.940000e-06	7.254383e-06	9.969479e-09	4.892697e+01	6.515998e+02
1.950000e-06	7.170647e-06	9.902049e-09	4.836222e+01	6.496191e+02
1.960000e-06	7.084140e-06	9.879856e-09	4.777877e+01	6.476413e+02
1.970000e-06	6.995035e-06	9.836706e-09	4.717780e+01	6.455246e+02
1.980000e-06	6.903547e-06	9.804809e-09	4.656077e+01	6.431374e+02
1.990000e-06	6.809530e-06	9.796218e-09	4.592667e+01	6.404171e+02
2.000000e-06	6.713129e-06	9.747603e-09	4.527650e+01	6.373993e+02
2.010000e-06	6.614414e-06	9.704457e-09	4.461072e+01	6.342042e+02
2.020000e-06	6.513333e-06	9.618370e-09	4.392898e+01	6.309849e+02
2.030000e-06	6.409794e-06	9.573366e-09	4.323066e+01	6.278597e+02
2.040000e-06	6.303972e-06	9.534981e-09	4.251695e+01	6.248589e+02
2.050000e-06	6.195980e-06	9.506334e-09	4.178860e+01	6.219088e+02
2.060000e-06	6.085779e-06	9.457444e-09	4.104536e+01	6.188629e+02
2.070000e-06	5.973273e-06	9.392821e-09	4.028656e+01	6.155655e+02
2.080000e-06	5.858379e-06	9.339040e-09	3.951166e+01	6.119203e+02
2.090000e-06	5.741200e-06	9.270441e-09	3.872135e+01	6.079333e+02
2.100000e-06	5.621838e-06	9.207342e-09	3.791632e+01	6.037102e+02
2.110000e-06	5.500500e-06	9.141540e-09	3.709796e+01	5.994077e+02
2.120000e-06	5.377198e-06	9.094985e-09	3.626635e+01	5.951604e+02
2.130000e-06	5.251975e-06	9.039490e-09	3.542179e+01	5.910160e+02
2.140000e-06	5.124874e-06	8.972666e-09	3.456456e+01	5.869075e+02
2.150000e-06	4.995930e-06	8.887668e-09	3.369490e+01	5.826771e+02
2.160000e-06	4.865193e-06	8.811431e-09	3.281315e+01	5.781430e+02
2.170000e-06	4.732692e-06	8.735408e-09	3.191950e+01	5.731776e+02
2.180000e-06	4.598506e-06	8.659513e-09	3.101449e+01	5.677657e+02
2.190000e-06	4.462704e-06	8.580874e-09	3.009857e+01	5.620114e+02
2.200000e-06	4.325177e-06	8.502965e-09	2.917103e+01	5.560918e+02
2.210000e-06	4.185923e-06	8.422099e-09	2.823183e+01	5.501754e+02
2.220000e-06	4.045117e-06	8.326148e-09	2.728217e+01	5.443406e+02
2.230000e-06	3.902796e-06	8.224996e-09	2.632229e+01	5.385328e+02
2.240000e-06	3.759111e-06	8.119657e-09	2.535321e+01	5.325802e+02
2.250000e-06	3.614145e-06	8.024285e-09	2.437550e+01	5.262647e+02
2.260000e-06	3.467908e-06	7.924384e-09	2.338920e+01	5.194165e+02
2.270000e-06	3.320404e-06	7.818467e-09	2.239437e+01	5.119912e+02
2.280000e-06	3.171711e-06	7.703735e-09	2.139151e+01	5.040917e+02
2.290000e-06	3.021803e-06	7.590181e-09	2.038046e+01	4.959220e+02
2.300000e-06	2.870788e-06	7.471882e-09	1.936194e+01	4.876906e+02
2.310000e-06	2.718874e-06	7.343075e-09	1.833736e+01	4.795042e+02
2.320000e-06	2.566009e-06	7.206723e-09	1.730637e+01	4.713011e+02
2.330000e-06	2.412210e-06	7.069673e-09	1.626908e+01	4.628574e+02
2.340000e-06	2.257487e-06	6.930000e-09	1.522555e+01	4.538690e+02
2.350000e-06	2.101911e-06	6.781137e-09	1.417628e+01	4.440763e+02
2.360000e-06	1.945606e-06	6.624226e-09	1.312208e+01	4.333785e+02
2.370000e-06	1.788589e-06	6.461757e-09	1.206309e+01	4.218818e+02
2.380000e-06	1.630864e-06	6.294744e-09	1.099932e+01	4.098537e+02
2.390000e-06	1.472547e-06	6.113335e-09	9.931549e+00	3.975957e+02
2.400000e-06	1.313700e-06	5.918448e-09	8.860210e+00	3.852846e+02
2.410000e-06	1.154395e-06	5.712470e-09	7.785780e+00	3.728527e+02
2.420000e-06	9.947473e-07	5.503257e-09	6.709044e+00	3.599663e+02
2.430000e-06	8.348003e-07	5.284565e-09	5.630285e+00	3.461237e+02
2.440000e-06	6.745738e-07	5.050909e-09	4.549643e+00	3.308409e+02
2.450000e-06	5.140706e-07	4.802513e-09	3.467134e+00	3.138481e+02
2.460000e-06	3.534018e-07	4.538932e-09	2.383508e+00	2.952072e+02
2.470000e-06	1.926489e-07	4.257438e-09	1.299315e+00	2.752780e+02
2.480000e-06	3.180534e-08	3.949427e-09	2.145102e-01	2.545214e+02
2.490000e-06	-1.289926e-07	3.611862e-09	-8.699866e-01	2.331951e+02
2.500000e-06	-2.896508e-07	3.244781e-09	-1.953541e+00	2.110540e+02
2.510000e-06	-4.502383e-07	2.852765e-09	-3.036619e+00	1.871852e+02
2.520000e-06	-6.107203e-07	2.427020e-09	-4.118985e+00	1.600757e+02
2.530000e-06	-7.709966e-07	1.946027e-09	-5.199964e+00	1.279364e+02
2.540000e-06	-9.310029e-07	1.389819e-09	-6.279121e+00	8.921327e+01
2.550000e-06	-1.090656e-06	7.389621e-10	-7.355894e+00	4.314030e+01
2.560000e-06	-1.249915e-06	-3.295906e-11	-8.430014e+00	-9.845350e+00
2.570000e-06	-1.408720e-06	-9.355935e-10	-9.501073e+00	-6.797415e+01
2.580000e-06	-1.567025e-06	-1.920395e-09	-1.056875e+01	-1.283693e+02
2.590000e-06	-1.724752e-06	-2.884357e-09	-1.163254e+01	-1.875831e+02
2.600000e-06	-1.881757e-06	-3.730984e-09	-1.269145e+01	-2.423019e+02
2.610000e-06	-2.038052e-06	-4.425403e-09	-1.374558e+01	-2.900209e+02
2.620000e-06	-2.193597e-06	-4.986486e-09	-1.479465e+01	-3.294985e+02
2.630000e-06	-2.348293e-06	-5.446108e-09	-1.583799e+01	-3.608705e+02
2.640000e-06	-2.502073e-06	-5.827932e-09	-1.687516e+01	-3.854118e+02
2.650000e-06	-2.654904e-06	-6.152960e-09	-1.790592e+01	-4.050406e+02
2.660000e-06	-2.806836e-06	-6.440083e-09	-1.893062e+01	-4.217337e+02
2.670000e-06	-2.957828e-06	-6.698934e-09	-1.994898e+01	-4.370325e+02
2.680000e-06	-3.107738e-06	-6.931150e-09	-2.096005e+01	-4.517750e+02
2.690000e-06	-3.256522e-06	-7.138931e-09	-2.196352e+01	-4.660992e+02
2.700000e-06	-3.404105e-06	-7.325780e-09	-2.295888e+01	-4.796710e+02
2.710000e-06	-3.550373e-06	-7.497155e-09	-2.394538e+01	-4.920192e+02
2.720000e-06	-3.695404e-06	-7.655836e-09	-2.492354e+01	-5.028409e+02
2.730000e-06	-3.839198e-06	-7.800815e-09	-2.589335e+01	-5.121700e+02
2.740000e-06	-3.981576e-06	-7.936179e-09	-2.685362e+01	-5.203677e+02
2.750000e-06	-4.122455e-06	-8.069270e-09	-2.780378e+01	-5.279664e+02
2.760000e-06	-4.261768e-06	-8.198689e-09	-2.874337e+01	-5.354531e+02
2.770000e-06	-4.399405e-06	-8.315777e-09	-2.967165e+01	-5.430888e+02
2.780000e-06	-4.535414e-06	-8.422719e-09	-3.058896e+01	-5.508386e+02
2.790000e-06	-4.669814e-06	-8.526855e-09	-3.149542e+01	-5.584304e+02
2.800000e-06	-4.802540e-06	-8.627180e-09	-3.239059e+01	-5.655086e+02
2.810000e-06	-4.933520e-06	-8.717505e-09	-3.327398e+01	-5.718088e+02
2.820000e-06	-5.062784e-06	-8.797486e-09	-3.414580e+01	-5.772796e+02
2.830000e-06	-5.190284e-06	-8.876326e-09	-3.500571e+01	-5.821034e+02
2.840000e-06	-5.315951e-06	-8.958036e-09	-3.585327e+01	-5.866141e+02
2.850000e-06	-5.439784e-06	-9.040144e-09	-3.668846e+01	-5.911538e+02
2.860000e-06	-5.561649e-06	-9.118429e-09	-3.751037e+01	-5.959336e+02
2.870000e-06	-5.681461e-06	-9.192584e-09	-3.831844e+01	-6.009574e+02
2.880000e-06	-5.799135e-06	-9.264779e-09	-3.911209e+01	-6.060373e+02
2.890000e-06	-5.914472e-06	-9.333594e-09	-3.988998e+01	-6.108906e+02
2.900000e-06	-6.027392e-06	-9.394451e-09	-4.065156e+01	-6.152715e+02
2.910000e-06	-6.137959e-06	-9.447900e-09	-4.139728e+01	-6.190794e+02
2.920000e-06	-6.246302e-06	-9.503394e-09	-4.212800e+01	-6.223997e+02
2.930000e-06	-6.352567e-06	-9.562254e-09	-4.284470e+01	-6.254609e+02
2.940000e-06	-6.456642e-06	-9.618461e-09	-4.354663e+01	-6.285313e+02
