# Temperatura_=_62.62
# Concentracion g/m^3_=_13400.0
# C_Vs_to_Am_M_A/Vsm_=_65563218390.804596
# pendiente_HvsI_1/m_=_3716.3
# ordenada_HvsI_A/m_=_1297.0
# frecuencia_Hz_=_301400.5847681489

Tiempo_(s)	Campo_(V.s)	Magnetizacion_(V.s)	Campo_(kA/m)	Magnetizacion_(A/m)
0.000000e+00	-8.402054e-06	-1.300495e-08	-5.692166e+01	-8.536305e+02
1.000000e-08	-8.398148e-06	-1.300036e-08	-5.689520e+01	-8.536252e+02
2.000000e-08	-8.391509e-06	-1.299318e-08	-5.685022e+01	-8.537366e+02
3.000000e-08	-8.382135e-06	-1.298547e-08	-5.678671e+01	-8.537551e+02
4.000000e-08	-8.369853e-06	-1.297922e-08	-5.670350e+01	-8.534684e+02
5.000000e-08	-8.354498e-06	-1.297276e-08	-5.659948e+01	-8.527538e+02
6.000000e-08	-8.336211e-06	-1.296038e-08	-5.647559e+01	-8.516312e+02
7.000000e-08	-8.315413e-06	-1.294057e-08	-5.633469e+01	-8.502547e+02
8.000000e-08	-8.291936e-06	-1.294526e-08	-5.617564e+01	-8.488469e+02
9.000000e-08	-8.265146e-06	-1.297285e-08	-5.599414e+01	-8.476054e+02
1.000000e-07	-8.234963e-06	-1.296179e-08	-5.578966e+01	-8.466215e+02
1.100000e-07	-8.201694e-06	-1.291324e-08	-5.556428e+01	-8.458456e+02
1.200000e-07	-8.165563e-06	-1.286623e-08	-5.531949e+01	-8.451127e+02
1.300000e-07	-8.126869e-06	-1.283775e-08	-5.505736e+01	-8.442153e+02
1.400000e-07	-8.085863e-06	-1.281098e-08	-5.477955e+01	-8.429907e+02
1.500000e-07	-8.042294e-06	-1.279383e-08	-5.448438e+01	-8.413845e+02
1.600000e-07	-7.995855e-06	-1.278886e-08	-5.416977e+01	-8.394634e+02
1.700000e-07	-7.946551e-06	-1.275638e-08	-5.383575e+01	-8.373739e+02
1.800000e-07	-7.894177e-06	-1.275106e-08	-5.348093e+01	-8.352685e+02
1.900000e-07	-7.838690e-06	-1.271218e-08	-5.310502e+01	-8.332322e+02
2.000000e-07	-7.780370e-06	-1.263215e-08	-5.270992e+01	-8.312442e+02
2.100000e-07	-7.719318e-06	-1.258965e-08	-5.229630e+01	-8.291918e+02
2.200000e-07	-7.655584e-06	-1.256761e-08	-5.186453e+01	-8.269281e+02
2.300000e-07	-7.589040e-06	-1.257522e-08	-5.141370e+01	-8.243465e+02
2.400000e-07	-7.519614e-06	-1.252957e-08	-5.094336e+01	-8.214365e+02
2.500000e-07	-7.447397e-06	-1.246207e-08	-5.045412e+01	-8.182943e+02
2.600000e-07	-7.372285e-06	-1.243174e-08	-4.994525e+01	-8.150813e+02
2.700000e-07	-7.294316e-06	-1.238997e-08	-4.941703e+01	-8.119498e+02
2.800000e-07	-7.213530e-06	-1.232774e-08	-4.886973e+01	-8.089694e+02
2.900000e-07	-7.130103e-06	-1.226150e-08	-4.830453e+01	-8.060883e+02
3.000000e-07	-7.044323e-06	-1.223564e-08	-4.772340e+01	-8.031492e+02
3.100000e-07	-6.956162e-06	-1.220967e-08	-4.712613e+01	-7.999548e+02
3.200000e-07	-6.865534e-06	-1.215808e-08	-4.651215e+01	-7.963534e+02
3.300000e-07	-6.772458e-06	-1.208176e-08	-4.588159e+01	-7.923084e+02
3.400000e-07	-6.676995e-06	-1.199219e-08	-4.523485e+01	-7.879177e+02
3.500000e-07	-6.579082e-06	-1.193924e-08	-4.457151e+01	-7.833737e+02
3.600000e-07	-6.478701e-06	-1.188840e-08	-4.389146e+01	-7.788797e+02
3.700000e-07	-6.375975e-06	-1.182256e-08	-4.319552e+01	-7.745588e+02
3.800000e-07	-6.270938e-06	-1.175213e-08	-4.248392e+01	-7.703959e+02
3.900000e-07	-6.163606e-06	-1.169329e-08	-4.175678e+01	-7.662400e+02
4.000000e-07	-6.054111e-06	-1.162863e-08	-4.101498e+01	-7.618662e+02
4.100000e-07	-5.942486e-06	-1.153694e-08	-4.025875e+01	-7.570736e+02
4.200000e-07	-5.828604e-06	-1.144257e-08	-3.948722e+01	-7.517730e+02
4.300000e-07	-5.712367e-06	-1.136406e-08	-3.869975e+01	-7.460280e+02
4.400000e-07	-5.593937e-06	-1.130043e-08	-3.789742e+01	-7.400279e+02
4.500000e-07	-5.473475e-06	-1.122544e-08	-3.708132e+01	-7.340036e+02
4.600000e-07	-5.351025e-06	-1.113203e-08	-3.625176e+01	-7.281224e+02
4.700000e-07	-5.226660e-06	-1.102966e-08	-3.540922e+01	-7.224091e+02
4.800000e-07	-5.100441e-06	-1.093405e-08	-3.455412e+01	-7.167287e+02
4.900000e-07	-4.972360e-06	-1.083959e-08	-3.368641e+01	-7.108408e+02
5.000000e-07	-4.842443e-06	-1.073700e-08	-3.280625e+01	-7.045034e+02
5.100000e-07	-4.710818e-06	-1.062928e-08	-3.191453e+01	-6.975802e+02
5.200000e-07	-4.577495e-06	-1.052709e-08	-3.101130e+01	-6.901033e+02
5.300000e-07	-4.442592e-06	-1.042652e-08	-3.009737e+01	-6.822612e+02
5.400000e-07	-4.306130e-06	-1.031016e-08	-2.917287e+01	-6.743151e+02
5.500000e-07	-4.168002e-06	-1.017964e-08	-2.823710e+01	-6.664779e+02
5.600000e-07	-4.028268e-06	-1.005140e-08	-2.729043e+01	-6.588111e+02
5.700000e-07	-3.886881e-06	-9.934942e-09	-2.633258e+01	-6.511848e+02
5.800000e-07	-3.743890e-06	-9.814991e-09	-2.536385e+01	-6.433247e+02
5.900000e-07	-3.599449e-06	-9.679728e-09	-2.438530e+01	-6.349255e+02
6.000000e-07	-3.453714e-06	-9.535819e-09	-2.339799e+01	-6.257847e+02
6.100000e-07	-3.306759e-06	-9.393662e-09	-2.240240e+01	-6.158945e+02
6.200000e-07	-3.158622e-06	-9.249070e-09	-2.139881e+01	-6.054499e+02
6.300000e-07	-3.009411e-06	-9.091267e-09	-2.038795e+01	-5.947617e+02
6.400000e-07	-2.859199e-06	-8.924342e-09	-1.937030e+01	-5.841122e+02
6.500000e-07	-2.708032e-06	-8.759363e-09	-1.834619e+01	-5.736138e+02
6.600000e-07	-2.555907e-06	-8.592593e-09	-1.731558e+01	-5.631366e+02
6.700000e-07	-2.402895e-06	-8.414657e-09	-1.627897e+01	-5.523433e+02
6.800000e-07	-2.249046e-06	-8.225626e-09	-1.523669e+01	-5.408212e+02
6.900000e-07	-2.094294e-06	-8.032240e-09	-1.418828e+01	-5.282586e+02
7.000000e-07	-1.938708e-06	-7.836606e-09	-1.313422e+01	-5.145869e+02
7.100000e-07	-1.782472e-06	-7.633055e-09	-1.207577e+01	-5.000189e+02
7.200000e-07	-1.625587e-06	-7.415729e-09	-1.101292e+01	-4.849580e+02
7.300000e-07	-1.468052e-06	-7.186615e-09	-9.945656e+00	-4.698057e+02
7.400000e-07	-1.309984e-06	-6.951514e-09	-8.874788e+00	-4.547484e+02
7.500000e-07	-1.151440e-06	-6.706014e-09	-7.800696e+00	-4.396189e+02
7.600000e-07	-9.924139e-07	-6.444294e-09	-6.723338e+00	-4.239036e+02
7.700000e-07	-8.330291e-07	-6.169151e-09	-5.643548e+00	-4.069101e+02
7.800000e-07	-6.734047e-07	-5.884327e-09	-4.562136e+00	-3.880332e+02
7.900000e-07	-5.135778e-07	-5.583892e-09	-3.479352e+00	-3.670105e+02
8.000000e-07	-3.536235e-07	-5.255234e-09	-2.395704e+00	-3.440418e+02
8.100000e-07	-1.935957e-07	-4.897792e-09	-1.311559e+00	-3.196942e+02
8.200000e-07	-3.349545e-08	-4.519704e-09	-2.269227e-01	-2.945947e+02
8.300000e-07	1.267117e-07	-4.119462e-09	8.584379e-01	-2.690061e+02
8.400000e-07	2.869097e-07	-3.684051e-09	1.943736e+00	-2.424481e+02
8.500000e-07	4.469388e-07	-3.201849e-09	3.027890e+00	-2.135346e+02
8.600000e-07	6.068299e-07	-2.667971e-09	4.111110e+00	-1.801388e+02
8.700000e-07	7.665392e-07	-2.067576e-09	5.193097e+00	-1.398915e+02
8.800000e-07	9.259344e-07	-1.368961e-09	6.272957e+00	-9.089197e+01
8.900000e-07	1.084962e-06	-5.322758e-10	7.350323e+00	-3.242008e+01
9.000000e-07	1.243529e-06	4.722913e-10	8.424575e+00	3.458559e+01
9.100000e-07	1.401563e-06	1.629523e-09	9.495212e+00	1.074632e+02
9.200000e-07	1.559122e-06	2.850572e-09	1.056264e+01	1.822326e+02
9.300000e-07	1.716282e-06	3.996457e-09	1.162735e+01	2.543790e+02
9.400000e-07	1.872883e-06	4.967411e-09	1.268828e+01	3.197982e+02
9.500000e-07	2.028748e-06	5.746623e-09	1.374422e+01	3.756365e+02
9.600000e-07	2.183826e-06	6.367744e-09	1.479484e+01	4.207866e+02
9.700000e-07	2.338051e-06	6.876216e-09	1.583966e+01	4.559139e+02
9.800000e-07	2.491382e-06	7.305235e-09	1.687845e+01	4.830334e+02
9.900000e-07	2.643823e-06	7.674549e-09	1.791119e+01	5.047961e+02
1.000000e-06	2.795342e-06	7.995609e-09	1.893769e+01	5.237198e+02
1.010000e-06	2.945814e-06	8.278887e-09	1.995710e+01	5.415971e+02
1.020000e-06	3.095205e-06	8.536248e-09	2.096918e+01	5.592339e+02
1.030000e-06	3.243497e-06	8.775930e-09	2.197382e+01	5.765477e+02
1.040000e-06	3.390586e-06	9.000337e-09	2.297031e+01	5.929333e+02
1.050000e-06	3.536496e-06	9.208730e-09	2.395881e+01	6.077248e+02
1.060000e-06	3.681235e-06	9.402642e-09	2.493938e+01	6.205752e+02
1.070000e-06	3.824656e-06	9.581295e-09	2.591102e+01	6.316261e+02
1.080000e-06	3.966611e-06	9.746928e-09	2.687272e+01	6.414385e+02
1.090000e-06	4.107043e-06	9.905709e-09	2.782411e+01	6.507470e+02
1.100000e-06	4.245897e-06	1.005882e-08	2.876481e+01	6.601624e+02
1.110000e-06	4.383104e-06	1.020600e-08	2.969436e+01	6.699520e+02
1.120000e-06	4.518631e-06	1.034757e-08	3.061251e+01	6.799805e+02
1.130000e-06	4.652530e-06	1.048311e-08	3.151964e+01	6.898227e+02
1.140000e-06	4.784821e-06	1.061322e-08	3.241588e+01	6.989842e+02
1.150000e-06	4.915374e-06	1.073743e-08	3.330034e+01	7.071311e+02
1.160000e-06	5.044146e-06	1.085350e-08	3.417274e+01	7.142304e+02
1.170000e-06	5.171141e-06	1.096102e-08	3.503309e+01	7.205508e+02
1.180000e-06	5.296396e-06	1.106060e-08	3.588166e+01	7.265339e+02
1.190000e-06	5.419807e-06	1.115647e-08	3.671774e+01	7.326002e+02
1.200000e-06	5.541230e-06	1.125352e-08	3.754034e+01	7.389764e+02
1.210000e-06	5.660619e-06	1.134940e-08	3.834917e+01	7.456176e+02
1.220000e-06	5.777905e-06	1.144109e-08	3.914375e+01	7.522502e+02
1.230000e-06	5.892978e-06	1.152855e-08	3.992334e+01	7.585116e+02
1.240000e-06	6.005796e-06	1.161144e-08	4.068766e+01	7.641199e+02
1.250000e-06	6.116458e-06	1.169023e-08	4.143736e+01	7.689995e+02
1.260000e-06	6.224984e-06	1.176406e-08	4.217260e+01	7.733111e+02
1.270000e-06	6.331235e-06	1.183364e-08	4.289242e+01	7.773760e+02
1.280000e-06	6.435190e-06	1.190121e-08	4.359668e+01	7.815336e+02
1.290000e-06	6.536911e-06	1.196838e-08	4.428581e+01	7.859958e+02
1.300000e-06	6.636237e-06	1.203557e-08	4.495873e+01	7.907614e+02
1.310000e-06	6.733108e-06	1.209977e-08	4.561500e+01	7.956252e+02
1.320000e-06	6.827578e-06	1.216050e-08	4.625500e+01	8.002749e+02
1.330000e-06	6.919660e-06	1.221941e-08	4.687884e+01	8.044309e+02
1.340000e-06	7.009324e-06	1.227698e-08	4.748629e+01	8.079666e+02
1.350000e-06	7.096525e-06	1.233274e-08	4.807705e+01	8.109591e+02
1.360000e-06	7.181309e-06	1.238438e-08	4.865144e+01	8.136499e+02
1.370000e-06	7.263605e-06	1.243158e-08	4.920897e+01	8.163362e+02
1.380000e-06	7.343244e-06	1.247598e-08	4.974851e+01	8.192417e+02
1.390000e-06	7.420157e-06	1.251994e-08	5.026957e+01	8.224234e+02
1.400000e-06	7.494240e-06	1.256472e-08	5.077147e+01	8.257536e+02
1.410000e-06	7.565594e-06	1.260911e-08	5.125487e+01	8.289826e+02
1.420000e-06	7.634304e-06	1.265398e-08	5.172036e+01	8.318524e+02
1.430000e-06	7.700220e-06	1.269759e-08	5.216692e+01	8.342107e+02
1.440000e-06	7.763466e-06	1.273536e-08	5.259540e+01	8.360755e+02
1.450000e-06	7.824100e-06	1.276565e-08	5.300618e+01	8.376237e+02
1.460000e-06	7.881920e-06	1.279269e-08	5.339789e+01	8.391099e+02
1.470000e-06	7.936883e-06	1.282121e-08	5.377025e+01	8.407544e+02
1.480000e-06	7.988736e-06	1.284799e-08	5.412154e+01	8.426472e+02
1.490000e-06	8.037365e-06	1.287154e-08	5.445099e+01	8.447122e+02
1.500000e-06	8.083111e-06	1.289493e-08	5.476091e+01	8.467445e+02
1.510000e-06	8.126047e-06	1.292135e-08	5.505179e+01	8.485036e+02
1.520000e-06	8.166122e-06	1.294906e-08	5.532328e+01	8.498203e+02
1.530000e-06	8.203411e-06	1.297324e-08	5.557591e+01	8.506713e+02
1.540000e-06	8.237826e-06	1.298957e-08	5.580906e+01	8.511877e+02
1.550000e-06	8.269318e-06	1.299797e-08	5.602241e+01	8.515972e+02
1.560000e-06	8.297909e-06	1.300523e-08	5.621610e+01	8.521231e+02
1.570000e-06	8.323470e-06	1.301489e-08	5.638928e+01	8.528883e+02
1.580000e-06	8.346093e-06	1.302635e-08	5.654254e+01	8.538634e+02
1.590000e-06	8.365899e-06	1.303945e-08	5.667672e+01	8.548822e+02
1.600000e-06	8.382717e-06	1.305221e-08	5.679066e+01	8.557168e+02
1.610000e-06	8.396382e-06	1.306114e-08	5.688323e+01	8.561791e+02
1.620000e-06	8.406765e-06	1.306552e-08	5.695358e+01	8.562029e+02
1.630000e-06	8.414030e-06	1.306697e-08	5.700279e+01	8.558720e+02
1.640000e-06	8.418375e-06	1.306483e-08	5.703223e+01	8.553828e+02
1.650000e-06	8.419743e-06	1.305989e-08	5.704150e+01	8.549572e+02
1.660000e-06	8.418312e-06	1.305346e-08	5.703180e+01	8.547452e+02
1.670000e-06	8.414115e-06	1.304896e-08	5.700337e+01	8.547600e+02
1.680000e-06	8.407088e-06	1.305099e-08	5.695576e+01	8.548721e+02
1.690000e-06	8.397282e-06	1.305027e-08	5.688933e+01	8.548669e+02
1.700000e-06	8.384487e-06	1.304243e-08	5.680265e+01	8.545376e+02
1.710000e-06	8.368860e-06	1.303329e-08	5.669678e+01	8.537754e+02
1.720000e-06	8.350777e-06	1.303134e-08	5.657427e+01	8.526161e+02
1.730000e-06	8.330026e-06	1.300888e-08	5.643369e+01	8.512249e+02
1.740000e-06	8.306141e-06	1.293883e-08	5.627187e+01	8.498265e+02
1.750000e-06	8.278478e-06	1.289196e-08	5.608446e+01	8.486104e+02
1.760000e-06	8.247007e-06	1.289142e-08	5.587126e+01	8.476534e+02
1.770000e-06	8.212644e-06	1.290765e-08	5.563846e+01	8.468911e+02
1.780000e-06	8.175816e-06	1.292457e-08	5.538896e+01	8.461501e+02
1.790000e-06	8.136701e-06	1.291454e-08	5.512396e+01	8.452237e+02
1.800000e-06	8.095616e-06	1.286676e-08	5.484562e+01	8.439583e+02
1.810000e-06	8.052013e-06	1.283657e-08	5.455023e+01	8.423130e+02
1.820000e-06	8.005394e-06	1.283661e-08	5.423439e+01	8.403657e+02
1.830000e-06	7.955900e-06	1.280976e-08	5.389908e+01	8.382677e+02
1.840000e-06	7.903099e-06	1.280071e-08	5.354137e+01	8.361671e+02
1.850000e-06	7.847203e-06	1.276358e-08	5.316270e+01	8.341385e+02
1.860000e-06	7.788592e-06	1.274900e-08	5.276562e+01	8.321500e+02
1.870000e-06	7.727077e-06	1.272689e-08	5.234887e+01	8.300816e+02
1.880000e-06	7.662854e-06	1.262492e-08	5.191378e+01	8.277873e+02
1.890000e-06	7.595803e-06	1.260090e-08	5.145953e+01	8.251687e+02
1.900000e-06	7.525846e-06	1.255146e-08	5.098558e+01	8.222273e+02
1.910000e-06	7.452939e-06	1.251174e-08	5.049166e+01	8.190690e+02
1.920000e-06	7.377110e-06	1.250157e-08	4.997794e+01	8.158580e+02
1.930000e-06	7.298545e-06	1.243858e-08	4.944568e+01	8.127412e+02
1.940000e-06	7.217413e-06	1.239988e-08	4.889604e+01	8.097758e+02
1.950000e-06	7.133841e-06	1.232908e-08	4.832986e+01	8.068971e+02
1.960000e-06	7.047568e-06	1.227355e-08	4.774538e+01	8.039398e+02
1.970000e-06	6.958718e-06	1.220280e-08	4.714344e+01	8.007071e+02
1.980000e-06	6.867496e-06	1.214346e-08	4.652544e+01	7.970573e+02
1.990000e-06	6.773799e-06	1.211859e-08	4.589067e+01	7.929681e+02
2.000000e-06	6.677719e-06	1.206050e-08	4.523975e+01	7.885505e+02
2.010000e-06	6.579321e-06	1.200026e-08	4.457313e+01	7.840025e+02
2.020000e-06	6.478546e-06	1.191177e-08	4.389041e+01	7.795230e+02
2.030000e-06	6.375310e-06	1.183417e-08	4.319101e+01	7.752221e+02
2.040000e-06	6.269825e-06	1.176461e-08	4.247638e+01	7.710690e+02
2.050000e-06	6.162165e-06	1.169971e-08	4.174701e+01	7.669006e+02
2.060000e-06	6.052346e-06	1.163533e-08	4.100302e+01	7.624900e+02
2.070000e-06	5.940294e-06	1.156705e-08	4.024390e+01	7.576444e+02
2.080000e-06	5.825898e-06	1.148650e-08	3.946890e+01	7.522901e+02
2.090000e-06	5.709192e-06	1.139870e-08	3.867824e+01	7.465069e+02
2.100000e-06	5.590189e-06	1.130003e-08	3.787203e+01	7.404932e+02
2.110000e-06	5.469155e-06	1.120605e-08	3.705205e+01	7.344779e+02
2.120000e-06	5.346266e-06	1.112565e-08	3.621951e+01	7.286162e+02
2.130000e-06	5.221505e-06	1.103887e-08	3.537429e+01	7.229151e+02
2.140000e-06	5.094775e-06	1.095325e-08	3.451573e+01	7.172247e+02
2.150000e-06	4.966202e-06	1.084587e-08	3.364469e+01	7.112989e+02
2.160000e-06	4.835903e-06	1.074327e-08	3.276194e+01	7.049023e+02
2.170000e-06	4.703910e-06	1.063126e-08	3.186773e+01	6.979148e+02
2.180000e-06	4.570278e-06	1.052198e-08	3.096240e+01	6.903873e+02
2.190000e-06	4.434990e-06	1.041711e-08	3.004586e+01	6.825211e+02
2.200000e-06	4.298028e-06	1.031180e-08	2.911798e+01	6.745781e+02
2.210000e-06	4.159404e-06	1.020300e-08	2.817885e+01	6.667594e+02
2.220000e-06	4.019215e-06	1.007602e-08	2.722910e+01	6.591060e+02
2.230000e-06	3.877518e-06	9.939617e-09	2.626914e+01	6.514692e+02
2.240000e-06	3.734390e-06	9.801266e-09	2.529949e+01	6.435650e+02
2.250000e-06	3.589917e-06	9.668015e-09	2.432072e+01	6.350928e+02
2.260000e-06	3.444243e-06	9.533026e-09	2.333382e+01	6.258679e+02
2.270000e-06	3.297348e-06	9.394047e-09	2.233865e+01	6.159057e+02
2.280000e-06	3.149277e-06	9.250813e-09	2.133551e+01	6.054190e+02
2.290000e-06	3.000054e-06	9.102462e-09	2.032456e+01	5.947231e+02
2.300000e-06	2.849770e-06	8.939849e-09	1.930643e+01	5.840882e+02
2.310000e-06	2.698573e-06	8.768453e-09	1.828211e+01	5.736023e+02
2.320000e-06	2.546305e-06	8.591003e-09	1.725053e+01	5.631099e+02
2.330000e-06	2.393060e-06	8.415065e-09	1.621234e+01	5.522577e+02
2.340000e-06	2.238988e-06	8.235213e-09	1.516854e+01	5.406353e+02
2.350000e-06	2.084098e-06	8.047473e-09	1.411921e+01	5.279518e+02
2.360000e-06	1.928461e-06	7.850331e-09	1.306481e+01	5.141690e+02
2.370000e-06	1.772173e-06	7.642701e-09	1.200599e+01	4.995268e+02
2.380000e-06	1.615268e-06	7.427838e-09	1.094301e+01	4.844388e+02
2.390000e-06	1.457725e-06	7.199907e-09	9.875696e+00	4.692930e+02
2.400000e-06	1.299594e-06	6.958055e-09	8.804397e+00	4.542424e+02
2.410000e-06	1.141029e-06	6.703949e-09	7.730168e+00	4.390795e+02
2.420000e-06	9.820939e-07	6.443911e-09	6.653423e+00	4.232610e+02
2.430000e-06	8.228070e-07	6.172913e-09	5.574296e+00	4.060901e+02
2.440000e-06	6.631931e-07	5.885476e-09	4.492955e+00	3.869878e+02
2.450000e-06	5.033040e-07	5.580019e-09	3.409750e+00	3.657386e+02
2.460000e-06	3.432857e-07	5.257444e-09	2.325669e+00	3.425906e+02
2.470000e-06	1.831339e-07	4.912886e-09	1.240683e+00	3.181349e+02
2.480000e-06	2.289014e-08	4.536814e-09	1.550746e-01	2.929806e+02
2.490000e-06	-1.373052e-07	4.124050e-09	-9.302056e-01	2.673264e+02
2.500000e-06	-2.974272e-07	3.674097e-09	-2.014990e+00	2.405978e+02
2.510000e-06	-4.574005e-07	3.189854e-09	-3.098766e+00	2.113149e+02
2.520000e-06	-6.171713e-07	2.658003e-09	-4.181170e+00	1.772962e+02
2.530000e-06	-7.767370e-07	2.054808e-09	-5.262185e+00	1.361865e+02
2.540000e-06	-9.359902e-07	1.352742e-09	-6.341082e+00	8.617973e+01
2.550000e-06	-1.094917e-06	5.189954e-10	-7.417769e+00	2.671678e+01
2.560000e-06	-1.253443e-06	-4.809927e-10	-8.491741e+00	-4.107387e+01
2.570000e-06	-1.411459e-06	-1.645393e-09	-9.562257e+00	-1.143618e+02
2.580000e-06	-1.568971e-06	-2.884292e-09	-1.062936e+01	-1.890672e+02
2.590000e-06	-1.725908e-06	-4.046907e-09	-1.169256e+01	-2.606735e+02
2.600000e-06	-1.882233e-06	-5.022136e-09	-1.275162e+01	-3.251747e+02
2.610000e-06	-2.037868e-06	-5.795850e-09	-1.380601e+01	-3.798882e+02
2.620000e-06	-2.192730e-06	-6.413463e-09	-1.485515e+01	-4.239041e+02
2.630000e-06	-2.346772e-06	-6.920441e-09	-1.589875e+01	-4.580595e+02
2.640000e-06	-2.499910e-06	-7.347071e-09	-1.693622e+01	-4.844748e+02
2.650000e-06	-2.652092e-06	-7.716304e-09	-1.796721e+01	-5.058220e+02
2.660000e-06	-2.803340e-06	-8.042547e-09	-1.899187e+01	-5.245647e+02
2.670000e-06	-2.953614e-06	-8.335121e-09	-2.000994e+01	-5.423956e+02
2.680000e-06	-3.102784e-06	-8.599470e-09	-2.102053e+01	-5.600150e+02
2.690000e-06	-3.250810e-06	-8.841602e-09	-2.202337e+01	-5.772635e+02
2.700000e-06	-3.397725e-06	-9.066410e-09	-2.301867e+01	-5.935074e+02
2.710000e-06	-3.543415e-06	-9.274177e-09	-2.400568e+01	-6.080997e+02
2.720000e-06	-3.687770e-06	-9.465142e-09	-2.498365e+01	-6.207420e+02
2.730000e-06	-3.830835e-06	-9.640342e-09	-2.595288e+01	-6.316282e+02
2.740000e-06	-3.972502e-06	-9.804496e-09	-2.691263e+01	-6.413515e+02
2.750000e-06	-4.112648e-06	-9.963215e-09	-2.786208e+01	-6.506472e+02
2.760000e-06	-4.251250e-06	-1.011758e-08	-2.880108e+01	-6.600975e+02
2.770000e-06	-4.388197e-06	-1.026451e-08	-2.972886e+01	-6.699260e+02
2.780000e-06	-4.523526e-06	-1.040435e-08	-3.064567e+01	-6.799584e+02
2.790000e-06	-4.657248e-06	-1.053934e-08	-3.155160e+01	-6.897505e+02
2.800000e-06	-4.789275e-06	-1.066642e-08	-3.244606e+01	-6.988149e+02
2.810000e-06	-4.919602e-06	-1.078164e-08	-3.332898e+01	-7.068456e+02
2.820000e-06	-5.048190e-06	-1.088798e-08	-3.420013e+01	-7.138444e+02
2.830000e-06	-5.175046e-06	-1.099302e-08	-3.505955e+01	-7.201065e+02
2.840000e-06	-5.300072e-06	-1.110057e-08	-3.590657e+01	-7.260809e+02
2.850000e-06	-5.423155e-06	-1.120685e-08	-3.674042e+01	-7.321744e+02
2.860000e-06	-5.544314e-06	-1.130635e-08	-3.756124e+01	-7.385862e+02
2.870000e-06	-5.663505e-06	-1.139824e-08	-3.836873e+01	-7.452428e+02
2.880000e-06	-5.780519e-06	-1.148474e-08	-3.916146e+01	-7.518533e+02
2.890000e-06	-5.895233e-06	-1.156795e-08	-3.993862e+01	-7.580556e+02
2.900000e-06	-6.007572e-06	-1.164676e-08	-4.069969e+01	-7.635853e+02
2.910000e-06	-6.117544e-06	-1.172199e-08	-4.144472e+01	-7.683929e+02
2.920000e-06	-6.225322e-06	-1.179722e-08	-4.217489e+01	-7.726613e+02
2.930000e-06	-6.331024e-06	-1.187197e-08	-4.289099e+01	-7.767213e+02
2.940000e-06	-6.434547e-06	-1.194356e-08	-4.359233e+01	-7.809051e+02
