# Temperatura_=_42.43
# Concentracion g/m^3_=_13400.0
# C_Vs_to_Am_M_A/Vsm_=_65563218390.804596
# pendiente_HvsI_1/m_=_3716.3
# ordenada_HvsI_A/m_=_1297.0
# frecuencia_Hz_=_301396.3792253279

Tiempo_(s)	Campo_(V.s)	Magnetizacion_(V.s)	Campo_(kA/m)	Magnetizacion_(A/m)
0.000000e+00	-8.422700e-06	-1.041761e-08	-5.692779e+01	-6.827076e+02
1.000000e-08	-8.418524e-06	-1.041494e-08	-5.689956e+01	-6.827215e+02
2.000000e-08	-8.411708e-06	-1.041209e-08	-5.685349e+01	-6.828513e+02
3.000000e-08	-8.402129e-06	-1.040950e-08	-5.678875e+01	-6.829552e+02
4.000000e-08	-8.389524e-06	-1.040360e-08	-5.670355e+01	-6.828726e+02
5.000000e-08	-8.373862e-06	-1.039649e-08	-5.659770e+01	-6.824934e+02
6.000000e-08	-8.355339e-06	-1.038478e-08	-5.647250e+01	-6.818063e+02
7.000000e-08	-8.334338e-06	-1.036825e-08	-5.633056e+01	-6.809048e+02
8.000000e-08	-8.310565e-06	-1.040439e-08	-5.616988e+01	-6.799484e+02
9.000000e-08	-8.283414e-06	-1.042611e-08	-5.598637e+01	-6.790976e+02
1.000000e-07	-8.252972e-06	-1.039162e-08	-5.578062e+01	-6.784478e+02
1.100000e-07	-8.219481e-06	-1.035990e-08	-5.555426e+01	-6.779923e+02
1.200000e-07	-8.183065e-06	-1.033065e-08	-5.530813e+01	-6.776274e+02
1.300000e-07	-8.144121e-06	-1.028616e-08	-5.504491e+01	-6.771964e+02
1.400000e-07	-8.102829e-06	-1.023568e-08	-5.476582e+01	-6.765522e+02
1.500000e-07	-8.058905e-06	-1.031045e-08	-5.446895e+01	-6.756122e+02
1.600000e-07	-8.012125e-06	-1.029692e-08	-5.415277e+01	-6.743818e+02
1.700000e-07	-7.962444e-06	-1.025502e-08	-5.381698e+01	-6.729402e+02
1.800000e-07	-7.909655e-06	-1.031728e-08	-5.346019e+01	-6.713960e+02
1.900000e-07	-7.853822e-06	-1.022062e-08	-5.308282e+01	-6.698362e+02
2.000000e-07	-7.795164e-06	-1.015867e-08	-5.268636e+01	-6.682896e+02
2.100000e-07	-7.733671e-06	-1.011507e-08	-5.227074e+01	-6.667230e+02
2.200000e-07	-7.669464e-06	-1.008955e-08	-5.183678e+01	-6.650679e+02
2.300000e-07	-7.602494e-06	-1.013479e-08	-5.138413e+01	-6.632635e+02
2.400000e-07	-7.532681e-06	-1.010697e-08	-5.091228e+01	-6.612948e+02
2.500000e-07	-7.459968e-06	-1.008925e-08	-5.042082e+01	-6.592053e+02
2.600000e-07	-7.384323e-06	-1.004945e-08	-4.990955e+01	-6.570781e+02
2.700000e-07	-7.305880e-06	-1.001677e-08	-4.937937e+01	-6.549943e+02
2.800000e-07	-7.224647e-06	-9.944651e-09	-4.883032e+01	-6.529880e+02
2.900000e-07	-7.140809e-06	-9.888220e-09	-4.826367e+01	-6.510214e+02
3.000000e-07	-7.054632e-06	-9.902605e-09	-4.768122e+01	-6.489925e+02
3.100000e-07	-6.966070e-06	-9.877090e-09	-4.708264e+01	-6.467752e+02
3.200000e-07	-6.875000e-06	-9.864689e-09	-4.646711e+01	-6.442734e+02
3.300000e-07	-6.781475e-06	-9.806846e-09	-4.583499e+01	-6.414658e+02
3.400000e-07	-6.685557e-06	-9.739638e-09	-4.518669e+01	-6.384197e+02
3.500000e-07	-6.587215e-06	-9.693256e-09	-4.452201e+01	-6.352645e+02
3.600000e-07	-6.486417e-06	-9.647744e-09	-4.384073e+01	-6.321370e+02
3.700000e-07	-6.383249e-06	-9.600363e-09	-4.314343e+01	-6.291193e+02
3.800000e-07	-6.277787e-06	-9.550663e-09	-4.243063e+01	-6.261997e+02
3.900000e-07	-6.170031e-06	-9.527171e-09	-4.170233e+01	-6.232729e+02
4.000000e-07	-6.060118e-06	-9.474466e-09	-4.095944e+01	-6.201824e+02
4.100000e-07	-5.948009e-06	-9.406501e-09	-4.020172e+01	-6.167876e+02
4.200000e-07	-5.833592e-06	-9.332821e-09	-3.942839e+01	-6.130252e+02
4.300000e-07	-5.716892e-06	-9.277204e-09	-3.863963e+01	-6.089384e+02
4.400000e-07	-5.598030e-06	-9.229367e-09	-3.783626e+01	-6.046591e+02
4.500000e-07	-5.477097e-06	-9.176620e-09	-3.701889e+01	-6.003488e+02
4.600000e-07	-5.354194e-06	-9.112890e-09	-3.618820e+01	-5.961246e+02
4.700000e-07	-5.229382e-06	-9.043220e-09	-3.534462e+01	-5.920020e+02
4.800000e-07	-5.102682e-06	-8.975050e-09	-3.448827e+01	-5.878816e+02
4.900000e-07	-4.974140e-06	-8.894454e-09	-3.361947e+01	-5.835879e+02
5.000000e-07	-4.843773e-06	-8.812324e-09	-3.273835e+01	-5.789434e+02
5.100000e-07	-4.711670e-06	-8.730629e-09	-3.184548e+01	-5.738476e+02
5.200000e-07	-4.577843e-06	-8.661571e-09	-3.094096e+01	-5.683236e+02
5.300000e-07	-4.442408e-06	-8.591466e-09	-3.002558e+01	-5.625111e+02
5.400000e-07	-4.305379e-06	-8.508522e-09	-2.909942e+01	-5.566057e+02
5.500000e-07	-4.166683e-06	-8.410500e-09	-2.816199e+01	-5.507694e+02
5.600000e-07	-4.026383e-06	-8.312243e-09	-2.721373e+01	-5.450519e+02
5.700000e-07	-3.884362e-06	-8.217531e-09	-2.625383e+01	-5.393583e+02
5.800000e-07	-3.740745e-06	-8.119589e-09	-2.528314e+01	-5.334801e+02
5.900000e-07	-3.595784e-06	-8.019136e-09	-2.430338e+01	-5.271799e+02
6.000000e-07	-3.449594e-06	-7.916613e-09	-2.331530e+01	-5.202918e+02
6.100000e-07	-3.302207e-06	-7.815287e-09	-2.231913e+01	-5.127957e+02
6.200000e-07	-3.153665e-06	-7.705470e-09	-2.131515e+01	-5.048274e+02
6.300000e-07	-3.004052e-06	-7.582976e-09	-2.030394e+01	-4.966189e+02
6.400000e-07	-2.853412e-06	-7.451779e-09	-1.928579e+01	-4.883897e+02
6.500000e-07	-2.701816e-06	-7.321149e-09	-1.826118e+01	-4.802366e+02
6.600000e-07	-2.549263e-06	-7.185133e-09	-1.723009e+01	-4.720722e+02
6.700000e-07	-2.395810e-06	-7.042745e-09	-1.619293e+01	-4.636433e+02
6.800000e-07	-2.241465e-06	-6.898260e-09	-1.514973e+01	-4.546252e+02
6.900000e-07	-2.086269e-06	-6.751803e-09	-1.410079e+01	-4.447570e+02
7.000000e-07	-1.930353e-06	-6.599511e-09	-1.304697e+01	-4.339560e+02
7.100000e-07	-1.773749e-06	-6.433443e-09	-1.198850e+01	-4.223584e+02
7.200000e-07	-1.616524e-06	-6.257572e-09	-1.092584e+01	-4.102609e+02
7.300000e-07	-1.458683e-06	-6.072947e-09	-9.859020e+00	-3.979806e+02
7.400000e-07	-1.300264e-06	-5.882575e-09	-8.788293e+00	-3.856886e+02
7.500000e-07	-1.141386e-06	-5.681452e-09	-7.714458e+00	-3.732923e+02
7.600000e-07	-9.820476e-07	-5.467218e-09	-6.637515e+00	-3.604239e+02
7.700000e-07	-8.223265e-07	-5.243161e-09	-5.557983e+00	-3.465529e+02
7.800000e-07	-6.623392e-07	-5.008221e-09	-4.476653e+00	-3.311837e+02
7.900000e-07	-5.021254e-07	-4.759641e-09	-3.393791e+00	-3.140581e+02
8.000000e-07	-3.417394e-07	-4.490969e-09	-2.309766e+00	-2.952675e+02
8.100000e-07	-1.811820e-07	-4.201758e-09	-1.224582e+00	-2.752060e+02
8.200000e-07	-2.052791e-08	-3.890628e-09	-1.387451e-01	-2.543576e+02
8.300000e-07	1.401197e-07	-3.555271e-09	9.470484e-01	-2.329793e+02
8.400000e-07	3.006728e-07	-3.190014e-09	2.032203e+00	-2.107969e+02
8.500000e-07	4.611079e-07	-2.791876e-09	3.116560e+00	-1.868487e+02
8.600000e-07	6.214147e-07	-2.356795e-09	4.200050e+00	-1.595699e+02
8.700000e-07	7.814458e-07	-1.869869e-09	5.281677e+00	-1.271362e+02
8.800000e-07	9.411433e-07	-1.305669e-09	6.361049e+00	-8.799124e+01
8.900000e-07	1.100493e-06	-6.365608e-10	7.438071e+00	-4.140442e+01
9.000000e-07	1.259426e-06	1.573127e-10	8.512277e+00	1.212118e+01
9.100000e-07	1.417864e-06	1.073824e-09	9.583133e+00	7.073793e+01
9.200000e-07	1.575799e-06	2.058977e-09	1.065060e+01	1.315012e+02
9.300000e-07	1.733216e-06	3.012888e-09	1.171455e+01	1.909252e+02
9.400000e-07	1.889981e-06	3.844174e-09	1.277410e+01	2.456974e+02
9.500000e-07	2.046036e-06	4.520263e-09	1.382885e+01	2.933501e+02
9.600000e-07	2.201350e-06	5.060787e-09	1.487860e+01	3.327008e+02
9.700000e-07	2.355816e-06	5.504960e-09	1.592261e+01	3.639465e+02
9.800000e-07	2.509416e-06	5.881564e-09	1.696077e+01	3.884070e+02
9.900000e-07	2.662180e-06	6.204219e-09	1.799328e+01	4.080181e+02
1.000000e-06	2.813984e-06	6.484310e-09	1.901930e+01	4.247471e+02
1.010000e-06	2.964714e-06	6.734261e-09	2.003807e+01	4.401072e+02
1.020000e-06	3.114374e-06	6.960795e-09	2.104959e+01	4.549041e+02
1.030000e-06	3.262956e-06	7.161993e-09	2.205384e+01	4.692527e+02
1.040000e-06	3.410336e-06	7.343150e-09	2.304996e+01	4.828131e+02
1.050000e-06	3.556436e-06	7.513048e-09	2.403743e+01	4.951257e+02
1.060000e-06	3.701283e-06	7.673524e-09	2.501642e+01	5.059090e+02
1.070000e-06	3.844847e-06	7.822499e-09	2.598675e+01	5.152184e+02
1.080000e-06	3.987030e-06	7.961660e-09	2.694775e+01	5.234269e+02
1.090000e-06	4.127642e-06	8.093734e-09	2.789812e+01	5.310646e+02
1.100000e-06	4.266623e-06	8.219416e-09	2.883747e+01	5.386040e+02
1.110000e-06	4.404029e-06	8.336536e-09	2.976618e+01	5.462857e+02
1.120000e-06	4.539809e-06	8.442466e-09	3.068390e+01	5.540572e+02
1.130000e-06	4.673967e-06	8.544152e-09	3.159065e+01	5.616386e+02
1.140000e-06	4.806503e-06	8.646139e-09	3.248644e+01	5.686784e+02
1.150000e-06	4.937276e-06	8.742374e-09	3.337032e+01	5.749260e+02
1.160000e-06	5.066250e-06	8.825450e-09	3.424203e+01	5.803472e+02
1.170000e-06	5.193441e-06	8.900380e-09	3.510170e+01	5.851383e+02
1.180000e-06	5.318857e-06	8.976241e-09	3.594937e+01	5.896386e+02
1.190000e-06	5.442396e-06	9.052972e-09	3.678435e+01	5.941863e+02
1.200000e-06	5.563973e-06	9.125448e-09	3.760607e+01	5.989817e+02
1.210000e-06	5.683553e-06	9.191851e-09	3.841430e+01	6.040158e+02
1.220000e-06	5.800988e-06	9.258485e-09	3.920802e+01	6.090909e+02
1.230000e-06	5.916157e-06	9.326711e-09	3.998643e+01	6.139208e+02
1.240000e-06	6.029032e-06	9.389817e-09	4.074934e+01	6.182624e+02
1.250000e-06	6.139729e-06	9.444785e-09	4.149752e+01	6.220224e+02
1.260000e-06	6.248309e-06	9.496622e-09	4.223140e+01	6.252939e+02
1.270000e-06	6.354649e-06	9.550982e-09	4.295013e+01	6.283112e+02
1.280000e-06	6.458710e-06	9.606952e-09	4.365347e+01	6.313450e+02
1.290000e-06	6.560502e-06	9.660258e-09	4.434146e+01	6.345853e+02
1.300000e-06	6.659893e-06	9.707699e-09	4.501324e+01	6.380641e+02
1.310000e-06	6.756780e-06	9.750504e-09	4.566808e+01	6.416469e+02
1.320000e-06	6.851277e-06	9.794469e-09	4.630677e+01	6.450977e+02
1.330000e-06	6.943390e-06	9.839257e-09	4.692935e+01	6.481837e+02
1.340000e-06	7.033018e-06	9.878841e-09	4.753513e+01	6.507762e+02
1.350000e-06	7.120207e-06	9.915399e-09	4.812443e+01	6.529039e+02
1.360000e-06	7.205052e-06	9.954288e-09	4.869788e+01	6.547369e+02
1.370000e-06	7.287357e-06	9.992913e-09	4.925417e+01	6.565117e+02
1.380000e-06	7.366939e-06	1.002525e-08	4.979205e+01	6.584303e+02
1.390000e-06	7.443792e-06	1.005209e-08	5.031149e+01	6.605778e+02
1.400000e-06	7.517861e-06	1.008111e-08	5.081211e+01	6.628927e+02
1.410000e-06	7.589193e-06	1.011310e-08	5.129423e+01	6.652007e+02
1.420000e-06	7.657835e-06	1.014396e-08	5.175817e+01	6.672952e+02
1.430000e-06	7.723736e-06	1.017088e-08	5.220359e+01	6.690289e+02
1.440000e-06	7.786940e-06	1.019464e-08	5.263078e+01	6.703759e+02
1.450000e-06	7.847482e-06	1.021629e-08	5.303997e+01	6.714394e+02
1.460000e-06	7.905220e-06	1.023616e-08	5.343021e+01	6.724026e+02
1.470000e-06	7.960086e-06	1.025681e-08	5.380104e+01	6.734476e+02
1.480000e-06	8.011808e-06	1.027519e-08	5.415063e+01	6.746759e+02
1.490000e-06	8.060316e-06	1.029119e-08	5.447849e+01	6.760675e+02
1.500000e-06	8.105961e-06	1.030859e-08	5.478699e+01	6.774941e+02
1.510000e-06	8.148758e-06	1.032585e-08	5.507625e+01	6.787784e+02
1.520000e-06	8.188602e-06	1.034006e-08	5.534555e+01	6.797748e+02
1.530000e-06	8.225661e-06	1.035166e-08	5.559603e+01	6.804330e+02
1.540000e-06	8.259882e-06	1.036183e-08	5.582732e+01	6.808195e+02
1.550000e-06	8.291167e-06	1.037144e-08	5.603877e+01	6.810864e+02
1.560000e-06	8.319595e-06	1.038072e-08	5.623091e+01	6.814045e+02
1.570000e-06	8.344992e-06	1.038966e-08	5.640256e+01	6.818880e+02
1.580000e-06	8.367414e-06	1.039967e-08	5.655411e+01	6.825464e+02
1.590000e-06	8.387028e-06	1.041083e-08	5.668668e+01	6.832826e+02
1.600000e-06	8.403655e-06	1.041872e-08	5.679906e+01	6.839375e+02
1.610000e-06	8.417084e-06	1.042119e-08	5.688983e+01	6.843615e+02
1.620000e-06	8.427169e-06	1.042072e-08	5.695799e+01	6.844803e+02
1.630000e-06	8.434187e-06	1.042179e-08	5.700542e+01	6.843273e+02
1.640000e-06	8.438351e-06	1.042434e-08	5.703357e+01	6.840279e+02
1.650000e-06	8.439525e-06	1.042619e-08	5.704150e+01	6.837431e+02
1.660000e-06	8.437883e-06	1.042294e-08	5.703040e+01	6.835987e+02
1.670000e-06	8.433476e-06	1.042268e-08	5.700061e+01	6.836296e+02
1.680000e-06	8.426210e-06	1.042426e-08	5.695151e+01	6.837641e+02
1.690000e-06	8.416111e-06	1.042061e-08	5.688325e+01	6.838552e+02
1.700000e-06	8.403037e-06	1.041561e-08	5.679488e+01	6.837445e+02
1.710000e-06	8.387179e-06	1.041574e-08	5.668771e+01	6.833307e+02
1.720000e-06	8.368918e-06	1.042682e-08	5.656428e+01	6.826143e+02
1.730000e-06	8.347984e-06	1.038925e-08	5.642279e+01	6.816984e+02
1.740000e-06	8.323814e-06	1.031889e-08	5.625943e+01	6.807462e+02
1.750000e-06	8.295780e-06	1.031703e-08	5.606995e+01	6.799138e+02
1.760000e-06	8.263948e-06	1.032766e-08	5.585480e+01	6.792869e+02
1.770000e-06	8.229288e-06	1.033209e-08	5.562054e+01	6.788472e+02
1.780000e-06	8.192185e-06	1.037523e-08	5.536977e+01	6.784829e+02
1.790000e-06	8.152837e-06	1.039353e-08	5.510382e+01	6.780351e+02
1.800000e-06	8.111489e-06	1.028394e-08	5.482435e+01	6.773615e+02
1.810000e-06	8.067531e-06	1.030595e-08	5.452725e+01	6.763884e+02
1.820000e-06	8.020608e-06	1.030090e-08	5.421010e+01	6.751304e+02
1.830000e-06	7.970798e-06	1.024278e-08	5.387345e+01	6.736724e+02
1.840000e-06	7.917614e-06	1.030097e-08	5.351398e+01	6.721231e+02
1.850000e-06	7.861385e-06	1.022999e-08	5.313394e+01	6.705642e+02
1.860000e-06	7.802431e-06	1.028087e-08	5.273548e+01	6.690178e+02
1.870000e-06	7.740575e-06	1.024414e-08	5.231740e+01	6.674451e+02
1.880000e-06	7.676010e-06	1.013868e-08	5.188102e+01	6.657761e+02
1.890000e-06	7.608541e-06	1.013099e-08	5.142500e+01	6.639536e+02
1.900000e-06	7.538249e-06	1.004329e-08	5.094991e+01	6.619688e+02
1.910000e-06	7.465031e-06	1.006989e-08	5.045504e+01	6.598707e+02
1.920000e-06	7.388823e-06	1.005177e-08	4.993996e+01	6.577446e+02
1.930000e-06	7.309885e-06	1.004686e-08	4.940643e+01	6.556683e+02
1.940000e-06	7.228395e-06	1.002973e-08	4.885565e+01	6.536692e+02
1.950000e-06	7.144442e-06	9.945186e-09	4.828823e+01	6.517015e+02
1.960000e-06	7.057755e-06	9.919391e-09	4.770232e+01	6.496583e+02
1.970000e-06	6.968536e-06	9.825786e-09	4.709931e+01	6.474138e+02
1.980000e-06	6.876863e-06	9.810164e-09	4.647970e+01	6.448785e+02
1.990000e-06	6.782697e-06	9.792755e-09	4.584325e+01	6.420405e+02
2.000000e-06	6.686216e-06	9.775347e-09	4.519114e+01	6.389756e+02
2.010000e-06	6.587403e-06	9.737403e-09	4.452328e+01	6.358172e+02
2.020000e-06	6.486206e-06	9.668659e-09	4.383931e+01	6.326987e+02
2.030000e-06	6.382528e-06	9.613903e-09	4.313857e+01	6.296938e+02
2.040000e-06	6.276648e-06	9.548348e-09	4.242294e+01	6.267796e+02
2.050000e-06	6.168589e-06	9.513077e-09	4.169258e+01	6.238428e+02
2.060000e-06	6.058326e-06	9.459561e-09	4.094733e+01	6.207254e+02
2.070000e-06	5.945791e-06	9.423854e-09	4.018672e+01	6.172922e+02
2.080000e-06	5.830860e-06	9.368100e-09	3.940992e+01	6.134909e+02
2.090000e-06	5.713649e-06	9.315549e-09	3.861771e+01	6.093758e+02
2.100000e-06	5.594228e-06	9.238441e-09	3.781056e+01	6.050855e+02
2.110000e-06	5.472795e-06	9.166273e-09	3.698981e+01	6.007801e+02
2.120000e-06	5.349453e-06	9.101198e-09	3.615616e+01	5.965679e+02
2.130000e-06	5.224187e-06	9.041169e-09	3.530951e+01	5.924519e+02
2.140000e-06	5.097012e-06	8.990667e-09	3.444995e+01	5.883219e+02
2.150000e-06	4.968019e-06	8.917336e-09	3.357811e+01	5.839981e+02
2.160000e-06	4.837276e-06	8.845432e-09	3.269443e+01	5.793080e+02
2.170000e-06	4.704831e-06	8.754026e-09	3.179926e+01	5.741626e+02
2.180000e-06	4.570710e-06	8.668186e-09	3.089275e+01	5.685992e+02
2.190000e-06	4.434931e-06	8.587025e-09	2.997504e+01	5.627670e+02
2.200000e-06	4.297456e-06	8.514785e-09	2.904587e+01	5.568625e+02
2.210000e-06	4.158322e-06	8.438861e-09	2.810548e+01	5.510389e+02
2.220000e-06	4.017597e-06	8.351935e-09	2.715435e+01	5.453308e+02
2.230000e-06	3.875388e-06	8.253154e-09	2.619317e+01	5.396285e+02
2.240000e-06	3.731802e-06	8.148417e-09	2.522270e+01	5.337158e+02
2.250000e-06	3.586881e-06	8.039059e-09	2.424320e+01	5.273582e+02
2.260000e-06	3.440729e-06	7.928426e-09	2.325538e+01	5.204029e+02
2.270000e-06	3.293349e-06	7.823241e-09	2.225926e+01	5.128470e+02
2.280000e-06	3.144778e-06	7.722802e-09	2.125509e+01	5.048409e+02
2.290000e-06	2.995055e-06	7.618950e-09	2.024313e+01	4.966209e+02
2.300000e-06	2.844342e-06	7.498977e-09	1.922449e+01	4.883979e+02
2.310000e-06	2.692683e-06	7.365616e-09	1.819945e+01	4.802510e+02
2.320000e-06	2.540013e-06	7.221896e-09	1.716757e+01	4.720725e+02
2.330000e-06	2.386420e-06	7.078623e-09	1.612946e+01	4.635958e+02
2.340000e-06	2.231906e-06	6.935307e-09	1.508512e+01	4.544965e+02
2.350000e-06	2.076512e-06	6.790951e-09	1.403484e+01	4.445283e+02
2.360000e-06	1.920420e-06	6.639438e-09	1.297983e+01	4.336315e+02
2.370000e-06	1.763766e-06	6.478281e-09	1.192103e+01	4.219642e+02
2.380000e-06	1.606480e-06	6.305470e-09	1.085796e+01	4.098331e+02
2.390000e-06	1.448527e-06	6.119504e-09	9.790379e+00	3.975471e+02
2.400000e-06	1.290028e-06	5.921102e-09	8.719107e+00	3.852533e+02
2.410000e-06	1.131116e-06	5.710693e-09	7.645047e+00	3.728281e+02
2.420000e-06	9.718470e-07	5.496436e-09	6.568570e+00	3.598787e+02
2.430000e-06	8.122028e-07	5.277519e-09	5.489559e+00	3.458680e+02
2.440000e-06	6.522195e-07	5.049161e-09	4.408255e+00	3.303171e+02
2.450000e-06	4.919738e-07	4.803361e-09	3.325178e+00	3.130022e+02
2.460000e-06	3.315585e-07	4.535833e-09	2.240955e+00	2.940524e+02
2.470000e-06	1.710571e-07	4.246242e-09	1.156150e+00	2.738844e+02
2.480000e-06	1.050641e-08	3.931317e-09	7.101130e-02	2.529740e+02
2.490000e-06	-1.500553e-07	3.589021e-09	-1.014202e+00	2.315339e+02
2.500000e-06	-3.104992e-07	3.218936e-09	-2.098618e+00	2.092205e+02
2.510000e-06	-4.707471e-07	2.822410e-09	-3.181710e+00	1.849984e+02
2.520000e-06	-6.308497e-07	2.389132e-09	-4.263820e+00	1.572544e+02
2.530000e-06	-7.907613e-07	1.899222e-09	-5.344639e+00	1.241658e+02
2.540000e-06	-9.503541e-07	1.331276e-09	-6.423303e+00	8.423901e+01
2.550000e-06	-1.109532e-06	6.609209e-10	-7.499160e+00	3.686044e+01
2.560000e-06	-1.268304e-06	-1.371828e-10	-8.572283e+00	-1.732190e+01
2.570000e-06	-1.426662e-06	-1.063697e-09	-9.642601e+00	-7.632474e+01
2.580000e-06	-1.584538e-06	-2.058083e-09	-1.070966e+01	-1.371146e+02
2.590000e-06	-1.741845e-06	-3.013525e-09	-1.177287e+01	-1.961890e+02
2.600000e-06	-1.898464e-06	-3.843570e-09	-1.283144e+01	-2.502965e+02
2.610000e-06	-2.054385e-06	-4.524176e-09	-1.388529e+01	-2.970916e+02
2.620000e-06	-2.209549e-06	-5.072993e-09	-1.493402e+01	-3.355416e+02
2.630000e-06	-2.363781e-06	-5.518480e-09	-1.597644e+01	-3.659817e+02
2.640000e-06	-2.517129e-06	-5.891091e-09	-1.701291e+01	-3.898247e+02
2.650000e-06	-2.669655e-06	-6.214216e-09	-1.804380e+01	-4.090378e+02
2.660000e-06	-2.821201e-06	-6.500891e-09	-1.906808e+01	-4.255593e+02
2.670000e-06	-2.971698e-06	-6.755966e-09	-2.008527e+01	-4.408339e+02
2.680000e-06	-3.121093e-06	-6.983042e-09	-2.109500e+01	-4.555880e+02
2.690000e-06	-3.269385e-06	-7.190824e-09	-2.209729e+01	-4.698737e+02
2.700000e-06	-3.416532e-06	-7.381041e-09	-2.309183e+01	-4.833216e+02
2.710000e-06	-3.562460e-06	-7.552163e-09	-2.407814e+01	-4.954787e+02
2.720000e-06	-3.707145e-06	-7.705488e-09	-2.505605e+01	-5.060953e+02
2.730000e-06	-3.850463e-06	-7.845251e-09	-2.602471e+01	-5.152646e+02
2.740000e-06	-3.992300e-06	-7.980956e-09	-2.698336e+01	-5.233860e+02
2.750000e-06	-4.132631e-06	-8.114838e-09	-2.793184e+01	-5.309937e+02
2.760000e-06	-4.271434e-06	-8.241146e-09	-2.886999e+01	-5.385422e+02
2.770000e-06	-4.408640e-06	-8.355885e-09	-2.979735e+01	-5.462412e+02
2.780000e-06	-4.544186e-06	-8.464582e-09	-3.071348e+01	-5.540087e+02
2.790000e-06	-4.678105e-06	-8.572874e-09	-3.161862e+01	-5.615486e+02
2.800000e-06	-4.810403e-06	-8.673386e-09	-3.251280e+01	-5.685125e+02
2.810000e-06	-4.940974e-06	-8.758344e-09	-3.339531e+01	-5.746690e+02
2.820000e-06	-5.069783e-06	-8.835108e-09	-3.426592e+01	-5.800100e+02
2.830000e-06	-5.196781e-06	-8.916642e-09	-3.512427e+01	-5.847526e+02
2.840000e-06	-5.321918e-06	-9.003237e-09	-3.597006e+01	-5.892434e+02
2.850000e-06	-5.445228e-06	-9.086104e-09	-3.680349e+01	-5.938117e+02
2.860000e-06	-5.566647e-06	-9.160648e-09	-3.762414e+01	-5.986372e+02
2.870000e-06	-5.685960e-06	-9.230677e-09	-3.843056e+01	-6.036879e+02
2.880000e-06	-5.803072e-06	-9.302085e-09	-3.922211e+01	-6.087510e+02
2.890000e-06	-5.917874e-06	-9.372859e-09	-3.999803e+01	-6.135385e+02
2.900000e-06	-6.030267e-06	-9.435951e-09	-4.075769e+01	-6.178191e+02
2.910000e-06	-6.140347e-06	-9.490179e-09	-4.150170e+01	-6.215193e+02
2.920000e-06	-6.248259e-06	-9.543205e-09	-4.223106e+01	-6.247509e+02
2.930000e-06	-6.354090e-06	-9.598155e-09	-4.294635e+01	-6.277578e+02
2.940000e-06	-6.457711e-06	-9.650956e-09	-4.364671e+01	-6.308071e+02
