# Temperatura_=_42.16
# Concentracion g/m^3_=_13400.0
# C_Vs_to_Am_M_A/Vsm_=_65563218390.804596
# pendiente_HvsI_1/m_=_3716.3
# ordenada_HvsI_A/m_=_1297.0
# frecuencia_Hz_=_301396.62563878804

Tiempo_(s)	Campo_(V.s)	Magnetizacion_(V.s)	Campo_(kA/m)	Magnetizacion_(A/m)
0.000000e+00	-8.410325e-06	-1.034535e-08	-5.692434e+01	-6.784896e+02
1.000000e-08	-8.406234e-06	-1.034647e-08	-5.689665e+01	-6.785349e+02
2.000000e-08	-8.399485e-06	-1.034493e-08	-5.685097e+01	-6.786736e+02
3.000000e-08	-8.389985e-06	-1.034137e-08	-5.678668e+01	-6.787656e+02
4.000000e-08	-8.377485e-06	-1.033710e-08	-5.670207e+01	-6.786629e+02
5.000000e-08	-8.361922e-06	-1.033137e-08	-5.659673e+01	-6.782745e+02
6.000000e-08	-8.343539e-06	-1.031842e-08	-5.647231e+01	-6.776069e+02
7.000000e-08	-8.322670e-06	-1.029967e-08	-5.633106e+01	-6.767622e+02
8.000000e-08	-8.299054e-06	-1.031944e-08	-5.617122e+01	-6.758950e+02
9.000000e-08	-8.272136e-06	-1.034882e-08	-5.598903e+01	-6.751466e+02
1.000000e-07	-8.241863e-06	-1.033082e-08	-5.578413e+01	-6.745862e+02
1.100000e-07	-8.208465e-06	-1.029591e-08	-5.555807e+01	-6.741821e+02
1.200000e-07	-8.172144e-06	-1.026773e-08	-5.531224e+01	-6.738174e+02
1.300000e-07	-8.133300e-06	-1.023518e-08	-5.504933e+01	-6.733396e+02
1.400000e-07	-8.092126e-06	-1.019901e-08	-5.477065e+01	-6.726237e+02
1.500000e-07	-8.048377e-06	-1.023979e-08	-5.447454e+01	-6.716212e+02
1.600000e-07	-8.001749e-06	-1.023083e-08	-5.415894e+01	-6.703726e+02
1.700000e-07	-7.952189e-06	-1.019017e-08	-5.382350e+01	-6.689818e+02
1.800000e-07	-7.899575e-06	-1.023255e-08	-5.346739e+01	-6.675633e+02
1.900000e-07	-7.843930e-06	-1.017062e-08	-5.309076e+01	-6.661884e+02
2.000000e-07	-7.785476e-06	-1.010328e-08	-5.269512e+01	-6.648542e+02
2.100000e-07	-7.724245e-06	-1.007862e-08	-5.228069e+01	-6.634894e+02
2.200000e-07	-7.660297e-06	-1.006543e-08	-5.184786e+01	-6.619934e+02
2.300000e-07	-7.593537e-06	-1.008084e-08	-5.139601e+01	-6.602894e+02
2.400000e-07	-7.523919e-06	-1.004675e-08	-5.092480e+01	-6.583662e+02
2.500000e-07	-7.451411e-06	-1.002228e-08	-5.043404e+01	-6.562880e+02
2.600000e-07	-7.375978e-06	-9.990296e-09	-4.992348e+01	-6.541664e+02
2.700000e-07	-7.297751e-06	-9.958640e-09	-4.939401e+01	-6.521080e+02
2.800000e-07	-7.216752e-06	-9.911636e-09	-4.884578e+01	-6.501598e+02
2.900000e-07	-7.133194e-06	-9.859648e-09	-4.828022e+01	-6.482796e+02
3.000000e-07	-7.047308e-06	-9.857317e-09	-4.769891e+01	-6.463474e+02
3.100000e-07	-6.959010e-06	-9.838785e-09	-4.710128e+01	-6.442123e+02
3.200000e-07	-6.868167e-06	-9.804958e-09	-4.648642e+01	-6.417582e+02
3.300000e-07	-6.774838e-06	-9.741705e-09	-4.585473e+01	-6.389568e+02
3.400000e-07	-6.679121e-06	-9.682010e-09	-4.520688e+01	-6.358843e+02
3.500000e-07	-6.581000e-06	-9.651237e-09	-4.454276e+01	-6.326926e+02
3.600000e-07	-6.480484e-06	-9.615321e-09	-4.386243e+01	-6.295449e+02
3.700000e-07	-6.377606e-06	-9.566796e-09	-4.316611e+01	-6.265444e+02
3.800000e-07	-6.272374e-06	-9.512806e-09	-4.245386e+01	-6.236856e+02
3.900000e-07	-6.164854e-06	-9.479168e-09	-4.172612e+01	-6.208526e+02
4.000000e-07	-6.055172e-06	-9.431954e-09	-4.098375e+01	-6.178654e+02
4.100000e-07	-5.943270e-06	-9.363867e-09	-4.022636e+01	-6.145557e+02
4.200000e-07	-5.829032e-06	-9.295566e-09	-3.945315e+01	-6.108400e+02
4.300000e-07	-5.712497e-06	-9.246074e-09	-3.866439e+01	-6.067568e+02
4.400000e-07	-5.593758e-06	-9.205734e-09	-3.786072e+01	-6.024510e+02
4.500000e-07	-5.472978e-06	-9.152387e-09	-3.704324e+01	-5.981100e+02
4.600000e-07	-5.350260e-06	-9.079681e-09	-3.621264e+01	-5.938800e+02
4.700000e-07	-5.225654e-06	-9.003177e-09	-3.536925e+01	-5.897966e+02
4.800000e-07	-5.099235e-06	-8.938009e-09	-3.451360e+01	-5.857631e+02
4.900000e-07	-4.970963e-06	-8.869266e-09	-3.364540e+01	-5.815871e+02
5.000000e-07	-4.840846e-06	-8.792416e-09	-3.276473e+01	-5.770605e+02
5.100000e-07	-4.708953e-06	-8.712400e-09	-3.187202e+01	-5.720488e+02
5.200000e-07	-4.575411e-06	-8.640962e-09	-3.096815e+01	-5.665515e+02
5.300000e-07	-4.440259e-06	-8.568095e-09	-3.005339e+01	-5.607038e+02
5.400000e-07	-4.303475e-06	-8.479511e-09	-2.912759e+01	-5.547182e+02
5.500000e-07	-4.165059e-06	-8.379259e-09	-2.819073e+01	-5.487899e+02
5.600000e-07	-4.024996e-06	-8.284359e-09	-2.724273e+01	-5.430056e+02
5.700000e-07	-3.883267e-06	-8.197667e-09	-2.628346e+01	-5.372981e+02
5.800000e-07	-3.740014e-06	-8.104600e-09	-2.531387e+01	-5.314680e+02
5.900000e-07	-3.595407e-06	-8.001111e-09	-2.433511e+01	-5.252646e+02
6.000000e-07	-3.449482e-06	-7.894799e-09	-2.334743e+01	-5.184930e+02
6.100000e-07	-3.302342e-06	-7.790595e-09	-2.235153e+01	-5.110995e+02
6.200000e-07	-3.154073e-06	-7.680217e-09	-2.134799e+01	-5.031959e+02
6.300000e-07	-3.004741e-06	-7.558729e-09	-2.033725e+01	-4.950082e+02
6.400000e-07	-2.854416e-06	-7.430712e-09	-1.931980e+01	-4.867711e+02
6.500000e-07	-2.703138e-06	-7.304509e-09	-1.829589e+01	-4.786113e+02
6.600000e-07	-2.550832e-06	-7.174210e-09	-1.726502e+01	-4.704733e+02
6.700000e-07	-2.397575e-06	-7.033071e-09	-1.622772e+01	-4.621246e+02
6.800000e-07	-2.243464e-06	-6.885553e-09	-1.518463e+01	-4.532413e+02
6.900000e-07	-2.088485e-06	-6.737519e-09	-1.413568e+01	-4.435418e+02
7.000000e-07	-1.932737e-06	-6.587301e-09	-1.308151e+01	-4.329088e+02
7.100000e-07	-1.776326e-06	-6.425299e-09	-1.202286e+01	-4.214444e+02
7.200000e-07	-1.619328e-06	-6.249873e-09	-1.096024e+01	-4.094255e+02
7.300000e-07	-1.461738e-06	-6.064475e-09	-9.893607e+00	-3.971724e+02
7.400000e-07	-1.303523e-06	-5.874621e-09	-8.822752e+00	-3.848833e+02
7.500000e-07	-1.144804e-06	-5.675820e-09	-7.748476e+00	-3.725065e+02
7.600000e-07	-9.857081e-07	-5.463497e-09	-6.671655e+00	-3.597135e+02
7.700000e-07	-8.262561e-07	-5.239817e-09	-5.592422e+00	-3.459952e+02
7.800000e-07	-6.664834e-07	-5.008014e-09	-4.511018e+00	-3.308507e+02
7.900000e-07	-5.065105e-07	-4.766577e-09	-3.428260e+00	-3.139902e+02
8.000000e-07	-3.464141e-07	-4.502291e-09	-2.344665e+00	-2.954586e+02
8.100000e-07	-1.861823e-07	-4.209964e-09	-1.260154e+00	-2.756078e+02
8.200000e-07	-2.583517e-08	-3.896249e-09	-1.748625e-01	-2.549026e+02
8.300000e-07	1.345171e-07	-3.565729e-09	9.104639e-01	-2.336142e+02
8.400000e-07	2.947498e-07	-3.210108e-09	1.994981e+00	-2.115171e+02
8.500000e-07	4.548540e-07	-2.818169e-09	3.078629e+00	-1.877171e+02
8.600000e-07	6.148322e-07	-2.384128e-09	4.161423e+00	-1.607134e+02
8.700000e-07	7.745911e-07	-1.900077e-09	5.242733e+00	-1.287176e+02
8.800000e-07	9.340628e-07	-1.343524e-09	6.322099e+00	-9.016408e+01
8.900000e-07	1.093181e-06	-6.822001e-10	7.399072e+00	-4.426356e+01
9.000000e-07	1.251886e-06	1.065709e-10	8.473251e+00	8.576142e+00
9.100000e-07	1.410137e-06	1.015809e-09	9.544357e+00	6.661473e+01
9.200000e-07	1.567890e-06	1.988039e-09	1.061209e+01	1.269974e+02
9.300000e-07	1.725151e-06	2.930822e-09	1.167649e+01	1.862854e+02
9.400000e-07	1.881795e-06	3.763045e-09	1.273672e+01	2.411582e+02
9.500000e-07	2.037704e-06	4.449153e-09	1.379197e+01	2.890888e+02
9.600000e-07	2.192864e-06	5.000672e-09	1.484215e+01	3.288030e+02
9.700000e-07	2.347238e-06	5.451369e-09	1.588702e+01	3.604010e+02
9.800000e-07	2.500745e-06	5.830902e-09	1.692601e+01	3.851274e+02
9.900000e-07	2.653270e-06	6.154859e-09	1.795836e+01	4.048830e+02
1.000000e-06	2.804819e-06	6.432375e-09	1.898410e+01	4.216431e+02
1.010000e-06	2.955371e-06	6.678437e-09	2.000310e+01	4.369629e+02
1.020000e-06	3.104848e-06	6.904510e-09	2.101481e+01	4.517038e+02
1.030000e-06	3.253207e-06	7.110926e-09	2.201896e+01	4.660282e+02
1.040000e-06	3.400393e-06	7.297928e-09	2.301518e+01	4.796194e+02
1.050000e-06	3.546368e-06	7.469525e-09	2.400320e+01	4.920111e+02
1.060000e-06	3.691108e-06	7.629751e-09	2.498285e+01	5.028916e+02
1.070000e-06	3.834536e-06	7.778899e-09	2.595363e+01	5.122770e+02
1.080000e-06	3.976512e-06	7.916239e-09	2.691457e+01	5.205090e+02
1.090000e-06	4.116891e-06	8.044415e-09	2.786471e+01	5.281076e+02
1.100000e-06	4.255693e-06	8.167569e-09	2.880418e+01	5.355588e+02
1.110000e-06	4.392914e-06	8.285114e-09	2.973294e+01	5.431360e+02
1.120000e-06	4.528492e-06	8.395657e-09	3.065059e+01	5.508243e+02
1.130000e-06	4.662457e-06	8.500655e-09	3.155731e+01	5.583724e+02
1.140000e-06	4.794729e-06	8.600455e-09	3.245259e+01	5.654373e+02
1.150000e-06	4.925281e-06	8.693833e-09	3.333622e+01	5.717544e+02
1.160000e-06	5.054126e-06	8.778696e-09	3.420828e+01	5.772587e+02
1.170000e-06	5.181225e-06	8.857050e-09	3.506854e+01	5.821119e+02
1.180000e-06	5.306522e-06	8.932726e-09	3.591660e+01	5.866280e+02
1.190000e-06	5.429914e-06	9.007180e-09	3.675177e+01	5.911398e+02
1.200000e-06	5.551355e-06	9.080231e-09	3.757372e+01	5.958635e+02
1.210000e-06	5.670788e-06	9.150571e-09	3.838209e+01	6.008215e+02
1.220000e-06	5.788063e-06	9.219693e-09	3.917586e+01	6.058512e+02
1.230000e-06	5.903077e-06	9.287645e-09	3.995431e+01	6.106916e+02
1.240000e-06	6.015860e-06	9.350655e-09	4.071767e+01	6.151053e+02
1.250000e-06	6.126526e-06	9.407348e-09	4.146670e+01	6.189830e+02
1.260000e-06	6.235089e-06	9.461214e-09	4.220150e+01	6.223856e+02
1.270000e-06	6.341391e-06	9.515976e-09	4.292099e+01	6.255101e+02
1.280000e-06	6.445367e-06	9.569871e-09	4.362474e+01	6.285980e+02
1.290000e-06	6.547050e-06	9.621711e-09	4.431298e+01	6.318280e+02
1.300000e-06	6.646346e-06	9.671573e-09	4.498505e+01	6.352408e+02
1.310000e-06	6.743159e-06	9.719009e-09	4.564031e+01	6.387278e+02
1.320000e-06	6.837600e-06	9.763874e-09	4.627953e+01	6.420846e+02
1.330000e-06	6.929720e-06	9.804781e-09	4.690303e+01	6.451050e+02
1.340000e-06	7.019373e-06	9.843975e-09	4.750984e+01	6.476724e+02
1.350000e-06	7.106548e-06	9.883986e-09	4.809987e+01	6.498094e+02
1.360000e-06	7.191331e-06	9.922774e-09	4.867372e+01	6.516657e+02
1.370000e-06	7.273569e-06	9.956372e-09	4.923033e+01	6.534516e+02
1.380000e-06	7.353123e-06	9.985621e-09	4.976879e+01	6.553472e+02
1.390000e-06	7.429958e-06	1.001515e-08	5.028884e+01	6.574287e+02
1.400000e-06	7.504000e-06	1.004606e-08	5.078998e+01	6.596417e+02
1.410000e-06	7.575346e-06	1.007559e-08	5.127288e+01	6.618315e+02
1.420000e-06	7.644018e-06	1.010290e-08	5.173768e+01	6.638170e+02
1.430000e-06	7.709903e-06	1.012913e-08	5.218361e+01	6.654715e+02
1.440000e-06	7.773105e-06	1.015370e-08	5.261139e+01	6.667782e+02
1.450000e-06	7.833704e-06	1.017383e-08	5.302154e+01	6.678346e+02
1.460000e-06	7.891538e-06	1.019011e-08	5.341299e+01	6.688064e+02
1.470000e-06	7.946502e-06	1.020672e-08	5.378501e+01	6.698528e+02
1.480000e-06	7.998337e-06	1.022360e-08	5.413585e+01	6.710564e+02
1.490000e-06	8.046924e-06	1.023964e-08	5.446470e+01	6.723887e+02
1.500000e-06	8.092646e-06	1.025719e-08	5.477417e+01	6.737258e+02
1.510000e-06	8.135550e-06	1.027638e-08	5.506456e+01	6.749061e+02
1.520000e-06	8.175510e-06	1.029237e-08	5.533503e+01	6.758038e+02
1.530000e-06	8.212663e-06	1.030346e-08	5.558649e+01	6.763857e+02
1.540000e-06	8.246899e-06	1.031013e-08	5.581821e+01	6.767256e+02
1.550000e-06	8.278193e-06	1.031553e-08	5.603002e+01	6.769722e+02
1.560000e-06	8.306696e-06	1.032230e-08	5.622294e+01	6.772831e+02
1.570000e-06	8.332196e-06	1.033004e-08	5.639554e+01	6.777570e+02
1.580000e-06	8.354722e-06	1.033952e-08	5.654800e+01	6.783913e+02
1.590000e-06	8.374460e-06	1.035112e-08	5.668160e+01	6.790855e+02
1.600000e-06	8.391155e-06	1.036100e-08	5.679459e+01	6.796876e+02
1.610000e-06	8.404655e-06	1.036461e-08	5.688597e+01	6.800618e+02
1.620000e-06	8.414914e-06	1.036266e-08	5.695540e+01	6.801492e+02
1.630000e-06	8.422073e-06	1.035994e-08	5.700385e+01	6.799928e+02
1.640000e-06	8.426349e-06	1.035998e-08	5.703280e+01	6.797178e+02
1.650000e-06	8.427635e-06	1.036227e-08	5.704150e+01	6.794753e+02
1.660000e-06	8.426086e-06	1.036109e-08	5.703102e+01	6.793746e+02
1.670000e-06	8.421812e-06	1.035941e-08	5.700209e+01	6.794348e+02
1.680000e-06	8.414716e-06	1.036105e-08	5.695406e+01	6.795758e+02
1.690000e-06	8.404774e-06	1.036021e-08	5.688677e+01	6.796533e+02
1.700000e-06	8.391794e-06	1.035510e-08	5.679892e+01	6.795227e+02
1.710000e-06	8.375976e-06	1.035056e-08	5.669186e+01	6.791021e+02
1.720000e-06	8.357703e-06	1.035730e-08	5.656818e+01	6.784091e+02
1.730000e-06	8.336874e-06	1.033782e-08	5.642720e+01	6.775541e+02
1.740000e-06	8.312904e-06	1.027676e-08	5.626496e+01	6.766936e+02
1.750000e-06	8.285026e-06	1.025694e-08	5.607627e+01	6.759636e+02
1.760000e-06	8.253333e-06	1.026974e-08	5.586176e+01	6.754231e+02
1.770000e-06	8.218780e-06	1.028339e-08	5.562789e+01	6.750298e+02
1.780000e-06	8.181748e-06	1.031407e-08	5.537725e+01	6.746602e+02
1.790000e-06	8.142435e-06	1.032400e-08	5.511116e+01	6.741616e+02
1.800000e-06	8.101223e-06	1.024274e-08	5.483222e+01	6.734157e+02
1.810000e-06	8.057477e-06	1.023797e-08	5.453613e+01	6.723832e+02
1.820000e-06	8.010688e-06	1.024085e-08	5.421945e+01	6.711136e+02
1.830000e-06	7.960995e-06	1.018671e-08	5.388310e+01	6.697146e+02
1.840000e-06	7.907951e-06	1.021840e-08	5.352408e+01	6.682984e+02
1.850000e-06	7.851867e-06	1.018471e-08	5.314448e+01	6.669293e+02
1.860000e-06	7.793111e-06	1.019885e-08	5.274680e+01	6.655960e+02
1.870000e-06	7.731470e-06	1.017712e-08	5.232959e+01	6.642218e+02
1.880000e-06	7.667083e-06	1.008951e-08	5.189379e+01	6.627062e+02
1.890000e-06	7.599792e-06	1.007938e-08	5.143834e+01	6.609778e+02
1.900000e-06	7.529641e-06	1.001364e-08	5.096353e+01	6.590336e+02
1.910000e-06	7.456576e-06	1.002010e-08	5.046900e+01	6.569448e+02
1.920000e-06	7.380567e-06	1.001378e-08	4.995454e+01	6.548254e+02
1.930000e-06	7.301825e-06	9.973292e-09	4.942159e+01	6.527779e+02
1.940000e-06	7.220478e-06	9.964235e-09	4.887099e+01	6.508404e+02
1.950000e-06	7.136634e-06	9.900351e-09	4.830351e+01	6.489614e+02
1.960000e-06	7.050122e-06	9.871429e-09	4.771796e+01	6.470144e+02
1.970000e-06	6.961094e-06	9.808345e-09	4.711538e+01	6.448494e+02
1.980000e-06	6.869618e-06	9.775299e-09	4.649624e+01	6.423574e+02
1.990000e-06	6.775657e-06	9.761681e-09	4.586027e+01	6.395214e+02
2.000000e-06	6.679366e-06	9.723754e-09	4.520854e+01	6.364280e+02
2.010000e-06	6.580723e-06	9.684221e-09	4.454089e+01	6.332335e+02
2.020000e-06	6.479666e-06	9.614414e-09	4.385689e+01	6.300982e+02
2.030000e-06	6.376199e-06	9.566425e-09	4.315659e+01	6.271151e+02
2.040000e-06	6.270540e-06	9.520436e-09	4.244144e+01	6.242661e+02
2.050000e-06	6.162693e-06	9.482828e-09	4.171149e+01	6.214255e+02
2.060000e-06	6.052679e-06	9.433016e-09	4.096688e+01	6.184107e+02
2.070000e-06	5.940412e-06	9.380298e-09	4.020701e+01	6.150594e+02
2.080000e-06	5.825767e-06	9.325536e-09	3.943105e+01	6.113002e+02
2.090000e-06	5.708765e-06	9.264454e-09	3.863914e+01	6.071847e+02
2.100000e-06	5.589545e-06	9.191232e-09	3.783221e+01	6.028659e+02
2.110000e-06	5.468372e-06	9.125008e-09	3.701206e+01	5.985313e+02
2.120000e-06	5.345263e-06	9.070745e-09	3.617881e+01	5.943175e+02
2.130000e-06	5.220250e-06	9.011086e-09	3.533267e+01	5.902460e+02
2.140000e-06	5.093318e-06	8.952266e-09	3.447355e+01	5.862074e+02
2.150000e-06	4.964572e-06	8.873587e-09	3.360215e+01	5.820031e+02
2.160000e-06	4.834107e-06	8.800758e-09	3.271911e+01	5.774288e+02
2.170000e-06	4.701928e-06	8.719145e-09	3.182447e+01	5.723624e+02
2.180000e-06	4.568054e-06	8.638227e-09	3.091836e+01	5.668189e+02
2.190000e-06	4.432549e-06	8.557715e-09	3.000121e+01	5.609455e+02
2.200000e-06	4.295403e-06	8.476701e-09	2.907295e+01	5.549579e+02
2.210000e-06	4.156571e-06	8.396332e-09	2.813329e+01	5.490433e+02
2.220000e-06	4.016171e-06	8.303768e-09	2.718300e+01	5.432730e+02
2.230000e-06	3.874253e-06	8.205612e-09	2.622245e+01	5.375636e+02
2.240000e-06	3.730927e-06	8.103912e-09	2.525236e+01	5.317052e+02
2.250000e-06	3.586293e-06	8.005934e-09	2.427342e+01	5.254481e+02
2.260000e-06	3.440383e-06	7.904669e-09	2.328585e+01	5.186094e+02
2.270000e-06	3.293202e-06	7.797350e-09	2.228967e+01	5.111531e+02
2.280000e-06	3.144850e-06	7.685363e-09	2.128556e+01	5.032069e+02
2.290000e-06	2.995382e-06	7.572374e-09	2.027391e+01	4.950035e+02
2.300000e-06	2.844898e-06	7.452500e-09	1.925538e+01	4.867714e+02
2.310000e-06	2.693475e-06	7.325642e-09	1.823048e+01	4.786199e+02
2.320000e-06	2.541041e-06	7.190165e-09	1.719875e+01	4.704729e+02
2.330000e-06	2.387703e-06	7.051881e-09	1.616090e+01	4.620828e+02
2.340000e-06	2.233508e-06	6.911631e-09	1.511725e+01	4.531233e+02
2.350000e-06	2.078424e-06	6.764412e-09	1.406758e+01	4.433255e+02
2.360000e-06	1.922593e-06	6.608108e-09	1.301285e+01	4.325946e+02
2.370000e-06	1.766140e-06	6.441725e-09	1.195392e+01	4.210553e+02
2.380000e-06	1.609102e-06	6.269940e-09	1.089102e+01	4.089966e+02
2.390000e-06	1.451432e-06	6.090653e-09	9.823855e+00	3.967337e+02
2.400000e-06	1.293132e-06	5.900849e-09	8.752420e+00	3.844427e+02
2.410000e-06	1.134363e-06	5.697484e-09	7.677810e+00	3.720412e+02
2.420000e-06	9.752491e-07	5.484898e-09	6.600864e+00	3.591749e+02
2.430000e-06	8.158655e-07	5.262912e-09	5.522094e+00	3.453255e+02
2.440000e-06	6.562064e-07	5.029397e-09	4.441459e+00	3.300055e+02
2.450000e-06	4.963107e-07	4.781450e-09	3.359223e+00	3.129574e+02
2.460000e-06	3.362741e-07	4.519565e-09	2.276034e+00	2.942634e+02
2.470000e-06	1.760901e-07	4.240172e-09	1.191846e+00	2.742994e+02
2.480000e-06	1.581154e-08	3.934239e-09	1.070186e-01	2.535250e+02
2.490000e-06	-1.444756e-07	3.596011e-09	-9.778670e-01	2.321717e+02
2.500000e-06	-3.046754e-07	3.224793e-09	-2.062161e+00	2.099469e+02
2.510000e-06	-4.647274e-07	2.826905e-09	-3.145456e+00	1.858839e+02
2.520000e-06	-6.246167e-07	2.394723e-09	-4.227648e+00	1.584315e+02
2.530000e-06	-7.842677e-07	1.910783e-09	-5.308228e+00	1.257987e+02
2.540000e-06	-9.436816e-07	1.352314e-09	-6.387203e+00	8.647714e+01
2.550000e-06	-1.102789e-06	6.952043e-10	-7.464102e+00	3.978990e+01
2.560000e-06	-1.261452e-06	-8.768892e-11	-8.537993e+00	-1.371295e+01
2.570000e-06	-1.419597e-06	-1.002313e-09	-9.608382e+00	-7.215501e+01
2.580000e-06	-1.577183e-06	-1.990552e-09	-1.067499e+01	-1.325890e+02
2.590000e-06	-1.734172e-06	-2.947628e-09	-1.173755e+01	-1.915541e+02
2.600000e-06	-1.890519e-06	-3.783652e-09	-1.279576e+01	-2.457847e+02
2.610000e-06	-2.046187e-06	-4.468898e-09	-1.384939e+01	-2.928716e+02
2.620000e-06	-2.201098e-06	-5.020211e-09	-1.489788e+01	-3.316883e+02
2.630000e-06	-2.355212e-06	-5.468921e-09	-1.594099e+01	-3.624743e+02
2.640000e-06	-2.508475e-06	-5.845442e-09	-1.697833e+01	-3.865712e+02
2.650000e-06	-2.660805e-06	-6.172201e-09	-1.800936e+01	-4.059154e+02
2.660000e-06	-2.812093e-06	-6.460158e-09	-1.903334e+01	-4.224578e+02
2.670000e-06	-2.962307e-06	-6.712746e-09	-2.005004e+01	-4.376878e+02
2.680000e-06	-3.111549e-06	-6.937305e-09	-2.106017e+01	-4.523873e+02
2.690000e-06	-3.259742e-06	-7.143940e-09	-2.206320e+01	-4.666540e+02
2.700000e-06	-3.406748e-06	-7.332558e-09	-2.305819e+01	-4.801386e+02
2.710000e-06	-3.552551e-06	-7.502478e-09	-2.404504e+01	-4.923784e+02
2.720000e-06	-3.697089e-06	-7.657882e-09	-2.502333e+01	-5.030917e+02
2.730000e-06	-3.840220e-06	-7.802804e-09	-2.599210e+01	-5.123326e+02
2.740000e-06	-3.981852e-06	-7.940844e-09	-2.695072e+01	-5.204708e+02
2.750000e-06	-4.121982e-06	-8.073718e-09	-2.789917e+01	-5.280330e+02
2.760000e-06	-4.260595e-06	-8.198546e-09	-2.883736e+01	-5.354897e+02
2.770000e-06	-4.397647e-06	-8.311025e-09	-2.976498e+01	-5.430846e+02
2.780000e-06	-4.533068e-06	-8.416245e-09	-3.068156e+01	-5.507731e+02
2.790000e-06	-4.666813e-06	-8.519119e-09	-3.158680e+01	-5.582860e+02
2.800000e-06	-4.798884e-06	-8.618441e-09	-3.248071e+01	-5.652808e+02
2.810000e-06	-4.929262e-06	-8.709354e-09	-3.336316e+01	-5.715099e+02
2.820000e-06	-5.057907e-06	-8.792993e-09	-3.423387e+01	-5.769332e+02
2.830000e-06	-5.184746e-06	-8.875281e-09	-3.509237e+01	-5.817338e+02
2.840000e-06	-5.309715e-06	-8.955718e-09	-3.593821e+01	-5.862347e+02
2.850000e-06	-5.432850e-06	-9.032695e-09	-3.677164e+01	-5.907621e+02
2.860000e-06	-5.554115e-06	-9.105501e-09	-3.759240e+01	-5.955136e+02
2.870000e-06	-5.673311e-06	-9.177275e-09	-3.839917e+01	-6.004899e+02
2.880000e-06	-5.790288e-06	-9.249367e-09	-3.919091e+01	-6.055126e+02
2.890000e-06	-5.904926e-06	-9.318764e-09	-3.996683e+01	-6.103172e+02
2.900000e-06	-6.017173e-06	-9.382248e-09	-4.072656e+01	-6.146759e+02
2.910000e-06	-6.127136e-06	-9.440670e-09	-4.147083e+01	-6.184970e+02
2.920000e-06	-6.234969e-06	-9.497439e-09	-4.220069e+01	-6.218587e+02
2.930000e-06	-6.340729e-06	-9.551289e-09	-4.291651e+01	-6.249682e+02
2.940000e-06	-6.444282e-06	-9.602789e-09	-4.361740e+01	-6.280649e+02
