# Temperatura_=_49.81
# Concentracion g/m^3_=_13400.0
# C_Vs_to_Am_M_A/Vsm_=_65563218390.804596
# pendiente_HvsI_1/m_=_3716.3
# ordenada_HvsI_A/m_=_1297.0
# frecuencia_Hz_=_301400.7847306095

Tiempo_(s)	Campo_(V.s)	Magnetizacion_(V.s)	Campo_(kA/m)	Magnetizacion_(A/m)
0.000000e+00	-8.410090e-06	-1.117721e-08	-5.692569e+01	-7.341203e+02
1.000000e-08	-8.405849e-06	-1.117400e-08	-5.689699e+01	-7.341675e+02
2.000000e-08	-8.398970e-06	-1.117099e-08	-5.685042e+01	-7.343024e+02
3.000000e-08	-8.389365e-06	-1.116812e-08	-5.678541e+01	-7.343403e+02
4.000000e-08	-8.376773e-06	-1.116342e-08	-5.670018e+01	-7.341018e+02
5.000000e-08	-8.361098e-06	-1.115452e-08	-5.659408e+01	-7.334900e+02
6.000000e-08	-8.342557e-06	-1.113801e-08	-5.646858e+01	-7.325335e+02
7.000000e-08	-8.321531e-06	-1.112460e-08	-5.632626e+01	-7.313753e+02
8.000000e-08	-8.297728e-06	-1.115370e-08	-5.616514e+01	-7.302131e+02
9.000000e-08	-8.270570e-06	-1.115803e-08	-5.598132e+01	-7.292171e+02
1.000000e-07	-8.240078e-06	-1.113449e-08	-5.577493e+01	-7.284602e+02
1.100000e-07	-8.206549e-06	-1.110935e-08	-5.554797e+01	-7.278898e+02
1.200000e-07	-8.170114e-06	-1.107300e-08	-5.530136e+01	-7.273528e+02
1.300000e-07	-8.131124e-06	-1.102658e-08	-5.503745e+01	-7.266608e+02
1.400000e-07	-8.089844e-06	-1.099112e-08	-5.475803e+01	-7.256680e+02
1.500000e-07	-8.045934e-06	-1.104781e-08	-5.446082e+01	-7.243263e+02
1.600000e-07	-7.999108e-06	-1.098674e-08	-5.414386e+01	-7.226970e+02
1.700000e-07	-7.949397e-06	-1.097929e-08	-5.380739e+01	-7.209145e+02
1.800000e-07	-7.896663e-06	-1.100232e-08	-5.345044e+01	-7.191198e+02
1.900000e-07	-7.840885e-06	-1.090051e-08	-5.307289e+01	-7.173956e+02
2.000000e-07	-7.782287e-06	-1.087324e-08	-5.267626e+01	-7.157310e+02
2.100000e-07	-7.720969e-06	-1.082216e-08	-5.226122e+01	-7.140320e+02
2.200000e-07	-7.656918e-06	-1.082055e-08	-5.182767e+01	-7.121704e+02
2.300000e-07	-7.590040e-06	-1.083047e-08	-5.137499e+01	-7.100497e+02
2.400000e-07	-7.520302e-06	-1.079570e-08	-5.090295e+01	-7.076544e+02
2.500000e-07	-7.447674e-06	-1.075354e-08	-5.041135e+01	-7.050626e+02
2.600000e-07	-7.372153e-06	-1.070415e-08	-4.990017e+01	-7.024117e+02
2.700000e-07	-7.293828e-06	-1.067438e-08	-4.937001e+01	-6.998358e+02
2.800000e-07	-7.212714e-06	-1.059342e-08	-4.882097e+01	-6.974010e+02
2.900000e-07	-7.128989e-06	-1.055741e-08	-4.825426e+01	-6.950699e+02
3.000000e-07	-7.042875e-06	-1.055798e-08	-4.767137e+01	-6.927117e+02
3.100000e-07	-6.954345e-06	-1.052810e-08	-4.707214e+01	-6.901557e+02
3.200000e-07	-6.863339e-06	-1.049553e-08	-4.645614e+01	-6.872647e+02
3.300000e-07	-6.769866e-06	-1.042128e-08	-4.582344e+01	-6.839954e+02
3.400000e-07	-6.673999e-06	-1.035423e-08	-4.517455e+01	-6.804200e+02
3.500000e-07	-6.575737e-06	-1.030167e-08	-4.450944e+01	-6.766952e+02
3.600000e-07	-6.475043e-06	-1.025601e-08	-4.382787e+01	-6.729947e+02
3.700000e-07	-6.372000e-06	-1.019930e-08	-4.313040e+01	-6.694319e+02
3.800000e-07	-6.266669e-06	-1.014994e-08	-4.241744e+01	-6.660076e+02
3.900000e-07	-6.159069e-06	-1.011719e-08	-4.168912e+01	-6.626071e+02
4.000000e-07	-6.049293e-06	-1.005622e-08	-4.094608e+01	-6.590485e+02
4.100000e-07	-5.937338e-06	-9.978786e-09	-4.018829e+01	-6.551610e+02
4.200000e-07	-5.823099e-06	-9.894331e-09	-3.941503e+01	-6.508598e+02
4.300000e-07	-5.706569e-06	-9.833121e-09	-3.862627e+01	-6.461833e+02
4.400000e-07	-5.587801e-06	-9.779575e-09	-3.782236e+01	-6.412757e+02
4.500000e-07	-5.466974e-06	-9.718001e-09	-3.700451e+01	-6.363212e+02
4.600000e-07	-5.344242e-06	-9.641258e-09	-3.617378e+01	-6.314594e+02
4.700000e-07	-5.219566e-06	-9.563071e-09	-3.532987e+01	-6.267183e+02
4.800000e-07	-5.092990e-06	-9.487977e-09	-3.447311e+01	-6.219973e+02
4.900000e-07	-4.964626e-06	-9.401316e-09	-3.360425e+01	-6.171074e+02
5.000000e-07	-4.834437e-06	-9.310677e-09	-3.272303e+01	-6.118533e+02
5.100000e-07	-4.702462e-06	-9.220506e-09	-3.182973e+01	-6.061202e+02
5.200000e-07	-4.568837e-06	-9.143048e-09	-3.092526e+01	-5.999268e+02
5.300000e-07	-4.433577e-06	-9.062893e-09	-3.000972e+01	-5.934179e+02
5.400000e-07	-4.296672e-06	-8.964789e-09	-2.908305e+01	-5.867996e+02
5.500000e-07	-4.158158e-06	-8.855540e-09	-2.814548e+01	-5.802428e+02
5.600000e-07	-4.018011e-06	-8.750750e-09	-2.719686e+01	-5.737992e+02
5.700000e-07	-3.876220e-06	-8.652665e-09	-2.623711e+01	-5.673678e+02
5.800000e-07	-3.732846e-06	-8.546500e-09	-2.526665e+01	-5.607299e+02
5.900000e-07	-3.588113e-06	-8.432611e-09	-2.428700e+01	-5.536405e+02
6.000000e-07	-3.442215e-06	-8.315844e-09	-2.329945e+01	-5.459348e+02
6.100000e-07	-3.295111e-06	-8.199489e-09	-2.230374e+01	-5.376040e+02
6.200000e-07	-3.146775e-06	-8.074578e-09	-2.129970e+01	-5.288025e+02
6.300000e-07	-2.997362e-06	-7.937240e-09	-2.028836e+01	-5.197788e+02
6.400000e-07	-2.846933e-06	-7.796203e-09	-1.927014e+01	-5.107596e+02
6.500000e-07	-2.695473e-06	-7.658603e-09	-1.824495e+01	-5.018335e+02
6.600000e-07	-2.543087e-06	-7.517942e-09	-1.721349e+01	-4.928925e+02
6.700000e-07	-2.389838e-06	-7.364714e-09	-1.617619e+01	-4.836572e+02
6.800000e-07	-2.235703e-06	-7.204361e-09	-1.513289e+01	-4.737844e+02
6.900000e-07	-2.080697e-06	-7.040939e-09	-1.408369e+01	-4.630102e+02
7.000000e-07	-1.924909e-06	-6.874041e-09	-1.302920e+01	-4.512674e+02
7.100000e-07	-1.768488e-06	-6.695609e-09	-1.197043e+01	-4.387197e+02
7.200000e-07	-1.611481e-06	-6.505639e-09	-1.090769e+01	-4.256909e+02
7.300000e-07	-1.453848e-06	-6.306926e-09	-9.840715e+00	-4.125097e+02
7.400000e-07	-1.295610e-06	-6.103553e-09	-8.769643e+00	-3.993360e+02
7.500000e-07	-1.136844e-06	-5.889625e-09	-7.695001e+00	-3.860455e+02
7.600000e-07	-9.776567e-07	-5.658131e-09	-6.617502e+00	-3.722303e+02
7.700000e-07	-8.181306e-07	-5.415198e-09	-5.537711e+00	-3.573307e+02
7.800000e-07	-6.583710e-07	-5.164492e-09	-4.456340e+00	-3.408483e+02
7.900000e-07	-4.983994e-07	-4.903491e-09	-3.373535e+00	-3.225531e+02
8.000000e-07	-3.382084e-07	-4.619922e-09	-2.289244e+00	-3.025836e+02
8.100000e-07	-1.778769e-07	-4.312249e-09	-1.204002e+00	-2.813748e+02
8.200000e-07	-1.752708e-08	-3.982891e-09	-1.186362e-01	-2.594143e+02
8.300000e-07	1.428027e-07	-3.631183e-09	9.665940e-01	-2.369013e+02
8.400000e-07	3.030960e-07	-3.248209e-09	2.051577e+00	-2.134398e+02
8.500000e-07	4.633250e-07	-2.825066e-09	3.136126e+00	-1.879035e+02
8.600000e-07	6.234106e-07	-2.357304e-09	4.219702e+00	-1.585649e+02
8.700000e-07	7.831871e-07	-1.831352e-09	5.301188e+00	-1.234950e+02
8.800000e-07	9.426208e-07	-1.222592e-09	6.380353e+00	-8.113754e+01
8.900000e-07	1.101731e-06	-4.979617e-10	7.457326e+00	-3.089033e+01
9.000000e-07	1.260481e-06	3.637095e-10	8.531868e+00	2.649960e+01
9.100000e-07	1.418802e-06	1.348408e-09	9.603501e+00	8.887239e+01
9.200000e-07	1.576569e-06	2.383914e-09	1.067138e+01	1.529730e+02
9.300000e-07	1.733710e-06	3.365068e-09	1.173503e+01	2.150791e+02
9.400000e-07	1.890190e-06	4.213535e-09	1.279420e+01	2.717685e+02
9.500000e-07	2.046036e-06	4.906295e-09	1.384908e+01	3.206083e+02
9.600000e-07	2.201196e-06	5.463374e-09	1.489932e+01	3.605742e+02
9.700000e-07	2.355469e-06	5.919839e-09	1.594355e+01	3.920920e+02
9.800000e-07	2.508860e-06	6.304876e-09	1.698182e+01	4.167152e+02
9.900000e-07	2.661366e-06	6.632648e-09	1.801409e+01	4.365599e+02
1.000000e-06	2.812897e-06	6.912833e-09	1.903976e+01	4.536857e+02
1.010000e-06	2.963443e-06	7.161424e-09	2.005877e+01	4.696086e+02
1.020000e-06	3.112887e-06	7.391061e-09	2.107032e+01	4.850728e+02
1.030000e-06	3.261177e-06	7.603719e-09	2.207405e+01	5.001084e+02
1.040000e-06	3.408315e-06	7.800133e-09	2.306999e+01	5.143073e+02
1.050000e-06	3.554251e-06	7.984403e-09	2.405779e+01	5.271822e+02
1.060000e-06	3.698967e-06	8.157738e-09	2.503733e+01	5.384681e+02
1.070000e-06	3.842344e-06	8.317546e-09	2.600782e+01	5.482652e+02
1.080000e-06	3.984214e-06	8.462408e-09	2.696810e+01	5.569937e+02
1.090000e-06	4.124527e-06	8.597412e-09	2.791784e+01	5.652119e+02
1.100000e-06	4.263285e-06	8.727369e-09	2.885705e+01	5.733889e+02
1.110000e-06	4.400401e-06	8.853385e-09	2.978516e+01	5.817359e+02
1.120000e-06	4.535912e-06	8.974048e-09	3.070240e+01	5.901602e+02
1.130000e-06	4.669821e-06	9.089319e-09	3.160880e+01	5.983495e+02
1.140000e-06	4.802054e-06	9.200853e-09	3.250384e+01	6.059418e+02
1.150000e-06	4.932594e-06	9.306522e-09	3.338744e+01	6.126994e+02
1.160000e-06	5.061339e-06	9.403308e-09	3.425888e+01	6.186154e+02
1.170000e-06	5.188293e-06	9.490872e-09	3.511820e+01	6.239120e+02
1.180000e-06	5.313462e-06	9.573339e-09	3.596543e+01	6.289392e+02
1.190000e-06	5.436799e-06	9.652790e-09	3.680026e+01	6.340251e+02
1.200000e-06	5.558202e-06	9.730247e-09	3.762201e+01	6.393442e+02
1.210000e-06	5.677528e-06	9.807020e-09	3.842970e+01	6.448597e+02
1.220000e-06	5.794683e-06	9.884410e-09	3.922269e+01	6.503600e+02
1.230000e-06	5.909536e-06	9.959768e-09	4.000010e+01	6.555676e+02
1.240000e-06	6.022153e-06	1.002907e-08	4.076238e+01	6.602705e+02
1.250000e-06	6.132681e-06	1.009274e-08	4.151051e+01	6.644162e+02
1.260000e-06	6.241094e-06	1.015476e-08	4.224433e+01	6.681311e+02
1.270000e-06	6.347270e-06	1.021733e-08	4.296301e+01	6.716593e+02
1.280000e-06	6.451163e-06	1.027689e-08	4.366623e+01	6.752510e+02
1.290000e-06	6.552747e-06	1.033294e-08	4.435382e+01	6.790525e+02
1.300000e-06	6.651931e-06	1.038749e-08	4.502518e+01	6.830450e+02
1.310000e-06	6.748612e-06	1.044129e-08	4.567958e+01	6.870575e+02
1.320000e-06	6.842912e-06	1.049354e-08	4.631787e+01	6.908472e+02
1.330000e-06	6.934897e-06	1.054216e-08	4.694050e+01	6.942081e+02
1.340000e-06	7.024426e-06	1.058881e-08	4.754650e+01	6.970621e+02
1.350000e-06	7.111473e-06	1.063503e-08	4.813569e+01	6.994913e+02
1.360000e-06	7.196105e-06	1.067963e-08	4.870855e+01	7.017004e+02
1.370000e-06	7.278236e-06	1.071945e-08	4.926447e+01	7.039260e+02
1.380000e-06	7.357710e-06	1.075476e-08	4.980241e+01	7.063354e+02
1.390000e-06	7.434452e-06	1.079114e-08	5.032186e+01	7.089568e+02
1.400000e-06	7.508357e-06	1.083125e-08	5.082210e+01	7.116722e+02
1.410000e-06	7.579509e-06	1.086983e-08	5.130370e+01	7.142744e+02
1.420000e-06	7.648034e-06	1.090331e-08	5.176753e+01	7.165608e+02
1.430000e-06	7.713781e-06	1.093464e-08	5.221256e+01	7.184236e+02
1.440000e-06	7.776817e-06	1.096455e-08	5.263924e+01	7.198960e+02
1.450000e-06	7.837209e-06	1.099038e-08	5.304801e+01	7.211361e+02
1.460000e-06	7.894783e-06	1.101224e-08	5.343771e+01	7.223561e+02
1.470000e-06	7.949458e-06	1.103413e-08	5.380780e+01	7.237289e+02
1.480000e-06	8.000981e-06	1.105579e-08	5.415654e+01	7.253134e+02
1.490000e-06	8.049345e-06	1.107897e-08	5.448390e+01	7.270305e+02
1.500000e-06	8.094881e-06	1.110415e-08	5.479213e+01	7.286996e+02
1.510000e-06	8.137572e-06	1.112607e-08	5.508109e+01	7.301199e+02
1.520000e-06	8.177348e-06	1.114284e-08	5.535032e+01	7.311579e+02
1.530000e-06	8.214335e-06	1.115823e-08	5.560068e+01	7.318064e+02
1.540000e-06	8.248452e-06	1.117293e-08	5.583161e+01	7.321863e+02
1.550000e-06	8.279649e-06	1.118411e-08	5.604277e+01	7.324935e+02
1.560000e-06	8.307967e-06	1.119028e-08	5.623445e+01	7.329135e+02
1.570000e-06	8.333277e-06	1.119618e-08	5.640577e+01	7.335423e+02
1.580000e-06	8.355642e-06	1.120851e-08	5.655715e+01	7.343462e+02
1.590000e-06	8.375144e-06	1.122471e-08	5.668915e+01	7.351795e+02
1.600000e-06	8.391607e-06	1.123565e-08	5.680058e+01	7.358508e+02
1.610000e-06	8.404894e-06	1.123886e-08	5.689052e+01	7.362077e+02
1.620000e-06	8.414950e-06	1.123966e-08	5.695859e+01	7.362042e+02
1.630000e-06	8.421959e-06	1.124264e-08	5.700603e+01	7.359203e+02
1.640000e-06	8.426062e-06	1.124387e-08	5.703380e+01	7.355261e+02
1.650000e-06	8.427199e-06	1.124036e-08	5.704150e+01	7.352063e+02
1.660000e-06	8.425543e-06	1.123278e-08	5.703029e+01	7.350788e+02
1.670000e-06	8.421116e-06	1.123601e-08	5.700033e+01	7.351423e+02
1.680000e-06	8.413861e-06	1.124050e-08	5.695122e+01	7.352761e+02
1.690000e-06	8.403762e-06	1.123490e-08	5.688286e+01	7.352920e+02
1.700000e-06	8.390655e-06	1.122630e-08	5.679414e+01	7.350159e+02
1.710000e-06	8.374753e-06	1.122300e-08	5.668651e+01	7.343633e+02
1.720000e-06	8.356419e-06	1.122881e-08	5.656241e+01	7.333766e+02
1.730000e-06	8.335473e-06	1.117548e-08	5.642063e+01	7.322082e+02
1.740000e-06	8.311268e-06	1.112753e-08	5.625679e+01	7.310567e+02
1.750000e-06	8.283163e-06	1.111387e-08	5.606656e+01	7.300849e+02
1.760000e-06	8.251357e-06	1.110358e-08	5.585127e+01	7.293524e+02
1.770000e-06	8.216710e-06	1.111567e-08	5.561675e+01	7.287940e+02
1.780000e-06	8.179550e-06	1.116765e-08	5.536523e+01	7.282491e+02
1.790000e-06	8.140198e-06	1.113871e-08	5.509887e+01	7.275304e+02
1.800000e-06	8.098914e-06	1.104809e-08	5.481943e+01	7.265002e+02
1.810000e-06	8.054978e-06	1.109629e-08	5.452204e+01	7.251229e+02
1.820000e-06	8.008021e-06	1.103775e-08	5.420419e+01	7.234699e+02
1.830000e-06	7.958140e-06	1.103796e-08	5.386656e+01	7.216798e+02
1.840000e-06	7.904964e-06	1.104391e-08	5.350663e+01	7.198900e+02
1.850000e-06	7.848785e-06	1.096810e-08	5.312636e+01	7.181742e+02
1.860000e-06	7.789872e-06	1.101779e-08	5.272760e+01	7.165114e+02
1.870000e-06	7.728143e-06	1.093349e-08	5.230977e+01	7.148009e+02
1.880000e-06	7.663660e-06	1.087322e-08	5.187331e+01	7.129149e+02
1.890000e-06	7.596214e-06	1.082468e-08	5.141678e+01	7.107636e+02
1.900000e-06	7.525883e-06	1.078041e-08	5.094073e+01	7.083419e+02
1.910000e-06	7.452601e-06	1.079323e-08	5.044470e+01	7.057365e+02
1.920000e-06	7.376422e-06	1.075138e-08	4.992906e+01	7.030877e+02
1.930000e-06	7.297592e-06	1.075090e-08	4.939549e+01	7.005253e+02
1.940000e-06	7.216239e-06	1.067591e-08	4.884483e+01	6.981052e+02
1.950000e-06	7.132367e-06	1.062707e-08	4.827712e+01	6.957785e+02
1.960000e-06	7.045740e-06	1.057584e-08	4.769076e+01	6.934072e+02
1.970000e-06	6.956563e-06	1.050530e-08	4.708715e+01	6.908205e+02
1.980000e-06	6.864943e-06	1.048687e-08	4.646700e+01	6.878887e+02
1.990000e-06	6.770893e-06	1.044889e-08	4.583040e+01	6.845812e+02
2.000000e-06	6.674516e-06	1.042910e-08	4.517804e+01	6.809811e+02
2.010000e-06	6.575776e-06	1.035864e-08	4.450970e+01	6.772509e+02
2.020000e-06	6.474633e-06	1.029900e-08	4.382509e+01	6.735613e+02
2.030000e-06	6.371087e-06	1.021976e-08	4.312421e+01	6.700153e+02
2.040000e-06	6.265328e-06	1.016506e-08	4.240836e+01	6.666006e+02
2.050000e-06	6.157388e-06	1.011359e-08	4.167775e+01	6.631923e+02
2.060000e-06	6.047235e-06	1.005607e-08	4.093215e+01	6.596055e+02
2.070000e-06	5.934795e-06	1.001156e-08	4.017107e+01	6.556755e+02
2.080000e-06	5.820056e-06	9.942233e-09	3.939443e+01	6.513298e+02
2.090000e-06	5.703064e-06	9.877793e-09	3.860254e+01	6.466201e+02
2.100000e-06	5.583880e-06	9.787083e-09	3.779582e+01	6.416986e+02
2.110000e-06	5.462663e-06	9.712683e-09	3.697533e+01	6.367487e+02
2.120000e-06	5.339463e-06	9.638081e-09	3.614142e+01	6.319007e+02
2.130000e-06	5.214347e-06	9.573543e-09	3.529454e+01	6.271685e+02
2.140000e-06	5.087343e-06	9.503866e-09	3.443489e+01	6.224392e+02
2.150000e-06	4.958495e-06	9.420633e-09	3.356275e+01	6.175187e+02
2.160000e-06	4.827881e-06	9.334834e-09	3.267866e+01	6.122165e+02
2.170000e-06	4.695576e-06	9.239233e-09	3.178312e+01	6.064305e+02
2.180000e-06	4.561644e-06	9.144604e-09	3.087657e+01	6.001944e+02
2.190000e-06	4.426073e-06	9.055502e-09	2.995893e+01	5.936635e+02
2.200000e-06	4.288792e-06	8.965611e-09	2.902971e+01	5.870450e+02
2.210000e-06	4.149844e-06	8.872489e-09	2.808921e+01	5.805004e+02
2.220000e-06	4.009339e-06	8.769989e-09	2.713816e+01	5.740653e+02
2.230000e-06	3.867360e-06	8.659738e-09	2.617715e+01	5.676234e+02
2.240000e-06	3.724039e-06	8.545712e-09	2.520704e+01	5.609482e+02
2.250000e-06	3.579443e-06	8.426360e-09	2.422831e+01	5.537981e+02
2.260000e-06	3.433517e-06	8.309160e-09	2.324058e+01	5.460226e+02
2.270000e-06	3.286293e-06	8.192548e-09	2.224406e+01	5.376314e+02
2.280000e-06	3.137897e-06	8.077672e-09	2.123960e+01	5.287933e+02
2.290000e-06	2.988375e-06	7.953133e-09	2.022753e+01	5.197607e+02
2.300000e-06	2.837794e-06	7.817052e-09	1.920828e+01	5.107503e+02
2.310000e-06	2.686274e-06	7.672124e-09	1.818268e+01	5.018312e+02
2.320000e-06	2.533865e-06	7.520092e-09	1.715107e+01	4.928741e+02
2.330000e-06	2.380502e-06	7.365754e-09	1.611299e+01	4.835866e+02
2.340000e-06	2.226156e-06	7.209358e-09	1.506827e+01	4.736270e+02
2.350000e-06	2.070987e-06	7.049923e-09	1.401797e+01	4.627479e+02
2.360000e-06	1.915125e-06	6.884172e-09	1.296298e+01	4.509070e+02
2.370000e-06	1.758554e-06	6.704670e-09	1.190319e+01	4.382906e+02
2.380000e-06	1.601350e-06	6.513786e-09	1.083912e+01	4.252312e+02
2.390000e-06	1.443634e-06	6.313681e-09	9.771582e+00	4.120473e+02
2.400000e-06	1.285373e-06	6.104960e-09	8.700350e+00	3.988724e+02
2.410000e-06	1.126587e-06	5.886277e-09	7.625570e+00	3.855492e+02
2.420000e-06	9.674496e-07	5.658773e-09	6.548413e+00	3.716453e+02
2.430000e-06	8.080372e-07	5.420960e-09	5.469392e+00	3.565966e+02
2.440000e-06	6.483266e-07	5.171452e-09	4.388353e+00	3.399246e+02
2.450000e-06	4.883206e-07	4.906462e-09	3.305314e+00	3.214367e+02
2.460000e-06	3.281118e-07	4.621129e-09	2.220903e+00	3.013100e+02
2.470000e-06	1.678602e-07	4.314713e-09	1.136201e+00	2.799993e+02
2.480000e-06	7.617912e-09	3.982837e-09	5.156364e-02	2.579782e+02
2.490000e-06	-1.526610e-07	3.623678e-09	-1.033322e+00	2.353949e+02
2.500000e-06	-3.128556e-07	3.232609e-09	-2.117637e+00	2.117775e+02
2.510000e-06	-4.729270e-07	2.807650e-09	-3.201119e+00	1.859240e+02
2.520000e-06	-6.328829e-07	2.339242e-09	-4.283818e+00	1.560621e+02
2.530000e-06	-7.926049e-07	1.812133e-09	-5.364934e+00	1.202733e+02
2.540000e-06	-9.519746e-07	1.202347e-09	-6.443666e+00	7.707765e+01
2.550000e-06	-1.110944e-06	4.794892e-10	-7.519690e+00	2.600349e+01
2.560000e-06	-1.269545e-06	-3.817082e-10	-8.593216e+00	-3.204707e+01
2.570000e-06	-1.427712e-06	-1.372325e-09	-9.663809e+00	-9.477518e+01
2.580000e-06	-1.585339e-06	-2.420655e-09	-1.073075e+01	-1.588415e+02
2.590000e-06	-1.742346e-06	-3.416052e-09	-1.179348e+01	-2.205188e+02
2.600000e-06	-1.898647e-06	-4.269618e-09	-1.285144e+01	-2.764610e+02
2.610000e-06	-2.054282e-06	-4.959129e-09	-1.390490e+01	-3.243726e+02
2.620000e-06	-2.209235e-06	-5.512271e-09	-1.495373e+01	-3.633893e+02
2.630000e-06	-2.363352e-06	-5.966245e-09	-1.599691e+01	-3.940791e+02
2.640000e-06	-2.516599e-06	-6.348926e-09	-1.703420e+01	-4.180853e+02
2.650000e-06	-2.668931e-06	-6.678699e-09	-1.806529e+01	-4.375467e+02
2.660000e-06	-2.820236e-06	-6.969221e-09	-1.908943e+01	-4.544840e+02
2.670000e-06	-2.970487e-06	-7.230583e-09	-2.010645e+01	-4.703364e+02
2.680000e-06	-3.119664e-06	-7.469160e-09	-2.111619e+01	-4.857639e+02
2.690000e-06	-3.267723e-06	-7.688447e-09	-2.211836e+01	-5.007340e+02
2.700000e-06	-3.414602e-06	-7.885556e-09	-2.311254e+01	-5.148127e+02
2.710000e-06	-3.560291e-06	-8.061775e-09	-2.409868e+01	-5.275242e+02
2.720000e-06	-3.704722e-06	-8.222236e-09	-2.507629e+01	-5.386394e+02
2.730000e-06	-3.847800e-06	-8.371931e-09	-2.604475e+01	-5.482977e+02
2.740000e-06	-3.989451e-06	-8.516242e-09	-2.700355e+01	-5.569447e+02
2.750000e-06	-4.129561e-06	-8.657497e-09	-2.795191e+01	-5.651397e+02
2.760000e-06	-4.268092e-06	-8.794270e-09	-2.888959e+01	-5.733305e+02
2.770000e-06	-4.405026e-06	-8.923512e-09	-2.981647e+01	-5.816954e+02
2.780000e-06	-4.540350e-06	-9.043969e-09	-3.073244e+01	-5.901120e+02
2.790000e-06	-4.674071e-06	-9.154994e-09	-3.163756e+01	-5.982540e+02
2.800000e-06	-4.806128e-06	-9.255850e-09	-3.253142e+01	-6.057648e+02
2.810000e-06	-4.936446e-06	-9.346154e-09	-3.341351e+01	-6.124283e+02
2.820000e-06	-5.065057e-06	-9.431215e-09	-3.428405e+01	-6.182641e+02
2.830000e-06	-5.191907e-06	-9.519534e-09	-3.514266e+01	-6.235143e+02
2.840000e-06	-5.316872e-06	-9.612880e-09	-3.598851e+01	-6.285341e+02
2.850000e-06	-5.439925e-06	-9.706003e-09	-3.682142e+01	-6.336404e+02
2.860000e-06	-5.561050e-06	-9.791918e-09	-3.764129e+01	-6.389861e+02
2.870000e-06	-5.680156e-06	-9.869520e-09	-3.844748e+01	-6.445126e+02
2.880000e-06	-5.797096e-06	-9.942650e-09	-3.923902e+01	-6.499948e+02
2.890000e-06	-5.911690e-06	-1.001212e-08	-4.001468e+01	-6.551565e+02
2.900000e-06	-6.023873e-06	-1.007669e-08	-4.077402e+01	-6.597990e+02
2.910000e-06	-6.133713e-06	-1.013833e-08	-4.151749e+01	-6.638898e+02
2.920000e-06	-6.241404e-06	-1.020178e-08	-4.224643e+01	-6.675721e+02
2.930000e-06	-6.347062e-06	-1.026740e-08	-4.296160e+01	-6.710963e+02
2.940000e-06	-6.450478e-06	-1.033115e-08	-4.366159e+01	-6.747063e+02
