# Temperatura_=_37.42
# Concentracion g/m^3_=_13400.0
# C_Vs_to_Am_M_A/Vsm_=_65563218390.804596
# pendiente_HvsI_1/m_=_3716.3
# ordenada_HvsI_A/m_=_1297.0
# frecuencia_Hz_=_300801.5548185266

Tiempo_(s)	Campo_(V.s)	Magnetizacion_(V.s)	Campo_(kA/m)	Magnetizacion_(A/m)
0.000000e+00	-5.499399e-06	-1.390620e-08	-3.831118e+01	-9.126991e+02
1.000000e-08	-5.497590e-06	-1.390593e-08	-3.829858e+01	-9.124450e+02
2.000000e-08	-5.493784e-06	-1.390242e-08	-3.827206e+01	-9.121306e+02
3.000000e-08	-5.488260e-06	-1.389755e-08	-3.823358e+01	-9.117310e+02
4.000000e-08	-5.481140e-06	-1.388931e-08	-3.818398e+01	-9.112180e+02
5.000000e-08	-5.472452e-06	-1.387655e-08	-3.812345e+01	-9.105684e+02
6.000000e-08	-5.461802e-06	-1.386100e-08	-3.804926e+01	-9.097694e+02
7.000000e-08	-5.449004e-06	-1.383565e-08	-3.796011e+01	-9.088204e+02
8.000000e-08	-5.434197e-06	-1.381996e-08	-3.785696e+01	-9.077323e+02
9.000000e-08	-5.417013e-06	-1.385834e-08	-3.773725e+01	-9.065241e+02
1.000000e-07	-5.397511e-06	-1.384890e-08	-3.760139e+01	-9.052200e+02
1.100000e-07	-5.376066e-06	-1.379169e-08	-3.745199e+01	-9.038450e+02
1.200000e-07	-5.352816e-06	-1.376152e-08	-3.729002e+01	-9.024205e+02
1.300000e-07	-5.328124e-06	-1.366899e-08	-3.711801e+01	-9.009595e+02
1.400000e-07	-5.301928e-06	-1.365970e-08	-3.693552e+01	-8.994623e+02
1.500000e-07	-5.273816e-06	-1.373881e-08	-3.673968e+01	-8.979139e+02
1.600000e-07	-5.243988e-06	-1.360935e-08	-3.653188e+01	-8.962856e+02
1.700000e-07	-5.212651e-06	-1.361223e-08	-3.631357e+01	-8.945399e+02
1.800000e-07	-5.179316e-06	-1.367936e-08	-3.608134e+01	-8.926392e+02
1.900000e-07	-5.143910e-06	-1.353521e-08	-3.583470e+01	-8.905558e+02
2.000000e-07	-5.106999e-06	-1.354002e-08	-3.557756e+01	-8.882781e+02
2.100000e-07	-5.068430e-06	-1.349360e-08	-3.530887e+01	-8.858136e+02
2.200000e-07	-5.028018e-06	-1.337571e-08	-3.502734e+01	-8.831841e+02
2.300000e-07	-4.985693e-06	-1.342756e-08	-3.473248e+01	-8.804174e+02
2.400000e-07	-4.941369e-06	-1.340776e-08	-3.442370e+01	-8.775370e+02
2.500000e-07	-4.895286e-06	-1.335469e-08	-3.410267e+01	-8.745549e+02
2.600000e-07	-4.847379e-06	-1.332145e-08	-3.376893e+01	-8.714701e+02
2.700000e-07	-4.797464e-06	-1.321825e-08	-3.342120e+01	-8.682725e+02
2.800000e-07	-4.745456e-06	-1.317246e-08	-3.305889e+01	-8.649518e+02
2.900000e-07	-4.691485e-06	-1.311933e-08	-3.268291e+01	-8.615049e+02
3.000000e-07	-4.635897e-06	-1.306188e-08	-3.229566e+01	-8.579398e+02
3.100000e-07	-4.578715e-06	-1.301765e-08	-3.189730e+01	-8.542721e+02
3.200000e-07	-4.519715e-06	-1.299308e-08	-3.148628e+01	-8.505165e+02
3.300000e-07	-4.459073e-06	-1.296382e-08	-3.106383e+01	-8.466766e+02
3.400000e-07	-4.396951e-06	-1.285248e-08	-3.063105e+01	-8.427382e+02
3.500000e-07	-4.333327e-06	-1.277932e-08	-3.018782e+01	-8.386703e+02
3.600000e-07	-4.268250e-06	-1.270424e-08	-2.973447e+01	-8.344340e+02
3.700000e-07	-4.201489e-06	-1.263322e-08	-2.926938e+01	-8.299973e+02
3.800000e-07	-4.132990e-06	-1.259686e-08	-2.879219e+01	-8.253488e+02
3.900000e-07	-4.063002e-06	-1.251751e-08	-2.830462e+01	-8.205039e+02
4.000000e-07	-3.991763e-06	-1.244771e-08	-2.780834e+01	-8.155002e+02
4.100000e-07	-3.919208e-06	-1.237570e-08	-2.730289e+01	-8.103825e+02
4.200000e-07	-3.845132e-06	-1.229435e-08	-2.678685e+01	-8.051833e+02
4.300000e-07	-3.769441e-06	-1.219962e-08	-2.625955e+01	-7.999056e+02
4.400000e-07	-3.692143e-06	-1.210299e-08	-2.572106e+01	-7.945180e+02
4.500000e-07	-3.613371e-06	-1.203410e-08	-2.517230e+01	-7.889631e+02
4.600000e-07	-3.533106e-06	-1.195499e-08	-2.461314e+01	-7.831778e+02
4.700000e-07	-3.451438e-06	-1.186751e-08	-2.404420e+01	-7.771188e+02
4.800000e-07	-3.368588e-06	-1.176199e-08	-2.346703e+01	-7.707802e+02
4.900000e-07	-3.284645e-06	-1.165335e-08	-2.288225e+01	-7.641979e+02
5.000000e-07	-3.199738e-06	-1.155881e-08	-2.229075e+01	-7.574360e+02
5.100000e-07	-3.113936e-06	-1.145313e-08	-2.169302e+01	-7.505602e+02
5.200000e-07	-3.027181e-06	-1.134585e-08	-2.108864e+01	-7.436091e+02
5.300000e-07	-2.939414e-06	-1.123991e-08	-2.047722e+01	-7.365745e+02
5.400000e-07	-2.850642e-06	-1.113560e-08	-1.985880e+01	-7.294002e+02
5.500000e-07	-2.760918e-06	-1.102568e-08	-1.923374e+01	-7.220008e+02
5.600000e-07	-2.670013e-06	-1.090077e-08	-1.860046e+01	-7.142931e+02
5.700000e-07	-2.577881e-06	-1.077031e-08	-1.795863e+01	-7.062285e+02
5.800000e-07	-2.484870e-06	-1.064137e-08	-1.731067e+01	-6.978114e+02
5.900000e-07	-2.391102e-06	-1.051824e-08	-1.665745e+01	-6.890966e+02
6.000000e-07	-2.296570e-06	-1.038736e-08	-1.599890e+01	-6.801642e+02
6.100000e-07	-2.201282e-06	-1.024778e-08	-1.533508e+01	-6.710829e+02
6.200000e-07	-2.105176e-06	-1.010253e-08	-1.466556e+01	-6.618755e+02
6.300000e-07	-2.008303e-06	-9.954646e-09	-1.399071e+01	-6.525031e+02
6.400000e-07	-1.910746e-06	-9.806936e-09	-1.331108e+01	-6.428735e+02
6.500000e-07	-1.812423e-06	-9.649341e-09	-1.262612e+01	-6.328733e+02
6.600000e-07	-1.713260e-06	-9.485904e-09	-1.193530e+01	-6.224104e+02
6.700000e-07	-1.613360e-06	-9.323026e-09	-1.123936e+01	-6.114482e+02
6.800000e-07	-1.512917e-06	-9.158944e-09	-1.053963e+01	-6.000177e+02
6.900000e-07	-1.412035e-06	-8.981393e-09	-9.836843e+00	-5.882006e+02
7.000000e-07	-1.310714e-06	-8.791780e-09	-9.131002e+00	-5.760884e+02
7.100000e-07	-1.208919e-06	-8.599326e-09	-8.421852e+00	-5.637350e+02
7.200000e-07	-1.106680e-06	-8.405297e-09	-7.709610e+00	-5.511233e+02
7.300000e-07	-1.004123e-06	-8.207867e-09	-6.995150e+00	-5.381595e+02
7.400000e-07	-9.012150e-07	-8.000253e-09	-6.278251e+00	-5.247011e+02
7.500000e-07	-7.979446e-07	-7.783623e-09	-5.558825e+00	-5.106077e+02
7.600000e-07	-6.943916e-07	-7.559980e-09	-4.837431e+00	-4.957925e+02
7.700000e-07	-5.906208e-07	-7.329564e-09	-4.114519e+00	-4.802531e+02
7.800000e-07	-4.866724e-07	-7.085254e-09	-3.390370e+00	-4.640655e+02
7.900000e-07	-3.825247e-07	-6.828358e-09	-2.664832e+00	-4.473399e+02
8.000000e-07	-2.782470e-07	-6.566180e-09	-1.938388e+00	-4.301565e+02
8.100000e-07	-1.738810e-07	-6.295465e-09	-1.211330e+00	-4.125064e+02
8.200000e-07	-6.940298e-08	-6.012685e-09	-4.834911e-01	-3.942653e+02
8.300000e-07	3.513494e-08	-5.716493e-09	2.447651e-01	-3.752141e+02
8.400000e-07	1.396139e-07	-5.407919e-09	9.726108e-01	-3.551015e+02
8.500000e-07	2.439945e-07	-5.085459e-09	1.699771e+00	-3.337242e+02
8.600000e-07	3.482879e-07	-4.744745e-09	2.426323e+00	-3.109867e+02
8.700000e-07	4.524601e-07	-4.379794e-09	3.152032e+00	-2.869090e+02
8.800000e-07	5.564574e-07	-3.990759e-09	3.876522e+00	-2.615667e+02
8.900000e-07	6.602690e-07	-3.581226e-09	4.599718e+00	-2.349739e+02
9.000000e-07	7.638398e-07	-3.149468e-09	5.321237e+00	-2.069514e+02
9.100000e-07	8.671514e-07	-2.684764e-09	6.040950e+00	-1.770305e+02
9.200000e-07	9.701744e-07	-2.177292e-09	6.758653e+00	-1.444466e+02
9.300000e-07	1.072818e-06	-1.618579e-09	7.473710e+00	-1.082472e+02
9.400000e-07	1.175079e-06	-9.959909e-10	8.186110e+00	-6.750691e+01
9.500000e-07	1.276962e-06	-3.012420e-10	8.895864e+00	-2.159821e+01
9.600000e-07	1.378417e-06	4.726526e-10	9.602647e+00	2.955378e+01
9.700000e-07	1.479442e-06	1.323202e-09	1.030643e+01	8.531270e+01
9.800000e-07	1.580046e-06	2.232151e-09	1.100728e+01	1.443248e+02
9.900000e-07	1.680167e-06	3.164611e-09	1.170477e+01	2.046807e+02
1.000000e-06	1.779657e-06	4.078813e-09	1.239786e+01	2.642131e+02
1.010000e-06	1.878380e-06	4.938945e-09	1.308561e+01	3.208571e+02
1.020000e-06	1.976302e-06	5.718071e-09	1.376777e+01	3.729833e+02
1.030000e-06	2.073395e-06	6.406524e-09	1.444416e+01	4.196207e+02
1.040000e-06	2.169644e-06	7.011067e-09	1.511468e+01	4.605216e+02
1.050000e-06	2.265128e-06	7.545729e-09	1.577986e+01	4.960656e+02
1.060000e-06	2.359895e-06	8.018571e-09	1.644004e+01	5.270444e+02
1.070000e-06	2.453928e-06	8.439513e-09	1.709512e+01	5.544002e+02
1.080000e-06	2.547225e-06	8.817696e-09	1.774507e+01	5.789913e+02
1.090000e-06	2.639676e-06	9.161687e-09	1.838912e+01	6.014451e+02
1.100000e-06	2.731197e-06	9.475285e-09	1.902670e+01	6.221192e+02
1.110000e-06	2.821602e-06	9.758198e-09	1.965649e+01	6.411584e+02
1.120000e-06	2.910744e-06	1.001398e-08	2.027750e+01	6.586045e+02
1.130000e-06	2.998850e-06	1.024674e-08	2.089128e+01	6.745083e+02
1.140000e-06	3.086041e-06	1.046491e-08	2.149869e+01	6.890003e+02
1.150000e-06	3.172198e-06	1.067282e-08	2.209890e+01	7.023010e+02
1.160000e-06	3.257292e-06	1.086715e-08	2.269170e+01	7.146784e+02
1.170000e-06	3.341363e-06	1.104670e-08	2.327738e+01	7.263780e+02
1.180000e-06	3.424324e-06	1.121733e-08	2.385532e+01	7.375610e+02
1.190000e-06	3.505950e-06	1.138082e-08	2.442396e+01	7.482771e+02
1.200000e-06	3.586244e-06	1.153265e-08	2.498332e+01	7.584804e+02
1.210000e-06	3.665288e-06	1.167329e-08	2.553398e+01	7.680811e+02
1.220000e-06	3.743021e-06	1.180689e-08	2.607550e+01	7.770080e+02
1.230000e-06	3.819425e-06	1.193381e-08	2.660776e+01	7.852559e+02
1.240000e-06	3.894311e-06	1.205447e-08	2.712944e+01	7.929005e+02
1.250000e-06	3.967568e-06	1.216861e-08	2.763979e+01	8.000771e+02
1.260000e-06	4.039369e-06	1.227505e-08	2.813998e+01	8.069341e+02
1.270000e-06	4.109809e-06	1.237457e-08	2.863070e+01	8.135829e+02
1.280000e-06	4.178880e-06	1.247097e-08	2.911188e+01	8.200658e+02
1.290000e-06	4.246517e-06	1.256577e-08	2.958307e+01	8.263532e+02
1.300000e-06	4.312502e-06	1.265480e-08	3.004275e+01	8.323704e+02
1.310000e-06	4.376859e-06	1.273833e-08	3.049109e+01	8.380407e+02
1.320000e-06	4.439747e-06	1.282018e-08	3.092919e+01	8.433264e+02
1.330000e-06	4.501234e-06	1.289795e-08	3.135753e+01	8.482507e+02
1.340000e-06	4.561371e-06	1.296902e-08	3.177648e+01	8.528916e+02
1.350000e-06	4.619794e-06	1.303640e-08	3.218348e+01	8.573524e+02
1.360000e-06	4.676349e-06	1.310555e-08	3.257746e+01	8.617217e+02
1.370000e-06	4.731268e-06	1.317624e-08	3.296005e+01	8.660397e+02
1.380000e-06	4.784476e-06	1.324198e-08	3.333072e+01	8.702848e+02
1.390000e-06	4.835692e-06	1.330043e-08	3.368751e+01	8.743850e+02
1.400000e-06	4.884870e-06	1.335384e-08	3.403011e+01	8.782493e+02
1.410000e-06	4.932270e-06	1.340549e-08	3.436032e+01	8.818051e+02
1.420000e-06	4.978044e-06	1.345497e-08	3.467920e+01	8.850268e+02
1.430000e-06	5.022195e-06	1.350061e-08	3.498678e+01	8.879446e+02
1.440000e-06	5.064437e-06	1.354389e-08	3.528105e+01	8.906310e+02
1.450000e-06	5.104709e-06	1.358761e-08	3.556160e+01	8.931716e+02
1.460000e-06	5.143298e-06	1.362962e-08	3.583043e+01	8.956321e+02
1.470000e-06	5.180271e-06	1.366644e-08	3.608800e+01	8.980360e+02
1.480000e-06	5.215381e-06	1.369925e-08	3.633259e+01	9.003591e+02
1.490000e-06	5.248492e-06	1.373042e-08	3.656326e+01	9.025444e+02
1.500000e-06	5.279795e-06	1.376028e-08	3.678133e+01	9.045283e+02
1.510000e-06	5.309431e-06	1.378710e-08	3.698778e+01	9.062684e+02
1.520000e-06	5.337307e-06	1.380979e-08	3.718198e+01	9.077609e+02
1.530000e-06	5.363098e-06	1.383048e-08	3.736165e+01	9.090418e+02
1.540000e-06	5.386838e-06	1.385114e-08	3.752703e+01	9.101731e+02
1.550000e-06	5.408824e-06	1.387116e-08	3.768020e+01	9.112183e+02
1.560000e-06	5.429099e-06	1.388901e-08	3.782144e+01	9.122205e+02
1.570000e-06	5.447452e-06	1.390439e-08	3.794929e+01	9.131879e+02
1.580000e-06	5.463715e-06	1.391871e-08	3.806259e+01	9.140944e+02
1.590000e-06	5.477948e-06	1.393018e-08	3.816175e+01	9.148928e+02
1.600000e-06	5.490092e-06	1.393835e-08	3.824635e+01	9.155339e+02
1.610000e-06	5.500039e-06	1.394547e-08	3.831564e+01	9.159856e+02
1.620000e-06	5.507971e-06	1.395261e-08	3.837090e+01	9.162430e+02
1.630000e-06	5.514056e-06	1.395938e-08	3.841329e+01	9.163285e+02
1.640000e-06	5.518279e-06	1.396378e-08	3.844271e+01	9.162816e+02
1.650000e-06	5.520496e-06	1.396496e-08	3.845815e+01	9.161445e+02
1.660000e-06	5.520761e-06	1.396290e-08	3.846000e+01	9.159481e+02
1.670000e-06	5.519251e-06	1.395442e-08	3.844948e+01	9.157040e+02
1.680000e-06	5.516098e-06	1.394877e-08	3.842752e+01	9.154036e+02
1.690000e-06	5.511131e-06	1.394223e-08	3.839291e+01	9.150239e+02
1.700000e-06	5.504164e-06	1.393352e-08	3.834438e+01	9.145367e+02
1.710000e-06	5.495472e-06	1.392929e-08	3.828382e+01	9.139171e+02
1.720000e-06	5.485127e-06	1.392837e-08	3.821175e+01	9.131498e+02
1.730000e-06	5.472834e-06	1.393247e-08	3.812612e+01	9.122316e+02
1.740000e-06	5.458518e-06	1.388279e-08	3.802639e+01	9.111712e+02
1.750000e-06	5.442184e-06	1.379895e-08	3.791260e+01	9.099861e+02
1.760000e-06	5.423299e-06	1.380448e-08	3.778104e+01	9.086997e+02
1.770000e-06	5.401611e-06	1.380830e-08	3.762995e+01	9.073371e+02
1.780000e-06	5.377855e-06	1.385040e-08	3.746445e+01	9.059210e+02
1.790000e-06	5.353031e-06	1.385872e-08	3.729152e+01	9.044665e+02
1.800000e-06	5.327424e-06	1.368913e-08	3.711313e+01	9.029770e+02
1.810000e-06	5.299968e-06	1.375101e-08	3.692186e+01	9.014409e+02
1.820000e-06	5.270152e-06	1.377993e-08	3.671415e+01	8.998319e+02
1.830000e-06	5.238787e-06	1.363110e-08	3.649565e+01	8.981139e+02
1.840000e-06	5.205611e-06	1.374478e-08	3.626453e+01	8.962485e+02
1.850000e-06	5.170584e-06	1.369019e-08	3.602052e+01	8.942050e+02
1.860000e-06	5.133919e-06	1.357654e-08	3.576509e+01	8.919683e+02
1.870000e-06	5.095134e-06	1.369533e-08	3.549490e+01	8.895416e+02
1.880000e-06	5.054632e-06	1.354312e-08	3.521274e+01	8.869444e+02
1.890000e-06	5.012565e-06	1.347794e-08	3.491968e+01	8.842040e+02
1.900000e-06	4.968595e-06	1.349280e-08	3.461337e+01	8.813457e+02
1.910000e-06	4.922879e-06	1.334061e-08	3.429490e+01	8.783844e+02
1.920000e-06	4.875252e-06	1.342645e-08	3.396310e+01	8.753215e+02
1.930000e-06	4.825794e-06	1.334929e-08	3.361856e+01	8.721483e+02
1.940000e-06	4.774632e-06	1.324610e-08	3.326214e+01	8.688538e+02
1.950000e-06	4.721301e-06	1.326943e-08	3.289062e+01	8.654329e+02
1.960000e-06	4.666135e-06	1.313121e-08	3.250630e+01	8.618912e+02
1.970000e-06	4.609373e-06	1.310236e-08	3.211087e+01	8.582433e+02
1.980000e-06	4.550918e-06	1.300930e-08	3.170365e+01	8.545050e+02
1.990000e-06	4.490897e-06	1.297150e-08	3.128552e+01	8.506829e+02
2.000000e-06	4.429156e-06	1.297724e-08	3.085540e+01	8.467670e+02
2.010000e-06	4.365805e-06	1.286380e-08	3.041408e+01	8.427293e+02
2.020000e-06	4.300896e-06	1.285992e-08	2.996189e+01	8.385315e+02
2.030000e-06	4.234525e-06	1.272905e-08	2.949952e+01	8.341388e+02
2.040000e-06	4.166707e-06	1.265449e-08	2.902708e+01	8.295346e+02
2.050000e-06	4.097156e-06	1.260187e-08	2.854255e+01	8.247285e+02
2.060000e-06	4.026057e-06	1.247867e-08	2.804725e+01	8.197542e+02
2.070000e-06	3.953587e-06	1.245481e-08	2.754239e+01	8.146567e+02
2.080000e-06	3.879766e-06	1.235711e-08	2.702812e+01	8.094728e+02
2.090000e-06	3.804438e-06	1.231428e-08	2.650336e+01	8.042126e+02
2.100000e-06	3.727446e-06	1.222076e-08	2.596700e+01	7.988521e+02
2.110000e-06	3.648948e-06	1.210570e-08	2.542014e+01	7.933377e+02
2.120000e-06	3.569114e-06	1.202619e-08	2.486399e+01	7.876058e+02
2.130000e-06	3.488123e-06	1.191177e-08	2.429977e+01	7.816066e+02
2.140000e-06	3.406022e-06	1.184718e-08	2.372781e+01	7.753255e+02
2.150000e-06	3.322814e-06	1.173786e-08	2.314815e+01	7.687899e+02
2.160000e-06	3.238425e-06	1.165035e-08	2.256026e+01	7.620598e+02
2.170000e-06	3.152640e-06	1.154765e-08	2.196265e+01	7.552030e+02
2.180000e-06	3.065574e-06	1.143103e-08	2.135611e+01	7.482662e+02
2.190000e-06	2.977582e-06	1.132544e-08	2.074312e+01	7.412520e+02
2.200000e-06	2.888721e-06	1.120348e-08	2.012407e+01	7.341135e+02
2.210000e-06	2.798827e-06	1.109830e-08	1.949784e+01	7.267692e+02
2.220000e-06	2.707940e-06	1.098321e-08	1.886468e+01	7.191325e+02
2.230000e-06	2.616188e-06	1.087089e-08	1.822549e+01	7.111452e+02
2.240000e-06	2.523541e-06	1.073454e-08	1.758008e+01	7.027997e+02
2.250000e-06	2.429829e-06	1.059651e-08	1.692724e+01	6.941415e+02
2.260000e-06	2.335064e-06	1.045958e-08	1.626706e+01	6.852483e+02
2.270000e-06	2.239525e-06	1.032930e-08	1.560149e+01	6.761942e+02
2.280000e-06	2.143296e-06	1.019891e-08	1.493112e+01	6.670143e+02
2.290000e-06	2.046361e-06	1.005641e-08	1.425583e+01	6.576828e+02
2.300000e-06	1.948778e-06	9.914903e-09	1.357603e+01	6.481169e+02
2.310000e-06	1.850621e-06	9.758542e-09	1.289222e+01	6.382045e+02
2.320000e-06	1.751857e-06	9.594973e-09	1.220419e+01	6.278454e+02
2.330000e-06	1.652474e-06	9.416513e-09	1.151185e+01	6.169890e+02
2.340000e-06	1.552613e-06	9.246301e-09	1.081617e+01	6.056525e+02
2.350000e-06	1.452328e-06	9.079364e-09	1.011754e+01	5.939094e+02
2.360000e-06	1.351494e-06	8.903276e-09	9.415089e+00	5.818531e+02
2.370000e-06	1.249943e-06	8.718353e-09	8.707638e+00	5.695494e+02
2.380000e-06	1.147706e-06	8.521962e-09	7.995416e+00	5.569978e+02
2.390000e-06	1.044972e-06	8.324504e-09	7.279728e+00	5.441197e+02
2.400000e-06	9.418628e-07	8.115072e-09	6.561422e+00	5.307793e+02
2.410000e-06	8.384310e-07	7.893348e-09	5.840872e+00	5.168310e+02
2.420000e-06	7.347319e-07	7.663995e-09	5.118459e+00	5.021729e+02
2.430000e-06	6.307997e-07	7.432290e-09	4.394422e+00	4.867838e+02
2.440000e-06	5.266818e-07	7.198392e-09	3.669092e+00	4.707253e+02
2.450000e-06	4.224088e-07	6.954649e-09	2.942681e+00	4.541054e+02
2.460000e-06	3.179537e-07	6.695252e-09	2.215002e+00	4.370164e+02
2.470000e-06	2.133927e-07	6.424459e-09	1.486585e+00	4.194721e+02
2.480000e-06	1.087919e-07	6.143827e-09	7.578911e-01	4.013729e+02
2.490000e-06	4.154996e-09	5.848583e-09	2.894549e-02	3.825157e+02
2.500000e-06	-1.004318e-07	5.537564e-09	-6.996512e-01	3.626498e+02
2.510000e-06	-2.049542e-07	5.213922e-09	-1.427799e+00	3.415550e+02
2.520000e-06	-3.093837e-07	4.880416e-09	-2.155300e+00	3.191099e+02
2.530000e-06	-4.136637e-07	4.530949e-09	-2.881760e+00	2.953128e+02
2.540000e-06	-5.178086e-07	4.157207e-09	-3.607278e+00	2.702353e+02
2.550000e-06	-6.217837e-07	3.756620e-09	-4.331613e+00	2.439164e+02
2.560000e-06	-7.255563e-07	3.332041e-09	-5.054538e+00	2.162283e+02
2.570000e-06	-8.291152e-07	2.878797e-09	-5.775973e+00	1.867685e+02
2.580000e-06	-9.323781e-07	2.386881e-09	-6.495347e+00	1.548309e+02
2.590000e-06	-1.035245e-06	1.845785e-09	-7.211959e+00	1.194883e+02
2.600000e-06	-1.137683e-06	1.246607e-09	-7.925592e+00	7.978751e+01
2.610000e-06	-1.239577e-06	5.809229e-10	-8.635424e+00	3.501398e+01
2.620000e-06	-1.340924e-06	-1.635511e-10	-9.341455e+00	-1.504330e+01
2.630000e-06	-1.441751e-06	-9.927212e-10	-1.004386e+01	-6.990666e+01
2.640000e-06	-1.542005e-06	-1.889947e-09	-1.074227e+01	-1.283680e+02
2.650000e-06	-1.641747e-06	-2.819738e-09	-1.143711e+01	-1.886157e+02
2.660000e-06	-1.740878e-06	-3.743582e-09	-1.212771e+01	-2.485082e+02
2.670000e-06	-1.839339e-06	-4.629920e-09	-1.281363e+01	-3.059282e+02
2.680000e-06	-1.937198e-06	-5.448289e-09	-1.349536e+01	-3.591296e+02
2.690000e-06	-2.034425e-06	-6.176518e-09	-1.417268e+01	-4.069889e+02
2.700000e-06	-2.130991e-06	-6.816803e-09	-1.484540e+01	-4.491066e+02
2.710000e-06	-2.226891e-06	-7.380787e-09	-1.551348e+01	-4.857427e+02
2.720000e-06	-2.322115e-06	-7.878549e-09	-1.617685e+01	-5.176224e+02
2.730000e-06	-2.416612e-06	-8.318585e-09	-1.683516e+01	-5.456772e+02
2.740000e-06	-2.510198e-06	-8.709517e-09	-1.748712e+01	-5.707995e+02
2.750000e-06	-2.602711e-06	-9.060786e-09	-1.813161e+01	-5.936731e+02
2.760000e-06	-2.694156e-06	-9.381703e-09	-1.876865e+01	-6.147113e+02
2.770000e-06	-2.784582e-06	-9.677184e-09	-1.939859e+01	-6.340964e+02
2.780000e-06	-2.874005e-06	-9.945373e-09	-2.002155e+01	-6.518822e+02
2.790000e-06	-2.962482e-06	-1.018942e-08	-2.063793e+01	-6.681096e+02
2.800000e-06	-3.049997e-06	-1.041630e-08	-2.124759e+01	-6.828890e+02
2.810000e-06	-3.136439e-06	-1.063048e-08	-2.184979e+01	-6.964238e+02
2.820000e-06	-3.221676e-06	-1.083088e-08	-2.244358e+01	-7.089773e+02
2.830000e-06	-3.305634e-06	-1.101508e-08	-2.302847e+01	-7.208057e+02
2.840000e-06	-3.388486e-06	-1.118639e-08	-2.360565e+01	-7.320922e+02
2.850000e-06	-3.470277e-06	-1.134958e-08	-2.417545e+01	-7.429103e+02
2.860000e-06	-3.550878e-06	-1.150466e-08	-2.473694e+01	-7.532312e+02
2.870000e-06	-3.630205e-06	-1.164800e-08	-2.528957e+01	-7.629693e+02
2.880000e-06	-3.708185e-06	-1.178133e-08	-2.583282e+01	-7.720445e+02
2.890000e-06	-3.784637e-06	-1.190952e-08	-2.636541e+01	-7.804349e+02
2.900000e-06	-3.859571e-06	-1.203377e-08	-2.688743e+01	-7.881997e+02
2.910000e-06	-3.933087e-06	-1.214940e-08	-2.739957e+01	-7.954645e+02
2.920000e-06	-4.005195e-06	-1.225494e-08	-2.790191e+01	-8.023794e+02
2.930000e-06	-4.075989e-06	-1.235540e-08	-2.839510e+01	-8.090673e+02
2.940000e-06	-4.145285e-06	-1.245384e-08	-2.887784e+01	-8.155868e+02
