# Temperatura_=_43.82
# Concentracion g/m^3_=_13400.0
# C_Vs_to_Am_M_A/Vsm_=_65563218390.804596
# pendiente_HvsI_1/m_=_3716.3
# ordenada_HvsI_A/m_=_1297.0
# frecuencia_Hz_=_300799.6131707524

Tiempo_(s)	Campo_(V.s)	Magnetizacion_(V.s)	Campo_(kA/m)	Magnetizacion_(A/m)
0.000000e+00	-5.504660e-06	-1.405353e-08	-3.830870e+01	-9.215547e+02
1.000000e-08	-5.502609e-06	-1.405381e-08	-3.829443e+01	-9.212779e+02
2.000000e-08	-5.498579e-06	-1.404688e-08	-3.826638e+01	-9.209134e+02
3.000000e-08	-5.492814e-06	-1.404045e-08	-3.822626e+01	-9.204631e+02
4.000000e-08	-5.485432e-06	-1.403323e-08	-3.817489e+01	-9.199261e+02
5.000000e-08	-5.476407e-06	-1.402157e-08	-3.811208e+01	-9.192936e+02
6.000000e-08	-5.465369e-06	-1.400276e-08	-3.803527e+01	-9.185468e+02
7.000000e-08	-5.452298e-06	-1.397033e-08	-3.794430e+01	-9.176601e+02
8.000000e-08	-5.437208e-06	-1.396807e-08	-3.783928e+01	-9.166104e+02
9.000000e-08	-5.419713e-06	-1.401559e-08	-3.771753e+01	-9.153890e+02
1.000000e-07	-5.399912e-06	-1.399155e-08	-3.757973e+01	-9.140114e+02
1.100000e-07	-5.378134e-06	-1.394202e-08	-3.742817e+01	-9.125187e+02
1.200000e-07	-5.354607e-06	-1.391339e-08	-3.726443e+01	-9.109679e+02
1.300000e-07	-5.329696e-06	-1.379658e-08	-3.709107e+01	-9.094136e+02
1.400000e-07	-5.303258e-06	-1.382976e-08	-3.690708e+01	-9.078870e+02
1.500000e-07	-5.274935e-06	-1.387295e-08	-3.670997e+01	-9.063802e+02
1.600000e-07	-5.244936e-06	-1.370588e-08	-3.650120e+01	-9.048440e+02
1.700000e-07	-5.213329e-06	-1.377263e-08	-3.628124e+01	-9.031999e+02
1.800000e-07	-5.179670e-06	-1.379946e-08	-3.604699e+01	-9.013649e+02
1.900000e-07	-5.144081e-06	-1.365627e-08	-3.579932e+01	-8.992779e+02
2.000000e-07	-5.106961e-06	-1.370050e-08	-3.554099e+01	-8.969202e+02
2.100000e-07	-5.068047e-06	-1.360172e-08	-3.527017e+01	-8.943198e+02
2.200000e-07	-5.027291e-06	-1.349264e-08	-3.498654e+01	-8.915385e+02
2.300000e-07	-4.984643e-06	-1.354697e-08	-3.468973e+01	-8.886475e+02
2.400000e-07	-4.940028e-06	-1.348728e-08	-3.437925e+01	-8.856998e+02
2.500000e-07	-4.893676e-06	-1.346488e-08	-3.405667e+01	-8.827117e+02
2.600000e-07	-4.845483e-06	-1.343254e-08	-3.372128e+01	-8.796600e+02
2.700000e-07	-4.795235e-06	-1.334282e-08	-3.337159e+01	-8.764956e+02
2.800000e-07	-4.742938e-06	-1.330705e-08	-3.300763e+01	-8.731682e+02
2.900000e-07	-4.688742e-06	-1.323048e-08	-3.263047e+01	-8.696493e+02
3.000000e-07	-4.632908e-06	-1.315980e-08	-3.224190e+01	-8.659454e+02
3.100000e-07	-4.575389e-06	-1.310375e-08	-3.184161e+01	-8.620940e+02
3.200000e-07	-4.516050e-06	-1.308702e-08	-3.142865e+01	-8.581453e+02
3.300000e-07	-4.455106e-06	-1.304739e-08	-3.100452e+01	-8.541366e+02
3.400000e-07	-4.392688e-06	-1.294796e-08	-3.057013e+01	-8.500723e+02
3.500000e-07	-4.328790e-06	-1.289614e-08	-3.012544e+01	-8.459181e+02
3.600000e-07	-4.263357e-06	-1.280610e-08	-2.967008e+01	-8.416131e+02
3.700000e-07	-4.196253e-06	-1.273255e-08	-2.920308e+01	-8.370950e+02
3.800000e-07	-4.127481e-06	-1.268112e-08	-2.872447e+01	-8.323271e+02
3.900000e-07	-4.057252e-06	-1.258678e-08	-2.823572e+01	-8.273160e+02
4.000000e-07	-3.985795e-06	-1.252340e-08	-2.773843e+01	-8.221109e+02
4.100000e-07	-3.913040e-06	-1.244836e-08	-2.723211e+01	-8.167836e+02
4.200000e-07	-3.838780e-06	-1.237119e-08	-2.671531e+01	-8.113977e+02
4.300000e-07	-3.762805e-06	-1.227473e-08	-2.618657e+01	-8.059793e+02
4.400000e-07	-3.685214e-06	-1.218341e-08	-2.564659e+01	-8.005027e+02
4.500000e-07	-3.606179e-06	-1.211122e-08	-2.509656e+01	-7.948974e+02
4.600000e-07	-3.525647e-06	-1.202098e-08	-2.453611e+01	-7.890747e+02
4.700000e-07	-3.443762e-06	-1.193033e-08	-2.396625e+01	-7.829629e+02
4.800000e-07	-3.360689e-06	-1.182150e-08	-2.338811e+01	-7.765365e+02
4.900000e-07	-3.276587e-06	-1.172247e-08	-2.280282e+01	-7.698261e+02
5.000000e-07	-3.191529e-06	-1.162510e-08	-2.221088e+01	-7.629049e+02
5.100000e-07	-3.105466e-06	-1.151376e-08	-2.161194e+01	-7.558563e+02
5.200000e-07	-3.018397e-06	-1.140433e-08	-2.100600e+01	-7.487358e+02
5.300000e-07	-2.930406e-06	-1.129777e-08	-2.039364e+01	-7.415445e+02
5.400000e-07	-2.841518e-06	-1.119217e-08	-1.977504e+01	-7.342255e+02
5.500000e-07	-2.751536e-06	-1.107599e-08	-1.914882e+01	-7.266847e+02
5.600000e-07	-2.660375e-06	-1.094847e-08	-1.851441e+01	-7.188293e+02
5.700000e-07	-2.568121e-06	-1.081679e-08	-1.787238e+01	-7.106062e+02
5.800000e-07	-2.474945e-06	-1.068915e-08	-1.722394e+01	-7.020239e+02
5.900000e-07	-2.380999e-06	-1.056200e-08	-1.657014e+01	-6.931477e+02
6.000000e-07	-2.286244e-06	-1.042566e-08	-1.591071e+01	-6.840694e+02
6.100000e-07	-2.190737e-06	-1.028609e-08	-1.524604e+01	-6.748629e+02
6.200000e-07	-2.094516e-06	-1.014521e-08	-1.457641e+01	-6.655461e+02
6.300000e-07	-1.997483e-06	-9.999140e-09	-1.390113e+01	-6.560650e+02
6.400000e-07	-1.899609e-06	-9.847387e-09	-1.321999e+01	-6.463088e+02
6.500000e-07	-1.800946e-06	-9.684525e-09	-1.253336e+01	-6.361504e+02
6.600000e-07	-1.701575e-06	-9.516870e-09	-1.184181e+01	-6.254957e+02
6.700000e-07	-1.601511e-06	-9.350001e-09	-1.114543e+01	-6.143207e+02
6.800000e-07	-1.500847e-06	-9.179362e-09	-1.044488e+01	-6.026794e+02
6.900000e-07	-1.399740e-06	-8.998628e-09	-9.741241e+00	-5.906768e+02
7.000000e-07	-1.298205e-06	-8.810649e-09	-9.034628e+00	-5.784182e+02
7.100000e-07	-1.196267e-06	-8.620144e-09	-8.325207e+00	-5.659547e+02
7.200000e-07	-1.093944e-06	-8.424745e-09	-7.613108e+00	-5.532490e+02
7.300000e-07	-9.911827e-07	-8.222551e-09	-6.897960e+00	-5.401786e+02
7.400000e-07	-8.880204e-07	-8.009924e-09	-6.180020e+00	-5.265749e+02
7.500000e-07	-7.845670e-07	-7.789810e-09	-5.460054e+00	-5.122851e+02
7.600000e-07	-6.808661e-07	-7.563190e-09	-4.738367e+00	-4.972289e+02
7.700000e-07	-5.769818e-07	-7.329264e-09	-4.015402e+00	-4.814255e+02
7.800000e-07	-4.729433e-07	-7.084841e-09	-3.291365e+00	-4.649755e+02
7.900000e-07	-3.687325e-07	-6.830034e-09	-2.566129e+00	-4.480034e+02
8.000000e-07	-2.644258e-07	-6.565540e-09	-1.840224e+00	-4.305827e+02
8.100000e-07	-1.600437e-07	-6.286295e-09	-1.113796e+00	-4.126765e+02
8.200000e-07	-5.555326e-08	-5.994297e-09	-3.866130e-01	-3.941209e+02
8.300000e-07	4.896094e-08	-5.689809e-09	3.407350e-01	-3.746627e+02
8.400000e-07	1.533923e-07	-5.373519e-09	1.067507e+00	-3.540383e+02
8.500000e-07	2.577393e-07	-5.042085e-09	1.793691e+00	-3.320612e+02
8.600000e-07	3.620235e-07	-4.693068e-09	2.519438e+00	-3.086746e+02
8.700000e-07	4.662418e-07	-4.323580e-09	3.244727e+00	-2.839386e+02
8.800000e-07	5.703315e-07	-3.928047e-09	3.969120e+00	-2.579413e+02
8.900000e-07	6.742076e-07	-3.507705e-09	4.692028e+00	-2.306601e+02
9.000000e-07	7.778267e-07	-3.059255e-09	5.413147e+00	-2.018219e+02
9.100000e-07	8.811852e-07	-2.574860e-09	6.132452e+00	-1.708252e+02
9.200000e-07	9.842783e-07	-2.044288e-09	6.849910e+00	-1.367723e+02
9.300000e-07	1.087014e-06	-1.456578e-09	7.564879e+00	-9.862858e+01
9.400000e-07	1.189364e-06	-8.021201e-10	8.277167e+00	-5.548324e+01
9.500000e-07	1.291328e-06	-7.039226e-11	8.986768e+00	-6.844702e+00
9.600000e-07	1.392854e-06	7.468712e-10	9.693322e+00	4.711460e+01
9.700000e-07	1.493910e-06	1.641929e-09	1.039660e+01	1.054438e+02
9.800000e-07	1.594459e-06	2.586120e-09	1.109635e+01	1.664760e+02
9.900000e-07	1.694446e-06	3.536594e-09	1.179219e+01	2.280636e+02
1.000000e-06	1.793826e-06	4.453158e-09	1.248381e+01	2.879324e+02
1.010000e-06	1.892534e-06	5.304000e-09	1.317076e+01	3.440653e+02
1.020000e-06	1.990432e-06	6.063170e-09	1.385206e+01	3.950168e+02
1.030000e-06	2.087455e-06	6.724901e-09	1.452727e+01	4.400845e+02
1.040000e-06	2.183682e-06	7.304056e-09	1.519695e+01	4.793036e+02
1.050000e-06	2.279155e-06	7.817894e-09	1.586138e+01	5.132852e+02
1.060000e-06	2.373902e-06	8.273397e-09	1.652075e+01	5.429581e+02
1.070000e-06	2.467944e-06	8.677694e-09	1.717522e+01	5.692964e+02
1.080000e-06	2.561205e-06	9.042627e-09	1.782425e+01	5.931077e+02
1.090000e-06	2.653607e-06	9.376713e-09	1.846730e+01	6.149270e+02
1.100000e-06	2.745052e-06	9.680578e-09	1.910370e+01	6.350240e+02
1.110000e-06	2.835403e-06	9.952426e-09	1.973248e+01	6.534926e+02
1.120000e-06	2.924556e-06	1.019919e-08	2.035292e+01	6.703713e+02
1.130000e-06	3.012654e-06	1.042830e-08	2.096603e+01	6.857445e+02
1.140000e-06	3.099780e-06	1.064305e-08	2.157237e+01	6.997875e+02
1.150000e-06	3.185862e-06	1.084411e-08	2.217144e+01	7.127513e+02
1.160000e-06	3.270894e-06	1.103246e-08	2.276321e+01	7.249030e+02
1.170000e-06	3.354882e-06	1.121033e-08	2.334771e+01	7.364556e+02
1.180000e-06	3.437750e-06	1.138076e-08	2.392441e+01	7.475208e+02
1.190000e-06	3.519353e-06	1.154175e-08	2.449231e+01	7.581025e+02
1.200000e-06	3.599671e-06	1.168985e-08	2.505127e+01	7.681319e+02
1.210000e-06	3.678669e-06	1.182758e-08	2.560104e+01	7.775265e+02
1.220000e-06	3.756357e-06	1.195788e-08	2.614170e+01	7.862461e+02
1.230000e-06	3.832696e-06	1.208097e-08	2.667297e+01	7.943243e+02
1.240000e-06	3.907482e-06	1.219711e-08	2.719342e+01	8.018640e+02
1.250000e-06	3.980675e-06	1.231007e-08	2.770280e+01	8.090027e+02
1.260000e-06	4.052444e-06	1.242003e-08	2.820226e+01	8.158650e+02
1.270000e-06	4.122805e-06	1.252478e-08	2.869193e+01	8.225228e+02
1.280000e-06	4.191798e-06	1.262121e-08	2.917207e+01	8.289814e+02
1.290000e-06	4.259362e-06	1.271050e-08	2.964227e+01	8.351928e+02
1.300000e-06	4.325231e-06	1.279607e-08	3.010068e+01	8.410916e+02
1.310000e-06	4.389491e-06	1.287862e-08	3.054788e+01	8.466341e+02
1.320000e-06	4.452285e-06	1.295734e-08	3.098489e+01	8.518250e+02
1.330000e-06	4.513679e-06	1.303307e-08	3.141215e+01	8.567203e+02
1.340000e-06	4.573641e-06	1.310908e-08	3.182944e+01	8.614067e+02
1.350000e-06	4.631873e-06	1.318538e-08	3.223470e+01	8.659671e+02
1.360000e-06	4.688297e-06	1.325819e-08	3.262737e+01	8.704481e+02
1.370000e-06	4.743066e-06	1.332411e-08	3.300853e+01	8.748434e+02
1.380000e-06	4.796062e-06	1.338389e-08	3.337734e+01	8.790994e+02
1.390000e-06	4.847019e-06	1.343936e-08	3.373197e+01	8.831396e+02
1.400000e-06	4.895960e-06	1.349156e-08	3.407256e+01	8.868979e+02
1.410000e-06	4.943126e-06	1.354246e-08	3.440081e+01	8.903453e+02
1.420000e-06	4.988687e-06	1.359328e-08	3.471788e+01	8.935007e+02
1.430000e-06	5.032638e-06	1.364461e-08	3.502375e+01	8.964211e+02
1.440000e-06	5.074650e-06	1.369280e-08	3.531613e+01	8.991773e+02
1.450000e-06	5.114762e-06	1.373563e-08	3.559528e+01	9.018258e+02
1.460000e-06	5.153225e-06	1.377374e-08	3.586295e+01	9.043881e+02
1.470000e-06	5.190025e-06	1.380880e-08	3.611906e+01	9.068466e+02
1.480000e-06	5.224936e-06	1.384246e-08	3.636201e+01	9.091565e+02
1.490000e-06	5.257832e-06	1.387310e-08	3.659095e+01	9.112688e+02
1.500000e-06	5.288964e-06	1.390013e-08	3.680761e+01	9.131525e+02
1.510000e-06	5.318441e-06	1.392637e-08	3.701274e+01	9.148093e+02
1.520000e-06	5.346042e-06	1.395416e-08	3.720483e+01	9.162721e+02
1.530000e-06	5.371523e-06	1.398021e-08	3.738216e+01	9.175921e+02
1.540000e-06	5.395045e-06	1.400213e-08	3.754585e+01	9.188187e+02
1.550000e-06	5.416823e-06	1.401967e-08	3.769741e+01	9.199815e+02
1.560000e-06	5.436840e-06	1.403619e-08	3.783672e+01	9.210820e+02
1.570000e-06	5.454971e-06	1.405333e-08	3.796290e+01	9.220970e+02
1.580000e-06	5.471080e-06	1.406793e-08	3.807501e+01	9.229906e+02
1.590000e-06	5.485150e-06	1.407876e-08	3.817293e+01	9.237304e+02
1.600000e-06	5.497053e-06	1.408877e-08	3.825576e+01	9.242992e+02
1.610000e-06	5.506731e-06	1.410026e-08	3.832311e+01	9.246991e+02
1.620000e-06	5.514430e-06	1.411022e-08	3.837669e+01	9.249477e+02
1.630000e-06	5.520298e-06	1.411602e-08	3.841753e+01	9.250685e+02
1.640000e-06	5.524343e-06	1.411784e-08	3.844569e+01	9.250824e+02
1.650000e-06	5.526382e-06	1.411782e-08	3.845987e+01	9.250020e+02
1.660000e-06	5.526400e-06	1.411396e-08	3.846000e+01	9.248321e+02
1.670000e-06	5.524652e-06	1.410578e-08	3.844783e+01	9.245735e+02
1.680000e-06	5.521219e-06	1.410410e-08	3.842394e+01	9.242269e+02
1.690000e-06	5.515887e-06	1.410102e-08	3.838684e+01	9.237942e+02
1.700000e-06	5.508666e-06	1.409478e-08	3.833658e+01	9.232754e+02
1.710000e-06	5.499821e-06	1.408947e-08	3.827503e+01	9.226639e+02
1.720000e-06	5.489271e-06	1.408679e-08	3.820161e+01	9.219429e+02
1.730000e-06	5.476699e-06	1.409431e-08	3.811411e+01	9.210877e+02
1.740000e-06	5.462100e-06	1.402139e-08	3.801252e+01	9.200736e+02
1.750000e-06	5.445479e-06	1.395243e-08	3.789685e+01	9.188878e+02
1.760000e-06	5.426202e-06	1.396635e-08	3.776269e+01	9.175403e+02
1.770000e-06	5.404114e-06	1.395382e-08	3.760897e+01	9.160670e+02
1.780000e-06	5.380124e-06	1.402951e-08	3.744202e+01	9.145229e+02
1.790000e-06	5.355250e-06	1.398783e-08	3.726891e+01	9.129649e+02
1.800000e-06	5.329507e-06	1.382592e-08	3.708976e+01	9.114308e+02
1.810000e-06	5.301690e-06	1.395148e-08	3.689617e+01	9.099219e+02
1.820000e-06	5.271595e-06	1.389391e-08	3.668672e+01	9.083972e+02
1.830000e-06	5.239986e-06	1.376055e-08	3.646675e+01	9.067828e+02
1.840000e-06	5.206564e-06	1.389753e-08	3.623416e+01	9.049942e+02
1.850000e-06	5.171365e-06	1.375615e-08	3.598919e+01	9.029636e+02
1.860000e-06	5.134400e-06	1.370936e-08	3.573194e+01	9.006624e+02
1.870000e-06	5.095268e-06	1.383695e-08	3.545961e+01	8.981089e+02
1.880000e-06	5.054513e-06	1.364616e-08	3.517599e+01	8.953595e+02
1.890000e-06	5.012144e-06	1.364329e-08	3.488113e+01	8.924858e+02
1.900000e-06	4.967786e-06	1.360071e-08	3.457242e+01	8.895467e+02
1.910000e-06	4.921669e-06	1.344893e-08	3.425148e+01	8.865673e+02
1.920000e-06	4.873667e-06	1.354463e-08	3.391742e+01	8.835320e+02
1.930000e-06	4.823907e-06	1.342174e-08	3.357112e+01	8.803957e+02
1.940000e-06	4.772375e-06	1.338877e-08	3.321249e+01	8.771059e+02
1.950000e-06	4.718750e-06	1.339378e-08	3.283930e+01	8.736280e+02
1.960000e-06	4.663375e-06	1.327010e-08	3.245393e+01	8.699607e+02
1.970000e-06	4.606319e-06	1.324297e-08	3.205686e+01	8.661361e+02
1.980000e-06	4.547691e-06	1.310078e-08	3.164884e+01	8.622035e+02
1.990000e-06	4.487432e-06	1.309410e-08	3.122949e+01	8.582052e+02
2.000000e-06	4.425390e-06	1.305485e-08	3.079772e+01	8.541537e+02
2.010000e-06	4.361870e-06	1.296772e-08	3.035566e+01	8.500226e+02
2.020000e-06	4.296798e-06	1.296704e-08	2.990280e+01	8.457548e+02
2.030000e-06	4.230287e-06	1.281620e-08	2.943993e+01	8.412860e+02
2.040000e-06	4.162265e-06	1.278388e-08	2.896655e+01	8.365719e+02
2.050000e-06	4.092443e-06	1.268967e-08	2.848063e+01	8.316093e+02
2.060000e-06	4.021140e-06	1.258372e-08	2.798441e+01	8.264393e+02
2.070000e-06	3.948479e-06	1.254318e-08	2.747874e+01	8.211314e+02
2.080000e-06	3.874412e-06	1.243504e-08	2.696328e+01	8.157535e+02
2.090000e-06	3.798731e-06	1.240855e-08	2.643659e+01	8.103417e+02
2.100000e-06	3.721324e-06	1.229137e-08	2.589789e+01	8.048815e+02
2.110000e-06	3.642457e-06	1.220134e-08	2.534903e+01	7.993104e+02
2.120000e-06	3.562385e-06	1.210780e-08	2.479179e+01	7.935407e+02
2.130000e-06	3.481208e-06	1.200306e-08	2.422685e+01	7.874942e+02
2.140000e-06	3.398904e-06	1.193181e-08	2.365407e+01	7.811337e+02
2.150000e-06	3.315468e-06	1.180684e-08	2.307341e+01	7.744783e+02
2.160000e-06	3.230703e-06	1.172699e-08	2.248350e+01	7.675943e+02
2.170000e-06	3.144609e-06	1.161585e-08	2.188435e+01	7.605661e+02
2.180000e-06	3.057382e-06	1.151185e-08	2.127730e+01	7.534581e+02
2.190000e-06	2.969157e-06	1.139615e-08	2.066332e+01	7.462842e+02
2.200000e-06	2.880002e-06	1.126889e-08	2.004286e+01	7.389990e+02
2.210000e-06	2.789904e-06	1.115931e-08	1.941584e+01	7.315135e+02
2.220000e-06	2.698913e-06	1.104232e-08	1.878260e+01	7.237311e+02
2.230000e-06	2.606936e-06	1.093079e-08	1.814251e+01	7.155875e+02
2.240000e-06	2.513910e-06	1.078965e-08	1.749511e+01	7.070776e+02
2.250000e-06	2.419945e-06	1.065515e-08	1.684118e+01	6.982562e+02
2.260000e-06	2.325109e-06	1.051515e-08	1.618118e+01	6.892130e+02
2.270000e-06	2.229436e-06	1.038112e-08	1.551536e+01	6.800294e+02
2.280000e-06	2.133021e-06	1.023987e-08	1.484438e+01	6.707375e+02
2.290000e-06	2.035913e-06	1.008912e-08	1.416857e+01	6.612988e+02
2.300000e-06	1.938142e-06	9.944745e-09	1.348816e+01	6.516118e+02
2.310000e-06	1.839803e-06	9.792856e-09	1.280378e+01	6.415486e+02
2.320000e-06	1.740962e-06	9.634657e-09	1.211592e+01	6.310042e+02
2.330000e-06	1.641589e-06	9.456387e-09	1.142435e+01	6.199379e+02
2.340000e-06	1.541569e-06	9.282852e-09	1.072828e+01	6.083880e+02
2.350000e-06	1.440874e-06	9.106229e-09	1.002751e+01	5.964524e+02
2.360000e-06	1.339572e-06	8.923471e-09	9.322513e+00	5.842411e+02
2.370000e-06	1.237644e-06	8.733405e-09	8.613161e+00	5.718206e+02
2.380000e-06	1.135183e-06	8.538591e-09	7.900103e+00	5.591739e+02
2.390000e-06	1.032324e-06	8.345719e-09	7.184275e+00	5.461944e+02
2.400000e-06	9.291003e-07	8.137129e-09	6.465908e+00	5.327186e+02
2.410000e-06	8.255662e-07	7.912123e-09	5.745381e+00	5.185850e+02
2.420000e-06	7.217554e-07	7.676980e-09	5.022928e+00	5.036941e+02
2.430000e-06	6.177180e-07	7.438603e-09	4.298899e+00	4.880438e+02
2.440000e-06	5.135179e-07	7.196979e-09	3.573736e+00	4.717208e+02
2.450000e-06	4.091894e-07	6.948466e-09	2.847681e+00	4.548508e+02
2.460000e-06	3.047307e-07	6.687857e-09	2.120719e+00	4.375242e+02
2.470000e-06	2.001446e-07	6.416299e-09	1.392871e+00	4.197310e+02
2.480000e-06	9.545569e-08	6.132090e-09	6.643069e-01	4.013331e+02
2.490000e-06	-9.288789e-09	5.828681e-09	-6.464367e-02	3.820908e+02
2.500000e-06	-1.140101e-07	5.506804e-09	-7.934331e-01	3.617351e+02
2.510000e-06	-2.186730e-07	5.172910e-09	-1.521816e+00	3.400566e+02
2.520000e-06	-3.232567e-07	4.831426e-09	-2.249647e+00	3.169694e+02
2.530000e-06	-4.277097e-07	4.474617e-09	-2.976570e+00	2.925134e+02
2.540000e-06	-5.319933e-07	4.091867e-09	-3.702313e+00	2.667815e+02
2.550000e-06	-6.361124e-07	3.680533e-09	-4.426911e+00	2.397873e+02
2.560000e-06	-7.399511e-07	3.242256e-09	-5.149558e+00	2.113211e+02
2.570000e-06	-8.434724e-07	2.770369e-09	-5.869996e+00	1.808533e+02
2.580000e-06	-9.467453e-07	2.252418e-09	-6.588705e+00	1.475405e+02
2.590000e-06	-1.049705e-06	1.682545e-09	-7.305236e+00	1.103580e+02
2.600000e-06	-1.152235e-06	1.055823e-09	-8.018772e+00	6.834372e+01
2.610000e-06	-1.254247e-06	3.576450e-10	-8.728711e+00	2.089250e+01
2.620000e-06	-1.355763e-06	-4.314026e-10	-9.435195e+00	-3.198058e+01
2.630000e-06	-1.456716e-06	-1.308040e-09	-1.013776e+01	-8.949257e+01
2.640000e-06	-1.557043e-06	-2.241397e-09	-1.083596e+01	-1.501155e+02
2.650000e-06	-1.656692e-06	-3.192375e-09	-1.152945e+01	-2.117779e+02
2.660000e-06	-1.755711e-06	-4.125252e-09	-1.221856e+01	-2.721999e+02
2.670000e-06	-1.854172e-06	-5.006998e-09	-1.290378e+01	-3.292790e+02
2.680000e-06	-1.952013e-06	-5.806008e-09	-1.358469e+01	-3.814271e+02
2.690000e-06	-2.049209e-06	-6.509039e-09	-1.426111e+01	-4.277769e+02
2.700000e-06	-2.145745e-06	-7.126367e-09	-1.493293e+01	-4.682147e+02
2.710000e-06	-2.241626e-06	-7.670270e-09	-1.560020e+01	-5.032477e+02
2.720000e-06	-2.336836e-06	-8.149415e-09	-1.626280e+01	-5.337603e+02
2.730000e-06	-2.431313e-06	-8.572632e-09	-1.692029e+01	-5.607379e+02
2.740000e-06	-2.524884e-06	-8.949252e-09	-1.757148e+01	-5.850365e+02
2.750000e-06	-2.617350e-06	-9.288863e-09	-1.821498e+01	-6.072525e+02
2.760000e-06	-2.708713e-06	-9.600428e-09	-1.885081e+01	-6.277073e+02
2.770000e-06	-2.799139e-06	-9.886451e-09	-1.948011e+01	-6.465222e+02
2.780000e-06	-2.888611e-06	-1.014545e-08	-2.010278e+01	-6.637380e+02
2.790000e-06	-2.977041e-06	-1.038341e-08	-2.071818e+01	-6.794230e+02
2.800000e-06	-3.064497e-06	-1.060637e-08	-2.132682e+01	-6.937325e+02
2.810000e-06	-3.150974e-06	-1.081573e-08	-2.192864e+01	-7.069052e+02
2.820000e-06	-3.236281e-06	-1.101028e-08	-2.252232e+01	-7.192110e+02
2.830000e-06	-3.320221e-06	-1.119062e-08	-2.310649e+01	-7.308794e+02
2.840000e-06	-3.402943e-06	-1.135952e-08	-2.368218e+01	-7.420461e+02
2.850000e-06	-3.484633e-06	-1.151975e-08	-2.425069e+01	-7.527363e+02
2.860000e-06	-3.565197e-06	-1.167159e-08	-2.481136e+01	-7.628922e+02
2.870000e-06	-3.644516e-06	-1.181364e-08	-2.536336e+01	-7.724291e+02
2.880000e-06	-3.722457e-06	-1.194720e-08	-2.590578e+01	-7.812939e+02
2.890000e-06	-3.798849e-06	-1.207410e-08	-2.643742e+01	-7.895036e+02
2.900000e-06	-3.873705e-06	-1.219475e-08	-2.695836e+01	-7.971483e+02
2.910000e-06	-3.947118e-06	-1.230852e-08	-2.746927e+01	-8.043621e+02
2.920000e-06	-4.019117e-06	-1.241452e-08	-2.797033e+01	-8.112760e+02
2.930000e-06	-4.089767e-06	-1.251487e-08	-2.846200e+01	-8.179757e+02
2.940000e-06	-4.158956e-06	-1.261276e-08	-2.894351e+01	-8.244804e+02
