# Temperatura_=_60.54
# Concentracion g/m^3_=_13400.0
# C_Vs_to_Am_M_A/Vsm_=_65563218390.804596
# pendiente_HvsI_1/m_=_3716.3
# ordenada_HvsI_A/m_=_1297.0
# frecuencia_Hz_=_300799.3633772153

Tiempo_(s)	Campo_(V.s)	Magnetizacion_(V.s)	Campo_(kA/m)	Magnetizacion_(A/m)
0.000000e+00	-5.498955e-06	-1.449577e-08	-3.830785e+01	-9.505419e+02
1.000000e-08	-5.497019e-06	-1.449150e-08	-3.829436e+01	-9.502873e+02
2.000000e-08	-5.493087e-06	-1.448384e-08	-3.826697e+01	-9.498822e+02
3.000000e-08	-5.487438e-06	-1.447942e-08	-3.822762e+01	-9.493376e+02
4.000000e-08	-5.480186e-06	-1.447227e-08	-3.817710e+01	-9.486763e+02
5.000000e-08	-5.471264e-06	-1.445675e-08	-3.811495e+01	-9.479180e+02
6.000000e-08	-5.460380e-06	-1.443577e-08	-3.803912e+01	-9.470653e+02
7.000000e-08	-5.447408e-06	-1.441031e-08	-3.794875e+01	-9.460997e+02
8.000000e-08	-5.432390e-06	-1.440670e-08	-3.784413e+01	-9.449887e+02
9.000000e-08	-5.414962e-06	-1.443308e-08	-3.772272e+01	-9.437037e+02
1.000000e-07	-5.395208e-06	-1.441488e-08	-3.758511e+01	-9.422386e+02
1.100000e-07	-5.373497e-06	-1.436747e-08	-3.743386e+01	-9.406213e+02
1.200000e-07	-5.350038e-06	-1.432705e-08	-3.727044e+01	-9.389101e+02
1.300000e-07	-5.325170e-06	-1.425429e-08	-3.709720e+01	-9.371742e+02
1.400000e-07	-5.298747e-06	-1.425463e-08	-3.691313e+01	-9.354673e+02
1.500000e-07	-5.270450e-06	-1.426025e-08	-3.671599e+01	-9.338014e+02
1.600000e-07	-5.240511e-06	-1.416249e-08	-3.650743e+01	-9.321363e+02
1.700000e-07	-5.208997e-06	-1.417586e-08	-3.628789e+01	-9.303867e+02
1.800000e-07	-5.175441e-06	-1.418372e-08	-3.605413e+01	-9.284484e+02
1.900000e-07	-5.139852e-06	-1.409501e-08	-3.580620e+01	-9.262323e+02
2.000000e-07	-5.102742e-06	-1.408796e-08	-3.554767e+01	-9.236938e+02
2.100000e-07	-5.063991e-06	-1.401206e-08	-3.527772e+01	-9.208459e+02
2.200000e-07	-5.023450e-06	-1.392042e-08	-3.499530e+01	-9.177514e+02
2.300000e-07	-4.981000e-06	-1.392712e-08	-3.469957e+01	-9.144968e+02
2.400000e-07	-4.936508e-06	-1.387972e-08	-3.438963e+01	-9.111591e+02
2.500000e-07	-4.890239e-06	-1.384117e-08	-3.406730e+01	-9.077789e+02
2.600000e-07	-4.842197e-06	-1.380488e-08	-3.373262e+01	-9.043505e+02
2.700000e-07	-4.792141e-06	-1.372591e-08	-3.338391e+01	-9.008317e+02
2.800000e-07	-4.739971e-06	-1.367145e-08	-3.302047e+01	-8.971681e+02
2.900000e-07	-4.685864e-06	-1.359679e-08	-3.264355e+01	-8.933210e+02
3.000000e-07	-4.630087e-06	-1.351860e-08	-3.225498e+01	-8.892854e+02
3.100000e-07	-4.572690e-06	-1.346134e-08	-3.185513e+01	-8.850910e+02
3.200000e-07	-4.513529e-06	-1.343315e-08	-3.144299e+01	-8.807856e+02
3.300000e-07	-4.452713e-06	-1.338954e-08	-3.101932e+01	-8.764097e+02
3.400000e-07	-4.390420e-06	-1.329696e-08	-3.058536e+01	-8.719736e+02
3.500000e-07	-4.326664e-06	-1.322179e-08	-3.014121e+01	-8.674486e+02
3.600000e-07	-4.261431e-06	-1.313042e-08	-2.968678e+01	-8.627766e+02
3.700000e-07	-4.194516e-06	-1.304983e-08	-2.922063e+01	-8.578954e+02
3.800000e-07	-4.125883e-06	-1.299170e-08	-2.874250e+01	-8.527661e+02
3.900000e-07	-4.055771e-06	-1.290676e-08	-2.825407e+01	-8.473932e+02
4.000000e-07	-3.984410e-06	-1.283444e-08	-2.775694e+01	-8.418242e+02
4.100000e-07	-3.911806e-06	-1.275602e-08	-2.725116e+01	-8.361307e+02
4.200000e-07	-3.837715e-06	-1.266271e-08	-2.673501e+01	-8.303763e+02
4.300000e-07	-3.761886e-06	-1.255881e-08	-2.620675e+01	-8.245870e+02
4.400000e-07	-3.684431e-06	-1.246367e-08	-2.566717e+01	-8.187357e+02
4.500000e-07	-3.605540e-06	-1.238810e-08	-2.511758e+01	-8.127500e+02
4.600000e-07	-3.525115e-06	-1.229877e-08	-2.455731e+01	-8.065400e+02
4.700000e-07	-3.443307e-06	-1.219963e-08	-2.398741e+01	-8.000347e+02
4.800000e-07	-3.360321e-06	-1.208749e-08	-2.340930e+01	-7.932114e+02
4.900000e-07	-3.276250e-06	-1.197807e-08	-2.282363e+01	-7.861052e+02
5.000000e-07	-3.191242e-06	-1.187221e-08	-2.223142e+01	-7.787934e+02
5.100000e-07	-3.105311e-06	-1.175510e-08	-2.163280e+01	-7.713606e+02
5.200000e-07	-3.018388e-06	-1.164212e-08	-2.102726e+01	-7.638595e+02
5.300000e-07	-2.930495e-06	-1.153338e-08	-2.041496e+01	-7.562848e+02
5.400000e-07	-2.841719e-06	-1.141884e-08	-1.979652e+01	-7.485719e+02
5.500000e-07	-2.751901e-06	-1.129172e-08	-1.917081e+01	-7.406216e+02
5.600000e-07	-2.660843e-06	-1.115823e-08	-1.853646e+01	-7.323414e+02
5.700000e-07	-2.568662e-06	-1.102524e-08	-1.789429e+01	-7.236844e+02
5.800000e-07	-2.475589e-06	-1.089283e-08	-1.724591e+01	-7.146699e+02
5.900000e-07	-2.381727e-06	-1.075732e-08	-1.659204e+01	-7.053744e+02
6.000000e-07	-2.287083e-06	-1.061501e-08	-1.593271e+01	-6.958953e+02
6.100000e-07	-2.191681e-06	-1.046939e-08	-1.526810e+01	-6.863040e+02
6.200000e-07	-2.095564e-06	-1.031909e-08	-1.459851e+01	-6.766073e+02
6.300000e-07	-1.998746e-06	-1.016380e-08	-1.392404e+01	-6.667351e+02
6.400000e-07	-1.901108e-06	-1.000668e-08	-1.324386e+01	-6.565613e+02
6.500000e-07	-1.802576e-06	-9.843464e-09	-1.255744e+01	-6.459511e+02
6.600000e-07	-1.703261e-06	-9.674230e-09	-1.186557e+01	-6.348136e+02
6.700000e-07	-1.603301e-06	-9.500224e-09	-1.116922e+01	-6.231381e+02
6.800000e-07	-1.502827e-06	-9.317902e-09	-1.046927e+01	-6.109963e+02
6.900000e-07	-1.401860e-06	-9.127616e-09	-9.765896e+00	-5.985080e+02
7.000000e-07	-1.300401e-06	-8.933633e-09	-9.059095e+00	-5.857833e+02
7.100000e-07	-1.198541e-06	-8.736326e-09	-8.349503e+00	-5.728658e+02
7.200000e-07	-1.096300e-06	-8.534838e-09	-7.637251e+00	-5.597017e+02
7.300000e-07	-9.936139e-07	-8.327576e-09	-6.921899e+00	-5.461499e+02
7.400000e-07	-8.905264e-07	-8.109769e-09	-6.203752e+00	-5.320310e+02
7.500000e-07	-7.872112e-07	-7.880462e-09	-5.484018e+00	-5.171948e+02
7.600000e-07	-6.836578e-07	-7.641425e-09	-4.762625e+00	-5.015772e+02
7.700000e-07	-5.798294e-07	-7.397160e-09	-4.039316e+00	-4.852200e+02
7.800000e-07	-4.758166e-07	-7.146553e-09	-3.314722e+00	-4.682411e+02
7.900000e-07	-3.717020e-07	-6.886020e-09	-2.589420e+00	-4.507660e+02
8.000000e-07	-2.675113e-07	-6.614294e-09	-1.863587e+00	-4.328471e+02
8.100000e-07	-1.632304e-07	-6.326781e-09	-1.137126e+00	-4.144087e+02
8.200000e-07	-5.889113e-08	-6.023179e-09	-4.102584e-01	-3.952425e+02
8.300000e-07	4.547134e-08	-5.706585e-09	3.167710e-01	-3.750630e+02
8.400000e-07	1.498247e-07	-5.377326e-09	1.043737e+00	-3.536004e+02
8.500000e-07	2.541318e-07	-5.034544e-09	1.770380e+00	-3.306910e+02
8.600000e-07	3.583631e-07	-4.674706e-09	2.496496e+00	-3.063201e+02
8.700000e-07	4.624885e-07	-4.289880e-09	3.221874e+00	-2.805844e+02
8.800000e-07	5.665077e-07	-3.876066e-09	3.946512e+00	-2.535758e+02
8.900000e-07	6.703610e-07	-3.435786e-09	4.669995e+00	-2.252200e+02
9.000000e-07	7.739520e-07	-2.965944e-09	5.391650e+00	-1.951329e+02
9.100000e-07	8.772471e-07	-2.454676e-09	6.111243e+00	-1.625618e+02
9.200000e-07	9.802220e-07	-1.891784e-09	6.828606e+00	-1.264598e+02
9.300000e-07	1.082895e-06	-1.267257e-09	7.543867e+00	-8.569852e+01
9.400000e-07	1.185213e-06	-5.688246e-10	8.256656e+00	-3.937746e+01
9.500000e-07	1.287114e-06	2.165814e-10	8.966537e+00	1.285385e+01
9.600000e-07	1.388549e-06	1.095621e-09	9.673172e+00	7.055792e+01
9.700000e-07	1.489469e-06	2.051674e-09	1.037622e+01	1.324380e+02
9.800000e-07	1.589940e-06	3.044629e-09	1.107614e+01	1.964702e+02
9.900000e-07	1.689983e-06	4.026715e-09	1.177308e+01	2.602172e+02
1.000000e-06	1.789433e-06	4.955521e-09	1.246589e+01	3.212472e+02
1.010000e-06	1.888090e-06	5.799785e-09	1.315317e+01	3.775499e+02
1.020000e-06	1.985769e-06	6.542940e-09	1.383364e+01	4.278427e+02
1.030000e-06	2.082593e-06	7.189690e-09	1.450815e+01	4.716951e+02
1.040000e-06	2.178785e-06	7.757144e-09	1.517826e+01	5.094533e+02
1.050000e-06	2.274242e-06	8.255974e-09	1.584325e+01	5.420052e+02
1.060000e-06	2.368940e-06	8.693723e-09	1.650295e+01	5.704674e+02
1.070000e-06	2.462910e-06	9.082835e-09	1.715758e+01	5.958895e+02
1.080000e-06	2.556098e-06	9.435980e-09	1.780677e+01	6.190535e+02
1.090000e-06	2.648457e-06	9.760100e-09	1.845017e+01	6.404056e+02
1.100000e-06	2.739874e-06	1.005385e-08	1.908702e+01	6.601118e+02
1.110000e-06	2.830095e-06	1.031784e-08	1.971554e+01	6.781892e+02
1.120000e-06	2.919127e-06	1.056113e-08	2.033577e+01	6.946502e+02
1.130000e-06	3.007212e-06	1.078910e-08	2.094940e+01	7.096014e+02
1.140000e-06	3.094304e-06	1.100279e-08	2.155612e+01	7.232699e+02
1.150000e-06	3.180320e-06	1.120212e-08	2.215534e+01	7.359583e+02
1.160000e-06	3.265349e-06	1.138573e-08	2.274768e+01	7.479604e+02
1.170000e-06	3.349395e-06	1.155822e-08	2.333318e+01	7.594801e+02
1.180000e-06	3.432221e-06	1.172666e-08	2.391018e+01	7.705886e+02
1.190000e-06	3.513707e-06	1.188734e-08	2.447784e+01	7.812363e+02
1.200000e-06	3.593920e-06	1.203423e-08	2.503664e+01	7.913093e+02
1.210000e-06	3.672820e-06	1.217229e-08	2.558629e+01	8.007051e+02
1.220000e-06	3.750386e-06	1.230717e-08	2.612664e+01	8.093935e+02
1.230000e-06	3.826606e-06	1.243581e-08	2.665762e+01	8.174401e+02
1.240000e-06	3.901281e-06	1.255344e-08	2.717783e+01	8.249857e+02
1.250000e-06	3.974381e-06	1.266259e-08	2.768708e+01	8.321937e+02
1.260000e-06	4.046074e-06	1.276843e-08	2.818652e+01	8.391916e+02
1.270000e-06	4.116434e-06	1.287194e-08	2.867668e+01	8.460313e+02
1.280000e-06	4.185459e-06	1.296992e-08	2.915753e+01	8.526837e+02
1.290000e-06	4.252959e-06	1.306138e-08	2.962776e+01	8.590682e+02
1.300000e-06	4.318738e-06	1.315111e-08	3.008600e+01	8.651015e+02
1.310000e-06	4.382931e-06	1.324097e-08	3.053320e+01	8.707432e+02
1.320000e-06	4.445735e-06	1.332688e-08	3.097071e+01	8.760200e+02
1.330000e-06	4.507159e-06	1.340531e-08	3.139862e+01	8.810168e+02
1.340000e-06	4.567105e-06	1.347919e-08	3.181622e+01	8.858431e+02
1.350000e-06	4.625280e-06	1.355188e-08	3.222149e+01	8.905874e+02
1.360000e-06	4.681673e-06	1.362201e-08	3.261435e+01	8.952829e+02
1.370000e-06	4.736446e-06	1.368953e-08	3.299592e+01	8.998965e+02
1.380000e-06	4.789439e-06	1.375566e-08	3.336509e+01	9.043467e+02
1.390000e-06	4.840403e-06	1.382028e-08	3.372012e+01	9.085406e+02
1.400000e-06	4.889363e-06	1.388047e-08	3.406119e+01	9.124146e+02
1.410000e-06	4.936552e-06	1.393488e-08	3.438993e+01	9.159608e+02
1.420000e-06	4.982146e-06	1.398466e-08	3.470756e+01	9.192288e+02
1.430000e-06	5.026108e-06	1.403331e-08	3.501381e+01	9.223033e+02
1.440000e-06	5.068137e-06	1.408073e-08	3.530660e+01	9.252681e+02
1.450000e-06	5.108288e-06	1.412550e-08	3.558631e+01	9.281723e+02
1.460000e-06	5.146790e-06	1.416900e-08	3.585453e+01	9.310128e+02
1.470000e-06	5.183620e-06	1.421128e-08	3.611110e+01	9.337398e+02
1.480000e-06	5.218557e-06	1.424941e-08	3.635449e+01	9.362820e+02
1.490000e-06	5.251506e-06	1.428111e-08	3.658402e+01	9.385795e+02
1.500000e-06	5.282680e-06	1.431012e-08	3.680120e+01	9.406094e+02
1.510000e-06	5.312144e-06	1.434066e-08	3.700645e+01	9.423957e+02
1.520000e-06	5.339725e-06	1.436997e-08	3.719859e+01	9.439975e+02
1.530000e-06	5.365237e-06	1.439440e-08	3.737632e+01	9.454832e+02
1.540000e-06	5.388777e-06	1.441704e-08	3.754031e+01	9.469027e+02
1.550000e-06	5.410564e-06	1.444049e-08	3.769209e+01	9.482685e+02
1.560000e-06	5.430619e-06	1.446229e-08	3.783180e+01	9.495541e+02
1.570000e-06	5.448732e-06	1.447883e-08	3.795798e+01	9.507089e+02
1.580000e-06	5.464825e-06	1.449045e-08	3.807009e+01	9.516825e+02
1.590000e-06	5.478933e-06	1.450214e-08	3.816837e+01	9.524469e+02
1.600000e-06	5.490874e-06	1.451665e-08	3.825156e+01	9.530071e+02
1.610000e-06	5.500621e-06	1.452998e-08	3.831946e+01	9.533969e+02
1.620000e-06	5.508432e-06	1.453793e-08	3.837387e+01	9.536625e+02
1.630000e-06	5.514464e-06	1.454193e-08	3.841589e+01	9.538415e+02
1.640000e-06	5.518644e-06	1.454519e-08	3.844501e+01	9.539488e+02
1.650000e-06	5.520719e-06	1.454727e-08	3.845947e+01	9.539732e+02
1.660000e-06	5.520796e-06	1.454305e-08	3.846000e+01	9.538876e+02
1.670000e-06	5.519174e-06	1.453493e-08	3.844870e+01	9.536643e+02
1.680000e-06	5.515877e-06	1.453476e-08	3.842573e+01	9.532907e+02
1.690000e-06	5.510658e-06	1.453627e-08	3.838938e+01	9.527737e+02
1.700000e-06	5.503525e-06	1.452937e-08	3.833969e+01	9.521349e+02
1.710000e-06	5.494746e-06	1.451602e-08	3.827853e+01	9.513959e+02
1.720000e-06	5.484163e-06	1.450560e-08	3.820481e+01	9.505639e+02
1.730000e-06	5.471502e-06	1.450196e-08	3.811660e+01	9.496244e+02
1.740000e-06	5.456891e-06	1.444874e-08	3.801481e+01	9.485469e+02
1.750000e-06	5.440307e-06	1.438645e-08	3.789929e+01	9.473002e+02
1.760000e-06	5.421175e-06	1.438570e-08	3.776601e+01	9.458720e+02
1.770000e-06	5.399297e-06	1.438919e-08	3.761360e+01	9.442828e+02
1.780000e-06	5.375397e-06	1.442553e-08	3.744710e+01	9.425854e+02
1.790000e-06	5.350511e-06	1.438372e-08	3.727373e+01	9.408488e+02
1.800000e-06	5.324783e-06	1.426821e-08	3.709450e+01	9.391324e+02
1.810000e-06	5.297090e-06	1.431596e-08	3.690158e+01	9.374588e+02
1.820000e-06	5.267076e-06	1.430207e-08	3.669249e+01	9.357989e+02
1.830000e-06	5.235505e-06	1.423704e-08	3.647256e+01	9.340756e+02
1.840000e-06	5.202220e-06	1.430058e-08	3.624068e+01	9.321858e+02
1.850000e-06	5.167169e-06	1.420664e-08	3.599650e+01	9.300344e+02
1.860000e-06	5.130327e-06	1.414815e-08	3.573984e+01	9.275653e+02
1.870000e-06	5.091312e-06	1.420678e-08	3.546805e+01	9.247793e+02
1.880000e-06	5.050597e-06	1.408589e-08	3.518441e+01	9.217302e+02
1.890000e-06	5.008353e-06	1.405231e-08	3.489012e+01	9.185021e+02
1.900000e-06	4.964228e-06	1.401083e-08	3.458274e+01	9.151767e+02
1.910000e-06	4.918297e-06	1.388803e-08	3.426276e+01	9.118040e+02
1.920000e-06	4.870445e-06	1.390692e-08	3.392941e+01	9.083881e+02
1.930000e-06	4.820837e-06	1.381092e-08	3.358382e+01	9.048927e+02
1.940000e-06	4.769478e-06	1.376152e-08	3.322603e+01	9.012638e+02
1.950000e-06	4.715930e-06	1.376469e-08	3.285299e+01	8.974572e+02
1.960000e-06	4.660622e-06	1.365671e-08	3.246770e+01	8.934601e+02
1.970000e-06	4.603701e-06	1.360014e-08	3.207117e+01	8.892954e+02
1.980000e-06	4.545187e-06	1.348698e-08	3.166353e+01	8.850092e+02
1.990000e-06	4.485107e-06	1.343972e-08	3.124499e+01	8.806458e+02
2.000000e-06	4.423207e-06	1.339910e-08	3.081377e+01	8.762232e+02
2.010000e-06	4.359740e-06	1.331079e-08	3.037164e+01	8.717209e+02
2.020000e-06	4.294751e-06	1.328805e-08	2.991890e+01	8.670855e+02
2.030000e-06	4.228297e-06	1.317374e-08	2.945595e+01	8.622530e+02
2.040000e-06	4.160354e-06	1.310497e-08	2.898264e+01	8.571776e+02
2.050000e-06	4.090608e-06	1.301591e-08	2.849676e+01	8.518537e+02
2.060000e-06	4.019375e-06	1.289966e-08	2.800052e+01	8.463206e+02
2.070000e-06	3.946880e-06	1.284733e-08	2.749549e+01	8.406471e+02
2.080000e-06	3.872992e-06	1.275095e-08	2.698077e+01	8.349015e+02
2.090000e-06	3.797464e-06	1.269138e-08	2.645460e+01	8.291195e+02
2.100000e-06	3.720167e-06	1.258424e-08	2.591612e+01	8.232858e+02
2.110000e-06	3.641407e-06	1.247727e-08	2.536745e+01	8.173360e+02
2.120000e-06	3.561471e-06	1.238850e-08	2.481059e+01	8.111807e+02
2.130000e-06	3.480422e-06	1.227716e-08	2.424597e+01	8.047421e+02
2.140000e-06	3.398238e-06	1.219076e-08	2.367344e+01	7.979853e+02
2.150000e-06	3.314933e-06	1.207623e-08	2.309310e+01	7.909337e+02
2.160000e-06	3.230275e-06	1.197912e-08	2.250334e+01	7.836580e+02
2.170000e-06	3.144205e-06	1.186357e-08	2.190375e+01	7.762446e+02
2.180000e-06	3.057056e-06	1.173963e-08	2.129664e+01	7.687558e+02
2.190000e-06	2.968991e-06	1.162284e-08	2.068314e+01	7.612000e+02
2.200000e-06	2.879952e-06	1.150120e-08	2.006286e+01	7.535240e+02
2.210000e-06	2.789914e-06	1.138461e-08	1.943562e+01	7.456328e+02
2.220000e-06	2.699057e-06	1.125958e-08	1.880267e+01	7.374287e+02
2.230000e-06	2.607294e-06	1.113367e-08	1.816342e+01	7.288526e+02
2.240000e-06	2.514447e-06	1.099095e-08	1.751661e+01	7.199094e+02
2.250000e-06	2.420543e-06	1.084977e-08	1.686244e+01	7.106654e+02
2.260000e-06	2.325735e-06	1.070431e-08	1.620197e+01	7.012175e+02
2.270000e-06	2.230191e-06	1.056263e-08	1.553638e+01	6.916465e+02
2.280000e-06	2.133905e-06	1.041900e-08	1.486561e+01	6.819753e+02
2.290000e-06	2.036928e-06	1.026826e-08	1.419003e+01	6.721495e+02
2.300000e-06	1.939258e-06	1.011552e-08	1.350962e+01	6.620517e+02
2.310000e-06	1.840969e-06	9.950639e-09	1.282490e+01	6.515444e+02
2.320000e-06	1.742209e-06	9.779568e-09	1.213690e+01	6.405233e+02
2.330000e-06	1.643011e-06	9.597851e-09	1.144585e+01	6.289591e+02
2.340000e-06	1.543228e-06	9.420852e-09	1.075072e+01	6.169075e+02
2.350000e-06	1.442638e-06	9.239765e-09	1.004998e+01	6.044823e+02
2.360000e-06	1.341308e-06	9.049136e-09	9.344069e+00	5.918011e+02
2.370000e-06	1.239422e-06	8.851855e-09	8.634295e+00	5.789255e+02
2.380000e-06	1.137103e-06	8.648189e-09	7.921502e+00	5.658232e+02
2.390000e-06	1.034406e-06	8.441950e-09	7.206070e+00	5.523687e+02
2.400000e-06	9.313338e-07	8.221842e-09	6.488032e+00	5.383855e+02
2.410000e-06	8.279481e-07	7.991082e-09	5.767807e+00	5.237114e+02
2.420000e-06	7.242613e-07	7.754227e-09	5.045485e+00	5.082608e+02
2.430000e-06	6.202620e-07	7.512539e-09	4.320985e+00	4.920534e+02
2.440000e-06	5.160538e-07	7.264890e-09	3.595030e+00	4.751957e+02
2.450000e-06	4.117086e-07	7.004996e-09	2.868122e+00	4.578183e+02
2.460000e-06	3.072242e-07	6.730628e-09	2.140243e+00	4.399956e+02
2.470000e-06	2.026742e-07	6.447520e-09	1.411907e+00	4.216815e+02
2.480000e-06	9.812678e-08	6.154438e-09	6.835892e-01	4.026934e+02
2.490000e-06	-6.435487e-09	5.843934e-09	-4.483210e-02	3.827553e+02
2.500000e-06	-1.109968e-07	5.513725e-09	-7.732469e-01	3.615856e+02
2.510000e-06	-2.155361e-07	5.168942e-09	-1.501508e+00	3.389921e+02
2.520000e-06	-3.199902e-07	4.812655e-09	-2.229176e+00	3.149283e+02
2.530000e-06	-4.243218e-07	4.437740e-09	-2.955990e+00	2.894743e+02
2.540000e-06	-5.285175e-07	4.037145e-09	-3.681857e+00	2.627360e+02
2.550000e-06	-6.325407e-07	3.607641e-09	-4.406524e+00	2.346885e+02
2.560000e-06	-7.363136e-07	3.148528e-09	-5.129445e+00	2.050228e+02
2.570000e-06	-8.397288e-07	2.652450e-09	-5.849876e+00	1.730639e+02
2.580000e-06	-9.428009e-07	2.107897e-09	-6.567916e+00	1.378145e+02
2.590000e-06	-1.045574e-06	1.505941e-09	-7.283871e+00	9.813989e+01
2.600000e-06	-1.147967e-06	8.355046e-10	-7.997183e+00	5.306245e+01
2.610000e-06	-1.249955e-06	8.280660e-11	-8.707672e+00	2.089530e+00
2.620000e-06	-1.351461e-06	-7.635597e-10	-9.414802e+00	-5.452282e+01
2.630000e-06	-1.452376e-06	-1.697326e-09	-1.011781e+01	-1.156579e+02
2.640000e-06	-1.552652e-06	-2.686263e-09	-1.081637e+01	-1.794264e+02
2.650000e-06	-1.652195e-06	-3.682477e-09	-1.150983e+01	-2.434467e+02
2.660000e-06	-1.751105e-06	-4.638047e-09	-1.219888e+01	-3.052487e+02
2.670000e-06	-1.849521e-06	-5.518455e-09	-1.288448e+01	-3.627010e+02
2.680000e-06	-1.947341e-06	-6.302473e-09	-1.356593e+01	-4.143475e+02
2.690000e-06	-2.044472e-06	-6.986249e-09	-1.424258e+01	-4.595751e+02
2.700000e-06	-2.140939e-06	-7.583091e-09	-1.491461e+01	-4.985789e+02
2.710000e-06	-2.236731e-06	-8.106773e-09	-1.558194e+01	-5.321559e+02
2.720000e-06	-2.331821e-06	-8.568548e-09	-1.624437e+01	-5.614004e+02
2.730000e-06	-2.426206e-06	-8.979243e-09	-1.690189e+01	-5.873975e+02
2.740000e-06	-2.519761e-06	-9.346948e-09	-1.755363e+01	-6.109970e+02
2.750000e-06	-2.612222e-06	-9.676772e-09	-1.819775e+01	-6.327161e+02
2.760000e-06	-2.703518e-06	-9.976426e-09	-1.883375e+01	-6.527712e+02
2.770000e-06	-2.793827e-06	-1.025220e-08	-1.946288e+01	-6.711990e+02
2.780000e-06	-2.883195e-06	-1.050508e-08	-2.008545e+01	-6.880020e+02
2.790000e-06	-2.971552e-06	-1.073785e-08	-2.070098e+01	-7.032619e+02
2.800000e-06	-3.058894e-06	-1.095530e-08	-2.130944e+01	-7.171818e+02
2.810000e-06	-3.145221e-06	-1.116093e-08	-2.191083e+01	-7.300543e+02
2.820000e-06	-3.230409e-06	-1.135311e-08	-2.250428e+01	-7.421827e+02
2.830000e-06	-3.314231e-06	-1.153222e-08	-2.308822e+01	-7.537956e+02
2.840000e-06	-3.396836e-06	-1.170036e-08	-2.366367e+01	-7.649934e+02
2.850000e-06	-3.478427e-06	-1.186009e-08	-2.423207e+01	-7.757489e+02
2.860000e-06	-3.558915e-06	-1.201218e-08	-2.479278e+01	-7.859557e+02
2.870000e-06	-3.638181e-06	-1.215400e-08	-2.534498e+01	-7.955027e+02
2.880000e-06	-3.716052e-06	-1.228633e-08	-2.588746e+01	-8.043409e+02
2.890000e-06	-3.792345e-06	-1.241329e-08	-2.641895e+01	-8.125157e+02
2.900000e-06	-3.867116e-06	-1.253614e-08	-2.693983e+01	-8.201552e+02
2.910000e-06	-3.940467e-06	-1.265198e-08	-2.745082e+01	-8.274233e+02
2.920000e-06	-4.012436e-06	-1.275960e-08	-2.795218e+01	-8.344594e+02
2.930000e-06	-4.083051e-06	-1.286179e-08	-2.844411e+01	-8.413334e+02
2.940000e-06	-4.152135e-06	-1.296161e-08	-2.892538e+01	-8.480322e+02
