# Temperatura_=_51.49
# Concentracion g/m^3_=_13400.0
# C_Vs_to_Am_M_A/Vsm_=_65563218390.804596
# pendiente_HvsI_1/m_=_3716.3
# ordenada_HvsI_A/m_=_1297.0
# frecuencia_Hz_=_300800.64057305764

Tiempo_(s)	Campo_(V.s)	Magnetizacion_(V.s)	Campo_(kA/m)	Magnetizacion_(A/m)
0.000000e+00	-5.477504e-06	-1.419298e-08	-3.830878e+01	-9.304097e+02
1.000000e-08	-5.475512e-06	-1.418823e-08	-3.829484e+01	-9.302014e+02
2.000000e-08	-5.471629e-06	-1.418360e-08	-3.826769e+01	-9.298901e+02
3.000000e-08	-5.465977e-06	-1.417748e-08	-3.822815e+01	-9.294561e+02
4.000000e-08	-5.458653e-06	-1.416830e-08	-3.817693e+01	-9.288869e+02
5.000000e-08	-5.449696e-06	-1.415720e-08	-3.811429e+01	-9.281787e+02
6.000000e-08	-5.438841e-06	-1.414361e-08	-3.803837e+01	-9.273341e+02
7.000000e-08	-5.425945e-06	-1.412622e-08	-3.794818e+01	-9.263581e+02
8.000000e-08	-5.410964e-06	-1.411978e-08	-3.784340e+01	-9.252564e+02
9.000000e-08	-5.393659e-06	-1.411422e-08	-3.772237e+01	-9.240358e+02
1.000000e-07	-5.374078e-06	-1.409861e-08	-3.758543e+01	-9.227064e+02
1.100000e-07	-5.352492e-06	-1.407290e-08	-3.743446e+01	-9.212837e+02
1.200000e-07	-5.329156e-06	-1.402155e-08	-3.727126e+01	-9.197881e+02
1.300000e-07	-5.304359e-06	-1.398428e-08	-3.709782e+01	-9.182396e+02
1.400000e-07	-5.278051e-06	-1.398173e-08	-3.691383e+01	-9.166500e+02
1.500000e-07	-5.249875e-06	-1.393397e-08	-3.671678e+01	-9.150154e+02
1.600000e-07	-5.219952e-06	-1.391342e-08	-3.650750e+01	-9.133117e+02
1.700000e-07	-5.188469e-06	-1.390045e-08	-3.628731e+01	-9.114972e+02
1.800000e-07	-5.155107e-06	-1.383850e-08	-3.605398e+01	-9.095225e+02
1.900000e-07	-5.119773e-06	-1.382134e-08	-3.580686e+01	-9.073438e+02
2.000000e-07	-5.082754e-06	-1.377662e-08	-3.554795e+01	-9.049357e+02
2.100000e-07	-5.044057e-06	-1.369452e-08	-3.527732e+01	-9.022990e+02
2.200000e-07	-5.003616e-06	-1.366614e-08	-3.499448e+01	-8.994593e+02
2.300000e-07	-4.961272e-06	-1.364549e-08	-3.469833e+01	-8.964574e+02
2.400000e-07	-4.916935e-06	-1.360890e-08	-3.438824e+01	-8.933361e+02
2.500000e-07	-4.870823e-06	-1.357923e-08	-3.406575e+01	-8.901259e+02
2.600000e-07	-4.822935e-06	-1.351627e-08	-3.373083e+01	-8.868385e+02
2.700000e-07	-4.773035e-06	-1.345023e-08	-3.338183e+01	-8.834665e+02
2.800000e-07	-4.721067e-06	-1.339641e-08	-3.301837e+01	-8.799910e+02
2.900000e-07	-4.667189e-06	-1.333821e-08	-3.264156e+01	-8.763924e+02
3.000000e-07	-4.611619e-06	-1.326803e-08	-3.225292e+01	-8.726589e+02
3.100000e-07	-4.554419e-06	-1.322312e-08	-3.185287e+01	-8.687897e+02
3.200000e-07	-4.495452e-06	-1.319552e-08	-3.144046e+01	-8.647913e+02
3.300000e-07	-4.434867e-06	-1.313216e-08	-3.101674e+01	-8.606700e+02
3.400000e-07	-4.372783e-06	-1.305766e-08	-3.058254e+01	-8.564240e+02
3.500000e-07	-4.309234e-06	-1.297248e-08	-3.013809e+01	-8.520406e+02
3.600000e-07	-4.244249e-06	-1.288653e-08	-2.968359e+01	-8.474995e+02
3.700000e-07	-4.177576e-06	-1.282207e-08	-2.921729e+01	-8.427817e+02
3.800000e-07	-4.109182e-06	-1.275662e-08	-2.873896e+01	-8.378789e+02
3.900000e-07	-4.039327e-06	-1.268309e-08	-2.825040e+01	-8.327991e+02
4.000000e-07	-3.968210e-06	-1.261308e-08	-2.775302e+01	-8.275654e+02
4.100000e-07	-3.895882e-06	-1.253977e-08	-2.724717e+01	-8.222059e+02
4.200000e-07	-3.822148e-06	-1.244977e-08	-2.673149e+01	-8.167404e+02
4.300000e-07	-3.746689e-06	-1.234879e-08	-2.620373e+01	-8.111692e+02
4.400000e-07	-3.669575e-06	-1.225684e-08	-2.566441e+01	-8.054688e+02
4.500000e-07	-3.591072e-06	-1.217626e-08	-2.511538e+01	-7.995991e+02
4.600000e-07	-3.511118e-06	-1.209392e-08	-2.455619e+01	-7.935173e+02
4.700000e-07	-3.429704e-06	-1.199642e-08	-2.398679e+01	-7.871957e+02
4.800000e-07	-3.347024e-06	-1.188866e-08	-2.340854e+01	-7.806335e+02
4.900000e-07	-3.263231e-06	-1.178700e-08	-2.282251e+01	-7.738574e+02
5.000000e-07	-3.178460e-06	-1.168463e-08	-2.222964e+01	-7.669106e+02
5.100000e-07	-3.092796e-06	-1.157479e-08	-2.163051e+01	-7.598330e+02
5.200000e-07	-3.006245e-06	-1.146345e-08	-2.102519e+01	-7.526414e+02
5.300000e-07	-2.918701e-06	-1.135508e-08	-2.041292e+01	-7.453187e+02
5.400000e-07	-2.830190e-06	-1.124395e-08	-1.979389e+01	-7.378171e+02
5.500000e-07	-2.740740e-06	-1.112273e-08	-1.916829e+01	-7.300748e+02
5.600000e-07	-2.650141e-06	-1.099334e-08	-1.853466e+01	-7.220401e+02
5.700000e-07	-2.558401e-06	-1.086368e-08	-1.789304e+01	-7.136922e+02
5.800000e-07	-2.465704e-06	-1.074082e-08	-1.724474e+01	-7.050489e+02
5.900000e-07	-2.372210e-06	-1.061330e-08	-1.659086e+01	-6.961577e+02
6.000000e-07	-2.277992e-06	-1.047635e-08	-1.593191e+01	-6.870719e+02
6.100000e-07	-2.182989e-06	-1.033212e-08	-1.526747e+01	-6.778227e+02
6.200000e-07	-2.087213e-06	-1.018339e-08	-1.459763e+01	-6.683983e+02
6.300000e-07	-1.990710e-06	-1.003405e-08	-1.392270e+01	-6.587409e+02
6.400000e-07	-1.893422e-06	-9.880497e-09	-1.324229e+01	-6.487633e+02
6.500000e-07	-1.795362e-06	-9.719622e-09	-1.255647e+01	-6.383804e+02
6.600000e-07	-1.696572e-06	-9.555156e-09	-1.186555e+01	-6.275410e+02
6.700000e-07	-1.597084e-06	-9.390058e-09	-1.116974e+01	-6.162476e+02
6.800000e-07	-1.496989e-06	-9.215202e-09	-1.046970e+01	-6.045531e+02
6.900000e-07	-1.396334e-06	-9.029126e-09	-9.765734e+00	-5.925338e+02
7.000000e-07	-1.295199e-06	-8.838152e-09	-9.058414e+00	-5.802505e+02
7.100000e-07	-1.193686e-06	-8.646939e-09	-8.348448e+00	-5.677117e+02
7.200000e-07	-1.091830e-06	-8.453496e-09	-7.636079e+00	-5.548577e+02
7.300000e-07	-9.896078e-07	-8.251715e-09	-6.921157e+00	-5.415722e+02
7.400000e-07	-8.870204e-07	-8.038993e-09	-6.203677e+00	-5.277199e+02
7.500000e-07	-7.840772e-07	-7.815331e-09	-5.483709e+00	-5.131952e+02
7.600000e-07	-6.808334e-07	-7.582634e-09	-4.761638e+00	-4.979596e+02
7.700000e-07	-5.773862e-07	-7.342031e-09	-4.038146e+00	-4.820524e+02
7.800000e-07	-4.737775e-07	-7.093768e-09	-3.313523e+00	-4.655639e+02
7.900000e-07	-3.700349e-07	-6.837196e-09	-2.587964e+00	-4.485823e+02
8.000000e-07	-2.662115e-07	-6.573764e-09	-1.861840e+00	-4.311330e+02
8.100000e-07	-1.623273e-07	-6.300378e-09	-1.135291e+00	-4.131380e+02
8.200000e-07	-5.837939e-08	-6.010979e-09	-4.082960e-01	-3.944154e+02
8.300000e-07	4.563348e-08	-5.703146e-09	3.191531e-01	-3.747232e+02
8.400000e-07	1.496221e-07	-5.379140e-09	1.046432e+00	-3.538332e+02
8.500000e-07	2.535228e-07	-5.043138e-09	1.773097e+00	-3.316020e+02
8.600000e-07	3.573467e-07	-4.692396e-09	2.499225e+00	-3.080052e+02
8.700000e-07	4.610455e-07	-4.319705e-09	3.224477e+00	-2.831084e+02
8.800000e-07	5.645935e-07	-3.919800e-09	3.948676e+00	-2.569736e+02
8.900000e-07	6.680116e-07	-3.495978e-09	4.671965e+00	-2.295268e+02
9.000000e-07	7.712688e-07	-3.045996e-09	5.394129e+00	-2.004349e+02
9.100000e-07	8.742420e-07	-2.556545e-09	6.114307e+00	-1.690474e+02
9.200000e-07	9.768226e-07	-2.016277e-09	6.831739e+00	-1.344456e+02
9.300000e-07	1.078987e-06	-1.418680e-09	7.546260e+00	-9.560848e+01
9.400000e-07	1.180821e-06	-7.547844e-10	8.258467e+00	-5.167004e+01
9.500000e-07	1.282360e-06	-1.012125e-11	8.968615e+00	-2.201371e+00
9.600000e-07	1.383537e-06	8.226105e-10	9.676234e+00	5.256072e+01
9.700000e-07	1.484265e-06	1.732720e-09	1.038071e+01	1.116134e+02
9.800000e-07	1.584465e-06	2.688625e-09	1.108149e+01	1.732574e+02
9.900000e-07	1.684004e-06	3.646933e-09	1.177765e+01	2.353317e+02
1.000000e-06	1.782823e-06	4.567773e-09	1.246877e+01	2.955618e+02
1.010000e-06	1.880978e-06	5.417716e-09	1.315526e+01	3.519349e+02
1.020000e-06	1.978422e-06	6.174639e-09	1.383676e+01	4.030100e+02
1.030000e-06	2.075048e-06	6.836743e-09	1.451255e+01	4.480891e+02
1.040000e-06	2.170889e-06	7.418712e-09	1.518285e+01	4.872160e+02
1.050000e-06	2.265983e-06	7.934382e-09	1.584792e+01	5.210201e+02
1.060000e-06	2.360316e-06	8.390046e-09	1.650767e+01	5.504610e+02
1.070000e-06	2.453943e-06	8.791556e-09	1.716248e+01	5.765536e+02
1.080000e-06	2.546878e-06	9.150308e-09	1.781245e+01	6.001483e+02
1.090000e-06	2.638948e-06	9.477840e-09	1.845637e+01	6.218133e+02
1.100000e-06	2.729906e-06	9.777407e-09	1.909252e+01	6.418321e+02
1.110000e-06	2.819684e-06	1.004856e-08	1.972041e+01	6.602886e+02
1.120000e-06	2.908381e-06	1.029760e-08	2.034075e+01	6.771913e+02
1.130000e-06	2.996079e-06	1.052925e-08	2.095409e+01	6.925857e+02
1.140000e-06	3.082789e-06	1.074557e-08	2.156053e+01	7.066136e+02
1.150000e-06	3.168528e-06	1.094759e-08	2.216017e+01	7.195103e+02
1.160000e-06	3.253288e-06	1.113315e-08	2.275297e+01	7.315505e+02
1.170000e-06	3.336997e-06	1.130563e-08	2.333842e+01	7.429748e+02
1.180000e-06	3.419495e-06	1.147217e-08	2.391539e+01	7.539312e+02
1.190000e-06	3.500703e-06	1.163204e-08	2.448335e+01	7.644542e+02
1.200000e-06	3.580625e-06	1.178068e-08	2.504231e+01	7.744880e+02
1.210000e-06	3.659222e-06	1.192074e-08	2.559201e+01	7.839403e+02
1.220000e-06	3.736525e-06	1.205589e-08	2.613265e+01	7.927423e+02
1.230000e-06	3.812423e-06	1.218451e-08	2.666347e+01	8.008915e+02
1.240000e-06	3.886762e-06	1.230301e-08	2.718338e+01	8.084614e+02
1.250000e-06	3.959603e-06	1.241207e-08	2.769282e+01	8.155777e+02
1.260000e-06	4.031019e-06	1.251572e-08	2.819230e+01	8.223750e+02
1.270000e-06	4.101077e-06	1.261582e-08	2.868227e+01	8.289528e+02
1.280000e-06	4.169844e-06	1.270967e-08	2.916321e+01	8.353497e+02
1.290000e-06	4.237118e-06	1.279775e-08	2.963372e+01	8.415449e+02
1.300000e-06	4.302693e-06	1.288383e-08	3.009233e+01	8.474830e+02
1.310000e-06	4.366704e-06	1.297107e-08	3.054002e+01	8.531108e+02
1.320000e-06	4.429299e-06	1.305724e-08	3.097780e+01	8.584088e+02
1.330000e-06	4.490522e-06	1.313755e-08	3.140598e+01	8.634045e+02
1.340000e-06	4.550256e-06	1.321090e-08	3.182375e+01	8.681628e+02
1.350000e-06	4.608235e-06	1.327990e-08	3.222925e+01	8.727600e+02
1.360000e-06	4.664434e-06	1.334611e-08	3.262229e+01	8.772528e+02
1.370000e-06	4.718956e-06	1.341032e-08	3.300362e+01	8.816561e+02
1.380000e-06	4.771693e-06	1.347281e-08	3.337245e+01	8.859397e+02
1.390000e-06	4.822409e-06	1.353318e-08	3.372715e+01	8.900434e+02
1.400000e-06	4.871146e-06	1.359288e-08	3.406800e+01	8.939041e+02
1.410000e-06	4.918183e-06	1.364922e-08	3.439697e+01	8.974825e+02
1.420000e-06	4.963612e-06	1.369966e-08	3.471470e+01	9.007792e+02
1.430000e-06	5.007287e-06	1.374597e-08	3.502015e+01	9.038326e+02
1.440000e-06	5.049061e-06	1.379024e-08	3.531232e+01	9.067024e+02
1.450000e-06	5.089046e-06	1.383236e-08	3.559196e+01	9.094440e+02
1.460000e-06	5.127353e-06	1.387130e-08	3.585988e+01	9.120872e+02
1.470000e-06	5.163932e-06	1.390948e-08	3.611570e+01	9.146264e+02
1.480000e-06	5.198634e-06	1.394814e-08	3.635840e+01	9.170270e+02
1.490000e-06	5.231454e-06	1.398410e-08	3.658794e+01	9.192427e+02
1.500000e-06	5.262504e-06	1.401451e-08	3.680510e+01	9.212381e+02
1.510000e-06	5.291873e-06	1.403914e-08	3.701050e+01	9.230051e+02
1.520000e-06	5.319410e-06	1.406236e-08	3.720309e+01	9.245669e+02
1.530000e-06	5.344819e-06	1.408667e-08	3.738080e+01	9.259696e+02
1.540000e-06	5.368223e-06	1.411003e-08	3.754448e+01	9.272632e+02
1.550000e-06	5.389950e-06	1.413064e-08	3.769644e+01	9.284834e+02
1.560000e-06	5.409966e-06	1.414944e-08	3.783643e+01	9.296381e+02
1.570000e-06	5.427971e-06	1.416896e-08	3.796235e+01	9.307076e+02
1.580000e-06	5.443906e-06	1.418585e-08	3.807379e+01	9.316540e+02
1.590000e-06	5.457837e-06	1.419719e-08	3.817122e+01	9.324384e+02
1.600000e-06	5.469655e-06	1.420592e-08	3.825388e+01	9.330368e+02
1.610000e-06	5.479271e-06	1.421426e-08	3.832113e+01	9.334488e+02
1.620000e-06	5.486942e-06	1.422105e-08	3.837478e+01	9.336965e+02
1.630000e-06	5.492888e-06	1.422522e-08	3.841637e+01	9.338156e+02
1.640000e-06	5.496988e-06	1.422847e-08	3.844504e+01	9.338410e+02
1.650000e-06	5.499043e-06	1.423149e-08	3.845942e+01	9.337953e+02
1.660000e-06	5.499127e-06	1.423125e-08	3.846000e+01	9.336834e+02
1.670000e-06	5.497455e-06	1.422818e-08	3.844831e+01	9.334938e+02
1.680000e-06	5.494078e-06	1.422459e-08	3.842469e+01	9.332059e+02
1.690000e-06	5.488848e-06	1.421991e-08	3.838811e+01	9.327991e+02
1.700000e-06	5.481749e-06	1.421246e-08	3.833846e+01	9.322589e+02
1.710000e-06	5.472962e-06	1.420303e-08	3.827701e+01	9.315800e+02
1.720000e-06	5.462420e-06	1.419279e-08	3.820328e+01	9.307637e+02
1.730000e-06	5.449855e-06	1.417820e-08	3.811540e+01	9.298149e+02
1.740000e-06	5.435313e-06	1.414131e-08	3.801370e+01	9.287392e+02
1.750000e-06	5.418778e-06	1.411329e-08	3.789805e+01	9.275429e+02
1.760000e-06	5.399652e-06	1.409286e-08	3.776429e+01	9.262352e+02
1.770000e-06	5.377825e-06	1.409078e-08	3.761163e+01	9.248304e+02
1.780000e-06	5.354075e-06	1.410366e-08	3.744553e+01	9.233481e+02
1.790000e-06	5.329309e-06	1.404890e-08	3.727232e+01	9.218090e+02
1.800000e-06	5.303614e-06	1.402020e-08	3.709262e+01	9.202274e+02
1.810000e-06	5.276001e-06	1.400195e-08	3.689950e+01	9.186033e+02
1.820000e-06	5.246151e-06	1.396000e-08	3.669073e+01	9.169169e+02
1.830000e-06	5.214697e-06	1.399579e-08	3.647074e+01	9.151297e+02
1.840000e-06	5.181523e-06	1.398193e-08	3.623873e+01	9.131929e+02
1.850000e-06	5.146508e-06	1.390635e-08	3.599384e+01	9.110603e+02
1.860000e-06	5.109712e-06	1.390845e-08	3.573650e+01	9.087018e+02
1.870000e-06	5.070908e-06	1.386684e-08	3.546510e+01	9.061122e+02
1.880000e-06	5.030397e-06	1.379120e-08	3.518178e+01	9.033124e+02
1.890000e-06	4.988266e-06	1.376485e-08	3.488712e+01	9.003410e+02
1.900000e-06	4.944249e-06	1.369763e-08	3.457927e+01	8.972416e+02
1.910000e-06	4.898444e-06	1.365787e-08	3.425892e+01	8.940483e+02
1.920000e-06	4.850796e-06	1.362851e-08	3.392568e+01	8.907770e+02
1.930000e-06	4.801359e-06	1.355279e-08	3.357992e+01	8.874240e+02
1.940000e-06	4.750146e-06	1.350627e-08	3.322175e+01	8.839719e+02
1.950000e-06	4.696853e-06	1.346037e-08	3.284903e+01	8.804005e+02
1.960000e-06	4.641723e-06	1.339592e-08	3.246346e+01	8.766959e+02
1.970000e-06	4.584955e-06	1.332354e-08	3.206643e+01	8.728548e+02
1.980000e-06	4.526617e-06	1.326105e-08	3.165843e+01	8.688830e+02
1.990000e-06	4.466707e-06	1.321223e-08	3.123942e+01	8.647873e+02
2.000000e-06	4.405057e-06	1.315236e-08	3.080825e+01	8.605682e+02
2.010000e-06	4.341834e-06	1.310185e-08	3.036609e+01	8.562153e+02
2.020000e-06	4.277072e-06	1.302356e-08	2.991315e+01	8.517094e+02
2.030000e-06	4.210872e-06	1.294067e-08	2.945015e+01	8.470302e+02
2.040000e-06	4.143169e-06	1.286891e-08	2.897665e+01	8.421664e+02
2.050000e-06	4.073704e-06	1.277759e-08	2.849083e+01	8.371225e+02
2.060000e-06	4.002744e-06	1.269835e-08	2.799454e+01	8.319189e+02
2.070000e-06	3.930462e-06	1.262316e-08	2.748901e+01	8.265837e+02
2.080000e-06	3.856824e-06	1.255422e-08	2.697400e+01	8.211396e+02
2.090000e-06	3.781643e-06	1.247423e-08	2.644820e+01	8.155917e+02
2.100000e-06	3.704781e-06	1.237754e-08	2.591064e+01	8.099215e+02
2.110000e-06	3.626440e-06	1.227564e-08	2.536273e+01	8.040913e+02
2.120000e-06	3.546813e-06	1.217974e-08	2.480583e+01	7.980576e+02
2.130000e-06	3.466026e-06	1.209541e-08	2.424082e+01	7.917880e+02
2.140000e-06	3.384105e-06	1.199634e-08	2.366788e+01	7.852754e+02
2.150000e-06	3.301071e-06	1.189652e-08	2.308716e+01	7.785413e+02
2.160000e-06	3.216772e-06	1.179016e-08	2.249758e+01	7.716268e+02
2.170000e-06	3.131160e-06	1.168175e-08	2.189882e+01	7.645742e+02
2.180000e-06	3.044381e-06	1.157108e-08	2.129191e+01	7.574068e+02
2.190000e-06	2.956571e-06	1.145541e-08	2.067778e+01	7.501149e+02
2.200000e-06	2.867825e-06	1.134456e-08	2.005711e+01	7.426562e+02
2.210000e-06	2.778151e-06	1.122802e-08	1.942994e+01	7.349700e+02
2.220000e-06	2.687643e-06	1.111204e-08	1.879694e+01	7.270005e+02
2.230000e-06	2.596212e-06	1.098094e-08	1.815748e+01	7.187190e+02
2.240000e-06	2.503747e-06	1.084154e-08	1.751080e+01	7.101353e+02
2.250000e-06	2.410308e-06	1.070348e-08	1.685730e+01	7.012920e+02
2.260000e-06	2.315927e-06	1.056627e-08	1.619721e+01	6.922436e+02
2.270000e-06	2.220716e-06	1.043604e-08	1.553133e+01	6.830282e+02
2.280000e-06	2.124791e-06	1.029590e-08	1.486045e+01	6.736443e+02
2.290000e-06	2.028183e-06	1.014981e-08	1.418478e+01	6.640431e+02
2.300000e-06	1.930898e-06	9.998204e-09	1.350439e+01	6.541414e+02
2.310000e-06	1.833042e-06	9.838187e-09	1.282000e+01	6.438507e+02
2.320000e-06	1.734684e-06	9.668649e-09	1.213210e+01	6.331103e+02
2.330000e-06	1.635784e-06	9.491232e-09	1.144041e+01	6.219108e+02
2.340000e-06	1.536303e-06	9.320966e-09	1.074465e+01	6.102955e+02
2.350000e-06	1.436184e-06	9.148688e-09	1.004444e+01	5.983391e+02
2.360000e-06	1.335468e-06	8.965031e-09	9.340043e+00	5.861089e+02
2.370000e-06	1.234206e-06	8.771302e-09	8.631837e+00	5.736270e+02
2.380000e-06	1.132419e-06	8.572369e-09	7.919954e+00	5.608484e+02
2.390000e-06	1.030151e-06	8.370107e-09	7.204707e+00	5.476663e+02
2.400000e-06	9.274435e-07	8.155139e-09	6.486390e+00	5.339456e+02
2.410000e-06	8.243937e-07	7.930054e-09	5.765676e+00	5.195704e+02
2.420000e-06	7.210643e-07	7.700292e-09	5.043006e+00	5.044858e+02
2.430000e-06	6.174728e-07	7.464848e-09	4.318505e+00	4.887154e+02
2.440000e-06	5.136941e-07	7.222420e-09	3.592693e+00	4.723425e+02
2.450000e-06	4.098088e-07	6.968132e-09	2.866136e+00	4.554610e+02
2.460000e-06	3.058225e-07	6.701251e-09	2.138873e+00	4.381142e+02
2.470000e-06	2.017214e-07	6.425713e-09	1.410807e+00	4.202478e+02
2.480000e-06	9.752975e-08	6.139263e-09	6.821073e-01	4.016999e+02
2.490000e-06	-6.699590e-09	5.837080e-09	-4.685584e-02	3.822359e+02
2.500000e-06	-1.109260e-07	5.517110e-09	-7.757986e-01	3.616179e+02
2.510000e-06	-2.150782e-07	5.181852e-09	-1.504222e+00	3.396797e+02
2.520000e-06	-3.190861e-07	4.833483e-09	-2.231637e+00	3.163716e+02
2.530000e-06	-4.229813e-07	4.467531e-09	-2.958263e+00	2.917456e+02
2.540000e-06	-5.268050e-07	4.079675e-09	-3.684389e+00	2.658751e+02
2.550000e-06	-6.304841e-07	3.667435e-09	-4.409503e+00	2.387267e+02
2.560000e-06	-7.339092e-07	3.226699e-09	-5.132842e+00	2.100307e+02
2.570000e-06	-8.370134e-07	2.750325e-09	-5.853936e+00	1.792046e+02
2.580000e-06	-9.397800e-07	2.228440e-09	-6.572669e+00	1.453769e+02
2.590000e-06	-1.042154e-06	1.651247e-09	-7.288654e+00	1.075294e+02
2.600000e-06	-1.144107e-06	1.008606e-09	-8.001696e+00	6.473874e+01
2.610000e-06	-1.245580e-06	2.902007e-10	-8.711386e+00	1.645995e+01
2.620000e-06	-1.346475e-06	-5.112707e-10	-9.417027e+00	-3.722651e+01
2.630000e-06	-1.446849e-06	-1.392889e-09	-1.011903e+01	-9.548215e+01
2.640000e-06	-1.546712e-06	-2.333202e-09	-1.081746e+01	-1.567423e+02
2.650000e-06	-1.645969e-06	-3.296030e-09	-1.151164e+01	-2.189184e+02
2.660000e-06	-1.744578e-06	-4.237054e-09	-1.220130e+01	-2.797280e+02
2.670000e-06	-1.842576e-06	-5.119198e-09	-1.288668e+01	-3.370726e+02
2.680000e-06	-1.939968e-06	-5.919058e-09	-1.356782e+01	-3.893687e+02
2.690000e-06	-2.036716e-06	-6.625610e-09	-1.424446e+01	-4.357532e+02
2.700000e-06	-2.132825e-06	-7.242692e-09	-1.491663e+01	-4.761196e+02
2.710000e-06	-2.228316e-06	-7.781933e-09	-1.558448e+01	-5.109910e+02
2.720000e-06	-2.323169e-06	-8.255130e-09	-1.624787e+01	-5.412798e+02
2.730000e-06	-2.417223e-06	-8.673188e-09	-1.690566e+01	-5.680107e+02
2.740000e-06	-2.510230e-06	-9.046506e-09	-1.755614e+01	-5.920830e+02
2.750000e-06	-2.602193e-06	-9.383861e-09	-1.819932e+01	-6.141292e+02
2.760000e-06	-2.693169e-06	-9.693986e-09	-1.883559e+01	-6.344893e+02
2.770000e-06	-2.783176e-06	-9.981106e-09	-1.946508e+01	-6.532796e+02
2.780000e-06	-2.872179e-06	-1.024366e-08	-2.008756e+01	-6.705146e+02
2.790000e-06	-2.960173e-06	-1.048250e-08	-2.070297e+01	-6.862244e+02
2.800000e-06	-3.047238e-06	-1.070261e-08	-2.131189e+01	-7.005284e+02
2.810000e-06	-3.133231e-06	-1.090828e-08	-2.191331e+01	-7.136452e+02
2.820000e-06	-3.217966e-06	-1.109992e-08	-2.250593e+01	-7.258469e+02
2.830000e-06	-3.301480e-06	-1.127839e-08	-2.309002e+01	-7.373875e+02
2.840000e-06	-3.383849e-06	-1.144701e-08	-2.366609e+01	-7.484379e+02
2.850000e-06	-3.465094e-06	-1.160842e-08	-2.423430e+01	-7.590565e+02
2.860000e-06	-3.545216e-06	-1.176193e-08	-2.479467e+01	-7.692032e+02
2.870000e-06	-3.624153e-06	-1.190489e-08	-2.534674e+01	-7.787880e+02
2.880000e-06	-3.701648e-06	-1.203657e-08	-2.588873e+01	-7.877327e+02
2.890000e-06	-3.777573e-06	-1.216128e-08	-2.641973e+01	-7.960186e+02
2.900000e-06	-3.852054e-06	-1.228073e-08	-2.694064e+01	-8.037037e+02
2.910000e-06	-3.925195e-06	-1.239352e-08	-2.745218e+01	-8.109059e+02
2.920000e-06	-3.997032e-06	-1.249961e-08	-2.795459e+01	-8.177619e+02
2.930000e-06	-4.067398e-06	-1.260100e-08	-2.844672e+01	-8.243818e+02
2.940000e-06	-4.136181e-06	-1.270014e-08	-2.892778e+01	-8.308180e+02
