# Temperatura_=_41.08
# Concentracion g/m^3_=_13400.0
# C_Vs_to_Am_M_A/Vsm_=_65563218390.804596
# pendiente_HvsI_1/m_=_3716.3
# ordenada_HvsI_A/m_=_1297.0
# frecuencia_Hz_=_300799.825235332

Tiempo_(s)	Campo_(V.s)	Magnetizacion_(V.s)	Campo_(kA/m)	Magnetizacion_(A/m)
0.000000e+00	-5.520244e-06	-1.398040e-08	-3.831059e+01	-9.171434e+02
1.000000e-08	-5.518959e-06	-1.397796e-08	-3.830167e+01	-9.169023e+02
2.000000e-08	-5.515693e-06	-1.397109e-08	-3.827901e+01	-9.165539e+02
3.000000e-08	-5.510543e-06	-1.396159e-08	-3.824326e+01	-9.161182e+02
4.000000e-08	-5.503773e-06	-1.395603e-08	-3.819628e+01	-9.156151e+02
5.000000e-08	-5.495372e-06	-1.395091e-08	-3.813798e+01	-9.150515e+02
6.000000e-08	-5.485062e-06	-1.394023e-08	-3.806642e+01	-9.144122e+02
7.000000e-08	-5.472629e-06	-1.391904e-08	-3.798014e+01	-9.136606e+02
8.000000e-08	-5.458177e-06	-1.388824e-08	-3.787985e+01	-9.127508e+02
9.000000e-08	-5.441416e-06	-1.390830e-08	-3.776352e+01	-9.116474e+02
1.000000e-07	-5.422302e-06	-1.395131e-08	-3.763087e+01	-9.103452e+02
1.100000e-07	-5.401185e-06	-1.389934e-08	-3.748432e+01	-9.088792e+02
1.200000e-07	-5.378231e-06	-1.384217e-08	-3.732502e+01	-9.073189e+02
1.300000e-07	-5.353755e-06	-1.380584e-08	-3.715516e+01	-9.057478e+02
1.400000e-07	-5.327850e-06	-1.369715e-08	-3.697537e+01	-9.042332e+02
1.500000e-07	-5.300132e-06	-1.377179e-08	-3.678301e+01	-9.027986e+02
1.600000e-07	-5.270603e-06	-1.378013e-08	-3.657807e+01	-9.014099e+02
1.700000e-07	-5.239503e-06	-1.360773e-08	-3.636224e+01	-8.999815e+02
1.800000e-07	-5.206535e-06	-1.371805e-08	-3.613344e+01	-8.984010e+02
1.900000e-07	-5.171429e-06	-1.370970e-08	-3.588981e+01	-8.965651e+02
2.000000e-07	-5.134752e-06	-1.357029e-08	-3.563527e+01	-8.944122e+02
2.100000e-07	-5.096515e-06	-1.360325e-08	-3.536991e+01	-8.919399e+02
2.200000e-07	-5.056388e-06	-1.348377e-08	-3.509142e+01	-8.892017e+02
2.300000e-07	-5.014364e-06	-1.341862e-08	-3.479977e+01	-8.862833e+02
2.400000e-07	-4.970315e-06	-1.346548e-08	-3.449407e+01	-8.832697e+02
2.500000e-07	-4.924471e-06	-1.339804e-08	-3.417592e+01	-8.802153e+02
2.600000e-07	-4.876819e-06	-1.338784e-08	-3.384521e+01	-8.771287e+02
2.700000e-07	-4.827054e-06	-1.332866e-08	-3.349984e+01	-8.739775e+02
2.800000e-07	-4.775176e-06	-1.325518e-08	-3.313980e+01	-8.707102e+02
2.900000e-07	-4.721415e-06	-1.320703e-08	-3.276670e+01	-8.672830e+02
3.000000e-07	-4.666008e-06	-1.311394e-08	-3.238218e+01	-8.636817e+02
3.100000e-07	-4.609019e-06	-1.306860e-08	-3.198667e+01	-8.599267e+02
3.200000e-07	-4.550185e-06	-1.302853e-08	-3.157836e+01	-8.560613e+02
3.300000e-07	-4.489618e-06	-1.301385e-08	-3.115803e+01	-8.521273e+02
3.400000e-07	-4.427590e-06	-1.294904e-08	-3.072755e+01	-8.481411e+02
3.500000e-07	-4.364073e-06	-1.285119e-08	-3.028674e+01	-8.440807e+02
3.600000e-07	-4.299092e-06	-1.279803e-08	-2.983577e+01	-8.398912e+02
3.700000e-07	-4.232383e-06	-1.270401e-08	-2.937281e+01	-8.355063e+02
3.800000e-07	-4.163963e-06	-1.264248e-08	-2.889798e+01	-8.308772e+02
3.900000e-07	-4.094119e-06	-1.258096e-08	-2.841326e+01	-8.259956e+02
4.000000e-07	-4.022906e-06	-1.249423e-08	-2.791904e+01	-8.209001e+02
4.100000e-07	-3.950419e-06	-1.243756e-08	-2.741597e+01	-8.156611e+02
4.200000e-07	-3.876468e-06	-1.235644e-08	-2.690276e+01	-8.103509e+02
4.300000e-07	-3.800798e-06	-1.227495e-08	-2.637760e+01	-8.050112e+02
4.400000e-07	-3.723548e-06	-1.217477e-08	-2.584149e+01	-7.996306e+02
4.500000e-07	-3.644918e-06	-1.209416e-08	-2.529579e+01	-7.941459e+02
4.600000e-07	-3.564711e-06	-1.201614e-08	-2.473916e+01	-7.884638e+02
4.700000e-07	-3.482992e-06	-1.192055e-08	-2.417203e+01	-7.824980e+02
4.800000e-07	-3.400119e-06	-1.183220e-08	-2.359689e+01	-7.762045e+02
4.900000e-07	-3.316184e-06	-1.172335e-08	-2.301437e+01	-7.695998e+02
5.000000e-07	-3.231317e-06	-1.162597e-08	-2.242540e+01	-7.627546e+02
5.100000e-07	-3.145440e-06	-1.151947e-08	-2.182941e+01	-7.557633e+02
5.200000e-07	-3.058536e-06	-1.140896e-08	-2.122629e+01	-7.487029e+02
5.300000e-07	-2.970724e-06	-1.130205e-08	-2.061688e+01	-7.415977e+02
5.400000e-07	-2.881980e-06	-1.119483e-08	-2.000099e+01	-7.344058e+02
5.500000e-07	-2.792109e-06	-1.108901e-08	-1.937728e+01	-7.270329e+02
5.600000e-07	-2.700902e-06	-1.097182e-08	-1.874431e+01	-7.193704e+02
5.700000e-07	-2.608630e-06	-1.084590e-08	-1.810394e+01	-7.113389e+02
5.800000e-07	-2.515545e-06	-1.071217e-08	-1.745793e+01	-7.029213e+02
5.900000e-07	-2.421643e-06	-1.058079e-08	-1.680624e+01	-6.941686e+02
6.000000e-07	-2.326983e-06	-1.044798e-08	-1.614930e+01	-6.851765e+02
6.100000e-07	-2.231527e-06	-1.031066e-08	-1.548684e+01	-6.760407e+02
6.200000e-07	-2.135291e-06	-1.017182e-08	-1.481896e+01	-6.668100e+02
6.300000e-07	-2.038373e-06	-1.003116e-08	-1.414635e+01	-6.574584e+02
6.400000e-07	-1.940663e-06	-9.885705e-09	-1.346824e+01	-6.478878e+02
6.500000e-07	-1.841982e-06	-9.730327e-09	-1.278339e+01	-6.379628e+02
6.600000e-07	-1.742424e-06	-9.562715e-09	-1.209245e+01	-6.275622e+02
6.700000e-07	-1.642255e-06	-9.390997e-09	-1.139728e+01	-6.166267e+02
6.800000e-07	-1.541624e-06	-9.219396e-09	-1.069889e+01	-6.051814e+02
6.900000e-07	-1.440514e-06	-9.041719e-09	-9.997190e+00	-5.933211e+02
7.000000e-07	-1.338883e-06	-8.859988e-09	-9.291870e+00	-5.811646e+02
7.100000e-07	-1.236801e-06	-8.675849e-09	-8.583421e+00	-5.687957e+02
7.200000e-07	-1.134302e-06	-8.486244e-09	-7.872074e+00	-5.562162e+02
7.300000e-07	-1.031429e-06	-8.288430e-09	-7.158132e+00	-5.433324e+02
7.400000e-07	-9.282021e-07	-8.079616e-09	-6.441739e+00	-5.299821e+02
7.500000e-07	-8.246562e-07	-7.859199e-09	-5.723129e+00	-5.159932e+02
7.600000e-07	-7.208476e-07	-7.631052e-09	-5.002695e+00	-5.012485e+02
7.700000e-07	-6.168366e-07	-7.396523e-09	-4.280856e+00	-4.857285e+02
7.800000e-07	-5.126283e-07	-7.155570e-09	-3.557649e+00	-4.695122e+02
7.900000e-07	-4.082217e-07	-6.907025e-09	-2.833066e+00	-4.527316e+02
8.000000e-07	-3.036849e-07	-6.650076e-09	-2.107579e+00	-4.354972e+02
8.100000e-07	-1.991161e-07	-6.382235e-09	-1.381869e+00	-4.178257e+02
8.200000e-07	-9.448738e-08	-6.096542e-09	-6.557441e-01	-3.996027e+02
8.300000e-07	1.026669e-08	-5.796139e-09	7.125102e-02	-3.805988e+02
8.400000e-07	1.149922e-07	-5.485241e-09	7.980478e-01	-3.605364e+02
8.500000e-07	2.196347e-07	-5.163258e-09	1.524269e+00	-3.391818e+02
8.600000e-07	3.241918e-07	-4.822397e-09	2.249897e+00	-3.164180e+02
8.700000e-07	4.286328e-07	-4.458795e-09	2.974719e+00	-2.922625e+02
8.800000e-07	5.329601e-07	-4.072679e-09	3.698753e+00	-2.668084e+02
8.900000e-07	6.371428e-07	-3.664858e-09	4.421782e+00	-2.400999e+02
9.000000e-07	7.411321e-07	-3.234273e-09	5.143470e+00	-2.119857e+02
9.100000e-07	8.448744e-07	-2.767146e-09	5.863443e+00	-1.820085e+02
9.200000e-07	9.483484e-07	-2.255887e-09	6.581555e+00	-1.493890e+02
9.300000e-07	1.051506e-06	-1.696021e-09	7.297471e+00	-1.131340e+02
9.400000e-07	1.154254e-06	-1.077359e-09	8.010545e+00	-7.226158e+01
9.500000e-07	1.256558e-06	-3.838404e-10	8.720533e+00	-2.608908e+01
9.600000e-07	1.358469e-06	3.966730e-10	9.427797e+00	2.549466e+01
9.700000e-07	1.459959e-06	1.260027e-09	1.013214e+01	8.185851e+01
9.800000e-07	1.560962e-06	2.183176e-09	1.083310e+01	1.416202e+02
9.900000e-07	1.661466e-06	3.129866e-09	1.153060e+01	2.028155e+02
1.000000e-06	1.761457e-06	4.059663e-09	1.222454e+01	2.632103e+02
1.010000e-06	1.860838e-06	4.934140e-09	1.291425e+01	3.206764e+02
1.020000e-06	1.959471e-06	5.725975e-09	1.359876e+01	3.735374e+02
1.030000e-06	2.057208e-06	6.424660e-09	1.427706e+01	4.207965e+02
1.040000e-06	2.154012e-06	7.038143e-09	1.494888e+01	4.621994e+02
1.050000e-06	2.250019e-06	7.579863e-09	1.561517e+01	4.981317e+02
1.060000e-06	2.345293e-06	8.059444e-09	1.627637e+01	5.293968e+02
1.070000e-06	2.439823e-06	8.485300e-09	1.693241e+01	5.569484e+02
1.080000e-06	2.533584e-06	8.865521e-09	1.758312e+01	5.816563e+02
1.090000e-06	2.626514e-06	9.209123e-09	1.822805e+01	6.041609e+02
1.100000e-06	2.718546e-06	9.520442e-09	1.886676e+01	6.248373e+02
1.110000e-06	2.809586e-06	9.800999e-09	1.949858e+01	6.438533e+02
1.120000e-06	2.899484e-06	1.005638e-08	2.012247e+01	6.612755e+02
1.130000e-06	2.988213e-06	1.029298e-08	2.073825e+01	6.771753e+02
1.140000e-06	3.075917e-06	1.051456e-08	2.134692e+01	6.916933e+02
1.150000e-06	3.162615e-06	1.072192e-08	2.194860e+01	7.050462e+02
1.160000e-06	3.248286e-06	1.091529e-08	2.254316e+01	7.174849e+02
1.170000e-06	3.332937e-06	1.109650e-08	2.313064e+01	7.292321e+02
1.180000e-06	3.416531e-06	1.126749e-08	2.371079e+01	7.404297e+02
1.190000e-06	3.498960e-06	1.142887e-08	2.428284e+01	7.511198e+02
1.200000e-06	3.580015e-06	1.158048e-08	2.484537e+01	7.612655e+02
1.210000e-06	3.659703e-06	1.172312e-08	2.539840e+01	7.707985e+02
1.220000e-06	3.738103e-06	1.185760e-08	2.594250e+01	7.796730e+02
1.230000e-06	3.815170e-06	1.198252e-08	2.647734e+01	7.879027e+02
1.240000e-06	3.890773e-06	1.210010e-08	2.700204e+01	7.955664e+02
1.250000e-06	3.964762e-06	1.221473e-08	2.751551e+01	8.027853e+02
1.260000e-06	4.037205e-06	1.232523e-08	2.801827e+01	8.096815e+02
1.270000e-06	4.108250e-06	1.242859e-08	2.851133e+01	8.163406e+02
1.280000e-06	4.177920e-06	1.252469e-08	2.899484e+01	8.227903e+02
1.290000e-06	4.246179e-06	1.261655e-08	2.946856e+01	8.290067e+02
1.300000e-06	4.312884e-06	1.270599e-08	2.993149e+01	8.349401e+02
1.310000e-06	4.377868e-06	1.279237e-08	3.038248e+01	8.405494e+02
1.320000e-06	4.441291e-06	1.287322e-08	3.082264e+01	8.458283e+02
1.330000e-06	4.503318e-06	1.294786e-08	3.125311e+01	8.508133e+02
1.340000e-06	4.563925e-06	1.302006e-08	3.167372e+01	8.555703e+02
1.350000e-06	4.623006e-06	1.309388e-08	3.208374e+01	8.601676e+02
1.360000e-06	4.680308e-06	1.316738e-08	3.248142e+01	8.646484e+02
1.370000e-06	4.735849e-06	1.323417e-08	3.286688e+01	8.690142e+02
1.380000e-06	4.789663e-06	1.329402e-08	3.324034e+01	8.732273e+02
1.390000e-06	4.841571e-06	1.335190e-08	3.360059e+01	8.772299e+02
1.400000e-06	4.891488e-06	1.340751e-08	3.394701e+01	8.809706e+02
1.410000e-06	4.939509e-06	1.345942e-08	3.428028e+01	8.844282e+02
1.420000e-06	4.985799e-06	1.350882e-08	3.460153e+01	8.876201e+02
1.430000e-06	5.030445e-06	1.355781e-08	3.491138e+01	8.905950e+02
1.440000e-06	5.073326e-06	1.360780e-08	3.520897e+01	8.934122e+02
1.450000e-06	5.114291e-06	1.365438e-08	3.549327e+01	8.961172e+02
1.460000e-06	5.153467e-06	1.369279e-08	3.576515e+01	8.987251e+02
1.470000e-06	5.190952e-06	1.372520e-08	3.602530e+01	9.012171e+02
1.480000e-06	5.226703e-06	1.375706e-08	3.627341e+01	9.035527e+02
1.490000e-06	5.260481e-06	1.378935e-08	3.650783e+01	9.056893e+02
1.500000e-06	5.292343e-06	1.381920e-08	3.672895e+01	9.076026e+02
1.510000e-06	5.322522e-06	1.384630e-08	3.693840e+01	9.092974e+02
1.520000e-06	5.350926e-06	1.387362e-08	3.713552e+01	9.108053e+02
1.530000e-06	5.377330e-06	1.390074e-08	3.731877e+01	9.121718e+02
1.540000e-06	5.401677e-06	1.392410e-08	3.748773e+01	9.134381e+02
1.550000e-06	5.424139e-06	1.394211e-08	3.764362e+01	9.146267e+02
1.560000e-06	5.444863e-06	1.395623e-08	3.778744e+01	9.157355e+02
1.570000e-06	5.463766e-06	1.397025e-08	3.791863e+01	9.167438e+02
1.580000e-06	5.480624e-06	1.398499e-08	3.803562e+01	9.176248e+02
1.590000e-06	5.495422e-06	1.399707e-08	3.813832e+01	9.183592e+02
1.600000e-06	5.508165e-06	1.400774e-08	3.822676e+01	9.189433e+02
1.610000e-06	5.518690e-06	1.401946e-08	3.829980e+01	9.193885e+02
1.620000e-06	5.527085e-06	1.403155e-08	3.835806e+01	9.197139e+02
1.630000e-06	5.533618e-06	1.403924e-08	3.840341e+01	9.199351e+02
1.640000e-06	5.538351e-06	1.403999e-08	3.843626e+01	9.200579e+02
1.650000e-06	5.541090e-06	1.403744e-08	3.845526e+01	9.200768e+02
1.660000e-06	5.541773e-06	1.403688e-08	3.846000e+01	9.199823e+02
1.670000e-06	5.540658e-06	1.403316e-08	3.845226e+01	9.197697e+02
1.680000e-06	5.537922e-06	1.402397e-08	3.843328e+01	9.194460e+02
1.690000e-06	5.533382e-06	1.402110e-08	3.840177e+01	9.190296e+02
1.700000e-06	5.526846e-06	1.402054e-08	3.835641e+01	9.185415e+02
1.710000e-06	5.518548e-06	1.401881e-08	3.829882e+01	9.179931e+02
1.720000e-06	5.508590e-06	1.401365e-08	3.822971e+01	9.173749e+02
1.730000e-06	5.496743e-06	1.400833e-08	3.814749e+01	9.166552e+02
1.740000e-06	5.482823e-06	1.400332e-08	3.805089e+01	9.157886e+02
1.750000e-06	5.466879e-06	1.390578e-08	3.794023e+01	9.147351e+02
1.760000e-06	5.448553e-06	1.386184e-08	3.781306e+01	9.134804e+02
1.770000e-06	5.427380e-06	1.388853e-08	3.766611e+01	9.120495e+02
1.780000e-06	5.403915e-06	1.387559e-08	3.750326e+01	9.105045e+02
1.790000e-06	5.379181e-06	1.396531e-08	3.733161e+01	9.089282e+02
1.800000e-06	5.353675e-06	1.386302e-08	3.715460e+01	9.073947e+02
1.810000e-06	5.326658e-06	1.373372e-08	3.696710e+01	9.059406e+02
1.820000e-06	5.297259e-06	1.390724e-08	3.676307e+01	9.045463e+02
1.830000e-06	5.266091e-06	1.379278e-08	3.654676e+01	9.031374e+02
1.840000e-06	5.233322e-06	1.370892e-08	3.631935e+01	9.016051e+02
1.850000e-06	5.198662e-06	1.383178e-08	3.607881e+01	8.998405e+02
1.860000e-06	5.162315e-06	1.365143e-08	3.582655e+01	8.977690e+02
1.870000e-06	5.123877e-06	1.368955e-08	3.555979e+01	8.953730e+02
1.880000e-06	5.083495e-06	1.375311e-08	3.527954e+01	8.926935e+02
1.890000e-06	5.041660e-06	1.356454e-08	3.498921e+01	8.898111e+02
1.900000e-06	4.997990e-06	1.360637e-08	3.468614e+01	8.868142e+02
1.910000e-06	4.952463e-06	1.347320e-08	3.437018e+01	8.837668e+02
1.920000e-06	4.905082e-06	1.338972e-08	3.404135e+01	8.806895e+02
1.930000e-06	4.855810e-06	1.346736e-08	3.369941e+01	8.775586e+02
1.940000e-06	4.804870e-06	1.330858e-08	3.334588e+01	8.743247e+02
1.950000e-06	4.751833e-06	1.335355e-08	3.297780e+01	8.709397e+02
1.960000e-06	4.696852e-06	1.329068e-08	3.259624e+01	8.673808e+02
1.970000e-06	4.640261e-06	1.317839e-08	3.220349e+01	8.636603e+02
1.980000e-06	4.582005e-06	1.314626e-08	3.179920e+01	8.598176e+02
1.990000e-06	4.522237e-06	1.300205e-08	3.138441e+01	8.558974e+02
2.000000e-06	4.460689e-06	1.303612e-08	3.095726e+01	8.519243e+02
2.010000e-06	4.397494e-06	1.294057e-08	3.051868e+01	8.478861e+02
2.020000e-06	4.332783e-06	1.289473e-08	3.006959e+01	8.437347e+02
2.030000e-06	4.266475e-06	1.286748e-08	2.960941e+01	8.394039e+02
2.040000e-06	4.198811e-06	1.271535e-08	2.913982e+01	8.348380e+02
2.050000e-06	4.129385e-06	1.270900e-08	2.865800e+01	8.300172e+02
2.060000e-06	4.058305e-06	1.257214e-08	2.816471e+01	8.249690e+02
2.070000e-06	3.985936e-06	1.250900e-08	2.766247e+01	8.197580e+02
2.080000e-06	3.912170e-06	1.244116e-08	2.715053e+01	8.144596e+02
2.090000e-06	3.836931e-06	1.234249e-08	2.662837e+01	8.091256e+02
2.100000e-06	3.759953e-06	1.231014e-08	2.609414e+01	8.037589e+02
2.110000e-06	3.681422e-06	1.217135e-08	2.554914e+01	7.983079e+02
2.120000e-06	3.601671e-06	1.211109e-08	2.499566e+01	7.926837e+02
2.130000e-06	3.520750e-06	1.200023e-08	2.443407e+01	7.867947e+02
2.140000e-06	3.438670e-06	1.191229e-08	2.386443e+01	7.805835e+02
2.150000e-06	3.355483e-06	1.182582e-08	2.328711e+01	7.740513e+02
2.160000e-06	3.271023e-06	1.169972e-08	2.270096e+01	7.672571e+02
2.170000e-06	3.185105e-06	1.161901e-08	2.210468e+01	7.602933e+02
2.180000e-06	3.098025e-06	1.149388e-08	2.150035e+01	7.532449e+02
2.190000e-06	3.009956e-06	1.139801e-08	2.088914e+01	7.461519e+02
2.200000e-06	2.920894e-06	1.127571e-08	2.027105e+01	7.389884e+02
2.210000e-06	2.830882e-06	1.115656e-08	1.964637e+01	7.316708e+02
2.220000e-06	2.740004e-06	1.104766e-08	1.901568e+01	7.240895e+02
2.230000e-06	2.648263e-06	1.092923e-08	1.837899e+01	7.161542e+02
2.240000e-06	2.555444e-06	1.080738e-08	1.773482e+01	7.078303e+02
2.250000e-06	2.461504e-06	1.066118e-08	1.708288e+01	6.991530e+02
2.260000e-06	2.366602e-06	1.052704e-08	1.642426e+01	6.902105e+02
2.270000e-06	2.270922e-06	1.038952e-08	1.576024e+01	6.811031e+02
2.280000e-06	2.174503e-06	1.025285e-08	1.509109e+01	6.718949e+02
2.290000e-06	2.077329e-06	1.010534e-08	1.441670e+01	6.625798e+02
2.300000e-06	1.979476e-06	9.960963e-09	1.373760e+01	6.530756e+02
2.310000e-06	1.881051e-06	9.817424e-09	1.305453e+01	6.432516e+02
2.320000e-06	1.782105e-06	9.663871e-09	1.236784e+01	6.329780e+02
2.330000e-06	1.682637e-06	9.494957e-09	1.167753e+01	6.221768e+02
2.340000e-06	1.582639e-06	9.315626e-09	1.098354e+01	6.108518e+02
2.350000e-06	1.481923e-06	9.142368e-09	1.028457e+01	5.990835e+02
2.360000e-06	1.380434e-06	8.960661e-09	9.580238e+00	5.869904e+02
2.370000e-06	1.278327e-06	8.774445e-09	8.871609e+00	5.746702e+02
2.380000e-06	1.175716e-06	8.579365e-09	8.159491e+00	5.621482e+02
2.390000e-06	1.072714e-06	8.384660e-09	7.444650e+00	5.493533e+02
2.400000e-06	9.693484e-07	8.186954e-09	6.727295e+00	5.361361e+02
2.410000e-06	8.656178e-07	7.974007e-09	6.007403e+00	5.223205e+02
2.420000e-06	7.615865e-07	7.746916e-09	5.285424e+00	5.077703e+02
2.430000e-06	6.573311e-07	7.507444e-09	4.561889e+00	4.924396e+02
2.440000e-06	5.528937e-07	7.264673e-09	3.837092e+00	4.763855e+02
2.450000e-06	4.482621e-07	7.017976e-09	3.110947e+00	4.597330e+02
2.460000e-06	3.435022e-07	6.761450e-09	2.383911e+00	4.426053e+02
2.470000e-06	2.386518e-07	6.493544e-09	1.656247e+00	4.250481e+02
2.480000e-06	1.336925e-07	6.215569e-09	9.278285e-01	4.069804e+02
2.490000e-06	2.867174e-08	5.925207e-09	1.989824e-01	3.881968e+02
2.500000e-06	-7.633748e-08	5.617519e-09	-5.297834e-01	3.684238e+02
2.510000e-06	-1.812658e-07	5.290620e-09	-1.257988e+00	3.474081e+02
2.520000e-06	-2.861009e-07	4.948777e-09	-1.985545e+00	3.249993e+02
2.530000e-06	-3.908399e-07	4.595857e-09	-2.712436e+00	3.011839e+02
2.540000e-06	-4.954558e-07	4.225175e-09	-3.438472e+00	2.760453e+02
2.550000e-06	-5.999044e-07	3.829528e-09	-4.163347e+00	2.496541e+02
2.560000e-06	-7.041174e-07	3.405415e-09	-4.886587e+00	2.219206e+02
2.570000e-06	-8.080849e-07	2.949135e-09	-5.608123e+00	1.924701e+02
2.580000e-06	-9.117870e-07	2.457089e-09	-6.327818e+00	1.605985e+02
2.590000e-06	-1.015110e-06	1.916965e-09	-7.044881e+00	1.253491e+02
2.600000e-06	-1.118021e-06	1.314590e-09	-7.759087e+00	8.571138e+01
2.610000e-06	-1.220502e-06	6.419677e-10	-8.470304e+00	4.090015e+01
2.620000e-06	-1.322517e-06	-1.063338e-10	-9.178294e+00	-9.359880e+00
2.630000e-06	-1.423975e-06	-9.361313e-10	-9.882412e+00	-6.463097e+01
2.640000e-06	-1.524844e-06	-1.839465e-09	-1.058245e+01	-1.237095e+02
2.650000e-06	-1.625056e-06	-2.785236e-09	-1.127792e+01	-1.847521e+02
2.660000e-06	-1.724554e-06	-3.727555e-09	-1.196844e+01	-2.455575e+02
2.670000e-06	-1.823450e-06	-4.626723e-09	-1.265478e+01	-3.039362e+02
2.680000e-06	-1.921766e-06	-5.456735e-09	-1.333709e+01	-3.580714e+02
2.690000e-06	-2.019440e-06	-6.199997e-09	-1.401495e+01	-4.067836e+02
2.700000e-06	-2.116421e-06	-6.853903e-09	-1.468800e+01	-4.496368e+02
2.710000e-06	-2.212724e-06	-7.425509e-09	-1.535634e+01	-4.868737e+02
2.720000e-06	-2.308392e-06	-7.925460e-09	-1.602028e+01	-5.192180e+02
2.730000e-06	-2.403391e-06	-8.367367e-09	-1.667957e+01	-5.476103e+02
2.740000e-06	-2.497587e-06	-8.762496e-09	-1.733330e+01	-5.729592e+02
2.750000e-06	-2.590794e-06	-9.115685e-09	-1.798016e+01	-5.959699e+02
2.760000e-06	-2.682866e-06	-9.435090e-09	-1.861914e+01	-6.170816e+02
2.770000e-06	-2.773882e-06	-9.731115e-09	-1.925079e+01	-6.365050e+02
2.780000e-06	-2.863909e-06	-1.000373e-08	-1.987558e+01	-6.543211e+02
2.790000e-06	-2.952936e-06	-1.025181e-08	-2.049342e+01	-6.705920e+02
2.800000e-06	-3.040987e-06	-1.047903e-08	-2.110450e+01	-6.854382e+02
2.810000e-06	-3.128004e-06	-1.069066e-08	-2.170840e+01	-6.990596e+02
2.820000e-06	-3.213898e-06	-1.088908e-08	-2.230451e+01	-7.117043e+02
2.830000e-06	-3.298520e-06	-1.107404e-08	-2.289178e+01	-7.236077e+02
2.840000e-06	-3.381848e-06	-1.124631e-08	-2.347008e+01	-7.349354e+02
2.850000e-06	-3.464064e-06	-1.140818e-08	-2.404066e+01	-7.457539e+02
2.860000e-06	-3.545173e-06	-1.156180e-08	-2.460356e+01	-7.560423e+02
2.870000e-06	-3.625110e-06	-1.170798e-08	-2.515833e+01	-7.657349e+02
2.880000e-06	-3.703779e-06	-1.184562e-08	-2.570429e+01	-7.747759e+02
2.890000e-06	-3.780950e-06	-1.197370e-08	-2.623986e+01	-7.831622e+02
2.900000e-06	-3.856477e-06	-1.209532e-08	-2.676402e+01	-7.909575e+02
2.910000e-06	-3.930521e-06	-1.221021e-08	-2.727788e+01	-7.982759e+02
2.920000e-06	-4.003239e-06	-1.231594e-08	-2.778255e+01	-8.052433e+02
2.930000e-06	-4.074583e-06	-1.241436e-08	-2.827768e+01	-8.119571e+02
2.940000e-06	-4.144493e-06	-1.251078e-08	-2.876286e+01	-8.184602e+02
