# Temperatura_=_56.56
# Concentracion g/m^3_=_13400.0
# C_Vs_to_Am_M_A/Vsm_=_65563218390.804596
# pendiente_HvsI_1/m_=_3716.3
# ordenada_HvsI_A/m_=_1297.0
# frecuencia_Hz_=_300798.9388756982

Tiempo_(s)	Campo_(V.s)	Magnetizacion_(V.s)	Campo_(kA/m)	Magnetizacion_(A/m)
0.000000e+00	-5.492209e-06	-1.434350e-08	-3.831232e+01	-9.417462e+02
1.000000e-08	-5.490458e-06	-1.434099e-08	-3.830011e+01	-9.414116e+02
2.000000e-08	-5.486687e-06	-1.433604e-08	-3.827380e+01	-9.409452e+02
3.000000e-08	-5.481175e-06	-1.432988e-08	-3.823535e+01	-9.403868e+02
4.000000e-08	-5.474074e-06	-1.432173e-08	-3.818582e+01	-9.397713e+02
5.000000e-08	-5.465334e-06	-1.431155e-08	-3.812485e+01	-9.391095e+02
6.000000e-08	-5.454672e-06	-1.429781e-08	-3.805048e+01	-9.383780e+02
7.000000e-08	-5.441923e-06	-1.427139e-08	-3.796154e+01	-9.375256e+02
8.000000e-08	-5.427184e-06	-1.425212e-08	-3.785872e+01	-9.364929e+02
9.000000e-08	-5.410098e-06	-1.428794e-08	-3.773954e+01	-9.352393e+02
1.000000e-07	-5.390630e-06	-1.428561e-08	-3.760373e+01	-9.337651e+02
1.100000e-07	-5.369176e-06	-1.422982e-08	-3.745407e+01	-9.321176e+02
1.200000e-07	-5.345911e-06	-1.419684e-08	-3.729178e+01	-9.303783e+02
1.300000e-07	-5.321184e-06	-1.410150e-08	-3.711930e+01	-9.286330e+02
1.400000e-07	-5.295053e-06	-1.407963e-08	-3.693701e+01	-9.269377e+02
1.500000e-07	-5.267093e-06	-1.415940e-08	-3.674197e+01	-9.252932e+02
1.600000e-07	-5.237346e-06	-1.403211e-08	-3.653446e+01	-9.236397e+02
1.700000e-07	-5.206012e-06	-1.401376e-08	-3.631588e+01	-9.218747e+02
1.800000e-07	-5.172736e-06	-1.408917e-08	-3.608376e+01	-9.198891e+02
1.900000e-07	-5.137435e-06	-1.395947e-08	-3.583751e+01	-9.176056e+02
2.000000e-07	-5.100549e-06	-1.394514e-08	-3.558020e+01	-9.150068e+02
2.100000e-07	-5.061963e-06	-1.390408e-08	-3.531103e+01	-9.121396e+02
2.200000e-07	-5.021580e-06	-1.378647e-08	-3.502933e+01	-9.090956e+02
2.300000e-07	-4.979329e-06	-1.380917e-08	-3.473460e+01	-9.059740e+02
2.400000e-07	-4.935056e-06	-1.378285e-08	-3.442576e+01	-9.028431e+02
2.500000e-07	-4.889038e-06	-1.373479e-08	-3.410475e+01	-8.997157e+02
2.600000e-07	-4.841235e-06	-1.369683e-08	-3.377129e+01	-8.965476e+02
2.700000e-07	-4.791422e-06	-1.360219e-08	-3.342380e+01	-8.932603e+02
2.800000e-07	-4.739561e-06	-1.357023e-08	-3.306204e+01	-8.897767e+02
2.900000e-07	-4.685775e-06	-1.350375e-08	-3.268684e+01	-8.860554e+02
3.000000e-07	-4.630291e-06	-1.342326e-08	-3.229979e+01	-8.821080e+02
3.100000e-07	-4.573133e-06	-1.337588e-08	-3.190107e+01	-8.779925e+02
3.200000e-07	-4.514178e-06	-1.333555e-08	-3.148982e+01	-8.737854e+02
3.300000e-07	-4.453578e-06	-1.330051e-08	-3.106708e+01	-8.695463e+02
3.400000e-07	-4.391472e-06	-1.320637e-08	-3.063385e+01	-8.652881e+02
3.500000e-07	-4.327893e-06	-1.313196e-08	-3.019034e+01	-8.609692e+02
3.600000e-07	-4.262870e-06	-1.305215e-08	-2.973675e+01	-8.565089e+02
3.700000e-07	-4.196273e-06	-1.297427e-08	-2.927218e+01	-8.518223e+02
3.800000e-07	-4.127974e-06	-1.292175e-08	-2.879575e+01	-8.468564e+02
3.900000e-07	-4.058135e-06	-1.283025e-08	-2.830857e+01	-8.416149e+02
4.000000e-07	-3.987031e-06	-1.275530e-08	-2.781257e+01	-8.361569e+02
4.100000e-07	-3.914697e-06	-1.268074e-08	-2.730798e+01	-8.305724e+02
4.200000e-07	-3.840996e-06	-1.259569e-08	-2.679386e+01	-8.249417e+02
4.300000e-07	-3.765661e-06	-1.249986e-08	-2.626834e+01	-8.192985e+02
4.400000e-07	-3.688570e-06	-1.240083e-08	-2.573057e+01	-8.136109e+02
4.500000e-07	-3.609908e-06	-1.232721e-08	-2.518184e+01	-8.077917e+02
4.600000e-07	-3.529820e-06	-1.223869e-08	-2.462317e+01	-8.017315e+02
4.700000e-07	-3.448366e-06	-1.213522e-08	-2.405497e+01	-7.953438e+02
4.800000e-07	-3.365675e-06	-1.202395e-08	-2.347814e+01	-7.886014e+02
4.900000e-07	-3.281871e-06	-1.191647e-08	-2.289354e+01	-7.815482e+02
5.000000e-07	-3.197061e-06	-1.182056e-08	-2.230192e+01	-7.742810e+02
5.100000e-07	-3.111294e-06	-1.171055e-08	-2.170363e+01	-7.669076e+02
5.200000e-07	-3.024555e-06	-1.159364e-08	-2.109856e+01	-7.594997e+02
5.300000e-07	-2.936864e-06	-1.147759e-08	-2.048685e+01	-7.520590e+02
5.400000e-07	-2.848215e-06	-1.136656e-08	-1.986846e+01	-7.445128e+02
5.500000e-07	-2.758587e-06	-1.124874e-08	-1.924324e+01	-7.367415e+02
5.600000e-07	-2.667823e-06	-1.111399e-08	-1.861009e+01	-7.286268e+02
5.700000e-07	-2.575903e-06	-1.097821e-08	-1.796888e+01	-7.200997e+02
5.800000e-07	-2.483051e-06	-1.084871e-08	-1.732117e+01	-7.111694e+02
5.900000e-07	-2.389401e-06	-1.072241e-08	-1.666789e+01	-7.019173e+02
6.000000e-07	-2.294978e-06	-1.058172e-08	-1.600921e+01	-6.924610e+02
6.100000e-07	-2.199774e-06	-1.042841e-08	-1.534509e+01	-6.829002e+02
6.200000e-07	-2.103835e-06	-1.027368e-08	-1.467584e+01	-6.732686e+02
6.300000e-07	-2.007144e-06	-1.012336e-08	-1.400135e+01	-6.635139e+02
6.400000e-07	-1.909672e-06	-9.973611e-09	-1.332141e+01	-6.535128e+02
6.500000e-07	-1.811453e-06	-9.810471e-09	-1.263626e+01	-6.431181e+02
6.600000e-07	-1.712453e-06	-9.639638e-09	-1.194566e+01	-6.322161e+02
6.700000e-07	-1.612679e-06	-9.468446e-09	-1.124966e+01	-6.207715e+02
6.800000e-07	-1.512254e-06	-9.292335e-09	-1.054912e+01	-6.088377e+02
6.900000e-07	-1.411342e-06	-9.103610e-09	-9.845178e+00	-5.965284e+02
7.000000e-07	-1.310039e-06	-8.909895e-09	-9.138513e+00	-5.839616e+02
7.100000e-07	-1.208321e-06	-8.717547e-09	-8.428953e+00	-5.711983e+02
7.200000e-07	-1.106198e-06	-8.520736e-09	-7.716569e+00	-5.582049e+02
7.300000e-07	-1.003717e-06	-8.314389e-09	-7.001684e+00	-5.448553e+02
7.400000e-07	-9.008729e-07	-8.095636e-09	-6.284272e+00	-5.309741e+02
7.500000e-07	-7.977148e-07	-7.870004e-09	-5.564666e+00	-5.164031e+02
7.600000e-07	-6.942880e-07	-7.638133e-09	-4.843186e+00	-5.010627e+02
7.700000e-07	-5.906125e-07	-7.398786e-09	-4.119970e+00	-4.849786e+02
7.800000e-07	-4.867741e-07	-7.148698e-09	-3.395618e+00	-4.682604e+02
7.900000e-07	-3.828711e-07	-6.888742e-09	-2.670816e+00	-4.510382e+02
8.000000e-07	-2.788710e-07	-6.622094e-09	-1.945337e+00	-4.333822e+02
8.100000e-07	-1.746877e-07	-6.342776e-09	-1.218579e+00	-4.152413e+02
8.200000e-07	-7.042781e-08	-6.046566e-09	-4.912874e-01	-3.964299e+02
8.300000e-07	3.382444e-08	-5.733567e-09	2.359512e-01	-3.766731e+02
8.400000e-07	1.380673e-07	-5.409409e-09	9.631243e-01	-3.556945e+02
8.500000e-07	2.422205e-07	-5.075229e-09	1.689671e+00	-3.333086e+02
8.600000e-07	3.462946e-07	-4.723785e-09	2.415668e+00	-3.094731e+02
8.700000e-07	4.503122e-07	-4.345463e-09	3.141269e+00	-2.842667e+02
8.800000e-07	5.541977e-07	-3.939125e-09	3.865949e+00	-2.577876e+02
8.900000e-07	6.578886e-07	-3.509902e-09	4.589272e+00	-2.300009e+02
9.000000e-07	7.613750e-07	-3.053246e-09	5.311168e+00	-2.005917e+02
9.100000e-07	8.646227e-07	-2.555130e-09	6.031399e+00	-1.688906e+02
9.200000e-07	9.675794e-07	-2.007789e-09	6.749600e+00	-1.339216e+02
9.300000e-07	1.070167e-06	-1.405346e-09	7.465230e+00	-9.458534e+01
9.400000e-07	1.172321e-06	-7.323532e-10	8.177829e+00	-4.994441e+01
9.500000e-07	1.274044e-06	2.730870e-11	8.887424e+00	4.623013e-01
9.600000e-07	1.375416e-06	8.790230e-10	9.594571e+00	5.637056e+01
9.700000e-07	1.476466e-06	1.807635e-09	1.029947e+01	1.166884e+02
9.800000e-07	1.577075e-06	2.780664e-09	1.100129e+01	1.795846e+02
9.900000e-07	1.677093e-06	3.756135e-09	1.169899e+01	2.427576e+02
1.000000e-06	1.776366e-06	4.690398e-09	1.239150e+01	3.038215e+02
1.010000e-06	1.874847e-06	5.547053e-09	1.307848e+01	3.607095e+02
1.020000e-06	1.972525e-06	6.305995e-09	1.375986e+01	4.119944e+02
1.030000e-06	2.069412e-06	6.969064e-09	1.443572e+01	4.570486e+02
1.040000e-06	2.165548e-06	7.549711e-09	1.510634e+01	4.960160e+02
1.050000e-06	2.260962e-06	8.060452e-09	1.577192e+01	5.296228e+02
1.060000e-06	2.355644e-06	8.509228e-09	1.643241e+01	5.588963e+02
1.070000e-06	2.449536e-06	8.908084e-09	1.708737e+01	5.848778e+02
1.080000e-06	2.542720e-06	9.270028e-09	1.773740e+01	6.084069e+02
1.090000e-06	2.635181e-06	9.601120e-09	1.838239e+01	6.300224e+02
1.100000e-06	2.726575e-06	9.899517e-09	1.901993e+01	6.499793e+02
1.110000e-06	2.816711e-06	1.016696e-08	1.964869e+01	6.683510e+02
1.120000e-06	2.905711e-06	1.041282e-08	2.026954e+01	6.851576e+02
1.130000e-06	2.993695e-06	1.064227e-08	2.088329e+01	7.004716e+02
1.140000e-06	3.080733e-06	1.085586e-08	2.149045e+01	7.144630e+02
1.150000e-06	3.166770e-06	1.105631e-08	2.209062e+01	7.273822e+02
1.160000e-06	3.251830e-06	1.124675e-08	2.268398e+01	7.394989e+02
1.170000e-06	3.335894e-06	1.142644e-08	2.327039e+01	7.510308e+02
1.180000e-06	3.418730e-06	1.159542e-08	2.384823e+01	7.620963e+02
1.190000e-06	3.500305e-06	1.175187e-08	2.441728e+01	7.727072e+02
1.200000e-06	3.580621e-06	1.189781e-08	2.497755e+01	7.828025e+02
1.210000e-06	3.659628e-06	1.203865e-08	2.552868e+01	7.923038e+02
1.220000e-06	3.737327e-06	1.217544e-08	2.607069e+01	8.011687e+02
1.230000e-06	3.813659e-06	1.230600e-08	2.660316e+01	8.094202e+02
1.240000e-06	3.888409e-06	1.242917e-08	2.712460e+01	8.171435e+02
1.250000e-06	3.961578e-06	1.254574e-08	2.763501e+01	8.244561e+02
1.260000e-06	4.033342e-06	1.265327e-08	2.813562e+01	8.314664e+02
1.270000e-06	4.103709e-06	1.275213e-08	2.862648e+01	8.382408e+02
1.280000e-06	4.172778e-06	1.284667e-08	2.910829e+01	8.447918e+02
1.290000e-06	4.240393e-06	1.294004e-08	2.957996e+01	8.510907e+02
1.300000e-06	4.306248e-06	1.303208e-08	3.003935e+01	8.570956e+02
1.310000e-06	4.370497e-06	1.312053e-08	3.048753e+01	8.627820e+02
1.320000e-06	4.433345e-06	1.320509e-08	3.092595e+01	8.681612e+02
1.330000e-06	4.494824e-06	1.328553e-08	3.135481e+01	8.732792e+02
1.340000e-06	4.554877e-06	1.336252e-08	3.177372e+01	8.781991e+02
1.350000e-06	4.613181e-06	1.343623e-08	3.218044e+01	8.829751e+02
1.360000e-06	4.669693e-06	1.350633e-08	3.257465e+01	8.876314e+02
1.370000e-06	4.724594e-06	1.357403e-08	3.295763e+01	8.921548e+02
1.380000e-06	4.777738e-06	1.363961e-08	3.332834e+01	8.965039e+02
1.390000e-06	4.828807e-06	1.370272e-08	3.368459e+01	9.006297e+02
1.400000e-06	4.877856e-06	1.376178e-08	3.402675e+01	9.044978e+02
1.410000e-06	4.925197e-06	1.381562e-08	3.435699e+01	9.081032e+02
1.420000e-06	4.970943e-06	1.386563e-08	3.467610e+01	9.114699e+02
1.430000e-06	5.015035e-06	1.391564e-08	3.498367e+01	9.146387e+02
1.440000e-06	5.057174e-06	1.396507e-08	3.527762e+01	9.176484e+02
1.450000e-06	5.097453e-06	1.401067e-08	3.555860e+01	9.205191e+02
1.460000e-06	5.136073e-06	1.405201e-08	3.582801e+01	9.232471e+02
1.470000e-06	5.173014e-06	1.409131e-08	3.608569e+01	9.258104e+02
1.480000e-06	5.208089e-06	1.412799e-08	3.633037e+01	9.281831e+02
1.490000e-06	5.241173e-06	1.415939e-08	3.656116e+01	9.303513e+02
1.500000e-06	5.272470e-06	1.418805e-08	3.677948e+01	9.323216e+02
1.510000e-06	5.302112e-06	1.421715e-08	3.698625e+01	9.341193e+02
1.520000e-06	5.329931e-06	1.424752e-08	3.718031e+01	9.357772e+02
1.530000e-06	5.355603e-06	1.427483e-08	3.735939e+01	9.373204e+02
1.540000e-06	5.379258e-06	1.429654e-08	3.752441e+01	9.387549e+02
1.550000e-06	5.401222e-06	1.431636e-08	3.767762e+01	9.400663e+02
1.560000e-06	5.421529e-06	1.433646e-08	3.781928e+01	9.412274e+02
1.570000e-06	5.439890e-06	1.435394e-08	3.794736e+01	9.422136e+02
1.580000e-06	5.456196e-06	1.436680e-08	3.806110e+01	9.430165e+02
1.590000e-06	5.470531e-06	1.437625e-08	3.816110e+01	9.436499e+02
1.600000e-06	5.482719e-06	1.438628e-08	3.824612e+01	9.441453e+02
1.610000e-06	5.492650e-06	1.439698e-08	3.831540e+01	9.445385e+02
1.620000e-06	5.500553e-06	1.440454e-08	3.837053e+01	9.448532e+02
1.630000e-06	5.506654e-06	1.440872e-08	3.841309e+01	9.450912e+02
1.640000e-06	5.510917e-06	1.441172e-08	3.844283e+01	9.452318e+02
1.650000e-06	5.513126e-06	1.441497e-08	3.845823e+01	9.452433e+02
1.660000e-06	5.513379e-06	1.441394e-08	3.846000e+01	9.451001e+02
1.670000e-06	5.511926e-06	1.440469e-08	3.844987e+01	9.447971e+02
1.680000e-06	5.508776e-06	1.440006e-08	3.842789e+01	9.443550e+02
1.690000e-06	5.503687e-06	1.439706e-08	3.839239e+01	9.438121e+02
1.700000e-06	5.496659e-06	1.438952e-08	3.834336e+01	9.432061e+02
1.710000e-06	5.488020e-06	1.437962e-08	3.828311e+01	9.425542e+02
1.720000e-06	5.477721e-06	1.437076e-08	3.821126e+01	9.418405e+02
1.730000e-06	5.465411e-06	1.437415e-08	3.812539e+01	9.410184e+02
1.740000e-06	5.451076e-06	1.433068e-08	3.802539e+01	9.400279e+02
1.750000e-06	5.434757e-06	1.424829e-08	3.791155e+01	9.388225e+02
1.760000e-06	5.415902e-06	1.424475e-08	3.778003e+01	9.373923e+02
1.770000e-06	5.394257e-06	1.424447e-08	3.762904e+01	9.357752e+02
1.780000e-06	5.370566e-06	1.428687e-08	3.746377e+01	9.340472e+02
1.790000e-06	5.345818e-06	1.429508e-08	3.729113e+01	9.322962e+02
1.800000e-06	5.320275e-06	1.412155e-08	3.711295e+01	9.305872e+02
1.810000e-06	5.292878e-06	1.417045e-08	3.692184e+01	9.289342e+02
1.820000e-06	5.263131e-06	1.420383e-08	3.671433e+01	9.272894e+02
1.830000e-06	5.231827e-06	1.405721e-08	3.649596e+01	9.255571e+02
1.840000e-06	5.198800e-06	1.415703e-08	3.626558e+01	9.236262e+02
1.850000e-06	5.163980e-06	1.411485e-08	3.602268e+01	9.214095e+02
1.860000e-06	5.127451e-06	1.398947e-08	3.576786e+01	9.188755e+02
1.870000e-06	5.088734e-06	1.408088e-08	3.549778e+01	9.160584e+02
1.880000e-06	5.048254e-06	1.395776e-08	3.521540e+01	9.130428e+02
1.890000e-06	5.006209e-06	1.389134e-08	3.492210e+01	9.099298e+02
1.900000e-06	4.962265e-06	1.387972e-08	3.461556e+01	9.067969e+02
1.910000e-06	4.916607e-06	1.373159e-08	3.429707e+01	9.036700e+02
1.920000e-06	4.869063e-06	1.379743e-08	3.396541e+01	9.005157e+02
1.930000e-06	4.819685e-06	1.370481e-08	3.362096e+01	8.972603e+02
1.940000e-06	4.768584e-06	1.361575e-08	3.326449e+01	8.938231e+02
1.950000e-06	4.715375e-06	1.365562e-08	3.289332e+01	8.901529e+02
1.960000e-06	4.660348e-06	1.351513e-08	3.250946e+01	8.862496e+02
1.970000e-06	4.603683e-06	1.348044e-08	3.211418e+01	8.821629e+02
1.980000e-06	4.545426e-06	1.338325e-08	3.170779e+01	8.779686e+02
1.990000e-06	4.485617e-06	1.330778e-08	3.129058e+01	8.737326e+02
2.000000e-06	4.424041e-06	1.330171e-08	3.086104e+01	8.694795e+02
2.010000e-06	4.360880e-06	1.319632e-08	3.042044e+01	8.651787e+02
2.020000e-06	4.296145e-06	1.318539e-08	2.996887e+01	8.607555e+02
2.030000e-06	4.229953e-06	1.307014e-08	2.950713e+01	8.561227e+02
2.040000e-06	4.162280e-06	1.299455e-08	2.903506e+01	8.512177e+02
2.050000e-06	4.092832e-06	1.293329e-08	2.855061e+01	8.460311e+02
2.060000e-06	4.021844e-06	1.280260e-08	2.805541e+01	8.406117e+02
2.070000e-06	3.949487e-06	1.276010e-08	2.755067e+01	8.350458e+02
2.080000e-06	3.875796e-06	1.265514e-08	2.703662e+01	8.294194e+02
2.090000e-06	3.800548e-06	1.260344e-08	2.651170e+01	8.237784e+02
2.100000e-06	3.723578e-06	1.250805e-08	2.597478e+01	8.181054e+02
2.110000e-06	3.645142e-06	1.239093e-08	2.542763e+01	8.123228e+02
2.120000e-06	3.565454e-06	1.231489e-08	2.487174e+01	8.063221e+02
2.130000e-06	3.484643e-06	1.220152e-08	2.430803e+01	8.000086e+02
2.140000e-06	3.402680e-06	1.212746e-08	2.373627e+01	7.933401e+02
2.150000e-06	3.319538e-06	1.200729e-08	2.315630e+01	7.863458e+02
2.160000e-06	3.235123e-06	1.189927e-08	2.256743e+01	7.791142e+02
2.170000e-06	3.149380e-06	1.178977e-08	2.196931e+01	7.717549e+02
2.180000e-06	3.062475e-06	1.167238e-08	2.136309e+01	7.643508e+02
2.190000e-06	2.974550e-06	1.156333e-08	2.074974e+01	7.569202e+02
2.200000e-06	2.885694e-06	1.143912e-08	2.012991e+01	7.494049e+02
2.210000e-06	2.795952e-06	1.132990e-08	1.950388e+01	7.416919e+02
2.220000e-06	2.705301e-06	1.120499e-08	1.887152e+01	7.336581e+02
2.230000e-06	2.613623e-06	1.107754e-08	1.823200e+01	7.252207e+02
2.240000e-06	2.521000e-06	1.093340e-08	1.758589e+01	7.163712e+02
2.250000e-06	2.427463e-06	1.079205e-08	1.693340e+01	7.071778e+02
2.260000e-06	2.332935e-06	1.065306e-08	1.627399e+01	6.977547e+02
2.270000e-06	2.237579e-06	1.051575e-08	1.560881e+01	6.882099e+02
2.280000e-06	2.141473e-06	1.037354e-08	1.493840e+01	6.785941e+02
2.290000e-06	2.044652e-06	1.021905e-08	1.426300e+01	6.688735e+02
2.300000e-06	1.947220e-06	1.006725e-08	1.358333e+01	6.589369e+02
2.310000e-06	1.849250e-06	9.906460e-09	1.289992e+01	6.486373e+02
2.320000e-06	1.750726e-06	9.741594e-09	1.221264e+01	6.378494e+02
2.330000e-06	1.651610e-06	9.562540e-09	1.152123e+01	6.265187e+02
2.340000e-06	1.551922e-06	9.387809e-09	1.082583e+01	6.146806e+02
2.350000e-06	1.451668e-06	9.212236e-09	1.012649e+01	6.024403e+02
2.360000e-06	1.350799e-06	9.023751e-09	9.422847e+00	5.899200e+02
2.370000e-06	1.249293e-06	8.826456e-09	8.714764e+00	5.771974e+02
2.380000e-06	1.147235e-06	8.622879e-09	8.002836e+00	5.642604e+02
2.390000e-06	1.044689e-06	8.421212e-09	7.287499e+00	5.510004e+02
2.400000e-06	9.416901e-07	8.209236e-09	6.569002e+00	5.372472e+02
2.410000e-06	8.383717e-07	7.983983e-09	5.848278e+00	5.228334e+02
2.420000e-06	7.348257e-07	7.748039e-09	5.125967e+00	5.076586e+02
2.430000e-06	6.310621e-07	7.506569e-09	4.402137e+00	4.917259e+02
2.440000e-06	5.271190e-07	7.262845e-09	3.677055e+00	4.751314e+02
2.450000e-06	4.230139e-07	7.010520e-09	2.950843e+00	4.580072e+02
2.460000e-06	3.187781e-07	6.741906e-09	2.223719e+00	4.404430e+02
2.470000e-06	2.144048e-07	6.462894e-09	1.495636e+00	4.224166e+02
2.480000e-06	1.099823e-07	6.175826e-09	7.672100e-01	4.037693e+02
2.490000e-06	5.566481e-09	5.873127e-09	3.883043e-02	3.842391e+02
2.500000e-06	-9.888255e-08	5.549028e-09	-6.897808e-01	3.635415e+02
2.510000e-06	-2.033028e-07	5.207915e-09	-1.418191e+00	3.414651e+02
2.520000e-06	-3.076250e-07	4.858408e-09	-2.145917e+00	3.179358e+02
2.530000e-06	-4.118253e-07	4.494354e-09	-2.872793e+00	2.930127e+02
2.540000e-06	-5.158735e-07	4.104720e-09	-3.598609e+00	2.668015e+02
2.550000e-06	-6.197150e-07	3.685015e-09	-4.322982e+00	2.393094e+02
2.560000e-06	-7.233787e-07	3.236598e-09	-5.046115e+00	2.102911e+02
2.570000e-06	-8.268371e-07	2.754529e-09	-5.767816e+00	1.791540e+02
2.580000e-06	-9.300009e-07	2.226966e-09	-6.487461e+00	1.449767e+02
2.590000e-06	-1.032805e-06	1.642843e-09	-7.204595e+00	1.066648e+02
2.600000e-06	-1.135126e-06	9.925172e-10	-7.918364e+00	6.321934e+01
2.610000e-06	-1.236878e-06	2.650005e-10	-8.628164e+00	1.405261e+01
2.620000e-06	-1.338048e-06	-5.503356e-10	-9.333903e+00	-4.074125e+01
2.630000e-06	-1.438671e-06	-1.452253e-09	-1.003582e+01	-1.002469e+02
2.640000e-06	-1.538780e-06	-2.416783e-09	-1.073416e+01	-1.627744e+02
2.650000e-06	-1.638298e-06	-3.399947e-09	-1.142837e+01	-2.260933e+02
2.660000e-06	-1.737156e-06	-4.354489e-09	-1.211798e+01	-2.878005e+02
2.670000e-06	-1.835414e-06	-5.244835e-09	-1.280341e+01	-3.457297e+02
2.680000e-06	-1.933151e-06	-6.047601e-09	-1.348520e+01	-3.982970e+02
2.690000e-06	-2.030308e-06	-6.752292e-09	-1.416294e+01	-4.446993e+02
2.700000e-06	-2.126750e-06	-7.367371e-09	-1.483569e+01	-4.849266e+02
2.710000e-06	-2.222521e-06	-7.906027e-09	-1.550377e+01	-5.196020e+02
2.720000e-06	-2.317721e-06	-8.378198e-09	-1.616786e+01	-5.497137e+02
2.730000e-06	-2.412223e-06	-8.795305e-09	-1.682709e+01	-5.763215e+02
2.740000e-06	-2.505745e-06	-9.168998e-09	-1.747947e+01	-6.003208e+02
2.750000e-06	-2.598126e-06	-9.506981e-09	-1.812390e+01	-6.223171e+02
2.760000e-06	-2.689445e-06	-9.814383e-09	-1.876092e+01	-6.426198e+02
2.770000e-06	-2.779809e-06	-1.009676e-08	-1.939128e+01	-6.613304e+02
2.780000e-06	-2.869181e-06	-1.035591e-08	-2.001472e+01	-6.784700e+02
2.790000e-06	-2.957520e-06	-1.059457e-08	-2.063095e+01	-6.940937e+02
2.800000e-06	-3.044956e-06	-1.081553e-08	-2.124088e+01	-7.083502e+02
2.810000e-06	-3.131407e-06	-1.102173e-08	-2.184394e+01	-7.214768e+02
2.820000e-06	-3.216569e-06	-1.121569e-08	-2.243801e+01	-7.337451e+02
2.830000e-06	-3.300423e-06	-1.139680e-08	-2.302296e+01	-7.453894e+02
2.840000e-06	-3.383104e-06	-1.156628e-08	-2.359971e+01	-7.565512e+02
2.850000e-06	-3.464692e-06	-1.172701e-08	-2.416885e+01	-7.672638e+02
2.860000e-06	-3.545135e-06	-1.188102e-08	-2.473000e+01	-7.774772e+02
2.870000e-06	-3.624408e-06	-1.202448e-08	-2.528300e+01	-7.871120e+02
2.880000e-06	-3.702311e-06	-1.215579e-08	-2.582643e+01	-7.961145e+02
2.890000e-06	-3.778619e-06	-1.228244e-08	-2.635873e+01	-8.044929e+02
2.900000e-06	-3.853418e-06	-1.240771e-08	-2.688052e+01	-8.123208e+02
2.910000e-06	-3.926802e-06	-1.252584e-08	-2.739242e+01	-8.197121e+02
2.920000e-06	-3.998839e-06	-1.263203e-08	-2.789493e+01	-8.267806e+02
2.930000e-06	-4.069618e-06	-1.273226e-08	-2.838867e+01	-8.336035e+02
2.940000e-06	-4.138881e-06	-1.283322e-08	-2.887184e+01	-8.402045e+02
