# Temperatura_=_28.45
# Concentracion g/m^3_=_13400.0
# C_Vs_to_Am_M_A/Vsm_=_65563218390.804596
# pendiente_HvsI_1/m_=_3716.3
# ordenada_HvsI_A/m_=_1297.0
# frecuencia_Hz_=_300803.23629415786

Tiempo_(s)	Campo_(V.s)	Magnetizacion_(V.s)	Campo_(kA/m)	Magnetizacion_(A/m)
0.000000e+00	-5.504140e-06	-1.387519e-08	-3.831137e+01	-9.100454e+02
1.000000e-08	-5.502530e-06	-1.387174e-08	-3.830016e+01	-9.098087e+02
2.000000e-08	-5.498957e-06	-1.386652e-08	-3.827529e+01	-9.094602e+02
3.000000e-08	-5.493569e-06	-1.386320e-08	-3.823779e+01	-9.090112e+02
4.000000e-08	-5.486545e-06	-1.385854e-08	-3.818890e+01	-9.084741e+02
5.000000e-08	-5.477867e-06	-1.384645e-08	-3.812849e+01	-9.078541e+02
6.000000e-08	-5.467192e-06	-1.382880e-08	-3.805419e+01	-9.071427e+02
7.000000e-08	-5.454448e-06	-1.380764e-08	-3.796549e+01	-9.063178e+02
8.000000e-08	-5.439700e-06	-1.379378e-08	-3.786283e+01	-9.053501e+02
9.000000e-08	-5.422641e-06	-1.381450e-08	-3.774409e+01	-9.042158e+02
1.000000e-07	-5.403320e-06	-1.381517e-08	-3.760961e+01	-9.029096e+02
1.100000e-07	-5.381990e-06	-1.376935e-08	-3.746115e+01	-9.014525e+02
1.200000e-07	-5.358806e-06	-1.372946e-08	-3.729978e+01	-8.998889e+02
1.300000e-07	-5.334151e-06	-1.367254e-08	-3.712816e+01	-8.982736e+02
1.400000e-07	-5.308015e-06	-1.363310e-08	-3.694625e+01	-8.966525e+02
1.500000e-07	-5.280014e-06	-1.366052e-08	-3.675135e+01	-8.950430e+02
1.600000e-07	-5.250245e-06	-1.360171e-08	-3.654414e+01	-8.934243e+02
1.700000e-07	-5.218905e-06	-1.355439e-08	-3.632600e+01	-8.917410e+02
1.800000e-07	-5.185703e-06	-1.358996e-08	-3.609490e+01	-8.899190e+02
1.900000e-07	-5.150480e-06	-1.352944e-08	-3.584973e+01	-8.878908e+02
2.000000e-07	-5.113655e-06	-1.348941e-08	-3.559341e+01	-8.856174e+02
2.100000e-07	-5.075118e-06	-1.344643e-08	-3.532517e+01	-8.831014e+02
2.200000e-07	-5.034722e-06	-1.334879e-08	-3.504400e+01	-8.803842e+02
2.300000e-07	-4.992444e-06	-1.333891e-08	-3.474973e+01	-8.775286e+02
2.400000e-07	-4.948181e-06	-1.332517e-08	-3.444164e+01	-8.745947e+02
2.500000e-07	-4.902153e-06	-1.328196e-08	-3.412126e+01	-8.716177e+02
2.600000e-07	-4.854359e-06	-1.325814e-08	-3.378859e+01	-8.685972e+02
2.700000e-07	-4.804524e-06	-1.319164e-08	-3.344172e+01	-8.655008e+02
2.800000e-07	-4.752556e-06	-1.313983e-08	-3.307999e+01	-8.622821e+02
2.900000e-07	-4.698711e-06	-1.307830e-08	-3.270521e+01	-8.589023e+02
3.000000e-07	-4.643240e-06	-1.299871e-08	-3.231910e+01	-8.553484e+02
3.100000e-07	-4.586106e-06	-1.294548e-08	-3.192142e+01	-8.516379e+02
3.200000e-07	-4.527108e-06	-1.291738e-08	-3.151077e+01	-8.478096e+02
3.300000e-07	-4.466473e-06	-1.289099e-08	-3.108872e+01	-8.439038e+02
3.400000e-07	-4.404419e-06	-1.281301e-08	-3.065680e+01	-8.399411e+02
3.500000e-07	-4.340877e-06	-1.274018e-08	-3.021451e+01	-8.359092e+02
3.600000e-07	-4.275766e-06	-1.266717e-08	-2.976132e+01	-8.317650e+02
3.700000e-07	-4.208954e-06	-1.258930e-08	-2.929627e+01	-8.274502e+02
3.800000e-07	-4.140518e-06	-1.253223e-08	-2.881993e+01	-8.229156e+02
3.900000e-07	-4.070630e-06	-1.245351e-08	-2.833347e+01	-8.181417e+02
4.000000e-07	-3.999402e-06	-1.238109e-08	-2.783769e+01	-8.131484e+02
4.100000e-07	-3.926933e-06	-1.231755e-08	-2.733328e+01	-8.079868e+02
4.200000e-07	-3.853002e-06	-1.224172e-08	-2.681868e+01	-8.027175e+02
4.300000e-07	-3.777309e-06	-1.215416e-08	-2.629182e+01	-7.973837e+02
4.400000e-07	-3.699998e-06	-1.205856e-08	-2.575370e+01	-7.919903e+02
4.500000e-07	-3.621239e-06	-1.198259e-08	-2.520550e+01	-7.864995e+02
4.600000e-07	-3.540972e-06	-1.190171e-08	-2.464681e+01	-7.808432e+02
4.700000e-07	-3.459332e-06	-1.180950e-08	-2.407855e+01	-7.749504e+02
4.800000e-07	-3.376502e-06	-1.171140e-08	-2.350202e+01	-7.687752e+02
4.900000e-07	-3.292580e-06	-1.161236e-08	-2.291789e+01	-7.623152e+02
5.000000e-07	-3.207699e-06	-1.151850e-08	-2.232707e+01	-7.556119e+02
5.100000e-07	-3.121835e-06	-1.140783e-08	-2.172942e+01	-7.487312e+02
5.200000e-07	-3.034968e-06	-1.129579e-08	-2.112479e+01	-7.417340e+02
5.300000e-07	-2.947175e-06	-1.119076e-08	-2.051370e+01	-7.346474e+02
5.400000e-07	-2.858456e-06	-1.108880e-08	-1.989618e+01	-7.274506e+02
5.500000e-07	-2.768671e-06	-1.098234e-08	-1.927123e+01	-7.200809e+02
5.600000e-07	-2.677639e-06	-1.086308e-08	-1.863761e+01	-7.124590e+02
5.700000e-07	-2.585518e-06	-1.073366e-08	-1.799640e+01	-7.045213e+02
5.800000e-07	-2.492583e-06	-1.060147e-08	-1.734954e+01	-6.962460e+02
5.900000e-07	-2.398874e-06	-1.047268e-08	-1.669728e+01	-6.876612e+02
6.000000e-07	-2.304348e-06	-1.034150e-08	-1.603933e+01	-6.788300e+02
6.100000e-07	-2.208979e-06	-1.020754e-08	-1.537552e+01	-6.698185e+02
6.200000e-07	-2.112856e-06	-1.007285e-08	-1.470646e+01	-6.606604e+02
6.300000e-07	-2.016009e-06	-9.936392e-09	-1.403236e+01	-6.513343e+02
6.400000e-07	-1.918357e-06	-9.792376e-09	-1.335265e+01	-6.417638e+02
6.500000e-07	-1.819866e-06	-9.631669e-09	-1.266711e+01	-6.318420e+02
6.600000e-07	-1.720584e-06	-9.459205e-09	-1.197606e+01	-6.214719e+02
6.700000e-07	-1.620639e-06	-9.286889e-09	-1.128040e+01	-6.106036e+02
6.800000e-07	-1.520151e-06	-9.118366e-09	-1.058095e+01	-5.992544e+02
6.900000e-07	-1.419199e-06	-8.947242e-09	-9.878283e+00	-5.874982e+02
7.000000e-07	-1.317795e-06	-8.770713e-09	-9.172468e+00	-5.754307e+02
7.100000e-07	-1.215955e-06	-8.588785e-09	-8.463611e+00	-5.631205e+02
7.200000e-07	-1.113681e-06	-8.398768e-09	-7.751733e+00	-5.505695e+02
7.300000e-07	-1.011025e-06	-8.198761e-09	-7.037200e+00	-5.376989e+02
7.400000e-07	-9.080081e-07	-7.986778e-09	-6.320158e+00	-5.243691e+02
7.500000e-07	-8.046384e-07	-7.767218e-09	-5.600656e+00	-5.104269e+02
7.600000e-07	-7.010345e-07	-7.543241e-09	-4.879525e+00	-4.957618e+02
7.700000e-07	-5.972304e-07	-7.315649e-09	-4.157000e+00	-4.803459e+02
7.800000e-07	-4.931870e-07	-7.078413e-09	-3.432810e+00	-4.642390e+02
7.900000e-07	-3.889955e-07	-6.827954e-09	-2.707589e+00	-4.475551e+02
8.000000e-07	-2.847465e-07	-6.568144e-09	-1.981968e+00	-4.303993e+02
8.100000e-07	-1.804292e-07	-6.298942e-09	-1.255871e+00	-4.128031e+02
8.200000e-07	-7.602152e-08	-6.017722e-09	-5.291450e-01	-3.946848e+02
8.300000e-07	2.847396e-08	-5.723753e-09	1.981919e-01	-3.758549e+02
8.400000e-07	1.329687e-07	-5.416958e-09	9.255236e-01	-3.560676e+02
8.500000e-07	2.373890e-07	-5.097700e-09	1.652337e+00	-3.350992e+02
8.600000e-07	3.416845e-07	-4.763066e-09	2.378283e+00	-3.128188e+02
8.700000e-07	4.458518e-07	-4.406175e-09	3.103335e+00	-2.892158e+02
8.800000e-07	5.499010e-07	-4.025715e-09	3.827566e+00	-2.643626e+02
8.900000e-07	6.537945e-07	-3.626787e-09	4.550713e+00	-2.383159e+02
9.000000e-07	7.574774e-07	-3.210235e-09	5.272394e+00	-2.109881e+02
9.100000e-07	8.609388e-07	-2.764767e-09	5.992533e+00	-1.820362e+02
9.200000e-07	9.641668e-07	-2.279089e-09	6.711048e+00	-1.508242e+02
9.300000e-07	1.067037e-06	-1.744506e-09	7.427070e+00	-1.164893e+02
9.400000e-07	1.169444e-06	-1.154559e-09	8.139872e+00	-7.811616e+01
9.500000e-07	1.271441e-06	-5.001271e-10	8.849817e+00	-3.498334e+01
9.600000e-07	1.373017e-06	2.298356e-10	9.556838e+00	1.318425e+01
9.700000e-07	1.474145e-06	1.034697e-09	1.026073e+01	6.603056e+01
9.800000e-07	1.574808e-06	1.899798e-09	1.096139e+01	1.225130e+02
9.900000e-07	1.674937e-06	2.798430e-09	1.165834e+01	1.810034e+02
1.000000e-06	1.774486e-06	3.697980e-09	1.235125e+01	2.395274e+02
1.010000e-06	1.873347e-06	4.562743e-09	1.303937e+01	2.960859e+02
1.020000e-06	1.971433e-06	5.360160e-09	1.372209e+01	3.489763e+02
1.030000e-06	2.068681e-06	6.074089e-09	1.439898e+01	3.970369e+02
1.040000e-06	2.165068e-06	6.708141e-09	1.506988e+01	4.397565e+02
1.050000e-06	2.260652e-06	7.271248e-09	1.573518e+01	4.772378e+02
1.060000e-06	2.355467e-06	7.767860e-09	1.639514e+01	5.100392e+02
1.070000e-06	2.449558e-06	8.208475e-09	1.705006e+01	5.389516e+02
1.080000e-06	2.542959e-06	8.603157e-09	1.770018e+01	5.647803e+02
1.090000e-06	2.635588e-06	8.961481e-09	1.834491e+01	5.881852e+02
1.100000e-06	2.727295e-06	9.288302e-09	1.898324e+01	6.096106e+02
1.110000e-06	2.817908e-06	9.582943e-09	1.961395e+01	6.293025e+02
1.120000e-06	2.907312e-06	9.850812e-09	2.023624e+01	6.473824e+02
1.130000e-06	2.995574e-06	1.009649e-08	2.085059e+01	6.639377e+02
1.140000e-06	3.082834e-06	1.032380e-08	2.145795e+01	6.790901e+02
1.150000e-06	3.169128e-06	1.053585e-08	2.205860e+01	6.930197e+02
1.160000e-06	3.254383e-06	1.073340e-08	2.265202e+01	7.059460e+02
1.170000e-06	3.338572e-06	1.091949e-08	2.323801e+01	7.180816e+02
1.180000e-06	3.421667e-06	1.109698e-08	2.381639e+01	7.295845e+02
1.190000e-06	3.503506e-06	1.126419e-08	2.438602e+01	7.405328e+02
1.200000e-06	3.583972e-06	1.142062e-08	2.494611e+01	7.509292e+02
1.210000e-06	3.663132e-06	1.156616e-08	2.549710e+01	7.607339e+02
1.220000e-06	3.741026e-06	1.170355e-08	2.603927e+01	7.699083e+02
1.230000e-06	3.817596e-06	1.183309e-08	2.657224e+01	7.784515e+02
1.240000e-06	3.892702e-06	1.195430e-08	2.709501e+01	7.864150e+02
1.250000e-06	3.966182e-06	1.206900e-08	2.760646e+01	7.938923e+02
1.260000e-06	4.038177e-06	1.217895e-08	2.810759e+01	8.009900e+02
1.270000e-06	4.108815e-06	1.228628e-08	2.859926e+01	8.077945e+02
1.280000e-06	4.178021e-06	1.238822e-08	2.908096e+01	8.143494e+02
1.290000e-06	4.245785e-06	1.248226e-08	2.955263e+01	8.206533e+02
1.300000e-06	4.311934e-06	1.256875e-08	3.001306e+01	8.266751e+02
1.310000e-06	4.376447e-06	1.265237e-08	3.046210e+01	8.323816e+02
1.320000e-06	4.439513e-06	1.273451e-08	3.090107e+01	8.377625e+02
1.330000e-06	4.501183e-06	1.281277e-08	3.133032e+01	8.428427e+02
1.340000e-06	4.561441e-06	1.288692e-08	3.174974e+01	8.476776e+02
1.350000e-06	4.620049e-06	1.296084e-08	3.215768e+01	8.523330e+02
1.360000e-06	4.676828e-06	1.303508e-08	3.255289e+01	8.568605e+02
1.370000e-06	4.731873e-06	1.310489e-08	3.293603e+01	8.612786e+02
1.380000e-06	4.785166e-06	1.316691e-08	3.330697e+01	8.655670e+02
1.390000e-06	4.836550e-06	1.322316e-08	3.366463e+01	8.696770e+02
1.400000e-06	4.885935e-06	1.327819e-08	3.400838e+01	8.735532e+02
1.410000e-06	4.933467e-06	1.333308e-08	3.433922e+01	8.771555e+02
1.420000e-06	4.979360e-06	1.338586e-08	3.465865e+01	8.804750e+02
1.430000e-06	5.023637e-06	1.343547e-08	3.496684e+01	8.835356e+02
1.440000e-06	5.066031e-06	1.348314e-08	3.526192e+01	8.863838e+02
1.450000e-06	5.106514e-06	1.352710e-08	3.554371e+01	8.890693e+02
1.460000e-06	5.145295e-06	1.356664e-08	3.581364e+01	8.916278e+02
1.470000e-06	5.182424e-06	1.360341e-08	3.607208e+01	8.940707e+02
1.480000e-06	5.217729e-06	1.363852e-08	3.631781e+01	8.963859e+02
1.490000e-06	5.251001e-06	1.367167e-08	3.654940e+01	8.985480e+02
1.500000e-06	5.282426e-06	1.370202e-08	3.676814e+01	9.005331e+02
1.510000e-06	5.312171e-06	1.373030e-08	3.697518e+01	9.023304e+02
1.520000e-06	5.340163e-06	1.375629e-08	3.717001e+01	9.039467e+02
1.530000e-06	5.366099e-06	1.378018e-08	3.735054e+01	9.054028e+02
1.540000e-06	5.389978e-06	1.380252e-08	3.751675e+01	9.067239e+02
1.550000e-06	5.412056e-06	1.382369e-08	3.767042e+01	9.079295e+02
1.560000e-06	5.432405e-06	1.384425e-08	3.781206e+01	9.090267e+02
1.570000e-06	5.450881e-06	1.386201e-08	3.794066e+01	9.100107e+02
1.580000e-06	5.467318e-06	1.387567e-08	3.805507e+01	9.108704e+02
1.590000e-06	5.481735e-06	1.388612e-08	3.815542e+01	9.115958e+02
1.600000e-06	5.494059e-06	1.389624e-08	3.824120e+01	9.121844e+02
1.610000e-06	5.504164e-06	1.390628e-08	3.831153e+01	9.126423e+02
1.620000e-06	5.512215e-06	1.391342e-08	3.836757e+01	9.129804e+02
1.630000e-06	5.518403e-06	1.391831e-08	3.841064e+01	9.132091e+02
1.640000e-06	5.522752e-06	1.392328e-08	3.844091e+01	9.133330e+02
1.650000e-06	5.525113e-06	1.392627e-08	3.845735e+01	9.133498e+02
1.660000e-06	5.525494e-06	1.392526e-08	3.846000e+01	9.132538e+02
1.670000e-06	5.524048e-06	1.391928e-08	3.844993e+01	9.130413e+02
1.680000e-06	5.520931e-06	1.391505e-08	3.842824e+01	9.127155e+02
1.690000e-06	5.516067e-06	1.391196e-08	3.839438e+01	9.122864e+02
1.700000e-06	5.509224e-06	1.390449e-08	3.834675e+01	9.117669e+02
1.710000e-06	5.500605e-06	1.389497e-08	3.828676e+01	9.111642e+02
1.720000e-06	5.490370e-06	1.388739e-08	3.821552e+01	9.104733e+02
1.730000e-06	5.478187e-06	1.388569e-08	3.813072e+01	9.096746e+02
1.740000e-06	5.463914e-06	1.385680e-08	3.803137e+01	9.087394e+02
1.750000e-06	5.447659e-06	1.378968e-08	3.791824e+01	9.076415e+02
1.760000e-06	5.428950e-06	1.377499e-08	3.778801e+01	9.063708e+02
1.770000e-06	5.407406e-06	1.378039e-08	3.763805e+01	9.049425e+02
1.780000e-06	5.383700e-06	1.379340e-08	3.747305e+01	9.033966e+02
1.790000e-06	5.358948e-06	1.380610e-08	3.730076e+01	9.017874e+02
1.800000e-06	5.333424e-06	1.370001e-08	3.712311e+01	9.001643e+02
1.810000e-06	5.306107e-06	1.368304e-08	3.693297e+01	8.985522e+02
1.820000e-06	5.276443e-06	1.372832e-08	3.672649e+01	8.969386e+02
1.830000e-06	5.245148e-06	1.364546e-08	3.650866e+01	8.952746e+02
1.840000e-06	5.212096e-06	1.366598e-08	3.627861e+01	8.934881e+02
1.850000e-06	5.177195e-06	1.364868e-08	3.603568e+01	8.915081e+02
1.860000e-06	5.140630e-06	1.355254e-08	3.578117e+01	8.892879e+02
1.870000e-06	5.101942e-06	1.361096e-08	3.551188e+01	8.868211e+02
1.880000e-06	5.061460e-06	1.354772e-08	3.523011e+01	8.841416e+02
1.890000e-06	5.019433e-06	1.346647e-08	3.493758e+01	8.813095e+02
1.900000e-06	4.975503e-06	1.346010e-08	3.463181e+01	8.783878e+02
1.910000e-06	4.929824e-06	1.333332e-08	3.431386e+01	8.754183e+02
1.920000e-06	4.882275e-06	1.333059e-08	3.398290e+01	8.724084e+02
1.930000e-06	4.832890e-06	1.329608e-08	3.363915e+01	8.693315e+02
1.940000e-06	4.781774e-06	1.321769e-08	3.328337e+01	8.661423e+02
1.950000e-06	4.728507e-06	1.323826e-08	3.291260e+01	8.627987e+02
1.960000e-06	4.673389e-06	1.313961e-08	3.252895e+01	8.592811e+02
1.970000e-06	4.616642e-06	1.307662e-08	3.213397e+01	8.556008e+02
1.980000e-06	4.558291e-06	1.299509e-08	3.172782e+01	8.517936e+02
1.990000e-06	4.498441e-06	1.291942e-08	3.131124e+01	8.479012e+02
2.000000e-06	4.436806e-06	1.291207e-08	3.088223e+01	8.439499e+02
2.010000e-06	4.373536e-06	1.282607e-08	3.044184e+01	8.399351e+02
2.020000e-06	4.308747e-06	1.280179e-08	2.999088e+01	8.358191e+02
2.030000e-06	4.242476e-06	1.271950e-08	2.952960e+01	8.315452e+02
2.040000e-06	4.174767e-06	1.263368e-08	2.905831e+01	8.270601e+02
2.050000e-06	4.105305e-06	1.257860e-08	2.857482e+01	8.223366e+02
2.060000e-06	4.034227e-06	1.246355e-08	2.808009e+01	8.173863e+02
2.070000e-06	3.961805e-06	1.241345e-08	2.757600e+01	8.122550e+02
2.080000e-06	3.888066e-06	1.232419e-08	2.706274e+01	8.070037e+02
2.090000e-06	3.812775e-06	1.226055e-08	2.653868e+01	8.016812e+02
2.100000e-06	3.735748e-06	1.218299e-08	2.600254e+01	7.963019e+02
2.110000e-06	3.657218e-06	1.207140e-08	2.545593e+01	7.908365e+02
2.120000e-06	3.577421e-06	1.199916e-08	2.490051e+01	7.852215e+02
2.130000e-06	3.496483e-06	1.189508e-08	2.433714e+01	7.793840e+02
2.140000e-06	3.414380e-06	1.181385e-08	2.376567e+01	7.732705e+02
2.150000e-06	3.331188e-06	1.171152e-08	2.318661e+01	7.668689e+02
2.160000e-06	3.246756e-06	1.161311e-08	2.259893e+01	7.602120e+02
2.170000e-06	3.160905e-06	1.151763e-08	2.200136e+01	7.533630e+02
2.180000e-06	3.073873e-06	1.140471e-08	2.139558e+01	7.463865e+02
2.190000e-06	2.985858e-06	1.129924e-08	2.078295e+01	7.393186e+02
2.200000e-06	2.896914e-06	1.118087e-08	2.016387e+01	7.321490e+02
2.210000e-06	2.807000e-06	1.106632e-08	1.953802e+01	7.248224e+02
2.220000e-06	2.716195e-06	1.095191e-08	1.890598e+01	7.172604e+02
2.230000e-06	2.624526e-06	1.083894e-08	1.826792e+01	7.093934e+02
2.240000e-06	2.531834e-06	1.071305e-08	1.762274e+01	7.011891e+02
2.250000e-06	2.438064e-06	1.058132e-08	1.697006e+01	6.926656e+02
2.260000e-06	2.343325e-06	1.044569e-08	1.631063e+01	6.838807e+02
2.270000e-06	2.247795e-06	1.031005e-08	1.564569e+01	6.749028e+02
2.280000e-06	2.151533e-06	1.016964e-08	1.497567e+01	6.657754e+02
2.290000e-06	2.054583e-06	1.002255e-08	1.430085e+01	6.564896e+02
2.300000e-06	1.956938e-06	9.880340e-09	1.362120e+01	6.469794e+02
2.310000e-06	1.858666e-06	9.734867e-09	1.293718e+01	6.371416e+02
2.320000e-06	1.759846e-06	9.583554e-09	1.224934e+01	6.268732e+02
2.330000e-06	1.660470e-06	9.415049e-09	1.155764e+01	6.161121e+02
2.340000e-06	1.560614e-06	9.242230e-09	1.086260e+01	6.048607e+02
2.350000e-06	1.460197e-06	9.064452e-09	1.016365e+01	5.931832e+02
2.360000e-06	1.359053e-06	8.878895e-09	9.459641e+00	5.811744e+02
2.370000e-06	1.257251e-06	8.692372e-09	8.751049e+00	5.689128e+02
2.380000e-06	1.154905e-06	8.503435e-09	8.038678e+00	5.564169e+02
2.390000e-06	1.052091e-06	8.313316e-09	7.323044e+00	5.436245e+02
2.400000e-06	9.489592e-07	8.110870e-09	6.605196e+00	5.304058e+02
2.410000e-06	8.455008e-07	7.892585e-09	5.885077e+00	5.166059e+02
2.420000e-06	7.416817e-07	7.662892e-09	5.162449e+00	5.021007e+02
2.430000e-06	6.376333e-07	7.426415e-09	4.438223e+00	4.868428e+02
2.440000e-06	5.334504e-07	7.187004e-09	3.713062e+00	4.708749e+02
2.450000e-06	4.291265e-07	6.941880e-09	2.986919e+00	4.543039e+02
2.460000e-06	3.246626e-07	6.686077e-09	2.259802e+00	4.372427e+02
2.470000e-06	2.200979e-07	6.421351e-09	1.531984e+00	4.197431e+02
2.480000e-06	1.154554e-07	6.145204e-09	8.036228e-01	4.017490e+02
2.490000e-06	1.077112e-08	5.853411e-09	7.497197e-02	3.830909e+02
2.500000e-06	-9.393866e-08	5.544530e-09	-6.538566e-01	3.635290e+02
2.510000e-06	-1.986224e-07	5.223359e-09	-1.382504e+00	3.428282e+02
2.520000e-06	-3.032029e-07	4.893611e-09	-2.110432e+00	3.208333e+02
2.530000e-06	-4.076491e-07	4.549982e-09	-2.837427e+00	2.975088e+02
2.540000e-06	-5.119308e-07	4.183978e-09	-3.563276e+00	2.729157e+02
2.550000e-06	-6.160368e-07	3.792826e-09	-4.287901e+00	2.471248e+02
2.560000e-06	-7.199375e-07	3.381410e-09	-5.011099e+00	2.200899e+02
2.570000e-06	-8.235738e-07	2.943795e-09	-5.732455e+00	1.915293e+02
2.580000e-06	-9.269194e-07	2.468714e-09	-6.451789e+00	1.608680e+02
2.590000e-06	-1.029887e-06	1.951134e-09	-7.168493e+00	1.272804e+02
2.600000e-06	-1.132359e-06	1.384920e-09	-7.881743e+00	8.984346e+01
2.610000e-06	-1.234334e-06	7.582782e-10	-8.591537e+00	4.777191e+01
2.620000e-06	-1.335854e-06	5.699253e-11	-9.298165e+00	6.760581e-01
2.630000e-06	-1.436799e-06	-7.267523e-10	-1.000079e+01	-5.123304e+01
2.640000e-06	-1.537108e-06	-1.579336e-09	-1.069898e+01	-1.070568e+02
2.650000e-06	-1.636902e-06	-2.472401e-09	-1.139360e+01	-1.652764e+02
2.660000e-06	-1.736115e-06	-3.376745e-09	-1.208417e+01	-2.239664e+02
2.670000e-06	-1.834690e-06	-4.261910e-09	-1.277029e+01	-2.811044e+02
2.680000e-06	-1.932667e-06	-5.091645e-09	-1.345226e+01	-3.349003e+02
2.690000e-06	-2.030006e-06	-5.839502e-09	-1.412978e+01	-3.840620e+02
2.700000e-06	-2.126677e-06	-6.506751e-09	-1.480266e+01	-4.279371e+02
2.710000e-06	-2.222697e-06	-7.102330e-09	-1.547100e+01	-4.665069e+02
2.720000e-06	-2.318052e-06	-7.628522e-09	-1.613472e+01	-5.002494e+02
2.730000e-06	-2.412685e-06	-8.088507e-09	-1.679341e+01	-5.299254e+02
2.740000e-06	-2.506451e-06	-8.497460e-09	-1.744606e+01	-5.563533e+02
2.750000e-06	-2.599179e-06	-8.868378e-09	-1.809149e+01	-5.802330e+02
2.760000e-06	-2.690795e-06	-9.203914e-09	-1.872918e+01	-6.020565e+02
2.770000e-06	-2.781359e-06	-9.509920e-09	-1.935955e+01	-6.221073e+02
2.780000e-06	-2.870967e-06	-9.789435e-09	-1.998326e+01	-6.405260e+02
2.790000e-06	-2.959626e-06	-1.004560e-08	-2.060037e+01	-6.574001e+02
2.800000e-06	-3.047296e-06	-1.028373e-08	-2.121059e+01	-6.728404e+02
2.810000e-06	-3.133940e-06	-1.050403e-08	-2.181368e+01	-6.870148e+02
2.820000e-06	-3.219443e-06	-1.070708e-08	-2.240881e+01	-7.001378e+02
2.830000e-06	-3.303605e-06	-1.089698e-08	-2.299462e+01	-7.124275e+02
2.840000e-06	-3.386499e-06	-1.107639e-08	-2.357160e+01	-7.240572e+02
2.850000e-06	-3.468301e-06	-1.124740e-08	-2.414099e+01	-7.351224e+02
2.860000e-06	-3.549014e-06	-1.140810e-08	-2.470278e+01	-7.456401e+02
2.870000e-06	-3.628552e-06	-1.155655e-08	-2.525640e+01	-7.555761e+02
2.880000e-06	-3.706720e-06	-1.169506e-08	-2.580049e+01	-7.648878e+02
2.890000e-06	-3.783351e-06	-1.182699e-08	-2.633388e+01	-7.735642e+02
2.900000e-06	-3.858402e-06	-1.195193e-08	-2.685626e+01	-7.816457e+02
2.910000e-06	-3.931971e-06	-1.206813e-08	-2.736834e+01	-7.892187e+02
2.920000e-06	-4.004231e-06	-1.217637e-08	-2.787130e+01	-7.963899e+02
2.930000e-06	-4.075188e-06	-1.228049e-08	-2.836520e+01	-8.032523e+02
2.940000e-06	-4.144598e-06	-1.238466e-08	-2.884833e+01	-8.098600e+02
