# Temperatura_=_26.83
# Concentracion g/m^3_=_13400.0
# C_Vs_to_Am_M_A/Vsm_=_65563218390.804596
# pendiente_HvsI_1/m_=_3716.3
# ordenada_HvsI_A/m_=_1297.0
# frecuencia_Hz_=_300804.07932324236

Tiempo_(s)	Campo_(V.s)	Magnetizacion_(V.s)	Campo_(kA/m)	Magnetizacion_(A/m)
0.000000e+00	-5.513774e-06	-1.402283e-08	-3.830913e+01	-9.194922e+02
1.000000e-08	-5.512285e-06	-1.401989e-08	-3.829878e+01	-9.192297e+02
2.000000e-08	-5.508819e-06	-1.401593e-08	-3.827470e+01	-9.189218e+02
3.000000e-08	-5.503584e-06	-1.401202e-08	-3.823833e+01	-9.185521e+02
4.000000e-08	-5.496740e-06	-1.400776e-08	-3.819078e+01	-9.180906e+02
5.000000e-08	-5.488232e-06	-1.399756e-08	-3.813167e+01	-9.175030e+02
6.000000e-08	-5.477782e-06	-1.398200e-08	-3.805906e+01	-9.167600e+02
7.000000e-08	-5.465220e-06	-1.396412e-08	-3.797178e+01	-9.158451e+02
8.000000e-08	-5.450619e-06	-1.394232e-08	-3.787033e+01	-9.147588e+02
9.000000e-08	-5.433733e-06	-1.395573e-08	-3.775301e+01	-9.135201e+02
1.000000e-07	-5.414525e-06	-1.397103e-08	-3.761956e+01	-9.121628e+02
1.100000e-07	-5.393319e-06	-1.392119e-08	-3.747221e+01	-9.107292e+02
1.200000e-07	-5.370286e-06	-1.387525e-08	-3.731219e+01	-9.092604e+02
1.300000e-07	-5.345697e-06	-1.383525e-08	-3.714135e+01	-9.077866e+02
1.400000e-07	-5.319632e-06	-1.376253e-08	-3.696025e+01	-9.063178e+02
1.500000e-07	-5.291756e-06	-1.380832e-08	-3.676657e+01	-9.048399e+02
1.600000e-07	-5.262098e-06	-1.379038e-08	-3.656051e+01	-9.033155e+02
1.700000e-07	-5.230901e-06	-1.369298e-08	-3.634375e+01	-9.016915e+02
1.800000e-07	-5.197864e-06	-1.375648e-08	-3.611421e+01	-8.999118e+02
1.900000e-07	-5.162748e-06	-1.370822e-08	-3.587024e+01	-8.979310e+02
2.000000e-07	-5.125974e-06	-1.361451e-08	-3.561473e+01	-8.957252e+02
2.100000e-07	-5.087560e-06	-1.360704e-08	-3.534783e+01	-8.932973e+02
2.200000e-07	-5.047319e-06	-1.350451e-08	-3.506824e+01	-8.906729e+02
2.300000e-07	-5.005177e-06	-1.347332e-08	-3.477545e+01	-8.878909e+02
2.400000e-07	-4.961001e-06	-1.350046e-08	-3.446852e+01	-8.849898e+02
2.500000e-07	-4.915031e-06	-1.345169e-08	-3.414913e+01	-8.819955e+02
2.600000e-07	-4.867293e-06	-1.342637e-08	-3.381744e+01	-8.789163e+02
2.700000e-07	-4.817513e-06	-1.335615e-08	-3.347158e+01	-8.757434e+02
2.800000e-07	-4.765676e-06	-1.328573e-08	-3.311142e+01	-8.724591e+02
2.900000e-07	-4.711924e-06	-1.322193e-08	-3.273795e+01	-8.690476e+02
3.000000e-07	-4.656449e-06	-1.314401e-08	-3.235252e+01	-8.655024e+02
3.100000e-07	-4.599348e-06	-1.310535e-08	-3.195579e+01	-8.618292e+02
3.200000e-07	-4.540461e-06	-1.306978e-08	-3.154665e+01	-8.580410e+02
3.300000e-07	-4.479905e-06	-1.305292e-08	-3.112591e+01	-8.541491e+02
3.400000e-07	-4.417851e-06	-1.298264e-08	-3.069477e+01	-8.501541e+02
3.500000e-07	-4.354329e-06	-1.288857e-08	-3.025342e+01	-8.460410e+02
3.600000e-07	-4.289346e-06	-1.281668e-08	-2.980193e+01	-8.417822e+02
3.700000e-07	-4.222709e-06	-1.272838e-08	-2.933894e+01	-8.373470e+02
3.800000e-07	-4.154360e-06	-1.266872e-08	-2.886406e+01	-8.327139e+02
3.900000e-07	-4.084475e-06	-1.260393e-08	-2.837850e+01	-8.278808e+02
4.000000e-07	-4.013264e-06	-1.253142e-08	-2.788374e+01	-8.228668e+02
4.100000e-07	-3.940758e-06	-1.246953e-08	-2.737997e+01	-8.177054e+02
4.200000e-07	-3.866788e-06	-1.238614e-08	-2.686604e+01	-8.124304e+02
4.300000e-07	-3.791145e-06	-1.229887e-08	-2.634048e+01	-8.070601e+02
4.400000e-07	-3.713876e-06	-1.220087e-08	-2.580362e+01	-8.015875e+02
4.500000e-07	-3.635154e-06	-1.212272e-08	-2.525667e+01	-7.959796e+02
4.600000e-07	-3.554916e-06	-1.204044e-08	-2.469919e+01	-7.901888e+02
4.700000e-07	-3.473243e-06	-1.194186e-08	-2.413173e+01	-7.841707e+02
4.800000e-07	-3.390357e-06	-1.184822e-08	-2.355585e+01	-7.779010e+02
4.900000e-07	-3.306383e-06	-1.174522e-08	-2.297241e+01	-7.713855e+02
5.000000e-07	-3.221449e-06	-1.164921e-08	-2.238229e+01	-7.646574e+02
5.100000e-07	-3.135520e-06	-1.154201e-08	-2.178527e+01	-7.577614e+02
5.200000e-07	-3.048631e-06	-1.143437e-08	-2.118157e+01	-7.507338e+02
5.300000e-07	-2.960805e-06	-1.132969e-08	-2.057137e+01	-7.435833e+02
5.400000e-07	-2.871961e-06	-1.121983e-08	-1.995409e+01	-7.362840e+02
5.500000e-07	-2.782090e-06	-1.110547e-08	-1.932967e+01	-7.287825e+02
5.600000e-07	-2.691030e-06	-1.098385e-08	-1.869700e+01	-7.210176e+02
5.700000e-07	-2.598849e-06	-1.085841e-08	-1.805653e+01	-7.129437e+02
5.800000e-07	-2.505823e-06	-1.072763e-08	-1.741020e+01	-7.045492e+02
5.900000e-07	-2.411986e-06	-1.059912e-08	-1.675823e+01	-6.958602e+02
6.000000e-07	-2.317346e-06	-1.046881e-08	-1.610068e+01	-6.869274e+02
6.100000e-07	-2.221936e-06	-1.033347e-08	-1.543778e+01	-6.778012e+02
6.200000e-07	-2.125777e-06	-1.019160e-08	-1.476968e+01	-6.685046e+02
6.300000e-07	-2.028868e-06	-1.004316e-08	-1.409637e+01	-6.590168e+02
6.400000e-07	-1.931153e-06	-9.892520e-09	-1.341745e+01	-6.492736e+02
6.500000e-07	-1.832578e-06	-9.735580e-09	-1.273256e+01	-6.391876e+02
6.600000e-07	-1.733216e-06	-9.570020e-09	-1.204221e+01	-6.286794e+02
6.700000e-07	-1.633210e-06	-9.399703e-09	-1.134737e+01	-6.177073e+02
6.800000e-07	-1.532628e-06	-9.228403e-09	-1.064854e+01	-6.062814e+02
6.900000e-07	-1.431536e-06	-9.053271e-09	-9.946163e+00	-5.944571e+02
7.000000e-07	-1.329992e-06	-8.872216e-09	-9.240644e+00	-5.823063e+02
7.100000e-07	-1.228021e-06	-8.683255e-09	-8.532163e+00	-5.698796e+02
7.200000e-07	-1.125631e-06	-8.487340e-09	-7.820766e+00	-5.571745e+02
7.300000e-07	-1.022831e-06	-8.288783e-09	-7.106522e+00	-5.441241e+02
7.400000e-07	-9.196987e-07	-8.083858e-09	-6.389971e+00	-5.306123e+02
7.500000e-07	-8.162679e-07	-7.866005e-09	-5.671344e+00	-5.165115e+02
7.600000e-07	-7.125277e-07	-7.636118e-09	-4.950568e+00	-5.017280e+02
7.700000e-07	-6.085337e-07	-7.401490e-09	-4.228029e+00	-4.862342e+02
7.800000e-07	-5.043119e-07	-7.160812e-09	-3.503907e+00	-4.700743e+02
7.900000e-07	-3.999888e-07	-6.909014e-09	-2.779081e+00	-4.533364e+02
8.000000e-07	-2.955683e-07	-6.647198e-09	-2.053578e+00	-4.361017e+02
8.100000e-07	-1.909921e-07	-6.377810e-09	-1.326993e+00	-4.183897e+02
8.200000e-07	-8.635387e-08	-6.098794e-09	-5.999777e-01	-4.001243e+02
8.300000e-07	1.828514e-08	-5.806343e-09	1.270433e-01	-3.811368e+02
8.400000e-07	1.229229e-07	-5.496553e-09	8.540558e-01	-3.612083e+02
8.500000e-07	2.275631e-07	-5.171180e-09	1.581084e+00	-3.401357e+02
8.600000e-07	3.321266e-07	-4.833637e-09	2.307581e+00	-3.177941e+02
8.700000e-07	4.365884e-07	-4.481638e-09	3.033370e+00	-2.941620e+02
8.800000e-07	5.409079e-07	-4.106639e-09	3.758172e+00	-2.692922e+02
8.900000e-07	6.450749e-07	-3.705557e-09	4.481913e+00	-2.432265e+02
9.000000e-07	7.490457e-07	-3.284311e-09	5.204291e+00	-2.158799e+02
9.100000e-07	8.526945e-07	-2.838261e-09	5.924432e+00	-1.869378e+02
9.200000e-07	9.559936e-07	-2.356535e-09	6.642144e+00	-1.558129e+02
9.300000e-07	1.058988e-06	-1.826767e-09	7.357738e+00	-1.216957e+02
9.400000e-07	1.161647e-06	-1.243439e-09	8.071005e+00	-8.370571e+01
9.500000e-07	1.263886e-06	-6.022061e-10	8.781351e+00	-4.111503e+01
9.600000e-07	1.365654e-06	1.115785e-10	9.488422e+00	6.410626e+00
9.700000e-07	1.466933e-06	9.077754e-10	1.019210e+01	5.862305e+01
9.800000e-07	1.567782e-06	1.772900e-09	1.089279e+01	1.146150e+02
9.900000e-07	1.668214e-06	2.674034e-09	1.159058e+01	1.728886e+02
1.000000e-06	1.768101e-06	3.577102e-09	1.228458e+01	2.315610e+02
1.010000e-06	1.867240e-06	4.449515e-09	1.297339e+01	2.886606e+02
1.020000e-06	1.965521e-06	5.262272e-09	1.365624e+01	3.424422e+02
1.030000e-06	2.062958e-06	5.995977e-09	1.433322e+01	3.916429e+02
1.040000e-06	2.159596e-06	6.649583e-09	1.500465e+01	4.356206e+02
1.050000e-06	2.255442e-06	7.232226e-09	1.567058e+01	4.743511e+02
1.060000e-06	2.350514e-06	7.749651e-09	1.633113e+01	5.082986e+02
1.070000e-06	2.444824e-06	8.206794e-09	1.698638e+01	5.382090e+02
1.080000e-06	2.538395e-06	8.612601e-09	1.763651e+01	5.648899e+02
1.090000e-06	2.631238e-06	8.981418e-09	1.828157e+01	5.890349e+02
1.100000e-06	2.723204e-06	9.318829e-09	1.892054e+01	6.111321e+02
1.110000e-06	2.814032e-06	9.623306e-09	1.955160e+01	6.314596e+02
1.120000e-06	2.903643e-06	9.898023e-09	2.017421e+01	6.501490e+02
1.130000e-06	2.992175e-06	1.015087e-08	2.078932e+01	6.672771e+02
1.140000e-06	3.079711e-06	1.038853e-08	2.139751e+01	6.829445e+02
1.150000e-06	3.166247e-06	1.061002e-08	2.199875e+01	6.973146e+02
1.160000e-06	3.251749e-06	1.081317e-08	2.259281e+01	7.106056e+02
1.170000e-06	3.336214e-06	1.100267e-08	2.317967e+01	7.230471e+02
1.180000e-06	3.419531e-06	1.118381e-08	2.375855e+01	7.348273e+02
1.190000e-06	3.501644e-06	1.135643e-08	2.432905e+01	7.460545e+02
1.200000e-06	3.582510e-06	1.151783e-08	2.489091e+01	7.567500e+02
1.210000e-06	3.662042e-06	1.166832e-08	2.544349e+01	7.668735e+02
1.220000e-06	3.740265e-06	1.181244e-08	2.598697e+01	7.763680e+02
1.230000e-06	3.817163e-06	1.194748e-08	2.652125e+01	7.852054e+02
1.240000e-06	3.892557e-06	1.207279e-08	2.704508e+01	7.934139e+02
1.250000e-06	3.966306e-06	1.219128e-08	2.755748e+01	8.010780e+02
1.260000e-06	4.038582e-06	1.230297e-08	2.805965e+01	8.083140e+02
1.270000e-06	4.109513e-06	1.240907e-08	2.855247e+01	8.152328e+02
1.280000e-06	4.179048e-06	1.250950e-08	2.903559e+01	8.219068e+02
1.290000e-06	4.247119e-06	1.260632e-08	2.950854e+01	8.283550e+02
1.300000e-06	4.313527e-06	1.270026e-08	2.996993e+01	8.345502e+02
1.310000e-06	4.378309e-06	1.279003e-08	3.042004e+01	8.404450e+02
1.320000e-06	4.441612e-06	1.287468e-08	3.085986e+01	8.460036e+02
1.330000e-06	4.503467e-06	1.295328e-08	3.128962e+01	8.512253e+02
1.340000e-06	4.563955e-06	1.302792e-08	3.170989e+01	8.561513e+02
1.350000e-06	4.622792e-06	1.310175e-08	3.211868e+01	8.608513e+02
1.360000e-06	4.679797e-06	1.317334e-08	3.251474e+01	8.653968e+02
1.370000e-06	4.735096e-06	1.324095e-08	3.289896e+01	8.698343e+02
1.380000e-06	4.788690e-06	1.330559e-08	3.327132e+01	8.741672e+02
1.390000e-06	4.840348e-06	1.336868e-08	3.363023e+01	8.783570e+02
1.400000e-06	4.889934e-06	1.342891e-08	3.397475e+01	8.823403e+02
1.410000e-06	4.937672e-06	1.348468e-08	3.430643e+01	8.860557e+02
1.420000e-06	4.983787e-06	1.353559e-08	3.462683e+01	8.894696e+02
1.430000e-06	5.028284e-06	1.358310e-08	3.493599e+01	8.925892e+02
1.440000e-06	5.070899e-06	1.362914e-08	3.523208e+01	8.954601e+02
1.450000e-06	5.111611e-06	1.367251e-08	3.551494e+01	8.981476e+02
1.460000e-06	5.150569e-06	1.371175e-08	3.578562e+01	9.007125e+02
1.470000e-06	5.187870e-06	1.374858e-08	3.604478e+01	9.031883e+02
1.480000e-06	5.223436e-06	1.378515e-08	3.629189e+01	9.055718e+02
1.490000e-06	5.256992e-06	1.381987e-08	3.652503e+01	9.078275e+02
1.500000e-06	5.288649e-06	1.385025e-08	3.674498e+01	9.099051e+02
1.510000e-06	5.318649e-06	1.387787e-08	3.695342e+01	9.117622e+02
1.520000e-06	5.346908e-06	1.390392e-08	3.714976e+01	9.133826e+02
1.530000e-06	5.373082e-06	1.392698e-08	3.733161e+01	9.147836e+02
1.540000e-06	5.397205e-06	1.394887e-08	3.749922e+01	9.160104e+02
1.550000e-06	5.419537e-06	1.396850e-08	3.765438e+01	9.171193e+02
1.560000e-06	5.440145e-06	1.398425e-08	3.779756e+01	9.181579e+02
1.570000e-06	5.458887e-06	1.399863e-08	3.792778e+01	9.191493e+02
1.580000e-06	5.475550e-06	1.401381e-08	3.804355e+01	9.200855e+02
1.590000e-06	5.490156e-06	1.402907e-08	3.814503e+01	9.209332e+02
1.600000e-06	5.502683e-06	1.404363e-08	3.823207e+01	9.216474e+02
1.610000e-06	5.512977e-06	1.405426e-08	3.830359e+01	9.221883e+02
1.620000e-06	5.521217e-06	1.406061e-08	3.836084e+01	9.225359e+02
1.630000e-06	5.527654e-06	1.406555e-08	3.840556e+01	9.226954e+02
1.640000e-06	5.532288e-06	1.406782e-08	3.843776e+01	9.226947e+02
1.650000e-06	5.534903e-06	1.406780e-08	3.845593e+01	9.225743e+02
1.660000e-06	5.535489e-06	1.406772e-08	3.846000e+01	9.223743e+02
1.670000e-06	5.534286e-06	1.406355e-08	3.845164e+01	9.221221e+02
1.680000e-06	5.531394e-06	1.405703e-08	3.843155e+01	9.218257e+02
1.690000e-06	5.526623e-06	1.405242e-08	3.839840e+01	9.214732e+02
1.700000e-06	5.519883e-06	1.404717e-08	3.835157e+01	9.210371e+02
1.710000e-06	5.511441e-06	1.404129e-08	3.829291e+01	9.204834e+02
1.720000e-06	5.501331e-06	1.403293e-08	3.822267e+01	9.197808e+02
1.730000e-06	5.489313e-06	1.402382e-08	3.813917e+01	9.189088e+02
1.740000e-06	5.475260e-06	1.400938e-08	3.804153e+01	9.178636e+02
1.750000e-06	5.459238e-06	1.393098e-08	3.793021e+01	9.166596e+02
1.760000e-06	5.440747e-06	1.390173e-08	3.780175e+01	9.153275e+02
1.770000e-06	5.419372e-06	1.392085e-08	3.765323e+01	9.139082e+02
1.780000e-06	5.395810e-06	1.391667e-08	3.748952e+01	9.124441e+02
1.790000e-06	5.371085e-06	1.396846e-08	3.731774e+01	9.109690e+02
1.800000e-06	5.345551e-06	1.387122e-08	3.714033e+01	9.094986e+02
1.810000e-06	5.318358e-06	1.378839e-08	3.695139e+01	9.080250e+02
1.820000e-06	5.288782e-06	1.388332e-08	3.674590e+01	9.065160e+02
1.830000e-06	5.257535e-06	1.378729e-08	3.652881e+01	9.049216e+02
1.840000e-06	5.224655e-06	1.376080e-08	3.630036e+01	9.031850e+02
1.850000e-06	5.189894e-06	1.382431e-08	3.605884e+01	9.012570e+02
1.860000e-06	5.153465e-06	1.369476e-08	3.580574e+01	8.991076e+02
1.870000e-06	5.114939e-06	1.373332e-08	3.553806e+01	8.967328e+02
1.880000e-06	5.074499e-06	1.372545e-08	3.525709e+01	8.941536e+02
1.890000e-06	5.032571e-06	1.358216e-08	3.496578e+01	8.914065e+02
1.900000e-06	4.988793e-06	1.359150e-08	3.466161e+01	8.885313e+02
1.910000e-06	4.943181e-06	1.347376e-08	3.434471e+01	8.855581e+02
1.920000e-06	4.895724e-06	1.344888e-08	3.401498e+01	8.824997e+02
1.930000e-06	4.846376e-06	1.347428e-08	3.367211e+01	8.793510e+02
1.940000e-06	4.795319e-06	1.335663e-08	3.331738e+01	8.760956e+02
1.950000e-06	4.742139e-06	1.338755e-08	3.294789e+01	8.727163e+02
1.960000e-06	4.687090e-06	1.329133e-08	3.256541e+01	8.692037e+02
1.970000e-06	4.630453e-06	1.319767e-08	3.217190e+01	8.655607e+02
1.980000e-06	4.572137e-06	1.314486e-08	3.176673e+01	8.617993e+02
1.990000e-06	4.512334e-06	1.303944e-08	3.135123e+01	8.579320e+02
2.000000e-06	4.450770e-06	1.306833e-08	3.092349e+01	8.539629e+02
2.010000e-06	4.387534e-06	1.298078e-08	3.048413e+01	8.498809e+02
2.020000e-06	4.322797e-06	1.294078e-08	3.003434e+01	8.456608e+02
2.030000e-06	4.256566e-06	1.288363e-08	2.957418e+01	8.412715e+02
2.040000e-06	4.188871e-06	1.275623e-08	2.910384e+01	8.366883e+02
2.050000e-06	4.119351e-06	1.271961e-08	2.862082e+01	8.319035e+02
2.060000e-06	4.048222e-06	1.259194e-08	2.812662e+01	8.269312e+02
2.070000e-06	3.975806e-06	1.254403e-08	2.762348e+01	8.218026e+02
2.080000e-06	3.902076e-06	1.247453e-08	2.711121e+01	8.165527e+02
2.090000e-06	3.826788e-06	1.239532e-08	2.658812e+01	8.112051e+02
2.100000e-06	3.749690e-06	1.233785e-08	2.605245e+01	8.057595e+02
2.110000e-06	3.671060e-06	1.220771e-08	2.550614e+01	8.001889e+02
2.120000e-06	3.591214e-06	1.213939e-08	2.495138e+01	7.944478e+02
2.130000e-06	3.510221e-06	1.202523e-08	2.438865e+01	7.884892e+02
2.140000e-06	3.428099e-06	1.193857e-08	2.381808e+01	7.822823e+02
2.150000e-06	3.344900e-06	1.184945e-08	2.324002e+01	7.758254e+02
2.160000e-06	3.260403e-06	1.174321e-08	2.265294e+01	7.691456e+02
2.170000e-06	3.174455e-06	1.165676e-08	2.205578e+01	7.622869e+02
2.180000e-06	3.087357e-06	1.153533e-08	2.145063e+01	7.552893e+02
2.190000e-06	2.999280e-06	1.143426e-08	2.083868e+01	7.481699e+02
2.200000e-06	2.910213e-06	1.131310e-08	2.021985e+01	7.409113e+02
2.210000e-06	2.820212e-06	1.119344e-08	1.959454e+01	7.334656e+02
2.220000e-06	2.729359e-06	1.107684e-08	1.896330e+01	7.257711e+02
2.230000e-06	2.637577e-06	1.095945e-08	1.832561e+01	7.177763e+02
2.240000e-06	2.544702e-06	1.083824e-08	1.768032e+01	7.094602e+02
2.250000e-06	2.450768e-06	1.070103e-08	1.702768e+01	7.008400e+02
2.260000e-06	2.355896e-06	1.056396e-08	1.636852e+01	6.919622e+02
2.270000e-06	2.260262e-06	1.042515e-08	1.570407e+01	6.828800e+02
2.280000e-06	2.163897e-06	1.028739e-08	1.503453e+01	6.736255e+02
2.290000e-06	2.066809e-06	1.014016e-08	1.435998e+01	6.641893e+02
2.300000e-06	1.969095e-06	9.992258e-09	1.368106e+01	6.545170e+02
2.310000e-06	1.870780e-06	9.842078e-09	1.299799e+01	6.445243e+02
2.320000e-06	1.771905e-06	9.689273e-09	1.231101e+01	6.341268e+02
2.330000e-06	1.672519e-06	9.522683e-09	1.162049e+01	6.232711e+02
2.340000e-06	1.572599e-06	9.346376e-09	1.092625e+01	6.119542e+02
2.350000e-06	1.472014e-06	9.167926e-09	1.022740e+01	6.002221e+02
2.360000e-06	1.370720e-06	8.983201e-09	9.523621e+00	5.881460e+02
2.370000e-06	1.268767e-06	8.798115e-09	8.815262e+00	5.757853e+02
2.380000e-06	1.166284e-06	8.604514e-09	8.103218e+00	5.631530e+02
2.390000e-06	1.063396e-06	8.406632e-09	7.388364e+00	5.501977e+02
2.400000e-06	9.601652e-07	8.202168e-09	6.671128e+00	5.368128e+02
2.410000e-06	8.565951e-07	7.986531e-09	5.951534e+00	5.228694e+02
2.420000e-06	7.527024e-07	7.758693e-09	5.229698e+00	5.082614e+02
2.430000e-06	6.485472e-07	7.519178e-09	4.506039e+00	4.929429e+02
2.440000e-06	5.441808e-07	7.277254e-09	3.780912e+00	4.769415e+02
2.450000e-06	4.396582e-07	7.033854e-09	3.054700e+00	4.603386e+02
2.460000e-06	3.350089e-07	6.779500e-09	2.327607e+00	4.432223e+02
2.470000e-06	2.302550e-07	6.510174e-09	1.599788e+00	4.256320e+02
2.480000e-06	1.254258e-07	6.228518e-09	8.714457e-01	4.075170e+02
2.490000e-06	2.059304e-08	5.936954e-09	1.430783e-01	3.887289e+02
2.500000e-06	-8.425556e-08	5.631034e-09	-5.853988e-01	3.690558e+02
2.510000e-06	-1.891133e-07	5.308728e-09	-1.313940e+00	3.482842e+02
2.520000e-06	-2.939027e-07	4.973922e-09	-2.042006e+00	3.262651e+02
2.530000e-06	-3.985906e-07	4.628756e-09	-2.769366e+00	3.029518e+02
2.540000e-06	-5.030884e-07	4.267271e-09	-3.495406e+00	2.783846e+02
2.550000e-06	-6.073765e-07	3.879713e-09	-4.219988e+00	2.526181e+02
2.560000e-06	-7.114419e-07	3.464437e-09	-4.943024e+00	2.256102e+02
2.570000e-06	-8.152172e-07	3.022795e-09	-5.664044e+00	1.971107e+02
2.580000e-06	-9.187033e-07	2.552559e-09	-6.383055e+00	1.665999e+02
2.590000e-06	-1.021893e-06	2.044116e-09	-7.100009e+00	1.333133e+02
2.600000e-06	-1.124725e-06	1.484297e-09	-7.814469e+00	9.636924e+01
2.610000e-06	-1.227122e-06	8.629714e-10	-8.525914e+00	5.497862e+01
2.620000e-06	-1.328950e-06	1.724331e-10	-9.233407e+00	8.687839e+00
2.630000e-06	-1.430142e-06	-5.962651e-10	-9.936475e+00	-4.241291e+01
2.640000e-06	-1.530673e-06	-1.440083e-09	-1.063496e+01	-9.758060e+01
2.650000e-06	-1.630599e-06	-2.334969e-09	-1.132923e+01	-1.554506e+02
2.660000e-06	-1.729985e-06	-3.243212e-09	-1.201976e+01	-2.142108e+02
2.670000e-06	-1.828750e-06	-4.129224e-09	-1.270597e+01	-2.718819e+02
2.680000e-06	-1.926928e-06	-4.966956e-09	-1.338810e+01	-3.266343e+02
2.690000e-06	-2.024522e-06	-5.735945e-09	-1.406616e+01	-3.770664e+02
2.700000e-06	-2.121439e-06	-6.426462e-09	-1.473954e+01	-4.223756e+02
2.710000e-06	-2.217626e-06	-7.040956e-09	-1.540783e+01	-4.623910e+02
2.720000e-06	-2.313136e-06	-7.585876e-09	-1.607142e+01	-4.974721e+02
2.730000e-06	-2.408042e-06	-8.066924e-09	-1.673082e+01	-5.283157e+02
2.740000e-06	-2.502128e-06	-8.491800e-09	-1.738452e+01	-5.557329e+02
2.750000e-06	-2.595111e-06	-8.870388e-09	-1.803056e+01	-5.804581e+02
2.760000e-06	-2.686956e-06	-9.212802e-09	-1.866869e+01	-6.030344e+02
2.770000e-06	-2.777745e-06	-9.529750e-09	-1.929948e+01	-6.237883e+02
2.780000e-06	-2.867569e-06	-9.823484e-09	-1.992357e+01	-6.428802e+02
2.790000e-06	-2.956426e-06	-1.009216e-08	-2.054094e+01	-6.603919e+02
2.800000e-06	-3.044277e-06	-1.033706e-08	-2.115132e+01	-6.764125e+02
2.810000e-06	-3.131159e-06	-1.056336e-08	-2.175497e+01	-6.910888e+02
2.820000e-06	-3.216910e-06	-1.077448e-08	-2.235076e+01	-7.046282e+02
2.830000e-06	-3.301335e-06	-1.097089e-08	-2.293733e+01	-7.172627e+02
2.840000e-06	-3.384516e-06	-1.115394e-08	-2.351526e+01	-7.291952e+02
2.850000e-06	-3.466555e-06	-1.132629e-08	-2.408526e+01	-7.405562e+02
2.860000e-06	-3.547468e-06	-1.149066e-08	-2.464744e+01	-7.513873e+02
2.870000e-06	-3.627228e-06	-1.164588e-08	-2.520160e+01	-7.616600e+02
2.880000e-06	-3.705664e-06	-1.179047e-08	-2.574657e+01	-7.713169e+02
2.890000e-06	-3.782536e-06	-1.192546e-08	-2.628067e+01	-7.803191e+02
2.900000e-06	-3.857853e-06	-1.205361e-08	-2.680396e+01	-7.886795e+02
2.910000e-06	-3.931767e-06	-1.217604e-08	-2.731751e+01	-7.964702e+02
2.920000e-06	-4.004305e-06	-1.229023e-08	-2.782149e+01	-8.038026e+02
2.930000e-06	-4.075469e-06	-1.239636e-08	-2.831593e+01	-8.107927e+02
2.940000e-06	-4.145155e-06	-1.249966e-08	-2.880011e+01	-8.175247e+02
