# Temperatura_=_54.64
# Concentracion g/m^3_=_13400.0
# C_Vs_to_Am_M_A/Vsm_=_65563218390.804596
# pendiente_HvsI_1/m_=_3716.3
# ordenada_HvsI_A/m_=_1297.0
# frecuencia_Hz_=_300800.1609686498

Tiempo_(s)	Campo_(V.s)	Magnetizacion_(V.s)	Campo_(kA/m)	Magnetizacion_(A/m)
0.000000e+00	-5.500369e-06	-1.427294e-08	-3.830722e+01	-9.368257e+02
1.000000e-08	-5.498333e-06	-1.426400e-08	-3.829304e+01	-9.365470e+02
2.000000e-08	-5.494351e-06	-1.425630e-08	-3.826531e+01	-9.361596e+02
3.000000e-08	-5.488586e-06	-1.425244e-08	-3.822516e+01	-9.356696e+02
4.000000e-08	-5.481187e-06	-1.424579e-08	-3.817363e+01	-9.350814e+02
5.000000e-08	-5.472124e-06	-1.423234e-08	-3.811051e+01	-9.343924e+02
6.000000e-08	-5.461139e-06	-1.421475e-08	-3.803401e+01	-9.335898e+02
7.000000e-08	-5.448088e-06	-1.419774e-08	-3.794311e+01	-9.326542e+02
8.000000e-08	-5.432925e-06	-1.419135e-08	-3.783751e+01	-9.315675e+02
9.000000e-08	-5.415361e-06	-1.419530e-08	-3.771519e+01	-9.303236e+02
1.000000e-07	-5.395514e-06	-1.418217e-08	-3.757696e+01	-9.289360e+02
1.100000e-07	-5.373774e-06	-1.414295e-08	-3.742555e+01	-9.274383e+02
1.200000e-07	-5.350303e-06	-1.409751e-08	-3.726209e+01	-9.258743e+02
1.300000e-07	-5.325355e-06	-1.405899e-08	-3.708834e+01	-9.242828e+02
1.400000e-07	-5.298863e-06	-1.402886e-08	-3.690384e+01	-9.226802e+02
1.500000e-07	-5.270479e-06	-1.402196e-08	-3.670616e+01	-9.210500e+02
1.600000e-07	-5.240322e-06	-1.399373e-08	-3.649613e+01	-9.193436e+02
1.700000e-07	-5.208560e-06	-1.395898e-08	-3.627492e+01	-9.174935e+02
1.800000e-07	-5.174940e-06	-1.395348e-08	-3.604078e+01	-9.154347e+02
1.900000e-07	-5.139349e-06	-1.391113e-08	-3.579291e+01	-9.131266e+02
2.000000e-07	-5.102090e-06	-1.385731e-08	-3.553342e+01	-9.105657e+02
2.100000e-07	-5.063135e-06	-1.380441e-08	-3.526211e+01	-9.077864e+02
2.200000e-07	-5.022378e-06	-1.374294e-08	-3.497826e+01	-9.048455e+02
2.300000e-07	-4.979683e-06	-1.371813e-08	-3.468092e+01	-9.018013e+02
2.400000e-07	-4.935050e-06	-1.369777e-08	-3.437007e+01	-8.986909e+02
2.500000e-07	-4.888722e-06	-1.365326e-08	-3.404741e+01	-8.955191e+02
2.600000e-07	-4.840595e-06	-1.360650e-08	-3.371224e+01	-8.922602e+02
2.700000e-07	-4.790482e-06	-1.355153e-08	-3.336322e+01	-8.888730e+02
2.800000e-07	-4.738269e-06	-1.349435e-08	-3.299959e+01	-8.853218e+02
2.900000e-07	-4.684089e-06	-1.341708e-08	-3.262225e+01	-8.815937e+02
3.000000e-07	-4.628236e-06	-1.334215e-08	-3.223327e+01	-8.777046e+02
3.100000e-07	-4.570699e-06	-1.329587e-08	-3.183255e+01	-8.736913e+02
3.200000e-07	-4.511374e-06	-1.326051e-08	-3.141938e+01	-8.695925e+02
3.300000e-07	-4.450456e-06	-1.322130e-08	-3.099512e+01	-8.654284e+02
3.400000e-07	-4.388050e-06	-1.314563e-08	-3.056050e+01	-8.611875e+02
3.500000e-07	-4.324209e-06	-1.305993e-08	-3.011588e+01	-8.568278e+02
3.600000e-07	-4.258838e-06	-1.298103e-08	-2.966060e+01	-8.522922e+02
3.700000e-07	-4.191678e-06	-1.290346e-08	-2.919287e+01	-8.475323e+02
3.800000e-07	-4.122857e-06	-1.283220e-08	-2.871357e+01	-8.425294e+02
3.900000e-07	-4.052615e-06	-1.275492e-08	-2.822437e+01	-8.373043e+02
4.000000e-07	-3.981076e-06	-1.268297e-08	-2.772614e+01	-8.319089e+02
4.100000e-07	-3.908269e-06	-1.261441e-08	-2.721907e+01	-8.264048e+02
4.200000e-07	-3.833975e-06	-1.252817e-08	-2.670165e+01	-8.208350e+02
4.300000e-07	-3.757980e-06	-1.242956e-08	-2.617239e+01	-8.152033e+02
4.400000e-07	-3.680417e-06	-1.233333e-08	-2.563220e+01	-8.094688e+02
4.500000e-07	-3.601387e-06	-1.225069e-08	-2.508179e+01	-8.035608e+02
4.600000e-07	-3.520857e-06	-1.215974e-08	-2.452095e+01	-7.974063e+02
4.700000e-07	-3.438916e-06	-1.205712e-08	-2.395027e+01	-7.909611e+02
4.800000e-07	-3.355779e-06	-1.195438e-08	-2.337126e+01	-7.842284e+02
4.900000e-07	-3.271619e-06	-1.185252e-08	-2.278513e+01	-7.772586e+02
5.000000e-07	-3.186504e-06	-1.175274e-08	-2.219235e+01	-7.701281e+02
5.100000e-07	-3.100461e-06	-1.163766e-08	-2.159310e+01	-7.629056e+02
5.200000e-07	-3.013434e-06	-1.151976e-08	-2.098701e+01	-7.556206e+02
5.300000e-07	-2.925399e-06	-1.140929e-08	-2.037389e+01	-7.482470e+02
5.400000e-07	-2.836407e-06	-1.129854e-08	-1.975411e+01	-7.407108e+02
5.500000e-07	-2.746361e-06	-1.117604e-08	-1.912698e+01	-7.329180e+02
5.600000e-07	-2.655133e-06	-1.104512e-08	-1.849163e+01	-7.247925e+02
5.700000e-07	-2.562860e-06	-1.091848e-08	-1.784899e+01	-7.163072e+02
5.800000e-07	-2.469765e-06	-1.079283e-08	-1.720064e+01	-7.074945e+02
5.900000e-07	-2.375914e-06	-1.065987e-08	-1.654701e+01	-6.984303e+02
6.000000e-07	-2.281227e-06	-1.051622e-08	-1.588757e+01	-6.891984e+02
6.100000e-07	-2.185723e-06	-1.036954e-08	-1.522243e+01	-6.798481e+02
6.200000e-07	-2.089491e-06	-1.022382e-08	-1.455223e+01	-6.703662e+02
6.300000e-07	-1.992542e-06	-1.007579e-08	-1.387703e+01	-6.606733e+02
6.400000e-07	-1.894854e-06	-9.921029e-09	-1.319668e+01	-6.506505e+02
6.500000e-07	-1.796345e-06	-9.759405e-09	-1.251061e+01	-6.401835e+02
6.600000e-07	-1.696996e-06	-9.593607e-09	-1.181870e+01	-6.292076e+02
6.700000e-07	-1.596969e-06	-9.422530e-09	-1.112206e+01	-6.177334e+02
6.800000e-07	-1.496405e-06	-9.242118e-09	-1.042169e+01	-6.058391e+02
6.900000e-07	-1.395338e-06	-9.055124e-09	-9.717808e+00	-5.936339e+02
7.000000e-07	-1.293807e-06	-8.868909e-09	-9.010698e+00	-5.812039e+02
7.100000e-07	-1.191907e-06	-8.680117e-09	-8.301013e+00	-5.685649e+02
7.200000e-07	-1.089636e-06	-8.481897e-09	-7.588750e+00	-5.556428e+02
7.300000e-07	-9.869954e-07	-8.274297e-09	-6.873912e+00	-5.422924e+02
7.400000e-07	-8.840046e-07	-8.058690e-09	-6.156635e+00	-5.283469e+02
7.500000e-07	-7.806786e-07	-7.834061e-09	-5.437022e+00	-5.136808e+02
7.600000e-07	-6.770686e-07	-7.600616e-09	-4.715432e+00	-4.982561e+02
7.700000e-07	-5.732617e-07	-7.358230e-09	-3.992471e+00	-4.821314e+02
7.800000e-07	-4.692820e-07	-7.108318e-09	-3.268306e+00	-4.654268e+02
7.900000e-07	-3.651243e-07	-6.851776e-09	-2.542902e+00	-4.482551e+02
8.000000e-07	-2.608678e-07	-6.583374e-09	-1.816809e+00	-4.306490e+02
8.100000e-07	-1.565275e-07	-6.299854e-09	-1.090133e+00	-4.125150e+02
8.200000e-07	-5.206408e-08	-6.004115e-09	-3.625994e-01	-3.936383e+02
8.300000e-07	5.244626e-08	-5.698301e-09	3.652610e-01	-3.737399e+02
8.400000e-07	1.569248e-07	-5.376844e-09	1.092900e+00	-3.525660e+02
8.500000e-07	2.613436e-07	-5.036340e-09	1.820123e+00	-3.299700e+02
8.600000e-07	3.656392e-07	-4.675189e-09	2.546488e+00	-3.059458e+02
8.700000e-07	4.698089e-07	-4.291501e-09	3.271976e+00	-2.805868e+02
8.800000e-07	5.738210e-07	-3.884475e-09	3.996366e+00	-2.539721e+02
8.900000e-07	6.775906e-07	-3.452998e-09	4.719068e+00	-2.260157e+02
9.000000e-07	7.811234e-07	-2.993377e-09	5.440120e+00	-1.963348e+02
9.100000e-07	8.844341e-07	-2.495427e-09	6.159625e+00	-1.642009e+02
9.200000e-07	9.874491e-07	-1.946148e-09	6.877072e+00	-1.286129e+02
9.300000e-07	1.090100e-06	-1.331061e-09	7.591985e+00	-8.849892e+01
9.400000e-07	1.192316e-06	-6.398190e-10	8.303864e+00	-4.300451e+01
9.500000e-07	1.294078e-06	1.355687e-10	9.012587e+00	8.207567e+00
9.600000e-07	1.395498e-06	9.984215e-10	9.718922e+00	6.473570e+01
9.700000e-07	1.496586e-06	1.934088e-09	1.042295e+01	1.253702e+02
9.800000e-07	1.597211e-06	2.905554e-09	1.112375e+01	1.882104e+02
9.900000e-07	1.697192e-06	3.867618e-09	1.182006e+01	2.509499e+02
1.000000e-06	1.796427e-06	4.783521e-09	1.251119e+01	3.112614e+02
1.010000e-06	1.894909e-06	5.626167e-09	1.319706e+01	3.671841e+02
1.020000e-06	1.992622e-06	6.375944e-09	1.387758e+01	4.174174e+02
1.030000e-06	2.089540e-06	7.026430e-09	1.455256e+01	4.614522e+02
1.040000e-06	2.185682e-06	7.591922e-09	1.522215e+01	4.995196e+02
1.050000e-06	2.281144e-06	8.091678e-09	1.588699e+01	5.323904e+02
1.060000e-06	2.375845e-06	8.534293e-09	1.654653e+01	5.610940e+02
1.070000e-06	2.469758e-06	8.926564e-09	1.720058e+01	5.866425e+02
1.080000e-06	2.562930e-06	9.277721e-09	1.784948e+01	6.098311e+02
1.090000e-06	2.655265e-06	9.598828e-09	1.849255e+01	6.311547e+02
1.100000e-06	2.746554e-06	9.895773e-09	1.912833e+01	6.508372e+02
1.110000e-06	2.836656e-06	1.016656e-08	1.975584e+01	6.689377e+02
1.120000e-06	2.925689e-06	1.041184e-08	2.037591e+01	6.854777e+02
1.130000e-06	3.013730e-06	1.063645e-08	2.098907e+01	7.005399e+02
1.140000e-06	3.100760e-06	1.084603e-08	2.159519e+01	7.143065e+02
1.150000e-06	3.186791e-06	1.104415e-08	2.219435e+01	7.270352e+02
1.160000e-06	3.271825e-06	1.122991e-08	2.278657e+01	7.389948e+02
1.170000e-06	3.355791e-06	1.140419e-08	2.337134e+01	7.503936e+02
1.180000e-06	3.438583e-06	1.157182e-08	2.394795e+01	7.613355e+02
1.190000e-06	3.520114e-06	1.173221e-08	2.451577e+01	7.718167e+02
1.200000e-06	3.600332e-06	1.187948e-08	2.507445e+01	7.817644e+02
1.210000e-06	3.679211e-06	1.201443e-08	2.562380e+01	7.910956e+02
1.220000e-06	3.756785e-06	1.214552e-08	2.616407e+01	7.997714e+02
1.230000e-06	3.833008e-06	1.227387e-08	2.669491e+01	8.078255e+02
1.240000e-06	3.907666e-06	1.239438e-08	2.721487e+01	8.153574e+02
1.250000e-06	3.980727e-06	1.250642e-08	2.772370e+01	8.224979e+02
1.260000e-06	4.052358e-06	1.261368e-08	2.822257e+01	8.293631e+02
1.270000e-06	4.122647e-06	1.271638e-08	2.871210e+01	8.360187e+02
1.280000e-06	4.191557e-06	1.281115e-08	2.919202e+01	8.424679e+02
1.290000e-06	4.258943e-06	1.289837e-08	2.966134e+01	8.486664e+02
1.300000e-06	4.324669e-06	1.298417e-08	3.011908e+01	8.545560e+02
1.310000e-06	4.388838e-06	1.307270e-08	3.056598e+01	8.601010e+02
1.320000e-06	4.451568e-06	1.315952e-08	3.100287e+01	8.653109e+02
1.330000e-06	4.512877e-06	1.323806e-08	3.142985e+01	8.702416e+02
1.340000e-06	4.572699e-06	1.330772e-08	3.184648e+01	8.749742e+02
1.350000e-06	4.630788e-06	1.337643e-08	3.225104e+01	8.795838e+02
1.360000e-06	4.687094e-06	1.344674e-08	3.264318e+01	8.841105e+02
1.370000e-06	4.741713e-06	1.351359e-08	3.302358e+01	8.885454e+02
1.380000e-06	4.794554e-06	1.357602e-08	3.339158e+01	8.928379e+02
1.390000e-06	4.845385e-06	1.363786e-08	3.374560e+01	8.969187e+02
1.400000e-06	4.894195e-06	1.369909e-08	3.408554e+01	9.007292e+02
1.410000e-06	4.941282e-06	1.375511e-08	3.441347e+01	9.042451e+02
1.420000e-06	4.986768e-06	1.380317e-08	3.473026e+01	9.074840e+02
1.430000e-06	5.030538e-06	1.384618e-08	3.503509e+01	9.104960e+02
1.440000e-06	5.072440e-06	1.388975e-08	3.532692e+01	9.133422e+02
1.450000e-06	5.112533e-06	1.393461e-08	3.560614e+01	9.160700e+02
1.460000e-06	5.150935e-06	1.397843e-08	3.587360e+01	9.186969e+02
1.470000e-06	5.187610e-06	1.401906e-08	3.612902e+01	9.212081e+02
1.480000e-06	5.222420e-06	1.405511e-08	3.637145e+01	9.235671e+02
1.490000e-06	5.255298e-06	1.408683e-08	3.660043e+01	9.257353e+02
1.500000e-06	5.286365e-06	1.411524e-08	3.681680e+01	9.276901e+02
1.510000e-06	5.315717e-06	1.414190e-08	3.702121e+01	9.294350e+02
1.520000e-06	5.343237e-06	1.416635e-08	3.721288e+01	9.309974e+02
1.530000e-06	5.368669e-06	1.418876e-08	3.739000e+01	9.324169e+02
1.540000e-06	5.392084e-06	1.421209e-08	3.755307e+01	9.337295e+02
1.550000e-06	5.413743e-06	1.423564e-08	3.770392e+01	9.349547e+02
1.560000e-06	5.433642e-06	1.425629e-08	3.784251e+01	9.360903e+02
1.570000e-06	5.451614e-06	1.427375e-08	3.796767e+01	9.371179e+02
1.580000e-06	5.467575e-06	1.428934e-08	3.807883e+01	9.380127e+02
1.590000e-06	5.481528e-06	1.430208e-08	3.817600e+01	9.387556e+02
1.600000e-06	5.493360e-06	1.431192e-08	3.825841e+01	9.393406e+02
1.610000e-06	5.502998e-06	1.432028e-08	3.832553e+01	9.397752e+02
1.620000e-06	5.510630e-06	1.432767e-08	3.837869e+01	9.400751e+02
1.630000e-06	5.516436e-06	1.433409e-08	3.841912e+01	9.402560e+02
1.640000e-06	5.520392e-06	1.433860e-08	3.844667e+01	9.403279e+02
1.650000e-06	5.522306e-06	1.434009e-08	3.846000e+01	9.402930e+02
1.660000e-06	5.522230e-06	1.433836e-08	3.845947e+01	9.401489e+02
1.670000e-06	5.520435e-06	1.433469e-08	3.844698e+01	9.398933e+02
1.680000e-06	5.516911e-06	1.433212e-08	3.842243e+01	9.395281e+02
1.690000e-06	5.511437e-06	1.432941e-08	3.838431e+01	9.390588e+02
1.700000e-06	5.504122e-06	1.432226e-08	3.833336e+01	9.384909e+02
1.710000e-06	5.495172e-06	1.431115e-08	3.827103e+01	9.378235e+02
1.720000e-06	5.484472e-06	1.430106e-08	3.819651e+01	9.370461e+02
1.730000e-06	5.471795e-06	1.428449e-08	3.810822e+01	9.361401e+02
1.740000e-06	5.457084e-06	1.425148e-08	3.800576e+01	9.350861e+02
1.750000e-06	5.440278e-06	1.420707e-08	3.788872e+01	9.338748e+02
1.760000e-06	5.420915e-06	1.419274e-08	3.775386e+01	9.325151e+02
1.770000e-06	5.398873e-06	1.420336e-08	3.760035e+01	9.310367e+02
1.780000e-06	5.374926e-06	1.420149e-08	3.743358e+01	9.294826e+02
1.790000e-06	5.349977e-06	1.417693e-08	3.725982e+01	9.278939e+02
1.800000e-06	5.324071e-06	1.412347e-08	3.707940e+01	9.262932e+02
1.810000e-06	5.296207e-06	1.409302e-08	3.688534e+01	9.246714e+02
1.820000e-06	5.266099e-06	1.409996e-08	3.667566e+01	9.229859e+02
1.830000e-06	5.234400e-06	1.409357e-08	3.645489e+01	9.211719e+02
1.840000e-06	5.200993e-06	1.407777e-08	3.622222e+01	9.191617e+02
1.850000e-06	5.165810e-06	1.403039e-08	3.597719e+01	9.169079e+02
1.860000e-06	5.128824e-06	1.398676e-08	3.571961e+01	9.143988e+02
1.870000e-06	5.089771e-06	1.397364e-08	3.544762e+01	9.116612e+02
1.880000e-06	5.048974e-06	1.391107e-08	3.516349e+01	9.087491e+02
1.890000e-06	5.006505e-06	1.385237e-08	3.486772e+01	9.057222e+02
1.900000e-06	4.962173e-06	1.380935e-08	3.455897e+01	9.026237e+02
1.910000e-06	4.916106e-06	1.374225e-08	3.423813e+01	8.994657e+02
1.920000e-06	4.868164e-06	1.370408e-08	3.390425e+01	8.962280e+02
1.930000e-06	4.818425e-06	1.364319e-08	3.355784e+01	8.928711e+02
1.940000e-06	4.766894e-06	1.359021e-08	3.319895e+01	8.893564e+02
1.950000e-06	4.713270e-06	1.356799e-08	3.282549e+01	8.856651e+02
1.960000e-06	4.657842e-06	1.348645e-08	3.243946e+01	8.818073e+02
1.970000e-06	4.600771e-06	1.341527e-08	3.204199e+01	8.778164e+02
1.980000e-06	4.542142e-06	1.333781e-08	3.163367e+01	8.737326e+02
1.990000e-06	4.481998e-06	1.326893e-08	3.121479e+01	8.695816e+02
2.000000e-06	4.420059e-06	1.323276e-08	3.078343e+01	8.653591e+02
2.010000e-06	4.356481e-06	1.316227e-08	3.034064e+01	8.610288e+02
2.020000e-06	4.291415e-06	1.310713e-08	2.988748e+01	8.565350e+02
2.030000e-06	4.224887e-06	1.302859e-08	2.942415e+01	8.518253e+02
2.040000e-06	4.156804e-06	1.293939e-08	2.894999e+01	8.468734e+02
2.050000e-06	4.087005e-06	1.285915e-08	2.846387e+01	8.416916e+02
2.060000e-06	4.015703e-06	1.275843e-08	2.796729e+01	8.363268e+02
2.070000e-06	3.943008e-06	1.268975e-08	2.746101e+01	8.308406e+02
2.080000e-06	3.868969e-06	1.261238e-08	2.694537e+01	8.252824e+02
2.090000e-06	3.793412e-06	1.253590e-08	2.641915e+01	8.196652e+02
2.100000e-06	3.716078e-06	1.244812e-08	2.588056e+01	8.139574e+02
2.110000e-06	3.637250e-06	1.233849e-08	2.533156e+01	8.080924e+02
2.120000e-06	3.557205e-06	1.225017e-08	2.477409e+01	8.019952e+02
2.130000e-06	3.475979e-06	1.214966e-08	2.420840e+01	7.956131e+02
2.140000e-06	3.393656e-06	1.205207e-08	2.363506e+01	7.889384e+02
2.150000e-06	3.310283e-06	1.194660e-08	2.305441e+01	7.820128e+02
2.160000e-06	3.225589e-06	1.183761e-08	2.246456e+01	7.749094e+02
2.170000e-06	3.139503e-06	1.173393e-08	2.186501e+01	7.677018e+02
2.180000e-06	3.052351e-06	1.161814e-08	2.125805e+01	7.604297e+02
2.190000e-06	2.964203e-06	1.150539e-08	2.064414e+01	7.530793e+02
2.200000e-06	2.875052e-06	1.139123e-08	2.002325e+01	7.455851e+02
2.210000e-06	2.784938e-06	1.127268e-08	1.939565e+01	7.378542e+02
2.220000e-06	2.693926e-06	1.115079e-08	1.876180e+01	7.298036e+02
2.230000e-06	2.602018e-06	1.101982e-08	1.812171e+01	7.213939e+02
2.240000e-06	2.509086e-06	1.088230e-08	1.747449e+01	7.126453e+02
2.250000e-06	2.415108e-06	1.074285e-08	1.681998e+01	7.036269e+02
2.260000e-06	2.320211e-06	1.060413e-08	1.615907e+01	6.944244e+02
2.270000e-06	2.224533e-06	1.046986e-08	1.549272e+01	6.850975e+02
2.280000e-06	2.128117e-06	1.032645e-08	1.482123e+01	6.756477e+02
2.290000e-06	2.031035e-06	1.017710e-08	1.414511e+01	6.660086e+02
2.300000e-06	1.933307e-06	1.002565e-08	1.346448e+01	6.560664e+02
2.310000e-06	1.834988e-06	9.867478e-09	1.277974e+01	6.457015e+02
2.320000e-06	1.736150e-06	9.700082e-09	1.209138e+01	6.348359e+02
2.330000e-06	1.636774e-06	9.521324e-09	1.139929e+01	6.234631e+02
2.340000e-06	1.536885e-06	9.342499e-09	1.070361e+01	6.116492e+02
2.350000e-06	1.436402e-06	9.159824e-09	1.000380e+01	5.995011e+02
2.360000e-06	1.335168e-06	8.971425e-09	9.298752e+00	5.871143e+02
2.370000e-06	1.233271e-06	8.781141e-09	8.589096e+00	5.745226e+02
2.380000e-06	1.130883e-06	8.587936e-09	7.876014e+00	5.616709e+02
2.390000e-06	1.028063e-06	8.387812e-09	7.159925e+00	5.484258e+02
2.400000e-06	9.248739e-07	8.173258e-09	6.441268e+00	5.346200e+02
2.410000e-06	8.214081e-07	7.945233e-09	5.720682e+00	5.201143e+02
2.420000e-06	7.177086e-07	7.707417e-09	4.998469e+00	5.048495e+02
2.430000e-06	6.137498e-07	7.461647e-09	4.274449e+00	4.888653e+02
2.440000e-06	5.095358e-07	7.211865e-09	3.548653e+00	4.722733e+02
2.450000e-06	4.051927e-07	6.959216e-09	2.821958e+00	4.551946e+02
2.460000e-06	3.007848e-07	6.698545e-09	2.094810e+00	4.376841e+02
2.470000e-06	1.962310e-07	6.426997e-09	1.366647e+00	4.196771e+02
2.480000e-06	9.158298e-08	6.138875e-09	6.378281e-01	4.009814e+02
2.490000e-06	-1.306661e-08	5.828608e-09	-9.100218e-02	3.813249e+02
2.500000e-06	-1.176601e-07	5.497626e-09	-8.194417e-01	3.604405e+02
2.510000e-06	-2.222002e-07	5.154083e-09	-1.547509e+00	3.381538e+02
2.520000e-06	-3.266963e-07	4.799626e-09	-2.275271e+00	3.144292e+02
2.530000e-06	-4.310781e-07	4.429488e-09	-3.002236e+00	2.893462e+02
2.540000e-06	-5.352877e-07	4.039321e-09	-3.728001e+00	2.629992e+02
2.550000e-06	-6.392754e-07	3.623325e-09	-4.452222e+00	2.353503e+02
2.560000e-06	-7.430429e-07	3.174384e-09	-5.174909e+00	2.060880e+02
2.570000e-06	-8.465629e-07	2.682131e-09	-5.895872e+00	1.745563e+02
2.580000e-06	-9.497804e-07	2.140197e-09	-6.614729e+00	1.397996e+02
2.590000e-06	-1.052646e-06	1.543524e-09	-7.331138e+00	1.007389e+02
2.600000e-06	-1.155056e-06	8.817149e-10	-8.044364e+00	5.644692e+01
2.610000e-06	-1.256919e-06	1.399759e-10	-8.753788e+00	6.452996e+00
2.620000e-06	-1.358203e-06	-6.886480e-10	-9.459182e+00	-4.901147e+01
2.630000e-06	-1.458946e-06	-1.596420e-09	-1.016081e+01	-1.089065e+02
2.640000e-06	-1.559195e-06	-2.558783e-09	-1.085899e+01	-1.714605e+02
2.650000e-06	-1.658889e-06	-3.535302e-09	-1.155330e+01	-2.344237e+02
2.660000e-06	-1.757898e-06	-4.480583e-09	-1.224285e+01	-2.954391e+02
2.670000e-06	-1.856253e-06	-5.357078e-09	-1.292784e+01	-3.524382e+02
2.680000e-06	-1.954043e-06	-6.143651e-09	-1.360890e+01	-4.039616e+02
2.690000e-06	-2.051205e-06	-6.834458e-09	-1.428558e+01	-4.493289e+02
2.700000e-06	-2.147670e-06	-7.437454e-09	-1.495741e+01	-4.886252e+02
2.710000e-06	-2.243437e-06	-7.963856e-09	-1.562438e+01	-5.225279e+02
2.720000e-06	-2.338569e-06	-8.425788e-09	-1.628692e+01	-5.520356e+02
2.730000e-06	-2.432988e-06	-8.836075e-09	-1.694450e+01	-5.781845e+02
2.740000e-06	-2.526434e-06	-9.202921e-09	-1.759531e+01	-6.018273e+02
2.750000e-06	-2.618818e-06	-9.532085e-09	-1.823871e+01	-6.235244e+02
2.760000e-06	-2.710159e-06	-9.832864e-09	-1.887485e+01	-6.435507e+02
2.770000e-06	-2.800496e-06	-1.011205e-08	-1.950401e+01	-6.619896e+02
2.780000e-06	-2.889875e-06	-1.037009e-08	-2.012648e+01	-6.788608e+02
2.790000e-06	-2.978234e-06	-1.060809e-08	-2.074186e+01	-6.942284e+02
2.800000e-06	-3.065589e-06	-1.082685e-08	-2.135024e+01	-7.082534e+02
2.810000e-06	-3.151881e-06	-1.102994e-08	-2.195122e+01	-7.211818e+02
2.820000e-06	-3.236943e-06	-1.121803e-08	-2.254363e+01	-7.332863e+02
2.830000e-06	-3.320777e-06	-1.139284e-08	-2.312749e+01	-7.447934e+02
2.840000e-06	-3.403431e-06	-1.155780e-08	-2.370313e+01	-7.558308e+02
2.850000e-06	-3.484937e-06	-1.171597e-08	-2.427078e+01	-7.664161e+02
2.860000e-06	-3.565299e-06	-1.186858e-08	-2.483047e+01	-7.764864e+02
2.870000e-06	-3.644446e-06	-1.201267e-08	-2.538168e+01	-7.859558e+02
2.880000e-06	-3.722153e-06	-1.214717e-08	-2.592287e+01	-7.947725e+02
2.890000e-06	-3.798290e-06	-1.227260e-08	-2.645312e+01	-8.029540e+02
2.900000e-06	-3.872932e-06	-1.239110e-08	-2.697297e+01	-8.105878e+02
2.910000e-06	-3.946197e-06	-1.250169e-08	-2.748322e+01	-8.178019e+02
2.920000e-06	-4.018164e-06	-1.260423e-08	-2.798443e+01	-8.247191e+02
2.930000e-06	-4.088780e-06	-1.270305e-08	-2.847624e+01	-8.314180e+02
2.940000e-06	-4.157835e-06	-1.280150e-08	-2.895717e+01	-8.379147e+02
