# Temperatura_=_27.45
# Concentracion g/m^3_=_13400.0
# C_Vs_to_Am_M_A/Vsm_=_65563218390.804596
# pendiente_HvsI_1/m_=_3716.3
# ordenada_HvsI_A/m_=_1297.0
# frecuencia_Hz_=_300804.8631614868

Tiempo_(s)	Campo_(V.s)	Magnetizacion_(V.s)	Campo_(kA/m)	Magnetizacion_(A/m)
0.000000e+00	-5.492642e-06	-1.394489e-08	-3.830786e+01	-9.145333e+02
1.000000e-08	-5.490686e-06	-1.394407e-08	-3.829422e+01	-9.143074e+02
2.000000e-08	-5.486793e-06	-1.393695e-08	-3.826706e+01	-9.140101e+02
3.000000e-08	-5.481181e-06	-1.392975e-08	-3.822792e+01	-9.136349e+02
4.000000e-08	-5.473923e-06	-1.392155e-08	-3.817731e+01	-9.131674e+02
5.000000e-08	-5.465050e-06	-1.391039e-08	-3.811542e+01	-9.125865e+02
6.000000e-08	-5.454160e-06	-1.389496e-08	-3.803947e+01	-9.118691e+02
7.000000e-08	-5.441149e-06	-1.386693e-08	-3.794873e+01	-9.109951e+02
8.000000e-08	-5.426224e-06	-1.386119e-08	-3.784463e+01	-9.099547e+02
9.000000e-08	-5.408891e-06	-1.391447e-08	-3.772375e+01	-9.087539e+02
1.000000e-07	-5.389176e-06	-1.389681e-08	-3.758625e+01	-9.074171e+02
1.100000e-07	-5.367559e-06	-1.383071e-08	-3.743548e+01	-9.059837e+02
1.200000e-07	-5.344181e-06	-1.379529e-08	-3.727244e+01	-9.044985e+02
1.300000e-07	-5.319365e-06	-1.368670e-08	-3.709936e+01	-9.029983e+02
1.400000e-07	-5.293013e-06	-1.371407e-08	-3.691557e+01	-9.014978e+02
1.500000e-07	-5.264766e-06	-1.378863e-08	-3.671856e+01	-8.999819e+02
1.600000e-07	-5.234843e-06	-1.361378e-08	-3.650987e+01	-8.984059e+02
1.700000e-07	-5.203363e-06	-1.366137e-08	-3.629031e+01	-8.967068e+02
1.800000e-07	-5.169912e-06	-1.373491e-08	-3.605701e+01	-8.948209e+02
1.900000e-07	-5.134431e-06	-1.357091e-08	-3.580956e+01	-8.927032e+02
2.000000e-07	-5.097386e-06	-1.359747e-08	-3.555119e+01	-8.903404e+02
2.100000e-07	-5.058604e-06	-1.352444e-08	-3.528071e+01	-8.877538e+02
2.200000e-07	-5.018001e-06	-1.339364e-08	-3.499753e+01	-8.849900e+02
2.300000e-07	-4.975492e-06	-1.345442e-08	-3.470105e+01	-8.821031e+02
2.400000e-07	-4.931009e-06	-1.341563e-08	-3.439081e+01	-8.791358e+02
2.500000e-07	-4.884848e-06	-1.338197e-08	-3.406886e+01	-8.761056e+02
2.600000e-07	-4.836870e-06	-1.335624e-08	-3.373425e+01	-8.730028e+02
2.700000e-07	-4.786860e-06	-1.325360e-08	-3.338545e+01	-8.697988e+02
2.800000e-07	-4.734728e-06	-1.322114e-08	-3.302187e+01	-8.664629e+02
2.900000e-07	-4.680652e-06	-1.314461e-08	-3.264472e+01	-8.629772e+02
3.000000e-07	-4.624995e-06	-1.307016e-08	-3.225655e+01	-8.593455e+02
3.100000e-07	-4.567735e-06	-1.303059e-08	-3.185719e+01	-8.555901e+02
3.200000e-07	-4.508649e-06	-1.300925e-08	-3.144510e+01	-8.517388e+02
3.300000e-07	-4.447907e-06	-1.298009e-08	-3.102146e+01	-8.478087e+02
3.400000e-07	-4.385682e-06	-1.287923e-08	-3.058748e+01	-8.437927e+02
3.500000e-07	-4.322044e-06	-1.281625e-08	-3.014365e+01	-8.396583e+02
3.600000e-07	-4.256890e-06	-1.273020e-08	-2.968924e+01	-8.353575e+02
3.700000e-07	-4.189993e-06	-1.265410e-08	-2.922267e+01	-8.308471e+02
3.800000e-07	-4.121459e-06	-1.260961e-08	-2.874468e+01	-8.261077e+02
3.900000e-07	-4.051456e-06	-1.251479e-08	-2.825646e+01	-8.211556e+02
4.000000e-07	-3.980144e-06	-1.244743e-08	-2.775910e+01	-8.160390e+02
4.100000e-07	-3.907614e-06	-1.237521e-08	-2.725325e+01	-8.108197e+02
4.200000e-07	-3.833577e-06	-1.229860e-08	-2.673688e+01	-8.055471e+02
4.300000e-07	-3.757814e-06	-1.221001e-08	-2.620848e+01	-8.002349e+02
4.400000e-07	-3.680531e-06	-1.211788e-08	-2.566948e+01	-7.948506e+02
4.500000e-07	-3.601800e-06	-1.205066e-08	-2.512038e+01	-7.893241e+02
4.600000e-07	-3.521526e-06	-1.196143e-08	-2.456051e+01	-7.835729e+02
4.700000e-07	-3.439886e-06	-1.186481e-08	-2.399113e+01	-7.775335e+02
4.800000e-07	-3.357069e-06	-1.175505e-08	-2.341353e+01	-7.711874e+02
4.900000e-07	-3.273175e-06	-1.165125e-08	-2.282842e+01	-7.645695e+02
5.000000e-07	-3.188279e-06	-1.155996e-08	-2.223632e+01	-7.577543e+02
5.100000e-07	-3.102393e-06	-1.145592e-08	-2.163731e+01	-7.508251e+02
5.200000e-07	-3.015569e-06	-1.135296e-08	-2.103177e+01	-7.438373e+02
5.300000e-07	-2.927823e-06	-1.124724e-08	-2.041979e+01	-7.367917e+02
5.400000e-07	-2.839118e-06	-1.113716e-08	-1.980113e+01	-7.296299e+02
5.500000e-07	-2.749309e-06	-1.101709e-08	-1.917477e+01	-7.222532e+02
5.600000e-07	-2.658330e-06	-1.088954e-08	-1.854024e+01	-7.145607e+02
5.700000e-07	-2.566316e-06	-1.076519e-08	-1.789850e+01	-7.064885e+02
5.800000e-07	-2.473398e-06	-1.064209e-08	-1.725046e+01	-6.980362e+02
5.900000e-07	-2.379688e-06	-1.051835e-08	-1.659689e+01	-6.892661e+02
6.000000e-07	-2.285236e-06	-1.038365e-08	-1.593814e+01	-6.802769e+02
6.100000e-07	-2.190002e-06	-1.024495e-08	-1.527394e+01	-6.711592e+02
6.200000e-07	-2.094090e-06	-1.010097e-08	-1.460501e+01	-6.619522e+02
6.300000e-07	-1.997435e-06	-9.951934e-09	-1.393090e+01	-6.526203e+02
6.400000e-07	-1.899864e-06	-9.803967e-09	-1.325040e+01	-6.430582e+02
6.500000e-07	-1.801411e-06	-9.648980e-09	-1.256375e+01	-6.331271e+02
6.600000e-07	-1.702218e-06	-9.487645e-09	-1.187194e+01	-6.227052e+02
6.700000e-07	-1.602444e-06	-9.321225e-09	-1.117608e+01	-6.117334e+02
6.800000e-07	-1.502112e-06	-9.150914e-09	-1.047633e+01	-6.002364e+02
6.900000e-07	-1.401239e-06	-8.972763e-09	-9.772794e+00	-5.883092e+02
7.000000e-07	-1.299888e-06	-8.788695e-09	-9.065931e+00	-5.760732e+02
7.100000e-07	-1.198176e-06	-8.600034e-09	-8.356553e+00	-5.636182e+02
7.200000e-07	-1.096121e-06	-8.405702e-09	-7.644782e+00	-5.509564e+02
7.300000e-07	-9.936197e-07	-8.205859e-09	-6.929897e+00	-5.380052e+02
7.400000e-07	-8.906851e-07	-7.995945e-09	-6.211991e+00	-5.246105e+02
7.500000e-07	-7.874085e-07	-7.778508e-09	-5.491699e+00	-5.105998e+02
7.600000e-07	-6.839205e-07	-7.554803e-09	-4.769932e+00	-4.958457e+02
7.700000e-07	-5.802931e-07	-7.324264e-09	-4.047194e+00	-4.803108e+02
7.800000e-07	-4.764875e-07	-7.080919e-09	-3.323213e+00	-4.640556e+02
7.900000e-07	-3.725392e-07	-6.825895e-09	-2.598236e+00	-4.472022e+02
8.000000e-07	-2.684836e-07	-6.564398e-09	-1.872511e+00	-4.298674e+02
8.100000e-07	-1.643215e-07	-6.292714e-09	-1.146043e+00	-4.120925e+02
8.200000e-07	-6.008618e-08	-6.009596e-09	-4.190648e-01	-3.937999e+02
8.300000e-07	4.419227e-08	-5.712316e-09	3.082144e-01	-3.747976e+02
8.400000e-07	1.484321e-07	-5.403115e-09	1.035224e+00	-3.548326e+02
8.500000e-07	2.525438e-07	-5.083759e-09	1.761340e+00	-3.336721e+02
8.600000e-07	3.565422e-07	-4.748717e-09	2.486667e+00	-3.111788e+02
8.700000e-07	4.604752e-07	-4.388763e-09	3.211536e+00	-2.873402e+02
8.800000e-07	5.642862e-07	-4.002737e-09	3.935555e+00	-2.622323e+02
8.900000e-07	6.679049e-07	-3.598076e-09	4.658233e+00	-2.359188e+02
9.000000e-07	7.713239e-07	-3.175996e-09	5.379518e+00	-2.083199e+02
9.100000e-07	8.745208e-07	-2.724777e-09	6.099254e+00	-1.790996e+02
9.200000e-07	9.773845e-07	-2.233601e-09	6.816667e+00	-1.476264e+02
9.300000e-07	1.079888e-06	-1.697004e-09	7.531566e+00	-1.130410e+02
9.400000e-07	1.182002e-06	-1.107585e-09	8.243747e+00	-7.443243e+01
9.500000e-07	1.283689e-06	-4.533515e-10	8.952953e+00	-3.108677e+01
9.600000e-07	1.384997e-06	2.811365e-10	9.659516e+00	1.725931e+01
9.700000e-07	1.485920e-06	1.093064e-09	1.036339e+01	7.023491e+01
9.800000e-07	1.586372e-06	1.961733e-09	1.106399e+01	1.267828e+02
9.900000e-07	1.686256e-06	2.859224e-09	1.176062e+01	1.852650e+02
1.000000e-06	1.785540e-06	3.756485e-09	1.245306e+01	2.437068e+02
1.010000e-06	1.884079e-06	4.619852e-09	1.314031e+01	3.001206e+02
1.020000e-06	1.981775e-06	5.413205e-09	1.382168e+01	3.528273e+02
1.030000e-06	2.078687e-06	6.120596e-09	1.449759e+01	4.006967e+02
1.040000e-06	2.174787e-06	6.750616e-09	1.516782e+01	4.432514e+02
1.050000e-06	2.270102e-06	7.314947e-09	1.583259e+01	4.806228e+02
1.060000e-06	2.364654e-06	7.814627e-09	1.649203e+01	5.133865e+02
1.070000e-06	2.458483e-06	8.255032e-09	1.714644e+01	5.423368e+02
1.080000e-06	2.551669e-06	8.649597e-09	1.779635e+01	5.682675e+02
1.090000e-06	2.644026e-06	9.012045e-09	1.844048e+01	5.918167e+02
1.100000e-06	2.735278e-06	9.342382e-09	1.907691e+01	6.134026e+02
1.110000e-06	2.825348e-06	9.636641e-09	1.970510e+01	6.332476e+02
1.120000e-06	2.914354e-06	9.903305e-09	2.032586e+01	6.514575e+02
1.130000e-06	3.002335e-06	1.015119e-08	2.093947e+01	6.681145e+02
1.140000e-06	3.089321e-06	1.038452e-08	2.154615e+01	6.833454e+02
1.150000e-06	3.175308e-06	1.060108e-08	2.214586e+01	6.973419e+02
1.160000e-06	3.260278e-06	1.079930e-08	2.273847e+01	7.103365e+02
1.170000e-06	3.344234e-06	1.098564e-08	2.332402e+01	7.225511e+02
1.180000e-06	3.427006e-06	1.116467e-08	2.390130e+01	7.341465e+02
1.190000e-06	3.508452e-06	1.133262e-08	2.446934e+01	7.451953e+02
1.200000e-06	3.588599e-06	1.148814e-08	2.502831e+01	7.556896e+02
1.210000e-06	3.667469e-06	1.163465e-08	2.557838e+01	7.655768e+02
1.220000e-06	3.745065e-06	1.177648e-08	2.611957e+01	7.748086e+02
1.230000e-06	3.821298e-06	1.191006e-08	2.665125e+01	7.833802e+02
1.240000e-06	3.895962e-06	1.203143e-08	2.717198e+01	7.913471e+02
1.250000e-06	3.969049e-06	1.214554e-08	2.768172e+01	7.988128e+02
1.260000e-06	4.040697e-06	1.225585e-08	2.818142e+01	8.058966e+02
1.270000e-06	4.110928e-06	1.236060e-08	2.867124e+01	8.126966e+02
1.280000e-06	4.179824e-06	1.245798e-08	2.915175e+01	8.192629e+02
1.290000e-06	4.247233e-06	1.255192e-08	2.962188e+01	8.255935e+02
1.300000e-06	4.312969e-06	1.264301e-08	3.008035e+01	8.316510e+02
1.310000e-06	4.377181e-06	1.273064e-08	3.052819e+01	8.373920e+02
1.320000e-06	4.439943e-06	1.281469e-08	3.096592e+01	8.427964e+02
1.330000e-06	4.501293e-06	1.289482e-08	3.139380e+01	8.478829e+02
1.340000e-06	4.561242e-06	1.296990e-08	3.181191e+01	8.527063e+02
1.350000e-06	4.619463e-06	1.303987e-08	3.221796e+01	8.573369e+02
1.360000e-06	4.675835e-06	1.310711e-08	3.261113e+01	8.618334e+02
1.370000e-06	4.730554e-06	1.317280e-08	3.299275e+01	8.662210e+02
1.380000e-06	4.783571e-06	1.323643e-08	3.336252e+01	8.704833e+02
1.390000e-06	4.834594e-06	1.329801e-08	3.371837e+01	8.745711e+02
1.400000e-06	4.883528e-06	1.335657e-08	3.405966e+01	8.784252e+02
1.410000e-06	4.930692e-06	1.341072e-08	3.438860e+01	8.820013e+02
1.420000e-06	4.976269e-06	1.346074e-08	3.470647e+01	8.852885e+02
1.430000e-06	5.020181e-06	1.350818e-08	3.501273e+01	8.883137e+02
1.440000e-06	5.062151e-06	1.355424e-08	3.530544e+01	8.911297e+02
1.450000e-06	5.102252e-06	1.359759e-08	3.558512e+01	8.937953e+02
1.460000e-06	5.140721e-06	1.363683e-08	3.585342e+01	8.963526e+02
1.470000e-06	5.177524e-06	1.367297e-08	3.611010e+01	8.988135e+02
1.480000e-06	5.212434e-06	1.370807e-08	3.635358e+01	9.011588e+02
1.490000e-06	5.245370e-06	1.374030e-08	3.658328e+01	9.033493e+02
1.500000e-06	5.276546e-06	1.376876e-08	3.680072e+01	9.053446e+02
1.510000e-06	5.306025e-06	1.379583e-08	3.700632e+01	9.071208e+02
1.520000e-06	5.333647e-06	1.382280e-08	3.719897e+01	9.086809e+02
1.530000e-06	5.359164e-06	1.384838e-08	3.737693e+01	9.100534e+02
1.540000e-06	5.382680e-06	1.386938e-08	3.754094e+01	9.112820e+02
1.550000e-06	5.404453e-06	1.388602e-08	3.769280e+01	9.124098e+02
1.560000e-06	5.424478e-06	1.390200e-08	3.783246e+01	9.134652e+02
1.570000e-06	5.442591e-06	1.391878e-08	3.795878e+01	9.144547e+02
1.580000e-06	5.458693e-06	1.393473e-08	3.807108e+01	9.153636e+02
1.590000e-06	5.472798e-06	1.394678e-08	3.816946e+01	9.161647e+02
1.600000e-06	5.484779e-06	1.395717e-08	3.825302e+01	9.168296e+02
1.610000e-06	5.494510e-06	1.396895e-08	3.832089e+01	9.173387e+02
1.620000e-06	5.502228e-06	1.397839e-08	3.837472e+01	9.176869e+02
1.630000e-06	5.508186e-06	1.398211e-08	3.841627e+01	9.178835e+02
1.640000e-06	5.512337e-06	1.398323e-08	3.844522e+01	9.179476e+02
1.650000e-06	5.514411e-06	1.398678e-08	3.845968e+01	9.179020e+02
1.660000e-06	5.514456e-06	1.398855e-08	3.846000e+01	9.177668e+02
1.670000e-06	5.512777e-06	1.398142e-08	3.844829e+01	9.175556e+02
1.680000e-06	5.509439e-06	1.397661e-08	3.842501e+01	9.172732e+02
1.690000e-06	5.504190e-06	1.397268e-08	3.838840e+01	9.169151e+02
1.700000e-06	5.496977e-06	1.396794e-08	3.833809e+01	9.164683e+02
1.710000e-06	5.488131e-06	1.396306e-08	3.827640e+01	9.159131e+02
1.720000e-06	5.477645e-06	1.395868e-08	3.820327e+01	9.152262e+02
1.730000e-06	5.465174e-06	1.396635e-08	3.811629e+01	9.143865e+02
1.740000e-06	5.450654e-06	1.390851e-08	3.801502e+01	9.133813e+02
1.750000e-06	5.434117e-06	1.382582e-08	3.789969e+01	9.122128e+02
1.760000e-06	5.415042e-06	1.384107e-08	3.776665e+01	9.109017e+02
1.770000e-06	5.393154e-06	1.383925e-08	3.761399e+01	9.094846e+02
1.780000e-06	5.369250e-06	1.390205e-08	3.744727e+01	9.080063e+02
1.790000e-06	5.344389e-06	1.389102e-08	3.727389e+01	9.065065e+02
1.800000e-06	5.318717e-06	1.370397e-08	3.709484e+01	9.050056e+02
1.810000e-06	5.291067e-06	1.381704e-08	3.690199e+01	9.034953e+02
1.820000e-06	5.261060e-06	1.381702e-08	3.669272e+01	9.019365e+02
1.830000e-06	5.229550e-06	1.365159e-08	3.647295e+01	9.002688e+02
1.840000e-06	5.196245e-06	1.380604e-08	3.624067e+01	8.984271e+02
1.850000e-06	5.161152e-06	1.371282e-08	3.599591e+01	8.963608e+02
1.860000e-06	5.124358e-06	1.360508e-08	3.573930e+01	8.940492e+02
1.870000e-06	5.085404e-06	1.375590e-08	3.546762e+01	8.915067e+02
1.880000e-06	5.044805e-06	1.358383e-08	3.518447e+01	8.887756e+02
1.890000e-06	5.002612e-06	1.354600e-08	3.489020e+01	8.859102e+02
1.900000e-06	4.958434e-06	1.353523e-08	3.458208e+01	8.829571e+02
1.910000e-06	4.912539e-06	1.334881e-08	3.426199e+01	8.799397e+02
1.920000e-06	4.864801e-06	1.345917e-08	3.392905e+01	8.768538e+02
1.930000e-06	4.815240e-06	1.335349e-08	3.358339e+01	8.736737e+02
1.940000e-06	4.763923e-06	1.327372e-08	3.322548e+01	8.703677e+02
1.950000e-06	4.710478e-06	1.333151e-08	3.285274e+01	8.669139e+02
1.960000e-06	4.655258e-06	1.317838e-08	3.246761e+01	8.633115e+02
1.970000e-06	4.598401e-06	1.314740e-08	3.207107e+01	8.595795e+02
1.980000e-06	4.539956e-06	1.303096e-08	3.166345e+01	8.557462e+02
1.990000e-06	4.479948e-06	1.298900e-08	3.124493e+01	8.518320e+02
2.000000e-06	4.418098e-06	1.298595e-08	3.081357e+01	8.478358e+02
2.010000e-06	4.354701e-06	1.287308e-08	3.037141e+01	8.437299e+02
2.020000e-06	4.289812e-06	1.288705e-08	2.991884e+01	8.394683e+02
2.030000e-06	4.223438e-06	1.274919e-08	2.945593e+01	8.350049e+02
2.040000e-06	4.155621e-06	1.268871e-08	2.898295e+01	8.303138e+02
2.050000e-06	4.086110e-06	1.262384e-08	2.849815e+01	8.254036e+02
2.060000e-06	4.015061e-06	1.249712e-08	2.800263e+01	8.203165e+02
2.070000e-06	3.942623e-06	1.247650e-08	2.749741e+01	8.151136e+02
2.080000e-06	3.868829e-06	1.235951e-08	2.698274e+01	8.098492e+02
2.090000e-06	3.793480e-06	1.232045e-08	2.645723e+01	8.045461e+02
2.100000e-06	3.716380e-06	1.221867e-08	2.591951e+01	7.991815e+02
2.110000e-06	3.637797e-06	1.211603e-08	2.537144e+01	7.936919e+02
2.120000e-06	3.557947e-06	1.204593e-08	2.481453e+01	7.879947e+02
2.130000e-06	3.476909e-06	1.192976e-08	2.424934e+01	7.820198e+02
2.140000e-06	3.394762e-06	1.186931e-08	2.367641e+01	7.757376e+02
2.150000e-06	3.311546e-06	1.174867e-08	2.309603e+01	7.691720e+02
2.160000e-06	3.227062e-06	1.165760e-08	2.250681e+01	7.623913e+02
2.170000e-06	3.141227e-06	1.154493e-08	2.190816e+01	7.554798e+02
2.180000e-06	3.054215e-06	1.143142e-08	2.130131e+01	7.485018e+02
2.190000e-06	2.966190e-06	1.133560e-08	2.068738e+01	7.414710e+02
2.200000e-06	2.877223e-06	1.121891e-08	2.006689e+01	7.343409e+02
2.210000e-06	2.787305e-06	1.111669e-08	1.943977e+01	7.270187e+02
2.220000e-06	2.696590e-06	1.099346e-08	1.880709e+01	7.194004e+02
2.230000e-06	2.604995e-06	1.087975e-08	1.816827e+01	7.114114e+02
2.240000e-06	2.512298e-06	1.074423e-08	1.752176e+01	7.030366e+02
2.250000e-06	2.418547e-06	1.060925e-08	1.686790e+01	6.943263e+02
2.260000e-06	2.323894e-06	1.046855e-08	1.620776e+01	6.853748e+02
2.270000e-06	2.228441e-06	1.033316e-08	1.554203e+01	6.762784e+02
2.280000e-06	2.132239e-06	1.020375e-08	1.487108e+01	6.670904e+02
2.290000e-06	2.035342e-06	1.005970e-08	1.419528e+01	6.577914e+02
2.300000e-06	1.937730e-06	9.916262e-09	1.351450e+01	6.482893e+02
2.310000e-06	1.839547e-06	9.762645e-09	1.282973e+01	6.384483e+02
2.320000e-06	1.740945e-06	9.608926e-09	1.214204e+01	6.281387e+02
2.330000e-06	1.641850e-06	9.436548e-09	1.145091e+01	6.172849e+02
2.340000e-06	1.542132e-06	9.262878e-09	1.075544e+01	6.058937e+02
2.350000e-06	1.441694e-06	9.085667e-09	1.005494e+01	5.940480e+02
2.360000e-06	1.340631e-06	8.902365e-09	9.350091e+00	5.818680e+02
2.370000e-06	1.239063e-06	8.715581e-09	8.641718e+00	5.694552e+02
2.380000e-06	1.137041e-06	8.520500e-09	7.930176e+00	5.568409e+02
2.390000e-06	1.034604e-06	8.326918e-09	7.215737e+00	5.439623e+02
2.400000e-06	9.317042e-07	8.124367e-09	6.498074e+00	5.306769e+02
2.410000e-06	8.283741e-07	7.910606e-09	5.777409e+00	5.168108e+02
2.420000e-06	7.247277e-07	7.682096e-09	5.054538e+00	5.022220e+02
2.430000e-06	6.208077e-07	7.442522e-09	4.329758e+00	4.868518e+02
2.440000e-06	5.167211e-07	7.198914e-09	3.603818e+00	4.707413e+02
2.450000e-06	4.125215e-07	6.951565e-09	2.877088e+00	4.540043e+02
2.460000e-06	3.081885e-07	6.693975e-09	2.149428e+00	4.367651e+02
2.470000e-06	2.037699e-07	6.424780e-09	1.421172e+00	4.190860e+02
2.480000e-06	9.927550e-08	6.143474e-09	6.923866e-01	4.009166e+02
2.490000e-06	-5.242403e-09	5.848820e-09	-3.656260e-02	3.820862e+02
2.500000e-06	-1.097254e-07	5.540392e-09	-7.652681e-01	3.623484e+02
2.510000e-06	-2.141515e-07	5.217922e-09	-1.493578e+00	3.414592e+02
2.520000e-06	-3.184476e-07	4.884617e-09	-2.220980e+00	3.192561e+02
2.530000e-06	-4.226017e-07	4.535549e-09	-2.947392e+00	2.957006e+02
2.540000e-06	-5.266693e-07	4.165213e-09	-3.673200e+00	2.708564e+02
2.550000e-06	-6.305904e-07	3.771969e-09	-4.397987e+00	2.448004e+02
2.560000e-06	-7.342829e-07	3.355781e-09	-5.121179e+00	2.174947e+02
2.570000e-06	-8.377349e-07	2.911609e-09	-5.842695e+00	1.886646e+02
2.580000e-06	-9.408346e-07	2.433094e-09	-6.561753e+00	1.577402e+02
2.590000e-06	-1.043489e-06	1.913912e-09	-7.277706e+00	1.238994e+02
2.600000e-06	-1.145637e-06	1.341958e-09	-7.990125e+00	8.622324e+01
2.610000e-06	-1.247315e-06	7.083614e-10	-8.699268e+00	4.393309e+01
2.620000e-06	-1.348529e-06	4.598005e-12	-9.405172e+00	-3.349865e+00
2.630000e-06	-1.449145e-06	-7.761783e-10	-1.010691e+01	-5.540018e+01
2.640000e-06	-1.549179e-06	-1.628092e-09	-1.080459e+01	-1.113042e+02
2.650000e-06	-1.648670e-06	-2.526319e-09	-1.149848e+01	-1.695319e+02
2.660000e-06	-1.747551e-06	-3.433698e-09	-1.218811e+01	-2.281551e+02
2.670000e-06	-1.845813e-06	-4.314735e-09	-1.287343e+01	-2.851602e+02
2.680000e-06	-1.943511e-06	-5.139361e-09	-1.355482e+01	-3.387784e+02
2.690000e-06	-2.040584e-06	-5.886053e-09	-1.423184e+01	-3.877477e+02
2.700000e-06	-2.136926e-06	-6.551492e-09	-1.490377e+01	-4.314497e+02
2.710000e-06	-2.232606e-06	-7.141030e-09	-1.557108e+01	-4.698958e+02
2.720000e-06	-2.327677e-06	-7.662158e-09	-1.623414e+01	-5.035846e+02
2.730000e-06	-2.421991e-06	-8.125957e-09	-1.689192e+01	-5.332829e+02
2.740000e-06	-2.515362e-06	-8.542892e-09	-1.754313e+01	-5.598006e+02
2.750000e-06	-2.607706e-06	-8.917894e-09	-1.818717e+01	-5.838178e+02
2.760000e-06	-2.698996e-06	-9.254004e-09	-1.882387e+01	-6.058006e+02
2.770000e-06	-2.789246e-06	-9.559741e-09	-1.945331e+01	-6.260079e+02
2.780000e-06	-2.878499e-06	-9.839729e-09	-2.007579e+01	-6.445623e+02
2.790000e-06	-2.966757e-06	-1.009671e-08	-2.069134e+01	-6.615442e+02
2.800000e-06	-3.054084e-06	-1.033507e-08	-2.130039e+01	-6.770672e+02
2.810000e-06	-3.140383e-06	-1.055770e-08	-2.190227e+01	-6.913099e+02
2.820000e-06	-3.225411e-06	-1.076552e-08	-2.249529e+01	-7.044999e+02
2.830000e-06	-3.309153e-06	-1.095965e-08	-2.307934e+01	-7.168660e+02
2.840000e-06	-3.391740e-06	-1.114096e-08	-2.365533e+01	-7.285855e+02
2.850000e-06	-3.473250e-06	-1.130909e-08	-2.422382e+01	-7.397504e+02
2.860000e-06	-3.553664e-06	-1.146651e-08	-2.478466e+01	-7.503677e+02
2.870000e-06	-3.632858e-06	-1.161575e-08	-2.533699e+01	-7.603906e+02
2.880000e-06	-3.710567e-06	-1.175611e-08	-2.587897e+01	-7.697657e+02
2.890000e-06	-3.786680e-06	-1.188938e-08	-2.640981e+01	-7.784767e+02
2.900000e-06	-3.861341e-06	-1.201633e-08	-2.693052e+01	-7.865663e+02
2.910000e-06	-3.934650e-06	-1.213483e-08	-2.744181e+01	-7.941300e+02
2.920000e-06	-4.006625e-06	-1.224475e-08	-2.794379e+01	-8.012868e+02
2.930000e-06	-4.077214e-06	-1.234883e-08	-2.843610e+01	-8.081420e+02
2.940000e-06	-4.146229e-06	-1.245029e-08	-2.891744e+01	-8.147575e+02
