# Temperatura_=_42.67
# Concentracion g/m^3_=_13400.0
# C_Vs_to_Am_M_A/Vsm_=_65563218390.804596
# pendiente_HvsI_1/m_=_3716.3
# ordenada_HvsI_A/m_=_1297.0
# frecuencia_Hz_=_300800.1178495061

Tiempo_(s)	Campo_(V.s)	Magnetizacion_(V.s)	Campo_(kA/m)	Magnetizacion_(A/m)
0.000000e+00	-5.495975e-06	-1.401086e-08	-3.830805e+01	-9.198003e+02
1.000000e-08	-5.494014e-06	-1.400610e-08	-3.829438e+01	-9.194557e+02
2.000000e-08	-5.490074e-06	-1.399967e-08	-3.826692e+01	-9.190272e+02
3.000000e-08	-5.484355e-06	-1.399509e-08	-3.822706e+01	-9.185418e+02
4.000000e-08	-5.477024e-06	-1.399119e-08	-3.817596e+01	-9.180105e+02
5.000000e-08	-5.468031e-06	-1.398255e-08	-3.811327e+01	-9.174192e+02
6.000000e-08	-5.457127e-06	-1.396556e-08	-3.803727e+01	-9.167293e+02
7.000000e-08	-5.444161e-06	-1.393992e-08	-3.794690e+01	-9.158900e+02
8.000000e-08	-5.429131e-06	-1.392622e-08	-3.784213e+01	-9.148573e+02
9.000000e-08	-5.411686e-06	-1.394921e-08	-3.772054e+01	-9.136151e+02
1.000000e-07	-5.391914e-06	-1.394374e-08	-3.758272e+01	-9.121863e+02
1.100000e-07	-5.370218e-06	-1.389870e-08	-3.743150e+01	-9.106309e+02
1.200000e-07	-5.346715e-06	-1.386105e-08	-3.726768e+01	-9.090284e+02
1.300000e-07	-5.321765e-06	-1.378708e-08	-3.709377e+01	-9.074494e+02
1.400000e-07	-5.295373e-06	-1.376580e-08	-3.690981e+01	-9.059283e+02
1.500000e-07	-5.267106e-06	-1.381438e-08	-3.671279e+01	-9.044465e+02
1.600000e-07	-5.237101e-06	-1.372413e-08	-3.650364e+01	-9.029347e+02
1.700000e-07	-5.205551e-06	-1.370771e-08	-3.628373e+01	-9.012931e+02
1.800000e-07	-5.172079e-06	-1.376257e-08	-3.605043e+01	-8.994246e+02
1.900000e-07	-5.136589e-06	-1.366936e-08	-3.580306e+01	-8.972677e+02
2.000000e-07	-5.099507e-06	-1.363636e-08	-3.554459e+01	-8.948168e+02
2.100000e-07	-5.060743e-06	-1.358738e-08	-3.527439e+01	-8.921218e+02
2.200000e-07	-5.020179e-06	-1.348634e-08	-3.499166e+01	-8.892672e+02
2.300000e-07	-4.977719e-06	-1.349553e-08	-3.469570e+01	-8.863392e+02
2.400000e-07	-4.933202e-06	-1.348524e-08	-3.438541e+01	-8.833931e+02
2.500000e-07	-4.886924e-06	-1.344567e-08	-3.406284e+01	-8.804340e+02
2.600000e-07	-4.838846e-06	-1.341364e-08	-3.372773e+01	-8.774191e+02
2.700000e-07	-4.788794e-06	-1.332608e-08	-3.337886e+01	-8.742789e+02
2.800000e-07	-4.736702e-06	-1.327237e-08	-3.301577e+01	-8.709494e+02
2.900000e-07	-4.682633e-06	-1.321113e-08	-3.263889e+01	-8.674005e+02
3.000000e-07	-4.626874e-06	-1.314088e-08	-3.225024e+01	-8.636495e+02
3.100000e-07	-4.569458e-06	-1.309845e-08	-3.185004e+01	-8.597528e+02
3.200000e-07	-4.510281e-06	-1.306701e-08	-3.143756e+01	-8.557804e+02
3.300000e-07	-4.449454e-06	-1.303199e-08	-3.101359e+01	-8.517835e+02
3.400000e-07	-4.387153e-06	-1.294851e-08	-3.057934e+01	-8.477693e+02
3.500000e-07	-4.323392e-06	-1.286883e-08	-3.013491e+01	-8.436946e+02
3.600000e-07	-4.258112e-06	-1.278918e-08	-2.967990e+01	-8.394810e+02
3.700000e-07	-4.191179e-06	-1.271573e-08	-2.921336e+01	-8.350462e+02
3.800000e-07	-4.122562e-06	-1.266415e-08	-2.873509e+01	-8.303378e+02
3.900000e-07	-4.052469e-06	-1.258794e-08	-2.824652e+01	-8.253560e+02
4.000000e-07	-3.981118e-06	-1.251459e-08	-2.774919e+01	-8.201535e+02
4.100000e-07	-3.908524e-06	-1.244410e-08	-2.724319e+01	-8.148144e+02
4.200000e-07	-3.834461e-06	-1.236146e-08	-2.672696e+01	-8.094177e+02
4.300000e-07	-3.758688e-06	-1.226756e-08	-2.619881e+01	-8.040030e+02
4.400000e-07	-3.681219e-06	-1.217109e-08	-2.565884e+01	-7.985515e+02
4.500000e-07	-3.602305e-06	-1.209784e-08	-2.510879e+01	-7.929911e+02
4.600000e-07	-3.522004e-06	-1.201817e-08	-2.454907e+01	-7.872244e+02
4.700000e-07	-3.440260e-06	-1.192519e-08	-2.397930e+01	-7.811677e+02
4.800000e-07	-3.357271e-06	-1.182218e-08	-2.340085e+01	-7.747850e+02
4.900000e-07	-3.273220e-06	-1.171359e-08	-2.281500e+01	-7.681019e+02
5.000000e-07	-3.188206e-06	-1.161311e-08	-2.222244e+01	-7.611940e+02
5.100000e-07	-3.102255e-06	-1.150596e-08	-2.162334e+01	-7.541539e+02
5.200000e-07	-3.015348e-06	-1.140033e-08	-2.101758e+01	-7.470497e+02
5.300000e-07	-2.927445e-06	-1.129607e-08	-2.040488e+01	-7.398943e+02
5.400000e-07	-2.838606e-06	-1.118762e-08	-1.978565e+01	-7.326366e+02
5.500000e-07	-2.748770e-06	-1.107044e-08	-1.915948e+01	-7.251807e+02
5.600000e-07	-2.657711e-06	-1.094056e-08	-1.852478e+01	-7.174238e+02
5.700000e-07	-2.565563e-06	-1.081049e-08	-1.788249e+01	-7.092978e+02
5.800000e-07	-2.472549e-06	-1.068644e-08	-1.723416e+01	-7.007960e+02
5.900000e-07	-2.378744e-06	-1.056575e-08	-1.658032e+01	-6.919735e+02
6.000000e-07	-2.284182e-06	-1.043348e-08	-1.592121e+01	-6.829205e+02
6.100000e-07	-2.188823e-06	-1.028989e-08	-1.525653e+01	-6.737191e+02
6.200000e-07	-2.092695e-06	-1.014228e-08	-1.458651e+01	-6.644027e+02
6.300000e-07	-1.995916e-06	-9.994549e-09	-1.391193e+01	-6.549353e+02
6.400000e-07	-1.898374e-06	-9.844701e-09	-1.323205e+01	-6.452196e+02
6.500000e-07	-1.799927e-06	-9.685819e-09	-1.254585e+01	-6.351332e+02
6.600000e-07	-1.700682e-06	-9.522687e-09	-1.185410e+01	-6.245749e+02
6.700000e-07	-1.600770e-06	-9.359561e-09	-1.115769e+01	-6.135043e+02
6.800000e-07	-1.500306e-06	-9.192446e-09	-1.045743e+01	-6.019536e+02
6.900000e-07	-1.399402e-06	-9.011733e-09	-9.754110e+00	-5.900092e+02
7.000000e-07	-1.298044e-06	-8.821477e-09	-9.047624e+00	-5.777666e+02
7.100000e-07	-1.196232e-06	-8.628973e-09	-8.337976e+00	-5.652803e+02
7.200000e-07	-1.094035e-06	-8.434892e-09	-7.625645e+00	-5.525288e+02
7.300000e-07	-9.914598e-07	-8.234955e-09	-6.910674e+00	-5.394125e+02
7.400000e-07	-8.885342e-07	-8.024176e-09	-6.193262e+00	-5.257850e+02
7.500000e-07	-7.852970e-07	-7.804586e-09	-5.473678e+00	-5.115074e+02
7.600000e-07	-6.817865e-07	-7.576977e-09	-4.752189e+00	-4.965004e+02
7.700000e-07	-5.780075e-07	-7.340502e-09	-4.028828e+00	-4.807710e+02
7.800000e-07	-4.739916e-07	-7.093117e-09	-3.303817e+00	-4.644003e+02
7.900000e-07	-3.698928e-07	-6.837345e-09	-2.578227e+00	-4.474936e+02
8.000000e-07	-2.656972e-07	-6.575376e-09	-1.851963e+00	-4.301147e+02
8.100000e-07	-1.613860e-07	-6.302071e-09	-1.124893e+00	-4.122299e+02
8.200000e-07	-5.705670e-08	-6.012922e-09	-3.976966e-01	-3.936919e+02
8.300000e-07	4.730885e-08	-5.708393e-09	3.297522e-01	-3.742701e+02
8.400000e-07	1.516825e-07	-5.390938e-09	1.057257e+00	-3.537205e+02
8.500000e-07	2.559524e-07	-5.059846e-09	1.784039e+00	-3.318643e+02
8.600000e-07	3.601015e-07	-4.711627e-09	2.509980e+00	-3.086365e+02
8.700000e-07	4.641515e-07	-4.341707e-09	3.235229e+00	-2.840752e+02
8.800000e-07	5.680902e-07	-3.947102e-09	3.959703e+00	-2.582434e+02
8.900000e-07	6.718467e-07	-3.528206e-09	4.682906e+00	-2.311015e+02
9.000000e-07	7.753560e-07	-3.082560e-09	5.404387e+00	-2.023799e+02
9.100000e-07	8.786092e-07	-2.601011e-09	6.124082e+00	-1.715040e+02
9.200000e-07	9.815611e-07	-2.074561e-09	6.841678e+00	-1.376222e+02
9.300000e-07	1.084143e-06	-1.491817e-09	7.556694e+00	-9.975025e+01
9.400000e-07	1.186307e-06	-8.407225e-10	8.268795e+00	-5.701308e+01
9.500000e-07	1.288035e-06	-1.139077e-10	8.977865e+00	-8.922452e+00
9.600000e-07	1.389367e-06	6.941776e-10	9.684165e+00	4.438703e+01
9.700000e-07	1.490294e-06	1.577382e-09	1.038765e+01	1.020399e+02
9.800000e-07	1.590828e-06	2.511251e-09	1.108839e+01	1.624658e+02
9.900000e-07	1.690913e-06	3.455832e-09	1.178600e+01	2.236096e+02
1.000000e-06	1.790334e-06	4.368247e-09	1.247899e+01	2.832603e+02
1.010000e-06	1.888859e-06	5.216825e-09	1.316573e+01	3.394164e+02
1.020000e-06	1.986456e-06	5.979914e-09	1.384600e+01	3.905964e+02
1.030000e-06	2.083293e-06	6.651029e-09	1.452097e+01	4.360213e+02
1.040000e-06	2.179427e-06	7.238756e-09	1.519104e+01	4.756321e+02
1.050000e-06	2.274814e-06	7.755343e-09	1.585591e+01	5.099554e+02
1.060000e-06	2.369420e-06	8.211389e-09	1.651533e+01	5.398676e+02
1.070000e-06	2.463250e-06	8.619114e-09	1.716935e+01	5.663334e+02
1.080000e-06	2.556344e-06	8.987672e-09	1.781823e+01	5.901895e+02
1.090000e-06	2.648710e-06	9.321460e-09	1.846204e+01	6.120223e+02
1.100000e-06	2.740062e-06	9.622387e-09	1.909878e+01	6.321522e+02
1.110000e-06	2.830087e-06	9.895136e-09	1.972627e+01	6.507031e+02
1.120000e-06	2.918970e-06	1.014650e-08	2.034581e+01	6.677133e+02
1.130000e-06	3.006962e-06	1.037751e-08	2.095913e+01	6.832383e+02
1.140000e-06	3.094015e-06	1.059112e-08	2.156590e+01	6.974104e+02
1.150000e-06	3.180021e-06	1.079219e-08	2.216538e+01	7.104421e+02
1.160000e-06	3.265052e-06	1.098149e-08	2.275806e+01	7.225832e+02
1.170000e-06	3.349092e-06	1.115993e-08	2.334384e+01	7.340581e+02
1.180000e-06	3.431854e-06	1.132972e-08	2.392071e+01	7.450147e+02
1.190000e-06	3.513287e-06	1.148887e-08	2.448831e+01	7.555032e+02
1.200000e-06	3.593428e-06	1.163586e-08	2.504691e+01	7.654943e+02
1.210000e-06	3.672266e-06	1.177431e-08	2.559643e+01	7.749218e+02
1.220000e-06	3.749876e-06	1.190606e-08	2.613739e+01	7.837334e+02
1.230000e-06	3.826184e-06	1.203025e-08	2.666927e+01	7.919275e+02
1.240000e-06	3.900828e-06	1.214907e-08	2.718956e+01	7.995626e+02
1.250000e-06	3.973818e-06	1.226400e-08	2.769831e+01	8.067406e+02
1.260000e-06	4.045471e-06	1.237284e-08	2.819774e+01	8.135730e+02
1.270000e-06	4.115738e-06	1.247308e-08	2.868752e+01	8.201466e+02
1.280000e-06	4.184630e-06	1.256468e-08	2.916771e+01	8.265023e+02
1.290000e-06	4.252034e-06	1.265260e-08	2.963753e+01	8.326351e+02
1.300000e-06	4.317737e-06	1.274084e-08	3.009549e+01	8.385121e+02
1.310000e-06	4.381924e-06	1.282830e-08	3.054289e+01	8.440994e+02
1.320000e-06	4.444723e-06	1.291064e-08	3.098061e+01	8.493850e+02
1.330000e-06	4.506097e-06	1.298667e-08	3.140840e+01	8.543886e+02
1.340000e-06	4.566002e-06	1.306033e-08	3.182595e+01	8.591561e+02
1.350000e-06	4.624114e-06	1.313323e-08	3.223100e+01	8.637409e+02
1.360000e-06	4.680434e-06	1.320310e-08	3.262356e+01	8.681835e+02
1.370000e-06	4.735197e-06	1.326767e-08	3.300528e+01	8.724969e+02
1.380000e-06	4.788182e-06	1.332754e-08	3.337459e+01	8.766642e+02
1.390000e-06	4.839088e-06	1.338606e-08	3.372942e+01	8.806488e+02
1.400000e-06	4.888006e-06	1.344395e-08	3.407038e+01	8.844112e+02
1.410000e-06	4.935184e-06	1.349785e-08	3.439922e+01	8.879258e+02
1.420000e-06	4.980763e-06	1.354692e-08	3.471692e+01	8.911906e+02
1.430000e-06	5.024640e-06	1.359403e-08	3.502275e+01	8.942258e+02
1.440000e-06	5.066505e-06	1.363974e-08	3.531455e+01	8.970650e+02
1.450000e-06	5.106557e-06	1.368298e-08	3.559373e+01	8.997415e+02
1.460000e-06	5.145023e-06	1.372205e-08	3.586184e+01	9.022778e+02
1.470000e-06	5.181825e-06	1.375903e-08	3.611836e+01	9.046804e+02
1.480000e-06	5.216664e-06	1.379433e-08	3.636120e+01	9.069425e+02
1.490000e-06	5.249503e-06	1.382611e-08	3.659009e+01	9.090514e+02
1.500000e-06	5.280624e-06	1.385390e-08	3.680701e+01	9.109966e+02
1.510000e-06	5.310079e-06	1.388033e-08	3.701231e+01	9.127749e+02
1.520000e-06	5.337767e-06	1.390765e-08	3.720531e+01	9.143906e+02
1.530000e-06	5.363316e-06	1.393329e-08	3.738339e+01	9.158531e+02
1.540000e-06	5.386801e-06	1.395563e-08	3.754708e+01	9.171713e+02
1.550000e-06	5.408578e-06	1.397530e-08	3.769887e+01	9.183516e+02
1.560000e-06	5.428582e-06	1.399315e-08	3.783830e+01	9.193971e+02
1.570000e-06	5.446618e-06	1.400894e-08	3.796402e+01	9.203103e+02
1.580000e-06	5.462649e-06	1.402198e-08	3.807576e+01	9.210957e+02
1.590000e-06	5.476694e-06	1.403175e-08	3.817366e+01	9.217601e+02
1.600000e-06	5.488601e-06	1.404114e-08	3.825665e+01	9.223114e+02
1.610000e-06	5.498280e-06	1.405108e-08	3.832412e+01	9.227536e+02
1.620000e-06	5.505979e-06	1.405716e-08	3.837778e+01	9.230843e+02
1.630000e-06	5.511871e-06	1.405947e-08	3.841885e+01	9.232938e+02
1.640000e-06	5.515862e-06	1.406403e-08	3.844666e+01	9.233696e+02
1.650000e-06	5.517775e-06	1.406960e-08	3.846000e+01	9.233037e+02
1.660000e-06	5.517769e-06	1.406942e-08	3.845996e+01	9.230999e+02
1.670000e-06	5.516114e-06	1.406204e-08	3.844842e+01	9.227765e+02
1.680000e-06	5.512748e-06	1.405666e-08	3.842496e+01	9.223625e+02
1.690000e-06	5.507439e-06	1.405323e-08	3.838796e+01	9.218867e+02
1.700000e-06	5.500259e-06	1.404539e-08	3.833791e+01	9.213646e+02
1.710000e-06	5.491448e-06	1.403338e-08	3.827650e+01	9.207877e+02
1.720000e-06	5.480937e-06	1.402428e-08	3.820323e+01	9.201222e+02
1.730000e-06	5.468434e-06	1.402128e-08	3.811608e+01	9.193182e+02
1.740000e-06	5.453891e-06	1.399061e-08	3.801471e+01	9.183286e+02
1.750000e-06	5.437311e-06	1.392667e-08	3.789915e+01	9.171298e+02
1.760000e-06	5.418149e-06	1.391424e-08	3.776558e+01	9.157361e+02
1.770000e-06	5.396192e-06	1.391614e-08	3.761254e+01	9.142005e+02
1.780000e-06	5.372257e-06	1.393886e-08	3.744571e+01	9.126005e+02
1.790000e-06	5.347366e-06	1.394030e-08	3.727221e+01	9.110110e+02
1.800000e-06	5.321604e-06	1.381559e-08	3.709265e+01	9.094762e+02
1.810000e-06	5.293902e-06	1.382712e-08	3.689956e+01	9.079894e+02
1.820000e-06	5.263904e-06	1.386833e-08	3.669047e+01	9.064909e+02
1.830000e-06	5.232322e-06	1.378487e-08	3.647033e+01	9.048850e+02
1.840000e-06	5.198980e-06	1.383000e-08	3.623793e+01	9.030710e+02
1.850000e-06	5.163823e-06	1.380289e-08	3.599288e+01	9.009775e+02
1.860000e-06	5.126932e-06	1.371778e-08	3.573574e+01	8.985862e+02
1.870000e-06	5.087969e-06	1.376772e-08	3.546417e+01	8.959362e+02
1.880000e-06	5.047291e-06	1.367249e-08	3.518063e+01	8.931071e+02
1.890000e-06	5.005032e-06	1.358963e-08	3.488608e+01	8.901878e+02
1.900000e-06	4.960858e-06	1.357200e-08	3.457818e+01	8.872424e+02
1.910000e-06	4.914904e-06	1.346472e-08	3.425787e+01	8.842873e+02
1.920000e-06	4.867125e-06	1.348751e-08	3.392484e+01	8.812888e+02
1.930000e-06	4.817497e-06	1.343689e-08	3.357892e+01	8.781806e+02
1.940000e-06	4.766062e-06	1.335040e-08	3.322041e+01	8.748948e+02
1.950000e-06	4.712538e-06	1.335802e-08	3.284734e+01	8.713922e+02
1.960000e-06	4.657239e-06	1.325181e-08	3.246189e+01	8.676799e+02
1.970000e-06	4.600340e-06	1.318937e-08	3.206529e+01	8.638075e+02
1.980000e-06	4.541821e-06	1.311162e-08	3.165740e+01	8.598450e+02
1.990000e-06	4.481708e-06	1.304342e-08	3.123840e+01	8.558500e+02
2.000000e-06	4.419817e-06	1.303964e-08	3.080701e+01	8.518406e+02
2.010000e-06	4.356305e-06	1.295796e-08	3.036432e+01	8.477837e+02
2.020000e-06	4.291268e-06	1.292064e-08	2.991100e+01	8.436063e+02
2.030000e-06	4.224776e-06	1.283097e-08	2.944753e+01	8.392239e+02
2.040000e-06	4.156814e-06	1.274417e-08	2.897383e+01	8.345752e+02
2.050000e-06	4.087152e-06	1.268352e-08	2.848827e+01	8.296482e+02
2.060000e-06	4.015981e-06	1.256802e-08	2.799219e+01	8.244855e+02
2.070000e-06	3.943441e-06	1.251415e-08	2.748657e+01	8.191674e+02
2.080000e-06	3.869494e-06	1.243481e-08	2.697115e+01	8.137770e+02
2.090000e-06	3.794016e-06	1.236944e-08	2.644505e+01	8.083647e+02
2.100000e-06	3.716826e-06	1.228498e-08	2.590702e+01	8.029247e+02
2.110000e-06	3.638139e-06	1.217351e-08	2.535856e+01	7.973946e+02
2.120000e-06	3.558239e-06	1.209476e-08	2.480164e+01	7.916793e+02
2.130000e-06	3.477245e-06	1.199123e-08	2.423710e+01	7.856889e+02
2.140000e-06	3.395091e-06	1.191111e-08	2.366447e+01	7.793751e+02
2.150000e-06	3.311735e-06	1.180860e-08	2.308346e+01	7.727503e+02
2.160000e-06	3.227070e-06	1.170531e-08	2.249332e+01	7.658819e+02
2.170000e-06	3.141024e-06	1.160817e-08	2.189357e+01	7.588620e+02
2.180000e-06	3.053888e-06	1.149481e-08	2.128621e+01	7.517673e+02
2.190000e-06	2.965863e-06	1.138616e-08	2.067266e+01	7.446242e+02
2.200000e-06	2.876882e-06	1.126392e-08	2.005244e+01	7.373945e+02
2.210000e-06	2.786887e-06	1.115177e-08	1.942516e+01	7.299892e+02
2.220000e-06	2.696019e-06	1.103749e-08	1.879179e+01	7.223034e+02
2.230000e-06	2.604240e-06	1.091459e-08	1.815208e+01	7.142584e+02
2.240000e-06	2.511424e-06	1.078297e-08	1.750513e+01	7.058334e+02
2.250000e-06	2.417598e-06	1.064951e-08	1.685114e+01	6.970717e+02
2.260000e-06	2.322882e-06	1.051497e-08	1.619095e+01	6.880593e+02
2.270000e-06	2.227414e-06	1.037835e-08	1.552552e+01	6.788838e+02
2.280000e-06	2.131185e-06	1.023894e-08	1.485479e+01	6.695918e+02
2.290000e-06	2.034264e-06	1.009228e-08	1.417923e+01	6.601622e+02
2.300000e-06	1.936681e-06	9.944596e-09	1.349906e+01	6.505090e+02
2.310000e-06	1.838452e-06	9.789188e-09	1.281438e+01	6.405110e+02
2.320000e-06	1.739702e-06	9.628522e-09	1.212607e+01	6.300588e+02
2.330000e-06	1.640430e-06	9.458189e-09	1.143413e+01	6.190967e+02
2.340000e-06	1.540607e-06	9.288160e-09	1.073834e+01	6.076420e+02
2.350000e-06	1.440172e-06	9.114666e-09	1.003829e+01	5.957725e+02
2.360000e-06	1.339012e-06	8.929653e-09	9.333180e+00	5.835862e+02
2.370000e-06	1.237187e-06	8.738287e-09	8.623443e+00	5.711501e+02
2.380000e-06	1.134871e-06	8.539924e-09	7.910282e+00	5.584606e+02
2.390000e-06	1.032154e-06	8.338819e-09	7.194320e+00	5.454329e+02
2.400000e-06	9.290755e-07	8.127774e-09	6.475842e+00	5.319269e+02
2.410000e-06	8.257224e-07	7.907979e-09	5.755451e+00	5.177971e+02
2.420000e-06	7.220916e-07	7.682484e-09	5.033124e+00	5.029479e+02
2.430000e-06	6.182024e-07	7.449598e-09	4.308995e+00	4.873675e+02
2.440000e-06	5.141185e-07	7.208066e-09	3.583509e+00	4.711242e+02
2.450000e-06	4.098709e-07	6.955003e-09	2.856882e+00	4.543237e+02
2.460000e-06	3.054901e-07	6.690056e-09	2.129328e+00	4.370439e+02
2.470000e-06	2.009830e-07	6.416113e-09	1.400892e+00	4.192754e+02
2.480000e-06	9.641870e-08	6.132163e-09	6.720577e-01	4.008938e+02
2.490000e-06	-8.164556e-09	5.832667e-09	-5.690860e-02	3.816818e+02
2.500000e-06	-1.127340e-07	5.517536e-09	-7.857786e-01	3.613913e+02
2.510000e-06	-2.172499e-07	5.189833e-09	-1.514276e+00	3.398238e+02
2.520000e-06	-3.216425e-07	4.848766e-09	-2.241913e+00	3.168885e+02
2.530000e-06	-4.259212e-07	4.488899e-09	-2.968756e+00	2.926059e+02
2.540000e-06	-5.300655e-07	4.106122e-09	-3.694663e+00	2.670431e+02
2.550000e-06	-6.339400e-07	3.699233e-09	-4.418689e+00	2.401942e+02
2.560000e-06	-7.375673e-07	3.265315e-09	-5.140992e+00	2.118478e+02
2.570000e-06	-8.409694e-07	2.795818e-09	-5.861726e+00	1.814963e+02
2.580000e-06	-9.440717e-07	2.283043e-09	-6.580369e+00	1.483391e+02
2.590000e-06	-1.046875e-06	1.720798e-09	-7.296926e+00	1.114029e+02
2.600000e-06	-1.149331e-06	1.097568e-09	-8.011067e+00	6.976580e+01
2.610000e-06	-1.251300e-06	3.998613e-10	-8.721813e+00	2.283410e+01
2.620000e-06	-1.352672e-06	-3.807823e-10	-9.428392e+00	-2.940596e+01
2.630000e-06	-1.453386e-06	-1.240856e-09	-1.013039e+01	-8.623976e+01
2.640000e-06	-1.553471e-06	-2.160910e-09	-1.082800e+01	-1.462332e+02
2.650000e-06	-1.652953e-06	-3.108339e-09	-1.152141e+01	-2.074105e+02
2.660000e-06	-1.751844e-06	-4.040939e-09	-1.221071e+01	-2.675631e+02
2.670000e-06	-1.850172e-06	-4.919781e-09	-1.289607e+01	-3.246153e+02
2.680000e-06	-1.947931e-06	-5.718745e-09	-1.357747e+01	-3.769535e+02
2.690000e-06	-2.045051e-06	-6.428032e-09	-1.425441e+01	-4.236408e+02
2.700000e-06	-2.141432e-06	-7.052756e-09	-1.492621e+01	-4.644709e+02
2.710000e-06	-2.237105e-06	-7.600586e-09	-1.559307e+01	-4.998623e+02
2.720000e-06	-2.332223e-06	-8.080249e-09	-1.625606e+01	-5.306386e+02
2.730000e-06	-2.426711e-06	-8.504424e-09	-1.691467e+01	-5.577665e+02
2.740000e-06	-2.520219e-06	-8.884267e-09	-1.756643e+01	-5.821240e+02
2.750000e-06	-2.612497e-06	-9.226448e-09	-1.820963e+01	-6.043558e+02
2.760000e-06	-2.703681e-06	-9.537521e-09	-1.884520e+01	-6.248360e+02
2.770000e-06	-2.793956e-06	-9.821444e-09	-1.947443e+01	-6.437218e+02
2.780000e-06	-2.883255e-06	-1.008085e-08	-2.009686e+01	-6.610603e+02
2.790000e-06	-2.971499e-06	-1.032260e-08	-2.071194e+01	-6.768963e+02
2.800000e-06	-3.058814e-06	-1.054881e-08	-2.132054e+01	-6.913437e+02
2.810000e-06	-3.145191e-06	-1.075795e-08	-2.192262e+01	-7.046000e+02
2.820000e-06	-3.230291e-06	-1.095150e-08	-2.251578e+01	-7.169122e+02
2.830000e-06	-3.314028e-06	-1.113203e-08	-2.309944e+01	-7.285152e+02
2.840000e-06	-3.396642e-06	-1.130017e-08	-2.367528e+01	-7.395762e+02
2.850000e-06	-3.478181e-06	-1.145663e-08	-2.424362e+01	-7.501663e+02
2.860000e-06	-3.558551e-06	-1.160460e-08	-2.480381e+01	-7.602700e+02
2.870000e-06	-3.637795e-06	-1.174565e-08	-2.535616e+01	-7.698247e+02
2.880000e-06	-3.715718e-06	-1.188104e-08	-2.589930e+01	-7.787715e+02
2.890000e-06	-3.791960e-06	-1.201043e-08	-2.643073e+01	-7.870959e+02
2.900000e-06	-3.866665e-06	-1.213401e-08	-2.695143e+01	-7.948441e+02
2.910000e-06	-3.939950e-06	-1.225014e-08	-2.746224e+01	-8.021114e+02
2.920000e-06	-4.011868e-06	-1.235479e-08	-2.796353e+01	-8.090102e+02
2.930000e-06	-4.082542e-06	-1.245201e-08	-2.845614e+01	-8.156350e+02
2.940000e-06	-4.151651e-06	-1.254746e-08	-2.893784e+01	-8.220373e+02
