# Temperatura_=_54.1
# Concentracion g/m^3_=_13400.0
# C_Vs_to_Am_M_A/Vsm_=_65563218390.804596
# pendiente_HvsI_1/m_=_3716.3
# ordenada_HvsI_A/m_=_1297.0
# frecuencia_Hz_=_300799.35464640305

Tiempo_(s)	Campo_(V.s)	Magnetizacion_(V.s)	Campo_(kA/m)	Magnetizacion_(A/m)
0.000000e+00	-5.501181e-06	-1.430123e-08	-3.830613e+01	-9.388088e+02
1.000000e-08	-5.499106e-06	-1.429451e-08	-3.829168e+01	-9.385766e+02
2.000000e-08	-5.495090e-06	-1.428896e-08	-3.826371e+01	-9.381833e+02
3.000000e-08	-5.489374e-06	-1.428624e-08	-3.822391e+01	-9.376404e+02
4.000000e-08	-5.482046e-06	-1.428107e-08	-3.817288e+01	-9.369753e+02
5.000000e-08	-5.473063e-06	-1.426911e-08	-3.811034e+01	-9.362151e+02
6.000000e-08	-5.462081e-06	-1.425045e-08	-3.803387e+01	-9.353709e+02
7.000000e-08	-5.448937e-06	-1.423046e-08	-3.794234e+01	-9.344307e+02
8.000000e-08	-5.433734e-06	-1.422172e-08	-3.783648e+01	-9.333641e+02
9.000000e-08	-5.416218e-06	-1.422547e-08	-3.771451e+01	-9.321382e+02
1.000000e-07	-5.396466e-06	-1.421664e-08	-3.757697e+01	-9.307365e+02
1.100000e-07	-5.374740e-06	-1.418196e-08	-3.742569e+01	-9.291723e+02
1.200000e-07	-5.351208e-06	-1.413476e-08	-3.726183e+01	-9.274882e+02
1.300000e-07	-5.326217e-06	-1.409230e-08	-3.708781e+01	-9.257421e+02
1.400000e-07	-5.299701e-06	-1.405743e-08	-3.690317e+01	-9.239837e+02
1.500000e-07	-5.271385e-06	-1.404836e-08	-3.670600e+01	-9.222310e+02
1.600000e-07	-5.241354e-06	-1.402159e-08	-3.649689e+01	-9.204592e+02
1.700000e-07	-5.209648e-06	-1.398089e-08	-3.627611e+01	-9.186048e+02
1.800000e-07	-5.176012e-06	-1.397418e-08	-3.604190e+01	-9.165864e+02
1.900000e-07	-5.140442e-06	-1.394158e-08	-3.579421e+01	-9.143336e+02
2.000000e-07	-5.103244e-06	-1.388488e-08	-3.553519e+01	-9.118113e+02
2.100000e-07	-5.064337e-06	-1.382382e-08	-3.526427e+01	-9.090315e+02
2.200000e-07	-5.023604e-06	-1.376277e-08	-3.498064e+01	-9.060463e+02
2.300000e-07	-4.980979e-06	-1.373697e-08	-3.468383e+01	-9.029254e+02
2.400000e-07	-4.936397e-06	-1.371278e-08	-3.437339e+01	-8.997282e+02
2.500000e-07	-4.890027e-06	-1.367494e-08	-3.405050e+01	-8.964820e+02
2.600000e-07	-4.841815e-06	-1.363302e-08	-3.371479e+01	-8.931752e+02
2.700000e-07	-4.791539e-06	-1.356173e-08	-3.336471e+01	-8.897674e+02
2.800000e-07	-4.739187e-06	-1.350054e-08	-3.300017e+01	-8.862119e+02
2.900000e-07	-4.685025e-06	-1.343605e-08	-3.262303e+01	-8.824794e+02
3.000000e-07	-4.629186e-06	-1.335643e-08	-3.223421e+01	-8.785728e+02
3.100000e-07	-4.571592e-06	-1.330849e-08	-3.183316e+01	-8.745248e+02
3.200000e-07	-4.512209e-06	-1.327687e-08	-3.141967e+01	-8.703810e+02
3.300000e-07	-4.451232e-06	-1.322730e-08	-3.099506e+01	-8.661761e+02
3.400000e-07	-4.388803e-06	-1.315050e-08	-3.056035e+01	-8.619133e+02
3.500000e-07	-4.324895e-06	-1.307010e-08	-3.011535e+01	-8.575589e+02
3.600000e-07	-4.259470e-06	-1.299068e-08	-2.965978e+01	-8.530535e+02
3.700000e-07	-4.192388e-06	-1.291412e-08	-2.919267e+01	-8.483369e+02
3.800000e-07	-4.123680e-06	-1.284621e-08	-2.871424e+01	-8.433747e+02
3.900000e-07	-4.053568e-06	-1.276742e-08	-2.822603e+01	-8.381747e+02
4.000000e-07	-3.982215e-06	-1.269010e-08	-2.772918e+01	-8.327854e+02
4.100000e-07	-3.909544e-06	-1.261909e-08	-2.722315e+01	-8.272752e+02
4.200000e-07	-3.835300e-06	-1.253418e-08	-2.670617e+01	-8.217017e+02
4.300000e-07	-3.759352e-06	-1.244088e-08	-2.617733e+01	-8.160844e+02
4.400000e-07	-3.681818e-06	-1.234762e-08	-2.563744e+01	-8.103919e+02
4.500000e-07	-3.602840e-06	-1.226477e-08	-2.508750e+01	-8.045522e+02
4.600000e-07	-3.522347e-06	-1.217562e-08	-2.452701e+01	-7.984807e+02
4.700000e-07	-3.440466e-06	-1.207258e-08	-2.395684e+01	-7.921158e+02
4.800000e-07	-3.357410e-06	-1.196821e-08	-2.337851e+01	-7.854452e+02
4.900000e-07	-3.273306e-06	-1.186486e-08	-2.279287e+01	-7.785119e+02
5.000000e-07	-3.188265e-06	-1.176414e-08	-2.220070e+01	-7.713956e+02
5.100000e-07	-3.102224e-06	-1.165463e-08	-2.160158e+01	-7.641771e+02
5.200000e-07	-3.015171e-06	-1.154438e-08	-2.099541e+01	-7.569005e+02
5.300000e-07	-2.927181e-06	-1.143628e-08	-2.038271e+01	-7.495493e+02
5.400000e-07	-2.838272e-06	-1.132217e-08	-1.976361e+01	-7.420492e+02
5.500000e-07	-2.748335e-06	-1.119862e-08	-1.913736e+01	-7.342951e+02
5.600000e-07	-2.657168e-06	-1.106858e-08	-1.850254e+01	-7.261942e+02
5.700000e-07	-2.564926e-06	-1.093988e-08	-1.786024e+01	-7.177048e+02
5.800000e-07	-2.471862e-06	-1.081294e-08	-1.721221e+01	-7.088536e+02
5.900000e-07	-2.377989e-06	-1.068199e-08	-1.655854e+01	-6.997244e+02
6.000000e-07	-2.283320e-06	-1.054214e-08	-1.589934e+01	-6.904194e+02
6.100000e-07	-2.187871e-06	-1.039784e-08	-1.523470e+01	-6.810105e+02
6.200000e-07	-2.091670e-06	-1.025004e-08	-1.456483e+01	-6.715016e+02
6.300000e-07	-1.994738e-06	-1.009916e-08	-1.388987e+01	-6.618176e+02
6.400000e-07	-1.896993e-06	-9.944541e-09	-1.320925e+01	-6.518285e+02
6.500000e-07	-1.798355e-06	-9.783843e-09	-1.252241e+01	-6.413977e+02
6.600000e-07	-1.698910e-06	-9.617142e-09	-1.182995e+01	-6.304365e+02
6.700000e-07	-1.598862e-06	-9.444921e-09	-1.113329e+01	-6.189392e+02
6.800000e-07	-1.498314e-06	-9.264921e-09	-1.043314e+01	-6.069837e+02
6.900000e-07	-1.397285e-06	-9.078520e-09	-9.729651e+00	-5.946949e+02
7.000000e-07	-1.295870e-06	-8.890487e-09	-9.023471e+00	-5.821846e+02
7.100000e-07	-1.194033e-06	-8.698289e-09	-8.314356e+00	-5.694938e+02
7.200000e-07	-1.091727e-06	-8.498629e-09	-7.601973e+00	-5.565618e+02
7.300000e-07	-9.890646e-07	-8.292029e-09	-6.887109e+00	-5.432383e+02
7.400000e-07	-8.860730e-07	-8.078644e-09	-6.169953e+00	-5.293349e+02
7.500000e-07	-7.827543e-07	-7.855750e-09	-5.450519e+00	-5.146951e+02
7.600000e-07	-6.791423e-07	-7.621627e-09	-4.729042e+00	-4.992539e+02
7.700000e-07	-5.752714e-07	-7.378576e-09	-4.005762e+00	-4.830579e+02
7.800000e-07	-4.712421e-07	-7.127149e-09	-3.281379e+00	-4.662356e+02
7.900000e-07	-3.671165e-07	-6.866557e-09	-2.556326e+00	-4.489265e+02
8.000000e-07	-2.628935e-07	-6.596296e-09	-1.830594e+00	-4.311975e+02
8.100000e-07	-1.585961e-07	-6.314063e-09	-1.104345e+00	-4.129835e+02
8.200000e-07	-5.426430e-08	-6.018279e-09	-3.778562e-01	-3.940806e+02
8.300000e-07	5.007163e-08	-5.708765e-09	3.486615e-01	-3.741991e+02
8.400000e-07	1.543708e-07	-5.384952e-09	1.074923e+00	-3.530573e+02
8.500000e-07	2.586276e-07	-5.047502e-09	1.800890e+00	-3.304754e+02
8.600000e-07	3.628219e-07	-4.691129e-09	2.526422e+00	-3.064236e+02
8.700000e-07	4.669092e-07	-4.308372e-09	3.251208e+00	-2.809923e+02
8.800000e-07	5.708924e-07	-3.897807e-09	3.975270e+00	-2.542818e+02
8.900000e-07	6.747338e-07	-3.462583e-09	4.698344e+00	-2.262443e+02
9.000000e-07	7.783683e-07	-3.000562e-09	5.419977e+00	-1.965392e+02
9.100000e-07	8.817255e-07	-2.499049e-09	6.139680e+00	-1.644674e+02
9.200000e-07	9.847248e-07	-1.949594e-09	6.856891e+00	-1.290333e+02
9.300000e-07	1.087349e-06	-1.341228e-09	7.571492e+00	-8.914254e+01
9.400000e-07	1.189611e-06	-6.584189e-10	8.283567e+00	-4.389801e+01
9.500000e-07	1.291490e-06	1.117163e-10	8.992974e+00	7.087171e+00
9.600000e-07	1.392926e-06	9.728750e-10	9.699301e+00	6.345207e+01
9.700000e-07	1.493879e-06	1.908353e-09	1.040226e+01	1.240073e+02
9.800000e-07	1.594387e-06	2.881925e-09	1.110212e+01	1.868489e+02
9.900000e-07	1.694455e-06	3.849107e-09	1.179892e+01	2.496494e+02
1.000000e-06	1.793940e-06	4.769221e-09	1.249166e+01	3.100541e+02
1.010000e-06	1.892635e-06	5.610181e-09	1.317890e+01	3.660809e+02
1.020000e-06	1.990402e-06	6.355325e-09	1.385968e+01	4.164212e+02
1.030000e-06	2.087293e-06	7.005383e-09	1.453435e+01	4.605709e+02
1.040000e-06	2.183447e-06	7.574998e-09	1.520390e+01	4.987728e+02
1.050000e-06	2.278899e-06	8.080596e-09	1.586855e+01	5.318047e+02
1.060000e-06	2.373614e-06	8.529444e-09	1.652808e+01	5.606901e+02
1.070000e-06	2.467575e-06	8.925944e-09	1.718235e+01	5.864201e+02
1.080000e-06	2.560720e-06	9.281175e-09	1.783095e+01	6.097592e+02
1.090000e-06	2.653029e-06	9.605382e-09	1.847372e+01	6.311739e+02
1.100000e-06	2.744448e-06	9.898957e-09	1.911029e+01	6.508739e+02
1.110000e-06	2.834633e-06	1.016329e-08	1.973828e+01	6.689269e+02
1.120000e-06	2.923561e-06	1.040635e-08	2.035751e+01	6.853847e+02
1.130000e-06	3.011531e-06	1.063441e-08	2.097006e+01	7.003729e+02
1.140000e-06	3.098579e-06	1.084719e-08	2.157619e+01	7.141135e+02
1.150000e-06	3.184661e-06	1.104448e-08	2.217561e+01	7.268856e+02
1.160000e-06	3.269707e-06	1.123015e-08	2.276781e+01	7.389525e+02
1.170000e-06	3.353749e-06	1.140879e-08	2.335301e+01	7.504918e+02
1.180000e-06	3.436666e-06	1.157988e-08	2.393038e+01	7.615617e+02
1.190000e-06	3.518231e-06	1.173747e-08	2.449834e+01	7.721167e+02
1.200000e-06	3.598486e-06	1.188155e-08	2.505718e+01	7.820610e+02
1.210000e-06	3.677415e-06	1.201771e-08	2.560678e+01	7.913170e+02
1.220000e-06	3.755033e-06	1.214762e-08	2.614726e+01	7.998780e+02
1.230000e-06	3.831325e-06	1.226998e-08	2.667849e+01	8.078239e+02
1.240000e-06	3.906079e-06	1.238731e-08	2.719902e+01	8.152976e+02
1.250000e-06	3.979198e-06	1.250263e-08	2.770818e+01	8.224539e+02
1.260000e-06	4.050899e-06	1.261432e-08	2.820745e+01	8.294056e+02
1.270000e-06	4.121261e-06	1.271859e-08	2.869740e+01	8.361902e+02
1.280000e-06	4.190191e-06	1.281399e-08	2.917737e+01	8.427700e+02
1.290000e-06	4.257662e-06	1.290372e-08	2.964719e+01	8.490641e+02
1.300000e-06	4.323463e-06	1.299152e-08	3.010538e+01	8.549963e+02
1.310000e-06	4.387663e-06	1.307778e-08	3.055242e+01	8.605381e+02
1.320000e-06	4.450440e-06	1.315989e-08	3.098955e+01	8.657271e+02
1.330000e-06	4.511768e-06	1.323734e-08	3.141660e+01	8.706550e+02
1.340000e-06	4.571656e-06	1.331309e-08	3.183361e+01	8.754313e+02
1.350000e-06	4.629827e-06	1.338894e-08	3.223867e+01	8.801385e+02
1.360000e-06	4.686192e-06	1.346195e-08	3.263115e+01	8.848001e+02
1.370000e-06	4.740907e-06	1.352930e-08	3.301215e+01	8.893734e+02
1.380000e-06	4.793850e-06	1.359278e-08	3.338080e+01	8.937701e+02
1.390000e-06	4.844831e-06	1.365312e-08	3.373579e+01	8.978954e+02
1.400000e-06	4.893801e-06	1.370968e-08	3.407679e+01	9.016887e+02
1.410000e-06	4.940966e-06	1.376199e-08	3.440521e+01	9.051482e+02
1.420000e-06	4.986530e-06	1.381052e-08	3.472248e+01	9.083304e+02
1.430000e-06	5.030420e-06	1.385866e-08	3.502810e+01	9.113257e+02
1.440000e-06	5.072364e-06	1.390781e-08	3.532017e+01	9.142207e+02
1.450000e-06	5.112411e-06	1.395530e-08	3.559902e+01	9.170646e+02
1.460000e-06	5.150806e-06	1.399853e-08	3.586638e+01	9.198521e+02
1.470000e-06	5.187540e-06	1.403811e-08	3.612217e+01	9.225304e+02
1.480000e-06	5.222405e-06	1.407508e-08	3.636494e+01	9.250254e+02
1.490000e-06	5.255289e-06	1.410735e-08	3.659392e+01	9.272751e+02
1.500000e-06	5.286394e-06	1.413531e-08	3.681051e+01	9.292560e+02
1.510000e-06	5.315824e-06	1.416249e-08	3.701544e+01	9.309920e+02
1.520000e-06	5.343416e-06	1.418972e-08	3.720757e+01	9.325421e+02
1.530000e-06	5.368900e-06	1.421610e-08	3.738502e+01	9.339748e+02
1.540000e-06	5.392380e-06	1.424041e-08	3.754852e+01	9.353397e+02
1.550000e-06	5.414121e-06	1.426164e-08	3.769991e+01	9.366492e+02
1.560000e-06	5.434141e-06	1.428076e-08	3.783931e+01	9.378773e+02
1.570000e-06	5.452205e-06	1.430028e-08	3.796510e+01	9.389753e+02
1.580000e-06	5.468221e-06	1.431602e-08	3.807662e+01	9.398957e+02
1.590000e-06	5.482281e-06	1.432460e-08	3.817452e+01	9.406144e+02
1.600000e-06	5.494143e-06	1.433213e-08	3.825712e+01	9.411406e+02
1.610000e-06	5.503755e-06	1.434414e-08	3.832405e+01	9.415114e+02
1.620000e-06	5.511405e-06	1.435662e-08	3.837732e+01	9.417744e+02
1.630000e-06	5.517272e-06	1.436292e-08	3.841817e+01	9.419665e+02
1.640000e-06	5.521310e-06	1.436385e-08	3.844629e+01	9.420987e+02
1.650000e-06	5.523279e-06	1.436507e-08	3.846000e+01	9.421545e+02
1.660000e-06	5.523258e-06	1.436652e-08	3.845986e+01	9.420998e+02
1.670000e-06	5.521531e-06	1.436309e-08	3.844783e+01	9.419011e+02
1.680000e-06	5.518137e-06	1.435688e-08	3.842420e+01	9.415416e+02
1.690000e-06	5.512855e-06	1.435123e-08	3.838742e+01	9.410284e+02
1.700000e-06	5.505610e-06	1.434724e-08	3.833697e+01	9.403865e+02
1.710000e-06	5.496618e-06	1.434023e-08	3.827435e+01	9.396446e+02
1.720000e-06	5.485937e-06	1.432765e-08	3.819998e+01	9.388183e+02
1.730000e-06	5.473345e-06	1.430571e-08	3.811230e+01	9.379004e+02
1.740000e-06	5.458711e-06	1.427142e-08	3.801040e+01	9.368634e+02
1.750000e-06	5.441988e-06	1.422898e-08	3.789396e+01	9.356734e+02
1.760000e-06	5.422679e-06	1.421067e-08	3.775950e+01	9.343090e+02
1.770000e-06	5.400669e-06	1.421533e-08	3.760624e+01	9.327765e+02
1.780000e-06	5.376767e-06	1.421669e-08	3.743980e+01	9.311130e+02
1.790000e-06	5.351863e-06	1.419875e-08	3.726639e+01	9.293750e+02
1.800000e-06	5.325985e-06	1.414409e-08	3.708619e+01	9.276159e+02
1.810000e-06	5.298137e-06	1.410806e-08	3.689228e+01	9.258622e+02
1.820000e-06	5.268058e-06	1.411195e-08	3.668284e+01	9.240983e+02
1.830000e-06	5.236402e-06	1.410283e-08	3.646241e+01	9.222678e+02
1.840000e-06	5.203021e-06	1.408776e-08	3.622997e+01	9.202909e+02
1.850000e-06	5.167831e-06	1.404698e-08	3.598493e+01	9.180924e+02
1.860000e-06	5.130836e-06	1.401262e-08	3.572733e+01	9.156280e+02
1.870000e-06	5.091763e-06	1.400023e-08	3.545525e+01	9.128997e+02
1.880000e-06	5.050974e-06	1.393202e-08	3.517122e+01	9.099525e+02
1.890000e-06	5.008576e-06	1.387621e-08	3.487600e+01	9.068544e+02
1.900000e-06	4.964314e-06	1.382686e-08	3.456779e+01	9.036695e+02
1.910000e-06	4.918277e-06	1.374502e-08	3.424722e+01	9.004332e+02
1.920000e-06	4.870338e-06	1.371993e-08	3.391340e+01	8.971417e+02
1.930000e-06	4.820618e-06	1.367102e-08	3.356719e+01	8.937592e+02
1.940000e-06	4.769137e-06	1.360013e-08	3.320872e+01	8.902383e+02
1.950000e-06	4.715491e-06	1.358321e-08	3.283517e+01	8.865443e+02
1.960000e-06	4.660015e-06	1.350744e-08	3.244887e+01	8.826727e+02
1.970000e-06	4.602984e-06	1.342071e-08	3.205176e+01	8.786508e+02
1.980000e-06	4.544398e-06	1.335627e-08	3.164380e+01	8.745235e+02
1.990000e-06	4.484229e-06	1.329129e-08	3.122483e+01	8.703297e+02
2.000000e-06	4.422296e-06	1.324707e-08	3.079358e+01	8.660806e+02
2.010000e-06	4.358738e-06	1.318181e-08	3.035101e+01	8.617498e+02
2.020000e-06	4.293652e-06	1.312223e-08	2.989779e+01	8.572818e+02
2.030000e-06	4.227102e-06	1.304232e-08	2.943439e+01	8.526142e+02
2.040000e-06	4.159032e-06	1.295574e-08	2.896040e+01	8.477051e+02
2.050000e-06	4.089232e-06	1.288118e-08	2.847437e+01	8.425528e+02
2.060000e-06	4.017913e-06	1.278388e-08	2.797775e+01	8.371981e+02
2.070000e-06	3.945271e-06	1.271293e-08	2.747193e+01	8.317077e+02
2.080000e-06	3.871281e-06	1.263606e-08	2.695672e+01	8.261441e+02
2.090000e-06	3.795707e-06	1.255584e-08	2.643048e+01	8.205367e+02
2.100000e-06	3.718412e-06	1.246987e-08	2.589225e+01	8.148649e+02
2.110000e-06	3.639640e-06	1.235957e-08	2.534374e+01	8.090635e+02
2.120000e-06	3.559635e-06	1.226959e-08	2.478665e+01	8.030478e+02
2.130000e-06	3.478482e-06	1.217239e-08	2.422156e+01	7.967484e+02
2.140000e-06	3.396171e-06	1.207540e-08	2.364841e+01	7.901410e+02
2.150000e-06	3.312709e-06	1.197603e-08	2.306724e+01	7.832576e+02
2.160000e-06	3.228015e-06	1.186878e-08	2.247749e+01	7.761727e+02
2.170000e-06	3.141981e-06	1.176128e-08	2.187841e+01	7.689703e+02
2.180000e-06	3.054776e-06	1.164160e-08	2.127119e+01	7.617049e+02
2.190000e-06	2.966587e-06	1.152659e-08	2.065711e+01	7.543739e+02
2.200000e-06	2.877457e-06	1.140895e-08	2.003647e+01	7.469136e+02
2.210000e-06	2.787396e-06	1.128993e-08	1.940935e+01	7.392224e+02
2.220000e-06	2.696452e-06	1.117466e-08	1.877609e+01	7.312012e+02
2.230000e-06	2.604576e-06	1.104823e-08	1.813633e+01	7.227947e+02
2.240000e-06	2.511650e-06	1.091178e-08	1.748926e+01	7.140151e+02
2.250000e-06	2.417681e-06	1.076951e-08	1.683493e+01	7.049364e+02
2.260000e-06	2.322794e-06	1.062729e-08	1.617421e+01	6.956608e+02
2.270000e-06	2.227154e-06	1.049044e-08	1.550825e+01	6.862708e+02
2.280000e-06	2.130791e-06	1.034586e-08	1.483724e+01	6.767866e+02
2.290000e-06	2.033687e-06	1.019609e-08	1.416108e+01	6.671495e+02
2.300000e-06	1.935888e-06	1.004462e-08	1.348008e+01	6.572374e+02
2.310000e-06	1.837559e-06	9.889119e-09	1.279539e+01	6.469107e+02
2.320000e-06	1.738731e-06	9.724543e-09	1.210723e+01	6.360664e+02
2.330000e-06	1.639356e-06	9.544465e-09	1.141525e+01	6.246795e+02
2.340000e-06	1.539419e-06	9.363534e-09	1.071937e+01	6.128121e+02
2.350000e-06	1.438844e-06	9.182319e-09	1.001904e+01	6.005834e+02
2.360000e-06	1.337613e-06	8.994938e-09	9.314143e+00	5.881136e+02
2.370000e-06	1.235792e-06	8.800530e-09	8.605133e+00	5.754626e+02
2.380000e-06	1.133403e-06	8.599203e-09	7.892178e+00	5.625920e+02
2.390000e-06	1.030562e-06	8.396424e-09	7.176067e+00	5.493676e+02
2.400000e-06	9.273616e-07	8.186109e-09	6.457456e+00	5.356034e+02
2.410000e-06	8.238051e-07	7.962665e-09	5.736365e+00	5.211302e+02
2.420000e-06	7.199686e-07	7.725954e-09	5.013325e+00	5.058601e+02
2.430000e-06	6.159495e-07	7.479903e-09	4.289014e+00	4.898165e+02
2.440000e-06	5.117972e-07	7.232335e-09	3.563775e+00	4.731154e+02
2.450000e-06	4.074099e-07	6.978457e-09	2.836899e+00	4.559009e+02
2.460000e-06	3.028707e-07	6.709795e-09	2.108966e+00	4.382620e+02
2.470000e-06	1.982628e-07	6.428639e-09	1.380555e+00	4.201643e+02
2.480000e-06	9.358835e-08	6.137627e-09	6.516796e-01	4.014314e+02
2.490000e-06	-1.106853e-08	5.833601e-09	-7.707298e-02	3.817847e+02
2.500000e-06	-1.157190e-07	5.510033e-09	-8.057813e-01	3.609324e+02
2.510000e-06	-2.203509e-07	5.166493e-09	-1.534360e+00	3.386664e+02
2.520000e-06	-3.248909e-07	4.809259e-09	-2.262298e+00	3.149244e+02
2.530000e-06	-4.292846e-07	4.437759e-09	-2.989219e+00	2.897780e+02
2.540000e-06	-5.335292e-07	4.044943e-09	-3.715100e+00	2.633377e+02
2.550000e-06	-6.375672e-07	3.622223e-09	-4.439543e+00	2.356011e+02
2.560000e-06	-7.413296e-07	3.167242e-09	-5.162068e+00	2.062996e+02
2.570000e-06	-8.448150e-07	2.679390e-09	-5.882663e+00	1.748104e+02
2.580000e-06	-9.479924e-07	2.148249e-09	-6.601113e+00	1.401891e+02
2.590000e-06	-1.050815e-06	1.559521e-09	-7.317092e+00	1.013402e+02
2.600000e-06	-1.153275e-06	8.989530e-10	-8.030548e+00	5.729686e+01
2.610000e-06	-1.255293e-06	1.567475e-10	-8.740927e+00	7.538984e+00
2.620000e-06	-1.356727e-06	-6.699627e-10	-9.447234e+00	-4.774583e+01
2.630000e-06	-1.457494e-06	-1.576494e-09	-1.014890e+01	-1.075428e+02
2.640000e-06	-1.557647e-06	-2.540957e-09	-1.084629e+01	-1.700820e+02
2.650000e-06	-1.657186e-06	-3.520116e-09	-1.153941e+01	-2.330954e+02
2.660000e-06	-1.756131e-06	-4.462964e-09	-1.222839e+01	-2.941991e+02
2.670000e-06	-1.854541e-06	-5.336128e-09	-1.291364e+01	-3.513008e+02
2.680000e-06	-1.952378e-06	-6.124831e-09	-1.359491e+01	-4.029302e+02
2.690000e-06	-2.049580e-06	-6.821195e-09	-1.427175e+01	-4.484095e+02
2.700000e-06	-2.146082e-06	-7.428271e-09	-1.494372e+01	-4.878350e+02
2.710000e-06	-2.241887e-06	-7.954924e-09	-1.561084e+01	-5.218927e+02
2.720000e-06	-2.337057e-06	-8.415399e-09	-1.627352e+01	-5.515789e+02
2.730000e-06	-2.431584e-06	-8.825782e-09	-1.693174e+01	-5.779114e+02
2.740000e-06	-2.525193e-06	-9.195267e-09	-1.758357e+01	-6.017138e+02
2.750000e-06	-2.617599e-06	-9.529274e-09	-1.822701e+01	-6.235162e+02
2.760000e-06	-2.708893e-06	-9.833092e-09	-1.886272e+01	-6.435756e+02
2.770000e-06	-2.799220e-06	-1.011239e-08	-1.949169e+01	-6.619787e+02
2.780000e-06	-2.888586e-06	-1.036866e-08	-2.011396e+01	-6.787715e+02
2.790000e-06	-2.976958e-06	-1.060311e-08	-2.072932e+01	-6.940595e+02
2.800000e-06	-3.064318e-06	-1.081777e-08	-2.133763e+01	-7.080452e+02
2.810000e-06	-3.150736e-06	-1.101812e-08	-2.193938e+01	-7.210014e+02
2.820000e-06	-3.235948e-06	-1.120828e-08	-2.253273e+01	-7.332011e+02
2.830000e-06	-3.319785e-06	-1.138856e-08	-2.311651e+01	-7.448448e+02
2.840000e-06	-3.402458e-06	-1.155795e-08	-2.369219e+01	-7.560166e+02
2.850000e-06	-3.484051e-06	-1.171819e-08	-2.426034e+01	-7.666898e+02
2.860000e-06	-3.564517e-06	-1.187036e-08	-2.482064e+01	-7.767735e+02
2.870000e-06	-3.643766e-06	-1.201301e-08	-2.537247e+01	-7.861809e+02
2.880000e-06	-3.721658e-06	-1.214330e-08	-2.591486e+01	-7.948873e+02
2.890000e-06	-3.797929e-06	-1.226479e-08	-2.644595e+01	-8.029549e+02
2.900000e-06	-3.872631e-06	-1.238386e-08	-2.696612e+01	-8.105167e+02
2.910000e-06	-3.945993e-06	-1.249679e-08	-2.747696e+01	-8.177297e+02
2.920000e-06	-4.017990e-06	-1.260045e-08	-2.797829e+01	-8.247197e+02
2.930000e-06	-4.088620e-06	-1.269835e-08	-2.847010e+01	-8.315415e+02
2.940000e-06	-4.157705e-06	-1.279809e-08	-2.895116e+01	-8.381716e+02
