# Temperatura_=_32.23
# Concentracion g/m^3_=_13400.0
# C_Vs_to_Am_M_A/Vsm_=_65563218390.804596
# pendiente_HvsI_1/m_=_3716.3
# ordenada_HvsI_A/m_=_1297.0
# frecuencia_Hz_=_300803.7379938414

Tiempo_(s)	Campo_(V.s)	Magnetizacion_(V.s)	Campo_(kA/m)	Magnetizacion_(A/m)
0.000000e+00	-5.492309e-06	-1.385711e-08	-3.830850e+01	-9.089279e+02
1.000000e-08	-5.490498e-06	-1.385442e-08	-3.829587e+01	-9.087208e+02
2.000000e-08	-5.486781e-06	-1.384898e-08	-3.826995e+01	-9.084344e+02
3.000000e-08	-5.481329e-06	-1.384496e-08	-3.823192e+01	-9.080541e+02
4.000000e-08	-5.474244e-06	-1.383879e-08	-3.818250e+01	-9.075651e+02
5.000000e-08	-5.465552e-06	-1.382753e-08	-3.812187e+01	-9.069546e+02
6.000000e-08	-5.454879e-06	-1.381169e-08	-3.804743e+01	-9.062121e+02
7.000000e-08	-5.442052e-06	-1.378399e-08	-3.795796e+01	-9.053293e+02
8.000000e-08	-5.427223e-06	-1.376690e-08	-3.785453e+01	-9.043021e+02
9.000000e-08	-5.410053e-06	-1.381238e-08	-3.773477e+01	-9.031347e+02
1.000000e-07	-5.390572e-06	-1.381068e-08	-3.759889e+01	-9.018433e+02
1.100000e-07	-5.369116e-06	-1.374884e-08	-3.744924e+01	-9.004568e+02
1.200000e-07	-5.345846e-06	-1.371690e-08	-3.728693e+01	-8.990126e+02
1.300000e-07	-5.321151e-06	-1.361913e-08	-3.711469e+01	-8.975464e+02
1.400000e-07	-5.295021e-06	-1.360544e-08	-3.693243e+01	-8.960788e+02
1.500000e-07	-5.267021e-06	-1.370198e-08	-3.673713e+01	-8.946047e+02
1.600000e-07	-5.237249e-06	-1.356387e-08	-3.652948e+01	-8.930888e+02
1.700000e-07	-5.205904e-06	-1.355712e-08	-3.631085e+01	-8.914720e+02
1.800000e-07	-5.172619e-06	-1.364567e-08	-3.607868e+01	-8.896871e+02
1.900000e-07	-5.137330e-06	-1.349026e-08	-3.583255e+01	-8.876789e+02
2.000000e-07	-5.100506e-06	-1.348139e-08	-3.557570e+01	-8.854217e+02
2.100000e-07	-5.061923e-06	-1.344769e-08	-3.530659e+01	-8.829274e+02
2.200000e-07	-5.021472e-06	-1.332346e-08	-3.502444e+01	-8.802401e+02
2.300000e-07	-4.979160e-06	-1.336637e-08	-3.472932e+01	-8.774192e+02
2.400000e-07	-4.934876e-06	-1.335285e-08	-3.442044e+01	-8.745179e+02
2.500000e-07	-4.888867e-06	-1.330211e-08	-3.409953e+01	-8.715643e+02
2.600000e-07	-4.841046e-06	-1.326329e-08	-3.376598e+01	-8.685537e+02
2.700000e-07	-4.791180e-06	-1.316400e-08	-3.341817e+01	-8.654543e+02
2.800000e-07	-4.739256e-06	-1.313558e-08	-3.305600e+01	-8.622245e+02
2.900000e-07	-4.685470e-06	-1.307076e-08	-3.268085e+01	-8.588328e+02
3.000000e-07	-4.630034e-06	-1.300104e-08	-3.229419e+01	-8.552728e+02
3.100000e-07	-4.572929e-06	-1.296260e-08	-3.189588e+01	-8.515658e+02
3.200000e-07	-4.513982e-06	-1.292628e-08	-3.148473e+01	-8.477499e+02
3.300000e-07	-4.453342e-06	-1.289970e-08	-3.106177e+01	-8.438605e+02
3.400000e-07	-4.391241e-06	-1.280054e-08	-3.062862e+01	-8.399110e+02
3.500000e-07	-4.327706e-06	-1.272691e-08	-3.018547e+01	-8.358823e+02
3.600000e-07	-4.262728e-06	-1.265446e-08	-2.973226e+01	-8.317277e+02
3.700000e-07	-4.196070e-06	-1.258698e-08	-2.926732e+01	-8.273904e+02
3.800000e-07	-4.127684e-06	-1.254711e-08	-2.879033e+01	-8.228272e+02
3.900000e-07	-4.057786e-06	-1.245902e-08	-2.830280e+01	-8.180285e+02
4.000000e-07	-3.986609e-06	-1.238680e-08	-2.780634e+01	-8.130237e+02
4.100000e-07	-3.914202e-06	-1.231532e-08	-2.730130e+01	-8.078704e+02
4.200000e-07	-3.840323e-06	-1.223623e-08	-2.678600e+01	-8.026294e+02
4.300000e-07	-3.764797e-06	-1.214644e-08	-2.625921e+01	-7.973376e+02
4.400000e-07	-3.687640e-06	-1.205105e-08	-2.572105e+01	-7.919882e+02
4.500000e-07	-3.609019e-06	-1.198642e-08	-2.517267e+01	-7.865294e+02
4.600000e-07	-3.528912e-06	-1.190732e-08	-2.461393e+01	-7.808826e+02
4.700000e-07	-3.447393e-06	-1.181510e-08	-2.404534e+01	-7.749727e+02
4.800000e-07	-3.364657e-06	-1.170668e-08	-2.346827e+01	-7.687584e+02
4.900000e-07	-3.280818e-06	-1.159581e-08	-2.288349e+01	-7.622506e+02
5.000000e-07	-3.196023e-06	-1.150437e-08	-2.229206e+01	-7.555077e+02
5.100000e-07	-3.110262e-06	-1.140527e-08	-2.169388e+01	-7.486119e+02
5.200000e-07	-3.023526e-06	-1.130289e-08	-2.108890e+01	-7.416333e+02
5.300000e-07	-2.935821e-06	-1.119678e-08	-2.047716e+01	-7.345977e+02
5.400000e-07	-2.847152e-06	-1.109086e-08	-1.985870e+01	-7.274722e+02
5.500000e-07	-2.757499e-06	-1.097922e-08	-1.923338e+01	-7.201747e+02
5.600000e-07	-2.666709e-06	-1.085396e-08	-1.860012e+01	-7.126056e+02
5.700000e-07	-2.574790e-06	-1.072592e-08	-1.795900e+01	-7.046863e+02
5.800000e-07	-2.481954e-06	-1.059970e-08	-1.731147e+01	-6.963912e+02
5.900000e-07	-2.388334e-06	-1.048022e-08	-1.665848e+01	-6.877571e+02
6.000000e-07	-2.293927e-06	-1.035201e-08	-1.600000e+01	-6.788650e+02
6.100000e-07	-2.198743e-06	-1.021232e-08	-1.533609e+01	-6.698026e+02
6.200000e-07	-2.102818e-06	-1.006553e-08	-1.466702e+01	-6.606213e+02
6.300000e-07	-2.006146e-06	-9.917762e-09	-1.399274e+01	-6.513070e+02
6.400000e-07	-1.908695e-06	-9.774340e-09	-1.331302e+01	-6.417776e+02
6.500000e-07	-1.810424e-06	-9.622698e-09	-1.262759e+01	-6.319106e+02
6.600000e-07	-1.711372e-06	-9.461082e-09	-1.193671e+01	-6.215881e+02
6.700000e-07	-1.611631e-06	-9.294512e-09	-1.124102e+01	-6.107427e+02
6.800000e-07	-1.511328e-06	-9.126765e-09	-1.054142e+01	-5.993828e+02
6.900000e-07	-1.410560e-06	-8.950553e-09	-9.838567e+00	-5.875859e+02
7.000000e-07	-1.309337e-06	-8.765730e-09	-9.132540e+00	-5.754614e+02
7.100000e-07	-1.207655e-06	-8.576450e-09	-8.423313e+00	-5.630968e+02
7.200000e-07	-1.105563e-06	-8.383857e-09	-7.711228e+00	-5.505108e+02
7.300000e-07	-1.003086e-06	-8.189668e-09	-6.996462e+00	-5.376333e+02
7.400000e-07	-9.002766e-07	-7.985004e-09	-6.279371e+00	-5.243226e+02
7.500000e-07	-7.972020e-07	-7.768413e-09	-5.560433e+00	-5.104146e+02
7.600000e-07	-6.938029e-07	-7.542849e-09	-4.839230e+00	-4.957828e+02
7.700000e-07	-5.901383e-07	-7.312489e-09	-4.116177e+00	-4.803851e+02
7.800000e-07	-4.862908e-07	-7.072903e-09	-3.391847e+00	-4.642736e+02
7.900000e-07	-3.822861e-07	-6.822292e-09	-2.666421e+00	-4.475617e+02
8.000000e-07	-2.781480e-07	-6.563544e-09	-1.940064e+00	-4.303606e+02
8.100000e-07	-1.739051e-07	-6.293911e-09	-1.212977e+00	-4.127094e+02
8.200000e-07	-6.959090e-08	-6.011706e-09	-4.853921e-01	-3.945311e+02
8.300000e-07	3.474425e-08	-5.714802e-09	2.423389e-01	-3.756351e+02
8.400000e-07	1.390387e-07	-5.406270e-09	9.697863e-01	-3.557689e+02
8.500000e-07	2.432964e-07	-5.087318e-09	1.696977e+00	-3.346987e+02
8.600000e-07	3.474253e-07	-4.753730e-09	2.423269e+00	-3.122831e+02
8.700000e-07	4.513870e-07	-4.396959e-09	3.148395e+00	-2.885026e+02
8.800000e-07	5.552398e-07	-4.014724e-09	3.872762e+00	-2.634208e+02
8.900000e-07	6.589206e-07	-3.610025e-09	4.595929e+00	-2.370825e+02
9.000000e-07	7.623455e-07	-3.182779e-09	5.317310e+00	-2.093796e+02
9.100000e-07	8.654905e-07	-2.722991e-09	6.036740e+00	-1.799390e+02
9.200000e-07	9.683208e-07	-2.222503e-09	6.753975e+00	-1.480873e+02
9.300000e-07	1.070862e-06	-1.677247e-09	7.469197e+00	-1.129275e+02
9.400000e-07	1.173069e-06	-1.078788e-09	8.182081e+00	-7.352855e+01
9.500000e-07	1.274821e-06	-4.145849e-10	8.891798e+00	-2.918724e+01
9.600000e-07	1.376120e-06	3.324351e-10	9.598348e+00	2.030853e+01
9.700000e-07	1.477013e-06	1.161896e-09	1.030207e+01	7.449488e+01
9.800000e-07	1.577506e-06	2.052098e-09	1.100300e+01	1.321900e+02
9.900000e-07	1.677469e-06	2.969151e-09	1.170024e+01	1.916203e+02
1.000000e-06	1.776791e-06	3.878672e-09	1.239300e+01	2.506916e+02
1.010000e-06	1.875341e-06	4.744982e-09	1.308038e+01	3.073392e+02
1.020000e-06	1.973044e-06	5.531323e-09	1.376185e+01	3.598676e+02
1.030000e-06	2.069975e-06	6.226127e-09	1.443794e+01	4.071946e+02
1.040000e-06	2.166098e-06	6.841376e-09	1.510839e+01	4.489434e+02
1.050000e-06	2.261440e-06	7.391376e-09	1.577340e+01	4.853742e+02
1.060000e-06	2.356056e-06	7.877834e-09	1.643334e+01	5.171889e+02
1.070000e-06	2.449906e-06	8.306668e-09	1.708794e+01	5.452779e+02
1.080000e-06	2.543012e-06	8.692633e-09	1.773734e+01	5.704844e+02
1.090000e-06	2.635402e-06	9.047042e-09	1.838176e+01	5.934472e+02
1.100000e-06	2.726857e-06	9.368928e-09	1.901965e+01	6.145484e+02
1.110000e-06	2.817000e-06	9.655127e-09	1.964839e+01	6.339588e+02
1.120000e-06	2.905947e-06	9.913375e-09	2.026879e+01	6.517387e+02
1.130000e-06	2.993990e-06	1.015199e-08	2.088288e+01	6.679473e+02
1.140000e-06	3.081105e-06	1.037515e-08	2.149051e+01	6.827149e+02
1.150000e-06	3.167218e-06	1.058410e-08	2.209114e+01	6.962574e+02
1.160000e-06	3.252318e-06	1.077984e-08	2.268471e+01	7.088382e+02
1.170000e-06	3.336386e-06	1.096443e-08	2.327108e+01	7.207018e+02
1.180000e-06	3.419265e-06	1.114091e-08	2.384915e+01	7.320134e+02
1.190000e-06	3.500799e-06	1.130600e-08	2.441785e+01	7.428303e+02
1.200000e-06	3.581112e-06	1.145653e-08	2.497802e+01	7.531163e+02
1.210000e-06	3.660184e-06	1.159599e-08	2.552955e+01	7.627906e+02
1.220000e-06	3.737912e-06	1.173021e-08	2.607170e+01	7.717875e+02
1.230000e-06	3.814289e-06	1.185952e-08	2.660442e+01	7.801032e+02
1.240000e-06	3.889061e-06	1.198052e-08	2.712595e+01	7.878111e+02
1.250000e-06	3.962182e-06	1.209385e-08	2.763597e+01	7.950413e+02
1.260000e-06	4.033923e-06	1.220188e-08	2.813635e+01	8.019369e+02
1.270000e-06	4.104319e-06	1.230485e-08	2.862736e+01	8.086064e+02
1.280000e-06	4.173349e-06	1.240126e-08	2.910884e+01	8.150931e+02
1.290000e-06	4.240941e-06	1.249121e-08	2.958029e+01	8.213729e+02
1.300000e-06	4.306824e-06	1.257809e-08	3.003982e+01	8.273801e+02
1.310000e-06	4.371101e-06	1.266455e-08	3.048815e+01	8.330483e+02
1.320000e-06	4.433966e-06	1.274895e-08	3.092663e+01	8.383479e+02
1.330000e-06	4.495417e-06	1.282718e-08	3.135524e+01	8.433058e+02
1.340000e-06	4.555501e-06	1.289896e-08	3.177432e+01	8.479971e+02
1.350000e-06	4.613836e-06	1.296887e-08	3.218121e+01	8.525168e+02
1.360000e-06	4.670326e-06	1.303901e-08	3.257522e+01	8.569423e+02
1.370000e-06	4.725203e-06	1.310678e-08	3.295798e+01	8.613028e+02
1.380000e-06	4.778337e-06	1.316823e-08	3.332860e+01	8.655704e+02
1.390000e-06	4.829423e-06	1.322548e-08	3.368491e+01	8.696736e+02
1.400000e-06	4.878450e-06	1.328280e-08	3.402687e+01	8.735282e+02
1.410000e-06	4.925739e-06	1.333848e-08	3.435671e+01	8.770725e+02
1.420000e-06	4.971431e-06	1.338705e-08	3.467541e+01	8.802916e+02
1.430000e-06	5.015529e-06	1.343020e-08	3.498299e+01	8.832223e+02
1.440000e-06	5.057703e-06	1.347369e-08	3.527715e+01	8.859371e+02
1.450000e-06	5.097973e-06	1.351763e-08	3.555804e+01	8.885152e+02
1.460000e-06	5.136556e-06	1.355788e-08	3.582715e+01	8.910127e+02
1.470000e-06	5.173482e-06	1.359338e-08	3.608470e+01	8.934438e+02
1.480000e-06	5.208571e-06	1.362774e-08	3.632944e+01	8.957809e+02
1.490000e-06	5.241623e-06	1.366157e-08	3.655998e+01	8.979702e+02
1.500000e-06	5.272914e-06	1.369267e-08	3.677824e+01	8.999577e+02
1.510000e-06	5.302582e-06	1.371868e-08	3.698517e+01	9.017132e+02
1.520000e-06	5.330502e-06	1.374204e-08	3.717991e+01	9.032419e+02
1.530000e-06	5.356302e-06	1.376486e-08	3.735986e+01	9.045826e+02
1.540000e-06	5.379993e-06	1.378673e-08	3.752511e+01	9.057908e+02
1.550000e-06	5.401934e-06	1.380693e-08	3.767814e+01	9.069171e+02
1.560000e-06	5.422159e-06	1.382538e-08	3.781921e+01	9.079895e+02
1.570000e-06	5.440461e-06	1.384207e-08	3.794686e+01	9.090049e+02
1.580000e-06	5.456717e-06	1.385705e-08	3.806025e+01	9.099343e+02
1.590000e-06	5.471004e-06	1.386965e-08	3.815990e+01	9.107373e+02
1.600000e-06	5.483191e-06	1.388047e-08	3.824491e+01	9.113789e+02
1.610000e-06	5.493135e-06	1.389031e-08	3.831426e+01	9.118425e+02
1.620000e-06	5.501052e-06	1.389803e-08	3.836949e+01	9.121349e+02
1.630000e-06	5.507149e-06	1.390359e-08	3.841201e+01	9.122807e+02
1.640000e-06	5.511453e-06	1.390639e-08	3.844203e+01	9.123122e+02
1.650000e-06	5.513768e-06	1.390839e-08	3.845817e+01	9.122575e+02
1.660000e-06	5.514030e-06	1.391044e-08	3.846000e+01	9.121330e+02
1.670000e-06	5.512502e-06	1.390649e-08	3.844935e+01	9.119407e+02
1.680000e-06	5.509351e-06	1.390420e-08	3.842737e+01	9.116719e+02
1.690000e-06	5.504346e-06	1.390276e-08	3.839245e+01	9.113124e+02
1.700000e-06	5.497352e-06	1.389817e-08	3.834367e+01	9.108473e+02
1.710000e-06	5.488640e-06	1.389093e-08	3.828291e+01	9.102634e+02
1.720000e-06	5.478299e-06	1.388260e-08	3.821078e+01	9.095494e+02
1.730000e-06	5.466037e-06	1.388719e-08	3.812525e+01	9.086966e+02
1.740000e-06	5.451731e-06	1.384593e-08	3.802547e+01	9.076998e+02
1.750000e-06	5.435407e-06	1.375901e-08	3.791161e+01	9.065610e+02
1.760000e-06	5.416525e-06	1.376335e-08	3.777991e+01	9.052936e+02
1.770000e-06	5.394820e-06	1.377028e-08	3.762852e+01	9.039240e+02
1.780000e-06	5.371040e-06	1.381797e-08	3.746266e+01	9.024884e+02
1.790000e-06	5.346233e-06	1.383853e-08	3.728963e+01	9.010239e+02
1.800000e-06	5.320690e-06	1.364829e-08	3.711147e+01	8.995555e+02
1.810000e-06	5.293335e-06	1.370337e-08	3.692067e+01	8.980842e+02
1.820000e-06	5.263596e-06	1.374524e-08	3.671325e+01	8.965811e+02
1.830000e-06	5.232269e-06	1.356682e-08	3.649474e+01	8.949911e+02
1.840000e-06	5.199200e-06	1.368310e-08	3.626408e+01	8.932470e+02
1.850000e-06	5.164274e-06	1.365338e-08	3.602048e+01	8.912894e+02
1.860000e-06	5.127638e-06	1.351577e-08	3.576495e+01	8.890854e+02
1.870000e-06	5.088871e-06	1.363923e-08	3.549455e+01	8.866386e+02
1.880000e-06	5.048387e-06	1.350473e-08	3.521217e+01	8.839872e+02
1.890000e-06	5.006345e-06	1.342541e-08	3.491893e+01	8.811894e+02
1.900000e-06	4.962359e-06	1.344292e-08	3.461214e+01	8.783014e+02
1.910000e-06	4.916642e-06	1.328744e-08	3.429326e+01	8.753578e+02
1.920000e-06	4.869038e-06	1.337388e-08	3.396123e+01	8.723608e+02
1.930000e-06	4.819647e-06	1.329065e-08	3.361673e+01	8.692834e+02
1.940000e-06	4.768593e-06	1.318512e-08	3.326063e+01	8.660843e+02
1.950000e-06	4.715327e-06	1.323673e-08	3.288910e+01	8.627282e+02
1.960000e-06	4.660163e-06	1.308916e-08	3.250433e+01	8.592028e+02
1.970000e-06	4.603355e-06	1.306714e-08	3.210810e+01	8.555239e+02
1.980000e-06	4.544963e-06	1.298119e-08	3.170082e+01	8.517274e+02
1.990000e-06	4.485140e-06	1.291801e-08	3.128356e+01	8.478511e+02
2.000000e-06	4.423545e-06	1.293020e-08	3.085394e+01	8.439144e+02
2.010000e-06	4.360305e-06	1.280856e-08	3.041285e+01	8.399053e+02
2.020000e-06	4.295540e-06	1.280447e-08	2.996111e+01	8.357819e+02
2.030000e-06	4.229288e-06	1.268717e-08	2.949901e+01	8.314877e+02
2.040000e-06	4.161564e-06	1.261252e-08	2.902664e+01	8.269745e+02
2.050000e-06	4.092036e-06	1.256590e-08	2.854168e+01	8.222245e+02
2.060000e-06	4.020959e-06	1.243851e-08	2.804593e+01	8.172592e+02
2.070000e-06	3.948645e-06	1.241795e-08	2.754155e+01	8.121317e+02
2.080000e-06	3.875062e-06	1.231331e-08	2.702830e+01	8.069047e+02
2.090000e-06	3.799913e-06	1.226542e-08	2.650415e+01	8.016222e+02
2.100000e-06	3.723014e-06	1.217343e-08	2.596779e+01	7.962875e+02
2.110000e-06	3.644580e-06	1.205787e-08	2.542071e+01	7.908577e+02
2.120000e-06	3.564829e-06	1.199248e-08	2.486445e+01	7.852576e+02
2.130000e-06	3.483980e-06	1.187882e-08	2.430054e+01	7.794086e+02
2.140000e-06	3.402005e-06	1.181854e-08	2.372876e+01	7.732600e+02
2.150000e-06	3.318873e-06	1.170866e-08	2.314893e+01	7.668109e+02
2.160000e-06	3.234497e-06	1.161487e-08	2.256041e+01	7.601112e+02
2.170000e-06	3.148816e-06	1.151288e-08	2.196279e+01	7.532409e+02
2.180000e-06	3.061970e-06	1.139565e-08	2.135704e+01	7.462754e+02
2.190000e-06	2.974117e-06	1.129295e-08	2.074427e+01	7.392522e+02
2.200000e-06	2.885358e-06	1.117287e-08	2.012518e+01	7.321510e+02
2.210000e-06	2.795597e-06	1.107167e-08	1.949911e+01	7.248982e+02
2.220000e-06	2.704912e-06	1.095397e-08	1.886659e+01	7.173947e+02
2.230000e-06	2.613330e-06	1.083859e-08	1.822781e+01	7.095541e+02
2.240000e-06	2.520798e-06	1.070549e-08	1.758240e+01	7.013380e+02
2.250000e-06	2.427266e-06	1.057345e-08	1.693002e+01	6.927702e+02
2.260000e-06	2.332684e-06	1.044080e-08	1.627032e+01	6.839250e+02
2.270000e-06	2.237281e-06	1.030819e-08	1.560489e+01	6.748924e+02
2.280000e-06	2.141190e-06	1.017613e-08	1.493466e+01	6.657348e+02
2.290000e-06	2.044405e-06	1.003288e-08	1.425959e+01	6.564532e+02
2.300000e-06	1.946928e-06	9.889495e-09	1.357970e+01	6.469790e+02
2.310000e-06	1.848859e-06	9.733424e-09	1.289567e+01	6.371946e+02
2.320000e-06	1.750273e-06	9.576417e-09	1.220804e+01	6.269771e+02
2.330000e-06	1.651111e-06	9.406261e-09	1.151639e+01	6.162452e+02
2.340000e-06	1.551424e-06	9.237275e-09	1.082109e+01	6.049905e+02
2.350000e-06	1.451193e-06	9.065203e-09	1.012198e+01	5.932778e+02
2.360000e-06	1.350281e-06	8.884742e-09	9.418121e+00	5.812140e+02
2.370000e-06	1.248706e-06	8.699938e-09	8.709645e+00	5.688959e+02
2.380000e-06	1.146631e-06	8.505434e-09	7.997674e+00	5.563597e+02
2.390000e-06	1.044115e-06	8.309769e-09	7.282638e+00	5.435542e+02
2.400000e-06	9.411733e-07	8.103775e-09	6.564623e+00	5.303498e+02
2.410000e-06	8.378693e-07	7.887481e-09	5.844085e+00	5.165820e+02
2.420000e-06	7.343030e-07	7.661987e-09	5.121716e+00	5.021116e+02
2.430000e-06	6.305138e-07	7.429045e-09	4.397793e+00	4.868762e+02
2.440000e-06	5.265491e-07	7.191033e-09	3.672646e+00	4.709087e+02
2.450000e-06	4.224254e-07	6.945533e-09	2.946390e+00	4.543144e+02
2.460000e-06	3.181334e-07	6.688420e-09	2.218960e+00	4.372109e+02
2.470000e-06	2.137529e-07	6.420703e-09	1.490912e+00	4.196578e+02
2.480000e-06	1.092765e-07	6.141636e-09	7.621962e-01	4.016046e+02
2.490000e-06	4.747066e-09	5.848714e-09	3.311048e-02	3.828821e+02
2.500000e-06	-9.974505e-08	5.540439e-09	-6.957153e-01	3.632449e+02
2.510000e-06	-2.041561e-07	5.218180e-09	-1.423976e+00	3.424481e+02
2.520000e-06	-3.084714e-07	4.885495e-09	-2.151568e+00	3.203260e+02
2.530000e-06	-4.126673e-07	4.537598e-09	-2.878328e+00	2.968337e+02
2.540000e-06	-5.166764e-07	4.169798e-09	-3.603785e+00	2.720238e+02
2.550000e-06	-6.205018e-07	3.779090e-09	-4.327960e+00	2.459561e+02
2.560000e-06	-7.241448e-07	3.361669e-09	-5.050863e+00	2.185662e+02
2.570000e-06	-8.275533e-07	2.912934e-09	-5.772131e+00	1.895443e+02
2.580000e-06	-9.306990e-07	2.429332e-09	-6.491566e+00	1.582788e+02
2.590000e-06	-1.033507e-06	1.902781e-09	-7.208645e+00	1.239082e+02
2.600000e-06	-1.135875e-06	1.321672e-09	-7.922658e+00	8.548834e+01
2.610000e-06	-1.237717e-06	6.747261e-10	-8.632997e+00	4.224374e+01
2.620000e-06	-1.339002e-06	-4.679802e-11	-9.339454e+00	-6.162314e+00
2.630000e-06	-1.439691e-06	-8.476564e-10	-1.004175e+01	-5.941989e+01
2.640000e-06	-1.539761e-06	-1.719201e-09	-1.073973e+01	-1.164961e+02
2.650000e-06	-1.639307e-06	-2.634260e-09	-1.143406e+01	-1.757256e+02
2.660000e-06	-1.738298e-06	-3.553602e-09	-1.212451e+01	-2.350547e+02
2.670000e-06	-1.836639e-06	-4.438696e-09	-1.281044e+01	-2.923821e+02
2.680000e-06	-1.934360e-06	-5.259078e-09	-1.349204e+01	-3.459083e+02
2.690000e-06	-2.031457e-06	-5.996168e-09	-1.416928e+01	-3.944061e+02
2.700000e-06	-2.127842e-06	-6.650635e-09	-1.484156e+01	-4.373483e+02
2.710000e-06	-2.223550e-06	-7.230397e-09	-1.550912e+01	-4.748714e+02
2.720000e-06	-2.318704e-06	-7.741389e-09	-1.617281e+01	-5.076034e+02
2.730000e-06	-2.413190e-06	-8.190825e-09	-1.683185e+01	-5.364156e+02
2.740000e-06	-2.506658e-06	-8.591216e-09	-1.748377e+01	-5.621781e+02
2.750000e-06	-2.598973e-06	-8.952876e-09	-1.812767e+01	-5.855814e+02
2.760000e-06	-2.690287e-06	-9.280923e-09	-1.876457e+01	-6.070618e+02
2.770000e-06	-2.780627e-06	-9.581060e-09	-1.939470e+01	-6.268280e+02
2.780000e-06	-2.869976e-06	-9.853827e-09	-2.001790e+01	-6.449543e+02
2.790000e-06	-2.958330e-06	-1.010461e-08	-2.063416e+01	-6.614922e+02
2.800000e-06	-3.045768e-06	-1.033946e-08	-2.124404e+01	-6.765535e+02
2.810000e-06	-3.132268e-06	-1.055760e-08	-2.184737e+01	-6.903376e+02
2.820000e-06	-3.217501e-06	-1.075707e-08	-2.244186e+01	-7.031028e+02
2.830000e-06	-3.301353e-06	-1.094096e-08	-2.302673e+01	-7.151033e+02
2.840000e-06	-3.384043e-06	-1.111580e-08	-2.360348e+01	-7.265252e+02
2.850000e-06	-3.465672e-06	-1.128195e-08	-2.417284e+01	-7.374490e+02
2.860000e-06	-3.546167e-06	-1.143778e-08	-2.473429e+01	-7.478555e+02
2.870000e-06	-3.625470e-06	-1.158284e-08	-2.528742e+01	-7.576684e+02
2.880000e-06	-3.703321e-06	-1.171948e-08	-2.583043e+01	-7.668138e+02
2.890000e-06	-3.779546e-06	-1.184923e-08	-2.636209e+01	-7.752724e+02
2.900000e-06	-3.854313e-06	-1.197121e-08	-2.688359e+01	-7.831015e+02
2.910000e-06	-3.927671e-06	-1.208386e-08	-2.739525e+01	-7.904222e+02
2.920000e-06	-3.999651e-06	-1.219049e-08	-2.789731e+01	-7.973791e+02
2.930000e-06	-4.070400e-06	-1.229468e-08	-2.839078e+01	-8.040915e+02
2.940000e-06	-4.139591e-06	-1.239516e-08	-2.887338e+01	-8.106179e+02
