# Temperatura_=_35.61
# Concentracion g/m^3_=_13400.0
# C_Vs_to_Am_M_A/Vsm_=_65563218390.804596
# pendiente_HvsI_1/m_=_3716.3
# ordenada_HvsI_A/m_=_1297.0
# frecuencia_Hz_=_300802.3372552111

Tiempo_(s)	Campo_(V.s)	Magnetizacion_(V.s)	Campo_(kA/m)	Magnetizacion_(A/m)
0.000000e+00	-5.497763e-06	-1.393116e-08	-3.830456e+01	-9.129295e+02
1.000000e-08	-5.495879e-06	-1.392794e-08	-3.829144e+01	-9.127075e+02
2.000000e-08	-5.492054e-06	-1.392280e-08	-3.826479e+01	-9.124134e+02
3.000000e-08	-5.486503e-06	-1.391673e-08	-3.822611e+01	-9.120347e+02
4.000000e-08	-5.479362e-06	-1.390960e-08	-3.817635e+01	-9.115546e+02
5.000000e-08	-5.470606e-06	-1.390040e-08	-3.811535e+01	-9.109538e+02
6.000000e-08	-5.459878e-06	-1.388726e-08	-3.804061e+01	-9.102136e+02
7.000000e-08	-5.447062e-06	-1.386633e-08	-3.795131e+01	-9.093194e+02
8.000000e-08	-5.432226e-06	-1.386040e-08	-3.784794e+01	-9.082660e+02
9.000000e-08	-5.415032e-06	-1.387263e-08	-3.772815e+01	-9.070624e+02
1.000000e-07	-5.395523e-06	-1.385710e-08	-3.759222e+01	-9.057351e+02
1.100000e-07	-5.374026e-06	-1.382476e-08	-3.744245e+01	-9.043256e+02
1.200000e-07	-5.350719e-06	-1.378412e-08	-3.728006e+01	-9.028814e+02
1.300000e-07	-5.325958e-06	-1.371052e-08	-3.710754e+01	-9.014436e+02
1.400000e-07	-5.299736e-06	-1.371510e-08	-3.692485e+01	-9.000311e+02
1.500000e-07	-5.271668e-06	-1.372404e-08	-3.672929e+01	-8.986310e+02
1.600000e-07	-5.241859e-06	-1.365298e-08	-3.652160e+01	-8.971967e+02
1.700000e-07	-5.210475e-06	-1.366254e-08	-3.630294e+01	-8.956577e+02
1.800000e-07	-5.177104e-06	-1.365007e-08	-3.607043e+01	-8.939376e+02
1.900000e-07	-5.141747e-06	-1.357839e-08	-3.582409e+01	-8.919758e+02
2.000000e-07	-5.104825e-06	-1.355714e-08	-3.556685e+01	-8.897448e+02
2.100000e-07	-5.066234e-06	-1.348810e-08	-3.529797e+01	-8.872570e+02
2.200000e-07	-5.025808e-06	-1.342875e-08	-3.501631e+01	-8.845580e+02
2.300000e-07	-4.983445e-06	-1.343166e-08	-3.472115e+01	-8.817091e+02
2.400000e-07	-4.939105e-06	-1.340639e-08	-3.441222e+01	-8.787663e+02
2.500000e-07	-4.893001e-06	-1.337503e-08	-3.409100e+01	-8.757617e+02
2.600000e-07	-4.845093e-06	-1.331150e-08	-3.375722e+01	-8.726963e+02
2.700000e-07	-4.795164e-06	-1.324509e-08	-3.340934e+01	-8.695451e+02
2.800000e-07	-4.743143e-06	-1.319573e-08	-3.304689e+01	-8.662724e+02
2.900000e-07	-4.689173e-06	-1.313330e-08	-3.267087e+01	-8.628495e+02
3.000000e-07	-4.633544e-06	-1.308099e-08	-3.228329e+01	-8.592683e+02
3.100000e-07	-4.576232e-06	-1.303055e-08	-3.188398e+01	-8.555431e+02
3.200000e-07	-4.517202e-06	-1.299757e-08	-3.147270e+01	-8.517027e+02
3.300000e-07	-4.456599e-06	-1.295092e-08	-3.105046e+01	-8.477736e+02
3.400000e-07	-4.394480e-06	-1.286902e-08	-3.061766e+01	-8.437648e+02
3.500000e-07	-4.330878e-06	-1.279159e-08	-3.017452e+01	-8.396602e+02
3.600000e-07	-4.265741e-06	-1.271543e-08	-2.972070e+01	-8.354227e+02
3.700000e-07	-4.198984e-06	-1.265446e-08	-2.925558e+01	-8.310087e+02
3.800000e-07	-4.130570e-06	-1.259391e-08	-2.877892e+01	-8.263867e+02
3.900000e-07	-4.060637e-06	-1.252013e-08	-2.829167e+01	-8.215519e+02
4.000000e-07	-3.989393e-06	-1.245198e-08	-2.779529e+01	-8.165290e+02
4.100000e-07	-3.916868e-06	-1.237694e-08	-2.728999e+01	-8.113623e+02
4.200000e-07	-3.842938e-06	-1.229690e-08	-2.677490e+01	-8.060954e+02
4.300000e-07	-3.767386e-06	-1.219866e-08	-2.624851e+01	-8.007508e+02
4.400000e-07	-3.690122e-06	-1.211020e-08	-2.571018e+01	-7.953165e+02
4.500000e-07	-3.611277e-06	-1.203803e-08	-2.516085e+01	-7.897477e+02
4.600000e-07	-3.531027e-06	-1.195697e-08	-2.460173e+01	-7.839829e+02
4.700000e-07	-3.449438e-06	-1.186359e-08	-2.403327e+01	-7.779678e+02
4.800000e-07	-3.366613e-06	-1.175536e-08	-2.345620e+01	-7.716778e+02
4.900000e-07	-3.282731e-06	-1.165158e-08	-2.287177e+01	-7.651283e+02
5.000000e-07	-3.197809e-06	-1.155275e-08	-2.228009e+01	-7.583681e+02
5.100000e-07	-3.111908e-06	-1.145132e-08	-2.168160e+01	-7.514578e+02
5.200000e-07	-3.025088e-06	-1.134477e-08	-2.107669e+01	-7.444424e+02
5.300000e-07	-2.937303e-06	-1.123954e-08	-2.046507e+01	-7.373294e+02
5.400000e-07	-2.848501e-06	-1.113355e-08	-1.984636e+01	-7.300818e+02
5.500000e-07	-2.758618e-06	-1.101562e-08	-1.922012e+01	-7.226312e+02
5.600000e-07	-2.667671e-06	-1.088695e-08	-1.858646e+01	-7.149043e+02
5.700000e-07	-2.575688e-06	-1.075615e-08	-1.794559e+01	-7.068527e+02
5.800000e-07	-2.482728e-06	-1.063394e-08	-1.729791e+01	-6.984730e+02
5.900000e-07	-2.388944e-06	-1.051338e-08	-1.664449e+01	-6.898069e+02
6.000000e-07	-2.294378e-06	-1.038368e-08	-1.598562e+01	-6.809213e+02
6.100000e-07	-2.199041e-06	-1.024296e-08	-1.532138e+01	-6.718754e+02
6.200000e-07	-2.102951e-06	-1.009615e-08	-1.465189e+01	-6.626888e+02
6.300000e-07	-2.006067e-06	-9.949082e-09	-1.397687e+01	-6.533253e+02
6.400000e-07	-1.908417e-06	-9.800023e-09	-1.329651e+01	-6.436994e+02
6.500000e-07	-1.810038e-06	-9.642955e-09	-1.261108e+01	-6.337055e+02
6.600000e-07	-1.710909e-06	-9.479475e-09	-1.192041e+01	-6.232569e+02
6.700000e-07	-1.611086e-06	-9.317220e-09	-1.122492e+01	-6.123187e+02
6.800000e-07	-1.510709e-06	-9.151118e-09	-1.052556e+01	-6.009199e+02
6.900000e-07	-1.409796e-06	-8.972696e-09	-9.822471e+00	-5.891372e+02
7.000000e-07	-1.308363e-06	-8.783854e-09	-9.115760e+00	-5.770573e+02
7.100000e-07	-1.206553e-06	-8.592733e-09	-8.406416e+00	-5.647310e+02
7.200000e-07	-1.104425e-06	-8.401649e-09	-7.694861e+00	-5.521406e+02
7.300000e-07	-1.001922e-06	-8.206611e-09	-6.980693e+00	-5.391941e+02
7.400000e-07	-8.990871e-07	-7.999948e-09	-6.264209e+00	-5.257516e+02
7.500000e-07	-7.959196e-07	-7.779567e-09	-5.545410e+00	-5.116739e+02
7.600000e-07	-6.924069e-07	-7.551485e-09	-4.824206e+00	-4.968726e+02
7.700000e-07	-5.886504e-07	-7.317442e-09	-4.101304e+00	-4.813410e+02
7.800000e-07	-4.846961e-07	-7.075916e-09	-3.377023e+00	-4.651482e+02
7.900000e-07	-3.805804e-07	-6.825972e-09	-2.651617e+00	-4.483990e+02
8.000000e-07	-2.763935e-07	-6.567393e-09	-1.925716e+00	-4.311708e+02
8.100000e-07	-1.721443e-07	-6.296436e-09	-1.199381e+00	-4.134577e+02
8.200000e-07	-6.780374e-08	-6.011533e-09	-4.724090e-01	-3.951436e+02
8.300000e-07	3.658869e-08	-5.711077e-09	2.549244e-01	-3.760212e+02
8.400000e-07	1.409435e-07	-5.395981e-09	9.819954e-01	-3.558520e+02
8.500000e-07	2.452008e-07	-5.070590e-09	1.708388e+00	-3.344414e+02
8.600000e-07	3.493732e-07	-4.732593e-09	2.434188e+00	-3.116968e+02
8.700000e-07	4.534342e-07	-4.375202e-09	3.159212e+00	-2.876345e+02
8.800000e-07	5.573467e-07	-3.990982e-09	3.883201e+00	-2.623217e+02
8.900000e-07	6.611147e-07	-3.581782e-09	4.606184e+00	-2.357648e+02
9.000000e-07	7.646967e-07	-3.148459e-09	5.327871e+00	-2.077818e+02
9.100000e-07	8.679938e-07	-2.682109e-09	6.047573e+00	-1.779106e+02
9.200000e-07	9.709649e-07	-2.173140e-09	6.765003e+00	-1.454030e+02
9.300000e-07	1.073616e-06	-1.614486e-09	7.480206e+00	-1.093289e+02
9.400000e-07	1.175911e-06	-9.967712e-10	8.192922e+00	-6.878403e+01
9.500000e-07	1.277754e-06	-3.101361e-10	8.902497e+00	-2.315199e+01
9.600000e-07	1.379174e-06	4.573481e-10	9.609116e+00	2.764885e+01
9.700000e-07	1.480194e-06	1.304079e-09	1.031296e+01	8.301005e+01
9.800000e-07	1.580744e-06	2.207353e-09	1.101352e+01	1.416243e+02
9.900000e-07	1.680757e-06	3.133166e-09	1.171034e+01	2.016382e+02
1.000000e-06	1.780112e-06	4.042977e-09	1.240258e+01	2.609374e+02
1.010000e-06	1.878747e-06	4.904239e-09	1.308979e+01	3.174933e+02
1.020000e-06	1.976617e-06	5.687457e-09	1.377168e+01	3.696865e+02
1.030000e-06	2.073659e-06	6.378890e-09	1.444780e+01	4.165270e+02
1.040000e-06	2.169871e-06	6.985977e-09	1.511814e+01	4.577240e+02
1.050000e-06	2.265345e-06	7.522668e-09	1.578334e+01	4.936020e+02
1.060000e-06	2.360099e-06	8.000168e-09	1.644351e+01	5.249000e+02
1.070000e-06	2.454078e-06	8.424538e-09	1.709830e+01	5.525232e+02
1.080000e-06	2.547318e-06	8.804665e-09	1.774793e+01	5.773164e+02
1.090000e-06	2.639761e-06	9.150199e-09	1.839201e+01	5.999164e+02
1.100000e-06	2.731229e-06	9.465065e-09	1.902929e+01	6.207063e+02
1.110000e-06	2.821571e-06	9.748841e-09	1.965873e+01	6.398595e+02
1.120000e-06	2.910751e-06	1.000731e-08	2.028008e+01	6.574385e+02
1.130000e-06	2.998875e-06	1.024450e-08	2.089406e+01	6.734983e+02
1.140000e-06	3.086038e-06	1.046401e-08	2.150135e+01	6.881566e+02
1.150000e-06	3.172160e-06	1.067189e-08	2.210139e+01	7.016106e+02
1.160000e-06	3.257232e-06	1.086729e-08	2.269411e+01	7.141036e+02
1.170000e-06	3.341291e-06	1.104887e-08	2.327978e+01	7.258666e+02
1.180000e-06	3.424202e-06	1.121965e-08	2.385744e+01	7.370622e+02
1.190000e-06	3.505841e-06	1.138234e-08	2.442624e+01	7.477577e+02
1.200000e-06	3.586202e-06	1.153595e-08	2.498615e+01	7.579346e+02
1.210000e-06	3.665274e-06	1.167910e-08	2.553706e+01	7.675298e+02
1.220000e-06	3.743017e-06	1.181225e-08	2.607872e+01	7.764873e+02
1.230000e-06	3.819464e-06	1.193800e-08	2.661135e+01	7.848002e+02
1.240000e-06	3.894356e-06	1.205761e-08	2.713314e+01	7.925261e+02
1.250000e-06	3.967588e-06	1.217145e-08	2.764337e+01	7.997726e+02
1.260000e-06	4.039420e-06	1.227893e-08	2.814385e+01	8.066618e+02
1.270000e-06	4.109862e-06	1.238081e-08	2.863464e+01	8.132918e+02
1.280000e-06	4.178912e-06	1.247770e-08	2.911573e+01	8.197095e+02
1.290000e-06	4.246491e-06	1.257147e-08	2.958658e+01	8.259076e+02
1.300000e-06	4.312393e-06	1.266083e-08	3.004573e+01	8.318434e+02
1.310000e-06	4.376731e-06	1.274444e-08	3.049399e+01	8.374704e+02
1.320000e-06	4.439683e-06	1.282375e-08	3.093260e+01	8.427679e+02
1.330000e-06	4.501203e-06	1.289859e-08	3.136123e+01	8.477562e+02
1.340000e-06	4.561264e-06	1.297185e-08	3.177969e+01	8.524915e+02
1.350000e-06	4.619608e-06	1.304557e-08	3.218619e+01	8.570443e+02
1.360000e-06	4.676139e-06	1.311698e-08	3.258006e+01	8.614708e+02
1.370000e-06	4.731041e-06	1.318426e-08	3.296258e+01	8.657915e+02
1.380000e-06	4.784230e-06	1.324751e-08	3.333316e+01	8.699846e+02
1.390000e-06	4.835422e-06	1.330734e-08	3.368983e+01	8.739972e+02
1.400000e-06	4.884569e-06	1.336118e-08	3.403226e+01	8.777695e+02
1.410000e-06	4.931900e-06	1.340885e-08	3.436203e+01	8.812603e+02
1.420000e-06	4.977605e-06	1.345411e-08	3.468047e+01	8.844647e+02
1.430000e-06	5.021685e-06	1.350150e-08	3.498758e+01	8.874153e+02
1.440000e-06	5.063822e-06	1.355025e-08	3.528117e+01	8.901692e+02
1.450000e-06	5.104074e-06	1.359429e-08	3.556161e+01	8.927849e+02
1.460000e-06	5.142720e-06	1.363314e-08	3.583087e+01	8.953009e+02
1.470000e-06	5.179713e-06	1.367061e-08	3.608861e+01	8.977224e+02
1.480000e-06	5.214800e-06	1.370570e-08	3.633308e+01	9.000242e+02
1.490000e-06	5.247917e-06	1.373374e-08	3.656381e+01	9.021640e+02
1.500000e-06	5.279242e-06	1.375665e-08	3.678206e+01	9.041032e+02
1.510000e-06	5.308899e-06	1.378030e-08	3.698869e+01	9.058241e+02
1.520000e-06	5.336750e-06	1.380725e-08	3.718274e+01	9.073382e+02
1.530000e-06	5.362484e-06	1.383304e-08	3.736203e+01	9.086817e+02
1.540000e-06	5.386183e-06	1.385389e-08	3.752715e+01	9.099020e+02
1.550000e-06	5.408119e-06	1.387291e-08	3.767998e+01	9.110395e+02
1.560000e-06	5.428386e-06	1.389136e-08	3.782119e+01	9.121145e+02
1.570000e-06	5.446736e-06	1.390761e-08	3.794904e+01	9.131219e+02
1.580000e-06	5.462987e-06	1.391905e-08	3.806226e+01	9.140357e+02
1.590000e-06	5.477260e-06	1.392722e-08	3.816171e+01	9.148214e+02
1.600000e-06	5.489456e-06	1.393866e-08	3.824668e+01	9.154495e+02
1.610000e-06	5.499389e-06	1.395273e-08	3.831589e+01	9.159060e+02
1.620000e-06	5.507264e-06	1.396190e-08	3.837076e+01	9.161960e+02
1.630000e-06	5.513354e-06	1.396475e-08	3.841319e+01	9.163397e+02
1.640000e-06	5.517588e-06	1.396645e-08	3.844269e+01	9.163650e+02
1.650000e-06	5.519816e-06	1.396943e-08	3.845821e+01	9.162981e+02
1.660000e-06	5.520073e-06	1.396840e-08	3.846000e+01	9.161571e+02
1.670000e-06	5.518508e-06	1.396099e-08	3.844910e+01	9.159490e+02
1.680000e-06	5.515253e-06	1.395656e-08	3.842642e+01	9.156705e+02
1.690000e-06	5.510125e-06	1.395366e-08	3.839069e+01	9.153107e+02
1.700000e-06	5.503051e-06	1.394924e-08	3.834141e+01	9.148532e+02
1.710000e-06	5.494304e-06	1.394286e-08	3.828046e+01	9.142793e+02
1.720000e-06	5.483882e-06	1.393388e-08	3.820785e+01	9.135699e+02
1.730000e-06	5.471488e-06	1.392722e-08	3.812149e+01	9.127089e+02
1.740000e-06	5.457093e-06	1.388113e-08	3.802120e+01	9.116888e+02
1.750000e-06	5.440706e-06	1.384013e-08	3.790703e+01	9.105152e+02
1.760000e-06	5.421774e-06	1.383119e-08	3.777512e+01	9.092108e+02
1.770000e-06	5.400064e-06	1.382249e-08	3.762386e+01	9.078142e+02
1.780000e-06	5.376307e-06	1.386001e-08	3.745834e+01	9.063730e+02
1.790000e-06	5.351496e-06	1.382578e-08	3.728547e+01	9.049307e+02
1.800000e-06	5.325838e-06	1.373550e-08	3.710671e+01	9.035121e+02
1.810000e-06	5.298302e-06	1.375363e-08	3.691486e+01	9.021116e+02
1.820000e-06	5.268502e-06	1.372596e-08	3.670723e+01	9.006894e+02
1.830000e-06	5.237081e-06	1.370309e-08	3.648831e+01	8.991787e+02
1.840000e-06	5.203861e-06	1.374525e-08	3.625686e+01	8.975028e+02
1.850000e-06	5.168825e-06	1.366547e-08	3.601275e+01	8.955958e+02
1.860000e-06	5.132093e-06	1.363824e-08	3.575683e+01	8.934222e+02
1.870000e-06	5.093312e-06	1.364545e-08	3.548663e+01	8.909860e+02
1.880000e-06	5.052806e-06	1.354482e-08	3.520441e+01	8.883266e+02
1.890000e-06	5.010671e-06	1.351772e-08	3.491085e+01	8.855040e+02
1.900000e-06	4.966611e-06	1.345902e-08	3.460386e+01	8.825771e+02
1.910000e-06	4.920816e-06	1.340380e-08	3.428480e+01	8.795840e+02
1.920000e-06	4.873192e-06	1.341767e-08	3.395299e+01	8.765324e+02
1.930000e-06	4.823760e-06	1.332447e-08	3.360858e+01	8.734019e+02
1.940000e-06	4.772543e-06	1.328661e-08	3.325174e+01	8.701575e+02
1.950000e-06	4.719257e-06	1.324813e-08	3.288048e+01	8.667677e+02
1.960000e-06	4.664134e-06	1.316252e-08	3.249642e+01	8.632193e+02
1.970000e-06	4.607325e-06	1.311665e-08	3.210061e+01	8.595223e+02
1.980000e-06	4.548903e-06	1.302978e-08	3.169357e+01	8.557034e+02
1.990000e-06	4.488905e-06	1.299127e-08	3.127554e+01	8.517911e+02
2.000000e-06	4.427184e-06	1.294876e-08	3.084552e+01	8.477992e+02
2.010000e-06	4.363866e-06	1.288957e-08	3.040436e+01	8.437171e+02
2.020000e-06	4.299023e-06	1.283235e-08	2.995258e+01	8.395112e+02
2.030000e-06	4.232706e-06	1.273971e-08	2.949053e+01	8.351378e+02
2.040000e-06	4.164842e-06	1.267732e-08	2.901770e+01	8.305612e+02
2.050000e-06	4.095269e-06	1.258800e-08	2.853296e+01	8.257703e+02
2.060000e-06	4.024166e-06	1.251013e-08	2.803757e+01	8.207838e+02
2.070000e-06	3.951702e-06	1.244150e-08	2.753269e+01	8.156433e+02
2.080000e-06	3.877854e-06	1.237050e-08	2.701817e+01	8.103944e+02
2.090000e-06	3.802412e-06	1.230586e-08	2.649254e+01	8.050655e+02
2.100000e-06	3.725355e-06	1.220737e-08	2.595566e+01	7.996527e+02
2.110000e-06	3.646871e-06	1.211522e-08	2.540884e+01	7.941171e+02
2.120000e-06	3.567099e-06	1.201696e-08	2.485305e+01	7.883989e+02
2.130000e-06	3.486172e-06	1.193298e-08	2.428920e+01	7.824402e+02
2.140000e-06	3.404097e-06	1.184705e-08	2.371736e+01	7.762086e+02
2.150000e-06	3.320856e-06	1.175171e-08	2.313739e+01	7.697109e+02
2.160000e-06	3.236328e-06	1.165144e-08	2.254847e+01	7.629901e+02
2.170000e-06	3.150544e-06	1.154181e-08	2.195078e+01	7.561066e+02
2.180000e-06	3.063629e-06	1.143605e-08	2.134522e+01	7.491110e+02
2.190000e-06	2.975627e-06	1.131845e-08	2.073209e+01	7.420200e+02
2.200000e-06	2.886642e-06	1.121024e-08	2.011210e+01	7.348056e+02
2.210000e-06	2.796723e-06	1.109923e-08	1.948561e+01	7.274045e+02
2.220000e-06	2.705927e-06	1.099057e-08	1.885300e+01	7.197415e+02
2.230000e-06	2.614139e-06	1.087008e-08	1.821349e+01	7.117608e+02
2.240000e-06	2.521357e-06	1.073387e-08	1.756705e+01	7.034487e+02
2.250000e-06	2.427631e-06	1.059934e-08	1.691403e+01	6.948381e+02
2.260000e-06	2.332982e-06	1.046100e-08	1.625458e+01	6.859932e+02
2.270000e-06	2.237537e-06	1.033573e-08	1.558959e+01	6.769776e+02
2.280000e-06	2.141345e-06	1.020113e-08	1.491939e+01	6.678217e+02
2.290000e-06	2.044439e-06	1.005897e-08	1.424422e+01	6.585013e+02
2.300000e-06	1.946835e-06	9.912714e-09	1.356418e+01	6.489398e+02
2.310000e-06	1.848634e-06	9.759486e-09	1.287999e+01	6.390327e+02
2.320000e-06	1.749891e-06	9.600331e-09	1.219202e+01	6.286860e+02
2.330000e-06	1.650615e-06	9.427626e-09	1.150033e+01	6.178518e+02
2.340000e-06	1.550751e-06	9.258290e-09	1.080454e+01	6.065458e+02
2.350000e-06	1.450281e-06	9.088180e-09	1.010454e+01	5.948371e+02
2.360000e-06	1.349279e-06	8.910820e-09	9.400832e+00	5.828142e+02
2.370000e-06	1.247710e-06	8.724043e-09	8.693171e+00	5.705389e+02
2.380000e-06	1.145585e-06	8.529811e-09	7.981634e+00	5.580099e+02
2.390000e-06	1.042992e-06	8.333620e-09	7.266839e+00	5.451499e+02
2.400000e-06	9.399653e-07	8.127803e-09	6.549020e+00	5.318257e+02
2.410000e-06	8.365704e-07	7.909116e-09	5.828637e+00	5.178933e+02
2.420000e-06	7.328580e-07	7.681145e-09	5.106042e+00	5.032500e+02
2.430000e-06	6.289020e-07	7.447684e-09	4.381749e+00	4.878706e+02
2.440000e-06	5.247888e-07	7.209827e-09	3.656361e+00	4.718105e+02
2.450000e-06	4.205470e-07	6.963144e-09	2.930077e+00	4.551714e+02
2.460000e-06	3.161562e-07	6.703418e-09	2.202755e+00	4.380423e+02
2.470000e-06	2.116274e-07	6.433840e-09	1.474471e+00	4.204385e+02
2.480000e-06	1.069891e-07	6.154869e-09	7.454248e-01	4.022676e+02
2.490000e-06	2.331959e-09	5.859835e-09	1.624745e-02	3.833380e+02
2.500000e-06	-1.022788e-07	5.545179e-09	-7.126070e-01	3.634115e+02
2.510000e-06	-2.068370e-07	5.217591e-09	-1.441096e+00	3.422781e+02
2.520000e-06	-3.112563e-07	4.882654e-09	-2.168616e+00	3.198206e+02
2.530000e-06	-4.155466e-07	4.533334e-09	-2.895238e+00	2.960348e+02
2.540000e-06	-5.197194e-07	4.160355e-09	-3.621041e+00	2.709847e+02
2.550000e-06	-6.237212e-07	3.762239e-09	-4.345653e+00	2.447009e+02
2.560000e-06	-7.274716e-07	3.340225e-09	-5.068513e+00	2.170515e+02
2.570000e-06	-8.309761e-07	2.888808e-09	-5.789659e+00	1.876384e+02
2.580000e-06	-9.341742e-07	2.396509e-09	-6.508671e+00	1.557697e+02
2.590000e-06	-1.036964e-06	1.854848e-09	-7.224837e+00	1.205401e+02
2.600000e-06	-1.139341e-06	1.257022e-09	-7.938132e+00	8.101847e+01
2.610000e-06	-1.241241e-06	5.937079e-10	-8.648096e+00	3.650423e+01
2.620000e-06	-1.342573e-06	-1.464946e-10	-9.354109e+00	-1.321608e+01
2.630000e-06	-1.443350e-06	-9.679002e-10	-1.005625e+01	-6.768817e+01
2.640000e-06	-1.543628e-06	-1.856816e-09	-1.075492e+01	-1.257469e+02
2.650000e-06	-1.643267e-06	-2.782054e-09	-1.144913e+01	-1.856358e+02
2.660000e-06	-1.742224e-06	-3.703897e-09	-1.213860e+01	-2.452678e+02
2.670000e-06	-1.840640e-06	-4.587499e-09	-1.282429e+01	-3.025667e+02
2.680000e-06	-1.938508e-06	-5.405988e-09	-1.350617e+01	-3.558023e+02
2.690000e-06	-2.035707e-06	-6.140027e-09	-1.418338e+01	-4.038383e+02
2.700000e-06	-2.132197e-06	-6.786769e-09	-1.485565e+01	-4.462365e+02
2.710000e-06	-2.228052e-06	-7.354706e-09	-1.552351e+01	-4.832031e+02
2.720000e-06	-2.323314e-06	-7.853736e-09	-1.618723e+01	-5.154088e+02
2.730000e-06	-2.417845e-06	-8.295317e-09	-1.684585e+01	-5.437439e+02
2.740000e-06	-2.511384e-06	-8.690995e-09	-1.749757e+01	-5.690820e+02
2.750000e-06	-2.603804e-06	-9.048256e-09	-1.814148e+01	-5.921119e+02
2.760000e-06	-2.695145e-06	-9.373081e-09	-1.877788e+01	-6.132698e+02
2.770000e-06	-2.785554e-06	-9.670625e-09	-1.940779e+01	-6.327670e+02
2.780000e-06	-2.875028e-06	-9.942246e-09	-2.003118e+01	-6.506804e+02
2.790000e-06	-2.963462e-06	-1.018993e-08	-2.064733e+01	-6.670592e+02
2.800000e-06	-3.050888e-06	-1.041862e-08	-2.125645e+01	-6.820043e+02
2.810000e-06	-3.137359e-06	-1.063270e-08	-2.185892e+01	-6.956973e+02
2.820000e-06	-3.222643e-06	-1.083287e-08	-2.245312e+01	-7.083760e+02
2.830000e-06	-3.306569e-06	-1.101962e-08	-2.303786e+01	-7.202793e+02
2.840000e-06	-3.389311e-06	-1.119376e-08	-2.361434e+01	-7.315881e+02
2.850000e-06	-3.470970e-06	-1.135700e-08	-2.418328e+01	-7.423905e+02
2.860000e-06	-3.551518e-06	-1.151096e-08	-2.474449e+01	-7.526837e+02
2.870000e-06	-3.630864e-06	-1.165504e-08	-2.529732e+01	-7.624098e+02
2.880000e-06	-3.708765e-06	-1.178913e-08	-2.584007e+01	-7.715072e+02
2.890000e-06	-3.785077e-06	-1.191630e-08	-2.637176e+01	-7.799562e+02
2.900000e-06	-3.859905e-06	-1.203953e-08	-2.689311e+01	-7.878008e+02
2.910000e-06	-3.933360e-06	-1.215667e-08	-2.740489e+01	-7.951401e+02
2.920000e-06	-4.005478e-06	-1.226510e-08	-2.790736e+01	-8.020969e+02
2.930000e-06	-4.076291e-06	-1.236607e-08	-2.840074e+01	-8.087771e+02
2.940000e-06	-4.145559e-06	-1.246396e-08	-2.888335e+01	-8.152398e+02
