# Temperatura_=_30.84
# Concentracion g/m^3_=_13400.0
# C_Vs_to_Am_M_A/Vsm_=_65563218390.804596
# pendiente_HvsI_1/m_=_3716.3
# ordenada_HvsI_A/m_=_1297.0
# frecuencia_Hz_=_300802.42863812053

Tiempo_(s)	Campo_(V.s)	Magnetizacion_(V.s)	Campo_(kA/m)	Magnetizacion_(A/m)
0.000000e+00	-5.506735e-06	-1.384358e-08	-3.830978e+01	-9.076727e+02
1.000000e-08	-5.505396e-06	-1.383864e-08	-3.830047e+01	-9.075438e+02
2.000000e-08	-5.502047e-06	-1.382970e-08	-3.827717e+01	-9.073069e+02
3.000000e-08	-5.496919e-06	-1.382318e-08	-3.824150e+01	-9.069310e+02
4.000000e-08	-5.490111e-06	-1.381944e-08	-3.819413e+01	-9.064030e+02
5.000000e-08	-5.481662e-06	-1.381014e-08	-3.813535e+01	-9.057294e+02
6.000000e-08	-5.471343e-06	-1.379376e-08	-3.806356e+01	-9.049284e+02
7.000000e-08	-5.458937e-06	-1.377213e-08	-3.797726e+01	-9.040197e+02
8.000000e-08	-5.444501e-06	-1.375144e-08	-3.787683e+01	-9.030141e+02
9.000000e-08	-5.427731e-06	-1.377918e-08	-3.776017e+01	-9.019119e+02
1.000000e-07	-5.408630e-06	-1.379378e-08	-3.762728e+01	-9.007079e+02
1.100000e-07	-5.387526e-06	-1.373811e-08	-3.748046e+01	-8.994000e+02
1.200000e-07	-5.364588e-06	-1.370065e-08	-3.732088e+01	-8.979984e+02
1.300000e-07	-5.340114e-06	-1.364071e-08	-3.715062e+01	-8.965265e+02
1.400000e-07	-5.314136e-06	-1.357114e-08	-3.696989e+01	-8.950138e+02
1.500000e-07	-5.286361e-06	-1.364548e-08	-3.677667e+01	-8.934824e+02
1.600000e-07	-5.256851e-06	-1.358883e-08	-3.657137e+01	-8.919324e+02
1.700000e-07	-5.225807e-06	-1.349879e-08	-3.635540e+01	-8.903339e+02
1.800000e-07	-5.192877e-06	-1.359140e-08	-3.612631e+01	-8.886301e+02
1.900000e-07	-5.157838e-06	-1.351031e-08	-3.588255e+01	-8.867514e+02
2.000000e-07	-5.121199e-06	-1.343484e-08	-3.562765e+01	-8.846375e+02
2.100000e-07	-5.082911e-06	-1.344161e-08	-3.536129e+01	-8.822571e+02
2.200000e-07	-5.042774e-06	-1.332100e-08	-3.508206e+01	-8.796195e+02
2.300000e-07	-5.000765e-06	-1.329822e-08	-3.478980e+01	-8.767717e+02
2.400000e-07	-4.956735e-06	-1.332160e-08	-3.448349e+01	-8.737825e+02
2.500000e-07	-4.910911e-06	-1.326494e-08	-3.416470e+01	-8.707192e+02
2.600000e-07	-4.863328e-06	-1.323676e-08	-3.383367e+01	-8.676260e+02
2.700000e-07	-4.813673e-06	-1.316905e-08	-3.348822e+01	-8.645117e+02
2.800000e-07	-4.761928e-06	-1.310700e-08	-3.312824e+01	-8.613511e+02
2.900000e-07	-4.708301e-06	-1.304840e-08	-3.275517e+01	-8.580991e+02
3.000000e-07	-4.653030e-06	-1.298482e-08	-3.237065e+01	-8.547104e+02
3.100000e-07	-4.596147e-06	-1.293685e-08	-3.197492e+01	-8.511564e+02
3.200000e-07	-4.537439e-06	-1.289345e-08	-3.156650e+01	-8.474340e+02
3.300000e-07	-4.476986e-06	-1.288267e-08	-3.114593e+01	-8.435612e+02
3.400000e-07	-4.415029e-06	-1.280365e-08	-3.071490e+01	-8.395643e+02
3.500000e-07	-4.351641e-06	-1.271535e-08	-3.027392e+01	-8.354624e+02
3.600000e-07	-4.286747e-06	-1.265376e-08	-2.982246e+01	-8.312569e+02
3.700000e-07	-4.220175e-06	-1.257115e-08	-2.935932e+01	-8.269297e+02
3.800000e-07	-4.151898e-06	-1.251673e-08	-2.888433e+01	-8.224523e+02
3.900000e-07	-4.082124e-06	-1.244974e-08	-2.839891e+01	-8.177991e+02
4.000000e-07	-4.011078e-06	-1.237440e-08	-2.790465e+01	-8.129600e+02
4.100000e-07	-3.938790e-06	-1.230978e-08	-2.740175e+01	-8.079449e+02
4.200000e-07	-3.865031e-06	-1.223344e-08	-2.688862e+01	-8.027780e+02
4.300000e-07	-3.789596e-06	-1.214599e-08	-2.636383e+01	-7.974849e+02
4.400000e-07	-3.712478e-06	-1.204935e-08	-2.582732e+01	-7.920778e+02
4.500000e-07	-3.633825e-06	-1.197692e-08	-2.528015e+01	-7.865465e+02
4.600000e-07	-3.553690e-06	-1.189796e-08	-2.472266e+01	-7.808599e+02
4.700000e-07	-3.472198e-06	-1.180664e-08	-2.415572e+01	-7.749776e+02
4.800000e-07	-3.389550e-06	-1.171198e-08	-2.358075e+01	-7.688668e+02
4.900000e-07	-3.305782e-06	-1.160613e-08	-2.299799e+01	-7.625168e+02
5.000000e-07	-3.221005e-06	-1.151247e-08	-2.240820e+01	-7.559442e+02
5.100000e-07	-3.135251e-06	-1.140976e-08	-2.181162e+01	-7.491853e+02
5.200000e-07	-3.048530e-06	-1.130134e-08	-2.120831e+01	-7.422792e+02
5.300000e-07	-2.960859e-06	-1.119742e-08	-2.059839e+01	-7.352477e+02
5.400000e-07	-2.872229e-06	-1.109462e-08	-1.998180e+01	-7.280829e+02
5.500000e-07	-2.782627e-06	-1.098663e-08	-1.935845e+01	-7.207463e+02
5.600000e-07	-2.691839e-06	-1.086574e-08	-1.872685e+01	-7.131820e+02
5.700000e-07	-2.599856e-06	-1.073805e-08	-1.808693e+01	-7.053384e+02
5.800000e-07	-2.506972e-06	-1.060981e-08	-1.744075e+01	-6.971888e+02
5.900000e-07	-2.413320e-06	-1.048882e-08	-1.678922e+01	-6.887404e+02
6.000000e-07	-2.318880e-06	-1.036232e-08	-1.613221e+01	-6.800290e+02
6.100000e-07	-2.223648e-06	-1.022602e-08	-1.546969e+01	-6.710990e+02
6.200000e-07	-2.127660e-06	-1.008656e-08	-1.480191e+01	-6.619778e+02
6.300000e-07	-2.030909e-06	-9.945021e-09	-1.412882e+01	-6.526569e+02
6.400000e-07	-1.933357e-06	-9.800078e-09	-1.345016e+01	-6.430870e+02
6.500000e-07	-1.834954e-06	-9.645124e-09	-1.276559e+01	-6.331924e+02
6.600000e-07	-1.735738e-06	-9.481783e-09	-1.207535e+01	-6.228980e+02
6.700000e-07	-1.635818e-06	-9.316091e-09	-1.138022e+01	-6.121578e+02
6.800000e-07	-1.535331e-06	-9.149824e-09	-1.068114e+01	-6.009721e+02
6.900000e-07	-1.434397e-06	-8.976978e-09	-9.978953e+00	-5.893846e+02
7.000000e-07	-1.333026e-06	-8.797066e-09	-9.273726e+00	-5.774583e+02
7.100000e-07	-1.231221e-06	-8.611730e-09	-8.565475e+00	-5.652410e+02
7.200000e-07	-1.128952e-06	-8.421954e-09	-7.854004e+00	-5.527334e+02
7.300000e-07	-1.026263e-06	-8.227874e-09	-7.139605e+00	-5.398762e+02
7.400000e-07	-9.232501e-07	-8.020514e-09	-6.422956e+00	-5.265624e+02
7.500000e-07	-8.199218e-07	-7.799585e-09	-5.704111e+00	-5.126719e+02
7.600000e-07	-7.163100e-07	-7.574235e-09	-4.983295e+00	-4.981145e+02
7.700000e-07	-6.124534e-07	-7.350026e-09	-4.260775e+00	-4.828614e+02
7.800000e-07	-5.083922e-07	-7.118070e-09	-3.536832e+00	-4.669517e+02
7.900000e-07	-4.041683e-07	-6.869504e-09	-2.811757e+00	-4.504656e+02
8.000000e-07	-2.997828e-07	-6.610295e-09	-2.085558e+00	-4.334750e+02
8.100000e-07	-1.952667e-07	-6.344040e-09	-1.358450e+00	-4.159906e+02
8.200000e-07	-9.066563e-08	-6.064837e-09	-6.307514e-01	-3.979296e+02
8.300000e-07	1.398563e-08	-5.770345e-09	9.729657e-02	-3.791203e+02
8.400000e-07	1.186529e-07	-5.463769e-09	8.254557e-01	-3.593451e+02
8.500000e-07	2.231901e-07	-5.147822e-09	1.552711e+00	-3.384072e+02
8.600000e-07	3.275944e-07	-4.818131e-09	2.279041e+00	-3.161899e+02
8.700000e-07	4.318723e-07	-4.465180e-09	3.004491e+00	-2.926782e+02
8.800000e-07	5.359357e-07	-4.087426e-09	3.728449e+00	-2.679229e+02
8.900000e-07	6.398337e-07	-3.689186e-09	4.451257e+00	-2.419504e+02
9.000000e-07	7.435360e-07	-3.270776e-09	5.172703e+00	-2.146436e+02
9.100000e-07	8.469511e-07	-2.822548e-09	5.892151e+00	-1.856420e+02
9.200000e-07	9.500932e-07	-2.335265e-09	6.609700e+00	-1.543074e+02
9.300000e-07	1.052981e-06	-1.799933e-09	7.325478e+00	-1.197889e+02
9.400000e-07	1.155531e-06	-1.209067e-09	8.038913e+00	-8.119112e+01
9.500000e-07	1.257612e-06	-5.552410e-10	8.749078e+00	-3.781124e+01
9.600000e-07	1.359182e-06	1.724983e-10	9.455688e+00	1.061452e+01
9.700000e-07	1.460341e-06	9.788237e-10	1.015944e+01	6.372822e+01
9.800000e-07	1.561127e-06	1.852014e-09	1.086060e+01	1.204917e+02
9.900000e-07	1.661485e-06	2.760551e-09	1.155878e+01	1.792809e+02
1.000000e-06	1.761265e-06	3.668812e-09	1.225294e+01	2.381189e+02
1.010000e-06	1.860234e-06	4.541212e-09	1.294146e+01	2.949932e+02
1.020000e-06	1.958406e-06	5.344115e-09	1.362443e+01	3.481788e+02
1.030000e-06	2.055820e-06	6.060303e-09	1.430213e+01	3.964874e+02
1.040000e-06	2.152425e-06	6.693389e-09	1.497420e+01	4.393856e+02
1.050000e-06	2.248209e-06	7.256221e-09	1.564056e+01	4.769652e+02
1.060000e-06	2.343212e-06	7.755314e-09	1.630148e+01	5.097884e+02
1.070000e-06	2.437478e-06	8.197517e-09	1.695728e+01	5.386635e+02
1.080000e-06	2.530996e-06	8.593785e-09	1.760788e+01	5.644205e+02
1.090000e-06	2.623757e-06	8.953589e-09	1.825321e+01	5.877443e+02
1.100000e-06	2.715615e-06	9.278923e-09	1.889225e+01	6.090973e+02
1.110000e-06	2.806335e-06	9.569654e-09	1.952338e+01	6.287333e+02
1.120000e-06	2.895868e-06	9.832742e-09	2.014626e+01	6.467716e+02
1.130000e-06	2.984327e-06	1.007516e-08	2.076166e+01	6.632915e+02
1.140000e-06	3.071806e-06	1.030241e-08	2.137024e+01	6.784049e+02
1.150000e-06	3.158279e-06	1.051745e-08	2.197182e+01	6.922851e+02
1.160000e-06	3.243712e-06	1.071876e-08	2.256617e+01	7.051490e+02
1.170000e-06	3.328177e-06	1.090565e-08	2.315378e+01	7.172105e+02
1.180000e-06	3.411515e-06	1.108118e-08	2.373356e+01	7.286304e+02
1.190000e-06	3.493593e-06	1.124578e-08	2.430456e+01	7.394891e+02
1.200000e-06	3.574375e-06	1.139839e-08	2.486656e+01	7.497903e+02
1.210000e-06	3.653819e-06	1.154131e-08	2.541924e+01	7.594952e+02
1.220000e-06	3.731916e-06	1.167932e-08	2.596256e+01	7.685673e+02
1.230000e-06	3.808689e-06	1.181070e-08	2.649665e+01	7.770109e+02
1.240000e-06	3.884034e-06	1.193315e-08	2.702082e+01	7.848856e+02
1.250000e-06	3.957782e-06	1.204998e-08	2.753388e+01	7.922933e+02
1.260000e-06	4.030027e-06	1.216172e-08	2.803648e+01	7.993461e+02
1.270000e-06	4.100864e-06	1.226655e-08	2.852929e+01	8.061302e+02
1.280000e-06	4.170316e-06	1.236312e-08	2.901246e+01	8.126829e+02
1.290000e-06	4.238420e-06	1.245591e-08	2.948625e+01	8.189909e+02
1.300000e-06	4.304941e-06	1.254848e-08	2.994903e+01	8.250111e+02
1.310000e-06	4.369733e-06	1.263679e-08	3.039978e+01	8.307027e+02
1.320000e-06	4.433011e-06	1.271762e-08	3.084000e+01	8.360555e+02
1.330000e-06	4.494889e-06	1.279412e-08	3.127048e+01	8.411020e+02
1.340000e-06	4.555392e-06	1.287007e-08	3.169139e+01	8.459093e+02
1.350000e-06	4.614286e-06	1.294347e-08	3.210111e+01	8.505527e+02
1.360000e-06	4.671323e-06	1.301219e-08	3.249791e+01	8.550858e+02
1.370000e-06	4.726657e-06	1.307737e-08	3.288287e+01	8.595183e+02
1.380000e-06	4.780303e-06	1.314262e-08	3.325607e+01	8.638128e+02
1.390000e-06	4.831980e-06	1.320715e-08	3.361559e+01	8.679015e+02
1.400000e-06	4.881580e-06	1.326420e-08	3.396065e+01	8.717163e+02
1.410000e-06	4.929340e-06	1.331479e-08	3.429291e+01	8.752178e+02
1.420000e-06	4.975490e-06	1.336506e-08	3.461397e+01	8.784131e+02
1.430000e-06	5.020042e-06	1.341568e-08	3.492391e+01	8.813536e+02
1.440000e-06	5.062734e-06	1.346065e-08	3.522092e+01	8.841145e+02
1.450000e-06	5.103473e-06	1.349918e-08	3.550433e+01	8.867649e+02
1.460000e-06	5.142486e-06	1.353788e-08	3.577574e+01	8.893412e+02
1.470000e-06	5.179839e-06	1.357781e-08	3.603561e+01	8.918351e+02
1.480000e-06	5.215363e-06	1.361396e-08	3.628274e+01	8.942003e+02
1.490000e-06	5.248923e-06	1.364411e-08	3.651622e+01	8.963754e+02
1.500000e-06	5.280649e-06	1.367137e-08	3.673693e+01	8.983120e+02
1.510000e-06	5.310666e-06	1.369895e-08	3.694576e+01	8.999975e+02
1.520000e-06	5.338948e-06	1.372659e-08	3.714251e+01	9.014614e+02
1.530000e-06	5.365193e-06	1.375020e-08	3.732509e+01	9.027650e+02
1.540000e-06	5.389337e-06	1.376941e-08	3.749306e+01	9.039768e+02
1.550000e-06	5.411677e-06	1.378798e-08	3.764848e+01	9.051465e+02
1.560000e-06	5.432283e-06	1.380783e-08	3.779183e+01	9.062866e+02
1.570000e-06	5.451029e-06	1.382536e-08	3.792224e+01	9.073697e+02
1.580000e-06	5.467778e-06	1.383747e-08	3.803877e+01	9.083421e+02
1.590000e-06	5.482523e-06	1.384756e-08	3.814134e+01	9.091471e+02
1.600000e-06	5.495171e-06	1.386100e-08	3.822933e+01	9.097482e+02
1.610000e-06	5.505602e-06	1.387485e-08	3.830191e+01	9.101437e+02
1.620000e-06	5.513957e-06	1.388245e-08	3.836003e+01	9.103655e+02
1.630000e-06	5.520407e-06	1.388494e-08	3.840490e+01	9.104658e+02
1.640000e-06	5.525088e-06	1.388633e-08	3.843746e+01	9.104955e+02
1.650000e-06	5.527740e-06	1.388767e-08	3.845591e+01	9.104860e+02
1.660000e-06	5.528327e-06	1.388735e-08	3.846000e+01	9.104393e+02
1.670000e-06	5.527170e-06	1.388257e-08	3.845195e+01	9.103313e+02
1.680000e-06	5.524384e-06	1.388135e-08	3.843257e+01	9.101246e+02
1.690000e-06	5.519812e-06	1.388389e-08	3.840076e+01	9.097852e+02
1.700000e-06	5.513251e-06	1.388034e-08	3.835512e+01	9.092952e+02
1.710000e-06	5.504899e-06	1.387042e-08	3.829701e+01	9.086563e+02
1.720000e-06	5.494879e-06	1.385854e-08	3.822731e+01	9.078850e+02
1.730000e-06	5.482955e-06	1.385616e-08	3.814435e+01	9.070015e+02
1.740000e-06	5.468967e-06	1.383701e-08	3.804704e+01	9.060195e+02
1.750000e-06	5.453028e-06	1.375256e-08	3.793615e+01	9.049418e+02
1.760000e-06	5.434697e-06	1.373034e-08	3.780862e+01	9.037635e+02
1.770000e-06	5.413518e-06	1.374659e-08	3.766128e+01	9.024810e+02
1.780000e-06	5.390046e-06	1.376156e-08	3.749799e+01	9.011009e+02
1.790000e-06	5.365329e-06	1.381787e-08	3.732604e+01	8.996436e+02
1.800000e-06	5.339869e-06	1.367838e-08	3.714892e+01	8.981382e+02
1.810000e-06	5.312795e-06	1.363352e-08	3.696056e+01	8.966102e+02
1.820000e-06	5.283371e-06	1.374740e-08	3.675586e+01	8.950663e+02
1.830000e-06	5.252247e-06	1.360984e-08	3.653934e+01	8.934842e+02
1.840000e-06	5.219438e-06	1.361172e-08	3.631109e+01	8.918128e+02
1.850000e-06	5.184769e-06	1.366187e-08	3.606990e+01	8.899841e+02
1.860000e-06	5.148465e-06	1.350986e-08	3.581734e+01	8.879331e+02
1.870000e-06	5.110096e-06	1.358565e-08	3.555041e+01	8.856200e+02
1.880000e-06	5.069794e-06	1.355996e-08	3.527003e+01	8.830434e+02
1.890000e-06	5.027946e-06	1.341819e-08	3.497890e+01	8.802419e+02
1.900000e-06	4.984259e-06	1.344238e-08	3.467498e+01	8.772810e+02
1.910000e-06	4.938754e-06	1.331191e-08	3.435840e+01	8.742307e+02
1.920000e-06	4.891468e-06	1.329881e-08	3.402944e+01	8.711425e+02
1.930000e-06	4.842348e-06	1.330500e-08	3.368771e+01	8.680345e+02
1.940000e-06	4.791476e-06	1.319250e-08	3.333380e+01	8.648890e+02
1.950000e-06	4.738496e-06	1.321525e-08	3.296522e+01	8.616643e+02
1.960000e-06	4.683583e-06	1.312192e-08	3.258320e+01	8.583131e+02
1.970000e-06	4.627004e-06	1.306379e-08	3.218959e+01	8.548015e+02
1.980000e-06	4.568814e-06	1.298737e-08	3.178477e+01	8.511200e+02
1.990000e-06	4.509147e-06	1.289315e-08	3.136967e+01	8.472821e+02
2.000000e-06	4.447738e-06	1.291960e-08	3.094245e+01	8.433137e+02
2.010000e-06	4.384669e-06	1.281349e-08	3.050369e+01	8.392370e+02
2.020000e-06	4.320038e-06	1.278510e-08	3.005406e+01	8.350582e+02
2.030000e-06	4.253909e-06	1.271433e-08	2.959401e+01	8.307637e+02
2.040000e-06	4.186334e-06	1.260181e-08	2.912389e+01	8.263264e+02
2.050000e-06	4.117045e-06	1.257134e-08	2.864186e+01	8.217187e+02
2.060000e-06	4.046131e-06	1.245150e-08	2.814851e+01	8.169257e+02
2.070000e-06	3.973844e-06	1.240301e-08	2.764562e+01	8.119525e+02
2.080000e-06	3.900252e-06	1.232115e-08	2.713365e+01	8.068208e+02
2.090000e-06	3.825136e-06	1.225264e-08	2.661108e+01	8.015571e+02
2.100000e-06	3.748322e-06	1.219183e-08	2.607669e+01	7.961783e+02
2.110000e-06	3.669997e-06	1.207187e-08	2.553179e+01	7.906801e+02
2.120000e-06	3.590350e-06	1.199375e-08	2.497769e+01	7.850358e+02
2.130000e-06	3.509520e-06	1.188075e-08	2.441537e+01	7.792058e+02
2.140000e-06	3.427544e-06	1.180723e-08	2.384507e+01	7.731540e+02
2.150000e-06	3.344470e-06	1.171367e-08	2.326714e+01	7.668631e+02
2.160000e-06	3.260140e-06	1.160931e-08	2.268046e+01	7.603431e+02
2.170000e-06	3.174370e-06	1.152199e-08	2.208376e+01	7.536267e+02
2.180000e-06	3.087420e-06	1.140963e-08	2.147886e+01	7.467541e+02
2.190000e-06	2.999498e-06	1.130610e-08	2.086720e+01	7.397532e+02
2.200000e-06	2.910617e-06	1.118471e-08	2.024886e+01	7.326242e+02
2.210000e-06	2.820761e-06	1.107057e-08	1.962374e+01	7.253352e+02
2.220000e-06	2.730008e-06	1.096031e-08	1.899239e+01	7.178329e+02
2.230000e-06	2.638378e-06	1.085074e-08	1.835492e+01	7.100628e+02
2.240000e-06	2.545781e-06	1.072487e-08	1.771073e+01	7.019901e+02
2.250000e-06	2.452150e-06	1.058773e-08	1.705936e+01	6.936137e+02
2.260000e-06	2.357468e-06	1.045454e-08	1.640066e+01	6.849636e+02
2.270000e-06	2.261973e-06	1.032389e-08	1.573631e+01	6.760844e+02
2.280000e-06	2.165800e-06	1.019129e-08	1.506725e+01	6.670100e+02
2.290000e-06	2.068885e-06	1.004472e-08	1.439302e+01	6.577420e+02
2.300000e-06	1.971285e-06	9.900174e-09	1.371403e+01	6.482406e+02
2.310000e-06	1.873138e-06	9.753620e-09	1.303123e+01	6.384345e+02
2.320000e-06	1.774392e-06	9.600378e-09	1.234426e+01	6.282457e+02
2.330000e-06	1.675014e-06	9.428842e-09	1.165290e+01	6.176187e+02
2.340000e-06	1.575091e-06	9.254306e-09	1.095774e+01	6.065415e+02
2.350000e-06	1.474630e-06	9.087112e-09	1.025885e+01	5.950485e+02
2.360000e-06	1.373563e-06	8.912810e-09	9.555733e+00	5.832010e+02
2.370000e-06	1.271834e-06	8.727733e-09	8.848020e+00	5.710539e+02
2.380000e-06	1.169546e-06	8.532845e-09	8.136413e+00	5.586219e+02
2.390000e-06	1.066738e-06	8.340432e-09	7.421188e+00	5.458605e+02
2.400000e-06	9.634917e-07	8.142812e-09	6.702912e+00	5.326722e+02
2.410000e-06	8.599615e-07	7.929105e-09	5.982663e+00	5.189360e+02
2.420000e-06	7.561940e-07	7.701093e-09	5.260764e+00	5.045506e+02
2.430000e-06	6.522261e-07	7.466357e-09	4.537469e+00	4.894700e+02
2.440000e-06	5.480854e-07	7.229964e-09	3.812974e+00	4.737176e+02
2.450000e-06	4.437767e-07	6.986432e-09	3.087308e+00	4.573674e+02
2.460000e-06	3.393263e-07	6.731334e-09	2.360658e+00	4.404985e+02
2.470000e-06	2.347607e-07	6.468126e-09	1.633206e+00	4.231412e+02
2.480000e-06	1.300835e-07	6.196350e-09	9.049776e-01	4.052373e+02
2.490000e-06	2.530022e-08	5.908565e-09	1.760110e-01	3.866345e+02
2.500000e-06	-7.949089e-08	5.601047e-09	-5.530099e-01	3.671210e+02
2.510000e-06	-1.842160e-07	5.278313e-09	-1.281571e+00	3.464884e+02
2.520000e-06	-2.888393e-07	4.946174e-09	-2.009425e+00	3.245960e+02
2.530000e-06	-3.932622e-07	4.601582e-09	-2.735885e+00	3.014043e+02
2.540000e-06	-4.975366e-07	4.236762e-09	-3.461311e+00	2.769543e+02
2.550000e-06	-6.016913e-07	3.849726e-09	-4.185904e+00	2.512893e+02
2.560000e-06	-7.056623e-07	3.441741e-09	-4.909219e+00	2.243389e+02
2.570000e-06	-8.094323e-07	3.005266e-09	-5.631137e+00	1.958101e+02
2.580000e-06	-9.129363e-07	2.531222e-09	-6.351203e+00	1.651321e+02
2.590000e-06	-1.016049e-06	2.012816e-09	-7.068545e+00	1.314953e+02
2.600000e-06	-1.118742e-06	1.441475e-09	-7.782974e+00	9.399491e+01
2.610000e-06	-1.221023e-06	8.085719e-10	-8.494531e+00	5.185609e+01
2.620000e-06	-1.322712e-06	1.045396e-10	-9.201969e+00	4.684445e+00
2.630000e-06	-1.423745e-06	-6.796719e-10	-9.904844e+00	-4.732864e+01
2.640000e-06	-1.524210e-06	-1.535679e-09	-1.060377e+01	-1.033123e+02
2.650000e-06	-1.624140e-06	-2.436200e-09	-1.129897e+01	-1.617718e+02
2.660000e-06	-1.723465e-06	-3.346961e-09	-1.198997e+01	-2.207909e+02
2.670000e-06	-1.822152e-06	-4.234482e-09	-1.267652e+01	-2.783343e+02
2.680000e-06	-1.920261e-06	-5.069256e-09	-1.335906e+01	-3.325779e+02
2.690000e-06	-2.017773e-06	-5.827684e-09	-1.403744e+01	-3.821821e+02
2.700000e-06	-2.114549e-06	-6.503294e-09	-1.471070e+01	-4.264471e+02
2.710000e-06	-2.210629e-06	-7.101287e-09	-1.537912e+01	-4.653187e+02
2.720000e-06	-2.306148e-06	-7.627725e-09	-1.604363e+01	-4.992610e+02
2.730000e-06	-2.401041e-06	-8.087656e-09	-1.670380e+01	-5.290428e+02
2.740000e-06	-2.495056e-06	-8.494036e-09	-1.735784e+01	-5.555077e+02
2.750000e-06	-2.587926e-06	-8.862432e-09	-1.800394e+01	-5.793875e+02
2.760000e-06	-2.679663e-06	-9.200078e-09	-1.864214e+01	-6.012024e+02
2.770000e-06	-2.770365e-06	-9.509606e-09	-1.927315e+01	-6.212530e+02
2.780000e-06	-2.860101e-06	-9.790270e-09	-1.989743e+01	-6.396835e+02
2.790000e-06	-2.948808e-06	-1.004588e-08	-2.051456e+01	-6.565749e+02
2.800000e-06	-3.036537e-06	-1.028264e-08	-2.112487e+01	-6.720262e+02
2.810000e-06	-3.123385e-06	-1.050189e-08	-2.172906e+01	-6.861956e+02
2.820000e-06	-3.209112e-06	-1.070330e-08	-2.232546e+01	-6.992928e+02
2.830000e-06	-3.293491e-06	-1.089154e-08	-2.291247e+01	-7.115372e+02
2.840000e-06	-3.376607e-06	-1.107236e-08	-2.349070e+01	-7.231068e+02
2.850000e-06	-3.458639e-06	-1.124341e-08	-2.406139e+01	-7.341030e+02
2.860000e-06	-3.539564e-06	-1.140098e-08	-2.462438e+01	-7.445466e+02
2.870000e-06	-3.619313e-06	-1.154621e-08	-2.517919e+01	-7.544050e+02
2.880000e-06	-3.697704e-06	-1.168292e-08	-2.572455e+01	-7.636372e+02
2.890000e-06	-3.774507e-06	-1.181359e-08	-2.625885e+01	-7.722347e+02
2.900000e-06	-3.849767e-06	-1.193650e-08	-2.678243e+01	-7.802435e+02
2.910000e-06	-3.923623e-06	-1.205096e-08	-2.729624e+01	-7.877574e+02
2.920000e-06	-3.996112e-06	-1.216004e-08	-2.780054e+01	-7.948894e+02
2.930000e-06	-4.067281e-06	-1.226559e-08	-2.829565e+01	-8.017353e+02
2.940000e-06	-4.136957e-06	-1.236761e-08	-2.878038e+01	-8.083456e+02
