# Temperatura_=_50.77
# Concentracion g/m^3_=_13400.0
# C_Vs_to_Am_M_A/Vsm_=_65563218390.804596
# pendiente_HvsI_1/m_=_3716.3
# ordenada_HvsI_A/m_=_1297.0
# frecuencia_Hz_=_300799.9269308583

Tiempo_(s)	Campo_(V.s)	Magnetizacion_(V.s)	Campo_(kA/m)	Magnetizacion_(A/m)
0.000000e+00	-5.508209e-06	-1.416272e-08	-3.830956e+01	-9.295049e+02
1.000000e-08	-5.505980e-06	-1.415989e-08	-3.829406e+01	-9.291993e+02
2.000000e-08	-5.501809e-06	-1.415531e-08	-3.826504e+01	-9.287861e+02
3.000000e-08	-5.495933e-06	-1.415140e-08	-3.822418e+01	-9.282686e+02
4.000000e-08	-5.488421e-06	-1.414181e-08	-3.817193e+01	-9.276504e+02
5.000000e-08	-5.479237e-06	-1.412604e-08	-3.810805e+01	-9.269295e+02
6.000000e-08	-5.468051e-06	-1.410533e-08	-3.803026e+01	-9.260943e+02
7.000000e-08	-5.454816e-06	-1.407069e-08	-3.793821e+01	-9.251252e+02
8.000000e-08	-5.439476e-06	-1.406728e-08	-3.783152e+01	-9.240030e+02
9.000000e-08	-5.421666e-06	-1.412492e-08	-3.770765e+01	-9.227198e+02
1.000000e-07	-5.401608e-06	-1.409935e-08	-3.756814e+01	-9.212882e+02
1.100000e-07	-5.379637e-06	-1.403461e-08	-3.741534e+01	-9.197424e+02
1.200000e-07	-5.355969e-06	-1.400170e-08	-3.725073e+01	-9.181295e+02
1.300000e-07	-5.330908e-06	-1.388095e-08	-3.707643e+01	-9.164927e+02
1.400000e-07	-5.304288e-06	-1.391240e-08	-3.689129e+01	-9.148529e+02
1.500000e-07	-5.275774e-06	-1.398643e-08	-3.669297e+01	-9.131965e+02
1.600000e-07	-5.245562e-06	-1.380353e-08	-3.648285e+01	-9.114753e+02
1.700000e-07	-5.213711e-06	-1.385836e-08	-3.626132e+01	-9.096203e+02
1.800000e-07	-5.179819e-06	-1.390869e-08	-3.602560e+01	-9.075642e+02
1.900000e-07	-5.144013e-06	-1.372578e-08	-3.577657e+01	-9.052654e+02
2.000000e-07	-5.106698e-06	-1.376358e-08	-3.551705e+01	-9.027223e+02
2.100000e-07	-5.067624e-06	-1.368632e-08	-3.524529e+01	-8.999731e+02
2.200000e-07	-5.026718e-06	-1.357393e-08	-3.496079e+01	-8.970803e+02
2.300000e-07	-4.983864e-06	-1.365196e-08	-3.466274e+01	-8.941055e+02
2.400000e-07	-4.939060e-06	-1.360182e-08	-3.435113e+01	-8.910859e+02
2.500000e-07	-4.892556e-06	-1.355703e-08	-3.402770e+01	-8.880207e+02
2.600000e-07	-4.844189e-06	-1.350440e-08	-3.369130e+01	-8.848748e+02
2.700000e-07	-4.793689e-06	-1.339616e-08	-3.334007e+01	-8.815963e+02
2.800000e-07	-4.741056e-06	-1.337445e-08	-3.297401e+01	-8.781413e+02
2.900000e-07	-4.686602e-06	-1.330567e-08	-3.259528e+01	-8.744944e+02
3.000000e-07	-4.630536e-06	-1.324793e-08	-3.220535e+01	-8.706760e+02
3.100000e-07	-4.572807e-06	-1.320779e-08	-3.180384e+01	-8.667329e+02
3.200000e-07	-4.513279e-06	-1.318042e-08	-3.138982e+01	-8.627156e+02
3.300000e-07	-4.452142e-06	-1.313266e-08	-3.096462e+01	-8.586532e+02
3.400000e-07	-4.389570e-06	-1.300944e-08	-3.052943e+01	-8.545366e+02
3.500000e-07	-4.325526e-06	-1.294502e-08	-3.008400e+01	-8.503183e+02
3.600000e-07	-4.259951e-06	-1.285968e-08	-2.962793e+01	-8.459298e+02
3.700000e-07	-4.192658e-06	-1.279698e-08	-2.915990e+01	-8.413097e+02
3.800000e-07	-4.123706e-06	-1.276306e-08	-2.868035e+01	-8.364298e+02
3.900000e-07	-4.053360e-06	-1.267190e-08	-2.819109e+01	-8.313090e+02
4.000000e-07	-3.981729e-06	-1.260640e-08	-2.769290e+01	-8.260057e+02
4.100000e-07	-3.908807e-06	-1.252300e-08	-2.718572e+01	-8.205938e+02
4.200000e-07	-3.834391e-06	-1.243205e-08	-2.666817e+01	-8.151299e+02
4.300000e-07	-3.758261e-06	-1.232689e-08	-2.613868e+01	-8.096270e+02
4.400000e-07	-3.680517e-06	-1.223041e-08	-2.559797e+01	-8.040454e+02
4.500000e-07	-3.601325e-06	-1.216548e-08	-2.504719e+01	-7.983071e+02
4.600000e-07	-3.520630e-06	-1.208122e-08	-2.448596e+01	-7.923261e+02
4.700000e-07	-3.438559e-06	-1.199105e-08	-2.391515e+01	-7.860444e+02
4.800000e-07	-3.355354e-06	-1.187895e-08	-2.333647e+01	-7.794566e+02
4.900000e-07	-3.271066e-06	-1.177126e-08	-2.275024e+01	-7.726123e+02
5.000000e-07	-3.185806e-06	-1.167104e-08	-2.215726e+01	-7.655946e+02
5.100000e-07	-3.099602e-06	-1.155898e-08	-2.155771e+01	-7.584836e+02
5.200000e-07	-3.012409e-06	-1.145113e-08	-2.095129e+01	-7.513189e+02
5.300000e-07	-2.924268e-06	-1.134358e-08	-2.033826e+01	-7.440787e+02
5.400000e-07	-2.835185e-06	-1.123485e-08	-1.971869e+01	-7.366849e+02
5.500000e-07	-2.745053e-06	-1.111311e-08	-1.909182e+01	-7.290323e+02
5.600000e-07	-2.653720e-06	-1.098193e-08	-1.845661e+01	-7.210309e+02
5.700000e-07	-2.561289e-06	-1.085409e-08	-1.781375e+01	-7.126430e+02
5.800000e-07	-2.468000e-06	-1.072910e-08	-1.716493e+01	-7.038979e+02
5.900000e-07	-2.373944e-06	-1.060286e-08	-1.651076e+01	-6.948782e+02
6.000000e-07	-2.279119e-06	-1.046358e-08	-1.585126e+01	-6.856813e+02
6.100000e-07	-2.183568e-06	-1.031801e-08	-1.518670e+01	-6.763725e+02
6.200000e-07	-2.087236e-06	-1.016843e-08	-1.451671e+01	-6.669506e+02
6.300000e-07	-1.990093e-06	-1.001432e-08	-1.384108e+01	-6.573400e+02
6.400000e-07	-1.892130e-06	-9.859781e-09	-1.315975e+01	-6.474161e+02
6.500000e-07	-1.793346e-06	-9.700685e-09	-1.247271e+01	-6.370529e+02
6.600000e-07	-1.693820e-06	-9.541599e-09	-1.178051e+01	-6.261733e+02
6.700000e-07	-1.593625e-06	-9.377284e-09	-1.108365e+01	-6.147795e+02
6.800000e-07	-1.492873e-06	-9.199540e-09	-1.038292e+01	-6.029507e+02
6.900000e-07	-1.391648e-06	-9.009851e-09	-9.678902e+00	-5.908040e+02
7.000000e-07	-1.289998e-06	-8.817657e-09	-8.971927e+00	-5.784376e+02
7.100000e-07	-1.187909e-06	-8.624953e-09	-8.261901e+00	-5.658774e+02
7.200000e-07	-1.085425e-06	-8.426485e-09	-7.549125e+00	-5.530520e+02
7.300000e-07	-9.826109e-07	-8.222218e-09	-6.834052e+00	-5.398095e+02
7.400000e-07	-8.795257e-07	-8.011193e-09	-6.117095e+00	-5.259694e+02
7.500000e-07	-7.761382e-07	-7.792662e-09	-5.398036e+00	-5.113912e+02
7.600000e-07	-6.724434e-07	-7.560060e-09	-4.676839e+00	-4.960274e+02
7.700000e-07	-5.685044e-07	-7.315388e-09	-3.953944e+00	-4.799382e+02
7.800000e-07	-4.643516e-07	-7.063415e-09	-3.229562e+00	-4.632565e+02
7.900000e-07	-3.600692e-07	-6.805759e-09	-2.504278e+00	-4.461157e+02
8.000000e-07	-2.556882e-07	-6.539650e-09	-1.778309e+00	-4.285691e+02
8.100000e-07	-1.511963e-07	-6.258470e-09	-1.051569e+00	-4.105353e+02
8.200000e-07	-4.660438e-08	-5.964986e-09	-3.241332e-01	-3.917979e+02
8.300000e-07	5.801809e-08	-5.661485e-09	4.035154e-01	-3.720626e+02
8.400000e-07	1.626158e-07	-5.344044e-09	1.130992e+00	-3.510524e+02
8.500000e-07	2.671368e-07	-5.006912e-09	1.857935e+00	-3.285997e+02
8.600000e-07	3.715770e-07	-4.649069e-09	2.584315e+00	-3.046897e+02
8.700000e-07	4.758919e-07	-4.267358e-09	3.309825e+00	-2.794258e+02
8.800000e-07	5.800126e-07	-3.860298e-09	4.033983e+00	-2.529162e+02
8.900000e-07	6.839044e-07	-3.428437e-09	4.756550e+00	-2.251155e+02
9.000000e-07	7.875838e-07	-2.968657e-09	5.477640e+00	-1.956822e+02
9.100000e-07	8.909926e-07	-2.474022e-09	6.196848e+00	-1.639159e+02
9.200000e-07	9.940662e-07	-1.934171e-09	6.913723e+00	-1.288217e+02
9.300000e-07	1.096848e-06	-1.333193e-09	7.628571e+00	-8.930936e+01
9.400000e-07	1.199253e-06	-6.549003e-10	8.340793e+00	-4.448569e+01
9.500000e-07	1.301220e-06	1.093459e-10	9.049979e+00	6.035064e+00
9.600000e-07	1.402781e-06	9.628842e-10	9.756332e+00	6.189796e+01
9.700000e-07	1.503898e-06	1.891311e-09	1.045960e+01	1.219284e+02
9.800000e-07	1.604585e-06	2.859323e-09	1.115988e+01	1.842452e+02
9.900000e-07	1.704717e-06	3.820118e-09	1.185630e+01	2.465469e+02
1.000000e-06	1.804107e-06	4.731190e-09	1.254755e+01	3.065028e+02
1.010000e-06	1.902700e-06	5.563592e-09	1.323326e+01	3.621474e+02
1.020000e-06	2.000515e-06	6.302756e-09	1.391357e+01	4.121782e+02
1.030000e-06	2.097546e-06	6.951509e-09	1.458842e+01	4.560875e+02
1.040000e-06	2.193769e-06	7.521096e-09	1.525765e+01	4.941074e+02
1.050000e-06	2.289241e-06	8.024440e-09	1.592166e+01	5.270033e+02
1.060000e-06	2.383993e-06	8.469073e-09	1.658066e+01	5.557886e+02
1.070000e-06	2.478036e-06	8.863944e-09	1.723472e+01	5.814475e+02
1.080000e-06	2.571334e-06	9.219233e-09	1.788361e+01	6.047409e+02
1.090000e-06	2.663775e-06	9.542601e-09	1.852654e+01	6.261313e+02
1.100000e-06	2.755121e-06	9.835082e-09	1.916185e+01	6.458218e+02
1.110000e-06	2.845288e-06	1.009924e-08	1.978896e+01	6.638687e+02
1.120000e-06	2.934376e-06	1.034246e-08	2.040857e+01	6.803104e+02
1.130000e-06	3.022450e-06	1.056797e-08	2.102112e+01	6.952601e+02
1.140000e-06	3.109565e-06	1.077742e-08	2.162700e+01	7.089336e+02
1.150000e-06	3.195665e-06	1.097328e-08	2.222583e+01	7.216135e+02
1.160000e-06	3.280754e-06	1.115905e-08	2.281762e+01	7.335757e+02
1.170000e-06	3.364765e-06	1.133446e-08	2.340192e+01	7.450158e+02
1.180000e-06	3.447574e-06	1.150022e-08	2.397786e+01	7.560093e+02
1.190000e-06	3.529149e-06	1.165582e-08	2.454521e+01	7.665190e+02
1.200000e-06	3.609360e-06	1.180149e-08	2.510307e+01	7.764456e+02
1.210000e-06	3.688237e-06	1.194002e-08	2.565166e+01	7.856957e+02
1.220000e-06	3.765806e-06	1.207222e-08	2.619116e+01	7.942397e+02
1.230000e-06	3.841983e-06	1.219531e-08	2.672096e+01	8.021366e+02
1.240000e-06	3.916581e-06	1.230926e-08	2.723979e+01	8.095179e+02
1.250000e-06	3.989590e-06	1.241904e-08	2.774757e+01	8.165423e+02
1.260000e-06	4.061209e-06	1.252603e-08	2.824568e+01	8.233406e+02
1.270000e-06	4.131500e-06	1.262757e-08	2.873455e+01	8.299762e+02
1.280000e-06	4.200466e-06	1.272205e-08	2.921421e+01	8.364359e+02
1.290000e-06	4.267947e-06	1.281086e-08	2.968354e+01	8.426526e+02
1.300000e-06	4.333732e-06	1.289618e-08	3.014107e+01	8.485475e+02
1.310000e-06	4.397892e-06	1.298015e-08	3.058731e+01	8.540742e+02
1.320000e-06	4.460603e-06	1.306300e-08	3.102346e+01	8.592437e+02
1.330000e-06	4.521929e-06	1.314157e-08	3.144999e+01	8.641233e+02
1.340000e-06	4.581775e-06	1.321585e-08	3.186622e+01	8.688091e+02
1.350000e-06	4.639862e-06	1.328906e-08	3.227021e+01	8.733872e+02
1.360000e-06	4.696198e-06	1.336083e-08	3.266202e+01	8.779000e+02
1.370000e-06	4.750870e-06	1.342693e-08	3.304227e+01	8.823312e+02
1.380000e-06	4.803707e-06	1.348676e-08	3.340975e+01	8.866164e+02
1.390000e-06	4.854532e-06	1.354363e-08	3.376324e+01	8.906721e+02
1.400000e-06	4.903391e-06	1.359984e-08	3.410305e+01	8.944317e+02
1.410000e-06	4.950498e-06	1.365407e-08	3.443068e+01	8.978721e+02
1.420000e-06	4.995957e-06	1.370347e-08	3.474685e+01	9.010221e+02
1.430000e-06	5.039726e-06	1.375071e-08	3.505126e+01	9.039479e+02
1.440000e-06	5.081620e-06	1.379692e-08	3.534263e+01	9.067258e+02
1.450000e-06	5.121655e-06	1.384256e-08	3.562107e+01	9.094123e+02
1.460000e-06	5.159999e-06	1.388457e-08	3.588776e+01	9.120244e+02
1.470000e-06	5.196700e-06	1.392026e-08	3.614301e+01	9.145378e+02
1.480000e-06	5.231494e-06	1.395250e-08	3.638500e+01	9.169024e+02
1.490000e-06	5.264307e-06	1.398409e-08	3.661322e+01	9.190665e+02
1.500000e-06	5.295363e-06	1.401544e-08	3.682921e+01	9.210004e+02
1.510000e-06	5.324685e-06	1.404459e-08	3.703315e+01	9.227081e+02
1.520000e-06	5.352116e-06	1.406956e-08	3.722393e+01	9.242245e+02
1.530000e-06	5.377433e-06	1.409294e-08	3.740001e+01	9.255996e+02
1.540000e-06	5.400769e-06	1.411744e-08	3.756231e+01	9.268780e+02
1.550000e-06	5.422373e-06	1.413870e-08	3.771256e+01	9.280824e+02
1.560000e-06	5.442261e-06	1.415507e-08	3.785089e+01	9.292074e+02
1.570000e-06	5.460189e-06	1.416962e-08	3.797557e+01	9.302261e+02
1.580000e-06	5.476067e-06	1.418393e-08	3.808601e+01	9.311039e+02
1.590000e-06	5.489905e-06	1.419588e-08	3.818225e+01	9.318143e+02
1.600000e-06	5.501554e-06	1.420511e-08	3.826327e+01	9.323492e+02
1.610000e-06	5.511024e-06	1.421432e-08	3.832913e+01	9.327197e+02
1.620000e-06	5.518518e-06	1.422414e-08	3.838125e+01	9.329494e+02
1.630000e-06	5.524227e-06	1.423210e-08	3.842096e+01	9.330630e+02
1.640000e-06	5.528060e-06	1.423502e-08	3.844762e+01	9.330770e+02
1.650000e-06	5.529840e-06	1.423492e-08	3.846000e+01	9.329966e+02
1.660000e-06	5.529695e-06	1.423164e-08	3.845899e+01	9.328178e+02
1.670000e-06	5.527844e-06	1.422311e-08	3.844612e+01	9.325344e+02
1.680000e-06	5.524274e-06	1.421972e-08	3.842129e+01	9.321433e+02
1.690000e-06	5.518722e-06	1.421451e-08	3.838267e+01	9.316470e+02
1.700000e-06	5.511339e-06	1.420732e-08	3.833133e+01	9.310495e+02
1.710000e-06	5.502393e-06	1.420138e-08	3.826910e+01	9.303505e+02
1.720000e-06	5.491631e-06	1.419918e-08	3.819426e+01	9.295404e+02
1.730000e-06	5.478740e-06	1.420649e-08	3.810460e+01	9.286010e+02
1.740000e-06	5.463871e-06	1.412778e-08	3.800118e+01	9.275120e+02
1.750000e-06	5.446974e-06	1.404519e-08	3.788367e+01	9.262623e+02
1.760000e-06	5.427403e-06	1.407012e-08	3.774755e+01	9.248595e+02
1.770000e-06	5.405131e-06	1.407095e-08	3.759265e+01	9.233336e+02
1.780000e-06	5.381012e-06	1.414621e-08	3.742490e+01	9.217303e+02
1.790000e-06	5.356052e-06	1.410362e-08	3.725130e+01	9.200950e+02
1.800000e-06	5.330218e-06	1.390884e-08	3.707163e+01	9.184550e+02
1.810000e-06	5.302239e-06	1.404454e-08	3.687704e+01	9.168043e+02
1.820000e-06	5.271989e-06	1.400181e-08	3.666665e+01	9.151016e+02
1.830000e-06	5.240258e-06	1.384847e-08	3.644596e+01	9.132806e+02
1.840000e-06	5.206704e-06	1.403115e-08	3.621259e+01	9.112715e+02
1.850000e-06	5.171337e-06	1.390010e-08	3.596661e+01	9.090255e+02
1.860000e-06	5.134148e-06	1.381268e-08	3.570796e+01	9.065320e+02
1.870000e-06	5.094878e-06	1.393959e-08	3.543484e+01	9.038214e+02
1.880000e-06	5.053995e-06	1.371863e-08	3.515050e+01	9.009530e+02
1.890000e-06	5.011394e-06	1.370751e-08	3.485421e+01	8.979907e+02
1.900000e-06	4.966813e-06	1.368878e-08	3.454415e+01	8.949786e+02
1.910000e-06	4.920513e-06	1.354507e-08	3.422213e+01	8.919244e+02
1.920000e-06	4.872403e-06	1.367313e-08	3.388753e+01	8.887991e+02
1.930000e-06	4.822503e-06	1.351840e-08	3.354048e+01	8.855526e+02
1.940000e-06	4.770730e-06	1.346164e-08	3.318039e+01	8.821371e+02
1.950000e-06	4.716849e-06	1.347536e-08	3.280565e+01	8.785300e+02
1.960000e-06	4.661254e-06	1.331340e-08	3.241899e+01	8.747443e+02
1.970000e-06	4.603986e-06	1.330716e-08	3.202069e+01	8.708226e+02
1.980000e-06	4.545154e-06	1.317638e-08	3.161151e+01	8.668169e+02
1.990000e-06	4.484727e-06	1.317854e-08	3.119125e+01	8.627627e+02
2.000000e-06	4.422506e-06	1.315516e-08	3.075850e+01	8.586598e+02
2.010000e-06	4.358740e-06	1.304159e-08	3.031500e+01	8.544679e+02
2.020000e-06	4.293426e-06	1.304976e-08	2.986075e+01	8.501210e+02
2.030000e-06	4.226701e-06	1.287833e-08	2.939668e+01	8.455535e+02
2.040000e-06	4.158418e-06	1.283845e-08	2.892177e+01	8.407286e+02
2.050000e-06	4.088356e-06	1.275213e-08	2.843449e+01	8.356548e+02
2.060000e-06	4.016839e-06	1.263961e-08	2.793709e+01	8.303836e+02
2.070000e-06	3.943980e-06	1.262001e-08	2.743036e+01	8.249884e+02
2.080000e-06	3.869719e-06	1.250495e-08	2.691387e+01	8.195320e+02
2.090000e-06	3.793830e-06	1.248199e-08	2.638606e+01	8.140382e+02
2.100000e-06	3.716307e-06	1.235381e-08	2.584689e+01	8.084784e+02
2.110000e-06	3.637388e-06	1.225000e-08	2.529801e+01	8.027803e+02
2.120000e-06	3.557228e-06	1.216061e-08	2.474049e+01	7.968569e+02
2.130000e-06	3.475928e-06	1.205185e-08	2.417506e+01	7.906413e+02
2.140000e-06	3.393459e-06	1.199410e-08	2.360149e+01	7.841159e+02
2.150000e-06	3.309837e-06	1.186542e-08	2.301989e+01	7.773194e+02
2.160000e-06	3.224902e-06	1.178358e-08	2.242917e+01	7.703306e+02
2.170000e-06	3.138613e-06	1.166184e-08	2.182903e+01	7.632336e+02
2.180000e-06	3.051229e-06	1.155004e-08	2.122128e+01	7.560792e+02
2.190000e-06	2.962877e-06	1.143825e-08	2.060679e+01	7.488594e+02
2.200000e-06	2.873593e-06	1.131434e-08	1.998582e+01	7.415063e+02
2.210000e-06	2.783364e-06	1.121344e-08	1.935828e+01	7.339171e+02
2.220000e-06	2.692192e-06	1.108798e-08	1.872418e+01	7.259950e+02
2.230000e-06	2.600101e-06	1.096839e-08	1.808369e+01	7.176889e+02
2.240000e-06	2.507031e-06	1.082031e-08	1.743638e+01	7.090140e+02
2.250000e-06	2.412897e-06	1.068561e-08	1.678168e+01	7.000440e+02
2.260000e-06	2.317862e-06	1.054926e-08	1.612072e+01	6.908769e+02
2.270000e-06	2.222101e-06	1.041566e-08	1.545470e+01	6.815889e+02
2.280000e-06	2.125551e-06	1.027589e-08	1.478319e+01	6.721944e+02
2.290000e-06	2.028301e-06	1.012560e-08	1.410682e+01	6.626329e+02
2.300000e-06	1.930431e-06	9.977319e-09	1.342614e+01	6.527867e+02
2.310000e-06	1.831993e-06	9.813532e-09	1.274150e+01	6.425258e+02
2.320000e-06	1.733016e-06	9.645389e-09	1.205311e+01	6.317587e+02
2.330000e-06	1.633454e-06	9.463983e-09	1.136066e+01	6.204699e+02
2.340000e-06	1.533241e-06	9.293950e-09	1.066368e+01	6.087241e+02
2.350000e-06	1.432396e-06	9.119800e-09	9.962306e+00	5.966349e+02
2.360000e-06	1.330994e-06	8.934172e-09	9.257055e+00	5.843096e+02
2.370000e-06	1.228979e-06	8.741420e-09	8.547542e+00	5.717928e+02
2.380000e-06	1.126411e-06	8.543233e-09	7.834178e+00	5.590341e+02
2.390000e-06	1.023430e-06	8.341411e-09	7.117947e+00	5.458954e+02
2.400000e-06	9.201118e-07	8.123525e-09	6.399371e+00	5.321967e+02
2.410000e-06	8.164947e-07	7.897306e-09	5.678715e+00	5.177836e+02
2.420000e-06	7.125862e-07	7.667135e-09	4.956032e+00	5.025858e+02
2.430000e-06	6.084496e-07	7.431906e-09	4.231763e+00	4.866416e+02
2.440000e-06	5.041458e-07	7.185859e-09	3.506330e+00	4.700736e+02
2.450000e-06	3.996691e-07	6.928358e-09	2.779696e+00	4.530221e+02
2.460000e-06	2.950600e-07	6.658965e-09	2.052140e+00	4.355634e+02
2.470000e-06	1.903663e-07	6.381446e-09	1.323996e+00	4.176474e+02
2.480000e-06	8.560625e-08	6.092773e-09	5.953908e-01	3.990834e+02
2.490000e-06	-1.916591e-08	5.788458e-09	-1.332988e-01	3.795866e+02
2.500000e-06	-1.239518e-07	5.468475e-09	-8.620839e-01	3.588678e+02
2.510000e-06	-2.286645e-07	5.131640e-09	-1.590360e+00	3.367300e+02
2.520000e-06	-3.332294e-07	4.779669e-09	-2.317608e+00	3.131255e+02
2.530000e-06	-4.377056e-07	4.410235e-09	-3.044240e+00	2.881398e+02
2.540000e-06	-5.419914e-07	4.019267e-09	-3.769547e+00	2.618923e+02
2.550000e-06	-6.460243e-07	3.599212e-09	-4.493094e+00	2.343845e+02
2.560000e-06	-7.498482e-07	3.148244e-09	-5.215189e+00	2.053471e+02
2.570000e-06	-8.534014e-07	2.663878e-09	-5.935401e+00	1.741558e+02
2.580000e-06	-9.566269e-07	2.136129e-09	-6.653333e+00	1.398665e+02
2.590000e-06	-1.059553e-06	1.553020e-09	-7.369182e+00	1.013869e+02
2.600000e-06	-1.162105e-06	9.019636e-10	-8.082433e+00	5.775470e+01
2.610000e-06	-1.264156e-06	1.722624e-10	-8.792196e+00	8.451755e+00
2.620000e-06	-1.365622e-06	-6.456076e-10	-9.497888e+00	-4.633853e+01
2.630000e-06	-1.466460e-06	-1.548655e-09	-1.019922e+01	-1.056144e+02
2.640000e-06	-1.566744e-06	-2.509237e-09	-1.089670e+01	-1.676269e+02
2.650000e-06	-1.666493e-06	-3.479765e-09	-1.159045e+01	-2.301342e+02
2.660000e-06	-1.765663e-06	-4.414876e-09	-1.228017e+01	-2.907770e+02
2.670000e-06	-1.864174e-06	-5.282938e-09	-1.296532e+01	-3.474817e+02
2.680000e-06	-1.961998e-06	-6.063569e-09	-1.364568e+01	-3.987865e+02
2.690000e-06	-2.059205e-06	-6.750727e-09	-1.432176e+01	-4.440116e+02
2.700000e-06	-2.155755e-06	-7.352218e-09	-1.499326e+01	-4.832439e+02
2.710000e-06	-2.251635e-06	-7.880411e-09	-1.566011e+01	-5.171573e+02
2.720000e-06	-2.346877e-06	-8.346375e-09	-1.632251e+01	-5.467367e+02
2.730000e-06	-2.441341e-06	-8.760137e-09	-1.697951e+01	-5.729926e+02
2.740000e-06	-2.534843e-06	-9.128975e-09	-1.762981e+01	-5.967445e+02
2.750000e-06	-2.627299e-06	-9.459167e-09	-1.827285e+01	-6.185190e+02
2.760000e-06	-2.718691e-06	-9.758701e-09	-1.890848e+01	-6.385668e+02
2.770000e-06	-2.809058e-06	-1.003398e-08	-1.953698e+01	-6.569646e+02
2.780000e-06	-2.898433e-06	-1.028920e-08	-2.015858e+01	-6.737450e+02
2.790000e-06	-2.986782e-06	-1.052674e-08	-2.077305e+01	-6.890003e+02
2.800000e-06	-3.074161e-06	-1.074619e-08	-2.138077e+01	-7.029256e+02
2.810000e-06	-3.160539e-06	-1.094986e-08	-2.198153e+01	-7.157945e+02
2.820000e-06	-3.245686e-06	-1.114005e-08	-2.257373e+01	-7.278912e+02
2.830000e-06	-3.329560e-06	-1.131797e-08	-2.315707e+01	-7.394333e+02
2.840000e-06	-3.412253e-06	-1.148435e-08	-2.373219e+01	-7.505231e+02
2.850000e-06	-3.493827e-06	-1.164129e-08	-2.429954e+01	-7.611446e+02
2.860000e-06	-3.574283e-06	-1.179130e-08	-2.485911e+01	-7.712060e+02
2.870000e-06	-3.653539e-06	-1.193262e-08	-2.541034e+01	-7.806071e+02
2.880000e-06	-3.731373e-06	-1.206391e-08	-2.595167e+01	-7.893013e+02
2.890000e-06	-3.807593e-06	-1.218695e-08	-2.648178e+01	-7.973285e+02
2.900000e-06	-3.882279e-06	-1.230507e-08	-2.700122e+01	-8.048078e+02
2.910000e-06	-3.955564e-06	-1.241798e-08	-2.751092e+01	-8.118968e+02
2.920000e-06	-4.027515e-06	-1.252287e-08	-2.801134e+01	-8.187362e+02
2.930000e-06	-4.098088e-06	-1.262153e-08	-2.850217e+01	-8.254061e+02
2.940000e-06	-4.167107e-06	-1.271821e-08	-2.898220e+01	-8.319087e+02
