# Temperatura_=_58.39
# Concentracion g/m^3_=_13400.0
# C_Vs_to_Am_M_A/Vsm_=_65563218390.804596
# pendiente_HvsI_1/m_=_3716.3
# ordenada_HvsI_A/m_=_1297.0
# frecuencia_Hz_=_300798.3019790097

Tiempo_(s)	Campo_(V.s)	Magnetizacion_(V.s)	Campo_(kA/m)	Magnetizacion_(A/m)
0.000000e+00	-5.494568e-06	-1.439685e-08	-3.831097e+01	-9.454451e+02
1.000000e-08	-5.492427e-06	-1.439367e-08	-3.829604e+01	-9.450829e+02
2.000000e-08	-5.488292e-06	-1.438569e-08	-3.826721e+01	-9.446218e+02
3.000000e-08	-5.482448e-06	-1.438032e-08	-3.822646e+01	-9.440944e+02
4.000000e-08	-5.475026e-06	-1.437377e-08	-3.817471e+01	-9.435212e+02
5.000000e-08	-5.465945e-06	-1.436125e-08	-3.811139e+01	-9.428968e+02
6.000000e-08	-5.454858e-06	-1.434271e-08	-3.803409e+01	-9.421848e+02
7.000000e-08	-5.441711e-06	-1.430985e-08	-3.794242e+01	-9.413285e+02
8.000000e-08	-5.426545e-06	-1.430547e-08	-3.783668e+01	-9.402721e+02
9.000000e-08	-5.408925e-06	-1.436673e-08	-3.771382e+01	-9.389858e+02
1.000000e-07	-5.389008e-06	-1.434297e-08	-3.757495e+01	-9.374840e+02
1.100000e-07	-5.367177e-06	-1.427310e-08	-3.742273e+01	-9.358267e+02
1.200000e-07	-5.343593e-06	-1.424230e-08	-3.725829e+01	-9.341021e+02
1.300000e-07	-5.318645e-06	-1.411363e-08	-3.708434e+01	-9.323944e+02
1.400000e-07	-5.292136e-06	-1.414433e-08	-3.689951e+01	-9.307505e+02
1.500000e-07	-5.263655e-06	-1.423312e-08	-3.670093e+01	-9.291577e+02
1.600000e-07	-5.233519e-06	-1.403028e-08	-3.649080e+01	-9.275431e+02
1.700000e-07	-5.201873e-06	-1.408927e-08	-3.627014e+01	-9.257965e+02
1.800000e-07	-5.168229e-06	-1.416783e-08	-3.603557e+01	-9.238081e+02
1.900000e-07	-5.132566e-06	-1.397729e-08	-3.578690e+01	-9.215074e+02
2.000000e-07	-5.095373e-06	-1.402314e-08	-3.552757e+01	-9.188875e+02
2.100000e-07	-5.056486e-06	-1.394517e-08	-3.525644e+01	-9.160043e+02
2.200000e-07	-5.015786e-06	-1.380502e-08	-3.497265e+01	-9.129521e+02
2.300000e-07	-4.973126e-06	-1.387694e-08	-3.467520e+01	-9.098243e+02
2.400000e-07	-4.928518e-06	-1.382110e-08	-3.436417e+01	-9.066759e+02
2.500000e-07	-4.882201e-06	-1.378315e-08	-3.404123e+01	-9.035040e+02
2.600000e-07	-4.834033e-06	-1.375349e-08	-3.370538e+01	-9.002525e+02
2.700000e-07	-4.783875e-06	-1.364234e-08	-3.335565e+01	-8.968412e+02
2.800000e-07	-4.731619e-06	-1.361620e-08	-3.299129e+01	-8.932038e+02
2.900000e-07	-4.677432e-06	-1.353565e-08	-3.261347e+01	-8.893200e+02
3.000000e-07	-4.621597e-06	-1.345579e-08	-3.222416e+01	-8.852267e+02
3.100000e-07	-4.564127e-06	-1.340614e-08	-3.182345e+01	-8.810021e+02
3.200000e-07	-4.504819e-06	-1.337971e-08	-3.140992e+01	-8.767306e+02
3.300000e-07	-4.443870e-06	-1.334351e-08	-3.098496e+01	-8.724624e+02
3.400000e-07	-4.381518e-06	-1.322869e-08	-3.055021e+01	-8.681866e+02
3.500000e-07	-4.317702e-06	-1.317052e-08	-3.010525e+01	-8.638310e+02
3.600000e-07	-4.252392e-06	-1.307971e-08	-2.964988e+01	-8.592882e+02
3.700000e-07	-4.185398e-06	-1.300076e-08	-2.918276e+01	-8.544604e+02
3.800000e-07	-4.116709e-06	-1.295802e-08	-2.870382e+01	-8.493011e+02
3.900000e-07	-4.046575e-06	-1.285524e-08	-2.821482e+01	-8.438383e+02
4.000000e-07	-3.975134e-06	-1.278467e-08	-2.771669e+01	-8.381655e+02
4.100000e-07	-3.902433e-06	-1.270433e-08	-2.720978e+01	-8.324045e+02
4.200000e-07	-3.828286e-06	-1.261804e-08	-2.669279e+01	-8.266545e+02
4.300000e-07	-3.752383e-06	-1.251729e-08	-2.616355e+01	-8.209474e+02
4.400000e-07	-3.674854e-06	-1.241778e-08	-2.562298e+01	-8.152309e+02
4.500000e-07	-3.595962e-06	-1.234830e-08	-2.507291e+01	-8.093856e+02
4.600000e-07	-3.515519e-06	-1.225787e-08	-2.451201e+01	-8.032708e+02
4.700000e-07	-3.433644e-06	-1.216161e-08	-2.394114e+01	-7.967815e+02
4.800000e-07	-3.350617e-06	-1.204394e-08	-2.336224e+01	-7.898907e+02
4.900000e-07	-3.266504e-06	-1.193164e-08	-2.277575e+01	-7.826609e+02
5.000000e-07	-3.181481e-06	-1.183048e-08	-2.218293e+01	-7.752179e+02
5.100000e-07	-3.095547e-06	-1.171493e-08	-2.158375e+01	-7.676968e+02
5.200000e-07	-3.008626e-06	-1.160005e-08	-2.097769e+01	-7.601836e+02
5.300000e-07	-2.920713e-06	-1.148345e-08	-2.036472e+01	-7.526755e+02
5.400000e-07	-2.831934e-06	-1.137224e-08	-1.974571e+01	-7.450786e+02
5.500000e-07	-2.742189e-06	-1.125420e-08	-1.911996e+01	-7.372440e+02
5.600000e-07	-2.651104e-06	-1.112096e-08	-1.848487e+01	-7.290283e+02
5.700000e-07	-2.558878e-06	-1.098253e-08	-1.784182e+01	-7.203526e+02
5.800000e-07	-2.465882e-06	-1.084606e-08	-1.719340e+01	-7.112358e+02
5.900000e-07	-2.372094e-06	-1.071531e-08	-1.653947e+01	-7.017859e+02
6.000000e-07	-2.277496e-06	-1.057296e-08	-1.587988e+01	-6.921530e+02
6.100000e-07	-2.182105e-06	-1.042070e-08	-1.521476e+01	-6.824624e+02
6.200000e-07	-2.085959e-06	-1.026574e-08	-1.454439e+01	-6.727564e+02
6.300000e-07	-1.989159e-06	-1.011273e-08	-1.386945e+01	-6.629695e+02
6.400000e-07	-1.891674e-06	-9.960122e-09	-1.318973e+01	-6.529482e+02
6.500000e-07	-1.793363e-06	-9.795594e-09	-1.250425e+01	-6.425097e+02
6.600000e-07	-1.694119e-06	-9.626066e-09	-1.181227e+01	-6.315124e+02
6.700000e-07	-1.594099e-06	-9.455255e-09	-1.111488e+01	-6.199118e+02
6.800000e-07	-1.493613e-06	-9.277675e-09	-1.041424e+01	-6.077742e+02
6.900000e-07	-1.392741e-06	-9.086602e-09	-9.710908e+00	-5.952432e+02
7.000000e-07	-1.291394e-06	-8.888547e-09	-9.004267e+00	-5.824717e+02
7.100000e-07	-1.189565e-06	-8.689315e-09	-8.294262e+00	-5.695474e+02
7.200000e-07	-1.087367e-06	-8.486882e-09	-7.581684e+00	-5.564448e+02
7.300000e-07	-9.848092e-07	-8.280879e-09	-6.866599e+00	-5.430245e+02
7.400000e-07	-8.818801e-07	-8.066199e-09	-6.148924e+00	-5.290823e+02
7.500000e-07	-7.786496e-07	-7.844038e-09	-5.429147e+00	-5.144268e+02
7.600000e-07	-6.751449e-07	-7.612384e-09	-4.707459e+00	-4.989533e+02
7.700000e-07	-5.713945e-07	-7.370166e-09	-3.984057e+00	-4.826791e+02
7.800000e-07	-4.674616e-07	-7.114154e-09	-3.259384e+00	-4.657240e+02
7.900000e-07	-3.634074e-07	-6.847933e-09	-2.533864e+00	-4.482402e+02
8.000000e-07	-2.592384e-07	-6.575989e-09	-1.807544e+00	-4.303227e+02
8.100000e-07	-1.549829e-07	-6.291772e-09	-1.080621e+00	-4.119365e+02
8.200000e-07	-5.067849e-08	-5.993536e-09	-3.533566e-01	-3.928979e+02
8.300000e-07	5.361527e-08	-5.682231e-09	3.738334e-01	-3.729201e+02
8.400000e-07	1.578660e-07	-5.359462e-09	1.100724e+00	-3.517064e+02
8.500000e-07	2.620768e-07	-5.020760e-09	1.827335e+00	-3.290509e+02
8.600000e-07	3.661860e-07	-4.661516e-09	2.553238e+00	-3.048961e+02
8.700000e-07	4.701816e-07	-4.276381e-09	3.278349e+00	-2.793106e+02
8.800000e-07	5.740606e-07	-3.863464e-09	4.002647e+00	-2.523821e+02
8.900000e-07	6.778068e-07	-3.424607e-09	4.726019e+00	-2.240571e+02
9.000000e-07	7.813288e-07	-2.954623e-09	5.447828e+00	-1.939894e+02
9.100000e-07	8.845495e-07	-2.444059e-09	6.167536e+00	-1.614683e+02
9.200000e-07	9.874416e-07	-1.884453e-09	6.884953e+00	-1.254795e+02
9.300000e-07	1.089938e-06	-1.265722e-09	7.599614e+00	-8.490858e+01
9.400000e-07	1.192082e-06	-5.727031e-10	8.311808e+00	-3.884836e+01
9.500000e-07	1.293865e-06	2.085114e-10	9.021493e+00	1.307405e+01
9.600000e-07	1.395197e-06	1.082785e-09	9.728036e+00	7.045002e+01
9.700000e-07	1.496043e-06	2.035055e-09	1.043118e+01	1.320081e+02
9.800000e-07	1.596414e-06	3.026274e-09	1.113102e+01	1.957392e+02
9.900000e-07	1.696272e-06	4.005176e-09	1.182728e+01	2.592089e+02
1.000000e-06	1.795541e-06	4.929251e-09	1.251944e+01	3.199797e+02
1.010000e-06	1.894083e-06	5.769457e-09	1.320653e+01	3.760335e+02
1.020000e-06	1.991688e-06	6.508751e-09	1.388708e+01	4.260845e+02
1.030000e-06	2.088368e-06	7.149226e-09	1.456118e+01	4.697069e+02
1.040000e-06	2.184343e-06	7.708217e-09	1.523037e+01	5.072589e+02
1.050000e-06	2.279664e-06	8.203035e-09	1.589500e+01	5.396434e+02
1.060000e-06	2.374254e-06	8.640902e-09	1.655452e+01	5.679886e+02
1.070000e-06	2.468116e-06	9.032003e-09	1.720898e+01	5.933469e+02
1.080000e-06	2.561194e-06	9.386054e-09	1.785797e+01	6.164923e+02
1.090000e-06	2.653434e-06	9.709234e-09	1.850111e+01	6.378539e+02
1.100000e-06	2.744725e-06	1.000211e-08	1.913764e+01	6.575768e+02
1.110000e-06	2.834810e-06	1.026624e-08	1.976576e+01	6.756599e+02
1.120000e-06	2.923668e-06	1.050851e-08	2.038533e+01	6.921059e+02
1.130000e-06	3.011589e-06	1.073234e-08	2.099835e+01	7.070228e+02
1.140000e-06	3.098560e-06	1.094211e-08	2.160476e+01	7.206487e+02
1.150000e-06	3.184484e-06	1.114095e-08	2.220387e+01	7.333024e+02
1.160000e-06	3.269389e-06	1.132929e-08	2.279587e+01	7.452924e+02
1.170000e-06	3.353272e-06	1.150748e-08	2.338075e+01	7.568305e+02
1.180000e-06	3.435953e-06	1.167757e-08	2.395724e+01	7.679860e+02
1.190000e-06	3.517262e-06	1.183861e-08	2.452417e+01	7.786970e+02
1.200000e-06	3.597302e-06	1.198882e-08	2.508225e+01	7.888320e+02
1.210000e-06	3.676079e-06	1.212905e-08	2.563153e+01	7.982701e+02
1.220000e-06	3.753546e-06	1.226067e-08	2.617166e+01	8.069682e+02
1.230000e-06	3.829610e-06	1.238530e-08	2.670202e+01	8.149886e+02
1.240000e-06	3.904064e-06	1.250439e-08	2.722115e+01	8.224784e+02
1.250000e-06	3.976897e-06	1.261837e-08	2.772898e+01	8.296158e+02
1.260000e-06	4.048369e-06	1.272602e-08	2.822732e+01	8.365458e+02
1.270000e-06	4.118545e-06	1.282807e-08	2.871662e+01	8.433352e+02
1.280000e-06	4.187331e-06	1.292611e-08	2.919623e+01	8.499626e+02
1.290000e-06	4.254663e-06	1.302058e-08	2.966571e+01	8.563452e+02
1.300000e-06	4.320322e-06	1.311110e-08	3.012352e+01	8.623888e+02
1.310000e-06	4.384411e-06	1.319782e-08	3.057038e+01	8.680376e+02
1.320000e-06	4.447102e-06	1.328158e-08	3.100750e+01	8.733034e+02
1.330000e-06	4.508332e-06	1.336190e-08	3.143442e+01	8.782627e+02
1.340000e-06	4.568080e-06	1.343662e-08	3.185101e+01	8.830263e+02
1.350000e-06	4.626108e-06	1.350721e-08	3.225562e+01	8.876942e+02
1.360000e-06	4.682354e-06	1.357804e-08	3.264779e+01	8.923171e+02
1.370000e-06	4.736925e-06	1.364838e-08	3.302829e+01	8.968799e+02
1.380000e-06	4.789709e-06	1.371486e-08	3.339633e+01	9.013117e+02
1.390000e-06	4.840469e-06	1.377647e-08	3.375025e+01	9.055191e+02
1.400000e-06	4.889214e-06	1.383389e-08	3.409013e+01	9.094241e+02
1.410000e-06	4.936212e-06	1.388827e-08	3.441782e+01	9.129946e+02
1.420000e-06	4.981676e-06	1.393917e-08	3.473482e+01	9.162531e+02
1.430000e-06	5.025467e-06	1.398626e-08	3.504015e+01	9.192630e+02
1.440000e-06	5.067227e-06	1.403120e-08	3.533133e+01	9.221007e+02
1.450000e-06	5.107184e-06	1.407533e-08	3.560993e+01	9.248247e+02
1.460000e-06	5.145550e-06	1.411677e-08	3.587743e+01	9.274567e+02
1.470000e-06	5.182203e-06	1.415361e-08	3.613300e+01	9.299793e+02
1.480000e-06	5.216958e-06	1.418818e-08	3.637533e+01	9.323511e+02
1.490000e-06	5.249714e-06	1.422219e-08	3.660372e+01	9.345293e+02
1.500000e-06	5.280669e-06	1.425296e-08	3.681955e+01	9.364904e+02
1.510000e-06	5.309966e-06	1.427969e-08	3.702383e+01	9.382399e+02
1.520000e-06	5.337383e-06	1.430571e-08	3.721499e+01	9.398080e+02
1.530000e-06	5.362669e-06	1.433184e-08	3.739130e+01	9.412349e+02
1.540000e-06	5.386038e-06	1.435513e-08	3.755424e+01	9.425535e+02
1.550000e-06	5.407663e-06	1.437402e-08	3.770502e+01	9.437779e+02
1.560000e-06	5.427511e-06	1.439056e-08	3.784341e+01	9.449020e+02
1.570000e-06	5.445442e-06	1.440761e-08	3.796844e+01	9.459068e+02
1.580000e-06	5.461357e-06	1.442389e-08	3.807940e+01	9.467731e+02
1.590000e-06	5.475318e-06	1.443755e-08	3.817675e+01	9.474919e+02
1.600000e-06	5.487117e-06	1.445057e-08	3.825902e+01	9.480666e+02
1.610000e-06	5.496647e-06	1.446267e-08	3.832546e+01	9.485090e+02
1.620000e-06	5.504222e-06	1.447103e-08	3.837828e+01	9.488297e+02
1.630000e-06	5.510034e-06	1.447401e-08	3.841881e+01	9.490310e+02
1.640000e-06	5.514007e-06	1.447350e-08	3.844651e+01	9.491056e+02
1.650000e-06	5.515942e-06	1.447475e-08	3.846000e+01	9.490423e+02
1.660000e-06	5.515911e-06	1.447472e-08	3.845978e+01	9.488366e+02
1.670000e-06	5.514153e-06	1.446680e-08	3.844752e+01	9.484988e+02
1.680000e-06	5.510649e-06	1.446366e-08	3.842310e+01	9.480551e+02
1.690000e-06	5.505169e-06	1.446143e-08	3.838488e+01	9.475385e+02
1.700000e-06	5.497813e-06	1.445617e-08	3.833359e+01	9.469737e+02
1.710000e-06	5.488866e-06	1.444861e-08	3.827121e+01	9.463613e+02
1.720000e-06	5.478177e-06	1.444202e-08	3.819668e+01	9.456714e+02
1.730000e-06	5.465419e-06	1.445119e-08	3.810772e+01	9.448503e+02
1.740000e-06	5.450677e-06	1.437833e-08	3.800494e+01	9.438395e+02
1.750000e-06	5.433957e-06	1.428802e-08	3.788835e+01	9.426020e+02
1.760000e-06	5.414621e-06	1.431047e-08	3.775354e+01	9.411418e+02
1.770000e-06	5.392521e-06	1.430970e-08	3.759944e+01	9.395100e+02
1.780000e-06	5.368474e-06	1.438919e-08	3.743177e+01	9.377911e+02
1.790000e-06	5.343557e-06	1.435419e-08	3.725804e+01	9.360732e+02
1.800000e-06	5.317829e-06	1.414442e-08	3.707865e+01	9.344135e+02
1.810000e-06	5.290010e-06	1.430288e-08	3.688469e+01	9.328131e+02
1.820000e-06	5.259900e-06	1.427609e-08	3.667474e+01	9.312108e+02
1.830000e-06	5.228289e-06	1.408615e-08	3.645433e+01	9.295014e+02
1.840000e-06	5.194844e-06	1.427222e-08	3.622114e+01	9.275716e+02
1.850000e-06	5.159623e-06	1.414461e-08	3.597556e+01	9.253398e+02
1.860000e-06	5.122660e-06	1.404450e-08	3.571783e+01	9.227846e+02
1.870000e-06	5.083547e-06	1.420397e-08	3.544512e+01	9.199497e+02
1.880000e-06	5.042765e-06	1.398735e-08	3.516076e+01	9.169242e+02
1.890000e-06	5.000337e-06	1.397487e-08	3.486494e+01	9.138052e+02
1.900000e-06	4.956023e-06	1.395466e-08	3.455595e+01	9.106585e+02
1.910000e-06	4.910006e-06	1.376503e-08	3.423510e+01	9.074939e+02
1.920000e-06	4.862082e-06	1.390174e-08	3.390095e+01	9.042650e+02
1.930000e-06	4.812385e-06	1.375030e-08	3.355444e+01	9.008937e+02
1.940000e-06	4.760908e-06	1.368007e-08	3.319551e+01	8.973073e+02
1.950000e-06	4.707238e-06	1.372971e-08	3.282130e+01	8.934742e+02
1.960000e-06	4.651815e-06	1.355939e-08	3.243486e+01	8.894192e+02
1.970000e-06	4.594765e-06	1.354399e-08	3.203708e+01	8.852143e+02
1.980000e-06	4.536127e-06	1.340621e-08	3.162822e+01	8.809460e+02
1.990000e-06	4.475923e-06	1.338312e-08	3.120845e+01	8.766747e+02
2.000000e-06	4.413904e-06	1.336114e-08	3.077602e+01	8.724038e+02
2.010000e-06	4.350338e-06	1.323973e-08	3.033281e+01	8.680728e+02
2.020000e-06	4.285259e-06	1.326133e-08	2.987904e+01	8.635784e+02
2.030000e-06	4.218773e-06	1.309091e-08	2.941547e+01	8.588169e+02
2.040000e-06	4.150797e-06	1.304674e-08	2.894150e+01	8.537280e+02
2.050000e-06	4.081023e-06	1.296299e-08	2.845500e+01	8.483232e+02
2.060000e-06	4.009748e-06	1.282696e-08	2.795803e+01	8.426844e+02
2.070000e-06	3.937163e-06	1.280682e-08	2.745193e+01	8.369315e+02
2.080000e-06	3.863250e-06	1.267680e-08	2.693658e+01	8.311727e+02
2.090000e-06	3.787714e-06	1.264790e-08	2.640990e+01	8.254570e+02
2.100000e-06	3.710413e-06	1.252463e-08	2.587092e+01	8.197499e+02
2.110000e-06	3.631690e-06	1.241763e-08	2.532202e+01	8.139432e+02
2.120000e-06	3.551793e-06	1.233768e-08	2.476494e+01	8.078961e+02
2.130000e-06	3.470771e-06	1.221480e-08	2.420001e+01	8.014915e+02
2.140000e-06	3.388559e-06	1.214968e-08	2.362678e+01	7.946834e+02
2.150000e-06	3.305261e-06	1.201289e-08	2.304599e+01	7.875162e+02
2.160000e-06	3.220702e-06	1.192458e-08	2.245640e+01	7.801059e+02
2.170000e-06	3.134699e-06	1.180254e-08	2.185674e+01	7.725909e+02
2.180000e-06	3.047548e-06	1.168370e-08	2.124908e+01	7.650720e+02
2.190000e-06	2.959479e-06	1.157022e-08	2.063501e+01	7.575669e+02
2.200000e-06	2.870471e-06	1.143710e-08	2.001441e+01	7.499996e+02
2.210000e-06	2.780471e-06	1.133126e-08	1.938688e+01	7.422282e+02
2.220000e-06	2.689595e-06	1.120231e-08	1.875325e+01	7.341028e+02
2.230000e-06	2.597825e-06	1.108210e-08	1.811338e+01	7.255266e+02
2.240000e-06	2.505048e-06	1.093201e-08	1.746649e+01	7.164969e+02
2.250000e-06	2.411180e-06	1.078920e-08	1.681199e+01	7.071052e+02
2.260000e-06	2.316351e-06	1.064414e-08	1.615079e+01	6.974981e+02
2.270000e-06	2.220842e-06	1.050359e-08	1.548486e+01	6.878119e+02
2.280000e-06	2.124617e-06	1.036040e-08	1.481393e+01	6.781101e+02
2.290000e-06	2.027658e-06	1.020412e-08	1.413788e+01	6.683502e+02
2.300000e-06	1.930012e-06	1.005413e-08	1.345704e+01	6.583937e+02
2.310000e-06	1.831747e-06	9.892181e-09	1.277189e+01	6.480580e+02
2.320000e-06	1.732974e-06	9.728464e-09	1.208319e+01	6.371871e+02
2.330000e-06	1.633735e-06	9.546778e-09	1.139125e+01	6.257128e+02
2.340000e-06	1.534023e-06	9.370010e-09	1.069600e+01	6.136790e+02
2.350000e-06	1.433692e-06	9.186368e-09	9.996440e+00	6.012176e+02
2.360000e-06	1.332624e-06	8.992394e-09	9.291740e+00	5.884861e+02
2.370000e-06	1.230873e-06	8.794642e-09	8.582280e+00	5.755915e+02
2.380000e-06	1.128578e-06	8.592601e-09	7.869031e+00	5.625344e+02
2.390000e-06	1.025864e-06	8.391128e-09	7.152855e+00	5.491973e+02
2.400000e-06	9.227931e-07	8.174392e-09	6.434190e+00	5.353838e+02
2.410000e-06	8.193691e-07	7.948310e-09	5.713065e+00	5.208929e+02
2.420000e-06	7.156898e-07	7.714084e-09	4.990159e+00	5.055965e+02
2.430000e-06	6.118214e-07	7.472467e-09	4.265935e+00	4.894856e+02
2.440000e-06	5.077554e-07	7.222587e-09	3.540333e+00	4.726623e+02
2.450000e-06	4.035410e-07	6.962458e-09	2.813697e+00	4.552796e+02
2.460000e-06	2.992128e-07	6.689308e-09	2.086267e+00	4.374519e+02
2.470000e-06	1.947879e-07	6.407165e-09	1.358162e+00	4.191759e+02
2.480000e-06	9.031835e-08	6.115421e-09	6.297462e-01	4.002980e+02
2.490000e-06	-1.418912e-08	5.808725e-09	-9.893389e-02	3.805467e+02
2.500000e-06	-1.187088e-07	5.484950e-09	-8.276990e-01	3.596186e+02
2.510000e-06	-2.231803e-07	5.142467e-09	-1.556129e+00	3.372813e+02
2.520000e-06	-3.275734e-07	4.784774e-09	-2.284011e+00	3.134443e+02
2.530000e-06	-4.318138e-07	4.409761e-09	-3.010829e+00	2.881554e+02
2.540000e-06	-5.359185e-07	4.012573e-09	-3.736701e+00	2.615108e+02
2.550000e-06	-6.398671e-07	3.587374e-09	-4.461484e+00	2.335015e+02
2.560000e-06	-7.435603e-07	3.131671e-09	-5.184487e+00	2.038536e+02
2.570000e-06	-8.469491e-07	2.639289e-09	-5.905367e+00	1.719345e+02
2.580000e-06	-9.499591e-07	2.097802e-09	-6.623606e+00	1.367824e+02
2.590000e-06	-1.052626e-06	1.496692e-09	-7.339453e+00	9.728102e+01
2.600000e-06	-1.154905e-06	8.251918e-10	-8.052594e+00	5.245035e+01
2.610000e-06	-1.256687e-06	7.258222e-11	-8.762269e+00	1.777961e+00
2.620000e-06	-1.357945e-06	-7.683112e-10	-9.468292e+00	-5.450846e+01
2.630000e-06	-1.458615e-06	-1.692022e-09	-1.017022e+01	-1.153190e+02
2.640000e-06	-1.558658e-06	-2.672063e-09	-1.086777e+01	-1.787818e+02
2.650000e-06	-1.658014e-06	-3.660632e-09	-1.156053e+01	-2.425204e+02
2.660000e-06	-1.756764e-06	-4.610029e-09	-1.224907e+01	-3.040605e+02
2.670000e-06	-1.855037e-06	-5.486753e-09	-1.293427e+01	-3.612626e+02
2.680000e-06	-1.952755e-06	-6.271458e-09	-1.361562e+01	-4.126661e+02
2.690000e-06	-2.049785e-06	-6.959096e-09	-1.429216e+01	-4.576608e+02
2.700000e-06	-2.146128e-06	-7.556164e-09	-1.496392e+01	-4.964525e+02
2.710000e-06	-2.241813e-06	-8.076512e-09	-1.563108e+01	-5.298530e+02
2.720000e-06	-2.336833e-06	-8.533932e-09	-1.629361e+01	-5.589696e+02
2.730000e-06	-2.431136e-06	-8.939296e-09	-1.695114e+01	-5.848922e+02
2.740000e-06	-2.524579e-06	-9.301884e-09	-1.760267e+01	-6.084651e+02
2.750000e-06	-2.616910e-06	-9.631472e-09	-1.824645e+01	-6.301898e+02
2.760000e-06	-2.708052e-06	-9.936819e-09	-1.888194e+01	-6.502622e+02
2.770000e-06	-2.798214e-06	-1.021891e-08	-1.951059e+01	-6.686996e+02
2.780000e-06	-2.887387e-06	-1.047516e-08	-2.013235e+01	-6.854928e+02
2.790000e-06	-2.975567e-06	-1.070832e-08	-2.074719e+01	-7.007224e+02
2.800000e-06	-3.062809e-06	-1.092309e-08	-2.135549e+01	-7.146006e+02
2.810000e-06	-3.149070e-06	-1.112388e-08	-2.195694e+01	-7.274357e+02
2.820000e-06	-3.234125e-06	-1.131270e-08	-2.254999e+01	-7.395467e+02
2.830000e-06	-3.317766e-06	-1.148901e-08	-2.313318e+01	-7.511717e+02
2.840000e-06	-3.400243e-06	-1.165624e-08	-2.370825e+01	-7.624115e+02
2.850000e-06	-3.481653e-06	-1.181867e-08	-2.427588e+01	-7.732286e+02
2.860000e-06	-3.561892e-06	-1.197536e-08	-2.483535e+01	-7.834998e+02
2.870000e-06	-3.640933e-06	-1.211972e-08	-2.538646e+01	-7.930951e+02
2.880000e-06	-3.718621e-06	-1.225102e-08	-2.592815e+01	-8.019512e+02
2.890000e-06	-3.794713e-06	-1.237478e-08	-2.645870e+01	-8.101076e+02
2.900000e-06	-3.869286e-06	-1.249432e-08	-2.697866e+01	-8.176971e+02
2.910000e-06	-3.942496e-06	-1.260671e-08	-2.748912e+01	-8.248967e+02
2.920000e-06	-4.014372e-06	-1.271051e-08	-2.799028e+01	-8.318633e+02
2.930000e-06	-4.084973e-06	-1.281271e-08	-2.848254e+01	-8.386828e+02
2.940000e-06	-4.154027e-06	-1.291665e-08	-2.896402e+01	-8.453514e+02
