# Temperatura_=_44.58
# Concentracion g/m^3_=_13400.0
# C_Vs_to_Am_M_A/Vsm_=_65563218390.804596
# pendiente_HvsI_1/m_=_3716.3
# ordenada_HvsI_A/m_=_1297.0
# frecuencia_Hz_=_300800.16034748085

Tiempo_(s)	Campo_(V.s)	Magnetizacion_(V.s)	Campo_(kA/m)	Magnetizacion_(A/m)
0.000000e+00	-5.503766e-06	-1.404637e-08	-3.831037e+01	-9.210687e+02
1.000000e-08	-5.501701e-06	-1.404110e-08	-3.829600e+01	-9.208214e+02
2.000000e-08	-5.497676e-06	-1.402911e-08	-3.826798e+01	-9.204286e+02
3.000000e-08	-5.491945e-06	-1.402111e-08	-3.822809e+01	-9.199092e+02
4.000000e-08	-5.484592e-06	-1.401611e-08	-3.817691e+01	-9.192932e+02
5.000000e-08	-5.475527e-06	-1.400810e-08	-3.811381e+01	-9.186055e+02
6.000000e-08	-5.464421e-06	-1.399198e-08	-3.803650e+01	-9.178503e+02
7.000000e-08	-5.451257e-06	-1.396224e-08	-3.794487e+01	-9.170056e+02
8.000000e-08	-5.436081e-06	-1.396118e-08	-3.783924e+01	-9.160320e+02
9.000000e-08	-5.418502e-06	-1.400246e-08	-3.771687e+01	-9.148919e+02
1.000000e-07	-5.398607e-06	-1.397475e-08	-3.757839e+01	-9.135711e+02
1.100000e-07	-5.376768e-06	-1.392045e-08	-3.742637e+01	-9.120933e+02
1.200000e-07	-5.353200e-06	-1.388432e-08	-3.726232e+01	-9.105176e+02
1.300000e-07	-5.328227e-06	-1.378591e-08	-3.708849e+01	-9.089204e+02
1.400000e-07	-5.301676e-06	-1.382158e-08	-3.690367e+01	-9.073656e+02
1.500000e-07	-5.273210e-06	-1.385349e-08	-3.670553e+01	-9.058763e+02
1.600000e-07	-5.243081e-06	-1.370971e-08	-3.649581e+01	-9.044195e+02
1.700000e-07	-5.211398e-06	-1.376989e-08	-3.627527e+01	-9.029114e+02
1.800000e-07	-5.177757e-06	-1.378780e-08	-3.604111e+01	-9.012424e+02
1.900000e-07	-5.142127e-06	-1.365974e-08	-3.579310e+01	-8.993132e+02
2.000000e-07	-5.104897e-06	-1.369025e-08	-3.553395e+01	-8.970683e+02
2.100000e-07	-5.065946e-06	-1.360037e-08	-3.526282e+01	-8.945129e+02
2.200000e-07	-5.025230e-06	-1.351728e-08	-3.497940e+01	-8.917082e+02
2.300000e-07	-4.982598e-06	-1.356351e-08	-3.468265e+01	-8.887455e+02
2.400000e-07	-4.937961e-06	-1.349839e-08	-3.437194e+01	-8.857109e+02
2.500000e-07	-4.891615e-06	-1.346946e-08	-3.404934e+01	-8.826537e+02
2.600000e-07	-4.843433e-06	-1.341859e-08	-3.371395e+01	-8.795725e+02
2.700000e-07	-4.793227e-06	-1.332869e-08	-3.336448e+01	-8.764219e+02
2.800000e-07	-4.740940e-06	-1.331131e-08	-3.300053e+01	-8.731376e+02
2.900000e-07	-4.686708e-06	-1.324120e-08	-3.262303e+01	-8.696673e+02
3.000000e-07	-4.630846e-06	-1.317105e-08	-3.223419e+01	-8.659940e+02
3.100000e-07	-4.573295e-06	-1.312662e-08	-3.183359e+01	-8.621421e+02
3.200000e-07	-4.513878e-06	-1.310044e-08	-3.142000e+01	-8.581630e+02
3.300000e-07	-4.452841e-06	-1.304749e-08	-3.099514e+01	-8.541084e+02
3.400000e-07	-4.390395e-06	-1.294728e-08	-3.056047e+01	-8.500029e+02
3.500000e-07	-4.326487e-06	-1.289081e-08	-3.011562e+01	-8.458294e+02
3.600000e-07	-4.261066e-06	-1.280764e-08	-2.966024e+01	-8.415336e+02
3.700000e-07	-4.193939e-06	-1.274753e-08	-2.919298e+01	-8.370465e+02
3.800000e-07	-4.125136e-06	-1.270053e-08	-2.871407e+01	-8.323153e+02
3.900000e-07	-4.054863e-06	-1.260447e-08	-2.822492e+01	-8.273274e+02
4.000000e-07	-3.983295e-06	-1.253602e-08	-2.772675e+01	-8.221180e+02
4.100000e-07	-3.910518e-06	-1.245538e-08	-2.722016e+01	-8.167555e+02
4.200000e-07	-3.836221e-06	-1.237011e-08	-2.670300e+01	-8.113116e+02
4.300000e-07	-3.760196e-06	-1.227290e-08	-2.617381e+01	-8.058277e+02
4.400000e-07	-3.682559e-06	-1.218401e-08	-2.563339e+01	-8.002935e+02
4.500000e-07	-3.603493e-06	-1.211920e-08	-2.508303e+01	-7.946481e+02
4.600000e-07	-3.522940e-06	-1.203570e-08	-2.452233e+01	-7.888019e+02
4.700000e-07	-3.441021e-06	-1.194004e-08	-2.395211e+01	-7.826741e+02
4.800000e-07	-3.357966e-06	-1.182557e-08	-2.337399e+01	-7.762259e+02
4.900000e-07	-3.273839e-06	-1.172345e-08	-2.278839e+01	-7.694777e+02
5.000000e-07	-3.188715e-06	-1.162512e-08	-2.219587e+01	-7.625005e+02
5.100000e-07	-3.102631e-06	-1.151294e-08	-2.159666e+01	-7.553850e+02
5.200000e-07	-3.015571e-06	-1.140382e-08	-2.099066e+01	-7.482006e+02
5.300000e-07	-2.927497e-06	-1.129750e-08	-2.037759e+01	-7.409630e+02
5.400000e-07	-2.838521e-06	-1.119186e-08	-1.975825e+01	-7.336237e+02
5.500000e-07	-2.748555e-06	-1.107361e-08	-1.913202e+01	-7.260871e+02
5.600000e-07	-2.657262e-06	-1.094637e-08	-1.849656e+01	-7.182493e+02
5.700000e-07	-2.564861e-06	-1.081898e-08	-1.785338e+01	-7.100403e+02
5.800000e-07	-2.471686e-06	-1.069386e-08	-1.720481e+01	-7.014533e+02
5.900000e-07	-2.377713e-06	-1.056468e-08	-1.655068e+01	-6.925463e+02
6.000000e-07	-2.282954e-06	-1.042275e-08	-1.589109e+01	-6.834144e+02
6.100000e-07	-2.187418e-06	-1.027764e-08	-1.522608e+01	-6.741447e+02
6.200000e-07	-2.091174e-06	-1.013443e-08	-1.455615e+01	-6.647723e+02
6.300000e-07	-1.994230e-06	-9.989422e-09	-1.388135e+01	-6.552580e+02
6.400000e-07	-1.896465e-06	-9.838962e-09	-1.320083e+01	-6.454966e+02
6.500000e-07	-1.797804e-06	-9.680219e-09	-1.251407e+01	-6.353562e+02
6.600000e-07	-1.698333e-06	-9.518951e-09	-1.182168e+01	-6.247292e+02
6.700000e-07	-1.598237e-06	-9.353096e-09	-1.112494e+01	-6.135760e+02
6.800000e-07	-1.497673e-06	-9.175465e-09	-1.042494e+01	-6.019386e+02
6.900000e-07	-1.396656e-06	-8.988219e-09	-9.721782e+00	-5.899195e+02
7.000000e-07	-1.295113e-06	-8.800808e-09	-9.014963e+00	-5.776309e+02
7.100000e-07	-1.193108e-06	-8.614271e-09	-8.304932e+00	-5.651375e+02
7.200000e-07	-1.090717e-06	-8.421705e-09	-7.592213e+00	-5.524160e+02
7.300000e-07	-9.879694e-07	-8.220731e-09	-6.877014e+00	-5.393519e+02
7.400000e-07	-8.848791e-07	-8.010126e-09	-6.159427e+00	-5.257753e+02
7.500000e-07	-7.814362e-07	-7.790010e-09	-5.439387e+00	-5.115231e+02
7.600000e-07	-6.777121e-07	-7.559432e-09	-4.717389e+00	-4.965003e+02
7.700000e-07	-5.737434e-07	-7.321945e-09	-3.993688e+00	-4.807128e+02
7.800000e-07	-4.696145e-07	-7.077665e-09	-3.268872e+00	-4.642552e+02
7.900000e-07	-3.654070e-07	-6.824811e-09	-2.543509e+00	-4.472552e+02
8.000000e-07	-2.611041e-07	-6.559191e-09	-1.817482e+00	-4.297976e+02
8.100000e-07	-1.567226e-07	-6.277521e-09	-1.090908e+00	-4.118591e+02
8.200000e-07	-5.226747e-08	-5.985446e-09	-3.638211e-01	-3.932863e+02
8.300000e-07	5.218098e-08	-5.683696e-09	3.632191e-01	-3.738282e+02
8.400000e-07	1.565552e-07	-5.369581e-09	1.089742e+00	-3.532148e+02
8.500000e-07	2.608913e-07	-5.038809e-09	1.816001e+00	-3.312461e+02
8.600000e-07	3.652022e-07	-4.689812e-09	2.542084e+00	-3.078504e+02
8.700000e-07	4.694476e-07	-4.318652e-09	3.267710e+00	-2.830762e+02
8.800000e-07	5.735533e-07	-3.919534e-09	3.992365e+00	-2.570065e+02
8.900000e-07	6.774679e-07	-3.493829e-09	4.715689e+00	-2.296195e+02
9.000000e-07	7.811581e-07	-3.041772e-09	5.437451e+00	-2.006458e+02
9.100000e-07	8.845697e-07	-2.556142e-09	6.157274e+00	-1.694862e+02
9.200000e-07	9.876273e-07	-2.025375e-09	6.874633e+00	-1.352415e+02
9.300000e-07	1.090282e-06	-1.438067e-09	7.589188e+00	-9.687279e+01
9.400000e-07	1.192601e-06	-7.822687e-10	8.301408e+00	-5.346610e+01
9.500000e-07	1.294574e-06	-4.525150e-11	9.011212e+00	-4.534160e+00
9.600000e-07	1.396071e-06	7.801871e-10	9.717708e+00	4.973370e+01
9.700000e-07	1.497044e-06	1.682231e-09	1.042056e+01	1.083560e+02
9.800000e-07	1.597536e-06	2.631647e-09	1.112006e+01	1.696257e+02
9.900000e-07	1.697582e-06	3.587249e-09	1.181646e+01	2.313551e+02
1.000000e-06	1.797078e-06	4.504230e-09	1.250902e+01	2.912416e+02
1.010000e-06	1.895802e-06	5.347648e-09	1.319622e+01	3.472606e+02
1.020000e-06	1.993556e-06	6.097111e-09	1.387666e+01	3.979847e+02
1.030000e-06	2.090430e-06	6.752721e-09	1.455098e+01	4.427510e+02
1.040000e-06	2.186617e-06	7.330327e-09	1.522051e+01	4.816462e+02
1.050000e-06	2.282102e-06	7.843136e-09	1.588516e+01	5.153297e+02
1.060000e-06	2.376811e-06	8.296460e-09	1.654440e+01	5.447635e+02
1.070000e-06	2.470749e-06	8.699489e-09	1.719828e+01	5.709317e+02
1.080000e-06	2.563925e-06	9.064195e-09	1.784685e+01	5.946296e+02
1.090000e-06	2.656275e-06	9.396234e-09	1.848969e+01	6.163650e+02
1.100000e-06	2.747702e-06	9.693654e-09	1.912609e+01	6.363779e+02
1.110000e-06	2.837936e-06	9.959343e-09	1.975418e+01	6.547411e+02
1.120000e-06	2.926942e-06	1.020377e-08	2.037373e+01	6.714885e+02
1.130000e-06	3.014983e-06	1.043264e-08	2.098656e+01	6.867156e+02
1.140000e-06	3.102092e-06	1.064794e-08	2.159291e+01	7.006190e+02
1.150000e-06	3.188205e-06	1.085051e-08	2.219232e+01	7.134709e+02
1.160000e-06	3.273272e-06	1.104071e-08	2.278445e+01	7.255503e+02
1.170000e-06	3.357264e-06	1.121954e-08	2.336910e+01	7.370682e+02
1.180000e-06	3.440053e-06	1.138686e-08	2.394537e+01	7.481208e+02
1.190000e-06	3.521545e-06	1.154208e-08	2.451262e+01	7.586903e+02
1.200000e-06	3.601785e-06	1.168878e-08	2.507115e+01	7.686884e+02
1.210000e-06	3.680711e-06	1.182961e-08	2.562054e+01	7.780233e+02
1.220000e-06	3.758307e-06	1.196357e-08	2.616066e+01	7.866585e+02
1.230000e-06	3.834541e-06	1.208812e-08	2.669131e+01	7.946423e+02
1.240000e-06	3.909239e-06	1.220410e-08	2.721126e+01	8.020964e+02
1.250000e-06	3.982359e-06	1.231564e-08	2.772023e+01	8.091736e+02
1.260000e-06	4.054026e-06	1.242170e-08	2.821908e+01	8.160037e+02
1.270000e-06	4.124278e-06	1.252171e-08	2.870809e+01	8.226531e+02
1.280000e-06	4.193143e-06	1.261788e-08	2.918745e+01	8.291127e+02
1.290000e-06	4.260616e-06	1.271106e-08	2.965711e+01	8.353191e+02
1.300000e-06	4.326470e-06	1.279938e-08	3.011551e+01	8.411965e+02
1.310000e-06	4.390712e-06	1.288214e-08	3.056268e+01	8.466996e+02
1.320000e-06	4.453505e-06	1.296064e-08	3.099976e+01	8.518406e+02
1.330000e-06	4.514837e-06	1.303603e-08	3.142668e+01	8.566876e+02
1.340000e-06	4.574664e-06	1.310932e-08	3.184312e+01	8.613374e+02
1.350000e-06	4.632756e-06	1.318114e-08	3.224749e+01	8.658760e+02
1.360000e-06	4.689080e-06	1.325057e-08	3.263954e+01	8.703442e+02
1.370000e-06	4.743774e-06	1.331702e-08	3.302025e+01	8.747230e+02
1.380000e-06	4.796687e-06	1.338009e-08	3.338857e+01	8.789453e+02
1.390000e-06	4.847570e-06	1.343832e-08	3.374276e+01	8.829262e+02
1.400000e-06	4.896451e-06	1.348995e-08	3.408300e+01	8.866009e+02
1.410000e-06	4.943613e-06	1.353769e-08	3.441128e+01	8.899518e+02
1.420000e-06	4.989208e-06	1.358576e-08	3.472866e+01	8.930147e+02
1.430000e-06	5.033123e-06	1.363381e-08	3.503434e+01	8.958633e+02
1.440000e-06	5.075105e-06	1.367805e-08	3.532657e+01	8.985784e+02
1.450000e-06	5.115196e-06	1.371911e-08	3.560563e+01	9.012161e+02
1.460000e-06	5.153596e-06	1.375907e-08	3.587293e+01	9.037889e+02
1.470000e-06	5.190317e-06	1.379751e-08	3.612853e+01	9.062656e+02
1.480000e-06	5.225155e-06	1.383346e-08	3.637103e+01	9.085899e+02
1.490000e-06	5.258002e-06	1.386441e-08	3.659967e+01	9.107081e+02
1.500000e-06	5.289051e-06	1.388976e-08	3.681579e+01	9.125928e+02
1.510000e-06	5.318430e-06	1.391269e-08	3.702029e+01	9.142543e+02
1.520000e-06	5.345952e-06	1.393798e-08	3.721187e+01	9.157334e+02
1.530000e-06	5.371381e-06	1.396415e-08	3.738887e+01	9.170828e+02
1.540000e-06	5.394813e-06	1.398568e-08	3.755198e+01	9.183434e+02
1.550000e-06	5.416489e-06	1.400278e-08	3.770286e+01	9.195284e+02
1.560000e-06	5.436409e-06	1.401999e-08	3.784152e+01	9.206215e+02
1.570000e-06	5.454379e-06	1.403911e-08	3.796660e+01	9.215876e+02
1.580000e-06	5.470366e-06	1.405368e-08	3.807788e+01	9.223931e+02
1.590000e-06	5.484375e-06	1.406054e-08	3.817540e+01	9.230227e+02
1.600000e-06	5.496248e-06	1.406759e-08	3.825804e+01	9.234881e+02
1.610000e-06	5.505885e-06	1.407910e-08	3.832513e+01	9.238219e+02
1.620000e-06	5.513487e-06	1.408919e-08	3.837804e+01	9.240630e+02
1.630000e-06	5.519301e-06	1.409209e-08	3.841851e+01	9.242389e+02
1.640000e-06	5.523281e-06	1.409146e-08	3.844621e+01	9.243534e+02
1.650000e-06	5.525235e-06	1.409491e-08	3.845982e+01	9.243875e+02
1.660000e-06	5.525262e-06	1.409779e-08	3.846000e+01	9.243098e+02
1.670000e-06	5.523534e-06	1.409226e-08	3.844797e+01	9.240935e+02
1.680000e-06	5.520061e-06	1.408723e-08	3.842380e+01	9.237305e+02
1.690000e-06	5.514684e-06	1.408304e-08	3.838637e+01	9.232353e+02
1.700000e-06	5.507425e-06	1.407928e-08	3.833584e+01	9.226369e+02
1.710000e-06	5.498491e-06	1.407230e-08	3.827366e+01	9.219629e+02
1.720000e-06	5.487833e-06	1.406413e-08	3.819947e+01	9.212227e+02
1.730000e-06	5.475190e-06	1.406545e-08	3.811146e+01	9.203997e+02
1.740000e-06	5.460532e-06	1.399813e-08	3.800943e+01	9.194568e+02
1.750000e-06	5.443799e-06	1.393777e-08	3.789296e+01	9.183542e+02
1.760000e-06	5.424409e-06	1.395512e-08	3.775799e+01	9.170710e+02
1.770000e-06	5.402276e-06	1.395296e-08	3.760393e+01	9.156224e+02
1.780000e-06	5.378253e-06	1.401811e-08	3.743671e+01	9.140610e+02
1.790000e-06	5.353356e-06	1.396585e-08	3.726341e+01	9.124616e+02
1.800000e-06	5.327541e-06	1.381949e-08	3.708371e+01	9.108935e+02
1.810000e-06	5.299670e-06	1.392887e-08	3.688971e+01	9.093905e+02
1.820000e-06	5.269572e-06	1.387814e-08	3.668021e+01	9.079319e+02
1.830000e-06	5.237920e-06	1.377879e-08	3.645989e+01	9.064431e+02
1.840000e-06	5.204455e-06	1.390496e-08	3.622694e+01	9.048174e+02
1.850000e-06	5.169244e-06	1.377408e-08	3.598185e+01	9.029501e+02
1.860000e-06	5.132288e-06	1.372951e-08	3.572460e+01	9.007740e+02
1.870000e-06	5.093138e-06	1.381704e-08	3.545209e+01	8.982811e+02
1.880000e-06	5.052287e-06	1.364271e-08	3.516774e+01	8.955222e+02
1.890000e-06	5.009864e-06	1.365026e-08	3.487244e+01	8.925849e+02
1.900000e-06	4.965548e-06	1.359922e-08	3.456397e+01	8.895594e+02
1.910000e-06	4.919470e-06	1.348005e-08	3.424323e+01	8.865050e+02
1.920000e-06	4.871477e-06	1.356790e-08	3.390916e+01	8.834310e+02
1.930000e-06	4.821682e-06	1.341239e-08	3.356255e+01	8.803001e+02
1.940000e-06	4.770102e-06	1.337566e-08	3.320352e+01	8.770492e+02
1.950000e-06	4.716394e-06	1.339023e-08	3.282967e+01	8.736211e+02
1.960000e-06	4.660934e-06	1.326135e-08	3.244363e+01	8.699901e+02
1.970000e-06	4.603794e-06	1.324173e-08	3.204589e+01	8.661723e+02
1.980000e-06	4.545053e-06	1.312127e-08	3.163701e+01	8.622151e+02
1.990000e-06	4.484774e-06	1.310584e-08	3.121742e+01	8.581728e+02
2.000000e-06	4.422709e-06	1.305701e-08	3.078540e+01	8.540777e+02
2.010000e-06	4.359078e-06	1.296461e-08	3.034248e+01	8.499218e+02
2.020000e-06	4.293940e-06	1.295521e-08	2.988907e+01	8.456575e+02
2.030000e-06	4.227373e-06	1.280794e-08	2.942571e+01	8.412164e+02
2.040000e-06	4.159260e-06	1.277781e-08	2.895159e+01	8.365397e+02
2.050000e-06	4.089351e-06	1.269159e-08	2.846498e+01	8.316050e+02
2.060000e-06	4.018011e-06	1.259059e-08	2.796840e+01	8.264375e+02
2.070000e-06	3.945376e-06	1.255082e-08	2.746280e+01	8.211009e+02
2.080000e-06	3.871353e-06	1.243740e-08	2.694754e+01	8.156690e+02
2.090000e-06	3.795709e-06	1.240311e-08	2.642100e+01	8.101921e+02
2.100000e-06	3.718248e-06	1.228245e-08	2.588182e+01	8.046718e+02
2.110000e-06	3.639321e-06	1.218461e-08	2.533243e+01	7.990568e+02
2.120000e-06	3.559250e-06	1.209982e-08	2.477507e+01	7.932609e+02
2.130000e-06	3.478063e-06	1.200134e-08	2.420995e+01	7.871980e+02
2.140000e-06	3.395758e-06	1.193325e-08	2.363704e+01	7.808183e+02
2.150000e-06	3.312391e-06	1.181005e-08	2.305675e+01	7.741293e+02
2.160000e-06	3.227689e-06	1.172233e-08	2.246715e+01	7.671932e+02
2.170000e-06	3.141525e-06	1.160150e-08	2.186739e+01	7.600996e+02
2.180000e-06	3.054273e-06	1.149208e-08	2.126005e+01	7.529260e+02
2.190000e-06	2.966075e-06	1.138189e-08	2.064613e+01	7.457013e+02
2.200000e-06	2.876901e-06	1.126272e-08	2.002541e+01	7.383902e+02
2.210000e-06	2.786789e-06	1.115736e-08	1.939816e+01	7.309046e+02
2.220000e-06	2.695823e-06	1.103477e-08	1.876497e+01	7.231385e+02
2.230000e-06	2.603936e-06	1.091562e-08	1.812536e+01	7.150115e+02
2.240000e-06	2.510979e-06	1.077357e-08	1.747832e+01	7.065021e+02
2.250000e-06	2.416960e-06	1.064253e-08	1.682387e+01	6.976558e+02
2.260000e-06	2.322053e-06	1.050839e-08	1.616324e+01	6.885633e+02
2.270000e-06	2.226386e-06	1.037665e-08	1.549733e+01	6.793173e+02
2.280000e-06	2.129958e-06	1.023388e-08	1.482612e+01	6.699672e+02
2.290000e-06	2.032822e-06	1.008240e-08	1.414998e+01	6.604898e+02
2.300000e-06	1.934994e-06	9.935348e-09	1.346902e+01	6.507918e+02
2.310000e-06	1.836593e-06	9.778795e-09	1.278407e+01	6.407428e+02
2.320000e-06	1.737770e-06	9.617934e-09	1.209619e+01	6.302257e+02
2.330000e-06	1.638488e-06	9.443617e-09	1.140511e+01	6.191839e+02
2.340000e-06	1.538592e-06	9.276388e-09	1.070976e+01	6.076427e+02
2.350000e-06	1.437931e-06	9.101062e-09	1.000909e+01	5.956948e+02
2.360000e-06	1.336558e-06	8.914486e-09	9.303455e+00	5.834556e+02
2.370000e-06	1.234561e-06	8.721953e-09	8.593478e+00	5.710042e+02
2.380000e-06	1.132048e-06	8.527012e-09	7.879911e+00	5.583380e+02
2.390000e-06	1.029204e-06	8.330642e-09	7.164037e+00	5.453600e+02
2.400000e-06	9.260394e-07	8.120817e-09	6.445934e+00	5.319078e+02
2.410000e-06	8.224883e-07	7.901730e-09	5.725141e+00	5.178110e+02
2.420000e-06	7.186261e-07	7.672841e-09	5.002181e+00	5.029559e+02
2.430000e-06	6.145599e-07	7.436103e-09	4.277802e+00	4.873263e+02
2.440000e-06	5.103195e-07	7.192374e-09	3.552210e+00	4.710010e+02
2.450000e-06	4.059277e-07	6.940147e-09	2.825563e+00	4.541070e+02
2.460000e-06	3.013967e-07	6.678465e-09	2.097949e+00	4.367445e+02
2.470000e-06	1.967811e-07	6.408719e-09	1.369746e+00	4.189172e+02
2.480000e-06	9.211163e-08	6.124553e-09	6.411666e-01	4.004986e+02
2.490000e-06	-1.257145e-08	5.821929e-09	-8.750678e-02	3.812532e+02
2.500000e-06	-1.172246e-07	5.502093e-09	-8.159717e-01	3.609074e+02
2.510000e-06	-2.218533e-07	5.169982e-09	-1.544267e+00	3.392394e+02
2.520000e-06	-3.264092e-07	4.826446e-09	-2.272055e+00	3.161482e+02
2.530000e-06	-4.308208e-07	4.464001e-09	-2.998839e+00	2.916612e+02
2.540000e-06	-5.351025e-07	4.078894e-09	-3.724718e+00	2.658646e+02
2.550000e-06	-6.392233e-07	3.668450e-09	-4.449478e+00	2.387717e+02
2.560000e-06	-7.430902e-07	3.231851e-09	-5.172470e+00	2.101763e+02
2.570000e-06	-8.466441e-07	2.761016e-09	-5.893283e+00	1.795517e+02
2.580000e-06	-9.498531e-07	2.243453e-09	-6.611696e+00	1.460538e+02
2.590000e-06	-1.052700e-06	1.669185e-09	-7.327588e+00	1.086541e+02
2.600000e-06	-1.155190e-06	1.032022e-09	-8.040997e+00	6.638653e+01
2.610000e-06	-1.257283e-06	3.241972e-10	-8.751643e+00	1.864808e+01
2.620000e-06	-1.358857e-06	-4.668111e-10	-9.458675e+00	-3.453221e+01
2.630000e-06	-1.459796e-06	-1.342747e-09	-1.016128e+01	-9.234349e+01
2.640000e-06	-1.560070e-06	-2.279199e-09	-1.085926e+01	-1.532191e+02
2.650000e-06	-1.659618e-06	-3.234798e-09	-1.155220e+01	-2.150466e+02
2.660000e-06	-1.758503e-06	-4.169689e-09	-1.224051e+01	-2.755141e+02
2.670000e-06	-1.856872e-06	-5.048547e-09	-1.292523e+01	-3.325066e+02
2.680000e-06	-1.954678e-06	-5.843834e-09	-1.360604e+01	-3.844486e+02
2.690000e-06	-2.051841e-06	-6.543868e-09	-1.428236e+01	-4.305086e+02
2.700000e-06	-2.148348e-06	-7.156128e-09	-1.495413e+01	-4.706226e+02
2.710000e-06	-2.244174e-06	-7.694869e-09	-1.562115e+01	-5.053483e+02
2.720000e-06	-2.339310e-06	-8.170998e-09	-1.628337e+01	-5.356072e+02
2.730000e-06	-2.433781e-06	-8.591452e-09	-1.694095e+01	-5.624000e+02
2.740000e-06	-2.527372e-06	-8.964643e-09	-1.759242e+01	-5.865747e+02
2.750000e-06	-2.619854e-06	-9.301963e-09	-1.823616e+01	-6.087029e+02
2.760000e-06	-2.711154e-06	-9.612703e-09	-1.887168e+01	-6.290756e+02
2.770000e-06	-2.801429e-06	-9.897597e-09	-1.950007e+01	-6.477905e+02
2.780000e-06	-2.890785e-06	-1.015440e-08	-2.012205e+01	-6.648797e+02
2.790000e-06	-2.979190e-06	-1.039085e-08	-2.073742e+01	-6.804199e+02
2.800000e-06	-3.066617e-06	-1.061369e-08	-2.134598e+01	-6.945863e+02
2.810000e-06	-3.152994e-06	-1.082179e-08	-2.194722e+01	-7.076395e+02
2.820000e-06	-3.238218e-06	-1.101272e-08	-2.254045e+01	-7.198639e+02
2.830000e-06	-3.322105e-06	-1.118852e-08	-2.312436e+01	-7.314902e+02
2.840000e-06	-3.404781e-06	-1.135549e-08	-2.369985e+01	-7.426411e+02
2.850000e-06	-3.486346e-06	-1.151659e-08	-2.426761e+01	-7.533205e+02
2.860000e-06	-3.566738e-06	-1.166895e-08	-2.482719e+01	-7.634502e+02
2.870000e-06	-3.645921e-06	-1.181008e-08	-2.537836e+01	-7.729334e+02
2.880000e-06	-3.723756e-06	-1.194193e-08	-2.592015e+01	-7.817179e+02
2.890000e-06	-3.800015e-06	-1.206753e-08	-2.645098e+01	-7.898336e+02
2.900000e-06	-3.874776e-06	-1.218730e-08	-2.697137e+01	-7.973891e+02
2.910000e-06	-3.948149e-06	-1.229899e-08	-2.748210e+01	-8.045350e+02
2.920000e-06	-4.020131e-06	-1.240192e-08	-2.798315e+01	-8.114104e+02
2.930000e-06	-4.090789e-06	-1.250050e-08	-2.847499e+01	-8.180973e+02
2.940000e-06	-4.159937e-06	-1.259872e-08	-2.895631e+01	-8.246020e+02
