# Temperatura_=_59.89
# Concentracion g/m^3_=_13400.0
# C_Vs_to_Am_M_A/Vsm_=_65563218390.804596
# pendiente_HvsI_1/m_=_3716.3
# ordenada_HvsI_A/m_=_1297.0
# frecuencia_Hz_=_300801.2904320565

Tiempo_(s)	Campo_(V.s)	Magnetizacion_(V.s)	Campo_(kA/m)	Magnetizacion_(A/m)
0.000000e+00	-5.500140e-06	-1.444030e-08	-3.831166e+01	-9.473768e+02
1.000000e-08	-5.498164e-06	-1.443635e-08	-3.829790e+01	-9.471026e+02
2.000000e-08	-5.494228e-06	-1.442795e-08	-3.827049e+01	-9.466634e+02
3.000000e-08	-5.488568e-06	-1.442156e-08	-3.823106e+01	-9.460915e+02
4.000000e-08	-5.481271e-06	-1.441518e-08	-3.818023e+01	-9.454295e+02
5.000000e-08	-5.472351e-06	-1.440508e-08	-3.811809e+01	-9.447071e+02
6.000000e-08	-5.461502e-06	-1.438870e-08	-3.804253e+01	-9.439242e+02
7.000000e-08	-5.448518e-06	-1.435753e-08	-3.795209e+01	-9.430475e+02
8.000000e-08	-5.433441e-06	-1.434981e-08	-3.784706e+01	-9.420230e+02
9.000000e-08	-5.415944e-06	-1.439931e-08	-3.772519e+01	-9.408020e+02
1.000000e-07	-5.396151e-06	-1.438027e-08	-3.758732e+01	-9.393663e+02
1.100000e-07	-5.374467e-06	-1.431548e-08	-3.743628e+01	-9.377438e+02
1.200000e-07	-5.351048e-06	-1.428556e-08	-3.727315e+01	-9.360034e+02
1.300000e-07	-5.326198e-06	-1.418053e-08	-3.710005e+01	-9.342316e+02
1.400000e-07	-5.299794e-06	-1.418909e-08	-3.691614e+01	-9.324979e+02
1.500000e-07	-5.271485e-06	-1.425688e-08	-3.671895e+01	-9.308238e+02
1.600000e-07	-5.241463e-06	-1.408589e-08	-3.650983e+01	-9.291685e+02
1.700000e-07	-5.209870e-06	-1.411221e-08	-3.628976e+01	-9.274375e+02
1.800000e-07	-5.176310e-06	-1.419181e-08	-3.605600e+01	-9.255134e+02
1.900000e-07	-5.140762e-06	-1.403929e-08	-3.580838e+01	-9.232963e+02
2.000000e-07	-5.103688e-06	-1.405110e-08	-3.555014e+01	-9.207384e+02
2.100000e-07	-5.064903e-06	-1.398795e-08	-3.527998e+01	-9.178596e+02
2.200000e-07	-5.024264e-06	-1.385168e-08	-3.499691e+01	-9.147375e+02
2.300000e-07	-4.981655e-06	-1.388191e-08	-3.470011e+01	-9.114763e+02
2.400000e-07	-4.937061e-06	-1.384734e-08	-3.438949e+01	-9.081668e+02
2.500000e-07	-4.890787e-06	-1.381108e-08	-3.406716e+01	-9.048543e+02
2.600000e-07	-4.842706e-06	-1.377736e-08	-3.373225e+01	-9.015262e+02
2.700000e-07	-4.792607e-06	-1.369817e-08	-3.338329e+01	-8.981238e+02
2.800000e-07	-4.740452e-06	-1.366027e-08	-3.301999e+01	-8.945723e+02
2.900000e-07	-4.686377e-06	-1.355807e-08	-3.264333e+01	-8.908145e+02
3.000000e-07	-4.630647e-06	-1.347933e-08	-3.225514e+01	-8.868355e+02
3.100000e-07	-4.573214e-06	-1.343233e-08	-3.185509e+01	-8.826660e+02
3.200000e-07	-4.513955e-06	-1.340141e-08	-3.144231e+01	-8.783650e+02
3.300000e-07	-4.453063e-06	-1.337773e-08	-3.101817e+01	-8.739894e+02
3.400000e-07	-4.390671e-06	-1.327728e-08	-3.058357e+01	-8.695652e+02
3.500000e-07	-4.326816e-06	-1.320159e-08	-3.013878e+01	-8.650727e+02
3.600000e-07	-4.261519e-06	-1.311006e-08	-2.968395e+01	-8.604539e+02
3.700000e-07	-4.194576e-06	-1.302716e-08	-2.921765e+01	-8.556370e+02
3.800000e-07	-4.125937e-06	-1.296890e-08	-2.873955e+01	-8.505691e+02
3.900000e-07	-4.055825e-06	-1.287538e-08	-2.825117e+01	-8.452403e+02
4.000000e-07	-3.984367e-06	-1.280672e-08	-2.775343e+01	-8.396896e+02
4.100000e-07	-3.911630e-06	-1.272443e-08	-2.724677e+01	-8.339884e+02
4.200000e-07	-3.837423e-06	-1.264050e-08	-2.672988e+01	-8.282084e+02
4.300000e-07	-3.761559e-06	-1.254443e-08	-2.620144e+01	-8.223885e+02
4.400000e-07	-3.684134e-06	-1.244421e-08	-2.566213e+01	-8.165145e+02
4.500000e-07	-3.605222e-06	-1.236398e-08	-2.511246e+01	-8.105220e+02
4.600000e-07	-3.524779e-06	-1.226386e-08	-2.455213e+01	-8.043213e+02
4.700000e-07	-3.442944e-06	-1.216597e-08	-2.398210e+01	-7.978336e+02
4.800000e-07	-3.359928e-06	-1.205581e-08	-2.340385e+01	-7.910241e+02
4.900000e-07	-3.275869e-06	-1.194389e-08	-2.281833e+01	-7.839158e+02
5.000000e-07	-3.190850e-06	-1.184089e-08	-2.222612e+01	-7.765792e+02
5.100000e-07	-3.104859e-06	-1.172939e-08	-2.162715e+01	-7.691003e+02
5.200000e-07	-3.017895e-06	-1.161570e-08	-2.102138e+01	-7.615422e+02
5.300000e-07	-2.929988e-06	-1.149783e-08	-2.040907e+01	-7.539152e+02
5.400000e-07	-2.841160e-06	-1.138065e-08	-1.979033e+01	-7.461711e+02
5.500000e-07	-2.751233e-06	-1.125736e-08	-1.916393e+01	-7.382219e+02
5.600000e-07	-2.660130e-06	-1.112787e-08	-1.852935e+01	-7.299769e+02
5.700000e-07	-2.567994e-06	-1.099363e-08	-1.788757e+01	-7.213809e+02
5.800000e-07	-2.474940e-06	-1.085549e-08	-1.723939e+01	-7.124369e+02
5.900000e-07	-2.381070e-06	-1.072191e-08	-1.658554e+01	-7.032017e+02
6.000000e-07	-2.286442e-06	-1.058424e-08	-1.592639e+01	-6.937569e+02
6.100000e-07	-2.191035e-06	-1.043911e-08	-1.526183e+01	-6.841668e+02
6.200000e-07	-2.094940e-06	-1.028530e-08	-1.459247e+01	-6.744427e+02
6.300000e-07	-1.998091e-06	-1.012771e-08	-1.391786e+01	-6.645295e+02
6.400000e-07	-1.900342e-06	-9.972900e-09	-1.323698e+01	-6.543226e+02
6.500000e-07	-1.801728e-06	-9.810380e-09	-1.255008e+01	-6.437081e+02
6.600000e-07	-1.702370e-06	-9.635696e-09	-1.185800e+01	-6.326094e+02
6.700000e-07	-1.602398e-06	-9.455781e-09	-1.116163e+01	-6.210184e+02
6.800000e-07	-1.501938e-06	-9.278975e-09	-1.046187e+01	-6.089980e+02
6.900000e-07	-1.401025e-06	-9.098041e-09	-9.758955e+00	-5.966498e+02
7.000000e-07	-1.299586e-06	-8.906835e-09	-9.052367e+00	-5.840630e+02
7.100000e-07	-1.197669e-06	-8.708292e-09	-8.342460e+00	-5.712641e+02
7.200000e-07	-1.095370e-06	-8.505913e-09	-7.629885e+00	-5.581912e+02
7.300000e-07	-9.927529e-07	-8.299139e-09	-6.915100e+00	-5.447070e+02
7.400000e-07	-8.897822e-07	-8.080097e-09	-6.197849e+00	-5.306454e+02
7.500000e-07	-7.864693e-07	-7.849859e-09	-5.478214e+00	-5.158742e+02
7.600000e-07	-6.828873e-07	-7.613642e-09	-4.756706e+00	-5.003454e+02
7.700000e-07	-5.790700e-07	-7.376123e-09	-4.033558e+00	-4.841091e+02
7.800000e-07	-4.751012e-07	-7.129215e-09	-3.309356e+00	-4.672812e+02
7.900000e-07	-3.710159e-07	-6.866107e-09	-2.584341e+00	-4.499753e+02
8.000000e-07	-2.668226e-07	-6.590958e-09	-1.858574e+00	-4.322269e+02
8.100000e-07	-1.625226e-07	-6.306291e-09	-1.132064e+00	-4.139440e+02
8.200000e-07	-5.820575e-08	-6.011513e-09	-4.054368e-01	-3.949088e+02
8.300000e-07	4.610408e-08	-5.698799e-09	3.211416e-01	-3.748361e+02
8.400000e-07	1.504241e-07	-5.368468e-09	1.047791e+00	-3.534659e+02
8.500000e-07	2.547099e-07	-5.026985e-09	1.774202e+00	-3.306498e+02
8.600000e-07	3.589157e-07	-4.672706e-09	2.500056e+00	-3.063875e+02
8.700000e-07	4.629973e-07	-4.290620e-09	3.225044e+00	-2.807847e+02
8.800000e-07	5.669346e-07	-3.873953e-09	3.949028e+00	-2.539327e+02
8.900000e-07	6.706915e-07	-3.432126e-09	4.671755e+00	-2.257484e+02
9.000000e-07	7.742257e-07	-2.967932e-09	5.392931e+00	-1.958340e+02
9.100000e-07	8.775202e-07	-2.466183e-09	6.112437e+00	-1.634242e+02
9.200000e-07	9.805346e-07	-1.908452e-09	6.829992e+00	-1.274654e+02
9.300000e-07	1.083134e-06	-1.285523e-09	7.544656e+00	-8.683116e+01
9.400000e-07	1.185340e-06	-5.891024e-10	8.256580e+00	-4.062971e+01
9.500000e-07	1.287217e-06	1.920445e-10	8.966214e+00	1.147802e+01
9.600000e-07	1.388683e-06	1.068613e-09	9.672981e+00	6.904690e+01
9.700000e-07	1.489715e-06	2.025075e-09	1.037673e+01	1.307813e+02
9.800000e-07	1.590296e-06	3.016903e-09	1.107733e+01	1.946689e+02
9.900000e-07	1.690349e-06	3.994487e-09	1.177426e+01	2.582920e+02
1.000000e-06	1.789802e-06	4.920009e-09	1.246701e+01	3.192401e+02
1.010000e-06	1.888484e-06	5.766145e-09	1.315438e+01	3.755180e+02
1.020000e-06	1.986269e-06	6.512361e-09	1.383551e+01	4.258460e+02
1.030000e-06	2.083190e-06	7.157773e-09	1.451063e+01	4.697818e+02
1.040000e-06	2.179319e-06	7.720283e-09	1.518022e+01	5.076473e+02
1.050000e-06	2.274750e-06	8.218781e-09	1.584495e+01	5.403012e+02
1.060000e-06	2.369494e-06	8.660740e-09	1.650490e+01	5.688348e+02
1.070000e-06	2.463481e-06	9.052108e-09	1.715957e+01	5.942845e+02
1.080000e-06	2.556636e-06	9.403697e-09	1.780845e+01	6.174345e+02
1.090000e-06	2.648988e-06	9.725386e-09	1.845173e+01	6.387478e+02
1.100000e-06	2.740463e-06	1.001881e-08	1.908891e+01	6.584143e+02
1.110000e-06	2.830737e-06	1.028341e-08	1.971773e+01	6.764739e+02
1.120000e-06	2.919794e-06	1.052527e-08	2.033806e+01	6.929516e+02
1.130000e-06	3.007873e-06	1.075102e-08	2.095158e+01	7.079532e+02
1.140000e-06	3.095024e-06	1.096323e-08	2.155864e+01	7.216915e+02
1.150000e-06	3.181131e-06	1.116161e-08	2.215842e+01	7.344478e+02
1.160000e-06	3.266182e-06	1.134749e-08	2.275085e+01	7.464961e+02
1.170000e-06	3.350216e-06	1.152405e-08	2.333620e+01	7.580293e+02
1.180000e-06	3.433050e-06	1.169285e-08	2.391318e+01	7.691214e+02
1.190000e-06	3.514606e-06	1.185159e-08	2.448127e+01	7.797373e+02
1.200000e-06	3.594853e-06	1.200100e-08	2.504024e+01	7.897839e+02
1.210000e-06	3.673775e-06	1.214238e-08	2.558997e+01	7.991775e+02
1.220000e-06	3.751396e-06	1.227336e-08	2.613065e+01	8.078972e+02
1.230000e-06	3.827616e-06	1.239606e-08	2.666156e+01	8.160043e+02
1.240000e-06	3.902284e-06	1.251478e-08	2.718167e+01	8.236233e+02
1.250000e-06	3.975403e-06	1.262961e-08	2.769099e+01	8.308954e+02
1.260000e-06	4.047126e-06	1.273773e-08	2.819058e+01	8.379277e+02
1.270000e-06	4.117441e-06	1.283872e-08	2.868036e+01	8.447610e+02
1.280000e-06	4.186397e-06	1.293534e-08	2.916068e+01	8.513679e+02
1.290000e-06	4.253948e-06	1.303049e-08	2.963121e+01	8.576810e+02
1.300000e-06	4.319818e-06	1.312261e-08	3.009004e+01	8.636356e+02
1.310000e-06	4.384078e-06	1.320891e-08	3.053764e+01	8.692082e+02
1.320000e-06	4.446878e-06	1.328846e-08	3.097508e+01	8.744338e+02
1.330000e-06	4.508265e-06	1.336432e-08	3.140268e+01	8.793952e+02
1.340000e-06	4.568257e-06	1.343984e-08	3.182056e+01	8.841897e+02
1.350000e-06	4.626481e-06	1.351343e-08	3.222612e+01	8.888911e+02
1.360000e-06	4.682871e-06	1.358295e-08	3.261891e+01	8.935211e+02
1.370000e-06	4.737633e-06	1.364979e-08	3.300036e+01	8.980442e+02
1.380000e-06	4.790620e-06	1.371416e-08	3.336944e+01	9.023871e+02
1.390000e-06	4.841569e-06	1.377482e-08	3.372434e+01	9.064727e+02
1.400000e-06	4.890557e-06	1.383199e-08	3.406557e+01	9.102543e+02
1.410000e-06	4.937803e-06	1.388574e-08	3.439466e+01	9.137349e+02
1.420000e-06	4.983388e-06	1.393464e-08	3.471218e+01	9.169640e+02
1.430000e-06	5.027325e-06	1.398199e-08	3.501823e+01	9.200147e+02
1.440000e-06	5.069314e-06	1.402913e-08	3.531071e+01	9.229517e+02
1.450000e-06	5.109435e-06	1.407409e-08	3.559018e+01	9.258052e+02
1.460000e-06	5.147925e-06	1.411581e-08	3.585828e+01	9.285607e+02
1.470000e-06	5.184720e-06	1.415441e-08	3.611458e+01	9.311694e+02
1.480000e-06	5.219612e-06	1.419203e-08	3.635762e+01	9.335740e+02
1.490000e-06	5.252534e-06	1.422674e-08	3.658694e+01	9.357362e+02
1.500000e-06	5.283685e-06	1.425772e-08	3.680393e+01	9.376551e+02
1.510000e-06	5.313143e-06	1.428583e-08	3.700912e+01	9.393685e+02
1.520000e-06	5.340782e-06	1.431148e-08	3.720164e+01	9.409363e+02
1.530000e-06	5.366308e-06	1.433446e-08	3.737945e+01	9.424148e+02
1.540000e-06	5.389830e-06	1.435586e-08	3.754329e+01	9.438332e+02
1.550000e-06	5.411627e-06	1.437748e-08	3.769512e+01	9.451834e+02
1.560000e-06	5.431732e-06	1.439828e-08	3.783516e+01	9.464265e+02
1.570000e-06	5.449877e-06	1.441723e-08	3.796155e+01	9.475122e+02
1.580000e-06	5.465947e-06	1.443279e-08	3.807349e+01	9.484035e+02
1.590000e-06	5.480069e-06	1.444388e-08	3.817186e+01	9.490934e+02
1.600000e-06	5.492048e-06	1.445407e-08	3.825530e+01	9.496079e+02
1.610000e-06	5.501757e-06	1.446324e-08	3.832293e+01	9.499933e+02
1.620000e-06	5.509433e-06	1.446825e-08	3.837640e+01	9.502945e+02
1.630000e-06	5.515336e-06	1.447212e-08	3.841752e+01	9.505352e+02
1.640000e-06	5.519413e-06	1.447751e-08	3.844591e+01	9.507083e+02
1.650000e-06	5.521406e-06	1.448404e-08	3.845979e+01	9.507809e+02
1.660000e-06	5.521436e-06	1.448492e-08	3.846000e+01	9.507124e+02
1.670000e-06	5.519774e-06	1.447567e-08	3.844843e+01	9.504750e+02
1.680000e-06	5.516431e-06	1.447032e-08	3.842514e+01	9.500686e+02
1.690000e-06	5.511135e-06	1.446671e-08	3.838825e+01	9.495211e+02
1.700000e-06	5.503930e-06	1.445972e-08	3.833806e+01	9.488746e+02
1.710000e-06	5.495113e-06	1.444965e-08	3.827665e+01	9.481634e+02
1.720000e-06	5.484585e-06	1.444260e-08	3.820332e+01	9.473948e+02
1.730000e-06	5.472035e-06	1.445091e-08	3.811589e+01	9.465418e+02
1.740000e-06	5.457479e-06	1.438883e-08	3.801450e+01	9.455532e+02
1.750000e-06	5.440916e-06	1.430493e-08	3.789914e+01	9.443767e+02
1.760000e-06	5.421721e-06	1.431577e-08	3.776543e+01	9.429858e+02
1.770000e-06	5.399720e-06	1.431315e-08	3.761218e+01	9.413982e+02
1.780000e-06	5.375760e-06	1.437084e-08	3.744529e+01	9.396754e+02
1.790000e-06	5.350892e-06	1.434532e-08	3.727207e+01	9.379028e+02
1.800000e-06	5.325219e-06	1.416196e-08	3.709324e+01	9.361566e+02
1.810000e-06	5.297522e-06	1.427439e-08	3.690031e+01	9.344706e+02
1.820000e-06	5.267480e-06	1.428253e-08	3.669105e+01	9.328172e+02
1.830000e-06	5.235942e-06	1.413356e-08	3.647137e+01	9.311116e+02
1.840000e-06	5.202629e-06	1.426688e-08	3.623933e+01	9.292380e+02
1.850000e-06	5.167519e-06	1.416361e-08	3.599477e+01	9.270893e+02
1.860000e-06	5.130694e-06	1.406132e-08	3.573826e+01	9.246046e+02
1.870000e-06	5.091718e-06	1.419577e-08	3.546677e+01	9.217891e+02
1.880000e-06	5.051054e-06	1.404890e-08	3.518352e+01	9.187102e+02
1.890000e-06	5.008793e-06	1.401545e-08	3.488915e+01	9.154697e+02
1.900000e-06	4.964603e-06	1.397655e-08	3.458133e+01	9.121643e+02
1.910000e-06	4.918656e-06	1.380629e-08	3.426129e+01	9.088510e+02
1.920000e-06	4.870792e-06	1.387886e-08	3.392789e+01	9.055294e+02
1.930000e-06	4.821126e-06	1.375202e-08	3.358194e+01	9.021488e+02
1.940000e-06	4.769717e-06	1.371785e-08	3.322384e+01	8.986346e+02
1.950000e-06	4.716206e-06	1.375809e-08	3.285111e+01	8.949234e+02
1.960000e-06	4.660919e-06	1.360460e-08	3.246600e+01	8.909901e+02
1.970000e-06	4.603956e-06	1.358324e-08	3.206922e+01	8.868565e+02
1.980000e-06	4.545422e-06	1.344104e-08	3.166150e+01	8.825778e+02
1.990000e-06	4.485329e-06	1.338905e-08	3.124291e+01	8.782142e+02
2.000000e-06	4.423434e-06	1.337241e-08	3.081178e+01	8.737999e+02
2.010000e-06	4.359953e-06	1.326703e-08	3.036960e+01	8.693254e+02
2.020000e-06	4.294920e-06	1.327419e-08	2.991661e+01	8.647392e+02
2.030000e-06	4.228522e-06	1.313583e-08	2.945411e+01	8.599698e+02
2.040000e-06	4.160575e-06	1.307771e-08	2.898082e+01	8.549577e+02
2.050000e-06	4.090811e-06	1.299135e-08	2.849487e+01	8.496825e+02
2.060000e-06	4.019609e-06	1.286636e-08	2.799891e+01	8.441736e+02
2.070000e-06	3.947061e-06	1.282922e-08	2.749357e+01	8.384976e+02
2.080000e-06	3.873140e-06	1.271132e-08	2.697867e+01	8.327291e+02
2.090000e-06	3.797593e-06	1.267016e-08	2.645244e+01	8.269165e+02
2.100000e-06	3.720333e-06	1.255427e-08	2.591428e+01	8.210575e+02
2.110000e-06	3.641658e-06	1.245443e-08	2.536626e+01	8.150972e+02
2.120000e-06	3.561748e-06	1.237146e-08	2.480964e+01	8.089482e+02
2.130000e-06	3.480687e-06	1.224720e-08	2.424500e+01	8.025263e+02
2.140000e-06	3.398495e-06	1.217180e-08	2.367249e+01	7.957852e+02
2.150000e-06	3.315163e-06	1.204390e-08	2.309203e+01	7.887358e+02
2.160000e-06	3.230447e-06	1.194937e-08	2.250193e+01	7.814403e+02
2.170000e-06	3.144435e-06	1.183530e-08	2.190281e+01	7.739847e+02
2.180000e-06	3.057382e-06	1.172340e-08	2.129644e+01	7.664401e+02
2.190000e-06	2.969302e-06	1.161071e-08	2.068291e+01	7.588296e+02
2.200000e-06	2.880240e-06	1.148000e-08	2.006254e+01	7.511166e+02
2.210000e-06	2.790222e-06	1.135956e-08	1.943551e+01	7.432190e+02
2.220000e-06	2.699385e-06	1.122419e-08	1.880278e+01	7.350432e+02
2.230000e-06	2.607596e-06	1.110221e-08	1.816342e+01	7.265238e+02
2.240000e-06	2.514689e-06	1.096276e-08	1.751627e+01	7.176506e+02
2.250000e-06	2.420835e-06	1.082968e-08	1.686252e+01	7.084707e+02
2.260000e-06	2.326152e-06	1.068952e-08	1.620300e+01	6.990636e+02
2.270000e-06	2.230616e-06	1.055061e-08	1.553754e+01	6.895010e+02
2.280000e-06	2.134276e-06	1.040407e-08	1.486647e+01	6.798075e+02
2.290000e-06	2.037260e-06	1.024365e-08	1.419069e+01	6.699419e+02
2.300000e-06	1.939552e-06	1.008742e-08	1.351010e+01	6.598075e+02
2.310000e-06	1.841288e-06	9.925154e-09	1.282564e+01	6.492882e+02
2.320000e-06	1.742587e-06	9.760721e-09	1.213813e+01	6.382960e+02
2.330000e-06	1.643265e-06	9.580421e-09	1.144629e+01	6.268069e+02
2.340000e-06	1.543230e-06	9.406478e-09	1.074949e+01	6.148700e+02
2.350000e-06	1.442494e-06	9.229587e-09	1.004780e+01	6.025828e+02
2.360000e-06	1.341155e-06	9.040870e-09	9.341920e+00	5.900416e+02
2.370000e-06	1.239300e-06	8.841677e-09	8.632442e+00	5.772897e+02
2.380000e-06	1.136999e-06	8.635498e-09	7.919860e+00	5.642846e+02
2.390000e-06	1.034340e-06	8.431445e-09	7.204776e+00	5.509020e+02
2.400000e-06	9.312729e-07	8.217385e-09	6.486856e+00	5.369768e+02
2.410000e-06	8.277989e-07	7.991923e-09	5.766099e+00	5.223645e+02
2.420000e-06	7.240478e-07	7.755027e-09	5.043412e+00	5.069965e+02
2.430000e-06	6.200385e-07	7.511860e-09	4.318927e+00	4.909029e+02
2.440000e-06	5.158113e-07	7.265315e-09	3.592925e+00	4.741904e+02
2.450000e-06	4.114586e-07	7.011017e-09	2.866047e+00	4.569798e+02
2.460000e-06	3.069769e-07	6.741881e-09	2.138272e+00	4.393288e+02
2.470000e-06	2.024329e-07	6.459812e-09	1.410062e+00	4.211744e+02
2.480000e-06	9.783054e-08	6.167550e-09	6.814465e-01	4.023229e+02
2.490000e-06	-6.799929e-09	5.860589e-09	-4.736545e-02	3.824963e+02
2.500000e-06	-1.113783e-07	5.531935e-09	-7.758141e-01	3.614210e+02
2.510000e-06	-2.159181e-07	5.184220e-09	-1.503995e+00	3.389191e+02
2.520000e-06	-3.203944e-07	4.827321e-09	-2.231733e+00	3.149596e+02
2.530000e-06	-4.247676e-07	4.456912e-09	-2.958752e+00	2.896330e+02
2.540000e-06	-5.290314e-07	4.062152e-09	-3.685010e+00	2.630468e+02
2.550000e-06	-6.330909e-07	3.636687e-09	-4.409845e+00	2.351687e+02
2.560000e-06	-7.369131e-07	3.178561e-09	-5.133027e+00	2.056766e+02
2.570000e-06	-8.404879e-07	2.682863e-09	-5.854485e+00	1.738823e+02
2.580000e-06	-9.436828e-07	2.140533e-09	-6.573298e+00	1.387801e+02
2.590000e-06	-1.046439e-06	1.539725e-09	-7.289051e+00	9.923542e+01
2.600000e-06	-1.148765e-06	8.669171e-10	-8.001817e+00	5.427821e+01
2.610000e-06	-1.250708e-06	1.111786e-10	-8.711905e+00	3.427163e+00
2.620000e-06	-1.352183e-06	-7.303488e-10	-9.418739e+00	-5.305275e+01
2.630000e-06	-1.453108e-06	-1.654242e-09	-1.012174e+01	-1.140437e+02
2.640000e-06	-1.553418e-06	-2.638880e-09	-1.082045e+01	-1.776660e+02
2.650000e-06	-1.652962e-06	-3.635033e-09	-1.151384e+01	-2.415561e+02
2.660000e-06	-1.751825e-06	-4.589254e-09	-1.220248e+01	-3.032656e+02
2.670000e-06	-1.850198e-06	-5.468593e-09	-1.288770e+01	-3.606801e+02
2.680000e-06	-1.948064e-06	-6.256776e-09	-1.356940e+01	-4.123495e+02
2.690000e-06	-2.045256e-06	-6.947484e-09	-1.424639e+01	-4.576519e+02
2.700000e-06	-2.141738e-06	-7.547205e-09	-1.491845e+01	-4.967603e+02
2.710000e-06	-2.237514e-06	-8.069050e-09	-1.558558e+01	-5.304427e+02
2.720000e-06	-2.332625e-06	-8.528911e-09	-1.624808e+01	-5.597669e+02
2.730000e-06	-2.427072e-06	-8.939278e-09	-1.690596e+01	-5.858013e+02
2.740000e-06	-2.520630e-06	-9.306541e-09	-1.755765e+01	-6.093948e+02
2.750000e-06	-2.613047e-06	-9.637356e-09	-1.820138e+01	-6.310784e+02
2.760000e-06	-2.704337e-06	-9.940278e-09	-1.883727e+01	-6.510920e+02
2.770000e-06	-2.794684e-06	-1.021915e-08	-1.946659e+01	-6.694957e+02
2.780000e-06	-2.884066e-06	-1.047450e-08	-2.008919e+01	-6.863076e+02
2.790000e-06	-2.972400e-06	-1.070938e-08	-2.070449e+01	-7.016116e+02
2.800000e-06	-3.059777e-06	-1.092778e-08	-2.131312e+01	-7.155987e+02
2.810000e-06	-3.146219e-06	-1.113268e-08	-2.191524e+01	-7.285414e+02
2.820000e-06	-3.231433e-06	-1.132433e-08	-2.250880e+01	-7.407220e+02
2.830000e-06	-3.315245e-06	-1.150369e-08	-2.309261e+01	-7.523557e+02
2.840000e-06	-3.397920e-06	-1.167358e-08	-2.366849e+01	-7.635426e+02
2.850000e-06	-3.479579e-06	-1.183500e-08	-2.423728e+01	-7.742679e+02
2.860000e-06	-3.560085e-06	-1.198686e-08	-2.479806e+01	-7.844454e+02
2.870000e-06	-3.639383e-06	-1.212811e-08	-2.535041e+01	-7.939839e+02
2.880000e-06	-3.717308e-06	-1.226155e-08	-2.589320e+01	-8.028461e+02
2.890000e-06	-3.793616e-06	-1.239065e-08	-2.642474e+01	-8.110760e+02
2.900000e-06	-3.868371e-06	-1.251516e-08	-2.694545e+01	-8.187880e+02
2.910000e-06	-3.941724e-06	-1.263043e-08	-2.745639e+01	-8.261241e+02
2.920000e-06	-4.013714e-06	-1.273608e-08	-2.795785e+01	-8.332023e+02
2.930000e-06	-4.084395e-06	-1.283846e-08	-2.845018e+01	-8.400790e+02
2.940000e-06	-4.153527e-06	-1.294013e-08	-2.893172e+01	-8.467399e+02
