# Temperatura_=_61.86
# Concentracion g/m^3_=_13400.0
# C_Vs_to_Am_M_A/Vsm_=_65563218390.804596
# pendiente_HvsI_1/m_=_3716.3
# ordenada_HvsI_A/m_=_1297.0
# frecuencia_Hz_=_300798.6928931833

Tiempo_(s)	Campo_(V.s)	Magnetizacion_(V.s)	Campo_(kA/m)	Magnetizacion_(A/m)
0.000000e+00	-5.496939e-06	-1.453712e-08	-3.831146e+01	-9.539796e+02
1.000000e-08	-5.495034e-06	-1.453238e-08	-3.829818e+01	-9.537031e+02
2.000000e-08	-5.491164e-06	-1.452421e-08	-3.827121e+01	-9.532768e+02
3.000000e-08	-5.485536e-06	-1.451783e-08	-3.823198e+01	-9.527142e+02
4.000000e-08	-5.478277e-06	-1.451024e-08	-3.818139e+01	-9.520397e+02
5.000000e-08	-5.469294e-06	-1.449653e-08	-3.811879e+01	-9.512746e+02
6.000000e-08	-5.458263e-06	-1.447825e-08	-3.804190e+01	-9.504237e+02
7.000000e-08	-5.445218e-06	-1.445208e-08	-3.795099e+01	-9.494704e+02
8.000000e-08	-5.430174e-06	-1.444275e-08	-3.784614e+01	-9.483833e+02
9.000000e-08	-5.412759e-06	-1.447578e-08	-3.772476e+01	-9.471314e+02
1.000000e-07	-5.393093e-06	-1.446057e-08	-3.758769e+01	-9.457029e+02
1.100000e-07	-5.371453e-06	-1.440699e-08	-3.743687e+01	-9.441160e+02
1.200000e-07	-5.348033e-06	-1.437271e-08	-3.727364e+01	-9.424176e+02
1.300000e-07	-5.323206e-06	-1.428925e-08	-3.710061e+01	-9.406677e+02
1.400000e-07	-5.296889e-06	-1.428258e-08	-3.691719e+01	-9.389153e+02
1.500000e-07	-5.268661e-06	-1.431845e-08	-3.672045e+01	-9.371758e+02
1.600000e-07	-5.238662e-06	-1.420045e-08	-3.651137e+01	-9.354195e+02
1.700000e-07	-5.207182e-06	-1.419754e-08	-3.629197e+01	-9.335771e+02
1.800000e-07	-5.173812e-06	-1.423337e-08	-3.605939e+01	-9.315614e+02
1.900000e-07	-5.138372e-06	-1.412448e-08	-3.581239e+01	-9.292963e+02
2.000000e-07	-5.101344e-06	-1.411211e-08	-3.555432e+01	-9.267425e+02
2.100000e-07	-5.062581e-06	-1.405023e-08	-3.528416e+01	-9.239099e+02
2.200000e-07	-5.021992e-06	-1.394963e-08	-3.500127e+01	-9.208503e+02
2.300000e-07	-4.979494e-06	-1.395878e-08	-3.470508e+01	-9.176355e+02
2.400000e-07	-4.934983e-06	-1.391974e-08	-3.439485e+01	-9.143286e+02
2.500000e-07	-4.888774e-06	-1.388767e-08	-3.407280e+01	-9.109612e+02
2.600000e-07	-4.840802e-06	-1.384780e-08	-3.373845e+01	-9.075251e+02
2.700000e-07	-4.790816e-06	-1.376475e-08	-3.339006e+01	-9.039818e+02
2.800000e-07	-4.738736e-06	-1.372056e-08	-3.302709e+01	-9.002846e+02
2.900000e-07	-4.684719e-06	-1.363126e-08	-3.265061e+01	-8.964024e+02
3.000000e-07	-4.629060e-06	-1.355124e-08	-3.226269e+01	-8.923356e+02
3.100000e-07	-4.571733e-06	-1.350610e-08	-3.186315e+01	-8.881152e+02
3.200000e-07	-4.512583e-06	-1.347259e-08	-3.145089e+01	-8.837873e+02
3.300000e-07	-4.451777e-06	-1.343572e-08	-3.102710e+01	-8.793885e+02
3.400000e-07	-4.389509e-06	-1.334461e-08	-3.059312e+01	-8.749262e+02
3.500000e-07	-4.325809e-06	-1.326674e-08	-3.014915e+01	-8.703705e+02
3.600000e-07	-4.260614e-06	-1.317141e-08	-2.969477e+01	-8.656644e+02
3.700000e-07	-4.193768e-06	-1.308666e-08	-2.922888e+01	-8.607477e+02
3.800000e-07	-4.125238e-06	-1.302896e-08	-2.875125e+01	-8.555829e+02
3.900000e-07	-4.055203e-06	-1.294442e-08	-2.826314e+01	-8.501738e+02
4.000000e-07	-3.983924e-06	-1.287672e-08	-2.776635e+01	-8.445647e+02
4.100000e-07	-3.911410e-06	-1.279553e-08	-2.726096e+01	-8.388225e+02
4.200000e-07	-3.837385e-06	-1.270373e-08	-2.674503e+01	-8.330068e+02
4.300000e-07	-3.761640e-06	-1.260324e-08	-2.621712e+01	-8.271414e+02
4.400000e-07	-3.684301e-06	-1.250232e-08	-2.567810e+01	-8.212007e+02
4.500000e-07	-3.605471e-06	-1.242232e-08	-2.512869e+01	-8.151169e+02
4.600000e-07	-3.525107e-06	-1.232885e-08	-2.456858e+01	-8.088058e+02
4.700000e-07	-3.443351e-06	-1.222863e-08	-2.399878e+01	-8.022013e+02
4.800000e-07	-3.360422e-06	-1.211941e-08	-2.342080e+01	-7.952825e+02
4.900000e-07	-3.276453e-06	-1.200957e-08	-2.283556e+01	-7.880832e+02
5.000000e-07	-3.191523e-06	-1.190229e-08	-2.224364e+01	-7.806759e+02
5.100000e-07	-3.105659e-06	-1.178609e-08	-2.164520e+01	-7.731406e+02
5.200000e-07	-3.018810e-06	-1.167282e-08	-2.103990e+01	-7.655269e+02
5.300000e-07	-2.931012e-06	-1.155817e-08	-2.042798e+01	-7.578308e+02
5.400000e-07	-2.842230e-06	-1.143869e-08	-1.980920e+01	-7.499925e+02
5.500000e-07	-2.752360e-06	-1.130855e-08	-1.918284e+01	-7.419202e+02
5.600000e-07	-2.661382e-06	-1.117231e-08	-1.854877e+01	-7.335279e+02
5.700000e-07	-2.569303e-06	-1.103802e-08	-1.790701e+01	-7.247728e+02
5.800000e-07	-2.476311e-06	-1.090510e-08	-1.725889e+01	-7.156730e+02
5.900000e-07	-2.382571e-06	-1.077295e-08	-1.660556e+01	-7.062992e+02
6.000000e-07	-2.288016e-06	-1.063281e-08	-1.594656e+01	-6.967414e+02
6.100000e-07	-2.192692e-06	-1.048406e-08	-1.528218e+01	-6.870644e+02
6.200000e-07	-2.096620e-06	-1.032869e-08	-1.461260e+01	-6.772725e+02
6.300000e-07	-1.999794e-06	-1.016910e-08	-1.393776e+01	-6.672986e+02
6.400000e-07	-1.902228e-06	-1.000899e-08	-1.325777e+01	-6.570248e+02
6.500000e-07	-1.803835e-06	-9.845582e-09	-1.257201e+01	-6.463261e+02
6.600000e-07	-1.704675e-06	-9.677598e-09	-1.188090e+01	-6.351199e+02
6.700000e-07	-1.604858e-06	-9.503050e-09	-1.118522e+01	-6.233984e+02
6.800000e-07	-1.504461e-06	-9.320356e-09	-1.048549e+01	-6.112301e+02
6.900000e-07	-1.403548e-06	-9.130560e-09	-9.782165e+00	-5.987259e+02
7.000000e-07	-1.302148e-06	-8.936969e-09	-9.075446e+00	-5.859843e+02
7.100000e-07	-1.200333e-06	-8.737927e-09	-8.365838e+00	-5.730390e+02
7.200000e-07	-1.098152e-06	-8.532350e-09	-7.653682e+00	-5.598313e+02
7.300000e-07	-9.956309e-07	-8.323641e-09	-6.939148e+00	-5.462219e+02
7.400000e-07	-8.927281e-07	-8.107823e-09	-6.221957e+00	-5.320393e+02
7.500000e-07	-7.894415e-07	-7.880186e-09	-5.502090e+00	-5.171440e+02
7.600000e-07	-6.858830e-07	-7.641652e-09	-4.780329e+00	-5.014824e+02
7.700000e-07	-5.821211e-07	-7.397278e-09	-4.057150e+00	-4.851023e+02
7.800000e-07	-4.782018e-07	-7.144816e-09	-3.332875e+00	-4.681225e+02
7.900000e-07	-3.741544e-07	-6.882711e-09	-2.607706e+00	-4.506640e+02
8.000000e-07	-2.699658e-07	-6.609787e-09	-1.881553e+00	-4.327719e+02
8.100000e-07	-1.656811e-07	-6.323106e-09	-1.154731e+00	-4.143626e+02
8.200000e-07	-6.138532e-08	-6.023722e-09	-4.278310e-01	-3.952228e+02
8.300000e-07	4.291094e-08	-5.710032e-09	2.990720e-01	-3.750650e+02
8.400000e-07	1.471957e-07	-5.381831e-09	1.025895e+00	-3.536203e+02
8.500000e-07	2.514021e-07	-5.039877e-09	1.752172e+00	-3.307274e+02
8.600000e-07	3.555433e-07	-4.679963e-09	2.477994e+00	-3.063731e+02
8.700000e-07	4.596430e-07	-4.294594e-09	3.203527e+00	-2.806534e+02
8.800000e-07	5.636381e-07	-3.880606e-09	3.928331e+00	-2.536570e+02
8.900000e-07	6.674598e-07	-3.440439e-09	4.651927e+00	-2.253042e+02
9.000000e-07	7.710358e-07	-2.972460e-09	5.373810e+00	-1.952052e+02
9.100000e-07	8.742924e-07	-2.464459e-09	6.093467e+00	-1.626019e+02
9.200000e-07	9.772275e-07	-1.903452e-09	6.810883e+00	-1.264430e+02
9.300000e-07	1.079811e-06	-1.278513e-09	7.525852e+00	-8.559651e+01
9.400000e-07	1.182044e-06	-5.780920e-10	8.238374e+00	-3.915905e+01
9.500000e-07	1.283935e-06	2.107617e-10	8.948512e+00	1.322193e+01
9.600000e-07	1.385404e-06	1.094839e-09	9.655711e+00	7.110941e+01
9.700000e-07	1.486394e-06	2.056322e-09	1.035957e+01	1.332038e+02
9.800000e-07	1.586839e-06	3.053645e-09	1.105963e+01	1.974733e+02
9.900000e-07	1.686714e-06	4.036918e-09	1.175572e+01	2.614668e+02
1.000000e-06	1.786054e-06	4.965621e-09	1.244808e+01	3.227333e+02
1.010000e-06	1.884749e-06	5.811884e-09	1.313595e+01	3.792414e+02
1.020000e-06	1.982556e-06	6.558804e-09	1.381762e+01	4.296902e+02
1.030000e-06	2.079439e-06	7.208145e-09	1.449285e+01	4.736384e+02
1.040000e-06	2.175577e-06	7.773591e-09	1.516290e+01	5.114328e+02
1.050000e-06	2.271001e-06	8.270777e-09	1.582797e+01	5.439742e+02
1.060000e-06	2.365682e-06	8.709664e-09	1.648785e+01	5.724012e+02
1.070000e-06	2.459644e-06	9.099269e-09	1.714273e+01	5.977889e+02
1.080000e-06	2.552813e-06	9.452155e-09	1.779208e+01	6.209417e+02
1.090000e-06	2.645123e-06	9.776017e-09	1.843544e+01	6.423185e+02
1.100000e-06	2.736466e-06	1.007068e-08	1.907207e+01	6.620856e+02
1.110000e-06	2.826633e-06	1.033641e-08	1.970050e+01	6.802496e+02
1.120000e-06	2.915645e-06	1.058093e-08	2.032087e+01	6.968057e+02
1.130000e-06	3.003674e-06	1.080869e-08	2.093440e+01	7.118439e+02
1.140000e-06	3.090723e-06	1.102094e-08	2.154110e+01	7.255810e+02
1.150000e-06	3.176737e-06	1.121872e-08	2.214058e+01	7.383192e+02
1.160000e-06	3.261719e-06	1.140374e-08	2.273287e+01	7.503610e+02
1.170000e-06	3.345703e-06	1.158092e-08	2.331821e+01	7.619241e+02
1.180000e-06	3.428511e-06	1.175243e-08	2.389535e+01	7.730926e+02
1.190000e-06	3.510003e-06	1.191298e-08	2.446331e+01	7.838229e+02
1.200000e-06	3.590234e-06	1.206086e-08	2.502249e+01	7.939981e+02
1.210000e-06	3.669164e-06	1.220137e-08	2.557260e+01	8.035045e+02
1.220000e-06	3.746784e-06	1.233781e-08	2.611358e+01	8.122970e+02
1.230000e-06	3.823049e-06	1.246591e-08	2.664512e+01	8.204280e+02
1.240000e-06	3.897772e-06	1.258422e-08	2.716590e+01	8.280322e+02
1.250000e-06	3.970894e-06	1.269870e-08	2.767554e+01	8.352763e+02
1.260000e-06	4.042566e-06	1.281027e-08	2.817506e+01	8.422987e+02
1.270000e-06	4.112869e-06	1.291602e-08	2.866505e+01	8.491648e+02
1.280000e-06	4.181794e-06	1.301442e-08	2.914543e+01	8.558563e+02
1.290000e-06	4.249302e-06	1.310735e-08	2.961593e+01	8.622959e+02
1.300000e-06	4.315190e-06	1.319653e-08	3.007514e+01	8.683945e+02
1.310000e-06	4.379464e-06	1.328487e-08	3.052311e+01	8.740998e+02
1.320000e-06	4.442323e-06	1.337092e-08	3.096121e+01	8.794247e+02
1.330000e-06	4.503748e-06	1.345098e-08	3.138932e+01	8.844455e+02
1.340000e-06	4.563676e-06	1.352622e-08	3.180699e+01	8.892718e+02
1.350000e-06	4.621933e-06	1.360023e-08	3.221302e+01	8.940019e+02
1.360000e-06	4.678436e-06	1.367299e-08	3.260682e+01	8.986849e+02
1.370000e-06	4.733261e-06	1.374130e-08	3.298893e+01	9.033042e+02
1.380000e-06	4.786280e-06	1.380484e-08	3.335845e+01	9.077882e+02
1.390000e-06	4.837269e-06	1.386661e-08	3.371382e+01	9.120433e+02
1.400000e-06	4.886264e-06	1.392696e-08	3.405530e+01	9.159940e+02
1.410000e-06	4.933507e-06	1.398276e-08	3.438456e+01	9.196129e+02
1.420000e-06	4.979113e-06	1.403282e-08	3.470242e+01	9.229289e+02
1.430000e-06	5.023039e-06	1.408090e-08	3.500856e+01	9.260124e+02
1.440000e-06	5.065045e-06	1.412910e-08	3.530133e+01	9.289440e+02
1.450000e-06	5.105192e-06	1.417440e-08	3.558114e+01	9.317822e+02
1.460000e-06	5.143705e-06	1.421615e-08	3.584956e+01	9.345425e+02
1.470000e-06	5.180515e-06	1.425639e-08	3.610611e+01	9.371970e+02
1.480000e-06	5.215412e-06	1.429468e-08	3.634933e+01	9.396920e+02
1.490000e-06	5.248366e-06	1.432842e-08	3.657901e+01	9.419759e+02
1.500000e-06	5.279555e-06	1.435941e-08	3.679638e+01	9.440232e+02
1.510000e-06	5.309075e-06	1.438921e-08	3.700212e+01	9.458456e+02
1.520000e-06	5.336828e-06	1.441706e-08	3.719555e+01	9.474861e+02
1.530000e-06	5.362470e-06	1.444286e-08	3.737426e+01	9.489986e+02
1.540000e-06	5.386045e-06	1.446702e-08	3.753857e+01	9.504252e+02
1.550000e-06	5.407857e-06	1.448895e-08	3.769060e+01	9.517786e+02
1.560000e-06	5.427922e-06	1.450761e-08	3.783044e+01	9.530397e+02
1.570000e-06	5.446081e-06	1.452518e-08	3.795700e+01	9.541686e+02
1.580000e-06	5.462208e-06	1.454164e-08	3.806940e+01	9.551246e+02
1.590000e-06	5.476359e-06	1.455577e-08	3.816802e+01	9.558848e+02
1.600000e-06	5.488390e-06	1.456801e-08	3.825188e+01	9.564539e+02
1.610000e-06	5.498178e-06	1.457692e-08	3.832009e+01	9.568601e+02
1.620000e-06	5.505985e-06	1.458328e-08	3.837451e+01	9.571421e+02
1.630000e-06	5.512023e-06	1.458893e-08	3.841659e+01	9.573310e+02
1.640000e-06	5.516175e-06	1.459282e-08	3.844553e+01	9.574378e+02
1.650000e-06	5.518198e-06	1.459415e-08	3.845963e+01	9.574516e+02
1.660000e-06	5.518252e-06	1.459134e-08	3.846000e+01	9.573477e+02
1.670000e-06	5.516598e-06	1.458402e-08	3.844847e+01	9.571027e+02
1.680000e-06	5.513257e-06	1.458006e-08	3.842519e+01	9.567073e+02
1.690000e-06	5.508017e-06	1.457408e-08	3.838867e+01	9.561715e+02
1.700000e-06	5.500869e-06	1.456441e-08	3.833885e+01	9.555182e+02
1.710000e-06	5.492118e-06	1.455631e-08	3.827786e+01	9.547709e+02
1.720000e-06	5.481714e-06	1.455210e-08	3.820535e+01	9.539385e+02
1.730000e-06	5.469284e-06	1.455630e-08	3.811872e+01	9.530089e+02
1.740000e-06	5.454832e-06	1.450003e-08	3.801799e+01	9.519528e+02
1.750000e-06	5.438409e-06	1.442153e-08	3.790353e+01	9.507375e+02
1.760000e-06	5.419349e-06	1.442096e-08	3.777069e+01	9.493458e+02
1.770000e-06	5.397453e-06	1.442157e-08	3.761808e+01	9.477892e+02
1.780000e-06	5.373552e-06	1.446293e-08	3.745150e+01	9.461091e+02
1.790000e-06	5.348642e-06	1.443776e-08	3.727789e+01	9.443648e+02
1.800000e-06	5.322908e-06	1.429521e-08	3.709853e+01	9.426097e+02
1.810000e-06	5.295243e-06	1.436207e-08	3.690572e+01	9.408678e+02
1.820000e-06	5.265273e-06	1.437249e-08	3.669684e+01	9.391192e+02
1.830000e-06	5.233785e-06	1.426977e-08	3.647738e+01	9.373018e+02
1.840000e-06	5.200534e-06	1.435456e-08	3.624563e+01	9.353299e+02
1.850000e-06	5.165491e-06	1.427147e-08	3.600140e+01	9.331225e+02
1.860000e-06	5.128733e-06	1.418316e-08	3.574521e+01	9.306309e+02
1.870000e-06	5.089805e-06	1.426456e-08	3.547390e+01	9.278543e+02
1.880000e-06	5.049163e-06	1.414498e-08	3.519064e+01	9.248369e+02
1.890000e-06	5.006981e-06	1.411405e-08	3.489665e+01	9.216488e+02
1.900000e-06	4.962915e-06	1.407996e-08	3.458953e+01	9.183570e+02
1.910000e-06	4.917078e-06	1.393233e-08	3.427006e+01	9.150014e+02
1.920000e-06	4.869334e-06	1.396767e-08	3.393730e+01	9.115819e+02
1.930000e-06	4.819771e-06	1.385641e-08	3.359187e+01	9.080650e+02
1.940000e-06	4.768434e-06	1.380902e-08	3.323407e+01	9.044037e+02
1.950000e-06	4.714943e-06	1.383491e-08	3.286126e+01	9.005617e+02
1.960000e-06	4.659619e-06	1.369923e-08	3.247567e+01	8.965322e+02
1.970000e-06	4.602647e-06	1.365948e-08	3.207860e+01	8.923405e+02
1.980000e-06	4.544171e-06	1.354202e-08	3.167105e+01	8.880312e+02
1.990000e-06	4.484140e-06	1.348289e-08	3.125265e+01	8.836452e+02
2.000000e-06	4.422279e-06	1.345335e-08	3.082151e+01	8.791972e+02
2.010000e-06	4.358865e-06	1.335391e-08	3.037954e+01	8.746651e+02
2.020000e-06	4.293928e-06	1.334412e-08	2.992696e+01	8.699960e+02
2.030000e-06	4.227603e-06	1.321945e-08	2.946470e+01	8.651282e+02
2.040000e-06	4.159772e-06	1.314869e-08	2.899194e+01	8.600172e+02
2.050000e-06	4.090127e-06	1.306338e-08	2.850654e+01	8.546573e+02
2.060000e-06	4.018979e-06	1.294231e-08	2.801067e+01	8.490852e+02
2.070000e-06	3.946483e-06	1.289883e-08	2.750540e+01	8.433652e+02
2.080000e-06	3.872708e-06	1.278947e-08	2.699122e+01	8.375611e+02
2.090000e-06	3.797405e-06	1.273753e-08	2.646639e+01	8.317062e+02
2.100000e-06	3.720317e-06	1.262673e-08	2.592912e+01	8.257856e+02
2.110000e-06	3.641709e-06	1.251294e-08	2.538125e+01	8.197390e+02
2.120000e-06	3.561875e-06	1.242733e-08	2.482484e+01	8.134827e+02
2.130000e-06	3.480893e-06	1.231114e-08	2.426043e+01	8.069441e+02
2.140000e-06	3.398741e-06	1.223213e-08	2.368786e+01	8.000910e+02
2.150000e-06	3.315486e-06	1.211332e-08	2.310760e+01	7.929460e+02
2.160000e-06	3.230949e-06	1.201275e-08	2.251842e+01	7.855757e+02
2.170000e-06	3.145081e-06	1.189118e-08	2.191995e+01	7.780615e+02
2.180000e-06	3.058075e-06	1.176556e-08	2.131355e+01	7.704623e+02
2.190000e-06	2.970074e-06	1.164845e-08	2.070023e+01	7.627867e+02
2.200000e-06	2.881114e-06	1.152536e-08	2.008021e+01	7.549854e+02
2.210000e-06	2.791194e-06	1.141435e-08	1.945350e+01	7.469707e+02
2.220000e-06	2.700400e-06	1.128691e-08	1.882070e+01	7.386519e+02
2.230000e-06	2.608653e-06	1.115929e-08	1.818126e+01	7.299746e+02
2.240000e-06	2.515865e-06	1.101225e-08	1.753457e+01	7.209435e+02
2.250000e-06	2.422070e-06	1.086668e-08	1.688086e+01	7.116203e+02
2.260000e-06	2.327353e-06	1.071879e-08	1.622072e+01	7.020944e+02
2.270000e-06	2.231841e-06	1.057800e-08	1.555504e+01	6.924396e+02
2.280000e-06	2.135613e-06	1.043526e-08	1.488437e+01	6.826750e+02
2.290000e-06	2.038702e-06	1.028109e-08	1.420894e+01	6.727483e+02
2.300000e-06	1.941117e-06	1.012408e-08	1.352881e+01	6.625493e+02
2.310000e-06	1.842981e-06	9.958363e-09	1.284484e+01	6.519501e+02
2.320000e-06	1.744326e-06	9.791223e-09	1.215726e+01	6.408555e+02
2.330000e-06	1.645039e-06	9.610477e-09	1.146526e+01	6.292404e+02
2.340000e-06	1.545082e-06	9.430430e-09	1.076860e+01	6.171587e+02
2.350000e-06	1.444557e-06	9.243737e-09	1.006798e+01	6.047162e+02
2.360000e-06	1.343490e-06	9.050900e-09	9.363588e+00	5.920192e+02
2.370000e-06	1.241811e-06	8.854430e-09	8.654921e+00	5.791186e+02
2.380000e-06	1.139611e-06	8.650009e-09	7.942631e+00	5.659761e+02
2.390000e-06	1.036960e-06	8.442296e-09	7.227197e+00	5.524665e+02
2.400000e-06	9.339325e-07	8.225802e-09	6.509135e+00	5.384200e+02
2.410000e-06	8.305360e-07	8.000689e-09	5.788502e+00	5.236849e+02
2.420000e-06	7.267827e-07	7.763055e-09	5.065384e+00	5.081861e+02
2.430000e-06	6.228292e-07	7.513446e-09	4.340870e+00	4.919510e+02
2.440000e-06	5.187069e-07	7.257856e-09	3.615179e+00	4.750878e+02
2.450000e-06	4.144133e-07	6.998479e-09	2.888294e+00	4.577238e+02
2.460000e-06	3.100299e-07	6.730389e-09	2.160784e+00	4.399263e+02
2.470000e-06	2.055855e-07	6.451108e-09	1.432848e+00	4.216413e+02
2.480000e-06	1.010570e-07	6.156899e-09	7.043264e-01	4.026803e+02
2.490000e-06	-3.498810e-09	5.847566e-09	-2.438530e-02	3.827649e+02
2.500000e-06	-1.080122e-07	5.521186e-09	-7.528017e-01	3.616137e+02
2.510000e-06	-2.125053e-07	5.175678e-09	-1.481077e+00	3.390367e+02
2.520000e-06	-3.169650e-07	4.812200e-09	-2.209119e+00	3.149893e+02
2.530000e-06	-4.213337e-07	4.432369e-09	-2.936527e+00	2.895516e+02
2.540000e-06	-5.255742e-07	4.035086e-09	-3.663041e+00	2.628266e+02
2.550000e-06	-6.296305e-07	3.609932e-09	-4.388272e+00	2.347846e+02
2.560000e-06	-7.333956e-07	3.150224e-09	-5.111473e+00	2.051106e+02
2.570000e-06	-8.368419e-07	2.651488e-09	-5.832452e+00	1.731242e+02
2.580000e-06	-9.399384e-07	2.107408e-09	-6.550993e+00	1.378234e+02
2.590000e-06	-1.042673e-06	1.507759e-09	-7.267010e+00	9.806981e+01
2.600000e-06	-1.145088e-06	8.351459e-10	-7.980807e+00	5.288279e+01
2.610000e-06	-1.247109e-06	7.505153e-11	-8.691851e+00	1.767379e+00
2.620000e-06	-1.348607e-06	-7.751782e-10	-9.399246e+00	-5.502132e+01
2.630000e-06	-1.449481e-06	-1.708103e-09	-1.010230e+01	-1.163646e+02
2.640000e-06	-1.549680e-06	-2.698851e-09	-1.080065e+01	-1.803666e+02
2.650000e-06	-1.649203e-06	-3.700731e-09	-1.149428e+01	-2.446329e+02
2.660000e-06	-1.748141e-06	-4.659742e-09	-1.218384e+01	-3.066754e+02
2.670000e-06	-1.846588e-06	-5.539115e-09	-1.286998e+01	-3.643415e+02
2.680000e-06	-1.944455e-06	-6.323696e-09	-1.355207e+01	-4.161560e+02
2.690000e-06	-2.041629e-06	-7.013358e-09	-1.422934e+01	-4.614927e+02
2.700000e-06	-2.138126e-06	-7.617272e-09	-1.490188e+01	-5.005449e+02
2.710000e-06	-2.233926e-06	-8.143604e-09	-1.556957e+01	-5.341198e+02
2.720000e-06	-2.329012e-06	-8.602943e-09	-1.623228e+01	-5.633323e+02
2.730000e-06	-2.423367e-06	-9.009212e-09	-1.688989e+01	-5.892929e+02
2.740000e-06	-2.516846e-06	-9.372980e-09	-1.754141e+01	-6.128748e+02
2.750000e-06	-2.609261e-06	-9.701511e-09	-1.818550e+01	-6.346104e+02
2.760000e-06	-2.700553e-06	-1.000245e-08	-1.882177e+01	-6.547194e+02
2.770000e-06	-2.790800e-06	-1.028285e-08	-1.945076e+01	-6.732296e+02
2.780000e-06	-2.880044e-06	-1.054318e-08	-2.007275e+01	-6.901275e+02
2.790000e-06	-2.968350e-06	-1.078194e-08	-2.068821e+01	-7.054774e+02
2.800000e-06	-3.055744e-06	-1.099931e-08	-2.129731e+01	-7.194703e+02
2.810000e-06	-3.142105e-06	-1.120046e-08	-2.189921e+01	-7.323962e+02
2.820000e-06	-3.227266e-06	-1.139068e-08	-2.249275e+01	-7.445655e+02
2.830000e-06	-3.311143e-06	-1.157047e-08	-2.307734e+01	-7.562199e+02
2.840000e-06	-3.393860e-06	-1.174024e-08	-2.365385e+01	-7.674734e+02
2.850000e-06	-3.475457e-06	-1.190199e-08	-2.422254e+01	-7.783066e+02
2.860000e-06	-3.555892e-06	-1.205800e-08	-2.478314e+01	-7.886122e+02
2.870000e-06	-3.635097e-06	-1.220371e-08	-2.533517e+01	-7.982694e+02
2.880000e-06	-3.712921e-06	-1.233697e-08	-2.587757e+01	-8.072144e+02
2.890000e-06	-3.789139e-06	-1.246194e-08	-2.640878e+01	-8.154786e+02
2.900000e-06	-3.863861e-06	-1.258221e-08	-2.692956e+01	-8.231824e+02
2.910000e-06	-3.937281e-06	-1.269699e-08	-2.744127e+01	-8.304908e+02
2.920000e-06	-4.009334e-06	-1.280421e-08	-2.794345e+01	-8.375528e+02
2.930000e-06	-4.080022e-06	-1.290598e-08	-2.843612e+01	-8.444518e+02
2.940000e-06	-4.149187e-06	-1.300742e-08	-2.891817e+01	-8.511865e+02
