# Temperatura_=_65.19
# Concentracion g/m^3_=_13400.0
# C_Vs_to_Am_M_A/Vsm_=_65563218390.804596
# pendiente_HvsI_1/m_=_3716.3
# ordenada_HvsI_A/m_=_1297.0
# frecuencia_Hz_=_300798.9913263777

Tiempo_(s)	Campo_(V.s)	Magnetizacion_(V.s)	Campo_(kA/m)	Magnetizacion_(A/m)
0.000000e+00	-5.492539e-06	-1.465007e-08	-3.830987e+01	-9.606666e+02
1.000000e-08	-5.490882e-06	-1.464201e-08	-3.829832e+01	-9.603124e+02
2.000000e-08	-5.487289e-06	-1.463503e-08	-3.827326e+01	-9.598273e+02
3.000000e-08	-5.481909e-06	-1.462917e-08	-3.823573e+01	-9.592476e+02
4.000000e-08	-5.474874e-06	-1.462158e-08	-3.818666e+01	-9.586047e+02
5.000000e-08	-5.466175e-06	-1.461166e-08	-3.812599e+01	-9.579064e+02
6.000000e-08	-5.455553e-06	-1.459774e-08	-3.805190e+01	-9.571272e+02
7.000000e-08	-5.442884e-06	-1.457739e-08	-3.796354e+01	-9.562152e+02
8.000000e-08	-5.428207e-06	-1.456596e-08	-3.786116e+01	-9.551118e+02
9.000000e-08	-5.411247e-06	-1.456392e-08	-3.774287e+01	-9.537795e+02
1.000000e-07	-5.391955e-06	-1.455024e-08	-3.760832e+01	-9.522248e+02
1.100000e-07	-5.370634e-06	-1.452340e-08	-3.745960e+01	-9.505047e+02
1.200000e-07	-5.347518e-06	-1.448066e-08	-3.729837e+01	-9.487126e+02
1.300000e-07	-5.322908e-06	-1.442462e-08	-3.712672e+01	-9.469461e+02
1.400000e-07	-5.296844e-06	-1.441080e-08	-3.694492e+01	-9.452694e+02
1.500000e-07	-5.268974e-06	-1.438157e-08	-3.675053e+01	-9.436838e+02
1.600000e-07	-5.239315e-06	-1.434154e-08	-3.654366e+01	-9.421208e+02
1.700000e-07	-5.208063e-06	-1.432988e-08	-3.632568e+01	-9.404600e+02
1.800000e-07	-5.174950e-06	-1.429326e-08	-3.609473e+01	-9.385681e+02
1.900000e-07	-5.139809e-06	-1.426144e-08	-3.584962e+01	-9.363437e+02
2.000000e-07	-5.102993e-06	-1.421987e-08	-3.559283e+01	-9.337501e+02
2.100000e-07	-5.064519e-06	-1.414081e-08	-3.532448e+01	-9.308256e+02
2.200000e-07	-5.024217e-06	-1.408128e-08	-3.504338e+01	-9.276648e+02
2.300000e-07	-4.981991e-06	-1.404243e-08	-3.474886e+01	-9.243800e+02
2.400000e-07	-4.937794e-06	-1.401458e-08	-3.444059e+01	-9.210586e+02
2.500000e-07	-4.891864e-06	-1.399750e-08	-3.412023e+01	-9.177315e+02
2.600000e-07	-4.844199e-06	-1.393462e-08	-3.378777e+01	-9.143673e+02
2.700000e-07	-4.794564e-06	-1.387896e-08	-3.344157e+01	-9.108916e+02
2.800000e-07	-4.742831e-06	-1.381855e-08	-3.308074e+01	-9.072236e+02
2.900000e-07	-4.689107e-06	-1.373125e-08	-3.270602e+01	-9.033133e+02
3.000000e-07	-4.633697e-06	-1.365694e-08	-3.231954e+01	-8.991638e+02
3.100000e-07	-4.576698e-06	-1.360041e-08	-3.192198e+01	-8.948286e+02
3.200000e-07	-4.517927e-06	-1.356228e-08	-3.151206e+01	-8.903860e+02
3.300000e-07	-4.457464e-06	-1.351735e-08	-3.109033e+01	-8.859021e+02
3.400000e-07	-4.395489e-06	-1.344981e-08	-3.065807e+01	-8.813989e+02
3.500000e-07	-4.332012e-06	-1.335809e-08	-3.021532e+01	-8.768413e+02
3.600000e-07	-4.267016e-06	-1.326440e-08	-2.976199e+01	-8.721501e+02
3.700000e-07	-4.200395e-06	-1.319211e-08	-2.929731e+01	-8.672348e+02
3.800000e-07	-4.132098e-06	-1.311621e-08	-2.882094e+01	-8.620325e+02
3.900000e-07	-4.062289e-06	-1.303668e-08	-2.833403e+01	-8.565356e+02
4.000000e-07	-3.991133e-06	-1.296393e-08	-2.783773e+01	-8.507956e+02
4.100000e-07	-3.918750e-06	-1.288053e-08	-2.733286e+01	-8.449016e+02
4.200000e-07	-3.844969e-06	-1.278983e-08	-2.681825e+01	-8.389410e+02
4.300000e-07	-3.769506e-06	-1.268409e-08	-2.629190e+01	-8.329607e+02
4.400000e-07	-3.692447e-06	-1.258629e-08	-2.575442e+01	-8.269444e+02
4.500000e-07	-3.613944e-06	-1.250193e-08	-2.520687e+01	-8.208173e+02
4.600000e-07	-3.533944e-06	-1.241148e-08	-2.464888e+01	-8.144761e+02
4.700000e-07	-3.452499e-06	-1.230975e-08	-2.408081e+01	-8.078314e+02
4.800000e-07	-3.369768e-06	-1.219867e-08	-2.350377e+01	-8.008457e+02
4.900000e-07	-3.285935e-06	-1.208797e-08	-2.291905e+01	-7.935480e+02
5.000000e-07	-3.201168e-06	-1.197247e-08	-2.232781e+01	-7.860205e+02
5.100000e-07	-3.115476e-06	-1.185718e-08	-2.173011e+01	-7.783612e+02
5.200000e-07	-3.028819e-06	-1.174282e-08	-2.112569e+01	-7.706391e+02
5.300000e-07	-2.941170e-06	-1.163093e-08	-2.051435e+01	-7.628610e+02
5.400000e-07	-2.852632e-06	-1.151335e-08	-1.989680e+01	-7.549651e+02
5.500000e-07	-2.763137e-06	-1.138244e-08	-1.927258e+01	-7.468450e+02
5.600000e-07	-2.672398e-06	-1.124561e-08	-1.863969e+01	-7.383932e+02
5.700000e-07	-2.580503e-06	-1.110636e-08	-1.799874e+01	-7.295471e+02
5.800000e-07	-2.487781e-06	-1.096988e-08	-1.735201e+01	-7.203152e+02
5.900000e-07	-2.394248e-06	-1.083081e-08	-1.669962e+01	-7.107726e+02
6.000000e-07	-2.299898e-06	-1.068748e-08	-1.604154e+01	-7.010267e+02
6.100000e-07	-2.204776e-06	-1.053858e-08	-1.537807e+01	-6.911668e+02
6.200000e-07	-2.108911e-06	-1.038336e-08	-1.470943e+01	-6.812195e+02
6.300000e-07	-2.012389e-06	-1.022376e-08	-1.403620e+01	-6.711309e+02
6.400000e-07	-1.915120e-06	-1.006018e-08	-1.335776e+01	-6.607823e+02
6.500000e-07	-1.816889e-06	-9.894780e-09	-1.267261e+01	-6.500360e+02
6.600000e-07	-1.717714e-06	-9.724897e-09	-1.198087e+01	-6.387898e+02
6.700000e-07	-1.617892e-06	-9.547503e-09	-1.128462e+01	-6.270174e+02
6.800000e-07	-1.517618e-06	-9.359581e-09	-1.058522e+01	-6.147763e+02
6.900000e-07	-1.416892e-06	-9.166650e-09	-9.882674e+00	-6.021773e+02
7.000000e-07	-1.315664e-06	-8.973025e-09	-9.176613e+00	-5.893288e+02
7.100000e-07	-1.213958e-06	-8.776154e-09	-8.467225e+00	-5.762787e+02
7.200000e-07	-1.111883e-06	-8.572100e-09	-7.755263e+00	-5.629815e+02
7.300000e-07	-1.009460e-06	-8.362509e-09	-7.040874e+00	-5.493043e+02
7.400000e-07	-9.066705e-07	-8.146341e-09	-6.323930e+00	-5.350736e+02
7.500000e-07	-8.034770e-07	-7.917529e-09	-5.604166e+00	-5.201411e+02
7.600000e-07	-6.999657e-07	-7.675351e-09	-4.882186e+00	-5.044421e+02
7.700000e-07	-5.962883e-07	-7.423774e-09	-4.159047e+00	-4.880161e+02
7.800000e-07	-4.924075e-07	-7.167629e-09	-3.434490e+00	-4.709797e+02
7.900000e-07	-3.883617e-07	-6.905257e-09	-2.708782e+00	-4.534584e+02
8.000000e-07	-2.842278e-07	-6.633601e-09	-1.982458e+00	-4.355062e+02
8.100000e-07	-1.800288e-07	-6.348638e-09	-1.255682e+00	-4.170486e+02
8.200000e-07	-7.578591e-08	-6.049823e-09	-5.285987e-01	-3.978767e+02
8.300000e-07	2.849605e-08	-5.735451e-09	1.987569e-01	-3.777010e+02
8.400000e-07	1.327685e-07	-5.404018e-09	9.260461e-01	-3.562448e+02
8.500000e-07	2.369907e-07	-5.056852e-09	1.652985e+00	-3.333363e+02
8.600000e-07	3.411725e-07	-4.692427e-09	2.379642e+00	-3.089544e+02
8.700000e-07	4.452846e-07	-4.306529e-09	3.105813e+00	-2.831940e+02
8.800000e-07	5.492711e-07	-3.893672e-09	3.831107e+00	-2.561510e+02
8.900000e-07	6.530737e-07	-3.455943e-09	4.555120e+00	-2.277604e+02
9.000000e-07	7.566161e-07	-2.989134e-09	5.277316e+00	-1.976487e+02
9.100000e-07	8.598760e-07	-2.479557e-09	5.997544e+00	-1.650704e+02
9.200000e-07	9.628216e-07	-1.916867e-09	6.715578e+00	-1.289764e+02
9.300000e-07	1.065414e-06	-1.291588e-09	7.431150e+00	-8.822314e+01
9.400000e-07	1.167641e-06	-5.916572e-10	8.144170e+00	-4.188107e+01
9.500000e-07	1.269452e-06	1.972246e-10	8.854293e+00	1.043881e+01
9.600000e-07	1.370820e-06	1.080272e-09	9.561324e+00	6.833966e+01
9.700000e-07	1.471721e-06	2.039771e-09	1.026510e+01	1.305573e+02
9.800000e-07	1.572169e-06	3.037583e-09	1.096571e+01	1.950826e+02
9.900000e-07	1.672195e-06	4.027827e-09	1.166338e+01	2.594682e+02
1.000000e-06	1.771674e-06	4.968256e-09	1.235724e+01	3.212465e+02
1.010000e-06	1.870340e-06	5.827491e-09	1.304542e+01	3.783501e+02
1.020000e-06	1.968051e-06	6.584833e-09	1.372695e+01	4.294292e+02
1.030000e-06	2.064914e-06	7.239885e-09	1.440255e+01	4.739892e+02
1.040000e-06	2.161120e-06	7.809842e-09	1.507358e+01	5.123294e+02
1.050000e-06	2.256632e-06	8.312394e-09	1.573977e+01	5.453172e+02
1.060000e-06	2.351352e-06	8.757918e-09	1.640043e+01	5.740783e+02
1.070000e-06	2.445268e-06	9.152785e-09	1.705549e+01	5.996972e+02
1.080000e-06	2.538416e-06	9.507694e-09	1.770518e+01	6.230051e+02
1.090000e-06	2.630855e-06	9.831976e-09	1.834993e+01	6.444985e+02
1.100000e-06	2.722407e-06	1.012805e-08	1.898850e+01	6.643814e+02
1.110000e-06	2.812716e-06	1.039563e-08	1.961839e+01	6.826875e+02
1.120000e-06	2.901802e-06	1.064322e-08	2.023976e+01	6.994228e+02
1.130000e-06	2.989951e-06	1.087534e-08	2.085459e+01	7.146699e+02
1.140000e-06	3.077139e-06	1.109147e-08	2.146272e+01	7.286242e+02
1.150000e-06	3.163261e-06	1.129344e-08	2.206341e+01	7.415611e+02
1.160000e-06	3.248356e-06	1.148080e-08	2.265694e+01	7.537613e+02
1.170000e-06	3.332491e-06	1.165684e-08	2.324377e+01	7.654337e+02
1.180000e-06	3.415461e-06	1.182567e-08	2.382247e+01	7.766707e+02
1.190000e-06	3.497090e-06	1.198831e-08	2.439183e+01	7.874512e+02
1.200000e-06	3.577426e-06	1.214302e-08	2.495217e+01	7.976879e+02
1.210000e-06	3.656459e-06	1.228849e-08	2.550341e+01	8.072930e+02
1.220000e-06	3.734202e-06	1.242430e-08	2.604566e+01	8.162348e+02
1.230000e-06	3.810661e-06	1.255189e-08	2.657895e+01	8.245617e+02
1.240000e-06	3.885608e-06	1.267198e-08	2.710170e+01	8.323880e+02
1.250000e-06	3.958923e-06	1.278669e-08	2.761307e+01	8.398511e+02
1.260000e-06	4.030774e-06	1.289890e-08	2.811422e+01	8.470608e+02
1.270000e-06	4.101244e-06	1.300904e-08	2.860574e+01	8.540652e+02
1.280000e-06	4.170364e-06	1.311216e-08	2.908784e+01	8.608447e+02
1.290000e-06	4.238019e-06	1.320749e-08	2.955973e+01	8.673366e+02
1.300000e-06	4.303983e-06	1.329931e-08	3.001982e+01	8.734761e+02
1.310000e-06	4.368386e-06	1.338724e-08	3.046903e+01	8.792358e+02
1.320000e-06	4.431391e-06	1.346887e-08	3.090848e+01	8.846446e+02
1.330000e-06	4.492999e-06	1.354600e-08	3.133819e+01	8.897806e+02
1.340000e-06	4.553165e-06	1.362445e-08	3.175784e+01	8.947415e+02
1.350000e-06	4.611549e-06	1.370435e-08	3.216507e+01	8.996056e+02
1.360000e-06	4.668103e-06	1.378021e-08	3.255952e+01	9.044027e+02
1.370000e-06	4.723019e-06	1.384891e-08	3.294256e+01	9.091052e+02
1.380000e-06	4.776206e-06	1.391345e-08	3.331353e+01	9.136431e+02
1.390000e-06	4.827411e-06	1.397759e-08	3.367068e+01	9.179364e+02
1.400000e-06	4.876582e-06	1.403860e-08	3.401364e+01	9.219287e+02
1.410000e-06	4.923972e-06	1.409418e-08	3.434418e+01	9.256096e+02
1.420000e-06	4.969757e-06	1.414720e-08	3.466353e+01	9.290159e+02
1.430000e-06	5.013892e-06	1.420127e-08	3.497136e+01	9.322138e+02
1.440000e-06	5.056121e-06	1.425398e-08	3.526590e+01	9.352696e+02
1.450000e-06	5.096474e-06	1.430055e-08	3.554737e+01	9.382234e+02
1.460000e-06	5.135174e-06	1.434226e-08	3.581729e+01	9.410757e+02
1.470000e-06	5.172186e-06	1.438296e-08	3.607545e+01	9.437924e+02
1.480000e-06	5.207300e-06	1.442217e-08	3.632036e+01	9.463245e+02
1.490000e-06	5.240477e-06	1.445692e-08	3.655177e+01	9.486322e+02
1.500000e-06	5.271876e-06	1.448733e-08	3.677077e+01	9.507030e+02
1.510000e-06	5.301571e-06	1.451572e-08	3.697790e+01	9.525569e+02
1.520000e-06	5.329428e-06	1.454425e-08	3.717219e+01	9.542356e+02
1.530000e-06	5.355219e-06	1.457256e-08	3.735208e+01	9.557838e+02
1.540000e-06	5.379026e-06	1.459788e-08	3.751814e+01	9.572307e+02
1.550000e-06	5.401051e-06	1.461909e-08	3.767176e+01	9.585795e+02
1.560000e-06	5.421329e-06	1.463721e-08	3.781319e+01	9.598105e+02
1.570000e-06	5.439699e-06	1.465401e-08	3.794132e+01	9.608941e+02
1.580000e-06	5.456079e-06	1.466916e-08	3.805557e+01	9.618078e+02
1.590000e-06	5.470477e-06	1.468151e-08	3.815600e+01	9.625470e+02
1.600000e-06	5.482711e-06	1.469296e-08	3.824133e+01	9.631274e+02
1.610000e-06	5.492720e-06	1.470381e-08	3.831114e+01	9.635753e+02
1.620000e-06	5.500756e-06	1.471210e-08	3.836719e+01	9.639138e+02
1.630000e-06	5.506975e-06	1.471811e-08	3.841057e+01	9.641503e+02
1.640000e-06	5.511322e-06	1.472182e-08	3.844089e+01	9.642739e+02
1.650000e-06	5.513665e-06	1.472161e-08	3.845723e+01	9.642623e+02
1.660000e-06	5.514063e-06	1.471740e-08	3.846000e+01	9.640963e+02
1.670000e-06	5.512716e-06	1.471229e-08	3.845061e+01	9.637731e+02
1.680000e-06	5.509683e-06	1.470937e-08	3.842945e+01	9.633122e+02
1.690000e-06	5.504791e-06	1.470487e-08	3.839533e+01	9.627489e+02
1.700000e-06	5.497951e-06	1.469760e-08	3.834762e+01	9.621170e+02
1.710000e-06	5.489406e-06	1.469007e-08	3.828802e+01	9.614307e+02
1.720000e-06	5.479217e-06	1.468039e-08	3.821696e+01	9.606717e+02
1.730000e-06	5.467048e-06	1.466657e-08	3.813207e+01	9.597925e+02
1.740000e-06	5.452816e-06	1.462019e-08	3.803281e+01	9.587335e+02
1.750000e-06	5.436572e-06	1.458259e-08	3.791951e+01	9.574506e+02
1.760000e-06	5.417835e-06	1.456376e-08	3.778882e+01	9.559395e+02
1.770000e-06	5.396306e-06	1.455585e-08	3.763866e+01	9.542470e+02
1.780000e-06	5.372668e-06	1.458008e-08	3.747379e+01	9.524608e+02
1.790000e-06	5.347950e-06	1.453911e-08	3.730138e+01	9.506809e+02
1.800000e-06	5.322401e-06	1.448202e-08	3.712318e+01	9.489816e+02
1.810000e-06	5.295038e-06	1.447184e-08	3.693232e+01	9.473792e+02
1.820000e-06	5.265390e-06	1.442743e-08	3.672553e+01	9.458193e+02
1.830000e-06	5.234120e-06	1.441383e-08	3.650743e+01	9.441900e+02
1.840000e-06	5.201139e-06	1.440530e-08	3.627739e+01	9.423571e+02
1.850000e-06	5.166335e-06	1.433098e-08	3.603464e+01	9.402087e+02
1.860000e-06	5.129800e-06	1.431986e-08	3.577981e+01	9.376926e+02
1.870000e-06	5.091214e-06	1.430495e-08	3.551067e+01	9.348317e+02
1.880000e-06	5.050844e-06	1.423609e-08	3.522910e+01	9.317111e+02
1.890000e-06	5.008900e-06	1.420644e-08	3.493655e+01	9.284433e+02
1.900000e-06	4.965094e-06	1.411614e-08	3.463100e+01	9.251240e+02
1.910000e-06	4.919464e-06	1.404122e-08	3.431273e+01	9.217980e+02
1.920000e-06	4.871967e-06	1.401217e-08	3.398145e+01	9.184462e+02
1.930000e-06	4.822669e-06	1.393375e-08	3.363760e+01	9.150007e+02
1.940000e-06	4.771601e-06	1.391911e-08	3.328141e+01	9.113788e+02
1.950000e-06	4.718462e-06	1.388729e-08	3.291077e+01	9.075213e+02
1.960000e-06	4.663501e-06	1.380763e-08	3.252742e+01	9.034191e+02
1.970000e-06	4.606911e-06	1.372972e-08	3.213271e+01	8.991166e+02
1.980000e-06	4.548750e-06	1.362487e-08	3.172705e+01	8.946896e+02
1.990000e-06	4.488964e-06	1.355577e-08	3.131004e+01	8.902100e+02
2.000000e-06	4.427356e-06	1.349262e-08	3.088034e+01	8.857112e+02
2.010000e-06	4.364160e-06	1.344500e-08	3.043955e+01	8.811699e+02
2.020000e-06	4.299450e-06	1.338548e-08	2.998821e+01	8.765143e+02
2.030000e-06	4.233317e-06	1.330289e-08	2.952694e+01	8.716529e+02
2.040000e-06	4.165720e-06	1.323210e-08	2.905545e+01	8.665141e+02
2.050000e-06	4.096374e-06	1.312291e-08	2.857177e+01	8.610769e+02
2.060000e-06	4.025476e-06	1.302732e-08	2.807727e+01	8.553815e+02
2.070000e-06	3.953235e-06	1.293811e-08	2.757340e+01	8.495116e+02
2.080000e-06	3.879623e-06	1.285938e-08	2.705996e+01	8.435586e+02
2.090000e-06	3.804484e-06	1.278660e-08	2.653587e+01	8.375807e+02
2.100000e-06	3.727640e-06	1.268402e-08	2.599989e+01	8.315759e+02
2.110000e-06	3.649289e-06	1.258644e-08	2.545340e+01	8.254801e+02
2.120000e-06	3.569694e-06	1.248044e-08	2.489823e+01	8.191925e+02
2.130000e-06	3.488899e-06	1.237898e-08	2.433470e+01	8.126174e+02
2.140000e-06	3.406960e-06	1.227489e-08	2.376318e+01	8.057038e+02
2.150000e-06	3.323942e-06	1.217475e-08	2.318414e+01	7.984665e+02
2.160000e-06	3.239624e-06	1.206765e-08	2.259603e+01	7.909789e+02
2.170000e-06	3.153966e-06	1.194588e-08	2.199857e+01	7.833396e+02
2.180000e-06	3.067205e-06	1.182348e-08	2.139343e+01	7.756271e+02
2.190000e-06	2.979388e-06	1.169286e-08	2.078092e+01	7.678632e+02
2.200000e-06	2.890598e-06	1.157599e-08	2.016161e+01	7.599998e+02
2.210000e-06	2.800846e-06	1.145464e-08	1.953560e+01	7.519366e+02
2.220000e-06	2.710238e-06	1.133587e-08	1.890362e+01	7.435624e+02
2.230000e-06	2.618758e-06	1.120784e-08	1.826556e+01	7.348018e+02
2.240000e-06	2.526196e-06	1.106297e-08	1.761995e+01	7.256473e+02
2.250000e-06	2.432555e-06	1.091349e-08	1.696681e+01	7.161618e+02
2.260000e-06	2.338027e-06	1.075643e-08	1.630749e+01	7.064498e+02
2.270000e-06	2.242737e-06	1.061281e-08	1.564285e+01	6.966085e+02
2.280000e-06	2.146678e-06	1.046719e-08	1.497285e+01	6.866809e+02
2.290000e-06	2.049950e-06	1.031786e-08	1.429818e+01	6.766300e+02
2.300000e-06	1.952529e-06	1.016216e-08	1.361868e+01	6.663481e+02
2.310000e-06	1.854441e-06	9.999041e-09	1.293453e+01	6.556968e+02
2.320000e-06	1.755874e-06	9.829507e-09	1.224703e+01	6.445621e+02
2.330000e-06	1.656863e-06	9.645091e-09	1.155644e+01	6.328994e+02
2.340000e-06	1.557344e-06	9.460959e-09	1.086231e+01	6.207496e+02
2.350000e-06	1.457158e-06	9.275295e-09	1.016352e+01	6.082163e+02
2.360000e-06	1.356144e-06	9.083964e-09	9.458958e+00	5.954135e+02
2.370000e-06	1.254420e-06	8.884550e-09	8.749447e+00	5.824063e+02
2.380000e-06	1.152249e-06	8.678656e-09	8.036811e+00	5.691698e+02
2.390000e-06	1.049736e-06	8.470883e-09	7.321794e+00	5.555874e+02
2.400000e-06	9.468994e-07	8.254471e-09	6.604523e+00	5.414888e+02
2.410000e-06	8.437396e-07	8.025791e-09	5.884994e+00	5.267148e+02
2.420000e-06	7.402542e-07	7.784605e-09	5.163194e+00	5.111794e+02
2.430000e-06	6.364609e-07	7.534164e-09	4.439247e+00	4.949003e+02
2.440000e-06	5.324883e-07	7.283055e-09	3.714049e+00	4.779823e+02
2.450000e-06	4.283572e-07	7.028607e-09	2.987746e+00	4.605559e+02
2.460000e-06	3.240327e-07	6.760249e-09	2.260094e+00	4.426967e+02
2.470000e-06	2.196158e-07	6.476783e-09	1.531797e+00	4.243600e+02
2.480000e-06	1.151343e-07	6.181551e-09	8.030495e-01	4.053632e+02
2.490000e-06	1.064912e-08	5.874349e-09	7.427649e-02	3.854270e+02
2.500000e-06	-9.380005e-08	5.547194e-09	-6.542454e-01	3.642635e+02
2.510000e-06	-1.982524e-07	5.197459e-09	-1.382789e+00	3.416724e+02
2.520000e-06	-3.026660e-07	4.833672e-09	-2.111063e+00	3.176000e+02
2.530000e-06	-4.069454e-07	4.459134e-09	-2.838400e+00	2.921238e+02
2.540000e-06	-5.111055e-07	4.064750e-09	-3.564907e+00	2.653523e+02
2.550000e-06	-6.150609e-07	3.638904e-09	-4.289984e+00	2.372688e+02
2.560000e-06	-7.187245e-07	3.179215e-09	-5.013027e+00	2.075752e+02
2.570000e-06	-8.221007e-07	2.682862e-09	-5.734065e+00	1.756049e+02
2.580000e-06	-9.251753e-07	2.138964e-09	-6.452999e+00	1.403607e+02
2.590000e-06	-1.027942e-06	1.534796e-09	-7.169788e+00	1.006957e+02
2.600000e-06	-1.130371e-06	8.586713e-10	-7.884217e+00	5.560612e+01
2.610000e-06	-1.232408e-06	1.027057e-10	-8.595915e+00	4.562272e+00
2.620000e-06	-1.333926e-06	-7.412688e-10	-9.303990e+00	-5.222083e+01
2.630000e-06	-1.434775e-06	-1.674063e-09	-1.000740e+01	-1.136616e+02
2.640000e-06	-1.534906e-06	-2.668514e-09	-1.070581e+01	-1.778903e+02
2.650000e-06	-1.634336e-06	-3.673352e-09	-1.139932e+01	-2.425204e+02
2.660000e-06	-1.733183e-06	-4.638818e-09	-1.208877e+01	-3.050518e+02
2.670000e-06	-1.831578e-06	-5.533142e-09	-1.277506e+01	-3.632995e+02
2.680000e-06	-1.929402e-06	-6.335659e-09	-1.345738e+01	-4.157415e+02
2.690000e-06	-2.026534e-06	-7.036126e-09	-1.413486e+01	-4.616987e+02
2.700000e-06	-2.122972e-06	-7.640890e-09	-1.480750e+01	-5.013145e+02
2.710000e-06	-2.218721e-06	-8.167486e-09	-1.547534e+01	-5.353591e+02
2.720000e-06	-2.313847e-06	-8.633186e-09	-1.613883e+01	-5.649301e+02
2.730000e-06	-2.408314e-06	-9.047173e-09	-1.679773e+01	-5.911424e+02
2.740000e-06	-2.501913e-06	-9.415608e-09	-1.745058e+01	-6.148930e+02
2.750000e-06	-2.594382e-06	-9.746323e-09	-1.809554e+01	-6.367505e+02
2.760000e-06	-2.685725e-06	-1.005065e-08	-1.873265e+01	-6.569730e+02
2.770000e-06	-2.776118e-06	-1.033554e-08	-1.936313e+01	-6.756183e+02
2.780000e-06	-2.865577e-06	-1.059624e-08	-1.998709e+01	-6.926878e+02
2.790000e-06	-2.953966e-06	-1.083161e-08	-2.060360e+01	-7.082419e+02
2.800000e-06	-3.041347e-06	-1.104971e-08	-2.121307e+01	-7.224526e+02
2.810000e-06	-3.127864e-06	-1.125899e-08	-2.181652e+01	-7.355837e+02
2.820000e-06	-3.213200e-06	-1.145680e-08	-2.241173e+01	-7.479216e+02
2.830000e-06	-3.297123e-06	-1.163729e-08	-2.299708e+01	-7.596960e+02
2.840000e-06	-3.379863e-06	-1.180364e-08	-2.357418e+01	-7.710254e+02
2.850000e-06	-3.461574e-06	-1.196474e-08	-2.414411e+01	-7.819106e+02
2.860000e-06	-3.542145e-06	-1.212209e-08	-2.470608e+01	-7.922731e+02
2.870000e-06	-3.621468e-06	-1.226828e-08	-2.525935e+01	-8.020197e+02
2.880000e-06	-3.699410e-06	-1.240298e-08	-2.580299e+01	-8.111031e+02
2.890000e-06	-3.775829e-06	-1.253323e-08	-2.633600e+01	-8.195547e+02
2.900000e-06	-3.850757e-06	-1.266188e-08	-2.685862e+01	-8.274776e+02
2.910000e-06	-3.924264e-06	-1.278262e-08	-2.737132e+01	-8.350084e+02
2.920000e-06	-3.996360e-06	-1.289037e-08	-2.787419e+01	-8.422669e+02
2.930000e-06	-4.067116e-06	-1.299031e-08	-2.836770e+01	-8.493157e+02
2.940000e-06	-4.136359e-06	-1.309106e-08	-2.885067e+01	-8.561486e+02
