# Temperatura_=_58.01
# Concentracion g/m^3_=_13400.0
# C_Vs_to_Am_M_A/Vsm_=_65563218390.804596
# pendiente_HvsI_1/m_=_3716.3
# ordenada_HvsI_A/m_=_1297.0
# frecuencia_Hz_=_300796.79104438116

Tiempo_(s)	Campo_(V.s)	Magnetizacion_(V.s)	Campo_(kA/m)	Magnetizacion_(A/m)
0.000000e+00	-5.502698e-06	-1.436571e-08	-3.830957e+01	-9.431041e+02
1.000000e-08	-5.500696e-06	-1.436026e-08	-3.829563e+01	-9.428355e+02
2.000000e-08	-5.496752e-06	-1.435514e-08	-3.826817e+01	-9.424142e+02
3.000000e-08	-5.491088e-06	-1.435260e-08	-3.822874e+01	-9.418601e+02
4.000000e-08	-5.483817e-06	-1.434584e-08	-3.817812e+01	-9.412024e+02
5.000000e-08	-5.474891e-06	-1.433147e-08	-3.811598e+01	-9.404640e+02
6.000000e-08	-5.464028e-06	-1.431273e-08	-3.804035e+01	-9.396495e+02
7.000000e-08	-5.451107e-06	-1.428366e-08	-3.795039e+01	-9.387412e+02
8.000000e-08	-5.436089e-06	-1.427538e-08	-3.784584e+01	-9.377066e+02
9.000000e-08	-5.418645e-06	-1.431287e-08	-3.772439e+01	-9.365149e+02
1.000000e-07	-5.398899e-06	-1.429875e-08	-3.758692e+01	-9.351539e+02
1.100000e-07	-5.377212e-06	-1.424939e-08	-3.743593e+01	-9.336407e+02
1.200000e-07	-5.353772e-06	-1.421716e-08	-3.727275e+01	-9.320192e+02
1.300000e-07	-5.328891e-06	-1.411637e-08	-3.709953e+01	-9.303452e+02
1.400000e-07	-5.302500e-06	-1.411799e-08	-3.691579e+01	-9.286632e+02
1.500000e-07	-5.274232e-06	-1.417342e-08	-3.671899e+01	-9.269862e+02
1.600000e-07	-5.244259e-06	-1.403255e-08	-3.651032e+01	-9.252854e+02
1.700000e-07	-5.212742e-06	-1.404636e-08	-3.629090e+01	-9.234961e+02
1.800000e-07	-5.179252e-06	-1.409384e-08	-3.605775e+01	-9.215381e+02
1.900000e-07	-5.143735e-06	-1.396569e-08	-3.581048e+01	-9.193421e+02
2.000000e-07	-5.106604e-06	-1.397754e-08	-3.555198e+01	-9.168733e+02
2.100000e-07	-5.067821e-06	-1.390804e-08	-3.528197e+01	-9.141412e+02
2.200000e-07	-5.027290e-06	-1.379303e-08	-3.499979e+01	-9.111940e+02
2.300000e-07	-4.984806e-06	-1.383795e-08	-3.470402e+01	-9.080979e+02
2.400000e-07	-4.940293e-06	-1.379817e-08	-3.439412e+01	-9.049115e+02
2.500000e-07	-4.894024e-06	-1.374764e-08	-3.407200e+01	-9.016661e+02
2.600000e-07	-4.845914e-06	-1.372040e-08	-3.373706e+01	-8.983572e+02
2.700000e-07	-4.795781e-06	-1.362495e-08	-3.338804e+01	-8.949529e+02
2.800000e-07	-4.743560e-06	-1.356537e-08	-3.302448e+01	-8.914120e+02
2.900000e-07	-4.689437e-06	-1.350735e-08	-3.264767e+01	-8.877044e+02
3.000000e-07	-4.633700e-06	-1.344101e-08	-3.225964e+01	-8.838241e+02
3.100000e-07	-4.576267e-06	-1.338070e-08	-3.185979e+01	-8.797894e+02
3.200000e-07	-4.517017e-06	-1.336453e-08	-3.144729e+01	-8.756308e+02
3.300000e-07	-4.456138e-06	-1.332693e-08	-3.102346e+01	-8.713721e+02
3.400000e-07	-4.393807e-06	-1.321209e-08	-3.058951e+01	-8.670156e+02
3.500000e-07	-4.330023e-06	-1.314163e-08	-3.014545e+01	-8.625375e+02
3.600000e-07	-4.264701e-06	-1.305405e-08	-2.969068e+01	-8.578962e+02
3.700000e-07	-4.197715e-06	-1.296947e-08	-2.922433e+01	-8.530514e+02
3.800000e-07	-4.129089e-06	-1.292065e-08	-2.874655e+01	-8.479832e+02
3.900000e-07	-4.058995e-06	-1.283826e-08	-2.825856e+01	-8.427034e+02
4.000000e-07	-3.987587e-06	-1.276722e-08	-2.776143e+01	-8.372523e+02
4.100000e-07	-3.914930e-06	-1.269213e-08	-2.725559e+01	-8.316815e+02
4.200000e-07	-3.840785e-06	-1.260534e-08	-2.673939e+01	-8.260300e+02
4.300000e-07	-3.764870e-06	-1.249983e-08	-2.621087e+01	-8.203042e+02
4.400000e-07	-3.687330e-06	-1.239777e-08	-2.567105e+01	-8.144712e+02
4.500000e-07	-3.608374e-06	-1.231903e-08	-2.512136e+01	-8.084692e+02
4.600000e-07	-3.527894e-06	-1.223226e-08	-2.456106e+01	-8.022317e+02
4.700000e-07	-3.445978e-06	-1.213947e-08	-2.399076e+01	-7.957155e+02
4.800000e-07	-3.362891e-06	-1.202545e-08	-2.341231e+01	-7.889190e+02
4.900000e-07	-3.278806e-06	-1.191407e-08	-2.282691e+01	-7.818840e+02
5.000000e-07	-3.193769e-06	-1.181271e-08	-2.223490e+01	-7.746775e+02
5.100000e-07	-3.107789e-06	-1.169818e-08	-2.163631e+01	-7.673610e+02
5.200000e-07	-3.020860e-06	-1.158294e-08	-2.103111e+01	-7.599619e+02
5.300000e-07	-2.932906e-06	-1.147268e-08	-2.041878e+01	-7.524568e+02
5.400000e-07	-2.843962e-06	-1.136316e-08	-1.979955e+01	-7.447781e+02
5.500000e-07	-2.754039e-06	-1.124243e-08	-1.917351e+01	-7.368396e+02
5.600000e-07	-2.662977e-06	-1.110546e-08	-1.853954e+01	-7.285721e+02
5.700000e-07	-2.570778e-06	-1.096377e-08	-1.789766e+01	-7.199527e+02
5.800000e-07	-2.477670e-06	-1.083148e-08	-1.724944e+01	-7.110151e+02
5.900000e-07	-2.383762e-06	-1.070638e-08	-1.659566e+01	-7.018341e+02
6.000000e-07	-2.289074e-06	-1.057019e-08	-1.593644e+01	-6.924910e+02
6.100000e-07	-2.193658e-06	-1.042222e-08	-1.527216e+01	-6.830331e+02
6.200000e-07	-2.097447e-06	-1.027011e-08	-1.460234e+01	-6.734454e+02
6.300000e-07	-2.000457e-06	-1.011726e-08	-1.392710e+01	-6.636479e+02
6.400000e-07	-1.902725e-06	-9.960782e-09	-1.324670e+01	-6.535211e+02
6.500000e-07	-1.804209e-06	-9.792877e-09	-1.256083e+01	-6.429504e+02
6.600000e-07	-1.704956e-06	-9.621230e-09	-1.186983e+01	-6.318710e+02
6.700000e-07	-1.604993e-06	-9.453672e-09	-1.117390e+01	-6.202928e+02
6.800000e-07	-1.504418e-06	-9.280854e-09	-1.047370e+01	-6.082942e+02
6.900000e-07	-1.403358e-06	-9.092253e-09	-9.770125e+00	-5.959851e+02
7.000000e-07	-1.301882e-06	-8.895660e-09	-9.063651e+00	-5.834531e+02
7.100000e-07	-1.199962e-06	-8.698905e-09	-8.354086e+00	-5.707162e+02
7.200000e-07	-1.097627e-06	-8.498258e-09	-7.641633e+00	-5.577029e+02
7.300000e-07	-9.949300e-07	-8.290633e-09	-6.926663e+00	-5.442697e+02
7.400000e-07	-8.919101e-07	-8.075899e-09	-6.209443e+00	-5.302510e+02
7.500000e-07	-7.885905e-07	-7.856207e-09	-5.490136e+00	-5.155210e+02
7.600000e-07	-6.849703e-07	-7.626496e-09	-4.768736e+00	-5.000401e+02
7.700000e-07	-5.810849e-07	-7.383400e-09	-4.045490e+00	-4.838643e+02
7.800000e-07	-4.770202e-07	-7.127562e-09	-3.320995e+00	-4.671098e+02
7.900000e-07	-3.728413e-07	-6.864069e-09	-2.595706e+00	-4.498848e+02
8.000000e-07	-2.685209e-07	-6.596004e-09	-1.869432e+00	-4.322173e+02
8.100000e-07	-1.640895e-07	-6.316156e-09	-1.142385e+00	-4.140098e+02
8.200000e-07	-5.965536e-08	-6.020852e-09	-4.153183e-01	-3.950453e+02
8.300000e-07	4.476060e-08	-5.711004e-09	3.116215e-01	-3.750461e+02
8.400000e-07	1.491529e-07	-5.386872e-09	1.038397e+00	-3.537639e+02
8.500000e-07	2.534955e-07	-5.045783e-09	1.764825e+00	-3.310607e+02
8.600000e-07	3.577750e-07	-4.684789e-09	2.490815e+00	-3.069410e+02
8.700000e-07	4.619325e-07	-4.300409e-09	3.215956e+00	-2.815068e+02
8.800000e-07	5.659288e-07	-3.892208e-09	3.939974e+00	-2.548398e+02
8.900000e-07	6.697526e-07	-3.461606e-09	4.662791e+00	-2.268472e+02
9.000000e-07	7.733659e-07	-3.001139e-09	5.384142e+00	-1.971281e+02
9.100000e-07	8.767145e-07	-2.497198e-09	6.103651e+00	-1.649266e+02
9.200000e-07	9.797331e-07	-1.941308e-09	6.820863e+00	-1.292096e+02
9.300000e-07	1.082376e-06	-1.324743e-09	7.535455e+00	-8.887604e+01
9.400000e-07	1.184651e-06	-6.334525e-10	8.247492e+00	-4.305359e+01
9.500000e-07	1.286569e-06	1.454802e-10	8.957040e+00	8.595476e+00
9.600000e-07	1.388088e-06	1.015912e-09	9.663812e+00	6.564996e+01
9.700000e-07	1.489158e-06	1.960902e-09	1.036746e+01	1.268628e+02
9.800000e-07	1.589680e-06	2.942593e-09	1.106729e+01	1.902854e+02
9.900000e-07	1.689605e-06	3.915950e-09	1.176297e+01	2.535623e+02
1.000000e-06	1.788984e-06	4.841805e-09	1.245484e+01	3.143260e+02
1.010000e-06	1.887753e-06	5.687735e-09	1.314246e+01	3.705921e+02
1.020000e-06	1.985648e-06	6.433909e-09	1.382400e+01	4.210557e+02
1.030000e-06	2.082600e-06	7.082141e-09	1.449898e+01	4.652205e+02
1.040000e-06	2.178797e-06	7.649659e-09	1.516870e+01	5.033422e+02
1.050000e-06	2.274275e-06	8.151777e-09	1.583342e+01	5.362199e+02
1.060000e-06	2.369035e-06	8.595203e-09	1.649313e+01	5.649087e+02
1.070000e-06	2.463063e-06	8.987640e-09	1.714775e+01	5.904389e+02
1.080000e-06	2.556313e-06	9.340347e-09	1.779695e+01	6.136161e+02
1.090000e-06	2.648708e-06	9.662836e-09	1.844020e+01	6.349388e+02
1.100000e-06	2.740144e-06	9.957344e-09	1.907677e+01	6.546318e+02
1.110000e-06	2.830467e-06	1.022382e-08	1.970560e+01	6.727540e+02
1.120000e-06	2.919577e-06	1.046929e-08	2.032598e+01	6.893281e+02
1.130000e-06	3.007639e-06	1.069918e-08	2.093906e+01	7.044382e+02
1.140000e-06	3.094737e-06	1.091423e-08	2.154544e+01	7.182667e+02
1.150000e-06	3.180858e-06	1.111409e-08	2.214501e+01	7.310692e+02
1.160000e-06	3.265976e-06	1.129903e-08	2.273760e+01	7.431092e+02
1.170000e-06	3.350064e-06	1.147326e-08	2.332301e+01	7.545885e+02
1.180000e-06	3.433042e-06	1.164119e-08	2.390070e+01	7.656055e+02
1.190000e-06	3.514704e-06	1.179960e-08	2.446923e+01	7.761544e+02
1.200000e-06	3.595040e-06	1.194523e-08	2.502853e+01	7.861653e+02
1.210000e-06	3.674064e-06	1.208350e-08	2.557869e+01	7.955624e+02
1.220000e-06	3.751764e-06	1.221976e-08	2.611963e+01	8.043150e+02
1.230000e-06	3.828132e-06	1.235186e-08	2.665130e+01	8.124626e+02
1.240000e-06	3.902967e-06	1.247374e-08	2.717230e+01	8.201053e+02
1.250000e-06	3.976148e-06	1.258498e-08	2.768178e+01	8.273672e+02
1.260000e-06	4.047870e-06	1.269036e-08	2.818111e+01	8.343534e+02
1.270000e-06	4.118248e-06	1.279305e-08	2.867108e+01	8.411174e+02
1.280000e-06	4.187290e-06	1.289102e-08	2.915174e+01	8.476538e+02
1.290000e-06	4.254933e-06	1.298138e-08	2.962267e+01	8.539172e+02
1.300000e-06	4.320862e-06	1.306787e-08	3.008167e+01	8.598562e+02
1.310000e-06	4.385153e-06	1.315769e-08	3.052926e+01	8.654475e+02
1.320000e-06	4.448016e-06	1.324790e-08	3.096691e+01	8.707133e+02
1.330000e-06	4.509460e-06	1.332791e-08	3.139468e+01	8.757172e+02
1.340000e-06	4.569446e-06	1.339749e-08	3.181230e+01	8.805396e+02
1.350000e-06	4.627678e-06	1.346681e-08	3.221771e+01	8.852457e+02
1.360000e-06	4.684108e-06	1.354020e-08	3.261058e+01	8.898599e+02
1.370000e-06	4.738907e-06	1.361074e-08	3.299208e+01	8.943581e+02
1.380000e-06	4.791971e-06	1.367262e-08	3.336151e+01	8.986809e+02
1.390000e-06	4.842981e-06	1.372998e-08	3.371664e+01	9.027603e+02
1.400000e-06	4.891974e-06	1.378834e-08	3.405773e+01	9.065495e+02
1.410000e-06	4.939231e-06	1.384573e-08	3.438673e+01	9.100418e+02
1.420000e-06	4.984904e-06	1.389665e-08	3.470471e+01	9.132720e+02
1.430000e-06	5.028920e-06	1.394299e-08	3.501114e+01	9.163001e+02
1.440000e-06	5.070951e-06	1.398940e-08	3.530376e+01	9.191859e+02
1.450000e-06	5.111121e-06	1.403520e-08	3.558342e+01	9.219649e+02
1.460000e-06	5.149648e-06	1.407588e-08	3.585165e+01	9.246370e+02
1.470000e-06	5.186515e-06	1.411223e-08	3.610831e+01	9.271708e+02
1.480000e-06	5.221489e-06	1.414850e-08	3.635180e+01	9.295220e+02
1.490000e-06	5.254453e-06	1.418339e-08	3.658130e+01	9.316559e+02
1.500000e-06	5.285661e-06	1.421412e-08	3.679856e+01	9.335648e+02
1.510000e-06	5.315210e-06	1.424222e-08	3.700428e+01	9.352722e+02
1.520000e-06	5.342923e-06	1.427006e-08	3.719722e+01	9.368231e+02
1.530000e-06	5.368523e-06	1.429532e-08	3.737544e+01	9.382651e+02
1.540000e-06	5.392084e-06	1.431581e-08	3.753947e+01	9.396295e+02
1.550000e-06	5.413904e-06	1.433451e-08	3.769138e+01	9.409195e+02
1.560000e-06	5.434033e-06	1.435467e-08	3.783152e+01	9.421126e+02
1.570000e-06	5.452218e-06	1.437451e-08	3.795812e+01	9.431728e+02
1.580000e-06	5.468341e-06	1.439026e-08	3.807037e+01	9.440690e+02
1.590000e-06	5.482502e-06	1.440171e-08	3.816896e+01	9.447889e+02
1.600000e-06	5.494536e-06	1.441269e-08	3.825274e+01	9.453443e+02
1.610000e-06	5.504324e-06	1.442421e-08	3.832089e+01	9.457644e+02
1.620000e-06	5.512119e-06	1.443264e-08	3.837516e+01	9.460812e+02
1.630000e-06	5.518100e-06	1.443623e-08	3.841679e+01	9.463150e+02
1.640000e-06	5.522203e-06	1.443783e-08	3.844536e+01	9.464651e+02
1.650000e-06	5.524251e-06	1.444051e-08	3.845962e+01	9.465120e+02
1.660000e-06	5.524306e-06	1.444016e-08	3.846000e+01	9.464281e+02
1.670000e-06	5.522624e-06	1.443394e-08	3.844829e+01	9.461927e+02
1.680000e-06	5.519236e-06	1.443237e-08	3.842470e+01	9.458024e+02
1.690000e-06	5.513884e-06	1.443015e-08	3.838744e+01	9.452739e+02
1.700000e-06	5.506653e-06	1.442132e-08	3.833710e+01	9.446355e+02
1.710000e-06	5.497856e-06	1.440904e-08	3.827586e+01	9.439127e+02
1.720000e-06	5.487390e-06	1.439896e-08	3.820299e+01	9.431148e+02
1.730000e-06	5.474880e-06	1.440108e-08	3.811589e+01	9.422284e+02
1.740000e-06	5.460335e-06	1.434311e-08	3.801464e+01	9.412233e+02
1.750000e-06	5.443758e-06	1.427262e-08	3.789923e+01	9.400667e+02
1.760000e-06	5.424568e-06	1.428095e-08	3.776563e+01	9.387410e+02
1.770000e-06	5.402633e-06	1.427865e-08	3.761292e+01	9.372569e+02
1.780000e-06	5.378754e-06	1.433473e-08	3.744667e+01	9.356535e+02
1.790000e-06	5.353922e-06	1.431024e-08	3.727379e+01	9.339857e+02
1.800000e-06	5.328246e-06	1.414559e-08	3.709504e+01	9.323025e+02
1.810000e-06	5.300582e-06	1.422024e-08	3.690244e+01	9.306249e+02
1.820000e-06	5.270600e-06	1.421444e-08	3.669370e+01	9.289331e+02
1.830000e-06	5.239087e-06	1.410032e-08	3.647431e+01	9.271689e+02
1.840000e-06	5.205782e-06	1.421124e-08	3.624245e+01	9.252531e+02
1.850000e-06	5.170660e-06	1.411553e-08	3.599793e+01	9.231120e+02
1.860000e-06	5.133782e-06	1.403850e-08	3.574119e+01	9.207017e+02
1.870000e-06	5.094778e-06	1.413743e-08	3.546964e+01	9.180226e+02
1.880000e-06	5.054103e-06	1.397297e-08	3.518646e+01	9.151156e+02
1.890000e-06	5.011773e-06	1.393270e-08	3.489177e+01	9.120453e+02
1.900000e-06	4.967479e-06	1.391339e-08	3.458339e+01	9.088740e+02
1.910000e-06	4.921470e-06	1.377166e-08	3.426308e+01	9.056398e+02
1.920000e-06	4.873619e-06	1.383886e-08	3.392994e+01	9.023460e+02
1.930000e-06	4.824010e-06	1.375114e-08	3.358456e+01	8.989651e+02
1.940000e-06	4.772627e-06	1.368146e-08	3.322684e+01	8.954561e+02
1.950000e-06	4.719090e-06	1.367453e-08	3.285412e+01	8.917851e+02
1.960000e-06	4.663770e-06	1.355455e-08	3.246898e+01	8.879404e+02
1.970000e-06	4.606827e-06	1.350880e-08	3.207255e+01	8.839359e+02
1.980000e-06	4.548306e-06	1.339157e-08	3.166513e+01	8.798007e+02
1.990000e-06	4.488216e-06	1.337309e-08	3.124678e+01	8.755619e+02
2.000000e-06	4.426352e-06	1.333959e-08	3.081609e+01	8.712270e+02
2.010000e-06	4.362917e-06	1.323681e-08	3.037446e+01	8.667775e+02
2.020000e-06	4.297947e-06	1.322340e-08	2.992213e+01	8.621744e+02
2.030000e-06	4.231528e-06	1.308928e-08	2.945973e+01	8.573753e+02
2.040000e-06	4.163561e-06	1.302419e-08	2.898655e+01	8.523546e+02
2.050000e-06	4.093784e-06	1.294001e-08	2.850076e+01	8.471170e+02
2.060000e-06	4.022495e-06	1.282809e-08	2.800445e+01	8.416978e+02
2.070000e-06	3.949868e-06	1.278196e-08	2.749882e+01	8.361480e+02
2.080000e-06	3.875842e-06	1.267961e-08	2.698346e+01	8.305114e+02
2.090000e-06	3.800239e-06	1.263208e-08	2.645711e+01	8.248025e+02
2.100000e-06	3.723013e-06	1.252485e-08	2.591947e+01	8.189964e+02
2.110000e-06	3.644359e-06	1.241312e-08	2.537188e+01	8.130360e+02
2.120000e-06	3.564411e-06	1.231165e-08	2.481529e+01	8.068533e+02
2.130000e-06	3.483299e-06	1.220432e-08	2.425059e+01	8.003979e+02
2.140000e-06	3.401057e-06	1.212992e-08	2.367802e+01	7.936588e+02
2.150000e-06	3.317656e-06	1.200993e-08	2.309739e+01	7.866692e+02
2.160000e-06	3.232983e-06	1.191451e-08	2.250790e+01	7.794930e+02
2.170000e-06	3.147020e-06	1.180311e-08	2.190943e+01	7.721957e+02
2.180000e-06	3.059901e-06	1.168668e-08	2.130291e+01	7.648140e+02
2.190000e-06	2.971766e-06	1.156710e-08	2.068932e+01	7.573355e+02
2.200000e-06	2.882680e-06	1.143724e-08	2.006911e+01	7.497006e+02
2.210000e-06	2.792626e-06	1.131962e-08	1.944215e+01	7.418242e+02
2.220000e-06	2.701651e-06	1.119946e-08	1.880879e+01	7.336305e+02
2.230000e-06	2.609744e-06	1.107950e-08	1.816893e+01	7.250850e+02
2.240000e-06	2.516839e-06	1.093498e-08	1.752213e+01	7.162097e+02
2.250000e-06	2.422937e-06	1.079294e-08	1.686839e+01	7.070730e+02
2.260000e-06	2.328152e-06	1.065097e-08	1.620850e+01	6.977585e+02
2.270000e-06	2.232593e-06	1.051480e-08	1.554323e+01	6.883236e+02
2.280000e-06	2.136282e-06	1.036860e-08	1.487271e+01	6.787679e+02
2.290000e-06	2.039284e-06	1.021282e-08	1.419741e+01	6.690241e+02
2.300000e-06	1.941623e-06	1.006186e-08	1.351750e+01	6.589778e+02
2.310000e-06	1.843311e-06	9.903963e-09	1.283306e+01	6.485095e+02
2.320000e-06	1.744414e-06	9.738084e-09	1.214454e+01	6.375404e+02
2.330000e-06	1.644959e-06	9.554560e-09	1.145214e+01	6.260639e+02
2.340000e-06	1.544967e-06	9.378404e-09	1.075600e+01	6.141459e+02
2.350000e-06	1.444434e-06	9.200573e-09	1.005609e+01	6.018938e+02
2.360000e-06	1.343248e-06	9.012671e-09	9.351638e+00	5.894046e+02
2.370000e-06	1.241449e-06	8.815301e-09	8.642919e+00	5.767141e+02
2.380000e-06	1.139166e-06	8.611008e-09	7.930825e+00	5.637697e+02
2.390000e-06	1.036405e-06	8.408588e-09	7.215411e+00	5.504401e+02
2.400000e-06	9.332337e-07	8.194556e-09	6.497136e+00	5.365592e+02
2.410000e-06	8.297286e-07	7.965402e-09	5.776538e+00	5.219877e+02
2.420000e-06	7.259568e-07	7.726056e-09	5.054083e+00	5.066655e+02
2.430000e-06	6.219626e-07	7.485523e-09	4.330079e+00	4.906295e+02
2.440000e-06	5.177946e-07	7.243712e-09	3.604865e+00	4.739879e+02
2.450000e-06	4.135039e-07	6.988884e-09	2.878798e+00	4.568571e+02
2.460000e-06	3.090530e-07	6.715555e-09	2.151615e+00	4.392876e+02
2.470000e-06	2.044582e-07	6.432379e-09	1.423430e+00	4.212100e+02
2.480000e-06	9.978768e-08	6.142466e-09	6.947178e-01	4.024297e+02
2.490000e-06	-4.924944e-09	5.839100e-09	-3.428726e-02	3.826751e+02
2.500000e-06	-1.096288e-07	5.515186e-09	-7.632312e-01	3.616836e+02
2.510000e-06	-2.142466e-07	5.172237e-09	-1.491577e+00	3.392887e+02
2.520000e-06	-3.187430e-07	4.818453e-09	-2.219076e+00	3.154654e+02
2.530000e-06	-4.231737e-07	4.448012e-09	-2.946119e+00	2.903025e+02
2.540000e-06	-5.274878e-07	4.050157e-09	-3.672349e+00	2.638986e+02
2.550000e-06	-6.315569e-07	3.622557e-09	-4.396874e+00	2.362113e+02
2.560000e-06	-7.353628e-07	3.169386e-09	-5.119566e+00	2.069135e+02
2.570000e-06	-8.389192e-07	2.683429e-09	-5.840522e+00	1.753233e+02
2.580000e-06	-9.421215e-07	2.147578e-09	-6.559012e+00	1.404535e+02
2.590000e-06	-1.044919e-06	1.550960e-09	-7.274685e+00	1.011948e+02
2.600000e-06	-1.147336e-06	8.860020e-10	-7.987708e+00	5.659891e+01
2.610000e-06	-1.249309e-06	1.406340e-10	-8.697642e+00	6.190527e+00
2.620000e-06	-1.350790e-06	-6.968846e-10	-9.404148e+00	-4.978361e+01
2.630000e-06	-1.451745e-06	-1.620758e-09	-1.010699e+01	-1.102496e+02
2.640000e-06	-1.552108e-06	-2.600608e-09	-1.080571e+01	-1.733892e+02
2.650000e-06	-1.651779e-06	-3.587009e-09	-1.149962e+01	-2.369031e+02
2.660000e-06	-1.750772e-06	-4.533805e-09	-1.218881e+01	-2.983914e+02
2.670000e-06	-1.849213e-06	-5.412082e-09	-1.287414e+01	-3.557581e+02
2.680000e-06	-1.947089e-06	-6.201777e-09	-1.355556e+01	-4.075353e+02
2.690000e-06	-2.044311e-06	-6.893900e-09	-1.423241e+01	-4.530521e+02
2.700000e-06	-2.140833e-06	-7.497011e-09	-1.490439e+01	-4.924164e+02
2.710000e-06	-2.236727e-06	-8.026337e-09	-1.557201e+01	-5.263337e+02
2.720000e-06	-2.331980e-06	-8.493499e-09	-1.623515e+01	-5.558293e+02
2.730000e-06	-2.426468e-06	-8.905290e-09	-1.689298e+01	-5.819593e+02
2.740000e-06	-2.520049e-06	-9.269966e-09	-1.754448e+01	-6.055886e+02
2.750000e-06	-2.612578e-06	-9.598390e-09	-1.818866e+01	-6.272823e+02
2.760000e-06	-2.703996e-06	-9.900270e-09	-1.882511e+01	-6.473165e+02
2.770000e-06	-2.794400e-06	-1.017829e-08	-1.945450e+01	-6.657745e+02
2.780000e-06	-2.883859e-06	-1.043311e-08	-2.007731e+01	-6.826769e+02
2.790000e-06	-2.972272e-06	-1.066885e-08	-2.069284e+01	-6.980892e+02
2.800000e-06	-3.059646e-06	-1.088896e-08	-2.130113e+01	-7.121731e+02
2.810000e-06	-3.146041e-06	-1.109536e-08	-2.190261e+01	-7.251729e+02
2.820000e-06	-3.231324e-06	-1.128691e-08	-2.249635e+01	-7.373568e+02
2.830000e-06	-3.315265e-06	-1.146528e-08	-2.308074e+01	-7.489447e+02
2.840000e-06	-3.397967e-06	-1.163341e-08	-2.365651e+01	-7.600586e+02
2.850000e-06	-3.479614e-06	-1.179213e-08	-2.422493e+01	-7.707128e+02
2.860000e-06	-3.560165e-06	-1.194283e-08	-2.478573e+01	-7.808467e+02
2.870000e-06	-3.639525e-06	-1.208564e-08	-2.533823e+01	-7.903806e+02
2.880000e-06	-3.717521e-06	-1.222063e-08	-2.588123e+01	-7.992709e+02
2.890000e-06	-3.793895e-06	-1.234875e-08	-2.641295e+01	-8.075420e+02
2.900000e-06	-3.868697e-06	-1.246921e-08	-2.693372e+01	-8.152830e+02
2.910000e-06	-3.942104e-06	-1.258167e-08	-2.744477e+01	-8.226170e+02
2.920000e-06	-4.014140e-06	-1.268894e-08	-2.794629e+01	-8.296562e+02
2.930000e-06	-4.084853e-06	-1.279297e-08	-2.843858e+01	-8.364669e+02
2.940000e-06	-4.154080e-06	-1.289253e-08	-2.892054e+01	-8.430556e+02
