# Temperatura_=_61.53
# Concentracion g/m^3_=_13400.0
# C_Vs_to_Am_M_A/Vsm_=_65563218390.804596
# pendiente_HvsI_1/m_=_3716.3
# ordenada_HvsI_A/m_=_1297.0
# frecuencia_Hz_=_300798.58202787087

Tiempo_(s)	Campo_(V.s)	Magnetizacion_(V.s)	Campo_(kA/m)	Magnetizacion_(A/m)
0.000000e+00	-5.493477e-06	-1.451987e-08	-3.831029e+01	-9.527517e+02
1.000000e-08	-5.491741e-06	-1.451231e-08	-3.829819e+01	-9.524585e+02
2.000000e-08	-5.488056e-06	-1.450673e-08	-3.827248e+01	-9.520465e+02
3.000000e-08	-5.482542e-06	-1.450449e-08	-3.823403e+01	-9.515378e+02
4.000000e-08	-5.475371e-06	-1.449722e-08	-3.818403e+01	-9.509488e+02
5.000000e-08	-5.466563e-06	-1.448210e-08	-3.812260e+01	-9.502791e+02
6.000000e-08	-5.455829e-06	-1.446494e-08	-3.804775e+01	-9.495055e+02
7.000000e-08	-5.442983e-06	-1.444268e-08	-3.795816e+01	-9.485880e+02
8.000000e-08	-5.428112e-06	-1.442669e-08	-3.785445e+01	-9.474856e+02
9.000000e-08	-5.410898e-06	-1.445713e-08	-3.773441e+01	-9.461761e+02
1.000000e-07	-5.391384e-06	-1.445623e-08	-3.759832e+01	-9.446712e+02
1.100000e-07	-5.369931e-06	-1.440236e-08	-3.744871e+01	-9.430188e+02
1.200000e-07	-5.346668e-06	-1.436855e-08	-3.728648e+01	-9.412902e+02
1.300000e-07	-5.321929e-06	-1.428242e-08	-3.711395e+01	-9.395544e+02
1.400000e-07	-5.295726e-06	-1.424344e-08	-3.693122e+01	-9.378507e+02
1.500000e-07	-5.267662e-06	-1.431701e-08	-3.673551e+01	-9.361691e+02
1.600000e-07	-5.237858e-06	-1.420270e-08	-3.652766e+01	-9.344492e+02
1.700000e-07	-5.206486e-06	-1.416556e-08	-3.630888e+01	-9.325981e+02
1.800000e-07	-5.173136e-06	-1.425410e-08	-3.607631e+01	-9.305212e+02
1.900000e-07	-5.137739e-06	-1.413353e-08	-3.582945e+01	-9.281561e+02
2.000000e-07	-5.100775e-06	-1.409814e-08	-3.557168e+01	-9.254934e+02
2.100000e-07	-5.062201e-06	-1.406706e-08	-3.530267e+01	-9.225787e+02
2.200000e-07	-5.021834e-06	-1.393324e-08	-3.502116e+01	-9.194923e+02
2.300000e-07	-4.979542e-06	-1.394604e-08	-3.472622e+01	-9.163169e+02
2.400000e-07	-4.935208e-06	-1.393963e-08	-3.441705e+01	-9.131049e+02
2.500000e-07	-4.889106e-06	-1.388026e-08	-3.409554e+01	-9.098594e+02
2.600000e-07	-4.841196e-06	-1.385894e-08	-3.376143e+01	-9.065369e+02
2.700000e-07	-4.791285e-06	-1.377259e-08	-3.341336e+01	-9.030688e+02
2.800000e-07	-4.739338e-06	-1.370778e-08	-3.305109e+01	-8.993945e+02
2.900000e-07	-4.685462e-06	-1.363547e-08	-3.267538e+01	-8.954894e+02
3.000000e-07	-4.629942e-06	-1.355657e-08	-3.228819e+01	-8.913764e+02
3.100000e-07	-4.572796e-06	-1.350450e-08	-3.188967e+01	-8.871158e+02
3.200000e-07	-4.513850e-06	-1.347448e-08	-3.147859e+01	-8.827778e+02
3.300000e-07	-4.453197e-06	-1.345130e-08	-3.105561e+01	-8.784091e+02
3.400000e-07	-4.391036e-06	-1.334854e-08	-3.062211e+01	-8.740090e+02
3.500000e-07	-4.327391e-06	-1.325862e-08	-3.017827e+01	-8.695267e+02
3.600000e-07	-4.262247e-06	-1.317510e-08	-2.972397e+01	-8.648798e+02
3.700000e-07	-4.195474e-06	-1.308390e-08	-2.925831e+01	-8.599898e+02
3.800000e-07	-4.127024e-06	-1.303031e-08	-2.878095e+01	-8.548154e+02
3.900000e-07	-4.057114e-06	-1.295413e-08	-2.829341e+01	-8.493730e+02
4.000000e-07	-3.985913e-06	-1.288002e-08	-2.779688e+01	-8.437307e+02
4.100000e-07	-3.913401e-06	-1.280516e-08	-2.729119e+01	-8.379806e+02
4.200000e-07	-3.839445e-06	-1.271016e-08	-2.677544e+01	-8.321981e+02
4.300000e-07	-3.763844e-06	-1.260331e-08	-2.624822e+01	-8.264069e+02
4.400000e-07	-3.686625e-06	-1.249668e-08	-2.570971e+01	-8.205649e+02
4.500000e-07	-3.607951e-06	-1.241947e-08	-2.516105e+01	-8.145772e+02
4.600000e-07	-3.527775e-06	-1.233372e-08	-2.460192e+01	-8.083329e+02
4.700000e-07	-3.446205e-06	-1.223923e-08	-2.403307e+01	-8.017497e+02
4.800000e-07	-3.363435e-06	-1.213337e-08	-2.345585e+01	-7.948084e+02
4.900000e-07	-3.279567e-06	-1.201436e-08	-2.287097e+01	-7.875613e+02
5.000000e-07	-3.194753e-06	-1.190263e-08	-2.227950e+01	-7.801106e+02
5.100000e-07	-3.109000e-06	-1.178118e-08	-2.168148e+01	-7.725650e+02
5.200000e-07	-3.022281e-06	-1.166636e-08	-2.107672e+01	-7.649918e+02
5.300000e-07	-2.934597e-06	-1.155961e-08	-2.046523e+01	-7.573865e+02
5.400000e-07	-2.845968e-06	-1.144931e-08	-1.984715e+01	-7.496708e+02
5.500000e-07	-2.756333e-06	-1.132677e-08	-1.922205e+01	-7.417229e+02
5.600000e-07	-2.665452e-06	-1.118914e-08	-1.858828e+01	-7.334267e+02
5.700000e-07	-2.573434e-06	-1.104809e-08	-1.794656e+01	-7.247188e+02
5.800000e-07	-2.480586e-06	-1.090793e-08	-1.729906e+01	-7.156140e+02
5.900000e-07	-2.386978e-06	-1.077351e-08	-1.664625e+01	-7.061972e+02
6.000000e-07	-2.292574e-06	-1.063456e-08	-1.598790e+01	-6.965836e+02
6.100000e-07	-2.197366e-06	-1.048986e-08	-1.532394e+01	-6.868654e+02
6.200000e-07	-2.101424e-06	-1.033836e-08	-1.465487e+01	-6.770659e+02
6.300000e-07	-2.004804e-06	-1.017911e-08	-1.398106e+01	-6.671229e+02
6.400000e-07	-1.907388e-06	-1.001810e-08	-1.330170e+01	-6.569081e+02
6.500000e-07	-1.809094e-06	-9.850912e-09	-1.261622e+01	-6.462770e+02
6.600000e-07	-1.709979e-06	-9.677424e-09	-1.192502e+01	-6.351263e+02
6.700000e-07	-1.610167e-06	-9.501177e-09	-1.122895e+01	-6.234352e+02
6.800000e-07	-1.509834e-06	-9.322615e-09	-1.052925e+01	-6.112719e+02
6.900000e-07	-1.409054e-06	-9.136217e-09	-9.826428e+00	-5.987596e+02
7.000000e-07	-1.307801e-06	-8.943220e-09	-9.120318e+00	-5.860167e+02
7.100000e-07	-1.206084e-06	-8.743056e-09	-8.410966e+00	-5.730960e+02
7.200000e-07	-1.103963e-06	-8.535142e-09	-7.698797e+00	-5.599494e+02
7.300000e-07	-1.001482e-06	-8.325760e-09	-6.984111e+00	-5.464355e+02
7.400000e-07	-8.986475e-07	-8.111329e-09	-6.266969e+00	-5.323679e+02
7.500000e-07	-7.954459e-07	-7.885105e-09	-5.547264e+00	-5.175863e+02
7.600000e-07	-6.919556e-07	-7.646662e-09	-4.825545e+00	-5.020168e+02
7.700000e-07	-5.882758e-07	-7.401660e-09	-4.102505e+00	-4.856962e+02
7.800000e-07	-4.843679e-07	-7.148875e-09	-3.377875e+00	-4.687452e+02
7.900000e-07	-3.802549e-07	-6.885958e-09	-2.651814e+00	-4.512991e+02
8.000000e-07	-2.760288e-07	-6.612361e-09	-1.924964e+00	-4.334250e+02
8.100000e-07	-1.717285e-07	-6.326575e-09	-1.197597e+00	-4.150605e+02
8.200000e-07	-6.739851e-08	-6.027682e-09	-4.700223e-01	-3.960051e+02
8.300000e-07	3.696232e-08	-5.715510e-09	2.577671e-01	-3.759715e+02
8.400000e-07	1.412973e-07	-5.389168e-09	9.853762e-01	-3.546789e+02
8.500000e-07	2.455876e-07	-5.046745e-09	1.712674e+00	-3.319466e+02
8.600000e-07	3.498526e-07	-4.685607e-09	2.439795e+00	-3.077428e+02
8.700000e-07	4.539898e-07	-4.300680e-09	3.166024e+00	-2.821544e+02
8.800000e-07	5.579743e-07	-3.889527e-09	3.891189e+00	-2.552755e+02
8.900000e-07	6.617852e-07	-3.452762e-09	4.615144e+00	-2.270472e+02
9.000000e-07	7.653124e-07	-2.988179e-09	5.337119e+00	-1.971102e+02
9.100000e-07	8.684967e-07	-2.482975e-09	6.056704e+00	-1.647380e+02
9.200000e-07	9.713290e-07	-1.925969e-09	6.773833e+00	-1.289008e+02
9.300000e-07	1.073818e-06	-1.307337e-09	7.488568e+00	-8.846883e+01
9.400000e-07	1.175956e-06	-6.133313e-10	8.200856e+00	-4.251668e+01
9.500000e-07	1.277719e-06	1.691349e-10	8.910531e+00	9.352821e+00
9.600000e-07	1.379080e-06	1.045024e-09	9.617401e+00	6.676237e+01
9.700000e-07	1.480026e-06	1.996984e-09	1.032137e+01	1.284752e+02
9.800000e-07	1.580544e-06	2.986662e-09	1.102237e+01	1.925119e+02
9.900000e-07	1.680525e-06	3.968656e-09	1.171961e+01	2.564521e+02
1.000000e-06	1.779851e-06	4.902804e-09	1.241228e+01	3.178470e+02
1.010000e-06	1.878376e-06	5.757336e-09	1.309938e+01	3.746390e+02
1.020000e-06	1.975991e-06	6.512071e-09	1.378013e+01	4.254787e+02
1.030000e-06	2.072809e-06	7.166542e-09	1.445531e+01	4.698660e+02
1.040000e-06	2.168933e-06	7.735878e-09	1.512566e+01	5.080908e+02
1.050000e-06	2.264313e-06	8.237392e-09	1.579081e+01	5.410102e+02
1.060000e-06	2.358961e-06	8.679928e-09	1.645087e+01	5.697400e+02
1.070000e-06	2.452894e-06	9.072002e-09	1.710594e+01	5.953544e+02
1.080000e-06	2.546076e-06	9.426075e-09	1.775577e+01	6.186734e+02
1.090000e-06	2.638432e-06	9.752994e-09	1.839984e+01	6.401808e+02
1.100000e-06	2.729789e-06	1.005255e-08	1.903695e+01	6.600669e+02
1.110000e-06	2.819990e-06	1.032154e-08	1.966599e+01	6.783534e+02
1.120000e-06	2.909063e-06	1.056631e-08	2.028716e+01	6.950391e+02
1.130000e-06	2.997146e-06	1.079332e-08	2.090143e+01	7.102068e+02
1.140000e-06	3.084234e-06	1.100585e-08	2.150877e+01	7.240601e+02
1.150000e-06	3.170269e-06	1.120508e-08	2.210875e+01	7.368889e+02
1.160000e-06	3.255315e-06	1.139128e-08	2.270185e+01	7.489903e+02
1.170000e-06	3.339392e-06	1.156759e-08	2.328818e+01	7.605854e+02
1.180000e-06	3.422233e-06	1.173854e-08	2.386590e+01	7.717698e+02
1.190000e-06	3.503699e-06	1.190076e-08	2.443402e+01	7.825149e+02
1.200000e-06	3.583923e-06	1.205065e-08	2.499349e+01	7.927165e+02
1.210000e-06	3.662898e-06	1.219090e-08	2.554424e+01	8.022661e+02
1.220000e-06	3.740567e-06	1.232464e-08	2.608589e+01	8.111150e+02
1.230000e-06	3.816856e-06	1.245194e-08	2.661791e+01	8.193050e+02
1.240000e-06	3.891566e-06	1.257222e-08	2.713892e+01	8.269577e+02
1.250000e-06	3.964693e-06	1.268636e-08	2.764889e+01	8.342300e+02
1.260000e-06	4.036417e-06	1.279500e-08	2.814908e+01	8.412583e+02
1.270000e-06	4.106769e-06	1.289920e-08	2.863970e+01	8.481144e+02
1.280000e-06	4.175767e-06	1.299743e-08	2.912087e+01	8.547928e+02
1.290000e-06	4.243296e-06	1.308938e-08	2.959180e+01	8.612297e+02
1.300000e-06	4.309129e-06	1.317829e-08	3.005091e+01	8.673446e+02
1.310000e-06	4.373415e-06	1.326685e-08	3.049923e+01	8.730850e+02
1.320000e-06	4.436290e-06	1.335364e-08	3.093771e+01	8.784551e+02
1.330000e-06	4.497755e-06	1.343636e-08	3.136635e+01	8.835167e+02
1.340000e-06	4.557735e-06	1.351382e-08	3.178463e+01	8.883654e+02
1.350000e-06	4.615947e-06	1.358608e-08	3.219059e+01	8.930923e+02
1.360000e-06	4.672403e-06	1.365432e-08	3.258431e+01	8.977496e+02
1.370000e-06	4.727230e-06	1.372035e-08	3.296666e+01	9.023333e+02
1.380000e-06	4.780287e-06	1.378477e-08	3.333666e+01	9.067893e+02
1.390000e-06	4.831315e-06	1.384713e-08	3.369252e+01	9.110399e+02
1.400000e-06	4.880369e-06	1.390767e-08	3.403461e+01	9.150170e+02
1.410000e-06	4.927690e-06	1.396532e-08	3.436462e+01	9.186884e+02
1.420000e-06	4.973388e-06	1.402003e-08	3.468331e+01	9.220681e+02
1.430000e-06	5.017439e-06	1.407234e-08	3.499051e+01	9.252058e+02
1.440000e-06	5.059513e-06	1.411945e-08	3.528392e+01	9.281639e+02
1.450000e-06	5.099743e-06	1.415993e-08	3.556448e+01	9.309918e+02
1.460000e-06	5.138345e-06	1.419836e-08	3.583368e+01	9.337085e+02
1.470000e-06	5.175255e-06	1.423980e-08	3.609108e+01	9.363006e+02
1.480000e-06	5.210277e-06	1.427987e-08	3.633532e+01	9.387339e+02
1.490000e-06	5.243308e-06	1.431168e-08	3.656567e+01	9.409736e+02
1.500000e-06	5.274616e-06	1.433979e-08	3.678401e+01	9.430013e+02
1.510000e-06	5.304284e-06	1.437085e-08	3.699091e+01	9.448238e+02
1.520000e-06	5.332091e-06	1.440127e-08	3.718482e+01	9.464687e+02
1.530000e-06	5.357744e-06	1.442492e-08	3.736372e+01	9.479719e+02
1.540000e-06	5.381399e-06	1.444317e-08	3.752868e+01	9.493616e+02
1.550000e-06	5.403324e-06	1.446213e-08	3.768158e+01	9.506484e+02
1.560000e-06	5.423524e-06	1.448412e-08	3.782246e+01	9.518240e+02
1.570000e-06	5.441783e-06	1.450448e-08	3.794979e+01	9.528690e+02
1.580000e-06	5.457990e-06	1.451811e-08	3.806282e+01	9.537651e+02
1.590000e-06	5.472208e-06	1.452690e-08	3.816197e+01	9.545051e+02
1.600000e-06	5.484304e-06	1.454024e-08	3.824633e+01	9.550959e+02
1.610000e-06	5.494189e-06	1.455628e-08	3.831525e+01	9.555544e+02
1.620000e-06	5.502131e-06	1.456318e-08	3.837064e+01	9.558974e+02
1.630000e-06	5.508279e-06	1.456173e-08	3.841352e+01	9.561335e+02
1.640000e-06	5.512548e-06	1.456277e-08	3.844329e+01	9.562588e+02
1.650000e-06	5.514752e-06	1.456987e-08	3.845866e+01	9.562614e+02
1.660000e-06	5.514944e-06	1.457391e-08	3.846000e+01	9.561303e+02
1.670000e-06	5.513413e-06	1.456560e-08	3.844932e+01	9.558641e+02
1.680000e-06	5.510226e-06	1.455700e-08	3.842709e+01	9.554752e+02
1.690000e-06	5.505139e-06	1.455376e-08	3.839162e+01	9.549847e+02
1.700000e-06	5.498102e-06	1.455017e-08	3.834255e+01	9.544115e+02
1.710000e-06	5.489416e-06	1.454186e-08	3.828197e+01	9.537596e+02
1.720000e-06	5.479058e-06	1.453138e-08	3.820974e+01	9.530106e+02
1.730000e-06	5.466709e-06	1.453096e-08	3.812362e+01	9.521269e+02
1.740000e-06	5.452311e-06	1.449432e-08	3.802321e+01	9.510663e+02
1.750000e-06	5.435915e-06	1.440735e-08	3.790887e+01	9.498008e+02
1.760000e-06	5.416971e-06	1.439409e-08	3.777675e+01	9.483342e+02
1.770000e-06	5.395244e-06	1.439612e-08	3.762524e+01	9.467072e+02
1.780000e-06	5.371502e-06	1.442595e-08	3.745967e+01	9.449879e+02
1.790000e-06	5.346704e-06	1.444964e-08	3.728673e+01	9.432483e+02
1.800000e-06	5.321113e-06	1.429057e-08	3.710827e+01	9.415360e+02
1.810000e-06	5.293639e-06	1.431219e-08	3.691667e+01	9.398524e+02
1.820000e-06	5.263783e-06	1.437708e-08	3.670846e+01	9.381473e+02
1.830000e-06	5.232391e-06	1.423802e-08	3.648954e+01	9.363320e+02
1.840000e-06	5.199282e-06	1.430350e-08	3.625864e+01	9.343096e+02
1.850000e-06	5.164319e-06	1.428177e-08	3.601482e+01	9.320083e+02
1.860000e-06	5.127638e-06	1.414730e-08	3.575901e+01	9.294066e+02
1.870000e-06	5.088825e-06	1.424493e-08	3.548834e+01	9.265392e+02
1.880000e-06	5.048257e-06	1.415424e-08	3.520543e+01	9.234814e+02
1.890000e-06	5.006190e-06	1.405515e-08	3.491206e+01	9.203186e+02
1.900000e-06	4.962253e-06	1.405378e-08	3.460565e+01	9.171117e+02
1.910000e-06	4.916551e-06	1.389383e-08	3.428694e+01	9.138750e+02
1.920000e-06	4.868952e-06	1.392050e-08	3.395499e+01	9.105737e+02
1.930000e-06	4.819518e-06	1.388122e-08	3.361025e+01	9.071420e+02
1.940000e-06	4.768364e-06	1.378391e-08	3.325351e+01	9.035148e+02
1.950000e-06	4.715070e-06	1.381368e-08	3.288185e+01	8.996582e+02
1.960000e-06	4.659929e-06	1.369048e-08	3.249732e+01	8.955848e+02
1.970000e-06	4.603135e-06	1.362459e-08	3.210124e+01	8.913491e+02
1.980000e-06	4.544709e-06	1.351871e-08	3.169380e+01	8.870218e+02
1.990000e-06	4.484743e-06	1.343705e-08	3.127561e+01	8.826572e+02
2.000000e-06	4.423029e-06	1.344716e-08	3.084523e+01	8.782659e+02
2.010000e-06	4.359752e-06	1.334420e-08	3.040394e+01	8.738068e+02
2.020000e-06	4.294977e-06	1.332812e-08	2.995222e+01	8.692019e+02
2.030000e-06	4.228726e-06	1.322571e-08	2.949020e+01	8.643684e+02
2.040000e-06	4.160986e-06	1.311838e-08	2.901780e+01	8.592550e+02
2.050000e-06	4.091496e-06	1.305167e-08	2.853319e+01	8.538650e+02
2.060000e-06	4.020462e-06	1.291325e-08	2.803781e+01	8.482574e+02
2.070000e-06	3.948071e-06	1.287032e-08	2.753297e+01	8.425222e+02
2.080000e-06	3.874344e-06	1.278320e-08	2.701882e+01	8.367417e+02
2.090000e-06	3.799132e-06	1.271969e-08	2.649430e+01	8.309531e+02
2.100000e-06	3.722199e-06	1.263137e-08	2.595779e+01	8.251279e+02
2.110000e-06	3.643722e-06	1.250647e-08	2.541051e+01	8.191803e+02
2.120000e-06	3.563972e-06	1.241859e-08	2.485435e+01	8.129988e+02
2.130000e-06	3.483056e-06	1.229266e-08	2.429006e+01	8.064916e+02
2.140000e-06	3.400980e-06	1.221348e-08	2.371768e+01	7.996242e+02
2.150000e-06	3.317838e-06	1.210862e-08	2.313787e+01	7.924345e+02
2.160000e-06	3.233448e-06	1.200395e-08	2.254935e+01	7.850171e+02
2.170000e-06	3.147672e-06	1.189387e-08	2.195117e+01	7.774834e+02
2.180000e-06	3.060756e-06	1.175861e-08	2.134504e+01	7.699131e+02
2.190000e-06	2.972880e-06	1.164136e-08	2.073220e+01	7.623184e+02
2.200000e-06	2.884008e-06	1.151462e-08	2.011243e+01	7.546351e+02
2.210000e-06	2.794149e-06	1.140201e-08	1.948578e+01	7.467470e+02
2.220000e-06	2.703432e-06	1.128209e-08	1.885314e+01	7.385325e+02
2.230000e-06	2.611801e-06	1.115761e-08	1.821412e+01	7.299137e+02
2.240000e-06	2.519161e-06	1.101736e-08	1.756807e+01	7.208881e+02
2.250000e-06	2.425504e-06	1.086667e-08	1.691493e+01	7.115279e+02
2.260000e-06	2.330897e-06	1.071525e-08	1.625516e+01	7.019465e+02
2.270000e-06	2.235492e-06	1.056894e-08	1.558983e+01	6.922452e+02
2.280000e-06	2.139366e-06	1.042930e-08	1.491946e+01	6.824648e+02
2.290000e-06	2.042581e-06	1.027928e-08	1.424451e+01	6.725610e+02
2.300000e-06	1.945133e-06	1.012440e-08	1.356493e+01	6.624163e+02
2.310000e-06	1.847005e-06	9.961199e-09	1.288061e+01	6.518847e+02
2.320000e-06	1.748300e-06	9.794405e-09	1.219226e+01	6.408495e+02
2.330000e-06	1.649134e-06	9.613263e-09	1.150069e+01	6.292706e+02
2.340000e-06	1.549470e-06	9.429334e-09	1.080566e+01	6.171985e+02
2.350000e-06	1.449189e-06	9.244700e-09	1.010632e+01	6.047491e+02
2.360000e-06	1.348244e-06	9.053125e-09	9.402353e+00	5.920475e+02
2.370000e-06	1.246617e-06	8.858953e-09	8.693628e+00	5.791646e+02
2.380000e-06	1.144449e-06	8.656756e-09	7.981137e+00	5.660750e+02
2.390000e-06	1.041860e-06	8.450204e-09	7.265704e+00	5.526542e+02
2.400000e-06	9.389053e-07	8.234031e-09	6.547718e+00	5.387201e+02
2.410000e-06	8.356400e-07	8.008831e-09	5.827569e+00	5.241007e+02
2.420000e-06	7.320840e-07	7.774299e-09	5.105392e+00	5.086999e+02
2.430000e-06	6.282823e-07	7.527426e-09	4.381502e+00	4.925315e+02
2.440000e-06	5.242558e-07	7.273379e-09	3.656044e+00	4.757026e+02
2.450000e-06	4.200992e-07	7.015481e-09	2.929679e+00	4.583528e+02
2.460000e-06	3.158485e-07	6.749520e-09	2.202657e+00	4.405701e+02
2.470000e-06	2.114852e-07	6.470180e-09	1.474851e+00	4.223225e+02
2.480000e-06	1.070673e-07	6.176059e-09	7.466639e-01	4.034369e+02
2.490000e-06	2.600704e-09	5.867284e-09	1.813674e-02	3.836377e+02
2.500000e-06	-1.018681e-07	5.542495e-09	-7.104054e-01	3.626340e+02
2.510000e-06	-2.062998e-07	5.200589e-09	-1.438689e+00	3.402174e+02
2.520000e-06	-3.106742e-07	4.842616e-09	-2.166573e+00	3.163237e+02
2.530000e-06	-4.148913e-07	4.469824e-09	-2.893360e+00	2.910214e+02
2.540000e-06	-5.189797e-07	4.075457e-09	-3.619250e+00	2.644156e+02
2.550000e-06	-6.229221e-07	3.649869e-09	-4.344121e+00	2.364940e+02
2.560000e-06	-7.265898e-07	3.191231e-09	-5.067077e+00	2.069711e+02
2.570000e-06	-8.299604e-07	2.697618e-09	-5.787960e+00	1.751986e+02
2.580000e-06	-9.330581e-07	2.158323e-09	-6.506940e+00	1.401991e+02
2.590000e-06	-1.035864e-06	1.561042e-09	-7.223884e+00	1.008410e+02
2.600000e-06	-1.138304e-06	8.937512e-10	-7.938278e+00	5.612707e+01
2.610000e-06	-1.240244e-06	1.441362e-10	-8.649188e+00	5.522099e+00
2.620000e-06	-1.341528e-06	-6.948949e-10	-9.355517e+00	-5.077620e+01
2.630000e-06	-1.442126e-06	-1.621551e-09	-1.005707e+01	-1.117124e+02
2.640000e-06	-1.542123e-06	-2.610137e-09	-1.075443e+01	-1.754464e+02
2.650000e-06	-1.641594e-06	-3.610268e-09	-1.144811e+01	-2.396198e+02
2.660000e-06	-1.740572e-06	-4.569289e-09	-1.213836e+01	-3.017532e+02
2.670000e-06	-1.839000e-06	-5.453771e-09	-1.282478e+01	-3.596734e+02
2.680000e-06	-1.936798e-06	-6.247970e-09	-1.350680e+01	-4.118608e+02
2.690000e-06	-2.033916e-06	-6.945119e-09	-1.418408e+01	-4.576315e+02
2.700000e-06	-2.130314e-06	-7.550416e-09	-1.485634e+01	-4.971202e+02
2.710000e-06	-2.226035e-06	-8.077530e-09	-1.552388e+01	-5.310871e+02
2.720000e-06	-2.321156e-06	-8.543393e-09	-1.618723e+01	-5.606195e+02
2.730000e-06	-2.415628e-06	-8.958206e-09	-1.684605e+01	-5.868223e+02
2.740000e-06	-2.509132e-06	-9.326120e-09	-1.749813e+01	-6.105816e+02
2.750000e-06	-2.601441e-06	-9.655809e-09	-1.814187e+01	-6.324534e+02
2.760000e-06	-2.692676e-06	-9.960006e-09	-1.877813e+01	-6.526823e+02
2.770000e-06	-2.782976e-06	-1.024454e-08	-1.940786e+01	-6.713136e+02
2.780000e-06	-2.872332e-06	-1.050380e-08	-2.003101e+01	-6.883401e+02
2.790000e-06	-2.960686e-06	-1.073918e-08	-2.064717e+01	-7.038206e+02
2.800000e-06	-3.048074e-06	-1.095874e-08	-2.125659e+01	-7.179337e+02
2.810000e-06	-3.134489e-06	-1.116604e-08	-2.185923e+01	-7.309566e+02
2.820000e-06	-3.219707e-06	-1.135849e-08	-2.245352e+01	-7.431923e+02
2.830000e-06	-3.303618e-06	-1.153701e-08	-2.303870e+01	-7.548839e+02
2.840000e-06	-3.386368e-06	-1.170801e-08	-2.361578e+01	-7.661557e+02
2.850000e-06	-3.467985e-06	-1.187321e-08	-2.418496e+01	-7.770028e+02
2.860000e-06	-3.548472e-06	-1.203017e-08	-2.474626e+01	-7.873316e+02
2.870000e-06	-3.627783e-06	-1.217461e-08	-2.529936e+01	-7.970285e+02
2.880000e-06	-3.705683e-06	-1.230619e-08	-2.584261e+01	-8.060279e+02
2.890000e-06	-3.781981e-06	-1.243183e-08	-2.637470e+01	-8.143518e+02
2.900000e-06	-3.856769e-06	-1.255571e-08	-2.689625e+01	-8.221074e+02
2.910000e-06	-3.930201e-06	-1.267377e-08	-2.740835e+01	-8.294490e+02
2.920000e-06	-4.002268e-06	-1.278334e-08	-2.791093e+01	-8.365215e+02
2.930000e-06	-4.073004e-06	-1.288751e-08	-2.840423e+01	-8.434132e+02
2.940000e-06	-4.142176e-06	-1.299047e-08	-2.888662e+01	-8.501343e+02
