# Temperatura_=_24.71
# Concentracion g/m^3_=_13400.0
# C_Vs_to_Am_M_A/Vsm_=_65563218390.804596
# pendiente_HvsI_1/m_=_3716.3
# ordenada_HvsI_A/m_=_1297.0
# frecuencia_Hz_=_300804.92114420113

Tiempo_(s)	Campo_(V.s)	Magnetizacion_(V.s)	Campo_(kA/m)	Magnetizacion_(A/m)
0.000000e+00	-5.495180e-06	-1.463604e-08	-3.830915e+01	-9.594989e+02
1.000000e-08	-5.493574e-06	-1.463269e-08	-3.829795e+01	-9.593899e+02
2.000000e-08	-5.489976e-06	-1.462667e-08	-3.827287e+01	-9.592058e+02
3.000000e-08	-5.484603e-06	-1.462013e-08	-3.823541e+01	-9.588900e+02
4.000000e-08	-5.477614e-06	-1.461278e-08	-3.818669e+01	-9.583955e+02
5.000000e-08	-5.468972e-06	-1.460281e-08	-3.812644e+01	-9.577003e+02
6.000000e-08	-5.458380e-06	-1.459014e-08	-3.805260e+01	-9.568127e+02
7.000000e-08	-5.445760e-06	-1.457220e-08	-3.796462e+01	-9.557642e+02
8.000000e-08	-5.431135e-06	-1.455590e-08	-3.786266e+01	-9.545975e+02
9.000000e-08	-5.414123e-06	-1.456123e-08	-3.774407e+01	-9.533516e+02
1.000000e-07	-5.394815e-06	-1.456065e-08	-3.760946e+01	-9.520529e+02
1.100000e-07	-5.373559e-06	-1.452302e-08	-3.746128e+01	-9.507114e+02
1.200000e-07	-5.350467e-06	-1.447288e-08	-3.730030e+01	-9.493246e+02
1.300000e-07	-5.325844e-06	-1.442790e-08	-3.712864e+01	-9.478826e+02
1.400000e-07	-5.299754e-06	-1.440530e-08	-3.694676e+01	-9.463733e+02
1.500000e-07	-5.271891e-06	-1.441063e-08	-3.675251e+01	-9.447834e+02
1.600000e-07	-5.242310e-06	-1.437650e-08	-3.654629e+01	-9.430974e+02
1.700000e-07	-5.211137e-06	-1.434037e-08	-3.632896e+01	-9.412947e+02
1.800000e-07	-5.178029e-06	-1.434002e-08	-3.609816e+01	-9.393490e+02
1.900000e-07	-5.142893e-06	-1.429131e-08	-3.585321e+01	-9.372321e+02
2.000000e-07	-5.106180e-06	-1.424464e-08	-3.559727e+01	-9.349203e+02
2.100000e-07	-5.067823e-06	-1.419821e-08	-3.532987e+01	-9.324018e+02
2.200000e-07	-5.027649e-06	-1.412422e-08	-3.504980e+01	-9.296822e+02
2.300000e-07	-4.985549e-06	-1.411156e-08	-3.475630e+01	-9.267837e+02
2.400000e-07	-4.941419e-06	-1.410056e-08	-3.444866e+01	-9.237382e+02
2.500000e-07	-4.895483e-06	-1.405214e-08	-3.412841e+01	-9.205780e+02
2.600000e-07	-4.847765e-06	-1.400567e-08	-3.379575e+01	-9.173246e+02
2.700000e-07	-4.798058e-06	-1.393656e-08	-3.344923e+01	-9.139837e+02
2.800000e-07	-4.746234e-06	-1.387994e-08	-3.308794e+01	-9.105454e+02
2.900000e-07	-4.692521e-06	-1.382126e-08	-3.271348e+01	-9.069906e+02
3.000000e-07	-4.637182e-06	-1.374882e-08	-3.232769e+01	-9.033005e+02
3.100000e-07	-4.580181e-06	-1.369810e-08	-3.193031e+01	-8.994643e+02
3.200000e-07	-4.521339e-06	-1.366480e-08	-3.152010e+01	-8.954818e+02
3.300000e-07	-4.460797e-06	-1.362760e-08	-3.109804e+01	-8.913603e+02
3.400000e-07	-4.398791e-06	-1.354504e-08	-3.066577e+01	-8.871076e+02
3.500000e-07	-4.335344e-06	-1.345900e-08	-3.022346e+01	-8.827245e+02
3.600000e-07	-4.270417e-06	-1.338607e-08	-2.977082e+01	-8.782020e+02
3.700000e-07	-4.203751e-06	-1.330750e-08	-2.930607e+01	-8.735235e+02
3.800000e-07	-4.135382e-06	-1.324299e-08	-2.882944e+01	-8.686730e+02
3.900000e-07	-4.065607e-06	-1.316890e-08	-2.834301e+01	-8.636432e+02
4.000000e-07	-3.994536e-06	-1.309500e-08	-2.784755e+01	-8.584407e+02
4.100000e-07	-3.922213e-06	-1.302423e-08	-2.734335e+01	-8.530843e+02
4.200000e-07	-3.848423e-06	-1.293564e-08	-2.682893e+01	-8.475960e+02
4.300000e-07	-3.772964e-06	-1.283988e-08	-2.630287e+01	-8.419889e+02
4.400000e-07	-3.695932e-06	-1.274333e-08	-2.576585e+01	-8.362570e+02
4.500000e-07	-3.617414e-06	-1.266138e-08	-2.521847e+01	-8.303728e+02
4.600000e-07	-3.537301e-06	-1.257624e-08	-2.465997e+01	-8.242948e+02
4.700000e-07	-3.455755e-06	-1.247956e-08	-2.409148e+01	-8.179822e+02
4.800000e-07	-3.373029e-06	-1.237694e-08	-2.351476e+01	-8.114118e+02
4.900000e-07	-3.289252e-06	-1.227067e-08	-2.293072e+01	-8.045890e+02
5.000000e-07	-3.204543e-06	-1.216805e-08	-2.234018e+01	-7.975466e+02
5.100000e-07	-3.118837e-06	-1.205289e-08	-2.174269e+01	-7.903317e+02
5.200000e-07	-3.032080e-06	-1.193763e-08	-2.113787e+01	-7.829851e+02
5.300000e-07	-2.944419e-06	-1.182854e-08	-2.052675e+01	-7.755201e+02
5.400000e-07	-2.855918e-06	-1.171758e-08	-1.990977e+01	-7.679128e+02
5.500000e-07	-2.766304e-06	-1.159842e-08	-1.928503e+01	-7.601065e+02
5.600000e-07	-2.675435e-06	-1.146927e-08	-1.865155e+01	-7.520317e+02
5.700000e-07	-2.583506e-06	-1.133722e-08	-1.801068e+01	-7.436322e+02
5.800000e-07	-2.490696e-06	-1.120373e-08	-1.736366e+01	-7.348878e+02
5.900000e-07	-2.397092e-06	-1.106890e-08	-1.671111e+01	-7.258229e+02
6.000000e-07	-2.302703e-06	-1.092944e-08	-1.605309e+01	-7.164950e+02
6.100000e-07	-2.207511e-06	-1.078475e-08	-1.538946e+01	-7.069683e+02
6.200000e-07	-2.111582e-06	-1.063625e-08	-1.472070e+01	-6.972812e+02
6.300000e-07	-2.014892e-06	-1.048426e-08	-1.404664e+01	-6.874222e+02
6.400000e-07	-1.917364e-06	-1.032855e-08	-1.336673e+01	-6.773259e+02
6.500000e-07	-1.819018e-06	-1.016566e-08	-1.268112e+01	-6.668905e+02
6.600000e-07	-1.719899e-06	-9.995018e-09	-1.199012e+01	-6.560140e+02
6.700000e-07	-1.620118e-06	-9.820093e-09	-1.129451e+01	-6.446309e+02
6.800000e-07	-1.519835e-06	-9.639396e-09	-1.059539e+01	-6.327375e+02
6.900000e-07	-1.419048e-06	-9.454116e-09	-9.892765e+00	-6.203908e+02
7.000000e-07	-1.317740e-06	-9.265968e-09	-9.186502e+00	-6.076811e+02
7.100000e-07	-1.216003e-06	-9.070964e-09	-8.477253e+00	-5.946883e+02
7.200000e-07	-1.113872e-06	-8.866772e-09	-7.765257e+00	-5.814384e+02
7.300000e-07	-1.011345e-06	-8.656228e-09	-7.050497e+00	-5.678805e+02
7.400000e-07	-9.084740e-07	-8.440599e-09	-6.333344e+00	-5.538944e+02
7.500000e-07	-8.052947e-07	-8.215942e-09	-5.614039e+00	-5.393280e+02
7.600000e-07	-7.018702e-07	-7.979646e-09	-4.893024e+00	-5.240504e+02
7.700000e-07	-5.982385e-07	-7.735597e-09	-4.170565e+00	-5.079992e+02
7.800000e-07	-4.944335e-07	-7.485964e-09	-3.446898e+00	-4.911994e+02
7.900000e-07	-3.904818e-07	-7.228358e-09	-2.722209e+00	-4.737446e+02
8.000000e-07	-2.864131e-07	-6.958619e-09	-1.996703e+00	-4.557451e+02
8.100000e-07	-1.822486e-07	-6.672730e-09	-1.270529e+00	-4.372632e+02
8.200000e-07	-7.796472e-08	-6.374858e-09	-5.435240e-01	-4.182621e+02
8.300000e-07	2.637330e-08	-6.070019e-09	1.838590e-01	-3.985928e+02
8.400000e-07	1.306839e-07	-5.754742e-09	9.110509e-01	-3.780272e+02
8.500000e-07	2.349165e-07	-5.424637e-09	1.637699e+00	-3.563263e+02
8.600000e-07	3.390502e-07	-5.077498e-09	2.363657e+00	-3.333156e+02
8.700000e-07	4.430468e-07	-4.709459e-09	3.088661e+00	-3.089309e+02
8.800000e-07	5.469092e-07	-4.316837e-09	3.812728e+00	-2.832079e+02
8.900000e-07	6.506333e-07	-3.902247e-09	4.535831e+00	-2.562071e+02
9.000000e-07	7.541349e-07	-3.469108e-09	5.257383e+00	-2.278954e+02
9.100000e-07	8.573911e-07	-3.009383e-09	5.977224e+00	-1.980262e+02
9.200000e-07	9.603393e-07	-2.514592e-09	6.694918e+00	-1.660707e+02
9.300000e-07	1.062937e-06	-1.974879e-09	7.410170e+00	-1.312432e+02
9.400000e-07	1.165178e-06	-1.380220e-09	8.122933e+00	-9.263615e+01
9.500000e-07	1.267026e-06	-7.227790e-10	8.832959e+00	-4.944262e+01
9.600000e-07	1.368481e-06	8.787082e-12	9.540244e+00	-1.213183e+00
9.700000e-07	1.469516e-06	8.188316e-10	1.024459e+01	5.192788e+01
9.800000e-07	1.570085e-06	1.696499e-09	1.094571e+01	1.091750e+02
9.900000e-07	1.670130e-06	2.617155e-09	1.164316e+01	1.690843e+02
1.000000e-06	1.769514e-06	3.550536e-09	1.233600e+01	2.297677e+02
1.010000e-06	1.868161e-06	4.459806e-09	1.302371e+01	2.891925e+02
1.020000e-06	1.966017e-06	5.309631e-09	1.370591e+01	3.455135e+02
1.030000e-06	2.063049e-06	6.081239e-09	1.438236e+01	3.973526e+02
1.040000e-06	2.159295e-06	6.773157e-09	1.505333e+01	4.439604e+02
1.050000e-06	2.254770e-06	7.391003e-09	1.571893e+01	4.852283e+02
1.060000e-06	2.349494e-06	7.941330e-09	1.637929e+01	5.215655e+02
1.070000e-06	2.443464e-06	8.431029e-09	1.703439e+01	5.536886e+02
1.080000e-06	2.536720e-06	8.869003e-09	1.768452e+01	5.823930e+02
1.090000e-06	2.629218e-06	9.266197e-09	1.832936e+01	6.083701e+02
1.100000e-06	2.720731e-06	9.627779e-09	1.896733e+01	6.321097e+02
1.110000e-06	2.811121e-06	9.953877e-09	1.959747e+01	6.538963e+02
1.120000e-06	2.900394e-06	1.024859e-08	2.021983e+01	6.738745e+02
1.130000e-06	2.988559e-06	1.051779e-08	2.083447e+01	6.921428e+02
1.140000e-06	3.075690e-06	1.076751e-08	2.144189e+01	7.088317e+02
1.150000e-06	3.161852e-06	1.100158e-08	2.204256e+01	7.241380e+02
1.160000e-06	3.247050e-06	1.122064e-08	2.263651e+01	7.383091e+02
1.170000e-06	3.331231e-06	1.142709e-08	2.322338e+01	7.515932e+02
1.180000e-06	3.414259e-06	1.162133e-08	2.380220e+01	7.641825e+02
1.190000e-06	3.496022e-06	1.180180e-08	2.437220e+01	7.761774e+02
1.200000e-06	3.576471e-06	1.196987e-08	2.493305e+01	7.875861e+02
1.210000e-06	3.655637e-06	1.212919e-08	2.548494e+01	7.983596e+02
1.220000e-06	3.733529e-06	1.228168e-08	2.602796e+01	8.084433e+02
1.230000e-06	3.810017e-06	1.242475e-08	2.656119e+01	8.178244e+02
1.240000e-06	3.884887e-06	1.255890e-08	2.708314e+01	8.265550e+02
1.250000e-06	3.958185e-06	1.268798e-08	2.759413e+01	8.347424e+02
1.260000e-06	4.030059e-06	1.281211e-08	2.809519e+01	8.425142e+02
1.270000e-06	4.100552e-06	1.292782e-08	2.858662e+01	8.499748e+02
1.280000e-06	4.169721e-06	1.303524e-08	2.906883e+01	8.571726e+02
1.290000e-06	4.237468e-06	1.313810e-08	2.954112e+01	8.640934e+02
1.300000e-06	4.303565e-06	1.323692e-08	3.000191e+01	8.706804e+02
1.310000e-06	4.368027e-06	1.333087e-08	3.045130e+01	8.768726e+02
1.320000e-06	4.431015e-06	1.341819e-08	3.089042e+01	8.826438e+02
1.330000e-06	4.492595e-06	1.349960e-08	3.131972e+01	8.880246e+02
1.340000e-06	4.552768e-06	1.357745e-08	3.173921e+01	8.930988e+02
1.350000e-06	4.611289e-06	1.365308e-08	3.214718e+01	8.979757e+02
1.360000e-06	4.668017e-06	1.372733e-08	3.254265e+01	9.027494e+02
1.370000e-06	4.723059e-06	1.380080e-08	3.292638e+01	9.074636e+02
1.380000e-06	4.776368e-06	1.387220e-08	3.329802e+01	9.120968e+02
1.390000e-06	4.827695e-06	1.393874e-08	3.365584e+01	9.165728e+02
1.400000e-06	4.876995e-06	1.399910e-08	3.399953e+01	9.207934e+02
1.410000e-06	4.924491e-06	1.405365e-08	3.433064e+01	9.246794e+02
1.420000e-06	4.970363e-06	1.410407e-08	3.465043e+01	9.282025e+02
1.430000e-06	5.014620e-06	1.415350e-08	3.495897e+01	9.313964e+02
1.440000e-06	5.056982e-06	1.420263e-08	3.525429e+01	9.343424e+02
1.450000e-06	5.097400e-06	1.425016e-08	3.553606e+01	9.371371e+02
1.460000e-06	5.136123e-06	1.429477e-08	3.580602e+01	9.398541e+02
1.470000e-06	5.173218e-06	1.433610e-08	3.606462e+01	9.425180e+02
1.480000e-06	5.208533e-06	1.437334e-08	3.631081e+01	9.450978e+02
1.490000e-06	5.241884e-06	1.440620e-08	3.654332e+01	9.475244e+02
1.500000e-06	5.273318e-06	1.443615e-08	3.676246e+01	9.497222e+02
1.510000e-06	5.303053e-06	1.446463e-08	3.696975e+01	9.516428e+02
1.520000e-06	5.331052e-06	1.449227e-08	3.716494e+01	9.532858e+02
1.530000e-06	5.357007e-06	1.451831e-08	3.734589e+01	9.546997e+02
1.540000e-06	5.380907e-06	1.454144e-08	3.751251e+01	9.559628e+02
1.550000e-06	5.403010e-06	1.456042e-08	3.766659e+01	9.571519e+02
1.560000e-06	5.423377e-06	1.457699e-08	3.780858e+01	9.583135e+02
1.570000e-06	5.441870e-06	1.459331e-08	3.793750e+01	9.594473e+02
1.580000e-06	5.458327e-06	1.460823e-08	3.805223e+01	9.605091e+02
1.590000e-06	5.472763e-06	1.462125e-08	3.815287e+01	9.614312e+02
1.600000e-06	5.485174e-06	1.463399e-08	3.823939e+01	9.621512e+02
1.610000e-06	5.495348e-06	1.464554e-08	3.831032e+01	9.626376e+02
1.620000e-06	5.503431e-06	1.465330e-08	3.836667e+01	9.629015e+02
1.630000e-06	5.509679e-06	1.465524e-08	3.841023e+01	9.629923e+02
1.640000e-06	5.514078e-06	1.465483e-08	3.844089e+01	9.629772e+02
1.650000e-06	5.516444e-06	1.465599e-08	3.845739e+01	9.629159e+02
1.660000e-06	5.516819e-06	1.465730e-08	3.846000e+01	9.628391e+02
1.670000e-06	5.515433e-06	1.465536e-08	3.845034e+01	9.627392e+02
1.680000e-06	5.512370e-06	1.465216e-08	3.842899e+01	9.625757e+02
1.690000e-06	5.507470e-06	1.464970e-08	3.839482e+01	9.622924e+02
1.700000e-06	5.500597e-06	1.464434e-08	3.834691e+01	9.618387e+02
1.710000e-06	5.492006e-06	1.463506e-08	3.828702e+01	9.611866e+02
1.720000e-06	5.481800e-06	1.462321e-08	3.821587e+01	9.603379e+02
1.730000e-06	5.469701e-06	1.461079e-08	3.813152e+01	9.593202e+02
1.740000e-06	5.455526e-06	1.458401e-08	3.803271e+01	9.581749e+02
1.750000e-06	5.439309e-06	1.452791e-08	3.791965e+01	9.569430e+02
1.760000e-06	5.420620e-06	1.450620e-08	3.778936e+01	9.556539e+02
1.770000e-06	5.399151e-06	1.451396e-08	3.763969e+01	9.543212e+02
1.780000e-06	5.375571e-06	1.452004e-08	3.747530e+01	9.529445e+02
1.790000e-06	5.350829e-06	1.452095e-08	3.730282e+01	9.515151e+02
1.800000e-06	5.325291e-06	1.445184e-08	3.712478e+01	9.500209e+02
1.810000e-06	5.298041e-06	1.441698e-08	3.693481e+01	9.484492e+02
1.820000e-06	5.268419e-06	1.444617e-08	3.672831e+01	9.467851e+02
1.830000e-06	5.237136e-06	1.441205e-08	3.651022e+01	9.450092e+02
1.840000e-06	5.204167e-06	1.441594e-08	3.628038e+01	9.430962e+02
1.850000e-06	5.169360e-06	1.441076e-08	3.603772e+01	9.410180e+02
1.860000e-06	5.132862e-06	1.433814e-08	3.578328e+01	9.387492e+02
1.870000e-06	5.094266e-06	1.434593e-08	3.551421e+01	9.362748e+02
1.880000e-06	5.053826e-06	1.429863e-08	3.523229e+01	9.335967e+02
1.890000e-06	5.011848e-06	1.421197e-08	3.493964e+01	9.307338e+02
1.900000e-06	4.968071e-06	1.418438e-08	3.463445e+01	9.277166e+02
1.910000e-06	4.922541e-06	1.410304e-08	3.431705e+01	9.245784e+02
1.920000e-06	4.875148e-06	1.408194e-08	3.398665e+01	9.213437e+02
1.930000e-06	4.825941e-06	1.404798e-08	3.364361e+01	9.180216e+02
1.940000e-06	4.775018e-06	1.396829e-08	3.328860e+01	9.146053e+02
1.950000e-06	4.721931e-06	1.396104e-08	3.291852e+01	9.110769e+02
1.960000e-06	4.666933e-06	1.387450e-08	3.253510e+01	9.074168e+02
1.970000e-06	4.610293e-06	1.380146e-08	3.214024e+01	9.036120e+02
1.980000e-06	4.552028e-06	1.373257e-08	3.173405e+01	8.996601e+02
1.990000e-06	4.492291e-06	1.365669e-08	3.131760e+01	8.955674e+02
2.000000e-06	4.430796e-06	1.363983e-08	3.088889e+01	8.913422e+02
2.010000e-06	4.367651e-06	1.355506e-08	3.044868e+01	8.869872e+02
2.020000e-06	4.303032e-06	1.350899e-08	2.999819e+01	8.824955e+02
2.030000e-06	4.236947e-06	1.343610e-08	2.953749e+01	8.778517e+02
2.040000e-06	4.169418e-06	1.333682e-08	2.906672e+01	8.730388e+02
2.050000e-06	4.100140e-06	1.327278e-08	2.858375e+01	8.680470e+02
2.060000e-06	4.029245e-06	1.316190e-08	2.808952e+01	8.628800e+02
2.070000e-06	3.956971e-06	1.310774e-08	2.758566e+01	8.575543e+02
2.080000e-06	3.883354e-06	1.302921e-08	2.707245e+01	8.520924e+02
2.090000e-06	3.808262e-06	1.294715e-08	2.654895e+01	8.465103e+02
2.100000e-06	3.731414e-06	1.286845e-08	2.601321e+01	8.408064e+02
2.110000e-06	3.653017e-06	1.275298e-08	2.546667e+01	8.349578e+02
2.120000e-06	3.573346e-06	1.267349e-08	2.491126e+01	8.289248e+02
2.130000e-06	3.492527e-06	1.256695e-08	2.434784e+01	8.226650e+02
2.140000e-06	3.410583e-06	1.247695e-08	2.377657e+01	8.161502e+02
2.150000e-06	3.327551e-06	1.237552e-08	2.319772e+01	8.093792e+02
2.160000e-06	3.243280e-06	1.226525e-08	2.261023e+01	8.023798e+02
2.170000e-06	3.157570e-06	1.216150e-08	2.201271e+01	7.951976e+02
2.180000e-06	3.070681e-06	1.203716e-08	2.140697e+01	7.878767e+02
2.190000e-06	2.982833e-06	1.193140e-08	2.079455e+01	7.804375e+02
2.200000e-06	2.894068e-06	1.181524e-08	2.017573e+01	7.728642e+02
2.210000e-06	2.804330e-06	1.169854e-08	1.955013e+01	7.651061e+02
2.220000e-06	2.713685e-06	1.157683e-08	1.891821e+01	7.570942e+02
2.230000e-06	2.622156e-06	1.144852e-08	1.828012e+01	7.487671e+02
2.240000e-06	2.529623e-06	1.131518e-08	1.763503e+01	7.400958e+02
2.250000e-06	2.436016e-06	1.117140e-08	1.698246e+01	7.310953e+02
2.260000e-06	2.341439e-06	1.102923e-08	1.632313e+01	7.218178e+02
2.270000e-06	2.246080e-06	1.088986e-08	1.565835e+01	7.123289e+02
2.280000e-06	2.149948e-06	1.074891e-08	1.498817e+01	7.026749e+02
2.290000e-06	2.053139e-06	1.060033e-08	1.431327e+01	6.928562e+02
2.300000e-06	1.955662e-06	1.044634e-08	1.363372e+01	6.828182e+02
2.310000e-06	1.857549e-06	1.028679e-08	1.294974e+01	6.724645e+02
2.320000e-06	1.758939e-06	1.012325e-08	1.226228e+01	6.616894e+02
2.330000e-06	1.659835e-06	9.948532e-09	1.157139e+01	6.504172e+02
2.340000e-06	1.560153e-06	9.769190e-09	1.087646e+01	6.386300e+02
2.350000e-06	1.459873e-06	9.583656e-09	1.017737e+01	6.263730e+02
2.360000e-06	1.358994e-06	9.390854e-09	9.474102e+00	6.137331e+02
2.370000e-06	1.257459e-06	9.196441e-09	8.766259e+00	6.007960e+02
2.380000e-06	1.155384e-06	8.996685e-09	8.054657e+00	5.876025e+02
2.390000e-06	1.052817e-06	8.793075e-09	7.339619e+00	5.741185e+02
2.400000e-06	9.497616e-07	8.579072e-09	6.621177e+00	5.602364e+02
2.410000e-06	8.463410e-07	8.354876e-09	5.900189e+00	5.458066e+02
2.420000e-06	7.426869e-07	8.119772e-09	5.177574e+00	5.306892e+02
2.430000e-06	6.387989e-07	7.872350e-09	4.453328e+00	5.148044e+02
2.440000e-06	5.347069e-07	7.618913e-09	3.727661e+00	4.981586e+02
2.450000e-06	4.305354e-07	7.361647e-09	3.001438e+00	4.808341e+02
2.460000e-06	3.262715e-07	7.096676e-09	2.274572e+00	4.629433e+02
2.470000e-06	2.218539e-07	6.818975e-09	1.546634e+00	4.445637e+02
2.480000e-06	1.173356e-07	6.528926e-09	8.179943e-01	4.256825e+02
2.490000e-06	1.280745e-08	6.226145e-09	8.928596e-02	4.061735e+02
2.500000e-06	-9.170791e-08	5.906967e-09	-6.393334e-01	3.858206e+02
2.510000e-06	-1.961638e-07	5.572743e-09	-1.367538e+00	3.643806e+02
2.520000e-06	-3.005429e-07	5.227182e-09	-2.095208e+00	3.416597e+02
2.530000e-06	-4.048431e-07	4.868984e-09	-2.822327e+00	3.175689e+02
2.540000e-06	-5.090135e-07	4.492542e-09	-3.548541e+00	2.921265e+02
2.550000e-06	-6.130033e-07	4.092185e-09	-4.273497e+00	2.653968e+02
2.560000e-06	-7.167719e-07	3.667299e-09	-4.996910e+00	2.373777e+02
2.570000e-06	-8.203047e-07	3.213890e-09	-5.718680e+00	2.078766e+02
2.580000e-06	-9.235311e-07	2.727625e-09	-6.438313e+00	1.764266e+02
2.590000e-06	-1.026327e-06	2.202251e-09	-7.154949e+00	1.422894e+02
2.600000e-06	-1.128631e-06	1.626652e-09	-7.868147e+00	1.045672e+02
2.610000e-06	-1.230444e-06	9.917353e-10	-8.577929e+00	6.241005e+01
2.620000e-06	-1.331732e-06	2.901108e-10	-9.284051e+00	1.527109e+01
2.630000e-06	-1.432415e-06	-4.876070e-10	-9.985952e+00	-3.686193e+01
2.640000e-06	-1.532565e-06	-1.343290e-09	-1.068414e+01	-9.333123e+01
2.650000e-06	-1.632247e-06	-2.257673e-09	-1.137906e+01	-1.528183e+02
2.660000e-06	-1.731352e-06	-3.195978e-09	-1.206996e+01	-2.135074e+02
2.670000e-06	-1.829780e-06	-4.121406e-09	-1.275615e+01	-2.733687e+02
2.680000e-06	-1.927541e-06	-5.001875e-09	-1.343768e+01	-3.304904e+02
2.690000e-06	-2.024696e-06	-5.812386e-09	-1.411499e+01	-3.833759e+02
2.700000e-06	-2.121210e-06	-6.540766e-09	-1.478782e+01	-4.311349e+02
2.710000e-06	-2.217096e-06	-7.188457e-09	-1.545628e+01	-4.735277e+02
2.720000e-06	-2.312350e-06	-7.764473e-09	-1.612034e+01	-5.108683e+02
2.730000e-06	-2.406794e-06	-8.275818e-09	-1.677874e+01	-5.438272e+02
2.740000e-06	-2.500277e-06	-8.731927e-09	-1.743046e+01	-5.732006e+02
2.750000e-06	-2.592769e-06	-9.144006e-09	-1.807526e+01	-5.997136e+02
2.760000e-06	-2.684276e-06	-9.519687e-09	-1.871319e+01	-6.239027e+02
2.770000e-06	-2.774730e-06	-9.862867e-09	-1.934378e+01	-6.460925e+02
2.780000e-06	-2.864155e-06	-1.017399e-08	-1.996720e+01	-6.664500e+02
2.790000e-06	-2.952647e-06	-1.045546e-08	-2.058411e+01	-6.850760e+02
2.800000e-06	-3.040238e-06	-1.071155e-08	-2.119474e+01	-7.020894e+02
2.810000e-06	-3.126781e-06	-1.095119e-08	-2.179807e+01	-7.176725e+02
2.820000e-06	-3.212082e-06	-1.117807e-08	-2.239274e+01	-7.320654e+02
2.830000e-06	-3.296124e-06	-1.138919e-08	-2.297863e+01	-7.455210e+02
2.840000e-06	-3.378944e-06	-1.158603e-08	-2.355600e+01	-7.582476e+02
2.850000e-06	-3.460661e-06	-1.177290e-08	-2.412568e+01	-7.703666e+02
2.860000e-06	-3.541337e-06	-1.195116e-08	-2.468811e+01	-7.819042e+02
2.870000e-06	-3.620753e-06	-1.211715e-08	-2.524175e+01	-7.928193e+02
2.880000e-06	-3.698703e-06	-1.226859e-08	-2.578517e+01	-8.030541e+02
2.890000e-06	-3.775133e-06	-1.240936e-08	-2.631800e+01	-8.125839e+02
2.900000e-06	-3.850086e-06	-1.254486e-08	-2.684052e+01	-8.214466e+02
2.910000e-06	-3.923644e-06	-1.267400e-08	-2.735333e+01	-8.297400e+02
2.920000e-06	-3.995887e-06	-1.279402e-08	-2.785696e+01	-8.375910e+02
2.930000e-06	-4.066731e-06	-1.290690e-08	-2.835085e+01	-8.451122e+02
2.940000e-06	-4.136018e-06	-1.301830e-08	-2.883387e+01	-8.523658e+02
