# Temperatura_=_38.53
# Concentracion g/m^3_=_13400.0
# C_Vs_to_Am_M_A/Vsm_=_65563218390.804596
# pendiente_HvsI_1/m_=_3716.3
# ordenada_HvsI_A/m_=_1297.0
# frecuencia_Hz_=_300801.93437812116

Tiempo_(s)	Campo_(V.s)	Magnetizacion_(V.s)	Campo_(kA/m)	Magnetizacion_(A/m)
0.000000e+00	-5.499055e-06	-1.392828e-08	-3.830812e+01	-9.130769e+02
1.000000e-08	-5.497397e-06	-1.392309e-08	-3.829657e+01	-9.128547e+02
2.000000e-08	-5.493784e-06	-1.391881e-08	-3.827140e+01	-9.125439e+02
3.000000e-08	-5.488368e-06	-1.391685e-08	-3.823367e+01	-9.121290e+02
4.000000e-08	-5.481296e-06	-1.391082e-08	-3.818440e+01	-9.115992e+02
5.000000e-08	-5.472563e-06	-1.389656e-08	-3.812357e+01	-9.109486e+02
6.000000e-08	-5.461960e-06	-1.387953e-08	-3.804970e+01	-9.101726e+02
7.000000e-08	-5.449247e-06	-1.386122e-08	-3.796114e+01	-9.092666e+02
8.000000e-08	-5.434457e-06	-1.384368e-08	-3.785811e+01	-9.082264e+02
9.000000e-08	-5.417363e-06	-1.385723e-08	-3.773903e+01	-9.070520e+02
1.000000e-07	-5.397946e-06	-1.385986e-08	-3.760376e+01	-9.057535e+02
1.100000e-07	-5.376548e-06	-1.381681e-08	-3.745470e+01	-9.043532e+02
1.200000e-07	-5.353346e-06	-1.377868e-08	-3.729307e+01	-9.028831e+02
1.300000e-07	-5.328693e-06	-1.372601e-08	-3.712133e+01	-9.013759e+02
1.400000e-07	-5.302563e-06	-1.368153e-08	-3.693930e+01	-8.998519e+02
1.500000e-07	-5.274561e-06	-1.371597e-08	-3.674423e+01	-8.983085e+02
1.600000e-07	-5.244810e-06	-1.366642e-08	-3.653697e+01	-8.967150e+02
1.700000e-07	-5.213487e-06	-1.361286e-08	-3.631877e+01	-8.950193e+02
1.800000e-07	-5.180264e-06	-1.364968e-08	-3.608732e+01	-8.931620e+02
1.900000e-07	-5.144967e-06	-1.358293e-08	-3.584143e+01	-8.910960e+02
2.000000e-07	-5.108044e-06	-1.353572e-08	-3.558422e+01	-8.888016e+02
2.100000e-07	-5.069498e-06	-1.351179e-08	-3.531569e+01	-8.862936e+02
2.200000e-07	-5.029169e-06	-1.341731e-08	-3.503475e+01	-8.836141e+02
2.300000e-07	-4.986936e-06	-1.340029e-08	-3.474054e+01	-8.808158e+02
2.400000e-07	-4.942667e-06	-1.339773e-08	-3.443215e+01	-8.779420e+02
2.500000e-07	-4.896631e-06	-1.334554e-08	-3.411145e+01	-8.750100e+02
2.600000e-07	-4.848827e-06	-1.331235e-08	-3.377843e+01	-8.720075e+02
2.700000e-07	-4.799042e-06	-1.324998e-08	-3.343161e+01	-8.689007e+02
2.800000e-07	-4.747156e-06	-1.319146e-08	-3.307016e+01	-8.656519e+02
2.900000e-07	-4.693318e-06	-1.312661e-08	-3.269510e+01	-8.622387e+02
3.000000e-07	-4.637832e-06	-1.306010e-08	-3.230858e+01	-8.586652e+02
3.100000e-07	-4.580702e-06	-1.301094e-08	-3.191059e+01	-8.549599e+02
3.200000e-07	-4.521728e-06	-1.297018e-08	-3.149976e+01	-8.511617e+02
3.300000e-07	-4.461054e-06	-1.294888e-08	-3.107709e+01	-8.472993e+02
3.400000e-07	-4.398957e-06	-1.287434e-08	-3.064449e+01	-8.433738e+02
3.500000e-07	-4.335407e-06	-1.279463e-08	-3.020179e+01	-8.393526e+02
3.600000e-07	-4.270330e-06	-1.272912e-08	-2.974844e+01	-8.351799e+02
3.700000e-07	-4.203584e-06	-1.264879e-08	-2.928347e+01	-8.307974e+02
3.800000e-07	-4.135170e-06	-1.258847e-08	-2.880687e+01	-8.261702e+02
3.900000e-07	-4.065282e-06	-1.251650e-08	-2.832001e+01	-8.213028e+02
4.000000e-07	-3.994094e-06	-1.243995e-08	-2.782410e+01	-8.162402e+02
4.100000e-07	-3.921650e-06	-1.237003e-08	-2.731943e+01	-8.110501e+02
4.200000e-07	-3.847760e-06	-1.229292e-08	-2.680469e+01	-8.057947e+02
4.300000e-07	-3.772148e-06	-1.220982e-08	-2.627795e+01	-8.005014e+02
4.400000e-07	-3.694896e-06	-1.211857e-08	-2.573979e+01	-7.951481e+02
4.500000e-07	-3.616237e-06	-1.203994e-08	-2.519183e+01	-7.896670e+02
4.600000e-07	-3.536095e-06	-1.195432e-08	-2.463353e+01	-7.839703e+02
4.700000e-07	-3.454501e-06	-1.186064e-08	-2.406512e+01	-7.779840e+02
4.800000e-07	-3.371692e-06	-1.176533e-08	-2.348825e+01	-7.716791e+02
4.900000e-07	-3.287783e-06	-1.166130e-08	-2.290371e+01	-7.650850e+02
5.000000e-07	-3.202836e-06	-1.156551e-08	-2.231194e+01	-7.582777e+02
5.100000e-07	-3.116951e-06	-1.146102e-08	-2.171365e+01	-7.513490e+02
5.200000e-07	-3.030163e-06	-1.135183e-08	-2.110906e+01	-7.443656e+02
5.300000e-07	-2.942438e-06	-1.124458e-08	-2.049793e+01	-7.373386e+02
5.400000e-07	-2.853740e-06	-1.113562e-08	-1.988004e+01	-7.302135e+02
5.500000e-07	-2.763989e-06	-1.102264e-08	-1.925480e+01	-7.228888e+02
5.600000e-07	-2.673087e-06	-1.090390e-08	-1.862155e+01	-7.152546e+02
5.700000e-07	-2.581063e-06	-1.078112e-08	-1.798048e+01	-7.072359e+02
5.800000e-07	-2.488109e-06	-1.065109e-08	-1.733294e+01	-6.988228e+02
5.900000e-07	-2.394385e-06	-1.051939e-08	-1.668003e+01	-6.900738e+02
6.000000e-07	-2.299858e-06	-1.038293e-08	-1.602152e+01	-6.810891e+02
6.100000e-07	-2.204564e-06	-1.024373e-08	-1.535768e+01	-6.719652e+02
6.200000e-07	-2.108553e-06	-1.010417e-08	-1.468883e+01	-6.627486e+02
6.300000e-07	-2.011794e-06	-9.964138e-09	-1.401478e+01	-6.534086e+02
6.400000e-07	-1.914286e-06	-9.820718e-09	-1.333551e+01	-6.438423e+02
6.500000e-07	-1.815969e-06	-9.663998e-09	-1.265060e+01	-6.339107e+02
6.600000e-07	-1.716807e-06	-9.494156e-09	-1.195981e+01	-6.234911e+02
6.700000e-07	-1.616924e-06	-9.320621e-09	-1.126400e+01	-6.125251e+02
6.800000e-07	-1.516476e-06	-9.148515e-09	-1.056424e+01	-6.010406e+02
6.900000e-07	-1.415546e-06	-8.972205e-09	-9.861135e+00	-5.891369e+02
7.000000e-07	-1.314187e-06	-8.791198e-09	-9.155033e+00	-5.769383e+02
7.100000e-07	-1.212412e-06	-8.606564e-09	-8.446036e+00	-5.645343e+02
7.200000e-07	-1.110198e-06	-8.415211e-09	-7.733985e+00	-5.519311e+02
7.300000e-07	-1.007584e-06	-8.214778e-09	-7.019141e+00	-5.390373e+02
7.400000e-07	-9.046196e-07	-8.001556e-09	-6.301860e+00	-5.256897e+02
7.500000e-07	-8.013635e-07	-7.779397e-09	-5.582547e+00	-5.117114e+02
7.600000e-07	-6.978172e-07	-7.553960e-09	-4.861211e+00	-4.969771e+02
7.700000e-07	-5.939618e-07	-7.325781e-09	-4.137722e+00	-4.814584e+02
7.800000e-07	-4.899159e-07	-7.087859e-09	-3.412906e+00	-4.652270e+02
7.900000e-07	-3.857505e-07	-6.835782e-09	-2.687257e+00	-4.484118e+02
8.000000e-07	-2.814814e-07	-6.572164e-09	-1.960887e+00	-4.311269e+02
8.100000e-07	-1.771269e-07	-6.297492e-09	-1.233921e+00	-4.133991e+02
8.200000e-07	-7.266640e-08	-6.010761e-09	-5.062167e-01	-3.951277e+02
8.300000e-07	3.184270e-08	-5.713313e-09	2.218261e-01	-3.760972e+02
8.400000e-07	1.363028e-07	-5.404321e-09	9.495272e-01	-3.560399e+02
8.500000e-07	2.406617e-07	-5.081888e-09	1.676524e+00	-3.347236e+02
8.600000e-07	3.449179e-07	-4.743305e-09	2.402805e+00	-3.120247e+02
8.700000e-07	4.490971e-07	-4.381844e-09	3.128549e+00	-2.879478e+02
8.800000e-07	5.531428e-07	-3.992928e-09	3.853364e+00	-2.625708e+02
8.900000e-07	6.569757e-07	-3.580854e-09	4.576696e+00	-2.359270e+02
9.000000e-07	7.605673e-07	-3.148022e-09	5.298347e+00	-2.078632e+02
9.100000e-07	8.638446e-07	-2.684055e-09	6.017809e+00	-1.779316e+02
9.200000e-07	9.668283e-07	-2.177654e-09	6.735225e+00	-1.453731e+02
9.300000e-07	1.069514e-06	-1.618721e-09	7.450563e+00	-1.092212e+02
9.400000e-07	1.171816e-06	-9.975090e-10	8.163232e+00	-6.852146e+01
9.500000e-07	1.273694e-06	-3.036810e-10	8.872944e+00	-2.261335e+01
9.600000e-07	1.375130e-06	4.737601e-10	9.579584e+00	2.860250e+01
9.700000e-07	1.476183e-06	1.330073e-09	1.028355e+01	8.449557e+01
9.800000e-07	1.576820e-06	2.242405e-09	1.098462e+01	1.436965e+02
9.900000e-07	1.676920e-06	3.175229e-09	1.168194e+01	2.042640e+02
1.000000e-06	1.776351e-06	4.090301e-09	1.237461e+01	2.639938e+02
1.010000e-06	1.875019e-06	4.954802e-09	1.306196e+01	3.207914e+02
1.020000e-06	1.972887e-06	5.738440e-09	1.374374e+01	3.730143e+02
1.030000e-06	2.069931e-06	6.428261e-09	1.441978e+01	4.196976e+02
1.040000e-06	2.166231e-06	7.032594e-09	1.509063e+01	4.606138e+02
1.050000e-06	2.261792e-06	7.566006e-09	1.575634e+01	4.961665e+02
1.060000e-06	2.356559e-06	8.039007e-09	1.641652e+01	5.271655e+02
1.070000e-06	2.450583e-06	8.460024e-09	1.707152e+01	5.545575e+02
1.080000e-06	2.543892e-06	8.837124e-09	1.772154e+01	5.791918e+02
1.090000e-06	2.636403e-06	9.180659e-09	1.836600e+01	6.016779e+02
1.100000e-06	2.727900e-06	9.494401e-09	1.900340e+01	6.223563e+02
1.110000e-06	2.818220e-06	9.776691e-09	1.963259e+01	6.413632e+02
1.120000e-06	2.907393e-06	1.003195e-08	2.025380e+01	6.587452e+02
1.130000e-06	2.995562e-06	1.026525e-08	2.086801e+01	6.745690e+02
1.140000e-06	3.082760e-06	1.048202e-08	2.147546e+01	6.889863e+02
1.150000e-06	3.168911e-06	1.068673e-08	2.207562e+01	7.022356e+02
1.160000e-06	3.254063e-06	1.087934e-08	2.266881e+01	7.145925e+02
1.170000e-06	3.338230e-06	1.105906e-08	2.325515e+01	7.262982e+02
1.180000e-06	3.421202e-06	1.122909e-08	2.383315e+01	7.375004e+02
1.190000e-06	3.502863e-06	1.139119e-08	2.440203e+01	7.482327e+02
1.200000e-06	3.583238e-06	1.154481e-08	2.496195e+01	7.584387e+02
1.210000e-06	3.662338e-06	1.168838e-08	2.551298e+01	7.680271e+02
1.220000e-06	3.740195e-06	1.182266e-08	2.605536e+01	7.769350e+02
1.230000e-06	3.816718e-06	1.194753e-08	2.658844e+01	7.851703e+02
1.240000e-06	3.891641e-06	1.206464e-08	2.711038e+01	7.928203e+02
1.250000e-06	3.964933e-06	1.217759e-08	2.762095e+01	8.000235e+02
1.260000e-06	4.036809e-06	1.228501e-08	2.812166e+01	8.069217e+02
1.270000e-06	4.107300e-06	1.238636e-08	2.861272e+01	8.136124e+02
1.280000e-06	4.176426e-06	1.248338e-08	2.909428e+01	8.201226e+02
1.290000e-06	4.244154e-06	1.257761e-08	2.956609e+01	8.264135e+02
1.300000e-06	4.310209e-06	1.266739e-08	3.002625e+01	8.324113e+02
1.310000e-06	4.374640e-06	1.275138e-08	3.047510e+01	8.380513e+02
1.320000e-06	4.437644e-06	1.283022e-08	3.091400e+01	8.433131e+02
1.330000e-06	4.499255e-06	1.290571e-08	3.134320e+01	8.482352e+02
1.340000e-06	4.559414e-06	1.297869e-08	3.176229e+01	8.529017e+02
1.350000e-06	4.617833e-06	1.304968e-08	3.216926e+01	8.574094e+02
1.360000e-06	4.674424e-06	1.311956e-08	3.256349e+01	8.618296e+02
1.370000e-06	4.729348e-06	1.318770e-08	3.294610e+01	8.661815e+02
1.380000e-06	4.782555e-06	1.325145e-08	3.331676e+01	8.704276e+02
1.390000e-06	4.833735e-06	1.331148e-08	3.367330e+01	8.744925e+02
1.400000e-06	4.882889e-06	1.336733e-08	3.401572e+01	8.782963e+02
1.410000e-06	4.930313e-06	1.341626e-08	3.434608e+01	8.817882e+02
1.420000e-06	4.976153e-06	1.346171e-08	3.466542e+01	8.849664e+02
1.430000e-06	5.020393e-06	1.350886e-08	3.497361e+01	8.878776e+02
1.440000e-06	5.062679e-06	1.355707e-08	3.526819e+01	8.905961e+02
1.450000e-06	5.102996e-06	1.360082e-08	3.554905e+01	8.931941e+02
1.460000e-06	5.141656e-06	1.363875e-08	3.581837e+01	8.957141e+02
1.470000e-06	5.178735e-06	1.367407e-08	3.607667e+01	8.981559e+02
1.480000e-06	5.213947e-06	1.370756e-08	3.632197e+01	9.004817e+02
1.490000e-06	5.247131e-06	1.373780e-08	3.655314e+01	9.026367e+02
1.500000e-06	5.278540e-06	1.376401e-08	3.677194e+01	9.045752e+02
1.510000e-06	5.308272e-06	1.378818e-08	3.697906e+01	9.062813e+02
1.520000e-06	5.336243e-06	1.381390e-08	3.717392e+01	9.077751e+02
1.530000e-06	5.362104e-06	1.384047e-08	3.735408e+01	9.091046e+02
1.540000e-06	5.385884e-06	1.386378e-08	3.751974e+01	9.103251e+02
1.550000e-06	5.407928e-06	1.388234e-08	3.767330e+01	9.114779e+02
1.560000e-06	5.428238e-06	1.389842e-08	3.781479e+01	9.125751e+02
1.570000e-06	5.446622e-06	1.391472e-08	3.794286e+01	9.135978e+02
1.580000e-06	5.462960e-06	1.392914e-08	3.805667e+01	9.145066e+02
1.590000e-06	5.477311e-06	1.393834e-08	3.815664e+01	9.152595e+02
1.600000e-06	5.489600e-06	1.394629e-08	3.824225e+01	9.158289e+02
1.610000e-06	5.499693e-06	1.395663e-08	3.831257e+01	9.162121e+02
1.620000e-06	5.507727e-06	1.396619e-08	3.836853e+01	9.164302e+02
1.630000e-06	5.513899e-06	1.396954e-08	3.841152e+01	9.165186e+02
1.640000e-06	5.518238e-06	1.396833e-08	3.844175e+01	9.165132e+02
1.650000e-06	5.520545e-06	1.396902e-08	3.845782e+01	9.164384e+02
1.660000e-06	5.520857e-06	1.397053e-08	3.846000e+01	9.163017e+02
1.670000e-06	5.519421e-06	1.396513e-08	3.845000e+01	9.160957e+02
1.680000e-06	5.516341e-06	1.395678e-08	3.842854e+01	9.158047e+02
1.690000e-06	5.511438e-06	1.395278e-08	3.839438e+01	9.154126e+02
1.700000e-06	5.504547e-06	1.395155e-08	3.834638e+01	9.149076e+02
1.710000e-06	5.495908e-06	1.394750e-08	3.828619e+01	9.142826e+02
1.720000e-06	5.485648e-06	1.393753e-08	3.821472e+01	9.135333e+02
1.730000e-06	5.473445e-06	1.392757e-08	3.812971e+01	9.126550e+02
1.740000e-06	5.459136e-06	1.390367e-08	3.803003e+01	9.116432e+02
1.750000e-06	5.442811e-06	1.383957e-08	3.791630e+01	9.104966e+02
1.760000e-06	5.424029e-06	1.382156e-08	3.778547e+01	9.092226e+02
1.770000e-06	5.402469e-06	1.382884e-08	3.763527e+01	9.078411e+02
1.780000e-06	5.378783e-06	1.383642e-08	3.747027e+01	9.063825e+02
1.790000e-06	5.354002e-06	1.385700e-08	3.729763e+01	9.048803e+02
1.800000e-06	5.328403e-06	1.375742e-08	3.711930e+01	9.033587e+02
1.810000e-06	5.301008e-06	1.372453e-08	3.692846e+01	9.018204e+02
1.820000e-06	5.271270e-06	1.377389e-08	3.672130e+01	9.002410e+02
1.830000e-06	5.239911e-06	1.369622e-08	3.650284e+01	8.985716e+02
1.840000e-06	5.206835e-06	1.370222e-08	3.627242e+01	8.967531e+02
1.850000e-06	5.171937e-06	1.368790e-08	3.602931e+01	8.947339e+02
1.860000e-06	5.135378e-06	1.357929e-08	3.577463e+01	8.924878e+02
1.870000e-06	5.096661e-06	1.362421e-08	3.550492e+01	8.900222e+02
1.880000e-06	5.056133e-06	1.357888e-08	3.522259e+01	8.873745e+02
1.890000e-06	5.014089e-06	1.348902e-08	3.492969e+01	8.845969e+02
1.900000e-06	4.970132e-06	1.349021e-08	3.462348e+01	8.817361e+02
1.910000e-06	4.924408e-06	1.338405e-08	3.430495e+01	8.788161e+02
1.920000e-06	4.876860e-06	1.336716e-08	3.397372e+01	8.758305e+02
1.930000e-06	4.827466e-06	1.333267e-08	3.362962e+01	8.727488e+02
1.940000e-06	4.776341e-06	1.324334e-08	3.327347e+01	8.695325e+02
1.950000e-06	4.723087e-06	1.325949e-08	3.290249e+01	8.661546e+02
1.960000e-06	4.667961e-06	1.317272e-08	3.251846e+01	8.626132e+02
1.970000e-06	4.611185e-06	1.311818e-08	3.212294e+01	8.589323e+02
1.980000e-06	4.552764e-06	1.304463e-08	3.171596e+01	8.551503e+02
1.990000e-06	4.492847e-06	1.295615e-08	3.129856e+01	8.512999e+02
2.000000e-06	4.431156e-06	1.295293e-08	3.086881e+01	8.473890e+02
2.010000e-06	4.367851e-06	1.285839e-08	3.042780e+01	8.433919e+02
2.020000e-06	4.303063e-06	1.282806e-08	2.997647e+01	8.392563e+02
2.030000e-06	4.236805e-06	1.275834e-08	2.951490e+01	8.349223e+02
2.040000e-06	4.169083e-06	1.265882e-08	2.904312e+01	8.303481e+02
2.050000e-06	4.099567e-06	1.261199e-08	2.855886e+01	8.255290e+02
2.060000e-06	4.028470e-06	1.249775e-08	2.806357e+01	8.205023e+02
2.070000e-06	3.956029e-06	1.244864e-08	2.755893e+01	8.153331e+02
2.080000e-06	3.882245e-06	1.236671e-08	2.704492e+01	8.100872e+02
2.090000e-06	3.806945e-06	1.229066e-08	2.652035e+01	8.048016e+02
2.100000e-06	3.729942e-06	1.222041e-08	2.598393e+01	7.994649e+02
2.110000e-06	3.651451e-06	1.210544e-08	2.543714e+01	7.940179e+02
2.120000e-06	3.571672e-06	1.203433e-08	2.488138e+01	7.883741e+02
2.130000e-06	3.490743e-06	1.192956e-08	2.431760e+01	7.824535e+02
2.140000e-06	3.408730e-06	1.184610e-08	2.374627e+01	7.762159e+02
2.150000e-06	3.325611e-06	1.174580e-08	2.316723e+01	7.696780e+02
2.160000e-06	3.241226e-06	1.163733e-08	2.257938e+01	7.629080e+02
2.170000e-06	3.155475e-06	1.154566e-08	2.198201e+01	7.559977e+02
2.180000e-06	3.068497e-06	1.143125e-08	2.137610e+01	7.490223e+02
2.190000e-06	2.980522e-06	1.132839e-08	2.076324e+01	7.420065e+02
2.200000e-06	2.891653e-06	1.121496e-08	2.014415e+01	7.349092e+02
2.210000e-06	2.801820e-06	1.110130e-08	1.951835e+01	7.276365e+02
2.220000e-06	2.711074e-06	1.098545e-08	1.888618e+01	7.200761e+02
2.230000e-06	2.619440e-06	1.086796e-08	1.824783e+01	7.121425e+02
2.240000e-06	2.526774e-06	1.074383e-08	1.760229e+01	7.038106e+02
2.250000e-06	2.433047e-06	1.061155e-08	1.694936e+01	6.951253e+02
2.260000e-06	2.338344e-06	1.047615e-08	1.628963e+01	6.861816e+02
2.270000e-06	2.242827e-06	1.034067e-08	1.562423e+01	6.770807e+02
2.280000e-06	2.146590e-06	1.020010e-08	1.495381e+01	6.678832e+02
2.290000e-06	2.049656e-06	1.005137e-08	1.427854e+01	6.585756e+02
2.300000e-06	1.952055e-06	9.905658e-09	1.359862e+01	6.490684e+02
2.310000e-06	1.853895e-06	9.758350e-09	1.291480e+01	6.392263e+02
2.320000e-06	1.755230e-06	9.607805e-09	1.222747e+01	6.289183e+02
2.330000e-06	1.655985e-06	9.439481e-09	1.153610e+01	6.180694e+02
2.340000e-06	1.556182e-06	9.266429e-09	1.084085e+01	6.066890e+02
2.350000e-06	1.455786e-06	9.089602e-09	1.014145e+01	5.948641e+02
2.360000e-06	1.354703e-06	8.904012e-09	9.437279e+00	5.827185e+02
2.370000e-06	1.252982e-06	8.715785e-09	8.728663e+00	5.703541e+02
2.380000e-06	1.150741e-06	8.521813e-09	8.016415e+00	5.577975e+02
2.390000e-06	1.048011e-06	8.328801e-09	7.300767e+00	5.449774e+02
2.400000e-06	9.448989e-07	8.127930e-09	6.582458e+00	5.317420e+02
2.410000e-06	8.414767e-07	7.913936e-09	5.861987e+00	5.179114e+02
2.420000e-06	7.377782e-07	7.686961e-09	5.139592e+00	5.033446e+02
2.430000e-06	6.339143e-07	7.449200e-09	4.416043e+00	4.879905e+02
2.440000e-06	5.298743e-07	7.206672e-09	3.691269e+00	4.719013e+02
2.450000e-06	4.256357e-07	6.958810e-09	2.965110e+00	4.551993e+02
2.460000e-06	3.212772e-07	6.702175e-09	2.238116e+00	4.380084e+02
2.470000e-06	2.167936e-07	6.436058e-09	1.510252e+00	4.203788e+02
2.480000e-06	1.121861e-07	6.155509e-09	7.815233e-01	4.022382e+02
2.490000e-06	7.541513e-09	5.858624e-09	5.253651e-02	3.833919e+02
2.500000e-06	-9.706520e-08	5.547091e-09	-6.761862e-01	3.635761e+02
2.510000e-06	-2.016007e-07	5.224511e-09	-1.404413e+00	3.425438e+02
2.520000e-06	-3.060525e-07	4.892095e-09	-2.132057e+00	3.201444e+02
2.530000e-06	-4.103506e-07	4.541261e-09	-2.858630e+00	2.963567e+02
2.540000e-06	-5.145013e-07	4.166697e-09	-3.584175e+00	2.712511e+02
2.550000e-06	-6.185054e-07	3.768078e-09	-4.308700e+00	2.448827e+02
2.560000e-06	-7.222889e-07	3.343458e-09	-5.031688e+00	2.171493e+02
2.570000e-06	-8.258254e-07	2.886000e-09	-5.752956e+00	1.876714e+02
2.580000e-06	-9.290966e-07	2.390659e-09	-6.472374e+00	1.557521e+02
2.590000e-06	-1.032027e-06	1.850922e-09	-7.189417e+00	1.204545e+02
2.600000e-06	-1.134486e-06	1.255383e-09	-7.903184e+00	8.079884e+01
2.610000e-06	-1.236471e-06	5.906629e-10	-8.613640e+00	3.603719e+01
2.620000e-06	-1.337932e-06	-1.555752e-10	-9.320448e+00	-1.406873e+01
2.630000e-06	-1.438710e-06	-9.863666e-10	-1.002250e+01	-6.905161e+01
2.640000e-06	-1.538853e-06	-1.884319e-09	-1.072013e+01	-1.276921e+02
2.650000e-06	-1.638496e-06	-2.817140e-09	-1.141427e+01	-1.881495e+02
2.660000e-06	-1.737644e-06	-3.746952e-09	-1.210497e+01	-2.482452e+02
2.670000e-06	-1.836194e-06	-4.635117e-09	-1.279149e+01	-3.058298e+02
2.680000e-06	-1.934072e-06	-5.450624e-09	-1.347334e+01	-3.591400e+02
2.690000e-06	-2.031269e-06	-6.177166e-09	-1.415045e+01	-4.070546e+02
2.700000e-06	-2.127760e-06	-6.820763e-09	-1.482264e+01	-4.491919e+02
2.710000e-06	-2.223619e-06	-7.390567e-09	-1.549042e+01	-4.858360e+02
2.720000e-06	-2.318912e-06	-7.890094e-09	-1.615426e+01	-5.177324e+02
2.730000e-06	-2.413529e-06	-8.328018e-09	-1.681339e+01	-5.458202e+02
2.740000e-06	-2.507163e-06	-8.718501e-09	-1.746567e+01	-5.709853e+02
2.750000e-06	-2.599645e-06	-9.072049e-09	-1.810993e+01	-5.938950e+02
2.760000e-06	-2.691075e-06	-9.393569e-09	-1.874686e+01	-6.149444e+02
2.770000e-06	-2.781520e-06	-9.687280e-09	-1.937693e+01	-6.343050e+02
2.780000e-06	-2.870988e-06	-9.955282e-09	-2.000019e+01	-6.520322e+02
2.790000e-06	-2.959460e-06	-1.020272e-08	-2.061651e+01	-6.681810e+02
2.800000e-06	-3.047008e-06	-1.043162e-08	-2.122640e+01	-6.828827e+02
2.810000e-06	-3.133596e-06	-1.064191e-08	-2.182960e+01	-6.963599e+02
2.820000e-06	-3.218946e-06	-1.083559e-08	-2.242418e+01	-7.088860e+02
2.830000e-06	-3.302970e-06	-1.101875e-08	-2.300951e+01	-7.207156e+02
2.840000e-06	-3.385818e-06	-1.119475e-08	-2.358666e+01	-7.320196e+02
2.850000e-06	-3.467559e-06	-1.135958e-08	-2.415609e+01	-7.428556e+02
2.860000e-06	-3.548156e-06	-1.151285e-08	-2.471755e+01	-7.531824e+02
2.870000e-06	-3.627577e-06	-1.165777e-08	-2.527082e+01	-7.629108e+02
2.880000e-06	-3.705628e-06	-1.179544e-08	-2.581455e+01	-7.719672e+02
2.890000e-06	-3.782095e-06	-1.192308e-08	-2.634725e+01	-7.803424e+02
2.900000e-06	-3.857045e-06	-1.204146e-08	-2.686937e+01	-7.881078e+02
2.910000e-06	-3.930596e-06	-1.215303e-08	-2.738175e+01	-7.953947e+02
2.920000e-06	-4.002828e-06	-1.226147e-08	-2.788494e+01	-8.023485e+02
2.930000e-06	-4.073772e-06	-1.236827e-08	-2.837915e+01	-8.090795e+02
2.940000e-06	-4.143151e-06	-1.247031e-08	-2.886248e+01	-8.156303e+02
