# Temperatura_=_33.28
# Concentracion g/m^3_=_13400.0
# C_Vs_to_Am_M_A/Vsm_=_65563218390.804596
# pendiente_HvsI_1/m_=_3716.3
# ordenada_HvsI_A/m_=_1297.0
# frecuencia_Hz_=_300802.71813883376

Tiempo_(s)	Campo_(V.s)	Magnetizacion_(V.s)	Campo_(kA/m)	Magnetizacion_(A/m)
0.000000e+00	-5.500845e-06	-1.393364e-08	-3.830784e+01	-9.135208e+02
1.000000e-08	-5.499378e-06	-1.393396e-08	-3.829762e+01	-9.134219e+02
2.000000e-08	-5.495889e-06	-1.392714e-08	-3.827332e+01	-9.132324e+02
3.000000e-08	-5.490654e-06	-1.391925e-08	-3.823687e+01	-9.129127e+02
4.000000e-08	-5.483783e-06	-1.391325e-08	-3.818902e+01	-9.124365e+02
5.000000e-08	-5.475305e-06	-1.390401e-08	-3.812998e+01	-9.117985e+02
6.000000e-08	-5.464956e-06	-1.388993e-08	-3.805791e+01	-9.110121e+02
7.000000e-08	-5.452513e-06	-1.386801e-08	-3.797126e+01	-9.101006e+02
8.000000e-08	-5.438118e-06	-1.383995e-08	-3.787101e+01	-9.090856e+02
9.000000e-08	-5.421394e-06	-1.387992e-08	-3.775455e+01	-9.079798e+02
1.000000e-07	-5.402234e-06	-1.390317e-08	-3.762111e+01	-9.067852e+02
1.100000e-07	-5.381047e-06	-1.383594e-08	-3.747357e+01	-9.054976e+02
1.200000e-07	-5.358044e-06	-1.379945e-08	-3.731338e+01	-9.041135e+02
1.300000e-07	-5.333522e-06	-1.372538e-08	-3.714260e+01	-9.026352e+02
1.400000e-07	-5.307458e-06	-1.364794e-08	-3.696109e+01	-9.010712e+02
1.500000e-07	-5.279602e-06	-1.377338e-08	-3.676711e+01	-8.994314e+02
1.600000e-07	-5.250114e-06	-1.368479e-08	-3.656175e+01	-8.977193e+02
1.700000e-07	-5.219084e-06	-1.358243e-08	-3.634566e+01	-8.959255e+02
1.800000e-07	-5.186151e-06	-1.372270e-08	-3.611632e+01	-8.940269e+02
1.900000e-07	-5.151140e-06	-1.359451e-08	-3.587249e+01	-8.919909e+02
2.000000e-07	-5.114554e-06	-1.352939e-08	-3.561772e+01	-8.897858e+02
2.100000e-07	-5.076286e-06	-1.355228e-08	-3.535122e+01	-8.873908e+02
2.200000e-07	-5.036192e-06	-1.339121e-08	-3.507200e+01	-8.848025e+02
2.300000e-07	-4.994252e-06	-1.340568e-08	-3.477993e+01	-8.820355e+02
2.400000e-07	-4.950226e-06	-1.343783e-08	-3.447333e+01	-8.791151e+02
2.500000e-07	-4.904380e-06	-1.335152e-08	-3.415406e+01	-8.760683e+02
2.600000e-07	-4.856774e-06	-1.334673e-08	-3.382253e+01	-8.729135e+02
2.700000e-07	-4.807167e-06	-1.325626e-08	-3.347708e+01	-8.696573e+02
2.800000e-07	-4.755468e-06	-1.318617e-08	-3.311704e+01	-8.662954e+02
2.900000e-07	-4.701846e-06	-1.314199e-08	-3.274362e+01	-8.628199e+02
3.000000e-07	-4.646524e-06	-1.306927e-08	-3.235835e+01	-8.592255e+02
3.100000e-07	-4.589560e-06	-1.301375e-08	-3.196166e+01	-8.555146e+02
3.200000e-07	-4.530820e-06	-1.297619e-08	-3.155259e+01	-8.516945e+02
3.300000e-07	-4.470368e-06	-1.297204e-08	-3.113161e+01	-8.477716e+02
3.400000e-07	-4.408365e-06	-1.286774e-08	-3.069982e+01	-8.437437e+02
3.500000e-07	-4.344886e-06	-1.278319e-08	-3.025776e+01	-8.395951e+02
3.600000e-07	-4.279984e-06	-1.272935e-08	-2.980577e+01	-8.352990e+02
3.700000e-07	-4.213484e-06	-1.263532e-08	-2.934267e+01	-8.308265e+02
3.800000e-07	-4.145299e-06	-1.258926e-08	-2.886783e+01	-8.261588e+02
3.900000e-07	-4.075585e-06	-1.251331e-08	-2.838234e+01	-8.212971e+02
4.000000e-07	-4.004584e-06	-1.242804e-08	-2.788789e+01	-8.162647e+02
4.100000e-07	-3.932342e-06	-1.236548e-08	-2.738480e+01	-8.110993e+02
4.200000e-07	-3.858704e-06	-1.228615e-08	-2.687198e+01	-8.058369e+02
4.300000e-07	-3.783332e-06	-1.220055e-08	-2.634709e+01	-8.004951e+02
4.400000e-07	-3.706198e-06	-1.210031e-08	-2.580993e+01	-7.950611e+02
4.500000e-07	-3.627610e-06	-1.202794e-08	-2.526265e+01	-7.894925e+02
4.600000e-07	-3.547608e-06	-1.194678e-08	-2.470551e+01	-7.837310e+02
4.700000e-07	-3.466193e-06	-1.185099e-08	-2.413854e+01	-7.777243e+02
4.800000e-07	-3.383526e-06	-1.174890e-08	-2.356285e+01	-7.714477e+02
4.900000e-07	-3.299779e-06	-1.163509e-08	-2.297964e+01	-7.649153e+02
5.000000e-07	-3.215029e-06	-1.154745e-08	-2.238944e+01	-7.581756e+02
5.100000e-07	-3.129270e-06	-1.144615e-08	-2.179221e+01	-7.512923e+02
5.200000e-07	-3.042531e-06	-1.133712e-08	-2.118816e+01	-7.443162e+02
5.300000e-07	-2.954878e-06	-1.122994e-08	-2.057775e+01	-7.372609e+02
5.400000e-07	-2.866282e-06	-1.112367e-08	-1.996076e+01	-7.300925e+02
5.500000e-07	-2.776668e-06	-1.101542e-08	-1.933669e+01	-7.227390e+02
5.600000e-07	-2.685925e-06	-1.089039e-08	-1.870476e+01	-7.151159e+02
5.700000e-07	-2.594014e-06	-1.076145e-08	-1.806470e+01	-7.071589e+02
5.800000e-07	-2.501132e-06	-1.063459e-08	-1.741786e+01	-6.988497e+02
5.900000e-07	-2.407483e-06	-1.051715e-08	-1.676569e+01	-6.902231e+02
6.000000e-07	-2.313054e-06	-1.038718e-08	-1.610809e+01	-6.813511e+02
6.100000e-07	-2.217856e-06	-1.024331e-08	-1.544513e+01	-6.723108e+02
6.200000e-07	-2.121937e-06	-1.009821e-08	-1.477715e+01	-6.631468e+02
6.300000e-07	-2.025235e-06	-9.954440e-09	-1.410372e+01	-6.538459e+02
6.400000e-07	-1.927720e-06	-9.812091e-09	-1.342463e+01	-6.443343e+02
6.500000e-07	-1.829382e-06	-9.659184e-09	-1.273980e+01	-6.345011e+02
6.600000e-07	-1.730274e-06	-9.498078e-09	-1.204961e+01	-6.242375e+02
6.700000e-07	-1.630475e-06	-9.335702e-09	-1.135461e+01	-6.134776e+02
6.800000e-07	-1.530082e-06	-9.171882e-09	-1.065548e+01	-6.022218e+02
6.900000e-07	-1.429232e-06	-8.993641e-09	-9.953159e+00	-5.905322e+02
7.000000e-07	-1.327921e-06	-8.805283e-09	-9.247629e+00	-5.785010e+02
7.100000e-07	-1.226175e-06	-8.616568e-09	-8.539073e+00	-5.662031e+02
7.200000e-07	-1.124002e-06	-8.427675e-09	-7.827540e+00	-5.536539e+02
7.300000e-07	-1.021420e-06	-8.233605e-09	-7.113159e+00	-5.407902e+02
7.400000e-07	-9.184882e-07	-8.028031e-09	-6.396345e+00	-5.274841e+02
7.500000e-07	-8.152645e-07	-7.813960e-09	-5.677495e+00	-5.135858e+02
7.600000e-07	-7.118150e-07	-7.592028e-09	-4.957074e+00	-4.989786e+02
7.700000e-07	-6.081281e-07	-7.361037e-09	-4.234999e+00	-4.836208e+02
7.800000e-07	-5.042330e-07	-7.117199e-09	-3.511475e+00	-4.675569e+02
7.900000e-07	-4.001719e-07	-6.863187e-09	-2.786794e+00	-4.508885e+02
8.000000e-07	-2.959609e-07	-6.605040e-09	-2.061070e+00	-4.337165e+02
8.100000e-07	-1.916642e-07	-6.339626e-09	-1.334748e+00	-4.160763e+02
8.200000e-07	-8.732660e-08	-6.060515e-09	-6.081418e-01	-3.978955e+02
8.300000e-07	1.704061e-08	-5.767438e-09	1.186707e-01	-3.789943e+02
8.400000e-07	1.213647e-07	-5.461594e-09	8.451828e-01	-3.591315e+02
8.500000e-07	2.256130e-07	-5.141227e-09	1.571167e+00	-3.380803e+02
8.600000e-07	3.297969e-07	-4.803162e-09	2.296703e+00	-3.156983e+02
8.700000e-07	4.338772e-07	-4.444515e-09	3.021517e+00	-2.919576e+02
8.800000e-07	5.378225e-07	-4.064452e-09	3.745392e+00	-2.669116e+02
8.900000e-07	6.416341e-07	-3.662901e-09	4.468335e+00	-2.405982e+02
9.000000e-07	7.452742e-07	-3.239927e-09	5.190084e+00	-2.129118e+02
9.100000e-07	8.486922e-07	-2.785465e-09	5.910285e+00	-1.834915e+02
9.200000e-07	9.518044e-07	-2.290016e-09	6.628358e+00	-1.516815e+02
9.300000e-07	1.054549e-06	-1.745987e-09	7.343869e+00	-1.165986e+02
9.400000e-07	1.156920e-06	-1.145522e-09	8.056781e+00	-7.731228e+01
9.500000e-07	1.258886e-06	-4.799864e-10	8.766869e+00	-3.309915e+01
9.600000e-07	1.360476e-06	2.641229e-10	9.474347e+00	1.629319e+01
9.700000e-07	1.461639e-06	1.089599e-09	1.017884e+01	7.045405e+01
9.800000e-07	1.562305e-06	1.979816e-09	1.087988e+01	1.282539e+02
9.900000e-07	1.662452e-06	2.901760e-09	1.157730e+01	1.879550e+02
1.000000e-06	1.761944e-06	3.818671e-09	1.227017e+01	2.474706e+02
1.010000e-06	1.860738e-06	4.694456e-09	1.295817e+01	3.047104e+02
1.020000e-06	1.958834e-06	5.496099e-09	1.364131e+01	3.579255e+02
1.030000e-06	2.056108e-06	6.207783e-09	1.431872e+01	4.059654e+02
1.040000e-06	2.152508e-06	6.834852e-09	1.499005e+01	4.483870e+02
1.050000e-06	2.248162e-06	7.391773e-09	1.565618e+01	4.854015e+02
1.060000e-06	2.343114e-06	7.885976e-09	1.631743e+01	5.176875e+02
1.070000e-06	2.437330e-06	8.322945e-09	1.697355e+01	5.461387e+02
1.080000e-06	2.530808e-06	8.710728e-09	1.762453e+01	5.716203e+02
1.090000e-06	2.623450e-06	9.063249e-09	1.826969e+01	5.948004e+02
1.100000e-06	2.715154e-06	9.385591e-09	1.890831e+01	6.160867e+02
1.110000e-06	2.805814e-06	9.676931e-09	1.953966e+01	6.356637e+02
1.120000e-06	2.895303e-06	9.942332e-09	2.016287e+01	6.535945e+02
1.130000e-06	2.983685e-06	1.018659e-08	2.077836e+01	6.699336e+02
1.140000e-06	3.071089e-06	1.041364e-08	2.138704e+01	6.848066e+02
1.150000e-06	3.157463e-06	1.062357e-08	2.198855e+01	6.984314e+02
1.160000e-06	3.242791e-06	1.081692e-08	2.258277e+01	7.110814e+02
1.170000e-06	3.327087e-06	1.099871e-08	2.316981e+01	7.230172e+02
1.180000e-06	3.410279e-06	1.117400e-08	2.374916e+01	7.344200e+02
1.190000e-06	3.492241e-06	1.134082e-08	2.431994e+01	7.453560e+02
1.200000e-06	3.572861e-06	1.149713e-08	2.488138e+01	7.557872e+02
1.210000e-06	3.652171e-06	1.164374e-08	2.543369e+01	7.656199e+02
1.220000e-06	3.730207e-06	1.178321e-08	2.597713e+01	7.747693e+02
1.230000e-06	3.806896e-06	1.191469e-08	2.651120e+01	7.832134e+02
1.240000e-06	3.882116e-06	1.203655e-08	2.703503e+01	7.910149e+02
1.250000e-06	3.955740e-06	1.214919e-08	2.754774e+01	7.983041e+02
1.260000e-06	4.027850e-06	1.225535e-08	2.804991e+01	8.052341e+02
1.270000e-06	4.098547e-06	1.235747e-08	2.854225e+01	8.119287e+02
1.280000e-06	4.167880e-06	1.245492e-08	2.902508e+01	8.184444e+02
1.290000e-06	4.235873e-06	1.254869e-08	2.949858e+01	8.247632e+02
1.300000e-06	4.302245e-06	1.263985e-08	2.996080e+01	8.308163e+02
1.310000e-06	4.366925e-06	1.272814e-08	3.041123e+01	8.365267e+02
1.320000e-06	4.430138e-06	1.281191e-08	3.085144e+01	8.418524e+02
1.330000e-06	4.491931e-06	1.288926e-08	3.128178e+01	8.468107e+02
1.340000e-06	4.552297e-06	1.296028e-08	3.170216e+01	8.514757e+02
1.350000e-06	4.611032e-06	1.302768e-08	3.211119e+01	8.559491e+02
1.360000e-06	4.667958e-06	1.309417e-08	3.250762e+01	8.603202e+02
1.370000e-06	4.723188e-06	1.315942e-08	3.289225e+01	8.646309e+02
1.380000e-06	4.776741e-06	1.322241e-08	3.326519e+01	8.688612e+02
1.390000e-06	4.828383e-06	1.328375e-08	3.362482e+01	8.729412e+02
1.400000e-06	4.877953e-06	1.334339e-08	3.397003e+01	8.767825e+02
1.410000e-06	4.925675e-06	1.339895e-08	3.430237e+01	8.803170e+02
1.420000e-06	4.971747e-06	1.344793e-08	3.462320e+01	8.835260e+02
1.430000e-06	5.016219e-06	1.349176e-08	3.493291e+01	8.864474e+02
1.440000e-06	5.058874e-06	1.353417e-08	3.522996e+01	8.891605e+02
1.450000e-06	5.099586e-06	1.357413e-08	3.551348e+01	8.917532e+02
1.460000e-06	5.138512e-06	1.361165e-08	3.578456e+01	8.942884e+02
1.470000e-06	5.175765e-06	1.364959e-08	3.604399e+01	8.967805e+02
1.480000e-06	5.211249e-06	1.368897e-08	3.629110e+01	8.991944e+02
1.490000e-06	5.244691e-06	1.372518e-08	3.652399e+01	9.014635e+02
1.500000e-06	5.276260e-06	1.375467e-08	3.674384e+01	9.035203e+02
1.510000e-06	5.306172e-06	1.377943e-08	3.695214e+01	9.053260e+02
1.520000e-06	5.334364e-06	1.380361e-08	3.714847e+01	9.068867e+02
1.530000e-06	5.360523e-06	1.382909e-08	3.733064e+01	9.082503e+02
1.540000e-06	5.384553e-06	1.385186e-08	3.749799e+01	9.094864e+02
1.550000e-06	5.406731e-06	1.387091e-08	3.765243e+01	9.106579e+02
1.560000e-06	5.427236e-06	1.388957e-08	3.779523e+01	9.117969e+02
1.570000e-06	5.445935e-06	1.390831e-08	3.792545e+01	9.128941e+02
1.580000e-06	5.462587e-06	1.392392e-08	3.804141e+01	9.139050e+02
1.590000e-06	5.477202e-06	1.393469e-08	3.814319e+01	9.147711e+02
1.600000e-06	5.489772e-06	1.394549e-08	3.823073e+01	9.154444e+02
1.610000e-06	5.500136e-06	1.395764e-08	3.830290e+01	9.159073e+02
1.620000e-06	5.508396e-06	1.396677e-08	3.836042e+01	9.161788e+02
1.630000e-06	5.514800e-06	1.397243e-08	3.840502e+01	9.163057e+02
1.640000e-06	5.519442e-06	1.397547e-08	3.843735e+01	9.163435e+02
1.650000e-06	5.522103e-06	1.397724e-08	3.845588e+01	9.163353e+02
1.660000e-06	5.522694e-06	1.397928e-08	3.846000e+01	9.162969e+02
1.670000e-06	5.521412e-06	1.397444e-08	3.845107e+01	9.162140e+02
1.680000e-06	5.518513e-06	1.396855e-08	3.843088e+01	9.160509e+02
1.690000e-06	5.513818e-06	1.396657e-08	3.839818e+01	9.157667e+02
1.700000e-06	5.507083e-06	1.396345e-08	3.835128e+01	9.153308e+02
1.710000e-06	5.498670e-06	1.395750e-08	3.829269e+01	9.147325e+02
1.720000e-06	5.488649e-06	1.394904e-08	3.822291e+01	9.139811e+02
1.730000e-06	5.476706e-06	1.395131e-08	3.813974e+01	9.130984e+02
1.740000e-06	5.462701e-06	1.393928e-08	3.804221e+01	9.121075e+02
1.750000e-06	5.446726e-06	1.383417e-08	3.793095e+01	9.110237e+02
1.760000e-06	5.428304e-06	1.381562e-08	3.780266e+01	9.098514e+02
1.770000e-06	5.406986e-06	1.383701e-08	3.765421e+01	9.085874e+02
1.780000e-06	5.383454e-06	1.384811e-08	3.749033e+01	9.072273e+02
1.790000e-06	5.358755e-06	1.393036e-08	3.731833e+01	9.057718e+02
1.800000e-06	5.333319e-06	1.374484e-08	3.714119e+01	9.042281e+02
1.810000e-06	5.306267e-06	1.371403e-08	3.695280e+01	9.026064e+02
1.820000e-06	5.276778e-06	1.386253e-08	3.674744e+01	9.009124e+02
1.830000e-06	5.245609e-06	1.364751e-08	3.653038e+01	8.991406e+02
1.840000e-06	5.212792e-06	1.368289e-08	3.630184e+01	8.972709e+02
1.850000e-06	5.178104e-06	1.375359e-08	3.606028e+01	8.952723e+02
1.860000e-06	5.141817e-06	1.353495e-08	3.580757e+01	8.931119e+02
1.870000e-06	5.103394e-06	1.366561e-08	3.553999e+01	8.907652e+02
1.880000e-06	5.063080e-06	1.362202e-08	3.525925e+01	8.882243e+02
1.890000e-06	5.021264e-06	1.345262e-08	3.496804e+01	8.854997e+02
1.900000e-06	4.977537e-06	1.353410e-08	3.466353e+01	8.826149e+02
1.910000e-06	4.932049e-06	1.335272e-08	3.434675e+01	8.795973e+02
1.920000e-06	4.884741e-06	1.337375e-08	3.401730e+01	8.764683e+02
1.930000e-06	4.835562e-06	1.340218e-08	3.367482e+01	8.732373e+02
1.940000e-06	4.784712e-06	1.322419e-08	3.332070e+01	8.699025e+02
1.950000e-06	4.731732e-06	1.328226e-08	3.295175e+01	8.664559e+02
1.960000e-06	4.676825e-06	1.317016e-08	3.256937e+01	8.628912e+02
1.970000e-06	4.620296e-06	1.310909e-08	3.217571e+01	8.592086e+02
1.980000e-06	4.562118e-06	1.304551e-08	3.177056e+01	8.554149e+02
1.990000e-06	4.502412e-06	1.294287e-08	3.135476e+01	8.515173e+02
2.000000e-06	4.440990e-06	1.299495e-08	3.092702e+01	8.475164e+02
2.010000e-06	4.377961e-06	1.285492e-08	3.048809e+01	8.434000e+02
2.020000e-06	4.313369e-06	1.284357e-08	3.003827e+01	8.391434e+02
2.030000e-06	4.247315e-06	1.276080e-08	2.957827e+01	8.347172e+02
2.040000e-06	4.179861e-06	1.263396e-08	2.910852e+01	8.300990e+02
2.050000e-06	4.110621e-06	1.263291e-08	2.862633e+01	8.252843e+02
2.060000e-06	4.039754e-06	1.248701e-08	2.813281e+01	8.202912e+02
2.070000e-06	3.967505e-06	1.245998e-08	2.762967e+01	8.151551e+02
2.080000e-06	3.893930e-06	1.236465e-08	2.711730e+01	8.099142e+02
2.090000e-06	3.818915e-06	1.229006e-08	2.659489e+01	8.045920e+02
2.100000e-06	3.742226e-06	1.223276e-08	2.606083e+01	7.991838e+02
2.110000e-06	3.663936e-06	1.209615e-08	2.551562e+01	7.936539e+02
2.120000e-06	3.584279e-06	1.203881e-08	2.496089e+01	7.879460e+02
2.130000e-06	3.503490e-06	1.191986e-08	2.439827e+01	7.820042e+02
2.140000e-06	3.421577e-06	1.185808e-08	2.382783e+01	7.757952e+02
2.150000e-06	3.338532e-06	1.175592e-08	2.324951e+01	7.693231e+02
2.160000e-06	3.254280e-06	1.164478e-08	2.266278e+01	7.626292e+02
2.170000e-06	3.168662e-06	1.155778e-08	2.206654e+01	7.557759e+02
2.180000e-06	3.081775e-06	1.143113e-08	2.146146e+01	7.488198e+02
2.190000e-06	2.993880e-06	1.133539e-08	2.084935e+01	7.417854e+02
2.200000e-06	2.905055e-06	1.121284e-08	2.023078e+01	7.346508e+02
2.210000e-06	2.815260e-06	1.110791e-08	1.960545e+01	7.273514e+02
2.220000e-06	2.724572e-06	1.099645e-08	1.897390e+01	7.198029e+02
2.230000e-06	2.632922e-06	1.088096e-08	1.833565e+01	7.119330e+02
2.240000e-06	2.540237e-06	1.075034e-08	1.769019e+01	7.037105e+02
2.250000e-06	2.446591e-06	1.060849e-08	1.703804e+01	6.951573e+02
2.260000e-06	2.352000e-06	1.047742e-08	1.637931e+01	6.863388e+02
2.270000e-06	2.256573e-06	1.034439e-08	1.571475e+01	6.773344e+02
2.280000e-06	2.160453e-06	1.021488e-08	1.504538e+01	6.681999e+02
2.290000e-06	2.063619e-06	1.006993e-08	1.437103e+01	6.589378e+02
2.300000e-06	1.966069e-06	9.927376e-09	1.369169e+01	6.494882e+02
2.310000e-06	1.867970e-06	9.777582e-09	1.300853e+01	6.397463e+02
2.320000e-06	1.769382e-06	9.621229e-09	1.232196e+01	6.295986e+02
2.330000e-06	1.670159e-06	9.450136e-09	1.163098e+01	6.189654e+02
2.340000e-06	1.570334e-06	9.279122e-09	1.093580e+01	6.078296e+02
2.350000e-06	1.469978e-06	9.112999e-09	1.023692e+01	5.962401e+02
2.360000e-06	1.369013e-06	8.934211e-09	9.533799e+00	5.842855e+02
2.370000e-06	1.267442e-06	8.749061e-09	8.826458e+00	5.720498e+02
2.380000e-06	1.165385e-06	8.555961e-09	8.115733e+00	5.595662e+02
2.390000e-06	1.062827e-06	8.363857e-09	7.401519e+00	5.467910e+02
2.400000e-06	9.597545e-07	8.159460e-09	6.683723e+00	5.336094e+02
2.410000e-06	8.562902e-07	7.940360e-09	5.963198e+00	5.198721e+02
2.420000e-06	7.525276e-07	7.715698e-09	5.240596e+00	5.054493e+02
2.430000e-06	6.485548e-07	7.486588e-09	4.516531e+00	4.902780e+02
2.440000e-06	5.443924e-07	7.251440e-09	3.791144e+00	4.743823e+02
2.450000e-06	4.400887e-07	7.004592e-09	3.064774e+00	4.578542e+02
2.460000e-06	3.356623e-07	6.743982e-09	2.337549e+00	4.408011e+02
2.470000e-06	2.311431e-07	6.475506e-09	1.609679e+00	4.232800e+02
2.480000e-06	1.265699e-07	6.199078e-09	8.814321e-01	4.052474e+02
2.490000e-06	2.191893e-08	5.907738e-09	1.526432e-01	3.865475e+02
2.500000e-06	-8.272584e-08	5.601033e-09	-5.761021e-01	3.669481e+02
2.510000e-06	-1.872760e-07	5.280307e-09	-1.304189e+00	3.462115e+02
2.520000e-06	-2.917525e-07	4.948182e-09	-2.031762e+00	3.241690e+02
2.530000e-06	-3.961239e-07	4.600624e-09	-2.758604e+00	3.007648e+02
2.540000e-06	-5.003604e-07	4.230985e-09	-3.484506e+00	2.760387e+02
2.550000e-06	-6.044399e-07	3.837590e-09	-4.209314e+00	2.500441e+02
2.560000e-06	-7.083048e-07	3.421740e-09	-4.932629e+00	2.227232e+02
2.570000e-06	-8.119349e-07	2.978385e-09	-5.654309e+00	1.937865e+02
2.580000e-06	-9.152750e-07	2.497712e-09	-6.373968e+00	1.626499e+02
2.590000e-06	-1.018220e-06	1.971908e-09	-7.090878e+00	1.284745e+02
2.600000e-06	-1.120713e-06	1.392494e-09	-7.804635e+00	9.031945e+01
2.610000e-06	-1.222726e-06	7.484715e-10	-8.515057e+00	4.738402e+01
2.620000e-06	-1.324273e-06	2.984872e-11	-9.222224e+00	-7.240936e-01
2.630000e-06	-1.425347e-06	-7.697301e-10	-9.926106e+00	-5.377139e+01
2.640000e-06	-1.525839e-06	-1.641964e-09	-1.062593e+01	-1.108042e+02
2.650000e-06	-1.625670e-06	-2.559717e-09	-1.132115e+01	-1.702177e+02
2.660000e-06	-1.724804e-06	-3.484123e-09	-1.201152e+01	-2.299819e+02
2.670000e-06	-1.823328e-06	-4.376791e-09	-1.269764e+01	-2.879734e+02
2.680000e-06	-1.921309e-06	-5.210462e-09	-1.337998e+01	-3.423293e+02
2.690000e-06	-2.018631e-06	-5.965300e-09	-1.405773e+01	-3.917326e+02
2.700000e-06	-2.115272e-06	-6.634194e-09	-1.473074e+01	-4.355624e+02
2.710000e-06	-2.211358e-06	-7.222231e-09	-1.539988e+01	-4.738793e+02
2.720000e-06	-2.306812e-06	-7.739823e-09	-1.606462e+01	-5.072677e+02
2.730000e-06	-2.401467e-06	-8.197903e-09	-1.672380e+01	-5.365919e+02
2.740000e-06	-2.495251e-06	-8.606477e-09	-1.737691e+01	-5.627438e+02
2.750000e-06	-2.587997e-06	-8.971877e-09	-1.802279e+01	-5.864510e+02
2.760000e-06	-2.679568e-06	-9.300717e-09	-1.866049e+01	-6.081863e+02
2.770000e-06	-2.770109e-06	-9.603433e-09	-1.929102e+01	-6.281821e+02
2.780000e-06	-2.859735e-06	-9.882101e-09	-1.991517e+01	-6.465210e+02
2.790000e-06	-2.948376e-06	-1.013703e-08	-2.053247e+01	-6.632500e+02
2.800000e-06	-3.036025e-06	-1.037158e-08	-2.114286e+01	-6.784726e+02
2.810000e-06	-3.122699e-06	-1.058952e-08	-2.174645e+01	-6.923851e+02
2.820000e-06	-3.208256e-06	-1.079250e-08	-2.234227e+01	-7.052527e+02
2.830000e-06	-3.292486e-06	-1.097994e-08	-2.292885e+01	-7.173463e+02
2.840000e-06	-3.375480e-06	-1.115374e-08	-2.350681e+01	-7.288716e+02
2.850000e-06	-3.457380e-06	-1.131817e-08	-2.407717e+01	-7.399245e+02
2.860000e-06	-3.538199e-06	-1.147613e-08	-2.463999e+01	-7.504898e+02
2.870000e-06	-3.617838e-06	-1.162713e-08	-2.519459e+01	-7.604817e+02
2.880000e-06	-3.696058e-06	-1.176986e-08	-2.573932e+01	-7.698072e+02
2.890000e-06	-3.772690e-06	-1.190228e-08	-2.627299e+01	-7.784253e+02
2.900000e-06	-3.847769e-06	-1.202506e-08	-2.679584e+01	-7.863774e+02
2.910000e-06	-3.921450e-06	-1.213991e-08	-2.730895e+01	-7.937804e+02
2.920000e-06	-3.993844e-06	-1.224656e-08	-2.781309e+01	-8.007868e+02
2.930000e-06	-4.064927e-06	-1.234632e-08	-2.830812e+01	-8.075321e+02
2.940000e-06	-4.134501e-06	-1.244466e-08	-2.879263e+01	-8.140916e+02
