# Temperatura_=_58.76
# Concentracion g/m^3_=_13400.0
# C_Vs_to_Am_M_A/Vsm_=_65563218390.804596
# pendiente_HvsI_1/m_=_3716.3
# ordenada_HvsI_A/m_=_1297.0
# frecuencia_Hz_=_300799.831644862

Tiempo_(s)	Campo_(V.s)	Magnetizacion_(V.s)	Campo_(kA/m)	Magnetizacion_(A/m)
0.000000e+00	-5.480500e-06	-1.441101e-08	-3.830430e+01	-9.450973e+02
1.000000e-08	-5.478483e-06	-1.441123e-08	-3.829020e+01	-9.448502e+02
2.000000e-08	-5.474520e-06	-1.440680e-08	-3.826250e+01	-9.444753e+02
3.000000e-08	-5.468849e-06	-1.440057e-08	-3.822287e+01	-9.439782e+02
4.000000e-08	-5.461545e-06	-1.439107e-08	-3.817182e+01	-9.433712e+02
5.000000e-08	-5.452580e-06	-1.437823e-08	-3.810916e+01	-9.426640e+02
6.000000e-08	-5.441664e-06	-1.436054e-08	-3.803287e+01	-9.418543e+02
7.000000e-08	-5.428718e-06	-1.432856e-08	-3.794238e+01	-9.409254e+02
8.000000e-08	-5.413805e-06	-1.431694e-08	-3.783816e+01	-9.398533e+02
9.000000e-08	-5.396491e-06	-1.436770e-08	-3.771714e+01	-9.386200e+02
1.000000e-07	-5.376810e-06	-1.435552e-08	-3.757959e+01	-9.372270e+02
1.100000e-07	-5.355172e-06	-1.429448e-08	-3.742836e+01	-9.357029e+02
1.200000e-07	-5.331755e-06	-1.426378e-08	-3.726469e+01	-9.340980e+02
1.300000e-07	-5.306921e-06	-1.415171e-08	-3.709112e+01	-9.324679e+02
1.400000e-07	-5.280679e-06	-1.416430e-08	-3.690771e+01	-9.308507e+02
1.500000e-07	-5.252566e-06	-1.423784e-08	-3.671123e+01	-9.292482e+02
1.600000e-07	-5.222646e-06	-1.406132e-08	-3.650211e+01	-9.276180e+02
1.700000e-07	-5.191171e-06	-1.409474e-08	-3.628212e+01	-9.258827e+02
1.800000e-07	-5.157769e-06	-1.417469e-08	-3.604867e+01	-9.239530e+02
1.900000e-07	-5.122394e-06	-1.401423e-08	-3.580142e+01	-9.217563e+02
2.000000e-07	-5.085451e-06	-1.402960e-08	-3.554322e+01	-9.192600e+02
2.100000e-07	-5.046743e-06	-1.396264e-08	-3.527269e+01	-9.164808e+02
2.200000e-07	-5.006218e-06	-1.383051e-08	-3.498945e+01	-9.134752e+02
2.300000e-07	-4.963809e-06	-1.387797e-08	-3.469304e+01	-9.103163e+02
2.400000e-07	-4.919427e-06	-1.383779e-08	-3.438285e+01	-9.070653e+02
2.500000e-07	-4.873346e-06	-1.379937e-08	-3.406078e+01	-9.037509e+02
2.600000e-07	-4.825486e-06	-1.376883e-08	-3.372628e+01	-9.003629e+02
2.700000e-07	-4.775661e-06	-1.366427e-08	-3.337804e+01	-8.968633e+02
2.800000e-07	-4.723725e-06	-1.362544e-08	-3.301505e+01	-8.932090e+02
2.900000e-07	-4.669796e-06	-1.354220e-08	-3.263813e+01	-8.893744e+02
3.000000e-07	-4.614228e-06	-1.345766e-08	-3.224975e+01	-8.853651e+02
3.100000e-07	-4.557022e-06	-1.341331e-08	-3.184993e+01	-8.812154e+02
3.200000e-07	-4.498024e-06	-1.339030e-08	-3.143758e+01	-8.769706e+02
3.300000e-07	-4.437367e-06	-1.335787e-08	-3.101364e+01	-8.726636e+02
3.400000e-07	-4.375244e-06	-1.325175e-08	-3.057945e+01	-8.682953e+02
3.500000e-07	-4.311675e-06	-1.317721e-08	-3.013515e+01	-8.638294e+02
3.600000e-07	-4.246614e-06	-1.308055e-08	-2.968042e+01	-8.592052e+02
3.700000e-07	-4.179905e-06	-1.299731e-08	-2.921418e+01	-8.543619e+02
3.800000e-07	-4.111536e-06	-1.295173e-08	-2.873634e+01	-8.492657e+02
3.900000e-07	-4.041695e-06	-1.286052e-08	-2.824820e+01	-8.439256e+02
4.000000e-07	-3.970536e-06	-1.279195e-08	-2.775087e+01	-8.383914e+02
4.100000e-07	-3.898118e-06	-1.271586e-08	-2.724472e+01	-8.327331e+02
4.200000e-07	-3.824268e-06	-1.262717e-08	-2.672857e+01	-8.270094e+02
4.300000e-07	-3.748695e-06	-1.252109e-08	-2.620037e+01	-8.212398e+02
4.400000e-07	-3.671490e-06	-1.241331e-08	-2.566077e+01	-8.153926e+02
4.500000e-07	-3.592847e-06	-1.233831e-08	-2.511112e+01	-8.093946e+02
4.600000e-07	-3.512697e-06	-1.225088e-08	-2.455094e+01	-8.031595e+02
4.700000e-07	-3.431162e-06	-1.215510e-08	-2.398107e+01	-7.966239e+02
4.800000e-07	-3.348442e-06	-1.204280e-08	-2.340293e+01	-7.897743e+02
4.900000e-07	-3.264629e-06	-1.192995e-08	-2.281714e+01	-7.826543e+02
5.000000e-07	-3.179852e-06	-1.182506e-08	-2.222462e+01	-7.753462e+02
5.100000e-07	-3.094164e-06	-1.170737e-08	-2.162573e+01	-7.679360e+02
5.200000e-07	-3.007537e-06	-1.159183e-08	-2.102027e+01	-7.604738e+02
5.300000e-07	-2.919935e-06	-1.147771e-08	-2.040800e+01	-7.529493e+02
5.400000e-07	-2.831417e-06	-1.136456e-08	-1.978934e+01	-7.452921e+02
5.500000e-07	-2.741922e-06	-1.124517e-08	-1.916384e+01	-7.373983e+02
5.600000e-07	-2.651205e-06	-1.111419e-08	-1.852980e+01	-7.291720e+02
5.700000e-07	-2.559363e-06	-1.097923e-08	-1.788790e+01	-7.205651e+02
5.800000e-07	-2.466642e-06	-1.084417e-08	-1.723985e+01	-7.115975e+02
5.900000e-07	-2.373140e-06	-1.071266e-08	-1.658634e+01	-7.023471e+02
6.000000e-07	-2.278891e-06	-1.057213e-08	-1.592762e+01	-6.929143e+02
6.100000e-07	-2.183868e-06	-1.042417e-08	-1.526349e+01	-6.833735e+02
6.200000e-07	-2.088098e-06	-1.027309e-08	-1.459413e+01	-6.737348e+02
6.300000e-07	-1.991581e-06	-1.011987e-08	-1.391956e+01	-6.639309e+02
6.400000e-07	-1.894319e-06	-9.965369e-09	-1.323977e+01	-6.538381e+02
6.500000e-07	-1.796259e-06	-9.801035e-09	-1.255441e+01	-6.433219e+02
6.600000e-07	-1.697380e-06	-9.630193e-09	-1.186333e+01	-6.322905e+02
6.700000e-07	-1.597753e-06	-9.457121e-09	-1.116701e+01	-6.207307e+02
6.800000e-07	-1.497522e-06	-9.279148e-09	-1.046648e+01	-6.087114e+02
6.900000e-07	-1.396837e-06	-9.090537e-09	-9.762772e+00	-5.963501e+02
7.000000e-07	-1.295734e-06	-8.896887e-09	-9.056144e+00	-5.837561e+02
7.100000e-07	-1.194274e-06	-8.702288e-09	-8.347016e+00	-5.709737e+02
7.200000e-07	-1.092385e-06	-8.503027e-09	-7.634894e+00	-5.579505e+02
7.300000e-07	-9.900827e-07	-8.297418e-09	-6.919884e+00	-5.445468e+02
7.400000e-07	-8.874562e-07	-8.081566e-09	-6.202607e+00	-5.305830e+02
7.500000e-07	-7.844948e-07	-7.855627e-09	-5.482990e+00	-5.159066e+02
7.600000e-07	-6.812174e-07	-7.619926e-09	-4.761163e+00	-5.004501e+02
7.700000e-07	-5.776715e-07	-7.378733e-09	-4.037461e+00	-4.842521e+02
7.800000e-07	-4.739625e-07	-7.128532e-09	-3.312618e+00	-4.674305e+02
7.900000e-07	-3.700933e-07	-6.866678e-09	-2.586655e+00	-4.501147e+02
8.000000e-07	-2.661041e-07	-6.596764e-09	-1.859854e+00	-4.323655e+02
8.100000e-07	-1.620493e-07	-6.315086e-09	-1.132595e+00	-4.141170e+02
8.200000e-07	-5.792674e-08	-6.019295e-09	-4.048614e-01	-3.951693e+02
8.300000e-07	4.621317e-08	-5.707406e-09	3.229930e-01	-3.752391e+02
8.400000e-07	1.503457e-07	-5.381345e-09	1.050796e+00	-3.540508e+02
8.500000e-07	2.543792e-07	-5.042718e-09	1.777907e+00	-3.314283e+02
8.600000e-07	3.582750e-07	-4.688007e-09	2.504055e+00	-3.073416e+02
8.700000e-07	4.620919e-07	-4.306775e-09	3.229652e+00	-2.818774e+02
8.800000e-07	5.658067e-07	-3.894038e-09	3.954535e+00	-2.551298e+02
8.900000e-07	6.693336e-07	-3.456072e-09	4.678105e+00	-2.270434e+02
9.000000e-07	7.726296e-07	-2.992989e-09	5.400061e+00	-1.972683e+02
9.100000e-07	8.756673e-07	-2.491633e-09	6.120212e+00	-1.650939e+02
9.200000e-07	9.783398e-07	-1.937872e-09	6.837810e+00	-1.295100e+02
9.300000e-07	1.080596e-06	-1.323214e-09	7.552499e+00	-8.940590e+01
9.400000e-07	1.182450e-06	-6.375600e-10	8.264377e+00	-4.386736e+01
9.500000e-07	1.283943e-06	1.331883e-10	8.973731e+00	7.504210e+00
9.600000e-07	1.385063e-06	9.988865e-10	9.680476e+00	6.434857e+01
9.700000e-07	1.485793e-06	1.945639e-09	1.038450e+01	1.254604e+02
9.800000e-07	1.586069e-06	2.932171e-09	1.108535e+01	1.889014e+02
9.900000e-07	1.685764e-06	3.908227e-09	1.178214e+01	2.522939e+02
1.000000e-06	1.784763e-06	4.833634e-09	1.247406e+01	3.132259e+02
1.010000e-06	1.882900e-06	5.679972e-09	1.315996e+01	3.696632e+02
1.020000e-06	1.980161e-06	6.428716e-09	1.383974e+01	4.202639e+02
1.030000e-06	2.076740e-06	7.079944e-09	1.451475e+01	4.645184e+02
1.040000e-06	2.172671e-06	7.648412e-09	1.518523e+01	5.026950e+02
1.050000e-06	2.267839e-06	8.151348e-09	1.585038e+01	5.356217e+02
1.060000e-06	2.362257e-06	8.597395e-09	1.651028e+01	5.643845e+02
1.070000e-06	2.455949e-06	8.993809e-09	1.716511e+01	5.900318e+02
1.080000e-06	2.548907e-06	9.348666e-09	1.781481e+01	6.133659e+02
1.090000e-06	2.641058e-06	9.672579e-09	1.845888e+01	6.348616e+02
1.100000e-06	2.732111e-06	9.969496e-09	1.909527e+01	6.547086e+02
1.110000e-06	2.821909e-06	1.023753e-08	1.972288e+01	6.729348e+02
1.120000e-06	2.910626e-06	1.048185e-08	2.034294e+01	6.895478e+02
1.130000e-06	2.998408e-06	1.070845e-08	2.095647e+01	7.046397e+02
1.140000e-06	3.085251e-06	1.092171e-08	2.156343e+01	7.184211e+02
1.150000e-06	3.171067e-06	1.112224e-08	2.216322e+01	7.311848e+02
1.160000e-06	3.255902e-06	1.130958e-08	2.275614e+01	7.432265e+02
1.170000e-06	3.339680e-06	1.148581e-08	2.334168e+01	7.547624e+02
1.180000e-06	3.422140e-06	1.165395e-08	2.391801e+01	7.658820e+02
1.190000e-06	3.503319e-06	1.181409e-08	2.448539e+01	7.765518e+02
1.200000e-06	3.583284e-06	1.196509e-08	2.504428e+01	7.866663e+02
1.210000e-06	3.661964e-06	1.210630e-08	2.559419e+01	7.961201e+02
1.220000e-06	3.739365e-06	1.223929e-08	2.613516e+01	8.048719e+02
1.230000e-06	3.815373e-06	1.236474e-08	2.666640e+01	8.129726e+02
1.240000e-06	3.889743e-06	1.248281e-08	2.718618e+01	8.205514e+02
1.250000e-06	3.962573e-06	1.259513e-08	2.769521e+01	8.277687e+02
1.260000e-06	4.034076e-06	1.270402e-08	2.819496e+01	8.347577e+02
1.270000e-06	4.104178e-06	1.280818e-08	2.868491e+01	8.415826e+02
1.280000e-06	4.172940e-06	1.290531e-08	2.916550e+01	8.482266e+02
1.290000e-06	4.240217e-06	1.299873e-08	2.963572e+01	8.546166e+02
1.300000e-06	4.305759e-06	1.309113e-08	3.009380e+01	8.606679e+02
1.310000e-06	4.369774e-06	1.317956e-08	3.054122e+01	8.663311e+02
1.320000e-06	4.432350e-06	1.326079e-08	3.097857e+01	8.716197e+02
1.330000e-06	4.493527e-06	1.333595e-08	3.140615e+01	8.766082e+02
1.340000e-06	4.553277e-06	1.340931e-08	3.182375e+01	8.814023e+02
1.350000e-06	4.611226e-06	1.348376e-08	3.222877e+01	8.860964e+02
1.360000e-06	4.667392e-06	1.355733e-08	3.262132e+01	8.907366e+02
1.370000e-06	4.721962e-06	1.362686e-08	3.300273e+01	8.953047e+02
1.380000e-06	4.774771e-06	1.369201e-08	3.337182e+01	8.997296e+02
1.390000e-06	4.825517e-06	1.375402e-08	3.372649e+01	9.039198e+02
1.400000e-06	4.874301e-06	1.381171e-08	3.406746e+01	9.078028e+02
1.410000e-06	4.921387e-06	1.386300e-08	3.439655e+01	9.113546e+02
1.420000e-06	4.966865e-06	1.390891e-08	3.471440e+01	9.146077e+02
1.430000e-06	5.010671e-06	1.395506e-08	3.502057e+01	9.176354e+02
1.440000e-06	5.052533e-06	1.400383e-08	3.531315e+01	9.205204e+02
1.450000e-06	5.092564e-06	1.405138e-08	3.559294e+01	9.233213e+02
1.460000e-06	5.130952e-06	1.409374e-08	3.586124e+01	9.260520e+02
1.470000e-06	5.167653e-06	1.413166e-08	3.611775e+01	9.286806e+02
1.480000e-06	5.202454e-06	1.416737e-08	3.636098e+01	9.311478e+02
1.490000e-06	5.235285e-06	1.419994e-08	3.659045e+01	9.333961e+02
1.500000e-06	5.266334e-06	1.422788e-08	3.680745e+01	9.353952e+02
1.510000e-06	5.295718e-06	1.425364e-08	3.701282e+01	9.371557e+02
1.520000e-06	5.323251e-06	1.428041e-08	3.720525e+01	9.387233e+02
1.530000e-06	5.348642e-06	1.430718e-08	3.738272e+01	9.401595e+02
1.540000e-06	5.372074e-06	1.433108e-08	3.754649e+01	9.415163e+02
1.550000e-06	5.393787e-06	1.435151e-08	3.769825e+01	9.428168e+02
1.560000e-06	5.413734e-06	1.436997e-08	3.783766e+01	9.440494e+02
1.570000e-06	5.431756e-06	1.438767e-08	3.796362e+01	9.451763e+02
1.580000e-06	5.447745e-06	1.440346e-08	3.807537e+01	9.461523e+02
1.590000e-06	5.461736e-06	1.441562e-08	3.817316e+01	9.469448e+02
1.600000e-06	5.473602e-06	1.442732e-08	3.825609e+01	9.475462e+02
1.610000e-06	5.483268e-06	1.443878e-08	3.832364e+01	9.479743e+02
1.620000e-06	5.490923e-06	1.444641e-08	3.837715e+01	9.482617e+02
1.630000e-06	5.496795e-06	1.445070e-08	3.841819e+01	9.484408e+02
1.640000e-06	5.500815e-06	1.445381e-08	3.844628e+01	9.485302e+02
1.650000e-06	5.502751e-06	1.445695e-08	3.845982e+01	9.485304e+02
1.660000e-06	5.502777e-06	1.445698e-08	3.846000e+01	9.484283e+02
1.670000e-06	5.501067e-06	1.445004e-08	3.844805e+01	9.482076e+02
1.680000e-06	5.497708e-06	1.444601e-08	3.842457e+01	9.478595e+02
1.690000e-06	5.492455e-06	1.444115e-08	3.838786e+01	9.473870e+02
1.700000e-06	5.485289e-06	1.443473e-08	3.833777e+01	9.468020e+02
1.710000e-06	5.476523e-06	1.442784e-08	3.827650e+01	9.461154e+02
1.720000e-06	5.466041e-06	1.442182e-08	3.820324e+01	9.453281e+02
1.730000e-06	5.453531e-06	1.442937e-08	3.811581e+01	9.444261e+02
1.740000e-06	5.438993e-06	1.437034e-08	3.801420e+01	9.433862e+02
1.750000e-06	5.422463e-06	1.428522e-08	3.789867e+01	9.421875e+02
1.760000e-06	5.403328e-06	1.429576e-08	3.776493e+01	9.408268e+02
1.770000e-06	5.381372e-06	1.429558e-08	3.761148e+01	9.393266e+02
1.780000e-06	5.357463e-06	1.436068e-08	3.744437e+01	9.377336e+02
1.790000e-06	5.332645e-06	1.433920e-08	3.727091e+01	9.361042e+02
1.800000e-06	5.306997e-06	1.414783e-08	3.709165e+01	9.344821e+02
1.810000e-06	5.279325e-06	1.426442e-08	3.689825e+01	9.328780e+02
1.820000e-06	5.249361e-06	1.426628e-08	3.668882e+01	9.312588e+02
1.830000e-06	5.217896e-06	1.409902e-08	3.646891e+01	9.295530e+02
1.840000e-06	5.184606e-06	1.424148e-08	3.623624e+01	9.276716e+02
1.850000e-06	5.149560e-06	1.414973e-08	3.599130e+01	9.255358e+02
1.860000e-06	5.112843e-06	1.404179e-08	3.573467e+01	9.231034e+02
1.870000e-06	5.073951e-06	1.417427e-08	3.546285e+01	9.203806e+02
1.880000e-06	5.033330e-06	1.401098e-08	3.517894e+01	9.174171e+02
1.890000e-06	4.991127e-06	1.397488e-08	3.488398e+01	9.142845e+02
1.900000e-06	4.947076e-06	1.395190e-08	3.457609e+01	9.110490e+02
1.910000e-06	4.901338e-06	1.377466e-08	3.425642e+01	9.077472e+02
1.920000e-06	4.853688e-06	1.387188e-08	3.392338e+01	9.043769e+02
1.930000e-06	4.804221e-06	1.375375e-08	3.357765e+01	9.009046e+02
1.940000e-06	4.752974e-06	1.367702e-08	3.321948e+01	8.972859e+02
1.950000e-06	4.699538e-06	1.372291e-08	3.284600e+01	8.934901e+02
1.960000e-06	4.644307e-06	1.356743e-08	3.245998e+01	8.895156e+02
1.970000e-06	4.587478e-06	1.353353e-08	3.206280e+01	8.853916e+02
1.980000e-06	4.529092e-06	1.341468e-08	3.165472e+01	8.811632e+02
1.990000e-06	4.469163e-06	1.336627e-08	3.123587e+01	8.768676e+02
2.000000e-06	4.407433e-06	1.335178e-08	3.080442e+01	8.725137e+02
2.010000e-06	4.344142e-06	1.324155e-08	3.036207e+01	8.680728e+02
2.020000e-06	4.279324e-06	1.324623e-08	2.990904e+01	8.634875e+02
2.030000e-06	4.213040e-06	1.310308e-08	2.944577e+01	8.586948e+02
2.040000e-06	4.145302e-06	1.303503e-08	2.897234e+01	8.536530e+02
2.050000e-06	4.075807e-06	1.296160e-08	2.848662e+01	8.483616e+02
2.060000e-06	4.004796e-06	1.283090e-08	2.799031e+01	8.428629e+02
2.070000e-06	3.932496e-06	1.279971e-08	2.748499e+01	8.372248e+02
2.080000e-06	3.858849e-06	1.268638e-08	2.697026e+01	8.315113e+02
2.090000e-06	3.783600e-06	1.264517e-08	2.644433e+01	8.257518e+02
2.100000e-06	3.706628e-06	1.253473e-08	2.590636e+01	8.199258e+02
2.110000e-06	3.628161e-06	1.241885e-08	2.535793e+01	8.139670e+02
2.120000e-06	3.548463e-06	1.233637e-08	2.480091e+01	8.077888e+02
2.130000e-06	3.467669e-06	1.221156e-08	2.423623e+01	8.013202e+02
2.140000e-06	3.385704e-06	1.214144e-08	2.366335e+01	7.945355e+02
2.150000e-06	3.302619e-06	1.202109e-08	2.308266e+01	7.874668e+02
2.160000e-06	3.218298e-06	1.192800e-08	2.249332e+01	7.801908e+02
2.170000e-06	3.132593e-06	1.181364e-08	2.189431e+01	7.727959e+02
2.180000e-06	3.045734e-06	1.169159e-08	2.128724e+01	7.653429e+02
2.190000e-06	2.957921e-06	1.158113e-08	2.067350e+01	7.578353e+02
2.200000e-06	2.869188e-06	1.145172e-08	2.005332e+01	7.502143e+02
2.210000e-06	2.779465e-06	1.133992e-08	1.942623e+01	7.423797e+02
2.220000e-06	2.688834e-06	1.121334e-08	1.879279e+01	7.342302e+02
2.230000e-06	2.597327e-06	1.109211e-08	1.815323e+01	7.257050e+02
2.240000e-06	2.504847e-06	1.094969e-08	1.750687e+01	7.168092e+02
2.250000e-06	2.411316e-06	1.080677e-08	1.685316e+01	7.076105e+02
2.260000e-06	2.316803e-06	1.066206e-08	1.619260e+01	6.982083e+02
2.270000e-06	2.221538e-06	1.052204e-08	1.552677e+01	6.886867e+02
2.280000e-06	2.125552e-06	1.038219e-08	1.485591e+01	6.790715e+02
2.290000e-06	2.028828e-06	1.022991e-08	1.417988e+01	6.693116e+02
2.300000e-06	1.931462e-06	1.007806e-08	1.349937e+01	6.592920e+02
2.310000e-06	1.833521e-06	9.915469e-09	1.281484e+01	6.488759e+02
2.320000e-06	1.735017e-06	9.751439e-09	1.212638e+01	6.379584e+02
2.330000e-06	1.636007e-06	9.572573e-09	1.143437e+01	6.265080e+02
2.340000e-06	1.536493e-06	9.394305e-09	1.073886e+01	6.145776e+02
2.350000e-06	1.436353e-06	9.212704e-09	1.003895e+01	6.022787e+02
2.360000e-06	1.335558e-06	9.023756e-09	9.334477e+00	5.897274e+02
2.370000e-06	1.234165e-06	8.830550e-09	8.625821e+00	5.769857e+02
2.380000e-06	1.132222e-06	8.628629e-09	7.913327e+00	5.640229e+02
2.390000e-06	1.029788e-06	8.424741e-09	7.197393e+00	5.507149e+02
2.400000e-06	9.269544e-07	8.210145e-09	6.478668e+00	5.368854e+02
2.410000e-06	8.238202e-07	7.985186e-09	5.757842e+00	5.223704e+02
2.420000e-06	7.204354e-07	7.749200e-09	5.035266e+00	5.070807e+02
2.430000e-06	6.168492e-07	7.505071e-09	4.311281e+00	4.910331e+02
2.440000e-06	5.130783e-07	7.256497e-09	3.586006e+00	4.743328e+02
2.450000e-06	4.091709e-07	7.001228e-09	2.859777e+00	4.571138e+02
2.460000e-06	3.051576e-07	6.734269e-09	2.132807e+00	4.394576e+02
2.470000e-06	2.010015e-07	6.455230e-09	1.404839e+00	4.213283e+02
2.480000e-06	9.671698e-08	6.163241e-09	6.759741e-01	4.025521e+02
2.490000e-06	-7.606337e-09	5.855192e-09	-5.316220e-02	3.828568e+02
2.500000e-06	-1.119133e-07	5.528005e-09	-7.821842e-01	3.619570e+02
2.510000e-06	-2.162010e-07	5.185042e-09	-1.511071e+00	3.396489e+02
2.520000e-06	-3.203482e-07	4.830920e-09	-2.238977e+00	3.158709e+02
2.530000e-06	-4.243004e-07	4.461063e-09	-2.965519e+00	2.906914e+02
2.540000e-06	-5.281153e-07	4.070226e-09	-3.691103e+00	2.642154e+02
2.550000e-06	-6.317640e-07	3.649045e-09	-4.415523e+00	2.364330e+02
2.560000e-06	-7.351917e-07	3.192720e-09	-5.138401e+00	2.070667e+02
2.570000e-06	-8.383337e-07	2.699787e-09	-5.859280e+00	1.754829e+02
2.580000e-06	-9.411549e-07	2.161644e-09	-6.577918e+00	1.407233e+02
2.590000e-06	-1.043677e-06	1.567698e-09	-7.294464e+00	1.016759e+02
2.600000e-06	-1.145816e-06	9.062668e-10	-8.008332e+00	5.735696e+01
2.610000e-06	-1.247453e-06	1.641626e-10	-8.718693e+00	7.232886e+00
2.620000e-06	-1.348478e-06	-6.654393e-10	-9.424779e+00	-4.851227e+01
2.630000e-06	-1.448820e-06	-1.579818e-09	-1.012609e+01	-1.088518e+02
2.640000e-06	-1.548540e-06	-2.557149e-09	-1.082305e+01	-1.719852e+02
2.650000e-06	-1.647729e-06	-3.550373e-09	-1.151631e+01	-2.355970e+02
2.660000e-06	-1.746426e-06	-4.506094e-09	-1.220612e+01	-2.972466e+02
2.670000e-06	-1.844563e-06	-5.386835e-09	-1.289202e+01	-3.547877e+02
2.680000e-06	-1.942076e-06	-6.175279e-09	-1.357356e+01	-4.067113e+02
2.690000e-06	-2.038929e-06	-6.868691e-09	-1.425048e+01	-4.523277e+02
2.700000e-06	-2.135074e-06	-7.474232e-09	-1.492246e+01	-4.917523e+02
2.710000e-06	-2.230547e-06	-8.002617e-09	-1.558973e+01	-5.257171e+02
2.720000e-06	-2.325448e-06	-8.467082e-09	-1.625301e+01	-5.552792e+02
2.730000e-06	-2.419662e-06	-8.880828e-09	-1.691149e+01	-5.815166e+02
2.740000e-06	-2.512830e-06	-9.251483e-09	-1.756267e+01	-6.052957e+02
2.750000e-06	-2.604770e-06	-9.583997e-09	-1.820525e+01	-6.271616e+02
2.760000e-06	-2.695701e-06	-9.886206e-09	-1.884079e+01	-6.473569e+02
2.770000e-06	-2.785773e-06	-1.016631e-08	-1.947032e+01	-6.659316e+02
2.780000e-06	-2.874843e-06	-1.042491e-08	-2.009285e+01	-6.828870e+02
2.790000e-06	-2.962859e-06	-1.066221e-08	-2.070801e+01	-6.982915e+02
2.800000e-06	-3.049981e-06	-1.088047e-08	-2.131692e+01	-7.123314e+02
2.810000e-06	-3.136156e-06	-1.108340e-08	-2.191922e+01	-7.252876e+02
2.820000e-06	-3.220949e-06	-1.127366e-08	-2.251185e+01	-7.374626e+02
2.830000e-06	-3.304350e-06	-1.145313e-08	-2.309475e+01	-7.490953e+02
2.840000e-06	-3.386729e-06	-1.162257e-08	-2.367052e+01	-7.603038e+02
2.850000e-06	-3.468073e-06	-1.178349e-08	-2.423905e+01	-7.710780e+02
2.860000e-06	-3.548205e-06	-1.193684e-08	-2.479910e+01	-7.813220e+02
2.870000e-06	-3.627142e-06	-1.207998e-08	-2.535081e+01	-7.909243e+02
2.880000e-06	-3.704696e-06	-1.221393e-08	-2.589285e+01	-7.998260e+02
2.890000e-06	-3.780677e-06	-1.234159e-08	-2.642390e+01	-8.080580e+02
2.900000e-06	-3.855196e-06	-1.246388e-08	-2.694473e+01	-8.157359e+02
2.910000e-06	-3.928310e-06	-1.257916e-08	-2.745574e+01	-8.230181e+02
2.920000e-06	-4.000065e-06	-1.268674e-08	-2.795724e+01	-8.300485e+02
2.930000e-06	-4.070507e-06	-1.279004e-08	-2.844958e+01	-8.369078e+02
2.940000e-06	-4.139378e-06	-1.289083e-08	-2.893093e+01	-8.435960e+02
