# Temperatura_=_43.04
# Concentracion g/m^3_=_13400.0
# C_Vs_to_Am_M_A/Vsm_=_65563218390.804596
# pendiente_HvsI_1/m_=_3716.3
# ordenada_HvsI_A/m_=_1297.0
# frecuencia_Hz_=_300799.68070801045

Tiempo_(s)	Campo_(V.s)	Magnetizacion_(V.s)	Campo_(kA/m)	Magnetizacion_(A/m)
0.000000e+00	-5.503090e-06	-1.404174e-08	-3.830939e+01	-9.206242e+02
1.000000e-08	-5.501396e-06	-1.403836e-08	-3.829760e+01	-9.204055e+02
2.000000e-08	-5.497755e-06	-1.403196e-08	-3.827225e+01	-9.200711e+02
3.000000e-08	-5.492315e-06	-1.402539e-08	-3.823438e+01	-9.196148e+02
4.000000e-08	-5.485244e-06	-1.401794e-08	-3.818515e+01	-9.190410e+02
5.000000e-08	-5.476570e-06	-1.400691e-08	-3.812477e+01	-9.183589e+02
6.000000e-08	-5.465965e-06	-1.399275e-08	-3.805094e+01	-9.175736e+02
7.000000e-08	-5.453214e-06	-1.397256e-08	-3.796218e+01	-9.166803e+02
8.000000e-08	-5.438410e-06	-1.395639e-08	-3.785912e+01	-9.156645e+02
9.000000e-08	-5.421244e-06	-1.397267e-08	-3.773962e+01	-9.145102e+02
1.000000e-07	-5.401766e-06	-1.397063e-08	-3.760403e+01	-9.132111e+02
1.100000e-07	-5.380351e-06	-1.392824e-08	-3.745495e+01	-9.117798e+02
1.200000e-07	-5.357155e-06	-1.389170e-08	-3.729347e+01	-9.102488e+02
1.300000e-07	-5.332473e-06	-1.383141e-08	-3.712165e+01	-9.086613e+02
1.400000e-07	-5.306291e-06	-1.379025e-08	-3.693939e+01	-9.070550e+02
1.500000e-07	-5.278245e-06	-1.382452e-08	-3.674414e+01	-9.054440e+02
1.600000e-07	-5.248459e-06	-1.376974e-08	-3.653679e+01	-9.038082e+02
1.700000e-07	-5.217125e-06	-1.372379e-08	-3.631866e+01	-9.020946e+02
1.800000e-07	-5.183873e-06	-1.375828e-08	-3.608718e+01	-9.002321e+02
1.900000e-07	-5.148539e-06	-1.369060e-08	-3.584120e+01	-8.981546e+02
2.000000e-07	-5.111587e-06	-1.364305e-08	-3.558397e+01	-8.958232e+02
2.100000e-07	-5.072998e-06	-1.360022e-08	-3.531533e+01	-8.932400e+02
2.200000e-07	-5.032595e-06	-1.350610e-08	-3.503407e+01	-8.904455e+02
2.300000e-07	-4.990261e-06	-1.349468e-08	-3.473936e+01	-8.875029e+02
2.400000e-07	-4.945935e-06	-1.348757e-08	-3.443079e+01	-8.844742e+02
2.500000e-07	-4.899913e-06	-1.344904e-08	-3.411041e+01	-8.813975e+02
2.600000e-07	-4.852111e-06	-1.341233e-08	-3.377764e+01	-8.782758e+02
2.700000e-07	-4.802240e-06	-1.333789e-08	-3.343047e+01	-8.750806e+02
2.800000e-07	-4.750291e-06	-1.328366e-08	-3.306883e+01	-8.717683e+02
2.900000e-07	-4.696401e-06	-1.321723e-08	-3.269368e+01	-8.683015e+02
3.000000e-07	-4.640812e-06	-1.314332e-08	-3.230670e+01	-8.646661e+02
3.100000e-07	-4.583619e-06	-1.309599e-08	-3.190855e+01	-8.608757e+02
3.200000e-07	-4.524652e-06	-1.306482e-08	-3.149806e+01	-8.569629e+02
3.300000e-07	-4.463986e-06	-1.303957e-08	-3.107574e+01	-8.529598e+02
3.400000e-07	-4.401799e-06	-1.295971e-08	-3.064282e+01	-8.488793e+02
3.500000e-07	-4.338156e-06	-1.287314e-08	-3.019978e+01	-8.447045e+02
3.600000e-07	-4.273011e-06	-1.279496e-08	-2.974627e+01	-8.403931e+02
3.700000e-07	-4.206214e-06	-1.271932e-08	-2.928127e+01	-8.358944e+02
3.800000e-07	-4.137774e-06	-1.265983e-08	-2.880483e+01	-8.311727e+02
3.900000e-07	-4.067838e-06	-1.258303e-08	-2.831798e+01	-8.262247e+02
4.000000e-07	-3.996565e-06	-1.251112e-08	-2.782181e+01	-8.210842e+02
4.100000e-07	-3.924026e-06	-1.244217e-08	-2.731684e+01	-8.158091e+02
4.200000e-07	-3.850031e-06	-1.236308e-08	-2.680173e+01	-8.104562e+02
4.300000e-07	-3.774358e-06	-1.227165e-08	-2.627493e+01	-8.050547e+02
4.400000e-07	-3.697081e-06	-1.217383e-08	-2.573698e+01	-7.995894e+02
4.500000e-07	-3.618315e-06	-1.209600e-08	-2.518865e+01	-7.940021e+02
4.600000e-07	-3.538048e-06	-1.201414e-08	-2.462988e+01	-7.882128e+02
4.700000e-07	-3.456367e-06	-1.192219e-08	-2.406127e+01	-7.821508e+02
4.800000e-07	-3.373463e-06	-1.182282e-08	-2.348414e+01	-7.757842e+02
4.900000e-07	-3.289505e-06	-1.171726e-08	-2.289967e+01	-7.691340e+02
5.000000e-07	-3.204569e-06	-1.161636e-08	-2.230839e+01	-7.622660e+02
5.100000e-07	-3.118652e-06	-1.150815e-08	-2.171028e+01	-7.552626e+02
5.200000e-07	-3.031710e-06	-1.139910e-08	-2.110504e+01	-7.481864e+02
5.300000e-07	-2.943842e-06	-1.129334e-08	-2.049336e+01	-7.410499e+02
5.400000e-07	-2.855050e-06	-1.118847e-08	-1.987524e+01	-7.338060e+02
5.500000e-07	-2.765146e-06	-1.107653e-08	-1.924938e+01	-7.263634e+02
5.600000e-07	-2.674121e-06	-1.095234e-08	-1.861571e+01	-7.186213e+02
5.700000e-07	-2.582035e-06	-1.082333e-08	-1.797466e+01	-7.105104e+02
5.800000e-07	-2.488999e-06	-1.069297e-08	-1.732700e+01	-7.020204e+02
5.900000e-07	-2.395188e-06	-1.056297e-08	-1.667393e+01	-6.932041e+02
6.000000e-07	-2.300632e-06	-1.043018e-08	-1.601569e+01	-6.841526e+02
6.100000e-07	-2.205260e-06	-1.029419e-08	-1.535177e+01	-6.749537e+02
6.200000e-07	-2.109124e-06	-1.015287e-08	-1.468252e+01	-6.656488e+02
6.300000e-07	-2.012258e-06	-1.000626e-08	-1.400820e+01	-6.562078e+02
6.400000e-07	-1.914561e-06	-9.855922e-09	-1.332808e+01	-6.465344e+02
6.500000e-07	-1.816019e-06	-9.697691e-09	-1.264209e+01	-6.364991e+02
6.600000e-07	-1.716778e-06	-9.532778e-09	-1.195123e+01	-6.259887e+02
6.700000e-07	-1.616918e-06	-9.364726e-09	-1.125607e+01	-6.149499e+02
6.800000e-07	-1.516459e-06	-9.193584e-09	-1.055673e+01	-6.034090e+02
6.900000e-07	-1.415464e-06	-9.015150e-09	-9.853657e+00	-5.914564e+02
7.000000e-07	-1.314020e-06	-8.830959e-09	-9.147463e+00	-5.792031e+02
7.100000e-07	-1.212184e-06	-8.642367e-09	-8.438537e+00	-5.667248e+02
7.200000e-07	-1.109923e-06	-8.447144e-09	-7.726652e+00	-5.540193e+02
7.300000e-07	-1.007246e-06	-8.245137e-09	-7.011875e+00	-5.409952e+02
7.400000e-07	-9.041766e-07	-8.033588e-09	-6.294364e+00	-5.274986e+02
7.500000e-07	-8.007928e-07	-7.813207e-09	-5.574664e+00	-5.133682e+02
7.600000e-07	-6.972163e-07	-7.586485e-09	-4.853624e+00	-4.984953e+02
7.700000e-07	-5.934136e-07	-7.355310e-09	-4.131008e+00	-4.828618e+02
7.800000e-07	-4.894077e-07	-7.115841e-09	-3.406978e+00	-4.665384e+02
7.900000e-07	-3.853073e-07	-6.863772e-09	-2.682290e+00	-4.496396e+02
8.000000e-07	-2.810803e-07	-6.598962e-09	-1.956721e+00	-4.322549e+02
8.100000e-07	-1.767257e-07	-6.322682e-09	-1.230264e+00	-4.143835e+02
8.200000e-07	-7.228477e-08	-6.033126e-09	-5.032055e-01	-3.959032e+02
8.300000e-07	3.217517e-08	-5.729306e-09	2.239853e-01	-3.765914e+02
8.400000e-07	1.365756e-07	-5.412996e-09	9.507620e-01	-3.561906e+02
8.500000e-07	2.408953e-07	-5.084763e-09	1.676976e+00	-3.344931e+02
8.600000e-07	3.451001e-07	-4.742214e-09	2.402391e+00	-3.114042e+02
8.700000e-07	4.491949e-07	-4.377118e-09	3.127039e+00	-2.869476e+02
8.800000e-07	5.531848e-07	-3.983212e-09	3.850958e+00	-2.611980e+02
8.900000e-07	6.569840e-07	-3.563909e-09	4.573550e+00	-2.341561e+02
9.000000e-07	7.605996e-07	-3.122775e-09	5.294862e+00	-2.056080e+02
9.100000e-07	8.640384e-07	-2.648714e-09	6.014945e+00	-1.750307e+02
9.200000e-07	9.671819e-07	-2.127226e-09	6.732971e+00	-1.415961e+02
9.300000e-07	1.069947e-06	-1.548568e-09	7.448364e+00	-1.042988e+02
9.400000e-07	1.172334e-06	-9.072485e-10	8.161125e+00	-6.219549e+01
9.500000e-07	1.274339e-06	-1.935463e-10	8.871222e+00	-1.469512e+01
9.600000e-07	1.375905e-06	6.071944e-10	9.578269e+00	3.817881e+01
9.700000e-07	1.477030e-06	1.489745e-09	1.028224e+01	9.564009e+01
9.800000e-07	1.577677e-06	2.425765e-09	1.098289e+01	1.561608e+02
9.900000e-07	1.677758e-06	3.374325e-09	1.167960e+01	2.176710e+02
1.000000e-06	1.777210e-06	4.295345e-09	1.237193e+01	2.778939e+02
1.010000e-06	1.875969e-06	5.156865e-09	1.305943e+01	3.347324e+02
1.020000e-06	1.973927e-06	5.933418e-09	1.374136e+01	3.866082e+02
1.030000e-06	2.071052e-06	6.614320e-09	1.441749e+01	4.326696e+02
1.040000e-06	2.167386e-06	7.208131e-09	1.508811e+01	4.728231e+02
1.050000e-06	2.262985e-06	7.732388e-09	1.575362e+01	5.075984e+02
1.060000e-06	2.357856e-06	8.196944e-09	1.641405e+01	5.378989e+02
1.070000e-06	2.451964e-06	8.608245e-09	1.706918e+01	5.647201e+02
1.080000e-06	2.545339e-06	8.976402e-09	1.771920e+01	5.889168e+02
1.090000e-06	2.637902e-06	9.314144e-09	1.836358e+01	6.110714e+02
1.100000e-06	2.729478e-06	9.624590e-09	1.900107e+01	6.314830e+02
1.110000e-06	2.819911e-06	9.903410e-09	1.963062e+01	6.502487e+02
1.120000e-06	2.909159e-06	1.015281e-08	2.025191e+01	6.673907e+02
1.130000e-06	2.997376e-06	1.038261e-08	2.086603e+01	6.829697e+02
1.140000e-06	3.084643e-06	1.060041e-08	2.147353e+01	6.971463e+02
1.150000e-06	3.170905e-06	1.080441e-08	2.207404e+01	7.101748e+02
1.160000e-06	3.256133e-06	1.099187e-08	2.266735e+01	7.223444e+02
1.170000e-06	3.340363e-06	1.116743e-08	2.325371e+01	7.339018e+02
1.180000e-06	3.423519e-06	1.133862e-08	2.383259e+01	7.449901e+02
1.190000e-06	3.505364e-06	1.150191e-08	2.440235e+01	7.556314e+02
1.200000e-06	3.585862e-06	1.165119e-08	2.496273e+01	7.657556e+02
1.210000e-06	3.665045e-06	1.178784e-08	2.551396e+01	7.752615e+02
1.220000e-06	3.742931e-06	1.191775e-08	2.605616e+01	7.840821e+02
1.230000e-06	3.819474e-06	1.204402e-08	2.658901e+01	7.922280e+02
1.240000e-06	3.894516e-06	1.216454e-08	2.711141e+01	7.997923e+02
1.250000e-06	3.967953e-06	1.227665e-08	2.762263e+01	8.069198e+02
1.260000e-06	4.039868e-06	1.238176e-08	2.812327e+01	8.137552e+02
1.270000e-06	4.110393e-06	1.248352e-08	2.861422e+01	8.203949e+02
1.280000e-06	4.179565e-06	1.258059e-08	2.909576e+01	8.268622e+02
1.290000e-06	4.247330e-06	1.267219e-08	2.956750e+01	8.331142e+02
1.300000e-06	4.313470e-06	1.275971e-08	3.002793e+01	8.390759e+02
1.310000e-06	4.378027e-06	1.284546e-08	3.047733e+01	8.446842e+02
1.320000e-06	4.441137e-06	1.292813e-08	3.091667e+01	8.499234e+02
1.330000e-06	4.502788e-06	1.300508e-08	3.134585e+01	8.548364e+02
1.340000e-06	4.562937e-06	1.307638e-08	3.176458e+01	8.595093e+02
1.350000e-06	4.621364e-06	1.314481e-08	3.217131e+01	8.640368e+02
1.360000e-06	4.678031e-06	1.321376e-08	3.256580e+01	8.684838e+02
1.370000e-06	4.733084e-06	1.328185e-08	3.294904e+01	8.728612e+02
1.380000e-06	4.786399e-06	1.334611e-08	3.332019e+01	8.771249e+02
1.390000e-06	4.837685e-06	1.340644e-08	3.367721e+01	8.811971e+02
1.400000e-06	4.886941e-06	1.346309e-08	3.402011e+01	8.850012e+02
1.410000e-06	4.934416e-06	1.351518e-08	3.435060e+01	8.884941e+02
1.420000e-06	4.980251e-06	1.356235e-08	3.466968e+01	8.916832e+02
1.430000e-06	5.024430e-06	1.360624e-08	3.497723e+01	8.946219e+02
1.440000e-06	5.066675e-06	1.364973e-08	3.527131e+01	8.973860e+02
1.450000e-06	5.107009e-06	1.369447e-08	3.555210e+01	9.000428e+02
1.460000e-06	5.145648e-06	1.373840e-08	3.582108e+01	9.026255e+02
1.470000e-06	5.182634e-06	1.377818e-08	3.607855e+01	9.051239e+02
1.480000e-06	5.217837e-06	1.381264e-08	3.632361e+01	9.074931e+02
1.490000e-06	5.251048e-06	1.384333e-08	3.655481e+01	9.096774e+02
1.500000e-06	5.282426e-06	1.387199e-08	3.677325e+01	9.116363e+02
1.510000e-06	5.312134e-06	1.389798e-08	3.698006e+01	9.133627e+02
1.520000e-06	5.340065e-06	1.392128e-08	3.717450e+01	9.148856e+02
1.530000e-06	5.365919e-06	1.394444e-08	3.735448e+01	9.162572e+02
1.540000e-06	5.389720e-06	1.396890e-08	3.752017e+01	9.175312e+02
1.550000e-06	5.411744e-06	1.399178e-08	3.767349e+01	9.187408e+02
1.560000e-06	5.432068e-06	1.401078e-08	3.781497e+01	9.198878e+02
1.570000e-06	5.450481e-06	1.402703e-08	3.794315e+01	9.209444e+02
1.580000e-06	5.466841e-06	1.404027e-08	3.805704e+01	9.218683e+02
1.590000e-06	5.481241e-06	1.404967e-08	3.815729e+01	9.226215e+02
1.600000e-06	5.493559e-06	1.405835e-08	3.824304e+01	9.231871e+02
1.610000e-06	5.503610e-06	1.406710e-08	3.831300e+01	9.235743e+02
1.620000e-06	5.511616e-06	1.407404e-08	3.836874e+01	9.238135e+02
1.630000e-06	5.517813e-06	1.408028e-08	3.841188e+01	9.239417e+02
1.640000e-06	5.522161e-06	1.408557e-08	3.844215e+01	9.239883e+02
1.650000e-06	5.524450e-06	1.408783e-08	3.845808e+01	9.239645e+02
1.660000e-06	5.524725e-06	1.408568e-08	3.846000e+01	9.238634e+02
1.670000e-06	5.523241e-06	1.407905e-08	3.844966e+01	9.236672e+02
1.680000e-06	5.520053e-06	1.407473e-08	3.842747e+01	9.233580e+02
1.690000e-06	5.515001e-06	1.407099e-08	3.839231e+01	9.229272e+02
1.700000e-06	5.508041e-06	1.406291e-08	3.834385e+01	9.223774e+02
1.710000e-06	5.499405e-06	1.405376e-08	3.828374e+01	9.217173e+02
1.720000e-06	5.489070e-06	1.404660e-08	3.821179e+01	9.209537e+02
1.730000e-06	5.476766e-06	1.404406e-08	3.812613e+01	9.200840e+02
1.740000e-06	5.462446e-06	1.401475e-08	3.802645e+01	9.190954e+02
1.750000e-06	5.446163e-06	1.394981e-08	3.791309e+01	9.179713e+02
1.760000e-06	5.427379e-06	1.393218e-08	3.778233e+01	9.167024e+02
1.770000e-06	5.405780e-06	1.393276e-08	3.763197e+01	9.152969e+02
1.780000e-06	5.382044e-06	1.394800e-08	3.746673e+01	9.137832e+02
1.790000e-06	5.357191e-06	1.396248e-08	3.729372e+01	9.122037e+02
1.800000e-06	5.331597e-06	1.386045e-08	3.711555e+01	9.105987e+02
1.810000e-06	5.304221e-06	1.384674e-08	3.692498e+01	9.089887e+02
1.820000e-06	5.274436e-06	1.388370e-08	3.671763e+01	9.073612e+02
1.830000e-06	5.243059e-06	1.379817e-08	3.649920e+01	9.056695e+02
1.840000e-06	5.210037e-06	1.381463e-08	3.626932e+01	9.038445e+02
1.850000e-06	5.175174e-06	1.379473e-08	3.602662e+01	9.018171e+02
1.860000e-06	5.138568e-06	1.370975e-08	3.577179e+01	8.995409e+02
1.870000e-06	5.099831e-06	1.376015e-08	3.550213e+01	8.970089e+02
1.880000e-06	5.059305e-06	1.369171e-08	3.522001e+01	8.942543e+02
1.890000e-06	5.017208e-06	1.361114e-08	3.492696e+01	8.913373e+02
1.900000e-06	4.973249e-06	1.359079e-08	3.462094e+01	8.883223e+02
1.910000e-06	4.927547e-06	1.347497e-08	3.430278e+01	8.852538e+02
1.920000e-06	4.879978e-06	1.347713e-08	3.397163e+01	8.821428e+02
1.930000e-06	4.830548e-06	1.343598e-08	3.362753e+01	8.789664e+02
1.940000e-06	4.779352e-06	1.336155e-08	3.327113e+01	8.756823e+02
1.950000e-06	4.726018e-06	1.336776e-08	3.289986e+01	8.722503e+02
1.960000e-06	4.670837e-06	1.326833e-08	3.251571e+01	8.686503e+02
1.970000e-06	4.614041e-06	1.321076e-08	3.212034e+01	8.648903e+02
1.980000e-06	4.555633e-06	1.312450e-08	3.171373e+01	8.610002e+02
1.990000e-06	4.495678e-06	1.305112e-08	3.129636e+01	8.570140e+02
2.000000e-06	4.433960e-06	1.304516e-08	3.086671e+01	8.529499e+02
2.010000e-06	4.370656e-06	1.296255e-08	3.042602e+01	8.487977e+02
2.020000e-06	4.305837e-06	1.293030e-08	2.997479e+01	8.445194e+02
2.030000e-06	4.239558e-06	1.284331e-08	2.951339e+01	8.400642e+02
2.040000e-06	4.171801e-06	1.275566e-08	2.904171e+01	8.353914e+02
2.050000e-06	4.102258e-06	1.269084e-08	2.855759e+01	8.304897e+02
2.060000e-06	4.031164e-06	1.257791e-08	2.806268e+01	8.253856e+02
2.070000e-06	3.958717e-06	1.252423e-08	2.755834e+01	8.201336e+02
2.080000e-06	3.884910e-06	1.243958e-08	2.704454e+01	8.147931e+02
2.090000e-06	3.809596e-06	1.237851e-08	2.652024e+01	8.094012e+02
2.100000e-06	3.732556e-06	1.229950e-08	2.598394e+01	8.039527e+02
2.110000e-06	3.653963e-06	1.219167e-08	2.543682e+01	7.983975e+02
2.120000e-06	3.574131e-06	1.210877e-08	2.488107e+01	7.926578e+02
2.130000e-06	3.493208e-06	1.200011e-08	2.431773e+01	7.866581e+02
2.140000e-06	3.411149e-06	1.191684e-08	2.374648e+01	7.803563e+02
2.150000e-06	3.327968e-06	1.181494e-08	2.316742e+01	7.737621e+02
2.160000e-06	3.243499e-06	1.171711e-08	2.257940e+01	7.669333e+02
2.170000e-06	3.157641e-06	1.161975e-08	2.198170e+01	7.599520e+02
2.180000e-06	3.070603e-06	1.150651e-08	2.137579e+01	7.528878e+02
2.190000e-06	2.982568e-06	1.139540e-08	2.076295e+01	7.457658e+02
2.200000e-06	2.893597e-06	1.127540e-08	2.014358e+01	7.385510e+02
2.210000e-06	2.803703e-06	1.116279e-08	1.951779e+01	7.311593e+02
2.220000e-06	2.712948e-06	1.104827e-08	1.888600e+01	7.234884e+02
2.230000e-06	2.621241e-06	1.093132e-08	1.824759e+01	7.154591e+02
2.240000e-06	2.528467e-06	1.080042e-08	1.760175e+01	7.070474e+02
2.250000e-06	2.434673e-06	1.066462e-08	1.694881e+01	6.982935e+02
2.260000e-06	2.339930e-06	1.052478e-08	1.628926e+01	6.892837e+02
2.270000e-06	2.244378e-06	1.038791e-08	1.562409e+01	6.801103e+02
2.280000e-06	2.148128e-06	1.024929e-08	1.495405e+01	6.708276e+02
2.290000e-06	2.051193e-06	1.010511e-08	1.427924e+01	6.614215e+02
2.300000e-06	1.953542e-06	9.960672e-09	1.359945e+01	6.518079e+02
2.310000e-06	1.855280e-06	9.806445e-09	1.291540e+01	6.418605e+02
2.320000e-06	1.756540e-06	9.646552e-09	1.222803e+01	6.314584e+02
2.330000e-06	1.657277e-06	9.474451e-09	1.153702e+01	6.205329e+02
2.340000e-06	1.557348e-06	9.302454e-09	1.084137e+01	6.090932e+02
2.350000e-06	1.456726e-06	9.126814e-09	1.014090e+01	5.972188e+02
2.360000e-06	1.355512e-06	8.941739e-09	9.436306e+00	5.850210e+02
2.370000e-06	1.253728e-06	8.752560e-09	8.727742e+00	5.725875e+02
2.380000e-06	1.151443e-06	8.559005e-09	8.015694e+00	5.599351e+02
2.390000e-06	1.048718e-06	8.363295e-09	7.300576e+00	5.469903e+02
2.400000e-06	9.456171e-07	8.156303e-09	6.582849e+00	5.336088e+02
2.410000e-06	8.421754e-07	7.937577e-09	5.862747e+00	5.196254e+02
2.420000e-06	7.383869e-07	7.709921e-09	5.140230e+00	5.049160e+02
2.430000e-06	6.343504e-07	7.472808e-09	4.415987e+00	4.894417e+02
2.440000e-06	5.301518e-07	7.229282e-09	3.690616e+00	4.732565e+02
2.450000e-06	4.257878e-07	6.979566e-09	2.964093e+00	4.564710e+02
2.460000e-06	3.213079e-07	6.720146e-09	2.236763e+00	4.391862e+02
2.470000e-06	2.167492e-07	6.449693e-09	1.508885e+00	4.214246e+02
2.480000e-06	1.121460e-07	6.166173e-09	7.806966e-01	4.030904e+02
2.490000e-06	7.521016e-09	5.868459e-09	5.235704e-02	3.839781e+02
2.500000e-06	-9.713094e-08	5.554479e-09	-6.761704e-01	3.638305e+02
2.510000e-06	-2.017438e-07	5.224636e-09	-1.404426e+00	3.424228e+02
2.520000e-06	-3.062495e-07	4.881892e-09	-2.131935e+00	3.196331e+02
2.530000e-06	-4.106235e-07	4.524617e-09	-2.858528e+00	2.954629e+02
2.540000e-06	-5.148433e-07	4.146431e-09	-3.584046e+00	2.699851e+02
2.550000e-06	-6.188854e-07	3.741399e-09	-4.308328e+00	2.432284e+02
2.560000e-06	-7.227006e-07	3.307714e-09	-5.031031e+00	2.150353e+02
2.570000e-06	-8.262744e-07	2.841467e-09	-5.752053e+00	1.849528e+02
2.580000e-06	-9.295655e-07	2.336379e-09	-6.471107e+00	1.522115e+02
2.590000e-06	-1.032494e-06	1.782398e-09	-7.187640e+00	1.158274e+02
2.600000e-06	-1.135017e-06	1.166026e-09	-7.901346e+00	7.481961e+01
2.610000e-06	-1.237087e-06	4.757061e-10	-8.611900e+00	2.849747e+01
2.620000e-06	-1.338655e-06	-2.959525e-10	-9.318957e+00	-2.326474e+01
2.630000e-06	-1.439698e-06	-1.150728e-09	-1.002236e+01	-7.984875e+01
2.640000e-06	-1.540135e-06	-2.073305e-09	-1.072154e+01	-1.398745e+02
2.650000e-06	-1.639891e-06	-3.026442e-09	-1.141599e+01	-2.013637e+02
2.660000e-06	-1.739007e-06	-3.963652e-09	-1.210598e+01	-2.620514e+02
2.670000e-06	-1.837518e-06	-4.849096e-09	-1.279176e+01	-3.197704e+02
2.680000e-06	-1.935461e-06	-5.660712e-09	-1.347358e+01	-3.728083e+02
2.690000e-06	-2.032773e-06	-6.383971e-09	-1.415101e+01	-4.201488e+02
2.700000e-06	-2.129359e-06	-7.017744e-09	-1.482339e+01	-4.615421e+02
2.710000e-06	-2.225284e-06	-7.571180e-09	-1.549117e+01	-4.974028e+02
2.720000e-06	-2.320615e-06	-8.058408e-09	-1.615480e+01	-5.285778e+02
2.730000e-06	-2.415264e-06	-8.491987e-09	-1.681370e+01	-5.560656e+02
2.740000e-06	-2.509003e-06	-8.877856e-09	-1.746626e+01	-5.807659e+02
2.750000e-06	-2.601657e-06	-9.220697e-09	-1.811126e+01	-6.033245e+02
2.760000e-06	-2.693229e-06	-9.533065e-09	-1.874873e+01	-6.240968e+02
2.770000e-06	-2.783802e-06	-9.826446e-09	-1.937925e+01	-6.432133e+02
2.780000e-06	-2.873419e-06	-1.009644e-08	-2.000311e+01	-6.607013e+02
2.790000e-06	-2.962023e-06	-1.033799e-08	-2.061992e+01	-6.766059e+02
2.800000e-06	-3.049612e-06	-1.055696e-08	-2.122967e+01	-6.910647e+02
2.810000e-06	-3.136216e-06	-1.076370e-08	-2.183255e+01	-7.043153e+02
2.820000e-06	-3.221641e-06	-1.096044e-08	-2.242723e+01	-7.166461e+02
2.830000e-06	-3.305711e-06	-1.114236e-08	-2.301248e+01	-7.283190e+02
2.840000e-06	-3.388618e-06	-1.130960e-08	-2.358964e+01	-7.395025e+02
2.850000e-06	-3.470449e-06	-1.146941e-08	-2.415930e+01	-7.502437e+02
2.860000e-06	-3.551136e-06	-1.162574e-08	-2.472099e+01	-7.604877e+02
2.870000e-06	-3.630634e-06	-1.177409e-08	-2.527441e+01	-7.701342e+02
2.880000e-06	-3.708790e-06	-1.190795e-08	-2.581849e+01	-7.791042e+02
2.890000e-06	-3.785335e-06	-1.203045e-08	-2.635135e+01	-7.873899e+02
2.900000e-06	-3.860322e-06	-1.215002e-08	-2.687337e+01	-7.950682e+02
2.910000e-06	-3.933901e-06	-1.226585e-08	-2.738558e+01	-8.022768e+02
2.920000e-06	-4.006078e-06	-1.237239e-08	-2.788804e+01	-8.091649e+02
2.930000e-06	-4.076939e-06	-1.247029e-08	-2.838133e+01	-8.158424e+02
2.940000e-06	-4.146324e-06	-1.256644e-08	-2.886435e+01	-8.223489e+02
