# Temperatura_=_24.39
# Concentracion g/m^3_=_13400.0
# C_Vs_to_Am_M_A/Vsm_=_65563218390.804596
# pendiente_HvsI_1/m_=_3716.3
# ordenada_HvsI_A/m_=_1297.0
# frecuencia_Hz_=_300843.0294541776

Tiempo_(s)	Campo_(V.s)	Magnetizacion_(V.s)	Campo_(kA/m)	Magnetizacion_(A/m)
0.000000e+00	-2.854505e-06	-5.665846e-09	-1.980166e+01	-3.694163e+02
1.000000e-08	-2.853667e-06	-5.660363e-09	-1.979586e+01	-3.693093e+02
2.000000e-08	-2.851869e-06	-5.658010e-09	-1.978338e+01	-3.691804e+02
3.000000e-08	-2.848865e-06	-5.658127e-09	-1.976254e+01	-3.690352e+02
4.000000e-08	-2.844833e-06	-5.657818e-09	-1.973457e+01	-3.688606e+02
5.000000e-08	-2.839963e-06	-5.653900e-09	-1.970079e+01	-3.686294e+02
6.000000e-08	-2.834205e-06	-5.645214e-09	-1.966085e+01	-3.683103e+02
7.000000e-08	-2.827516e-06	-5.627814e-09	-1.961445e+01	-3.678815e+02
8.000000e-08	-2.819814e-06	-5.635008e-09	-1.956102e+01	-3.673402e+02
9.000000e-08	-2.810920e-06	-5.671219e-09	-1.949932e+01	-3.667072e+02
1.000000e-07	-2.800601e-06	-5.668392e-09	-1.942774e+01	-3.660218e+02
1.100000e-07	-2.789044e-06	-5.557253e-09	-1.934757e+01	-3.653309e+02
1.200000e-07	-2.776679e-06	-5.510666e-09	-1.926179e+01	-3.646734e+02
1.300000e-07	-2.763503e-06	-5.620810e-09	-1.917039e+01	-3.640676e+02
1.400000e-07	-2.749373e-06	-5.637593e-09	-1.907237e+01	-3.635051e+02
1.500000e-07	-2.734232e-06	-5.500155e-09	-1.896734e+01	-3.629524e+02
1.600000e-07	-2.717797e-06	-5.528093e-09	-1.885333e+01	-3.623615e+02
1.700000e-07	-2.700051e-06	-5.615509e-09	-1.873022e+01	-3.616836e+02
1.800000e-07	-2.681509e-06	-5.480145e-09	-1.860159e+01	-3.608823e+02
1.900000e-07	-2.662321e-06	-5.425347e-09	-1.846849e+01	-3.599424e+02
2.000000e-07	-2.642245e-06	-5.520921e-09	-1.832922e+01	-3.588695e+02
2.100000e-07	-2.621288e-06	-5.445543e-09	-1.818384e+01	-3.576847e+02
2.200000e-07	-2.599505e-06	-5.366880e-09	-1.803273e+01	-3.564141e+02
2.300000e-07	-2.576821e-06	-5.474540e-09	-1.787537e+01	-3.550791e+02
2.400000e-07	-2.553218e-06	-5.441965e-09	-1.771165e+01	-3.536906e+02
2.500000e-07	-2.528804e-06	-5.316909e-09	-1.754228e+01	-3.522481e+02
2.600000e-07	-2.503592e-06	-5.330844e-09	-1.736739e+01	-3.507444e+02
2.700000e-07	-2.477377e-06	-5.343985e-09	-1.718553e+01	-3.491720e+02
2.800000e-07	-2.450026e-06	-5.288079e-09	-1.699580e+01	-3.475284e+02
2.900000e-07	-2.421645e-06	-5.261643e-09	-1.679892e+01	-3.458184e+02
3.000000e-07	-2.392380e-06	-5.237593e-09	-1.659591e+01	-3.440518e+02
3.100000e-07	-2.362374e-06	-5.231979e-09	-1.638776e+01	-3.422385e+02
3.200000e-07	-2.331693e-06	-5.211381e-09	-1.617493e+01	-3.403832e+02
3.300000e-07	-2.300236e-06	-5.129953e-09	-1.595671e+01	-3.384828e+02
3.400000e-07	-2.268040e-06	-5.118710e-09	-1.573337e+01	-3.365266e+02
3.500000e-07	-2.235208e-06	-5.107473e-09	-1.550561e+01	-3.345015e+02
3.600000e-07	-2.201622e-06	-5.046645e-09	-1.527263e+01	-3.323978e+02
3.700000e-07	-2.166928e-06	-5.047787e-09	-1.503195e+01	-3.302136e+02
3.800000e-07	-2.131127e-06	-5.021914e-09	-1.478361e+01	-3.279568e+02
3.900000e-07	-2.094617e-06	-4.936404e-09	-1.453034e+01	-3.256416e+02
4.000000e-07	-2.057521e-06	-4.933637e-09	-1.427300e+01	-3.232830e+02
4.100000e-07	-2.019764e-06	-4.923554e-09	-1.401108e+01	-3.208898e+02
4.200000e-07	-1.981282e-06	-4.838725e-09	-1.374413e+01	-3.184602e+02
4.300000e-07	-1.942044e-06	-4.800124e-09	-1.347193e+01	-3.159823e+02
4.400000e-07	-1.902117e-06	-4.784649e-09	-1.319496e+01	-3.134373e+02
4.500000e-07	-1.861703e-06	-4.744633e-09	-1.291461e+01	-3.108077e+02
4.600000e-07	-1.820933e-06	-4.699096e-09	-1.263179e+01	-3.080832e+02
4.700000e-07	-1.779553e-06	-4.652190e-09	-1.234474e+01	-3.052655e+02
4.800000e-07	-1.737183e-06	-4.604799e-09	-1.205081e+01	-3.023665e+02
4.900000e-07	-1.693790e-06	-4.566073e-09	-1.174980e+01	-2.994039e+02
5.000000e-07	-1.649664e-06	-4.520533e-09	-1.144370e+01	-2.963936e+02
5.100000e-07	-1.605110e-06	-4.465991e-09	-1.113463e+01	-2.933429e+02
5.200000e-07	-1.560188e-06	-4.417942e-09	-1.082301e+01	-2.902474e+02
5.300000e-07	-1.514739e-06	-4.372492e-09	-1.050772e+01	-2.870935e+02
5.400000e-07	-1.468677e-06	-4.328499e-09	-1.018820e+01	-2.838632e+02
5.500000e-07	-1.422016e-06	-4.276588e-09	-9.864512e+00	-2.805419e+02
5.600000e-07	-1.374849e-06	-4.218072e-09	-9.537309e+00	-2.771240e+02
5.700000e-07	-1.327255e-06	-4.163687e-09	-9.207149e+00	-2.736145e+02
5.800000e-07	-1.279225e-06	-4.117192e-09	-8.873969e+00	-2.700256e+02
5.900000e-07	-1.230796e-06	-4.058163e-09	-8.538017e+00	-2.663711e+02
6.000000e-07	-1.182026e-06	-3.992139e-09	-8.199699e+00	-2.626588e+02
6.100000e-07	-1.132852e-06	-3.935713e-09	-7.858581e+00	-2.588868e+02
6.200000e-07	-1.083012e-06	-3.879668e-09	-7.512843e+00	-2.550433e+02
6.300000e-07	-1.032428e-06	-3.820252e-09	-7.161940e+00	-2.511114e+02
6.400000e-07	-9.812087e-07	-3.755750e-09	-6.806633e+00	-2.470761e+02
6.500000e-07	-9.295151e-07	-3.689957e-09	-6.448035e+00	-2.429312e+02
6.600000e-07	-8.774913e-07	-3.624915e-09	-6.087147e+00	-2.386822e+02
6.700000e-07	-8.251824e-07	-3.560395e-09	-5.724280e+00	-2.343441e+02
6.800000e-07	-7.726257e-07	-3.491492e-09	-5.359696e+00	-2.299355e+02
6.900000e-07	-7.198177e-07	-3.421001e-09	-4.993367e+00	-2.254699e+02
7.000000e-07	-6.667126e-07	-3.351377e-09	-4.624978e+00	-2.209490e+02
7.100000e-07	-6.133426e-07	-3.280976e-09	-4.254750e+00	-2.163607e+02
7.200000e-07	-5.597877e-07	-3.208990e-09	-3.883241e+00	-2.116820e+02
7.300000e-07	-5.060009e-07	-3.133937e-09	-3.510122e+00	-2.068869e+02
7.400000e-07	-4.520278e-07	-3.059129e-09	-3.135712e+00	-2.019553e+02
7.500000e-07	-3.978905e-07	-2.982350e-09	-2.760162e+00	-1.968797e+02
7.600000e-07	-3.436010e-07	-2.900302e-09	-2.383556e+00	-1.916666e+02
7.700000e-07	-2.892610e-07	-2.814172e-09	-2.006600e+00	-1.863326e+02
7.800000e-07	-2.348655e-07	-2.730149e-09	-1.629260e+00	-1.808953e+02
7.900000e-07	-1.803945e-07	-2.649417e-09	-1.251395e+00	-1.753651e+02
8.000000e-07	-1.258722e-07	-2.565982e-09	-8.731738e-01	-1.697383e+02
8.100000e-07	-7.132971e-08	-2.477411e-09	-4.948133e-01	-1.639970e+02
8.200000e-07	-1.679945e-08	-2.385109e-09	-1.165376e-01	-1.581140e+02
8.300000e-07	3.773824e-08	-2.289851e-09	2.617897e-01	-1.520620e+02
8.400000e-07	9.223653e-08	-2.191976e-09	6.398437e-01	-1.458227e+02
8.500000e-07	1.466953e-07	-2.093816e-09	1.017624e+00	-1.393914e+02
8.600000e-07	2.011819e-07	-1.993276e-09	1.395596e+00	-1.327766e+02
8.700000e-07	2.556418e-07	-1.888576e-09	1.773384e+00	-1.259931e+02
8.800000e-07	3.100102e-07	-1.782889e-09	2.150537e+00	-1.190519e+02
8.900000e-07	3.642584e-07	-1.675633e-09	2.526856e+00	-1.119512e+02
9.000000e-07	4.183734e-07	-1.561493e-09	2.902252e+00	-1.046716e+02
9.100000e-07	4.723517e-07	-1.441449e-09	3.276698e+00	-9.717737e+01
9.200000e-07	5.261776e-07	-1.321820e-09	3.650088e+00	-8.942507e+01
9.300000e-07	5.797833e-07	-1.201110e-09	4.021950e+00	-8.137357e+01
9.400000e-07	6.331160e-07	-1.075613e-09	4.391918e+00	-7.299397e+01
9.500000e-07	6.861559e-07	-9.423442e-10	4.759856e+00	-6.427411e+01
9.600000e-07	7.389385e-07	-8.021778e-10	5.126008e+00	-5.521646e+01
9.700000e-07	7.915067e-07	-6.582769e-10	5.490673e+00	-4.582989e+01
9.800000e-07	8.438154e-07	-5.104063e-10	5.853537e+00	-3.611869e+01
9.900000e-07	8.958509e-07	-3.550285e-10	6.214507e+00	-2.607300e+01
1.000000e-06	9.475277e-07	-1.902405e-10	6.572988e+00	-1.566454e+01
1.010000e-06	9.986843e-07	-2.259436e-11	6.927861e+00	-4.849545e+00
1.020000e-06	1.049216e-06	1.458162e-10	7.278397e+00	6.421899e+00
1.030000e-06	1.099102e-06	3.210516e-10	7.624457e+00	1.819287e+01
1.040000e-06	1.148404e-06	5.102783e-10	7.966467e+00	3.048712e+01
1.050000e-06	1.197259e-06	7.107732e-10	8.305373e+00	4.330058e+01
1.060000e-06	1.245828e-06	9.140871e-10	8.642297e+00	5.659881e+01
1.070000e-06	1.294105e-06	1.120289e-09	8.977192e+00	7.032012e+01
1.080000e-06	1.341981e-06	1.333766e-09	9.309304e+00	8.438224e+01
1.090000e-06	1.389338e-06	1.553850e-09	9.637824e+00	9.868963e+01
1.100000e-06	1.436165e-06	1.773202e-09	9.962661e+00	1.131391e+02
1.110000e-06	1.482505e-06	1.989700e-09	1.028412e+01	1.276227e+02
1.120000e-06	1.528320e-06	2.205582e-09	1.060194e+01	1.420280e+02
1.130000e-06	1.573589e-06	2.421338e-09	1.091597e+01	1.562388e+02
1.140000e-06	1.618392e-06	2.633553e-09	1.122677e+01	1.701365e+02
1.150000e-06	1.662851e-06	2.836765e-09	1.153517e+01	1.836052e+02
1.160000e-06	1.706860e-06	3.030199e-09	1.184046e+01	1.965382e+02
1.170000e-06	1.750164e-06	3.216687e-09	1.214087e+01	2.088467e+02
1.180000e-06	1.792548e-06	3.394448e-09	1.243488e+01	2.204668e+02
1.190000e-06	1.833991e-06	3.559821e-09	1.272237e+01	2.313622e+02
1.200000e-06	1.874753e-06	3.712215e-09	1.300514e+01	2.415244e+02
1.210000e-06	1.915002e-06	3.854378e-09	1.328434e+01	2.509675e+02
1.220000e-06	1.954665e-06	3.988146e-09	1.355949e+01	2.597216e+02
1.230000e-06	1.993680e-06	4.110554e-09	1.383014e+01	2.678261e+02
1.240000e-06	2.032015e-06	4.220018e-09	1.409606e+01	2.753245e+02
1.250000e-06	2.069632e-06	4.320422e-09	1.435701e+01	2.822623e+02
1.260000e-06	2.106618e-06	4.416978e-09	1.461358e+01	2.886858e+02
1.270000e-06	2.143064e-06	4.507675e-09	1.486641e+01	2.946425e+02
1.280000e-06	2.178843e-06	4.589063e-09	1.511461e+01	3.001800e+02
1.290000e-06	2.213699e-06	4.663334e-09	1.535640e+01	3.053438e+02
1.300000e-06	2.247487e-06	4.735330e-09	1.559079e+01	3.101743e+02
1.310000e-06	2.280394e-06	4.805862e-09	1.581907e+01	3.147034e+02
1.320000e-06	2.312606e-06	4.871590e-09	1.604252e+01	3.189528e+02
1.330000e-06	2.344043e-06	4.930981e-09	1.626060e+01	3.229352e+02
1.340000e-06	2.374689e-06	4.984541e-09	1.647319e+01	3.266580e+02
1.350000e-06	2.404550e-06	5.032531e-09	1.668033e+01	3.301284e+02
1.360000e-06	2.433652e-06	5.076777e-09	1.688221e+01	3.333574e+02
1.370000e-06	2.462129e-06	5.119303e-09	1.707976e+01	3.363625e+02
1.380000e-06	2.489785e-06	5.160909e-09	1.727161e+01	3.391666e+02
1.390000e-06	2.516224e-06	5.201948e-09	1.745502e+01	3.417944e+02
1.400000e-06	2.541504e-06	5.239436e-09	1.763039e+01	3.442671e+02
1.410000e-06	2.565884e-06	5.271848e-09	1.779951e+01	3.465989e+02
1.420000e-06	2.589396e-06	5.301926e-09	1.796261e+01	3.487959e+02
1.430000e-06	2.612048e-06	5.332281e-09	1.811975e+01	3.508577e+02
1.440000e-06	2.633800e-06	5.360191e-09	1.827064e+01	3.527822e+02
1.450000e-06	2.654730e-06	5.383352e-09	1.841583e+01	3.545704e+02
1.460000e-06	2.674978e-06	5.405915e-09	1.855629e+01	3.562293e+02
1.470000e-06	2.694347e-06	5.429791e-09	1.869065e+01	3.577724e+02
1.480000e-06	2.712658e-06	5.452882e-09	1.881768e+01	3.592157e+02
1.490000e-06	2.730051e-06	5.474009e-09	1.893833e+01	3.605733e+02
1.500000e-06	2.746517e-06	5.492144e-09	1.905255e+01	3.618524e+02
1.510000e-06	2.761874e-06	5.508921e-09	1.915909e+01	3.630514e+02
1.520000e-06	2.776155e-06	5.525559e-09	1.925815e+01	3.641621e+02
1.530000e-06	2.789439e-06	5.539505e-09	1.935030e+01	3.651740e+02
1.540000e-06	2.801652e-06	5.550767e-09	1.943503e+01	3.660810e+02
1.550000e-06	2.812579e-06	5.562531e-09	1.951083e+01	3.668852e+02
1.560000e-06	2.822205e-06	5.576250e-09	1.957761e+01	3.675983e+02
1.570000e-06	2.830810e-06	5.589367e-09	1.963729e+01	3.682372e+02
1.580000e-06	2.838552e-06	5.597902e-09	1.969100e+01	3.688186e+02
1.590000e-06	2.845310e-06	5.604017e-09	1.973788e+01	3.693510e+02
1.600000e-06	2.851099e-06	5.611587e-09	1.977804e+01	3.698314e+02
1.610000e-06	2.856086e-06	5.619441e-09	1.981263e+01	3.702458e+02
1.620000e-06	2.860222e-06	5.624834e-09	1.984133e+01	3.705747e+02
1.630000e-06	2.863206e-06	5.628006e-09	1.986203e+01	3.708016e+02
1.640000e-06	2.864903e-06	5.631221e-09	1.987380e+01	3.709210e+02
1.650000e-06	2.865581e-06	5.634233e-09	1.987850e+01	3.709425e+02
1.660000e-06	2.865391e-06	5.634557e-09	1.987718e+01	3.708884e+02
1.670000e-06	2.864264e-06	5.630943e-09	1.986936e+01	3.707868e+02
1.680000e-06	2.862226e-06	5.627165e-09	1.985523e+01	3.706606e+02
1.690000e-06	2.859378e-06	5.626309e-09	1.983547e+01	3.705184e+02
1.700000e-06	2.855798e-06	5.625426e-09	1.981064e+01	3.703504e+02
1.710000e-06	2.851249e-06	5.622487e-09	1.977908e+01	3.701312e+02
1.720000e-06	2.845480e-06	5.624810e-09	1.973906e+01	3.698296e+02
1.730000e-06	2.838719e-06	5.637206e-09	1.969216e+01	3.694209e+02
1.740000e-06	2.831121e-06	5.595631e-09	1.963946e+01	3.688985e+02
1.750000e-06	2.822255e-06	5.521569e-09	1.957795e+01	3.682791e+02
1.760000e-06	2.811761e-06	5.543413e-09	1.950515e+01	3.675993e+02
1.770000e-06	2.800200e-06	5.646759e-09	1.942495e+01	3.669058e+02
1.780000e-06	2.788422e-06	5.620486e-09	1.934325e+01	3.662399e+02
1.790000e-06	2.776125e-06	5.475455e-09	1.925795e+01	3.656244e+02
1.800000e-06	2.762242e-06	5.518515e-09	1.916164e+01	3.650556e+02
1.810000e-06	2.746963e-06	5.622102e-09	1.905565e+01	3.645042e+02
1.820000e-06	2.731096e-06	5.498234e-09	1.894558e+01	3.639235e+02
1.830000e-06	2.714286e-06	5.440796e-09	1.882897e+01	3.632639e+02
1.840000e-06	2.696139e-06	5.594031e-09	1.870309e+01	3.624862e+02
1.850000e-06	2.677165e-06	5.532244e-09	1.857146e+01	3.615708e+02
1.860000e-06	2.657480e-06	5.383899e-09	1.843491e+01	3.605201e+02
1.870000e-06	2.636641e-06	5.512119e-09	1.829035e+01	3.593530e+02
1.880000e-06	2.614710e-06	5.508158e-09	1.813821e+01	3.580956e+02
1.890000e-06	2.591808e-06	5.326166e-09	1.797934e+01	3.567707e+02
1.900000e-06	2.567848e-06	5.403464e-09	1.781313e+01	3.553911e+02
1.910000e-06	2.543132e-06	5.461241e-09	1.764167e+01	3.539584e+02
1.920000e-06	2.517720e-06	5.335758e-09	1.746540e+01	3.524659e+02
1.930000e-06	2.491359e-06	5.325973e-09	1.728253e+01	3.509058e+02
1.940000e-06	2.464227e-06	5.324429e-09	1.709432e+01	3.492744e+02
1.950000e-06	2.436360e-06	5.276448e-09	1.690100e+01	3.475753e+02
1.960000e-06	2.407348e-06	5.280987e-09	1.669974e+01	3.458177e+02
1.970000e-06	2.377128e-06	5.210599e-09	1.649011e+01	3.440118e+02
1.980000e-06	2.346062e-06	5.186323e-09	1.627460e+01	3.421638e+02
1.990000e-06	2.314348e-06	5.231690e-09	1.605460e+01	3.402716e+02
2.000000e-06	2.281940e-06	5.128363e-09	1.582979e+01	3.383260e+02
2.010000e-06	2.248721e-06	5.096191e-09	1.559935e+01	3.363138e+02
2.020000e-06	2.214699e-06	5.129963e-09	1.536334e+01	3.342242e+02
2.030000e-06	2.180011e-06	5.019549e-09	1.512271e+01	3.320538e+02
2.040000e-06	2.144730e-06	5.008229e-09	1.487797e+01	3.298087e+02
2.050000e-06	2.108831e-06	5.030709e-09	1.462894e+01	3.275024e+02
2.060000e-06	2.072084e-06	4.922440e-09	1.437402e+01	3.251503e+02
2.070000e-06	2.034172e-06	4.902656e-09	1.411103e+01	3.227627e+02
2.080000e-06	1.995308e-06	4.902439e-09	1.384143e+01	3.203400e+02
2.090000e-06	1.955948e-06	4.827289e-09	1.356839e+01	3.178716e+02
2.100000e-06	1.916031e-06	4.799008e-09	1.329148e+01	3.153397e+02
2.110000e-06	1.875402e-06	4.754338e-09	1.300964e+01	3.127259e+02
2.120000e-06	1.834138e-06	4.711475e-09	1.272339e+01	3.100183e+02
2.130000e-06	1.792326e-06	4.688211e-09	1.243335e+01	3.072162e+02
2.140000e-06	1.749927e-06	4.627629e-09	1.213922e+01	3.043302e+02
2.150000e-06	1.706953e-06	4.586244e-09	1.184112e+01	3.013773e+02
2.160000e-06	1.663573e-06	4.543106e-09	1.154019e+01	2.983744e+02
2.170000e-06	1.619752e-06	4.492210e-09	1.123620e+01	2.953305e+02
2.180000e-06	1.575231e-06	4.452272e-09	1.092736e+01	2.922435e+02
2.190000e-06	1.530029e-06	4.399044e-09	1.061379e+01	2.891010e+02
2.200000e-06	1.484285e-06	4.349370e-09	1.029646e+01	2.858852e+02
2.210000e-06	1.438111e-06	4.303564e-09	9.976156e+00	2.825806e+02
2.220000e-06	1.391521e-06	4.254580e-09	9.652963e+00	2.791796e+02
2.230000e-06	1.344373e-06	4.202768e-09	9.325902e+00	2.756853e+02
2.240000e-06	1.296634e-06	4.134671e-09	8.994732e+00	2.721092e+02
2.250000e-06	1.248314e-06	4.085262e-09	8.659542e+00	2.684652e+02
2.260000e-06	1.199525e-06	4.039680e-09	8.321093e+00	2.647627e+02
2.270000e-06	1.150353e-06	3.973626e-09	7.979984e+00	2.610017e+02
2.280000e-06	1.100799e-06	3.918589e-09	7.636231e+00	2.571718e+02
2.290000e-06	1.050821e-06	3.859670e-09	7.289532e+00	2.532566e+02
2.300000e-06	1.000368e-06	3.800593e-09	6.939538e+00	2.492403e+02
2.310000e-06	9.494973e-07	3.742973e-09	6.586651e+00	2.451146e+02
2.320000e-06	8.983394e-07	3.673197e-09	6.231770e+00	2.408829e+02
2.330000e-06	8.469476e-07	3.606650e-09	5.875266e+00	2.365590e+02
2.340000e-06	7.952490e-07	3.539154e-09	5.516633e+00	2.321614e+02
2.350000e-06	7.431620e-07	3.473307e-09	5.155306e+00	2.277051e+02
2.360000e-06	6.906828e-07	3.408740e-09	4.791258e+00	2.231943e+02
2.370000e-06	6.377936e-07	3.336875e-09	4.424367e+00	2.186191e+02
2.380000e-06	5.844622e-07	3.267525e-09	4.054407e+00	2.139582e+02
2.390000e-06	5.307962e-07	3.196638e-09	3.682127e+00	2.091853e+02
2.400000e-06	4.767530e-07	3.121786e-09	3.307230e+00	2.042787e+02
2.410000e-06	4.224294e-07	3.046050e-09	2.930388e+00	1.992284e+02
2.420000e-06	3.680257e-07	2.965667e-09	2.552990e+00	1.940386e+02
2.430000e-06	3.133963e-07	2.885204e-09	2.174027e+00	1.887244e+02
2.440000e-06	2.586021e-07	2.802305e-09	1.793920e+00	1.833042e+02
2.450000e-06	2.037483e-07	2.717414e-09	1.413399e+00	1.777900e+02
2.460000e-06	1.488150e-07	2.635269e-09	1.032328e+00	1.721811e+02
2.470000e-06	9.387194e-08	2.551670e-09	6.511886e-01	1.664617e+02
2.480000e-06	3.893728e-08	2.465544e-09	2.701074e-01	1.606058e+02
2.490000e-06	-1.604233e-08	2.373659e-09	-1.112854e-01	1.545854e+02
2.500000e-06	-7.106385e-08	2.278921e-09	-4.929691e-01	1.483800e+02
2.510000e-06	-1.260295e-07	2.184289e-09	-8.742654e-01	1.419823e+02
2.520000e-06	-1.809268e-07	2.084061e-09	-1.255087e+00	1.353989e+02
2.530000e-06	-2.357857e-07	1.978462e-09	-1.635642e+00	1.286441e+02
2.540000e-06	-2.905543e-07	1.873124e-09	-2.015572e+00	1.217305e+02
2.550000e-06	-3.452185e-07	1.769836e-09	-2.394777e+00	1.146588e+02
2.560000e-06	-3.997192e-07	1.662451e-09	-2.772847e+00	1.074130e+02
2.570000e-06	-4.539974e-07	1.546959e-09	-3.149374e+00	9.995990e+01
2.580000e-06	-5.080140e-07	1.429901e-09	-3.524087e+00	9.225659e+01
2.590000e-06	-5.617099e-07	1.311584e-09	-3.896575e+00	8.426076e+01
2.600000e-06	-6.150845e-07	1.184939e-09	-4.266834e+00	7.594080e+01
2.610000e-06	-6.680651e-07	1.049977e-09	-4.634360e+00	6.728153e+01
2.620000e-06	-7.205884e-07	9.102128e-10	-4.998713e+00	5.828327e+01
2.630000e-06	-7.726873e-07	7.681190e-10	-5.360123e+00	4.895451e+01
2.640000e-06	-8.243932e-07	6.268599e-10	-5.718806e+00	3.930117e+01
2.650000e-06	-8.758213e-07	4.803290e-10	-6.075562e+00	2.931642e+01
2.660000e-06	-9.270465e-07	3.234318e-10	-6.430911e+00	1.897527e+01
2.670000e-06	-9.779718e-07	1.583657e-10	-6.784179e+00	8.236182e+00
2.680000e-06	-1.028544e-06	-1.184173e-11	-7.134995e+00	-2.950549e+00
2.690000e-06	-1.078684e-06	-1.883061e-10	-7.482816e+00	-1.463021e+01
2.700000e-06	-1.128353e-06	-3.750637e-10	-7.827371e+00	-2.683077e+01
2.710000e-06	-1.177662e-06	-5.717122e-10	-8.169428e+00	-3.955351e+01
2.720000e-06	-1.226541e-06	-7.737312e-10	-8.508498e+00	-5.276932e+01
2.730000e-06	-1.274758e-06	-9.786491e-10	-8.842985e+00	-6.642095e+01
2.740000e-06	-1.322231e-06	-1.191173e-09	-9.172303e+00	-8.042925e+01
2.750000e-06	-1.369009e-06	-1.412467e-09	-9.496801e+00	-9.470057e+01
2.760000e-06	-1.415214e-06	-1.634878e-09	-9.817321e+00	-1.091328e+02
2.770000e-06	-1.460994e-06	-1.854127e-09	-1.013490e+01	-1.236187e+02
2.780000e-06	-1.506426e-06	-2.075508e-09	-1.045006e+01	-1.380468e+02
2.790000e-06	-1.551445e-06	-2.298905e-09	-1.076235e+01	-1.523013e+02
2.800000e-06	-1.595906e-06	-2.516624e-09	-1.107078e+01	-1.662640e+02
2.810000e-06	-1.639778e-06	-2.723564e-09	-1.137512e+01	-1.798177e+02
2.820000e-06	-1.683227e-06	-2.921362e-09	-1.167652e+01	-1.928538e+02
2.830000e-06	-1.726302e-06	-3.110877e-09	-1.197534e+01	-2.052797e+02
2.840000e-06	-1.768892e-06	-3.291057e-09	-1.227078e+01	-2.170265e+02
2.850000e-06	-1.810905e-06	-3.459877e-09	-1.256223e+01	-2.280530e+02
2.860000e-06	-1.852322e-06	-3.617385e-09	-1.284954e+01	-2.383461e+02
2.870000e-06	-1.893094e-06	-3.766750e-09	-1.313237e+01	-2.479161e+02
2.880000e-06	-1.933182e-06	-3.907416e-09	-1.341046e+01	-2.567908e+02
2.890000e-06	-1.972728e-06	-4.038400e-09	-1.368479e+01	-2.650085e+02
2.900000e-06	-2.011740e-06	-4.158068e-09	-1.395542e+01	-2.726122e+02
2.910000e-06	-2.049992e-06	-4.265485e-09	-1.422077e+01	-2.796471e+02
2.920000e-06	-2.087199e-06	-4.362435e-09	-1.447888e+01	-2.861593e+02
2.930000e-06	-2.123407e-06	-4.453283e-09	-1.473005e+01	-2.921962e+02
2.940000e-06	-2.158915e-06	-4.542121e-09	-1.497637e+01	-2.978054e+02
