# Temperatura_=_21.99
# Concentracion g/m^3_=_13400.0
# C_Vs_to_Am_M_A/Vsm_=_65563218390.804596
# pendiente_HvsI_1/m_=_3716.3
# ordenada_HvsI_A/m_=_1297.0
# frecuencia_Hz_=_300836.18723190494

Tiempo_(s)	Campo_(V.s)	Magnetizacion_(V.s)	Campo_(kA/m)	Magnetizacion_(A/m)
0.000000e+00	-2.846558e-06	-5.625904e-09	-1.980170e+01	-3.669350e+02
1.000000e-08	-2.845576e-06	-5.625718e-09	-1.979487e+01	-3.668564e+02
2.000000e-08	-2.843572e-06	-5.623568e-09	-1.978093e+01	-3.666932e+02
3.000000e-08	-2.840262e-06	-5.619426e-09	-1.975790e+01	-3.664457e+02
4.000000e-08	-2.835958e-06	-5.613916e-09	-1.972796e+01	-3.661219e+02
5.000000e-08	-2.830906e-06	-5.604765e-09	-1.969282e+01	-3.657343e+02
6.000000e-08	-2.824990e-06	-5.587289e-09	-1.965166e+01	-3.652945e+02
7.000000e-08	-2.818121e-06	-5.565034e-09	-1.960388e+01	-3.648093e+02
8.000000e-08	-2.810279e-06	-5.602829e-09	-1.954933e+01	-3.642787e+02
9.000000e-08	-2.801191e-06	-5.665608e-09	-1.948611e+01	-3.636988e+02
1.000000e-07	-2.790571e-06	-5.624162e-09	-1.941223e+01	-3.630658e+02
1.100000e-07	-2.778788e-06	-5.433384e-09	-1.933026e+01	-3.623807e+02
1.200000e-07	-2.766317e-06	-5.460568e-09	-1.924351e+01	-3.616524e+02
1.300000e-07	-2.752987e-06	-5.657885e-09	-1.915078e+01	-3.608961e+02
1.400000e-07	-2.738631e-06	-5.565693e-09	-1.905092e+01	-3.601284e+02
1.500000e-07	-2.723367e-06	-5.373431e-09	-1.894474e+01	-3.593605e+02
1.600000e-07	-2.706815e-06	-5.532903e-09	-1.882959e+01	-3.585917e+02
1.700000e-07	-2.688880e-06	-5.613025e-09	-1.870483e+01	-3.578065e+02
1.800000e-07	-2.670256e-06	-5.338194e-09	-1.857527e+01	-3.569769e+02
1.900000e-07	-2.650939e-06	-5.391830e-09	-1.844090e+01	-3.560694e+02
2.000000e-07	-2.630644e-06	-5.538238e-09	-1.829972e+01	-3.550541e+02
2.100000e-07	-2.609529e-06	-5.319827e-09	-1.815284e+01	-3.539144e+02
2.200000e-07	-2.587651e-06	-5.309909e-09	-1.800065e+01	-3.526511e+02
2.300000e-07	-2.564815e-06	-5.517296e-09	-1.784179e+01	-3.512820e+02
2.400000e-07	-2.541031e-06	-5.355775e-09	-1.767634e+01	-3.498352e+02
2.500000e-07	-2.516511e-06	-5.221322e-09	-1.750577e+01	-3.483392e+02
2.600000e-07	-2.491106e-06	-5.324978e-09	-1.732904e+01	-3.468136e+02
2.700000e-07	-2.464577e-06	-5.300459e-09	-1.714450e+01	-3.452620e+02
2.800000e-07	-2.436984e-06	-5.215535e-09	-1.695255e+01	-3.436725e+02
2.900000e-07	-2.408480e-06	-5.219995e-09	-1.675427e+01	-3.420224e+02
3.000000e-07	-2.379171e-06	-5.201999e-09	-1.655038e+01	-3.402877e+02
3.100000e-07	-2.349177e-06	-5.193664e-09	-1.634173e+01	-3.384523e+02
3.200000e-07	-2.318522e-06	-5.167091e-09	-1.612849e+01	-3.365143e+02
3.300000e-07	-2.287047e-06	-5.068872e-09	-1.590954e+01	-3.344870e+02
3.400000e-07	-2.254808e-06	-5.078585e-09	-1.568527e+01	-3.323939e+02
3.500000e-07	-2.221977e-06	-5.047090e-09	-1.545688e+01	-3.302604e+02
3.600000e-07	-2.188370e-06	-4.987352e-09	-1.522310e+01	-3.281045e+02
3.700000e-07	-2.153599e-06	-5.016781e-09	-1.498122e+01	-3.259307e+02
3.800000e-07	-2.117690e-06	-4.951173e-09	-1.473143e+01	-3.237283e+02
3.900000e-07	-2.081127e-06	-4.860279e-09	-1.447708e+01	-3.214753e+02
4.000000e-07	-2.044026e-06	-4.896046e-09	-1.421899e+01	-3.191467e+02
4.100000e-07	-2.006176e-06	-4.868760e-09	-1.395570e+01	-3.167223e+02
4.200000e-07	-1.967592e-06	-4.765822e-09	-1.368729e+01	-3.141938e+02
4.300000e-07	-1.928351e-06	-4.751941e-09	-1.341432e+01	-3.115663e+02
4.400000e-07	-1.888450e-06	-4.730028e-09	-1.313675e+01	-3.088557e+02
4.500000e-07	-1.848056e-06	-4.681018e-09	-1.285575e+01	-3.060817e+02
4.600000e-07	-1.807303e-06	-4.630143e-09	-1.257226e+01	-3.032606e+02
4.700000e-07	-1.765866e-06	-4.577889e-09	-1.228401e+01	-3.003995e+02
4.800000e-07	-1.723354e-06	-4.536202e-09	-1.198828e+01	-2.974942e+02
4.900000e-07	-1.679816e-06	-4.506659e-09	-1.168541e+01	-2.945312e+02
5.000000e-07	-1.635620e-06	-4.462913e-09	-1.137797e+01	-2.914939e+02
5.100000e-07	-1.591036e-06	-4.397694e-09	-1.106782e+01	-2.883689e+02
5.200000e-07	-1.546093e-06	-4.345962e-09	-1.075518e+01	-2.851509e+02
5.300000e-07	-1.500652e-06	-4.302429e-09	-1.043908e+01	-2.818449e+02
5.400000e-07	-1.454592e-06	-4.262783e-09	-1.011867e+01	-2.784636e+02
5.500000e-07	-1.408035e-06	-4.198175e-09	-9.794807e+00	-2.750223e+02
5.600000e-07	-1.361017e-06	-4.131918e-09	-9.467734e+00	-2.715323e+02
5.700000e-07	-1.313462e-06	-4.085132e-09	-9.136921e+00	-2.679962e+02
5.800000e-07	-1.265447e-06	-4.044172e-09	-8.802912e+00	-2.644055e+02
5.900000e-07	-1.217090e-06	-3.979794e-09	-8.466523e+00	-2.607427e+02
6.000000e-07	-1.168386e-06	-3.910636e-09	-8.127719e+00	-2.569865e+02
6.100000e-07	-1.119250e-06	-3.860728e-09	-7.785914e+00	-2.531184e+02
6.200000e-07	-1.069613e-06	-3.804093e-09	-7.440622e+00	-2.491285e+02
6.300000e-07	-1.019343e-06	-3.738280e-09	-7.090924e+00	-2.450188e+02
6.400000e-07	-9.683927e-07	-3.663612e-09	-6.736493e+00	-2.408027e+02
6.500000e-07	-9.168840e-07	-3.596571e-09	-6.378180e+00	-2.365004e+02
6.600000e-07	-8.649140e-07	-3.535270e-09	-6.016658e+00	-2.321332e+02
6.700000e-07	-8.126211e-07	-3.471362e-09	-5.652889e+00	-2.277165e+02
6.800000e-07	-7.601457e-07	-3.399369e-09	-5.287851e+00	-2.232553e+02
6.900000e-07	-7.074354e-07	-3.326219e-09	-4.921179e+00	-2.187428e+02
7.000000e-07	-6.544592e-07	-3.259859e-09	-4.552657e+00	-2.141626e+02
7.100000e-07	-6.012958e-07	-3.190420e-09	-4.182833e+00	-2.094940e+02
7.200000e-07	-5.479285e-07	-3.112326e-09	-3.811591e+00	-2.047179e+02
7.300000e-07	-4.943232e-07	-3.028994e-09	-3.438693e+00	-1.998224e+02
7.400000e-07	-4.404465e-07	-2.954198e-09	-3.063907e+00	-1.948050e+02
7.500000e-07	-3.863709e-07	-2.880173e-09	-2.687737e+00	-1.896722e+02
7.600000e-07	-3.322375e-07	-2.799818e-09	-2.311165e+00	-1.844356e+02
7.700000e-07	-2.780328e-07	-2.712312e-09	-1.934097e+00	-1.791057e+02
7.800000e-07	-2.237221e-07	-2.628326e-09	-1.556293e+00	-1.736870e+02
7.900000e-07	-1.693512e-07	-2.551135e-09	-1.178069e+00	-1.681738e+02
8.000000e-07	-1.149246e-07	-2.466257e-09	-7.994574e-01	-1.625507e+02
8.100000e-07	-6.045223e-08	-2.373167e-09	-4.205278e-01	-1.567957e+02
8.200000e-07	-5.969042e-09	-2.279061e-09	-4.152284e-02	-1.508857e+02
8.300000e-07	4.852982e-08	-2.188500e-09	3.375912e-01	-1.448032e+02
8.400000e-07	1.030062e-07	-2.092114e-09	7.165487e-01	-1.385404e+02
8.500000e-07	1.574377e-07	-1.990093e-09	1.095194e+00	-1.321005e+02
8.600000e-07	2.118333e-07	-1.885775e-09	1.473589e+00	-1.254947e+02
8.700000e-07	2.661644e-07	-1.783631e-09	1.851537e+00	-1.187357e+02
8.800000e-07	3.203630e-07	-1.681399e-09	2.228562e+00	-1.118308e+02
8.900000e-07	3.744595e-07	-1.571390e-09	2.604877e+00	-1.047758e+02
9.000000e-07	4.284392e-07	-1.455780e-09	2.980380e+00	-9.755208e+01
9.100000e-07	4.822662e-07	-1.338974e-09	3.354819e+00	-9.012890e+01
9.200000e-07	5.359454e-07	-1.224004e-09	3.728232e+00	-8.246924e+01
9.300000e-07	5.893659e-07	-1.101505e-09	4.099844e+00	-7.453780e+01
9.400000e-07	6.424953e-07	-9.726737e-10	4.469432e+00	-6.630830e+01
9.500000e-07	6.953715e-07	-8.405360e-10	4.837258e+00	-5.776736e+01
9.600000e-07	7.480266e-07	-7.073531e-10	5.203546e+00	-4.891354e+01
9.700000e-07	8.004989e-07	-5.699849e-10	5.568562e+00	-3.975175e+01
9.800000e-07	8.526527e-07	-4.244364e-10	5.931364e+00	-3.028495e+01
9.900000e-07	9.044008e-07	-2.718973e-10	6.291342e+00	-2.050618e+01
1.000000e-06	9.557169e-07	-1.124841e-10	6.648316e+00	-1.039403e+01
1.010000e-06	1.006460e-06	4.929498e-11	7.001304e+00	8.645518e-02
1.020000e-06	1.056516e-06	2.152565e-10	7.349508e+00	1.097718e+01
1.030000e-06	1.105927e-06	3.869691e-10	7.693231e+00	2.231641e+01
1.040000e-06	1.154853e-06	5.690983e-10	8.033581e+00	3.412738e+01
1.050000e-06	1.203482e-06	7.587324e-10	8.371860e+00	4.640925e+01
1.060000e-06	1.251901e-06	9.520119e-10	8.708679e+00	5.913315e+01
1.070000e-06	1.300006e-06	1.149446e-09	9.043316e+00	7.224386e+01
1.080000e-06	1.347628e-06	1.353416e-09	9.374592e+00	8.566616e+01
1.090000e-06	1.394719e-06	1.563473e-09	9.702175e+00	9.931303e+01
1.100000e-06	1.441325e-06	1.773819e-09	1.002638e+01	1.130930e+02
1.110000e-06	1.487383e-06	1.984672e-09	1.034678e+01	1.269143e+02
1.120000e-06	1.532852e-06	2.193435e-09	1.066308e+01	1.406849e+02
1.130000e-06	1.577831e-06	2.398919e-09	1.097597e+01	1.543109e+02
1.140000e-06	1.622451e-06	2.599012e-09	1.128636e+01	1.676935e+02
1.150000e-06	1.666765e-06	2.791815e-09	1.159463e+01	1.807294e+02
1.160000e-06	1.710595e-06	2.978403e-09	1.189952e+01	1.933147e+02
1.170000e-06	1.753584e-06	3.162308e-09	1.219857e+01	2.053534e+02
1.180000e-06	1.795583e-06	3.340891e-09	1.249073e+01	2.167670e+02
1.190000e-06	1.836740e-06	3.508768e-09	1.277703e+01	2.275038e+02
1.200000e-06	1.877316e-06	3.663624e-09	1.305930e+01	2.375438e+02
1.210000e-06	1.917397e-06	3.804068e-09	1.333812e+01	2.468976e+02
1.220000e-06	1.956863e-06	3.931495e-09	1.361265e+01	2.555997e+02
1.230000e-06	1.995686e-06	4.047827e-09	1.388272e+01	2.636973e+02
1.240000e-06	2.033844e-06	4.156899e-09	1.414816e+01	2.712396e+02
1.250000e-06	2.071245e-06	4.261830e-09	1.440833e+01	2.782693e+02
1.260000e-06	2.108013e-06	4.364603e-09	1.466411e+01	2.848197e+02
1.270000e-06	2.144297e-06	4.461285e-09	1.491652e+01	2.909169e+02
1.280000e-06	2.179886e-06	4.548079e-09	1.516408e+01	2.965851e+02
1.290000e-06	2.214374e-06	4.626709e-09	1.540399e+01	3.018529e+02
1.300000e-06	2.247760e-06	4.699388e-09	1.563624e+01	3.067566e+02
1.310000e-06	2.280416e-06	4.765786e-09	1.586341e+01	3.113387e+02
1.320000e-06	2.312447e-06	4.826402e-09	1.608622e+01	3.156429e+02
1.330000e-06	2.343726e-06	4.885144e-09	1.630382e+01	3.197061e+02
1.340000e-06	2.374181e-06	4.942920e-09	1.651567e+01	3.235524e+02
1.350000e-06	2.403778e-06	4.996915e-09	1.672156e+01	3.271899e+02
1.360000e-06	2.432635e-06	5.046210e-09	1.692230e+01	3.306132e+02
1.370000e-06	2.460855e-06	5.093342e-09	1.711860e+01	3.338106e+02
1.380000e-06	2.488237e-06	5.138625e-09	1.730908e+01	3.367736e+02
1.390000e-06	2.514423e-06	5.177732e-09	1.749125e+01	3.395044e+02
1.400000e-06	2.539444e-06	5.210700e-09	1.766530e+01	3.420201e+02
1.410000e-06	2.563550e-06	5.242695e-09	1.783299e+01	3.443502e+02
1.420000e-06	2.586814e-06	5.275140e-09	1.799482e+01	3.465299e+02
1.430000e-06	2.609197e-06	5.304448e-09	1.815053e+01	3.485908e+02
1.440000e-06	2.630657e-06	5.330880e-09	1.829981e+01	3.505528e+02
1.450000e-06	2.651419e-06	5.358874e-09	1.844424e+01	3.524201e+02
1.460000e-06	2.671553e-06	5.388802e-09	1.858430e+01	3.541833e+02
1.470000e-06	2.690713e-06	5.414452e-09	1.871758e+01	3.558257e+02
1.480000e-06	2.708825e-06	5.433496e-09	1.884357e+01	3.573325e+02
1.490000e-06	2.726030e-06	5.450808e-09	1.896326e+01	3.586980e+02
1.500000e-06	2.742200e-06	5.469434e-09	1.907574e+01	3.599295e+02
1.510000e-06	2.757202e-06	5.486999e-09	1.918011e+01	3.610456e+02
1.520000e-06	2.771110e-06	5.500040e-09	1.927685e+01	3.620697e+02
1.530000e-06	2.784045e-06	5.511627e-09	1.936683e+01	3.630222e+02
1.540000e-06	2.795957e-06	5.528340e-09	1.944970e+01	3.639137e+02
1.550000e-06	2.806599e-06	5.547342e-09	1.952373e+01	3.647425e+02
1.560000e-06	2.816001e-06	5.558044e-09	1.958913e+01	3.654967e+02
1.570000e-06	2.824469e-06	5.561580e-09	1.964804e+01	3.661601e+02
1.580000e-06	2.832050e-06	5.567217e-09	1.970078e+01	3.667203e+02
1.590000e-06	2.838639e-06	5.578281e-09	1.974661e+01	3.671737e+02
1.600000e-06	2.844239e-06	5.587364e-09	1.978557e+01	3.675284e+02
1.610000e-06	2.849015e-06	5.589930e-09	1.981879e+01	3.678008e+02
1.620000e-06	2.852933e-06	5.591475e-09	1.984604e+01	3.680100e+02
1.630000e-06	2.855645e-06	5.596602e-09	1.986491e+01	3.681706e+02
1.640000e-06	2.857096e-06	5.601974e-09	1.987500e+01	3.682882e+02
1.650000e-06	2.857599e-06	5.601048e-09	1.987850e+01	3.683580e+02
1.660000e-06	2.857252e-06	5.596090e-09	1.987609e+01	3.683677e+02
1.670000e-06	2.855992e-06	5.593226e-09	1.986732e+01	3.683035e+02
1.680000e-06	2.853861e-06	5.595796e-09	1.985250e+01	3.681556e+02
1.690000e-06	2.850915e-06	5.596369e-09	1.983201e+01	3.679226e+02
1.700000e-06	2.847190e-06	5.587755e-09	1.980610e+01	3.676115e+02
1.710000e-06	2.842419e-06	5.579859e-09	1.977290e+01	3.672343e+02
1.720000e-06	2.836424e-06	5.590844e-09	1.973120e+01	3.668031e+02
1.730000e-06	2.829476e-06	5.606999e-09	1.968287e+01	3.663257e+02
1.740000e-06	2.821660e-06	5.520769e-09	1.962850e+01	3.658033e+02
1.750000e-06	2.812523e-06	5.434997e-09	1.956494e+01	3.652325e+02
1.760000e-06	2.801770e-06	5.532392e-09	1.949014e+01	3.646089e+02
1.770000e-06	2.790064e-06	5.670575e-09	1.940870e+01	3.639327e+02
1.780000e-06	2.778262e-06	5.549065e-09	1.932661e+01	3.632110e+02
1.790000e-06	2.765751e-06	5.350167e-09	1.923957e+01	3.624583e+02
1.800000e-06	2.751493e-06	5.537015e-09	1.914039e+01	3.616915e+02
1.810000e-06	2.736074e-06	5.607399e-09	1.903313e+01	3.609232e+02
1.820000e-06	2.720197e-06	5.343185e-09	1.892268e+01	3.601552e+02
1.830000e-06	2.703179e-06	5.388906e-09	1.880430e+01	3.593746e+02
1.840000e-06	2.684782e-06	5.611097e-09	1.867632e+01	3.585553e+02
1.850000e-06	2.665736e-06	5.402117e-09	1.854383e+01	3.576640e+02
1.860000e-06	2.646010e-06	5.287301e-09	1.840661e+01	3.566696e+02
1.870000e-06	2.625027e-06	5.562312e-09	1.826065e+01	3.555525e+02
1.880000e-06	2.602933e-06	5.405200e-09	1.810695e+01	3.543103e+02
1.890000e-06	2.579920e-06	5.171891e-09	1.794687e+01	3.529581e+02
1.900000e-06	2.555853e-06	5.420208e-09	1.777944e+01	3.515228e+02
1.910000e-06	2.531033e-06	5.410996e-09	1.760679e+01	3.500338e+02
1.920000e-06	2.505470e-06	5.204085e-09	1.742897e+01	3.485125e+02
1.930000e-06	2.478948e-06	5.288506e-09	1.724447e+01	3.469660e+02
1.940000e-06	2.451743e-06	5.270689e-09	1.705522e+01	3.453846e+02
1.950000e-06	2.423776e-06	5.204175e-09	1.686067e+01	3.437471e+02
1.960000e-06	2.394595e-06	5.221664e-09	1.665767e+01	3.420289e+02
1.970000e-06	2.364326e-06	5.120426e-09	1.644712e+01	3.402120e+02
1.980000e-06	2.333258e-06	5.128697e-09	1.623100e+01	3.382917e+02
1.990000e-06	2.301515e-06	5.176312e-09	1.601018e+01	3.362787e+02
2.000000e-06	2.269073e-06	5.031136e-09	1.578450e+01	3.341953e+02
2.010000e-06	2.235733e-06	5.046838e-09	1.555257e+01	3.320673e+02
2.020000e-06	2.201691e-06	5.052198e-09	1.531577e+01	3.299146e+02
2.030000e-06	2.167136e-06	4.906442e-09	1.507539e+01	3.277443e+02
2.040000e-06	2.131886e-06	4.974322e-09	1.483018e+01	3.255482e+02
2.050000e-06	2.095916e-06	4.961278e-09	1.457996e+01	3.233060e+02
2.060000e-06	2.059114e-06	4.815763e-09	1.432395e+01	3.209925e+02
2.070000e-06	2.021136e-06	4.852151e-09	1.405976e+01	3.185862e+02
2.080000e-06	1.982224e-06	4.831669e-09	1.378907e+01	3.160762e+02
2.090000e-06	1.942786e-06	4.740643e-09	1.351473e+01	3.134654e+02
2.100000e-06	1.902760e-06	4.724977e-09	1.323630e+01	3.107680e+02
2.110000e-06	1.862075e-06	4.664278e-09	1.295327e+01	3.080039e+02
2.120000e-06	1.820773e-06	4.640460e-09	1.266596e+01	3.051903e+02
2.130000e-06	1.778913e-06	4.613149e-09	1.237477e+01	3.023362e+02
2.140000e-06	1.736459e-06	4.533857e-09	1.207944e+01	2.994395e+02
2.150000e-06	1.693470e-06	4.506248e-09	1.178040e+01	2.964879e+02
2.160000e-06	1.650093e-06	4.456260e-09	1.147865e+01	2.934650e+02
2.170000e-06	1.606217e-06	4.415270e-09	1.117343e+01	2.903562e+02
2.180000e-06	1.561720e-06	4.378480e-09	1.086390e+01	2.871546e+02
2.190000e-06	1.516538e-06	4.307653e-09	1.054959e+01	2.838635e+02
2.200000e-06	1.470793e-06	4.260964e-09	1.023137e+01	2.804944e+02
2.210000e-06	1.424658e-06	4.218137e-09	9.910442e+00	2.770627e+02
2.220000e-06	1.378067e-06	4.166323e-09	9.586340e+00	2.735809e+02
2.230000e-06	1.330947e-06	4.108505e-09	9.258554e+00	2.700532e+02
2.240000e-06	1.283208e-06	4.043275e-09	8.926465e+00	2.664732e+02
2.250000e-06	1.234862e-06	4.006471e-09	8.590153e+00	2.628248e+02
2.260000e-06	1.186055e-06	3.953409e-09	8.250632e+00	2.590867e+02
2.270000e-06	1.136880e-06	3.874876e-09	7.908551e+00	2.552395e+02
2.280000e-06	1.087352e-06	3.821172e-09	7.564016e+00	2.512714e+02
2.290000e-06	1.037373e-06	3.762368e-09	7.216342e+00	2.471824e+02
2.300000e-06	9.869144e-07	3.706259e-09	6.865337e+00	2.429838e+02
2.310000e-06	9.361034e-07	3.642644e-09	6.511877e+00	2.386952e+02
2.320000e-06	8.850483e-07	3.566685e-09	6.156719e+00	2.343381e+02
2.330000e-06	8.337697e-07	3.503636e-09	5.800006e+00	2.299295e+02
2.340000e-06	7.821820e-07	3.434072e-09	5.441144e+00	2.254763e+02
2.350000e-06	7.301927e-07	3.367835e-09	5.079487e+00	2.209738e+02
2.360000e-06	6.778255e-07	3.297936e-09	4.715202e+00	2.164071e+02
2.370000e-06	6.251136e-07	3.224796e-09	4.348518e+00	2.117557e+02
2.380000e-06	5.719998e-07	3.160571e-09	3.979039e+00	2.069999e+02
2.390000e-06	5.185145e-07	3.087741e-09	3.606976e+00	2.021261e+02
2.400000e-06	4.647239e-07	3.009391e-09	3.232789e+00	1.971301e+02
2.410000e-06	4.106669e-07	2.932320e-09	2.856749e+00	1.920171e+02
2.420000e-06	3.563864e-07	2.853686e-09	2.479154e+00	1.867980e+02
2.430000e-06	3.019081e-07	2.775631e-09	2.100183e+00	1.814841e+02
2.440000e-06	2.472428e-07	2.689834e-09	1.719911e+00	1.760812e+02
2.450000e-06	1.924663e-07	2.601545e-09	1.338866e+00	1.705857e+02
2.460000e-06	1.376530e-07	2.521274e-09	9.575648e-01	1.649837e+02
2.470000e-06	8.281013e-08	2.439544e-09	5.760575e-01	1.592538e+02
2.480000e-06	2.792988e-08	2.353952e-09	1.942905e-01	1.533729e+02
2.490000e-06	-2.698254e-08	2.259773e-09	-1.877004e-01	1.473220e+02
2.500000e-06	-8.190738e-08	2.163404e-09	-5.697777e-01	1.410914e+02
2.510000e-06	-1.367992e-07	2.070099e-09	-9.516254e-01	1.346824e+02
2.520000e-06	-1.915877e-07	1.970531e-09	-1.332754e+00	1.281051e+02
2.530000e-06	-2.463156e-07	1.865995e-09	-1.713461e+00	1.213726e+02
2.540000e-06	-3.009472e-07	1.760897e-09	-2.093499e+00	1.144936e+02
2.550000e-06	-3.553592e-07	1.658864e-09	-2.472008e+00	1.074663e+02
2.560000e-06	-4.095946e-07	1.554074e-09	-2.849290e+00	1.002746e+02
2.570000e-06	-4.636715e-07	1.440704e-09	-3.225468e+00	9.288954e+01
2.580000e-06	-5.174256e-07	1.325660e-09	-3.599402e+00	8.527476e+01
2.590000e-06	-5.708117e-07	1.210941e-09	-3.970774e+00	7.739402e+01
2.600000e-06	-6.238660e-07	1.088678e-09	-4.339839e+00	6.921903e+01
2.610000e-06	-6.765059e-07	9.553728e-10	-4.706022e+00	6.073401e+01
2.620000e-06	-7.287420e-07	8.166636e-10	-5.069395e+00	5.193569e+01
2.630000e-06	-7.806598e-07	6.785303e-10	-5.430555e+00	4.282842e+01
2.640000e-06	-8.322417e-07	5.413735e-10	-5.789377e+00	3.341613e+01
2.650000e-06	-8.835386e-07	3.969444e-10	-6.146217e+00	2.369411e+01
2.660000e-06	-9.345908e-07	2.445125e-10	-6.501354e+00	1.364363e+01
2.670000e-06	-9.853202e-07	8.801976e-11	-6.854247e+00	3.231825e+00
2.680000e-06	-1.035639e-06	-7.314645e-11	-7.204283e+00	-7.582665e+00
2.690000e-06	-1.085550e-06	-2.447823e-10	-7.551484e+00	-1.883962e+01
2.700000e-06	-1.135092e-06	-4.281565e-10	-7.896116e+00	-3.056573e+01
2.710000e-06	-1.184249e-06	-6.171275e-10	-8.238068e+00	-4.276490e+01
2.720000e-06	-1.232843e-06	-8.082621e-10	-8.576108e+00	-5.541331e+01
2.730000e-06	-1.280711e-06	-1.003074e-09	-8.909094e+00	-6.846008e+01
2.740000e-06	-1.327796e-06	-1.206784e-09	-9.236631e+00	-8.183298e+01
2.750000e-06	-1.374195e-06	-1.416851e-09	-9.559400e+00	-9.544650e+01
2.760000e-06	-1.420138e-06	-1.625345e-09	-9.879001e+00	-1.092096e+02
2.770000e-06	-1.465773e-06	-1.832641e-09	-1.019645e+01	-1.230302e+02
2.780000e-06	-1.511104e-06	-2.046479e-09	-1.051179e+01	-1.368168e+02
2.790000e-06	-1.555945e-06	-2.264888e-09	-1.082372e+01	-1.504758e+02
2.800000e-06	-1.600193e-06	-2.475748e-09	-1.113153e+01	-1.639095e+02
2.810000e-06	-1.643883e-06	-2.674320e-09	-1.143545e+01	-1.770150e+02
2.820000e-06	-1.687149e-06	-2.866306e-09	-1.173642e+01	-1.896883e+02
2.830000e-06	-1.730051e-06	-3.052678e-09	-1.203487e+01	-2.018311e+02
2.840000e-06	-1.772429e-06	-3.227735e-09	-1.232966e+01	-2.133611e+02
2.850000e-06	-1.814179e-06	-3.390239e-09	-1.262009e+01	-2.242212e+02
2.860000e-06	-1.855352e-06	-3.544566e-09	-1.290651e+01	-2.343857e+02
2.870000e-06	-1.895895e-06	-3.695040e-09	-1.318854e+01	-2.438602e+02
2.880000e-06	-1.935783e-06	-3.836967e-09	-1.346601e+01	-2.526755e+02
2.890000e-06	-1.975148e-06	-3.965149e-09	-1.373985e+01	-2.608775e+02
2.900000e-06	-2.013931e-06	-4.083308e-09	-1.400964e+01	-2.685157e+02
2.910000e-06	-2.051848e-06	-4.194517e-09	-1.427340e+01	-2.756343e+02
2.920000e-06	-2.088658e-06	-4.295640e-09	-1.452947e+01	-2.822683e+02
2.930000e-06	-2.124528e-06	-4.386378e-09	-1.477899e+01	-2.884447e+02
2.940000e-06	-2.159819e-06	-4.473755e-09	-1.502449e+01	-2.941877e+02
