# Temperatura_=_23.7
# Concentracion g/m^3_=_13400.0
# C_Vs_to_Am_M_A/Vsm_=_65563218390.804596
# pendiente_HvsI_1/m_=_3716.3
# ordenada_HvsI_A/m_=_1297.0
# frecuencia_Hz_=_300839.0837373627

Tiempo_(s)	Campo_(V.s)	Magnetizacion_(V.s)	Campo_(kA/m)	Magnetizacion_(A/m)
0.000000e+00	-2.850485e-06	-5.640347e-09	-1.980224e+01	-3.687942e+02
1.000000e-08	-2.849990e-06	-5.639493e-09	-1.979880e+01	-3.686542e+02
2.000000e-08	-2.848744e-06	-5.641419e-09	-1.979014e+01	-3.684367e+02
3.000000e-08	-2.846448e-06	-5.638912e-09	-1.977419e+01	-3.681746e+02
4.000000e-08	-2.842846e-06	-5.636065e-09	-1.974917e+01	-3.678922e+02
5.000000e-08	-2.838256e-06	-5.631453e-09	-1.971728e+01	-3.675954e+02
6.000000e-08	-2.832912e-06	-5.617347e-09	-1.968016e+01	-3.672686e+02
7.000000e-08	-2.826683e-06	-5.579612e-09	-1.963689e+01	-3.668812e+02
8.000000e-08	-2.819478e-06	-5.572639e-09	-1.958683e+01	-3.664006e+02
9.000000e-08	-2.811191e-06	-5.675393e-09	-1.952926e+01	-3.658069e+02
1.000000e-07	-2.801676e-06	-5.757756e-09	-1.946316e+01	-3.651034e+02
1.100000e-07	-2.790737e-06	-5.557258e-09	-1.938717e+01	-3.643189e+02
1.200000e-07	-2.778735e-06	-5.335817e-09	-1.930379e+01	-3.634992e+02
1.300000e-07	-2.766037e-06	-5.545758e-09	-1.921558e+01	-3.626924e+02
1.400000e-07	-2.752321e-06	-5.777134e-09	-1.912030e+01	-3.619306e+02
1.500000e-07	-2.737649e-06	-5.443635e-09	-1.901837e+01	-3.612178e+02
1.600000e-07	-2.722091e-06	-5.347166e-09	-1.891029e+01	-3.605258e+02
1.700000e-07	-2.705085e-06	-5.719573e-09	-1.879215e+01	-3.598022e+02
1.800000e-07	-2.686769e-06	-5.566799e-09	-1.866491e+01	-3.589858e+02
1.900000e-07	-2.667844e-06	-5.281884e-09	-1.853344e+01	-3.580265e+02
2.000000e-07	-2.648184e-06	-5.531137e-09	-1.839686e+01	-3.569001e+02
2.100000e-07	-2.627541e-06	-5.527140e-09	-1.825345e+01	-3.556154e+02
2.200000e-07	-2.606162e-06	-5.218052e-09	-1.810494e+01	-3.542096e+02
2.300000e-07	-2.584012e-06	-5.433650e-09	-1.795106e+01	-3.527349e+02
2.400000e-07	-2.560847e-06	-5.571485e-09	-1.779013e+01	-3.512412e+02
2.500000e-07	-2.536776e-06	-5.281074e-09	-1.762291e+01	-3.497603e+02
2.600000e-07	-2.511976e-06	-5.262246e-09	-1.745062e+01	-3.482976e+02
2.700000e-07	-2.486331e-06	-5.374600e-09	-1.727247e+01	-3.468335e+02
2.800000e-07	-2.459632e-06	-5.262315e-09	-1.708699e+01	-3.453326e+02
2.900000e-07	-2.431803e-06	-5.245452e-09	-1.689367e+01	-3.437581e+02
3.000000e-07	-2.403006e-06	-5.225948e-09	-1.669361e+01	-3.420839e+02
3.100000e-07	-2.373405e-06	-5.193180e-09	-1.648797e+01	-3.403032e+02
3.200000e-07	-2.343072e-06	-5.260554e-09	-1.627726e+01	-3.384275e+02
3.300000e-07	-2.312032e-06	-5.142868e-09	-1.606162e+01	-3.364807e+02
3.400000e-07	-2.280158e-06	-5.046524e-09	-1.584019e+01	-3.344886e+02
3.500000e-07	-2.247583e-06	-5.118589e-09	-1.561390e+01	-3.324693e+02
3.600000e-07	-2.214469e-06	-5.045635e-09	-1.538385e+01	-3.304274e+02
3.700000e-07	-2.180559e-06	-4.986936e-09	-1.514828e+01	-3.283544e+02
3.800000e-07	-2.145438e-06	-5.060983e-09	-1.490430e+01	-3.262333e+02
3.900000e-07	-2.109240e-06	-4.941116e-09	-1.465283e+01	-3.240465e+02
4.000000e-07	-2.072454e-06	-4.865310e-09	-1.439728e+01	-3.217818e+02
4.100000e-07	-2.035061e-06	-4.944268e-09	-1.413751e+01	-3.194369e+02
4.200000e-07	-1.996948e-06	-4.870828e-09	-1.387274e+01	-3.170179e+02
4.300000e-07	-1.958077e-06	-4.760138e-09	-1.360270e+01	-3.145359e+02
4.400000e-07	-1.918391e-06	-4.773623e-09	-1.332700e+01	-3.120015e+02
4.500000e-07	-1.878077e-06	-4.757209e-09	-1.304695e+01	-3.094201e+02
4.600000e-07	-1.837400e-06	-4.691626e-09	-1.276436e+01	-3.067903e+02
4.700000e-07	-1.796374e-06	-4.650299e-09	-1.247936e+01	-3.041047e+02
4.800000e-07	-1.754634e-06	-4.595474e-09	-1.218939e+01	-3.013535e+02
4.900000e-07	-1.711807e-06	-4.559375e-09	-1.189187e+01	-2.985281e+02
5.000000e-07	-1.668008e-06	-4.532401e-09	-1.158761e+01	-2.956239e+02
5.100000e-07	-1.623608e-06	-4.476206e-09	-1.127916e+01	-2.926411e+02
5.200000e-07	-1.578814e-06	-4.412567e-09	-1.096798e+01	-2.895835e+02
5.300000e-07	-1.533661e-06	-4.376956e-09	-1.065430e+01	-2.864556e+02
5.400000e-07	-1.487997e-06	-4.337635e-09	-1.033707e+01	-2.832608e+02
5.500000e-07	-1.441714e-06	-4.284941e-09	-1.001555e+01	-2.799992e+02
5.600000e-07	-1.394913e-06	-4.226854e-09	-9.690422e+00	-2.766676e+02
5.700000e-07	-1.347600e-06	-4.159148e-09	-9.361737e+00	-2.732606e+02
5.800000e-07	-1.299732e-06	-4.118069e-09	-9.029203e+00	-2.697717e+02
5.900000e-07	-1.251467e-06	-4.077270e-09	-8.693907e+00	-2.661950e+02
6.000000e-07	-1.202943e-06	-4.005601e-09	-8.356808e+00	-2.625258e+02
6.100000e-07	-1.154128e-06	-3.937870e-09	-8.017694e+00	-2.587606e+02
6.200000e-07	-1.104862e-06	-3.893243e-09	-7.675446e+00	-2.548974e+02
6.300000e-07	-1.055032e-06	-3.838734e-09	-7.329275e+00	-2.509360e+02
6.400000e-07	-1.004505e-06	-3.767838e-09	-6.978268e+00	-2.468782e+02
6.500000e-07	-9.533205e-07	-3.694757e-09	-6.622690e+00	-2.427286e+02
6.600000e-07	-9.016446e-07	-3.629428e-09	-6.263699e+00	-2.384942e+02
6.700000e-07	-8.495395e-07	-3.575398e-09	-5.901727e+00	-2.341832e+02
6.800000e-07	-7.971298e-07	-3.511391e-09	-5.537638e+00	-2.298028e+02
6.900000e-07	-7.444684e-07	-3.434479e-09	-5.171801e+00	-2.253563e+02
7.000000e-07	-6.915448e-07	-3.359512e-09	-4.804142e+00	-2.208408e+02
7.100000e-07	-6.384233e-07	-3.294830e-09	-4.435109e+00	-2.162468e+02
7.200000e-07	-5.851305e-07	-3.225247e-09	-4.064885e+00	-2.115597e+02
7.300000e-07	-5.316161e-07	-3.145700e-09	-3.693122e+00	-2.067630e+02
7.400000e-07	-4.778714e-07	-3.066712e-09	-3.319759e+00	-2.018431e+02
7.500000e-07	-4.238949e-07	-2.992274e-09	-2.944786e+00	-1.967927e+02
7.600000e-07	-3.697224e-07	-2.918155e-09	-2.568451e+00	-1.916125e+02
7.700000e-07	-3.154047e-07	-2.833206e-09	-2.191107e+00	-1.863094e+02
7.800000e-07	-2.610148e-07	-2.742315e-09	-1.813262e+00	-1.808927e+02
7.900000e-07	-2.065638e-07	-2.655987e-09	-1.434993e+00	-1.753691e+02
8.000000e-07	-1.520515e-07	-2.577002e-09	-1.056297e+00	-1.697386e+02
8.100000e-07	-9.751926e-08	-2.492814e-09	-6.774635e-01	-1.639929e+02
8.200000e-07	-4.294769e-08	-2.399497e-09	-2.983564e-01	-1.581175e+02
8.300000e-07	1.163883e-08	-2.302676e-09	8.085462e-02	-1.520959e+02
8.400000e-07	6.622103e-08	-2.205419e-09	4.600356e-01	-1.459146e+02
8.500000e-07	1.207572e-07	-2.109313e-09	8.388966e-01	-1.395670e+02
8.600000e-07	1.752464e-07	-2.008231e-09	1.217432e+00	-1.330537e+02
8.700000e-07	2.296662e-07	-1.902402e-09	1.595485e+00	-1.263797e+02
8.800000e-07	2.840325e-07	-1.798433e-09	1.973166e+00	-1.195482e+02
8.900000e-07	3.383355e-07	-1.697592e-09	2.350407e+00	-1.125553e+02
9.000000e-07	3.925040e-07	-1.586801e-09	2.726714e+00	-1.053857e+02
9.100000e-07	4.465153e-07	-1.465653e-09	3.101929e+00	-9.801369e+01
9.200000e-07	5.003132e-07	-1.344125e-09	3.475661e+00	-9.040667e+01
9.300000e-07	5.538756e-07	-1.224180e-09	3.847758e+00	-8.253248e+01
9.400000e-07	6.071703e-07	-1.101698e-09	4.217995e+00	-7.436591e+01
9.500000e-07	6.602418e-07	-9.727311e-10	4.586681e+00	-6.589258e+01
9.600000e-07	7.130979e-07	-8.382369e-10	4.953871e+00	-5.710827e+01
9.700000e-07	7.657566e-07	-6.992452e-10	5.319689e+00	-4.801384e+01
9.800000e-07	8.182665e-07	-5.565510e-10	5.684474e+00	-3.860757e+01
9.900000e-07	8.704507e-07	-4.057750e-10	6.046996e+00	-2.887801e+01
1.000000e-06	9.222031e-07	-2.467750e-10	6.406519e+00	-1.880028e+01
1.010000e-06	9.734583e-07	-8.373780e-11	6.762587e+00	-8.337510e+00
1.020000e-06	1.024037e-06	8.041516e-11	7.113955e+00	2.552557e+00
1.030000e-06	1.073917e-06	2.501026e-10	7.460472e+00	1.390785e+01
1.040000e-06	1.123211e-06	4.320687e-10	7.802915e+00	2.575210e+01
1.050000e-06	1.172120e-06	6.247060e-10	8.142684e+00	3.808778e+01
1.060000e-06	1.220821e-06	8.217089e-10	8.481005e+00	5.089335e+01
1.070000e-06	1.269238e-06	1.022212e-09	8.817362e+00	6.412497e+01
1.080000e-06	1.317260e-06	1.230608e-09	9.150971e+00	7.772089e+01
1.090000e-06	1.364818e-06	1.444456e-09	9.481355e+00	9.160614e+01
1.100000e-06	1.411857e-06	1.658591e-09	9.808129e+00	1.056956e+02
1.110000e-06	1.458391e-06	1.869998e-09	1.013140e+01	1.198947e+02
1.120000e-06	1.504382e-06	2.083049e-09	1.045090e+01	1.340986e+02
1.130000e-06	1.549802e-06	2.298657e-09	1.076643e+01	1.481921e+02
1.140000e-06	1.594775e-06	2.510727e-09	1.107886e+01	1.620519e+02
1.150000e-06	1.639461e-06	2.713996e-09	1.138929e+01	1.755529e+02
1.160000e-06	1.683722e-06	2.907357e-09	1.169677e+01	1.885776e+02
1.170000e-06	1.727287e-06	3.095567e-09	1.199942e+01	2.010272e+02
1.180000e-06	1.769974e-06	3.277120e-09	1.229596e+01	2.128302e+02
1.190000e-06	1.811698e-06	3.446277e-09	1.258582e+01	2.239465e+02
1.200000e-06	1.852669e-06	3.601911e-09	1.287044e+01	2.343657e+02
1.210000e-06	1.893197e-06	3.749890e-09	1.315199e+01	2.440998e+02
1.220000e-06	1.933175e-06	3.889775e-09	1.342971e+01	2.531739e+02
1.230000e-06	1.972446e-06	4.016246e-09	1.370252e+01	2.616167e+02
1.240000e-06	2.011060e-06	4.129759e-09	1.397078e+01	2.694559e+02
1.250000e-06	2.048960e-06	4.234958e-09	1.423407e+01	2.767179e+02
1.260000e-06	2.086175e-06	4.336634e-09	1.449260e+01	2.834319e+02
1.270000e-06	2.122881e-06	4.432735e-09	1.474759e+01	2.896351e+02
1.280000e-06	2.159011e-06	4.520129e-09	1.499859e+01	2.953758e+02
1.290000e-06	2.194215e-06	4.599526e-09	1.524315e+01	3.007121e+02
1.300000e-06	2.228297e-06	4.673112e-09	1.547992e+01	3.057060e+02
1.310000e-06	2.261466e-06	4.741596e-09	1.571034e+01	3.104132e+02
1.320000e-06	2.293991e-06	4.806243e-09	1.593629e+01	3.148741e+02
1.330000e-06	2.325832e-06	4.867930e-09	1.615749e+01	3.191086e+02
1.340000e-06	2.356893e-06	4.927039e-09	1.637327e+01	3.231166e+02
1.350000e-06	2.387126e-06	4.982990e-09	1.658330e+01	3.268852e+02
1.360000e-06	2.416525e-06	5.033659e-09	1.678753e+01	3.303998e+02
1.370000e-06	2.445278e-06	5.079635e-09	1.698727e+01	3.336546e+02
1.380000e-06	2.473390e-06	5.123356e-09	1.718257e+01	3.366599e+02
1.390000e-06	2.500443e-06	5.165985e-09	1.737050e+01	3.394417e+02
1.400000e-06	2.526192e-06	5.205044e-09	1.754938e+01	3.420357e+02
1.410000e-06	2.550954e-06	5.238418e-09	1.772140e+01	3.444771e+02
1.420000e-06	2.574892e-06	5.269152e-09	1.788770e+01	3.467909e+02
1.430000e-06	2.597933e-06	5.300986e-09	1.804777e+01	3.489865e+02
1.440000e-06	2.620100e-06	5.332477e-09	1.820176e+01	3.510588e+02
1.450000e-06	2.641430e-06	5.360274e-09	1.834994e+01	3.529946e+02
1.460000e-06	2.662041e-06	5.385804e-09	1.849312e+01	3.547827e+02
1.470000e-06	2.681871e-06	5.411860e-09	1.863088e+01	3.564217e+02
1.480000e-06	2.700625e-06	5.437253e-09	1.876117e+01	3.579241e+02
1.490000e-06	2.718386e-06	5.458164e-09	1.888455e+01	3.593130e+02
1.500000e-06	2.735239e-06	5.476004e-09	1.900163e+01	3.606145e+02
1.510000e-06	2.750958e-06	5.493620e-09	1.911083e+01	3.618479e+02
1.520000e-06	2.765628e-06	5.510278e-09	1.921274e+01	3.630182e+02
1.530000e-06	2.779317e-06	5.524357e-09	1.930783e+01	3.641148e+02
1.540000e-06	2.791960e-06	5.537133e-09	1.939566e+01	3.651166e+02
1.550000e-06	2.803449e-06	5.552324e-09	1.947548e+01	3.660015e+02
1.560000e-06	2.813602e-06	5.567453e-09	1.954602e+01	3.667572e+02
1.570000e-06	2.822624e-06	5.578068e-09	1.960868e+01	3.673876e+02
1.580000e-06	2.830810e-06	5.584348e-09	1.966556e+01	3.679134e+02
1.590000e-06	2.838102e-06	5.590348e-09	1.971621e+01	3.683648e+02
1.600000e-06	2.844369e-06	5.598432e-09	1.975975e+01	3.687706e+02
1.610000e-06	2.849712e-06	5.606374e-09	1.979687e+01	3.691474e+02
1.620000e-06	2.854286e-06	5.611074e-09	1.982864e+01	3.694928e+02
1.630000e-06	2.857815e-06	5.614466e-09	1.985316e+01	3.697870e+02
1.640000e-06	2.860040e-06	5.618530e-09	1.986862e+01	3.700011e+02
1.650000e-06	2.861196e-06	5.622615e-09	1.987664e+01	3.701090e+02
1.660000e-06	2.861463e-06	5.625680e-09	1.987850e+01	3.700991e+02
1.670000e-06	2.860836e-06	5.624882e-09	1.987414e+01	3.699795e+02
1.680000e-06	2.859383e-06	5.619742e-09	1.986405e+01	3.697756e+02
1.690000e-06	2.857017e-06	5.617569e-09	1.984761e+01	3.695203e+02
1.700000e-06	2.853818e-06	5.614955e-09	1.982539e+01	3.692408e+02
1.710000e-06	2.849778e-06	5.608012e-09	1.979732e+01	3.689474e+02
1.720000e-06	2.844559e-06	5.608672e-09	1.976107e+01	3.686290e+02
1.730000e-06	2.838204e-06	5.645299e-09	1.971692e+01	3.682573e+02
1.740000e-06	2.831030e-06	5.615556e-09	1.966709e+01	3.677988e+02
1.750000e-06	2.822910e-06	5.454812e-09	1.961068e+01	3.672297e+02
1.760000e-06	2.813225e-06	5.411869e-09	1.954339e+01	3.665478e+02
1.770000e-06	2.801942e-06	5.680044e-09	1.946501e+01	3.657769e+02
1.780000e-06	2.790108e-06	5.746974e-09	1.938280e+01	3.649603e+02
1.790000e-06	2.778310e-06	5.416455e-09	1.930084e+01	3.641470e+02
1.800000e-06	2.765287e-06	5.357042e-09	1.921037e+01	3.633739e+02
1.810000e-06	2.750376e-06	5.696802e-09	1.910679e+01	3.626517e+02
1.820000e-06	2.734746e-06	5.547851e-09	1.899820e+01	3.619588e+02
1.830000e-06	2.718641e-06	5.218272e-09	1.888632e+01	3.612469e+02
1.840000e-06	2.701143e-06	5.569178e-09	1.876477e+01	3.604550e+02
1.850000e-06	2.682447e-06	5.693360e-09	1.863488e+01	3.595292e+02
1.860000e-06	2.663297e-06	5.258821e-09	1.850185e+01	3.584387e+02
1.870000e-06	2.643199e-06	5.417858e-09	1.836223e+01	3.571854e+02
1.880000e-06	2.621733e-06	5.671590e-09	1.821310e+01	3.558011e+02
1.890000e-06	2.599327e-06	5.225332e-09	1.805745e+01	3.543365e+02
1.900000e-06	2.575928e-06	5.201197e-09	1.789490e+01	3.528431e+02
1.910000e-06	2.551530e-06	5.510863e-09	1.772541e+01	3.513578e+02
1.920000e-06	2.526525e-06	5.326835e-09	1.755170e+01	3.498919e+02
1.930000e-06	2.500704e-06	5.235177e-09	1.737232e+01	3.484304e+02
1.940000e-06	2.473988e-06	5.337708e-09	1.718672e+01	3.469405e+02
1.950000e-06	2.446674e-06	5.216978e-09	1.699698e+01	3.453842e+02
1.960000e-06	2.418307e-06	5.253300e-09	1.679991e+01	3.437325e+02
1.970000e-06	2.388558e-06	5.213604e-09	1.659324e+01	3.419739e+02
1.980000e-06	2.357932e-06	5.048513e-09	1.638049e+01	3.401166e+02
1.990000e-06	2.326598e-06	5.218976e-09	1.616281e+01	3.381825e+02
2.000000e-06	2.294530e-06	5.179040e-09	1.594004e+01	3.361980e+02
2.010000e-06	2.261765e-06	4.982882e-09	1.571242e+01	3.341834e+02
2.020000e-06	2.228170e-06	5.120347e-09	1.547903e+01	3.321464e+02
2.030000e-06	2.193860e-06	5.033482e-09	1.524068e+01	3.300810e+02
2.040000e-06	2.158987e-06	4.885381e-09	1.499842e+01	3.279716e+02
2.050000e-06	2.123416e-06	5.042097e-09	1.475131e+01	3.257999e+02
2.060000e-06	2.087056e-06	4.939318e-09	1.449872e+01	3.235523e+02
2.070000e-06	2.049694e-06	4.800441e-09	1.423916e+01	3.212240e+02
2.080000e-06	2.011254e-06	4.888976e-09	1.397213e+01	3.188198e+02
2.090000e-06	1.972167e-06	4.831329e-09	1.370059e+01	3.163501e+02
2.100000e-06	1.932605e-06	4.756426e-09	1.342575e+01	3.138260e+02
2.110000e-06	1.892384e-06	4.730125e-09	1.314634e+01	3.112544e+02
2.120000e-06	1.851453e-06	4.674842e-09	1.286199e+01	3.086351e+02
2.130000e-06	1.809936e-06	4.677920e-09	1.257358e+01	3.059621e+02
2.140000e-06	1.767858e-06	4.629305e-09	1.228126e+01	3.032255e+02
2.150000e-06	1.725216e-06	4.554425e-09	1.198503e+01	3.004163e+02
2.160000e-06	1.682135e-06	4.529066e-09	1.168575e+01	2.975289e+02
2.170000e-06	1.638597e-06	4.490786e-09	1.138329e+01	2.945625e+02
2.180000e-06	1.594405e-06	4.449900e-09	1.107629e+01	2.915202e+02
2.190000e-06	1.549554e-06	4.393266e-09	1.076471e+01	2.884068e+02
2.200000e-06	1.504150e-06	4.337275e-09	1.044929e+01	2.852260e+02
2.210000e-06	1.458284e-06	4.298745e-09	1.013066e+01	2.819786e+02
2.220000e-06	1.411992e-06	4.252434e-09	9.809070e+00	2.786622e+02
2.230000e-06	1.365149e-06	4.218039e-09	9.483648e+00	2.752716e+02
2.240000e-06	1.317731e-06	4.144424e-09	9.154237e+00	2.718005e+02
2.250000e-06	1.269759e-06	4.078535e-09	8.820982e+00	2.682429e+02
2.260000e-06	1.221250e-06	4.054448e-09	8.483991e+00	2.645936e+02
2.270000e-06	1.172357e-06	3.984528e-09	8.144328e+00	2.608489e+02
2.280000e-06	1.123110e-06	3.912534e-09	7.802215e+00	2.570066e+02
2.290000e-06	1.073422e-06	3.860300e-09	7.457032e+00	2.530659e+02
2.300000e-06	1.023222e-06	3.804746e-09	7.108297e+00	2.490282e+02
2.310000e-06	9.725993e-07	3.756827e-09	6.756620e+00	2.448975e+02
2.320000e-06	9.217059e-07	3.685610e-09	6.403064e+00	2.406804e+02
2.330000e-06	8.705684e-07	3.607163e-09	6.047814e+00	2.363849e+02
2.340000e-06	8.191222e-07	3.542914e-09	5.690419e+00	2.320187e+02
2.350000e-06	7.672696e-07	3.476596e-09	5.330200e+00	2.275861e+02
2.360000e-06	7.149444e-07	3.412739e-09	4.966698e+00	2.230857e+02
2.370000e-06	6.622133e-07	3.339889e-09	4.600377e+00	2.185094e+02
2.380000e-06	6.090722e-07	3.270718e-09	4.231207e+00	2.138434e+02
2.390000e-06	5.555568e-07	3.208276e-09	3.859437e+00	2.090713e+02
2.400000e-06	5.016767e-07	3.132148e-09	3.485134e+00	2.041784e+02
2.410000e-06	4.475292e-07	3.051827e-09	3.108972e+00	1.991560e+02
2.420000e-06	3.932759e-07	2.967728e-09	2.732076e+00	1.940029e+02
2.430000e-06	3.388242e-07	2.889760e-09	2.353802e+00	1.887251e+02
2.440000e-06	2.842040e-07	2.815432e-09	1.974357e+00	1.833318e+02
2.450000e-06	2.294666e-07	2.727841e-09	1.594098e+00	1.778306e+02
2.460000e-06	1.746723e-07	2.638255e-09	1.213444e+00	1.722232e+02
2.470000e-06	1.198893e-07	2.553619e-09	8.328675e-01	1.665030e+02
2.480000e-06	6.510689e-08	2.472928e-09	4.522957e-01	1.606566e+02
2.490000e-06	1.027645e-08	2.386542e-09	7.139021e-02	1.546674e+02
2.500000e-06	-4.459303e-08	2.286910e-09	-3.097865e-01	1.485208e+02
2.510000e-06	-9.944500e-08	2.187396e-09	-6.908416e-01	1.422088e+02
2.520000e-06	-1.542550e-07	2.094523e-09	-1.071605e+00	1.357305e+02
2.530000e-06	-2.090156e-07	1.996268e-09	-1.452025e+00	1.290902e+02
2.540000e-06	-2.637307e-07	1.887474e-09	-1.832130e+00	1.222923e+02
2.550000e-06	-3.183322e-07	1.776438e-09	-2.211445e+00	1.153346e+02
2.560000e-06	-3.728080e-07	1.673292e-09	-2.589886e+00	1.082045e+02
2.570000e-06	-4.271480e-07	1.571767e-09	-2.967385e+00	1.008782e+02
2.580000e-06	-4.813510e-07	1.457687e-09	-3.343932e+00	9.332409e+01
2.590000e-06	-5.353243e-07	1.334503e-09	-3.718883e+00	8.550936e+01
2.600000e-06	-5.889644e-07	1.208628e-09	-4.091519e+00	7.740681e+01
2.610000e-06	-6.421682e-07	1.082937e-09	-4.461124e+00	6.899962e+01
2.620000e-06	-6.948878e-07	9.512242e-10	-4.827366e+00	6.028170e+01
2.630000e-06	-7.472104e-07	8.084131e-10	-5.190850e+00	5.125342e+01
2.640000e-06	-7.991093e-07	6.651079e-10	-5.551389e+00	4.191428e+01
2.650000e-06	-8.505918e-07	5.265001e-10	-5.909037e+00	3.225538e+01
2.660000e-06	-9.017528e-07	3.818604e-10	-6.264451e+00	2.225478e+01
2.670000e-06	-9.526886e-07	2.221976e-10	-6.618301e+00	1.187779e+01
2.680000e-06	-1.003356e-06	5.320392e-11	-6.970284e+00	1.082546e+00
2.690000e-06	-1.053645e-06	-1.161938e-10	-7.319643e+00	-1.017068e+01
2.700000e-06	-1.103479e-06	-2.900391e-10	-7.665835e+00	-2.190939e+01
2.710000e-06	-1.152883e-06	-4.775548e-10	-8.009043e+00	-3.414100e+01
2.720000e-06	-1.201917e-06	-6.760318e-10	-8.349681e+00	-4.684910e+01
2.730000e-06	-1.250488e-06	-8.775685e-10	-8.687101e+00	-5.999433e+01
2.740000e-06	-1.298416e-06	-1.078968e-09	-9.020060e+00	-7.351835e+01
2.750000e-06	-1.345483e-06	-1.286912e-09	-9.347031e+00	-8.734868e+01
2.760000e-06	-1.391822e-06	-1.504190e-09	-9.668951e+00	-1.014022e+02
2.770000e-06	-1.437689e-06	-1.722768e-09	-9.987586e+00	-1.155865e+02
2.780000e-06	-1.483176e-06	-1.939556e-09	-1.030358e+01	-1.297990e+02
2.790000e-06	-1.528358e-06	-2.154924e-09	-1.061746e+01	-1.439266e+02
2.800000e-06	-1.573099e-06	-2.370094e-09	-1.092827e+01	-1.578473e+02
2.810000e-06	-1.617204e-06	-2.582188e-09	-1.123467e+01	-1.714357e+02
2.820000e-06	-1.660720e-06	-2.785428e-09	-1.153697e+01	-1.845719e+02
2.830000e-06	-1.703853e-06	-2.976439e-09	-1.183662e+01	-1.971520e+02
2.840000e-06	-1.746590e-06	-3.156438e-09	-1.213351e+01	-2.090982e+02
2.850000e-06	-1.788780e-06	-3.328737e-09	-1.242660e+01	-2.203637e+02
2.860000e-06	-1.830372e-06	-3.492375e-09	-1.271554e+01	-2.309321e+02
2.870000e-06	-1.871417e-06	-3.644081e-09	-1.300068e+01	-2.408115e+02
2.880000e-06	-1.911800e-06	-3.785841e-09	-1.328122e+01	-2.500249e+02
2.890000e-06	-1.951454e-06	-3.921268e-09	-1.355669e+01	-2.586008e+02
2.900000e-06	-1.990614e-06	-4.049144e-09	-1.382874e+01	-2.665673e+02
2.910000e-06	-2.029263e-06	-4.165523e-09	-1.409723e+01	-2.739510e+02
2.920000e-06	-2.067055e-06	-4.267304e-09	-1.435977e+01	-2.807799e+02
2.930000e-06	-2.103767e-06	-4.358637e-09	-1.461481e+01	-2.870891e+02
2.940000e-06	-2.139527e-06	-4.448164e-09	-1.486323e+01	-2.929245e+02
