# Temperatura_=_29.94
# Concentracion g/m^3_=_13400.0
# C_Vs_to_Am_M_A/Vsm_=_65563218390.804596
# pendiente_HvsI_1/m_=_3716.3
# ordenada_HvsI_A/m_=_1297.0
# frecuencia_Hz_=_300846.8773342008

Tiempo_(s)	Campo_(V.s)	Magnetizacion_(V.s)	Campo_(kA/m)	Magnetizacion_(A/m)
0.000000e+00	-2.853217e-06	-5.750892e-09	-1.980271e+01	-3.759831e+02
1.000000e-08	-2.852249e-06	-5.750753e-09	-1.979598e+01	-3.759048e+02
2.000000e-08	-2.850262e-06	-5.749110e-09	-1.978220e+01	-3.757568e+02
3.000000e-08	-2.847037e-06	-5.744882e-09	-1.975981e+01	-3.755248e+02
4.000000e-08	-2.842819e-06	-5.739797e-09	-1.973054e+01	-3.752016e+02
5.000000e-08	-2.837796e-06	-5.731275e-09	-1.969568e+01	-3.747900e+02
6.000000e-08	-2.831902e-06	-5.715322e-09	-1.965477e+01	-3.743025e+02
7.000000e-08	-2.825069e-06	-5.697392e-09	-1.960734e+01	-3.737569e+02
8.000000e-08	-2.817205e-06	-5.726166e-09	-1.955276e+01	-3.731701e+02
9.000000e-08	-2.808123e-06	-5.778481e-09	-1.948973e+01	-3.725529e+02
1.000000e-07	-2.797574e-06	-5.743344e-09	-1.941652e+01	-3.719064e+02
1.100000e-07	-2.785825e-06	-5.582846e-09	-1.933497e+01	-3.712226e+02
1.200000e-07	-2.773319e-06	-5.592309e-09	-1.924818e+01	-3.704885e+02
1.300000e-07	-2.759945e-06	-5.749737e-09	-1.915535e+01	-3.696913e+02
1.400000e-07	-2.745545e-06	-5.699937e-09	-1.905541e+01	-3.688240e+02
1.500000e-07	-2.730172e-06	-5.514239e-09	-1.894871e+01	-3.678883e+02
1.600000e-07	-2.713518e-06	-5.636792e-09	-1.883313e+01	-3.668939e+02
1.700000e-07	-2.695561e-06	-5.740644e-09	-1.870850e+01	-3.658549e+02
1.800000e-07	-2.676868e-06	-5.510345e-09	-1.857876e+01	-3.647840e+02
1.900000e-07	-2.657519e-06	-5.526703e-09	-1.844447e+01	-3.636874e+02
2.000000e-07	-2.637217e-06	-5.652629e-09	-1.830356e+01	-3.625617e+02
2.100000e-07	-2.616053e-06	-5.478045e-09	-1.815667e+01	-3.613945e+02
2.200000e-07	-2.594149e-06	-5.437966e-09	-1.800465e+01	-3.601680e+02
2.300000e-07	-2.571286e-06	-5.620798e-09	-1.784597e+01	-3.588649e+02
2.400000e-07	-2.547457e-06	-5.505070e-09	-1.768058e+01	-3.574741e+02
2.500000e-07	-2.522912e-06	-5.373765e-09	-1.751023e+01	-3.559941e+02
2.600000e-07	-2.497499e-06	-5.458955e-09	-1.733385e+01	-3.544330e+02
2.700000e-07	-2.471002e-06	-5.436324e-09	-1.714995e+01	-3.528054e+02
2.800000e-07	-2.443419e-06	-5.333917e-09	-1.695851e+01	-3.511269e+02
2.900000e-07	-2.414859e-06	-5.346868e-09	-1.676029e+01	-3.494086e+02
3.000000e-07	-2.385509e-06	-5.331048e-09	-1.655658e+01	-3.476536e+02
3.100000e-07	-2.355476e-06	-5.312495e-09	-1.634814e+01	-3.458563e+02
3.200000e-07	-2.324708e-06	-5.307221e-09	-1.613460e+01	-3.440058e+02
3.300000e-07	-2.293110e-06	-5.218527e-09	-1.591529e+01	-3.420899e+02
3.400000e-07	-2.260842e-06	-5.204230e-09	-1.569134e+01	-3.401010e+02
3.500000e-07	-2.227999e-06	-5.187016e-09	-1.546339e+01	-3.380384e+02
3.600000e-07	-2.194341e-06	-5.133759e-09	-1.522979e+01	-3.359091e+02
3.700000e-07	-2.159545e-06	-5.128554e-09	-1.498829e+01	-3.337245e+02
3.800000e-07	-2.123678e-06	-5.084809e-09	-1.473935e+01	-3.314958e+02
3.900000e-07	-2.087118e-06	-5.008648e-09	-1.448561e+01	-3.292289e+02
4.000000e-07	-2.049963e-06	-5.022458e-09	-1.422773e+01	-3.269216e+02
4.100000e-07	-2.012063e-06	-5.001169e-09	-1.396469e+01	-3.245634e+02
4.200000e-07	-1.973426e-06	-4.911390e-09	-1.369653e+01	-3.221391e+02
4.300000e-07	-1.934051e-06	-4.883852e-09	-1.342325e+01	-3.196337e+02
4.400000e-07	-1.894009e-06	-4.863432e-09	-1.314534e+01	-3.170377e+02
4.500000e-07	-1.853545e-06	-4.816938e-09	-1.286450e+01	-3.143503e+02
4.600000e-07	-1.812720e-06	-4.765078e-09	-1.258115e+01	-3.115796e+02
4.700000e-07	-1.771177e-06	-4.723170e-09	-1.229282e+01	-3.087392e+02
4.800000e-07	-1.728585e-06	-4.677001e-09	-1.199722e+01	-3.058431e+02
4.900000e-07	-1.685021e-06	-4.639076e-09	-1.169486e+01	-3.029005e+02
5.000000e-07	-1.640806e-06	-4.596954e-09	-1.138798e+01	-2.999121e+02
5.100000e-07	-1.596216e-06	-4.540005e-09	-1.107851e+01	-2.968701e+02
5.200000e-07	-1.551191e-06	-4.487484e-09	-1.076602e+01	-2.937612e+02
5.300000e-07	-1.505599e-06	-4.446038e-09	-1.044958e+01	-2.905717e+02
5.400000e-07	-1.459417e-06	-4.407550e-09	-1.012906e+01	-2.872925e+02
5.500000e-07	-1.412698e-06	-4.347402e-09	-9.804805e+00	-2.839221e+02
5.600000e-07	-1.365547e-06	-4.283802e-09	-9.477553e+00	-2.804664e+02
5.700000e-07	-1.317913e-06	-4.228613e-09	-9.146954e+00	-2.769358e+02
5.800000e-07	-1.269803e-06	-4.186404e-09	-8.813045e+00	-2.733396e+02
5.900000e-07	-1.221369e-06	-4.127798e-09	-8.476889e+00	-2.696813e+02
6.000000e-07	-1.172607e-06	-4.059617e-09	-8.138457e+00	-2.659562e+02
6.100000e-07	-1.123383e-06	-4.004193e-09	-7.796820e+00	-2.621525e+02
6.200000e-07	-1.073508e-06	-3.950903e-09	-7.450664e+00	-2.582552e+02
6.300000e-07	-1.022902e-06	-3.890383e-09	-7.099431e+00	-2.542525e+02
6.400000e-07	-9.716558e-07	-3.816049e-09	-6.743761e+00	-2.501410e+02
6.500000e-07	-9.199300e-07	-3.745422e-09	-6.384758e+00	-2.459279e+02
6.600000e-07	-8.678450e-07	-3.682910e-09	-6.023264e+00	-2.416296e+02
6.700000e-07	-8.154751e-07	-3.626012e-09	-5.659791e+00	-2.372659e+02
6.800000e-07	-7.628721e-07	-3.559214e-09	-5.294701e+00	-2.328524e+02
6.900000e-07	-7.100152e-07	-3.485197e-09	-4.927849e+00	-2.283936e+02
7.000000e-07	-6.568768e-07	-3.415340e-09	-4.559042e+00	-2.238795e+02
7.100000e-07	-6.035142e-07	-3.348877e-09	-4.188680e+00	-2.192869e+02
7.200000e-07	-5.499492e-07	-3.275941e-09	-3.816913e+00	-2.145856e+02
7.300000e-07	-4.961344e-07	-3.193126e-09	-3.443413e+00	-2.097472e+02
7.400000e-07	-4.421164e-07	-3.114550e-09	-3.068502e+00	-2.047533e+02
7.500000e-07	-3.879488e-07	-3.039572e-09	-2.692552e+00	-1.996009e+02
7.600000e-07	-3.336739e-07	-2.963194e-09	-2.315858e+00	-1.943019e+02
7.700000e-07	-2.793456e-07	-2.877609e-09	-1.938794e+00	-1.888779e+02
7.800000e-07	-2.249388e-07	-2.788780e-09	-1.561184e+00	-1.833509e+02
7.900000e-07	-1.704974e-07	-2.702774e-09	-1.183335e+00	-1.777341e+02
8.000000e-07	-1.160522e-07	-2.615104e-09	-8.054586e-01	-1.720261e+02
8.100000e-07	-6.156301e-08	-2.522100e-09	-4.272770e-01	-1.662097e+02
8.200000e-07	-7.020156e-09	-2.427953e-09	-4.872328e-02	-1.602564e+02
8.300000e-07	4.753861e-08	-2.336524e-09	3.299409e-01	-1.541350e+02
8.400000e-07	1.020776e-07	-2.241474e-09	7.084680e-01	-1.478205e+02
8.500000e-07	1.565691e-07	-2.141555e-09	1.086665e+00	-1.413005e+02
8.600000e-07	2.109755e-07	-2.035354e-09	1.464272e+00	-1.345763e+02
8.700000e-07	2.653499e-07	-1.927623e-09	1.841657e+00	-1.276582e+02
8.800000e-07	3.196871e-07	-1.819828e-09	2.218783e+00	-1.205577e+02
8.900000e-07	3.739265e-07	-1.708046e-09	2.595231e+00	-1.132777e+02
9.000000e-07	4.280371e-07	-1.590270e-09	2.970784e+00	-1.058065e+02
9.100000e-07	4.819730e-07	-1.469869e-09	3.345126e+00	-9.811659e+01
9.200000e-07	5.357342e-07	-1.350540e-09	3.718254e+00	-9.016865e+01
9.300000e-07	5.893041e-07	-1.225556e-09	4.090055e+00	-8.192056e+01
9.400000e-07	6.426301e-07	-1.092797e-09	4.460163e+00	-7.333647e+01
9.500000e-07	6.956707e-07	-9.541862e-10	4.828291e+00	-6.439339e+01
9.600000e-07	7.484482e-07	-8.133945e-10	5.194592e+00	-5.508230e+01
9.700000e-07	8.009863e-07	-6.665693e-10	5.559232e+00	-4.540333e+01
9.800000e-07	8.533067e-07	-5.107001e-10	5.922361e+00	-3.535663e+01
9.900000e-07	9.053206e-07	-3.477070e-10	6.283363e+00	-2.493251e+01
1.000000e-06	9.568701e-07	-1.798948e-10	6.641141e+00	-1.410491e+01
1.010000e-06	1.007881e-06	-8.451495e-12	6.995179e+00	-2.831108e+00
1.020000e-06	1.058328e-06	1.707722e-10	7.345308e+00	8.941219e+00
1.030000e-06	1.108089e-06	3.583972e-10	7.690670e+00	2.126111e+01
1.040000e-06	1.157233e-06	5.554342e-10	8.031759e+00	3.415911e+01
1.050000e-06	1.205962e-06	7.614495e-10	8.369957e+00	4.763416e+01
1.060000e-06	1.254354e-06	9.765161e-10	8.705820e+00	6.164615e+01
1.070000e-06	1.302452e-06	1.198930e-09	9.039649e+00	7.611614e+01
1.080000e-06	1.350154e-06	1.427356e-09	9.370724e+00	9.093363e+01
1.090000e-06	1.397343e-06	1.657022e-09	9.698237e+00	1.059684e+02
1.100000e-06	1.444038e-06	1.884687e-09	1.002232e+01	1.210828e+02
1.110000e-06	1.490250e-06	2.111544e-09	1.034306e+01	1.361421e+02
1.120000e-06	1.535913e-06	2.334586e-09	1.065998e+01	1.510199e+02
1.130000e-06	1.581071e-06	2.553985e-09	1.097340e+01	1.655989e+02
1.140000e-06	1.625799e-06	2.770788e-09	1.128383e+01	1.797698e+02
1.150000e-06	1.670151e-06	2.981844e-09	1.159165e+01	1.934297e+02
1.160000e-06	1.714068e-06	3.178638e-09	1.189646e+01	2.064831e+02
1.170000e-06	1.757247e-06	3.362621e-09	1.219615e+01	2.188468e+02
1.180000e-06	1.799428e-06	3.538347e-09	1.248890e+01	2.304567e+02
1.190000e-06	1.840697e-06	3.703515e-09	1.277533e+01	2.412753e+02
1.200000e-06	1.881328e-06	3.855066e-09	1.305733e+01	2.512967e+02
1.210000e-06	1.921448e-06	3.991984e-09	1.333578e+01	2.605463e+02
1.220000e-06	1.961014e-06	4.118396e-09	1.361039e+01	2.690752e+02
1.230000e-06	1.999965e-06	4.236871e-09	1.388072e+01	2.769501e+02
1.240000e-06	2.038182e-06	4.346317e-09	1.414597e+01	2.842408e+02
1.250000e-06	2.075635e-06	4.446155e-09	1.440591e+01	2.910098e+02
1.260000e-06	2.112445e-06	4.540367e-09	1.466139e+01	2.973068e+02
1.270000e-06	2.148743e-06	4.629093e-09	1.491331e+01	3.031676e+02
1.280000e-06	2.184417e-06	4.710472e-09	1.516091e+01	3.086187e+02
1.290000e-06	2.219101e-06	4.784909e-09	1.540164e+01	3.136843e+02
1.300000e-06	2.252670e-06	4.853736e-09	1.563462e+01	3.183921e+02
1.310000e-06	2.285357e-06	4.919715e-09	1.586148e+01	3.227766e+02
1.320000e-06	2.317367e-06	4.982074e-09	1.608364e+01	3.268773e+02
1.330000e-06	2.348632e-06	5.038864e-09	1.630064e+01	3.307332e+02
1.340000e-06	2.379093e-06	5.090751e-09	1.651205e+01	3.343761e+02
1.350000e-06	2.408773e-06	5.139414e-09	1.671805e+01	3.378253e+02
1.360000e-06	2.437735e-06	5.185344e-09	1.691906e+01	3.410852e+02
1.370000e-06	2.466057e-06	5.229702e-09	1.711562e+01	3.441493e+02
1.380000e-06	2.493450e-06	5.272602e-09	1.730575e+01	3.470061e+02
1.390000e-06	2.519587e-06	5.312892e-09	1.748715e+01	3.496485e+02
1.400000e-06	2.544646e-06	5.348208e-09	1.766107e+01	3.520799e+02
1.410000e-06	2.568847e-06	5.377474e-09	1.782904e+01	3.543174e+02
1.420000e-06	2.592177e-06	5.404616e-09	1.799096e+01	3.563896e+02
1.430000e-06	2.614647e-06	5.432727e-09	1.814691e+01	3.583300e+02
1.440000e-06	2.636287e-06	5.459801e-09	1.829711e+01	3.601686e+02
1.450000e-06	2.657132e-06	5.484618e-09	1.844178e+01	3.619240e+02
1.460000e-06	2.677194e-06	5.509555e-09	1.858102e+01	3.636006e+02
1.470000e-06	2.696327e-06	5.534862e-09	1.871381e+01	3.651895e+02
1.480000e-06	2.714451e-06	5.558118e-09	1.883960e+01	3.666741e+02
1.490000e-06	2.731668e-06	5.578178e-09	1.895910e+01	3.680386e+02
1.500000e-06	2.747877e-06	5.596067e-09	1.907159e+01	3.692745e+02
1.510000e-06	2.762990e-06	5.612055e-09	1.917649e+01	3.703857e+02
1.520000e-06	2.777040e-06	5.626371e-09	1.927400e+01	3.713867e+02
1.530000e-06	2.790057e-06	5.638873e-09	1.936434e+01	3.722985e+02
1.540000e-06	2.802054e-06	5.651209e-09	1.944761e+01	3.731412e+02
1.550000e-06	2.812795e-06	5.665716e-09	1.952216e+01	3.739272e+02
1.560000e-06	2.822271e-06	5.680509e-09	1.958792e+01	3.746579e+02
1.570000e-06	2.830769e-06	5.692344e-09	1.964691e+01	3.753236e+02
1.580000e-06	2.838369e-06	5.699661e-09	1.969965e+01	3.759085e+02
1.590000e-06	2.845011e-06	5.706369e-09	1.974575e+01	3.763976e+02
1.600000e-06	2.850638e-06	5.712859e-09	1.978480e+01	3.767824e+02
1.610000e-06	2.855398e-06	5.715630e-09	1.981784e+01	3.770653e+02
1.620000e-06	2.859311e-06	5.716761e-09	1.984500e+01	3.772585e+02
1.630000e-06	2.862096e-06	5.720889e-09	1.986433e+01	3.773805e+02
1.640000e-06	2.863627e-06	5.727308e-09	1.987496e+01	3.774487e+02
1.650000e-06	2.864138e-06	5.730922e-09	1.987850e+01	3.774743e+02
1.660000e-06	2.863786e-06	5.730813e-09	1.987606e+01	3.774579e+02
1.670000e-06	2.862542e-06	5.728412e-09	1.986742e+01	3.773901e+02
1.680000e-06	2.860410e-06	5.726279e-09	1.985263e+01	3.772556e+02
1.690000e-06	2.857430e-06	5.722614e-09	1.983194e+01	3.770393e+02
1.700000e-06	2.853689e-06	5.714623e-09	1.980598e+01	3.767322e+02
1.710000e-06	2.848950e-06	5.709189e-09	1.977309e+01	3.763356e+02
1.720000e-06	2.843014e-06	5.716615e-09	1.973189e+01	3.758603e+02
1.730000e-06	2.836080e-06	5.722592e-09	1.968376e+01	3.753235e+02
1.740000e-06	2.828241e-06	5.650249e-09	1.962936e+01	3.747430e+02
1.750000e-06	2.819126e-06	5.582799e-09	1.956610e+01	3.741307e+02
1.760000e-06	2.808411e-06	5.655859e-09	1.949173e+01	3.734896e+02
1.770000e-06	2.796754e-06	5.777755e-09	1.941082e+01	3.728132e+02
1.780000e-06	2.784945e-06	5.667741e-09	1.932887e+01	3.720889e+02
1.790000e-06	2.772395e-06	5.500993e-09	1.924176e+01	3.713036e+02
1.800000e-06	2.758151e-06	5.639911e-09	1.914290e+01	3.704489e+02
1.810000e-06	2.742683e-06	5.712192e-09	1.903555e+01	3.695247e+02
1.820000e-06	2.726688e-06	5.505316e-09	1.892453e+01	3.685397e+02
1.830000e-06	2.709599e-06	5.520873e-09	1.880592e+01	3.675074e+02
1.840000e-06	2.691175e-06	5.726900e-09	1.867806e+01	3.664413e+02
1.850000e-06	2.672059e-06	5.560227e-09	1.854538e+01	3.653491e+02
1.860000e-06	2.652219e-06	5.433515e-09	1.840768e+01	3.642292e+02
1.870000e-06	2.631190e-06	5.666829e-09	1.826173e+01	3.630705e+02
1.880000e-06	2.609094e-06	5.554360e-09	1.810837e+01	3.618557e+02
1.890000e-06	2.586040e-06	5.326874e-09	1.794837e+01	3.605672e+02
1.900000e-06	2.561948e-06	5.526628e-09	1.778116e+01	3.591924e+02
1.910000e-06	2.537107e-06	5.533608e-09	1.760875e+01	3.577278e+02
1.920000e-06	2.511552e-06	5.351641e-09	1.743138e+01	3.561801e+02
1.930000e-06	2.485040e-06	5.420257e-09	1.724738e+01	3.545631e+02
1.940000e-06	2.457818e-06	5.416702e-09	1.705845e+01	3.528925e+02
1.950000e-06	2.429847e-06	5.328411e-09	1.686431e+01	3.511807e+02
1.960000e-06	2.400662e-06	5.350017e-09	1.666176e+01	3.494322e+02
1.970000e-06	2.370358e-06	5.274287e-09	1.645143e+01	3.476431e+02
1.980000e-06	2.339273e-06	5.241476e-09	1.623568e+01	3.458028e+02
1.990000e-06	2.307505e-06	5.300030e-09	1.601520e+01	3.438992e+02
2.000000e-06	2.275069e-06	5.192198e-09	1.579008e+01	3.419235e+02
2.010000e-06	2.241764e-06	5.167858e-09	1.555893e+01	3.398736e+02
2.020000e-06	2.207614e-06	5.188077e-09	1.532191e+01	3.377552e+02
2.030000e-06	2.172883e-06	5.074200e-09	1.508086e+01	3.355795e+02
2.040000e-06	2.137518e-06	5.088434e-09	1.483541e+01	3.333579e+02
2.050000e-06	2.101501e-06	5.087683e-09	1.458543e+01	3.310976e+02
2.060000e-06	2.064641e-06	4.973028e-09	1.432960e+01	3.287979e+02
2.070000e-06	2.026610e-06	4.979037e-09	1.406565e+01	3.264497e+02
2.080000e-06	1.987660e-06	4.965530e-09	1.379532e+01	3.240383e+02
2.090000e-06	1.948162e-06	4.888261e-09	1.352118e+01	3.215481e+02
2.100000e-06	1.908078e-06	4.868167e-09	1.324298e+01	3.189684e+02
2.110000e-06	1.867318e-06	4.817705e-09	1.296009e+01	3.162968e+02
2.120000e-06	1.825946e-06	4.781518e-09	1.267295e+01	3.135399e+02
2.130000e-06	1.784019e-06	4.749755e-09	1.238196e+01	3.107107e+02
2.140000e-06	1.741484e-06	4.687161e-09	1.208674e+01	3.078236e+02
2.150000e-06	1.698395e-06	4.654822e-09	1.178768e+01	3.048888e+02
2.160000e-06	1.654909e-06	4.607150e-09	1.148587e+01	3.019088e+02
2.170000e-06	1.610951e-06	4.567178e-09	1.118078e+01	2.988771e+02
2.180000e-06	1.566328e-06	4.526576e-09	1.087107e+01	2.957811e+02
2.190000e-06	1.520991e-06	4.460434e-09	1.055641e+01	2.926067e+02
2.200000e-06	1.475110e-06	4.413301e-09	1.023797e+01	2.893437e+02
2.210000e-06	1.428879e-06	4.368894e-09	9.917109e+00	2.859892e+02
2.220000e-06	1.382219e-06	4.318327e-09	9.593265e+00	2.825479e+02
2.230000e-06	1.335079e-06	4.269251e-09	9.266090e+00	2.790297e+02
2.240000e-06	1.287366e-06	4.203527e-09	8.934944e+00	2.754446e+02
2.250000e-06	1.238988e-06	4.156699e-09	8.599176e+00	2.717973e+02
2.260000e-06	1.190151e-06	4.105487e-09	8.260222e+00	2.680847e+02
2.270000e-06	1.140963e-06	4.031194e-09	7.918834e+00	2.642960e+02
2.280000e-06	1.091372e-06	3.977144e-09	7.574647e+00	2.604163e+02
2.290000e-06	1.041334e-06	3.920524e-09	7.227364e+00	2.564328e+02
2.300000e-06	9.908229e-07	3.865387e-09	6.876790e+00	2.523404e+02
2.310000e-06	9.399316e-07	3.804887e-09	6.523580e+00	2.481443e+02
2.320000e-06	8.887440e-07	3.732090e-09	6.168313e+00	2.438596e+02
2.330000e-06	8.373065e-07	3.667256e-09	5.811312e+00	2.395061e+02
2.340000e-06	7.855648e-07	3.599072e-09	5.452199e+00	2.351006e+02
2.350000e-06	7.334521e-07	3.530748e-09	5.090512e+00	2.306500e+02
2.360000e-06	6.809655e-07	3.459167e-09	4.726230e+00	2.261470e+02
2.370000e-06	6.280582e-07	3.388212e-09	4.359027e+00	2.215704e+02
2.380000e-06	5.747115e-07	3.327556e-09	3.988776e+00	2.168907e+02
2.390000e-06	5.210383e-07	3.259842e-09	3.616257e+00	2.120783e+02
2.400000e-06	4.670813e-07	3.180904e-09	3.241770e+00	2.071127e+02
2.410000e-06	4.128560e-07	3.099183e-09	2.865420e+00	2.019880e+02
2.420000e-06	3.584203e-07	3.016966e-09	2.487610e+00	1.967136e+02
2.430000e-06	3.037745e-07	2.938452e-09	2.108342e+00	1.913101e+02
2.440000e-06	2.489874e-07	2.853790e-09	1.728093e+00	1.858000e+02
2.450000e-06	1.941003e-07	2.765533e-09	1.347150e+00	1.801987e+02
2.460000e-06	1.391714e-07	2.685176e-09	9.659169e-01	1.745077e+02
2.470000e-06	8.421524e-08	2.603809e-09	5.844945e-01	1.687124e+02
2.480000e-06	2.919207e-08	2.516276e-09	2.026071e-01	1.627857e+02
2.490000e-06	-2.585304e-08	2.419978e-09	-1.794326e-01	1.566962e+02
2.500000e-06	-8.087716e-08	2.322575e-09	-5.613266e-01	1.504174e+02
2.510000e-06	-1.358536e-07	2.227864e-09	-9.428895e-01	1.439342e+02
2.520000e-06	-1.907557e-07	2.127038e-09	-1.323937e+00	1.372457e+02
2.530000e-06	-2.455863e-07	2.019515e-09	-1.704487e+00	1.303612e+02
2.540000e-06	-3.003555e-07	1.910538e-09	-2.084612e+00	1.232926e+02
2.550000e-06	-3.550080e-07	1.804624e-09	-2.463927e+00	1.160448e+02
2.560000e-06	-4.094299e-07	1.696813e-09	-2.841641e+00	1.086093e+02
2.570000e-06	-4.636002e-07	1.580387e-09	-3.217610e+00	1.009609e+02
2.580000e-06	-5.175107e-07	1.457487e-09	-3.591774e+00	9.306201e+01
2.590000e-06	-5.710838e-07	1.333987e-09	-3.963598e+00	8.487029e+01
2.600000e-06	-6.242392e-07	1.207286e-09	-4.332522e+00	7.634816e+01
2.610000e-06	-6.769838e-07	1.072028e-09	-4.698595e+00	6.747007e+01
2.620000e-06	-7.293784e-07	9.273731e-10	-5.062238e+00	5.822470e+01
2.630000e-06	-7.814052e-07	7.794197e-10	-5.423330e+00	4.861113e+01
2.640000e-06	-8.330793e-07	6.328806e-10	-5.781973e+00	3.863025e+01
2.650000e-06	-8.844736e-07	4.798806e-10	-6.138674e+00	2.827477e+01
2.660000e-06	-9.355809e-07	3.166892e-10	-6.493384e+00	1.752178e+01
2.670000e-06	-9.864187e-07	1.464443e-10	-6.846222e+00	6.331219e+00
2.680000e-06	-1.036925e-06	-2.858026e-11	-7.196762e+00	-5.348345e+00
2.690000e-06	-1.086971e-06	-2.147280e-10	-7.544106e+00	-1.756763e+01
2.700000e-06	-1.136561e-06	-4.139511e-10	-7.888284e+00	-3.036158e+01
2.710000e-06	-1.185719e-06	-6.211383e-10	-8.229462e+00	-4.373551e+01
2.720000e-06	-1.234430e-06	-8.328768e-10	-8.567540e+00	-5.765649e+01
2.730000e-06	-1.282457e-06	-1.049504e-09	-8.900874e+00	-7.205217e+01
2.740000e-06	-1.329741e-06	-1.273058e-09	-9.229048e+00	-8.681692e+01
2.750000e-06	-1.376367e-06	-1.502002e-09	-9.552651e+00	-1.018230e+02
2.760000e-06	-1.422416e-06	-1.732634e-09	-9.872254e+00	-1.169334e+02
2.770000e-06	-1.468102e-06	-1.961968e-09	-1.018934e+01	-1.320123e+02
2.780000e-06	-1.513499e-06	-2.191968e-09	-1.050441e+01	-1.469315e+02
2.790000e-06	-1.558523e-06	-2.421166e-09	-1.081690e+01	-1.615723e+02
2.800000e-06	-1.602981e-06	-2.642644e-09	-1.112546e+01	-1.758239e+02
2.810000e-06	-1.646845e-06	-2.852730e-09	-1.142990e+01	-1.895824e+02
2.820000e-06	-1.690252e-06	-3.053495e-09	-1.173117e+01	-2.027508e+02
2.830000e-06	-1.733234e-06	-3.245040e-09	-1.202948e+01	-2.152432e+02
2.840000e-06	-1.775701e-06	-3.423539e-09	-1.232422e+01	-2.269915e+02
2.850000e-06	-1.817576e-06	-3.588827e-09	-1.261486e+01	-2.379529e+02
2.860000e-06	-1.858873e-06	-3.744423e-09	-1.290148e+01	-2.481158e+02
2.870000e-06	-1.899568e-06	-3.892926e-09	-1.318392e+01	-2.575002e+02
2.880000e-06	-1.939550e-06	-4.032416e-09	-1.346141e+01	-2.661534e+02
2.890000e-06	-1.978929e-06	-4.160373e-09	-1.373472e+01	-2.741401e+02
2.900000e-06	-2.017800e-06	-4.276916e-09	-1.400450e+01	-2.815302e+02
2.910000e-06	-2.055898e-06	-4.381613e-09	-1.426892e+01	-2.883885e+02
2.920000e-06	-2.092949e-06	-4.475425e-09	-1.452608e+01	-2.947670e+02
2.930000e-06	-2.128989e-06	-4.562234e-09	-1.477621e+01	-3.007037e+02
2.940000e-06	-2.164346e-06	-4.647505e-09	-1.502161e+01	-3.062264e+02
