# Temperatura_=_21.82
# Concentracion g/m^3_=_13400.0
# C_Vs_to_Am_M_A/Vsm_=_65563218390.804596
# pendiente_HvsI_1/m_=_3716.3
# ordenada_HvsI_A/m_=_1297.0
# frecuencia_Hz_=_300835.5977302928

Tiempo_(s)	Campo_(V.s)	Magnetizacion_(V.s)	Campo_(kA/m)	Magnetizacion_(A/m)
0.000000e+00	-2.852293e-06	-5.648579e-09	-1.980807e+01	-3.683846e+02
1.000000e-08	-2.851766e-06	-5.646414e-09	-1.980441e+01	-3.682950e+02
2.000000e-08	-2.850469e-06	-5.647919e-09	-1.979540e+01	-3.681565e+02
3.000000e-08	-2.848077e-06	-5.648493e-09	-1.977878e+01	-3.679698e+02
4.000000e-08	-2.844475e-06	-5.647043e-09	-1.975377e+01	-3.677295e+02
5.000000e-08	-2.839925e-06	-5.640293e-09	-1.972217e+01	-3.674267e+02
6.000000e-08	-2.834579e-06	-5.626013e-09	-1.968505e+01	-3.670515e+02
7.000000e-08	-2.828329e-06	-5.598216e-09	-1.964165e+01	-3.665979e+02
8.000000e-08	-2.821023e-06	-5.588537e-09	-1.959091e+01	-3.660668e+02
9.000000e-08	-2.812613e-06	-5.660850e-09	-1.953250e+01	-3.654679e+02
1.000000e-07	-2.802961e-06	-5.718436e-09	-1.946548e+01	-3.648183e+02
1.100000e-07	-2.791948e-06	-5.580670e-09	-1.938899e+01	-3.641399e+02
1.200000e-07	-2.779964e-06	-5.405462e-09	-1.930577e+01	-3.634532e+02
1.300000e-07	-2.767210e-06	-5.546942e-09	-1.921720e+01	-3.627723e+02
1.400000e-07	-2.753440e-06	-5.736295e-09	-1.912157e+01	-3.621010e+02
1.500000e-07	-2.738699e-06	-5.488033e-09	-1.901920e+01	-3.614310e+02
1.600000e-07	-2.722993e-06	-5.396826e-09	-1.891013e+01	-3.607436e+02
1.700000e-07	-2.705880e-06	-5.668619e-09	-1.879128e+01	-3.600143e+02
1.800000e-07	-2.687583e-06	-5.570523e-09	-1.866422e+01	-3.592183e+02
1.900000e-07	-2.668695e-06	-5.336508e-09	-1.853305e+01	-3.583355e+02
2.000000e-07	-2.649073e-06	-5.517809e-09	-1.839678e+01	-3.573547e+02
2.100000e-07	-2.628489e-06	-5.543326e-09	-1.825384e+01	-3.562735e+02
2.200000e-07	-2.607094e-06	-5.288351e-09	-1.810525e+01	-3.550974e+02
2.300000e-07	-2.584894e-06	-5.438218e-09	-1.795109e+01	-3.538363e+02
2.400000e-07	-2.561697e-06	-5.564859e-09	-1.778999e+01	-3.525002e+02
2.500000e-07	-2.537613e-06	-5.305933e-09	-1.762273e+01	-3.510971e+02
2.600000e-07	-2.512777e-06	-5.269254e-09	-1.745026e+01	-3.496312e+02
2.700000e-07	-2.487077e-06	-5.386757e-09	-1.727179e+01	-3.481036e+02
2.800000e-07	-2.460329e-06	-5.284368e-09	-1.708603e+01	-3.465135e+02
2.900000e-07	-2.432447e-06	-5.251976e-09	-1.689240e+01	-3.448597e+02
3.000000e-07	-2.403544e-06	-5.261397e-09	-1.669168e+01	-3.431423e+02
3.100000e-07	-2.373869e-06	-5.222093e-09	-1.648560e+01	-3.413618e+02
3.200000e-07	-2.343552e-06	-5.239518e-09	-1.627506e+01	-3.395196e+02
3.300000e-07	-2.312496e-06	-5.174494e-09	-1.605939e+01	-3.376161e+02
3.400000e-07	-2.280578e-06	-5.087787e-09	-1.583773e+01	-3.356506e+02
3.500000e-07	-2.247955e-06	-5.105030e-09	-1.561118e+01	-3.336215e+02
3.600000e-07	-2.214777e-06	-5.067892e-09	-1.538076e+01	-3.315267e+02
3.700000e-07	-2.180776e-06	-5.024507e-09	-1.514464e+01	-3.293648e+02
3.800000e-07	-2.145590e-06	-5.048063e-09	-1.490029e+01	-3.271355e+02
3.900000e-07	-2.109389e-06	-4.953867e-09	-1.464889e+01	-3.248401e+02
4.000000e-07	-2.072570e-06	-4.897843e-09	-1.439319e+01	-3.224798e+02
4.100000e-07	-2.035126e-06	-4.929922e-09	-1.413316e+01	-3.200555e+02
4.200000e-07	-1.996969e-06	-4.865183e-09	-1.386817e+01	-3.175660e+02
4.300000e-07	-1.958068e-06	-4.778236e-09	-1.359802e+01	-3.150089e+02
4.400000e-07	-1.918395e-06	-4.772694e-09	-1.332251e+01	-3.123809e+02
4.500000e-07	-1.878166e-06	-4.750480e-09	-1.304313e+01	-3.096796e+02
4.600000e-07	-1.837562e-06	-4.695241e-09	-1.276115e+01	-3.069054e+02
4.700000e-07	-1.796520e-06	-4.644436e-09	-1.247613e+01	-3.040615e+02
4.800000e-07	-1.754731e-06	-4.584573e-09	-1.218593e+01	-3.011536e+02
4.900000e-07	-1.711908e-06	-4.550611e-09	-1.188854e+01	-2.981876e+02
5.000000e-07	-1.668130e-06	-4.522766e-09	-1.158451e+01	-2.951669e+02
5.100000e-07	-1.623747e-06	-4.470054e-09	-1.127629e+01	-2.920902e+02
5.200000e-07	-1.578952e-06	-4.398624e-09	-1.096521e+01	-2.889509e+02
5.300000e-07	-1.533722e-06	-4.355301e-09	-1.065110e+01	-2.857392e+02
5.400000e-07	-1.487965e-06	-4.320187e-09	-1.033334e+01	-2.824446e+02
5.500000e-07	-1.441632e-06	-4.266254e-09	-1.001157e+01	-2.790605e+02
5.600000e-07	-1.394775e-06	-4.201448e-09	-9.686170e+00	-2.755861e+02
5.700000e-07	-1.347458e-06	-4.140039e-09	-9.357569e+00	-2.720273e+02
5.800000e-07	-1.299665e-06	-4.099649e-09	-9.025669e+00	-2.683939e+02
5.900000e-07	-1.251418e-06	-4.052329e-09	-8.690609e+00	-2.646955e+02
6.000000e-07	-1.202845e-06	-3.982195e-09	-8.353291e+00	-2.609366e+02
6.100000e-07	-1.153921e-06	-3.908584e-09	-8.013531e+00	-2.571132e+02
6.200000e-07	-1.104482e-06	-3.853493e-09	-7.670199e+00	-2.532137e+02
6.300000e-07	-1.054418e-06	-3.798555e-09	-7.322521e+00	-2.492213e+02
6.400000e-07	-1.003768e-06	-3.732812e-09	-6.970778e+00	-2.451211e+02
6.500000e-07	-9.525743e-07	-3.661228e-09	-6.615259e+00	-2.409052e+02
6.600000e-07	-9.008507e-07	-3.596315e-09	-6.256058e+00	-2.365773e+02
6.700000e-07	-8.487113e-07	-3.539199e-09	-5.893970e+00	-2.321520e+02
6.800000e-07	-7.962926e-07	-3.471459e-09	-5.529943e+00	-2.276503e+02
6.900000e-07	-7.436276e-07	-3.393147e-09	-5.164205e+00	-2.230921e+02
7.000000e-07	-6.907251e-07	-3.314999e-09	-4.796817e+00	-2.184881e+02
7.100000e-07	-6.375800e-07	-3.248948e-09	-4.427745e+00	-2.138350e+02
7.200000e-07	-5.842384e-07	-3.180807e-09	-4.057309e+00	-2.091154e+02
7.300000e-07	-5.307163e-07	-3.102205e-09	-3.685618e+00	-2.043021e+02
7.400000e-07	-4.769661e-07	-3.021638e-09	-3.312344e+00	-1.993677e+02
7.500000e-07	-4.229286e-07	-2.947108e-09	-2.937075e+00	-1.942926e+02
7.600000e-07	-3.686968e-07	-2.873986e-09	-2.560456e+00	-1.890718e+02
7.700000e-07	-3.144066e-07	-2.790047e-09	-2.183431e+00	-1.837152e+02
7.800000e-07	-2.600560e-07	-2.698830e-09	-1.805988e+00	-1.782425e+02
7.900000e-07	-2.056172e-07	-2.609948e-09	-1.427931e+00	-1.726739e+02
8.000000e-07	-1.510925e-07	-2.528365e-09	-1.049278e+00	-1.670206e+02
8.100000e-07	-9.652973e-08	-2.440894e-09	-6.703614e-01	-1.612780e+02
8.200000e-07	-4.196374e-08	-2.346336e-09	-2.914218e-01	-1.554253e+02
8.300000e-07	1.260724e-08	-2.252886e-09	8.755237e-02	-1.494313e+02
8.400000e-07	6.717777e-08	-2.162581e-09	4.665235e-01	-1.432638e+02
8.500000e-07	1.217110e-07	-2.067790e-09	8.452358e-01	-1.369009e+02
8.600000e-07	1.761921e-07	-1.962197e-09	1.223586e+00	-1.303372e+02
8.700000e-07	2.306350e-07	-1.853001e-09	1.601671e+00	-1.235845e+02
8.800000e-07	2.850803e-07	-1.746558e-09	1.979772e+00	-1.166655e+02
8.900000e-07	3.394543e-07	-1.642674e-09	2.357378e+00	-1.096020e+02
9.000000e-07	3.936573e-07	-1.530619e-09	2.733797e+00	-1.024037e+02
9.100000e-07	4.476989e-07	-1.412594e-09	3.109095e+00	-9.505921e+01
9.200000e-07	5.015761e-07	-1.296704e-09	3.483251e+00	-8.753576e+01
9.300000e-07	5.552570e-07	-1.182330e-09	3.856044e+00	-7.978517e+01
9.400000e-07	6.086660e-07	-1.060584e-09	4.226949e+00	-7.175599e+01
9.500000e-07	6.617876e-07	-9.290726e-10	4.595858e+00	-6.340650e+01
9.600000e-07	7.146661e-07	-7.939429e-10	4.963078e+00	-5.471415e+01
9.700000e-07	7.673542e-07	-6.568543e-10	5.328977e+00	-4.567773e+01
9.800000e-07	8.198097e-07	-5.153588e-10	5.693260e+00	-3.631168e+01
9.900000e-07	8.719364e-07	-3.642119e-10	6.055260e+00	-2.663437e+01
1.000000e-06	9.236568e-07	-2.082366e-10	6.414437e+00	-1.665484e+01
1.010000e-06	9.748649e-07	-5.106370e-11	6.770058e+00	-6.363065e+00
1.020000e-06	1.025410e-06	1.087760e-10	7.121074e+00	4.272536e+00
1.030000e-06	1.075314e-06	2.755826e-10	7.467640e+00	1.529885e+01
1.040000e-06	1.124724e-06	4.528716e-10	7.810768e+00	2.676489e+01
1.050000e-06	1.173707e-06	6.380452e-10	8.150942e+00	3.870570e+01
1.060000e-06	1.222393e-06	8.282017e-10	8.489043e+00	5.112833e+01
1.070000e-06	1.270793e-06	1.024245e-09	8.825162e+00	6.400414e+01
1.080000e-06	1.318828e-06	1.228800e-09	9.158750e+00	7.726922e+01
1.090000e-06	1.366359e-06	1.434906e-09	9.488830e+00	9.083217e+01
1.100000e-06	1.413343e-06	1.640377e-09	9.815116e+00	1.045861e+02
1.110000e-06	1.459850e-06	1.847159e-09	1.013809e+01	1.184210e+02
1.120000e-06	1.505818e-06	2.056517e-09	1.045732e+01	1.322317e+02
1.130000e-06	1.551267e-06	2.265331e-09	1.077295e+01	1.459221e+02
1.140000e-06	1.596254e-06	2.471020e-09	1.108536e+01	1.594032e+02
1.150000e-06	1.640877e-06	2.672913e-09	1.139525e+01	1.725891e+02
1.160000e-06	1.685152e-06	2.867788e-09	1.170273e+01	1.853942e+02
1.170000e-06	1.728788e-06	3.054147e-09	1.200576e+01	1.977332e+02
1.180000e-06	1.771467e-06	3.230761e-09	1.230215e+01	2.095255e+02
1.190000e-06	1.813166e-06	3.398564e-09	1.259174e+01	2.207024e+02
1.200000e-06	1.854170e-06	3.557611e-09	1.287649e+01	2.312158e+02
1.210000e-06	1.894696e-06	3.708612e-09	1.315793e+01	2.410442e+02
1.220000e-06	1.934700e-06	3.849270e-09	1.343574e+01	2.501936e+02
1.230000e-06	1.974008e-06	3.976914e-09	1.370872e+01	2.586938e+02
1.240000e-06	2.012621e-06	4.092403e-09	1.397687e+01	2.665904e+02
1.250000e-06	2.050551e-06	4.199320e-09	1.424028e+01	2.739347e+02
1.260000e-06	2.087784e-06	4.300837e-09	1.449885e+01	2.807756e+02
1.270000e-06	2.124462e-06	4.396457e-09	1.475357e+01	2.871542e+02
1.280000e-06	2.160567e-06	4.484688e-09	1.500430e+01	2.931036e+02
1.290000e-06	2.195775e-06	4.566737e-09	1.524881e+01	2.986516e+02
1.300000e-06	2.229893e-06	4.644374e-09	1.548574e+01	3.038250e+02
1.310000e-06	2.263086e-06	4.717296e-09	1.571625e+01	3.086533e+02
1.320000e-06	2.295583e-06	4.783841e-09	1.594193e+01	3.131697e+02
1.330000e-06	2.327341e-06	4.844899e-09	1.616248e+01	3.174090e+02
1.340000e-06	2.358311e-06	4.902087e-09	1.637756e+01	3.214032e+02
1.350000e-06	2.388531e-06	4.955703e-09	1.658742e+01	3.251770e+02
1.360000e-06	2.417939e-06	5.005293e-09	1.679164e+01	3.287449e+02
1.370000e-06	2.446667e-06	5.052219e-09	1.699115e+01	3.321108e+02
1.380000e-06	2.474747e-06	5.099599e-09	1.718615e+01	3.352716e+02
1.390000e-06	2.501786e-06	5.146996e-09	1.737393e+01	3.382223e+02
1.400000e-06	2.527528e-06	5.189508e-09	1.755270e+01	3.409615e+02
1.410000e-06	2.552231e-06	5.223089e-09	1.772425e+01	3.434956e+02
1.420000e-06	2.576108e-06	5.252037e-09	1.789007e+01	3.458402e+02
1.430000e-06	2.599141e-06	5.282946e-09	1.805003e+01	3.480177e+02
1.440000e-06	2.621293e-06	5.313691e-09	1.820386e+01	3.500534e+02
1.450000e-06	2.642590e-06	5.339502e-09	1.835176e+01	3.519698e+02
1.460000e-06	2.663168e-06	5.363771e-09	1.849466e+01	3.537830e+02
1.470000e-06	2.682926e-06	5.390283e-09	1.863188e+01	3.554999e+02
1.480000e-06	2.701640e-06	5.416564e-09	1.876184e+01	3.571196e+02
1.490000e-06	2.719374e-06	5.438457e-09	1.888500e+01	3.586358e+02
1.500000e-06	2.736214e-06	5.456249e-09	1.900195e+01	3.600408e+02
1.510000e-06	2.751952e-06	5.473735e-09	1.911124e+01	3.613295e+02
1.520000e-06	2.766591e-06	5.492627e-09	1.921290e+01	3.625018e+02
1.530000e-06	2.780248e-06	5.509004e-09	1.930774e+01	3.635633e+02
1.540000e-06	2.792916e-06	5.520008e-09	1.939572e+01	3.645237e+02
1.550000e-06	2.804493e-06	5.530200e-09	1.947612e+01	3.653942e+02
1.560000e-06	2.814746e-06	5.544639e-09	1.954731e+01	3.661848e+02
1.570000e-06	2.823822e-06	5.561223e-09	1.961035e+01	3.669018e+02
1.580000e-06	2.831960e-06	5.573576e-09	1.966686e+01	3.675466e+02
1.590000e-06	2.839196e-06	5.580560e-09	1.971712e+01	3.681161e+02
1.600000e-06	2.845497e-06	5.585707e-09	1.976087e+01	3.686041e+02
1.610000e-06	2.850858e-06	5.591084e-09	1.979810e+01	3.690042e+02
1.620000e-06	2.855391e-06	5.595066e-09	1.982958e+01	3.693117e+02
1.630000e-06	2.858917e-06	5.598168e-09	1.985407e+01	3.695264e+02
1.640000e-06	2.861138e-06	5.601840e-09	1.986949e+01	3.696528e+02
1.650000e-06	2.862234e-06	5.605563e-09	1.987710e+01	3.696997e+02
1.660000e-06	2.862435e-06	5.608679e-09	1.987850e+01	3.696784e+02
1.670000e-06	2.861751e-06	5.607972e-09	1.987374e+01	3.695999e+02
1.680000e-06	2.860218e-06	5.601324e-09	1.986310e+01	3.694714e+02
1.690000e-06	2.857804e-06	5.594712e-09	1.984634e+01	3.692950e+02
1.700000e-06	2.854585e-06	5.589730e-09	1.982398e+01	3.690668e+02
1.710000e-06	2.850522e-06	5.586622e-09	1.979577e+01	3.687780e+02
1.720000e-06	2.845316e-06	5.589837e-09	1.975961e+01	3.684189e+02
1.730000e-06	2.838968e-06	5.611892e-09	1.971553e+01	3.679821e+02
1.740000e-06	2.831729e-06	5.591997e-09	1.966526e+01	3.674669e+02
1.750000e-06	2.823521e-06	5.470260e-09	1.960826e+01	3.668811e+02
1.760000e-06	2.813816e-06	5.427488e-09	1.954086e+01	3.662405e+02
1.770000e-06	2.802586e-06	5.622464e-09	1.946287e+01	3.655662e+02
1.780000e-06	2.790779e-06	5.680710e-09	1.938088e+01	3.648796e+02
1.790000e-06	2.778857e-06	5.451664e-09	1.929808e+01	3.641966e+02
1.800000e-06	2.765830e-06	5.368502e-09	1.920761e+01	3.635234e+02
1.810000e-06	2.751088e-06	5.615861e-09	1.910523e+01	3.628541e+02
1.820000e-06	2.735429e-06	5.535097e-09	1.899649e+01	3.621722e+02
1.830000e-06	2.719189e-06	5.279378e-09	1.888371e+01	3.614539e+02
1.840000e-06	2.701712e-06	5.529314e-09	1.876234e+01	3.606739e+02
1.850000e-06	2.683059e-06	5.634861e-09	1.863280e+01	3.598109e+02
1.860000e-06	2.663830e-06	5.300963e-09	1.849926e+01	3.588513e+02
1.870000e-06	2.643682e-06	5.389632e-09	1.835934e+01	3.577912e+02
1.880000e-06	2.622220e-06	5.611004e-09	1.821030e+01	3.566346e+02
1.890000e-06	2.599771e-06	5.292410e-09	1.805440e+01	3.553906e+02
1.900000e-06	2.576362e-06	5.246903e-09	1.789183e+01	3.540696e+02
1.910000e-06	2.551939e-06	5.511662e-09	1.772223e+01	3.526802e+02
1.920000e-06	2.526836e-06	5.365807e-09	1.754789e+01	3.512274e+02
1.930000e-06	2.500982e-06	5.238202e-09	1.736835e+01	3.497129e+02
1.940000e-06	2.474243e-06	5.346460e-09	1.718266e+01	3.481361e+02
1.950000e-06	2.446868e-06	5.254427e-09	1.699255e+01	3.464958e+02
1.960000e-06	2.418542e-06	5.236800e-09	1.679583e+01	3.447918e+02
1.970000e-06	2.388912e-06	5.238686e-09	1.659007e+01	3.430246e+02
1.980000e-06	2.358332e-06	5.114619e-09	1.637770e+01	3.411953e+02
1.990000e-06	2.327015e-06	5.192681e-09	1.616021e+01	3.393047e+02
2.000000e-06	2.294969e-06	5.185833e-09	1.593767e+01	3.373525e+02
2.010000e-06	2.262125e-06	5.039521e-09	1.570958e+01	3.353370e+02
2.020000e-06	2.228420e-06	5.097997e-09	1.547551e+01	3.332563e+02
2.030000e-06	2.194018e-06	5.046767e-09	1.523660e+01	3.311086e+02
2.040000e-06	2.159041e-06	4.937717e-09	1.499370e+01	3.288936e+02
2.050000e-06	2.123432e-06	5.022823e-09	1.474641e+01	3.266120e+02
2.060000e-06	2.087047e-06	4.946241e-09	1.449373e+01	3.242653e+02
2.070000e-06	2.049658e-06	4.845204e-09	1.423408e+01	3.218545e+02
2.080000e-06	2.011211e-06	4.890158e-09	1.396708e+01	3.193790e+02
2.090000e-06	1.972069e-06	4.831712e-09	1.369525e+01	3.168365e+02
2.100000e-06	1.932408e-06	4.771866e-09	1.341983e+01	3.142238e+02
2.110000e-06	1.892128e-06	4.742230e-09	1.314009e+01	3.115381e+02
2.120000e-06	1.851191e-06	4.683396e-09	1.285580e+01	3.087792e+02
2.130000e-06	1.809663e-06	4.674636e-09	1.256741e+01	3.059496e+02
2.140000e-06	1.767580e-06	4.628829e-09	1.227515e+01	3.030547e+02
2.150000e-06	1.724950e-06	4.557329e-09	1.197911e+01	3.001006e+02
2.160000e-06	1.681861e-06	4.523160e-09	1.167987e+01	2.970913e+02
2.170000e-06	1.638307e-06	4.480406e-09	1.137740e+01	2.940268e+02
2.180000e-06	1.594162e-06	4.445931e-09	1.107083e+01	2.909015e+02
2.190000e-06	1.549361e-06	4.386621e-09	1.075971e+01	2.877061e+02
2.200000e-06	1.503906e-06	4.321726e-09	1.044404e+01	2.844298e+02
2.210000e-06	1.458001e-06	4.289606e-09	1.012525e+01	2.810650e+02
2.220000e-06	1.411704e-06	4.237958e-09	9.803732e+00	2.776095e+02
2.230000e-06	1.364887e-06	4.185869e-09	9.478607e+00	2.740678e+02
2.240000e-06	1.317545e-06	4.120977e-09	9.149835e+00	2.704493e+02
2.250000e-06	1.269602e-06	4.061126e-09	8.816892e+00	2.667641e+02
2.260000e-06	1.221067e-06	4.030069e-09	8.479834e+00	2.630179e+02
2.270000e-06	1.172089e-06	3.966377e-09	8.139704e+00	2.592090e+02
2.280000e-06	1.122739e-06	3.894139e-09	7.796983e+00	2.553269e+02
2.290000e-06	1.072981e-06	3.838292e-09	7.451438e+00	2.513557e+02
2.300000e-06	1.022780e-06	3.779791e-09	7.102809e+00	2.472794e+02
2.310000e-06	9.721567e-07	3.724633e-09	6.751250e+00	2.430882e+02
2.320000e-06	9.212171e-07	3.654951e-09	6.397495e+00	2.387832e+02
2.330000e-06	8.700341e-07	3.582437e-09	6.042048e+00	2.343770e+02
2.340000e-06	8.185823e-07	3.522886e-09	5.684736e+00	2.298896e+02
2.350000e-06	7.667608e-07	3.456007e-09	5.324855e+00	2.253420e+02
2.360000e-06	7.145266e-07	3.385244e-09	4.962109e+00	2.207474e+02
2.370000e-06	6.618738e-07	3.305949e-09	4.596456e+00	2.161057e+02
2.380000e-06	6.088179e-07	3.233362e-09	4.228004e+00	2.114022e+02
2.390000e-06	5.553849e-07	3.171490e-09	3.856932e+00	2.066113e+02
2.400000e-06	5.015921e-07	3.098094e-09	3.483362e+00	2.017046e+02
2.410000e-06	4.475186e-07	3.021745e-09	3.107843e+00	1.966605e+02
2.420000e-06	3.932208e-07	2.942857e-09	2.730766e+00	1.914704e+02
2.430000e-06	3.387021e-07	2.863216e-09	2.352155e+00	1.861413e+02
2.440000e-06	2.840471e-07	2.782938e-09	1.972596e+00	1.806914e+02
2.450000e-06	2.293462e-07	2.692993e-09	1.592720e+00	1.751418e+02
2.460000e-06	1.745560e-07	2.602617e-09	1.212224e+00	1.695062e+02
2.470000e-06	1.196842e-07	2.517981e-09	8.311603e-01	1.637838e+02
2.480000e-06	6.480681e-08	2.436464e-09	4.500581e-01	1.579570e+02
2.490000e-06	9.928739e-09	2.351874e-09	6.895123e-02	1.519959e+02
2.500000e-06	-4.495904e-08	2.257875e-09	-3.122231e-01	1.458678e+02
2.510000e-06	-9.983526e-08	2.161886e-09	-6.933171e-01	1.395476e+02
2.520000e-06	-1.546839e-07	2.066510e-09	-1.074219e+00	1.330263e+02
2.530000e-06	-2.094968e-07	1.962435e-09	-1.454874e+00	1.263122e+02
2.540000e-06	-2.642519e-07	1.851086e-09	-1.835126e+00	1.194266e+02
2.550000e-06	-3.188965e-07	1.741048e-09	-2.214613e+00	1.123926e+02
2.560000e-06	-3.733913e-07	1.638126e-09	-2.593058e+00	1.052231e+02
2.570000e-06	-4.277423e-07	1.534940e-09	-2.970504e+00	9.791182e+01
2.580000e-06	-4.819465e-07	1.422284e-09	-3.346931e+00	9.043023e+01
2.590000e-06	-5.358856e-07	1.305319e-09	-3.721517e+00	8.273256e+01
2.600000e-06	-5.894944e-07	1.183784e-09	-4.093810e+00	7.476692e+01
2.610000e-06	-6.427782e-07	1.055960e-09	-4.463845e+00	6.648853e+01
2.620000e-06	-6.956464e-07	9.210536e-10	-4.830994e+00	5.787026e+01
2.630000e-06	-7.480001e-07	7.812180e-10	-5.194570e+00	4.890656e+01
2.640000e-06	-7.999066e-07	6.407591e-10	-5.555040e+00	3.960935e+01
2.650000e-06	-8.514802e-07	4.989656e-10	-5.913199e+00	2.999729e+01
2.660000e-06	-9.027379e-07	3.526332e-10	-6.269164e+00	2.008244e+01
2.670000e-06	-9.537406e-07	2.005804e-10	-6.623357e+00	9.859355e+00
2.680000e-06	-1.004448e-06	4.244616e-11	-6.975502e+00	-6.991601e-01
2.690000e-06	-1.054736e-06	-1.235483e-10	-7.324731e+00	-1.163764e+01
2.700000e-06	-1.104577e-06	-2.988492e-10	-7.670856e+00	-2.300596e+01
2.710000e-06	-1.154048e-06	-4.836785e-10	-8.014412e+00	-3.484349e+01
2.720000e-06	-1.203132e-06	-6.733556e-10	-8.355285e+00	-4.716420e+01
2.730000e-06	-1.251639e-06	-8.667444e-10	-8.692144e+00	-5.994734e+01
2.740000e-06	-1.299421e-06	-1.066155e-09	-9.023973e+00	-7.313611e+01
2.750000e-06	-1.346474e-06	-1.272438e-09	-9.350737e+00	-8.664407e+01
2.760000e-06	-1.392871e-06	-1.481989e-09	-9.672951e+00	-1.003666e+02
2.770000e-06	-1.438718e-06	-1.691291e-09	-9.991336e+00	-1.141934e+02
2.780000e-06	-1.484164e-06	-1.902175e-09	-1.030694e+01	-1.280179e+02
2.790000e-06	-1.529304e-06	-2.116110e-09	-1.062042e+01	-1.417420e+02
2.800000e-06	-1.574073e-06	-2.328893e-09	-1.093133e+01	-1.552753e+02
2.810000e-06	-1.618268e-06	-2.533874e-09	-1.123824e+01	-1.685318e+02
2.820000e-06	-1.661847e-06	-2.730398e-09	-1.154088e+01	-1.814260e+02
2.830000e-06	-1.704987e-06	-2.918937e-09	-1.184047e+01	-1.938721e+02
2.840000e-06	-1.747740e-06	-3.099281e-09	-1.213738e+01	-2.057880e+02
2.850000e-06	-1.789901e-06	-3.269800e-09	-1.243017e+01	-2.171018e+02
2.860000e-06	-1.831454e-06	-3.430022e-09	-1.271874e+01	-2.277604e+02
2.870000e-06	-1.872503e-06	-3.583709e-09	-1.300380e+01	-2.377362e+02
2.880000e-06	-1.912890e-06	-3.733473e-09	-1.328428e+01	-2.470294e+02
2.890000e-06	-1.952603e-06	-3.875336e-09	-1.356007e+01	-2.556655e+02
2.900000e-06	-1.991786e-06	-4.002604e-09	-1.383218e+01	-2.636873e+02
2.910000e-06	-2.030385e-06	-4.116284e-09	-1.410024e+01	-2.711458e+02
2.920000e-06	-2.068173e-06	-4.220966e-09	-1.436266e+01	-2.780910e+02
2.930000e-06	-2.104910e-06	-4.319209e-09	-1.461778e+01	-2.845658e+02
2.940000e-06	-2.140691e-06	-4.411874e-09	-1.486627e+01	-2.906049e+02
