# Temperatura_=_25.73
# Concentracion g/m^3_=_13400.0
# C_Vs_to_Am_M_A/Vsm_=_65563218390.804596
# pendiente_HvsI_1/m_=_3716.3
# ordenada_HvsI_A/m_=_1297.0
# frecuencia_Hz_=_300843.68754741835

Tiempo_(s)	Campo_(V.s)	Magnetizacion_(V.s)	Campo_(kA/m)	Magnetizacion_(A/m)
0.000000e+00	-2.853654e-06	-5.722391e-09	-1.980144e+01	-3.737525e+02
1.000000e-08	-2.852780e-06	-5.722887e-09	-1.979538e+01	-3.736608e+02
2.000000e-08	-2.850878e-06	-5.720192e-09	-1.978218e+01	-3.734872e+02
3.000000e-08	-2.847679e-06	-5.715951e-09	-1.975998e+01	-3.732460e+02
4.000000e-08	-2.843490e-06	-5.711675e-09	-1.973091e+01	-3.729518e+02
5.000000e-08	-2.838554e-06	-5.704257e-09	-1.969666e+01	-3.726127e+02
6.000000e-08	-2.832729e-06	-5.687494e-09	-1.965624e+01	-3.722272e+02
7.000000e-08	-2.825943e-06	-5.664325e-09	-1.960915e+01	-3.717859e+02
8.000000e-08	-2.818168e-06	-5.697139e-09	-1.955520e+01	-3.712773e+02
9.000000e-08	-2.809219e-06	-5.756707e-09	-1.949311e+01	-3.706960e+02
1.000000e-07	-2.798802e-06	-5.724455e-09	-1.942082e+01	-3.700489e+02
1.100000e-07	-2.787156e-06	-5.559348e-09	-1.934001e+01	-3.693570e+02
1.200000e-07	-2.774717e-06	-5.561851e-09	-1.925370e+01	-3.686506e+02
1.300000e-07	-2.761319e-06	-5.740166e-09	-1.916073e+01	-3.679594e+02
1.400000e-07	-2.746908e-06	-5.666057e-09	-1.906073e+01	-3.673014e+02
1.500000e-07	-2.731626e-06	-5.491142e-09	-1.895469e+01	-3.666734e+02
1.600000e-07	-2.715059e-06	-5.624514e-09	-1.883973e+01	-3.660492e+02
1.700000e-07	-2.697170e-06	-5.706145e-09	-1.871560e+01	-3.653840e+02
1.800000e-07	-2.678559e-06	-5.494582e-09	-1.858646e+01	-3.646267e+02
1.900000e-07	-2.659257e-06	-5.510978e-09	-1.845252e+01	-3.637339e+02
2.000000e-07	-2.639015e-06	-5.630069e-09	-1.831207e+01	-3.626825e+02
2.100000e-07	-2.617888e-06	-5.456501e-09	-1.816547e+01	-3.614752e+02
2.200000e-07	-2.596000e-06	-5.424152e-09	-1.801358e+01	-3.601389e+02
2.300000e-07	-2.573181e-06	-5.593093e-09	-1.785525e+01	-3.587149e+02
2.400000e-07	-2.549372e-06	-5.479963e-09	-1.769004e+01	-3.572453e+02
2.500000e-07	-2.524837e-06	-5.361214e-09	-1.751979e+01	-3.557604e+02
2.600000e-07	-2.499491e-06	-5.427723e-09	-1.734391e+01	-3.542707e+02
2.700000e-07	-2.473048e-06	-5.404764e-09	-1.716042e+01	-3.527652e+02
2.800000e-07	-2.445479e-06	-5.345381e-09	-1.696912e+01	-3.512183e+02
2.900000e-07	-2.416959e-06	-5.325537e-09	-1.677122e+01	-3.495989e+02
3.000000e-07	-2.387620e-06	-5.295456e-09	-1.656764e+01	-3.478820e+02
3.100000e-07	-2.357600e-06	-5.323204e-09	-1.635933e+01	-3.460559e+02
3.200000e-07	-2.326885e-06	-5.294961e-09	-1.614620e+01	-3.441253e+02
3.300000e-07	-2.295319e-06	-5.181321e-09	-1.592717e+01	-3.421076e+02
3.400000e-07	-2.263068e-06	-5.196806e-09	-1.570338e+01	-3.400270e+02
3.500000e-07	-2.230270e-06	-5.177366e-09	-1.547580e+01	-3.379056e+02
3.600000e-07	-2.196673e-06	-5.097613e-09	-1.524266e+01	-3.357577e+02
3.700000e-07	-2.161897e-06	-5.132889e-09	-1.500136e+01	-3.335855e+02
3.800000e-07	-2.126032e-06	-5.090430e-09	-1.475249e+01	-3.313807e+02
3.900000e-07	-2.089524e-06	-4.986347e-09	-1.449916e+01	-3.291275e+02
4.000000e-07	-2.052426e-06	-5.016520e-09	-1.424173e+01	-3.268079e+02
4.100000e-07	-2.014632e-06	-5.002041e-09	-1.397948e+01	-3.244067e+02
4.200000e-07	-1.976113e-06	-4.893495e-09	-1.371220e+01	-3.219151e+02
4.300000e-07	-1.936774e-06	-4.870351e-09	-1.343923e+01	-3.193324e+02
4.400000e-07	-1.896765e-06	-4.858054e-09	-1.316161e+01	-3.166647e+02
4.500000e-07	-1.856382e-06	-4.804815e-09	-1.288139e+01	-3.139233e+02
4.600000e-07	-1.815662e-06	-4.757199e-09	-1.259884e+01	-3.111211e+02
4.700000e-07	-1.774228e-06	-4.707889e-09	-1.231132e+01	-3.082694e+02
4.800000e-07	-1.731654e-06	-4.662306e-09	-1.201591e+01	-3.053747e+02
4.900000e-07	-1.688035e-06	-4.629763e-09	-1.171324e+01	-3.024369e+02
5.000000e-07	-1.643817e-06	-4.583559e-09	-1.140641e+01	-2.994493e+02
5.100000e-07	-1.599249e-06	-4.522206e-09	-1.109715e+01	-2.963999e+02
5.200000e-07	-1.554258e-06	-4.477114e-09	-1.078496e+01	-2.932753e+02
5.300000e-07	-1.508685e-06	-4.432182e-09	-1.046873e+01	-2.900642e+02
5.400000e-07	-1.462485e-06	-4.387897e-09	-1.014815e+01	-2.867617e+02
5.500000e-07	-1.415769e-06	-4.332776e-09	-9.823986e+00	-2.833709e+02
5.600000e-07	-1.368624e-06	-4.264610e-09	-9.496854e+00	-2.799020e+02
5.700000e-07	-1.320944e-06	-4.213217e-09	-9.166001e+00	-2.763686e+02
5.800000e-07	-1.272826e-06	-4.176929e-09	-8.832108e+00	-2.727818e+02
5.900000e-07	-1.224420e-06	-4.116468e-09	-8.496221e+00	-2.691448e+02
6.000000e-07	-1.175637e-06	-4.041691e-09	-8.157715e+00	-2.654499e+02
6.100000e-07	-1.126308e-06	-3.986435e-09	-7.815427e+00	-2.616785e+02
6.200000e-07	-1.076354e-06	-3.933331e-09	-7.468793e+00	-2.578073e+02
6.300000e-07	-1.025796e-06	-3.873468e-09	-7.117976e+00	-2.538157e+02
6.400000e-07	-9.746322e-07	-3.803024e-09	-6.762950e+00	-2.496940e+02
6.500000e-07	-9.229541e-07	-3.732280e-09	-6.404358e+00	-2.454486e+02
6.600000e-07	-8.709257e-07	-3.671512e-09	-6.043334e+00	-2.411018e+02
6.700000e-07	-8.186387e-07	-3.612168e-09	-5.680516e+00	-2.366845e+02
6.800000e-07	-7.660714e-07	-3.541426e-09	-5.315752e+00	-2.322264e+02
6.900000e-07	-7.131985e-07	-3.463226e-09	-4.948868e+00	-2.277441e+02
7.000000e-07	-6.600591e-07	-3.393204e-09	-4.580135e+00	-2.232340e+02
7.100000e-07	-6.066845e-07	-3.328809e-09	-4.209770e+00	-2.186713e+02
7.200000e-07	-5.530880e-07	-3.260201e-09	-3.837865e+00	-2.140171e+02
7.300000e-07	-4.992867e-07	-3.180101e-09	-3.464539e+00	-2.092301e+02
7.400000e-07	-4.452659e-07	-3.098395e-09	-3.089690e+00	-2.042811e+02
7.500000e-07	-3.911243e-07	-3.022514e-09	-2.714003e+00	-1.991613e+02
7.600000e-07	-3.369094e-07	-2.945734e-09	-2.337806e+00	-1.938849e+02
7.700000e-07	-2.825918e-07	-2.859405e-09	-1.960898e+00	-1.884821e+02
7.800000e-07	-2.281666e-07	-2.771067e-09	-1.583243e+00	-1.829858e+02
7.900000e-07	-1.737006e-07	-2.691716e-09	-1.205305e+00	-1.774168e+02
8.000000e-07	-1.192458e-07	-2.610262e-09	-8.274436e-01	-1.717738e+02
8.100000e-07	-6.477098e-08	-2.518414e-09	-4.494444e-01	-1.660309e+02
8.200000e-07	-1.025557e-08	-2.420434e-09	-7.116317e-02	-1.601453e+02
8.300000e-07	4.425954e-08	-2.325267e-09	3.071160e-01	-1.540712e+02
8.400000e-07	9.873277e-08	-2.232117e-09	6.851045e-01	-1.477752e+02
8.500000e-07	1.531965e-07	-2.134849e-09	1.063027e+00	-1.412470e+02
8.600000e-07	2.076320e-07	-2.030219e-09	1.440754e+00	-1.345013e+02
8.700000e-07	2.620019e-07	-1.922071e-09	1.818025e+00	-1.275687e+02
8.800000e-07	3.163225e-07	-1.814561e-09	2.194955e+00	-1.204804e+02
8.900000e-07	3.705813e-07	-1.702456e-09	2.571455e+00	-1.132517e+02
9.000000e-07	4.246771e-07	-1.584416e-09	2.946825e+00	-1.058703e+02
9.100000e-07	4.786371e-07	-1.463849e-09	3.321252e+00	-9.829544e+01
9.200000e-07	5.324907e-07	-1.346023e-09	3.694941e+00	-9.046707e+01
9.300000e-07	5.860874e-07	-1.224982e-09	4.066847e+00	-8.232266e+01
9.400000e-07	6.393806e-07	-1.094826e-09	4.436647e+00	-7.381471e+01
9.500000e-07	6.924066e-07	-9.567746e-10	4.804594e+00	-6.492228e+01
9.600000e-07	7.451760e-07	-8.155786e-10	5.170759e+00	-5.565177e+01
9.700000e-07	7.977309e-07	-6.707841e-10	5.535437e+00	-4.602655e+01
9.800000e-07	8.500241e-07	-5.166879e-10	5.898298e+00	-3.606926e+01
9.900000e-07	9.019702e-07	-3.538385e-10	6.258751e+00	-2.578360e+01
1.000000e-06	9.535666e-07	-1.862356e-10	6.616777e+00	-1.514317e+01
1.010000e-06	1.004669e-06	-1.782645e-11	6.971374e+00	-4.091932e+00
1.020000e-06	1.055096e-06	1.561816e-10	7.321284e+00	7.442833e+00
1.030000e-06	1.104887e-06	3.395143e-10	7.666787e+00	1.952922e+01
1.040000e-06	1.154110e-06	5.342274e-10	8.008346e+00	3.220803e+01
1.050000e-06	1.202887e-06	7.380934e-10	8.346807e+00	4.547632e+01
1.060000e-06	1.251356e-06	9.493016e-10	8.683134e+00	5.928215e+01
1.070000e-06	1.299575e-06	1.169748e-09	9.017721e+00	7.353168e+01
1.080000e-06	1.347436e-06	1.393977e-09	9.349826e+00	8.810506e+01
1.090000e-06	1.394747e-06	1.616542e-09	9.678119e+00	1.028748e+02
1.100000e-06	1.441493e-06	1.837925e-09	1.000248e+01	1.177201e+02
1.110000e-06	1.487723e-06	2.062381e-09	1.032327e+01	1.325328e+02
1.120000e-06	1.533405e-06	2.286299e-09	1.064026e+01	1.472143e+02
1.130000e-06	1.578530e-06	2.504250e-09	1.095338e+01	1.616670e+02
1.140000e-06	1.623228e-06	2.715902e-09	1.126354e+01	1.757861e+02
1.150000e-06	1.667589e-06	2.923121e-09	1.157136e+01	1.894568e+02
1.160000e-06	1.711532e-06	3.123660e-09	1.187628e+01	2.025603e+02
1.170000e-06	1.754786e-06	3.313044e-09	1.217642e+01	2.149869e+02
1.180000e-06	1.797107e-06	3.487515e-09	1.247008e+01	2.266531e+02
1.190000e-06	1.838462e-06	3.647783e-09	1.275705e+01	2.375148e+02
1.200000e-06	1.879107e-06	3.801236e-09	1.303908e+01	2.475730e+02
1.210000e-06	1.919277e-06	3.945728e-09	1.331782e+01	2.568684e+02
1.220000e-06	1.958877e-06	4.074992e-09	1.359260e+01	2.654672e+02
1.230000e-06	1.997831e-06	4.191083e-09	1.386291e+01	2.734421e+02
1.240000e-06	2.036088e-06	4.302646e-09	1.412837e+01	2.808563e+02
1.250000e-06	2.073581e-06	4.410058e-09	1.438853e+01	2.877542e+02
1.260000e-06	2.110412e-06	4.508034e-09	1.464410e+01	2.941626e+02
1.270000e-06	2.146758e-06	4.594096e-09	1.489630e+01	3.000993e+02
1.280000e-06	2.182476e-06	4.672420e-09	1.514415e+01	3.055852e+02
1.290000e-06	2.217223e-06	4.748777e-09	1.538526e+01	3.106540e+02
1.300000e-06	2.250859e-06	4.821247e-09	1.561866e+01	3.153548e+02
1.310000e-06	2.283599e-06	4.886856e-09	1.584584e+01	3.197466e+02
1.320000e-06	2.315688e-06	4.946854e-09	1.606850e+01	3.238865e+02
1.330000e-06	2.347052e-06	5.006358e-09	1.628614e+01	3.278167e+02
1.340000e-06	2.377590e-06	5.063394e-09	1.649804e+01	3.315561e+02
1.350000e-06	2.407294e-06	5.111914e-09	1.670416e+01	3.350994e+02
1.360000e-06	2.436277e-06	5.154172e-09	1.690527e+01	3.384252e+02
1.370000e-06	2.464626e-06	5.198637e-09	1.710199e+01	3.415095e+02
1.380000e-06	2.492109e-06	5.246044e-09	1.729269e+01	3.443401e+02
1.390000e-06	2.518417e-06	5.287831e-09	1.747524e+01	3.469251e+02
1.400000e-06	2.543611e-06	5.320095e-09	1.765006e+01	3.492946e+02
1.410000e-06	2.567885e-06	5.347519e-09	1.781849e+01	3.514928e+02
1.420000e-06	2.591256e-06	5.377400e-09	1.798067e+01	3.535650e+02
1.430000e-06	2.613729e-06	5.408342e-09	1.813661e+01	3.555451e+02
1.440000e-06	2.635360e-06	5.433322e-09	1.828670e+01	3.574470e+02
1.450000e-06	2.656240e-06	5.455973e-09	1.843159e+01	3.592640e+02
1.460000e-06	2.676429e-06	5.483829e-09	1.857168e+01	3.609760e+02
1.470000e-06	2.695738e-06	5.513782e-09	1.870566e+01	3.625606e+02
1.480000e-06	2.713994e-06	5.537279e-09	1.883234e+01	3.640045e+02
1.490000e-06	2.731309e-06	5.554097e-09	1.895249e+01	3.653094e+02
1.500000e-06	2.747651e-06	5.568907e-09	1.906589e+01	3.664923e+02
1.510000e-06	2.762829e-06	5.583650e-09	1.917121e+01	3.675787e+02
1.520000e-06	2.776894e-06	5.596563e-09	1.926880e+01	3.685928e+02
1.530000e-06	2.789983e-06	5.607883e-09	1.935963e+01	3.695491e+02
1.540000e-06	2.802031e-06	5.622500e-09	1.944323e+01	3.704488e+02
1.550000e-06	2.812795e-06	5.639658e-09	1.951792e+01	3.712810e+02
1.560000e-06	2.822303e-06	5.654028e-09	1.958390e+01	3.720299e+02
1.570000e-06	2.830833e-06	5.662600e-09	1.964309e+01	3.726829e+02
1.580000e-06	2.838475e-06	5.667685e-09	1.969612e+01	3.732370e+02
1.590000e-06	2.845158e-06	5.674489e-09	1.974249e+01	3.737002e+02
1.600000e-06	2.850869e-06	5.681642e-09	1.978211e+01	3.740882e+02
1.610000e-06	2.855736e-06	5.685526e-09	1.981589e+01	3.744174e+02
1.620000e-06	2.859754e-06	5.688816e-09	1.984376e+01	3.746979e+02
1.630000e-06	2.862604e-06	5.695075e-09	1.986354e+01	3.749296e+02
1.640000e-06	2.864184e-06	5.702799e-09	1.987451e+01	3.751024e+02
1.650000e-06	2.864759e-06	5.706122e-09	1.987850e+01	3.752018e+02
1.660000e-06	2.864435e-06	5.703615e-09	1.987625e+01	3.752155e+02
1.670000e-06	2.863186e-06	5.699815e-09	1.986758e+01	3.751394e+02
1.680000e-06	2.861021e-06	5.699425e-09	1.985256e+01	3.749794e+02
1.690000e-06	2.858066e-06	5.698323e-09	1.983205e+01	3.747490e+02
1.700000e-06	2.854399e-06	5.691825e-09	1.980661e+01	3.744633e+02
1.710000e-06	2.849804e-06	5.686101e-09	1.977472e+01	3.741319e+02
1.720000e-06	2.843941e-06	5.693617e-09	1.973404e+01	3.737550e+02
1.730000e-06	2.836981e-06	5.705043e-09	1.968575e+01	3.733245e+02
1.740000e-06	2.829186e-06	5.631578e-09	1.963166e+01	3.728285e+02
1.750000e-06	2.820113e-06	5.554314e-09	1.956870e+01	3.722599e+02
1.760000e-06	2.809442e-06	5.641441e-09	1.949465e+01	3.716233e+02
1.770000e-06	2.797811e-06	5.753809e-09	1.941395e+01	3.709372e+02
1.780000e-06	2.786086e-06	5.653971e-09	1.933258e+01	3.702309e+02
1.790000e-06	2.773659e-06	5.482340e-09	1.924636e+01	3.695352e+02
1.800000e-06	2.759469e-06	5.622693e-09	1.914789e+01	3.688706e+02
1.810000e-06	2.744069e-06	5.702935e-09	1.904103e+01	3.682384e+02
1.820000e-06	2.728199e-06	5.482789e-09	1.893091e+01	3.676163e+02
1.830000e-06	2.711225e-06	5.518183e-09	1.881313e+01	3.669620e+02
1.840000e-06	2.692849e-06	5.709824e-09	1.868562e+01	3.662246e+02
1.850000e-06	2.673791e-06	5.535921e-09	1.855337e+01	3.653584e+02
1.860000e-06	2.654061e-06	5.431666e-09	1.841647e+01	3.643357e+02
1.870000e-06	2.633132e-06	5.649374e-09	1.827125e+01	3.631548e+02
1.880000e-06	2.611108e-06	5.530467e-09	1.811842e+01	3.618386e+02
1.890000e-06	2.588103e-06	5.324425e-09	1.795879e+01	3.604269e+02
1.900000e-06	2.564063e-06	5.501508e-09	1.779197e+01	3.589626e+02
1.910000e-06	2.539316e-06	5.515595e-09	1.762025e+01	3.574789e+02
1.920000e-06	2.513818e-06	5.358414e-09	1.744332e+01	3.559901e+02
1.930000e-06	2.487321e-06	5.402296e-09	1.725946e+01	3.544890e+02
1.940000e-06	2.460129e-06	5.377484e-09	1.707078e+01	3.529516e+02
1.950000e-06	2.432130e-06	5.337131e-09	1.687649e+01	3.513472e+02
1.960000e-06	2.402898e-06	5.340180e-09	1.667365e+01	3.496488e+02
1.970000e-06	2.372608e-06	5.225019e-09	1.646348e+01	3.478423e+02
1.980000e-06	2.341506e-06	5.256383e-09	1.624765e+01	3.459292e+02
1.990000e-06	2.309744e-06	5.305837e-09	1.602726e+01	3.439252e+02
2.000000e-06	2.277364e-06	5.150462e-09	1.580258e+01	3.418539e+02
2.010000e-06	2.244122e-06	5.167318e-09	1.557191e+01	3.397384e+02
2.020000e-06	2.210061e-06	5.182306e-09	1.533556e+01	3.375946e+02
2.030000e-06	2.175339e-06	5.025098e-09	1.509463e+01	3.354269e+02
2.040000e-06	2.139933e-06	5.075492e-09	1.484894e+01	3.332289e+02
2.050000e-06	2.103925e-06	5.080900e-09	1.459909e+01	3.309855e+02
2.060000e-06	2.067085e-06	4.942303e-09	1.434346e+01	3.286789e+02
2.070000e-06	2.029058e-06	4.968839e-09	1.407959e+01	3.262930e+02
2.080000e-06	1.990096e-06	4.954471e-09	1.380923e+01	3.238177e+02
2.090000e-06	1.950580e-06	4.862981e-09	1.353503e+01	3.212509e+02
2.100000e-06	1.910527e-06	4.843627e-09	1.325711e+01	3.185975e+02
2.110000e-06	1.869865e-06	4.788531e-09	1.297495e+01	3.158682e+02
2.120000e-06	1.828592e-06	4.754049e-09	1.268856e+01	3.130758e+02
2.130000e-06	1.786747e-06	4.729296e-09	1.239820e+01	3.102322e+02
2.140000e-06	1.744272e-06	4.660035e-09	1.210346e+01	3.073449e+02
2.150000e-06	1.701209e-06	4.631740e-09	1.180465e+01	3.044150e+02
2.160000e-06	1.657760e-06	4.589246e-09	1.150316e+01	3.014369e+02
2.170000e-06	1.613878e-06	4.539490e-09	1.119866e+01	2.983994e+02
2.180000e-06	1.569369e-06	4.497187e-09	1.088982e+01	2.952890e+02
2.190000e-06	1.524184e-06	4.433894e-09	1.057628e+01	2.920939e+02
2.200000e-06	1.478404e-06	4.382509e-09	1.025861e+01	2.888076e+02
2.210000e-06	1.432247e-06	4.340130e-09	9.938329e+00	2.854319e+02
2.220000e-06	1.385672e-06	4.302572e-09	9.615149e+00	2.819758e+02
2.230000e-06	1.338534e-06	4.247342e-09	9.288058e+00	2.784528e+02
2.240000e-06	1.290804e-06	4.174138e-09	8.956859e+00	2.748749e+02
2.250000e-06	1.242501e-06	4.130996e-09	8.621689e+00	2.712470e+02
2.260000e-06	1.193717e-06	4.080436e-09	8.283173e+00	2.675634e+02
2.270000e-06	1.144470e-06	4.009323e-09	7.941451e+00	2.638072e+02
2.280000e-06	1.094815e-06	3.954583e-09	7.596895e+00	2.599555e+02
2.290000e-06	1.044758e-06	3.896753e-09	7.249554e+00	2.559863e+02
2.300000e-06	9.942060e-07	3.845597e-09	6.898773e+00	2.518877e+02
2.310000e-06	9.432507e-07	3.786298e-09	6.545195e+00	2.476631e+02
2.320000e-06	8.920646e-07	3.709062e-09	6.190016e+00	2.433321e+02
2.330000e-06	8.406710e-07	3.642867e-09	5.833397e+00	2.389249e+02
2.340000e-06	7.890247e-07	3.575135e-09	5.475025e+00	2.344722e+02
2.350000e-06	7.369738e-07	3.509349e-09	5.113844e+00	2.299938e+02
2.360000e-06	6.844996e-07	3.439317e-09	4.749727e+00	2.254898e+02
2.370000e-06	6.316183e-07	3.364929e-09	4.382785e+00	2.209390e+02
2.380000e-06	5.783729e-07	3.302889e-09	4.013317e+00	2.163041e+02
2.390000e-06	5.247783e-07	3.238357e-09	3.641425e+00	2.115434e+02
2.400000e-06	4.707927e-07	3.164726e-09	3.266820e+00	2.066245e+02
2.410000e-06	4.165777e-07	3.082790e-09	2.890623e+00	2.015346e+02
2.420000e-06	3.621750e-07	2.999347e-09	2.513124e+00	1.962841e+02
2.430000e-06	3.074954e-07	2.922488e-09	2.133704e+00	1.909013e+02
2.440000e-06	2.526290e-07	2.838864e-09	1.752987e+00	1.854195e+02
2.450000e-06	1.976813e-07	2.747399e-09	1.371706e+00	1.798627e+02
2.460000e-06	1.427151e-07	2.661502e-09	9.902967e-01	1.742340e+02
2.470000e-06	8.775792e-08	2.582200e-09	6.089502e-01	1.685117e+02
2.480000e-06	3.276251e-08	2.503410e-09	2.273383e-01	1.626550e+02
2.490000e-06	-2.227516e-08	2.411154e-09	-1.545668e-01	1.566174e+02
2.500000e-06	-7.731959e-08	2.309701e-09	-5.365188e-01	1.503624e+02
2.510000e-06	-1.323265e-07	2.211723e-09	-9.182108e-01	1.438751e+02
2.520000e-06	-1.872597e-07	2.111767e-09	-1.299391e+00	1.371662e+02
2.530000e-06	-2.420960e-07	2.004686e-09	-1.679899e+00	1.302643e+02
2.540000e-06	-2.968360e-07	1.894127e-09	-2.059738e+00	1.232020e+02
2.550000e-06	-3.514951e-07	1.788285e-09	-2.439016e+00	1.159982e+02
2.560000e-06	-4.060168e-07	1.684495e-09	-2.817342e+00	1.086462e+02
2.570000e-06	-4.603048e-07	1.571939e-09	-3.194045e+00	1.011098e+02
2.580000e-06	-5.142901e-07	1.452096e-09	-3.568647e+00	9.333132e+01
2.590000e-06	-5.679582e-07	1.329979e-09	-3.941049e+00	8.524734e+01
2.600000e-06	-6.212830e-07	1.202648e-09	-4.311069e+00	7.680657e+01
2.610000e-06	-6.741956e-07	1.066558e-09	-4.678228e+00	6.798292e+01
2.620000e-06	-7.267055e-07	9.227643e-10	-5.042593e+00	5.877836e+01
2.630000e-06	-7.788257e-07	7.764670e-10	-5.404254e+00	4.921443e+01
2.640000e-06	-8.305346e-07	6.314278e-10	-5.763061e+00	3.931529e+01
2.650000e-06	-8.819120e-07	4.811724e-10	-6.119567e+00	2.908915e+01
2.660000e-06	-9.330746e-07	3.223347e-10	-6.474584e+00	1.851531e+01
2.670000e-06	-9.839773e-07	1.558163e-10	-6.827796e+00	7.542412e+00
2.680000e-06	-1.034511e-06	-1.735259e-11	-7.178450e+00	-3.900692e+00
2.690000e-06	-1.084616e-06	-1.985122e-10	-7.526123e+00	-1.588464e+01
2.700000e-06	-1.134293e-06	-3.915757e-10	-7.870831e+00	-2.845660e+01
2.710000e-06	-1.183540e-06	-5.955171e-10	-8.212559e+00	-4.162217e+01
2.720000e-06	-1.232249e-06	-8.065924e-10	-8.550549e+00	-5.533798e+01
2.730000e-06	-1.280231e-06	-1.021244e-09	-8.883493e+00	-6.951669e+01
2.740000e-06	-1.327464e-06	-1.240213e-09	-9.211240e+00	-8.404172e+01
2.750000e-06	-1.374047e-06	-1.464492e-09	-9.534482e+00	-9.878569e+01
2.760000e-06	-1.420104e-06	-1.690490e-09	-9.854072e+00	-1.136259e+02
2.770000e-06	-1.465812e-06	-1.915617e-09	-1.017123e+01	-1.284520e+02
2.780000e-06	-1.511199e-06	-2.142382e-09	-1.048618e+01	-1.431641e+02
2.790000e-06	-1.556189e-06	-2.369636e-09	-1.079836e+01	-1.576651e+02
2.800000e-06	-1.600658e-06	-2.591343e-09	-1.110693e+01	-1.718521e+02
2.810000e-06	-1.644535e-06	-2.802187e-09	-1.141139e+01	-1.856118e+02
2.820000e-06	-1.687984e-06	-3.004323e-09	-1.171288e+01	-1.988252e+02
2.830000e-06	-1.731094e-06	-3.197627e-09	-1.201202e+01	-2.113799e+02
2.840000e-06	-1.773644e-06	-3.377692e-09	-1.230728e+01	-2.231865e+02
2.850000e-06	-1.815554e-06	-3.544258e-09	-1.259809e+01	-2.341931e+02
2.860000e-06	-1.856856e-06	-3.699581e-09	-1.288468e+01	-2.443930e+02
2.870000e-06	-1.897506e-06	-3.847061e-09	-1.316675e+01	-2.538204e+02
2.880000e-06	-1.937501e-06	-3.986257e-09	-1.344427e+01	-2.625383e+02
2.890000e-06	-1.976949e-06	-4.113991e-09	-1.371800e+01	-2.706197e+02
2.900000e-06	-2.015868e-06	-4.230777e-09	-1.398806e+01	-2.781302e+02
2.910000e-06	-2.054040e-06	-4.338161e-09	-1.425294e+01	-2.851180e+02
2.920000e-06	-2.091170e-06	-4.435491e-09	-1.451058e+01	-2.916126e+02
2.930000e-06	-2.127252e-06	-4.524634e-09	-1.476095e+01	-2.976324e+02
2.940000e-06	-2.162646e-06	-4.610226e-09	-1.500655e+01	-3.031969e+02
