# Temperatura_=_25.5
# Concentracion g/m^3_=_13400.0
# C_Vs_to_Am_M_A/Vsm_=_65563218390.804596
# pendiente_HvsI_1/m_=_3716.3
# ordenada_HvsI_A/m_=_1297.0
# frecuencia_Hz_=_300845.55766009446

Tiempo_(s)	Campo_(V.s)	Magnetizacion_(V.s)	Campo_(kA/m)	Magnetizacion_(A/m)
0.000000e+00	-2.851667e-06	-5.709818e-09	-1.980444e+01	-3.737820e+02
1.000000e-08	-2.851316e-06	-5.709993e-09	-1.980200e+01	-3.737165e+02
2.000000e-08	-2.850220e-06	-5.710562e-09	-1.979439e+01	-3.735609e+02
3.000000e-08	-2.848025e-06	-5.705450e-09	-1.977915e+01	-3.733346e+02
4.000000e-08	-2.844575e-06	-5.701045e-09	-1.975519e+01	-3.730582e+02
5.000000e-08	-2.840159e-06	-5.698232e-09	-1.972451e+01	-3.727461e+02
6.000000e-08	-2.834990e-06	-5.688576e-09	-1.968862e+01	-3.724009e+02
7.000000e-08	-2.828963e-06	-5.664173e-09	-1.964676e+01	-3.720129e+02
8.000000e-08	-2.821931e-06	-5.648291e-09	-1.959792e+01	-3.715645e+02
9.000000e-08	-2.813793e-06	-5.705410e-09	-1.954141e+01	-3.710386e+02
1.000000e-07	-2.804391e-06	-5.776773e-09	-1.947611e+01	-3.704261e+02
1.100000e-07	-2.793582e-06	-5.692437e-09	-1.940105e+01	-3.697313e+02
1.200000e-07	-2.781669e-06	-5.487639e-09	-1.931832e+01	-3.689716e+02
1.300000e-07	-2.769055e-06	-5.558659e-09	-1.923071e+01	-3.681725e+02
1.400000e-07	-2.755548e-06	-5.761049e-09	-1.913690e+01	-3.673577e+02
1.500000e-07	-2.740977e-06	-5.629000e-09	-1.903571e+01	-3.665408e+02
1.600000e-07	-2.725345e-06	-5.434143e-09	-1.892715e+01	-3.657192e+02
1.700000e-07	-2.708391e-06	-5.650939e-09	-1.880941e+01	-3.648738e+02
1.800000e-07	-2.690242e-06	-5.714497e-09	-1.868336e+01	-3.639750e+02
1.900000e-07	-2.671457e-06	-5.429553e-09	-1.855291e+01	-3.629918e+02
2.000000e-07	-2.651998e-06	-5.517742e-09	-1.841777e+01	-3.619018e+02
2.100000e-07	-2.631590e-06	-5.631136e-09	-1.827603e+01	-3.606984e+02
2.200000e-07	-2.610305e-06	-5.397866e-09	-1.812822e+01	-3.593920e+02
2.300000e-07	-2.588244e-06	-5.418893e-09	-1.797501e+01	-3.580058e+02
2.400000e-07	-2.565244e-06	-5.611442e-09	-1.781527e+01	-3.565669e+02
2.500000e-07	-2.541285e-06	-5.441183e-09	-1.764888e+01	-3.550972e+02
2.600000e-07	-2.516610e-06	-5.327844e-09	-1.747751e+01	-3.536058e+02
2.700000e-07	-2.491095e-06	-5.423517e-09	-1.730032e+01	-3.520873e+02
2.800000e-07	-2.464405e-06	-5.394188e-09	-1.711496e+01	-3.505245e+02
2.900000e-07	-2.436586e-06	-5.314430e-09	-1.692176e+01	-3.488960e+02
3.000000e-07	-2.407882e-06	-5.305948e-09	-1.672241e+01	-3.471843e+02
3.100000e-07	-2.378417e-06	-5.286283e-09	-1.651778e+01	-3.453830e+02
3.200000e-07	-2.348269e-06	-5.306868e-09	-1.630841e+01	-3.434985e+02
3.300000e-07	-2.317408e-06	-5.262967e-09	-1.609408e+01	-3.415481e+02
3.400000e-07	-2.285739e-06	-5.151725e-09	-1.587415e+01	-3.395533e+02
3.500000e-07	-2.253350e-06	-5.181904e-09	-1.564921e+01	-3.375326e+02
3.600000e-07	-2.220313e-06	-5.143065e-09	-1.541977e+01	-3.354947e+02
3.700000e-07	-2.186365e-06	-5.075456e-09	-1.518401e+01	-3.334363e+02
3.800000e-07	-2.151269e-06	-5.114689e-09	-1.494027e+01	-3.313434e+02
3.900000e-07	-2.115204e-06	-5.050786e-09	-1.468981e+01	-3.291961e+02
4.000000e-07	-2.078536e-06	-4.949590e-09	-1.443515e+01	-3.269753e+02
4.100000e-07	-2.041245e-06	-4.992828e-09	-1.417617e+01	-3.246684e+02
4.200000e-07	-2.003235e-06	-4.963452e-09	-1.391219e+01	-3.222723e+02
4.300000e-07	-1.964524e-06	-4.851908e-09	-1.364335e+01	-3.197929e+02
4.400000e-07	-1.925051e-06	-4.841870e-09	-1.336922e+01	-3.172418e+02
4.500000e-07	-1.884950e-06	-4.832689e-09	-1.309072e+01	-3.146313e+02
4.600000e-07	-1.844474e-06	-4.783330e-09	-1.280962e+01	-3.119700e+02
4.700000e-07	-1.803631e-06	-4.729558e-09	-1.252597e+01	-3.092597e+02
4.800000e-07	-1.761990e-06	-4.678249e-09	-1.223678e+01	-3.064958e+02
4.900000e-07	-1.719251e-06	-4.633173e-09	-1.193997e+01	-3.036693e+02
5.000000e-07	-1.675553e-06	-4.605460e-09	-1.163649e+01	-3.007707e+02
5.100000e-07	-1.631280e-06	-4.559387e-09	-1.132902e+01	-2.977933e+02
5.200000e-07	-1.586670e-06	-4.500403e-09	-1.101921e+01	-2.947360e+02
5.300000e-07	-1.541572e-06	-4.454423e-09	-1.070601e+01	-2.916030e+02
5.400000e-07	-1.495847e-06	-4.409453e-09	-1.038845e+01	-2.884022e+02
5.500000e-07	-1.449557e-06	-4.366922e-09	-1.006698e+01	-2.851417e+02
5.600000e-07	-1.402775e-06	-4.308892e-09	-9.742079e+00	-2.818270e+02
5.700000e-07	-1.355497e-06	-4.244064e-09	-9.413745e+00	-2.784576e+02
5.800000e-07	-1.307755e-06	-4.193527e-09	-9.082177e+00	-2.750268e+02
5.900000e-07	-1.259579e-06	-4.159343e-09	-8.747603e+00	-2.715227e+02
6.000000e-07	-1.211040e-06	-4.098051e-09	-8.410508e+00	-2.679305e+02
6.100000e-07	-1.162118e-06	-4.025737e-09	-8.070749e+00	-2.642371e+02
6.200000e-07	-1.112621e-06	-3.973995e-09	-7.727001e+00	-2.604336e+02
6.300000e-07	-1.062472e-06	-3.922321e-09	-7.378722e+00	-2.565183e+02
6.400000e-07	-1.011735e-06	-3.857432e-09	-7.026358e+00	-2.524967e+02
6.500000e-07	-9.604531e-07	-3.781940e-09	-6.670216e+00	-2.483803e+02
6.600000e-07	-9.086841e-07	-3.717168e-09	-6.310688e+00	-2.441823e+02
6.700000e-07	-8.565443e-07	-3.660610e-09	-5.948583e+00	-2.399145e+02
6.800000e-07	-8.041784e-07	-3.601302e-09	-5.584909e+00	-2.355830e+02
6.900000e-07	-7.515985e-07	-3.527506e-09	-5.219749e+00	-2.311860e+02
7.000000e-07	-6.987271e-07	-3.452716e-09	-4.852565e+00	-2.267140e+02
7.100000e-07	-6.455588e-07	-3.385697e-09	-4.483318e+00	-2.221521e+02
7.200000e-07	-5.921741e-07	-3.317294e-09	-4.112569e+00	-2.174840e+02
7.300000e-07	-5.386423e-07	-3.241205e-09	-3.740797e+00	-2.126964e+02
7.400000e-07	-4.848958e-07	-3.159425e-09	-3.367535e+00	-2.077822e+02
7.500000e-07	-4.309009e-07	-3.084055e-09	-2.992548e+00	-2.027417e+02
7.600000e-07	-3.767599e-07	-3.010416e-09	-2.616546e+00	-1.975810e+02
7.700000e-07	-3.225481e-07	-2.931396e-09	-2.240053e+00	-1.923084e+02
7.800000e-07	-2.682555e-07	-2.841778e-09	-1.862998e+00	-1.869294e+02
7.900000e-07	-2.138864e-07	-2.754556e-09	-1.485412e+00	-1.814431e+02
8.000000e-07	-1.594856e-07	-2.674751e-09	-1.107606e+00	-1.758403e+02
8.100000e-07	-1.050545e-07	-2.589681e-09	-7.295889e-01	-1.701052e+02
8.200000e-07	-5.057096e-08	-2.493895e-09	-3.512084e-01	-1.642188e+02
8.300000e-07	3.928155e-09	-2.394576e-09	2.728050e-02	-1.581641e+02
8.400000e-07	5.843482e-08	-2.299695e-09	4.058219e-01	-1.519308e+02
8.500000e-07	1.129315e-07	-2.203856e-09	7.842939e-01	-1.455170e+02
8.600000e-07	1.673694e-07	-2.103071e-09	1.162358e+00	-1.389274e+02
8.700000e-07	2.217578e-07	-1.996889e-09	1.540078e+00	-1.321696e+02
8.800000e-07	2.760963e-07	-1.891379e-09	1.917452e+00	-1.252473e+02
8.900000e-07	3.303948e-07	-1.785697e-09	2.294547e+00	-1.181554e+02
9.000000e-07	3.846093e-07	-1.673947e-09	2.671060e+00	-1.108774e+02
9.100000e-07	4.386639e-07	-1.554002e-09	3.046461e+00	-1.033863e+02
9.200000e-07	4.925750e-07	-1.430864e-09	3.420867e+00	-9.564948e+01
9.300000e-07	5.463096e-07	-1.309644e-09	3.794046e+00	-8.763508e+01
9.400000e-07	5.997886e-07	-1.184572e-09	4.165450e+00	-7.931813e+01
9.500000e-07	6.530116e-07	-1.053569e-09	4.535076e+00	-7.068342e+01
9.600000e-07	7.059849e-07	-9.146213e-10	4.902969e+00	-6.172443e+01
9.700000e-07	7.587213e-07	-7.729022e-10	5.269216e+00	-5.243832e+01
9.800000e-07	8.112215e-07	-6.283754e-10	5.633823e+00	-4.281880e+01
9.900000e-07	8.634547e-07	-4.754254e-10	5.996575e+00	-3.284964e+01
1.000000e-06	9.153747e-07	-3.119710e-10	6.357153e+00	-2.250146e+01
1.010000e-06	9.668528e-07	-1.411503e-10	6.714661e+00	-1.173336e+01
1.020000e-06	1.017751e-06	3.072324e-11	7.068145e+00	-4.994389e-01
1.030000e-06	1.067988e-06	2.058786e-10	7.417029e+00	1.124154e+01
1.040000e-06	1.117546e-06	3.893738e-10	7.761208e+00	2.351589e+01
1.050000e-06	1.166526e-06	5.863993e-10	8.101366e+00	3.632693e+01
1.060000e-06	1.215111e-06	7.924786e-10	8.438779e+00	4.965108e+01
1.070000e-06	1.263458e-06	1.003518e-09	8.774540e+00	6.343837e+01
1.080000e-06	1.311487e-06	1.219547e-09	9.108100e+00	7.761640e+01
1.090000e-06	1.359037e-06	1.441217e-09	9.438325e+00	9.209588e+01
1.100000e-06	1.406128e-06	1.665356e-09	9.765366e+00	1.067756e+02
1.110000e-06	1.452747e-06	1.888157e-09	1.008913e+01	1.215457e+02
1.120000e-06	1.498792e-06	2.109460e-09	1.040891e+01	1.362894e+02
1.130000e-06	1.544268e-06	2.328270e-09	1.072473e+01	1.508843e+02
1.140000e-06	1.589274e-06	2.546739e-09	1.103729e+01	1.652042e+02
1.150000e-06	1.633905e-06	2.760584e-09	1.134724e+01	1.791241e+02
1.160000e-06	1.678166e-06	2.963201e-09	1.165464e+01	1.925271e+02
1.170000e-06	1.721941e-06	3.152958e-09	1.195865e+01	2.053130e+02
1.180000e-06	1.764931e-06	3.334462e-09	1.225720e+01	2.174064e+02
1.190000e-06	1.806887e-06	3.507863e-09	1.254859e+01	2.287615e+02
1.200000e-06	1.847971e-06	3.669837e-09	1.283391e+01	2.393631e+02
1.210000e-06	1.888499e-06	3.819737e-09	1.311537e+01	2.492224e+02
1.220000e-06	1.928548e-06	3.957946e-09	1.339350e+01	2.583694e+02
1.230000e-06	1.967981e-06	4.087483e-09	1.366736e+01	2.668445e+02
1.240000e-06	2.006693e-06	4.205896e-09	1.393621e+01	2.746909e+02
1.250000e-06	2.044718e-06	4.312653e-09	1.420029e+01	2.819511e+02
1.260000e-06	2.082023e-06	4.411631e-09	1.445937e+01	2.886659e+02
1.270000e-06	2.118687e-06	4.507588e-09	1.471399e+01	2.948765e+02
1.280000e-06	2.154854e-06	4.597738e-09	1.496516e+01	3.006271e+02
1.290000e-06	2.190295e-06	4.676897e-09	1.521130e+01	3.059658e+02
1.300000e-06	2.224712e-06	4.748304e-09	1.545032e+01	3.109424e+02
1.310000e-06	2.258062e-06	4.817768e-09	1.568194e+01	3.156046e+02
1.320000e-06	2.290599e-06	4.883912e-09	1.590790e+01	3.199918e+02
1.330000e-06	2.322475e-06	4.944312e-09	1.612927e+01	3.241315e+02
1.340000e-06	2.353591e-06	5.001790e-09	1.634537e+01	3.280378e+02
1.350000e-06	2.383925e-06	5.056900e-09	1.655603e+01	3.317138e+02
1.360000e-06	2.413460e-06	5.107122e-09	1.676115e+01	3.351575e+02
1.370000e-06	2.442255e-06	5.151171e-09	1.696113e+01	3.383687e+02
1.380000e-06	2.470383e-06	5.193128e-09	1.715648e+01	3.413543e+02
1.390000e-06	2.497569e-06	5.235767e-09	1.734527e+01	3.441307e+02
1.400000e-06	2.523556e-06	5.275820e-09	1.752575e+01	3.467214e+02
1.410000e-06	2.548455e-06	5.309077e-09	1.769868e+01	3.491517e+02
1.420000e-06	2.572438e-06	5.338322e-09	1.786523e+01	3.514431e+02
1.430000e-06	2.595549e-06	5.369486e-09	1.802573e+01	3.536079e+02
1.440000e-06	2.617821e-06	5.402408e-09	1.818041e+01	3.556486e+02
1.450000e-06	2.639271e-06	5.431023e-09	1.832938e+01	3.575602e+02
1.460000e-06	2.659941e-06	5.452967e-09	1.847293e+01	3.593365e+02
1.470000e-06	2.679891e-06	5.475759e-09	1.861148e+01	3.609754e+02
1.480000e-06	2.698882e-06	5.501555e-09	1.874337e+01	3.624832e+02
1.490000e-06	2.716815e-06	5.525094e-09	1.886791e+01	3.638750e+02
1.500000e-06	2.733787e-06	5.541965e-09	1.898578e+01	3.651704e+02
1.510000e-06	2.749703e-06	5.555897e-09	1.909631e+01	3.663875e+02
1.520000e-06	2.764499e-06	5.574936e-09	1.919907e+01	3.675371e+02
1.530000e-06	2.778246e-06	5.595353e-09	1.929454e+01	3.686193e+02
1.540000e-06	2.791037e-06	5.609865e-09	1.938337e+01	3.696240e+02
1.550000e-06	2.802768e-06	5.620825e-09	1.946484e+01	3.705365e+02
1.560000e-06	2.813215e-06	5.634397e-09	1.953740e+01	3.713439e+02
1.570000e-06	2.822448e-06	5.649233e-09	1.960152e+01	3.720414e+02
1.580000e-06	2.830713e-06	5.660894e-09	1.965892e+01	3.726355e+02
1.590000e-06	2.838097e-06	5.667898e-09	1.971020e+01	3.731425e+02
1.600000e-06	2.844512e-06	5.673505e-09	1.975475e+01	3.735826e+02
1.610000e-06	2.849972e-06	5.680182e-09	1.979267e+01	3.739726e+02
1.620000e-06	2.854630e-06	5.686538e-09	1.982501e+01	3.743198e+02
1.630000e-06	2.858372e-06	5.690432e-09	1.985101e+01	3.746191e+02
1.640000e-06	2.860831e-06	5.693612e-09	1.986809e+01	3.748552e+02
1.650000e-06	2.862038e-06	5.698665e-09	1.987647e+01	3.750092e+02
1.660000e-06	2.862331e-06	5.704504e-09	1.987850e+01	3.750664e+02
1.670000e-06	2.861734e-06	5.705560e-09	1.987436e+01	3.750220e+02
1.680000e-06	2.860236e-06	5.699304e-09	1.986395e+01	3.748844e+02
1.690000e-06	2.857856e-06	5.693753e-09	1.984742e+01	3.746714e+02
1.700000e-06	2.854673e-06	5.691171e-09	1.982532e+01	3.744042e+02
1.710000e-06	2.850729e-06	5.687226e-09	1.979793e+01	3.740991e+02
1.720000e-06	2.845786e-06	5.684987e-09	1.976360e+01	3.737615e+02
1.730000e-06	2.839675e-06	5.701966e-09	1.972115e+01	3.733840e+02
1.740000e-06	2.832572e-06	5.702750e-09	1.967182e+01	3.729502e+02
1.750000e-06	2.824516e-06	5.600540e-09	1.961588e+01	3.724420e+02
1.760000e-06	2.815088e-06	5.534031e-09	1.955040e+01	3.718482e+02
1.770000e-06	2.804096e-06	5.666389e-09	1.947406e+01	3.711699e+02
1.780000e-06	2.792293e-06	5.797246e-09	1.939210e+01	3.704223e+02
1.790000e-06	2.780375e-06	5.608712e-09	1.930933e+01	3.696294e+02
1.800000e-06	2.767561e-06	5.445554e-09	1.922034e+01	3.688163e+02
1.810000e-06	2.753035e-06	5.666046e-09	1.911946e+01	3.679995e+02
1.820000e-06	2.737467e-06	5.682530e-09	1.901134e+01	3.671801e+02
1.830000e-06	2.721386e-06	5.414505e-09	1.889966e+01	3.663421e+02
1.840000e-06	2.704110e-06	5.520319e-09	1.877968e+01	3.654575e+02
1.850000e-06	2.685545e-06	5.734423e-09	1.865075e+01	3.644947e+02
1.860000e-06	2.666373e-06	5.473249e-09	1.851759e+01	3.634287e+02
1.870000e-06	2.646414e-06	5.399003e-09	1.837899e+01	3.622493e+02
1.880000e-06	2.625202e-06	5.678403e-09	1.823167e+01	3.609634e+02
1.890000e-06	2.602977e-06	5.468918e-09	1.807732e+01	3.595920e+02
1.900000e-06	2.579790e-06	5.262528e-09	1.791629e+01	3.581622e+02
1.910000e-06	2.555567e-06	5.519282e-09	1.774807e+01	3.566979e+02
1.920000e-06	2.530602e-06	5.486273e-09	1.757469e+01	3.552112e+02
1.930000e-06	2.504808e-06	5.318761e-09	1.739555e+01	3.536997e+02
1.940000e-06	2.478082e-06	5.387982e-09	1.720994e+01	3.521482e+02
1.950000e-06	2.450700e-06	5.351353e-09	1.701978e+01	3.505354e+02
1.960000e-06	2.422499e-06	5.311380e-09	1.682393e+01	3.488426e+02
1.970000e-06	2.393036e-06	5.304228e-09	1.661931e+01	3.470604e+02
1.980000e-06	2.362533e-06	5.181112e-09	1.640747e+01	3.451926e+02
1.990000e-06	2.331335e-06	5.230358e-09	1.619080e+01	3.432545e+02
2.000000e-06	2.299486e-06	5.268442e-09	1.596961e+01	3.412675e+02
2.010000e-06	2.266871e-06	5.104726e-09	1.574311e+01	3.392512e+02
2.020000e-06	2.233344e-06	5.150923e-09	1.551027e+01	3.372169e+02
2.030000e-06	2.199050e-06	5.144105e-09	1.527210e+01	3.351638e+02
2.040000e-06	2.164210e-06	4.977505e-09	1.503014e+01	3.330799e+02
2.050000e-06	2.128752e-06	5.061598e-09	1.478389e+01	3.309460e+02
2.060000e-06	2.092568e-06	5.058249e-09	1.453260e+01	3.287423e+02
2.070000e-06	2.055462e-06	4.904007e-09	1.427490e+01	3.264545e+02
2.080000e-06	2.017193e-06	4.939440e-09	1.400913e+01	3.240773e+02
2.090000e-06	1.978090e-06	4.927787e-09	1.373757e+01	3.216149e+02
2.100000e-06	1.938492e-06	4.839711e-09	1.346257e+01	3.190781e+02
2.110000e-06	1.898300e-06	4.816937e-09	1.318344e+01	3.164795e+02
2.120000e-06	1.857472e-06	4.759975e-09	1.289989e+01	3.138286e+02
2.130000e-06	1.816084e-06	4.740882e-09	1.261245e+01	3.111290e+02
2.140000e-06	1.774150e-06	4.714780e-09	1.232123e+01	3.083773e+02
2.150000e-06	1.731572e-06	4.640845e-09	1.202553e+01	3.055651e+02
2.160000e-06	1.688437e-06	4.610050e-09	1.172597e+01	3.026826e+02
2.170000e-06	1.644898e-06	4.564333e-09	1.142359e+01	2.997225e+02
2.180000e-06	1.600806e-06	4.523932e-09	1.111738e+01	2.966822e+02
2.190000e-06	1.556101e-06	4.487707e-09	1.080691e+01	2.935648e+02
2.200000e-06	1.510760e-06	4.425066e-09	1.049202e+01	2.903778e+02
2.210000e-06	1.464851e-06	4.369484e-09	1.017319e+01	2.871295e+02
2.220000e-06	1.418559e-06	4.325343e-09	9.851700e+00	2.838262e+02
2.230000e-06	1.371875e-06	4.287469e-09	9.527488e+00	2.804689e+02
2.240000e-06	1.324633e-06	4.228930e-09	9.199398e+00	2.770522e+02
2.250000e-06	1.276736e-06	4.157251e-09	8.866757e+00	2.735650e+02
2.260000e-06	1.228289e-06	4.125338e-09	8.530298e+00	2.699930e+02
2.270000e-06	1.179436e-06	4.079366e-09	8.191020e+00	2.663222e+02
2.280000e-06	1.130152e-06	4.001584e-09	7.848755e+00	2.625427e+02
2.290000e-06	1.080445e-06	3.941892e-09	7.503543e+00	2.586511e+02
2.300000e-06	1.030338e-06	3.884826e-09	7.155559e+00	2.546516e+02
2.310000e-06	9.798026e-07	3.837107e-09	6.804596e+00	2.505543e+02
2.320000e-06	9.289191e-07	3.773326e-09	6.451217e+00	2.463728e+02
2.330000e-06	8.777399e-07	3.694298e-09	6.095784e+00	2.421192e+02
2.340000e-06	8.263229e-07	3.632202e-09	5.738700e+00	2.378013e+02
2.350000e-06	7.746493e-07	3.569552e-09	5.379834e+00	2.334189e+02
2.360000e-06	7.225994e-07	3.505532e-09	5.018355e+00	2.289641e+02
2.370000e-06	6.701610e-07	3.432581e-09	4.654177e+00	2.244229e+02
2.380000e-06	6.172741e-07	3.357727e-09	4.286884e+00	2.197788e+02
2.390000e-06	5.639435e-07	3.294937e-09	3.916511e+00	2.150177e+02
2.400000e-06	5.103013e-07	3.226099e-09	3.543973e+00	2.101308e+02
2.410000e-06	4.562958e-07	3.145312e-09	3.168912e+00	2.051170e+02
2.420000e-06	4.020359e-07	3.060524e-09	2.792085e+00	1.999815e+02
2.430000e-06	3.475881e-07	2.981000e-09	2.413952e+00	1.947322e+02
2.440000e-06	2.929363e-07	2.910742e-09	2.034403e+00	1.893759e+02
2.450000e-06	2.381522e-07	2.828716e-09	1.653935e+00	1.839130e+02
2.460000e-06	1.832643e-07	2.735122e-09	1.272746e+00	1.783364e+02
2.470000e-06	1.283374e-07	2.649048e-09	8.912861e-01	1.726313e+02
2.480000e-06	7.339093e-08	2.568094e-09	5.096900e-01	1.667788e+02
2.490000e-06	1.840190e-08	2.483047e-09	1.277987e-01	1.607614e+02
2.500000e-06	-3.660139e-08	2.384069e-09	-2.541916e-01	1.545669e+02
2.510000e-06	-9.159029e-08	2.284063e-09	-6.360821e-01	1.481915e+02
2.520000e-06	-1.465375e-07	2.191543e-09	-1.017683e+00	1.416390e+02
2.530000e-06	-2.014123e-07	2.091249e-09	-1.398781e+00	1.349167e+02
2.540000e-06	-2.562558e-07	1.980116e-09	-1.779662e+00	1.280297e+02
2.550000e-06	-3.110030e-07	1.868283e-09	-2.159874e+00	1.209752e+02
2.560000e-06	-3.655424e-07	1.762516e-09	-2.538643e+00	1.137391e+02
2.570000e-06	-4.198762e-07	1.655868e-09	-2.915983e+00	1.062963e+02
2.580000e-06	-4.739511e-07	1.540563e-09	-3.291526e+00	9.861494e+01
2.590000e-06	-5.277201e-07	1.418255e-09	-3.664945e+00	9.066245e+01
2.600000e-06	-5.812289e-07	1.293642e-09	-4.036555e+00	8.241197e+01
2.610000e-06	-6.343293e-07	1.163382e-09	-4.405331e+00	7.384616e+01
2.620000e-06	-6.869803e-07	1.024807e-09	-4.770984e+00	6.495695e+01
2.630000e-06	-7.392764e-07	8.802295e-10	-5.134174e+00	5.574126e+01
2.640000e-06	-7.911893e-07	7.346394e-10	-5.494702e+00	4.619415e+01
2.650000e-06	-8.427823e-07	5.910775e-10	-5.853009e+00	3.630194e+01
2.660000e-06	-8.941539e-07	4.404231e-10	-6.209777e+00	2.603812e+01
2.670000e-06	-9.452549e-07	2.781352e-10	-6.564666e+00	1.536386e+01
2.680000e-06	-9.959905e-07	1.075071e-10	-6.917018e+00	4.233565e+00
2.690000e-06	-1.046308e-06	-6.841793e-11	-7.266467e+00	-7.395876e+00
2.700000e-06	-1.096202e-06	-2.550772e-10	-7.612971e+00	-1.955475e+01
2.710000e-06	-1.145680e-06	-4.543988e-10	-7.956590e+00	-3.225182e+01
2.720000e-06	-1.194769e-06	-6.591692e-10	-8.297505e+00	-4.546935e+01
2.730000e-06	-1.243322e-06	-8.655272e-10	-8.634699e+00	-5.916278e+01
2.740000e-06	-1.291078e-06	-1.077757e-09	-8.966364e+00	-7.326409e+01
2.750000e-06	-1.338132e-06	-1.297881e-09	-9.293143e+00	-8.768713e+01
2.760000e-06	-1.384584e-06	-1.521770e-09	-9.615745e+00	-1.023329e+02
2.770000e-06	-1.430525e-06	-1.746512e-09	-9.934803e+00	-1.170932e+02
2.780000e-06	-1.476139e-06	-1.971581e-09	-1.025159e+01	-1.318527e+02
2.790000e-06	-1.521437e-06	-2.198932e-09	-1.056617e+01	-1.464900e+02
2.800000e-06	-1.566300e-06	-2.424661e-09	-1.087774e+01	-1.608794e+02
2.810000e-06	-1.610624e-06	-2.642573e-09	-1.118557e+01	-1.748953e+02
2.820000e-06	-1.654391e-06	-2.848803e-09	-1.148952e+01	-1.884182e+02
2.830000e-06	-1.697716e-06	-3.043431e-09	-1.179041e+01	-2.013436e+02
2.840000e-06	-1.740674e-06	-3.228653e-09	-1.208875e+01	-2.135903e+02
2.850000e-06	-1.783113e-06	-3.405359e-09	-1.238348e+01	-2.251058e+02
2.860000e-06	-1.824881e-06	-3.571660e-09	-1.267355e+01	-2.358688e+02
2.870000e-06	-1.866010e-06	-3.725721e-09	-1.295919e+01	-2.458851e+02
2.880000e-06	-1.906459e-06	-3.870735e-09	-1.324010e+01	-2.551816e+02
2.890000e-06	-1.946250e-06	-4.007200e-09	-1.351644e+01	-2.637970e+02
2.900000e-06	-1.985570e-06	-4.132223e-09	-1.378951e+01	-2.717745e+02
2.910000e-06	-2.024267e-06	-4.244487e-09	-1.405826e+01	-2.791568e+02
2.920000e-06	-2.062070e-06	-4.346080e-09	-1.432080e+01	-2.859850e+02
2.930000e-06	-2.098822e-06	-4.440837e-09	-1.457604e+01	-2.923000e+02
2.940000e-06	-2.134655e-06	-4.531755e-09	-1.482489e+01	-2.981453e+02
