# Temperatura_=_28.75
# Concentracion g/m^3_=_13400.0
# C_Vs_to_Am_M_A/Vsm_=_65563218390.804596
# pendiente_HvsI_1/m_=_3716.3
# ordenada_HvsI_A/m_=_1297.0
# frecuencia_Hz_=_300847.72419929237

Tiempo_(s)	Campo_(V.s)	Magnetizacion_(V.s)	Campo_(kA/m)	Magnetizacion_(A/m)
0.000000e+00	-2.851944e-06	-5.740277e-09	-1.980230e+01	-3.746449e+02
1.000000e-08	-2.851148e-06	-5.738918e-09	-1.979677e+01	-3.745202e+02
2.000000e-08	-2.849306e-06	-5.738168e-09	-1.978398e+01	-3.743522e+02
3.000000e-08	-2.846172e-06	-5.735252e-09	-1.976222e+01	-3.741529e+02
4.000000e-08	-2.842019e-06	-5.730988e-09	-1.973338e+01	-3.739202e+02
5.000000e-08	-2.837109e-06	-5.725267e-09	-1.969929e+01	-3.736371e+02
6.000000e-08	-2.831342e-06	-5.715622e-09	-1.965925e+01	-3.732790e+02
7.000000e-08	-2.824626e-06	-5.698758e-09	-1.961261e+01	-3.728232e+02
8.000000e-08	-2.816884e-06	-5.712588e-09	-1.955886e+01	-3.722602e+02
9.000000e-08	-2.807931e-06	-5.747049e-09	-1.949670e+01	-3.716006e+02
1.000000e-07	-2.797547e-06	-5.734848e-09	-1.942459e+01	-3.708743e+02
1.100000e-07	-2.785938e-06	-5.611944e-09	-1.934399e+01	-3.701240e+02
1.200000e-07	-2.773591e-06	-5.594332e-09	-1.925825e+01	-3.693915e+02
1.300000e-07	-2.760457e-06	-5.711064e-09	-1.916706e+01	-3.687044e+02
1.400000e-07	-2.746297e-06	-5.693399e-09	-1.906874e+01	-3.680663e+02
1.500000e-07	-2.731172e-06	-5.552113e-09	-1.896372e+01	-3.674538e+02
1.600000e-07	-2.714750e-06	-5.625095e-09	-1.884970e+01	-3.668225e+02
1.700000e-07	-2.696990e-06	-5.711901e-09	-1.872638e+01	-3.661197e+02
1.800000e-07	-2.678459e-06	-5.535524e-09	-1.859771e+01	-3.652993e+02
1.900000e-07	-2.659197e-06	-5.524429e-09	-1.846397e+01	-3.643342e+02
2.000000e-07	-2.639039e-06	-5.620371e-09	-1.832400e+01	-3.632225e+02
2.100000e-07	-2.618083e-06	-5.493418e-09	-1.817850e+01	-3.619851e+02
2.200000e-07	-2.596349e-06	-5.445891e-09	-1.802759e+01	-3.606570e+02
2.300000e-07	-2.573603e-06	-5.580434e-09	-1.786965e+01	-3.592745e+02
2.400000e-07	-2.549868e-06	-5.502829e-09	-1.770485e+01	-3.578636e+02
2.500000e-07	-2.525386e-06	-5.395601e-09	-1.753486e+01	-3.564330e+02
2.600000e-07	-2.500107e-06	-5.434368e-09	-1.735934e+01	-3.549743e+02
2.700000e-07	-2.473753e-06	-5.413022e-09	-1.717635e+01	-3.534673e+02
2.800000e-07	-2.446308e-06	-5.348386e-09	-1.698578e+01	-3.518896e+02
2.900000e-07	-2.417911e-06	-5.345157e-09	-1.678862e+01	-3.502253e+02
3.000000e-07	-2.388640e-06	-5.315936e-09	-1.658537e+01	-3.484705e+02
3.100000e-07	-2.358673e-06	-5.315380e-09	-1.637730e+01	-3.466339e+02
3.200000e-07	-2.328045e-06	-5.315253e-09	-1.616464e+01	-3.447322e+02
3.300000e-07	-2.296602e-06	-5.214209e-09	-1.594631e+01	-3.427834e+02
3.400000e-07	-2.264407e-06	-5.197780e-09	-1.572277e+01	-3.408004e+02
3.500000e-07	-2.231641e-06	-5.188212e-09	-1.549526e+01	-3.387865e+02
3.600000e-07	-2.198087e-06	-5.125423e-09	-1.526228e+01	-3.367352e+02
3.700000e-07	-2.163360e-06	-5.127343e-09	-1.502115e+01	-3.346336e+02
3.800000e-07	-2.127552e-06	-5.105673e-09	-1.477252e+01	-3.324672e+02
3.900000e-07	-2.091117e-06	-5.025406e-09	-1.451954e+01	-3.302250e+02
4.000000e-07	-2.054114e-06	-5.024813e-09	-1.426261e+01	-3.279020e+02
4.100000e-07	-2.016352e-06	-5.010006e-09	-1.400041e+01	-3.254994e+02
4.200000e-07	-1.977879e-06	-4.920818e-09	-1.373328e+01	-3.230229e+02
4.300000e-07	-1.938691e-06	-4.885096e-09	-1.346118e+01	-3.204790e+02
4.400000e-07	-1.898774e-06	-4.868459e-09	-1.318402e+01	-3.178727e+02
4.500000e-07	-1.858378e-06	-4.827760e-09	-1.290353e+01	-3.152055e+02
4.600000e-07	-1.817603e-06	-4.779424e-09	-1.262042e+01	-3.124759e+02
4.700000e-07	-1.776179e-06	-4.735779e-09	-1.233279e+01	-3.096809e+02
4.800000e-07	-1.733768e-06	-4.688367e-09	-1.203831e+01	-3.068172e+02
4.900000e-07	-1.690359e-06	-4.648380e-09	-1.173690e+01	-3.038830e+02
5.000000e-07	-1.646279e-06	-4.603643e-09	-1.143084e+01	-3.008778e+02
5.100000e-07	-1.601740e-06	-4.548687e-09	-1.112158e+01	-2.978022e+02
5.200000e-07	-1.556719e-06	-4.501542e-09	-1.080898e+01	-2.946569e+02
5.300000e-07	-1.511157e-06	-4.455532e-09	-1.049262e+01	-2.914419e+02
5.400000e-07	-1.465064e-06	-4.412172e-09	-1.017258e+01	-2.881566e+02
5.500000e-07	-1.418481e-06	-4.357699e-09	-9.849131e+00	-2.847996e+02
5.600000e-07	-1.371397e-06	-4.294274e-09	-9.522211e+00	-2.813699e+02
5.700000e-07	-1.323755e-06	-4.233798e-09	-9.191407e+00	-2.778662e+02
5.800000e-07	-1.275683e-06	-4.191322e-09	-8.857624e+00	-2.742866e+02
5.900000e-07	-1.227359e-06	-4.139312e-09	-8.522090e+00	-2.706283e+02
6.000000e-07	-1.178664e-06	-4.072845e-09	-8.183976e+00	-2.668867e+02
6.100000e-07	-1.129392e-06	-4.014054e-09	-7.841866e+00	-2.630558e+02
6.200000e-07	-1.079453e-06	-3.955585e-09	-7.495117e+00	-2.591301e+02
6.300000e-07	-1.028833e-06	-3.893730e-09	-7.143634e+00	-2.551062e+02
6.400000e-07	-9.776945e-07	-3.822680e-09	-6.788561e+00	-2.509855e+02
6.500000e-07	-9.261158e-07	-3.753064e-09	-6.430427e+00	-2.467747e+02
6.600000e-07	-8.740938e-07	-3.689952e-09	-6.069216e+00	-2.424845e+02
6.700000e-07	-8.217744e-07	-3.632395e-09	-5.705939e+00	-2.381270e+02
6.800000e-07	-7.692543e-07	-3.566117e-09	-5.341269e+00	-2.337109e+02
6.900000e-07	-7.164974e-07	-3.490642e-09	-4.974955e+00	-2.292373e+02
7.000000e-07	-6.634713e-07	-3.416400e-09	-4.606771e+00	-2.246979e+02
7.100000e-07	-6.101796e-07	-3.345082e-09	-4.236744e+00	-2.200757e+02
7.200000e-07	-5.566651e-07	-3.274069e-09	-3.865169e+00	-2.153492e+02
7.300000e-07	-5.029694e-07	-3.196124e-09	-3.492337e+00	-2.104980e+02
7.400000e-07	-4.490451e-07	-3.118280e-09	-3.117917e+00	-2.055091e+02
7.500000e-07	-3.949297e-07	-3.041514e-09	-2.742169e+00	-2.003800e+02
7.600000e-07	-3.407232e-07	-2.963250e-09	-2.365791e+00	-1.951184e+02
7.700000e-07	-2.864377e-07	-2.876465e-09	-1.988862e+00	-1.897381e+02
7.800000e-07	-2.320853e-07	-2.787178e-09	-1.611470e+00	-1.842524e+02
7.900000e-07	-1.777217e-07	-2.702884e-09	-1.234000e+00	-1.786675e+02
8.000000e-07	-1.232822e-07	-2.619067e-09	-8.560020e-01	-1.729783e+02
8.100000e-07	-6.876347e-08	-2.530809e-09	-4.774548e-01	-1.671681e+02
8.200000e-07	-1.422856e-08	-2.436562e-09	-9.879512e-02	-1.612130e+02
8.300000e-07	4.029067e-08	-2.340147e-09	2.797558e-01	-1.550889e+02
8.400000e-07	9.475276e-08	-2.240914e-09	6.579099e-01	-1.487775e+02
8.500000e-07	1.491959e-07	-2.140786e-09	1.035932e+00	-1.422713e+02
8.600000e-07	2.036258e-07	-2.038034e-09	1.413863e+00	-1.355729e+02
8.700000e-07	2.579946e-07	-1.933564e-09	1.791370e+00	-1.286904e+02
8.800000e-07	3.123272e-07	-1.826755e-09	2.168624e+00	-1.216306e+02
8.900000e-07	3.666039e-07	-1.715879e-09	2.545492e+00	-1.143914e+02
9.000000e-07	4.207652e-07	-1.598615e-09	2.921557e+00	-1.069580e+02
9.100000e-07	4.747560e-07	-1.475710e-09	3.296439e+00	-9.930297e+01
9.200000e-07	5.285424e-07	-1.353582e-09	3.669901e+00	-9.139109e+01
9.300000e-07	5.821163e-07	-1.230411e-09	4.041888e+00	-8.318662e+01
9.400000e-07	6.354451e-07	-1.101783e-09	4.412173e+00	-7.466036e+01
9.500000e-07	6.884679e-07	-9.632804e-10	4.780334e+00	-6.579349e+01
9.600000e-07	7.411968e-07	-8.206477e-10	5.146453e+00	-5.657681e+01
9.700000e-07	7.937031e-07	-6.763095e-10	5.511028e+00	-4.700559e+01
9.800000e-07	8.459734e-07	-5.253842e-10	5.873964e+00	-3.707193e+01
9.900000e-07	8.979471e-07	-3.661557e-10	6.234839e+00	-2.675793e+01
1.000000e-06	9.495386e-07	-1.993957e-10	6.593062e+00	-1.603250e+01
1.010000e-06	1.000652e-06	-2.808053e-11	6.947962e+00	-4.853410e+00
1.020000e-06	1.051109e-06	1.480340e-10	7.298312e+00	6.825263e+00
1.030000e-06	1.100865e-06	3.317899e-10	7.643789e+00	1.904241e+01
1.040000e-06	1.150046e-06	5.280726e-10	7.985273e+00	3.181873e+01
1.050000e-06	1.198802e-06	7.334224e-10	8.323808e+00	4.514812e+01
1.060000e-06	1.247269e-06	9.439216e-10	8.660334e+00	5.899357e+01
1.070000e-06	1.295449e-06	1.161140e-09	8.994866e+00	7.328807e+01
1.080000e-06	1.343286e-06	1.385443e-09	9.327023e+00	8.793937e+01
1.090000e-06	1.390640e-06	1.613406e-09	9.655823e+00	1.028367e+02
1.100000e-06	1.437401e-06	1.840617e-09	9.980506e+00	1.178575e+02
1.110000e-06	1.483593e-06	2.067258e-09	1.030124e+01	1.328731e+02
1.120000e-06	1.529251e-06	2.291963e-09	1.061826e+01	1.477525e+02
1.130000e-06	1.574393e-06	2.513089e-09	1.093170e+01	1.623660e+02
1.140000e-06	1.619102e-06	2.727246e-09	1.124214e+01	1.765888e+02
1.150000e-06	1.663470e-06	2.933408e-09	1.155020e+01	1.903059e+02
1.160000e-06	1.707447e-06	3.129887e-09	1.185555e+01	2.034175e+02
1.170000e-06	1.750779e-06	3.316688e-09	1.215642e+01	2.158452e+02
1.180000e-06	1.793153e-06	3.493733e-09	1.245065e+01	2.275361e+02
1.190000e-06	1.834558e-06	3.658037e-09	1.273814e+01	2.384640e+02
1.200000e-06	1.875267e-06	3.811735e-09	1.302080e+01	2.486279e+02
1.210000e-06	1.915442e-06	3.955782e-09	1.329975e+01	2.580473e+02
1.220000e-06	1.955005e-06	4.088731e-09	1.357445e+01	2.667559e+02
1.230000e-06	1.993892e-06	4.208228e-09	1.384446e+01	2.747959e+02
1.240000e-06	2.032107e-06	4.315239e-09	1.410981e+01	2.822132e+02
1.250000e-06	2.069616e-06	4.414090e-09	1.437025e+01	2.890562e+02
1.260000e-06	2.106486e-06	4.509500e-09	1.462625e+01	2.953745e+02
1.270000e-06	2.142867e-06	4.598718e-09	1.487886e+01	3.012195e+02
1.280000e-06	2.178599e-06	4.679434e-09	1.512696e+01	3.066439e+02
1.290000e-06	2.213377e-06	4.754709e-09	1.536845e+01	3.116991e+02
1.300000e-06	2.247094e-06	4.827390e-09	1.560256e+01	3.164322e+02
1.310000e-06	2.279922e-06	4.896842e-09	1.583049e+01	3.208813e+02
1.320000e-06	2.312061e-06	4.956890e-09	1.605365e+01	3.250737e+02
1.330000e-06	2.343476e-06	5.009794e-09	1.627178e+01	3.290246e+02
1.340000e-06	2.374098e-06	5.062066e-09	1.648440e+01	3.327401e+02
1.350000e-06	2.403891e-06	5.112965e-09	1.669126e+01	3.362217e+02
1.360000e-06	2.432906e-06	5.159198e-09	1.689273e+01	3.394716e+02
1.370000e-06	2.461282e-06	5.203608e-09	1.708976e+01	3.424966e+02
1.380000e-06	2.488869e-06	5.249511e-09	1.728130e+01	3.453103e+02
1.390000e-06	2.515280e-06	5.292466e-09	1.746469e+01	3.479312e+02
1.400000e-06	2.540500e-06	5.326275e-09	1.763980e+01	3.503795e+02
1.410000e-06	2.564779e-06	5.352807e-09	1.780838e+01	3.526731e+02
1.420000e-06	2.588225e-06	5.381135e-09	1.797118e+01	3.548249e+02
1.430000e-06	2.610802e-06	5.413828e-09	1.812794e+01	3.568425e+02
1.440000e-06	2.632505e-06	5.441643e-09	1.827863e+01	3.587297e+02
1.450000e-06	2.653414e-06	5.461673e-09	1.842381e+01	3.604896e+02
1.460000e-06	2.673593e-06	5.484535e-09	1.856393e+01	3.621278e+02
1.470000e-06	2.692871e-06	5.514503e-09	1.869778e+01	3.636532e+02
1.480000e-06	2.711096e-06	5.540792e-09	1.882433e+01	3.650765e+02
1.490000e-06	2.728391e-06	5.556451e-09	1.894441e+01	3.664074e+02
1.500000e-06	2.744704e-06	5.568448e-09	1.905768e+01	3.676514e+02
1.510000e-06	2.759916e-06	5.584338e-09	1.916331e+01	3.688076e+02
1.520000e-06	2.774084e-06	5.601662e-09	1.926168e+01	3.698694e+02
1.530000e-06	2.787275e-06	5.613828e-09	1.935327e+01	3.708287e+02
1.540000e-06	2.799440e-06	5.623685e-09	1.943774e+01	3.716798e+02
1.550000e-06	2.810336e-06	5.638669e-09	1.951339e+01	3.724247e+02
1.560000e-06	2.819917e-06	5.655068e-09	1.957992e+01	3.730742e+02
1.570000e-06	2.828486e-06	5.664904e-09	1.963941e+01	3.736461e+02
1.580000e-06	2.836164e-06	5.668609e-09	1.969272e+01	3.741598e+02
1.590000e-06	2.842859e-06	5.673319e-09	1.973921e+01	3.746300e+02
1.600000e-06	2.848588e-06	5.680862e-09	1.977899e+01	3.750611e+02
1.610000e-06	2.853486e-06	5.686215e-09	1.981300e+01	3.754452e+02
1.620000e-06	2.857581e-06	5.688967e-09	1.984143e+01	3.757657e+02
1.630000e-06	2.860562e-06	5.693946e-09	1.986213e+01	3.760032e+02
1.640000e-06	2.862256e-06	5.701716e-09	1.987390e+01	3.761439e+02
1.650000e-06	2.862919e-06	5.706481e-09	1.987850e+01	3.761854e+02
1.660000e-06	2.862680e-06	5.705180e-09	1.987684e+01	3.761385e+02
1.670000e-06	2.861547e-06	5.699044e-09	1.986897e+01	3.760233e+02
1.680000e-06	2.859532e-06	5.694800e-09	1.985498e+01	3.758614e+02
1.690000e-06	2.856625e-06	5.693426e-09	1.983480e+01	3.756672e+02
1.700000e-06	2.852949e-06	5.689434e-09	1.980927e+01	3.754409e+02
1.710000e-06	2.848382e-06	5.683635e-09	1.977756e+01	3.751682e+02
1.720000e-06	2.842614e-06	5.683068e-09	1.973751e+01	3.748250e+02
1.730000e-06	2.835747e-06	5.693299e-09	1.968984e+01	3.743875e+02
1.740000e-06	2.827997e-06	5.646569e-09	1.963602e+01	3.738432e+02
1.750000e-06	2.819007e-06	5.585954e-09	1.957360e+01	3.731988e+02
1.760000e-06	2.808411e-06	5.618872e-09	1.950003e+01	3.724812e+02
1.770000e-06	2.796851e-06	5.710393e-09	1.941976e+01	3.717315e+02
1.780000e-06	2.785160e-06	5.653811e-09	1.933859e+01	3.709929e+02
1.790000e-06	2.772829e-06	5.510561e-09	1.925297e+01	3.702964e+02
1.800000e-06	2.758857e-06	5.591347e-09	1.915595e+01	3.696502e+02
1.810000e-06	2.743573e-06	5.667678e-09	1.904982e+01	3.690355e+02
1.820000e-06	2.727704e-06	5.531620e-09	1.893964e+01	3.684111e+02
1.830000e-06	2.710817e-06	5.526647e-09	1.882239e+01	3.677245e+02
1.840000e-06	2.692578e-06	5.684657e-09	1.869575e+01	3.669274e+02
1.850000e-06	2.673536e-06	5.578316e-09	1.856353e+01	3.659887e+02
1.860000e-06	2.653828e-06	5.459674e-09	1.842669e+01	3.649018e+02
1.870000e-06	2.632971e-06	5.625607e-09	1.828187e+01	3.636842e+02
1.880000e-06	2.611019e-06	5.552678e-09	1.812944e+01	3.623692e+02
1.890000e-06	2.588136e-06	5.360060e-09	1.797056e+01	3.609937e+02
1.900000e-06	2.564183e-06	5.495671e-09	1.780425e+01	3.595864e+02
1.910000e-06	2.539418e-06	5.517847e-09	1.763229e+01	3.581591e+02
1.920000e-06	2.513900e-06	5.387087e-09	1.745511e+01	3.567064e+02
1.930000e-06	2.487429e-06	5.423677e-09	1.727131e+01	3.552093e+02
1.940000e-06	2.460255e-06	5.401616e-09	1.708263e+01	3.536454e+02
1.950000e-06	2.432397e-06	5.341482e-09	1.688920e+01	3.519969e+02
1.960000e-06	2.403370e-06	5.356788e-09	1.668765e+01	3.502577e+02
1.970000e-06	2.373253e-06	5.267289e-09	1.647853e+01	3.484342e+02
1.980000e-06	2.342320e-06	5.245680e-09	1.626376e+01	3.465424e+02
1.990000e-06	2.310622e-06	5.309185e-09	1.604366e+01	3.446005e+02
2.000000e-06	2.278212e-06	5.199159e-09	1.581862e+01	3.426228e+02
2.010000e-06	2.244980e-06	5.171611e-09	1.558788e+01	3.406142e+02
2.020000e-06	2.210917e-06	5.202132e-09	1.535136e+01	3.385701e+02
2.030000e-06	2.176223e-06	5.086382e-09	1.511047e+01	3.364782e+02
2.040000e-06	2.140928e-06	5.086914e-09	1.486540e+01	3.343241e+02
2.050000e-06	2.105001e-06	5.096166e-09	1.461594e+01	3.320957e+02
2.060000e-06	2.068268e-06	4.984846e-09	1.436089e+01	3.297868e+02
2.070000e-06	2.030413e-06	4.982680e-09	1.409804e+01	3.273977e+02
2.080000e-06	1.991557e-06	4.976786e-09	1.382825e+01	3.249335e+02
2.090000e-06	1.952085e-06	4.898999e-09	1.355418e+01	3.224009e+02
2.100000e-06	1.912050e-06	4.872148e-09	1.327620e+01	3.198052e+02
2.110000e-06	1.871367e-06	4.826811e-09	1.299372e+01	3.171486e+02
2.120000e-06	1.830103e-06	4.788678e-09	1.270721e+01	3.144301e+02
2.130000e-06	1.788306e-06	4.757260e-09	1.241699e+01	3.116466e+02
2.140000e-06	1.745879e-06	4.692757e-09	1.212240e+01	3.087950e+02
2.150000e-06	1.702870e-06	4.659097e-09	1.182377e+01	3.058731e+02
2.160000e-06	1.659448e-06	4.615985e-09	1.152227e+01	3.028802e+02
2.170000e-06	1.615516e-06	4.571609e-09	1.121723e+01	2.998169e+02
2.180000e-06	1.570951e-06	4.530181e-09	1.090780e+01	2.966836e+02
2.190000e-06	1.525789e-06	4.468762e-09	1.059422e+01	2.934808e+02
2.200000e-06	1.480049e-06	4.415654e-09	1.027663e+01	2.902077e+02
2.210000e-06	1.433840e-06	4.370438e-09	9.955781e+00	2.868633e+02
2.220000e-06	1.387276e-06	4.329717e-09	9.632463e+00	2.834464e+02
2.230000e-06	1.340211e-06	4.280803e-09	9.305674e+00	2.799556e+02
2.240000e-06	1.292534e-06	4.211510e-09	8.974632e+00	2.763894e+02
2.250000e-06	1.244258e-06	4.162992e-09	8.639427e+00	2.727452e+02
2.260000e-06	1.195486e-06	4.113733e-09	8.300779e+00	2.690185e+02
2.270000e-06	1.146310e-06	4.041221e-09	7.959328e+00	2.652036e+02
2.280000e-06	1.096737e-06	3.986252e-09	7.615128e+00	2.612948e+02
2.290000e-06	1.046739e-06	3.931614e-09	7.267965e+00	2.572882e+02
2.300000e-06	9.962939e-07	3.878566e-09	6.917704e+00	2.531842e+02
2.310000e-06	9.454800e-07	3.818826e-09	6.564881e+00	2.489884e+02
2.320000e-06	8.943538e-07	3.743395e-09	6.209889e+00	2.447111e+02
2.330000e-06	8.429675e-07	3.674735e-09	5.853092e+00	2.403645e+02
2.340000e-06	7.913389e-07	3.606572e-09	5.494612e+00	2.359582e+02
2.350000e-06	7.394046e-07	3.542175e-09	5.134010e+00	2.314948e+02
2.360000e-06	6.871291e-07	3.475478e-09	4.771038e+00	2.269679e+02
2.370000e-06	6.344209e-07	3.403689e-09	4.405062e+00	2.223617e+02
2.380000e-06	5.812819e-07	3.337499e-09	4.036094e+00	2.176550e+02
2.390000e-06	5.277529e-07	3.268395e-09	3.664419e+00	2.128270e+02
2.400000e-06	4.738433e-07	3.191462e-09	3.290101e+00	2.078629e+02
2.410000e-06	4.196850e-07	3.110818e-09	2.914056e+00	2.027582e+02
2.420000e-06	3.653942e-07	3.029855e-09	2.537092e+00	1.975190e+02
2.430000e-06	3.109351e-07	2.954395e-09	2.158958e+00	1.921584e+02
2.440000e-06	2.562372e-07	2.872477e-09	1.779167e+00	1.866905e+02
2.450000e-06	2.013949e-07	2.782514e-09	1.398373e+00	1.811230e+02
2.460000e-06	1.465255e-07	2.698895e-09	1.017391e+00	1.754530e+02
2.470000e-06	9.159757e-08	2.617294e-09	6.360020e-01	1.696657e+02
2.480000e-06	3.663436e-08	2.531959e-09	2.543684e-01	1.637380e+02
2.490000e-06	-1.830747e-08	2.437314e-09	-1.271168e-01	1.576453e+02
2.500000e-06	-7.327496e-08	2.340368e-09	-5.087801e-01	1.513679e+02
2.510000e-06	-1.282620e-07	2.246260e-09	-8.905793e-01	1.448963e+02
2.520000e-06	-1.832103e-07	2.145768e-09	-1.272109e+00	1.382313e+02
2.530000e-06	-2.380845e-07	2.038146e-09	-1.653125e+00	1.313807e+02
2.540000e-06	-2.928469e-07	1.928210e-09	-2.033364e+00	1.243520e+02
2.550000e-06	-3.474481e-07	1.821542e-09	-2.412484e+00	1.171452e+02
2.560000e-06	-4.018694e-07	1.715453e-09	-2.790355e+00	1.097479e+02
2.570000e-06	-4.560413e-07	1.602782e-09	-3.166494e+00	1.021345e+02
2.580000e-06	-5.099139e-07	1.483220e-09	-3.540555e+00	9.427088e+01
2.590000e-06	-5.634680e-07	1.361363e-09	-3.912405e+00	8.612073e+01
2.600000e-06	-6.166579e-07	1.235080e-09	-4.281726e+00	7.765329e+01
2.610000e-06	-6.694203e-07	1.098727e-09	-4.648078e+00	6.884781e+01
2.620000e-06	-7.217639e-07	9.538661e-10	-5.011523e+00	5.969365e+01
2.630000e-06	-7.737597e-07	8.066542e-10	-5.372552e+00	5.018579e+01
2.640000e-06	-8.254408e-07	6.613957e-10	-5.731397e+00	4.031746e+01
2.650000e-06	-8.768663e-07	5.103661e-10	-6.088466e+00	3.007294e+01
2.660000e-06	-9.280360e-07	3.480313e-10	-6.443760e+00	1.942349e+01
2.670000e-06	-9.788889e-07	1.783807e-10	-6.796854e+00	8.328463e+00
2.680000e-06	-1.029382e-06	4.312799e-12	-7.147451e+00	-3.258128e+00
2.690000e-06	-1.079438e-06	-1.787308e-10	-7.495007e+00	-1.537728e+01
2.700000e-06	-1.129051e-06	-3.752550e-10	-7.839494e+00	-2.805368e+01
2.710000e-06	-1.178309e-06	-5.816195e-10	-8.181515e+00	-4.128645e+01
2.720000e-06	-1.227064e-06	-7.921091e-10	-8.520040e+00	-5.504418e+01
2.730000e-06	-1.275133e-06	-1.006063e-09	-8.853806e+00	-6.926495e+01
2.740000e-06	-1.322492e-06	-1.227281e-09	-9.182640e+00	-8.386056e+01
2.750000e-06	-1.369138e-06	-1.455726e-09	-9.506526e+00	-9.872302e+01
2.760000e-06	-1.415254e-06	-1.684229e-09	-9.826724e+00	-1.137315e+02
2.770000e-06	-1.461049e-06	-1.910219e-09	-1.014470e+01	-1.287579e+02
2.780000e-06	-1.506537e-06	-2.139806e-09	-1.046054e+01	-1.436716e+02
2.790000e-06	-1.551542e-06	-2.372102e-09	-1.077304e+01	-1.583422e+02
2.800000e-06	-1.595951e-06	-2.597102e-09	-1.108138e+01	-1.726439e+02
2.810000e-06	-1.639846e-06	-2.808876e-09	-1.138617e+01	-1.864594e+02
2.820000e-06	-1.683327e-06	-3.010193e-09	-1.168808e+01	-1.996859e+02
2.830000e-06	-1.726446e-06	-3.202884e-09	-1.198747e+01	-2.122408e+02
2.840000e-06	-1.769067e-06	-3.384846e-09	-1.228340e+01	-2.240663e+02
2.850000e-06	-1.811036e-06	-3.553210e-09	-1.257481e+01	-2.351315e+02
2.860000e-06	-1.852383e-06	-3.708667e-09	-1.286190e+01	-2.454313e+02
2.870000e-06	-1.893091e-06	-3.858011e-09	-1.314456e+01	-2.549818e+02
2.880000e-06	-1.933110e-06	-4.001911e-09	-1.342243e+01	-2.638148e+02
2.890000e-06	-1.972586e-06	-4.133511e-09	-1.369653e+01	-2.719711e+02
2.900000e-06	-2.011575e-06	-4.250870e-09	-1.396725e+01	-2.794966e+02
2.910000e-06	-2.049715e-06	-4.357274e-09	-1.423207e+01	-2.864388e+02
2.920000e-06	-2.086770e-06	-4.452921e-09	-1.448936e+01	-2.928474e+02
2.930000e-06	-2.122928e-06	-4.539479e-09	-1.474042e+01	-2.987735e+02
2.940000e-06	-2.158406e-06	-4.623038e-09	-1.498675e+01	-3.042695e+02
