# Temperatura_=_22.42
# Concentracion g/m^3_=_13400.0
# C_Vs_to_Am_M_A/Vsm_=_65563218390.804596
# pendiente_HvsI_1/m_=_3716.3
# ordenada_HvsI_A/m_=_1297.0
# frecuencia_Hz_=_300836.4949382941

Tiempo_(s)	Campo_(V.s)	Magnetizacion_(V.s)	Campo_(kA/m)	Magnetizacion_(A/m)
0.000000e+00	-2.850377e-06	-5.593632e-09	-1.981182e+01	-3.658041e+02
1.000000e-08	-2.849932e-06	-5.591741e-09	-1.980873e+01	-3.657353e+02
2.000000e-08	-2.848730e-06	-5.595331e-09	-1.980037e+01	-3.656064e+02
3.000000e-08	-2.846445e-06	-5.595738e-09	-1.978450e+01	-3.654217e+02
4.000000e-08	-2.842879e-06	-5.591677e-09	-1.975971e+01	-3.651821e+02
5.000000e-08	-2.838391e-06	-5.585445e-09	-1.972852e+01	-3.648850e+02
6.000000e-08	-2.833188e-06	-5.574582e-09	-1.969235e+01	-3.645251e+02
7.000000e-08	-2.827125e-06	-5.551249e-09	-1.965021e+01	-3.640968e+02
8.000000e-08	-2.820044e-06	-5.542033e-09	-1.960099e+01	-3.635974e+02
9.000000e-08	-2.811873e-06	-5.601397e-09	-1.954420e+01	-3.630289e+02
1.000000e-07	-2.802435e-06	-5.657222e-09	-1.947860e+01	-3.623994e+02
1.100000e-07	-2.791605e-06	-5.561212e-09	-1.940332e+01	-3.617217e+02
1.200000e-07	-2.779688e-06	-5.382942e-09	-1.932049e+01	-3.610104e+02
1.300000e-07	-2.766982e-06	-5.486113e-09	-1.923218e+01	-3.602777e+02
1.400000e-07	-2.753361e-06	-5.641899e-09	-1.913750e+01	-3.595301e+02
1.500000e-07	-2.738719e-06	-5.482439e-09	-1.903573e+01	-3.587660e+02
1.600000e-07	-2.723091e-06	-5.360110e-09	-1.892711e+01	-3.579756e+02
1.700000e-07	-2.706089e-06	-5.573340e-09	-1.880894e+01	-3.571435e+02
1.800000e-07	-2.687823e-06	-5.585940e-09	-1.868198e+01	-3.562524e+02
1.900000e-07	-2.668874e-06	-5.330080e-09	-1.855027e+01	-3.552864e+02
2.000000e-07	-2.649229e-06	-5.441221e-09	-1.841373e+01	-3.542351e+02
2.100000e-07	-2.628714e-06	-5.511144e-09	-1.827113e+01	-3.530942e+02
2.200000e-07	-2.607381e-06	-5.289394e-09	-1.812285e+01	-3.518661e+02
2.300000e-07	-2.585206e-06	-5.354007e-09	-1.796873e+01	-3.505579e+02
2.400000e-07	-2.562061e-06	-5.497907e-09	-1.780785e+01	-3.491791e+02
2.500000e-07	-2.538018e-06	-5.321100e-09	-1.764074e+01	-3.477392e+02
2.600000e-07	-2.513252e-06	-5.257517e-09	-1.746860e+01	-3.462459e+02
2.700000e-07	-2.487671e-06	-5.324135e-09	-1.729080e+01	-3.447038e+02
2.800000e-07	-2.460971e-06	-5.269974e-09	-1.710522e+01	-3.431140e+02
2.900000e-07	-2.433138e-06	-5.217250e-09	-1.691176e+01	-3.414744e+02
3.000000e-07	-2.404338e-06	-5.209052e-09	-1.671158e+01	-3.397802e+02
3.100000e-07	-2.374761e-06	-5.191588e-09	-1.650601e+01	-3.380255e+02
3.200000e-07	-2.344514e-06	-5.207748e-09	-1.629577e+01	-3.362045e+02
3.300000e-07	-2.313542e-06	-5.151260e-09	-1.608050e+01	-3.343136e+02
3.400000e-07	-2.281781e-06	-5.051306e-09	-1.585974e+01	-3.323524e+02
3.500000e-07	-2.249304e-06	-5.087792e-09	-1.563401e+01	-3.303244e+02
3.600000e-07	-2.216286e-06	-5.037817e-09	-1.540452e+01	-3.282368e+02
3.700000e-07	-2.182499e-06	-4.972907e-09	-1.516967e+01	-3.260979e+02
3.800000e-07	-2.147512e-06	-5.014634e-09	-1.492649e+01	-3.239148e+02
3.900000e-07	-2.111445e-06	-4.944221e-09	-1.467581e+01	-3.216903e+02
4.000000e-07	-2.074696e-06	-4.855809e-09	-1.442037e+01	-3.194211e+02
4.100000e-07	-2.037339e-06	-4.895583e-09	-1.416072e+01	-3.170976e+02
4.200000e-07	-1.999306e-06	-4.854921e-09	-1.389637e+01	-3.147067e+02
4.300000e-07	-1.960558e-06	-4.750038e-09	-1.362705e+01	-3.122357e+02
4.400000e-07	-1.921037e-06	-4.743294e-09	-1.335236e+01	-3.096768e+02
4.500000e-07	-1.880856e-06	-4.722585e-09	-1.307307e+01	-3.070305e+02
4.600000e-07	-1.840261e-06	-4.671826e-09	-1.279091e+01	-3.043057e+02
4.700000e-07	-1.799300e-06	-4.625264e-09	-1.250621e+01	-3.015173e+02
4.800000e-07	-1.757616e-06	-4.580262e-09	-1.221648e+01	-2.986809e+02
4.900000e-07	-1.714848e-06	-4.537197e-09	-1.191922e+01	-2.958069e+02
5.000000e-07	-1.671123e-06	-4.498960e-09	-1.161530e+01	-2.928958e+02
5.100000e-07	-1.626828e-06	-4.444754e-09	-1.130743e+01	-2.899375e+02
5.200000e-07	-1.582173e-06	-4.386700e-09	-1.099705e+01	-2.869142e+02
5.300000e-07	-1.537064e-06	-4.347029e-09	-1.068352e+01	-2.838066e+02
5.400000e-07	-1.491383e-06	-4.302120e-09	-1.036600e+01	-2.806007e+02
5.500000e-07	-1.445155e-06	-4.261020e-09	-1.004469e+01	-2.772938e+02
5.600000e-07	-1.398372e-06	-4.202670e-09	-9.719524e+00	-2.738950e+02
5.700000e-07	-1.351062e-06	-4.135583e-09	-9.390691e+00	-2.704219e+02
5.800000e-07	-1.303316e-06	-4.081609e-09	-9.058825e+00	-2.668929e+02
5.900000e-07	-1.255154e-06	-4.039099e-09	-8.724073e+00	-2.633192e+02
6.000000e-07	-1.206645e-06	-3.975019e-09	-8.386905e+00	-2.596981e+02
6.100000e-07	-1.157834e-06	-3.909751e-09	-8.047638e+00	-2.560123e+02
6.200000e-07	-1.108650e-06	-3.864199e-09	-7.705777e+00	-2.522344e+02
6.300000e-07	-1.058911e-06	-3.807154e-09	-7.360064e+00	-2.483359e+02
6.400000e-07	-1.008434e-06	-3.738498e-09	-7.009219e+00	-2.442981e+02
6.500000e-07	-9.572669e-07	-3.664728e-09	-6.653577e+00	-2.401191e+02
6.600000e-07	-9.055936e-07	-3.600574e-09	-6.294417e+00	-2.358165e+02
6.700000e-07	-8.535590e-07	-3.539182e-09	-5.932745e+00	-2.314214e+02
6.800000e-07	-8.012336e-07	-3.473135e-09	-5.569052e+00	-2.269684e+02
6.900000e-07	-7.486459e-07	-3.398632e-09	-5.203536e+00	-2.224830e+02
7.000000e-07	-6.958096e-07	-3.326666e-09	-4.836292e+00	-2.179722e+02
7.100000e-07	-6.427156e-07	-3.259947e-09	-4.467258e+00	-2.134212e+02
7.200000e-07	-5.893870e-07	-3.188196e-09	-4.096592e+00	-2.087978e+02
7.300000e-07	-5.358682e-07	-3.112848e-09	-3.724604e+00	-2.040635e+02
7.400000e-07	-4.821140e-07	-3.034997e-09	-3.350980e+00	-1.991861e+02
7.500000e-07	-4.281422e-07	-2.960958e-09	-2.975844e+00	-1.941507e+02
7.600000e-07	-3.740511e-07	-2.883143e-09	-2.599879e+00	-1.889633e+02
7.700000e-07	-3.198535e-07	-2.799228e-09	-2.223173e+00	-1.836472e+02
7.800000e-07	-2.655562e-07	-2.709671e-09	-1.845774e+00	-1.782322e+02
7.900000e-07	-2.111825e-07	-2.624341e-09	-1.467845e+00	-1.727414e+02
8.000000e-07	-1.567374e-07	-2.544865e-09	-1.089418e+00	-1.671808e+02
8.100000e-07	-1.022358e-07	-2.458697e-09	-7.106000e-01	-1.615351e+02
8.200000e-07	-4.772194e-08	-2.366785e-09	-3.316960e-01	-1.557717e+02
8.300000e-07	6.789421e-09	-2.273288e-09	4.719053e-02	-1.498519e+02
8.400000e-07	6.130168e-08	-2.179774e-09	4.260833e-01	-1.437435e+02
8.500000e-07	1.158002e-07	-2.079561e-09	8.048803e-01	-1.374320e+02
8.600000e-07	1.702717e-07	-1.975895e-09	1.183490e+00	-1.309237e+02
8.700000e-07	2.247267e-07	-1.872088e-09	1.561985e+00	-1.242413e+02
8.800000e-07	2.791293e-07	-1.771405e-09	1.940115e+00	-1.174126e+02
8.900000e-07	3.333819e-07	-1.670036e-09	2.317203e+00	-1.104559e+02
9.000000e-07	3.874842e-07	-1.558955e-09	2.693247e+00	-1.033696e+02
9.100000e-07	4.414943e-07	-1.439670e-09	3.068649e+00	-9.612742e+01
9.200000e-07	4.953192e-07	-1.320385e-09	3.442764e+00	-8.868339e+01
9.300000e-07	5.489041e-07	-1.205961e-09	3.815211e+00	-8.098356e+01
9.400000e-07	6.022845e-07	-1.084975e-09	4.186237e+00	-7.298037e+01
9.500000e-07	6.554375e-07	-9.554939e-10	4.555682e+00	-6.464442e+01
9.600000e-07	7.083207e-07	-8.216291e-10	4.923252e+00	-5.596924e+01
9.700000e-07	7.609468e-07	-6.874465e-10	5.289035e+00	-4.696729e+01
9.800000e-07	8.133824e-07	-5.472649e-10	5.653494e+00	-3.765873e+01
9.900000e-07	8.655613e-07	-3.961118e-10	6.016169e+00	-2.805721e+01
1.000000e-06	9.173135e-07	-2.375342e-10	6.375877e+00	-1.815813e+01
1.010000e-06	9.685438e-07	-7.723019e-11	6.731958e+00	-7.933734e+00
1.020000e-06	1.019182e-06	8.179714e-11	7.083927e+00	2.662894e+00
1.030000e-06	1.069146e-06	2.476999e-10	7.431206e+00	1.368610e+01
1.040000e-06	1.118512e-06	4.239351e-10	7.774328e+00	2.518201e+01
1.050000e-06	1.167457e-06	6.100762e-10	8.114523e+00	3.717390e+01
1.060000e-06	1.216145e-06	8.009175e-10	8.452934e+00	4.965305e+01
1.070000e-06	1.264607e-06	9.968338e-10	8.789778e+00	6.257714e+01
1.080000e-06	1.312660e-06	1.200632e-09	9.123774e+00	7.587587e+01
1.090000e-06	1.360197e-06	1.411341e-09	9.454185e+00	8.946075e+01
1.100000e-06	1.407218e-06	1.623608e-09	9.781009e+00	1.032354e+02
1.110000e-06	1.453712e-06	1.830635e-09	1.010417e+01	1.171026e+02
1.120000e-06	1.499668e-06	2.036752e-09	1.042359e+01	1.309675e+02
1.130000e-06	1.545109e-06	2.245360e-09	1.073943e+01	1.447355e+02
1.140000e-06	1.590107e-06	2.453975e-09	1.105219e+01	1.583098e+02
1.150000e-06	1.634772e-06	2.655269e-09	1.136264e+01	1.715897e+02
1.160000e-06	1.679070e-06	2.848488e-09	1.167054e+01	1.844723e+02
1.170000e-06	1.722734e-06	3.035651e-09	1.197403e+01	1.968585e+02
1.180000e-06	1.765478e-06	3.216664e-09	1.227113e+01	2.086618e+02
1.190000e-06	1.807249e-06	3.387438e-09	1.256146e+01	2.198176e+02
1.200000e-06	1.848288e-06	3.544974e-09	1.284671e+01	2.302886e+02
1.210000e-06	1.888818e-06	3.692294e-09	1.312841e+01	2.400664e+02
1.220000e-06	1.928828e-06	3.830933e-09	1.340650e+01	2.491677e+02
1.230000e-06	1.968191e-06	3.959779e-09	1.368010e+01	2.576257e+02
1.240000e-06	2.006852e-06	4.075798e-09	1.394882e+01	2.654821e+02
1.250000e-06	2.044758e-06	4.182505e-09	1.421229e+01	2.727792e+02
1.260000e-06	2.081985e-06	4.283484e-09	1.447104e+01	2.795566e+02
1.270000e-06	2.118717e-06	4.380888e-09	1.472635e+01	2.858502e+02
1.280000e-06	2.154901e-06	4.469897e-09	1.497785e+01	2.916956e+02
1.290000e-06	2.190229e-06	4.549084e-09	1.522340e+01	2.971300e+02
1.300000e-06	2.224430e-06	4.623557e-09	1.546112e+01	3.021938e+02
1.310000e-06	2.257647e-06	4.694727e-09	1.569199e+01	3.069296e+02
1.320000e-06	2.290189e-06	4.761543e-09	1.591818e+01	3.113775e+02
1.330000e-06	2.322058e-06	4.822012e-09	1.613969e+01	3.155711e+02
1.340000e-06	2.353173e-06	4.878773e-09	1.635596e+01	3.195336e+02
1.350000e-06	2.383511e-06	4.933548e-09	1.656682e+01	3.232765e+02
1.360000e-06	2.413029e-06	4.985652e-09	1.677199e+01	3.268022e+02
1.370000e-06	2.441813e-06	5.034497e-09	1.697206e+01	3.301081e+02
1.380000e-06	2.469880e-06	5.080514e-09	1.716714e+01	3.331933e+02
1.390000e-06	2.496956e-06	5.122569e-09	1.735534e+01	3.360623e+02
1.400000e-06	2.522828e-06	5.159767e-09	1.753516e+01	3.387276e+02
1.410000e-06	2.547671e-06	5.193669e-09	1.770784e+01	3.412082e+02
1.420000e-06	2.571643e-06	5.226039e-09	1.787446e+01	3.435262e+02
1.430000e-06	2.594706e-06	5.257839e-09	1.803476e+01	3.457021e+02
1.440000e-06	2.616875e-06	5.288225e-09	1.818884e+01	3.477510e+02
1.450000e-06	2.638207e-06	5.315376e-09	1.833712e+01	3.496808e+02
1.460000e-06	2.658846e-06	5.339736e-09	1.848057e+01	3.514934e+02
1.470000e-06	2.678701e-06	5.364999e-09	1.861857e+01	3.531869e+02
1.480000e-06	2.697555e-06	5.389994e-09	1.874962e+01	3.547593e+02
1.490000e-06	2.715461e-06	5.411183e-09	1.887407e+01	3.562112e+02
1.500000e-06	2.732456e-06	5.428668e-09	1.899220e+01	3.575467e+02
1.510000e-06	2.748326e-06	5.445104e-09	1.910250e+01	3.587735e+02
1.520000e-06	2.763058e-06	5.462704e-09	1.920490e+01	3.599003e+02
1.530000e-06	2.776816e-06	5.479676e-09	1.930053e+01	3.609353e+02
1.540000e-06	2.789590e-06	5.492857e-09	1.938932e+01	3.618844e+02
1.550000e-06	2.801208e-06	5.503770e-09	1.947007e+01	3.627510e+02
1.560000e-06	2.811497e-06	5.516493e-09	1.954158e+01	3.635365e+02
1.570000e-06	2.820650e-06	5.530882e-09	1.960520e+01	3.642412e+02
1.580000e-06	2.828907e-06	5.543065e-09	1.966259e+01	3.648659e+02
1.590000e-06	2.836252e-06	5.549933e-09	1.971365e+01	3.654113e+02
1.600000e-06	2.842567e-06	5.554266e-09	1.975754e+01	3.658789e+02
1.610000e-06	2.847895e-06	5.559045e-09	1.979457e+01	3.662693e+02
1.620000e-06	2.852431e-06	5.563275e-09	1.982610e+01	3.665830e+02
1.630000e-06	2.856033e-06	5.566632e-09	1.985113e+01	3.668195e+02
1.640000e-06	2.858390e-06	5.570769e-09	1.986752e+01	3.669791e+02
1.650000e-06	2.859625e-06	5.576684e-09	1.987610e+01	3.670630e+02
1.660000e-06	2.859970e-06	5.581697e-09	1.987850e+01	3.670748e+02
1.670000e-06	2.859391e-06	5.580088e-09	1.987448e+01	3.670195e+02
1.680000e-06	2.857870e-06	5.571372e-09	1.986391e+01	3.669030e+02
1.690000e-06	2.855483e-06	5.565559e-09	1.984731e+01	3.667300e+02
1.700000e-06	2.852332e-06	5.565056e-09	1.982541e+01	3.665022e+02
1.710000e-06	2.848374e-06	5.562353e-09	1.979790e+01	3.662176e+02
1.720000e-06	2.843321e-06	5.562372e-09	1.976278e+01	3.658716e+02
1.730000e-06	2.837077e-06	5.579740e-09	1.971938e+01	3.654583e+02
1.740000e-06	2.829928e-06	5.569369e-09	1.966969e+01	3.649741e+02
1.750000e-06	2.821813e-06	5.462156e-09	1.961329e+01	3.644198e+02
1.760000e-06	2.812251e-06	5.417966e-09	1.954683e+01	3.638023e+02
1.770000e-06	2.801190e-06	5.547092e-09	1.946994e+01	3.631337e+02
1.780000e-06	2.789438e-06	5.640487e-09	1.938826e+01	3.624283e+02
1.790000e-06	2.777557e-06	5.457666e-09	1.930568e+01	3.616994e+02
1.800000e-06	2.764689e-06	5.341005e-09	1.921624e+01	3.609547e+02
1.810000e-06	2.750111e-06	5.567540e-09	1.911492e+01	3.601946e+02
1.820000e-06	2.734524e-06	5.530022e-09	1.900658e+01	3.594109e+02
1.830000e-06	2.718405e-06	5.288169e-09	1.889454e+01	3.585892e+02
1.840000e-06	2.701122e-06	5.419259e-09	1.877441e+01	3.577120e+02
1.850000e-06	2.682603e-06	5.574407e-09	1.864569e+01	3.567631e+02
1.860000e-06	2.663422e-06	5.335628e-09	1.851238e+01	3.557306e+02
1.870000e-06	2.643422e-06	5.314287e-09	1.837336e+01	3.546088e+02
1.880000e-06	2.622157e-06	5.543819e-09	1.822556e+01	3.533988e+02
1.890000e-06	2.599832e-06	5.317377e-09	1.807038e+01	3.521069e+02
1.900000e-06	2.576566e-06	5.170651e-09	1.790868e+01	3.507424e+02
1.910000e-06	2.552299e-06	5.406576e-09	1.774000e+01	3.493148e+02
1.920000e-06	2.527306e-06	5.332943e-09	1.756629e+01	3.478324e+02
1.930000e-06	2.501547e-06	5.205253e-09	1.738725e+01	3.463004e+02
1.940000e-06	2.474900e-06	5.284490e-09	1.720204e+01	3.447209e+02
1.950000e-06	2.447581e-06	5.214038e-09	1.701215e+01	3.430921e+02
1.960000e-06	2.419353e-06	5.184106e-09	1.681595e+01	3.414100e+02
1.970000e-06	2.389853e-06	5.177757e-09	1.661091e+01	3.396687e+02
1.980000e-06	2.359362e-06	5.065887e-09	1.639898e+01	3.378623e+02
1.990000e-06	2.328151e-06	5.124242e-09	1.618204e+01	3.359865e+02
2.000000e-06	2.296224e-06	5.141079e-09	1.596013e+01	3.340401e+02
2.010000e-06	2.263562e-06	4.987394e-09	1.573311e+01	3.320258e+02
2.020000e-06	2.230052e-06	5.037198e-09	1.550019e+01	3.299502e+02
2.030000e-06	2.195766e-06	5.017441e-09	1.526188e+01	3.278215e+02
2.040000e-06	2.160902e-06	4.872770e-09	1.501956e+01	3.256474e+02
2.050000e-06	2.125426e-06	4.950259e-09	1.477298e+01	3.234318e+02
2.060000e-06	2.089236e-06	4.921772e-09	1.452144e+01	3.211726e+02
2.070000e-06	2.052080e-06	4.788387e-09	1.426318e+01	3.188617e+02
2.080000e-06	2.013782e-06	4.825841e-09	1.399699e+01	3.164863e+02
2.090000e-06	1.974697e-06	4.802337e-09	1.372533e+01	3.140333e+02
2.100000e-06	1.935078e-06	4.721830e-09	1.344995e+01	3.114934e+02
2.110000e-06	1.894850e-06	4.699290e-09	1.317034e+01	3.088653e+02
2.120000e-06	1.854024e-06	4.644103e-09	1.288658e+01	3.061561e+02
2.130000e-06	1.812605e-06	4.621888e-09	1.259869e+01	3.033799e+02
2.140000e-06	1.770611e-06	4.584772e-09	1.230680e+01	3.005526e+02
2.150000e-06	1.728024e-06	4.514595e-09	1.201080e+01	2.976861e+02
2.160000e-06	1.684943e-06	4.490681e-09	1.171136e+01	2.947834e+02
2.170000e-06	1.641471e-06	4.444440e-09	1.140920e+01	2.918365e+02
2.180000e-06	1.597409e-06	4.401369e-09	1.110295e+01	2.888287e+02
2.190000e-06	1.552679e-06	4.360866e-09	1.079205e+01	2.857405e+02
2.200000e-06	1.507356e-06	4.300202e-09	1.047702e+01	2.825563e+02
2.210000e-06	1.461549e-06	4.247665e-09	1.015864e+01	2.792706e+02
2.220000e-06	1.415371e-06	4.205422e-09	9.837676e+00	2.758901e+02
2.230000e-06	1.368762e-06	4.168973e-09	9.513716e+00	2.724311e+02
2.240000e-06	1.321603e-06	4.107965e-09	9.185931e+00	2.689127e+02
2.250000e-06	1.273795e-06	4.037820e-09	8.853634e+00	2.653482e+02
2.260000e-06	1.225408e-06	3.998937e-09	8.517319e+00	2.617382e+02
2.270000e-06	1.176590e-06	3.943784e-09	8.178003e+00	2.580683e+02
2.280000e-06	1.127363e-06	3.872233e-09	7.835847e+00	2.543126e+02
2.290000e-06	1.077702e-06	3.822352e-09	7.490676e+00	2.504419e+02
2.300000e-06	1.027593e-06	3.766946e-09	7.142386e+00	2.464346e+02
2.310000e-06	9.770302e-07	3.713842e-09	6.790944e+00	2.422850e+02
2.320000e-06	9.261396e-07	3.647825e-09	6.437223e+00	2.380065e+02
2.330000e-06	8.750176e-07	3.569566e-09	6.081896e+00	2.336281e+02
2.340000e-06	8.236345e-07	3.501522e-09	5.724752e+00	2.291848e+02
2.350000e-06	7.719211e-07	3.433329e-09	5.365313e+00	2.247050e+02
2.360000e-06	7.197200e-07	3.374548e-09	5.002484e+00	2.202001e+02
2.370000e-06	6.670641e-07	3.309677e-09	4.636494e+00	2.156599e+02
2.380000e-06	6.140354e-07	3.235243e-09	4.267913e+00	2.110551e+02
2.390000e-06	5.606255e-07	3.164344e-09	3.896682e+00	2.063476e+02
2.400000e-06	5.068603e-07	3.091578e-09	3.522982e+00	2.015028e+02
2.410000e-06	4.528168e-07	3.015268e-09	3.147348e+00	1.965013e+02
2.420000e-06	3.986200e-07	2.933308e-09	2.770647e+00	1.913449e+02
2.430000e-06	3.442604e-07	2.852901e-09	2.392816e+00	1.860539e+02
2.440000e-06	2.897033e-07	2.779147e-09	2.013611e+00	1.806576e+02
2.450000e-06	2.350170e-07	2.698578e-09	1.633508e+00	1.751818e+02
2.460000e-06	1.802286e-07	2.610530e-09	1.252697e+00	1.696366e+02
2.470000e-06	1.254202e-07	2.523358e-09	8.717455e-01	1.640113e+02
2.480000e-06	7.061921e-08	2.436071e-09	4.908457e-01	1.582763e+02
2.490000e-06	1.577876e-08	2.351222e-09	1.096718e-01	1.523931e+02
2.500000e-06	-3.907938e-08	2.262074e-09	-2.716251e-01	1.463270e+02
2.510000e-06	-9.395777e-08	2.169841e-09	-6.530626e-01	1.400591e+02
2.520000e-06	-1.488488e-07	2.074410e-09	-1.034588e+00	1.335913e+02
2.530000e-06	-2.036811e-07	1.969957e-09	-1.415705e+00	1.269438e+02
2.540000e-06	-2.584492e-07	1.862896e-09	-1.796376e+00	1.201443e+02
2.550000e-06	-3.131512e-07	1.756598e-09	-2.176588e+00	1.132143e+02
2.560000e-06	-3.676810e-07	1.652343e-09	-2.555603e+00	1.061571e+02
2.570000e-06	-4.220462e-07	1.547225e-09	-2.933474e+00	9.895154e+01
2.580000e-06	-4.762014e-07	1.437891e-09	-3.309885e+00	9.155517e+01
2.590000e-06	-5.300118e-07	1.322835e-09	-3.683899e+00	8.391451e+01
2.600000e-06	-5.834933e-07	1.202080e-09	-4.055627e+00	7.597947e+01
2.610000e-06	-6.366439e-07	1.075889e-09	-4.425055e+00	6.771607e+01
2.620000e-06	-6.893461e-07	9.426253e-10	-4.791367e+00	5.911296e+01
2.630000e-06	-7.416718e-07	8.030152e-10	-5.155062e+00	5.017931e+01
2.640000e-06	-7.936308e-07	6.612998e-10	-5.516208e+00	4.093479e+01
2.650000e-06	-8.451873e-07	5.213665e-10	-5.874557e+00	3.139560e+01
2.660000e-06	-8.964480e-07	3.771955e-10	-6.230850e+00	2.156175e+01
2.670000e-06	-9.474180e-07	2.252325e-10	-6.585121e+00	1.141042e+01
2.680000e-06	-9.981105e-07	6.634082e-11	-6.937464e+00	8.980221e-01
2.690000e-06	-1.048469e-06	-9.898327e-11	-7.287489e+00	-1.002945e+01
2.700000e-06	-1.098386e-06	-2.740231e-10	-7.634439e+00	-2.142122e+01
2.710000e-06	-1.147841e-06	-4.584197e-10	-7.978183e+00	-3.330647e+01
2.720000e-06	-1.196827e-06	-6.481999e-10	-8.318663e+00	-4.568375e+01
2.730000e-06	-1.245250e-06	-8.441342e-10	-8.655232e+00	-5.851768e+01
2.740000e-06	-1.293011e-06	-1.044703e-09	-8.987197e+00	-7.174320e+01
2.750000e-06	-1.339953e-06	-1.249247e-09	-9.313475e+00	-8.527483e+01
2.760000e-06	-1.386265e-06	-1.457402e-09	-9.635371e+00	-9.901708e+01
2.770000e-06	-1.432163e-06	-1.667832e-09	-9.954386e+00	-1.128727e+02
2.780000e-06	-1.477661e-06	-1.879502e-09	-1.027063e+01	-1.267460e+02
2.790000e-06	-1.522840e-06	-2.094298e-09	-1.058465e+01	-1.405429e+02
2.800000e-06	-1.567584e-06	-2.308402e-09	-1.089564e+01	-1.541671e+02
2.810000e-06	-1.611754e-06	-2.514451e-09	-1.120265e+01	-1.675189e+02
2.820000e-06	-1.655354e-06	-2.711605e-09	-1.150570e+01	-1.804953e+02
2.830000e-06	-1.698542e-06	-2.901505e-09	-1.180588e+01	-1.929958e+02
2.840000e-06	-1.741344e-06	-3.084009e-09	-1.210338e+01	-2.049304e+02
2.850000e-06	-1.783615e-06	-3.256387e-09	-1.239719e+01	-2.162291e+02
2.860000e-06	-1.825258e-06	-3.417085e-09	-1.268664e+01	-2.268486e+02
2.870000e-06	-1.866312e-06	-3.567746e-09	-1.297198e+01	-2.367744e+02
2.880000e-06	-1.906719e-06	-3.712680e-09	-1.325284e+01	-2.460183e+02
2.890000e-06	-1.946429e-06	-3.851522e-09	-1.352885e+01	-2.546109e+02
2.900000e-06	-1.985618e-06	-3.978655e-09	-1.380123e+01	-2.625927e+02
2.910000e-06	-2.024253e-06	-4.091765e-09	-1.406977e+01	-2.700063e+02
2.920000e-06	-2.062001e-06	-4.194111e-09	-1.433214e+01	-2.768920e+02
2.930000e-06	-2.098754e-06	-4.292079e-09	-1.458760e+01	-2.832864e+02
2.940000e-06	-2.134625e-06	-4.385115e-09	-1.483692e+01	-2.892249e+02
