# Temperatura_=_21.2
# Concentracion g/m^3_=_13400.0
# C_Vs_to_Am_M_A/Vsm_=_65563218390.804596
# pendiente_HvsI_1/m_=_3716.3
# ordenada_HvsI_A/m_=_1297.0
# frecuencia_Hz_=_300834.689946443

Tiempo_(s)	Campo_(V.s)	Magnetizacion_(V.s)	Campo_(kA/m)	Magnetizacion_(A/m)
0.000000e+00	-2.848947e-06	-6.534261e-09	-1.980245e+01	-4.265816e+02
1.000000e-08	-2.847980e-06	-6.533197e-09	-1.979573e+01	-4.263827e+02
2.000000e-08	-2.846063e-06	-6.531088e-09	-1.978240e+01	-4.261248e+02
3.000000e-08	-2.842928e-06	-6.526716e-09	-1.976061e+01	-4.258237e+02
4.000000e-08	-2.838731e-06	-6.522002e-09	-1.973143e+01	-4.254782e+02
5.000000e-08	-2.833756e-06	-6.516056e-09	-1.969686e+01	-4.250694e+02
6.000000e-08	-2.827946e-06	-6.508444e-09	-1.965647e+01	-4.245690e+02
7.000000e-08	-2.821144e-06	-6.490487e-09	-1.960919e+01	-4.239523e+02
8.000000e-08	-2.813304e-06	-6.481129e-09	-1.955470e+01	-4.232111e+02
9.000000e-08	-2.804279e-06	-6.499316e-09	-1.949197e+01	-4.223619e+02
1.000000e-07	-2.793847e-06	-6.514953e-09	-1.941946e+01	-4.214451e+02
1.100000e-07	-2.782172e-06	-6.428032e-09	-1.933831e+01	-4.205136e+02
1.200000e-07	-2.769709e-06	-6.360906e-09	-1.925168e+01	-4.196167e+02
1.300000e-07	-2.756448e-06	-6.426452e-09	-1.915951e+01	-4.187817e+02
1.400000e-07	-2.742204e-06	-6.482242e-09	-1.906050e+01	-4.180032e+02
1.500000e-07	-2.726992e-06	-6.342708e-09	-1.895476e+01	-4.172415e+02
1.600000e-07	-2.710489e-06	-6.324508e-09	-1.884005e+01	-4.164328e+02
1.700000e-07	-2.692653e-06	-6.441943e-09	-1.871608e+01	-4.155077e+02
1.800000e-07	-2.674051e-06	-6.322005e-09	-1.858678e+01	-4.144110e+02
1.900000e-07	-2.654781e-06	-6.247888e-09	-1.845284e+01	-4.131176e+02
2.000000e-07	-2.634597e-06	-6.345926e-09	-1.831254e+01	-4.116375e+02
2.100000e-07	-2.613567e-06	-6.272785e-09	-1.816637e+01	-4.100107e+02
2.200000e-07	-2.591796e-06	-6.153478e-09	-1.801505e+01	-4.082915e+02
2.300000e-07	-2.569115e-06	-6.264881e-09	-1.785739e+01	-4.065312e+02
2.400000e-07	-2.545412e-06	-6.236408e-09	-1.769264e+01	-4.047617e+02
2.500000e-07	-2.520920e-06	-6.090522e-09	-1.752240e+01	-4.029889e+02
2.600000e-07	-2.495645e-06	-6.127621e-09	-1.734672e+01	-4.011937e+02
2.700000e-07	-2.469330e-06	-6.150600e-09	-1.716380e+01	-3.993430e+02
2.800000e-07	-2.441921e-06	-6.037212e-09	-1.697330e+01	-3.974029e+02
2.900000e-07	-2.413500e-06	-6.032184e-09	-1.677575e+01	-3.953515e+02
3.000000e-07	-2.384227e-06	-6.021202e-09	-1.657227e+01	-3.931851e+02
3.100000e-07	-2.354229e-06	-5.957669e-09	-1.636376e+01	-3.909171e+02
3.200000e-07	-2.323498e-06	-5.960500e-09	-1.615016e+01	-3.885712e+02
3.300000e-07	-2.291957e-06	-5.902522e-09	-1.593092e+01	-3.861709e+02
3.400000e-07	-2.259665e-06	-5.839643e-09	-1.570647e+01	-3.837310e+02
3.500000e-07	-2.226808e-06	-5.825756e-09	-1.547809e+01	-3.812528e+02
3.600000e-07	-2.193285e-06	-5.799695e-09	-1.524508e+01	-3.787253e+02
3.700000e-07	-2.158699e-06	-5.749495e-09	-1.500468e+01	-3.761307e+02
3.800000e-07	-2.122952e-06	-5.705933e-09	-1.475620e+01	-3.734520e+02
3.900000e-07	-2.086438e-06	-5.642393e-09	-1.450240e+01	-3.706787e+02
4.000000e-07	-2.049397e-06	-5.618156e-09	-1.424494e+01	-3.678099e+02
4.100000e-07	-2.011660e-06	-5.592342e-09	-1.398263e+01	-3.648530e+02
4.200000e-07	-1.973145e-06	-5.522309e-09	-1.371493e+01	-3.618194e+02
4.300000e-07	-1.933927e-06	-5.471754e-09	-1.344233e+01	-3.587195e+02
4.400000e-07	-1.894028e-06	-5.438286e-09	-1.316500e+01	-3.555589e+02
4.500000e-07	-1.853614e-06	-5.392031e-09	-1.288409e+01	-3.523372e+02
4.600000e-07	-1.812844e-06	-5.323661e-09	-1.260070e+01	-3.490490e+02
4.700000e-07	-1.771470e-06	-5.271254e-09	-1.231312e+01	-3.456865e+02
4.800000e-07	-1.729096e-06	-5.223047e-09	-1.201859e+01	-3.422431e+02
4.900000e-07	-1.685680e-06	-5.176801e-09	-1.171682e+01	-3.387147e+02
5.000000e-07	-1.641550e-06	-5.124610e-09	-1.141008e+01	-3.350997e+02
5.100000e-07	-1.596984e-06	-5.061918e-09	-1.110031e+01	-3.313986e+02
5.200000e-07	-1.552025e-06	-4.995178e-09	-1.078781e+01	-3.276118e+02
5.300000e-07	-1.506531e-06	-4.944146e-09	-1.047159e+01	-3.237390e+02
5.400000e-07	-1.460426e-06	-4.893439e-09	-1.015112e+01	-3.197789e+02
5.500000e-07	-1.413823e-06	-4.817522e-09	-9.827197e+00	-3.157299e+02
5.600000e-07	-1.366790e-06	-4.750339e-09	-9.500276e+00	-3.115908e+02
5.700000e-07	-1.319232e-06	-4.692339e-09	-9.169714e+00	-3.073608e+02
5.800000e-07	-1.271192e-06	-4.634448e-09	-8.835796e+00	-3.030392e+02
5.900000e-07	-1.222829e-06	-4.562140e-09	-8.499631e+00	-2.986241e+02
6.000000e-07	-1.174168e-06	-4.486038e-09	-8.161401e+00	-2.941116e+02
6.100000e-07	-1.125094e-06	-4.418033e-09	-7.820295e+00	-2.894958e+02
6.200000e-07	-1.075485e-06	-4.350696e-09	-7.475479e+00	-2.847705e+02
6.300000e-07	-1.025192e-06	-4.274383e-09	-7.125897e+00	-2.799317e+02
6.400000e-07	-9.742006e-07	-4.189416e-09	-6.771469e+00	-2.749794e+02
6.500000e-07	-9.226743e-07	-4.113451e-09	-6.413320e+00	-2.699191e+02
6.600000e-07	-8.707479e-07	-4.040139e-09	-6.052390e+00	-2.647599e+02
6.700000e-07	-8.185222e-07	-3.962978e-09	-5.689380e+00	-2.595121e+02
6.800000e-07	-7.660161e-07	-3.876895e-09	-5.324421e+00	-2.541821e+02
6.900000e-07	-7.132722e-07	-3.789771e-09	-4.957809e+00	-2.487691e+02
7.000000e-07	-6.602955e-07	-3.706683e-09	-4.589579e+00	-2.432645e+02
7.100000e-07	-6.070967e-07	-3.624421e-09	-4.219805e+00	-2.376535e+02
7.200000e-07	-5.536858e-07	-3.533436e-09	-3.848557e+00	-2.319200e+02
7.300000e-07	-4.999916e-07	-3.435624e-09	-3.475339e+00	-2.260526e+02
7.400000e-07	-4.460835e-07	-3.343506e-09	-3.100635e+00	-2.200489e+02
7.500000e-07	-3.920085e-07	-3.252814e-09	-2.724771e+00	-2.139159e+02
7.600000e-07	-3.377687e-07	-3.159036e-09	-2.347761e+00	-2.076672e+02
7.700000e-07	-2.834447e-07	-3.057496e-09	-1.970166e+00	-2.013161e+02
7.800000e-07	-2.290860e-07	-2.957437e-09	-1.592330e+00	-1.948691e+02
7.900000e-07	-1.746835e-07	-2.860933e-09	-1.214189e+00	-1.883206e+02
8.000000e-07	-1.202283e-07	-2.758943e-09	-8.356826e-01	-1.816528e+02
8.100000e-07	-6.575587e-08	-2.648221e-09	-4.570556e-01	-1.748400e+02
8.200000e-07	-1.129060e-08	-2.534837e-09	-7.847867e-02	-1.678567e+02
8.300000e-07	4.318101e-08	-2.425142e-09	3.001423e-01	-1.606858e+02
8.400000e-07	9.767566e-08	-2.313279e-09	6.789235e-01	-1.533237e+02
8.500000e-07	1.521802e-07	-2.197732e-09	1.057773e+00	-1.457797e+02
8.600000e-07	2.066216e-07	-2.077238e-09	1.436184e+00	-1.380704e+02
8.700000e-07	2.609597e-07	-1.955381e-09	1.813877e+00	-1.302103e+02
8.800000e-07	3.152671e-07	-1.832423e-09	2.191357e+00	-1.222016e+02
8.900000e-07	3.694872e-07	-1.704592e-09	2.568230e+00	-1.140298e+02
9.000000e-07	4.235150e-07	-1.570875e-09	2.943766e+00	-1.056639e+02
9.100000e-07	4.773936e-07	-1.436655e-09	3.318265e+00	-9.706353e+01
9.200000e-07	5.311362e-07	-1.304424e-09	3.691819e+00	-8.819021e+01
9.300000e-07	5.846285e-07	-1.166311e-09	4.063633e+00	-7.901712e+01
9.400000e-07	6.378043e-07	-1.020231e-09	4.433247e+00	-6.953483e+01
9.500000e-07	6.907278e-07	-8.690814e-10	4.801107e+00	-5.974974e+01
9.600000e-07	7.434477e-07	-7.170242e-10	5.167552e+00	-4.967579e+01
9.700000e-07	7.959117e-07	-5.583127e-10	5.532219e+00	-3.932264e+01
9.800000e-07	8.480854e-07	-3.909391e-10	5.894868e+00	-2.868488e+01
9.900000e-07	8.999103e-07	-2.185329e-10	6.255092e+00	-1.773658e+01
1.000000e-06	9.512929e-07	-4.408856e-11	6.612242e+00	-6.433824e+00
1.010000e-06	1.002116e-06	1.334327e-10	6.965500e+00	5.275629e+00
1.020000e-06	1.052288e-06	3.170518e-10	7.314237e+00	1.743857e+01
1.030000e-06	1.101858e-06	5.071253e-10	7.658787e+00	3.008346e+01
1.040000e-06	1.150927e-06	7.071305e-10	7.999858e+00	4.321259e+01
1.050000e-06	1.199618e-06	9.166864e-10	8.338299e+00	5.680173e+01
1.060000e-06	1.248005e-06	1.134729e-09	8.674629e+00	7.080624e+01
1.070000e-06	1.296103e-06	1.355790e-09	9.008946e+00	8.517057e+01
1.080000e-06	1.343803e-06	1.578487e-09	9.340498e+00	9.983655e+01
1.090000e-06	1.390979e-06	1.803747e-09	9.668412e+00	1.147468e+02
1.100000e-06	1.437648e-06	2.030242e-09	9.992796e+00	1.298420e+02
1.110000e-06	1.483802e-06	2.258372e-09	1.031360e+01	1.450534e+02
1.120000e-06	1.529411e-06	2.488841e-09	1.063062e+01	1.602947e+02
1.130000e-06	1.574533e-06	2.720722e-09	1.094426e+01	1.754581e+02
1.140000e-06	1.619272e-06	2.949510e-09	1.125523e+01	1.904169e+02
1.150000e-06	1.663669e-06	3.171527e-09	1.156382e+01	2.050365e+02
1.160000e-06	1.707546e-06	3.382985e-09	1.186880e+01	2.191900e+02
1.170000e-06	1.750682e-06	3.586792e-09	1.216863e+01	2.327741e+02
1.180000e-06	1.792885e-06	3.782419e-09	1.246197e+01	2.457201e+02
1.190000e-06	1.834200e-06	3.966997e-09	1.274915e+01	2.579965e+02
1.200000e-06	1.874918e-06	4.140975e-09	1.303217e+01	2.696021e+02
1.210000e-06	1.915110e-06	4.304997e-09	1.331154e+01	2.805532e+02
1.220000e-06	1.954717e-06	4.460805e-09	1.358683e+01	2.908697e+02
1.230000e-06	1.993629e-06	4.607549e-09	1.385731e+01	3.005650e+02
1.240000e-06	2.031796e-06	4.744559e-09	1.412259e+01	3.096434e+02
1.250000e-06	2.069253e-06	4.871561e-09	1.438295e+01	3.181053e+02
1.260000e-06	2.106101e-06	4.989538e-09	1.463908e+01	3.259572e+02
1.270000e-06	2.142429e-06	5.096254e-09	1.489158e+01	3.332219e+02
1.280000e-06	2.178038e-06	5.193174e-09	1.513909e+01	3.399434e+02
1.290000e-06	2.212630e-06	5.285220e-09	1.537954e+01	3.461852e+02
1.300000e-06	2.246195e-06	5.372934e-09	1.561284e+01	3.520203e+02
1.310000e-06	2.278944e-06	5.455253e-09	1.584047e+01	3.575180e+02
1.320000e-06	2.311004e-06	5.533269e-09	1.606332e+01	3.627310e+02
1.330000e-06	2.342343e-06	5.610488e-09	1.628115e+01	3.676881e+02
1.340000e-06	2.372885e-06	5.684059e-09	1.649344e+01	3.723952e+02
1.350000e-06	2.402643e-06	5.747762e-09	1.670028e+01	3.768430e+02
1.360000e-06	2.431698e-06	5.803266e-09	1.690224e+01	3.810187e+02
1.370000e-06	2.460015e-06	5.858640e-09	1.709906e+01	3.849173e+02
1.380000e-06	2.487405e-06	5.915724e-09	1.728944e+01	3.885478e+02
1.390000e-06	2.513661e-06	5.969033e-09	1.747194e+01	3.919329e+02
1.400000e-06	2.538812e-06	6.013818e-09	1.764676e+01	3.951023e+02
1.410000e-06	2.563071e-06	6.053830e-09	1.781538e+01	3.980842e+02
1.420000e-06	2.586505e-06	6.094661e-09	1.797827e+01	4.008972e+02
1.430000e-06	2.609085e-06	6.134612e-09	1.813522e+01	4.035479e+02
1.440000e-06	2.630798e-06	6.169485e-09	1.828614e+01	4.060332e+02
1.450000e-06	2.651669e-06	6.199813e-09	1.843121e+01	4.083468e+02
1.460000e-06	2.671736e-06	6.231222e-09	1.857069e+01	4.104869e+02
1.470000e-06	2.690904e-06	6.264007e-09	1.870392e+01	4.124611e+02
1.480000e-06	2.709143e-06	6.292729e-09	1.883070e+01	4.142863e+02
1.490000e-06	2.726457e-06	6.315923e-09	1.895104e+01	4.159837e+02
1.500000e-06	2.742729e-06	6.337261e-09	1.906415e+01	4.175717e+02
1.510000e-06	2.757918e-06	6.358486e-09	1.916972e+01	4.190594e+02
1.520000e-06	2.772030e-06	6.378225e-09	1.926781e+01	4.204439e+02
1.530000e-06	2.785106e-06	6.395783e-09	1.935870e+01	4.217129e+02
1.540000e-06	2.797164e-06	6.412980e-09	1.944252e+01	4.228519e+02
1.550000e-06	2.807990e-06	6.430707e-09	1.951776e+01	4.238524e+02
1.560000e-06	2.817528e-06	6.446220e-09	1.958406e+01	4.247173e+02
1.570000e-06	2.826038e-06	6.458675e-09	1.964321e+01	4.254619e+02
1.580000e-06	2.833637e-06	6.468758e-09	1.969603e+01	4.261088e+02
1.590000e-06	2.840327e-06	6.478189e-09	1.974253e+01	4.266799e+02
1.600000e-06	2.846072e-06	6.486487e-09	1.978247e+01	4.271872e+02
1.610000e-06	2.850940e-06	6.491271e-09	1.981630e+01	4.276287e+02
1.620000e-06	2.854895e-06	6.493910e-09	1.984379e+01	4.279894e+02
1.630000e-06	2.857698e-06	6.499217e-09	1.986327e+01	4.282483e+02
1.640000e-06	2.859298e-06	6.506874e-09	1.987439e+01	4.283881e+02
1.650000e-06	2.859889e-06	6.510593e-09	1.987850e+01	4.284041e+02
1.660000e-06	2.859596e-06	6.509141e-09	1.987647e+01	4.283073e+02
1.670000e-06	2.858439e-06	6.505643e-09	1.986842e+01	4.281209e+02
1.680000e-06	2.856405e-06	6.501844e-09	1.985429e+01	4.278714e+02
1.690000e-06	2.853528e-06	6.496941e-09	1.983429e+01	4.275770e+02
1.700000e-06	2.849841e-06	6.488655e-09	1.980866e+01	4.272398e+02
1.710000e-06	2.845209e-06	6.479533e-09	1.977646e+01	4.268436e+02
1.720000e-06	2.839408e-06	6.472888e-09	1.973614e+01	4.263612e+02
1.730000e-06	2.832545e-06	6.483621e-09	1.968844e+01	4.257659e+02
1.740000e-06	2.824810e-06	6.460086e-09	1.963468e+01	4.250459e+02
1.750000e-06	2.815790e-06	6.400846e-09	1.957198e+01	4.242131e+02
1.760000e-06	2.805175e-06	6.380271e-09	1.949820e+01	4.233040e+02
1.770000e-06	2.793579e-06	6.471632e-09	1.941760e+01	4.223706e+02
1.780000e-06	2.781749e-06	6.466826e-09	1.933537e+01	4.214641e+02
1.790000e-06	2.769259e-06	6.324077e-09	1.924855e+01	4.206169e+02
1.800000e-06	2.755207e-06	6.325770e-09	1.915088e+01	4.198297e+02
1.810000e-06	2.739885e-06	6.444241e-09	1.904438e+01	4.190686e+02
1.820000e-06	2.723946e-06	6.368791e-09	1.893359e+01	4.182729e+02
1.830000e-06	2.707032e-06	6.251270e-09	1.881602e+01	4.173727e+02
1.840000e-06	2.688812e-06	6.381506e-09	1.868938e+01	4.163089e+02
1.850000e-06	2.669768e-06	6.362308e-09	1.855701e+01	4.150503e+02
1.860000e-06	2.650013e-06	6.186732e-09	1.841970e+01	4.136008e+02
1.870000e-06	2.629087e-06	6.294431e-09	1.827425e+01	4.119958e+02
1.880000e-06	2.607058e-06	6.321623e-09	1.812113e+01	4.102885e+02
1.890000e-06	2.584088e-06	6.110306e-09	1.796147e+01	4.085318e+02
1.900000e-06	2.560118e-06	6.178607e-09	1.779486e+01	4.067623e+02
1.910000e-06	2.535388e-06	6.246913e-09	1.762296e+01	4.049902e+02
1.920000e-06	2.509915e-06	6.083334e-09	1.744591e+01	4.032007e+02
1.930000e-06	2.483520e-06	6.077720e-09	1.726244e+01	4.013619e+02
1.940000e-06	2.456373e-06	6.124733e-09	1.707375e+01	3.994393e+02
1.950000e-06	2.428443e-06	6.017312e-09	1.687961e+01	3.974080e+02
1.960000e-06	2.399331e-06	6.006018e-09	1.667726e+01	3.952610e+02
1.970000e-06	2.369117e-06	5.993650e-09	1.646725e+01	3.930090e+02
1.980000e-06	2.338150e-06	5.905253e-09	1.625200e+01	3.906746e+02
1.990000e-06	2.306443e-06	5.925734e-09	1.603161e+01	3.882820e+02
2.000000e-06	2.274019e-06	5.882061e-09	1.580624e+01	3.858481e+02
2.010000e-06	2.240824e-06	5.804371e-09	1.557551e+01	3.833767e+02
2.020000e-06	2.206865e-06	5.804669e-09	1.533947e+01	3.808586e+02
2.030000e-06	2.172282e-06	5.741399e-09	1.509908e+01	3.782768e+02
2.040000e-06	2.137055e-06	5.707617e-09	1.485423e+01	3.756135e+02
2.050000e-06	2.101128e-06	5.702038e-09	1.460451e+01	3.728569e+02
2.060000e-06	2.064281e-06	5.612665e-09	1.434840e+01	3.700042e+02
2.070000e-06	2.026320e-06	5.582160e-09	1.408453e+01	3.670617e+02
2.080000e-06	1.987487e-06	5.561372e-09	1.381461e+01	3.640404e+02
2.090000e-06	1.948095e-06	5.478563e-09	1.354081e+01	3.609511e+02
2.100000e-06	1.908116e-06	5.441866e-09	1.326292e+01	3.578007e+02
2.110000e-06	1.867529e-06	5.398353e-09	1.298081e+01	3.545896e+02
2.120000e-06	1.826350e-06	5.346513e-09	1.269458e+01	3.513132e+02
2.130000e-06	1.784529e-06	5.300487e-09	1.240390e+01	3.479640e+02
2.140000e-06	1.742085e-06	5.237159e-09	1.210888e+01	3.445349e+02
2.150000e-06	1.699147e-06	5.195556e-09	1.181042e+01	3.410212e+02
2.160000e-06	1.655799e-06	5.138083e-09	1.150912e+01	3.374211e+02
2.170000e-06	1.611937e-06	5.086974e-09	1.120424e+01	3.337348e+02
2.180000e-06	1.567458e-06	5.040653e-09	1.089508e+01	3.299627e+02
2.190000e-06	1.522325e-06	4.959405e-09	1.058137e+01	3.261047e+02
2.200000e-06	1.476615e-06	4.895746e-09	1.026365e+01	3.221598e+02
2.210000e-06	1.430509e-06	4.849245e-09	9.943178e+00	3.181262e+02
2.220000e-06	1.384001e-06	4.783087e-09	9.619908e+00	3.140026e+02
2.230000e-06	1.336984e-06	4.725223e-09	9.293105e+00	3.097883e+02
2.240000e-06	1.289341e-06	4.658875e-09	8.961948e+00	3.054826e+02
2.250000e-06	1.241042e-06	4.591858e-09	8.626226e+00	3.010839e+02
2.260000e-06	1.192296e-06	4.526542e-09	8.287407e+00	2.965885e+02
2.270000e-06	1.143201e-06	4.442584e-09	7.946156e+00	2.919911e+02
2.280000e-06	1.093680e-06	4.373519e-09	7.601944e+00	2.872852e+02
2.290000e-06	1.043759e-06	4.306437e-09	7.254954e+00	2.824663e+02
2.300000e-06	9.934234e-07	4.235319e-09	6.905083e+00	2.775334e+02
2.310000e-06	9.426626e-07	4.160506e-09	6.552255e+00	2.724912e+02
2.320000e-06	8.916038e-07	4.078264e-09	6.197355e+00	2.673483e+02
2.330000e-06	8.403382e-07	4.000417e-09	5.841018e+00	2.621151e+02
2.340000e-06	7.888025e-07	3.919611e-09	5.482804e+00	2.567990e+02
2.350000e-06	7.368295e-07	3.838495e-09	5.121551e+00	2.514007e+02
2.360000e-06	6.844163e-07	3.755985e-09	4.757237e+00	2.459129e+02
2.370000e-06	6.315994e-07	3.669073e-09	4.390118e+00	2.403215e+02
2.380000e-06	5.784271e-07	3.587405e-09	4.020528e+00	2.346103e+02
2.390000e-06	5.248936e-07	3.501631e-09	3.648428e+00	2.287668e+02
2.400000e-06	4.709780e-07	3.406480e-09	3.273671e+00	2.227866e+02
2.410000e-06	4.167945e-07	3.314228e-09	2.897053e+00	2.166752e+02
2.420000e-06	3.624231e-07	3.221521e-09	2.519129e+00	2.104454e+02
2.430000e-06	3.078705e-07	3.129099e-09	2.139945e+00	2.041113e+02
2.440000e-06	2.531816e-07	3.030185e-09	1.759813e+00	1.976809e+02
2.450000e-06	1.984216e-07	2.924773e-09	1.379188e+00	1.911510e+02
2.460000e-06	1.435925e-07	2.826524e-09	9.980817e-01	1.845056e+02
2.470000e-06	8.872914e-08	2.728207e-09	6.167381e-01	1.777201e+02
2.480000e-06	3.383330e-08	2.625655e-09	2.351683e-01	1.707683e+02
2.490000e-06	-2.107145e-08	2.518080e-09	-1.464633e-01	1.636310e+02
2.500000e-06	-7.600260e-08	2.407633e-09	-5.282785e-01	1.563021e+02
2.510000e-06	-1.309422e-07	2.298061e-09	-9.101524e-01	1.487889e+02
2.520000e-06	-1.858518e-07	2.184335e-09	-1.291818e+00	1.411073e+02
2.530000e-06	-2.406771e-07	2.063735e-09	-1.672897e+00	1.332729e+02
2.540000e-06	-2.953574e-07	1.939914e-09	-2.052969e+00	1.252907e+02
2.550000e-06	-3.499512e-07	1.814425e-09	-2.432439e+00	1.171494e+02
2.560000e-06	-4.043974e-07	1.687982e-09	-2.810884e+00	1.088203e+02
2.570000e-06	-4.586004e-07	1.559629e-09	-3.187638e+00	1.002643e+02
2.580000e-06	-5.125488e-07	1.428410e-09	-3.562622e+00	9.144155e+01
2.590000e-06	-5.661889e-07	1.294611e-09	-3.935463e+00	8.232263e+01
2.600000e-06	-6.194164e-07	1.154173e-09	-4.305437e+00	7.289490e+01
2.610000e-06	-6.722474e-07	1.004912e-09	-4.672654e+00	6.316235e+01
2.620000e-06	-7.246847e-07	8.474872e-10	-5.037135e+00	5.313841e+01
2.630000e-06	-7.766755e-07	6.862523e-10	-5.398513e+00	4.283440e+01
2.640000e-06	-8.282936e-07	5.267611e-10	-5.757299e+00	3.224818e+01
2.650000e-06	-8.795943e-07	3.661586e-10	-6.113880e+00	2.135756e+01
2.660000e-06	-9.306206e-07	1.994868e-10	-6.468553e+00	1.012128e+01
2.670000e-06	-9.814070e-07	2.471119e-11	-6.821559e+00	-1.512346e+00
2.680000e-06	-1.031877e-06	-1.565853e-10	-7.172366e+00	-1.359213e+01
2.690000e-06	-1.081911e-06	-3.463151e-10	-7.520143e+00	-2.615055e+01
2.700000e-06	-1.131481e-06	-5.464348e-10	-7.864691e+00	-3.919485e+01
2.710000e-06	-1.180612e-06	-7.567228e-10	-8.206189e+00	-5.270523e+01
2.720000e-06	-1.229241e-06	-9.740214e-10	-8.544202e+00	-6.664002e+01
2.730000e-06	-1.277179e-06	-1.192498e-09	-8.877413e+00	-8.094494e+01
2.740000e-06	-1.324342e-06	-1.412609e-09	-9.205232e+00	-9.556186e+01
2.750000e-06	-1.370859e-06	-1.638604e-09	-9.528561e+00	-1.104333e+02
2.760000e-06	-1.416892e-06	-1.868531e-09	-9.848523e+00	-1.255007e+02
2.770000e-06	-1.462533e-06	-2.097995e-09	-1.016577e+01	-1.406976e+02
2.780000e-06	-1.507862e-06	-2.329849e-09	-1.048084e+01	-1.559415e+02
2.790000e-06	-1.552819e-06	-2.565922e-09	-1.079332e+01	-1.711282e+02
2.800000e-06	-1.597237e-06	-2.800644e-09	-1.110207e+01	-1.861340e+02
2.810000e-06	-1.641050e-06	-3.027559e-09	-1.140660e+01	-2.008245e+02
2.820000e-06	-1.684403e-06	-3.248386e-09	-1.170794e+01	-2.150702e+02
2.830000e-06	-1.727371e-06	-3.460634e-09	-1.200660e+01	-2.287626e+02
2.840000e-06	-1.769840e-06	-3.659911e-09	-1.230180e+01	-2.418265e+02
2.850000e-06	-1.811705e-06	-3.846624e-09	-1.259279e+01	-2.542239e+02
2.860000e-06	-1.852945e-06	-4.023763e-09	-1.287944e+01	-2.659490e+02
2.870000e-06	-1.893530e-06	-4.196154e-09	-1.316154e+01	-2.770160e+02
2.880000e-06	-1.933460e-06	-4.361129e-09	-1.343908e+01	-2.874452e+02
2.890000e-06	-1.972843e-06	-4.516300e-09	-1.371282e+01	-2.972514e+02
2.900000e-06	-2.011707e-06	-4.662030e-09	-1.398296e+01	-3.064405e+02
2.910000e-06	-2.049824e-06	-4.796379e-09	-1.424791e+01	-3.150129e+02
2.920000e-06	-2.086940e-06	-4.915596e-09	-1.450589e+01	-3.229733e+02
2.930000e-06	-2.123076e-06	-5.023491e-09	-1.475707e+01	-3.303407e+02
2.940000e-06	-2.158455e-06	-5.128766e-09	-1.500298e+01	-3.371556e+02
