# Temperatura_=_24.13
# Concentracion g/m^3_=_13400.0
# C_Vs_to_Am_M_A/Vsm_=_65563218390.804596
# pendiente_HvsI_1/m_=_3716.3
# ordenada_HvsI_A/m_=_1297.0
# frecuencia_Hz_=_300841.2086139753

Tiempo_(s)	Campo_(V.s)	Magnetizacion_(V.s)	Campo_(kA/m)	Magnetizacion_(A/m)
0.000000e+00	-2.849506e-06	-5.647672e-09	-1.980600e+01	-3.691008e+02
1.000000e-08	-2.849026e-06	-5.647756e-09	-1.980267e+01	-3.690682e+02
2.000000e-08	-2.847747e-06	-5.650746e-09	-1.979377e+01	-3.689782e+02
3.000000e-08	-2.845421e-06	-5.651250e-09	-1.977761e+01	-3.688204e+02
4.000000e-08	-2.841902e-06	-5.647928e-09	-1.975315e+01	-3.685844e+02
5.000000e-08	-2.837426e-06	-5.640378e-09	-1.972204e+01	-3.682631e+02
6.000000e-08	-2.832130e-06	-5.628463e-09	-1.968523e+01	-3.678552e+02
7.000000e-08	-2.825927e-06	-5.615413e-09	-1.964211e+01	-3.673659e+02
8.000000e-08	-2.818735e-06	-5.601849e-09	-1.959212e+01	-3.668064e+02
9.000000e-08	-2.810490e-06	-5.619115e-09	-1.953481e+01	-3.661923e+02
1.000000e-07	-2.801025e-06	-5.638285e-09	-1.946903e+01	-3.655399e+02
1.100000e-07	-2.790233e-06	-5.611588e-09	-1.939401e+01	-3.648642e+02
1.200000e-07	-2.778332e-06	-5.518222e-09	-1.931130e+01	-3.641755e+02
1.300000e-07	-2.765597e-06	-5.526653e-09	-1.922278e+01	-3.634778e+02
1.400000e-07	-2.751943e-06	-5.625812e-09	-1.912788e+01	-3.627677e+02
1.500000e-07	-2.737337e-06	-5.551023e-09	-1.902635e+01	-3.620349e+02
1.600000e-07	-2.721736e-06	-5.461018e-09	-1.891791e+01	-3.612638e+02
1.700000e-07	-2.704817e-06	-5.543023e-09	-1.880032e+01	-3.604360e+02
1.800000e-07	-2.686688e-06	-5.575983e-09	-1.867431e+01	-3.595339e+02
1.900000e-07	-2.667797e-06	-5.442000e-09	-1.854300e+01	-3.585431e+02
2.000000e-07	-2.648173e-06	-5.443350e-09	-1.840660e+01	-3.574556e+02
2.100000e-07	-2.627678e-06	-5.509719e-09	-1.826415e+01	-3.562707e+02
2.200000e-07	-2.606354e-06	-5.393871e-09	-1.811593e+01	-3.549948e+02
2.300000e-07	-2.584204e-06	-5.373576e-09	-1.796197e+01	-3.536398e+02
2.400000e-07	-2.561139e-06	-5.462194e-09	-1.780166e+01	-3.522206e+02
2.500000e-07	-2.537185e-06	-5.373337e-09	-1.763516e+01	-3.507516e+02
2.600000e-07	-2.512454e-06	-5.305980e-09	-1.746326e+01	-3.492441e+02
2.700000e-07	-2.486831e-06	-5.344261e-09	-1.728517e+01	-3.477037e+02
2.800000e-07	-2.460089e-06	-5.297370e-09	-1.709929e+01	-3.461305e+02
2.900000e-07	-2.432281e-06	-5.255330e-09	-1.690600e+01	-3.445188e+02
3.000000e-07	-2.403587e-06	-5.248164e-09	-1.670656e+01	-3.428598e+02
3.100000e-07	-2.374092e-06	-5.225398e-09	-1.650155e+01	-3.411436e+02
3.200000e-07	-2.343867e-06	-5.208165e-09	-1.629147e+01	-3.393618e+02
3.300000e-07	-2.312913e-06	-5.176476e-09	-1.607631e+01	-3.375093e+02
3.400000e-07	-2.281171e-06	-5.118831e-09	-1.585569e+01	-3.355857e+02
3.500000e-07	-2.248719e-06	-5.106846e-09	-1.563012e+01	-3.335942e+02
3.600000e-07	-2.215608e-06	-5.076500e-09	-1.539998e+01	-3.315407e+02
3.700000e-07	-2.181705e-06	-5.026325e-09	-1.516433e+01	-3.294321e+02
3.800000e-07	-2.146718e-06	-5.029478e-09	-1.492115e+01	-3.272737e+02
3.900000e-07	-2.110676e-06	-4.981332e-09	-1.467063e+01	-3.250678e+02
4.000000e-07	-2.073966e-06	-4.920264e-09	-1.441547e+01	-3.228134e+02
4.100000e-07	-2.036614e-06	-4.913037e-09	-1.415585e+01	-3.205059e+02
4.200000e-07	-1.998535e-06	-4.880303e-09	-1.389117e+01	-3.181392e+02
4.300000e-07	-1.959750e-06	-4.812339e-09	-1.362159e+01	-3.157072e+02
4.400000e-07	-1.920246e-06	-4.786409e-09	-1.334701e+01	-3.132055e+02
4.500000e-07	-1.880115e-06	-4.756732e-09	-1.306807e+01	-3.106331e+02
4.600000e-07	-1.839529e-06	-4.708920e-09	-1.278598e+01	-3.079920e+02
4.700000e-07	-1.798479e-06	-4.667887e-09	-1.250065e+01	-3.052862e+02
4.800000e-07	-1.756753e-06	-4.620847e-09	-1.221062e+01	-3.025196e+02
4.900000e-07	-1.714072e-06	-4.574975e-09	-1.191396e+01	-2.996943e+02
5.000000e-07	-1.670414e-06	-4.530768e-09	-1.161051e+01	-2.968088e+02
5.100000e-07	-1.626102e-06	-4.490750e-09	-1.130251e+01	-2.938578e+02
5.200000e-07	-1.581390e-06	-4.441515e-09	-1.099173e+01	-2.908338e+02
5.300000e-07	-1.536290e-06	-4.396576e-09	-1.067826e+01	-2.877289e+02
5.400000e-07	-1.490613e-06	-4.349257e-09	-1.036077e+01	-2.845379e+02
5.500000e-07	-1.444342e-06	-4.299291e-09	-1.003916e+01	-2.812595e+02
5.600000e-07	-1.397618e-06	-4.240790e-09	-9.714392e+00	-2.778970e+02
5.700000e-07	-1.350407e-06	-4.181102e-09	-9.386244e+00	-2.744568e+02
5.800000e-07	-1.302642e-06	-4.133421e-09	-9.054246e+00	-2.709452e+02
5.900000e-07	-1.254460e-06	-4.086238e-09	-8.719352e+00	-2.673652e+02
6.000000e-07	-1.205970e-06	-4.029158e-09	-8.382314e+00	-2.637145e+02
6.100000e-07	-1.157120e-06	-3.965670e-09	-8.042770e+00	-2.599852e+02
6.200000e-07	-1.107814e-06	-3.910062e-09	-7.700059e+00	-2.561654e+02
6.300000e-07	-1.057942e-06	-3.848460e-09	-7.353413e+00	-2.522438e+02
6.400000e-07	-1.007430e-06	-3.783082e-09	-7.002321e+00	-2.482136e+02
6.500000e-07	-9.562833e-07	-3.716121e-09	-6.646818e+00	-2.440758e+02
6.600000e-07	-9.046193e-07	-3.651665e-09	-6.287719e+00	-2.398397e+02
6.700000e-07	-8.525404e-07	-3.590270e-09	-5.925735e+00	-2.355206e+02
6.800000e-07	-8.001562e-07	-3.525147e-09	-5.561629e+00	-2.311340e+02
6.900000e-07	-7.475652e-07	-3.456022e-09	-5.196086e+00	-2.266906e+02
7.000000e-07	-6.947266e-07	-3.383435e-09	-4.828822e+00	-2.221908e+02
7.100000e-07	-6.416508e-07	-3.314276e-09	-4.459909e+00	-2.176236e+02
7.200000e-07	-5.883895e-07	-3.242766e-09	-4.089707e+00	-2.129690e+02
7.300000e-07	-5.349253e-07	-3.167314e-09	-3.718094e+00	-2.082034e+02
7.400000e-07	-4.812593e-07	-3.088746e-09	-3.345079e+00	-2.033071e+02
7.500000e-07	-4.273477e-07	-3.012402e-09	-2.970357e+00	-1.982701e+02
7.600000e-07	-3.731969e-07	-2.935702e-09	-2.593972e+00	-1.930947e+02
7.700000e-07	-3.189681e-07	-2.853361e-09	-2.217045e+00	-1.877938e+02
7.800000e-07	-2.646692e-07	-2.766924e-09	-1.839631e+00	-1.823848e+02
7.900000e-07	-2.102963e-07	-2.680853e-09	-1.461702e+00	-1.768821e+02
8.000000e-07	-1.558747e-07	-2.600697e-09	-1.083435e+00	-1.712893e+02
8.100000e-07	-1.014003e-07	-2.517271e-09	-7.048008e-01	-1.655964e+02
8.200000e-07	-4.691771e-08	-2.425170e-09	-3.261100e-01	-1.597812e+02
8.300000e-07	7.583586e-09	-2.326435e-09	5.271107e-02	-1.538148e+02
8.400000e-07	6.210901e-08	-2.228757e-09	4.316998e-01	-1.476708e+02
8.500000e-07	1.166102e-07	-2.131652e-09	8.105200e-01	-1.413327e+02
8.600000e-07	1.710569e-07	-2.031065e-09	1.188962e+00	-1.347980e+02
8.700000e-07	2.254498e-07	-1.928030e-09	1.567029e+00	-1.280765e+02
8.800000e-07	2.797965e-07	-1.825092e-09	1.944775e+00	-1.211845e+02
8.900000e-07	3.340519e-07	-1.721322e-09	2.321888e+00	-1.141347e+02
9.000000e-07	3.881922e-07	-1.608047e-09	2.698199e+00	-1.069276e+02
9.100000e-07	4.422187e-07	-1.486644e-09	3.073720e+00	-9.954674e+01
9.200000e-07	4.960407e-07	-1.362743e-09	3.447820e+00	-9.195907e+01
9.300000e-07	5.496265e-07	-1.243374e-09	3.820278e+00	-8.412200e+01
9.400000e-07	6.029977e-07	-1.123703e-09	4.191244e+00	-7.599310e+01
9.500000e-07	6.561619e-07	-9.970438e-10	4.560771e+00	-6.753991e+01
9.600000e-07	7.090967e-07	-8.635297e-10	4.928704e+00	-5.874568e+01
9.700000e-07	7.617731e-07	-7.239020e-10	5.294841e+00	-4.960906e+01
9.800000e-07	8.141918e-07	-5.786268e-10	5.659186e+00	-4.013746e+01
9.900000e-07	8.663242e-07	-4.252912e-10	6.021541e+00	-3.033668e+01
1.000000e-06	9.180997e-07	-2.657511e-10	6.381416e+00	-2.020064e+01
1.010000e-06	9.693623e-07	-1.013250e-10	6.737726e+00	-9.705213e+00
1.020000e-06	1.019999e-06	6.494752e-11	7.089686e+00	1.190939e+00
1.030000e-06	1.069995e-06	2.347542e-10	7.437193e+00	1.253818e+01
1.040000e-06	1.119409e-06	4.122163e-10	7.780655e+00	2.438242e+01
1.050000e-06	1.168383e-06	6.016631e-10	8.121057e+00	3.675028e+01
1.060000e-06	1.217032e-06	8.015516e-10	8.459199e+00	4.963731e+01
1.070000e-06	1.265413e-06	1.006608e-09	8.795481e+00	6.300256e+01
1.080000e-06	1.313430e-06	1.216649e-09	9.129232e+00	7.677080e+01
1.090000e-06	1.360937e-06	1.430518e-09	9.459434e+00	9.084115e+01
1.100000e-06	1.407921e-06	1.647011e-09	9.786009e+00	1.050989e+02
1.110000e-06	1.454444e-06	1.861786e-09	1.010937e+01	1.194267e+02
1.120000e-06	1.500524e-06	2.075119e-09	1.042966e+01	1.337125e+02
1.130000e-06	1.546074e-06	2.288373e-09	1.074626e+01	1.478518e+02
1.140000e-06	1.591098e-06	2.501025e-09	1.105921e+01	1.617462e+02
1.150000e-06	1.635741e-06	2.709278e-09	1.136951e+01	1.753005e+02
1.160000e-06	1.679992e-06	2.907241e-09	1.167709e+01	1.884197e+02
1.170000e-06	1.723590e-06	3.094807e-09	1.198012e+01	2.010111e+02
1.180000e-06	1.766343e-06	3.275533e-09	1.227729e+01	2.129891e+02
1.190000e-06	1.808236e-06	3.448776e-09	1.256847e+01	2.242840e+02
1.200000e-06	1.849349e-06	3.609382e-09	1.285424e+01	2.348500e+02
1.210000e-06	1.889883e-06	3.756904e-09	1.313597e+01	2.446714e+02
1.220000e-06	1.929879e-06	3.893266e-09	1.341397e+01	2.537632e+02
1.230000e-06	1.969206e-06	4.021006e-09	1.368732e+01	2.621662e+02
1.240000e-06	2.007841e-06	4.138018e-09	1.395586e+01	2.699376e+02
1.250000e-06	2.045770e-06	4.243303e-09	1.421949e+01	2.771404e+02
1.260000e-06	2.082992e-06	4.341720e-09	1.447821e+01	2.838339e+02
1.270000e-06	2.119667e-06	4.437397e-09	1.473313e+01	2.900676e+02
1.280000e-06	2.155799e-06	4.526635e-09	1.498427e+01	2.958804e+02
1.290000e-06	2.191067e-06	4.605801e-09	1.522941e+01	3.013030e+02
1.300000e-06	2.225277e-06	4.677530e-09	1.546719e+01	3.063629e+02
1.310000e-06	2.258541e-06	4.747652e-09	1.569839e+01	3.110880e+02
1.320000e-06	2.291040e-06	4.817480e-09	1.592428e+01	3.155084e+02
1.330000e-06	2.322860e-06	4.880179e-09	1.614545e+01	3.196552e+02
1.340000e-06	2.353951e-06	4.935233e-09	1.636156e+01	3.235567e+02
1.350000e-06	2.384272e-06	4.986246e-09	1.657231e+01	3.272346e+02
1.360000e-06	2.413805e-06	5.034467e-09	1.677758e+01	3.307015e+02
1.370000e-06	2.442556e-06	5.081139e-09	1.697742e+01	3.339616e+02
1.380000e-06	2.470500e-06	5.125106e-09	1.717165e+01	3.370137e+02
1.390000e-06	2.497442e-06	5.168032e-09	1.735892e+01	3.398568e+02
1.400000e-06	2.523279e-06	5.209194e-09	1.753850e+01	3.424944e+02
1.410000e-06	2.548143e-06	5.244471e-09	1.771132e+01	3.449383e+02
1.420000e-06	2.572126e-06	5.274013e-09	1.787802e+01	3.472078e+02
1.430000e-06	2.595214e-06	5.301673e-09	1.803850e+01	3.493270e+02
1.440000e-06	2.617421e-06	5.330657e-09	1.819285e+01	3.513191e+02
1.450000e-06	2.638802e-06	5.359033e-09	1.834147e+01	3.532019e+02
1.460000e-06	2.659428e-06	5.384731e-09	1.848483e+01	3.549839e+02
1.470000e-06	2.679244e-06	5.409209e-09	1.862256e+01	3.566645e+02
1.480000e-06	2.698094e-06	5.434110e-09	1.875359e+01	3.582372e+02
1.490000e-06	2.715952e-06	5.457017e-09	1.887771e+01	3.596935e+02
1.500000e-06	2.732790e-06	5.475303e-09	1.899474e+01	3.610286e+02
1.510000e-06	2.748561e-06	5.491247e-09	1.910437e+01	3.622442e+02
1.520000e-06	2.763313e-06	5.508637e-09	1.920690e+01	3.633493e+02
1.530000e-06	2.777044e-06	5.525450e-09	1.930234e+01	3.643575e+02
1.540000e-06	2.789725e-06	5.537876e-09	1.939048e+01	3.652834e+02
1.550000e-06	2.801291e-06	5.547419e-09	1.947087e+01	3.661378e+02
1.560000e-06	2.811590e-06	5.559035e-09	1.954246e+01	3.669252e+02
1.570000e-06	2.820730e-06	5.573433e-09	1.960599e+01	3.676428e+02
1.580000e-06	2.828941e-06	5.585972e-09	1.966306e+01	3.682827e+02
1.590000e-06	2.836238e-06	5.594698e-09	1.971378e+01	3.688358e+02
1.600000e-06	2.842576e-06	5.602375e-09	1.975783e+01	3.692953e+02
1.610000e-06	2.847967e-06	5.609301e-09	1.979531e+01	3.696603e+02
1.620000e-06	2.852467e-06	5.612627e-09	1.982658e+01	3.699361e+02
1.630000e-06	2.855973e-06	5.612895e-09	1.985095e+01	3.701334e+02
1.640000e-06	2.858338e-06	5.614948e-09	1.986739e+01	3.702649e+02
1.650000e-06	2.859623e-06	5.620455e-09	1.987632e+01	3.703413e+02
1.660000e-06	2.859936e-06	5.623943e-09	1.987850e+01	3.703689e+02
1.670000e-06	2.859337e-06	5.624546e-09	1.987433e+01	3.703475e+02
1.680000e-06	2.857829e-06	5.623741e-09	1.986385e+01	3.702706e+02
1.690000e-06	2.855424e-06	5.621937e-09	1.984713e+01	3.701283e+02
1.700000e-06	2.852247e-06	5.617491e-09	1.982505e+01	3.699098e+02
1.710000e-06	2.848230e-06	5.610274e-09	1.979713e+01	3.696071e+02
1.720000e-06	2.843138e-06	5.605333e-09	1.976174e+01	3.692176e+02
1.730000e-06	2.836975e-06	5.605117e-09	1.971890e+01	3.687449e+02
1.740000e-06	2.829857e-06	5.605416e-09	1.966943e+01	3.681994e+02
1.750000e-06	2.821686e-06	5.558063e-09	1.961264e+01	3.675955e+02
1.760000e-06	2.812149e-06	5.520261e-09	1.954635e+01	3.669500e+02
1.770000e-06	2.801191e-06	5.575833e-09	1.947018e+01	3.662782e+02
1.780000e-06	2.789474e-06	5.610094e-09	1.938874e+01	3.655918e+02
1.790000e-06	2.777501e-06	5.549457e-09	1.930552e+01	3.648961e+02
1.800000e-06	2.764584e-06	5.451030e-09	1.921574e+01	3.641893e+02
1.810000e-06	2.750083e-06	5.533837e-09	1.911494e+01	3.634626e+02
1.820000e-06	2.734541e-06	5.557789e-09	1.900692e+01	3.627012e+02
1.830000e-06	2.718312e-06	5.411677e-09	1.889412e+01	3.618871e+02
1.840000e-06	2.700926e-06	5.456653e-09	1.877327e+01	3.610023e+02
1.850000e-06	2.682395e-06	5.556913e-09	1.864447e+01	3.600314e+02
1.860000e-06	2.663122e-06	5.447802e-09	1.851051e+01	3.589650e+02
1.870000e-06	2.642936e-06	5.391377e-09	1.837020e+01	3.578007e+02
1.880000e-06	2.621593e-06	5.492164e-09	1.822185e+01	3.565434e+02
1.890000e-06	2.599256e-06	5.408777e-09	1.806659e+01	3.552042e+02
1.900000e-06	2.575979e-06	5.297367e-09	1.790480e+01	3.537975e+02
1.910000e-06	2.551758e-06	5.386623e-09	1.773645e+01	3.523381e+02
1.920000e-06	2.526742e-06	5.372859e-09	1.756257e+01	3.508381e+02
1.930000e-06	2.500926e-06	5.275031e-09	1.738313e+01	3.493046e+02
1.940000e-06	2.474286e-06	5.310242e-09	1.719797e+01	3.477387e+02
1.950000e-06	2.446921e-06	5.271272e-09	1.700776e+01	3.461360e+02
1.960000e-06	2.418635e-06	5.224775e-09	1.681116e+01	3.444880e+02
1.970000e-06	2.389217e-06	5.226214e-09	1.660668e+01	3.427848e+02
1.980000e-06	2.358815e-06	5.161743e-09	1.639537e+01	3.410176e+02
1.990000e-06	2.327597e-06	5.159982e-09	1.617838e+01	3.391806e+02
2.000000e-06	2.295641e-06	5.161915e-09	1.595626e+01	3.372720e+02
2.010000e-06	2.262924e-06	5.073335e-09	1.572886e+01	3.352946e+02
2.020000e-06	2.229396e-06	5.072219e-09	1.549581e+01	3.332539e+02
2.030000e-06	2.195131e-06	5.060388e-09	1.525765e+01	3.311566e+02
2.040000e-06	2.160223e-06	4.971047e-09	1.501502e+01	3.290085e+02
2.050000e-06	2.124635e-06	4.983914e-09	1.476765e+01	3.268128e+02
2.060000e-06	2.088326e-06	4.957009e-09	1.451528e+01	3.245691e+02
2.070000e-06	2.051145e-06	4.873388e-09	1.425685e+01	3.222735e+02
2.080000e-06	2.012947e-06	4.870007e-09	1.399135e+01	3.199201e+02
2.090000e-06	1.973926e-06	4.837754e-09	1.372013e+01	3.175025e+02
2.100000e-06	1.934333e-06	4.781553e-09	1.344493e+01	3.150159e+02
2.110000e-06	1.894134e-06	4.758021e-09	1.316552e+01	3.124586e+02
2.120000e-06	1.853283e-06	4.714226e-09	1.288157e+01	3.098320e+02
2.130000e-06	1.811827e-06	4.678152e-09	1.259343e+01	3.071397e+02
2.140000e-06	1.769827e-06	4.641020e-09	1.230150e+01	3.043858e+02
2.150000e-06	1.727298e-06	4.588763e-09	1.200589e+01	3.015731e+02
2.160000e-06	1.684233e-06	4.554492e-09	1.170656e+01	2.987008e+02
2.170000e-06	1.640692e-06	4.505284e-09	1.140392e+01	2.957645e+02
2.180000e-06	1.596585e-06	4.460847e-09	1.109735e+01	2.927568e+02
2.190000e-06	1.551843e-06	4.418646e-09	1.078636e+01	2.896699e+02
2.200000e-06	1.506502e-06	4.364019e-09	1.047121e+01	2.864976e+02
2.210000e-06	1.460642e-06	4.319835e-09	1.015245e+01	2.832378e+02
2.220000e-06	1.414354e-06	4.271870e-09	9.830718e+00	2.798929e+02
2.230000e-06	1.367625e-06	4.224391e-09	9.505920e+00	2.764688e+02
2.240000e-06	1.320387e-06	4.166255e-09	9.177586e+00	2.729721e+02
2.250000e-06	1.272542e-06	4.102876e-09	8.845031e+00	2.694067e+02
2.260000e-06	1.224126e-06	4.056434e-09	8.508507e+00	2.657717e+02
2.270000e-06	1.175233e-06	4.002522e-09	8.168668e+00	2.620601e+02
2.280000e-06	1.125933e-06	3.938919e-09	7.826002e+00	2.582608e+02
2.290000e-06	1.076245e-06	3.884695e-09	7.480634e+00	2.543618e+02
2.300000e-06	1.026122e-06	3.827427e-09	7.132243e+00	2.503551e+02
2.310000e-06	9.755859e-07	3.768037e-09	6.780985e+00	2.462398e+02
2.320000e-06	9.247171e-07	3.703792e-09	6.427412e+00	2.420237e+02
2.330000e-06	8.735531e-07	3.631520e-09	6.071788e+00	2.377210e+02
2.340000e-06	8.221224e-07	3.564144e-09	5.714309e+00	2.333477e+02
2.350000e-06	7.704262e-07	3.497258e-09	5.354985e+00	2.289161e+02
2.360000e-06	7.183534e-07	3.434663e-09	4.993044e+00	2.244289e+02
2.370000e-06	6.658518e-07	3.366172e-09	4.628122e+00	2.198776e+02
2.380000e-06	6.129245e-07	3.291862e-09	4.260241e+00	2.152437e+02
2.390000e-06	5.596023e-07	3.221892e-09	3.889616e+00	2.105038e+02
2.400000e-06	5.059617e-07	3.150646e-09	3.516777e+00	2.056368e+02
2.410000e-06	4.520077e-07	3.076592e-09	3.141760e+00	2.006302e+02
2.420000e-06	3.978248e-07	2.997037e-09	2.765152e+00	1.954836e+02
2.430000e-06	3.434457e-07	2.916934e-09	2.387181e+00	1.902082e+02
2.440000e-06	2.888510e-07	2.838073e-09	2.007710e+00	1.848210e+02
2.450000e-06	2.341444e-07	2.753500e-09	1.627463e+00	1.793376e+02
2.460000e-06	1.793399e-07	2.665186e-09	1.246534e+00	1.737645e+02
2.470000e-06	1.244676e-07	2.579432e-09	8.651341e-01	1.680946e+02
2.480000e-06	6.958537e-08	2.495484e-09	4.836656e-01	1.623079e+02
2.490000e-06	1.470028e-08	2.409783e-09	1.021769e-01	1.563764e+02
2.500000e-06	-4.019916e-08	2.317953e-09	-2.794115e-01	1.502723e+02
2.510000e-06	-9.510471e-08	2.222695e-09	-6.610423e-01	1.439766e+02
2.520000e-06	-1.500088e-07	2.126864e-09	-1.042663e+00	1.374835e+02
2.530000e-06	-2.048912e-07	2.025024e-09	-1.424133e+00	1.308007e+02
2.540000e-06	-2.597120e-07	1.917869e-09	-1.805175e+00	1.239440e+02
2.550000e-06	-3.143987e-07	1.808741e-09	-2.185284e+00	1.169274e+02
2.560000e-06	-3.689650e-07	1.701061e-09	-2.564558e+00	1.097548e+02
2.570000e-06	-4.233982e-07	1.593677e-09	-2.942905e+00	1.024135e+02
2.580000e-06	-4.775283e-07	1.482301e-09	-3.319146e+00	9.487354e+01
2.590000e-06	-5.313417e-07	1.366463e-09	-3.693185e+00	8.709366e+01
2.600000e-06	-5.848415e-07	1.245651e-09	-4.065045e+00	7.903051e+01
2.610000e-06	-6.379902e-07	1.119022e-09	-4.434465e+00	7.064880e+01
2.620000e-06	-6.907427e-07	9.837612e-10	-4.801131e+00	6.192825e+01
2.630000e-06	-7.429955e-07	8.419318e-10	-5.164324e+00	5.286454e+01
2.640000e-06	-7.947617e-07	6.972658e-10	-5.524133e+00	4.346402e+01
2.650000e-06	-8.462263e-07	5.518674e-10	-5.881847e+00	3.373377e+01
2.660000e-06	-8.974823e-07	4.016459e-10	-6.238112e+00	2.367096e+01
2.670000e-06	-9.485181e-07	2.448241e-10	-6.592845e+00	1.325553e+01
2.680000e-06	-9.992696e-07	8.375199e-11	-6.945602e+00	2.449375e+00
2.690000e-06	-1.049572e-06	-8.338585e-11	-7.295235e+00	-8.796944e+00
2.700000e-06	-1.099414e-06	-2.610380e-10	-7.641677e+00	-2.053156e+01
2.710000e-06	-1.148866e-06	-4.521656e-10	-7.985396e+00	-3.278638e+01
2.720000e-06	-1.197878e-06	-6.520887e-10	-8.326066e+00	-4.556433e+01
2.730000e-06	-1.246405e-06	-8.575553e-10	-8.663363e+00	-5.883235e+01
2.740000e-06	-1.294260e-06	-1.067085e-09	-8.995983e+00	-7.252202e+01
2.750000e-06	-1.341355e-06	-1.279381e-09	-9.323325e+00	-8.653699e+01
2.760000e-06	-1.387762e-06	-1.493679e-09	-9.645886e+00	-1.007645e+02
2.770000e-06	-1.433654e-06	-1.708934e-09	-9.964867e+00	-1.150870e+02
2.780000e-06	-1.479259e-06	-1.926969e-09	-1.028185e+01	-1.293908e+02
2.790000e-06	-1.524496e-06	-2.147627e-09	-1.059628e+01	-1.435699e+02
2.800000e-06	-1.569233e-06	-2.366973e-09	-1.090723e+01	-1.575249e+02
2.810000e-06	-1.613395e-06	-2.580478e-09	-1.121419e+01	-1.711600e+02
2.820000e-06	-1.656985e-06	-2.784792e-09	-1.151717e+01	-1.843804e+02
2.830000e-06	-1.700168e-06	-2.977796e-09	-1.181732e+01	-1.970924e+02
2.840000e-06	-1.742952e-06	-3.159781e-09	-1.211470e+01	-2.092084e+02
2.850000e-06	-1.785178e-06	-3.332051e-09	-1.240820e+01	-2.206544e+02
2.860000e-06	-1.826799e-06	-3.493914e-09	-1.269750e+01	-2.313790e+02
2.870000e-06	-1.867828e-06	-3.645701e-09	-1.298267e+01	-2.413597e+02
2.880000e-06	-1.908197e-06	-3.790976e-09	-1.326327e+01	-2.506052e+02
2.890000e-06	-1.947922e-06	-3.929543e-09	-1.353938e+01	-2.591513e+02
2.900000e-06	-1.987100e-06	-4.057508e-09	-1.381170e+01	-2.670528e+02
2.910000e-06	-2.025727e-06	-4.172194e-09	-1.408018e+01	-2.743722e+02
2.920000e-06	-2.063555e-06	-4.273011e-09	-1.434311e+01	-2.811703e+02
2.930000e-06	-2.100313e-06	-4.365281e-09	-1.459860e+01	-2.874989e+02
2.940000e-06	-2.136113e-06	-4.454847e-09	-1.484743e+01	-2.933991e+02
