# Temperatura_=_21.6
# Concentracion g/m^3_=_13400.0
# C_Vs_to_Am_M_A/Vsm_=_65563218390.804596
# pendiente_HvsI_1/m_=_3716.3
# ordenada_HvsI_A/m_=_1297.0
# frecuencia_Hz_=_300835.76116029156

Tiempo_(s)	Campo_(V.s)	Magnetizacion_(V.s)	Campo_(kA/m)	Magnetizacion_(A/m)
0.000000e+00	-2.847036e-06	-5.810888e-09	-1.979958e+01	-3.786733e+02
1.000000e-08	-2.845982e-06	-5.812575e-09	-1.979225e+01	-3.785780e+02
2.000000e-08	-2.843894e-06	-5.809036e-09	-1.977773e+01	-3.784381e+02
3.000000e-08	-2.840523e-06	-5.802015e-09	-1.975429e+01	-3.782423e+02
4.000000e-08	-2.836178e-06	-5.796035e-09	-1.972407e+01	-3.779733e+02
5.000000e-08	-2.831138e-06	-5.789895e-09	-1.968902e+01	-3.776141e+02
6.000000e-08	-2.825203e-06	-5.780254e-09	-1.964775e+01	-3.771555e+02
7.000000e-08	-2.818252e-06	-5.762577e-09	-1.959941e+01	-3.766005e+02
8.000000e-08	-2.810286e-06	-5.779065e-09	-1.954400e+01	-3.759660e+02
9.000000e-08	-2.801048e-06	-5.816058e-09	-1.947976e+01	-3.752798e+02
1.000000e-07	-2.790418e-06	-5.807281e-09	-1.940583e+01	-3.745739e+02
1.100000e-07	-2.778676e-06	-5.665453e-09	-1.932418e+01	-3.738762e+02
1.200000e-07	-2.766108e-06	-5.649943e-09	-1.923677e+01	-3.732030e+02
1.300000e-07	-2.752645e-06	-5.782650e-09	-1.914314e+01	-3.725545e+02
1.400000e-07	-2.738184e-06	-5.764820e-09	-1.904257e+01	-3.719151e+02
1.500000e-07	-2.722766e-06	-5.594185e-09	-1.893535e+01	-3.712565e+02
1.600000e-07	-2.706084e-06	-5.663624e-09	-1.881934e+01	-3.705454e+02
1.700000e-07	-2.688132e-06	-5.774529e-09	-1.869449e+01	-3.697503e+02
1.800000e-07	-2.669435e-06	-5.577596e-09	-1.856447e+01	-3.688480e+02
1.900000e-07	-2.650082e-06	-5.564196e-09	-1.842987e+01	-3.678269e+02
2.000000e-07	-2.629842e-06	-5.675431e-09	-1.828911e+01	-3.666870e+02
2.100000e-07	-2.608705e-06	-5.541022e-09	-1.814212e+01	-3.654372e+02
2.200000e-07	-2.586749e-06	-5.490542e-09	-1.798943e+01	-3.640913e+02
2.300000e-07	-2.563895e-06	-5.634449e-09	-1.783049e+01	-3.626635e+02
2.400000e-07	-2.540110e-06	-5.542363e-09	-1.766508e+01	-3.611652e+02
2.500000e-07	-2.515517e-06	-5.429002e-09	-1.749405e+01	-3.596038e+02
2.600000e-07	-2.490031e-06	-5.467877e-09	-1.731681e+01	-3.579818e+02
2.700000e-07	-2.463475e-06	-5.452497e-09	-1.713213e+01	-3.562985e+02
2.800000e-07	-2.435847e-06	-5.391640e-09	-1.693999e+01	-3.545515e+02
2.900000e-07	-2.407300e-06	-5.382691e-09	-1.674146e+01	-3.527374e+02
3.000000e-07	-2.378003e-06	-5.346864e-09	-1.653771e+01	-3.508538e+02
3.100000e-07	-2.347979e-06	-5.348224e-09	-1.632891e+01	-3.488995e+02
3.200000e-07	-2.317204e-06	-5.336935e-09	-1.611489e+01	-3.468750e+02
3.300000e-07	-2.285629e-06	-5.215357e-09	-1.589530e+01	-3.447824e+02
3.400000e-07	-2.253375e-06	-5.218105e-09	-1.567099e+01	-3.426251e+02
3.500000e-07	-2.220517e-06	-5.212929e-09	-1.544248e+01	-3.404070e+02
3.600000e-07	-2.186768e-06	-5.135487e-09	-1.520778e+01	-3.381314e+02
3.700000e-07	-2.151880e-06	-5.144704e-09	-1.496515e+01	-3.357999e+02
3.800000e-07	-2.115996e-06	-5.119151e-09	-1.471560e+01	-3.334117e+02
3.900000e-07	-2.079441e-06	-5.018041e-09	-1.446138e+01	-3.309631e+02
4.000000e-07	-2.042282e-06	-5.027658e-09	-1.420296e+01	-3.284485e+02
4.100000e-07	-2.004407e-06	-5.016414e-09	-1.393956e+01	-3.258619e+02
4.200000e-07	-1.965814e-06	-4.906126e-09	-1.367116e+01	-3.231991e+02
4.300000e-07	-1.926530e-06	-4.872152e-09	-1.339797e+01	-3.204588e+02
4.400000e-07	-1.886578e-06	-4.858413e-09	-1.312012e+01	-3.176436e+02
4.500000e-07	-1.846143e-06	-4.813561e-09	-1.283892e+01	-3.147589e+02
4.600000e-07	-1.805346e-06	-4.763159e-09	-1.255519e+01	-3.118109e+02
4.700000e-07	-1.763877e-06	-4.717596e-09	-1.226680e+01	-3.088041e+02
4.800000e-07	-1.721344e-06	-4.664643e-09	-1.197101e+01	-3.057391e+02
4.900000e-07	-1.677806e-06	-4.623134e-09	-1.166823e+01	-3.026120e+02
5.000000e-07	-1.633631e-06	-4.571822e-09	-1.136101e+01	-2.994154e+02
5.100000e-07	-1.589032e-06	-4.508542e-09	-1.105085e+01	-2.961417e+02
5.200000e-07	-1.544029e-06	-4.464274e-09	-1.073788e+01	-2.927855e+02
5.300000e-07	-1.498494e-06	-4.418357e-09	-1.042121e+01	-2.893469e+02
5.400000e-07	-1.452337e-06	-4.370077e-09	-1.010021e+01	-2.858316e+02
5.500000e-07	-1.405674e-06	-4.307688e-09	-9.775699e+00	-2.822490e+02
5.600000e-07	-1.358539e-06	-4.242960e-09	-9.447894e+00	-2.786082e+02
5.700000e-07	-1.310872e-06	-4.184538e-09	-9.116398e+00	-2.749139e+02
5.800000e-07	-1.262781e-06	-4.141894e-09	-8.781953e+00	-2.711628e+02
5.900000e-07	-1.214399e-06	-4.081311e-09	-8.445479e+00	-2.673431e+02
6.000000e-07	-1.165636e-06	-4.008774e-09	-8.106364e+00	-2.634368e+02
6.100000e-07	-1.116378e-06	-3.950014e-09	-7.763800e+00	-2.594249e+02
6.200000e-07	-1.066582e-06	-3.888172e-09	-7.417498e+00	-2.552938e+02
6.300000e-07	-1.016174e-06	-3.821307e-09	-7.066935e+00	-2.510396e+02
6.400000e-07	-9.651760e-07	-3.747615e-09	-6.712272e+00	-2.466703e+02
6.500000e-07	-9.136878e-07	-3.679431e-09	-6.354200e+00	-2.422036e+02
6.600000e-07	-8.617692e-07	-3.614172e-09	-5.993135e+00	-2.376614e+02
6.700000e-07	-8.095173e-07	-3.551499e-09	-5.629751e+00	-2.330624e+02
6.800000e-07	-7.570313e-07	-3.479159e-09	-5.264740e+00	-2.284162e+02
6.900000e-07	-7.043086e-07	-3.400995e-09	-4.898082e+00	-2.237200e+02
7.000000e-07	-6.513456e-07	-3.325886e-09	-4.529753e+00	-2.189592e+02
7.100000e-07	-5.981487e-07	-3.252706e-09	-4.159798e+00	-2.141122e+02
7.200000e-07	-5.446710e-07	-3.176958e-09	-3.787889e+00	-2.091569e+02
7.300000e-07	-4.909874e-07	-3.094973e-09	-3.414549e+00	-2.040775e+02
7.400000e-07	-4.371024e-07	-3.016719e-09	-3.039809e+00	-1.988679e+02
7.500000e-07	-3.830530e-07	-2.938728e-09	-2.663925e+00	-1.935318e+02
7.600000e-07	-3.289248e-07	-2.857308e-09	-2.287493e+00	-1.880790e+02
7.700000e-07	-2.746869e-07	-2.765192e-09	-1.910297e+00	-1.825196e+02
7.800000e-07	-2.203913e-07	-2.673463e-09	-1.532701e+00	-1.768581e+02
7.900000e-07	-1.660252e-07	-2.589559e-09	-1.154615e+00	-1.710906e+02
8.000000e-07	-1.115784e-07	-2.503329e-09	-7.759666e-01	-1.652046e+02
8.100000e-07	-5.709961e-08	-2.410728e-09	-3.970966e-01	-1.591831e+02
8.200000e-07	-2.614798e-09	-2.314565e-09	-1.818449e-02	-1.530093e+02
8.300000e-07	5.182581e-08	-2.216894e-09	3.604202e-01	-1.466721e+02
8.400000e-07	1.062300e-07	-2.112905e-09	7.387717e-01	-1.401685e+02
8.500000e-07	1.606234e-07	-2.007800e-09	1.117048e+00	-1.335026e+02
8.600000e-07	2.149839e-07	-1.902005e-09	1.495096e+00	-1.266816e+02
8.700000e-07	2.692785e-07	-1.797944e-09	1.872685e+00	-1.197100e+02
8.800000e-07	3.234767e-07	-1.693433e-09	2.249604e+00	-1.125840e+02
8.900000e-07	3.775728e-07	-1.581331e-09	2.625813e+00	-1.052895e+02
9.000000e-07	4.315663e-07	-1.461798e-09	3.001308e+00	-9.780210e+01
9.100000e-07	4.854101e-07	-1.340326e-09	3.375762e+00	-9.009176e+01
9.200000e-07	5.390078e-07	-1.218904e-09	3.748505e+00	-8.212834e+01
9.300000e-07	5.923680e-07	-1.090996e-09	4.119596e+00	-7.388738e+01
9.400000e-07	6.455029e-07	-9.594799e-10	4.489120e+00	-6.535333e+01
9.500000e-07	6.983831e-07	-8.256116e-10	4.856873e+00	-5.651964e+01
9.600000e-07	7.510479e-07	-6.895795e-10	5.223128e+00	-4.738550e+01
9.700000e-07	8.034960e-07	-5.456389e-10	5.587876e+00	-3.795068e+01
9.800000e-07	8.556052e-07	-3.941127e-10	5.950268e+00	-2.821031e+01
9.900000e-07	9.073354e-07	-2.381155e-10	6.310023e+00	-1.815135e+01
1.000000e-06	9.586357e-07	-7.688275e-11	6.666788e+00	-7.752036e+00
1.010000e-06	1.009340e-06	8.818825e-11	7.019406e+00	3.015487e+00
1.020000e-06	1.059378e-06	2.589529e-10	7.367397e+00	1.418027e+01
1.030000e-06	1.108822e-06	4.349466e-10	7.711252e+00	2.576656e+01
1.040000e-06	1.157785e-06	6.194313e-10	8.051762e+00	3.778809e+01
1.050000e-06	1.206394e-06	8.097940e-10	8.389809e+00	5.024384e+01
1.060000e-06	1.254757e-06	1.006394e-09	8.726147e+00	6.311536e+01
1.070000e-06	1.302821e-06	1.209776e-09	9.060412e+00	7.636584e+01
1.080000e-06	1.350420e-06	1.418060e-09	9.391431e+00	8.994024e+01
1.090000e-06	1.397489e-06	1.629095e-09	9.718774e+00	1.037663e+02
1.100000e-06	1.444076e-06	1.841162e-09	1.004276e+01	1.177562e+02
1.110000e-06	1.490174e-06	2.055384e-09	1.036334e+01	1.318091e+02
1.120000e-06	1.535703e-06	2.266649e-09	1.067998e+01	1.458148e+02
1.130000e-06	1.580700e-06	2.474763e-09	1.099291e+01	1.596589e+02
1.140000e-06	1.625313e-06	2.680288e-09	1.130316e+01	1.732287e+02
1.150000e-06	1.669584e-06	2.881354e-09	1.161105e+01	1.864196e+02
1.160000e-06	1.713415e-06	3.073163e-09	1.191587e+01	1.991410e+02
1.170000e-06	1.756484e-06	3.256746e-09	1.221539e+01	2.113203e+02
1.180000e-06	1.798503e-06	3.433454e-09	1.250761e+01	2.229049e+02
1.190000e-06	1.839613e-06	3.601160e-09	1.279351e+01	2.338617e+02
1.200000e-06	1.880173e-06	3.759671e-09	1.307557e+01	2.441751e+02
1.210000e-06	1.920249e-06	3.907687e-09	1.335428e+01	2.538435e+02
1.220000e-06	1.959708e-06	4.043048e-09	1.362870e+01	2.628769e+02
1.230000e-06	1.998527e-06	4.165257e-09	1.389866e+01	2.712938e+02
1.240000e-06	2.036671e-06	4.279700e-09	1.416393e+01	2.791205e+02
1.250000e-06	2.074083e-06	4.388200e-09	1.442412e+01	2.863898e+02
1.260000e-06	2.110868e-06	4.490937e-09	1.467994e+01	2.931400e+02
1.270000e-06	2.147156e-06	4.585520e-09	1.493230e+01	2.994137e+02
1.280000e-06	2.182675e-06	4.672783e-09	1.517931e+01	3.052554e+02
1.290000e-06	2.217119e-06	4.755477e-09	1.541885e+01	3.107083e+02
1.300000e-06	2.250527e-06	4.831907e-09	1.565119e+01	3.158121e+02
1.310000e-06	2.283122e-06	4.900841e-09	1.587786e+01	3.206000e+02
1.320000e-06	2.315063e-06	4.963842e-09	1.610000e+01	3.250986e+02
1.330000e-06	2.346238e-06	5.026714e-09	1.631680e+01	3.293274e+02
1.340000e-06	2.376608e-06	5.087893e-09	1.652801e+01	3.333012e+02
1.350000e-06	2.406170e-06	5.141380e-09	1.673360e+01	3.370312e+02
1.360000e-06	2.434998e-06	5.189129e-09	1.693408e+01	3.405278e+02
1.370000e-06	2.463211e-06	5.238580e-09	1.713029e+01	3.438011e+02
1.380000e-06	2.490496e-06	5.287485e-09	1.732004e+01	3.468618e+02
1.390000e-06	2.516586e-06	5.328945e-09	1.750148e+01	3.497215e+02
1.400000e-06	2.541567e-06	5.363726e-09	1.767521e+01	3.523918e+02
1.410000e-06	2.565641e-06	5.397412e-09	1.784263e+01	3.548846e+02
1.420000e-06	2.588871e-06	5.432966e-09	1.800419e+01	3.572120e+02
1.430000e-06	2.611220e-06	5.465214e-09	1.815961e+01	3.593859e+02
1.440000e-06	2.632709e-06	5.491448e-09	1.830906e+01	3.614184e+02
1.450000e-06	2.653432e-06	5.516744e-09	1.845317e+01	3.633206e+02
1.460000e-06	2.673411e-06	5.546262e-09	1.859211e+01	3.651021e+02
1.470000e-06	2.692472e-06	5.574876e-09	1.872467e+01	3.667693e+02
1.480000e-06	2.710519e-06	5.596082e-09	1.885018e+01	3.683259e+02
1.490000e-06	2.727585e-06	5.613214e-09	1.896886e+01	3.697723e+02
1.500000e-06	2.743667e-06	5.631642e-09	1.908070e+01	3.711078e+02
1.510000e-06	2.758682e-06	5.652092e-09	1.918513e+01	3.723320e+02
1.520000e-06	2.772668e-06	5.669017e-09	1.928239e+01	3.734474e+02
1.530000e-06	2.785637e-06	5.679995e-09	1.937258e+01	3.744602e+02
1.540000e-06	2.797507e-06	5.692009e-09	1.945514e+01	3.753802e+02
1.550000e-06	2.808105e-06	5.709751e-09	1.952884e+01	3.762183e+02
1.560000e-06	2.817415e-06	5.726451e-09	1.959358e+01	3.769840e+02
1.570000e-06	2.825795e-06	5.735993e-09	1.965186e+01	3.776820e+02
1.580000e-06	2.833285e-06	5.741879e-09	1.970395e+01	3.783107e+02
1.590000e-06	2.839793e-06	5.749751e-09	1.974921e+01	3.788626e+02
1.600000e-06	2.845386e-06	5.757652e-09	1.978811e+01	3.793268e+02
1.610000e-06	2.850126e-06	5.761066e-09	1.982107e+01	3.796936e+02
1.620000e-06	2.853928e-06	5.761966e-09	1.984751e+01	3.799587e+02
1.630000e-06	2.856542e-06	5.765900e-09	1.986569e+01	3.801257e+02
1.640000e-06	2.857955e-06	5.771832e-09	1.987552e+01	3.802061e+02
1.650000e-06	2.858384e-06	5.774946e-09	1.987850e+01	3.802164e+02
1.660000e-06	2.857938e-06	5.774507e-09	1.987540e+01	3.801725e+02
1.670000e-06	2.856606e-06	5.772265e-09	1.986613e+01	3.800845e+02
1.680000e-06	2.854408e-06	5.770680e-09	1.985085e+01	3.799529e+02
1.690000e-06	2.851419e-06	5.769581e-09	1.983006e+01	3.797680e+02
1.700000e-06	2.847647e-06	5.765082e-09	1.980383e+01	3.795131e+02
1.710000e-06	2.842841e-06	5.759449e-09	1.977041e+01	3.791708e+02
1.720000e-06	2.836807e-06	5.759396e-09	1.972845e+01	3.787299e+02
1.730000e-06	2.829749e-06	5.770449e-09	1.967936e+01	3.781910e+02
1.740000e-06	2.821804e-06	5.716616e-09	1.962411e+01	3.775686e+02
1.750000e-06	2.812597e-06	5.654270e-09	1.956008e+01	3.768891e+02
1.760000e-06	2.801839e-06	5.690138e-09	1.948526e+01	3.761841e+02
1.770000e-06	2.790150e-06	5.796897e-09	1.940397e+01	3.754831e+02
1.780000e-06	2.778288e-06	5.735405e-09	1.932147e+01	3.748047e+02
1.790000e-06	2.765692e-06	5.570991e-09	1.923388e+01	3.741523e+02
1.800000e-06	2.751433e-06	5.673253e-09	1.913471e+01	3.735128e+02
1.810000e-06	2.735970e-06	5.758314e-09	1.902718e+01	3.728598e+02
1.820000e-06	2.719912e-06	5.585408e-09	1.891550e+01	3.721602e+02
1.830000e-06	2.702764e-06	5.555693e-09	1.879625e+01	3.713818e+02
1.840000e-06	2.684333e-06	5.729910e-09	1.866807e+01	3.704996e+02
1.850000e-06	2.665194e-06	5.628766e-09	1.853497e+01	3.694998e+02
1.860000e-06	2.645348e-06	5.489603e-09	1.839695e+01	3.683804e+02
1.870000e-06	2.624324e-06	5.664283e-09	1.825074e+01	3.671491e+02
1.880000e-06	2.602208e-06	5.601003e-09	1.809694e+01	3.658190e+02
1.890000e-06	2.579141e-06	5.401570e-09	1.793652e+01	3.644046e+02
1.900000e-06	2.555076e-06	5.551433e-09	1.776916e+01	3.629180e+02
1.910000e-06	2.530217e-06	5.570074e-09	1.759628e+01	3.613672e+02
1.920000e-06	2.504593e-06	5.426948e-09	1.741808e+01	3.597557e+02
1.930000e-06	2.478061e-06	5.460810e-09	1.723356e+01	3.580833e+02
1.940000e-06	2.450799e-06	5.430464e-09	1.704397e+01	3.563476e+02
1.950000e-06	2.422761e-06	5.371860e-09	1.684898e+01	3.545455e+02
1.960000e-06	2.393513e-06	5.389332e-09	1.664558e+01	3.526742e+02
1.970000e-06	2.363190e-06	5.290043e-09	1.643469e+01	3.507322e+02
1.980000e-06	2.332109e-06	5.278109e-09	1.621855e+01	3.487199e+02
1.990000e-06	2.300315e-06	5.348652e-09	1.599743e+01	3.466390e+02
2.000000e-06	2.267788e-06	5.210229e-09	1.577123e+01	3.444927e+02
2.010000e-06	2.234397e-06	5.184326e-09	1.553901e+01	3.422849e+02
2.020000e-06	2.200232e-06	5.223430e-09	1.530141e+01	3.400191e+02
2.030000e-06	2.165524e-06	5.084868e-09	1.506004e+01	3.376974e+02
2.040000e-06	2.130205e-06	5.091616e-09	1.481441e+01	3.353192e+02
2.050000e-06	2.094141e-06	5.109265e-09	1.456361e+01	3.328815e+02
2.060000e-06	2.057165e-06	4.977580e-09	1.430646e+01	3.303789e+02
2.070000e-06	2.019101e-06	4.976694e-09	1.404175e+01	3.278053e+02
2.080000e-06	1.980180e-06	4.978177e-09	1.377107e+01	3.251560e+02
2.090000e-06	1.940670e-06	4.888545e-09	1.349630e+01	3.224292e+02
2.100000e-06	1.900555e-06	4.861646e-09	1.321732e+01	3.196268e+02
2.110000e-06	1.859823e-06	4.808989e-09	1.293405e+01	3.167538e+02
2.120000e-06	1.818510e-06	4.764388e-09	1.264674e+01	3.138164e+02
2.130000e-06	1.776606e-06	4.739417e-09	1.235533e+01	3.108197e+02
2.140000e-06	1.734108e-06	4.671931e-09	1.205977e+01	3.077650e+02
2.150000e-06	1.691091e-06	4.634560e-09	1.176061e+01	3.046491e+02
2.160000e-06	1.647679e-06	4.590552e-09	1.145871e+01	3.014653e+02
2.170000e-06	1.603770e-06	4.539788e-09	1.115334e+01	2.982056e+02
2.180000e-06	1.559231e-06	4.490734e-09	1.084360e+01	2.948640e+02
2.190000e-06	1.514035e-06	4.430005e-09	1.052929e+01	2.914397e+02
2.200000e-06	1.468283e-06	4.379551e-09	1.021111e+01	2.879372e+02
2.210000e-06	1.422130e-06	4.331997e-09	9.890139e+00	2.843656e+02
2.220000e-06	1.375576e-06	4.281957e-09	9.566383e+00	2.807344e+02
2.230000e-06	1.328506e-06	4.225623e-09	9.239032e+00	2.770494e+02
2.240000e-06	1.280762e-06	4.152713e-09	8.906999e+00	2.733088e+02
2.250000e-06	1.232408e-06	4.102337e-09	8.570722e+00	2.695023e+02
2.260000e-06	1.183590e-06	4.051973e-09	8.231225e+00	2.656126e+02
2.270000e-06	1.134399e-06	3.978627e-09	7.889124e+00	2.616206e+02
2.280000e-06	1.084854e-06	3.924180e-09	7.544565e+00	2.575111e+02
2.290000e-06	1.034890e-06	3.863861e-09	7.197095e+00	2.532783e+02
2.300000e-06	9.844477e-07	3.802739e-09	6.846297e+00	2.489283e+02
2.310000e-06	9.335911e-07	3.737700e-09	6.492616e+00	2.444772e+02
2.320000e-06	8.824842e-07	3.659387e-09	6.137196e+00	2.399466e+02
2.330000e-06	8.311780e-07	3.589954e-09	5.780389e+00	2.353564e+02
2.340000e-06	7.795739e-07	3.518236e-09	5.421511e+00	2.307183e+02
2.350000e-06	7.275846e-07	3.448637e-09	5.059954e+00	2.260315e+02
2.360000e-06	6.751824e-07	3.380000e-09	4.695525e+00	2.212835e+02
2.370000e-06	6.223419e-07	3.307252e-09	4.328048e+00	2.164532e+02
2.380000e-06	5.691362e-07	3.235902e-09	3.958032e+00	2.115184e+02
2.390000e-06	5.156211e-07	3.159215e-09	3.585863e+00	2.064617e+02
2.400000e-06	4.616984e-07	3.078050e-09	3.210861e+00	2.012751e+02
2.410000e-06	4.075074e-07	2.996387e-09	2.833992e+00	1.959607e+02
2.420000e-06	3.531571e-07	2.913120e-09	2.456015e+00	1.905277e+02
2.430000e-06	2.986211e-07	2.833122e-09	2.076747e+00	1.849865e+02
2.440000e-06	2.439663e-07	2.747863e-09	1.696652e+00	1.793430e+02
2.450000e-06	1.891907e-07	2.656979e-09	1.315718e+00	1.735948e+02
2.460000e-06	1.343252e-07	2.569779e-09	9.341586e-01	1.677309e+02
2.470000e-06	7.941248e-08	2.480395e-09	5.522704e-01	1.617347e+02
2.480000e-06	2.450085e-08	2.389592e-09	1.703900e-01	1.555888e+02
2.490000e-06	-3.038765e-08	2.296003e-09	-2.113295e-01	1.492810e+02
2.500000e-06	-8.525865e-08	2.200113e-09	-5.929274e-01	1.428067e+02
2.510000e-06	-1.401142e-07	2.102239e-09	-9.744177e-01	1.361691e+02
2.520000e-06	-1.949635e-07	1.997331e-09	-1.355865e+00	1.293750e+02
2.530000e-06	-2.497342e-07	1.887952e-09	-1.736765e+00	1.224300e+02
2.540000e-06	-3.044372e-07	1.778431e-09	-2.117195e+00	1.153321e+02
2.550000e-06	-3.589654e-07	1.670520e-09	-2.496408e+00	1.080689e+02
2.560000e-06	-4.131772e-07	1.560444e-09	-2.873422e+00	1.006178e+02
2.570000e-06	-4.671226e-07	1.445328e-09	-3.248583e+00	9.294931e+01
2.580000e-06	-5.208464e-07	1.325621e-09	-3.622203e+00	8.503284e+01
2.590000e-06	-5.742560e-07	1.202482e-09	-3.993637e+00	7.684259e+01
2.600000e-06	-6.273206e-07	1.072850e-09	-4.362672e+00	6.836134e+01
2.610000e-06	-6.800021e-07	9.369450e-10	-4.729043e+00	5.958106e+01
2.620000e-06	-7.322333e-07	7.985969e-10	-5.092283e+00	5.050027e+01
2.630000e-06	-7.841192e-07	6.575249e-10	-5.453121e+00	4.111905e+01
2.640000e-06	-8.357022e-07	5.133282e-10	-5.811853e+00	3.143368e+01
2.650000e-06	-8.869698e-07	3.619404e-10	-6.168391e+00	2.143270e+01
2.660000e-06	-9.379728e-07	2.050910e-10	-6.523089e+00	1.109583e+01
2.670000e-06	-9.887433e-07	4.397630e-11	-6.876170e+00	3.959723e-01
2.680000e-06	-1.039160e-06	-1.229366e-10	-7.226793e+00	-1.069614e+01
2.690000e-06	-1.089089e-06	-2.987930e-10	-7.574018e+00	-2.220604e+01
2.700000e-06	-1.138584e-06	-4.820292e-10	-7.918227e+00	-3.414972e+01
2.710000e-06	-1.187626e-06	-6.701470e-10	-8.259288e+00	-4.652902e+01
2.720000e-06	-1.236112e-06	-8.648554e-10	-8.596481e+00	-5.932872e+01
2.730000e-06	-1.283899e-06	-1.066157e-09	-8.928814e+00	-7.251531e+01
2.740000e-06	-1.330936e-06	-1.273034e-09	-9.255932e+00	-8.603695e+01
2.750000e-06	-1.377368e-06	-1.483905e-09	-9.578845e+00	-9.982435e+01
2.760000e-06	-1.423299e-06	-1.696207e-09	-9.898271e+00	-1.137923e+02
2.770000e-06	-1.468915e-06	-1.908115e-09	-1.021550e+01	-1.278421e+02
2.780000e-06	-1.514225e-06	-2.122489e-09	-1.053061e+01	-1.418649e+02
2.790000e-06	-1.559045e-06	-2.338314e-09	-1.084231e+01	-1.557465e+02
2.800000e-06	-1.603345e-06	-2.550845e-09	-1.115039e+01	-1.693735e+02
2.810000e-06	-1.647094e-06	-2.755950e-09	-1.145464e+01	-1.826394e+02
2.820000e-06	-1.690376e-06	-2.952391e-09	-1.175564e+01	-1.954508e+02
2.830000e-06	-1.733267e-06	-3.138257e-09	-1.205393e+01	-2.077316e+02
2.840000e-06	-1.775611e-06	-3.314339e-09	-1.234840e+01	-2.194256e+02
2.850000e-06	-1.817312e-06	-3.483524e-09	-1.263841e+01	-2.304964e+02
2.860000e-06	-1.858432e-06	-3.645083e-09	-1.292438e+01	-2.409254e+02
2.870000e-06	-1.898944e-06	-3.798130e-09	-1.320612e+01	-2.507089e+02
2.880000e-06	-1.938788e-06	-3.941196e-09	-1.348321e+01	-2.598547e+02
2.890000e-06	-1.978084e-06	-4.074950e-09	-1.375650e+01	-2.683803e+02
2.900000e-06	-2.016809e-06	-4.200633e-09	-1.402581e+01	-2.763104e+02
2.910000e-06	-2.054733e-06	-4.316824e-09	-1.428955e+01	-2.836768e+02
2.920000e-06	-2.091633e-06	-4.421555e-09	-1.454617e+01	-2.905170e+02
2.930000e-06	-2.127571e-06	-4.516522e-09	-1.479609e+01	-2.968728e+02
2.940000e-06	-2.162817e-06	-4.606338e-09	-1.504121e+01	-3.027886e+02
