# Temperatura_=_25.32
# Concentracion g/m^3_=_13400.0
# C_Vs_to_Am_M_A/Vsm_=_65563218390.804596
# pendiente_HvsI_1/m_=_3716.3
# ordenada_HvsI_A/m_=_1297.0
# frecuencia_Hz_=_300843.76402883703

Tiempo_(s)	Campo_(V.s)	Magnetizacion_(V.s)	Campo_(kA/m)	Magnetizacion_(A/m)
0.000000e+00	-2.858118e-06	-5.725500e-09	-1.980382e+01	-3.737301e+02
1.000000e-08	-2.857202e-06	-5.727381e-09	-1.979748e+01	-3.736495e+02
2.000000e-08	-2.855314e-06	-5.722566e-09	-1.978439e+01	-3.735039e+02
3.000000e-08	-2.852067e-06	-5.717732e-09	-1.976189e+01	-3.733014e+02
4.000000e-08	-2.847784e-06	-5.716871e-09	-1.973222e+01	-3.730447e+02
5.000000e-08	-2.842760e-06	-5.711323e-09	-1.969741e+01	-3.727311e+02
6.000000e-08	-2.836851e-06	-5.692685e-09	-1.965646e+01	-3.723546e+02
7.000000e-08	-2.829986e-06	-5.664705e-09	-1.960890e+01	-3.719095e+02
8.000000e-08	-2.822156e-06	-5.707756e-09	-1.955464e+01	-3.713945e+02
9.000000e-08	-2.813213e-06	-5.795559e-09	-1.949268e+01	-3.708136e+02
1.000000e-07	-2.802738e-06	-5.769012e-09	-1.942010e+01	-3.701759e+02
1.100000e-07	-2.790957e-06	-5.527159e-09	-1.933846e+01	-3.694926e+02
1.200000e-07	-2.778479e-06	-5.528751e-09	-1.925200e+01	-3.687731e+02
1.300000e-07	-2.765158e-06	-5.783190e-09	-1.915971e+01	-3.680224e+02
1.400000e-07	-2.750821e-06	-5.736845e-09	-1.906036e+01	-3.672397e+02
1.500000e-07	-2.735532e-06	-5.440317e-09	-1.895443e+01	-3.664192e+02
1.600000e-07	-2.718894e-06	-5.616190e-09	-1.883914e+01	-3.655524e+02
1.700000e-07	-2.700879e-06	-5.799578e-09	-1.871432e+01	-3.646308e+02
1.800000e-07	-2.682167e-06	-5.443349e-09	-1.858466e+01	-3.636478e+02
1.900000e-07	-2.662863e-06	-5.473072e-09	-1.845091e+01	-3.625996e+02
2.000000e-07	-2.642626e-06	-5.687966e-09	-1.831068e+01	-3.614841e+02
2.100000e-07	-2.621481e-06	-5.431738e-09	-1.816417e+01	-3.603000e+02
2.200000e-07	-2.599607e-06	-5.366465e-09	-1.801261e+01	-3.590452e+02
2.300000e-07	-2.576827e-06	-5.648459e-09	-1.785476e+01	-3.577175e+02
2.400000e-07	-2.553053e-06	-5.492846e-09	-1.769003e+01	-3.563147e+02
2.500000e-07	-2.528529e-06	-5.317338e-09	-1.752011e+01	-3.548366e+02
2.600000e-07	-2.503193e-06	-5.441649e-09	-1.734455e+01	-3.532851e+02
2.700000e-07	-2.476692e-06	-5.417848e-09	-1.716093e+01	-3.516647e+02
2.800000e-07	-2.449025e-06	-5.302621e-09	-1.696923e+01	-3.499806e+02
2.900000e-07	-2.420449e-06	-5.330348e-09	-1.677122e+01	-3.482371e+02
3.000000e-07	-2.391056e-06	-5.290503e-09	-1.656756e+01	-3.464358e+02
3.100000e-07	-2.360942e-06	-5.291173e-09	-1.635890e+01	-3.445750e+02
3.200000e-07	-2.330129e-06	-5.309616e-09	-1.614540e+01	-3.426517e+02
3.300000e-07	-2.298500e-06	-5.158446e-09	-1.592625e+01	-3.406633e+02
3.400000e-07	-2.266198e-06	-5.170134e-09	-1.570243e+01	-3.386109e+02
3.500000e-07	-2.233350e-06	-5.173273e-09	-1.547482e+01	-3.365001e+02
3.600000e-07	-2.199687e-06	-5.082665e-09	-1.524157e+01	-3.343400e+02
3.700000e-07	-2.164812e-06	-5.109235e-09	-1.499993e+01	-3.321406e+02
3.800000e-07	-2.128871e-06	-5.087334e-09	-1.475089e+01	-3.299081e+02
3.900000e-07	-2.092368e-06	-4.966198e-09	-1.449796e+01	-3.276415e+02
4.000000e-07	-2.055312e-06	-4.995131e-09	-1.424120e+01	-3.253316e+02
4.100000e-07	-2.017461e-06	-4.992574e-09	-1.397893e+01	-3.229631e+02
4.200000e-07	-1.978827e-06	-4.868731e-09	-1.371124e+01	-3.205196e+02
4.300000e-07	-1.939441e-06	-4.847657e-09	-1.343833e+01	-3.179894e+02
4.400000e-07	-1.899386e-06	-4.844684e-09	-1.316080e+01	-3.153707e+02
4.500000e-07	-1.858936e-06	-4.798206e-09	-1.288052e+01	-3.126724e+02
4.600000e-07	-1.818092e-06	-4.743368e-09	-1.259751e+01	-3.099113e+02
4.700000e-07	-1.776501e-06	-4.701785e-09	-1.230933e+01	-3.071053e+02
4.800000e-07	-1.733830e-06	-4.649518e-09	-1.201366e+01	-3.042664e+02
4.900000e-07	-1.690135e-06	-4.616185e-09	-1.171090e+01	-3.013947e+02
5.000000e-07	-1.645843e-06	-4.576012e-09	-1.140400e+01	-2.984776e+02
5.100000e-07	-1.601207e-06	-4.516244e-09	-1.109472e+01	-2.954936e+02
5.200000e-07	-1.556148e-06	-4.470637e-09	-1.078251e+01	-2.924200e+02
5.300000e-07	-1.510544e-06	-4.429574e-09	-1.046652e+01	-2.892422e+02
5.400000e-07	-1.464348e-06	-4.390096e-09	-1.014642e+01	-2.859590e+02
5.500000e-07	-1.417606e-06	-4.328892e-09	-9.822556e+00	-2.825838e+02
5.600000e-07	-1.370335e-06	-4.265194e-09	-9.495015e+00	-2.791395e+02
5.700000e-07	-1.322538e-06	-4.205158e-09	-9.163832e+00	-2.756488e+02
5.800000e-07	-1.274342e-06	-4.168475e-09	-8.829881e+00	-2.721247e+02
5.900000e-07	-1.225829e-06	-4.113871e-09	-8.493738e+00	-2.685636e+02
6.000000e-07	-1.176956e-06	-4.044342e-09	-8.155093e+00	-2.649453e+02
6.100000e-07	-1.127600e-06	-3.991958e-09	-7.813110e+00	-2.612391e+02
6.200000e-07	-1.077558e-06	-3.938095e-09	-7.466373e+00	-2.574150e+02
6.300000e-07	-1.026766e-06	-3.878020e-09	-7.114432e+00	-2.534547e+02
6.400000e-07	-9.753817e-07	-3.803807e-09	-6.758393e+00	-2.493589e+02
6.500000e-07	-9.235844e-07	-3.735355e-09	-6.399491e+00	-2.451476e+02
6.600000e-07	-8.714295e-07	-3.672577e-09	-6.038111e+00	-2.408524e+02
6.700000e-07	-8.189937e-07	-3.616081e-09	-5.674785e+00	-2.365050e+02
6.800000e-07	-7.663572e-07	-3.548602e-09	-5.310068e+00	-2.321245e+02
6.900000e-07	-7.134431e-07	-3.474417e-09	-4.943428e+00	-2.277098e+02
7.000000e-07	-6.602253e-07	-3.404966e-09	-4.574683e+00	-2.232387e+02
7.100000e-07	-6.067498e-07	-3.337592e-09	-4.204153e+00	-2.186756e+02
7.200000e-07	-5.530962e-07	-3.265280e-09	-3.832389e+00	-2.139835e+02
7.300000e-07	-4.992548e-07	-3.183043e-09	-3.459323e+00	-2.091371e+02
7.400000e-07	-4.452033e-07	-3.105870e-09	-3.084802e+00	-2.041297e+02
7.500000e-07	-3.909847e-07	-3.029868e-09	-2.709123e+00	-1.989746e+02
7.600000e-07	-3.366704e-07	-2.953745e-09	-2.332780e+00	-1.936967e+02
7.700000e-07	-2.823040e-07	-2.866583e-09	-1.956077e+00	-1.883211e+02
7.800000e-07	-2.278503e-07	-2.779415e-09	-1.578769e+00	-1.828611e+02
7.900000e-07	-1.733370e-07	-2.698664e-09	-1.201047e+00	-1.773107e+02
8.000000e-07	-1.187610e-07	-2.612664e-09	-8.228918e-01	-1.716459e+02
8.100000e-07	-6.414376e-08	-2.518634e-09	-4.444504e-01	-1.658323e+02
8.200000e-07	-9.541272e-09	-2.422444e-09	-6.611121e-02	-1.598373e+02
8.300000e-07	4.503443e-08	-2.330110e-09	3.120423e-01	-1.536414e+02
8.400000e-07	9.961214e-08	-2.232170e-09	6.902098e-01	-1.472436e+02
8.500000e-07	1.541732e-07	-2.130633e-09	1.068262e+00	-1.406598e+02
8.600000e-07	2.086778e-07	-2.024727e-09	1.445923e+00	-1.339131e+02
8.700000e-07	2.631527e-07	-1.920052e-09	1.823378e+00	-1.270213e+02
8.800000e-07	3.175692e-07	-1.814508e-09	2.200428e+00	-1.199855e+02
8.900000e-07	3.718807e-07	-1.701950e-09	2.576751e+00	-1.127848e+02
9.000000e-07	4.260719e-07	-1.582682e-09	2.952241e+00	-1.053789e+02
9.100000e-07	4.800840e-07	-1.462302e-09	3.326489e+00	-9.771856e+01
9.200000e-07	5.339146e-07	-1.344855e-09	3.699480e+00	-8.975819e+01
9.300000e-07	5.875714e-07	-1.219143e-09	4.071266e+00	-8.146743e+01
9.400000e-07	6.410026e-07	-1.085618e-09	4.441490e+00	-7.283613e+01
9.500000e-07	6.941395e-07	-9.454890e-10	4.809674e+00	-6.387116e+01
9.600000e-07	7.469921e-07	-8.040277e-10	5.175888e+00	-5.458646e+01
9.700000e-07	7.996177e-07	-6.569478e-10	5.540529e+00	-4.498996e+01
9.800000e-07	8.519994e-07	-5.006186e-10	5.903481e+00	-3.507269e+01
9.900000e-07	9.040870e-07	-3.385009e-10	6.264394e+00	-2.480409e+01
1.000000e-06	9.558568e-07	-1.731553e-10	6.623106e+00	-1.413552e+01
1.010000e-06	1.007148e-06	-5.032882e-12	6.978498e+00	-3.010761e+00
1.020000e-06	1.057778e-06	1.714603e-10	7.329312e+00	8.620037e+00
1.030000e-06	1.107649e-06	3.559676e-10	7.674871e+00	2.078757e+01
1.040000e-06	1.156879e-06	5.528346e-10	8.015983e+00	3.349537e+01
1.050000e-06	1.205707e-06	7.585089e-10	8.354312e+00	4.671830e+01
1.060000e-06	1.254210e-06	9.703853e-10	8.690390e+00	6.040649e+01
1.070000e-06	1.302387e-06	1.186965e-09	9.024203e+00	7.449203e+01
1.080000e-06	1.350157e-06	1.406896e-09	9.355198e+00	8.889489e+01
1.090000e-06	1.397439e-06	1.629157e-09	9.682814e+00	1.035260e+02
1.100000e-06	1.444199e-06	1.850670e-09	1.000682e+01	1.182867e+02
1.110000e-06	1.490493e-06	2.074079e-09	1.032758e+01	1.330666e+02
1.120000e-06	1.536282e-06	2.296550e-09	1.064485e+01	1.477424e+02
1.130000e-06	1.581518e-06	2.517528e-09	1.095829e+01	1.621801e+02
1.140000e-06	1.626282e-06	2.734612e-09	1.126846e+01	1.762427e+02
1.150000e-06	1.670725e-06	2.942917e-09	1.157641e+01	1.898013e+02
1.160000e-06	1.714775e-06	3.135969e-09	1.188163e+01	2.027471e+02
1.170000e-06	1.758080e-06	3.317345e-09	1.218169e+01	2.150011e+02
1.180000e-06	1.800416e-06	3.490138e-09	1.247503e+01	2.265187e+02
1.190000e-06	1.841809e-06	3.653809e-09	1.276184e+01	2.372869e+02
1.200000e-06	1.882524e-06	3.808151e-09	1.304396e+01	2.473169e+02
1.210000e-06	1.922759e-06	3.951411e-09	1.332274e+01	2.566341e+02
1.220000e-06	1.962409e-06	4.083439e-09	1.359748e+01	2.652689e+02
1.230000e-06	2.001356e-06	4.202201e-09	1.386734e+01	2.732530e+02
1.240000e-06	2.039608e-06	4.309357e-09	1.413239e+01	2.806184e+02
1.250000e-06	2.077167e-06	4.405980e-09	1.439264e+01	2.874019e+02
1.260000e-06	2.114072e-06	4.498462e-09	1.464835e+01	2.936487e+02
1.270000e-06	2.150468e-06	4.586027e-09	1.490053e+01	2.994147e+02
1.280000e-06	2.186248e-06	4.667464e-09	1.514845e+01	3.047633e+02
1.290000e-06	2.220996e-06	4.741928e-09	1.538922e+01	3.097590e+02
1.300000e-06	2.254587e-06	4.810593e-09	1.562197e+01	3.144577e+02
1.310000e-06	2.287338e-06	4.878125e-09	1.584890e+01	3.188994e+02
1.320000e-06	2.319473e-06	4.942095e-09	1.607157e+01	3.231036e+02
1.330000e-06	2.350890e-06	4.999120e-09	1.628925e+01	3.270723e+02
1.340000e-06	2.381516e-06	5.049074e-09	1.650146e+01	3.307966e+02
1.350000e-06	2.411324e-06	5.096113e-09	1.670800e+01	3.342676e+02
1.360000e-06	2.440334e-06	5.141935e-09	1.690900e+01	3.374844e+02
1.370000e-06	2.468778e-06	5.185777e-09	1.710609e+01	3.404604e+02
1.380000e-06	2.496418e-06	5.226088e-09	1.729762e+01	3.432212e+02
1.390000e-06	2.522813e-06	5.265430e-09	1.748050e+01	3.457997e+02
1.400000e-06	2.548070e-06	5.303859e-09	1.765551e+01	3.482272e+02
1.410000e-06	2.572403e-06	5.335487e-09	1.782411e+01	3.505259e+02
1.420000e-06	2.595831e-06	5.361085e-09	1.798645e+01	3.527052e+02
1.430000e-06	2.618393e-06	5.386596e-09	1.814277e+01	3.547631e+02
1.440000e-06	2.640092e-06	5.415259e-09	1.829313e+01	3.566915e+02
1.450000e-06	2.660984e-06	5.444515e-09	1.843788e+01	3.584838e+02
1.460000e-06	2.681171e-06	5.470678e-09	1.857776e+01	3.601406e+02
1.470000e-06	2.700437e-06	5.494354e-09	1.871126e+01	3.616723e+02
1.480000e-06	2.718640e-06	5.516058e-09	1.883738e+01	3.630967e+02
1.490000e-06	2.735920e-06	5.535182e-09	1.895712e+01	3.644335e+02
1.500000e-06	2.752196e-06	5.551869e-09	1.906989e+01	3.656980e+02
1.510000e-06	2.767305e-06	5.566779e-09	1.917458e+01	3.668964e+02
1.520000e-06	2.781413e-06	5.581383e-09	1.927234e+01	3.680247e+02
1.530000e-06	2.794622e-06	5.597208e-09	1.936386e+01	3.690721e+02
1.540000e-06	2.806804e-06	5.613392e-09	1.944827e+01	3.700262e+02
1.550000e-06	2.817684e-06	5.627488e-09	1.952366e+01	3.708797e+02
1.560000e-06	2.827184e-06	5.637675e-09	1.958948e+01	3.716332e+02
1.570000e-06	2.835653e-06	5.647056e-09	1.964817e+01	3.722959e+02
1.580000e-06	2.843230e-06	5.657631e-09	1.970066e+01	3.728816e+02
1.590000e-06	2.849847e-06	5.667716e-09	1.974652e+01	3.734039e+02
1.600000e-06	2.855470e-06	5.675321e-09	1.978548e+01	3.738705e+02
1.610000e-06	2.860233e-06	5.679768e-09	1.981848e+01	3.742811e+02
1.620000e-06	2.864216e-06	5.683875e-09	1.984607e+01	3.746279e+02
1.630000e-06	2.866957e-06	5.689829e-09	1.986507e+01	3.748995e+02
1.640000e-06	2.868361e-06	5.694507e-09	1.987479e+01	3.750860e+02
1.650000e-06	2.868896e-06	5.696657e-09	1.987850e+01	3.751828e+02
1.660000e-06	2.868590e-06	5.697755e-09	1.987638e+01	3.751928e+02
1.670000e-06	2.867351e-06	5.695553e-09	1.986780e+01	3.751249e+02
1.680000e-06	2.865230e-06	5.692528e-09	1.985310e+01	3.749901e+02
1.690000e-06	2.862267e-06	5.689940e-09	1.983257e+01	3.747972e+02
1.700000e-06	2.858578e-06	5.684215e-09	1.980701e+01	3.745502e+02
1.710000e-06	2.853933e-06	5.679019e-09	1.977482e+01	3.742470e+02
1.720000e-06	2.848017e-06	5.689710e-09	1.973383e+01	3.738820e+02
1.730000e-06	2.841053e-06	5.714596e-09	1.968558e+01	3.734494e+02
1.740000e-06	2.833285e-06	5.622703e-09	1.963175e+01	3.729466e+02
1.750000e-06	2.824275e-06	5.515393e-09	1.956933e+01	3.723768e+02
1.760000e-06	2.813573e-06	5.606097e-09	1.949517e+01	3.717483e+02
1.770000e-06	2.801864e-06	5.809657e-09	1.941404e+01	3.710722e+02
1.780000e-06	2.790140e-06	5.671026e-09	1.933280e+01	3.703585e+02
1.790000e-06	2.777815e-06	5.402660e-09	1.924740e+01	3.696132e+02
1.800000e-06	2.763631e-06	5.621959e-09	1.914912e+01	3.688364e+02
1.810000e-06	2.748100e-06	5.760476e-09	1.904151e+01	3.680231e+02
1.820000e-06	2.732226e-06	5.438333e-09	1.893152e+01	3.671651e+02
1.830000e-06	2.715320e-06	5.435802e-09	1.881438e+01	3.662537e+02
1.840000e-06	2.696905e-06	5.780214e-09	1.868678e+01	3.652819e+02
1.850000e-06	2.677786e-06	5.544227e-09	1.855431e+01	3.642454e+02
1.860000e-06	2.658059e-06	5.313163e-09	1.841762e+01	3.631419e+02
1.870000e-06	2.637019e-06	5.691761e-09	1.827183e+01	3.619700e+02
1.880000e-06	2.614865e-06	5.565584e-09	1.811833e+01	3.607279e+02
1.890000e-06	2.591889e-06	5.216445e-09	1.795913e+01	3.594133e+02
1.900000e-06	2.567839e-06	5.520817e-09	1.779249e+01	3.580239e+02
1.910000e-06	2.542991e-06	5.542414e-09	1.762032e+01	3.565590e+02
1.920000e-06	2.517448e-06	5.291425e-09	1.744333e+01	3.550203e+02
1.930000e-06	2.490912e-06	5.408206e-09	1.725946e+01	3.534116e+02
1.940000e-06	2.463674e-06	5.388806e-09	1.707073e+01	3.517384e+02
1.950000e-06	2.435765e-06	5.284474e-09	1.687735e+01	3.500052e+02
1.960000e-06	2.406588e-06	5.348728e-09	1.667518e+01	3.482141e+02
1.970000e-06	2.376246e-06	5.210493e-09	1.646494e+01	3.463640e+02
1.980000e-06	2.345163e-06	5.184899e-09	1.624957e+01	3.444520e+02
1.990000e-06	2.313369e-06	5.319617e-09	1.602927e+01	3.424752e+02
2.000000e-06	2.280844e-06	5.132886e-09	1.580390e+01	3.404338e+02
2.010000e-06	2.247475e-06	5.117517e-09	1.557269e+01	3.383327e+02
2.020000e-06	2.213250e-06	5.193911e-09	1.533555e+01	3.361805e+02
2.030000e-06	2.178419e-06	4.997076e-09	1.509421e+01	3.339874e+02
2.040000e-06	2.143014e-06	5.036158e-09	1.484888e+01	3.317605e+02
2.050000e-06	2.106941e-06	5.082585e-09	1.459893e+01	3.295003e+02
2.060000e-06	2.069940e-06	4.906725e-09	1.434256e+01	3.271990e+02
2.070000e-06	2.031753e-06	4.935725e-09	1.407796e+01	3.248422e+02
2.080000e-06	1.992753e-06	4.949934e-09	1.380773e+01	3.224130e+02
2.090000e-06	1.953263e-06	4.844060e-09	1.353411e+01	3.198986e+02
2.100000e-06	1.913158e-06	4.828329e-09	1.325622e+01	3.172952e+02
2.110000e-06	1.872373e-06	4.766257e-09	1.297362e+01	3.146099e+02
2.120000e-06	1.830976e-06	4.734309e-09	1.268678e+01	3.118585e+02
2.130000e-06	1.789019e-06	4.717878e-09	1.239606e+01	3.090592e+02
2.140000e-06	1.746465e-06	4.641881e-09	1.210121e+01	3.062257e+02
2.150000e-06	1.703376e-06	4.617607e-09	1.180265e+01	3.033604e+02
2.160000e-06	1.659909e-06	4.568925e-09	1.150146e+01	3.004527e+02
2.170000e-06	1.615940e-06	4.525568e-09	1.119681e+01	2.974822e+02
2.180000e-06	1.571269e-06	4.485620e-09	1.088728e+01	2.944259e+02
2.190000e-06	1.525904e-06	4.417156e-09	1.057295e+01	2.912671e+02
2.200000e-06	1.479973e-06	4.374350e-09	1.025469e+01	2.880020e+02
2.210000e-06	1.433683e-06	4.329481e-09	9.933951e+00	2.846416e+02
2.220000e-06	1.387018e-06	4.283174e-09	9.610608e+00	2.812077e+02
2.230000e-06	1.339839e-06	4.237142e-09	9.283705e+00	2.777239e+02
2.240000e-06	1.292064e-06	4.160930e-09	8.952676e+00	2.742053e+02
2.250000e-06	1.243634e-06	4.121648e-09	8.617108e+00	2.706518e+02
2.260000e-06	1.194698e-06	4.079906e-09	8.278033e+00	2.670456e+02
2.270000e-06	1.145400e-06	4.000460e-09	7.936442e+00	2.633573e+02
2.280000e-06	1.095688e-06	3.951824e-09	7.591990e+00	2.595560e+02
2.290000e-06	1.045487e-06	3.894272e-09	7.244154e+00	2.556204e+02
2.300000e-06	9.948134e-07	3.842710e-09	6.893035e+00	2.515478e+02
2.310000e-06	9.438210e-07	3.783031e-09	6.539710e+00	2.473548e+02
2.320000e-06	8.926127e-07	3.703092e-09	6.184889e+00	2.430719e+02
2.330000e-06	8.412038e-07	3.641677e-09	5.828678e+00	2.387318e+02
2.340000e-06	7.895098e-07	3.576857e-09	5.470492e+00	2.343566e+02
2.350000e-06	7.373179e-07	3.513614e-09	5.108856e+00	2.299490e+02
2.360000e-06	6.846959e-07	3.444115e-09	4.744239e+00	2.254902e+02
2.370000e-06	6.316711e-07	3.368533e-09	4.376832e+00	2.209462e+02
2.380000e-06	5.782362e-07	3.306403e-09	4.006583e+00	2.162794e+02
2.390000e-06	5.245119e-07	3.239824e-09	3.634329e+00	2.114615e+02
2.400000e-06	4.704409e-07	3.162992e-09	3.259672e+00	2.064823e+02
2.410000e-06	4.160760e-07	3.083728e-09	2.882980e+00	2.013518e+02
2.420000e-06	3.614960e-07	3.001018e-09	2.504796e+00	1.960936e+02
2.430000e-06	3.067330e-07	2.925310e-09	2.125345e+00	1.907340e+02
2.440000e-06	2.518659e-07	2.842796e-09	1.745172e+00	1.852887e+02
2.450000e-06	1.969012e-07	2.751141e-09	1.364323e+00	1.797557e+02
2.460000e-06	1.418962e-07	2.667542e-09	9.831951e-01	1.741136e+02
2.470000e-06	8.691079e-08	2.585601e-09	6.022025e-01	1.683290e+02
2.480000e-06	3.189750e-08	2.502524e-09	2.210169e-01	1.623683e+02
2.490000e-06	-2.314249e-08	2.406990e-09	-1.603537e-01	1.562087e+02
2.500000e-06	-7.816547e-08	2.307061e-09	-5.416064e-01	1.498460e+02
2.510000e-06	-1.331419e-07	2.212233e-09	-9.225367e-01	1.432937e+02
2.520000e-06	-1.880864e-07	2.111967e-09	-1.303246e+00	1.365743e+02
2.530000e-06	-2.430025e-07	2.003676e-09	-1.683758e+00	1.297076e+02
2.540000e-06	-2.978377e-07	1.891733e-09	-2.063709e+00	1.226984e+02
2.550000e-06	-3.525956e-07	1.786188e-09	-2.443126e+00	1.155294e+02
2.560000e-06	-4.071859e-07	1.681954e-09	-2.821380e+00	1.081636e+02
2.570000e-06	-4.616043e-07	1.567551e-09	-3.198444e+00	1.005522e+02
2.580000e-06	-5.157954e-07	1.444308e-09	-3.573932e+00	9.264803e+01
2.590000e-06	-5.695540e-07	1.321844e-09	-3.946424e+00	8.441749e+01
2.600000e-06	-6.229140e-07	1.195701e-09	-4.316154e+00	7.584676e+01
2.610000e-06	-6.758845e-07	1.058440e-09	-4.683186e+00	6.694026e+01
2.620000e-06	-7.284598e-07	9.124614e-10	-5.047478e+00	5.771161e+01
2.630000e-06	-7.806219e-07	7.659418e-10	-5.408908e+00	4.817073e+01
2.640000e-06	-8.323615e-07	6.232157e-10	-5.767410e+00	3.831224e+01
2.650000e-06	-8.837985e-07	4.738126e-10	-6.123816e+00	2.810941e+01
2.660000e-06	-9.349960e-07	3.114184e-10	-6.478562e+00	1.751621e+01
2.670000e-06	-9.859404e-07	1.411725e-10	-6.831554e+00	6.476821e+00
2.680000e-06	-1.036492e-06	-2.954179e-11	-7.181823e+00	-5.060792e+00
2.690000e-06	-1.086593e-06	-2.092135e-10	-7.528973e+00	-1.713150e+01
2.700000e-06	-1.136297e-06	-4.042350e-10	-7.873371e+00	-2.974399e+01
2.710000e-06	-1.185589e-06	-6.084422e-10	-8.214917e+00	-4.287809e+01
2.720000e-06	-1.234418e-06	-8.146840e-10	-8.553249e+00	-5.648787e+01
2.730000e-06	-1.282657e-06	-1.024035e-09	-8.887493e+00	-7.050816e+01
2.740000e-06	-1.330134e-06	-1.242539e-09	-9.216465e+00	-8.486076e+01
2.750000e-06	-1.376865e-06	-1.468799e-09	-9.540258e+00	-9.945817e+01
2.760000e-06	-1.423017e-06	-1.694564e-09	-9.860048e+00	-1.142036e+02
2.770000e-06	-1.468771e-06	-1.915675e-09	-1.017708e+01	-1.289889e+02
2.780000e-06	-1.514202e-06	-2.138682e-09	-1.049187e+01	-1.436929e+02
2.790000e-06	-1.559275e-06	-2.365186e-09	-1.080418e+01	-1.581833e+02
2.800000e-06	-1.603837e-06	-2.587126e-09	-1.111294e+01	-1.723230e+02
2.810000e-06	-1.647775e-06	-2.796808e-09	-1.141739e+01	-1.859804e+02
2.820000e-06	-1.691227e-06	-2.995151e-09	-1.171846e+01	-1.990424e+02
2.830000e-06	-1.734275e-06	-3.182807e-09	-1.201674e+01	-2.114244e+02
2.840000e-06	-1.776829e-06	-3.359779e-09	-1.231160e+01	-2.230754e+02
2.850000e-06	-1.818768e-06	-3.526093e-09	-1.260219e+01	-2.339773e+02
2.860000e-06	-1.860115e-06	-3.680540e-09	-1.288868e+01	-2.441377e+02
2.870000e-06	-1.900911e-06	-3.827121e-09	-1.317136e+01	-2.535801e+02
2.880000e-06	-1.941034e-06	-3.966489e-09	-1.344937e+01	-2.623346e+02
2.890000e-06	-1.980518e-06	-4.096811e-09	-1.372295e+01	-2.704327e+02
2.900000e-06	-2.019497e-06	-4.213544e-09	-1.399304e+01	-2.779062e+02
2.910000e-06	-2.057740e-06	-4.316384e-09	-1.425802e+01	-2.847907e+02
2.920000e-06	-2.094918e-06	-4.410477e-09	-1.451563e+01	-2.911297e+02
2.930000e-06	-2.131062e-06	-4.500029e-09	-1.476607e+01	-2.969771e+02
2.940000e-06	-2.166512e-06	-4.586260e-09	-1.501170e+01	-3.023956e+02
