# Temperatura_=_26.11
# Concentracion g/m^3_=_13400.0
# C_Vs_to_Am_M_A/Vsm_=_65563218390.804596
# pendiente_HvsI_1/m_=_3716.3
# ordenada_HvsI_A/m_=_1297.0
# frecuencia_Hz_=_300845.5798201418

Tiempo_(s)	Campo_(V.s)	Magnetizacion_(V.s)	Campo_(kA/m)	Magnetizacion_(A/m)
0.000000e+00	-2.854498e-06	-5.722762e-09	-1.980396e+01	-3.737742e+02
1.000000e-08	-2.853538e-06	-5.723916e-09	-1.979730e+01	-3.736492e+02
2.000000e-08	-2.851559e-06	-5.723163e-09	-1.978357e+01	-3.734587e+02
3.000000e-08	-2.848290e-06	-5.718732e-09	-1.976089e+01	-3.732011e+02
4.000000e-08	-2.844025e-06	-5.712836e-09	-1.973130e+01	-3.728755e+02
5.000000e-08	-2.839004e-06	-5.704112e-09	-1.969646e+01	-3.724826e+02
6.000000e-08	-2.833126e-06	-5.685116e-09	-1.965568e+01	-3.720243e+02
7.000000e-08	-2.826310e-06	-5.661942e-09	-1.960840e+01	-3.715038e+02
8.000000e-08	-2.818480e-06	-5.712107e-09	-1.955407e+01	-3.709261e+02
9.000000e-08	-2.809383e-06	-5.787489e-09	-1.949096e+01	-3.702986e+02
1.000000e-07	-2.798832e-06	-5.726104e-09	-1.941776e+01	-3.696315e+02
1.100000e-07	-2.787139e-06	-5.511573e-09	-1.933664e+01	-3.689373e+02
1.200000e-07	-2.774692e-06	-5.563193e-09	-1.925028e+01	-3.682293e+02
1.300000e-07	-2.761340e-06	-5.787559e-09	-1.915765e+01	-3.675184e+02
1.400000e-07	-2.746933e-06	-5.657105e-09	-1.905769e+01	-3.668096e+02
1.500000e-07	-2.731597e-06	-5.452193e-09	-1.895130e+01	-3.660989e+02
1.600000e-07	-2.714972e-06	-5.666906e-09	-1.883595e+01	-3.653715e+02
1.700000e-07	-2.697009e-06	-5.732439e-09	-1.871133e+01	-3.646034e+02
1.800000e-07	-2.678345e-06	-5.417654e-09	-1.858184e+01	-3.637648e+02
1.900000e-07	-2.659012e-06	-5.520665e-09	-1.844772e+01	-3.628272e+02
2.000000e-07	-2.638703e-06	-5.665305e-09	-1.830681e+01	-3.617698e+02
2.100000e-07	-2.617531e-06	-5.392773e-09	-1.815993e+01	-3.605853e+02
2.200000e-07	-2.595633e-06	-5.423578e-09	-1.800800e+01	-3.592822e+02
2.300000e-07	-2.572789e-06	-5.654085e-09	-1.784952e+01	-3.578821e+02
2.400000e-07	-2.548958e-06	-5.444154e-09	-1.768418e+01	-3.564146e+02
2.500000e-07	-2.524376e-06	-5.323526e-09	-1.751364e+01	-3.549080e+02
2.600000e-07	-2.498928e-06	-5.451139e-09	-1.733709e+01	-3.533816e+02
2.700000e-07	-2.472397e-06	-5.391092e-09	-1.715302e+01	-3.518401e+02
2.800000e-07	-2.444809e-06	-5.313368e-09	-1.696162e+01	-3.502728e+02
2.900000e-07	-2.416280e-06	-5.342281e-09	-1.676368e+01	-3.486576e+02
3.000000e-07	-2.386936e-06	-5.306054e-09	-1.656011e+01	-3.469687e+02
3.100000e-07	-2.356883e-06	-5.304468e-09	-1.635160e+01	-3.451859e+02
3.200000e-07	-2.326128e-06	-5.290910e-09	-1.613823e+01	-3.433014e+02
3.300000e-07	-2.294538e-06	-5.168814e-09	-1.591907e+01	-3.413226e+02
3.400000e-07	-2.262250e-06	-5.172898e-09	-1.569506e+01	-3.392696e+02
3.500000e-07	-2.229414e-06	-5.155268e-09	-1.546724e+01	-3.371686e+02
3.600000e-07	-2.195767e-06	-5.097124e-09	-1.523381e+01	-3.350420e+02
3.700000e-07	-2.160940e-06	-5.125607e-09	-1.499219e+01	-3.329007e+02
3.800000e-07	-2.125028e-06	-5.064795e-09	-1.474304e+01	-3.307401e+02
3.900000e-07	-2.088498e-06	-4.978861e-09	-1.448960e+01	-3.285407e+02
4.000000e-07	-2.051336e-06	-5.007831e-09	-1.423178e+01	-3.262746e+02
4.100000e-07	-2.013415e-06	-4.972168e-09	-1.396869e+01	-3.239153e+02
4.200000e-07	-1.974806e-06	-4.867480e-09	-1.370082e+01	-3.214462e+02
4.300000e-07	-1.935411e-06	-4.855315e-09	-1.342751e+01	-3.188667e+02
4.400000e-07	-1.895324e-06	-4.840888e-09	-1.314939e+01	-3.161919e+02
4.500000e-07	-1.854852e-06	-4.798200e-09	-1.286861e+01	-3.134479e+02
4.600000e-07	-1.814035e-06	-4.749381e-09	-1.258543e+01	-3.106620e+02
4.700000e-07	-1.772483e-06	-4.697493e-09	-1.229715e+01	-3.078532e+02
4.800000e-07	-1.729862e-06	-4.651097e-09	-1.200145e+01	-3.050255e+02
4.900000e-07	-1.686273e-06	-4.619726e-09	-1.169904e+01	-3.021664e+02
5.000000e-07	-1.642058e-06	-4.578449e-09	-1.139228e+01	-2.992511e+02
5.100000e-07	-1.597449e-06	-4.511097e-09	-1.108279e+01	-2.962510e+02
5.200000e-07	-1.552380e-06	-4.465240e-09	-1.077011e+01	-2.931440e+02
5.300000e-07	-1.506743e-06	-4.432324e-09	-1.045350e+01	-2.899215e+02
5.400000e-07	-1.460550e-06	-4.391629e-09	-1.013302e+01	-2.865912e+02
5.500000e-07	-1.413821e-06	-4.323387e-09	-9.808817e+00	-2.831740e+02
5.600000e-07	-1.366533e-06	-4.257049e-09	-9.480743e+00	-2.796951e+02
5.700000e-07	-1.318755e-06	-4.208113e-09	-9.149266e+00	-2.761750e+02
5.800000e-07	-1.270577e-06	-4.169305e-09	-8.815018e+00	-2.726212e+02
5.900000e-07	-1.222086e-06	-4.109056e-09	-8.478598e+00	-2.690247e+02
6.000000e-07	-1.173232e-06	-4.035234e-09	-8.139656e+00	-2.653630e+02
6.100000e-07	-1.123829e-06	-3.980067e-09	-7.796910e+00	-2.616080e+02
6.200000e-07	-1.073805e-06	-3.926365e-09	-7.449854e+00	-2.577352e+02
6.300000e-07	-1.023098e-06	-3.866003e-09	-7.098061e+00	-2.537326e+02
6.400000e-07	-9.717822e-07	-3.791664e-09	-6.742039e+00	-2.496046e+02
6.500000e-07	-9.200339e-07	-3.726715e-09	-6.383019e+00	-2.453703e+02
6.600000e-07	-8.679205e-07	-3.671670e-09	-6.021466e+00	-2.410555e+02
6.700000e-07	-8.155076e-07	-3.611654e-09	-5.657835e+00	-2.366838e+02
6.800000e-07	-7.628883e-07	-3.536247e-09	-5.292773e+00	-2.322673e+02
6.900000e-07	-7.100063e-07	-3.455644e-09	-4.925888e+00	-2.278018e+02
7.000000e-07	-6.568179e-07	-3.388516e-09	-4.556877e+00	-2.232682e+02
7.100000e-07	-6.034091e-07	-3.324433e-09	-4.186337e+00	-2.186386e+02
7.200000e-07	-5.498427e-07	-3.250873e-09	-3.814703e+00	-2.138857e+02
7.300000e-07	-4.960635e-07	-3.168995e-09	-3.441593e+00	-2.089917e+02
7.400000e-07	-4.420796e-07	-3.095782e-09	-3.067064e+00	-2.039535e+02
7.500000e-07	-3.879402e-07	-3.022763e-09	-2.691455e+00	-1.987817e+02
7.600000e-07	-3.336590e-07	-2.938914e-09	-2.314862e+00	-1.934957e+02
7.700000e-07	-2.793069e-07	-2.844246e-09	-1.937778e+00	-1.881137e+02
7.800000e-07	-2.248755e-07	-2.756724e-09	-1.560143e+00	-1.826452e+02
7.900000e-07	-1.703584e-07	-2.681677e-09	-1.181914e+00	-1.770852e+02
8.000000e-07	-1.158377e-07	-2.599792e-09	-8.036596e-01	-1.714143e+02
8.100000e-07	-6.135245e-08	-2.507067e-09	-4.256516e-01	-1.656046e+02
8.200000e-07	-6.831144e-09	-2.409723e-09	-4.739317e-02	-1.596277e+02
8.300000e-07	4.770838e-08	-2.316210e-09	3.309916e-01	-1.534632e+02
8.400000e-07	1.022323e-07	-2.218151e-09	7.092683e-01	-1.471039e+02
8.500000e-07	1.567448e-07	-2.114151e-09	1.087466e+00	-1.405556e+02
8.600000e-07	2.112329e-07	-2.007382e-09	1.465493e+00	-1.338318e+02
8.700000e-07	2.657001e-07	-1.903088e-09	1.843376e+00	-1.269452e+02
8.800000e-07	3.200785e-07	-1.800413e-09	2.220644e+00	-1.198988e+02
8.900000e-07	3.743612e-07	-1.688664e-09	2.597246e+00	-1.126808e+02
9.000000e-07	4.285698e-07	-1.568041e-09	2.973335e+00	-1.052639e+02
9.100000e-07	4.825792e-07	-1.446102e-09	3.348042e+00	-9.761038e+01
9.200000e-07	5.363556e-07	-1.327744e-09	3.721133e+00	-8.968026e+01
9.300000e-07	5.899283e-07	-1.202624e-09	4.092809e+00	-8.144006e+01
9.400000e-07	6.432519e-07	-1.069322e-09	4.462758e+00	-7.286859e+01
9.500000e-07	6.963122e-07	-9.309076e-10	4.830881e+00	-6.395769e+01
9.600000e-07	7.491030e-07	-7.928321e-10	5.197133e+00	-5.470767e+01
9.700000e-07	8.016480e-07	-6.500463e-10	5.561680e+00	-4.511914e+01
9.800000e-07	8.539629e-07	-4.943169e-10	5.924631e+00	-3.518415e+01
9.900000e-07	9.059390e-07	-3.304821e-10	6.285231e+00	-2.488017e+01
1.000000e-06	9.574992e-07	-1.633881e-10	6.642946e+00	-1.416916e+01
1.010000e-06	1.008559e-06	6.105851e-12	6.997192e+00	-3.002715e+00
1.020000e-06	1.058939e-06	1.841306e-10	7.346718e+00	8.668181e+00
1.030000e-06	1.108646e-06	3.693109e-10	7.691574e+00	2.088117e+01
1.040000e-06	1.157830e-06	5.624593e-10	8.032805e+00	3.365174e+01
1.050000e-06	1.206651e-06	7.659955e-10	8.371511e+00	4.696619e+01
1.060000e-06	1.255167e-06	9.803140e-10	8.708108e+00	6.077975e+01
1.070000e-06	1.303356e-06	1.200932e-09	9.042437e+00	7.501951e+01
1.080000e-06	1.351146e-06	1.423104e-09	9.373989e+00	8.959058e+01
1.090000e-06	1.398390e-06	1.647039e-09	9.701759e+00	1.043832e+02
1.100000e-06	1.445114e-06	1.872901e-09	1.002592e+01	1.192790e+02
1.110000e-06	1.491366e-06	2.099545e-09	1.034681e+01	1.341551e+02
1.120000e-06	1.537074e-06	2.318960e-09	1.066393e+01	1.488869e+02
1.130000e-06	1.582232e-06	2.532434e-09	1.097722e+01	1.633499e+02
1.140000e-06	1.626936e-06	2.744854e-09	1.128737e+01	1.774224e+02
1.150000e-06	1.671272e-06	2.954202e-09	1.159496e+01	1.909905e+02
1.160000e-06	1.715201e-06	3.151791e-09	1.189974e+01	2.039535e+02
1.170000e-06	1.758416e-06	3.336153e-09	1.219955e+01	2.162313e+02
1.180000e-06	1.800651e-06	3.510122e-09	1.249257e+01	2.277700e+02
1.190000e-06	1.842003e-06	3.673526e-09	1.277947e+01	2.385449e+02
1.200000e-06	1.882679e-06	3.827668e-09	1.306167e+01	2.485591e+02
1.210000e-06	1.922827e-06	3.967959e-09	1.334021e+01	2.578392e+02
1.220000e-06	1.962391e-06	4.093768e-09	1.361470e+01	2.664272e+02
1.230000e-06	2.001297e-06	4.209193e-09	1.388462e+01	2.743729e+02
1.240000e-06	2.039495e-06	4.318646e-09	1.414963e+01	2.817265e+02
1.250000e-06	2.076957e-06	4.421552e-09	1.440953e+01	2.885351e+02
1.260000e-06	2.113799e-06	4.517063e-09	1.466513e+01	2.948418e+02
1.270000e-06	2.150143e-06	4.604365e-09	1.491728e+01	3.006867e+02
1.280000e-06	2.185839e-06	4.685444e-09	1.516493e+01	3.061097e+02
1.290000e-06	2.220486e-06	4.762141e-09	1.540531e+01	3.111521e+02
1.300000e-06	2.254019e-06	4.830537e-09	1.563795e+01	3.158555e+02
1.310000e-06	2.286732e-06	4.891970e-09	1.586491e+01	3.202601e+02
1.320000e-06	2.318787e-06	4.951916e-09	1.608730e+01	3.244005e+02
1.330000e-06	2.350117e-06	5.011187e-09	1.630466e+01	3.283024e+02
1.340000e-06	2.380638e-06	5.065137e-09	1.651641e+01	3.319810e+02
1.350000e-06	2.410328e-06	5.112831e-09	1.672239e+01	3.354417e+02
1.360000e-06	2.439272e-06	5.158069e-09	1.692320e+01	3.386846e+02
1.370000e-06	2.467585e-06	5.205138e-09	1.711963e+01	3.417086e+02
1.380000e-06	2.495101e-06	5.250318e-09	1.731053e+01	3.445174e+02
1.390000e-06	2.521389e-06	5.288002e-09	1.749291e+01	3.471224e+02
1.400000e-06	2.546478e-06	5.317855e-09	1.766698e+01	3.495429e+02
1.410000e-06	2.570698e-06	5.345911e-09	1.783501e+01	3.518035e+02
1.420000e-06	2.594044e-06	5.378463e-09	1.799698e+01	3.539294e+02
1.430000e-06	2.616481e-06	5.410296e-09	1.815264e+01	3.559411e+02
1.440000e-06	2.638017e-06	5.435801e-09	1.830206e+01	3.578507e+02
1.450000e-06	2.658781e-06	5.458807e-09	1.844611e+01	3.596608e+02
1.460000e-06	2.678895e-06	5.487016e-09	1.858566e+01	3.613662e+02
1.470000e-06	2.698153e-06	5.516520e-09	1.871927e+01	3.629581e+02
1.480000e-06	2.716334e-06	5.537598e-09	1.884541e+01	3.644288e+02
1.490000e-06	2.733498e-06	5.551672e-09	1.896449e+01	3.657758e+02
1.500000e-06	2.749597e-06	5.567440e-09	1.907618e+01	3.670035e+02
1.510000e-06	2.764602e-06	5.587610e-09	1.918028e+01	3.681227e+02
1.520000e-06	2.778609e-06	5.605773e-09	1.927745e+01	3.691474e+02
1.530000e-06	2.791615e-06	5.618641e-09	1.936769e+01	3.700909e+02
1.540000e-06	2.803591e-06	5.631540e-09	1.945078e+01	3.709625e+02
1.550000e-06	2.814322e-06	5.646955e-09	1.952522e+01	3.717653e+02
1.560000e-06	2.823764e-06	5.658636e-09	1.959073e+01	3.724962e+02
1.570000e-06	2.832243e-06	5.666095e-09	1.964956e+01	3.731487e+02
1.580000e-06	2.839852e-06	5.673775e-09	1.970235e+01	3.737154e+02
1.590000e-06	2.846445e-06	5.682573e-09	1.974809e+01	3.741913e+02
1.600000e-06	2.852026e-06	5.689174e-09	1.978681e+01	3.745756e+02
1.610000e-06	2.856781e-06	5.691853e-09	1.981980e+01	3.748718e+02
1.620000e-06	2.860692e-06	5.695636e-09	1.984693e+01	3.750866e+02
1.630000e-06	2.863389e-06	5.701897e-09	1.986565e+01	3.752278e+02
1.640000e-06	2.864795e-06	5.705313e-09	1.987540e+01	3.753019e+02
1.650000e-06	2.865242e-06	5.704634e-09	1.987850e+01	3.753130e+02
1.660000e-06	2.864844e-06	5.702686e-09	1.987574e+01	3.752621e+02
1.670000e-06	2.863543e-06	5.699996e-09	1.986671e+01	3.751483e+02
1.680000e-06	2.861351e-06	5.699073e-09	1.985151e+01	3.749693e+02
1.690000e-06	2.858381e-06	5.696673e-09	1.983090e+01	3.747234e+02
1.700000e-06	2.854690e-06	5.688453e-09	1.980529e+01	3.744096e+02
1.710000e-06	2.849943e-06	5.682447e-09	1.977236e+01	3.740284e+02
1.720000e-06	2.843954e-06	5.697396e-09	1.973081e+01	3.735812e+02
1.730000e-06	2.837006e-06	5.706562e-09	1.968260e+01	3.730712e+02
1.740000e-06	2.829181e-06	5.602829e-09	1.962831e+01	3.725030e+02
1.750000e-06	2.820023e-06	5.521417e-09	1.956478e+01	3.718834e+02
1.760000e-06	2.809281e-06	5.650365e-09	1.949025e+01	3.712222e+02
1.770000e-06	2.797646e-06	5.786855e-09	1.940953e+01	3.705315e+02
1.780000e-06	2.785906e-06	5.620160e-09	1.932808e+01	3.698247e+02
1.790000e-06	2.773413e-06	5.430019e-09	1.924141e+01	3.691134e+02
1.800000e-06	2.759143e-06	5.662706e-09	1.914240e+01	3.684039e+02
1.810000e-06	2.743684e-06	5.696502e-09	1.903516e+01	3.676940e+02
1.820000e-06	2.727776e-06	5.401647e-09	1.892479e+01	3.669709e+02
1.830000e-06	2.710704e-06	5.516829e-09	1.880634e+01	3.662118e+02
1.840000e-06	2.692218e-06	5.746119e-09	1.867809e+01	3.653877e+02
1.850000e-06	2.673087e-06	5.464137e-09	1.854536e+01	3.644692e+02
1.860000e-06	2.653280e-06	5.384451e-09	1.840795e+01	3.634339e+02
1.870000e-06	2.632243e-06	5.696149e-09	1.826200e+01	3.622717e+02
1.880000e-06	2.610152e-06	5.469630e-09	1.810874e+01	3.609881e+02
1.890000e-06	2.587177e-06	5.254676e-09	1.794934e+01	3.596030e+02
1.900000e-06	2.563085e-06	5.557525e-09	1.778219e+01	3.581450e+02
1.910000e-06	2.538224e-06	5.503194e-09	1.760971e+01	3.566433e+02
1.920000e-06	2.512652e-06	5.300193e-09	1.743230e+01	3.551193e+02
1.930000e-06	2.486087e-06	5.418385e-09	1.724800e+01	3.535806e+02
1.940000e-06	2.458877e-06	5.359624e-09	1.705922e+01	3.520190e+02
1.950000e-06	2.430897e-06	5.293799e-09	1.686510e+01	3.504138e+02
1.960000e-06	2.401618e-06	5.329911e-09	1.666197e+01	3.487396e+02
1.970000e-06	2.371284e-06	5.202516e-09	1.645151e+01	3.469742e+02
1.980000e-06	2.340217e-06	5.230344e-09	1.623598e+01	3.451075e+02
1.990000e-06	2.308427e-06	5.298379e-09	1.601543e+01	3.431440e+02
2.000000e-06	2.275895e-06	5.135046e-09	1.578972e+01	3.411021e+02
2.010000e-06	2.242525e-06	5.154988e-09	1.555821e+01	3.390075e+02
2.020000e-06	2.208365e-06	5.156064e-09	1.532121e+01	3.368839e+02
2.030000e-06	2.173586e-06	5.003555e-09	1.507993e+01	3.347448e+02
2.040000e-06	2.138220e-06	5.075926e-09	1.483456e+01	3.325884e+02
2.050000e-06	2.102212e-06	5.053944e-09	1.458474e+01	3.303975e+02
2.060000e-06	2.065317e-06	4.922533e-09	1.432877e+01	3.281451e+02
2.070000e-06	2.027221e-06	4.972609e-09	1.406447e+01	3.258037e+02
2.080000e-06	1.988244e-06	4.941988e-09	1.379405e+01	3.233545e+02
2.090000e-06	1.948762e-06	4.857432e-09	1.352014e+01	3.207936e+02
2.100000e-06	1.908657e-06	4.839552e-09	1.324190e+01	3.181339e+02
2.110000e-06	1.867853e-06	4.771931e-09	1.295881e+01	3.153998e+02
2.120000e-06	1.826465e-06	4.746386e-09	1.267166e+01	3.126193e+02
2.130000e-06	1.784550e-06	4.715394e-09	1.238087e+01	3.098135e+02
2.140000e-06	1.742007e-06	4.650964e-09	1.208571e+01	3.069893e+02
2.150000e-06	1.698921e-06	4.628404e-09	1.178679e+01	3.041371e+02
2.160000e-06	1.655473e-06	4.577794e-09	1.148536e+01	3.012336e+02
2.170000e-06	1.611525e-06	4.543231e-09	1.118045e+01	2.982503e+02
2.180000e-06	1.566896e-06	4.497013e-09	1.087082e+01	2.951632e+02
2.190000e-06	1.521602e-06	4.426661e-09	1.055659e+01	2.919608e+02
2.200000e-06	1.475797e-06	4.386690e-09	1.023879e+01	2.886483e+02
2.210000e-06	1.429621e-06	4.337345e-09	9.918437e+00	2.852444e+02
2.220000e-06	1.383022e-06	4.292636e-09	9.595143e+00	2.817744e+02
2.230000e-06	1.335915e-06	4.239339e-09	9.268324e+00	2.782604e+02
2.240000e-06	1.288205e-06	4.169253e-09	8.937319e+00	2.747125e+02
2.250000e-06	1.239845e-06	4.133727e-09	8.601808e+00	2.711246e+02
2.260000e-06	1.191011e-06	4.084467e-09	8.263004e+00	2.674763e+02
2.270000e-06	1.141818e-06	4.013747e-09	7.921718e+00	2.637397e+02
2.280000e-06	1.092210e-06	3.960306e-09	7.577544e+00	2.598889e+02
2.290000e-06	1.042132e-06	3.898464e-09	7.230113e+00	2.559093e+02
2.300000e-06	9.915607e-07	3.846578e-09	6.879258e+00	2.518024e+02
2.310000e-06	9.406390e-07	3.783133e-09	6.525973e+00	2.475849e+02
2.320000e-06	8.894789e-07	3.705922e-09	6.171034e+00	2.432822e+02
2.330000e-06	8.380620e-07	3.643797e-09	5.814314e+00	2.389191e+02
2.340000e-06	7.863484e-07	3.577148e-09	5.455535e+00	2.345101e+02
2.350000e-06	7.341893e-07	3.516351e-09	5.093664e+00	2.300541e+02
2.360000e-06	6.815878e-07	3.445791e-09	4.728726e+00	2.255342e+02
2.370000e-06	6.286253e-07	3.368931e-09	4.361282e+00	2.209235e+02
2.380000e-06	5.752820e-07	3.302475e-09	3.991196e+00	2.161940e+02
2.390000e-06	5.215448e-07	3.230340e-09	3.618378e+00	2.113256e+02
2.400000e-06	4.674572e-07	3.154228e-09	3.243129e+00	2.063124e+02
2.410000e-06	4.131678e-07	3.074349e-09	2.866479e+00	2.011629e+02
2.420000e-06	3.587069e-07	2.993898e-09	2.488640e+00	1.958954e+02
2.430000e-06	3.040535e-07	2.917945e-09	2.109465e+00	1.905292e+02
2.440000e-06	2.492522e-07	2.833974e-09	1.729264e+00	1.850758e+02
2.450000e-06	1.943194e-07	2.744751e-09	1.348151e+00	1.795328e+02
2.460000e-06	1.393170e-07	2.660052e-09	9.665547e-01	1.738834e+02
2.470000e-06	8.432102e-08	2.577006e-09	5.850031e-01	1.681004e+02
2.480000e-06	2.933908e-08	2.492226e-09	2.035489e-01	1.621548e+02
2.490000e-06	-2.565916e-08	2.396333e-09	-1.780183e-01	1.560244e+02
2.500000e-06	-8.065512e-08	2.298809e-09	-5.595698e-01	1.496995e+02
2.510000e-06	-1.356118e-07	2.205836e-09	-9.408487e-01	1.431838e+02
2.520000e-06	-1.904903e-07	2.106994e-09	-1.321585e+00	1.364899e+02
2.530000e-06	-2.453350e-07	1.999699e-09	-1.702087e+00	1.296314e+02
2.540000e-06	-3.001412e-07	1.887322e-09	-2.082322e+00	1.226136e+02
2.550000e-06	-3.548645e-07	1.780248e-09	-2.461982e+00	1.154276e+02
2.560000e-06	-4.094229e-07	1.674912e-09	-2.840497e+00	1.080485e+02
2.570000e-06	-4.637068e-07	1.561637e-09	-3.217109e+00	1.004399e+02
2.580000e-06	-5.176862e-07	1.441337e-09	-3.591607e+00	9.256156e+01
2.590000e-06	-5.713245e-07	1.318796e-09	-3.963740e+00	8.437837e+01
2.600000e-06	-6.246045e-07	1.192015e-09	-4.333386e+00	7.586669e+01
2.610000e-06	-6.774558e-07	1.056120e-09	-4.700059e+00	6.701621e+01
2.620000e-06	-7.298898e-07	9.124988e-10	-5.063835e+00	5.782627e+01
2.630000e-06	-7.819273e-07	7.646779e-10	-5.424862e+00	4.829811e+01
2.640000e-06	-8.336089e-07	6.167749e-10	-5.783419e+00	3.842586e+01
2.650000e-06	-8.850211e-07	4.657151e-10	-6.140107e+00	2.818982e+01
2.660000e-06	-9.361691e-07	3.083374e-10	-6.494962e+00	1.755455e+01
2.670000e-06	-9.870610e-07	1.422697e-10	-6.848040e+00	6.472844e+00
2.680000e-06	-1.037625e-06	-3.361553e-11	-7.198841e+00	-5.105042e+00
2.690000e-06	-1.087745e-06	-2.199937e-10	-7.546565e+00	-1.721965e+01
2.700000e-06	-1.137369e-06	-4.159269e-10	-7.890847e+00	-2.989108e+01
2.710000e-06	-1.186541e-06	-6.185334e-10	-8.231993e+00	-4.311113e+01
2.720000e-06	-1.235314e-06	-8.275077e-10	-8.570375e+00	-5.684048e+01
2.730000e-06	-1.283455e-06	-1.042881e-09	-8.904368e+00	-7.101086e+01
2.740000e-06	-1.330812e-06	-1.263589e-09	-9.232917e+00	-8.553080e+01
2.750000e-06	-1.377475e-06	-1.487139e-09	-9.556658e+00	-1.002927e+02
2.760000e-06	-1.423546e-06	-1.712357e-09	-9.876289e+00	-1.151793e+02
2.770000e-06	-1.469232e-06	-1.939366e-09	-1.019325e+01	-1.300683e+02
2.780000e-06	-1.514636e-06	-2.169581e-09	-1.050825e+01	-1.448354e+02
2.790000e-06	-1.559628e-06	-2.398142e-09	-1.082040e+01	-1.593557e+02
2.800000e-06	-1.604047e-06	-2.617397e-09	-1.112857e+01	-1.735070e+02
2.810000e-06	-1.647908e-06	-2.826667e-09	-1.143287e+01	-1.871733e+02
2.820000e-06	-1.691313e-06	-3.026722e-09	-1.173401e+01	-2.002512e+02
2.830000e-06	-1.734321e-06	-3.214610e-09	-1.203239e+01	-2.126564e+02
2.840000e-06	-1.776851e-06	-3.389644e-09	-1.232745e+01	-2.243301e+02
2.850000e-06	-1.818759e-06	-3.554621e-09	-1.261820e+01	-2.352423e+02
2.860000e-06	-1.860028e-06	-3.711556e-09	-1.290452e+01	-2.453913e+02
2.870000e-06	-1.900655e-06	-3.860911e-09	-1.318638e+01	-2.548000e+02
2.880000e-06	-1.940620e-06	-3.999620e-09	-1.346365e+01	-2.635084e+02
2.890000e-06	-1.980048e-06	-4.127802e-09	-1.373719e+01	-2.715653e+02
2.900000e-06	-2.018924e-06	-4.245927e-09	-1.400691e+01	-2.790214e+02
2.910000e-06	-2.057015e-06	-4.350849e-09	-1.427118e+01	-2.859244e+02
2.920000e-06	-2.094100e-06	-4.443687e-09	-1.452846e+01	-2.923180e+02
2.930000e-06	-2.130207e-06	-4.530817e-09	-1.477897e+01	-2.982428e+02
2.940000e-06	-2.165603e-06	-4.617772e-09	-1.502454e+01	-3.037385e+02
