# Temperatura_=_22.18
# Concentracion g/m^3_=_13400.0
# C_Vs_to_Am_M_A/Vsm_=_65563218390.804596
# pendiente_HvsI_1/m_=_3716.3
# ordenada_HvsI_A/m_=_1297.0
# frecuencia_Hz_=_300831.7874942964

Tiempo_(s)	Campo_(V.s)	Magnetizacion_(V.s)	Campo_(kA/m)	Magnetizacion_(A/m)
0.000000e+00	-2.855790e-06	-5.662791e-09	-1.980863e+01	-3.688143e+02
1.000000e-08	-2.855235e-06	-5.663743e-09	-1.980477e+01	-3.687303e+02
2.000000e-08	-2.853871e-06	-5.664759e-09	-1.979531e+01	-3.685687e+02
3.000000e-08	-2.851346e-06	-5.660588e-09	-1.977780e+01	-3.683540e+02
4.000000e-08	-2.847553e-06	-5.655812e-09	-1.975149e+01	-3.681045e+02
5.000000e-08	-2.842847e-06	-5.651093e-09	-1.971885e+01	-3.678243e+02
6.000000e-08	-2.837413e-06	-5.640764e-09	-1.968116e+01	-3.675013e+02
7.000000e-08	-2.831061e-06	-5.614492e-09	-1.963709e+01	-3.671119e+02
8.000000e-08	-2.823692e-06	-5.609896e-09	-1.958599e+01	-3.666313e+02
9.000000e-08	-2.815295e-06	-5.685464e-09	-1.952774e+01	-3.660446e+02
1.000000e-07	-2.805532e-06	-5.742641e-09	-1.946002e+01	-3.653560e+02
1.100000e-07	-2.794281e-06	-5.596489e-09	-1.938198e+01	-3.645903e+02
1.200000e-07	-2.782063e-06	-5.423619e-09	-1.929723e+01	-3.637871e+02
1.300000e-07	-2.769166e-06	-5.564454e-09	-1.920777e+01	-3.629880e+02
1.400000e-07	-2.755348e-06	-5.737313e-09	-1.911193e+01	-3.622228e+02
1.500000e-07	-2.740572e-06	-5.500200e-09	-1.900944e+01	-3.614984e+02
1.600000e-07	-2.724811e-06	-5.409324e-09	-1.890012e+01	-3.607944e+02
1.700000e-07	-2.707653e-06	-5.661384e-09	-1.878111e+01	-3.600684e+02
1.800000e-07	-2.689273e-06	-5.560685e-09	-1.865361e+01	-3.592682e+02
1.900000e-07	-2.670241e-06	-5.338726e-09	-1.852160e+01	-3.583472e+02
2.000000e-07	-2.650470e-06	-5.502592e-09	-1.838446e+01	-3.572781e+02
2.100000e-07	-2.629750e-06	-5.505443e-09	-1.824074e+01	-3.560599e+02
2.200000e-07	-2.608175e-06	-5.265281e-09	-1.809109e+01	-3.547163e+02
2.300000e-07	-2.585803e-06	-5.408607e-09	-1.793592e+01	-3.532861e+02
2.400000e-07	-2.562503e-06	-5.528954e-09	-1.777430e+01	-3.518096e+02
2.500000e-07	-2.538313e-06	-5.304062e-09	-1.760651e+01	-3.503152e+02
2.600000e-07	-2.513385e-06	-5.262258e-09	-1.743360e+01	-3.488114e+02
2.700000e-07	-2.487596e-06	-5.357560e-09	-1.725472e+01	-3.472860e+02
2.800000e-07	-2.460730e-06	-5.272999e-09	-1.706837e+01	-3.457129e+02
2.900000e-07	-2.432735e-06	-5.225011e-09	-1.687419e+01	-3.440629e+02
3.000000e-07	-2.403785e-06	-5.211780e-09	-1.667338e+01	-3.423147e+02
3.100000e-07	-2.374078e-06	-5.197928e-09	-1.646732e+01	-3.404629e+02
3.200000e-07	-2.343639e-06	-5.226402e-09	-1.625619e+01	-3.385187e+02
3.300000e-07	-2.312450e-06	-5.138946e-09	-1.603985e+01	-3.365050e+02
3.400000e-07	-2.280482e-06	-5.067123e-09	-1.581812e+01	-3.344475e+02
3.500000e-07	-2.247871e-06	-5.091446e-09	-1.559192e+01	-3.323649e+02
3.600000e-07	-2.214651e-06	-5.026774e-09	-1.536149e+01	-3.302625e+02
3.700000e-07	-2.180487e-06	-4.992384e-09	-1.512452e+01	-3.281308e+02
3.800000e-07	-2.145099e-06	-5.025158e-09	-1.487906e+01	-3.259498e+02
3.900000e-07	-2.108754e-06	-4.916460e-09	-1.462695e+01	-3.236961e+02
4.000000e-07	-2.071874e-06	-4.869384e-09	-1.437115e+01	-3.213520e+02
4.100000e-07	-2.034429e-06	-4.920173e-09	-1.411142e+01	-3.189112e+02
4.200000e-07	-1.996218e-06	-4.844661e-09	-1.384637e+01	-3.163800e+02
4.300000e-07	-1.957202e-06	-4.751766e-09	-1.357575e+01	-3.137753e+02
4.400000e-07	-1.917395e-06	-4.747023e-09	-1.329963e+01	-3.111173e+02
4.500000e-07	-1.876989e-06	-4.718745e-09	-1.301936e+01	-3.084224e+02
4.600000e-07	-1.836268e-06	-4.664457e-09	-1.273691e+01	-3.056979e+02
4.700000e-07	-1.795116e-06	-4.623096e-09	-1.245147e+01	-3.029394e+02
4.800000e-07	-1.753149e-06	-4.574720e-09	-1.216037e+01	-3.001331e+02
4.900000e-07	-1.710064e-06	-4.541934e-09	-1.186152e+01	-2.972608e+02
5.000000e-07	-1.666126e-06	-4.504668e-09	-1.155676e+01	-2.943056e+02
5.100000e-07	-1.621675e-06	-4.446838e-09	-1.124843e+01	-2.912578e+02
5.200000e-07	-1.576811e-06	-4.383888e-09	-1.093724e+01	-2.881170e+02
5.300000e-07	-1.531530e-06	-4.339217e-09	-1.062316e+01	-2.848912e+02
5.400000e-07	-1.485634e-06	-4.299768e-09	-1.030481e+01	-2.815935e+02
5.500000e-07	-1.439156e-06	-4.251563e-09	-9.982425e+00	-2.782362e+02
5.600000e-07	-1.392212e-06	-4.190873e-09	-9.656807e+00	-2.748269e+02
5.700000e-07	-1.344776e-06	-4.127937e-09	-9.327776e+00	-2.713646e+02
5.800000e-07	-1.296847e-06	-4.086596e-09	-8.995327e+00	-2.678400e+02
5.900000e-07	-1.248520e-06	-4.037123e-09	-8.660111e+00	-2.642380e+02
6.000000e-07	-1.199861e-06	-3.965027e-09	-8.322601e+00	-2.605416e+02
6.100000e-07	-1.150841e-06	-3.900099e-09	-7.982583e+00	-2.567371e+02
6.200000e-07	-1.101328e-06	-3.851786e-09	-7.639147e+00	-2.528174e+02
6.300000e-07	-1.051080e-06	-3.793022e-09	-7.290612e+00	-2.487837e+02
6.400000e-07	-1.000160e-06	-3.721104e-09	-6.937414e+00	-2.446448e+02
6.500000e-07	-9.487733e-07	-3.649243e-09	-6.580979e+00	-2.404142e+02
6.600000e-07	-8.969510e-07	-3.586055e-09	-6.221524e+00	-2.361057e+02
6.700000e-07	-8.447445e-07	-3.529689e-09	-5.859404e+00	-2.317298e+02
6.800000e-07	-7.922716e-07	-3.463346e-09	-5.495436e+00	-2.272906e+02
6.900000e-07	-7.395820e-07	-3.386964e-09	-5.129965e+00	-2.227853e+02
7.000000e-07	-6.866403e-07	-3.311603e-09	-4.762745e+00	-2.182053e+02
7.100000e-07	-6.334655e-07	-3.243125e-09	-4.393908e+00	-2.135391e+02
7.200000e-07	-5.801182e-07	-3.170082e-09	-4.023876e+00	-2.087753e+02
7.300000e-07	-5.265050e-07	-3.089983e-09	-3.651999e+00	-2.039057e+02
7.400000e-07	-4.725891e-07	-3.011173e-09	-3.278021e+00	-1.989261e+02
7.500000e-07	-4.184939e-07	-2.938615e-09	-2.902800e+00	-1.938362e+02
7.600000e-07	-3.642263e-07	-2.865754e-09	-2.526384e+00	-1.886373e+02
7.700000e-07	-3.098442e-07	-2.781357e-09	-2.149173e+00	-1.833296e+02
7.800000e-07	-2.554273e-07	-2.690006e-09	-1.771722e+00	-1.779100e+02
7.900000e-07	-2.009799e-07	-2.602043e-09	-1.394057e+00	-1.723716e+02
8.000000e-07	-1.464854e-07	-2.518958e-09	-1.016067e+00	-1.667040e+02
8.100000e-07	-9.196488e-08	-2.429177e-09	-6.378963e-01	-1.608964e+02
8.200000e-07	-3.741083e-08	-2.333794e-09	-2.594929e-01	-1.549398e+02
8.300000e-07	1.720066e-08	-2.239525e-09	1.193090e-01	-1.488298e+02
8.400000e-07	7.180727e-08	-2.146242e-09	4.980770e-01	-1.425670e+02
8.500000e-07	1.264044e-07	-2.049360e-09	8.767790e-01	-1.361552e+02
8.600000e-07	1.809908e-07	-1.946292e-09	1.255407e+00	-1.295982e+02
8.700000e-07	2.355040e-07	-1.840213e-09	1.633527e+00	-1.228957e+02
8.800000e-07	2.899318e-07	-1.734299e-09	2.011055e+00	-1.160402e+02
8.900000e-07	3.442699e-07	-1.627292e-09	2.387961e+00	-1.090154e+02
9.000000e-07	3.985052e-07	-1.513443e-09	2.764153e+00	-1.017988e+02
9.100000e-07	4.525750e-07	-1.395783e-09	3.139198e+00	-9.436415e+01
9.200000e-07	5.064157e-07	-1.279292e-09	3.512653e+00	-8.668739e+01
9.300000e-07	5.600536e-07	-1.161481e-09	3.884701e+00	-7.875001e+01
9.400000e-07	6.134809e-07	-1.034578e-09	4.255289e+00	-7.054107e+01
9.500000e-07	6.666488e-07	-9.007308e-10	4.624078e+00	-6.205598e+01
9.600000e-07	7.195484e-07	-7.651164e-10	4.991006e+00	-5.329271e+01
9.700000e-07	7.722374e-07	-6.263162e-10	5.356473e+00	-4.424680e+01
9.800000e-07	8.247056e-07	-4.818934e-10	5.720408e+00	-3.490682e+01
9.900000e-07	8.769036e-07	-3.308965e-10	6.082469e+00	-2.525231e+01
1.000000e-06	9.287428e-07	-1.763985e-10	6.442041e+00	-1.525473e+01
1.010000e-06	9.800745e-07	-1.923505e-11	6.798094e+00	-4.881452e+00
1.020000e-06	1.030744e-06	1.430624e-10	7.149554e+00	5.898482e+00
1.030000e-06	1.080714e-06	3.140083e-10	7.496163e+00	1.710858e+01
1.040000e-06	1.130068e-06	4.946714e-10	7.838492e+00	2.876046e+01
1.050000e-06	1.178980e-06	6.829639e-10	8.177761e+00	4.085165e+01
1.060000e-06	1.227644e-06	8.764049e-10	8.515312e+00	5.336530e+01
1.070000e-06	1.276083e-06	1.073944e-09	8.851295e+00	6.627080e+01
1.080000e-06	1.324174e-06	1.275763e-09	9.184869e+00	7.952419e+01
1.090000e-06	1.371678e-06	1.479717e-09	9.514376e+00	9.306750e+01
1.100000e-06	1.418625e-06	1.684248e-09	9.840010e+00	1.068271e+02
1.110000e-06	1.465128e-06	1.891956e-09	1.016257e+01	1.207125e+02
1.120000e-06	1.511131e-06	2.104698e-09	1.048166e+01	1.346164e+02
1.130000e-06	1.556583e-06	2.317290e-09	1.079693e+01	1.484183e+02
1.140000e-06	1.601552e-06	2.525303e-09	1.110885e+01	1.619920e+02
1.150000e-06	1.646191e-06	2.726576e-09	1.141848e+01	1.752149e+02
1.160000e-06	1.690451e-06	2.916696e-09	1.172548e+01	1.879795e+02
1.170000e-06	1.734061e-06	3.096944e-09	1.202797e+01	2.002011e+02
1.180000e-06	1.776797e-06	3.271138e-09	1.232440e+01	2.118230e+02
1.190000e-06	1.818558e-06	3.438466e-09	1.261407e+01	2.228147e+02
1.200000e-06	1.859584e-06	3.597113e-09	1.289864e+01	2.331668e+02
1.210000e-06	1.900162e-06	3.747421e-09	1.318010e+01	2.428828e+02
1.220000e-06	1.940213e-06	3.887876e-09	1.345790e+01	2.519712e+02
1.230000e-06	1.979576e-06	4.014855e-09	1.373094e+01	2.604422e+02
1.240000e-06	2.018213e-06	4.127795e-09	1.399893e+01	2.683070e+02
1.250000e-06	2.056092e-06	4.231008e-09	1.426168e+01	2.755823e+02
1.260000e-06	2.093258e-06	4.329436e-09	1.451947e+01	2.822958e+02
1.270000e-06	2.129929e-06	4.424168e-09	1.477383e+01	2.884896e+02
1.280000e-06	2.166043e-06	4.511676e-09	1.502433e+01	2.942203e+02
1.290000e-06	2.201300e-06	4.591655e-09	1.526888e+01	2.995535e+02
1.300000e-06	2.235499e-06	4.667477e-09	1.550610e+01	3.045545e+02
1.310000e-06	2.268723e-06	4.738891e-09	1.573655e+01	3.092774e+02
1.320000e-06	2.301187e-06	4.803823e-09	1.596173e+01	3.137575e+02
1.330000e-06	2.332939e-06	4.863330e-09	1.618197e+01	3.180086e+02
1.340000e-06	2.363945e-06	4.920495e-09	1.639704e+01	3.220266e+02
1.350000e-06	2.394130e-06	4.975378e-09	1.660641e+01	3.257987e+02
1.360000e-06	2.423490e-06	5.025720e-09	1.681006e+01	3.293140e+02
1.370000e-06	2.452199e-06	5.072553e-09	1.700920e+01	3.325734e+02
1.380000e-06	2.480170e-06	5.118341e-09	1.720321e+01	3.355933e+02
1.390000e-06	2.507036e-06	5.161810e-09	1.738956e+01	3.384034e+02
1.400000e-06	2.532710e-06	5.198794e-09	1.756765e+01	3.410392e+02
1.410000e-06	2.557433e-06	5.229211e-09	1.773913e+01	3.435323e+02
1.420000e-06	2.581326e-06	5.259441e-09	1.790486e+01	3.459027e+02
1.430000e-06	2.604295e-06	5.292428e-09	1.806418e+01	3.481549e+02
1.440000e-06	2.626385e-06	5.324901e-09	1.821740e+01	3.502807e+02
1.450000e-06	2.647699e-06	5.353435e-09	1.836524e+01	3.522667e+02
1.460000e-06	2.668293e-06	5.378772e-09	1.850809e+01	3.541029e+02
1.470000e-06	2.688051e-06	5.403807e-09	1.864514e+01	3.557898e+02
1.480000e-06	2.706739e-06	5.427284e-09	1.877476e+01	3.573405e+02
1.490000e-06	2.724418e-06	5.448013e-09	1.889739e+01	3.587775e+02
1.500000e-06	2.741163e-06	5.467216e-09	1.901354e+01	3.601246e+02
1.510000e-06	2.756862e-06	5.485155e-09	1.912243e+01	3.613988e+02
1.520000e-06	2.771488e-06	5.502741e-09	1.922388e+01	3.626039e+02
1.530000e-06	2.785090e-06	5.517986e-09	1.931823e+01	3.637302e+02
1.540000e-06	2.797701e-06	5.531090e-09	1.940570e+01	3.647593e+02
1.550000e-06	2.809124e-06	5.545453e-09	1.948494e+01	3.656725e+02
1.560000e-06	2.819187e-06	5.560633e-09	1.955473e+01	3.664598e+02
1.570000e-06	2.828165e-06	5.572910e-09	1.961701e+01	3.671253e+02
1.580000e-06	2.836281e-06	5.580667e-09	1.967331e+01	3.676875e+02
1.590000e-06	2.843486e-06	5.586725e-09	1.972328e+01	3.681729e+02
1.600000e-06	2.849708e-06	5.592884e-09	1.976644e+01	3.686069e+02
1.610000e-06	2.854979e-06	5.597100e-09	1.980300e+01	3.690049e+02
1.620000e-06	2.859406e-06	5.599084e-09	1.983371e+01	3.693668e+02
1.630000e-06	2.862744e-06	5.603887e-09	1.985686e+01	3.696776e+02
1.640000e-06	2.864720e-06	5.613157e-09	1.987057e+01	3.699147e+02
1.650000e-06	2.865694e-06	5.619876e-09	1.987732e+01	3.700567e+02
1.660000e-06	2.865864e-06	5.620481e-09	1.987850e+01	3.700930e+02
1.670000e-06	2.865117e-06	5.617561e-09	1.987332e+01	3.700286e+02
1.680000e-06	2.863462e-06	5.612792e-09	1.986184e+01	3.698815e+02
1.690000e-06	2.860917e-06	5.609027e-09	1.984419e+01	3.696762e+02
1.700000e-06	2.857623e-06	5.604089e-09	1.982134e+01	3.694332e+02
1.710000e-06	2.853469e-06	5.598082e-09	1.979253e+01	3.691600e+02
1.720000e-06	2.848134e-06	5.601733e-09	1.975552e+01	3.688478e+02
1.730000e-06	2.841675e-06	5.629103e-09	1.971072e+01	3.684749e+02
1.740000e-06	2.834378e-06	5.606400e-09	1.966011e+01	3.680155e+02
1.750000e-06	2.826046e-06	5.482190e-09	1.960231e+01	3.674518e+02
1.760000e-06	2.816209e-06	5.444008e-09	1.953408e+01	3.667836e+02
1.770000e-06	2.804900e-06	5.632672e-09	1.945564e+01	3.660314e+02
1.780000e-06	2.793015e-06	5.684009e-09	1.937320e+01	3.652325e+02
1.790000e-06	2.780996e-06	5.448434e-09	1.928983e+01	3.644293e+02
1.800000e-06	2.767797e-06	5.387230e-09	1.919828e+01	3.636553e+02
1.810000e-06	2.752906e-06	5.635615e-09	1.909499e+01	3.629229e+02
1.820000e-06	2.737208e-06	5.540719e-09	1.898610e+01	3.622175e+02
1.830000e-06	2.720874e-06	5.285161e-09	1.887281e+01	3.615004e+02
1.840000e-06	2.703214e-06	5.515606e-09	1.875031e+01	3.607204e+02
1.850000e-06	2.684455e-06	5.613573e-09	1.862019e+01	3.598283e+02
1.860000e-06	2.665101e-06	5.305421e-09	1.848595e+01	3.587919e+02
1.870000e-06	2.644772e-06	5.403349e-09	1.834494e+01	3.576043e+02
1.880000e-06	2.623173e-06	5.595433e-09	1.819512e+01	3.562846e+02
1.890000e-06	2.600597e-06	5.278484e-09	1.803853e+01	3.548693e+02
1.900000e-06	2.577072e-06	5.235181e-09	1.787536e+01	3.533997e+02
1.910000e-06	2.552599e-06	5.469257e-09	1.770560e+01	3.519076e+02
1.920000e-06	2.527448e-06	5.340325e-09	1.753115e+01	3.504062e+02
1.930000e-06	2.501472e-06	5.239817e-09	1.735097e+01	3.488872e+02
1.940000e-06	2.474642e-06	5.320628e-09	1.716487e+01	3.473269e+02
1.950000e-06	2.447200e-06	5.242183e-09	1.697452e+01	3.456954e+02
1.960000e-06	2.418778e-06	5.228161e-09	1.677738e+01	3.439693e+02
1.970000e-06	2.389069e-06	5.189682e-09	1.657131e+01	3.421393e+02
1.980000e-06	2.358405e-06	5.087485e-09	1.635861e+01	3.402132e+02
1.990000e-06	2.327026e-06	5.186053e-09	1.614096e+01	3.382121e+02
2.000000e-06	2.294953e-06	5.144084e-09	1.591849e+01	3.361619e+02
2.010000e-06	2.262114e-06	5.010346e-09	1.569071e+01	3.340837e+02
2.020000e-06	2.228370e-06	5.090825e-09	1.545665e+01	3.319858e+02
2.030000e-06	2.193931e-06	5.008513e-09	1.521777e+01	3.298617e+02
2.040000e-06	2.158928e-06	4.903910e-09	1.497498e+01	3.276932e+02
2.050000e-06	2.123258e-06	5.007749e-09	1.472756e+01	3.254568e+02
2.060000e-06	2.086812e-06	4.912854e-09	1.447476e+01	3.231331e+02
2.070000e-06	2.049322e-06	4.810048e-09	1.421472e+01	3.207127e+02
2.080000e-06	2.010785e-06	4.868427e-09	1.394742e+01	3.181998e+02
2.090000e-06	1.971587e-06	4.804534e-09	1.367552e+01	3.156091e+02
2.100000e-06	1.931859e-06	4.739811e-09	1.339996e+01	3.129608e+02
2.110000e-06	1.891471e-06	4.715437e-09	1.311982e+01	3.102727e+02
2.120000e-06	1.850445e-06	4.658414e-09	1.283525e+01	3.075545e+02
2.130000e-06	1.808837e-06	4.642729e-09	1.254664e+01	3.048041e+02
2.140000e-06	1.766629e-06	4.588107e-09	1.225388e+01	3.020095e+02
2.150000e-06	1.723861e-06	4.525936e-09	1.195722e+01	2.991528e+02
2.160000e-06	1.680636e-06	4.503231e-09	1.165740e+01	2.962165e+02
2.170000e-06	1.636959e-06	4.455664e-09	1.135445e+01	2.931888e+02
2.180000e-06	1.592671e-06	4.416193e-09	1.104725e+01	2.900675e+02
2.190000e-06	1.547687e-06	4.364448e-09	1.073523e+01	2.868588e+02
2.200000e-06	1.502062e-06	4.299075e-09	1.041876e+01	2.835753e+02
2.210000e-06	1.455989e-06	4.257656e-09	1.009918e+01	2.802299e+02
2.220000e-06	1.409578e-06	4.211112e-09	9.777262e+00	2.768314e+02
2.230000e-06	1.362603e-06	4.165447e-09	9.451431e+00	2.733809e+02
2.240000e-06	1.315031e-06	4.100972e-09	9.121455e+00	2.698708e+02
2.250000e-06	1.266930e-06	4.042994e-09	8.787809e+00	2.662867e+02
2.260000e-06	1.218272e-06	4.009304e-09	8.450302e+00	2.626118e+02
2.270000e-06	1.169211e-06	3.940592e-09	8.109999e+00	2.588313e+02
2.280000e-06	1.119790e-06	3.871021e-09	7.767201e+00	2.549363e+02
2.290000e-06	1.069969e-06	3.818598e-09	7.421631e+00	2.509265e+02
2.300000e-06	1.019670e-06	3.760633e-09	7.072741e+00	2.468091e+02
2.310000e-06	9.689253e-07	3.705082e-09	6.720760e+00	2.425969e+02
2.320000e-06	9.179415e-07	3.634899e-09	6.367120e+00	2.383040e+02
2.330000e-06	8.667172e-07	3.561627e-09	6.011813e+00	2.339418e+02
2.340000e-06	8.151636e-07	3.497294e-09	5.654222e+00	2.295161e+02
2.350000e-06	7.632113e-07	3.428685e-09	5.293865e+00	2.250255e+02
2.360000e-06	7.108240e-07	3.364092e-09	4.930491e+00	2.204624e+02
2.370000e-06	6.580472e-07	3.291401e-09	4.564415e+00	2.158156e+02
2.380000e-06	6.048190e-07	3.217991e-09	4.195208e+00	2.110735e+02
2.390000e-06	5.511862e-07	3.151360e-09	3.823195e+00	2.062269e+02
2.400000e-06	4.972517e-07	3.075007e-09	3.449089e+00	2.012710e+02
2.410000e-06	4.430662e-07	2.996190e-09	3.073241e+00	1.962046e+02
2.420000e-06	3.887049e-07	2.916392e-09	2.696175e+00	1.910289e+02
2.430000e-06	3.341199e-07	2.840040e-09	2.317557e+00	1.857446e+02
2.440000e-06	2.794026e-07	2.763769e-09	1.938021e+00	1.803494e+02
2.450000e-06	2.246270e-07	2.675745e-09	1.558081e+00	1.748371e+02
2.460000e-06	1.697838e-07	2.587350e-09	1.177672e+00	1.691981e+02
2.470000e-06	1.149147e-07	2.503524e-09	7.970830e-01	1.634213e+02
2.480000e-06	6.002960e-08	2.418186e-09	4.163835e-01	1.574971e+02
2.490000e-06	5.126188e-09	2.328122e-09	3.555679e-02	1.514200e+02
2.500000e-06	-4.979284e-08	2.232339e-09	-3.453782e-01	1.451897e+02
2.510000e-06	-1.047418e-07	2.138369e-09	-7.265209e-01	1.388094e+02
2.520000e-06	-1.596900e-07	2.043231e-09	-1.107658e+00	1.322833e+02
2.530000e-06	-2.145994e-07	1.938105e-09	-1.488526e+00	1.256123e+02
2.540000e-06	-2.694649e-07	1.828833e-09	-1.869090e+00	1.187905e+02
2.550000e-06	-3.242204e-07	1.722095e-09	-2.248891e+00	1.118037e+02
2.560000e-06	-3.788269e-07	1.619090e-09	-2.627658e+00	1.046302e+02
2.570000e-06	-4.332318e-07	1.511128e-09	-3.005027e+00	9.724442e+01
2.580000e-06	-4.874288e-07	1.395434e-09	-3.380954e+00	8.962129e+01
2.590000e-06	-5.413155e-07	1.278556e-09	-3.754729e+00	8.174088e+01
2.600000e-06	-5.948576e-07	1.157300e-09	-4.126113e+00	7.359063e+01
2.610000e-06	-6.481152e-07	1.027461e-09	-4.495524e+00	6.516483e+01
2.620000e-06	-7.009609e-07	8.892976e-10	-4.862077e+00	5.646133e+01
2.630000e-06	-7.532653e-07	7.489030e-10	-5.224876e+00	4.747660e+01
2.640000e-06	-8.051082e-07	6.117133e-10	-5.584475e+00	3.820098e+01
2.650000e-06	-8.566630e-07	4.746186e-10	-5.942074e+00	2.861598e+01
2.660000e-06	-9.079222e-07	3.290611e-10	-6.297624e+00	1.869454e+01
2.670000e-06	-9.588771e-07	1.719579e-10	-6.651062e+00	8.404468e+00
2.680000e-06	-1.009573e-06	7.547749e-12	-7.002701e+00	-2.286073e+00
2.690000e-06	-1.059903e-06	-1.619812e-10	-7.351807e+00	-1.340262e+01
2.700000e-06	-1.109798e-06	-3.382273e-10	-7.697897e+00	-2.495960e+01
2.710000e-06	-1.159293e-06	-5.234893e-10	-8.041209e+00	-3.695766e+01
2.720000e-06	-1.208386e-06	-7.149018e-10	-8.381734e+00	-4.938296e+01
2.730000e-06	-1.256996e-06	-9.092446e-10	-8.718902e+00	-6.220779e+01
2.740000e-06	-1.304974e-06	-1.106886e-09	-9.051694e+00	-7.539108e+01
2.750000e-06	-1.352191e-06	-1.311051e-09	-9.379209e+00	-8.887796e+01
2.760000e-06	-1.398655e-06	-1.521863e-09	-9.701495e+00	-1.025983e+02
2.770000e-06	-1.444557e-06	-1.733813e-09	-1.001989e+01	-1.164653e+02
2.780000e-06	-1.490077e-06	-1.946089e-09	-1.033562e+01	-1.303751e+02
2.790000e-06	-1.535265e-06	-2.160385e-09	-1.064906e+01	-1.442095e+02
2.800000e-06	-1.580005e-06	-2.373639e-09	-1.095940e+01	-1.578427e+02
2.810000e-06	-1.624160e-06	-2.578528e-09	-1.126566e+01	-1.711506e+02
2.820000e-06	-1.667741e-06	-2.772813e-09	-1.156796e+01	-1.840214e+02
2.830000e-06	-1.710882e-06	-2.959006e-09	-1.186720e+01	-1.963652e+02
2.840000e-06	-1.753615e-06	-3.137520e-09	-1.216360e+01	-2.081191e+02
2.850000e-06	-1.795793e-06	-3.307486e-09	-1.245617e+01	-2.192473e+02
2.860000e-06	-1.837331e-06	-3.468418e-09	-1.274429e+01	-2.297366e+02
2.870000e-06	-1.878287e-06	-3.621121e-09	-1.302837e+01	-2.395882e+02
2.880000e-06	-1.918619e-06	-3.766155e-09	-1.330812e+01	-2.488104e+02
2.890000e-06	-1.958270e-06	-3.902291e-09	-1.358315e+01	-2.574129e+02
2.900000e-06	-1.997437e-06	-4.027939e-09	-1.385483e+01	-2.654065e+02
2.910000e-06	-2.036112e-06	-4.142304e-09	-1.412309e+01	-2.728063e+02
2.920000e-06	-2.073918e-06	-4.245737e-09	-1.438532e+01	-2.796372e+02
2.930000e-06	-2.110618e-06	-4.340137e-09	-1.463989e+01	-2.859381e+02
2.940000e-06	-2.146367e-06	-4.429350e-09	-1.488785e+01	-2.917627e+02
