# Temperatura_=_31.32
# Concentracion g/m^3_=_13400.0
# C_Vs_to_Am_M_A/Vsm_=_65563218390.804596
# pendiente_HvsI_1/m_=_3716.3
# ordenada_HvsI_A/m_=_1297.0
# frecuencia_Hz_=_300848.0538499292

Tiempo_(s)	Campo_(V.s)	Magnetizacion_(V.s)	Campo_(kA/m)	Magnetizacion_(A/m)
0.000000e+00	-2.854472e-06	-5.778911e-09	-1.980114e+01	-3.783387e+02
1.000000e-08	-2.853405e-06	-5.779785e-09	-1.979374e+01	-3.781311e+02
2.000000e-08	-2.851250e-06	-5.778394e-09	-1.977879e+01	-3.779077e+02
3.000000e-08	-2.847845e-06	-5.775858e-09	-1.975517e+01	-3.776842e+02
4.000000e-08	-2.843486e-06	-5.771817e-09	-1.972493e+01	-3.774503e+02
5.000000e-08	-2.838304e-06	-5.762114e-09	-1.968898e+01	-3.771735e+02
6.000000e-08	-2.832239e-06	-5.738661e-09	-1.964691e+01	-3.768123e+02
7.000000e-08	-2.825260e-06	-5.729186e-09	-1.959850e+01	-3.763329e+02
8.000000e-08	-2.817232e-06	-5.785181e-09	-1.954281e+01	-3.757233e+02
9.000000e-08	-2.807936e-06	-5.844484e-09	-1.947833e+01	-3.750000e+02
1.000000e-07	-2.797174e-06	-5.744146e-09	-1.940367e+01	-3.742029e+02
1.100000e-07	-2.785299e-06	-5.580745e-09	-1.932129e+01	-3.733821e+02
1.200000e-07	-2.772709e-06	-5.661353e-09	-1.923396e+01	-3.725797e+02
1.300000e-07	-2.759215e-06	-5.816494e-09	-1.914035e+01	-3.718150e+02
1.400000e-07	-2.744724e-06	-5.665277e-09	-1.903983e+01	-3.710773e+02
1.500000e-07	-2.729225e-06	-5.556286e-09	-1.893232e+01	-3.703297e+02
1.600000e-07	-2.712408e-06	-5.764028e-09	-1.881566e+01	-3.695226e+02
1.700000e-07	-2.694318e-06	-5.739058e-09	-1.869017e+01	-3.686109e+02
1.800000e-07	-2.675505e-06	-5.527720e-09	-1.855967e+01	-3.675695e+02
1.900000e-07	-2.656033e-06	-5.632879e-09	-1.842459e+01	-3.664013e+02
2.000000e-07	-2.635643e-06	-5.674843e-09	-1.828315e+01	-3.651338e+02
2.100000e-07	-2.614435e-06	-5.470682e-09	-1.813603e+01	-3.638081e+02
2.200000e-07	-2.592435e-06	-5.537521e-09	-1.798342e+01	-3.624623e+02
2.300000e-07	-2.569427e-06	-5.670285e-09	-1.782381e+01	-3.611175e+02
2.400000e-07	-2.545489e-06	-5.503653e-09	-1.765776e+01	-3.597707e+02
2.500000e-07	-2.520851e-06	-5.427398e-09	-1.748685e+01	-3.583966e+02
2.600000e-07	-2.495337e-06	-5.505338e-09	-1.730986e+01	-3.569584e+02
2.700000e-07	-2.468685e-06	-5.458325e-09	-1.712498e+01	-3.554219e+02
2.800000e-07	-2.440977e-06	-5.401285e-09	-1.693277e+01	-3.537682e+02
2.900000e-07	-2.412349e-06	-5.392537e-09	-1.673418e+01	-3.520000e+02
3.000000e-07	-2.382936e-06	-5.374499e-09	-1.653015e+01	-3.501396e+02
3.100000e-07	-2.352828e-06	-5.388045e-09	-1.632129e+01	-3.482200e+02
3.200000e-07	-2.321937e-06	-5.326397e-09	-1.610701e+01	-3.462720e+02
3.300000e-07	-2.290234e-06	-5.251225e-09	-1.588708e+01	-3.443138e+02
3.400000e-07	-2.257904e-06	-5.265886e-09	-1.566282e+01	-3.423452e+02
3.500000e-07	-2.225035e-06	-5.219673e-09	-1.543481e+01	-3.403498e+02
3.600000e-07	-2.191235e-06	-5.180122e-09	-1.520034e+01	-3.383026e+02
3.700000e-07	-2.156205e-06	-5.204978e-09	-1.495734e+01	-3.361801e+02
3.800000e-07	-2.120198e-06	-5.122617e-09	-1.470757e+01	-3.339693e+02
3.900000e-07	-2.083563e-06	-5.051862e-09	-1.445343e+01	-3.316709e+02
4.000000e-07	-2.046340e-06	-5.086800e-09	-1.419522e+01	-3.292971e+02
4.100000e-07	-2.008395e-06	-5.038844e-09	-1.393200e+01	-3.268650e+02
4.200000e-07	-1.969704e-06	-4.948783e-09	-1.366361e+01	-3.243885e+02
4.300000e-07	-1.930296e-06	-4.933811e-09	-1.339024e+01	-3.218716e+02
4.400000e-07	-1.890242e-06	-4.913329e-09	-1.311239e+01	-3.193073e+02
4.500000e-07	-1.849756e-06	-4.864906e-09	-1.283154e+01	-3.166807e+02
4.600000e-07	-1.808863e-06	-4.818741e-09	-1.254787e+01	-3.139753e+02
4.700000e-07	-1.767223e-06	-4.767725e-09	-1.225902e+01	-3.111799e+02
4.800000e-07	-1.724537e-06	-4.728455e-09	-1.196291e+01	-3.082933e+02
4.900000e-07	-1.680853e-06	-4.698777e-09	-1.165988e+01	-3.053243e+02
5.000000e-07	-1.636540e-06	-4.647695e-09	-1.135248e+01	-3.022875e+02
5.100000e-07	-1.591870e-06	-4.584233e-09	-1.104261e+01	-2.991970e+02
5.200000e-07	-1.546786e-06	-4.535560e-09	-1.072988e+01	-2.960601e+02
5.300000e-07	-1.501176e-06	-4.498130e-09	-1.041348e+01	-2.928739e+02
5.400000e-07	-1.455012e-06	-4.457638e-09	-1.009325e+01	-2.896258e+02
5.500000e-07	-1.408287e-06	-4.399564e-09	-9.769123e+00	-2.862976e+02
5.600000e-07	-1.360979e-06	-4.333136e-09	-9.440953e+00	-2.828716e+02
5.700000e-07	-1.313186e-06	-4.284028e-09	-9.109419e+00	-2.793358e+02
5.800000e-07	-1.265036e-06	-4.239022e-09	-8.775404e+00	-2.756872e+02
5.900000e-07	-1.216557e-06	-4.171856e-09	-8.439112e+00	-2.719312e+02
6.000000e-07	-1.167696e-06	-4.104288e-09	-8.100174e+00	-2.680784e+02
6.100000e-07	-1.118347e-06	-4.052319e-09	-7.757844e+00	-2.641400e+02
6.200000e-07	-1.068307e-06	-3.997222e-09	-7.410724e+00	-2.601242e+02
6.300000e-07	-1.017551e-06	-3.928681e-09	-7.058635e+00	-2.560342e+02
6.400000e-07	-9.662613e-07	-3.854727e-09	-6.702842e+00	-2.518691e+02
6.500000e-07	-9.145063e-07	-3.788320e-09	-6.343824e+00	-2.476256e+02
6.600000e-07	-8.624212e-07	-3.729696e-09	-5.982515e+00	-2.433010e+02
6.700000e-07	-8.101110e-07	-3.666077e-09	-5.619646e+00	-2.388945e+02
6.800000e-07	-7.575629e-07	-3.591683e-09	-5.255126e+00	-2.344067e+02
6.900000e-07	-7.046754e-07	-3.516935e-09	-4.888251e+00	-2.298380e+02
7.000000e-07	-6.514552e-07	-3.449029e-09	-4.519069e+00	-2.251862e+02
7.100000e-07	-5.980428e-07	-3.379930e-09	-4.148553e+00	-2.204448e+02
7.200000e-07	-5.444403e-07	-3.299686e-09	-3.776719e+00	-2.156036e+02
7.300000e-07	-4.906375e-07	-3.214715e-09	-3.403495e+00	-2.106504e+02
7.400000e-07	-4.366334e-07	-3.138500e-09	-3.028875e+00	-2.055740e+02
7.500000e-07	-3.824490e-07	-3.067238e-09	-2.653004e+00	-2.003678e+02
7.600000e-07	-3.281657e-07	-2.985833e-09	-2.276447e+00	-1.950307e+02
7.700000e-07	-2.738319e-07	-2.893493e-09	-1.899540e+00	-1.895668e+02
7.800000e-07	-2.194575e-07	-2.805653e-09	-1.522351e+00	-1.839824e+02
7.900000e-07	-1.649973e-07	-2.725369e-09	-1.144567e+00	-1.782823e+02
8.000000e-07	-1.104628e-07	-2.637952e-09	-7.662677e-01	-1.724665e+02
8.100000e-07	-5.589611e-08	-2.538386e-09	-3.877448e-01	-1.665286e+02
8.200000e-07	-1.327930e-09	-2.437954e-09	-9.211698e-03	-1.604565e+02
8.300000e-07	5.321352e-08	-2.344562e-09	3.691360e-01	-1.542342e+02
8.400000e-07	1.077492e-07	-2.251697e-09	7.474435e-01	-1.478458e+02
8.500000e-07	1.622602e-07	-2.150007e-09	1.125580e+00	-1.412773e+02
8.600000e-07	2.167146e-07	-2.041808e-09	1.503324e+00	-1.345183e+02
8.700000e-07	2.711387e-07	-1.935456e-09	1.880857e+00	-1.275609e+02
8.800000e-07	3.255021e-07	-1.828750e-09	2.257970e+00	-1.203976e+02
8.900000e-07	3.797568e-07	-1.713225e-09	2.634329e+00	-1.130188e+02
9.000000e-07	4.339116e-07	-1.588781e-09	3.009994e+00	-1.054112e+02
9.100000e-07	4.878886e-07	-1.464437e-09	3.384426e+00	-9.755722e+01
9.200000e-07	5.416569e-07	-1.342975e-09	3.757410e+00	-8.943643e+01
9.300000e-07	5.952037e-07	-1.216725e-09	4.128859e+00	-8.102721e+01
9.400000e-07	6.485437e-07	-1.081230e-09	4.498872e+00	-7.230874e+01
9.500000e-07	7.016226e-07	-9.398114e-10	4.867074e+00	-6.326176e+01
9.600000e-07	7.543746e-07	-7.971783e-10	5.233009e+00	-5.386801e+01
9.700000e-07	8.068848e-07	-6.482736e-10	5.597266e+00	-4.410862e+01
9.800000e-07	8.591366e-07	-4.879968e-10	5.959731e+00	-3.396209e+01
9.900000e-07	9.110482e-07	-3.213284e-10	6.319835e+00	-2.340304e+01
1.000000e-06	9.625872e-07	-1.523052e-10	6.677355e+00	-1.240243e+01
1.010000e-06	1.013636e-06	2.156613e-11	7.031474e+00	-9.295732e-01
1.020000e-06	1.063986e-06	2.037533e-10	7.380747e+00	1.104404e+01
1.030000e-06	1.113655e-06	3.936292e-10	7.725298e+00	2.353985e+01
1.040000e-06	1.162813e-06	5.921293e-10	8.066298e+00	3.656687e+01
1.050000e-06	1.211592e-06	8.002898e-10	8.404676e+00	5.011649e+01
1.060000e-06	1.260047e-06	1.016353e-09	8.740796e+00	6.415810e+01
1.070000e-06	1.308173e-06	1.238595e-09	9.074645e+00	7.863590e+01
1.080000e-06	1.355889e-06	1.465279e-09	9.405646e+00	9.346740e+01
1.090000e-06	1.403087e-06	1.692582e-09	9.733049e+00	1.085441e+02
1.100000e-06	1.449787e-06	1.920747e-09	1.005701e+01	1.237351e+02
1.110000e-06	1.495995e-06	2.150942e-09	1.037755e+01	1.388936e+02
1.120000e-06	1.541652e-06	2.378784e-09	1.069426e+01	1.538661e+02
1.130000e-06	1.586752e-06	2.600065e-09	1.100712e+01	1.685034e+02
1.140000e-06	1.631415e-06	2.814449e-09	1.131694e+01	1.826717e+02
1.150000e-06	1.675733e-06	3.020794e-09	1.162437e+01	1.962611e+02
1.160000e-06	1.719583e-06	3.214435e-09	1.192855e+01	2.091906e+02
1.170000e-06	1.762695e-06	3.396433e-09	1.222761e+01	2.214084e+02
1.180000e-06	1.804837e-06	3.569714e-09	1.251994e+01	2.328881e+02
1.190000e-06	1.846072e-06	3.732899e-09	1.280599e+01	2.436226e+02
1.200000e-06	1.886706e-06	3.884276e-09	1.308786e+01	2.536171e+02
1.210000e-06	1.926851e-06	4.024517e-09	1.336634e+01	2.628852e+02
1.220000e-06	1.966362e-06	4.153860e-09	1.364042e+01	2.714477e+02
1.230000e-06	2.005186e-06	4.271859e-09	1.390974e+01	2.793340e+02
1.240000e-06	2.043302e-06	4.378818e-09	1.417415e+01	2.865855e+02
1.250000e-06	2.080659e-06	4.476844e-09	1.443329e+01	2.932564e+02
1.260000e-06	2.117407e-06	4.569050e-09	1.468821e+01	2.994123e+02
1.270000e-06	2.153684e-06	4.654992e-09	1.493985e+01	3.051245e+02
1.280000e-06	2.189253e-06	4.734139e-09	1.518659e+01	3.104609e+02
1.290000e-06	2.223761e-06	4.809354e-09	1.542597e+01	3.154766e+02
1.300000e-06	2.257202e-06	4.881028e-09	1.565794e+01	3.202079e+02
1.310000e-06	2.289879e-06	4.947822e-09	1.588462e+01	3.246706e+02
1.320000e-06	2.321918e-06	5.009258e-09	1.610687e+01	3.288652e+02
1.330000e-06	2.353179e-06	5.066543e-09	1.632373e+01	3.327859e+02
1.340000e-06	2.383605e-06	5.119097e-09	1.653479e+01	3.364314e+02
1.350000e-06	2.413212e-06	5.166163e-09	1.674017e+01	3.398129e+02
1.360000e-06	2.442092e-06	5.210158e-09	1.694051e+01	3.429565e+02
1.370000e-06	2.470307e-06	5.252679e-09	1.713623e+01	3.458988e+02
1.380000e-06	2.497588e-06	5.294396e-09	1.732548e+01	3.486780e+02
1.390000e-06	2.523649e-06	5.334636e-09	1.750626e+01	3.513233e+02
1.400000e-06	2.548635e-06	5.371217e-09	1.767958e+01	3.538471e+02
1.410000e-06	2.572806e-06	5.403578e-09	1.784726e+01	3.562438e+02
1.420000e-06	2.596171e-06	5.435709e-09	1.800934e+01	3.584952e+02
1.430000e-06	2.618604e-06	5.468028e-09	1.816495e+01	3.605810e+02
1.440000e-06	2.640105e-06	5.495134e-09	1.831410e+01	3.624904e+02
1.450000e-06	2.660829e-06	5.517766e-09	1.845786e+01	3.642297e+02
1.460000e-06	2.680812e-06	5.542392e-09	1.859648e+01	3.658234e+02
1.470000e-06	2.699905e-06	5.569150e-09	1.872893e+01	3.673077e+02
1.480000e-06	2.718005e-06	5.592568e-09	1.885448e+01	3.687184e+02
1.490000e-06	2.735110e-06	5.611007e-09	1.897314e+01	3.700788e+02
1.500000e-06	2.751178e-06	5.628597e-09	1.908460e+01	3.713916e+02
1.510000e-06	2.766176e-06	5.648334e-09	1.918864e+01	3.726387e+02
1.520000e-06	2.780156e-06	5.665676e-09	1.928562e+01	3.737891e+02
1.530000e-06	2.793140e-06	5.676691e-09	1.937569e+01	3.748116e+02
1.540000e-06	2.805013e-06	5.687219e-09	1.945804e+01	3.756884e+02
1.550000e-06	2.815548e-06	5.701894e-09	1.953113e+01	3.764237e+02
1.560000e-06	2.824853e-06	5.717108e-09	1.959567e+01	3.770427e+02
1.570000e-06	2.833182e-06	5.727679e-09	1.965346e+01	3.775836e+02
1.580000e-06	2.840601e-06	5.733824e-09	1.970492e+01	3.780836e+02
1.590000e-06	2.847088e-06	5.740953e-09	1.974992e+01	3.785646e+02
1.600000e-06	2.852602e-06	5.748506e-09	1.978817e+01	3.790251e+02
1.610000e-06	2.857302e-06	5.751490e-09	1.982077e+01	3.794415e+02
1.620000e-06	2.861112e-06	5.751821e-09	1.984720e+01	3.797769e+02
1.630000e-06	2.863720e-06	5.754958e-09	1.986529e+01	3.799964e+02
1.640000e-06	2.865153e-06	5.762111e-09	1.987523e+01	3.800816e+02
1.650000e-06	2.865624e-06	5.767081e-09	1.987850e+01	3.800381e+02
1.660000e-06	2.865198e-06	5.765096e-09	1.987554e+01	3.798947e+02
1.670000e-06	2.863877e-06	5.759037e-09	1.986638e+01	3.796925e+02
1.680000e-06	2.861648e-06	5.754504e-09	1.985092e+01	3.794694e+02
1.690000e-06	2.858612e-06	5.750972e-09	1.982986e+01	3.792452e+02
1.700000e-06	2.854826e-06	5.744521e-09	1.980359e+01	3.790144e+02
1.710000e-06	2.849971e-06	5.742875e-09	1.976991e+01	3.787475e+02
1.720000e-06	2.843869e-06	5.763114e-09	1.972758e+01	3.784036e+02
1.730000e-06	2.836809e-06	5.750093e-09	1.967862e+01	3.779462e+02
1.740000e-06	2.828871e-06	5.650396e-09	1.962355e+01	3.773588e+02
1.750000e-06	2.819567e-06	5.601160e-09	1.955900e+01	3.766527e+02
1.760000e-06	2.808669e-06	5.736161e-09	1.948341e+01	3.758644e+02
1.770000e-06	2.796954e-06	5.811203e-09	1.940214e+01	3.750436e+02
1.780000e-06	2.785128e-06	5.628061e-09	1.932011e+01	3.742350e+02
1.790000e-06	2.772394e-06	5.539274e-09	1.923178e+01	3.734627e+02
1.800000e-06	2.757962e-06	5.724061e-09	1.913166e+01	3.727216e+02
1.810000e-06	2.742462e-06	5.695483e-09	1.902414e+01	3.719785e+02
1.820000e-06	2.726352e-06	5.497029e-09	1.891239e+01	3.711850e+02
1.830000e-06	2.709089e-06	5.647305e-09	1.879263e+01	3.702938e+02
1.840000e-06	2.690594e-06	5.770537e-09	1.866434e+01	3.692756e+02
1.850000e-06	2.671434e-06	5.528082e-09	1.853143e+01	3.681279e+02
1.860000e-06	2.651495e-06	5.546573e-09	1.839311e+01	3.668746e+02
1.870000e-06	2.630291e-06	5.728268e-09	1.824602e+01	3.655554e+02
1.880000e-06	2.608020e-06	5.492485e-09	1.809153e+01	3.642103e+02
1.890000e-06	2.584786e-06	5.395321e-09	1.793036e+01	3.628641e+02
1.900000e-06	2.560529e-06	5.602423e-09	1.776209e+01	3.615182e+02
1.910000e-06	2.535609e-06	5.533868e-09	1.758923e+01	3.601509e+02
1.920000e-06	2.509936e-06	5.415808e-09	1.741113e+01	3.587262e+02
1.930000e-06	2.483326e-06	5.469528e-09	1.722654e+01	3.572085e+02
1.940000e-06	2.456045e-06	5.425371e-09	1.703730e+01	3.555755e+02
1.950000e-06	2.427883e-06	5.400499e-09	1.684194e+01	3.538258e+02
1.960000e-06	2.398424e-06	5.373692e-09	1.663759e+01	3.519789e+02
1.970000e-06	2.367919e-06	5.275158e-09	1.642598e+01	3.500667e+02
1.980000e-06	2.336648e-06	5.330421e-09	1.620906e+01	3.481213e+02
1.990000e-06	2.304729e-06	5.322981e-09	1.598763e+01	3.461636e+02
2.000000e-06	2.272146e-06	5.199174e-09	1.576161e+01	3.441970e+02
2.010000e-06	2.238687e-06	5.237173e-09	1.552951e+01	3.422074e+02
2.020000e-06	2.204475e-06	5.191334e-09	1.529219e+01	3.401706e+02
2.030000e-06	2.169649e-06	5.089215e-09	1.505060e+01	3.380622e+02
2.040000e-06	2.134185e-06	5.158978e-09	1.480460e+01	3.358668e+02
2.050000e-06	2.098043e-06	5.103361e-09	1.455388e+01	3.335827e+02
2.060000e-06	2.060928e-06	4.994829e-09	1.429642e+01	3.312204e+02
2.070000e-06	2.022690e-06	5.026311e-09	1.403116e+01	3.287968e+02
2.080000e-06	1.983649e-06	4.987807e-09	1.376034e+01	3.263268e+02
2.090000e-06	1.944046e-06	4.920119e-09	1.348562e+01	3.238166e+02
2.100000e-06	1.903864e-06	4.894026e-09	1.320688e+01	3.212611e+02
2.110000e-06	1.863080e-06	4.845834e-09	1.292397e+01	3.186462e+02
2.120000e-06	1.821675e-06	4.824458e-09	1.263675e+01	3.159551e+02
2.130000e-06	1.779648e-06	4.778063e-09	1.234521e+01	3.131755e+02
2.140000e-06	1.736976e-06	4.713642e-09	1.204920e+01	3.103041e+02
2.150000e-06	1.693826e-06	4.686071e-09	1.174987e+01	3.073481e+02
2.160000e-06	1.650320e-06	4.645633e-09	1.144808e+01	3.043216e+02
2.170000e-06	1.606308e-06	4.604219e-09	1.114277e+01	3.012391e+02
2.180000e-06	1.561635e-06	4.553321e-09	1.083288e+01	2.981097e+02
2.190000e-06	1.516279e-06	4.489738e-09	1.051825e+01	2.949323e+02
2.200000e-06	1.470351e-06	4.444292e-09	1.019965e+01	2.916958e+02
2.210000e-06	1.424038e-06	4.402283e-09	9.878388e+00	2.883826e+02
2.220000e-06	1.377303e-06	4.357475e-09	9.554193e+00	2.849744e+02
2.230000e-06	1.330005e-06	4.297650e-09	9.226091e+00	2.814580e+02
2.240000e-06	1.282119e-06	4.239859e-09	8.893911e+00	2.778287e+02
2.250000e-06	1.233669e-06	4.200699e-09	8.557819e+00	2.740905e+02
2.260000e-06	1.184752e-06	4.133847e-09	8.218486e+00	2.702534e+02
2.270000e-06	1.135450e-06	4.059450e-09	7.876484e+00	2.663288e+02
2.280000e-06	1.085792e-06	4.006084e-09	7.532012e+00	2.623257e+02
2.290000e-06	1.035679e-06	3.951919e-09	7.184385e+00	2.582483e+02
2.300000e-06	9.850972e-07	3.896663e-09	6.833505e+00	2.540961e+02
2.310000e-06	9.341579e-07	3.829496e-09	6.480145e+00	2.498661e+02
2.320000e-06	8.829490e-07	3.758350e-09	6.124914e+00	2.455554e+02
2.330000e-06	8.315055e-07	3.694400e-09	5.768057e+00	2.411628e+02
2.340000e-06	7.797434e-07	3.627060e-09	5.408989e+00	2.366887e+02
2.350000e-06	7.275931e-07	3.559851e-09	5.047229e+00	2.321338e+02
2.360000e-06	6.750739e-07	3.489142e-09	4.682909e+00	2.274964e+02
2.370000e-06	6.221100e-07	3.418626e-09	4.315505e+00	2.227710e+02
2.380000e-06	5.687170e-07	3.349641e-09	3.945123e+00	2.179479e+02
2.390000e-06	5.149700e-07	3.271651e-09	3.572287e+00	2.130148e+02
2.400000e-06	4.609196e-07	3.192736e-09	3.197346e+00	2.079603e+02
2.410000e-06	4.066557e-07	3.116365e-09	2.820923e+00	2.027768e+02
2.420000e-06	3.521882e-07	3.040035e-09	2.443088e+00	1.974622e+02
2.430000e-06	2.975235e-07	2.960472e-09	2.063886e+00	1.920199e+02
2.440000e-06	2.427016e-07	2.870223e-09	1.683593e+00	1.864558e+02
2.450000e-06	1.877689e-07	2.779588e-09	1.302531e+00	1.807754e+02
2.460000e-06	1.328011e-07	2.694887e-09	9.212259e-01	1.749798e+02
2.470000e-06	7.782953e-08	2.608696e-09	5.398944e-01	1.690638e+02
2.480000e-06	2.283892e-08	2.517522e-09	1.584309e-01	1.630160e+02
2.490000e-06	-3.217586e-08	2.423208e-09	-2.232002e-01	1.568211e+02
2.500000e-06	-8.718010e-08	2.332982e-09	-6.047582e-01	1.504627e+02
2.510000e-06	-1.421666e-07	2.240725e-09	-9.861931e-01	1.439266e+02
2.520000e-06	-1.970715e-07	2.135120e-09	-1.367062e+00	1.372015e+02
2.530000e-06	-2.518840e-07	2.021437e-09	-1.747290e+00	1.302793e+02
2.540000e-06	-3.066661e-07	1.911643e-09	-2.127307e+00	1.231527e+02
2.550000e-06	-3.613333e-07	1.807682e-09	-2.506527e+00	1.158125e+02
2.560000e-06	-4.157855e-07	1.697213e-09	-2.884256e+00	1.082462e+02
2.570000e-06	-4.699690e-07	1.576793e-09	-3.260120e+00	1.004370e+02
2.580000e-06	-5.238368e-07	1.455761e-09	-3.633795e+00	9.236471e+01
2.590000e-06	-5.773578e-07	1.334485e-09	-4.005063e+00	8.400786e+01
2.600000e-06	-6.305522e-07	1.205525e-09	-4.374067e+00	7.534536e+01
2.610000e-06	-6.833304e-07	1.065478e-09	-4.740184e+00	6.635767e+01
2.620000e-06	-7.356692e-07	9.181341e-10	-5.103251e+00	5.702648e+01
2.630000e-06	-7.876734e-07	7.701617e-10	-5.463999e+00	4.733314e+01
2.640000e-06	-8.393342e-07	6.229471e-10	-5.822364e+00	3.725677e+01
2.650000e-06	-8.907030e-07	4.694018e-10	-6.178703e+00	2.677272e+01
2.660000e-06	-9.418119e-07	3.058489e-10	-6.533240e+00	1.585249e+01
2.670000e-06	-9.926336e-07	1.337461e-10	-6.885783e+00	4.465463e+00
2.680000e-06	-1.043102e-06	-4.584090e-11	-7.235876e+00	-7.417592e+00
2.690000e-06	-1.093122e-06	-2.337765e-10	-7.582858e+00	-1.981978e+01
2.700000e-06	-1.142701e-06	-4.330684e-10	-7.926786e+00	-3.275271e+01
2.710000e-06	-1.191865e-06	-6.425171e-10	-8.267830e+00	-4.621128e+01
2.720000e-06	-1.240496e-06	-8.581724e-10	-8.605174e+00	-6.016908e+01
2.730000e-06	-1.288432e-06	-1.077128e-09	-8.937704e+00	-7.457499e+01
2.740000e-06	-1.335638e-06	-1.299693e-09	-9.265168e+00	-8.935127e+01
2.750000e-06	-1.382210e-06	-1.527283e-09	-9.588228e+00	-1.043939e+02
2.760000e-06	-1.428283e-06	-1.757560e-09	-9.907834e+00	-1.195757e+02
2.770000e-06	-1.473965e-06	-1.987387e-09	-1.022472e+01	-1.347519e+02
2.780000e-06	-1.519312e-06	-2.217426e-09	-1.053929e+01	-1.497695e+02
2.790000e-06	-1.564249e-06	-2.448252e-09	-1.085101e+01	-1.644778e+02
2.800000e-06	-1.608583e-06	-2.673956e-09	-1.115855e+01	-1.787394e+02
2.810000e-06	-1.652322e-06	-2.886694e-09	-1.146196e+01	-1.924397e+02
2.820000e-06	-1.695669e-06	-3.084751e-09	-1.176266e+01	-2.054923e+02
2.830000e-06	-1.738691e-06	-3.270425e-09	-1.206110e+01	-2.178405e+02
2.840000e-06	-1.781167e-06	-3.446286e-09	-1.235575e+01	-2.294537e+02
2.850000e-06	-1.822945e-06	-3.612696e-09	-1.264556e+01	-2.403219e+02
2.860000e-06	-1.864107e-06	-3.768536e-09	-1.293109e+01	-2.504484e+02
2.870000e-06	-1.904617e-06	-3.915538e-09	-1.321210e+01	-2.598457e+02
2.880000e-06	-1.944497e-06	-4.055011e-09	-1.348875e+01	-2.685330e+02
2.890000e-06	-1.983846e-06	-4.183682e-09	-1.376171e+01	-2.765382e+02
2.900000e-06	-2.022587e-06	-4.298897e-09	-1.403045e+01	-2.839001e+02
2.910000e-06	-2.060550e-06	-4.400470e-09	-1.429379e+01	-2.906708e+02
2.920000e-06	-2.097553e-06	-4.492299e-09	-1.455048e+01	-2.969143e+02
2.930000e-06	-2.133604e-06	-4.581874e-09	-1.480056e+01	-3.027012e+02
2.940000e-06	-2.168937e-06	-4.669102e-09	-1.504566e+01	-3.081009e+02
