# Temperatura_=_24.84
# Concentracion g/m^3_=_13400.0
# C_Vs_to_Am_M_A/Vsm_=_65563218390.804596
# pendiente_HvsI_1/m_=_3716.3
# ordenada_HvsI_A/m_=_1297.0
# frecuencia_Hz_=_300844.0076233906

Tiempo_(s)	Campo_(V.s)	Magnetizacion_(V.s)	Campo_(kA/m)	Magnetizacion_(A/m)
0.000000e+00	-2.854919e-06	-5.692427e-09	-1.980468e+01	-3.711259e+02
1.000000e-08	-2.853868e-06	-5.694014e-09	-1.979738e+01	-3.710586e+02
2.000000e-08	-2.851693e-06	-5.689437e-09	-1.978230e+01	-3.709267e+02
3.000000e-08	-2.848237e-06	-5.685311e-09	-1.975833e+01	-3.707283e+02
4.000000e-08	-2.843892e-06	-5.682561e-09	-1.972818e+01	-3.704610e+02
5.000000e-08	-2.838785e-06	-5.674785e-09	-1.969276e+01	-3.701217e+02
6.000000e-08	-2.832740e-06	-5.655110e-09	-1.965083e+01	-3.697069e+02
7.000000e-08	-2.825709e-06	-5.633864e-09	-1.960205e+01	-3.692148e+02
8.000000e-08	-2.817668e-06	-5.693799e-09	-1.954627e+01	-3.686467e+02
9.000000e-08	-2.808413e-06	-5.747297e-09	-1.948207e+01	-3.680098e+02
1.000000e-07	-2.797661e-06	-5.664885e-09	-1.940748e+01	-3.673175e+02
1.100000e-07	-2.785782e-06	-5.480120e-09	-1.932508e+01	-3.665885e+02
1.200000e-07	-2.773182e-06	-5.574397e-09	-1.923766e+01	-3.658434e+02
1.300000e-07	-2.759622e-06	-5.776621e-09	-1.914360e+01	-3.651002e+02
1.400000e-07	-2.745054e-06	-5.536746e-09	-1.904254e+01	-3.643686e+02
1.500000e-07	-2.729528e-06	-5.445035e-09	-1.893484e+01	-3.636461e+02
1.600000e-07	-2.712626e-06	-5.683283e-09	-1.881758e+01	-3.629169e+02
1.700000e-07	-2.694493e-06	-5.628470e-09	-1.869180e+01	-3.621539e+02
1.800000e-07	-2.675725e-06	-5.384200e-09	-1.856161e+01	-3.613240e+02
1.900000e-07	-2.656248e-06	-5.534480e-09	-1.842649e+01	-3.603960e+02
2.000000e-07	-2.635870e-06	-5.593999e-09	-1.828513e+01	-3.593476e+02
2.100000e-07	-2.614678e-06	-5.314537e-09	-1.813812e+01	-3.581711e+02
2.200000e-07	-2.592665e-06	-5.447531e-09	-1.798541e+01	-3.568745e+02
2.300000e-07	-2.569659e-06	-5.594447e-09	-1.782582e+01	-3.554791e+02
2.400000e-07	-2.545743e-06	-5.339174e-09	-1.765991e+01	-3.540131e+02
2.500000e-07	-2.521091e-06	-5.338194e-09	-1.748890e+01	-3.525033e+02
2.600000e-07	-2.495485e-06	-5.439053e-09	-1.731127e+01	-3.509677e+02
2.700000e-07	-2.468738e-06	-5.293370e-09	-1.712572e+01	-3.494112e+02
2.800000e-07	-2.440962e-06	-5.305577e-09	-1.693304e+01	-3.478250e+02
2.900000e-07	-2.412316e-06	-5.299852e-09	-1.673432e+01	-3.461903e+02
3.000000e-07	-2.382927e-06	-5.227885e-09	-1.653045e+01	-3.444852e+02
3.100000e-07	-2.352806e-06	-5.287218e-09	-1.632150e+01	-3.426924e+02
3.200000e-07	-2.321918e-06	-5.253713e-09	-1.610723e+01	-3.408043e+02
3.300000e-07	-2.290215e-06	-5.113105e-09	-1.588731e+01	-3.388258e+02
3.400000e-07	-2.257837e-06	-5.151909e-09	-1.566270e+01	-3.367720e+02
3.500000e-07	-2.224841e-06	-5.142637e-09	-1.543381e+01	-3.346631e+02
3.600000e-07	-2.190958e-06	-5.043787e-09	-1.519875e+01	-3.325176e+02
3.700000e-07	-2.155897e-06	-5.094396e-09	-1.495554e+01	-3.303457e+02
3.800000e-07	-2.119869e-06	-5.034956e-09	-1.470561e+01	-3.281466e+02
3.900000e-07	-2.083281e-06	-4.948246e-09	-1.445180e+01	-3.259090e+02
4.000000e-07	-2.046008e-06	-4.973162e-09	-1.419323e+01	-3.236151e+02
4.100000e-07	-2.007969e-06	-4.941240e-09	-1.392936e+01	-3.212476e+02
4.200000e-07	-1.969224e-06	-4.836937e-09	-1.366058e+01	-3.187948e+02
4.300000e-07	-1.929721e-06	-4.830274e-09	-1.338654e+01	-3.162553e+02
4.400000e-07	-1.889612e-06	-4.819545e-09	-1.310831e+01	-3.136375e+02
4.500000e-07	-1.849119e-06	-4.762112e-09	-1.282740e+01	-3.109559e+02
4.600000e-07	-1.808204e-06	-4.720032e-09	-1.254358e+01	-3.082254e+02
4.700000e-07	-1.766488e-06	-4.667390e-09	-1.225419e+01	-3.054552e+02
4.800000e-07	-1.723681e-06	-4.625301e-09	-1.195724e+01	-3.026446e+02
4.900000e-07	-1.679974e-06	-4.584598e-09	-1.165404e+01	-2.997829e+02
5.000000e-07	-1.635713e-06	-4.541645e-09	-1.134700e+01	-2.968529e+02
5.100000e-07	-1.591019e-06	-4.476547e-09	-1.103696e+01	-2.938372e+02
5.200000e-07	-1.545861e-06	-4.445994e-09	-1.072369e+01	-2.907240e+02
5.300000e-07	-1.500195e-06	-4.400227e-09	-1.040691e+01	-2.875115e+02
5.400000e-07	-1.453948e-06	-4.345691e-09	-1.008609e+01	-2.842088e+02
5.500000e-07	-1.407079e-06	-4.296708e-09	-9.760960e+00	-2.808314e+02
5.600000e-07	-1.359672e-06	-4.230965e-09	-9.432094e+00	-2.773953e+02
5.700000e-07	-1.311868e-06	-4.176378e-09	-9.100475e+00	-2.739097e+02
5.800000e-07	-1.263675e-06	-4.132184e-09	-8.766158e+00	-2.703727e+02
5.900000e-07	-1.215150e-06	-4.077868e-09	-8.429539e+00	-2.667702e+02
6.000000e-07	-1.166261e-06	-4.004511e-09	-8.090399e+00	-2.630805e+02
6.100000e-07	-1.116826e-06	-3.954928e-09	-7.747462e+00	-2.592813e+02
6.200000e-07	-1.066737e-06	-3.898472e-09	-7.399991e+00	-2.553578e+02
6.300000e-07	-1.016020e-06	-3.833254e-09	-7.048169e+00	-2.513087e+02
6.400000e-07	-9.647697e-07	-3.762676e-09	-6.692643e+00	-2.471474e+02
6.500000e-07	-9.130266e-07	-3.695555e-09	-6.333699e+00	-2.428979e+02
6.600000e-07	-8.608729e-07	-3.637017e-09	-5.971907e+00	-2.385871e+02
6.700000e-07	-8.084400e-07	-3.572634e-09	-5.608178e+00	-2.342349e+02
6.800000e-07	-7.558356e-07	-3.503667e-09	-5.243259e+00	-2.298472e+02
6.900000e-07	-7.029602e-07	-3.427243e-09	-4.876461e+00	-2.254128e+02
7.000000e-07	-6.497736e-07	-3.362467e-09	-4.507504e+00	-2.209063e+02
7.100000e-07	-5.963808e-07	-3.293441e-09	-4.137116e+00	-2.162961e+02
7.200000e-07	-5.427616e-07	-3.219815e-09	-3.765157e+00	-2.115540e+02
7.300000e-07	-4.889218e-07	-3.139690e-09	-3.391668e+00	-2.066634e+02
7.400000e-07	-4.348959e-07	-3.060202e-09	-3.016889e+00	-2.016240e+02
7.500000e-07	-3.807325e-07	-2.985184e-09	-2.641156e+00	-1.964491e+02
7.600000e-07	-3.264719e-07	-2.905157e-09	-2.264748e+00	-1.911598e+02
7.700000e-07	-2.721278e-07	-2.819147e-09	-1.887761e+00	-1.857743e+02
7.800000e-07	-2.177001e-07	-2.729882e-09	-1.510194e+00	-1.803004e+02
7.900000e-07	-1.632115e-07	-2.649428e-09	-1.132204e+00	-1.747306e+02
8.000000e-07	-1.086888e-07	-2.562534e-09	-7.539785e-01	-1.690432e+02
8.100000e-07	-5.413780e-08	-2.471015e-09	-3.755559e-01	-1.632094e+02
8.200000e-07	4.290278e-10	-2.375609e-09	2.976182e-03	-1.572021e+02
8.300000e-07	5.499512e-08	-2.280556e-09	3.815032e-01	-1.510043e+02
8.400000e-07	1.094998e-07	-2.182850e-09	7.596045e-01	-1.446139e+02
8.500000e-07	1.639777e-07	-2.079842e-09	1.137519e+00	-1.380421e+02
8.600000e-07	2.184623e-07	-1.975687e-09	1.515481e+00	-1.313067e+02
8.700000e-07	2.728937e-07	-1.869141e-09	1.893074e+00	-1.244223e+02
8.800000e-07	3.272482e-07	-1.764541e-09	2.270133e+00	-1.173914e+02
8.900000e-07	3.815051e-07	-1.651078e-09	2.646515e+00	-1.101991e+02
9.000000e-07	4.356300e-07	-1.533729e-09	3.021982e+00	-1.028138e+02
9.100000e-07	4.895654e-07	-1.414246e-09	3.396133e+00	-9.519404e+01
9.200000e-07	5.432828e-07	-1.295718e-09	3.768773e+00	-8.729776e+01
9.300000e-07	5.968135e-07	-1.170543e-09	4.140117e+00	-7.909219e+01
9.400000e-07	6.501277e-07	-1.036600e-09	4.509960e+00	-7.055942e+01
9.500000e-07	7.031897e-07	-8.985237e-10	4.878053e+00	-6.169621e+01
9.600000e-07	7.559315e-07	-7.573979e-10	5.243925e+00	-5.250803e+01
9.700000e-07	8.083903e-07	-6.159404e-10	5.607833e+00	-4.299950e+01
9.800000e-07	8.606378e-07	-4.655059e-10	5.970276e+00	-3.316466e+01
9.900000e-07	9.126160e-07	-3.064369e-10	6.330851e+00	-2.298105e+01
1.000000e-06	9.641906e-07	-1.388850e-10	6.688626e+00	-1.240962e+01
1.010000e-06	1.015206e-06	2.958116e-11	7.042522e+00	-1.401176e+00
1.020000e-06	1.065554e-06	2.032543e-10	7.391789e+00	1.009265e+01
1.030000e-06	1.115244e-06	3.856561e-10	7.736486e+00	2.210699e+01
1.040000e-06	1.164377e-06	5.775686e-10	8.077327e+00	3.465347e+01
1.050000e-06	1.213098e-06	7.777964e-10	8.415305e+00	4.771468e+01
1.060000e-06	1.261552e-06	9.837147e-10	8.751433e+00	6.124419e+01
1.070000e-06	1.309734e-06	1.198660e-09	9.085671e+00	7.517120e+01
1.080000e-06	1.357530e-06	1.415812e-09	9.417233e+00	8.940737e+01
1.090000e-06	1.404791e-06	1.635076e-09	9.745088e+00	1.038535e+02
1.100000e-06	1.451481e-06	1.852574e-09	1.006898e+01	1.184038e+02
1.110000e-06	1.497639e-06	2.071265e-09	1.038918e+01	1.329478e+02
1.120000e-06	1.543197e-06	2.290052e-09	1.070522e+01	1.473708e+02
1.130000e-06	1.588217e-06	2.507592e-09	1.101752e+01	1.615537e+02
1.140000e-06	1.632860e-06	2.718774e-09	1.132721e+01	1.753760e+02
1.150000e-06	1.677167e-06	2.917286e-09	1.163457e+01	1.887213e+02
1.160000e-06	1.720978e-06	3.106854e-09	1.193848e+01	2.014856e+02
1.170000e-06	1.764049e-06	3.288403e-09	1.223728e+01	2.135857e+02
1.180000e-06	1.806158e-06	3.460637e-09	1.252938e+01	2.249669e+02
1.190000e-06	1.847333e-06	3.619540e-09	1.281502e+01	2.356058e+02
1.200000e-06	1.887907e-06	3.772108e-09	1.309648e+01	2.455085e+02
1.210000e-06	1.927996e-06	3.916400e-09	1.337458e+01	2.547041e+02
1.220000e-06	1.967474e-06	4.046596e-09	1.364844e+01	2.632354e+02
1.230000e-06	2.006313e-06	4.160309e-09	1.391787e+01	2.711493e+02
1.240000e-06	2.044474e-06	4.264177e-09	1.418259e+01	2.784908e+02
1.250000e-06	2.081853e-06	4.365809e-09	1.444189e+01	2.852993e+02
1.260000e-06	2.118604e-06	4.462820e-09	1.469683e+01	2.916102e+02
1.270000e-06	2.154835e-06	4.550590e-09	1.494817e+01	2.974580e+02
1.280000e-06	2.190310e-06	4.630110e-09	1.519426e+01	3.028797e+02
1.290000e-06	2.224804e-06	4.707305e-09	1.543355e+01	3.079167e+02
1.300000e-06	2.258284e-06	4.780139e-09	1.566580e+01	3.126135e+02
1.310000e-06	2.290906e-06	4.845930e-09	1.589210e+01	3.170139e+02
1.320000e-06	2.322844e-06	4.902906e-09	1.611365e+01	3.211550e+02
1.330000e-06	2.354023e-06	4.956162e-09	1.632995e+01	3.250638e+02
1.340000e-06	2.384401e-06	5.010170e-09	1.654068e+01	3.287546e+02
1.350000e-06	2.413951e-06	5.060083e-09	1.674567e+01	3.322308e+02
1.360000e-06	2.442777e-06	5.103814e-09	1.694563e+01	3.354899e+02
1.370000e-06	2.470988e-06	5.146241e-09	1.714134e+01	3.385296e+02
1.380000e-06	2.498331e-06	5.190584e-09	1.733101e+01	3.413529e+02
1.390000e-06	2.524494e-06	5.232661e-09	1.751251e+01	3.439721e+02
1.400000e-06	2.549542e-06	5.267976e-09	1.768627e+01	3.464075e+02
1.410000e-06	2.573678e-06	5.296217e-09	1.785370e+01	3.486843e+02
1.420000e-06	2.596906e-06	5.323259e-09	1.801484e+01	3.508275e+02
1.430000e-06	2.619288e-06	5.353060e-09	1.817010e+01	3.528560e+02
1.440000e-06	2.640845e-06	5.382175e-09	1.831964e+01	3.547804e+02
1.450000e-06	2.661604e-06	5.406930e-09	1.846365e+01	3.566020e+02
1.460000e-06	2.681576e-06	5.430534e-09	1.860219e+01	3.583156e+02
1.470000e-06	2.700611e-06	5.457869e-09	1.873424e+01	3.599140e+02
1.480000e-06	2.718664e-06	5.485189e-09	1.885947e+01	3.613920e+02
1.490000e-06	2.735762e-06	5.505682e-09	1.897808e+01	3.627496e+02
1.500000e-06	2.751758e-06	5.519459e-09	1.908904e+01	3.639925e+02
1.510000e-06	2.766650e-06	5.532946e-09	1.919235e+01	3.651307e+02
1.520000e-06	2.780573e-06	5.548507e-09	1.928894e+01	3.661752e+02
1.530000e-06	2.793485e-06	5.563205e-09	1.937851e+01	3.671353e+02
1.540000e-06	2.805287e-06	5.576323e-09	1.946038e+01	3.680163e+02
1.550000e-06	2.815752e-06	5.589639e-09	1.953297e+01	3.688193e+02
1.560000e-06	2.824997e-06	5.602932e-09	1.959711e+01	3.695424e+02
1.570000e-06	2.833333e-06	5.613454e-09	1.965493e+01	3.701826e+02
1.580000e-06	2.840736e-06	5.622192e-09	1.970629e+01	3.707387e+02
1.590000e-06	2.847190e-06	5.631089e-09	1.975106e+01	3.712119e+02
1.600000e-06	2.852704e-06	5.638256e-09	1.978932e+01	3.716061e+02
1.610000e-06	2.857392e-06	5.641272e-09	1.982183e+01	3.719270e+02
1.620000e-06	2.861201e-06	5.642644e-09	1.984825e+01	3.721802e+02
1.630000e-06	2.863763e-06	5.646160e-09	1.986603e+01	3.723702e+02
1.640000e-06	2.865107e-06	5.649959e-09	1.987536e+01	3.724992e+02
1.650000e-06	2.865561e-06	5.651467e-09	1.987850e+01	3.725677e+02
1.660000e-06	2.865125e-06	5.652328e-09	1.987548e+01	3.725746e+02
1.670000e-06	2.863747e-06	5.651355e-09	1.986592e+01	3.725187e+02
1.680000e-06	2.861438e-06	5.652378e-09	1.984990e+01	3.723983e+02
1.690000e-06	2.858340e-06	5.650728e-09	1.982841e+01	3.722118e+02
1.700000e-06	2.854530e-06	5.642965e-09	1.980198e+01	3.719570e+02
1.710000e-06	2.849648e-06	5.637648e-09	1.976811e+01	3.716307e+02
1.720000e-06	2.843533e-06	5.649724e-09	1.972569e+01	3.712296e+02
1.730000e-06	2.836463e-06	5.651859e-09	1.967665e+01	3.707511e+02
1.740000e-06	2.828470e-06	5.543770e-09	1.962120e+01	3.701962e+02
1.750000e-06	2.819110e-06	5.487493e-09	1.955627e+01	3.695707e+02
1.760000e-06	2.808212e-06	5.655150e-09	1.948067e+01	3.688869e+02
1.770000e-06	2.796499e-06	5.704301e-09	1.939942e+01	3.681629e+02
1.780000e-06	2.784648e-06	5.542495e-09	1.931721e+01	3.674191e+02
1.790000e-06	2.771834e-06	5.403380e-09	1.922831e+01	3.666745e+02
1.800000e-06	2.757312e-06	5.657517e-09	1.912757e+01	3.659404e+02
1.810000e-06	2.741809e-06	5.620414e-09	1.902003e+01	3.652170e+02
1.820000e-06	2.725763e-06	5.336422e-09	1.890872e+01	3.644907e+02
1.830000e-06	2.708485e-06	5.578331e-09	1.878886e+01	3.637359e+02
1.840000e-06	2.689893e-06	5.684861e-09	1.865989e+01	3.629204e+02
1.850000e-06	2.670672e-06	5.372811e-09	1.852655e+01	3.620118e+02
1.860000e-06	2.650698e-06	5.439074e-09	1.838799e+01	3.609858e+02
1.870000e-06	2.629465e-06	5.668976e-09	1.824069e+01	3.598319e+02
1.880000e-06	2.607224e-06	5.365264e-09	1.808641e+01	3.585554e+02
1.890000e-06	2.584094e-06	5.283834e-09	1.792596e+01	3.571756e+02
1.900000e-06	2.559935e-06	5.539435e-09	1.775837e+01	3.557200e+02
1.910000e-06	2.535093e-06	5.393770e-09	1.758603e+01	3.542163e+02
1.920000e-06	2.509406e-06	5.283201e-09	1.740784e+01	3.526845e+02
1.930000e-06	2.482730e-06	5.434003e-09	1.722279e+01	3.511319e+02
1.940000e-06	2.455445e-06	5.276787e-09	1.703351e+01	3.495520e+02
1.950000e-06	2.427235e-06	5.279230e-09	1.683782e+01	3.479275e+02
1.960000e-06	2.397704e-06	5.320051e-09	1.663296e+01	3.462364e+02
1.970000e-06	2.367204e-06	5.126347e-09	1.642138e+01	3.444601e+02
1.980000e-06	2.335992e-06	5.225231e-09	1.620486e+01	3.425889e+02
1.990000e-06	2.304103e-06	5.273125e-09	1.598365e+01	3.406255e+02
2.000000e-06	2.271521e-06	5.069371e-09	1.575762e+01	3.385837e+02
2.010000e-06	2.238101e-06	5.138795e-09	1.552579e+01	3.364831e+02
2.020000e-06	2.203931e-06	5.135963e-09	1.528875e+01	3.343429e+02
2.030000e-06	2.169133e-06	4.962968e-09	1.504736e+01	3.321754e+02
2.040000e-06	2.133636e-06	5.048347e-09	1.480111e+01	3.299816e+02
2.050000e-06	2.097507e-06	5.011359e-09	1.455049e+01	3.277520e+02
2.060000e-06	2.060479e-06	4.892601e-09	1.429362e+01	3.254695e+02
2.070000e-06	2.022220e-06	4.939085e-09	1.402822e+01	3.231160e+02
2.080000e-06	1.983134e-06	4.893389e-09	1.375707e+01	3.206788e+02
2.090000e-06	1.943564e-06	4.826910e-09	1.348257e+01	3.181544e+02
2.100000e-06	1.903376e-06	4.802130e-09	1.320379e+01	3.155495e+02
2.110000e-06	1.862526e-06	4.740107e-09	1.292041e+01	3.128780e+02
2.120000e-06	1.821086e-06	4.719658e-09	1.263294e+01	3.101553e+02
2.130000e-06	1.779065e-06	4.681414e-09	1.234144e+01	3.073918e+02
2.140000e-06	1.736416e-06	4.618566e-09	1.204558e+01	3.045888e+02
2.150000e-06	1.693239e-06	4.593479e-09	1.174606e+01	3.017373e+02
2.160000e-06	1.649693e-06	4.546822e-09	1.144398e+01	2.988208e+02
2.170000e-06	1.605630e-06	4.509799e-09	1.113831e+01	2.958214e+02
2.180000e-06	1.560906e-06	4.456206e-09	1.082807e+01	2.927259e+02
2.190000e-06	1.515601e-06	4.403087e-09	1.051378e+01	2.895307e+02
2.200000e-06	1.469756e-06	4.364986e-09	1.019575e+01	2.862430e+02
2.210000e-06	1.423469e-06	4.297879e-09	9.874660e+00	2.828776e+02
2.220000e-06	1.376754e-06	4.267959e-09	9.550595e+00	2.794509e+02
2.230000e-06	1.329531e-06	4.210130e-09	9.223005e+00	2.759739e+02
2.240000e-06	1.281682e-06	4.137322e-09	8.891074e+00	2.724466e+02
2.250000e-06	1.233204e-06	4.108115e-09	8.554780e+00	2.688572e+02
2.260000e-06	1.184308e-06	4.052739e-09	8.215587e+00	2.651848e+02
2.270000e-06	1.134990e-06	3.984498e-09	7.873465e+00	2.614064e+02
2.280000e-06	1.085245e-06	3.929772e-09	7.528383e+00	2.575055e+02
2.290000e-06	1.035060e-06	3.869784e-09	7.180253e+00	2.534782e+02
2.300000e-06	9.844161e-07	3.815605e-09	6.828931e+00	2.493352e+02
2.310000e-06	9.334227e-07	3.747288e-09	6.475188e+00	2.450994e+02
2.320000e-06	8.821828e-07	3.670400e-09	6.119735e+00	2.407976e+02
2.330000e-06	8.307247e-07	3.612635e-09	5.762768e+00	2.364518e+02
2.340000e-06	7.789868e-07	3.548352e-09	5.403860e+00	2.320707e+02
2.350000e-06	7.268245e-07	3.485540e-09	5.042008e+00	2.276461e+02
2.360000e-06	6.742063e-07	3.414034e-09	4.676994e+00	2.231547e+02
2.370000e-06	6.211359e-07	3.343439e-09	4.308843e+00	2.185652e+02
2.380000e-06	5.676216e-07	3.278165e-09	3.937612e+00	2.138482e+02
2.390000e-06	5.138011e-07	3.200678e-09	3.564257e+00	2.089845e+02
2.400000e-06	4.597371e-07	3.125154e-09	3.189214e+00	2.039709e+02
2.410000e-06	4.055294e-07	3.043940e-09	2.813173e+00	1.988187e+02
2.420000e-06	3.510668e-07	2.965965e-09	2.435363e+00	1.935482e+02
2.430000e-06	2.963532e-07	2.891532e-09	2.055813e+00	1.881788e+02
2.440000e-06	2.415263e-07	2.805907e-09	1.675477e+00	1.827207e+02
2.450000e-06	1.865994e-07	2.715758e-09	1.294447e+00	1.771691e+02
2.460000e-06	1.316491e-07	2.631651e-09	9.132544e-01	1.715047e+02
2.470000e-06	7.666879e-08	2.550794e-09	5.318542e-01	1.656992e+02
2.480000e-06	2.166531e-08	2.463273e-09	1.502931e-01	1.597243e+02
2.490000e-06	-3.331471e-08	2.365289e-09	-2.311054e-01	1.535611e+02
2.500000e-06	-8.827365e-08	2.267892e-09	-6.123576e-01	1.472045e+02
2.510000e-06	-1.432409e-07	2.175593e-09	-9.936675e-01	1.406637e+02
2.520000e-06	-1.981744e-07	2.074091e-09	-1.374743e+00	1.339561e+02
2.530000e-06	-2.530443e-07	1.965844e-09	-1.755377e+00	1.270977e+02
2.540000e-06	-3.078479e-07	1.856604e-09	-2.135552e+00	1.200934e+02
2.550000e-06	-3.625000e-07	1.752231e-09	-2.514676e+00	1.129317e+02
2.560000e-06	-4.169574e-07	1.646360e-09	-2.892449e+00	1.055837e+02
2.570000e-06	-4.711800e-07	1.531125e-09	-3.268593e+00	9.800888e+01
2.580000e-06	-5.251486e-07	1.411908e-09	-3.642975e+00	9.016464e+01
2.590000e-06	-5.788072e-07	1.289699e-09	-4.015207e+00	8.201599e+01
2.600000e-06	-6.320195e-07	1.163990e-09	-4.384343e+00	7.354217e+01
2.610000e-06	-6.847929e-07	1.028997e-09	-4.750433e+00	6.473760e+01
2.620000e-06	-7.371464e-07	8.861077e-10	-5.113612e+00	5.560687e+01
2.630000e-06	-7.891312e-07	7.394551e-10	-5.474232e+00	4.615547e+01
2.640000e-06	-8.407849e-07	5.962006e-10	-5.832556e+00	3.637994e+01
2.650000e-06	-8.921496e-07	4.493827e-10	-6.188875e+00	2.626095e+01
2.660000e-06	-9.432759e-07	2.908651e-10	-6.543540e+00	1.576213e+01
2.670000e-06	-9.941392e-07	1.242751e-10	-6.896380e+00	4.835363e+00
2.680000e-06	-1.044584e-06	-4.855777e-11	-7.246320e+00	-6.568768e+00
2.690000e-06	-1.094535e-06	-2.296552e-10	-7.592831e+00	-1.848861e+01
2.700000e-06	-1.144104e-06	-4.235384e-10	-7.936691e+00	-3.094057e+01
2.710000e-06	-1.193269e-06	-6.239230e-10	-8.277753e+00	-4.391256e+01
2.720000e-06	-1.241831e-06	-8.279284e-10	-8.614625e+00	-5.736312e+01
2.730000e-06	-1.289767e-06	-1.035716e-09	-8.947161e+00	-7.122531e+01
2.740000e-06	-1.336962e-06	-1.250724e-09	-9.274553e+00	-8.541340e+01
2.750000e-06	-1.383393e-06	-1.472624e-09	-9.596651e+00	-9.982971e+01
2.760000e-06	-1.429390e-06	-1.695743e-09	-9.915729e+00	-1.143695e+02
2.770000e-06	-1.475061e-06	-1.918020e-09	-1.023255e+01	-1.289230e+02
2.780000e-06	-1.520379e-06	-2.140558e-09	-1.054693e+01	-1.433763e+02
2.790000e-06	-1.565255e-06	-2.361935e-09	-1.085823e+01	-1.576110e+02
2.800000e-06	-1.609565e-06	-2.576159e-09	-1.116561e+01	-1.715066e+02
2.810000e-06	-1.653353e-06	-2.781640e-09	-1.146937e+01	-1.849453e+02
2.820000e-06	-1.696734e-06	-2.978227e-09	-1.177031e+01	-1.978202e+02
2.830000e-06	-1.739698e-06	-3.166872e-09	-1.206835e+01	-2.100439e+02
2.840000e-06	-1.782087e-06	-3.344101e-09	-1.236240e+01	-2.215562e+02
2.850000e-06	-1.823829e-06	-3.508504e-09	-1.265197e+01	-2.323281e+02
2.860000e-06	-1.865026e-06	-3.662056e-09	-1.293776e+01	-2.423608e+02
2.870000e-06	-1.905577e-06	-3.807236e-09	-1.321906e+01	-2.516799e+02
2.880000e-06	-1.945441e-06	-3.943883e-09	-1.349560e+01	-2.603264e+02
2.890000e-06	-1.984832e-06	-4.068849e-09	-1.376885e+01	-2.683473e+02
2.900000e-06	-2.023709e-06	-4.184487e-09	-1.403854e+01	-2.757880e+02
2.910000e-06	-2.061735e-06	-4.291429e-09	-1.430234e+01	-2.826891e+02
2.920000e-06	-2.098680e-06	-4.389258e-09	-1.455862e+01	-2.890865e+02
2.930000e-06	-2.134648e-06	-4.479679e-09	-1.480813e+01	-2.950144e+02
2.940000e-06	-2.169935e-06	-4.565815e-09	-1.505292e+01	-3.005094e+02
