# Temperatura_=_23.79
# Concentracion g/m^3_=_13400.0
# C_Vs_to_Am_M_A/Vsm_=_65563218390.804596
# pendiente_HvsI_1/m_=_3716.3
# ordenada_HvsI_A/m_=_1297.0
# frecuencia_Hz_=_300838.6699254046

Tiempo_(s)	Campo_(V.s)	Magnetizacion_(V.s)	Campo_(kA/m)	Magnetizacion_(A/m)
0.000000e+00	-2.851769e-06	-5.661105e-09	-1.980177e+01	-3.689757e+02
1.000000e-08	-2.850741e-06	-5.660859e-09	-1.979463e+01	-3.688440e+02
2.000000e-08	-2.848687e-06	-5.653133e-09	-1.978037e+01	-3.686253e+02
3.000000e-08	-2.845331e-06	-5.647366e-09	-1.975706e+01	-3.683372e+02
4.000000e-08	-2.840969e-06	-5.645384e-09	-1.972678e+01	-3.679989e+02
5.000000e-08	-2.835862e-06	-5.637177e-09	-1.969131e+01	-3.676241e+02
6.000000e-08	-2.829884e-06	-5.615118e-09	-1.964981e+01	-3.672147e+02
7.000000e-08	-2.822910e-06	-5.586822e-09	-1.960138e+01	-3.667608e+02
8.000000e-08	-2.814898e-06	-5.645631e-09	-1.954575e+01	-3.662445e+02
9.000000e-08	-2.805675e-06	-5.727381e-09	-1.948171e+01	-3.656492e+02
1.000000e-07	-2.795033e-06	-5.673589e-09	-1.940781e+01	-3.649673e+02
1.100000e-07	-2.783245e-06	-5.420173e-09	-1.932596e+01	-3.642064e+02
1.200000e-07	-2.770732e-06	-5.471632e-09	-1.923907e+01	-3.633883e+02
1.300000e-07	-2.757320e-06	-5.737508e-09	-1.914595e+01	-3.625433e+02
1.400000e-07	-2.742826e-06	-5.593927e-09	-1.904530e+01	-3.616990e+02
1.500000e-07	-2.727322e-06	-5.358931e-09	-1.893765e+01	-3.608705e+02
1.600000e-07	-2.710510e-06	-5.579911e-09	-1.882091e+01	-3.600530e+02
1.700000e-07	-2.692413e-06	-5.689957e-09	-1.869525e+01	-3.592217e+02
1.800000e-07	-2.673642e-06	-5.335089e-09	-1.856491e+01	-3.583389e+02
1.900000e-07	-2.654178e-06	-5.420015e-09	-1.842976e+01	-3.573651e+02
2.000000e-07	-2.633753e-06	-5.610635e-09	-1.828793e+01	-3.562717e+02
2.100000e-07	-2.612519e-06	-5.318659e-09	-1.814049e+01	-3.550497e+02
2.200000e-07	-2.590566e-06	-5.331359e-09	-1.798806e+01	-3.537120e+02
2.300000e-07	-2.567670e-06	-5.591817e-09	-1.782907e+01	-3.522880e+02
2.400000e-07	-2.543745e-06	-5.370162e-09	-1.766295e+01	-3.508127e+02
2.500000e-07	-2.519074e-06	-5.239782e-09	-1.749164e+01	-3.493144e+02
2.600000e-07	-2.493566e-06	-5.368160e-09	-1.731452e+01	-3.478050e+02
2.700000e-07	-2.466937e-06	-5.315205e-09	-1.712962e+01	-3.462768e+02
2.800000e-07	-2.439243e-06	-5.247509e-09	-1.693732e+01	-3.447063e+02
2.900000e-07	-2.410665e-06	-5.251780e-09	-1.673889e+01	-3.430635e+02
3.000000e-07	-2.381236e-06	-5.221080e-09	-1.653454e+01	-3.413235e+02
3.100000e-07	-2.351088e-06	-5.242467e-09	-1.632520e+01	-3.394756e+02
3.200000e-07	-2.320261e-06	-5.213688e-09	-1.611115e+01	-3.375274e+02
3.300000e-07	-2.288584e-06	-5.068240e-09	-1.589119e+01	-3.355013e+02
3.400000e-07	-2.256189e-06	-5.115487e-09	-1.566625e+01	-3.334265e+02
3.500000e-07	-2.223230e-06	-5.093265e-09	-1.543740e+01	-3.313280e+02
3.600000e-07	-2.189459e-06	-4.995742e-09	-1.520290e+01	-3.292183e+02
3.700000e-07	-2.154519e-06	-5.056738e-09	-1.496029e+01	-3.270929e+02
3.800000e-07	-2.118510e-06	-4.999035e-09	-1.471025e+01	-3.249329e+02
3.900000e-07	-2.081882e-06	-4.882893e-09	-1.445592e+01	-3.227120e+02
4.000000e-07	-2.044700e-06	-4.932828e-09	-1.419774e+01	-3.204063e+02
4.100000e-07	-2.006763e-06	-4.911532e-09	-1.393432e+01	-3.180027e+02
4.200000e-07	-1.968094e-06	-4.778189e-09	-1.366581e+01	-3.155027e+02
4.300000e-07	-1.928704e-06	-4.776885e-09	-1.339230e+01	-3.129209e+02
4.400000e-07	-1.888628e-06	-4.769026e-09	-1.311403e+01	-3.102787e+02
4.500000e-07	-1.848113e-06	-4.717237e-09	-1.283270e+01	-3.075957e+02
4.600000e-07	-1.807210e-06	-4.668903e-09	-1.254869e+01	-3.048819e+02
4.700000e-07	-1.765639e-06	-4.617569e-09	-1.226003e+01	-3.021339e+02
4.800000e-07	-1.722986e-06	-4.573601e-09	-1.196386e+01	-2.993361e+02
4.900000e-07	-1.679304e-06	-4.543786e-09	-1.166054e+01	-2.964663e+02
5.000000e-07	-1.635044e-06	-4.497887e-09	-1.135322e+01	-2.935036e+02
5.100000e-07	-1.590370e-06	-4.427062e-09	-1.104301e+01	-2.904359e+02
5.200000e-07	-1.545264e-06	-4.390353e-09	-1.072982e+01	-2.872635e+02
5.300000e-07	-1.499604e-06	-4.348819e-09	-1.041277e+01	-2.839985e+02
5.400000e-07	-1.453371e-06	-4.305651e-09	-1.009174e+01	-2.806602e+02
5.500000e-07	-1.406628e-06	-4.242850e-09	-9.767170e+00	-2.772673e+02
5.600000e-07	-1.359404e-06	-4.175140e-09	-9.439263e+00	-2.738310e+02
5.700000e-07	-1.311693e-06	-4.123955e-09	-9.107974e+00	-2.703509e+02
5.800000e-07	-1.263550e-06	-4.088745e-09	-8.773682e+00	-2.668145e+02
5.900000e-07	-1.215083e-06	-4.027366e-09	-8.437146e+00	-2.632019e+02
6.000000e-07	-1.166241e-06	-3.948383e-09	-8.098000e+00	-2.594919e+02
6.100000e-07	-1.116950e-06	-3.899194e-09	-7.755745e+00	-2.556695e+02
6.200000e-07	-1.067030e-06	-3.845397e-09	-7.409114e+00	-2.517303e+02
6.300000e-07	-1.016448e-06	-3.783231e-09	-7.057891e+00	-2.476817e+02
6.400000e-07	-9.653414e-07	-3.706864e-09	-6.703021e+00	-2.435397e+02
6.500000e-07	-9.136734e-07	-3.641097e-09	-6.344255e+00	-2.393232e+02
6.600000e-07	-8.615912e-07	-3.584023e-09	-5.982613e+00	-2.350474e+02
6.700000e-07	-8.092493e-07	-3.522245e-09	-5.619167e+00	-2.307181e+02
6.800000e-07	-7.566473e-07	-3.447871e-09	-5.253916e+00	-2.263301e+02
6.900000e-07	-7.037979e-07	-3.369497e-09	-4.886946e+00	-2.218688e+02
7.000000e-07	-6.507011e-07	-3.305349e-09	-4.518259e+00	-2.173152e+02
7.100000e-07	-5.973581e-07	-3.240447e-09	-4.147863e+00	-2.126515e+02
7.200000e-07	-5.438332e-07	-3.168251e-09	-3.776203e+00	-2.078673e+02
7.300000e-07	-4.901094e-07	-3.084174e-09	-3.403162e+00	-2.029613e+02
7.400000e-07	-4.360969e-07	-3.006989e-09	-3.028117e+00	-1.979409e+02
7.500000e-07	-3.819292e-07	-2.931481e-09	-2.651994e+00	-1.928182e+02
7.600000e-07	-3.276909e-07	-2.851474e-09	-2.275380e+00	-1.876035e+02
7.700000e-07	-2.733519e-07	-2.762927e-09	-1.898068e+00	-1.823007e+02
7.800000e-07	-2.189650e-07	-2.676089e-09	-1.520423e+00	-1.769036e+02
7.900000e-07	-1.645221e-07	-2.600797e-09	-1.142389e+00	-1.713964e+02
8.000000e-07	-1.099932e-07	-2.518709e-09	-7.637572e-01	-1.657571e+02
8.100000e-07	-5.546360e-08	-2.426540e-09	-3.851214e-01	-1.599639e+02
8.200000e-07	-9.591730e-10	-2.326337e-09	-6.660189e-03	-1.540005e+02
8.300000e-07	5.354867e-08	-2.231649e-09	3.718247e-01	-1.478602e+02
8.400000e-07	1.080508e-07	-2.137075e-09	7.502700e-01	-1.415463e+02
8.500000e-07	1.625360e-07	-2.036173e-09	1.128597e+00	-1.350685e+02
8.600000e-07	2.169659e-07	-1.927475e-09	1.506542e+00	-1.284370e+02
8.700000e-07	2.713754e-07	-1.824414e-09	1.884344e+00	-1.216557e+02
8.800000e-07	3.257767e-07	-1.728675e-09	2.262089e+00	-1.147171e+02
8.900000e-07	3.800467e-07	-1.617273e-09	2.638922e+00	-1.076011e+02
9.000000e-07	4.340886e-07	-1.491748e-09	3.014172e+00	-1.002774e+02
9.100000e-07	4.879950e-07	-1.369706e-09	3.388481e+00	-9.271192e+01
9.200000e-07	5.417521e-07	-1.261370e-09	3.761752e+00	-8.487377e+01
9.300000e-07	5.952768e-07	-1.144103e-09	4.133411e+00	-7.674142e+01
9.400000e-07	6.485665e-07	-1.009884e-09	4.503437e+00	-6.830508e+01
9.500000e-07	7.015721e-07	-8.677636e-10	4.871492e+00	-5.956465e+01
9.600000e-07	7.543010e-07	-7.303043e-10	5.237624e+00	-5.052372e+01
9.700000e-07	8.067505e-07	-5.916202e-10	5.601816e+00	-4.118171e+01
9.800000e-07	8.588941e-07	-4.411914e-10	5.963885e+00	-3.152689e+01
9.900000e-07	9.107345e-07	-2.819370e-10	6.323847e+00	-2.153291e+01
1.000000e-06	9.622065e-07	-1.203996e-10	6.681253e+00	-1.116037e+01
1.010000e-06	1.013057e-06	3.767631e-11	7.034345e+00	-3.632620e-01
1.020000e-06	1.063208e-06	2.066319e-10	7.382575e+00	1.090150e+01
1.030000e-06	1.112776e-06	3.905402e-10	7.726757e+00	2.266395e+01
1.040000e-06	1.161839e-06	5.852960e-10	8.067435e+00	3.493326e+01
1.050000e-06	1.210508e-06	7.802129e-10	8.405377e+00	4.769388e+01
1.060000e-06	1.258903e-06	9.788127e-10	8.741420e+00	6.090615e+01
1.070000e-06	1.307060e-06	1.188380e-09	9.075802e+00	7.451006e+01
1.080000e-06	1.354805e-06	1.402180e-09	9.407333e+00	8.843027e+01
1.090000e-06	1.401967e-06	1.616345e-09	9.734809e+00	1.025803e+02
1.100000e-06	1.448568e-06	1.827501e-09	1.005839e+01	1.168648e+02
1.110000e-06	1.494686e-06	2.044583e-09	1.037862e+01	1.311796e+02
1.120000e-06	1.540244e-06	2.264275e-09	1.069496e+01	1.454115e+02
1.130000e-06	1.585266e-06	2.480381e-09	1.100758e+01	1.594392e+02
1.140000e-06	1.629921e-06	2.687044e-09	1.131765e+01	1.731376e+02
1.150000e-06	1.674235e-06	2.884712e-09	1.162535e+01	1.863851e+02
1.160000e-06	1.718084e-06	3.074982e-09	1.192982e+01	1.990735e+02
1.170000e-06	1.761181e-06	3.256410e-09	1.222907e+01	2.111180e+02
1.180000e-06	1.803214e-06	3.426562e-09	1.252094e+01	2.224645e+02
1.190000e-06	1.844326e-06	3.584649e-09	1.280641e+01	2.330912e+02
1.200000e-06	1.884872e-06	3.738180e-09	1.308794e+01	2.430054e+02
1.210000e-06	1.924968e-06	3.882852e-09	1.336636e+01	2.522345e+02
1.220000e-06	1.964486e-06	4.011779e-09	1.364076e+01	2.608162e+02
1.230000e-06	2.003331e-06	4.123957e-09	1.391049e+01	2.687890e+02
1.240000e-06	2.041484e-06	4.230814e-09	1.417541e+01	2.761869e+02
1.250000e-06	2.078837e-06	4.334893e-09	1.443477e+01	2.830396e+02
1.260000e-06	2.115549e-06	4.432774e-09	1.468969e+01	2.893762e+02
1.270000e-06	2.151837e-06	4.519498e-09	1.494167e+01	2.952308e+02
1.280000e-06	2.187443e-06	4.598806e-09	1.518890e+01	3.006467e+02
1.290000e-06	2.222002e-06	4.676698e-09	1.542887e+01	3.056761e+02
1.300000e-06	2.255452e-06	4.747872e-09	1.566114e+01	3.103758e+02
1.310000e-06	2.288082e-06	4.810294e-09	1.588771e+01	3.147990e+02
1.320000e-06	2.320076e-06	4.868526e-09	1.610986e+01	3.189863e+02
1.330000e-06	2.351340e-06	4.928845e-09	1.632695e+01	3.229598e+02
1.340000e-06	2.381834e-06	4.988145e-09	1.653869e+01	3.267225e+02
1.350000e-06	2.411459e-06	5.037882e-09	1.674440e+01	3.302634e+02
1.360000e-06	2.440282e-06	5.079662e-09	1.694453e+01	3.335669e+02
1.370000e-06	2.468499e-06	5.124435e-09	1.714047e+01	3.366238e+02
1.380000e-06	2.495881e-06	5.171068e-09	1.733059e+01	3.394392e+02
1.390000e-06	2.521990e-06	5.209384e-09	1.751188e+01	3.420349e+02
1.400000e-06	2.546970e-06	5.240339e-09	1.768534e+01	3.444454e+02
1.410000e-06	2.571077e-06	5.272355e-09	1.785273e+01	3.467096e+02
1.420000e-06	2.594287e-06	5.306801e-09	1.801389e+01	3.488602e+02
1.430000e-06	2.616633e-06	5.337016e-09	1.816906e+01	3.509155e+02
1.440000e-06	2.638106e-06	5.361400e-09	1.831816e+01	3.528770e+02
1.450000e-06	2.658814e-06	5.385300e-09	1.846195e+01	3.547321e+02
1.460000e-06	2.678839e-06	5.412558e-09	1.860100e+01	3.564623e+02
1.470000e-06	2.697876e-06	5.439319e-09	1.873319e+01	3.580525e+02
1.480000e-06	2.715852e-06	5.461075e-09	1.885800e+01	3.594987e+02
1.490000e-06	2.732945e-06	5.479667e-09	1.897669e+01	3.608102e+02
1.500000e-06	2.748986e-06	5.496994e-09	1.908808e+01	3.620072e+02
1.510000e-06	2.763879e-06	5.513158e-09	1.919149e+01	3.631133e+02
1.520000e-06	2.777781e-06	5.526322e-09	1.928802e+01	3.641474e+02
1.530000e-06	2.790709e-06	5.536646e-09	1.937779e+01	3.651178e+02
1.540000e-06	2.802566e-06	5.548383e-09	1.946011e+01	3.660201e+02
1.550000e-06	2.813107e-06	5.563666e-09	1.953331e+01	3.668414e+02
1.560000e-06	2.822343e-06	5.578485e-09	1.959744e+01	3.675669e+02
1.570000e-06	2.830648e-06	5.589048e-09	1.965511e+01	3.681875e+02
1.580000e-06	2.838079e-06	5.596983e-09	1.970671e+01	3.687046e+02
1.590000e-06	2.844569e-06	5.604199e-09	1.975177e+01	3.691303e+02
1.600000e-06	2.850117e-06	5.608167e-09	1.979030e+01	3.694832e+02
1.610000e-06	2.854804e-06	5.607803e-09	1.982284e+01	3.697810e+02
1.620000e-06	2.858576e-06	5.608991e-09	1.984903e+01	3.700336e+02
1.630000e-06	2.861111e-06	5.616225e-09	1.986664e+01	3.702394e+02
1.640000e-06	2.862416e-06	5.623671e-09	1.987570e+01	3.703864e+02
1.650000e-06	2.862820e-06	5.626855e-09	1.987850e+01	3.704576e+02
1.660000e-06	2.862361e-06	5.627959e-09	1.987531e+01	3.704383e+02
1.670000e-06	2.860984e-06	5.624308e-09	1.986575e+01	3.703231e+02
1.680000e-06	2.858708e-06	5.620228e-09	1.984995e+01	3.701186e+02
1.690000e-06	2.855606e-06	5.614690e-09	1.982841e+01	3.698411e+02
1.700000e-06	2.851777e-06	5.604991e-09	1.980182e+01	3.695103e+02
1.710000e-06	2.846932e-06	5.600450e-09	1.976818e+01	3.691412e+02
1.720000e-06	2.840854e-06	5.616615e-09	1.972598e+01	3.687382e+02
1.730000e-06	2.833803e-06	5.638451e-09	1.967702e+01	3.682931e+02
1.740000e-06	2.825925e-06	5.526746e-09	1.962232e+01	3.677891e+02
1.750000e-06	2.816664e-06	5.435235e-09	1.955801e+01	3.672086e+02
1.760000e-06	2.805714e-06	5.569390e-09	1.948198e+01	3.665418e+02
1.770000e-06	2.793953e-06	5.726500e-09	1.940031e+01	3.657935e+02
1.780000e-06	2.782145e-06	5.567096e-09	1.931832e+01	3.649833e+02
1.790000e-06	2.769516e-06	5.313117e-09	1.923063e+01	3.641405e+02
1.800000e-06	2.755085e-06	5.578377e-09	1.913042e+01	3.632942e+02
1.810000e-06	2.739500e-06	5.644906e-09	1.902221e+01	3.624624e+02
1.820000e-06	2.723499e-06	5.304456e-09	1.891110e+01	3.616440e+02
1.830000e-06	2.706305e-06	5.412695e-09	1.879171e+01	3.608175e+02
1.840000e-06	2.687711e-06	5.693893e-09	1.866260e+01	3.599466e+02
1.850000e-06	2.668523e-06	5.418876e-09	1.852937e+01	3.589913e+02
1.860000e-06	2.648702e-06	5.280194e-09	1.839173e+01	3.579203e+02
1.870000e-06	2.627607e-06	5.625352e-09	1.824526e+01	3.567206e+02
1.880000e-06	2.605398e-06	5.412946e-09	1.809105e+01	3.554016e+02
1.890000e-06	2.582256e-06	5.137256e-09	1.793035e+01	3.539902e+02
1.900000e-06	2.558029e-06	5.471541e-09	1.776213e+01	3.525213e+02
1.910000e-06	2.533135e-06	5.444690e-09	1.758928e+01	3.510254e+02
1.920000e-06	2.507540e-06	5.211173e-09	1.741155e+01	3.495177e+02
1.930000e-06	2.480931e-06	5.339154e-09	1.722679e+01	3.479940e+02
1.940000e-06	2.453600e-06	5.272345e-09	1.703701e+01	3.464330e+02
1.950000e-06	2.425497e-06	5.219265e-09	1.684187e+01	3.448049e+02
1.960000e-06	2.396130e-06	5.260292e-09	1.663796e+01	3.430833e+02
1.970000e-06	2.365707e-06	5.104563e-09	1.642671e+01	3.412545e+02
1.980000e-06	2.334548e-06	5.156107e-09	1.621035e+01	3.393226e+02
1.990000e-06	2.302702e-06	5.235490e-09	1.598922e+01	3.373081e+02
2.000000e-06	2.270188e-06	5.019684e-09	1.576345e+01	3.352396e+02
2.010000e-06	2.236810e-06	5.069666e-09	1.553169e+01	3.331437e+02
2.020000e-06	2.202651e-06	5.102721e-09	1.529450e+01	3.310355e+02
2.030000e-06	2.167884e-06	4.894913e-09	1.505309e+01	3.289138e+02
2.040000e-06	2.132471e-06	4.994523e-09	1.480720e+01	3.267615e+02
2.050000e-06	2.096391e-06	5.000360e-09	1.455666e+01	3.245532e+02
2.060000e-06	2.059413e-06	4.822253e-09	1.429990e+01	3.222637e+02
2.070000e-06	2.021222e-06	4.881127e-09	1.403471e+01	3.198777e+02
2.080000e-06	1.982126e-06	4.867365e-09	1.376325e+01	3.173939e+02
2.090000e-06	1.942570e-06	4.765688e-09	1.348858e+01	3.148249e+02
2.100000e-06	1.902431e-06	4.756595e-09	1.320987e+01	3.121916e+02
2.110000e-06	1.861606e-06	4.687985e-09	1.292639e+01	3.095146e+02
2.120000e-06	1.820196e-06	4.669820e-09	1.263886e+01	3.068059e+02
2.130000e-06	1.778263e-06	4.652189e-09	1.234768e+01	3.040645e+02
2.140000e-06	1.735716e-06	4.566382e-09	1.205226e+01	3.012769e+02
2.150000e-06	1.692611e-06	4.546432e-09	1.175295e+01	2.984214e+02
2.160000e-06	1.649134e-06	4.501027e-09	1.145106e+01	2.954763e+02
2.170000e-06	1.605108e-06	4.458227e-09	1.114535e+01	2.924274e+02
2.180000e-06	1.560388e-06	4.413644e-09	1.083483e+01	2.892728e+02
2.190000e-06	1.515051e-06	4.346977e-09	1.052002e+01	2.860228e+02
2.200000e-06	1.469160e-06	4.306997e-09	1.020138e+01	2.826959e+02
2.210000e-06	1.422907e-06	4.257922e-09	9.880211e+00	2.793113e+02
2.220000e-06	1.376215e-06	4.214910e-09	9.555997e+00	2.758822e+02
2.230000e-06	1.328958e-06	4.156083e-09	9.227858e+00	2.724103e+02
2.240000e-06	1.281149e-06	4.083608e-09	8.895885e+00	2.688850e+02
2.250000e-06	1.232743e-06	4.054870e-09	8.559772e+00	2.652874e+02
2.260000e-06	1.183847e-06	4.005774e-09	8.220250e+00	2.615959e+02
2.270000e-06	1.134569e-06	3.927246e-09	7.878085e+00	2.577939e+02
2.280000e-06	1.084927e-06	3.878005e-09	7.533383e+00	2.538751e+02
2.290000e-06	1.034828e-06	3.815998e-09	7.185511e+00	2.498448e+02
2.300000e-06	9.842470e-07	3.761789e-09	6.834295e+00	2.457178e+02
2.310000e-06	9.332812e-07	3.700226e-09	6.480404e+00	2.415131e+02
2.320000e-06	8.820916e-07	3.622415e-09	6.124961e+00	2.372469e+02
2.330000e-06	8.306911e-07	3.564489e-09	5.768052e+00	2.329269e+02
2.340000e-06	7.789746e-07	3.496559e-09	5.408949e+00	2.285500e+02
2.350000e-06	7.268646e-07	3.432387e-09	5.047114e+00	2.241029e+02
2.360000e-06	6.743172e-07	3.362399e-09	4.682242e+00	2.195669e+02
2.370000e-06	6.213689e-07	3.287752e-09	4.314586e+00	2.149236e+02
2.380000e-06	5.680310e-07	3.222993e-09	3.944225e+00	2.101610e+02
2.390000e-06	5.143494e-07	3.148886e-09	3.571477e+00	2.052762e+02
2.400000e-06	4.603792e-07	3.071309e-09	3.196725e+00	2.002752e+02
2.410000e-06	4.061736e-07	2.993420e-09	2.820339e+00	1.951695e+02
2.420000e-06	3.517750e-07	2.913781e-09	2.442612e+00	1.899705e+02
2.430000e-06	2.971798e-07	2.838906e-09	2.063521e+00	1.846834e+02
2.440000e-06	2.424345e-07	2.754874e-09	1.683387e+00	1.793038e+02
2.450000e-06	1.876568e-07	2.665521e-09	1.303029e+00	1.738174e+02
2.460000e-06	1.328422e-07	2.585221e-09	9.224133e-01	1.682032e+02
2.470000e-06	7.796083e-08	2.501959e-09	5.413349e-01	1.624386e+02
2.480000e-06	2.303436e-08	2.414522e-09	1.599432e-01	1.565061e+02
2.490000e-06	-3.192210e-08	2.319100e-09	-2.216568e-01	1.503972e+02
2.500000e-06	-8.686286e-08	2.224657e-09	-6.031478e-01	1.441134e+02
2.510000e-06	-1.417646e-07	2.132886e-09	-9.843675e-01	1.376638e+02
2.520000e-06	-1.966008e-07	2.029855e-09	-1.365133e+00	1.310589e+02
2.530000e-06	-2.513635e-07	1.923081e-09	-1.745387e+00	1.243043e+02
2.540000e-06	-3.060477e-07	1.818808e-09	-2.125097e+00	1.173946e+02
2.550000e-06	-3.606194e-07	1.719051e-09	-2.504025e+00	1.103120e+02
2.560000e-06	-4.150251e-07	1.612759e-09	-2.881801e+00	1.030277e+02
2.570000e-06	-4.691843e-07	1.494144e-09	-3.257865e+00	9.550757e+01
2.580000e-06	-5.230979e-07	1.373643e-09	-3.632224e+00	8.771975e+01
2.590000e-06	-5.767244e-07	1.255341e-09	-4.004589e+00	7.964073e+01
2.600000e-06	-6.298783e-07	1.130522e-09	-4.373672e+00	7.125865e+01
2.610000e-06	-6.825748e-07	9.934115e-10	-4.739580e+00	6.257200e+01
2.620000e-06	-7.349253e-07	8.524953e-10	-5.103085e+00	5.358429e+01
2.630000e-06	-7.869114e-07	7.136197e-10	-5.464060e+00	4.429626e+01
2.640000e-06	-8.385363e-07	5.753163e-10	-5.822527e+00	3.469853e+01
2.650000e-06	-8.898799e-07	4.266896e-10	-6.179040e+00	2.476743e+01
2.660000e-06	-9.409555e-07	2.670357e-10	-6.533693e+00	1.446553e+01
2.670000e-06	-9.917145e-07	1.040494e-10	-6.886147e+00	3.747359e+00
2.680000e-06	-1.042110e-06	-6.062159e-11	-7.236080e+00	-7.431452e+00
2.690000e-06	-1.092045e-06	-2.365671e-10	-7.582812e+00	-1.910394e+01
2.700000e-06	-1.141541e-06	-4.265671e-10	-7.926494e+00	-3.128341e+01
2.710000e-06	-1.190648e-06	-6.227589e-10	-8.267477e+00	-4.395881e+01
2.720000e-06	-1.239293e-06	-8.225760e-10	-8.605252e+00	-5.709457e+01
2.730000e-06	-1.287243e-06	-1.026639e-09	-8.938200e+00	-7.063394e+01
2.740000e-06	-1.334430e-06	-1.239240e-09	-9.265854e+00	-8.450399e+01
2.750000e-06	-1.380949e-06	-1.456552e-09	-9.588869e+00	-9.862002e+01
2.760000e-06	-1.426925e-06	-1.672090e-09	-9.908111e+00	-1.128882e+02
2.770000e-06	-1.472571e-06	-1.886659e-09	-1.022506e+01	-1.272058e+02
2.780000e-06	-1.517913e-06	-2.106449e-09	-1.053990e+01	-1.414615e+02
2.790000e-06	-1.562840e-06	-2.329256e-09	-1.085186e+01	-1.555350e+02
2.800000e-06	-1.607175e-06	-2.546002e-09	-1.115971e+01	-1.693016e+02
2.810000e-06	-1.650904e-06	-2.752036e-09	-1.146334e+01	-1.826384e+02
2.820000e-06	-1.694212e-06	-2.947011e-09	-1.176406e+01	-1.954339e+02
2.830000e-06	-1.737157e-06	-3.131847e-09	-1.206226e+01	-2.075986e+02
2.840000e-06	-1.779579e-06	-3.305222e-09	-1.235682e+01	-2.190725e+02
2.850000e-06	-1.821347e-06	-3.466590e-09	-1.264685e+01	-2.298282e+02
2.860000e-06	-1.862512e-06	-3.618903e-09	-1.293269e+01	-2.398683e+02
2.870000e-06	-1.903079e-06	-3.767635e-09	-1.321437e+01	-2.492174e+02
2.880000e-06	-1.942971e-06	-3.910465e-09	-1.349137e+01	-2.579121e+02
2.890000e-06	-1.982284e-06	-4.041469e-09	-1.376434e+01	-2.659912e+02
2.900000e-06	-2.021087e-06	-4.158501e-09	-1.403378e+01	-2.734897e+02
2.910000e-06	-2.059117e-06	-4.263168e-09	-1.429785e+01	-2.804379e+02
2.920000e-06	-2.096076e-06	-4.358147e-09	-1.455448e+01	-2.868647e+02
2.930000e-06	-2.132037e-06	-4.446132e-09	-1.480418e+01	-2.928028e+02
2.940000e-06	-2.167323e-06	-4.532087e-09	-1.504920e+01	-2.982936e+02
