# Temperatura_=_32.17
# Concentracion g/m^3_=_13400.0
# C_Vs_to_Am_M_A/Vsm_=_65563218390.804596
# pendiente_HvsI_1/m_=_3716.3
# ordenada_HvsI_A/m_=_1297.0
# frecuencia_Hz_=_300845.45559086924

Tiempo_(s)	Campo_(V.s)	Magnetizacion_(V.s)	Campo_(kA/m)	Magnetizacion_(A/m)
0.000000e+00	-2.856655e-06	-5.786018e-09	-1.979724e+01	-3.781222e+02
1.000000e-08	-2.855682e-06	-5.786611e-09	-1.979050e+01	-3.779947e+02
2.000000e-08	-2.853720e-06	-5.785631e-09	-1.977690e+01	-3.777664e+02
3.000000e-08	-2.850514e-06	-5.782248e-09	-1.975469e+01	-3.774556e+02
4.000000e-08	-2.846267e-06	-5.775382e-09	-1.972525e+01	-3.770872e+02
5.000000e-08	-2.841213e-06	-5.762423e-09	-1.969023e+01	-3.766829e+02
6.000000e-08	-2.835265e-06	-5.744118e-09	-1.964901e+01	-3.762535e+02
7.000000e-08	-2.828395e-06	-5.723327e-09	-1.960139e+01	-3.757955e+02
8.000000e-08	-2.820539e-06	-5.760556e-09	-1.954695e+01	-3.752933e+02
9.000000e-08	-2.811412e-06	-5.839649e-09	-1.948370e+01	-3.747273e+02
1.000000e-07	-2.800785e-06	-5.822139e-09	-1.941005e+01	-3.740825e+02
1.100000e-07	-2.788978e-06	-5.601252e-09	-1.932823e+01	-3.733568e+02
1.200000e-07	-2.776494e-06	-5.589597e-09	-1.924171e+01	-3.725626e+02
1.300000e-07	-2.763173e-06	-5.799929e-09	-1.914939e+01	-3.717235e+02
1.400000e-07	-2.748758e-06	-5.781690e-09	-1.904949e+01	-3.708661e+02
1.500000e-07	-2.733356e-06	-5.506625e-09	-1.894275e+01	-3.700096e+02
1.600000e-07	-2.716728e-06	-5.649471e-09	-1.882751e+01	-3.691586e+02
1.700000e-07	-2.698763e-06	-5.836761e-09	-1.870302e+01	-3.682999e+02
1.800000e-07	-2.680062e-06	-5.514940e-09	-1.857342e+01	-3.674061e+02
1.900000e-07	-2.660735e-06	-5.521545e-09	-1.843948e+01	-3.664443e+02
2.000000e-07	-2.640455e-06	-5.715658e-09	-1.829893e+01	-3.653861e+02
2.100000e-07	-2.619290e-06	-5.504492e-09	-1.815225e+01	-3.642160e+02
2.200000e-07	-2.597375e-06	-5.428564e-09	-1.800038e+01	-3.629356e+02
2.300000e-07	-2.574546e-06	-5.673450e-09	-1.784217e+01	-3.615613e+02
2.400000e-07	-2.550729e-06	-5.545754e-09	-1.767711e+01	-3.601172e+02
2.500000e-07	-2.526160e-06	-5.376389e-09	-1.750684e+01	-3.586262e+02
2.600000e-07	-2.500761e-06	-5.467512e-09	-1.733082e+01	-3.571023e+02
2.700000e-07	-2.474213e-06	-5.464704e-09	-1.714683e+01	-3.555457e+02
2.800000e-07	-2.446544e-06	-5.365222e-09	-1.695508e+01	-3.539449e+02
2.900000e-07	-2.417974e-06	-5.386341e-09	-1.675709e+01	-3.522815e+02
3.000000e-07	-2.388603e-06	-5.349894e-09	-1.655354e+01	-3.505385e+02
3.100000e-07	-2.358505e-06	-5.350396e-09	-1.634495e+01	-3.487069e+02
3.200000e-07	-2.327686e-06	-5.359359e-09	-1.613137e+01	-3.467895e+02
3.300000e-07	-2.296030e-06	-5.208000e-09	-1.591199e+01	-3.447999e+02
3.400000e-07	-2.263671e-06	-5.226200e-09	-1.568773e+01	-3.427575e+02
3.500000e-07	-2.230690e-06	-5.229560e-09	-1.545917e+01	-3.406799e+02
3.600000e-07	-2.196915e-06	-5.136425e-09	-1.522510e+01	-3.385768e+02
3.700000e-07	-2.162045e-06	-5.162219e-09	-1.498345e+01	-3.364457e+02
3.800000e-07	-2.126088e-06	-5.151958e-09	-1.473426e+01	-3.342724e+02
3.900000e-07	-2.089485e-06	-5.022039e-09	-1.448059e+01	-3.320361e+02
4.000000e-07	-2.052289e-06	-5.045676e-09	-1.422281e+01	-3.297155e+02
4.100000e-07	-2.014360e-06	-5.049996e-09	-1.395996e+01	-3.272969e+02
4.200000e-07	-1.975726e-06	-4.924443e-09	-1.369221e+01	-3.247780e+02
4.300000e-07	-1.936377e-06	-4.897928e-09	-1.341952e+01	-3.221690e+02
4.400000e-07	-1.896357e-06	-4.893788e-09	-1.314217e+01	-3.194890e+02
4.500000e-07	-1.855883e-06	-4.848864e-09	-1.286167e+01	-3.167589e+02
4.600000e-07	-1.815016e-06	-4.794421e-09	-1.257846e+01	-3.139948e+02
4.700000e-07	-1.773435e-06	-4.755665e-09	-1.229029e+01	-3.112014e+02
4.800000e-07	-1.730773e-06	-4.704097e-09	-1.199464e+01	-3.083708e+02
4.900000e-07	-1.687122e-06	-4.674626e-09	-1.169212e+01	-3.054844e+02
5.000000e-07	-1.642879e-06	-4.627700e-09	-1.138551e+01	-3.025188e+02
5.100000e-07	-1.598264e-06	-4.562960e-09	-1.107632e+01	-2.994537e+02
5.200000e-07	-1.553237e-06	-4.519519e-09	-1.076427e+01	-2.962787e+02
5.300000e-07	-1.507607e-06	-4.478927e-09	-1.044805e+01	-2.929966e+02
5.400000e-07	-1.461352e-06	-4.435250e-09	-1.012749e+01	-2.896226e+02
5.500000e-07	-1.414607e-06	-4.371678e-09	-9.803537e+00	-2.861789e+02
5.600000e-07	-1.367381e-06	-4.311291e-09	-9.476246e+00	-2.826868e+02
5.700000e-07	-1.319653e-06	-4.253149e-09	-9.145482e+00	-2.791586e+02
5.800000e-07	-1.271498e-06	-4.218589e-09	-8.811762e+00	-2.755928e+02
5.900000e-07	-1.223040e-06	-4.160431e-09	-8.475932e+00	-2.719732e+02
6.000000e-07	-1.174228e-06	-4.090028e-09	-8.137656e+00	-2.682735e+02
6.100000e-07	-1.124878e-06	-4.038580e-09	-7.795650e+00	-2.644663e+02
6.200000e-07	-1.074874e-06	-3.983606e-09	-7.449111e+00	-2.605314e+02
6.300000e-07	-1.024212e-06	-3.916899e-09	-7.098011e+00	-2.564639e+02
6.400000e-07	-9.729554e-07	-3.839194e-09	-6.742793e+00	-2.522756e+02
6.500000e-07	-9.211753e-07	-3.775594e-09	-6.383946e+00	-2.479919e+02
6.600000e-07	-8.689966e-07	-3.716875e-09	-6.022336e+00	-2.436427e+02
6.700000e-07	-8.165678e-07	-3.659655e-09	-5.658993e+00	-2.392525e+02
6.800000e-07	-7.639026e-07	-3.587106e-09	-5.294011e+00	-2.348305e+02
6.900000e-07	-7.109829e-07	-3.512456e-09	-4.927266e+00	-2.303671e+02
7.000000e-07	-6.577976e-07	-3.444877e-09	-4.558681e+00	-2.258358e+02
7.100000e-07	-6.043805e-07	-3.376964e-09	-4.188489e+00	-2.212011e+02
7.200000e-07	-5.507646e-07	-3.298742e-09	-3.816919e+00	-2.164302e+02
7.300000e-07	-4.969028e-07	-3.213877e-09	-3.443645e+00	-2.115031e+02
7.400000e-07	-4.428253e-07	-3.141570e-09	-3.068876e+00	-2.064187e+02
7.500000e-07	-3.886006e-07	-3.068286e-09	-2.693087e+00	-2.011933e+02
7.600000e-07	-3.343001e-07	-2.989942e-09	-2.316773e+00	-1.958533e+02
7.700000e-07	-2.799261e-07	-2.899686e-09	-1.939949e+00	-1.904238e+02
7.800000e-07	-2.254771e-07	-2.810991e-09	-1.562606e+00	-1.849172e+02
7.900000e-07	-1.709545e-07	-2.727206e-09	-1.184752e+00	-1.793270e+02
8.000000e-07	-1.163869e-07	-2.640812e-09	-8.065865e-01	-1.736277e+02
8.100000e-07	-6.182752e-08	-2.550119e-09	-4.284782e-01	-1.677824e+02
8.200000e-07	-7.284173e-09	-2.456010e-09	-5.048091e-02	-1.617550e+02
8.300000e-07	4.726352e-08	-2.362093e-09	3.275465e-01	-1.555213e+02
8.400000e-07	1.017811e-07	-2.262936e-09	7.053655e-01	-1.490761e+02
8.500000e-07	1.562903e-07	-2.161864e-09	1.083126e+00	-1.424326e+02
8.600000e-07	2.108136e-07	-2.054056e-09	1.460984e+00	-1.356145e+02
8.700000e-07	2.652791e-07	-1.945955e-09	1.838442e+00	-1.286430e+02
8.800000e-07	3.196399e-07	-1.836676e-09	2.215174e+00	-1.215242e+02
8.900000e-07	3.739158e-07	-1.724103e-09	2.591318e+00	-1.142414e+02
9.000000e-07	4.281069e-07	-1.607285e-09	2.966874e+00	-1.067553e+02
9.100000e-07	4.821032e-07	-1.485622e-09	3.341080e+00	-9.901314e+01
9.200000e-07	5.359193e-07	-1.362393e-09	3.714038e+00	-9.096171e+01
9.300000e-07	5.895525e-07	-1.232605e-09	4.085728e+00	-8.256159e+01
9.400000e-07	6.429550e-07	-1.099346e-09	4.455818e+00	-7.379543e+01
9.500000e-07	6.960897e-07	-9.602375e-10	4.824053e+00	-6.466780e+01
9.600000e-07	7.489176e-07	-8.170169e-10	5.190162e+00	-5.519611e+01
9.700000e-07	8.014936e-07	-6.654219e-10	5.554526e+00	-4.539589e+01
9.800000e-07	8.538238e-07	-5.070253e-10	5.917185e+00	-3.526588e+01
9.900000e-07	9.058661e-07	-3.429327e-10	6.277850e+00	-2.477869e+01
1.000000e-06	9.575493e-07	-1.727945e-10	6.636025e+00	-1.388092e+01
1.010000e-06	1.008730e-06	1.229909e-12	6.990721e+00	-2.503359e+00
1.020000e-06	1.059227e-06	1.812825e-10	7.340673e+00	9.421664e+00
1.030000e-06	1.109020e-06	3.674722e-10	7.685749e+00	2.194127e+01
1.040000e-06	1.158256e-06	5.674402e-10	8.026966e+00	3.506719e+01
1.050000e-06	1.207013e-06	7.796482e-10	8.364864e+00	4.876934e+01
1.060000e-06	1.255455e-06	1.000922e-09	8.700579e+00	6.297908e+01
1.070000e-06	1.303627e-06	1.225087e-09	9.034422e+00	7.759973e+01
1.080000e-06	1.351413e-06	1.451208e-09	9.365587e+00	9.252005e+01
1.090000e-06	1.398735e-06	1.679620e-09	9.693540e+00	1.076254e+02
1.100000e-06	1.445530e-06	1.908750e-09	1.001784e+01	1.228035e+02
1.110000e-06	1.491814e-06	2.136942e-09	1.033860e+01	1.379433e+02
1.120000e-06	1.537541e-06	2.360504e-09	1.065549e+01	1.529310e+02
1.130000e-06	1.582696e-06	2.582998e-09	1.096843e+01	1.676448e+02
1.140000e-06	1.627410e-06	2.802203e-09	1.127830e+01	1.819550e+02
1.150000e-06	1.671776e-06	3.013525e-09	1.158577e+01	1.957301e+02
1.160000e-06	1.715716e-06	3.208953e-09	1.189028e+01	2.088492e+02
1.170000e-06	1.758971e-06	3.391775e-09	1.219005e+01	2.212169e+02
1.180000e-06	1.801298e-06	3.567311e-09	1.248339e+01	2.327751e+02
1.190000e-06	1.842705e-06	3.733377e-09	1.277035e+01	2.435089e+02
1.200000e-06	1.883407e-06	3.884754e-09	1.305242e+01	2.534431e+02
1.210000e-06	1.923606e-06	4.020330e-09	1.333101e+01	2.626303e+02
1.220000e-06	1.963249e-06	4.146738e-09	1.360574e+01	2.711347e+02
1.230000e-06	2.002216e-06	4.264986e-09	1.387580e+01	2.790174e+02
1.240000e-06	2.040520e-06	4.374339e-09	1.414125e+01	2.863274e+02
1.250000e-06	2.078080e-06	4.472977e-09	1.440155e+01	2.930995e+02
1.260000e-06	2.114924e-06	4.566930e-09	1.465689e+01	2.993612e+02
1.270000e-06	2.151278e-06	4.657410e-09	1.490883e+01	3.051418e+02
1.280000e-06	2.186966e-06	4.739871e-09	1.515615e+01	3.104807e+02
1.290000e-06	2.221636e-06	4.812562e-09	1.539642e+01	3.154300e+02
1.300000e-06	2.255195e-06	4.878956e-09	1.562899e+01	3.200504e+02
1.310000e-06	2.287899e-06	4.943051e-09	1.585564e+01	3.244009e+02
1.320000e-06	2.319973e-06	5.003596e-09	1.607792e+01	3.285270e+02
1.330000e-06	2.351292e-06	5.060645e-09	1.629497e+01	3.324522e+02
1.340000e-06	2.381816e-06	5.115192e-09	1.650651e+01	3.361765e+02
1.350000e-06	2.411535e-06	5.167654e-09	1.671246e+01	3.396824e+02
1.360000e-06	2.440490e-06	5.216267e-09	1.691313e+01	3.429477e+02
1.370000e-06	2.468821e-06	5.261286e-09	1.710947e+01	3.459591e+02
1.380000e-06	2.496359e-06	5.302315e-09	1.730031e+01	3.487224e+02
1.390000e-06	2.522691e-06	5.340103e-09	1.748280e+01	3.512649e+02
1.400000e-06	2.547814e-06	5.374338e-09	1.765690e+01	3.536298e+02
1.410000e-06	2.572038e-06	5.403891e-09	1.782478e+01	3.558631e+02
1.420000e-06	2.595437e-06	5.431616e-09	1.798694e+01	3.580009e+02
1.430000e-06	2.617984e-06	5.461254e-09	1.814320e+01	3.600587e+02
1.440000e-06	2.639621e-06	5.492493e-09	1.829315e+01	3.620295e+02
1.450000e-06	2.660436e-06	5.520388e-09	1.843740e+01	3.638896e+02
1.460000e-06	2.680551e-06	5.545573e-09	1.857681e+01	3.656107e+02
1.470000e-06	2.699817e-06	5.570009e-09	1.871032e+01	3.671733e+02
1.480000e-06	2.718046e-06	5.591796e-09	1.883665e+01	3.685761e+02
1.490000e-06	2.735283e-06	5.609173e-09	1.895611e+01	3.698386e+02
1.500000e-06	2.751501e-06	5.624291e-09	1.906850e+01	3.709941e+02
1.510000e-06	2.766627e-06	5.639609e-09	1.917333e+01	3.720793e+02
1.520000e-06	2.780761e-06	5.655954e-09	1.927128e+01	3.731206e+02
1.530000e-06	2.793901e-06	5.670661e-09	1.936234e+01	3.741259e+02
1.540000e-06	2.805968e-06	5.683374e-09	1.944597e+01	3.750831e+02
1.550000e-06	2.816757e-06	5.697824e-09	1.952074e+01	3.759658e+02
1.560000e-06	2.826244e-06	5.712914e-09	1.958649e+01	3.767447e+02
1.570000e-06	2.834750e-06	5.725242e-09	1.964544e+01	3.773995e+02
1.580000e-06	2.842349e-06	5.732969e-09	1.969810e+01	3.779268e+02
1.590000e-06	2.848966e-06	5.739298e-09	1.974396e+01	3.783415e+02
1.600000e-06	2.854635e-06	5.744062e-09	1.978324e+01	3.786704e+02
1.610000e-06	2.859449e-06	5.746517e-09	1.981660e+01	3.789422e+02
1.620000e-06	2.863440e-06	5.748447e-09	1.984426e+01	3.791766e+02
1.630000e-06	2.866274e-06	5.752634e-09	1.986390e+01	3.793773e+02
1.640000e-06	2.867823e-06	5.758223e-09	1.987464e+01	3.795322e+02
1.650000e-06	2.868380e-06	5.762074e-09	1.987850e+01	3.796187e+02
1.660000e-06	2.868019e-06	5.762990e-09	1.987600e+01	3.796142e+02
1.670000e-06	2.866715e-06	5.759850e-09	1.986696e+01	3.795054e+02
1.680000e-06	2.864522e-06	5.755621e-09	1.985176e+01	3.792939e+02
1.690000e-06	2.861546e-06	5.750684e-09	1.983114e+01	3.789959e+02
1.700000e-06	2.857824e-06	5.742186e-09	1.980534e+01	3.786357e+02
1.710000e-06	2.853101e-06	5.736658e-09	1.977261e+01	3.782364e+02
1.720000e-06	2.847169e-06	5.747819e-09	1.973150e+01	3.778112e+02
1.730000e-06	2.840217e-06	5.768123e-09	1.968332e+01	3.773589e+02
1.740000e-06	2.832382e-06	5.681648e-09	1.962903e+01	3.768659e+02
1.750000e-06	2.823243e-06	5.584656e-09	1.956569e+01	3.763124e+02
1.760000e-06	2.812459e-06	5.656096e-09	1.949095e+01	3.756821e+02
1.770000e-06	2.800667e-06	5.850851e-09	1.940923e+01	3.749701e+02
1.780000e-06	2.788752e-06	5.728417e-09	1.932666e+01	3.741864e+02
1.790000e-06	2.776231e-06	5.480044e-09	1.923988e+01	3.733531e+02
1.800000e-06	2.761972e-06	5.661674e-09	1.914107e+01	3.724970e+02
1.810000e-06	2.746420e-06	5.792309e-09	1.903329e+01	3.716393e+02
1.820000e-06	2.730466e-06	5.528616e-09	1.892273e+01	3.707876e+02
1.830000e-06	2.713502e-06	5.506180e-09	1.880516e+01	3.699317e+02
1.840000e-06	2.695116e-06	5.815395e-09	1.867774e+01	3.690464e+02
1.850000e-06	2.675999e-06	5.631791e-09	1.854526e+01	3.680989e+02
1.860000e-06	2.656192e-06	5.411323e-09	1.840799e+01	3.670592e+02
1.870000e-06	2.635121e-06	5.731388e-09	1.826196e+01	3.659093e+02
1.880000e-06	2.612934e-06	5.629666e-09	1.810821e+01	3.646476e+02
1.890000e-06	2.589876e-06	5.312272e-09	1.794841e+01	3.632881e+02
1.900000e-06	2.565792e-06	5.577171e-09	1.778149e+01	3.618544e+02
1.910000e-06	2.540913e-06	5.610162e-09	1.760908e+01	3.603703e+02
1.920000e-06	2.515297e-06	5.393449e-09	1.743156e+01	3.588516e+02
1.930000e-06	2.488725e-06	5.471559e-09	1.724741e+01	3.573012e+02
1.940000e-06	2.461469e-06	5.451736e-09	1.705852e+01	3.557093e+02
1.950000e-06	2.433507e-06	5.366742e-09	1.686474e+01	3.540583e+02
1.960000e-06	2.404229e-06	5.413100e-09	1.666183e+01	3.523302e+02
1.970000e-06	2.373796e-06	5.289164e-09	1.645092e+01	3.505144e+02
1.980000e-06	2.342659e-06	5.278162e-09	1.623514e+01	3.486114e+02
1.990000e-06	2.310812e-06	5.397948e-09	1.601443e+01	3.466332e+02
2.000000e-06	2.278303e-06	5.211574e-09	1.578914e+01	3.445985e+02
2.010000e-06	2.244952e-06	5.197987e-09	1.555801e+01	3.425259e+02
2.020000e-06	2.210716e-06	5.272300e-09	1.532075e+01	3.404270e+02
2.030000e-06	2.175870e-06	5.081186e-09	1.507925e+01	3.383014e+02
2.040000e-06	2.140418e-06	5.114206e-09	1.483356e+01	3.361369e+02
2.050000e-06	2.104288e-06	5.166372e-09	1.458318e+01	3.339133e+02
2.060000e-06	2.067319e-06	4.993634e-09	1.432697e+01	3.316088e+02
2.070000e-06	2.029168e-06	5.013035e-09	1.406257e+01	3.292080e+02
2.080000e-06	1.990132e-06	5.028732e-09	1.379205e+01	3.267064e+02
2.090000e-06	1.950661e-06	4.917135e-09	1.351851e+01	3.241121e+02
2.100000e-06	1.910598e-06	4.904317e-09	1.324086e+01	3.214429e+02
2.110000e-06	1.869820e-06	4.849666e-09	1.295826e+01	3.187202e+02
2.120000e-06	1.828412e-06	4.813395e-09	1.267129e+01	3.159612e+02
2.130000e-06	1.786446e-06	4.796980e-09	1.238046e+01	3.131731e+02
2.140000e-06	1.743862e-06	4.716689e-09	1.208535e+01	3.103500e+02
2.150000e-06	1.700739e-06	4.688567e-09	1.178649e+01	3.074750e+02
2.160000e-06	1.657265e-06	4.650122e-09	1.148521e+01	3.045250e+02
2.170000e-06	1.613262e-06	4.601264e-09	1.118026e+01	3.014786e+02
2.180000e-06	1.568517e-06	4.554110e-09	1.087016e+01	2.983233e+02
2.190000e-06	1.523110e-06	4.490011e-09	1.055549e+01	2.950593e+02
2.200000e-06	1.477201e-06	4.445749e-09	1.023733e+01	2.916999e+02
2.210000e-06	1.430914e-06	4.402936e-09	9.916547e+00	2.882667e+02
2.220000e-06	1.384255e-06	4.352616e-09	9.593190e+00	2.847818e+02
2.230000e-06	1.337038e-06	4.302145e-09	9.265962e+00	2.812595e+02
2.240000e-06	1.289191e-06	4.227385e-09	8.934376e+00	2.777011e+02
2.250000e-06	1.240770e-06	4.184211e-09	8.598809e+00	2.740925e+02
2.260000e-06	1.191835e-06	4.136561e-09	8.259677e+00	2.704091e+02
2.270000e-06	1.142509e-06	4.054523e-09	7.917837e+00	2.666226e+02
2.280000e-06	1.092840e-06	4.010446e-09	7.573617e+00	2.627112e+02
2.290000e-06	1.042737e-06	3.958619e-09	7.226396e+00	2.586668e+02
2.300000e-06	9.921176e-07	3.902211e-09	6.875592e+00	2.544983e+02
2.310000e-06	9.411345e-07	3.835331e-09	6.522267e+00	2.502292e+02
2.320000e-06	8.899402e-07	3.753729e-09	6.167479e+00	2.458894e+02
2.330000e-06	8.385049e-07	3.691819e-09	5.811022e+00	2.415051e+02
2.340000e-06	7.867492e-07	3.624530e-09	5.452343e+00	2.370887e+02
2.350000e-06	7.345491e-07	3.555650e-09	5.090586e+00	2.326341e+02
2.360000e-06	6.819569e-07	3.487907e-09	4.726110e+00	2.281171e+02
2.370000e-06	6.289209e-07	3.420289e-09	4.358559e+00	2.235033e+02
2.380000e-06	5.754429e-07	3.358953e-09	3.987944e+00	2.187584e+02
2.390000e-06	5.216396e-07	3.284258e-09	3.615076e+00	2.138597e+02
2.400000e-06	4.674686e-07	3.198649e-09	3.239659e+00	2.088024e+02
2.410000e-06	4.131089e-07	3.118493e-09	2.862935e+00	2.036002e+02
2.420000e-06	3.586195e-07	3.037153e-09	2.485312e+00	1.982784e+02
2.430000e-06	3.039179e-07	2.959444e-09	2.106217e+00	1.928633e+02
2.440000e-06	2.490469e-07	2.876089e-09	1.725949e+00	1.873702e+02
2.450000e-06	1.940788e-07	2.787827e-09	1.345008e+00	1.817961e+02
2.460000e-06	1.390932e-07	2.708052e-09	9.639464e-01	1.761185e+02
2.470000e-06	8.408077e-08	2.623446e-09	5.826981e-01	1.703020e+02
2.480000e-06	2.902717e-08	2.532330e-09	2.011646e-01	1.643091e+02
2.490000e-06	-2.600889e-08	2.433056e-09	-1.802473e-01	1.581130e+02
2.500000e-06	-8.100830e-08	2.335201e-09	-5.614052e-01	1.517048e+02
2.510000e-06	-1.359996e-07	2.241079e-09	-9.425072e-01	1.450949e+02
2.520000e-06	-1.909594e-07	2.137993e-09	-1.323390e+00	1.383060e+02
2.530000e-06	-2.458825e-07	2.027847e-09	-1.704019e+00	1.313607e+02
2.540000e-06	-3.007494e-07	1.918917e-09	-2.084259e+00	1.242685e+02
2.550000e-06	-3.554828e-07	1.814092e-09	-2.463573e+00	1.170170e+02
2.560000e-06	-4.099869e-07	1.705004e-09	-2.841298e+00	1.095707e+02
2.570000e-06	-4.642168e-07	1.587232e-09	-3.217124e+00	1.018781e+02
2.580000e-06	-5.181507e-07	1.465139e-09	-3.590897e+00	9.388516e+01
2.590000e-06	-5.717465e-07	1.342678e-09	-3.962328e+00	8.554905e+01
2.600000e-06	-6.250557e-07	1.210500e-09	-4.331773e+00	7.684827e+01
2.610000e-06	-6.780042e-07	1.069319e-09	-4.698717e+00	6.778390e+01
2.620000e-06	-7.304977e-07	9.260841e-10	-5.062508e+00	5.837203e+01
2.630000e-06	-7.825900e-07	7.795546e-10	-5.423519e+00	4.862971e+01
2.640000e-06	-8.343075e-07	6.295843e-10	-5.781933e+00	3.855958e+01
2.650000e-06	-8.857066e-07	4.735940e-10	-6.138140e+00	2.813920e+01
2.660000e-06	-9.368593e-07	3.114345e-10	-6.492640e+00	1.731936e+01
2.670000e-06	-9.877401e-07	1.412808e-10	-6.845254e+00	6.032524e+00
2.680000e-06	-1.038264e-06	-3.765212e-11	-7.195395e+00	-5.790668e+00
2.690000e-06	-1.088356e-06	-2.291595e-10	-7.542544e+00	-1.820229e+01
2.700000e-06	-1.138029e-06	-4.322891e-10	-7.886790e+00	-3.122114e+01
2.710000e-06	-1.187329e-06	-6.414830e-10	-8.228445e+00	-4.482464e+01
2.720000e-06	-1.236132e-06	-8.541546e-10	-8.566664e+00	-5.895040e+01
2.730000e-06	-1.284325e-06	-1.073319e-09	-8.900653e+00	-7.350580e+01
2.740000e-06	-1.331743e-06	-1.301367e-09	-9.229267e+00	-8.838124e+01
2.750000e-06	-1.378367e-06	-1.532128e-09	-9.552384e+00	-1.034621e+02
2.760000e-06	-1.424506e-06	-1.761261e-09	-9.872138e+00	-1.186355e+02
2.770000e-06	-1.470272e-06	-1.991018e-09	-1.018931e+01	-1.337906e+02
2.780000e-06	-1.515677e-06	-2.226484e-09	-1.050397e+01	-1.488144e+02
2.790000e-06	-1.560704e-06	-2.460072e-09	-1.081602e+01	-1.635866e+02
2.800000e-06	-1.605160e-06	-2.681653e-09	-1.112411e+01	-1.779788e+02
2.810000e-06	-1.648973e-06	-2.891063e-09	-1.142775e+01	-1.918590e+02
2.820000e-06	-1.692370e-06	-3.093581e-09	-1.172849e+01	-2.051034e+02
2.830000e-06	-1.735464e-06	-3.287342e-09	-1.202714e+01	-2.176109e+02
2.840000e-06	-1.778082e-06	-3.465691e-09	-1.232250e+01	-2.293162e+02
2.850000e-06	-1.820043e-06	-3.629035e-09	-1.261330e+01	-2.401967e+02
2.860000e-06	-1.861360e-06	-3.783171e-09	-1.289963e+01	-2.502707e+02
2.870000e-06	-1.902079e-06	-3.933103e-09	-1.318183e+01	-2.595868e+02
2.880000e-06	-1.942114e-06	-4.072735e-09	-1.345927e+01	-2.682086e+02
2.890000e-06	-1.981558e-06	-4.197782e-09	-1.373263e+01	-2.761986e+02
2.900000e-06	-2.020489e-06	-4.310939e-09	-1.400243e+01	-2.836081e+02
2.910000e-06	-2.058599e-06	-4.415328e-09	-1.426654e+01	-2.904743e+02
2.920000e-06	-2.095659e-06	-4.510664e-09	-1.452337e+01	-2.968255e+02
2.930000e-06	-2.131737e-06	-4.597832e-09	-1.477341e+01	-3.026897e+02
2.940000e-06	-2.167098e-06	-4.681701e-09	-1.501846e+01	-3.081042e+02
