# Temperatura_=_26.55
# Concentracion g/m^3_=_13400.0
# C_Vs_to_Am_M_A/Vsm_=_65563218390.804596
# pendiente_HvsI_1/m_=_3716.3
# ordenada_HvsI_A/m_=_1297.0
# frecuencia_Hz_=_300847.28799949586

Tiempo_(s)	Campo_(V.s)	Magnetizacion_(V.s)	Campo_(kA/m)	Magnetizacion_(A/m)
0.000000e+00	-2.853182e-06	-5.767318e-09	-1.980333e+01	-3.757258e+02
1.000000e-08	-2.852246e-06	-5.767260e-09	-1.979684e+01	-3.755157e+02
2.000000e-08	-2.850367e-06	-5.761527e-09	-1.978380e+01	-3.752550e+02
3.000000e-08	-2.847230e-06	-5.752816e-09	-1.976202e+01	-3.749749e+02
4.000000e-08	-2.842990e-06	-5.747580e-09	-1.973260e+01	-3.746877e+02
5.000000e-08	-2.837979e-06	-5.742381e-09	-1.969782e+01	-3.743821e+02
6.000000e-08	-2.832172e-06	-5.729595e-09	-1.965751e+01	-3.740270e+02
7.000000e-08	-2.825367e-06	-5.708978e-09	-1.961028e+01	-3.735847e+02
8.000000e-08	-2.817482e-06	-5.726882e-09	-1.955555e+01	-3.730277e+02
9.000000e-08	-2.808386e-06	-5.787096e-09	-1.949241e+01	-3.723524e+02
1.000000e-07	-2.797940e-06	-5.778686e-09	-1.941992e+01	-3.715848e+02
1.100000e-07	-2.786258e-06	-5.613973e-09	-1.933883e+01	-3.707742e+02
1.200000e-07	-2.773732e-06	-5.572522e-09	-1.925189e+01	-3.699782e+02
1.300000e-07	-2.760380e-06	-5.729059e-09	-1.915922e+01	-3.692424e+02
1.400000e-07	-2.745966e-06	-5.750431e-09	-1.905917e+01	-3.685839e+02
1.500000e-07	-2.730597e-06	-5.516584e-09	-1.895250e+01	-3.679832e+02
1.600000e-07	-2.714024e-06	-5.596320e-09	-1.883747e+01	-3.673889e+02
1.700000e-07	-2.696146e-06	-5.760955e-09	-1.871339e+01	-3.667325e+02
1.800000e-07	-2.677468e-06	-5.543034e-09	-1.858375e+01	-3.659489e+02
1.900000e-07	-2.658134e-06	-5.503661e-09	-1.844955e+01	-3.649954e+02
2.000000e-07	-2.637893e-06	-5.650449e-09	-1.830906e+01	-3.638624e+02
2.100000e-07	-2.616739e-06	-5.520807e-09	-1.816223e+01	-3.625726e+02
2.200000e-07	-2.594846e-06	-5.406862e-09	-1.801028e+01	-3.611702e+02
2.300000e-07	-2.572065e-06	-5.590753e-09	-1.785216e+01	-3.597038e+02
2.400000e-07	-2.548261e-06	-5.543282e-09	-1.768694e+01	-3.582108e+02
2.500000e-07	-2.523672e-06	-5.372075e-09	-1.751628e+01	-3.567067e+02
2.600000e-07	-2.498266e-06	-5.424491e-09	-1.733994e+01	-3.551844e+02
2.700000e-07	-2.471799e-06	-5.457343e-09	-1.715624e+01	-3.536214e+02
2.800000e-07	-2.444267e-06	-5.350052e-09	-1.696514e+01	-3.519917e+02
2.900000e-07	-2.415715e-06	-5.337550e-09	-1.676697e+01	-3.502774e+02
3.000000e-07	-2.386261e-06	-5.318446e-09	-1.656254e+01	-3.484743e+02
3.100000e-07	-2.356125e-06	-5.313482e-09	-1.635337e+01	-3.465924e+02
3.200000e-07	-2.325347e-06	-5.306308e-09	-1.613974e+01	-3.446490e+02
3.300000e-07	-2.293792e-06	-5.198023e-09	-1.592073e+01	-3.426602e+02
3.400000e-07	-2.261505e-06	-5.194001e-09	-1.569663e+01	-3.406338e+02
3.500000e-07	-2.228598e-06	-5.183629e-09	-1.546823e+01	-3.385668e+02
3.600000e-07	-2.194920e-06	-5.115180e-09	-1.523448e+01	-3.364476e+02
3.700000e-07	-2.160112e-06	-5.118043e-09	-1.499288e+01	-3.342623e+02
3.800000e-07	-2.124199e-06	-5.094555e-09	-1.474362e+01	-3.320015e+02
3.900000e-07	-2.087612e-06	-4.983484e-09	-1.448968e+01	-3.296643e+02
4.000000e-07	-2.050458e-06	-4.998452e-09	-1.423180e+01	-3.272584e+02
4.100000e-07	-2.012583e-06	-4.996722e-09	-1.396892e+01	-3.247955e+02
4.200000e-07	-1.973969e-06	-4.893331e-09	-1.370091e+01	-3.222855e+02
4.300000e-07	-1.934668e-06	-4.860326e-09	-1.342812e+01	-3.197316e+02
4.400000e-07	-1.894718e-06	-4.851462e-09	-1.315084e+01	-3.171285e+02
4.500000e-07	-1.854299e-06	-4.806331e-09	-1.287030e+01	-3.144649e+02
4.600000e-07	-1.813500e-06	-4.753351e-09	-1.258712e+01	-3.117288e+02
4.700000e-07	-1.772054e-06	-4.712097e-09	-1.229945e+01	-3.089125e+02
4.800000e-07	-1.729623e-06	-4.659756e-09	-1.200495e+01	-3.060165e+02
4.900000e-07	-1.686129e-06	-4.626241e-09	-1.170307e+01	-3.030483e+02
5.000000e-07	-1.641890e-06	-4.580482e-09	-1.139601e+01	-3.000183e+02
5.100000e-07	-1.597211e-06	-4.525920e-09	-1.108590e+01	-2.969345e+02
5.200000e-07	-1.552152e-06	-4.474129e-09	-1.077316e+01	-2.937970e+02
5.300000e-07	-1.506578e-06	-4.430093e-09	-1.045684e+01	-2.905980e+02
5.400000e-07	-1.460430e-06	-4.391419e-09	-1.013654e+01	-2.873237e+02
5.500000e-07	-1.413730e-06	-4.333825e-09	-9.812406e+00	-2.839608e+02
5.600000e-07	-1.366572e-06	-4.269455e-09	-9.485091e+00	-2.805020e+02
5.700000e-07	-1.318970e-06	-4.208843e-09	-9.154693e+00	-2.769494e+02
5.800000e-07	-1.270887e-06	-4.169400e-09	-8.820960e+00	-2.733137e+02
5.900000e-07	-1.222437e-06	-4.110454e-09	-8.484677e+00	-2.696091e+02
6.000000e-07	-1.173582e-06	-4.043620e-09	-8.145587e+00	-2.658459e+02
6.100000e-07	-1.124284e-06	-3.987737e-09	-7.803416e+00	-2.620253e+02
6.200000e-07	-1.074461e-06	-3.933344e-09	-7.457608e+00	-2.581373e+02
6.300000e-07	-1.023950e-06	-3.871455e-09	-7.107022e+00	-2.541642e+02
6.400000e-07	-9.727275e-07	-3.800190e-09	-6.751497e+00	-2.500875e+02
6.500000e-07	-9.210309e-07	-3.734493e-09	-6.392682e+00	-2.458962e+02
6.600000e-07	-8.689784e-07	-3.670837e-09	-6.031397e+00	-2.415925e+02
6.700000e-07	-8.166344e-07	-3.608552e-09	-5.668088e+00	-2.371911e+02
6.800000e-07	-7.640775e-07	-3.535124e-09	-5.303301e+00	-2.327141e+02
6.900000e-07	-7.112373e-07	-3.463719e-09	-4.936549e+00	-2.281815e+02
7.000000e-07	-6.581091e-07	-3.395586e-09	-4.567797e+00	-2.236011e+02
7.100000e-07	-6.047710e-07	-3.327363e-09	-4.197589e+00	-2.189638e+02
7.200000e-07	-5.512289e-07	-3.252438e-09	-3.825964e+00	-2.142447e+02
7.300000e-07	-4.974262e-07	-3.171396e-09	-3.452531e+00	-2.094105e+02
7.400000e-07	-4.434015e-07	-3.095621e-09	-3.077557e+00	-2.044314e+02
7.500000e-07	-3.891907e-07	-3.019519e-09	-2.701291e+00	-1.992909e+02
7.600000e-07	-3.348602e-07	-2.939259e-09	-2.324194e+00	-1.939915e+02
7.700000e-07	-2.805090e-07	-2.849430e-09	-1.946954e+00	-1.885521e+02
7.800000e-07	-2.261115e-07	-2.762173e-09	-1.569392e+00	-1.829993e+02
7.900000e-07	-1.716330e-07	-2.679986e-09	-1.191268e+00	-1.773552e+02
8.000000e-07	-1.171446e-07	-2.596468e-09	-8.130761e-01	-1.716263e+02
8.100000e-07	-6.261064e-08	-2.504364e-09	-4.345673e-01	-1.657993e+02
8.200000e-07	-8.025629e-09	-2.409442e-09	-5.570420e-02	-1.598441e+02
8.300000e-07	4.652135e-08	-2.315381e-09	3.228949e-01	-1.537236e+02
8.400000e-07	1.010094e-07	-2.217567e-09	7.010848e-01	-1.474060e+02
8.500000e-07	1.554689e-07	-2.116203e-09	1.079077e+00	-1.408748e+02
8.600000e-07	2.099328e-07	-2.009087e-09	1.457099e+00	-1.341320e+02
8.700000e-07	2.643446e-07	-1.903466e-09	1.834760e+00	-1.271928e+02
8.800000e-07	3.186576e-07	-1.798015e-09	2.211735e+00	-1.200751e+02
8.900000e-07	3.728549e-07	-1.688628e-09	2.587908e+00	-1.127864e+02
9.000000e-07	4.269332e-07	-1.569704e-09	2.963254e+00	-1.053153e+02
9.100000e-07	4.808750e-07	-1.447556e-09	3.337653e+00	-9.762973e+01
9.200000e-07	5.346150e-07	-1.326359e-09	3.710650e+00	-8.968400e+01
9.300000e-07	5.881144e-07	-1.200069e-09	4.081978e+00	-8.143105e+01
9.400000e-07	6.413952e-07	-1.068028e-09	4.451789e+00	-7.283531e+01
9.500000e-07	6.944518e-07	-9.288907e-10	4.820044e+00	-6.388048e+01
9.600000e-07	7.472751e-07	-7.874553e-10	5.186680e+00	-5.456901e+01
9.700000e-07	7.998502e-07	-6.425196e-10	5.551592e+00	-4.491300e+01
9.800000e-07	8.521223e-07	-4.916225e-10	5.914402e+00	-3.492016e+01
9.900000e-07	9.040142e-07	-3.301014e-10	6.274573e+00	-2.458053e+01
1.000000e-06	9.555520e-07	-1.600378e-10	6.632286e+00	-1.385961e+01
1.010000e-06	1.006631e-06	1.327559e-11	6.986817e+00	-2.701315e+00
1.020000e-06	1.057026e-06	1.910001e-10	7.336597e+00	8.959320e+00
1.030000e-06	1.106683e-06	3.761278e-10	7.681252e+00	2.117778e+01
1.040000e-06	1.155736e-06	5.730214e-10	8.021720e+00	3.398183e+01
1.050000e-06	1.204472e-06	7.778360e-10	8.359984e+00	4.735936e+01
1.060000e-06	1.252941e-06	9.880282e-10	8.696402e+00	6.125582e+01
1.070000e-06	1.301096e-06	1.204526e-09	9.030631e+00	7.558118e+01
1.080000e-06	1.348844e-06	1.430096e-09	9.362045e+00	9.022319e+01
1.090000e-06	1.396047e-06	1.658178e-09	9.689668e+00	1.050616e+02
1.100000e-06	1.442750e-06	1.883623e-09	1.001382e+01	1.199784e+02
1.110000e-06	1.488968e-06	2.108031e-09	1.033462e+01	1.348617e+02
1.120000e-06	1.534618e-06	2.331550e-09	1.065146e+01	1.496038e+02
1.130000e-06	1.579718e-06	2.551214e-09	1.096449e+01	1.640956e+02
1.140000e-06	1.624431e-06	2.763212e-09	1.127483e+01	1.782235e+02
1.150000e-06	1.668843e-06	2.966833e-09	1.158309e+01	1.918708e+02
1.160000e-06	1.712837e-06	3.159988e-09	1.188844e+01	2.049254e+02
1.170000e-06	1.756085e-06	3.347888e-09	1.218862e+01	2.172918e+02
1.180000e-06	1.798356e-06	3.526675e-09	1.248201e+01	2.289028e+02
1.190000e-06	1.839660e-06	3.691359e-09	1.276869e+01	2.397279e+02
1.200000e-06	1.880282e-06	3.843886e-09	1.305064e+01	2.497734e+02
1.210000e-06	1.920466e-06	3.985714e-09	1.332955e+01	2.590751e+02
1.220000e-06	1.960035e-06	4.113771e-09	1.360419e+01	2.676862e+02
1.230000e-06	1.998889e-06	4.227431e-09	1.387387e+01	2.756636e+02
1.240000e-06	2.037099e-06	4.333555e-09	1.413907e+01	2.830582e+02
1.250000e-06	2.074584e-06	4.435915e-09	1.439925e+01	2.899113e+02
1.260000e-06	2.111411e-06	4.536110e-09	1.465486e+01	2.962569e+02
1.270000e-06	2.147758e-06	4.628283e-09	1.490714e+01	3.021285e+02
1.280000e-06	2.183448e-06	4.708569e-09	1.515485e+01	3.075643e+02
1.290000e-06	2.218146e-06	4.780606e-09	1.539568e+01	3.126103e+02
1.300000e-06	2.251733e-06	4.850176e-09	1.562881e+01	3.173168e+02
1.310000e-06	2.284482e-06	4.915599e-09	1.585611e+01	3.217320e+02
1.320000e-06	2.316575e-06	4.974520e-09	1.607886e+01	3.258932e+02
1.330000e-06	2.347898e-06	5.032066e-09	1.629627e+01	3.298223e+02
1.340000e-06	2.378461e-06	5.089447e-09	1.650840e+01	3.335250e+02
1.350000e-06	2.408231e-06	5.140270e-09	1.671503e+01	3.369965e+02
1.360000e-06	2.437197e-06	5.183319e-09	1.691607e+01	3.402311e+02
1.370000e-06	2.465531e-06	5.225984e-09	1.711273e+01	3.432311e+02
1.380000e-06	2.493029e-06	5.270353e-09	1.730359e+01	3.460116e+02
1.390000e-06	2.519252e-06	5.310813e-09	1.748560e+01	3.486004e+02
1.400000e-06	2.544276e-06	5.342232e-09	1.765928e+01	3.510308e+02
1.410000e-06	2.568458e-06	5.370050e-09	1.782713e+01	3.533325e+02
1.420000e-06	2.591775e-06	5.402195e-09	1.798897e+01	3.555231e+02
1.430000e-06	2.614175e-06	5.436338e-09	1.814444e+01	3.576047e+02
1.440000e-06	2.635742e-06	5.464543e-09	1.829413e+01	3.595663e+02
1.450000e-06	2.656538e-06	5.487272e-09	1.843847e+01	3.613919e+02
1.460000e-06	2.676623e-06	5.512488e-09	1.857788e+01	3.630700e+02
1.470000e-06	2.695828e-06	5.539951e-09	1.871118e+01	3.646009e+02
1.480000e-06	2.714037e-06	5.561745e-09	1.883756e+01	3.659989e+02
1.490000e-06	2.731319e-06	5.575567e-09	1.895751e+01	3.672876e+02
1.500000e-06	2.747580e-06	5.590334e-09	1.907037e+01	3.684919e+02
1.510000e-06	2.762676e-06	5.610209e-09	1.917516e+01	3.696290e+02
1.520000e-06	2.776753e-06	5.629028e-09	1.927286e+01	3.707026e+02
1.530000e-06	2.789870e-06	5.641463e-09	1.936390e+01	3.717036e+02
1.540000e-06	2.801924e-06	5.652718e-09	1.944756e+01	3.726159e+02
1.550000e-06	2.812680e-06	5.669302e-09	1.952222e+01	3.734258e+02
1.560000e-06	2.822113e-06	5.684949e-09	1.958769e+01	3.741301e+02
1.570000e-06	2.830583e-06	5.692789e-09	1.964648e+01	3.747391e+02
1.580000e-06	2.838157e-06	5.695623e-09	1.969905e+01	3.752734e+02
1.590000e-06	2.844776e-06	5.702538e-09	1.974499e+01	3.757553e+02
1.600000e-06	2.850446e-06	5.713388e-09	1.978435e+01	3.761987e+02
1.610000e-06	2.855219e-06	5.720335e-09	1.981747e+01	3.766018e+02
1.620000e-06	2.859147e-06	5.722295e-09	1.984474e+01	3.769463e+02
1.630000e-06	2.861954e-06	5.726034e-09	1.986422e+01	3.772038e+02
1.640000e-06	2.863479e-06	5.732756e-09	1.987481e+01	3.773476e+02
1.650000e-06	2.864011e-06	5.736841e-09	1.987850e+01	3.773641e+02
1.660000e-06	2.863699e-06	5.734521e-09	1.987633e+01	3.772603e+02
1.670000e-06	2.862460e-06	5.726651e-09	1.986774e+01	3.770626e+02
1.680000e-06	2.860322e-06	5.722103e-09	1.985289e+01	3.768077e+02
1.690000e-06	2.857358e-06	5.723948e-09	1.983232e+01	3.765288e+02
1.700000e-06	2.853579e-06	5.722677e-09	1.980609e+01	3.762424e+02
1.710000e-06	2.848817e-06	5.715824e-09	1.977304e+01	3.759413e+02
1.720000e-06	2.842869e-06	5.715416e-09	1.973175e+01	3.755972e+02
1.730000e-06	2.835888e-06	5.727958e-09	1.968330e+01	3.751724e+02
1.740000e-06	2.828060e-06	5.675890e-09	1.962897e+01	3.746363e+02
1.750000e-06	2.819015e-06	5.594659e-09	1.956619e+01	3.739805e+02
1.760000e-06	2.808374e-06	5.628900e-09	1.949233e+01	3.732257e+02
1.770000e-06	2.796734e-06	5.781229e-09	1.941154e+01	3.724179e+02
1.780000e-06	2.784897e-06	5.700330e-09	1.932938e+01	3.716147e+02
1.790000e-06	2.772371e-06	5.516967e-09	1.924245e+01	3.708652e+02
1.800000e-06	2.758185e-06	5.608583e-09	1.914398e+01	3.701927e+02
1.810000e-06	2.742709e-06	5.731660e-09	1.903657e+01	3.695841e+02
1.820000e-06	2.726695e-06	5.547094e-09	1.892542e+01	3.689928e+02
1.830000e-06	2.709690e-06	5.475616e-09	1.880739e+01	3.683520e+02
1.840000e-06	2.691335e-06	5.721008e-09	1.867999e+01	3.675945e+02
1.850000e-06	2.672209e-06	5.607103e-09	1.854724e+01	3.666724e+02
1.860000e-06	2.652415e-06	5.402444e-09	1.840986e+01	3.655701e+02
1.870000e-06	2.631437e-06	5.633678e-09	1.826425e+01	3.643048e+02
1.880000e-06	2.609370e-06	5.603837e-09	1.811109e+01	3.629182e+02
1.890000e-06	2.586380e-06	5.326865e-09	1.795152e+01	3.614594e+02
1.900000e-06	2.562343e-06	5.476975e-09	1.778469e+01	3.599687e+02
1.910000e-06	2.537526e-06	5.545588e-09	1.761244e+01	3.584659e+02
1.920000e-06	2.512007e-06	5.371150e-09	1.743531e+01	3.569475e+02
1.930000e-06	2.485559e-06	5.385633e-09	1.725174e+01	3.553931e+02
1.940000e-06	2.458339e-06	5.414547e-09	1.706282e+01	3.537764e+02
1.950000e-06	2.430325e-06	5.335647e-09	1.686838e+01	3.520773e+02
1.960000e-06	2.401149e-06	5.341588e-09	1.666587e+01	3.502891e+02
1.970000e-06	2.370909e-06	5.260150e-09	1.645598e+01	3.484195e+02
1.980000e-06	2.339872e-06	5.223538e-09	1.624056e+01	3.464851e+02
1.990000e-06	2.308100e-06	5.305574e-09	1.602003e+01	3.445029e+02
2.000000e-06	2.275596e-06	5.185001e-09	1.579444e+01	3.424826e+02
2.010000e-06	2.242245e-06	5.150506e-09	1.556295e+01	3.404229e+02
2.020000e-06	2.208086e-06	5.202899e-09	1.532586e+01	3.383134e+02
2.030000e-06	2.173325e-06	5.062433e-09	1.508459e+01	3.361402e+02
2.040000e-06	2.137910e-06	5.061443e-09	1.483878e+01	3.338925e+02
2.050000e-06	2.101804e-06	5.104472e-09	1.458818e+01	3.315681e+02
2.060000e-06	2.064968e-06	4.963889e-09	1.433251e+01	3.291730e+02
2.070000e-06	2.027045e-06	4.957195e-09	1.406929e+01	3.267188e+02
2.080000e-06	1.988125e-06	4.971011e-09	1.379915e+01	3.242161e+02
2.090000e-06	1.948644e-06	4.875591e-09	1.352513e+01	3.216696e+02
2.100000e-06	1.908570e-06	4.855228e-09	1.324698e+01	3.190754e+02
2.110000e-06	1.867845e-06	4.808679e-09	1.296432e+01	3.164229e+02
2.120000e-06	1.826494e-06	4.762505e-09	1.267731e+01	3.136998e+02
2.130000e-06	1.784570e-06	4.743763e-09	1.238633e+01	3.108975e+02
2.140000e-06	1.742110e-06	4.676471e-09	1.209162e+01	3.080147e+02
2.150000e-06	1.699089e-06	4.639592e-09	1.179302e+01	3.050580e+02
2.160000e-06	1.655638e-06	4.598622e-09	1.149144e+01	3.020378e+02
2.170000e-06	1.611708e-06	4.547509e-09	1.118653e+01	2.989626e+02
2.180000e-06	1.567097e-06	4.511519e-09	1.087689e+01	2.958345e+02
2.190000e-06	1.521882e-06	4.453725e-09	1.056306e+01	2.926467e+02
2.200000e-06	1.476161e-06	4.398075e-09	1.024573e+01	2.893863e+02
2.210000e-06	1.429966e-06	4.355129e-09	9.925091e+00	2.860394e+02
2.220000e-06	1.383387e-06	4.303580e-09	9.601802e+00	2.825972e+02
2.230000e-06	1.336316e-06	4.255218e-09	9.275092e+00	2.790602e+02
2.240000e-06	1.288574e-06	4.186674e-09	8.943722e+00	2.754377e+02
2.250000e-06	1.240154e-06	4.139030e-09	8.607652e+00	2.717438e+02
2.260000e-06	1.191266e-06	4.097240e-09	8.268330e+00	2.679900e+02
2.270000e-06	1.142065e-06	4.022498e-09	7.926832e+00	2.641795e+02
2.280000e-06	1.092470e-06	3.965563e-09	7.582606e+00	2.603041e+02
2.290000e-06	1.042448e-06	3.905873e-09	7.235409e+00	2.563470e+02
2.300000e-06	9.919638e-07	3.849204e-09	6.885013e+00	2.522893e+02
2.310000e-06	9.410663e-07	3.790889e-09	6.531743e+00	2.481182e+02
2.320000e-06	8.899159e-07	3.717974e-09	6.176719e+00	2.438331e+02
2.330000e-06	8.385372e-07	3.653118e-09	5.820111e+00	2.394470e+02
2.340000e-06	7.868420e-07	3.587355e-09	5.461305e+00	2.349813e+02
2.350000e-06	7.347036e-07	3.520195e-09	5.099424e+00	2.304569e+02
2.360000e-06	6.821010e-07	3.452340e-09	4.734320e+00	2.258846e+02
2.370000e-06	6.290915e-07	3.376674e-09	4.366392e+00	2.212583e+02
2.380000e-06	5.757121e-07	3.307073e-09	3.995897e+00	2.165555e+02
2.390000e-06	5.220208e-07	3.238177e-09	3.623237e+00	2.117437e+02
2.400000e-06	4.680679e-07	3.162054e-09	3.248761e+00	2.067916e+02
2.410000e-06	4.138273e-07	3.086646e-09	2.872288e+00	2.016797e+02
2.420000e-06	3.593941e-07	3.005857e-09	2.494479e+00	1.964070e+02
2.430000e-06	3.048228e-07	2.927995e-09	2.115711e+00	1.909901e+02
2.440000e-06	2.500776e-07	2.844743e-09	1.735736e+00	1.854550e+02
2.450000e-06	1.952242e-07	2.752767e-09	1.355010e+00	1.798255e+02
2.460000e-06	1.403506e-07	2.665768e-09	9.741441e-01	1.741116e+02
2.470000e-06	8.550637e-08	2.579545e-09	5.934818e-01	1.683033e+02
2.480000e-06	3.057491e-08	2.494866e-09	2.122140e-01	1.623731e+02
2.490000e-06	-2.442213e-08	2.404442e-09	-1.695089e-01	1.562841e+02
2.500000e-06	-7.938391e-08	2.307914e-09	-5.509871e-01	1.500028e+02
2.510000e-06	-1.343140e-07	2.210675e-09	-9.322451e-01	1.435096e+02
2.520000e-06	-1.891930e-07	2.108696e-09	-1.313149e+00	1.368030e+02
2.530000e-06	-2.440105e-07	1.999932e-09	-1.693626e+00	1.298969e+02
2.540000e-06	-2.987509e-07	1.889091e-09	-2.073567e+00	1.228094e+02
2.550000e-06	-3.533358e-07	1.780200e-09	-2.452429e+00	1.155509e+02
2.560000e-06	-4.077290e-07	1.672995e-09	-2.829961e+00	1.081135e+02
2.570000e-06	-4.619525e-07	1.561603e-09	-3.206315e+00	1.004687e+02
2.580000e-06	-5.158983e-07	1.442509e-09	-3.580742e+00	9.257244e+01
2.590000e-06	-5.695055e-07	1.319388e-09	-3.952818e+00	8.437682e+01
2.600000e-06	-6.227994e-07	1.188893e-09	-4.322720e+00	7.584347e+01
2.610000e-06	-6.757268e-07	1.050661e-09	-4.690078e+00	6.695243e+01
2.620000e-06	-7.282084e-07	9.054173e-10	-5.054341e+00	5.770325e+01
2.630000e-06	-7.802525e-07	7.574233e-10	-5.415569e+00	4.810725e+01
2.640000e-06	-8.319428e-07	6.105676e-10	-5.774340e+00	3.817403e+01
2.650000e-06	-8.833640e-07	4.593268e-10	-6.131244e+00	2.789751e+01
2.660000e-06	-9.345215e-07	3.008499e-10	-6.486317e+00	1.724766e+01
2.670000e-06	-9.853794e-07	1.348513e-10	-6.839311e+00	6.171588e+00
2.680000e-06	-1.035861e-06	-3.886623e-11	-7.189694e+00	-5.395361e+00
2.690000e-06	-1.085912e-06	-2.238401e-10	-7.537088e+00	-1.751178e+01
2.700000e-06	-1.135528e-06	-4.212439e-10	-7.881461e+00	-3.021153e+01
2.710000e-06	-1.184712e-06	-6.279213e-10	-8.222836e+00	-4.349009e+01
2.720000e-06	-1.233445e-06	-8.388212e-10	-8.561082e+00	-5.730023e+01
2.730000e-06	-1.281506e-06	-1.053916e-09	-8.894667e+00	-7.155741e+01
2.740000e-06	-1.328780e-06	-1.274698e-09	-9.222780e+00	-8.615226e+01
2.750000e-06	-1.375358e-06	-1.499030e-09	-9.546068e+00	-1.009650e+02
2.760000e-06	-1.421375e-06	-1.724396e-09	-9.865462e+00	-1.158768e+02
2.770000e-06	-1.467041e-06	-1.950504e-09	-1.018242e+01	-1.307747e+02
2.780000e-06	-1.512419e-06	-2.181394e-09	-1.049738e+01	-1.455505e+02
2.790000e-06	-1.557378e-06	-2.412917e-09	-1.080944e+01	-1.600958e+02
2.800000e-06	-1.601752e-06	-2.635605e-09	-1.111743e+01	-1.742978e+02
2.810000e-06	-1.645552e-06	-2.843896e-09	-1.142143e+01	-1.880400e+02
2.820000e-06	-1.688938e-06	-3.042328e-09	-1.172257e+01	-2.012088e+02
2.830000e-06	-1.731982e-06	-3.233243e-09	-1.202133e+01	-2.137046e+02
2.840000e-06	-1.774524e-06	-3.413515e-09	-1.231660e+01	-2.254545e+02
2.850000e-06	-1.816421e-06	-3.581787e-09	-1.260740e+01	-2.364211e+02
2.860000e-06	-1.857712e-06	-3.737841e-09	-1.289399e+01	-2.466045e+02
2.870000e-06	-1.898315e-06	-3.885334e-09	-1.317580e+01	-2.560360e+02
2.880000e-06	-1.938201e-06	-4.025140e-09	-1.345265e+01	-2.647668e+02
2.890000e-06	-1.977559e-06	-4.154855e-09	-1.372582e+01	-2.728540e+02
2.900000e-06	-2.016430e-06	-4.272153e-09	-1.399561e+01	-2.803500e+02
2.910000e-06	-2.054533e-06	-4.377317e-09	-1.426008e+01	-2.872977e+02
2.920000e-06	-2.091590e-06	-4.472558e-09	-1.451729e+01	-2.937322e+02
2.930000e-06	-2.127650e-06	-4.562385e-09	-1.476757e+01	-2.996865e+02
2.940000e-06	-2.163012e-06	-4.649925e-09	-1.501301e+01	-3.051976e+02
