# Temperatura_=_25.23
# Concentracion g/m^3_=_13400.0
# C_Vs_to_Am_M_A/Vsm_=_65563218390.804596
# pendiente_HvsI_1/m_=_3716.3
# ordenada_HvsI_A/m_=_1297.0
# frecuencia_Hz_=_300844.1623652164

Tiempo_(s)	Campo_(V.s)	Magnetizacion_(V.s)	Campo_(kA/m)	Magnetizacion_(A/m)
0.000000e+00	-2.855355e-06	-5.726050e-09	-1.980079e+01	-3.739205e+02
1.000000e-08	-2.854503e-06	-5.725277e-09	-1.979488e+01	-3.737885e+02
2.000000e-08	-2.852730e-06	-5.724902e-09	-1.978259e+01	-3.735954e+02
3.000000e-08	-2.849719e-06	-5.721966e-09	-1.976171e+01	-3.733544e+02
4.000000e-08	-2.845649e-06	-5.717696e-09	-1.973349e+01	-3.730701e+02
5.000000e-08	-2.840796e-06	-5.711390e-09	-1.969984e+01	-3.727352e+02
6.000000e-08	-2.835082e-06	-5.699633e-09	-1.966021e+01	-3.723333e+02
7.000000e-08	-2.828352e-06	-5.675093e-09	-1.961354e+01	-3.718455e+02
8.000000e-08	-2.820585e-06	-5.683278e-09	-1.955968e+01	-3.712600e+02
9.000000e-08	-2.811674e-06	-5.746972e-09	-1.949788e+01	-3.705800e+02
1.000000e-07	-2.801315e-06	-5.758049e-09	-1.942605e+01	-3.698272e+02
1.100000e-07	-2.789696e-06	-5.589542e-09	-1.934548e+01	-3.690378e+02
1.200000e-07	-2.777289e-06	-5.513645e-09	-1.925944e+01	-3.682526e+02
1.300000e-07	-2.764042e-06	-5.690163e-09	-1.916757e+01	-3.675039e+02
1.400000e-07	-2.749795e-06	-5.749626e-09	-1.906877e+01	-3.668041e+02
1.500000e-07	-2.734629e-06	-5.487381e-09	-1.896360e+01	-3.661390e+02
1.600000e-07	-2.718269e-06	-5.542911e-09	-1.885016e+01	-3.654711e+02
1.700000e-07	-2.700506e-06	-5.746887e-09	-1.872697e+01	-3.647489e+02
1.800000e-07	-2.681889e-06	-5.521028e-09	-1.859788e+01	-3.639221e+02
1.900000e-07	-2.662687e-06	-5.432923e-09	-1.846472e+01	-3.629563e+02
2.000000e-07	-2.642559e-06	-5.617005e-09	-1.832513e+01	-3.618423e+02
2.100000e-07	-2.621495e-06	-5.504319e-09	-1.817907e+01	-3.605970e+02
2.200000e-07	-2.599749e-06	-5.346372e-09	-1.802827e+01	-3.592564e+02
2.300000e-07	-2.577147e-06	-5.555790e-09	-1.787153e+01	-3.578621e+02
2.400000e-07	-2.553495e-06	-5.539048e-09	-1.770751e+01	-3.564469e+02
2.500000e-07	-2.529044e-06	-5.331174e-09	-1.753795e+01	-3.550252e+02
2.600000e-07	-2.503794e-06	-5.385380e-09	-1.736285e+01	-3.535891e+02
2.700000e-07	-2.477445e-06	-5.428341e-09	-1.718013e+01	-3.521141e+02
2.800000e-07	-2.450000e-06	-5.306430e-09	-1.698982e+01	-3.505686e+02
2.900000e-07	-2.421601e-06	-5.310921e-09	-1.679288e+01	-3.489268e+02
3.000000e-07	-2.392335e-06	-5.301156e-09	-1.658993e+01	-3.471770e+02
3.100000e-07	-2.362354e-06	-5.279823e-09	-1.638202e+01	-3.453254e+02
3.200000e-07	-2.331713e-06	-5.294609e-09	-1.616953e+01	-3.433921e+02
3.300000e-07	-2.300248e-06	-5.197775e-09	-1.595134e+01	-3.414031e+02
3.400000e-07	-2.268024e-06	-5.158049e-09	-1.572788e+01	-3.393801e+02
3.500000e-07	-2.235225e-06	-5.153708e-09	-1.550043e+01	-3.373332e+02
3.600000e-07	-2.201719e-06	-5.101743e-09	-1.526808e+01	-3.352586e+02
3.700000e-07	-2.167139e-06	-5.095205e-09	-1.502828e+01	-3.331407e+02
3.800000e-07	-2.131386e-06	-5.087987e-09	-1.478035e+01	-3.309598e+02
3.900000e-07	-2.094864e-06	-4.992489e-09	-1.452708e+01	-3.286989e+02
4.000000e-07	-2.057816e-06	-4.989297e-09	-1.427017e+01	-3.263503e+02
4.100000e-07	-2.020078e-06	-4.985989e-09	-1.400847e+01	-3.239169e+02
4.200000e-07	-1.981555e-06	-4.890782e-09	-1.374132e+01	-3.214096e+02
4.300000e-07	-1.942315e-06	-4.845934e-09	-1.346921e+01	-3.188422e+02
4.400000e-07	-1.902425e-06	-4.836565e-09	-1.319259e+01	-3.162255e+02
4.500000e-07	-1.862021e-06	-4.801817e-09	-1.291241e+01	-3.135631e+02
4.600000e-07	-1.821201e-06	-4.752026e-09	-1.262933e+01	-3.108503e+02
4.700000e-07	-1.779708e-06	-4.709192e-09	-1.234160e+01	-3.080770e+02
4.800000e-07	-1.737207e-06	-4.651639e-09	-1.204686e+01	-3.052317e+02
4.900000e-07	-1.693702e-06	-4.613670e-09	-1.174518e+01	-3.023059e+02
5.000000e-07	-1.649495e-06	-4.575383e-09	-1.143862e+01	-2.992967e+02
5.100000e-07	-1.604857e-06	-4.521884e-09	-1.112907e+01	-2.962072e+02
5.200000e-07	-1.559866e-06	-4.463133e-09	-1.081707e+01	-2.930440e+02
5.300000e-07	-1.514399e-06	-4.421909e-09	-1.050178e+01	-2.898143e+02
5.400000e-07	-1.468291e-06	-4.382636e-09	-1.018204e+01	-2.865226e+02
5.500000e-07	-1.421582e-06	-4.321240e-09	-9.858125e+00	-2.831688e+02
5.600000e-07	-1.374409e-06	-4.260322e-09	-9.531000e+00	-2.797488e+02
5.700000e-07	-1.326792e-06	-4.203468e-09	-9.200795e+00	-2.762558e+02
5.800000e-07	-1.278722e-06	-4.163548e-09	-8.867447e+00	-2.726821e+02
5.900000e-07	-1.230313e-06	-4.109574e-09	-8.531753e+00	-2.690215e+02
6.000000e-07	-1.181543e-06	-4.043101e-09	-8.193549e+00	-2.652696e+02
6.100000e-07	-1.132260e-06	-3.978802e-09	-7.851791e+00	-2.614241e+02
6.200000e-07	-1.082373e-06	-3.921795e-09	-7.505839e+00	-2.574846e+02
6.300000e-07	-1.031865e-06	-3.862902e-09	-7.155591e+00	-2.534522e+02
6.400000e-07	-9.807979e-07	-3.792470e-09	-6.801458e+00	-2.493294e+02
6.500000e-07	-9.292051e-07	-3.723694e-09	-6.443682e+00	-2.451206e+02
6.600000e-07	-8.771644e-07	-3.661785e-09	-6.082800e+00	-2.408316e+02
6.700000e-07	-8.248436e-07	-3.606706e-09	-5.719975e+00	-2.364687e+02
6.800000e-07	-7.723148e-07	-3.538103e-09	-5.355707e+00	-2.320368e+02
6.900000e-07	-7.195242e-07	-3.461044e-09	-4.989625e+00	-2.275373e+02
7.000000e-07	-6.664391e-07	-3.385858e-09	-4.621500e+00	-2.229655e+02
7.100000e-07	-6.130972e-07	-3.319055e-09	-4.251595e+00	-2.183110e+02
7.200000e-07	-5.595347e-07	-3.247946e-09	-3.880159e+00	-2.135584e+02
7.300000e-07	-5.057927e-07	-3.166231e-09	-3.507479e+00	-2.086920e+02
7.400000e-07	-4.518670e-07	-3.085523e-09	-3.133525e+00	-2.036989e+02
7.500000e-07	-3.977354e-07	-3.010199e-09	-2.758143e+00	-1.985736e+02
7.600000e-07	-3.434794e-07	-2.938322e-09	-2.381898e+00	-1.933184e+02
7.700000e-07	-2.891672e-07	-2.855214e-09	-2.005264e+00	-1.879422e+02
7.800000e-07	-2.347746e-07	-2.765462e-09	-1.628072e+00	-1.824555e+02
7.900000e-07	-1.803101e-07	-2.677164e-09	-1.250382e+00	-1.768648e+02
8.000000e-07	-1.258089e-07	-2.592540e-09	-8.724364e-01	-1.711682e+02
8.100000e-07	-7.128165e-08	-2.502348e-09	-4.943110e-01	-1.653537e+02
8.200000e-07	-1.673954e-08	-2.407586e-09	-1.160823e-01	-1.594011e+02
8.300000e-07	3.784773e-08	-2.313568e-09	2.624595e-01	-1.532877e+02
8.400000e-07	9.241705e-08	-2.219740e-09	6.408769e-01	-1.469944e+02
8.500000e-07	1.469169e-07	-2.124929e-09	1.018813e+00	-1.405110e+02
8.600000e-07	2.013983e-07	-2.019772e-09	1.396620e+00	-1.338376e+02
8.700000e-07	2.558549e-07	-1.909046e-09	1.774256e+00	-1.269814e+02
8.800000e-07	3.102373e-07	-1.799107e-09	2.151377e+00	-1.199504e+02
8.900000e-07	3.645367e-07	-1.692536e-09	2.527922e+00	-1.127458e+02
9.000000e-07	4.187215e-07	-1.578603e-09	2.903673e+00	-1.053562e+02
9.100000e-07	4.727639e-07	-1.457034e-09	3.278437e+00	-9.775643e+01
9.200000e-07	5.266117e-07	-1.335932e-09	3.651851e+00	-8.991084e+01
9.300000e-07	5.801825e-07	-1.214083e-09	4.023344e+00	-8.178098e+01
9.400000e-07	6.334829e-07	-1.085593e-09	4.392962e+00	-7.333398e+01
9.500000e-07	6.865346e-07	-9.468310e-10	4.760855e+00	-6.454866e+01
9.600000e-07	7.393742e-07	-8.044933e-10	5.127277e+00	-5.541670e+01
9.700000e-07	7.919686e-07	-6.597743e-10	5.491999e+00	-4.593827e+01
9.800000e-07	8.443047e-07	-5.134252e-10	5.854930e+00	-3.611361e+01
9.900000e-07	8.964089e-07	-3.576523e-10	6.216253e+00	-2.593377e+01
1.000000e-06	9.481976e-07	-1.891968e-10	6.575388e+00	-1.537435e+01
1.010000e-06	9.994726e-07	-1.597081e-11	6.930960e+00	-4.395191e+00
1.020000e-06	1.050095e-06	1.561495e-10	7.282009e+00	7.053076e+00
1.030000e-06	1.100085e-06	3.336669e-10	7.628667e+00	1.901721e+01
1.040000e-06	1.149445e-06	5.254920e-10	7.970961e+00	3.152750e+01
1.050000e-06	1.198281e-06	7.280372e-10	8.309623e+00	4.458602e+01
1.060000e-06	1.246813e-06	9.363362e-10	8.646174e+00	5.816025e+01
1.070000e-06	1.295104e-06	1.148462e-09	8.981051e+00	7.218358e+01
1.080000e-06	1.342971e-06	1.368661e-09	9.312991e+00	8.656176e+01
1.090000e-06	1.390273e-06	1.594481e-09	9.641015e+00	1.011828e+02
1.100000e-06	1.437081e-06	1.818941e-09	9.965610e+00	1.159268e+02
1.110000e-06	1.483411e-06	2.038870e-09	1.028689e+01	1.306735e+02
1.120000e-06	1.529254e-06	2.258711e-09	1.060479e+01	1.453054e+02
1.130000e-06	1.574540e-06	2.479303e-09	1.091883e+01	1.597084e+02
1.140000e-06	1.619303e-06	2.695281e-09	1.122924e+01	1.737711e+02
1.150000e-06	1.663762e-06	2.899971e-09	1.153755e+01	1.873851e+02
1.160000e-06	1.707812e-06	3.092686e-09	1.184302e+01	2.004489e+02
1.170000e-06	1.751217e-06	3.281163e-09	1.214402e+01	2.128735e+02
1.180000e-06	1.793746e-06	3.462138e-09	1.243894e+01	2.245902e+02
1.190000e-06	1.835238e-06	3.628959e-09	1.272668e+01	2.355571e+02
1.200000e-06	1.875987e-06	3.780104e-09	1.300926e+01	2.457619e+02
1.210000e-06	1.916289e-06	3.922486e-09	1.328873e+01	2.552204e+02
1.220000e-06	1.956002e-06	4.058580e-09	1.356413e+01	2.639700e+02
1.230000e-06	1.994991e-06	4.181764e-09	1.383450e+01	2.720614e+02
1.240000e-06	2.033323e-06	4.288492e-09	1.410032e+01	2.795495e+02
1.250000e-06	2.070931e-06	4.385113e-09	1.436111e+01	2.864870e+02
1.260000e-06	2.107860e-06	4.482696e-09	1.461720e+01	2.929218e+02
1.270000e-06	2.144314e-06	4.577493e-09	1.486999e+01	2.988970e+02
1.280000e-06	2.180170e-06	4.662704e-09	1.511865e+01	3.044536e+02
1.290000e-06	2.215086e-06	4.739329e-09	1.536077e+01	3.096316e+02
1.300000e-06	2.248883e-06	4.810576e-09	1.559514e+01	3.144709e+02
1.310000e-06	2.281722e-06	4.876975e-09	1.582287e+01	3.190093e+02
1.320000e-06	2.313889e-06	4.937836e-09	1.604593e+01	3.232785e+02
1.330000e-06	2.345321e-06	4.994796e-09	1.626390e+01	3.273017e+02
1.340000e-06	2.375943e-06	5.048337e-09	1.647626e+01	3.310916e+02
1.350000e-06	2.405808e-06	5.099761e-09	1.668336e+01	3.346529e+02
1.360000e-06	2.434889e-06	5.148670e-09	1.688502e+01	3.379859e+02
1.370000e-06	2.463358e-06	5.195552e-09	1.708244e+01	3.410921e+02
1.380000e-06	2.491094e-06	5.239372e-09	1.727478e+01	3.439786e+02
1.390000e-06	2.517626e-06	5.278097e-09	1.745877e+01	3.466600e+02
1.400000e-06	2.542924e-06	5.310815e-09	1.763421e+01	3.491572e+02
1.410000e-06	2.567277e-06	5.340060e-09	1.780308e+01	3.514934e+02
1.420000e-06	2.590767e-06	5.372605e-09	1.796598e+01	3.536891e+02
1.430000e-06	2.613419e-06	5.407376e-09	1.812306e+01	3.557583e+02
1.440000e-06	2.635210e-06	5.437882e-09	1.827417e+01	3.577071e+02
1.450000e-06	2.656161e-06	5.463302e-09	1.841946e+01	3.595357e+02
1.460000e-06	2.676429e-06	5.487072e-09	1.856001e+01	3.612416e+02
1.470000e-06	2.695862e-06	5.509911e-09	1.869477e+01	3.628241e+02
1.480000e-06	2.714290e-06	5.531036e-09	1.882256e+01	3.642868e+02
1.490000e-06	2.731678e-06	5.549942e-09	1.894314e+01	3.656375e+02
1.500000e-06	2.748072e-06	5.568160e-09	1.905683e+01	3.668862e+02
1.510000e-06	2.763423e-06	5.586451e-09	1.916328e+01	3.680415e+02
1.520000e-06	2.777623e-06	5.603173e-09	1.926175e+01	3.691077e+02
1.530000e-06	2.790805e-06	5.617252e-09	1.935317e+01	3.700841e+02
1.540000e-06	2.802956e-06	5.629458e-09	1.943742e+01	3.709668e+02
1.550000e-06	2.813849e-06	5.640914e-09	1.951296e+01	3.717521e+02
1.560000e-06	2.823456e-06	5.650768e-09	1.957958e+01	3.724404e+02
1.570000e-06	2.832070e-06	5.659570e-09	1.963932e+01	3.730380e+02
1.580000e-06	2.839818e-06	5.667940e-09	1.969305e+01	3.735567e+02
1.590000e-06	2.846576e-06	5.676638e-09	1.973992e+01	3.740100e+02
1.600000e-06	2.852337e-06	5.683357e-09	1.977986e+01	3.744082e+02
1.610000e-06	2.857256e-06	5.686727e-09	1.981398e+01	3.747544e+02
1.620000e-06	2.861369e-06	5.689261e-09	1.984250e+01	3.750433e+02
1.630000e-06	2.864300e-06	5.695089e-09	1.986283e+01	3.752634e+02
1.640000e-06	2.865928e-06	5.701825e-09	1.987411e+01	3.754019e+02
1.650000e-06	2.866560e-06	5.703123e-09	1.987850e+01	3.754505e+02
1.660000e-06	2.866303e-06	5.700799e-09	1.987671e+01	3.754100e+02
1.670000e-06	2.865166e-06	5.698317e-09	1.986883e+01	3.752902e+02
1.680000e-06	2.863164e-06	5.696012e-09	1.985495e+01	3.751066e+02
1.690000e-06	2.860305e-06	5.692503e-09	1.983512e+01	3.748732e+02
1.700000e-06	2.856663e-06	5.685065e-09	1.980987e+01	3.745964e+02
1.710000e-06	2.852113e-06	5.678471e-09	1.977831e+01	3.742713e+02
1.720000e-06	2.846348e-06	5.682686e-09	1.973833e+01	3.738825e+02
1.730000e-06	2.839504e-06	5.704349e-09	1.969088e+01	3.734109e+02
1.740000e-06	2.831844e-06	5.654296e-09	1.963775e+01	3.728428e+02
1.750000e-06	2.822962e-06	5.548528e-09	1.957616e+01	3.721783e+02
1.760000e-06	2.812408e-06	5.568471e-09	1.950297e+01	3.714359e+02
1.770000e-06	2.800762e-06	5.748512e-09	1.942222e+01	3.706496e+02
1.780000e-06	2.788986e-06	5.696143e-09	1.934055e+01	3.698605e+02
1.790000e-06	2.776737e-06	5.476884e-09	1.925561e+01	3.691034e+02
1.800000e-06	2.762862e-06	5.541921e-09	1.915939e+01	3.683948e+02
1.810000e-06	2.747509e-06	5.717905e-09	1.905292e+01	3.677254e+02
1.820000e-06	2.731596e-06	5.524950e-09	1.894258e+01	3.670612e+02
1.830000e-06	2.714808e-06	5.400038e-09	1.882615e+01	3.663523e+02
1.840000e-06	2.696610e-06	5.688637e-09	1.869996e+01	3.655470e+02
1.850000e-06	2.677575e-06	5.611096e-09	1.856796e+01	3.646071e+02
1.860000e-06	2.657929e-06	5.347838e-09	1.843172e+01	3.635187e+02
1.870000e-06	2.637098e-06	5.585543e-09	1.828727e+01	3.622943e+02
1.880000e-06	2.615108e-06	5.619075e-09	1.813477e+01	3.609674e+02
1.890000e-06	2.592237e-06	5.292223e-09	1.797617e+01	3.595795e+02
1.900000e-06	2.568329e-06	5.416609e-09	1.781038e+01	3.581660e+02
1.910000e-06	2.543563e-06	5.544121e-09	1.763864e+01	3.567451e+02
1.920000e-06	2.518106e-06	5.349236e-09	1.746210e+01	3.553127e+02
1.930000e-06	2.491721e-06	5.354306e-09	1.727913e+01	3.538466e+02
1.940000e-06	2.464568e-06	5.419322e-09	1.709084e+01	3.523156e+02
1.950000e-06	2.436715e-06	5.310550e-09	1.689768e+01	3.506920e+02
1.960000e-06	2.407655e-06	5.313115e-09	1.669617e+01	3.489612e+02
1.970000e-06	2.377401e-06	5.258880e-09	1.648637e+01	3.471263e+02
1.980000e-06	2.346349e-06	5.191190e-09	1.627103e+01	3.452054e+02
1.990000e-06	2.314630e-06	5.277700e-09	1.605107e+01	3.432242e+02
2.000000e-06	2.282279e-06	5.190151e-09	1.582673e+01	3.412058e+02
2.010000e-06	2.249087e-06	5.133053e-09	1.559656e+01	3.391627e+02
2.020000e-06	2.215047e-06	5.183144e-09	1.536050e+01	3.370936e+02
2.030000e-06	2.180368e-06	5.054435e-09	1.512002e+01	3.349846e+02
2.040000e-06	2.145050e-06	5.027982e-09	1.487510e+01	3.328160e+02
2.050000e-06	2.109074e-06	5.075053e-09	1.462562e+01	3.305699e+02
2.060000e-06	2.072251e-06	4.954821e-09	1.437027e+01	3.282368e+02
2.070000e-06	2.034259e-06	4.942399e-09	1.410681e+01	3.258175e+02
2.080000e-06	1.995335e-06	4.957267e-09	1.383689e+01	3.233221e+02
2.090000e-06	1.955910e-06	4.868602e-09	1.356349e+01	3.207642e+02
2.100000e-06	1.915966e-06	4.844491e-09	1.328649e+01	3.181555e+02
2.110000e-06	1.875381e-06	4.791059e-09	1.300505e+01	3.155010e+02
2.120000e-06	1.834150e-06	4.738290e-09	1.271913e+01	3.127975e+02
2.130000e-06	1.792324e-06	4.722736e-09	1.242908e+01	3.100356e+02
2.140000e-06	1.749872e-06	4.668444e-09	1.213469e+01	3.072036e+02
2.150000e-06	1.706863e-06	4.633559e-09	1.183644e+01	3.042922e+02
2.160000e-06	1.663474e-06	4.584934e-09	1.153556e+01	3.012975e+02
2.170000e-06	1.619584e-06	4.534300e-09	1.123120e+01	2.982216e+02
2.180000e-06	1.574985e-06	4.502103e-09	1.092192e+01	2.950707e+02
2.190000e-06	1.529773e-06	4.437470e-09	1.060839e+01	2.918521e+02
2.200000e-06	1.484039e-06	4.382054e-09	1.029124e+01	2.885710e+02
2.210000e-06	1.437848e-06	4.343256e-09	9.970925e+00	2.852281e+02
2.220000e-06	1.391277e-06	4.291770e-09	9.647971e+00	2.818201e+02
2.230000e-06	1.344251e-06	4.248518e-09	9.321869e+00	2.783403e+02
2.240000e-06	1.296623e-06	4.178176e-09	8.991582e+00	2.747813e+02
2.250000e-06	1.248307e-06	4.122641e-09	8.656534e+00	2.711363e+02
2.260000e-06	1.199476e-06	4.083649e-09	8.317905e+00	2.674006e+02
2.270000e-06	1.150268e-06	4.015343e-09	7.976666e+00	2.635715e+02
2.280000e-06	1.100686e-06	3.956300e-09	7.632837e+00	2.596485e+02
2.290000e-06	1.050662e-06	3.893383e-09	7.285939e+00	2.556322e+02
2.300000e-06	1.000094e-06	3.837206e-09	6.935271e+00	2.515250e+02
2.310000e-06	9.491126e-07	3.783807e-09	6.581733e+00	2.473308e+02
2.320000e-06	8.979228e-07	3.709453e-09	6.226751e+00	2.430553e+02
2.330000e-06	8.465336e-07	3.636559e-09	5.870387e+00	2.387048e+02
2.340000e-06	7.948503e-07	3.569460e-09	5.511983e+00	2.342847e+02
2.350000e-06	7.428220e-07	3.507764e-09	5.151186e+00	2.297971e+02
2.360000e-06	6.903977e-07	3.442433e-09	4.787644e+00	2.252385e+02
2.370000e-06	6.374711e-07	3.364909e-09	4.420618e+00	2.205994e+02
2.380000e-06	5.840600e-07	3.296319e-09	4.050233e+00	2.158653e+02
2.390000e-06	5.303315e-07	3.231401e-09	3.677646e+00	2.110199e+02
2.400000e-06	4.763350e-07	3.155829e-09	3.303201e+00	2.060498e+02
2.410000e-06	4.220912e-07	3.075427e-09	2.927041e+00	2.009478e+02
2.420000e-06	3.676723e-07	2.990932e-09	2.549667e+00	1.957150e+02
2.430000e-06	3.130704e-07	2.914018e-09	2.171023e+00	1.903593e+02
2.440000e-06	2.583319e-07	2.834741e-09	1.791433e+00	1.848913e+02
2.450000e-06	2.034757e-07	2.743952e-09	1.411026e+00	1.793187e+02
2.460000e-06	1.485197e-07	2.655252e-09	1.029928e+00	1.736413e+02
2.470000e-06	9.353703e-08	2.570498e-09	6.486435e-01	1.678488e+02
2.480000e-06	3.855163e-08	2.488136e-09	2.673408e-01	1.619223e+02
2.490000e-06	-1.644041e-08	2.397663e-09	-1.140079e-01	1.558388e+02
2.500000e-06	-7.143137e-08	2.299185e-09	-4.953493e-01	1.495784e+02
2.510000e-06	-1.264134e-07	2.201333e-09	-8.766285e-01	1.431289e+02
2.520000e-06	-1.813895e-07	2.102665e-09	-1.257866e+00	1.364887e+02
2.530000e-06	-2.363202e-07	1.997672e-09	-1.638790e+00	1.296641e+02
2.540000e-06	-2.911214e-07	1.887530e-09	-2.018815e+00	1.226636e+02
2.550000e-06	-3.458230e-07	1.779231e-09	-2.398150e+00	1.154901e+02
2.560000e-06	-4.003540e-07	1.674200e-09	-2.776302e+00	1.081347e+02
2.570000e-06	-4.546673e-07	1.564688e-09	-3.152943e+00	1.005746e+02
2.580000e-06	-5.087449e-07	1.445720e-09	-3.527951e+00	9.277539e+01
2.590000e-06	-5.625303e-07	1.322750e-09	-3.900932e+00	8.469864e+01
2.600000e-06	-6.159716e-07	1.195834e-09	-4.271528e+00	7.630990e+01
2.610000e-06	-6.689553e-07	1.062250e-09	-4.638949e+00	6.758562e+01
2.620000e-06	-7.214887e-07	9.206960e-10	-5.003248e+00	5.851537e+01
2.630000e-06	-7.736025e-07	7.758155e-10	-5.364637e+00	4.909835e+01
2.640000e-06	-8.253260e-07	6.322988e-10	-5.723320e+00	3.933548e+01
2.650000e-06	-8.767374e-07	4.848365e-10	-6.079838e+00	2.922004e+01
2.660000e-06	-9.279613e-07	3.277196e-10	-6.435057e+00	1.873061e+01
2.670000e-06	-9.789426e-07	1.605041e-10	-6.788593e+00	7.829570e+00
2.680000e-06	-1.029499e-06	-1.157528e-11	-7.139178e+00	-3.531564e+00
2.690000e-06	-1.079643e-06	-1.911662e-10	-7.486911e+00	-1.540103e+01
2.700000e-06	-1.129390e-06	-3.832509e-10	-7.831887e+00	-2.781303e+01
2.710000e-06	-1.178715e-06	-5.839753e-10	-8.173939e+00	-4.077533e+01
2.720000e-06	-1.227610e-06	-7.875637e-10	-8.513004e+00	-5.426175e+01
2.730000e-06	-1.275830e-06	-9.964752e-10	-8.847390e+00	-6.821144e+01
2.740000e-06	-1.323214e-06	-1.215116e-09	-9.175986e+00	-8.253442e+01
2.750000e-06	-1.369889e-06	-1.440477e-09	-9.499655e+00	-9.712109e+01
2.760000e-06	-1.415998e-06	-1.665974e-09	-9.819405e+00	-1.118524e+02
2.770000e-06	-1.461717e-06	-1.889081e-09	-1.013645e+01	-1.266076e+02
2.780000e-06	-1.507187e-06	-2.114081e-09	-1.045176e+01	-1.412688e+02
2.790000e-06	-1.552297e-06	-2.338972e-09	-1.076459e+01	-1.557212e+02
2.800000e-06	-1.596910e-06	-2.557708e-09	-1.107396e+01	-1.698530e+02
2.810000e-06	-1.640918e-06	-2.766723e-09	-1.137914e+01	-1.835553e+02
2.820000e-06	-1.684376e-06	-2.969177e-09	-1.168050e+01	-1.967246e+02
2.830000e-06	-1.727468e-06	-3.162944e-09	-1.197933e+01	-2.092694e+02
2.840000e-06	-1.770084e-06	-3.343035e-09	-1.227486e+01	-2.211168e+02
2.850000e-06	-1.812055e-06	-3.511980e-09	-1.256591e+01	-2.322196e+02
2.860000e-06	-1.853419e-06	-3.671908e-09	-1.285275e+01	-2.425604e+02
2.870000e-06	-1.894204e-06	-3.822655e-09	-1.313558e+01	-2.521503e+02
2.880000e-06	-1.934291e-06	-3.959793e-09	-1.341357e+01	-2.610234e+02
2.890000e-06	-1.973763e-06	-4.086030e-09	-1.368729e+01	-2.692286e+02
2.900000e-06	-2.012749e-06	-4.206350e-09	-1.395765e+01	-2.768207e+02
2.910000e-06	-2.051022e-06	-4.319154e-09	-1.422305e+01	-2.838532e+02
2.920000e-06	-2.088338e-06	-4.419037e-09	-1.448183e+01	-2.903748e+02
2.930000e-06	-2.124626e-06	-4.507717e-09	-1.473347e+01	-2.964294e+02
2.940000e-06	-2.160087e-06	-4.594244e-09	-1.497938e+01	-3.020581e+02
