# Temperatura_=_33.13
# Concentracion g/m^3_=_13400.0
# C_Vs_to_Am_M_A/Vsm_=_65563218390.804596
# pendiente_HvsI_1/m_=_3716.3
# ordenada_HvsI_A/m_=_1297.0
# frecuencia_Hz_=_300846.9482292061

Tiempo_(s)	Campo_(V.s)	Magnetizacion_(V.s)	Campo_(kA/m)	Magnetizacion_(A/m)
0.000000e+00	-2.859361e-06	-5.798498e-09	-1.979967e+01	-3.787179e+02
1.000000e-08	-2.858407e-06	-5.800361e-09	-1.979307e+01	-3.786320e+02
2.000000e-08	-2.856548e-06	-5.799403e-09	-1.978019e+01	-3.784618e+02
3.000000e-08	-2.853441e-06	-5.793586e-09	-1.975868e+01	-3.782203e+02
4.000000e-08	-2.849255e-06	-5.788013e-09	-1.972969e+01	-3.779223e+02
5.000000e-08	-2.844284e-06	-5.782155e-09	-1.969527e+01	-3.775780e+02
6.000000e-08	-2.838425e-06	-5.771785e-09	-1.965470e+01	-3.771890e+02
7.000000e-08	-2.831524e-06	-5.755226e-09	-1.960692e+01	-3.767487e+02
8.000000e-08	-2.823545e-06	-5.769312e-09	-1.955167e+01	-3.762468e+02
9.000000e-08	-2.814397e-06	-5.824651e-09	-1.948832e+01	-3.756758e+02
1.000000e-07	-2.803844e-06	-5.815505e-09	-1.941525e+01	-3.750368e+02
1.100000e-07	-2.792075e-06	-5.672122e-09	-1.933375e+01	-3.743426e+02
1.200000e-07	-2.779569e-06	-5.629757e-09	-1.924715e+01	-3.736147e+02
1.300000e-07	-2.766220e-06	-5.770128e-09	-1.915472e+01	-3.728769e+02
1.400000e-07	-2.751871e-06	-5.803127e-09	-1.905536e+01	-3.721467e+02
1.500000e-07	-2.736517e-06	-5.583069e-09	-1.894904e+01	-3.714276e+02
1.600000e-07	-2.719925e-06	-5.650427e-09	-1.883415e+01	-3.707059e+02
1.700000e-07	-2.702062e-06	-5.796098e-09	-1.871045e+01	-3.699534e+02
1.800000e-07	-2.683407e-06	-5.592339e-09	-1.858127e+01	-3.691342e+02
1.900000e-07	-2.664094e-06	-5.546413e-09	-1.844754e+01	-3.682149e+02
2.000000e-07	-2.643811e-06	-5.681856e-09	-1.830710e+01	-3.671736e+02
2.100000e-07	-2.622636e-06	-5.573214e-09	-1.816047e+01	-3.660046e+02
2.200000e-07	-2.600710e-06	-5.466787e-09	-1.800864e+01	-3.647184e+02
2.300000e-07	-2.577916e-06	-5.631503e-09	-1.785080e+01	-3.633369e+02
2.400000e-07	-2.554169e-06	-5.580668e-09	-1.768637e+01	-3.618852e+02
2.500000e-07	-2.529583e-06	-5.421668e-09	-1.751612e+01	-3.603837e+02
2.600000e-07	-2.504149e-06	-5.477402e-09	-1.734000e+01	-3.588434e+02
2.700000e-07	-2.477639e-06	-5.489358e-09	-1.715643e+01	-3.572642e+02
2.800000e-07	-2.450034e-06	-5.384459e-09	-1.696528e+01	-3.556375e+02
2.900000e-07	-2.421464e-06	-5.402531e-09	-1.676745e+01	-3.539513e+02
3.000000e-07	-2.392080e-06	-5.368903e-09	-1.656398e+01	-3.521948e+02
3.100000e-07	-2.362017e-06	-5.346938e-09	-1.635581e+01	-3.503624e+02
3.200000e-07	-2.331243e-06	-5.364400e-09	-1.614272e+01	-3.484542e+02
3.300000e-07	-2.299639e-06	-5.263246e-09	-1.592387e+01	-3.464752e+02
3.400000e-07	-2.267311e-06	-5.234736e-09	-1.570002e+01	-3.444326e+02
3.500000e-07	-2.234414e-06	-5.237998e-09	-1.547222e+01	-3.423329e+02
3.600000e-07	-2.200701e-06	-5.176775e-09	-1.523878e+01	-3.401805e+02
3.700000e-07	-2.165821e-06	-5.161843e-09	-1.499725e+01	-3.379765e+02
3.800000e-07	-2.129872e-06	-5.159466e-09	-1.474832e+01	-3.357195e+02
3.900000e-07	-2.093308e-06	-5.058499e-09	-1.449513e+01	-3.334062e+02
4.000000e-07	-2.056162e-06	-5.050209e-09	-1.423791e+01	-3.310323e+02
4.100000e-07	-2.018216e-06	-5.053528e-09	-1.397515e+01	-3.285934e+02
4.200000e-07	-1.979490e-06	-4.966666e-09	-1.370699e+01	-3.260855e+02
4.300000e-07	-1.940009e-06	-4.917313e-09	-1.343361e+01	-3.235058e+02
4.400000e-07	-1.899912e-06	-4.902290e-09	-1.315596e+01	-3.208542e+02
4.500000e-07	-1.859464e-06	-4.863242e-09	-1.287588e+01	-3.181336e+02
4.600000e-07	-1.818643e-06	-4.812660e-09	-1.259321e+01	-3.153500e+02
4.700000e-07	-1.777056e-06	-4.774336e-09	-1.230524e+01	-3.125119e+02
4.800000e-07	-1.734352e-06	-4.719387e-09	-1.200954e+01	-3.096271e+02
4.900000e-07	-1.690682e-06	-4.683394e-09	-1.170714e+01	-3.067001e+02
5.000000e-07	-1.646406e-06	-4.638496e-09	-1.140055e+01	-3.037290e+02
5.100000e-07	-1.601736e-06	-4.584156e-09	-1.109124e+01	-3.007044e+02
5.200000e-07	-1.556613e-06	-4.532367e-09	-1.077878e+01	-2.976113e+02
5.300000e-07	-1.510877e-06	-4.492373e-09	-1.046208e+01	-2.944327e+02
5.400000e-07	-1.464612e-06	-4.448168e-09	-1.014172e+01	-2.911551e+02
5.500000e-07	-1.417860e-06	-4.391675e-09	-9.817986e+00	-2.877734e+02
5.600000e-07	-1.370578e-06	-4.336753e-09	-9.490581e+00	-2.842928e+02
5.700000e-07	-1.322787e-06	-4.275717e-09	-9.159654e+00	-2.807270e+02
5.800000e-07	-1.274585e-06	-4.230642e-09	-8.825876e+00	-2.770931e+02
5.900000e-07	-1.226063e-06	-4.172472e-09	-8.489888e+00	-2.734043e+02
6.000000e-07	-1.177190e-06	-4.107609e-09	-8.151464e+00	-2.696642e+02
6.100000e-07	-1.127831e-06	-4.049555e-09	-7.809678e+00	-2.658641e+02
6.200000e-07	-1.077785e-06	-3.994755e-09	-7.463135e+00	-2.619853e+02
6.300000e-07	-1.026992e-06	-3.931498e-09	-7.111416e+00	-2.580062e+02
6.400000e-07	-9.755967e-07	-3.863210e-09	-6.755528e+00	-2.539105e+02
6.500000e-07	-9.237474e-07	-3.798882e-09	-6.396497e+00	-2.496946e+02
6.600000e-07	-8.715491e-07	-3.733811e-09	-6.035050e+00	-2.453699e+02
6.700000e-07	-8.191233e-07	-3.671805e-09	-5.672027e+00	-2.409588e+02
6.800000e-07	-7.664723e-07	-3.601530e-09	-5.307445e+00	-2.364862e+02
6.900000e-07	-7.135172e-07	-3.530331e-09	-4.940757e+00	-2.319685e+02
7.000000e-07	-6.602803e-07	-3.457644e-09	-4.572117e+00	-2.274050e+02
7.100000e-07	-6.068289e-07	-3.387942e-09	-4.201992e+00	-2.227758e+02
7.200000e-07	-5.531022e-07	-3.315409e-09	-3.829961e+00	-2.180465e+02
7.300000e-07	-4.991277e-07	-3.239628e-09	-3.456215e+00	-2.131793e+02
7.400000e-07	-4.450348e-07	-3.163756e-09	-3.081647e+00	-2.081458e+02
7.500000e-07	-3.907974e-07	-3.083718e-09	-2.706080e+00	-2.029376e+02
7.600000e-07	-3.364398e-07	-3.001620e-09	-2.329680e+00	-1.975689e+02
7.700000e-07	-2.820276e-07	-2.913046e-09	-1.952903e+00	-1.920708e+02
7.800000e-07	-2.275611e-07	-2.827362e-09	-1.575749e+00	-1.864791e+02
7.900000e-07	-1.730789e-07	-2.743398e-09	-1.198486e+00	-1.808187e+02
8.000000e-07	-1.185724e-07	-2.658154e-09	-8.210556e-01	-1.750928e+02
8.100000e-07	-6.400978e-08	-2.566829e-09	-4.432363e-01	-1.692781e+02
8.200000e-07	-9.425362e-09	-2.473949e-09	-6.526601e-02	-1.633315e+02
8.300000e-07	4.516851e-08	-2.378855e-09	3.127698e-01	-1.572025e+02
8.400000e-07	9.978268e-08	-2.277685e-09	6.909461e-01	-1.508499e+02
8.500000e-07	1.544167e-07	-2.176196e-09	1.069260e+00	-1.442534e+02
8.600000e-07	2.089933e-07	-2.072184e-09	1.447176e+00	-1.374176e+02
8.700000e-07	2.634607e-07	-1.967865e-09	1.824336e+00	-1.303665e+02
8.800000e-07	3.178803e-07	-1.858361e-09	2.201165e+00	-1.231288e+02
8.900000e-07	3.722194e-07	-1.743208e-09	2.577436e+00	-1.157229e+02
9.000000e-07	4.264314e-07	-1.620910e-09	2.952829e+00	-1.081438e+02
9.100000e-07	4.804870e-07	-1.498145e-09	3.327137e+00	-1.003602e+02
9.200000e-07	5.343322e-07	-1.377027e-09	3.699988e+00	-9.232082e+01
9.300000e-07	5.879676e-07	-1.251043e-09	4.071387e+00	-8.396864e+01
9.400000e-07	6.414125e-07	-1.118224e-09	4.441467e+00	-7.525649e+01
9.500000e-07	6.946004e-07	-9.787048e-10	4.809767e+00	-6.615833e+01
9.600000e-07	7.474728e-07	-8.356356e-10	5.175882e+00	-5.667121e+01
9.700000e-07	8.000953e-07	-6.835998e-10	5.540267e+00	-4.680720e+01
9.800000e-07	8.524704e-07	-5.246030e-10	5.902940e+00	-3.657837e+01
9.900000e-07	9.045450e-07	-3.586751e-10	6.263530e+00	-2.598109e+01
1.000000e-06	9.562587e-07	-1.869983e-10	6.621622e+00	-1.498624e+01
1.010000e-06	1.007490e-06	-1.182523e-11	6.976372e+00	-3.539919e+00
1.020000e-06	1.058114e-06	1.682993e-10	7.326917e+00	8.424583e+00
1.030000e-06	1.108008e-06	3.562148e-10	7.672414e+00	2.096713e+01
1.040000e-06	1.157268e-06	5.568772e-10	8.013510e+00	3.411984e+01
1.050000e-06	1.206089e-06	7.698008e-10	8.351573e+00	4.787189e+01
1.060000e-06	1.254601e-06	9.905681e-10	8.687499e+00	6.216473e+01
1.070000e-06	1.302857e-06	1.214054e-09	9.021642e+00	7.689873e+01
1.080000e-06	1.350709e-06	1.443220e-09	9.352994e+00	9.194813e+01
1.090000e-06	1.398081e-06	1.675376e-09	9.681028e+00	1.071784e+02
1.100000e-06	1.444947e-06	1.906516e-09	1.000555e+01	1.224597e+02
1.110000e-06	1.491257e-06	2.135095e-09	1.032622e+01	1.376736e+02
1.120000e-06	1.537045e-06	2.361805e-09	1.064328e+01	1.527099e+02
1.130000e-06	1.582270e-06	2.586471e-09	1.095644e+01	1.674606e+02
1.140000e-06	1.627055e-06	2.805490e-09	1.126656e+01	1.818131e+02
1.150000e-06	1.671546e-06	3.016023e-09	1.157464e+01	1.956483e+02
1.160000e-06	1.715611e-06	3.213180e-09	1.187976e+01	2.088481e+02
1.170000e-06	1.759023e-06	3.400115e-09	1.218037e+01	2.213080e+02
1.180000e-06	1.801527e-06	3.576362e-09	1.247469e+01	2.329533e+02
1.190000e-06	1.843041e-06	3.739722e-09	1.276215e+01	2.437515e+02
1.200000e-06	1.883820e-06	3.890998e-09	1.304453e+01	2.537158e+02
1.210000e-06	1.924040e-06	4.031120e-09	1.332304e+01	2.628989e+02
1.220000e-06	1.963647e-06	4.159422e-09	1.359729e+01	2.713770e+02
1.230000e-06	2.002649e-06	4.277342e-09	1.386736e+01	2.792309e+02
1.240000e-06	2.040963e-06	4.386002e-09	1.413267e+01	2.865290e+02
1.250000e-06	2.078510e-06	4.485205e-09	1.439266e+01	2.933186e+02
1.260000e-06	2.115374e-06	4.579015e-09	1.464793e+01	2.996265e+02
1.270000e-06	2.151766e-06	4.666723e-09	1.489992e+01	3.054688e+02
1.280000e-06	2.187583e-06	4.746673e-09	1.514794e+01	3.108635e+02
1.290000e-06	2.222389e-06	4.819768e-09	1.538896e+01	3.158410e+02
1.300000e-06	2.256097e-06	4.887938e-09	1.562237e+01	3.204479e+02
1.310000e-06	2.288976e-06	4.952329e-09	1.585004e+01	3.247419e+02
1.320000e-06	2.321192e-06	5.013358e-09	1.607311e+01	3.287814e+02
1.330000e-06	2.352643e-06	5.070235e-09	1.629090e+01	3.326118e+02
1.340000e-06	2.383284e-06	5.121750e-09	1.650307e+01	3.362568e+02
1.350000e-06	2.413078e-06	5.168752e-09	1.670938e+01	3.397167e+02
1.360000e-06	2.442078e-06	5.213182e-09	1.691019e+01	3.429745e+02
1.370000e-06	2.470484e-06	5.258043e-09	1.710689e+01	3.460090e+02
1.380000e-06	2.498081e-06	5.301460e-09	1.729799e+01	3.488082e+02
1.390000e-06	2.524460e-06	5.341069e-09	1.748065e+01	3.513781e+02
1.400000e-06	2.549661e-06	5.375794e-09	1.765515e+01	3.537451e+02
1.410000e-06	2.573978e-06	5.405619e-09	1.782354e+01	3.559492e+02
1.420000e-06	2.597477e-06	5.433024e-09	1.798626e+01	3.580326e+02
1.430000e-06	2.620071e-06	5.460084e-09	1.814271e+01	3.600277e+02
1.440000e-06	2.641730e-06	5.486044e-09	1.829268e+01	3.619485e+02
1.450000e-06	2.662558e-06	5.512096e-09	1.843691e+01	3.637900e+02
1.460000e-06	2.682705e-06	5.540776e-09	1.857642e+01	3.655339e+02
1.470000e-06	2.702016e-06	5.569101e-09	1.871014e+01	3.671586e+02
1.480000e-06	2.720239e-06	5.593592e-09	1.883632e+01	3.686497e+02
1.490000e-06	2.737431e-06	5.611653e-09	1.895537e+01	3.700066e+02
1.500000e-06	2.753624e-06	5.626120e-09	1.906749e+01	3.712420e+02
1.510000e-06	2.768727e-06	5.640982e-09	1.917208e+01	3.723773e+02
1.520000e-06	2.782793e-06	5.655429e-09	1.926948e+01	3.734333e+02
1.530000e-06	2.795883e-06	5.667789e-09	1.936012e+01	3.744227e+02
1.540000e-06	2.807934e-06	5.680735e-09	1.944357e+01	3.753465e+02
1.550000e-06	2.818742e-06	5.696527e-09	1.951841e+01	3.761956e+02
1.560000e-06	2.828257e-06	5.712058e-09	1.958429e+01	3.769562e+02
1.570000e-06	2.836757e-06	5.723841e-09	1.964315e+01	3.776180e+02
1.580000e-06	2.844418e-06	5.732053e-09	1.969620e+01	3.781792e+02
1.590000e-06	2.851121e-06	5.739717e-09	1.974261e+01	3.786485e+02
1.600000e-06	2.856822e-06	5.745320e-09	1.978209e+01	3.790415e+02
1.610000e-06	2.861666e-06	5.746721e-09	1.981563e+01	3.793748e+02
1.620000e-06	2.865668e-06	5.746962e-09	1.984335e+01	3.796588e+02
1.630000e-06	2.868571e-06	5.751391e-09	1.986345e+01	3.798939e+02
1.640000e-06	2.870195e-06	5.759331e-09	1.987469e+01	3.800712e+02
1.650000e-06	2.870745e-06	5.765482e-09	1.987850e+01	3.801764e+02
1.660000e-06	2.870420e-06	5.767733e-09	1.987625e+01	3.801968e+02
1.670000e-06	2.869228e-06	5.767142e-09	1.986799e+01	3.801268e+02
1.680000e-06	2.867120e-06	5.762944e-09	1.985340e+01	3.799706e+02
1.690000e-06	2.864153e-06	5.756697e-09	1.983286e+01	3.797407e+02
1.700000e-06	2.860405e-06	5.748798e-09	1.980690e+01	3.794518e+02
1.710000e-06	2.855661e-06	5.743004e-09	1.977405e+01	3.791152e+02
1.720000e-06	2.849742e-06	5.748289e-09	1.973307e+01	3.787344e+02
1.730000e-06	2.842814e-06	5.760634e-09	1.968510e+01	3.783039e+02
1.740000e-06	2.834982e-06	5.711013e-09	1.963086e+01	3.778137e+02
1.750000e-06	2.825874e-06	5.632645e-09	1.956779e+01	3.772551e+02
1.760000e-06	2.815176e-06	5.665942e-09	1.949371e+01	3.766276e+02
1.770000e-06	2.803538e-06	5.813031e-09	1.941312e+01	3.759417e+02
1.780000e-06	2.791748e-06	5.731686e-09	1.933149e+01	3.752179e+02
1.790000e-06	2.779289e-06	5.558597e-09	1.924521e+01	3.744802e+02
1.800000e-06	2.765207e-06	5.631603e-09	1.914770e+01	3.737479e+02
1.810000e-06	2.749816e-06	5.767449e-09	1.904113e+01	3.730272e+02
1.820000e-06	2.733837e-06	5.607877e-09	1.893048e+01	3.723076e+02
1.830000e-06	2.716845e-06	5.528369e-09	1.881282e+01	3.715630e+02
1.840000e-06	2.698479e-06	5.771940e-09	1.868564e+01	3.707583e+02
1.850000e-06	2.679327e-06	5.674514e-09	1.855302e+01	3.698588e+02
1.860000e-06	2.659466e-06	5.473442e-09	1.841550e+01	3.688401e+02
1.870000e-06	2.638361e-06	5.680640e-09	1.826936e+01	3.676934e+02
1.880000e-06	2.616163e-06	5.663239e-09	1.811564e+01	3.664267e+02
1.890000e-06	2.593068e-06	5.410802e-09	1.795572e+01	3.650603e+02
1.900000e-06	2.568929e-06	5.548529e-09	1.778857e+01	3.636193e+02
1.910000e-06	2.544054e-06	5.607799e-09	1.761633e+01	3.621255e+02
1.920000e-06	2.518509e-06	5.443545e-09	1.743944e+01	3.605917e+02
1.930000e-06	2.492006e-06	5.468605e-09	1.725592e+01	3.590198e+02
1.940000e-06	2.464758e-06	5.487180e-09	1.706724e+01	3.574024e+02
1.950000e-06	2.436775e-06	5.382348e-09	1.687347e+01	3.557276e+02
1.960000e-06	2.407550e-06	5.417226e-09	1.667110e+01	3.539841e+02
1.970000e-06	2.377182e-06	5.356665e-09	1.646082e+01	3.521653e+02
1.980000e-06	2.346083e-06	5.284883e-09	1.624548e+01	3.502703e+02
1.990000e-06	2.314275e-06	5.370564e-09	1.602522e+01	3.483033e+02
2.000000e-06	2.281690e-06	5.270206e-09	1.579958e+01	3.462715e+02
2.010000e-06	2.248286e-06	5.210771e-09	1.556828e+01	3.441815e+02
2.020000e-06	2.214106e-06	5.265834e-09	1.533159e+01	3.420383e+02
2.030000e-06	2.179269e-06	5.143721e-09	1.509037e+01	3.398434e+02
2.040000e-06	2.143830e-06	5.115505e-09	1.484497e+01	3.375960e+02
2.050000e-06	2.107750e-06	5.159139e-09	1.459513e+01	3.352929e+02
2.060000e-06	2.070829e-06	5.037757e-09	1.433947e+01	3.329301e+02
2.070000e-06	2.032778e-06	5.018513e-09	1.407599e+01	3.305030e+02
2.080000e-06	1.993787e-06	5.031481e-09	1.380600e+01	3.280075e+02
2.090000e-06	1.954221e-06	4.946830e-09	1.353202e+01	3.254407e+02
2.100000e-06	1.914103e-06	4.923837e-09	1.325423e+01	3.228018e+02
2.110000e-06	1.873325e-06	4.875931e-09	1.297185e+01	3.200930e+02
2.120000e-06	1.831870e-06	4.824624e-09	1.268480e+01	3.173200e+02
2.130000e-06	1.789825e-06	4.799618e-09	1.239366e+01	3.144909e+02
2.140000e-06	1.747227e-06	4.738243e-09	1.209869e+01	3.116139e+02
2.150000e-06	1.704135e-06	4.702677e-09	1.180030e+01	3.086943e+02
2.160000e-06	1.660615e-06	4.665534e-09	1.149894e+01	3.057314e+02
2.170000e-06	1.616556e-06	4.617960e-09	1.119385e+01	3.027173e+02
2.180000e-06	1.571783e-06	4.577021e-09	1.088382e+01	2.996375e+02
2.190000e-06	1.526380e-06	4.516602e-09	1.056944e+01	2.964753e+02
2.200000e-06	1.480458e-06	4.465211e-09	1.025145e+01	2.932159e+02
2.210000e-06	1.434139e-06	4.420839e-09	9.930709e+00	2.898526e+02
2.220000e-06	1.387377e-06	4.365756e-09	9.606908e+00	2.863888e+02
2.230000e-06	1.340071e-06	4.323375e-09	9.279338e+00	2.828368e+02
2.240000e-06	1.292225e-06	4.255279e-09	8.948026e+00	2.792138e+02
2.250000e-06	1.243754e-06	4.200439e-09	8.612383e+00	2.755341e+02
2.260000e-06	1.194803e-06	4.154715e-09	8.273428e+00	2.718034e+02
2.270000e-06	1.145488e-06	4.083489e-09	7.931942e+00	2.680150e+02
2.280000e-06	1.095757e-06	4.030837e-09	7.587581e+00	2.641518e+02
2.290000e-06	1.045595e-06	3.973579e-09	7.240229e+00	2.601920e+02
2.300000e-06	9.949730e-07	3.915977e-09	6.889700e+00	2.561177e+02
2.310000e-06	9.440014e-07	3.857021e-09	6.536746e+00	2.519228e+02
2.320000e-06	8.927821e-07	3.783935e-09	6.182078e+00	2.476160e+02
2.330000e-06	8.413087e-07	3.715148e-09	5.825650e+00	2.432183e+02
2.340000e-06	7.895736e-07	3.646051e-09	5.467410e+00	2.387550e+02
2.350000e-06	7.374078e-07	3.578386e-09	5.106187e+00	2.342447e+02
2.360000e-06	6.847363e-07	3.513933e-09	4.741463e+00	2.296903e+02
2.370000e-06	6.316757e-07	3.442638e-09	4.374044e+00	2.250749e+02
2.380000e-06	5.781633e-07	3.374333e-09	4.003497e+00	2.203663e+02
2.390000e-06	5.241713e-07	3.303586e-09	3.629629e+00	2.155261e+02
2.400000e-06	4.698899e-07	3.225216e-09	3.253757e+00	2.105235e+02
2.410000e-06	4.154322e-07	3.148304e-09	2.876664e+00	2.053460e+02
2.420000e-06	3.608545e-07	3.064939e-09	2.498740e+00	2.000039e+02
2.430000e-06	3.061494e-07	2.983395e-09	2.119935e+00	1.945262e+02
2.440000e-06	2.513249e-07	2.899677e-09	1.740302e+00	1.889487e+02
2.450000e-06	1.964157e-07	2.811668e-09	1.360083e+00	1.832996e+02
2.460000e-06	1.414281e-07	2.727391e-09	9.793202e-01	1.775862e+02
2.470000e-06	8.641864e-08	2.640625e-09	5.984067e-01	1.717900e+02
2.480000e-06	3.140080e-08	2.554420e-09	2.174351e-01	1.658705e+02
2.490000e-06	-2.362521e-08	2.463407e-09	-1.635930e-01	1.597775e+02
2.500000e-06	-7.866905e-08	2.366443e-09	-5.447446e-01	1.534670e+02
2.510000e-06	-1.336924e-07	2.266241e-09	-9.257544e-01	1.469142e+02
2.520000e-06	-1.886407e-07	2.161897e-09	-1.306244e+00	1.401198e+02
2.530000e-06	-2.435492e-07	2.053820e-09	-1.686459e+00	1.331048e+02
2.540000e-06	-2.983956e-07	1.944531e-09	-2.066243e+00	1.258985e+02
2.550000e-06	-3.531339e-07	1.836078e-09	-2.445279e+00	1.185222e+02
2.560000e-06	-4.077242e-07	1.726335e-09	-2.823290e+00	1.109755e+02
2.570000e-06	-4.620649e-07	1.611081e-09	-3.199572e+00	1.032316e+02
2.580000e-06	-5.161673e-07	1.488758e-09	-3.574205e+00	9.524204e+01
2.590000e-06	-5.700198e-07	1.362647e-09	-3.947107e+00	8.694956e+01
2.600000e-06	-6.234821e-07	1.229871e-09	-4.317308e+00	7.830420e+01
2.610000e-06	-6.764442e-07	1.091311e-09	-4.684044e+00	6.927570e+01
2.620000e-06	-7.289975e-07	9.473481e-10	-5.047950e+00	5.985732e+01
2.630000e-06	-7.812142e-07	7.988254e-10	-5.409525e+00	5.005941e+01
2.640000e-06	-8.330768e-07	6.471226e-10	-5.768648e+00	3.989527e+01
2.650000e-06	-8.846171e-07	4.893129e-10	-6.125539e+00	2.936503e+01
2.660000e-06	-9.358717e-07	3.247104e-10	-6.480452e+00	1.844442e+01
2.670000e-06	-9.868109e-07	1.528477e-10	-6.833182e+00	7.083373e+00
2.680000e-06	-1.037358e-06	-2.654495e-11	-7.183194e+00	-4.783818e+00
2.690000e-06	-1.087511e-06	-2.175745e-10	-7.530483e+00	-1.721983e+01
2.700000e-06	-1.137269e-06	-4.197298e-10	-7.875031e+00	-3.026311e+01
2.710000e-06	-1.186643e-06	-6.289176e-10	-8.216919e+00	-4.391117e+01
2.720000e-06	-1.235545e-06	-8.438672e-10	-8.555544e+00	-5.811382e+01
2.730000e-06	-1.283818e-06	-1.067040e-09	-8.889812e+00	-7.277784e+01
2.740000e-06	-1.331267e-06	-1.297417e-09	-9.218371e+00	-8.778084e+01
2.750000e-06	-1.378010e-06	-1.530001e-09	-9.542042e+00	-1.029887e+02
2.760000e-06	-1.424269e-06	-1.760938e-09	-9.862361e+00	-1.182700e+02
2.770000e-06	-1.470065e-06	-1.991392e-09	-1.017948e+01	-1.335042e+02
2.780000e-06	-1.515527e-06	-2.225456e-09	-1.049428e+01	-1.485802e+02
2.790000e-06	-1.560620e-06	-2.457900e-09	-1.080653e+01	-1.633902e+02
2.800000e-06	-1.605120e-06	-2.681442e-09	-1.111467e+01	-1.778224e+02
2.810000e-06	-1.649005e-06	-2.893240e-09	-1.141855e+01	-1.917589e+02
2.820000e-06	-1.692443e-06	-3.097040e-09	-1.171934e+01	-2.050805e+02
2.830000e-06	-1.735503e-06	-3.290846e-09	-1.201750e+01	-2.176792e+02
2.840000e-06	-1.778115e-06	-3.470265e-09	-1.231257e+01	-2.294738e+02
2.850000e-06	-1.820131e-06	-3.635846e-09	-1.260351e+01	-2.404236e+02
2.860000e-06	-1.861522e-06	-3.791163e-09	-1.289013e+01	-2.505341e+02
2.870000e-06	-1.902285e-06	-3.939264e-09	-1.317239e+01	-2.598516e+02
2.880000e-06	-1.942387e-06	-4.075589e-09	-1.345008e+01	-2.684497e+02
2.890000e-06	-1.981895e-06	-4.198342e-09	-1.372365e+01	-2.764096e+02
2.900000e-06	-2.020832e-06	-4.312320e-09	-1.399327e+01	-2.838029e+02
2.910000e-06	-2.059046e-06	-4.420008e-09	-1.425788e+01	-2.906809e+02
2.920000e-06	-2.096290e-06	-4.517316e-09	-1.451578e+01	-2.970736e+02
2.930000e-06	-2.132508e-06	-4.605464e-09	-1.476657e+01	-3.029980e+02
2.940000e-06	-2.167969e-06	-4.691278e-09	-1.501212e+01	-3.084710e+02
