# Temperatura_=_31.4
# Concentracion g/m^3_=_13400.0
# C_Vs_to_Am_M_A/Vsm_=_65563218390.804596
# pendiente_HvsI_1/m_=_3716.3
# ordenada_HvsI_A/m_=_1297.0
# frecuencia_Hz_=_300849.9216844361

Tiempo_(s)	Campo_(V.s)	Magnetizacion_(V.s)	Campo_(kA/m)	Magnetizacion_(A/m)
0.000000e+00	-2.851122e-06	-5.791585e-09	-1.980511e+01	-3.778194e+02
1.000000e-08	-2.850792e-06	-5.794928e-09	-1.980283e+01	-3.777666e+02
2.000000e-08	-2.849659e-06	-5.799326e-09	-1.979495e+01	-3.776384e+02
3.000000e-08	-2.847448e-06	-5.796036e-09	-1.977959e+01	-3.774525e+02
4.000000e-08	-2.843985e-06	-5.789392e-09	-1.975554e+01	-3.772217e+02
5.000000e-08	-2.839546e-06	-5.784338e-09	-1.972470e+01	-3.769479e+02
6.000000e-08	-2.834330e-06	-5.775066e-09	-1.968847e+01	-3.766205e+02
7.000000e-08	-2.828229e-06	-5.747726e-09	-1.964609e+01	-3.762206e+02
8.000000e-08	-2.821165e-06	-5.735202e-09	-1.959702e+01	-3.757307e+02
9.000000e-08	-2.813078e-06	-5.807577e-09	-1.954085e+01	-3.751443e+02
1.000000e-07	-2.803705e-06	-5.877320e-09	-1.947574e+01	-3.744732e+02
1.100000e-07	-2.792867e-06	-5.749335e-09	-1.940045e+01	-3.737479e+02
1.200000e-07	-2.780960e-06	-5.550739e-09	-1.931774e+01	-3.730110e+02
1.300000e-07	-2.768308e-06	-5.668996e-09	-1.922985e+01	-3.723043e+02
1.400000e-07	-2.754715e-06	-5.873588e-09	-1.913543e+01	-3.716550e+02
1.500000e-07	-2.740184e-06	-5.671614e-09	-1.903449e+01	-3.710647e+02
1.600000e-07	-2.724758e-06	-5.532908e-09	-1.892734e+01	-3.705063e+02
1.700000e-07	-2.707928e-06	-5.783346e-09	-1.881042e+01	-3.699292e+02
1.800000e-07	-2.689799e-06	-5.736198e-09	-1.868449e+01	-3.692725e+02
1.900000e-07	-2.671037e-06	-5.473510e-09	-1.855416e+01	-3.684806e+02
2.000000e-07	-2.651562e-06	-5.623176e-09	-1.841888e+01	-3.675183e+02
2.100000e-07	-2.631102e-06	-5.683653e-09	-1.827676e+01	-3.663781e+02
2.200000e-07	-2.609799e-06	-5.436300e-09	-1.812878e+01	-3.650808e+02
2.300000e-07	-2.587727e-06	-5.544586e-09	-1.797546e+01	-3.636669e+02
2.400000e-07	-2.564684e-06	-5.697500e-09	-1.781540e+01	-3.621836e+02
2.500000e-07	-2.540670e-06	-5.462551e-09	-1.764858e+01	-3.606713e+02
2.600000e-07	-2.515905e-06	-5.392937e-09	-1.747656e+01	-3.591532e+02
2.700000e-07	-2.490370e-06	-5.499153e-09	-1.729917e+01	-3.576314e+02
2.800000e-07	-2.463753e-06	-5.430246e-09	-1.711428e+01	-3.560895e+02
2.900000e-07	-2.435999e-06	-5.394552e-09	-1.692149e+01	-3.544998e+02
3.000000e-07	-2.407334e-06	-5.388634e-09	-1.672237e+01	-3.528330e+02
3.100000e-07	-2.377898e-06	-5.341417e-09	-1.651790e+01	-3.510670e+02
3.200000e-07	-2.347761e-06	-5.378204e-09	-1.630855e+01	-3.491918e+02
3.300000e-07	-2.316860e-06	-5.315028e-09	-1.609391e+01	-3.472109e+02
3.400000e-07	-2.285115e-06	-5.197003e-09	-1.587339e+01	-3.451385e+02
3.500000e-07	-2.252671e-06	-5.241039e-09	-1.564802e+01	-3.429946e+02
3.600000e-07	-2.219657e-06	-5.215014e-09	-1.541869e+01	-3.407991e+02
3.700000e-07	-2.185873e-06	-5.140521e-09	-1.518401e+01	-3.385671e+02
3.800000e-07	-2.150954e-06	-5.182001e-09	-1.494145e+01	-3.363057e+02
3.900000e-07	-2.114946e-06	-5.111539e-09	-1.469132e+01	-3.340134e+02
4.000000e-07	-2.078272e-06	-5.011880e-09	-1.443657e+01	-3.316815e+02
4.100000e-07	-2.041003e-06	-5.052220e-09	-1.417768e+01	-3.292974e+02
4.200000e-07	-2.002993e-06	-5.017278e-09	-1.391365e+01	-3.268481e+02
4.300000e-07	-1.964237e-06	-4.911131e-09	-1.364443e+01	-3.243240e+02
4.400000e-07	-1.924711e-06	-4.902956e-09	-1.336986e+01	-3.217221e+02
4.500000e-07	-1.884561e-06	-4.894450e-09	-1.309097e+01	-3.190467e+02
4.600000e-07	-1.844044e-06	-4.836680e-09	-1.280952e+01	-3.163076e+02
4.700000e-07	-1.803158e-06	-4.783162e-09	-1.252551e+01	-3.135170e+02
4.800000e-07	-1.761533e-06	-4.727215e-09	-1.223637e+01	-3.106846e+02
4.900000e-07	-1.718809e-06	-4.687520e-09	-1.193958e+01	-3.078130e+02
5.000000e-07	-1.675109e-06	-4.665566e-09	-1.163603e+01	-3.048961e+02
5.100000e-07	-1.630794e-06	-4.614886e-09	-1.132819e+01	-3.019189e+02
5.200000e-07	-1.586094e-06	-4.544338e-09	-1.101769e+01	-2.988630e+02
5.300000e-07	-1.540994e-06	-4.499883e-09	-1.070440e+01	-2.957118e+02
5.400000e-07	-1.495362e-06	-4.458630e-09	-1.038743e+01	-2.924575e+02
5.500000e-07	-1.449168e-06	-4.409303e-09	-1.006654e+01	-2.891048e+02
5.600000e-07	-1.402437e-06	-4.354058e-09	-9.741925e+00	-2.856696e+02
5.700000e-07	-1.355161e-06	-4.290250e-09	-9.413529e+00	-2.821744e+02
5.800000e-07	-1.307369e-06	-4.241699e-09	-9.081544e+00	-2.786390e+02
5.900000e-07	-1.259185e-06	-4.202516e-09	-8.746842e+00	-2.750717e+02
6.000000e-07	-1.210704e-06	-4.134099e-09	-8.410070e+00	-2.714644e+02
6.100000e-07	-1.161888e-06	-4.057398e-09	-8.070969e+00	-2.677927e+02
6.200000e-07	-1.112536e-06	-4.008618e-09	-7.728151e+00	-2.640224e+02
6.300000e-07	-1.062552e-06	-3.962138e-09	-7.380943e+00	-2.601213e+02
6.400000e-07	-1.011978e-06	-3.900512e-09	-7.029630e+00	-2.560706e+02
6.500000e-07	-9.608255e-07	-3.828192e-09	-6.674306e+00	-2.518725e+02
6.600000e-07	-9.091078e-07	-3.759766e-09	-6.315052e+00	-2.475511e+02
6.700000e-07	-8.569964e-07	-3.700204e-09	-5.953064e+00	-2.431448e+02
6.800000e-07	-8.046534e-07	-3.633475e-09	-5.589467e+00	-2.386929e+02
6.900000e-07	-7.520789e-07	-3.554435e-09	-5.224262e+00	-2.342212e+02
7.000000e-07	-6.992951e-07	-3.479423e-09	-4.857603e+00	-2.297322e+02
7.100000e-07	-6.462623e-07	-3.417347e-09	-4.489215e+00	-2.252026e+02
7.200000e-07	-5.929578e-07	-3.352503e-09	-4.118939e+00	-2.205905e+02
7.300000e-07	-5.394276e-07	-3.276872e-09	-3.747095e+00	-2.158496e+02
7.400000e-07	-4.856804e-07	-3.196230e-09	-3.373744e+00	-2.109445e+02
7.500000e-07	-4.317088e-07	-3.118744e-09	-2.998834e+00	-2.058623e+02
7.600000e-07	-3.775690e-07	-3.041986e-09	-2.622756e+00	-2.006156e+02
7.700000e-07	-3.233244e-07	-2.958362e-09	-2.245950e+00	-1.952355e+02
7.800000e-07	-2.690218e-07	-2.867371e-09	-1.868741e+00	-1.897572e+02
7.900000e-07	-2.146630e-07	-2.780623e-09	-1.491141e+00	-1.842047e+02
8.000000e-07	-1.602304e-07	-2.702434e-09	-1.113029e+00	-1.785790e+02
8.100000e-07	-1.057559e-07	-2.618372e-09	-7.346258e-01	-1.728559e+02
8.200000e-07	-5.127509e-08	-2.525055e-09	-3.561787e-01	-1.669933e+02
8.300000e-07	3.228869e-09	-2.428345e-09	2.242911e-02	-1.609458e+02
8.400000e-07	5.773072e-08	-2.331904e-09	4.010223e-01	-1.546812e+02
8.500000e-07	1.121967e-07	-2.232631e-09	7.793660e-01	-1.481904e+02
8.600000e-07	1.666340e-07	-2.127512e-09	1.157511e+00	-1.414895e+02
8.700000e-07	2.210652e-07	-2.019596e-09	1.535614e+00	-1.346097e+02
8.800000e-07	2.754537e-07	-1.913670e-09	1.913419e+00	-1.275819e+02
8.900000e-07	3.297128e-07	-1.807440e-09	2.290326e+00	-1.204195e+02
9.000000e-07	3.838577e-07	-1.693939e-09	2.666440e+00	-1.131074e+02
9.100000e-07	4.379012e-07	-1.575115e-09	3.041850e+00	-1.056019e+02
9.200000e-07	4.917727e-07	-1.455260e-09	3.416064e+00	-9.784102e+01
9.300000e-07	5.454209e-07	-1.333186e-09	3.788727e+00	-8.976197e+01
9.400000e-07	5.988675e-07	-1.203114e-09	4.159990e+00	-8.131883e+01
9.500000e-07	6.521243e-07	-1.066509e-09	4.529935e+00	-7.249353e+01
9.600000e-07	7.050834e-07	-9.261855e-10	4.897811e+00	-6.329575e+01
9.700000e-07	7.577483e-07	-7.819850e-10	5.263644e+00	-5.375140e+01
9.800000e-07	8.101750e-07	-6.317875e-10	5.627823e+00	-4.388425e+01
9.900000e-07	8.623431e-07	-4.742137e-10	5.990204e+00	-3.369750e+01
1.000000e-06	9.141885e-07	-3.109184e-10	6.350345e+00	-2.316277e+01
1.010000e-06	9.655939e-07	-1.414615e-10	6.707429e+00	-1.222104e+01
1.020000e-06	1.016437e-06	3.299031e-11	7.060605e+00	-7.957061e-01
1.030000e-06	1.066622e-06	2.142256e-10	7.409211e+00	1.118633e+01
1.040000e-06	1.116171e-06	4.060953e-10	7.753402e+00	2.377273e+01
1.050000e-06	1.165207e-06	6.096400e-10	8.094024e+00	3.696998e+01
1.060000e-06	1.213909e-06	8.205407e-10	8.432329e+00	5.073854e+01
1.070000e-06	1.262364e-06	1.036294e-09	8.768922e+00	6.499928e+01
1.080000e-06	1.310459e-06	1.258552e-09	9.103008e+00	7.964767e+01
1.090000e-06	1.358056e-06	1.485047e-09	9.433640e+00	9.456962e+01
1.100000e-06	1.405127e-06	1.713785e-09	9.760611e+00	1.096530e+02
1.110000e-06	1.451713e-06	1.943045e-09	1.008422e+01	1.247911e+02
1.120000e-06	1.497759e-06	2.171646e-09	1.040407e+01	1.398793e+02
1.130000e-06	1.543209e-06	2.397102e-09	1.071979e+01	1.548066e+02
1.140000e-06	1.588195e-06	2.618443e-09	1.103228e+01	1.694503e+02
1.150000e-06	1.632860e-06	2.833462e-09	1.134254e+01	1.836762e+02
1.160000e-06	1.677204e-06	3.038485e-09	1.165057e+01	1.973479e+02
1.170000e-06	1.720996e-06	3.231576e-09	1.195477e+01	2.103417e+02
1.180000e-06	1.763893e-06	3.414411e-09	1.225275e+01	2.225648e+02
1.190000e-06	1.805733e-06	3.588612e-09	1.254340e+01	2.339677e+02
1.200000e-06	1.846742e-06	3.751642e-09	1.282826e+01	2.445478e+02
1.210000e-06	1.887283e-06	3.902004e-09	1.310987e+01	2.543427e+02
1.220000e-06	1.927362e-06	4.038166e-09	1.338828e+01	2.634143e+02
1.230000e-06	1.966787e-06	4.162663e-09	1.366215e+01	2.718302e+02
1.240000e-06	2.005542e-06	4.278724e-09	1.393135e+01	2.796483e+02
1.250000e-06	2.043608e-06	4.385616e-09	1.419578e+01	2.869091e+02
1.260000e-06	2.080914e-06	4.483664e-09	1.445492e+01	2.936379e+02
1.270000e-06	2.117620e-06	4.576000e-09	1.470990e+01	2.998542e+02
1.280000e-06	2.153832e-06	4.663172e-09	1.496144e+01	3.055832e+02
1.290000e-06	2.189223e-06	4.744283e-09	1.520728e+01	3.108645e+02
1.300000e-06	2.223539e-06	4.818468e-09	1.544565e+01	3.157537e+02
1.310000e-06	2.256900e-06	4.885882e-09	1.567740e+01	3.203149e+02
1.320000e-06	2.289559e-06	4.947876e-09	1.590426e+01	3.246093e+02
1.330000e-06	2.321512e-06	5.006222e-09	1.612621e+01	3.286824e+02
1.340000e-06	2.352672e-06	5.062394e-09	1.634266e+01	3.325560e+02
1.350000e-06	2.383038e-06	5.114913e-09	1.655360e+01	3.362282e+02
1.360000e-06	2.412574e-06	5.162482e-09	1.675877e+01	3.396813e+02
1.370000e-06	2.441416e-06	5.208972e-09	1.695912e+01	3.428950e+02
1.380000e-06	2.469622e-06	5.255478e-09	1.715505e+01	3.458589e+02
1.390000e-06	2.496816e-06	5.298171e-09	1.734396e+01	3.485811e+02
1.400000e-06	2.522718e-06	5.334105e-09	1.752388e+01	3.510880e+02
1.410000e-06	2.547576e-06	5.363455e-09	1.769655e+01	3.534181e+02
1.420000e-06	2.571617e-06	5.390675e-09	1.786355e+01	3.556105e+02
1.430000e-06	2.594807e-06	5.419746e-09	1.802464e+01	3.576944e+02
1.440000e-06	2.617123e-06	5.450074e-09	1.817966e+01	3.596826e+02
1.450000e-06	2.638540e-06	5.477940e-09	1.832843e+01	3.615720e+02
1.460000e-06	2.659209e-06	5.503842e-09	1.847200e+01	3.633499e+02
1.470000e-06	2.679138e-06	5.531053e-09	1.861044e+01	3.650030e+02
1.480000e-06	2.698037e-06	5.557021e-09	1.874172e+01	3.665258e+02
1.490000e-06	2.715952e-06	5.577473e-09	1.886617e+01	3.679242e+02
1.500000e-06	2.732921e-06	5.593395e-09	1.898404e+01	3.692137e+02
1.510000e-06	2.748768e-06	5.608077e-09	1.909412e+01	3.704135e+02
1.520000e-06	2.763552e-06	5.623227e-09	1.919682e+01	3.715387e+02
1.530000e-06	2.777355e-06	5.638046e-09	1.929270e+01	3.725951e+02
1.540000e-06	2.790165e-06	5.652323e-09	1.938168e+01	3.735783e+02
1.550000e-06	2.801925e-06	5.668339e-09	1.946337e+01	3.744770e+02
1.560000e-06	2.812409e-06	5.685234e-09	1.953620e+01	3.752803e+02
1.570000e-06	2.821676e-06	5.697669e-09	1.960057e+01	3.759837e+02
1.580000e-06	2.830011e-06	5.704246e-09	1.965847e+01	3.765926e+02
1.590000e-06	2.837402e-06	5.708961e-09	1.970981e+01	3.771206e+02
1.600000e-06	2.843787e-06	5.715758e-09	1.975416e+01	3.775845e+02
1.610000e-06	2.849235e-06	5.724291e-09	1.979201e+01	3.779968e+02
1.620000e-06	2.853899e-06	5.731497e-09	1.982440e+01	3.783607e+02
1.630000e-06	2.857641e-06	5.736924e-09	1.985040e+01	3.786689e+02
1.640000e-06	2.860134e-06	5.741741e-09	1.986772e+01	3.789064e+02
1.650000e-06	2.861390e-06	5.746279e-09	1.987644e+01	3.790582e+02
1.660000e-06	2.861686e-06	5.750368e-09	1.987850e+01	3.791156e+02
1.670000e-06	2.861148e-06	5.751574e-09	1.987476e+01	3.790812e+02
1.680000e-06	2.859719e-06	5.748746e-09	1.986484e+01	3.789677e+02
1.690000e-06	2.857394e-06	5.746729e-09	1.984868e+01	3.787928e+02
1.700000e-06	2.854291e-06	5.744097e-09	1.982713e+01	3.785710e+02
1.710000e-06	2.850407e-06	5.737073e-09	1.980015e+01	3.783070e+02
1.720000e-06	2.845417e-06	5.733939e-09	1.976549e+01	3.779925e+02
1.730000e-06	2.839186e-06	5.756894e-09	1.972220e+01	3.776099e+02
1.740000e-06	2.832048e-06	5.746572e-09	1.967262e+01	3.771404e+02
1.750000e-06	2.824008e-06	5.625047e-09	1.961677e+01	3.765744e+02
1.760000e-06	2.814509e-06	5.570487e-09	1.955078e+01	3.759195e+02
1.770000e-06	2.803466e-06	5.754821e-09	1.947407e+01	3.752025e+02
1.780000e-06	2.791753e-06	5.850275e-09	1.939271e+01	3.744643e+02
1.790000e-06	2.779943e-06	5.624771e-09	1.931067e+01	3.737482e+02
1.800000e-06	2.767140e-06	5.506220e-09	1.922174e+01	3.730855e+02
1.810000e-06	2.752632e-06	5.751093e-09	1.912096e+01	3.724840e+02
1.820000e-06	2.737125e-06	5.713280e-09	1.901324e+01	3.719223e+02
1.830000e-06	2.721046e-06	5.457659e-09	1.890155e+01	3.713543e+02
1.840000e-06	2.703736e-06	5.673295e-09	1.878131e+01	3.707198e+02
1.850000e-06	2.685162e-06	5.822634e-09	1.865228e+01	3.699608e+02
1.860000e-06	2.665999e-06	5.498836e-09	1.851917e+01	3.690366e+02
1.870000e-06	2.646044e-06	5.532311e-09	1.838055e+01	3.679337e+02
1.880000e-06	2.624822e-06	5.774929e-09	1.823314e+01	3.666672e+02
1.890000e-06	2.602502e-06	5.475608e-09	1.807809e+01	3.652743e+02
1.900000e-06	2.579185e-06	5.376875e-09	1.791612e+01	3.638021e+02
1.910000e-06	2.554929e-06	5.657223e-09	1.774763e+01	3.622934e+02
1.920000e-06	2.530056e-06	5.544404e-09	1.757485e+01	3.607757e+02
1.930000e-06	2.504382e-06	5.398180e-09	1.739651e+01	3.592556e+02
1.940000e-06	2.477749e-06	5.488647e-09	1.721150e+01	3.577201e+02
1.950000e-06	2.450498e-06	5.406090e-09	1.702221e+01	3.561432e+02
1.960000e-06	2.422385e-06	5.396877e-09	1.682693e+01	3.544952e+02
1.970000e-06	2.392968e-06	5.407736e-09	1.662258e+01	3.527518e+02
1.980000e-06	2.362540e-06	5.260643e-09	1.641122e+01	3.509001e+02
1.990000e-06	2.331361e-06	5.344679e-09	1.619463e+01	3.489410e+02
2.000000e-06	2.299440e-06	5.373384e-09	1.597289e+01	3.468867e+02
2.010000e-06	2.266824e-06	5.184984e-09	1.574633e+01	3.447564e+02
2.020000e-06	2.233417e-06	5.236264e-09	1.551427e+01	3.425705e+02
2.030000e-06	2.199245e-06	5.220274e-09	1.527690e+01	3.403454e+02
2.040000e-06	2.164437e-06	5.067669e-09	1.503511e+01	3.380902e+02
2.050000e-06	2.129011e-06	5.155735e-09	1.478902e+01	3.358050e+02
2.060000e-06	2.092898e-06	5.129032e-09	1.453817e+01	3.334827e+02
2.070000e-06	2.055739e-06	4.992485e-09	1.428004e+01	3.311110e+02
2.080000e-06	2.017394e-06	5.029993e-09	1.401369e+01	3.286766e+02
2.090000e-06	1.978327e-06	4.997063e-09	1.374231e+01	3.261691e+02
2.100000e-06	1.938786e-06	4.915424e-09	1.346764e+01	3.235838e+02
2.110000e-06	1.898561e-06	4.887728e-09	1.318822e+01	3.209235e+02
2.120000e-06	1.857670e-06	4.834268e-09	1.290417e+01	3.181970e+02
2.130000e-06	1.816258e-06	4.821474e-09	1.261651e+01	3.154165e+02
2.140000e-06	1.774285e-06	4.788367e-09	1.232494e+01	3.125926e+02
2.150000e-06	1.731687e-06	4.711267e-09	1.202904e+01	3.097297e+02
2.160000e-06	1.688599e-06	4.673744e-09	1.172973e+01	3.068235e+02
2.170000e-06	1.645167e-06	4.635204e-09	1.142803e+01	3.038608e+02
2.180000e-06	1.601177e-06	4.595301e-09	1.112246e+01	3.008233e+02
2.190000e-06	1.556448e-06	4.545975e-09	1.081175e+01	2.976936e+02
2.200000e-06	1.511047e-06	4.491299e-09	1.049638e+01	2.944615e+02
2.210000e-06	1.465134e-06	4.447312e-09	1.017745e+01	2.911289e+02
2.220000e-06	1.418855e-06	4.393288e-09	9.855977e+00	2.877096e+02
2.230000e-06	1.372118e-06	4.350690e-09	9.531323e+00	2.842255e+02
2.240000e-06	1.324771e-06	4.288238e-09	9.202425e+00	2.806974e+02
2.250000e-06	1.276813e-06	4.220232e-09	8.869287e+00	2.771371e+02
2.260000e-06	1.228299e-06	4.191611e-09	8.532291e+00	2.735400e+02
2.270000e-06	1.179386e-06	4.137299e-09	8.192520e+00	2.698848e+02
2.280000e-06	1.130144e-06	4.063855e-09	7.850466e+00	2.661386e+02
2.290000e-06	1.080531e-06	4.007831e-09	7.505833e+00	2.622678e+02
2.300000e-06	1.030442e-06	3.948740e-09	7.157894e+00	2.582497e+02
2.310000e-06	9.798852e-07	3.895479e-09	6.806703e+00	2.540819e+02
2.320000e-06	9.290269e-07	3.827851e-09	6.453419e+00	2.497841e+02
2.330000e-06	8.779134e-07	3.750425e-09	6.098362e+00	2.453925e+02
2.340000e-06	8.265567e-07	3.688792e-09	5.741617e+00	2.409475e+02
2.350000e-06	7.748791e-07	3.624220e-09	5.382642e+00	2.364790e+02
2.360000e-06	7.227913e-07	3.556837e-09	5.020818e+00	2.319949e+02
2.370000e-06	6.702861e-07	3.483904e-09	4.656094e+00	2.274771e+02
2.380000e-06	6.173523e-07	3.413285e-09	4.288394e+00	2.228867e+02
2.390000e-06	5.640440e-07	3.349738e-09	3.918091e+00	2.181770e+02
2.400000e-06	5.103955e-07	3.276320e-09	3.545426e+00	2.133090e+02
2.410000e-06	4.564031e-07	3.199449e-09	3.170371e+00	2.082646e+02
2.420000e-06	4.021433e-07	3.120451e-09	2.793460e+00	2.030511e+02
2.430000e-06	3.477388e-07	3.040795e-09	2.415543e+00	1.976965e+02
2.440000e-06	2.931917e-07	2.962314e-09	2.036635e+00	1.922366e+02
2.450000e-06	2.384568e-07	2.872178e-09	1.656423e+00	1.866991e+02
2.460000e-06	1.835993e-07	2.778752e-09	1.275360e+00	1.810903e+02
2.470000e-06	1.287097e-07	2.694956e-09	8.940725e-01	1.753913e+02
2.480000e-06	7.383331e-08	2.614714e-09	5.128778e-01	1.695625e+02
2.490000e-06	1.896956e-08	2.528792e-09	1.317707e-01	1.635581e+02
2.500000e-06	-3.591861e-08	2.430863e-09	-2.495061e-01	1.573417e+02
2.510000e-06	-9.081972e-08	2.332583e-09	-6.308727e-01	1.508988e+02
2.520000e-06	-1.456933e-07	2.236617e-09	-1.012048e+00	1.442406e+02
2.530000e-06	-2.005441e-07	2.129741e-09	-1.393065e+00	1.373963e+02
2.540000e-06	-2.553376e-07	2.016004e-09	-1.773684e+00	1.303983e+02
2.550000e-06	-3.100309e-07	1.907042e-09	-2.153607e+00	1.232650e+02
2.560000e-06	-3.645654e-07	1.805544e-09	-2.532427e+00	1.159878e+02
2.570000e-06	-4.188669e-07	1.699335e-09	-2.909629e+00	1.085286e+02
2.580000e-06	-4.729840e-07	1.579884e-09	-3.285550e+00	1.008280e+02
2.590000e-06	-5.268249e-07	1.454810e-09	-3.659552e+00	9.282188e+01
2.600000e-06	-5.802866e-07	1.328077e-09	-4.030920e+00	8.445934e+01
2.610000e-06	-6.334766e-07	1.195720e-09	-4.400400e+00	7.571599e+01
2.620000e-06	-6.862550e-07	1.054717e-09	-4.767021e+00	6.659617e+01
2.630000e-06	-7.385417e-07	9.054739e-10	-5.130227e+00	5.712374e+01
2.640000e-06	-7.904473e-07	7.548448e-10	-5.490786e+00	4.732459e+01
2.650000e-06	-8.420063e-07	6.067041e-10	-5.848937e+00	3.720760e+01
2.660000e-06	-8.933046e-07	4.534343e-10	-6.205277e+00	2.675151e+01
2.670000e-06	-9.443510e-07	2.894223e-10	-6.559866e+00	1.590316e+01
2.680000e-06	-9.951194e-07	1.156422e-10	-6.912526e+00	4.588113e+00
2.690000e-06	-1.045518e-06	-6.484352e-11	-7.262619e+00	-7.269415e+00
2.700000e-06	-1.095474e-06	-2.537252e-10	-7.609629e+00	-1.972417e+01
2.710000e-06	-1.144970e-06	-4.558115e-10	-7.953449e+00	-3.279229e+01
2.720000e-06	-1.194050e-06	-6.684304e-10	-8.294381e+00	-4.644389e+01
2.730000e-06	-1.242643e-06	-8.862558e-10	-8.631933e+00	-6.060731e+01
2.740000e-06	-1.290506e-06	-1.106356e-09	-8.964409e+00	-7.518210e+01
2.750000e-06	-1.337655e-06	-1.330930e-09	-9.291927e+00	-9.005502e+01
2.760000e-06	-1.384193e-06	-1.560128e-09	-9.615198e+00	-1.051129e+02
2.770000e-06	-1.430231e-06	-1.790519e-09	-9.934998e+00	-1.202481e+02
2.780000e-06	-1.475879e-06	-2.022045e-09	-1.025209e+01	-1.353559e+02
2.790000e-06	-1.521149e-06	-2.255491e-09	-1.056655e+01	-1.503275e+02
2.800000e-06	-1.565993e-06	-2.486680e-09	-1.087806e+01	-1.650430e+02
2.810000e-06	-1.610275e-06	-2.708783e-09	-1.118566e+01	-1.793700e+02
2.820000e-06	-1.653995e-06	-2.920969e-09	-1.148936e+01	-1.931715e+02
2.830000e-06	-1.697286e-06	-3.122753e-09	-1.179007e+01	-2.063196e+02
2.840000e-06	-1.740141e-06	-3.311393e-09	-1.208777e+01	-2.187137e+02
2.850000e-06	-1.782499e-06	-3.486342e-09	-1.238200e+01	-2.302941e+02
2.860000e-06	-1.824266e-06	-3.649555e-09	-1.267213e+01	-2.410485e+02
2.870000e-06	-1.865387e-06	-3.804473e-09	-1.295778e+01	-2.510069e+02
2.880000e-06	-1.905862e-06	-3.952033e-09	-1.323893e+01	-2.602277e+02
2.890000e-06	-1.945685e-06	-4.089328e-09	-1.351556e+01	-2.687787e+02
2.900000e-06	-1.984963e-06	-4.215947e-09	-1.378840e+01	-2.767209e+02
2.910000e-06	-2.023639e-06	-4.332075e-09	-1.405706e+01	-2.840985e+02
2.920000e-06	-2.061512e-06	-4.434896e-09	-1.432015e+01	-2.909396e+02
2.930000e-06	-2.098363e-06	-4.526983e-09	-1.457613e+01	-2.972639e+02
2.940000e-06	-2.134225e-06	-4.614441e-09	-1.482524e+01	-3.030945e+02
