# Temperatura_=_23.87
# Concentracion g/m^3_=_13400.0
# C_Vs_to_Am_M_A/Vsm_=_65563218390.804596
# pendiente_HvsI_1/m_=_3716.3
# ordenada_HvsI_A/m_=_1297.0
# frecuencia_Hz_=_300839.3398123345

Tiempo_(s)	Campo_(V.s)	Magnetizacion_(V.s)	Campo_(kA/m)	Magnetizacion_(A/m)
0.000000e+00	-2.853983e-06	-5.647420e-09	-1.980652e+01	-3.689695e+02
1.000000e-08	-2.853556e-06	-5.648661e-09	-1.980356e+01	-3.688866e+02
2.000000e-08	-2.852360e-06	-5.651920e-09	-1.979526e+01	-3.687289e+02
3.000000e-08	-2.850042e-06	-5.652494e-09	-1.977917e+01	-3.685145e+02
4.000000e-08	-2.846477e-06	-5.650527e-09	-1.975443e+01	-3.682591e+02
5.000000e-08	-2.841993e-06	-5.642937e-09	-1.972331e+01	-3.679682e+02
6.000000e-08	-2.836740e-06	-5.626002e-09	-1.968686e+01	-3.676336e+02
7.000000e-08	-2.830575e-06	-5.593889e-09	-1.964407e+01	-3.672364e+02
8.000000e-08	-2.823393e-06	-5.591336e-09	-1.959423e+01	-3.667545e+02
9.000000e-08	-2.815170e-06	-5.672406e-09	-1.953716e+01	-3.661738e+02
1.000000e-07	-2.805613e-06	-5.735908e-09	-1.947084e+01	-3.654978e+02
1.100000e-07	-2.794547e-06	-5.576005e-09	-1.939404e+01	-3.647507e+02
1.200000e-07	-2.782500e-06	-5.412198e-09	-1.931043e+01	-3.639736e+02
1.300000e-07	-2.769765e-06	-5.562609e-09	-1.922206e+01	-3.632130e+02
1.400000e-07	-2.756079e-06	-5.733198e-09	-1.912707e+01	-3.625044e+02
1.500000e-07	-2.741484e-06	-5.473708e-09	-1.902579e+01	-3.618591e+02
1.600000e-07	-2.725937e-06	-5.398286e-09	-1.891789e+01	-3.612571e+02
1.700000e-07	-2.708908e-06	-5.669595e-09	-1.879971e+01	-3.606494e+02
1.800000e-07	-2.690652e-06	-5.537582e-09	-1.867301e+01	-3.599711e+02
1.900000e-07	-2.671775e-06	-5.337880e-09	-1.854200e+01	-3.591601e+02
2.000000e-07	-2.652081e-06	-5.512968e-09	-1.840533e+01	-3.581749e+02
2.100000e-07	-2.631448e-06	-5.506844e-09	-1.826214e+01	-3.570069e+02
2.200000e-07	-2.610142e-06	-5.280502e-09	-1.811428e+01	-3.556819e+02
2.300000e-07	-2.588029e-06	-5.424559e-09	-1.796082e+01	-3.542507e+02
2.400000e-07	-2.564864e-06	-5.522456e-09	-1.780005e+01	-3.527720e+02
2.500000e-07	-2.540795e-06	-5.302650e-09	-1.763301e+01	-3.512936e+02
2.600000e-07	-2.515969e-06	-5.265836e-09	-1.746072e+01	-3.498381e+02
2.700000e-07	-2.490286e-06	-5.365893e-09	-1.728248e+01	-3.483979e+02
2.800000e-07	-2.463565e-06	-5.287525e-09	-1.709704e+01	-3.469408e+02
2.900000e-07	-2.435721e-06	-5.249333e-09	-1.690380e+01	-3.454231e+02
3.000000e-07	-2.406901e-06	-5.233969e-09	-1.670379e+01	-3.438058e+02
3.100000e-07	-2.377302e-06	-5.216723e-09	-1.649838e+01	-3.420675e+02
3.200000e-07	-2.346979e-06	-5.242605e-09	-1.628794e+01	-3.402104e+02
3.300000e-07	-2.315940e-06	-5.141214e-09	-1.607252e+01	-3.382564e+02
3.400000e-07	-2.284139e-06	-5.088218e-09	-1.585183e+01	-3.362379e+02
3.500000e-07	-2.251683e-06	-5.119132e-09	-1.562659e+01	-3.341838e+02
3.600000e-07	-2.218617e-06	-5.053873e-09	-1.539711e+01	-3.321103e+02
3.700000e-07	-2.184645e-06	-5.023513e-09	-1.516134e+01	-3.300157e+02
3.800000e-07	-2.149508e-06	-5.057022e-09	-1.491749e+01	-3.278833e+02
3.900000e-07	-2.113425e-06	-4.945967e-09	-1.466708e+01	-3.256898e+02
4.000000e-07	-2.076757e-06	-4.897834e-09	-1.441261e+01	-3.234150e+02
4.100000e-07	-2.039431e-06	-4.945302e-09	-1.415357e+01	-3.210493e+02
4.200000e-07	-2.001311e-06	-4.869606e-09	-1.388901e+01	-3.185970e+02
4.300000e-07	-1.962513e-06	-4.786951e-09	-1.361976e+01	-3.160721e+02
4.400000e-07	-1.923013e-06	-4.786293e-09	-1.334563e+01	-3.134918e+02
4.500000e-07	-1.882851e-06	-4.765761e-09	-1.306690e+01	-3.108686e+02
4.600000e-07	-1.842289e-06	-4.713010e-09	-1.278541e+01	-3.082047e+02
4.700000e-07	-1.801292e-06	-4.667947e-09	-1.250089e+01	-3.054915e+02
4.800000e-07	-1.759480e-06	-4.610167e-09	-1.221072e+01	-3.027137e+02
4.900000e-07	-1.716588e-06	-4.576958e-09	-1.191305e+01	-2.998556e+02
5.000000e-07	-1.672771e-06	-4.545268e-09	-1.160896e+01	-2.969079e+02
5.100000e-07	-1.628387e-06	-4.489507e-09	-1.130094e+01	-2.938710e+02
5.200000e-07	-1.583619e-06	-4.431324e-09	-1.099025e+01	-2.907544e+02
5.300000e-07	-1.538430e-06	-4.389644e-09	-1.067664e+01	-2.875723e+02
5.400000e-07	-1.492690e-06	-4.351292e-09	-1.035921e+01	-2.843368e+02
5.500000e-07	-1.446365e-06	-4.300208e-09	-1.003771e+01	-2.810531e+02
5.600000e-07	-1.399504e-06	-4.241414e-09	-9.712498e+00	-2.777166e+02
5.700000e-07	-1.352127e-06	-4.175318e-09	-9.383702e+00	-2.743146e+02
5.800000e-07	-1.304301e-06	-4.134262e-09	-9.051793e+00	-2.708309e+02
5.900000e-07	-1.256094e-06	-4.089472e-09	-8.717238e+00	-2.672519e+02
6.000000e-07	-1.207555e-06	-4.020812e-09	-8.380379e+00	-2.635702e+02
6.100000e-07	-1.158684e-06	-3.956575e-09	-8.041219e+00	-2.597874e+02
6.200000e-07	-1.109312e-06	-3.906647e-09	-7.698582e+00	-2.559113e+02
6.300000e-07	-1.059257e-06	-3.850705e-09	-7.351196e+00	-2.519527e+02
6.400000e-07	-1.008504e-06	-3.779484e-09	-6.998974e+00	-2.479205e+02
6.500000e-07	-9.571528e-07	-3.708783e-09	-6.642601e+00	-2.438186e+02
6.600000e-07	-9.053038e-07	-3.645385e-09	-6.282770e+00	-2.396455e+02
6.700000e-07	-8.531301e-07	-3.589918e-09	-5.920687e+00	-2.353953e+02
6.800000e-07	-8.007354e-07	-3.523927e-09	-5.557070e+00	-2.310616e+02
6.900000e-07	-7.480482e-07	-3.450313e-09	-5.191423e+00	-2.266391e+02
7.000000e-07	-6.950655e-07	-3.378642e-09	-4.823725e+00	-2.221256e+02
7.100000e-07	-6.418393e-07	-3.311542e-09	-4.454338e+00	-2.175209e+02
7.200000e-07	-5.884191e-07	-3.239594e-09	-4.083604e+00	-2.128244e+02
7.300000e-07	-5.348228e-07	-3.159708e-09	-3.711648e+00	-2.080332e+02
7.400000e-07	-4.810037e-07	-3.082493e-09	-3.338146e+00	-2.031408e+02
7.500000e-07	-4.269554e-07	-3.009479e-09	-2.963053e+00	-1.981386e+02
7.600000e-07	-3.727590e-07	-2.936308e-09	-2.586932e+00	-1.930175e+02
7.700000e-07	-3.184701e-07	-2.851471e-09	-2.210169e+00	-1.877717e+02
7.800000e-07	-2.640934e-07	-2.763828e-09	-1.832797e+00	-1.824000e+02
7.900000e-07	-2.096570e-07	-2.680281e-09	-1.455011e+00	-1.769059e+02
8.000000e-07	-1.551823e-07	-2.599873e-09	-1.076959e+00	-1.712950e+02
8.100000e-07	-1.007057e-07	-2.513358e-09	-6.988937e-01	-1.655711e+02
8.200000e-07	-4.622135e-08	-2.419745e-09	-3.207742e-01	-1.597325e+02
8.300000e-07	8.308515e-09	-2.326302e-09	5.766075e-02	-1.537700e+02
8.400000e-07	6.282921e-08	-2.231218e-09	4.360321e-01	-1.476683e+02
8.500000e-07	1.173361e-07	-2.134721e-09	8.143078e-01	-1.414085e+02
8.600000e-07	1.718159e-07	-2.033484e-09	1.192395e+00	-1.349735e+02
8.700000e-07	2.262480e-07	-1.931225e-09	1.570151e+00	-1.283513e+02
8.800000e-07	2.806330e-07	-1.829556e-09	1.947581e+00	-1.215362e+02
8.900000e-07	3.349501e-07	-1.725213e-09	2.324539e+00	-1.145269e+02
9.000000e-07	3.891675e-07	-1.612125e-09	2.700806e+00	-1.073224e+02
9.100000e-07	4.432049e-07	-1.493283e-09	3.075823e+00	-9.991653e+01
9.200000e-07	4.970644e-07	-1.375368e-09	3.449606e+00	-9.229487e+01
9.300000e-07	5.507720e-07	-1.256588e-09	3.822335e+00	-8.443411e+01
9.400000e-07	6.042808e-07	-1.133215e-09	4.193683e+00	-7.630518e+01
9.500000e-07	6.575374e-07	-1.002658e-09	4.563282e+00	-6.787853e+01
9.600000e-07	7.104839e-07	-8.684247e-10	4.930728e+00	-5.912962e+01
9.700000e-07	7.631813e-07	-7.289692e-10	5.296446e+00	-5.004194e+01
9.800000e-07	8.156684e-07	-5.840843e-10	5.660705e+00	-4.060645e+01
9.900000e-07	8.678691e-07	-4.313356e-10	6.022975e+00	-3.081718e+01
1.000000e-06	9.197125e-07	-2.724768e-10	6.382766e+00	-2.066489e+01
1.010000e-06	9.711332e-07	-1.114148e-10	6.739624e+00	-1.013153e+01
1.020000e-06	1.021963e-06	5.316339e-11	7.092378e+00	8.117662e-01
1.030000e-06	1.072083e-06	2.251352e-10	7.440209e+00	1.220150e+01
1.040000e-06	1.121565e-06	4.093593e-10	7.783611e+00	2.407355e+01
1.050000e-06	1.170562e-06	6.014855e-10	8.123652e+00	3.645188e+01
1.060000e-06	1.219233e-06	7.990158e-10	8.461423e+00	4.933741e+01
1.070000e-06	1.267641e-06	1.003352e-09	8.797378e+00	6.270028e+01
1.080000e-06	1.315717e-06	1.215470e-09	9.131022e+00	7.647768e+01
1.090000e-06	1.363319e-06	1.430015e-09	9.461379e+00	9.057762e+01
1.100000e-06	1.410404e-06	1.642365e-09	9.788146e+00	1.048872e+02
1.110000e-06	1.456964e-06	1.855663e-09	1.011127e+01	1.192829e+02
1.120000e-06	1.502984e-06	2.073600e-09	1.043064e+01	1.336397e+02
1.130000e-06	1.548470e-06	2.291577e-09	1.074632e+01	1.478377e+02
1.140000e-06	1.593493e-06	2.502139e-09	1.105877e+01	1.617654e+02
1.150000e-06	1.638159e-06	2.706058e-09	1.136876e+01	1.753201e+02
1.160000e-06	1.682418e-06	2.903424e-09	1.167591e+01	1.884084e+02
1.170000e-06	1.726152e-06	3.094139e-09	1.197942e+01	2.009471e+02
1.180000e-06	1.769068e-06	3.275643e-09	1.227725e+01	2.128656e+02
1.190000e-06	1.810966e-06	3.444997e-09	1.256803e+01	2.241105e+02
1.200000e-06	1.852083e-06	3.603611e-09	1.285338e+01	2.346492e+02
1.210000e-06	1.892642e-06	3.754771e-09	1.313486e+01	2.444724e+02
1.220000e-06	1.932673e-06	3.895609e-09	1.341267e+01	2.535931e+02
1.230000e-06	1.972084e-06	4.021080e-09	1.368618e+01	2.620428e+02
1.240000e-06	2.010811e-06	4.134217e-09	1.395494e+01	2.698648e+02
1.250000e-06	2.048832e-06	4.240289e-09	1.421881e+01	2.771080e+02
1.260000e-06	2.086122e-06	4.342299e-09	1.447760e+01	2.838210e+02
1.270000e-06	2.122829e-06	4.437734e-09	1.473234e+01	2.900492e+02
1.280000e-06	2.159068e-06	4.524767e-09	1.498384e+01	2.958345e+02
1.290000e-06	2.194520e-06	4.604654e-09	1.522988e+01	3.012167e+02
1.300000e-06	2.228855e-06	4.680229e-09	1.546816e+01	3.062344e+02
1.310000e-06	2.262145e-06	4.751290e-09	1.569919e+01	3.109258e+02
1.320000e-06	2.294699e-06	4.816457e-09	1.592511e+01	3.153270e+02
1.330000e-06	2.326597e-06	4.876442e-09	1.614649e+01	3.194689e+02
1.340000e-06	2.357708e-06	4.933137e-09	1.636240e+01	3.233750e+02
1.350000e-06	2.388021e-06	4.987315e-09	1.657276e+01	3.270594e+02
1.360000e-06	2.417508e-06	5.036887e-09	1.677740e+01	3.305280e+02
1.370000e-06	2.446284e-06	5.082902e-09	1.697711e+01	3.337818e+02
1.380000e-06	2.474388e-06	5.129002e-09	1.717215e+01	3.368210e+02
1.390000e-06	2.501496e-06	5.173450e-09	1.736028e+01	3.396497e+02
1.400000e-06	2.527384e-06	5.211349e-09	1.753994e+01	3.422779e+02
1.410000e-06	2.552222e-06	5.243312e-09	1.771231e+01	3.447214e+02
1.420000e-06	2.576177e-06	5.273485e-09	1.787856e+01	3.469991e+02
1.430000e-06	2.599277e-06	5.303386e-09	1.803888e+01	3.491297e+02
1.440000e-06	2.621483e-06	5.332503e-09	1.819298e+01	3.511282e+02
1.450000e-06	2.642784e-06	5.359041e-09	1.834081e+01	3.530044e+02
1.460000e-06	2.663414e-06	5.385078e-09	1.848398e+01	3.547642e+02
1.470000e-06	2.683302e-06	5.412229e-09	1.862200e+01	3.564111e+02
1.480000e-06	2.702163e-06	5.437677e-09	1.875290e+01	3.579493e+02
1.490000e-06	2.720036e-06	5.458730e-09	1.887693e+01	3.593847e+02
1.500000e-06	2.736893e-06	5.476952e-09	1.899392e+01	3.607247e+02
1.510000e-06	2.752665e-06	5.495252e-09	1.910338e+01	3.619760e+02
1.520000e-06	2.767427e-06	5.513152e-09	1.920583e+01	3.631414e+02
1.530000e-06	2.781173e-06	5.528359e-09	1.930123e+01	3.642191e+02
1.540000e-06	2.793922e-06	5.541069e-09	1.938970e+01	3.652022e+02
1.550000e-06	2.805569e-06	5.553614e-09	1.947053e+01	3.660824e+02
1.560000e-06	2.815903e-06	5.565616e-09	1.954225e+01	3.668540e+02
1.570000e-06	2.825054e-06	5.578344e-09	1.960576e+01	3.675175e+02
1.580000e-06	2.833282e-06	5.590482e-09	1.966286e+01	3.680820e+02
1.590000e-06	2.840580e-06	5.599648e-09	1.971350e+01	3.685629e+02
1.600000e-06	2.846887e-06	5.606126e-09	1.975728e+01	3.689776e+02
1.610000e-06	2.852286e-06	5.610112e-09	1.979474e+01	3.693397e+02
1.620000e-06	2.856880e-06	5.612679e-09	1.982663e+01	3.696542e+02
1.630000e-06	2.860525e-06	5.616401e-09	1.985192e+01	3.699156e+02
1.640000e-06	2.862897e-06	5.620900e-09	1.986839e+01	3.701111e+02
1.650000e-06	2.864082e-06	5.625039e-09	1.987661e+01	3.702260e+02
1.660000e-06	2.864355e-06	5.628995e-09	1.987850e+01	3.702508e+02
1.670000e-06	2.863756e-06	5.629391e-09	1.987434e+01	3.701859e+02
1.680000e-06	2.862250e-06	5.624441e-09	1.986390e+01	3.700427e+02
1.690000e-06	2.859850e-06	5.618846e-09	1.984724e+01	3.698389e+02
1.700000e-06	2.856710e-06	5.613412e-09	1.982544e+01	3.695913e+02
1.710000e-06	2.852783e-06	5.607521e-09	1.979820e+01	3.693081e+02
1.720000e-06	2.847706e-06	5.608725e-09	1.976296e+01	3.689841e+02
1.730000e-06	2.841412e-06	5.636751e-09	1.971928e+01	3.686022e+02
1.740000e-06	2.834200e-06	5.610748e-09	1.966923e+01	3.681400e+02
1.750000e-06	2.826045e-06	5.487903e-09	1.961263e+01	3.675808e+02
1.760000e-06	2.816412e-06	5.449356e-09	1.954578e+01	3.669238e+02
1.770000e-06	2.805267e-06	5.652159e-09	1.946843e+01	3.661888e+02
1.780000e-06	2.793539e-06	5.694517e-09	1.938704e+01	3.654141e+02
1.790000e-06	2.781690e-06	5.448957e-09	1.930482e+01	3.646463e+02
1.800000e-06	2.768716e-06	5.414081e-09	1.921477e+01	3.639245e+02
1.810000e-06	2.753996e-06	5.647041e-09	1.911261e+01	3.632662e+02
1.820000e-06	2.738437e-06	5.542194e-09	1.900464e+01	3.626581e+02
1.830000e-06	2.722304e-06	5.308365e-09	1.889268e+01	3.620567e+02
1.840000e-06	2.704857e-06	5.568360e-09	1.877159e+01	3.613991e+02
1.850000e-06	2.686215e-06	5.649059e-09	1.864222e+01	3.606210e+02
1.860000e-06	2.666976e-06	5.322711e-09	1.850870e+01	3.596749e+02
1.870000e-06	2.646808e-06	5.448019e-09	1.836874e+01	3.585449e+02
1.880000e-06	2.625415e-06	5.621486e-09	1.822027e+01	3.572498e+02
1.890000e-06	2.603089e-06	5.292400e-09	1.806533e+01	3.558363e+02
1.900000e-06	2.579756e-06	5.275463e-09	1.790340e+01	3.543631e+02
1.910000e-06	2.555408e-06	5.492591e-09	1.773443e+01	3.528816e+02
1.920000e-06	2.530385e-06	5.363406e-09	1.756076e+01	3.514208e+02
1.930000e-06	2.504538e-06	5.276126e-09	1.738139e+01	3.499793e+02
1.940000e-06	2.477775e-06	5.344228e-09	1.719565e+01	3.485293e+02
1.950000e-06	2.450402e-06	5.273573e-09	1.700569e+01	3.470282e+02
1.960000e-06	2.422121e-06	5.271547e-09	1.680942e+01	3.454347e+02
1.970000e-06	2.392581e-06	5.229431e-09	1.660441e+01	3.437229e+02
1.980000e-06	2.362031e-06	5.125935e-09	1.639239e+01	3.418898e+02
1.990000e-06	2.330727e-06	5.225466e-09	1.617515e+01	3.399540e+02
2.000000e-06	2.298751e-06	5.175682e-09	1.595324e+01	3.379464e+02
2.010000e-06	2.266039e-06	5.052981e-09	1.572622e+01	3.358980e+02
2.020000e-06	2.232453e-06	5.132758e-09	1.549313e+01	3.338282e+02
2.030000e-06	2.198134e-06	5.042925e-09	1.525496e+01	3.317390e+02
2.040000e-06	2.163199e-06	4.944614e-09	1.501251e+01	3.296165e+02
2.050000e-06	2.127609e-06	5.040133e-09	1.476552e+01	3.274380e+02
2.060000e-06	2.091352e-06	4.950650e-09	1.451389e+01	3.251817e+02
2.070000e-06	2.054161e-06	4.859143e-09	1.425579e+01	3.228356e+02
2.080000e-06	2.015843e-06	4.906060e-09	1.398987e+01	3.204008e+02
2.090000e-06	1.976719e-06	4.843337e-09	1.371835e+01	3.178899e+02
2.100000e-06	1.937034e-06	4.787371e-09	1.344293e+01	3.153201e+02
2.110000e-06	1.896734e-06	4.754662e-09	1.316325e+01	3.127054e+02
2.120000e-06	1.855819e-06	4.698461e-09	1.287930e+01	3.100506e+02
2.130000e-06	1.814309e-06	4.687866e-09	1.259123e+01	3.073490e+02
2.140000e-06	1.772257e-06	4.636213e-09	1.229939e+01	3.045864e+02
2.150000e-06	1.729624e-06	4.573795e-09	1.200352e+01	3.017465e+02
2.160000e-06	1.686453e-06	4.546171e-09	1.170391e+01	2.988182e+02
2.170000e-06	1.642851e-06	4.501247e-09	1.140132e+01	2.957998e+02
2.180000e-06	1.598669e-06	4.456733e-09	1.109470e+01	2.926991e+02
2.190000e-06	1.553878e-06	4.407037e-09	1.078385e+01	2.895298e+02
2.200000e-06	1.508478e-06	4.349343e-09	1.046877e+01	2.863049e+02
2.210000e-06	1.462535e-06	4.303983e-09	1.014993e+01	2.830315e+02
2.220000e-06	1.416192e-06	4.253608e-09	9.828314e+00	2.797071e+02
2.230000e-06	1.369362e-06	4.210500e-09	9.503312e+00	2.763204e+02
2.240000e-06	1.322047e-06	4.148841e-09	9.174948e+00	2.728555e+02
2.250000e-06	1.274129e-06	4.092352e-09	8.842402e+00	2.692977e+02
2.260000e-06	1.225587e-06	4.058686e-09	8.505523e+00	2.656381e+02
2.270000e-06	1.176623e-06	3.990952e-09	8.165717e+00	2.618764e+02
2.280000e-06	1.127245e-06	3.921904e-09	7.823035e+00	2.580193e+02
2.290000e-06	1.077502e-06	3.864562e-09	7.477820e+00	2.540774e+02
2.300000e-06	1.027326e-06	3.808054e-09	7.129596e+00	2.500604e+02
2.310000e-06	9.766488e-07	3.756413e-09	6.777902e+00	2.459734e+02
2.320000e-06	9.256373e-07	3.690207e-09	6.423884e+00	2.418158e+02
2.330000e-06	8.743869e-07	3.622130e-09	6.068208e+00	2.375826e+02
2.340000e-06	8.229116e-07	3.560628e-09	5.710972e+00	2.332672e+02
2.350000e-06	7.711084e-07	3.493055e-09	5.351460e+00	2.288640e+02
2.360000e-06	7.188740e-07	3.423668e-09	4.988956e+00	2.243700e+02
2.370000e-06	6.662534e-07	3.348500e-09	4.623771e+00	2.197848e+02
2.380000e-06	6.131880e-07	3.278342e-09	4.255499e+00	2.151080e+02
2.390000e-06	5.596636e-07	3.216491e-09	3.884042e+00	2.103374e+02
2.400000e-06	5.057963e-07	3.144013e-09	3.510205e+00	2.054673e+02
2.410000e-06	4.517021e-07	3.067074e-09	3.134794e+00	2.004894e+02
2.420000e-06	3.974598e-07	2.986631e-09	2.758354e+00	1.953943e+02
2.430000e-06	3.429906e-07	2.907852e-09	2.380340e+00	1.901754e+02
2.440000e-06	2.883121e-07	2.829969e-09	2.000874e+00	1.848305e+02
2.450000e-06	2.335106e-07	2.742938e-09	1.620554e+00	1.793620e+02
2.460000e-06	1.786189e-07	2.656385e-09	1.239608e+00	1.737756e+02
2.470000e-06	1.236877e-07	2.573037e-09	8.583875e-01	1.680758e+02
2.480000e-06	6.873917e-08	2.490006e-09	4.770469e-01	1.622622e+02
2.490000e-06	1.377290e-08	2.401366e-09	9.558332e-02	1.563274e+02
2.500000e-06	-4.121304e-08	2.306068e-09	-2.860168e-01	1.502569e+02
2.510000e-06	-9.620283e-08	2.212838e-09	-6.676436e-01	1.440325e+02
2.520000e-06	-1.511321e-07	2.119322e-09	-1.048851e+00	1.376362e+02
2.530000e-06	-2.059750e-07	2.017808e-09	-1.429458e+00	1.310548e+02
2.540000e-06	-2.608056e-07	1.912150e-09	-1.809980e+00	1.242811e+02
2.550000e-06	-3.155596e-07	1.807221e-09	-2.189971e+00	1.173134e+02
2.560000e-06	-3.701115e-07	1.701729e-09	-2.568558e+00	1.101509e+02
2.570000e-06	-4.244834e-07	1.591659e-09	-2.945897e+00	1.027890e+02
2.580000e-06	-4.786366e-07	1.475082e-09	-3.321718e+00	9.521517e+01
2.590000e-06	-5.324713e-07	1.358757e-09	-3.695329e+00	8.740789e+01
2.600000e-06	-5.859624e-07	1.239924e-09	-4.066554e+00	7.933891e+01
2.610000e-06	-6.391336e-07	1.113165e-09	-4.435561e+00	7.097829e+01
2.620000e-06	-6.918886e-07	9.777002e-10	-4.801678e+00	6.230004e+01
2.630000e-06	-7.441939e-07	8.376119e-10	-5.164674e+00	5.328585e+01
2.640000e-06	-7.961185e-07	6.972923e-10	-5.525029e+00	4.392534e+01
2.650000e-06	-8.476920e-07	5.534577e-10	-5.882947e+00	3.421237e+01
2.660000e-06	-8.989874e-07	4.025474e-10	-6.238935e+00	2.413895e+01
2.670000e-06	-9.500408e-07	2.441320e-10	-6.593243e+00	1.368925e+01
2.680000e-06	-1.000834e-06	8.111819e-11	-6.945748e+00	2.836628e+00
2.690000e-06	-1.051246e-06	-8.777549e-11	-7.295602e+00	-8.454319e+00
2.700000e-06	-1.101196e-06	-2.667063e-10	-7.642256e+00	-2.022049e+01
2.710000e-06	-1.150689e-06	-4.570952e-10	-7.985737e+00	-3.248939e+01
2.720000e-06	-1.199797e-06	-6.542811e-10	-8.326538e+00	-4.526769e+01
2.730000e-06	-1.248469e-06	-8.554005e-10	-8.664321e+00	-5.853253e+01
2.740000e-06	-1.296358e-06	-1.062603e-09	-8.996671e+00	-7.222804e+01
2.750000e-06	-1.343433e-06	-1.275918e-09	-9.323369e+00	-8.626788e+01
2.760000e-06	-1.389899e-06	-1.493557e-09	-9.645839e+00	-1.005428e+02
2.770000e-06	-1.435854e-06	-1.712435e-09	-9.964763e+00	-1.149307e+02
2.780000e-06	-1.481445e-06	-1.932834e-09	-1.028116e+01	-1.293063e+02
2.790000e-06	-1.526696e-06	-2.155418e-09	-1.059521e+01	-1.435481e+02
2.800000e-06	-1.571479e-06	-2.376368e-09	-1.090600e+01	-1.575427e+02
2.810000e-06	-1.615667e-06	-2.588403e-09	-1.121266e+01	-1.711856e+02
2.820000e-06	-1.659279e-06	-2.789162e-09	-1.151533e+01	-1.843813e+02
2.830000e-06	-1.702531e-06	-2.980868e-09	-1.181549e+01	-1.970442e+02
2.840000e-06	-1.745387e-06	-3.163524e-09	-1.211292e+01	-2.091009e+02
2.850000e-06	-1.787653e-06	-3.335591e-09	-1.240624e+01	-2.204937e+02
2.860000e-06	-1.829376e-06	-3.496403e-09	-1.269580e+01	-2.311854e+02
2.870000e-06	-1.870576e-06	-3.649667e-09	-1.298172e+01	-2.411616e+02
2.880000e-06	-1.911119e-06	-3.797280e-09	-1.326309e+01	-2.504309e+02
2.890000e-06	-1.950962e-06	-3.936861e-09	-1.353959e+01	-2.590210e+02
2.900000e-06	-1.990260e-06	-4.062869e-09	-1.381232e+01	-2.669736e+02
2.910000e-06	-2.028953e-06	-4.175324e-09	-1.408085e+01	-2.743368e+02
2.920000e-06	-2.066712e-06	-4.278095e-09	-1.434289e+01	-2.811595e+02
2.930000e-06	-2.103408e-06	-4.372755e-09	-1.459756e+01	-2.874880e+02
2.940000e-06	-2.139233e-06	-4.461112e-09	-1.484619e+01	-2.933649e+02
