# Temperatura_=_24.3
# Concentracion g/m^3_=_13400.0
# C_Vs_to_Am_M_A/Vsm_=_65563218390.804596
# pendiente_HvsI_1/m_=_3716.3
# ordenada_HvsI_A/m_=_1297.0
# frecuencia_Hz_=_300840.3133089767

Tiempo_(s)	Campo_(V.s)	Magnetizacion_(V.s)	Campo_(kA/m)	Magnetizacion_(A/m)
0.000000e+00	-2.856457e-06	-5.675316e-09	-1.980310e+01	-3.703841e+02
1.000000e-08	-2.855606e-06	-5.675888e-09	-1.979720e+01	-3.702567e+02
2.000000e-08	-2.853760e-06	-5.675857e-09	-1.978441e+01	-3.700929e+02
3.000000e-08	-2.850681e-06	-5.670755e-09	-1.976306e+01	-3.698968e+02
4.000000e-08	-2.846556e-06	-5.663338e-09	-1.973446e+01	-3.696614e+02
5.000000e-08	-2.841593e-06	-5.657033e-09	-1.970005e+01	-3.693713e+02
6.000000e-08	-2.835784e-06	-5.653180e-09	-1.965978e+01	-3.690085e+02
7.000000e-08	-2.828990e-06	-5.646744e-09	-1.961268e+01	-3.685593e+02
8.000000e-08	-2.821163e-06	-5.636344e-09	-1.955842e+01	-3.680193e+02
9.000000e-08	-2.812137e-06	-5.646932e-09	-1.949584e+01	-3.673951e+02
1.000000e-07	-2.801704e-06	-5.658657e-09	-1.942351e+01	-3.667028e+02
1.100000e-07	-2.790096e-06	-5.611449e-09	-1.934304e+01	-3.659623e+02
1.200000e-07	-2.777659e-06	-5.544874e-09	-1.925681e+01	-3.651918e+02
1.300000e-07	-2.764388e-06	-5.561297e-09	-1.916481e+01	-3.644024e+02
1.400000e-07	-2.750178e-06	-5.644216e-09	-1.906630e+01	-3.635963e+02
1.500000e-07	-2.734925e-06	-5.544853e-09	-1.896055e+01	-3.627671e+02
1.600000e-07	-2.718456e-06	-5.499622e-09	-1.884637e+01	-3.619036e+02
1.700000e-07	-2.700770e-06	-5.591251e-09	-1.872376e+01	-3.609935e+02
1.800000e-07	-2.682158e-06	-5.541361e-09	-1.859473e+01	-3.600274e+02
1.900000e-07	-2.662853e-06	-5.451567e-09	-1.846089e+01	-3.589999e+02
2.000000e-07	-2.642720e-06	-5.483164e-09	-1.832132e+01	-3.579091e+02
2.100000e-07	-2.621706e-06	-5.492477e-09	-1.817563e+01	-3.567549e+02
2.200000e-07	-2.599879e-06	-5.396101e-09	-1.802431e+01	-3.555362e+02
2.300000e-07	-2.577129e-06	-5.423665e-09	-1.786659e+01	-3.542501e+02
2.400000e-07	-2.553428e-06	-5.457911e-09	-1.770228e+01	-3.528924e+02
2.500000e-07	-2.528928e-06	-5.369178e-09	-1.753242e+01	-3.514591e+02
2.600000e-07	-2.503591e-06	-5.326734e-09	-1.735677e+01	-3.499490e+02
2.700000e-07	-2.477179e-06	-5.351701e-09	-1.717366e+01	-3.483651e+02
2.800000e-07	-2.449640e-06	-5.294815e-09	-1.698274e+01	-3.467146e+02
2.900000e-07	-2.421132e-06	-5.263925e-09	-1.678510e+01	-3.450073e+02
3.000000e-07	-2.391822e-06	-5.245851e-09	-1.658190e+01	-3.432522e+02
3.100000e-07	-2.361843e-06	-5.243031e-09	-1.637406e+01	-3.414548e+02
3.200000e-07	-2.331155e-06	-5.227336e-09	-1.616132e+01	-3.396148e+02
3.300000e-07	-2.299652e-06	-5.151762e-09	-1.594291e+01	-3.377268e+02
3.400000e-07	-2.267426e-06	-5.131413e-09	-1.571950e+01	-3.357820e+02
3.500000e-07	-2.234643e-06	-5.111205e-09	-1.549222e+01	-3.337718e+02
3.600000e-07	-2.201096e-06	-5.047960e-09	-1.525965e+01	-3.316908e+02
3.700000e-07	-2.166411e-06	-5.031424e-09	-1.501918e+01	-3.295382e+02
3.800000e-07	-2.130657e-06	-5.032709e-09	-1.477131e+01	-3.273183e+02
3.900000e-07	-2.094179e-06	-4.946385e-09	-1.451842e+01	-3.250379e+02
4.000000e-07	-2.057056e-06	-4.924953e-09	-1.426105e+01	-3.227037e+02
4.100000e-07	-2.019224e-06	-4.922591e-09	-1.399877e+01	-3.203191e+02
4.200000e-07	-1.980689e-06	-4.850017e-09	-1.373162e+01	-3.178831e+02
4.300000e-07	-1.941375e-06	-4.797146e-09	-1.345906e+01	-3.153910e+02
4.400000e-07	-1.901361e-06	-4.778148e-09	-1.318166e+01	-3.128359e+02
4.500000e-07	-1.860939e-06	-4.738620e-09	-1.290143e+01	-3.102119e+02
4.600000e-07	-1.820120e-06	-4.690514e-09	-1.261844e+01	-3.075155e+02
4.700000e-07	-1.778617e-06	-4.658927e-09	-1.233071e+01	-3.047475e+02
4.800000e-07	-1.736100e-06	-4.616616e-09	-1.203595e+01	-3.019111e+02
4.900000e-07	-1.692572e-06	-4.574338e-09	-1.173418e+01	-2.990106e+02
5.000000e-07	-1.648386e-06	-4.516612e-09	-1.142784e+01	-2.960490e+02
5.100000e-07	-1.603782e-06	-4.471291e-09	-1.111862e+01	-2.930264e+02
5.200000e-07	-1.558798e-06	-4.425240e-09	-1.080675e+01	-2.899396e+02
5.300000e-07	-1.513274e-06	-4.373801e-09	-1.049115e+01	-2.867836e+02
5.400000e-07	-1.467132e-06	-4.331910e-09	-1.017126e+01	-2.835533e+02
5.500000e-07	-1.420434e-06	-4.287970e-09	-9.847510e+00	-2.802449e+02
5.600000e-07	-1.373208e-06	-4.228893e-09	-9.520105e+00	-2.768575e+02
5.700000e-07	-1.325543e-06	-4.164235e-09	-9.189660e+00	-2.733917e+02
5.800000e-07	-1.277504e-06	-4.116801e-09	-8.856615e+00	-2.698487e+02
5.900000e-07	-1.229116e-06	-4.057459e-09	-8.521150e+00	-2.662286e+02
6.000000e-07	-1.180319e-06	-3.998666e-09	-8.182857e+00	-2.625287e+02
6.100000e-07	-1.130959e-06	-3.949072e-09	-7.840657e+00	-2.587439e+02
6.200000e-07	-1.080947e-06	-3.893058e-09	-7.493932e+00	-2.548681e+02
6.300000e-07	-1.030258e-06	-3.823947e-09	-7.142521e+00	-2.508963e+02
6.400000e-07	-9.790025e-07	-3.755460e-09	-6.787179e+00	-2.468265e+02
6.500000e-07	-9.272942e-07	-3.692000e-09	-6.428699e+00	-2.426609e+02
6.600000e-07	-8.752151e-07	-3.626489e-09	-6.067647e+00	-2.384055e+02
6.700000e-07	-8.228711e-07	-3.564068e-09	-5.704759e+00	-2.340680e+02
6.800000e-07	-7.702847e-07	-3.499049e-09	-5.340191e+00	-2.296548e+02
6.900000e-07	-7.174399e-07	-3.434879e-09	-4.973831e+00	-2.251690e+02
7.000000e-07	-6.643535e-07	-3.363132e-09	-4.605797e+00	-2.206088e+02
7.100000e-07	-6.110055e-07	-3.287911e-09	-4.235948e+00	-2.159675e+02
7.200000e-07	-5.573802e-07	-3.212838e-09	-3.864178e+00	-2.112353e+02
7.300000e-07	-5.035226e-07	-3.136491e-09	-3.490796e+00	-2.064018e+02
7.400000e-07	-4.494932e-07	-3.059657e-09	-3.116224e+00	-2.014581e+02
7.500000e-07	-3.953384e-07	-2.982209e-09	-2.740782e+00	-1.963980e+02
7.600000e-07	-3.410728e-07	-2.904937e-09	-2.364573e+00	-1.912180e+02
7.700000e-07	-2.867200e-07	-2.821914e-09	-1.987758e+00	-1.859160e+02
7.800000e-07	-2.323168e-07	-2.739716e-09	-1.610594e+00	-1.804895e+02
7.900000e-07	-1.778470e-07	-2.657750e-09	-1.232968e+00	-1.749349e+02
8.000000e-07	-1.233341e-07	-2.570096e-09	-8.550445e-01	-1.692466e+02
8.100000e-07	-6.879611e-08	-2.473659e-09	-4.769462e-01	-1.634180e+02
8.200000e-07	-1.422405e-08	-2.379965e-09	-9.861175e-02	-1.574423e+02
8.300000e-07	4.035366e-08	-2.288819e-09	2.797618e-01	-1.513142e+02
8.400000e-07	9.492642e-08	-2.191774e-09	6.581011e-01	-1.450294e+02
8.500000e-07	1.494605e-07	-2.091821e-09	1.036172e+00	-1.385843e+02
8.600000e-07	2.039503e-07	-1.991095e-09	1.413937e+00	-1.319745e+02
8.700000e-07	2.584050e-07	-1.889941e-09	1.791457e+00	-1.251926e+02
8.800000e-07	3.127894e-07	-1.782062e-09	2.168491e+00	-1.182278e+02
8.900000e-07	3.670787e-07	-1.669589e-09	2.544865e+00	-1.110650e+02
9.000000e-07	4.212369e-07	-1.553366e-09	2.920330e+00	-1.036865e+02
9.100000e-07	4.752378e-07	-1.434581e-09	3.294705e+00	-9.607394e+01
9.200000e-07	5.290837e-07	-1.313367e-09	3.668005e+00	-8.820997e+01
9.300000e-07	5.827384e-07	-1.190385e-09	4.039980e+00	-8.007951e+01
9.400000e-07	6.362023e-07	-1.062729e-09	4.410631e+00	-7.166957e+01
9.500000e-07	6.893922e-07	-9.278231e-10	4.779384e+00	-6.296787e+01
9.600000e-07	7.422738e-07	-7.906289e-10	5.145998e+00	-5.396075e+01
9.700000e-07	7.948811e-07	-6.493635e-10	5.510711e+00	-4.463117e+01
9.800000e-07	8.471987e-07	-5.018328e-10	5.873417e+00	-3.495769e+01
9.900000e-07	8.992197e-07	-3.443316e-10	6.234065e+00	-2.491470e+01
1.000000e-06	9.509142e-07	-1.804572e-10	6.592450e+00	-1.447401e+01
1.010000e-06	1.002117e-06	-1.259195e-11	6.947423e+00	-3.607365e+00
1.020000e-06	1.052708e-06	1.589153e-10	7.298164e+00	7.710562e+00
1.030000e-06	1.102683e-06	3.362607e-10	7.644622e+00	1.949921e+01
1.040000e-06	1.152019e-06	5.247509e-10	7.986663e+00	3.176917e+01
1.050000e-06	1.200896e-06	7.222847e-10	8.325509e+00	4.451906e+01
1.060000e-06	1.249448e-06	9.267085e-10	8.662113e+00	5.773211e+01
1.070000e-06	1.297689e-06	1.134492e-09	8.996556e+00	7.137252e+01
1.080000e-06	1.345562e-06	1.347858e-09	9.328441e+00	8.538207e+01
1.090000e-06	1.392892e-06	1.566623e-09	9.656573e+00	9.967804e+01
1.100000e-06	1.439688e-06	1.787239e-09	9.980997e+00	1.141537e+02
1.110000e-06	1.486054e-06	2.006548e-09	1.030244e+01	1.286823e+02
1.120000e-06	1.531853e-06	2.223064e-09	1.061995e+01	1.431242e+02
1.130000e-06	1.577082e-06	2.437418e-09	1.093351e+01	1.573376e+02
1.140000e-06	1.621895e-06	2.647827e-09	1.124419e+01	1.711891e+02
1.150000e-06	1.666310e-06	2.849883e-09	1.155211e+01	1.845637e+02
1.160000e-06	1.710279e-06	3.040290e-09	1.185694e+01	1.973716e+02
1.170000e-06	1.753601e-06	3.224117e-09	1.215728e+01	2.095496e+02
1.180000e-06	1.796043e-06	3.401487e-09	1.245152e+01	2.210590e+02
1.190000e-06	1.837561e-06	3.568511e-09	1.273935e+01	2.318810e+02
1.200000e-06	1.878353e-06	3.720713e-09	1.302215e+01	2.420100e+02
1.210000e-06	1.918604e-06	3.859815e-09	1.330120e+01	2.514496e+02
1.220000e-06	1.958291e-06	3.989524e-09	1.357634e+01	2.602110e+02
1.230000e-06	1.997284e-06	4.110661e-09	1.384667e+01	2.683134e+02
1.240000e-06	2.035571e-06	4.222639e-09	1.411210e+01	2.757865e+02
1.250000e-06	2.073141e-06	4.325466e-09	1.437257e+01	2.826725e+02
1.260000e-06	2.110045e-06	4.423443e-09	1.462841e+01	2.890254e+02
1.270000e-06	2.146437e-06	4.514698e-09	1.488071e+01	2.949074e+02
1.280000e-06	2.182225e-06	4.595393e-09	1.512882e+01	3.003826e+02
1.290000e-06	2.217032e-06	4.666996e-09	1.537013e+01	3.055089e+02
1.300000e-06	2.250721e-06	4.735603e-09	1.560368e+01	3.103321e+02
1.310000e-06	2.283581e-06	4.803919e-09	1.583150e+01	3.148818e+02
1.320000e-06	2.315743e-06	4.868888e-09	1.605446e+01	3.191727e+02
1.330000e-06	2.347157e-06	4.928527e-09	1.627225e+01	3.232089e+02
1.340000e-06	2.377778e-06	4.984675e-09	1.648454e+01	3.269907e+02
1.350000e-06	2.407628e-06	5.036865e-09	1.669148e+01	3.305212e+02
1.360000e-06	2.436731e-06	5.083782e-09	1.689325e+01	3.338104e+02
1.370000e-06	2.465151e-06	5.128925e-09	1.709028e+01	3.368755e+02
1.380000e-06	2.492768e-06	5.171499e-09	1.728174e+01	3.397388e+02
1.390000e-06	2.519265e-06	5.209067e-09	1.746543e+01	3.424225e+02
1.400000e-06	2.544581e-06	5.243885e-09	1.764094e+01	3.449450e+02
1.410000e-06	2.568853e-06	5.277388e-09	1.780921e+01	3.473179e+02
1.420000e-06	2.592261e-06	5.309865e-09	1.797150e+01	3.495469e+02
1.430000e-06	2.614845e-06	5.340578e-09	1.812806e+01	3.516341e+02
1.440000e-06	2.636587e-06	5.368286e-09	1.827879e+01	3.535823e+02
1.450000e-06	2.657528e-06	5.394549e-09	1.842397e+01	3.553975e+02
1.460000e-06	2.677716e-06	5.419689e-09	1.856393e+01	3.570902e+02
1.470000e-06	2.697085e-06	5.442637e-09	1.869821e+01	3.586735e+02
1.480000e-06	2.715466e-06	5.463429e-09	1.882564e+01	3.601597e+02
1.490000e-06	2.732794e-06	5.482208e-09	1.894578e+01	3.615568e+02
1.500000e-06	2.749051e-06	5.501045e-09	1.905848e+01	3.628664e+02
1.510000e-06	2.764223e-06	5.519732e-09	1.916367e+01	3.640843e+02
1.520000e-06	2.778358e-06	5.537166e-09	1.926166e+01	3.652035e+02
1.530000e-06	2.791577e-06	5.552428e-09	1.935331e+01	3.662185e+02
1.540000e-06	2.803760e-06	5.566360e-09	1.943776e+01	3.671290e+02
1.550000e-06	2.814684e-06	5.581508e-09	1.951350e+01	3.679417e+02
1.560000e-06	2.824341e-06	5.594607e-09	1.958045e+01	3.686690e+02
1.570000e-06	2.832932e-06	5.603381e-09	1.964001e+01	3.693246e+02
1.580000e-06	2.840656e-06	5.609972e-09	1.969356e+01	3.699188e+02
1.590000e-06	2.847446e-06	5.618253e-09	1.974063e+01	3.704544e+02
1.600000e-06	2.853265e-06	5.628277e-09	1.978097e+01	3.709254e+02
1.610000e-06	2.858167e-06	5.635715e-09	1.981496e+01	3.713193e+02
1.620000e-06	2.862172e-06	5.639872e-09	1.984272e+01	3.716219e+02
1.630000e-06	2.865052e-06	5.643508e-09	1.986269e+01	3.718236e+02
1.640000e-06	2.866694e-06	5.648695e-09	1.987407e+01	3.719238e+02
1.650000e-06	2.867333e-06	5.651587e-09	1.987850e+01	3.719322e+02
1.660000e-06	2.867067e-06	5.649376e-09	1.987666e+01	3.718664e+02
1.670000e-06	2.865904e-06	5.646322e-09	1.986859e+01	3.717465e+02
1.680000e-06	2.863869e-06	5.644386e-09	1.985449e+01	3.715882e+02
1.690000e-06	2.861012e-06	5.643169e-09	1.983468e+01	3.713977e+02
1.700000e-06	2.857312e-06	5.640233e-09	1.980903e+01	3.711699e+02
1.710000e-06	2.852677e-06	5.636201e-09	1.977689e+01	3.708905e+02
1.720000e-06	2.846987e-06	5.632680e-09	1.973745e+01	3.705415e+02
1.730000e-06	2.840224e-06	5.636012e-09	1.969056e+01	3.701080e+02
1.740000e-06	2.832462e-06	5.624819e-09	1.963675e+01	3.695836e+02
1.750000e-06	2.823432e-06	5.581012e-09	1.957415e+01	3.689732e+02
1.760000e-06	2.812899e-06	5.549566e-09	1.950112e+01	3.682912e+02
1.770000e-06	2.801388e-06	5.625476e-09	1.942132e+01	3.675575e+02
1.780000e-06	2.789557e-06	5.623131e-09	1.933930e+01	3.667909e+02
1.790000e-06	2.777044e-06	5.531597e-09	1.925255e+01	3.660041e+02
1.800000e-06	2.763042e-06	5.505699e-09	1.915548e+01	3.652008e+02
1.810000e-06	2.747774e-06	5.593695e-09	1.904963e+01	3.643761e+02
1.820000e-06	2.731814e-06	5.555545e-09	1.893898e+01	3.635193e+02
1.830000e-06	2.714882e-06	5.423628e-09	1.882160e+01	3.626179e+02
1.840000e-06	2.696685e-06	5.517638e-09	1.869544e+01	3.616620e+02
1.850000e-06	2.677598e-06	5.549649e-09	1.856311e+01	3.606452e+02
1.860000e-06	2.657795e-06	5.412207e-09	1.842583e+01	3.595654e+02
1.870000e-06	2.636943e-06	5.451208e-09	1.828126e+01	3.584222e+02
1.880000e-06	2.614976e-06	5.500913e-09	1.812898e+01	3.572148e+02
1.890000e-06	2.592010e-06	5.368324e-09	1.796976e+01	3.559407e+02
1.900000e-06	2.568058e-06	5.365500e-09	1.780370e+01	3.545957e+02
1.910000e-06	2.543329e-06	5.419864e-09	1.763227e+01	3.531757e+02
1.920000e-06	2.517848e-06	5.354815e-09	1.745561e+01	3.516788e+02
1.930000e-06	2.491473e-06	5.311064e-09	1.727276e+01	3.501073e+02
1.940000e-06	2.464326e-06	5.328671e-09	1.708456e+01	3.484676e+02
1.950000e-06	2.436361e-06	5.277830e-09	1.689068e+01	3.467694e+02
1.960000e-06	2.407256e-06	5.255679e-09	1.668890e+01	3.450220e+02
1.970000e-06	2.377038e-06	5.211655e-09	1.647941e+01	3.432315e+02
1.980000e-06	2.346031e-06	5.162427e-09	1.626445e+01	3.413990e+02
1.990000e-06	2.314296e-06	5.194411e-09	1.604443e+01	3.395198e+02
2.000000e-06	2.281831e-06	5.136701e-09	1.581937e+01	3.375855e+02
2.010000e-06	2.248574e-06	5.086291e-09	1.558880e+01	3.355871e+02
2.020000e-06	2.214470e-06	5.111066e-09	1.535236e+01	3.335185e+02
2.030000e-06	2.179742e-06	5.027538e-09	1.511160e+01	3.313781e+02
2.040000e-06	2.144437e-06	4.985495e-09	1.486685e+01	3.291694e+02
2.050000e-06	2.108440e-06	5.017719e-09	1.461729e+01	3.268990e+02
2.060000e-06	2.071567e-06	4.925004e-09	1.436165e+01	3.245736e+02
2.070000e-06	2.033591e-06	4.878409e-09	1.409838e+01	3.221975e+02
2.080000e-06	1.994694e-06	4.894231e-09	1.382872e+01	3.197706e+02
2.090000e-06	1.955204e-06	4.831221e-09	1.355494e+01	3.172886e+02
2.100000e-06	1.915168e-06	4.789476e-09	1.327738e+01	3.147449e+02
2.110000e-06	1.874451e-06	4.754367e-09	1.299510e+01	3.121331e+02
2.120000e-06	1.833060e-06	4.705525e-09	1.270815e+01	3.094494e+02
2.130000e-06	1.791128e-06	4.672075e-09	1.241744e+01	3.066936e+02
2.140000e-06	1.748673e-06	4.618700e-09	1.212311e+01	3.038687e+02
2.150000e-06	1.705691e-06	4.583565e-09	1.182513e+01	3.009790e+02
2.160000e-06	1.662235e-06	4.548962e-09	1.152386e+01	2.980279e+02
2.170000e-06	1.618281e-06	4.490808e-09	1.121913e+01	2.950159e+02
2.180000e-06	1.573744e-06	4.450748e-09	1.091038e+01	2.919405e+02
2.190000e-06	1.528570e-06	4.405356e-09	1.059720e+01	2.887969e+02
2.200000e-06	1.482785e-06	4.343815e-09	1.027978e+01	2.855798e+02
2.210000e-06	1.436526e-06	4.301001e-09	9.959074e+00	2.822852e+02
2.220000e-06	1.389858e-06	4.257484e-09	9.635539e+00	2.789114e+02
2.230000e-06	1.342748e-06	4.208851e-09	9.308934e+00	2.754591e+02
2.240000e-06	1.295057e-06	4.146718e-09	8.978305e+00	2.719296e+02
2.250000e-06	1.246695e-06	4.092540e-09	8.643026e+00	2.683229e+02
2.260000e-06	1.197837e-06	4.043365e-09	8.304301e+00	2.646372e+02
2.270000e-06	1.148633e-06	3.974382e-09	7.963188e+00	2.608676e+02
2.280000e-06	1.099025e-06	3.917883e-09	7.619263e+00	2.570081e+02
2.290000e-06	1.048956e-06	3.865135e-09	7.272146e+00	2.530533e+02
2.300000e-06	9.984319e-07	3.808150e-09	6.921878e+00	2.490006e+02
2.310000e-06	9.475183e-07	3.747646e-09	6.568907e+00	2.448514e+02
2.320000e-06	8.963390e-07	3.679404e-09	6.214094e+00	2.406112e+02
2.330000e-06	8.449281e-07	3.611900e-09	5.857675e+00	2.362873e+02
2.340000e-06	7.932034e-07	3.542015e-09	5.499081e+00	2.318869e+02
2.350000e-06	7.410785e-07	3.470395e-09	5.137712e+00	2.274138e+02
2.360000e-06	6.885644e-07	3.405432e-09	4.773645e+00	2.228668e+02
2.370000e-06	6.356866e-07	3.336966e-09	4.407056e+00	2.182403e+02
2.380000e-06	5.823501e-07	3.267597e-09	4.037287e+00	2.135247e+02
2.390000e-06	5.285917e-07	3.198787e-09	3.664594e+00	2.087096e+02
2.400000e-06	4.745900e-07	3.122397e-09	3.290213e+00	2.037857e+02
2.410000e-06	4.203292e-07	3.043638e-09	2.914037e+00	1.987464e+02
2.420000e-06	3.657987e-07	2.962079e-09	2.535991e+00	1.935876e+02
2.430000e-06	3.111036e-07	2.884883e-09	2.156803e+00	1.883071e+02
2.440000e-06	2.562971e-07	2.803994e-09	1.776843e+00	1.829027e+02
2.450000e-06	2.014046e-07	2.715474e-09	1.396288e+00	1.773710e+02
2.460000e-06	1.464861e-07	2.633276e-09	1.015552e+00	1.717067e+02
2.470000e-06	9.154445e-08	2.552749e-09	6.346547e-01	1.659032e+02
2.480000e-06	3.654864e-08	2.464843e-09	2.533826e-01	1.599539e+02
2.490000e-06	-1.848801e-08	2.368914e-09	-1.281728e-01	1.538530e+02
2.500000e-06	-7.352434e-08	2.272303e-09	-5.097258e-01	1.475960e+02
2.510000e-06	-1.285092e-07	2.176144e-09	-8.909220e-01	1.411795e+02
2.520000e-06	-1.834721e-07	2.076570e-09	-1.271966e+00	1.345991e+02
2.530000e-06	-2.384026e-07	1.973041e-09	-1.652786e+00	1.278483e+02
2.540000e-06	-2.932484e-07	1.869885e-09	-2.033018e+00	1.209167e+02
2.550000e-06	-3.479631e-07	1.764788e-09	-2.412341e+00	1.137901e+02
2.560000e-06	-4.024550e-07	1.654823e-09	-2.790120e+00	1.064511e+02
2.570000e-06	-4.567006e-07	1.539932e-09	-3.166191e+00	9.888131e+01
2.580000e-06	-5.107489e-07	1.418890e-09	-3.540894e+00	9.106304e+01
2.590000e-06	-5.645409e-07	1.295670e-09	-3.913820e+00	8.298079e+01
2.600000e-06	-6.179362e-07	1.170235e-09	-4.283997e+00	7.462127e+01
2.610000e-06	-6.708970e-07	1.040422e-09	-4.651161e+00	6.597223e+01
2.620000e-06	-7.234436e-07	9.022972e-10	-5.015453e+00	5.702040e+01
2.630000e-06	-7.755908e-07	7.591261e-10	-5.376977e+00	4.774946e+01
2.640000e-06	-8.273497e-07	6.165424e-10	-5.735808e+00	3.813879e+01
2.650000e-06	-8.787998e-07	4.691585e-10	-6.092499e+00	2.816343e+01
2.660000e-06	-9.300229e-07	3.125580e-10	-6.447615e+00	1.779548e+01
2.670000e-06	-9.809909e-07	1.489410e-10	-6.800964e+00	7.006503e+00
2.680000e-06	-1.031590e-06	-2.127100e-11	-7.151752e+00	-4.229580e+00
2.690000e-06	-1.081730e-06	-2.007879e-10	-7.499363e+00	-1.593348e+01
2.700000e-06	-1.131440e-06	-3.879809e-10	-7.843987e+00	-2.811759e+01
2.710000e-06	-1.180757e-06	-5.798285e-10	-8.185893e+00	-4.078289e+01
2.720000e-06	-1.229598e-06	-7.766242e-10	-8.524493e+00	-5.391564e+01
2.730000e-06	-1.277854e-06	-9.826225e-10	-8.859045e+00	-6.748370e+01
2.740000e-06	-1.325386e-06	-1.197049e-09	-9.188570e+00	-8.143306e+01
2.750000e-06	-1.372146e-06	-1.416979e-09	-9.512745e+00	-9.568542e+01
2.760000e-06	-1.418311e-06	-1.638535e-09	-9.832797e+00	-1.101382e+02
2.770000e-06	-1.464064e-06	-1.859371e-09	-1.014999e+01	-1.246677e+02
2.780000e-06	-1.509522e-06	-2.081031e-09	-1.046514e+01	-1.391360e+02
2.790000e-06	-1.554585e-06	-2.301369e-09	-1.077755e+01	-1.534007e+02
2.800000e-06	-1.599074e-06	-2.515623e-09	-1.108598e+01	-1.673262e+02
2.810000e-06	-1.642983e-06	-2.720646e-09	-1.139039e+01	-1.807938e+02
2.820000e-06	-1.686468e-06	-2.920103e-09	-1.169186e+01	-1.937087e+02
2.830000e-06	-1.729577e-06	-3.111402e-09	-1.199072e+01	-2.060029e+02
2.840000e-06	-1.772190e-06	-3.290168e-09	-1.228615e+01	-2.176341e+02
2.850000e-06	-1.814239e-06	-3.457310e-09	-1.257767e+01	-2.285799e+02
2.860000e-06	-1.855665e-06	-3.613222e-09	-1.286486e+01	-2.388329e+02
2.870000e-06	-1.896403e-06	-3.759121e-09	-1.314728e+01	-2.483955e+02
2.880000e-06	-1.936442e-06	-3.897826e-09	-1.342487e+01	-2.572772e+02
2.890000e-06	-1.975903e-06	-4.029777e-09	-1.369844e+01	-2.654958e+02
2.900000e-06	-2.014919e-06	-4.151383e-09	-1.396893e+01	-2.730789e+02
2.910000e-06	-2.053253e-06	-4.259096e-09	-1.423469e+01	-2.800665e+02
2.920000e-06	-2.090557e-06	-4.355434e-09	-1.449331e+01	-2.865105e+02
2.930000e-06	-2.126846e-06	-4.446660e-09	-1.474489e+01	-2.924723e+02
2.940000e-06	-2.162359e-06	-4.534605e-09	-1.499109e+01	-2.980160e+02
