# Temperatura_=_25.18
# Concentracion g/m^3_=_13400.0
# C_Vs_to_Am_M_A/Vsm_=_65563218390.804596
# pendiente_HvsI_1/m_=_3716.3
# ordenada_HvsI_A/m_=_1297.0
# frecuencia_Hz_=_300845.254646648

Tiempo_(s)	Campo_(V.s)	Magnetizacion_(V.s)	Campo_(kA/m)	Magnetizacion_(A/m)
0.000000e+00	-2.853319e-06	-5.721928e-09	-1.980218e+01	-3.729720e+02
1.000000e-08	-2.852363e-06	-5.723616e-09	-1.979554e+01	-3.728681e+02
2.000000e-08	-2.850363e-06	-5.723615e-09	-1.978167e+01	-3.727299e+02
3.000000e-08	-2.847072e-06	-5.722936e-09	-1.975883e+01	-3.725584e+02
4.000000e-08	-2.842756e-06	-5.721134e-09	-1.972888e+01	-3.723397e+02
5.000000e-08	-2.837677e-06	-5.712621e-09	-1.969363e+01	-3.720499e+02
6.000000e-08	-2.831739e-06	-5.694107e-09	-1.965241e+01	-3.716649e+02
7.000000e-08	-2.824799e-06	-5.669857e-09	-1.960425e+01	-3.711708e+02
8.000000e-08	-2.816825e-06	-5.703934e-09	-1.954891e+01	-3.705718e+02
9.000000e-08	-2.807683e-06	-5.774192e-09	-1.948546e+01	-3.698910e+02
1.000000e-07	-2.797092e-06	-5.745638e-09	-1.941196e+01	-3.691651e+02
1.100000e-07	-2.785300e-06	-5.542773e-09	-1.933013e+01	-3.684329e+02
1.200000e-07	-2.772769e-06	-5.551975e-09	-1.924316e+01	-3.677228e+02
1.300000e-07	-2.759324e-06	-5.754550e-09	-1.914985e+01	-3.670421e+02
1.400000e-07	-2.744820e-06	-5.704395e-09	-1.904919e+01	-3.663746e+02
1.500000e-07	-2.729408e-06	-5.467380e-09	-1.894223e+01	-3.656849e+02
1.600000e-07	-2.712771e-06	-5.611565e-09	-1.882677e+01	-3.649291e+02
1.700000e-07	-2.694798e-06	-5.756747e-09	-1.870203e+01	-3.640687e+02
1.800000e-07	-2.676061e-06	-5.461638e-09	-1.857200e+01	-3.630814e+02
1.900000e-07	-2.656651e-06	-5.478452e-09	-1.843729e+01	-3.619664e+02
2.000000e-07	-2.636303e-06	-5.653504e-09	-1.829608e+01	-3.607421e+02
2.100000e-07	-2.615124e-06	-5.440626e-09	-1.814909e+01	-3.594376e+02
2.200000e-07	-2.593229e-06	-5.374390e-09	-1.799714e+01	-3.580815e+02
2.300000e-07	-2.570425e-06	-5.604484e-09	-1.783888e+01	-3.566922e+02
2.400000e-07	-2.546604e-06	-5.482945e-09	-1.767356e+01	-3.552735e+02
2.500000e-07	-2.522040e-06	-5.322885e-09	-1.750308e+01	-3.538162e+02
2.600000e-07	-2.496651e-06	-5.413948e-09	-1.732688e+01	-3.523047e+02
2.700000e-07	-2.470111e-06	-5.408593e-09	-1.714269e+01	-3.507253e+02
2.800000e-07	-2.442458e-06	-5.302426e-09	-1.695078e+01	-3.490722e+02
2.900000e-07	-2.413854e-06	-5.307937e-09	-1.675227e+01	-3.473499e+02
3.000000e-07	-2.384451e-06	-5.292971e-09	-1.654821e+01	-3.455698e+02
3.100000e-07	-2.354362e-06	-5.285620e-09	-1.633939e+01	-3.437439e+02
3.200000e-07	-2.323593e-06	-5.277641e-09	-1.612586e+01	-3.418782e+02
3.300000e-07	-2.292031e-06	-5.164329e-09	-1.590681e+01	-3.399689e+02
3.400000e-07	-2.259761e-06	-5.171481e-09	-1.568286e+01	-3.380039e+02
3.500000e-07	-2.226860e-06	-5.151889e-09	-1.545452e+01	-3.359678e+02
3.600000e-07	-2.193139e-06	-5.082745e-09	-1.522050e+01	-3.338490e+02
3.700000e-07	-2.158305e-06	-5.106795e-09	-1.497875e+01	-3.316464e+02
3.800000e-07	-2.122386e-06	-5.067837e-09	-1.472947e+01	-3.293703e+02
3.900000e-07	-2.085798e-06	-4.962068e-09	-1.447555e+01	-3.270392e+02
4.000000e-07	-2.048637e-06	-4.983865e-09	-1.421765e+01	-3.246724e+02
4.100000e-07	-2.010756e-06	-4.967133e-09	-1.395475e+01	-3.222812e+02
4.200000e-07	-1.972102e-06	-4.859713e-09	-1.368649e+01	-3.198633e+02
4.300000e-07	-1.932701e-06	-4.843129e-09	-1.341304e+01	-3.174022e+02
4.400000e-07	-1.892673e-06	-4.830508e-09	-1.313525e+01	-3.148728e+02
4.500000e-07	-1.852221e-06	-4.785918e-09	-1.285451e+01	-3.122505e+02
4.600000e-07	-1.811346e-06	-4.735700e-09	-1.257084e+01	-3.095212e+02
4.700000e-07	-1.769789e-06	-4.689182e-09	-1.228242e+01	-3.066868e+02
4.800000e-07	-1.727245e-06	-4.634894e-09	-1.198717e+01	-3.037653e+02
4.900000e-07	-1.683662e-06	-4.598305e-09	-1.168470e+01	-3.007839e+02
5.000000e-07	-1.639393e-06	-4.557360e-09	-1.137747e+01	-2.977686e+02
5.100000e-07	-1.594707e-06	-4.500558e-09	-1.106735e+01	-2.947333e+02
5.200000e-07	-1.549610e-06	-4.452231e-09	-1.075438e+01	-2.916743e+02
5.300000e-07	-1.504025e-06	-4.408028e-09	-1.043801e+01	-2.885705e+02
5.400000e-07	-1.457894e-06	-4.369559e-09	-1.011786e+01	-2.853909e+02
5.500000e-07	-1.411263e-06	-4.310201e-09	-9.794236e+00	-2.821057e+02
5.600000e-07	-1.364076e-06	-4.247301e-09	-9.466755e+00	-2.786968e+02
5.700000e-07	-1.316329e-06	-4.189658e-09	-9.135393e+00	-2.751637e+02
5.800000e-07	-1.268159e-06	-4.149538e-09	-8.801091e+00	-2.715224e+02
5.900000e-07	-1.219651e-06	-4.091745e-09	-8.464440e+00	-2.677980e+02
6.000000e-07	-1.170801e-06	-4.021394e-09	-8.125416e+00	-2.640138e+02
6.100000e-07	-1.121395e-06	-3.965022e-09	-7.782538e+00	-2.601820e+02
6.200000e-07	-1.071307e-06	-3.908967e-09	-7.434926e+00	-2.562982e+02
6.300000e-07	-1.020650e-06	-3.850551e-09	-7.083364e+00	-2.523442e+02
6.400000e-07	-9.694267e-07	-3.779316e-09	-6.727871e+00	-2.482959e+02
6.500000e-07	-9.176804e-07	-3.711827e-09	-6.368749e+00	-2.441334e+02
6.600000e-07	-8.655846e-07	-3.648604e-09	-6.007201e+00	-2.398503e+02
6.700000e-07	-8.132708e-07	-3.588724e-09	-5.644141e+00	-2.354560e+02
6.800000e-07	-7.607296e-07	-3.518100e-09	-5.279502e+00	-2.309725e+02
6.900000e-07	-7.079210e-07	-3.441556e-09	-4.913008e+00	-2.264242e+02
7.000000e-07	-6.548569e-07	-3.370932e-09	-4.544740e+00	-2.218273e+02
7.100000e-07	-6.015654e-07	-3.304591e-09	-4.174895e+00	-2.171817e+02
7.200000e-07	-5.480377e-07	-3.233809e-09	-3.803410e+00	-2.124687e+02
7.300000e-07	-4.942421e-07	-3.151878e-09	-3.430065e+00	-2.076566e+02
7.400000e-07	-4.402329e-07	-3.073415e-09	-3.055239e+00	-2.027113e+02
7.500000e-07	-3.860618e-07	-2.996495e-09	-2.679289e+00	-1.976080e+02
7.600000e-07	-3.317775e-07	-2.918487e-09	-2.302553e+00	-1.923394e+02
7.700000e-07	-2.774507e-07	-2.830793e-09	-1.925522e+00	-1.869171e+02
7.800000e-07	-2.230964e-07	-2.741999e-09	-1.548300e+00	-1.813654e+02
7.900000e-07	-1.686854e-07	-2.659930e-09	-1.170685e+00	-1.757105e+02
8.000000e-07	-1.142474e-07	-2.577330e-09	-7.928828e-01	-1.699686e+02
8.100000e-07	-5.974313e-08	-2.486712e-09	-4.146204e-01	-1.641378e+02
8.200000e-07	-5.185006e-09	-2.388070e-09	-3.598420e-02	-1.581969e+02
8.300000e-07	4.933153e-08	-2.291930e-09	3.423633e-01	-1.521120e+02
8.400000e-07	1.038081e-07	-2.196594e-09	7.204337e-01	-1.458473e+02
8.500000e-07	1.582695e-07	-2.099011e-09	1.098399e+00	-1.393758e+02
8.600000e-07	2.127225e-07	-1.992325e-09	1.476305e+00	-1.326871e+02
8.700000e-07	2.671283e-07	-1.885167e-09	1.853884e+00	-1.257870e+02
8.800000e-07	3.214800e-07	-1.781194e-09	2.231088e+00	-1.186904e+02
8.900000e-07	3.757591e-07	-1.672376e-09	2.607787e+00	-1.114111e+02
9.000000e-07	4.298855e-07	-1.553659e-09	2.983428e+00	-1.039502e+02
9.100000e-07	4.838544e-07	-1.428930e-09	3.357974e+00	-9.629075e+01
9.200000e-07	5.376284e-07	-1.307527e-09	3.731169e+00	-8.839812e+01
9.300000e-07	5.911506e-07	-1.182772e-09	4.102616e+00	-8.022792e+01
9.400000e-07	6.443778e-07	-1.051589e-09	4.472015e+00	-7.173705e+01
9.500000e-07	6.973631e-07	-9.127451e-10	4.839736e+00	-6.289405e+01
9.600000e-07	7.501535e-07	-7.726145e-10	5.206103e+00	-5.368442e+01
9.700000e-07	8.027089e-07	-6.293266e-10	5.570841e+00	-4.410865e+01
9.800000e-07	8.550198e-07	-4.780438e-10	5.933882e+00	-3.417382e+01
9.900000e-07	9.070296e-07	-3.162141e-10	6.294832e+00	-2.388207e+01
1.000000e-06	9.586424e-07	-1.465095e-10	6.653028e+00	-1.322046e+01
1.010000e-06	1.009628e-06	2.307006e-11	7.006872e+00	-2.156834e+00
1.020000e-06	1.059918e-06	1.963182e-10	7.355888e+00	9.356251e+00
1.030000e-06	1.109527e-06	3.784875e-10	7.700175e+00	2.136997e+01
1.040000e-06	1.158568e-06	5.733311e-10	8.040525e+00	3.392333e+01
1.050000e-06	1.207269e-06	7.745591e-10	8.378508e+00	4.702768e+01
1.060000e-06	1.255716e-06	9.816649e-10	8.714730e+00	6.065612e+01
1.070000e-06	1.303882e-06	1.197095e-09	9.049011e+00	7.474087e+01
1.080000e-06	1.351651e-06	1.419276e-09	9.380524e+00	8.917869e+01
1.090000e-06	1.398901e-06	1.642695e-09	9.708444e+00	1.038424e+02
1.100000e-06	1.445589e-06	1.863589e-09	1.003246e+01	1.185946e+02
1.110000e-06	1.491748e-06	2.085763e-09	1.035281e+01	1.333000e+02
1.120000e-06	1.537330e-06	2.306725e-09	1.066915e+01	1.478334e+02
1.130000e-06	1.582370e-06	2.522981e-09	1.098173e+01	1.620827e+02
1.140000e-06	1.627048e-06	2.732278e-09	1.129179e+01	1.759481e+02
1.150000e-06	1.671442e-06	2.933987e-09	1.159989e+01	1.893394e+02
1.160000e-06	1.715401e-06	3.126115e-09	1.190497e+01	2.021748e+02
1.170000e-06	1.758606e-06	3.311224e-09	1.220482e+01	2.143814e+02
1.180000e-06	1.800828e-06	3.487576e-09	1.249784e+01	2.258994e+02
1.190000e-06	1.842050e-06	3.650203e-09	1.278392e+01	2.366863e+02
1.200000e-06	1.882629e-06	3.800520e-09	1.306554e+01	2.467225e+02
1.210000e-06	1.922807e-06	3.940571e-09	1.334438e+01	2.560131e+02
1.220000e-06	1.962384e-06	4.069129e-09	1.361905e+01	2.645868e+02
1.230000e-06	2.001264e-06	4.184899e-09	1.388887e+01	2.724915e+02
1.240000e-06	2.039467e-06	4.292255e-09	1.415400e+01	2.797871e+02
1.250000e-06	2.076948e-06	4.392950e-09	1.441413e+01	2.865373e+02
1.260000e-06	2.113749e-06	4.489027e-09	1.466953e+01	2.928028e+02
1.270000e-06	2.150045e-06	4.576678e-09	1.492142e+01	2.986365e+02
1.280000e-06	2.185670e-06	4.656284e-09	1.516866e+01	3.040811e+02
1.290000e-06	2.220272e-06	4.731069e-09	1.540880e+01	3.091699e+02
1.300000e-06	2.253782e-06	4.801036e-09	1.564136e+01	3.139288e+02
1.310000e-06	2.286414e-06	4.866344e-09	1.586783e+01	3.183792e+02
1.320000e-06	2.318419e-06	4.926937e-09	1.608994e+01	3.225406e+02
1.330000e-06	2.349714e-06	4.984556e-09	1.630714e+01	3.264328e+02
1.340000e-06	2.380212e-06	5.037954e-09	1.651879e+01	3.300767e+02
1.350000e-06	2.409901e-06	5.085335e-09	1.672484e+01	3.334936e+02
1.360000e-06	2.438816e-06	5.128165e-09	1.692551e+01	3.367040e+02
1.370000e-06	2.467079e-06	5.172474e-09	1.712165e+01	3.397259e+02
1.380000e-06	2.494463e-06	5.217149e-09	1.731170e+01	3.425731e+02
1.390000e-06	2.520649e-06	5.256100e-09	1.749344e+01	3.452545e+02
1.400000e-06	2.545721e-06	5.288393e-09	1.766743e+01	3.477744e+02
1.410000e-06	2.569927e-06	5.318709e-09	1.783543e+01	3.501343e+02
1.420000e-06	2.593264e-06	5.351136e-09	1.799739e+01	3.523359e+02
1.430000e-06	2.615722e-06	5.382411e-09	1.815325e+01	3.543838e+02
1.440000e-06	2.637314e-06	5.407975e-09	1.830310e+01	3.562877e+02
1.450000e-06	2.658119e-06	5.430441e-09	1.844748e+01	3.580626e+02
1.460000e-06	2.678217e-06	5.456131e-09	1.858696e+01	3.597266e+02
1.470000e-06	2.697395e-06	5.483906e-09	1.872006e+01	3.612975e+02
1.480000e-06	2.715556e-06	5.507531e-09	1.884610e+01	3.627877e+02
1.490000e-06	2.732806e-06	5.524560e-09	1.896581e+01	3.642015e+02
1.500000e-06	2.748998e-06	5.539337e-09	1.907819e+01	3.655338e+02
1.510000e-06	2.764040e-06	5.556428e-09	1.918258e+01	3.667722e+02
1.520000e-06	2.778081e-06	5.574517e-09	1.928003e+01	3.679020e+02
1.530000e-06	2.791096e-06	5.589573e-09	1.937035e+01	3.689125e+02
1.540000e-06	2.803024e-06	5.601896e-09	1.945313e+01	3.698018e+02
1.550000e-06	2.813693e-06	5.616261e-09	1.952718e+01	3.705790e+02
1.560000e-06	2.823064e-06	5.631146e-09	1.959221e+01	3.712625e+02
1.570000e-06	2.831470e-06	5.641312e-09	1.965054e+01	3.718739e+02
1.580000e-06	2.839002e-06	5.645500e-09	1.970282e+01	3.724315e+02
1.590000e-06	2.845565e-06	5.649418e-09	1.974837e+01	3.729438e+02
1.600000e-06	2.851164e-06	5.656764e-09	1.978722e+01	3.734071e+02
1.610000e-06	2.855881e-06	5.665002e-09	1.981996e+01	3.738073e+02
1.620000e-06	2.859746e-06	5.671114e-09	1.984679e+01	3.741259e+02
1.630000e-06	2.862463e-06	5.675359e-09	1.986564e+01	3.743483e+02
1.640000e-06	2.863880e-06	5.678907e-09	1.987548e+01	3.744697e+02
1.650000e-06	2.864316e-06	5.681848e-09	1.987850e+01	3.744986e+02
1.660000e-06	2.863888e-06	5.682266e-09	1.987553e+01	3.744537e+02
1.670000e-06	2.862548e-06	5.678067e-09	1.986623e+01	3.743567e+02
1.680000e-06	2.860351e-06	5.673940e-09	1.985098e+01	3.742239e+02
1.690000e-06	2.857340e-06	5.671546e-09	1.983009e+01	3.740587e+02
1.700000e-06	2.853551e-06	5.667375e-09	1.980379e+01	3.738496e+02
1.710000e-06	2.848744e-06	5.665143e-09	1.977043e+01	3.735741e+02
1.720000e-06	2.842746e-06	5.674936e-09	1.972880e+01	3.732072e+02
1.730000e-06	2.835772e-06	5.687859e-09	1.968041e+01	3.727327e+02
1.740000e-06	2.827906e-06	5.602307e-09	1.962581e+01	3.721509e+02
1.750000e-06	2.818717e-06	5.515722e-09	1.956204e+01	3.714820e+02
1.760000e-06	2.807889e-06	5.592816e-09	1.948689e+01	3.707608e+02
1.770000e-06	2.796131e-06	5.752813e-09	1.940529e+01	3.700270e+02
1.780000e-06	2.784270e-06	5.634171e-09	1.932297e+01	3.693114e+02
1.790000e-06	2.771721e-06	5.422803e-09	1.923588e+01	3.686256e+02
1.800000e-06	2.757491e-06	5.605639e-09	1.913713e+01	3.679577e+02
1.810000e-06	2.742026e-06	5.704502e-09	1.902980e+01	3.672748e+02
1.820000e-06	2.726051e-06	5.440287e-09	1.891893e+01	3.665337e+02
1.830000e-06	2.708996e-06	5.438505e-09	1.880057e+01	3.656939e+02
1.840000e-06	2.690538e-06	5.708979e-09	1.867247e+01	3.647296e+02
1.850000e-06	2.671366e-06	5.523191e-09	1.853942e+01	3.636362e+02
1.860000e-06	2.651539e-06	5.339595e-09	1.840182e+01	3.624292e+02
1.870000e-06	2.630494e-06	5.640644e-09	1.825576e+01	3.611365e+02
1.880000e-06	2.608349e-06	5.535851e-09	1.810208e+01	3.597875e+02
1.890000e-06	2.585274e-06	5.232843e-09	1.794193e+01	3.584031e+02
1.900000e-06	2.561120e-06	5.465913e-09	1.777430e+01	3.569897e+02
1.910000e-06	2.536201e-06	5.502248e-09	1.760137e+01	3.555401e+02
1.920000e-06	2.510583e-06	5.292744e-09	1.742358e+01	3.540392e+02
1.930000e-06	2.484011e-06	5.364998e-09	1.723917e+01	3.524723e+02
1.940000e-06	2.456706e-06	5.370153e-09	1.704966e+01	3.508320e+02
1.950000e-06	2.428668e-06	5.287484e-09	1.685508e+01	3.491211e+02
1.960000e-06	2.399475e-06	5.304112e-09	1.665248e+01	3.473500e+02
1.970000e-06	2.369184e-06	5.204627e-09	1.644226e+01	3.455313e+02
1.980000e-06	2.338092e-06	5.190265e-09	1.622648e+01	3.436724e+02
1.990000e-06	2.306285e-06	5.268496e-09	1.600573e+01	3.417713e+02
2.000000e-06	2.273762e-06	5.128157e-09	1.578003e+01	3.398171e+02
2.010000e-06	2.240377e-06	5.122285e-09	1.554833e+01	3.377944e+02
2.020000e-06	2.206182e-06	5.155445e-09	1.531102e+01	3.356906e+02
2.030000e-06	2.171384e-06	5.000095e-09	1.506952e+01	3.335022e+02
2.040000e-06	2.135962e-06	5.041590e-09	1.482369e+01	3.312377e+02
2.050000e-06	2.099861e-06	5.060613e-09	1.457314e+01	3.289146e+02
2.060000e-06	2.062955e-06	4.909074e-09	1.431701e+01	3.265527e+02
2.070000e-06	2.024942e-06	4.928429e-09	1.405320e+01	3.241653e+02
2.080000e-06	1.985962e-06	4.924330e-09	1.378268e+01	3.217527e+02
2.090000e-06	1.946454e-06	4.832319e-09	1.350849e+01	3.193008e+02
2.100000e-06	1.906376e-06	4.822133e-09	1.323035e+01	3.167852e+02
2.110000e-06	1.865591e-06	4.766125e-09	1.294730e+01	3.141807e+02
2.120000e-06	1.824171e-06	4.733613e-09	1.265984e+01	3.114705e+02
2.130000e-06	1.782224e-06	4.714700e-09	1.236872e+01	3.086537e+02
2.140000e-06	1.739698e-06	4.641397e-09	1.207359e+01	3.057456e+02
2.150000e-06	1.696626e-06	4.609633e-09	1.177467e+01	3.027725e+02
2.160000e-06	1.653164e-06	4.559038e-09	1.147304e+01	2.997615e+02
2.170000e-06	1.609199e-06	4.515317e-09	1.116792e+01	2.967292e+02
2.180000e-06	1.564568e-06	4.481623e-09	1.085818e+01	2.936752e+02
2.190000e-06	1.519309e-06	4.419723e-09	1.054409e+01	2.905812e+02
2.200000e-06	1.473490e-06	4.373527e-09	1.022609e+01	2.874173e+02
2.210000e-06	1.427271e-06	4.331918e-09	9.905333e+00	2.841524e+02
2.220000e-06	1.380678e-06	4.285679e-09	9.581976e+00	2.807659e+02
2.230000e-06	1.333500e-06	4.235344e-09	9.254560e+00	2.772539e+02
2.240000e-06	1.285750e-06	4.161354e-09	8.923172e+00	2.736299e+02
2.250000e-06	1.237404e-06	4.114406e-09	8.587646e+00	2.699181e+02
2.260000e-06	1.188529e-06	4.068338e-09	8.248455e+00	2.661430e+02
2.270000e-06	1.139288e-06	3.993688e-09	7.906717e+00	2.623193e+02
2.280000e-06	1.089615e-06	3.942367e-09	7.561982e+00	2.584454e+02
2.290000e-06	1.039460e-06	3.884995e-09	7.213909e+00	2.545055e+02
2.300000e-06	9.888158e-07	3.833949e-09	6.862432e+00	2.504754e+02
2.310000e-06	9.378459e-07	3.776665e-09	6.508699e+00	2.463339e+02
2.320000e-06	8.866739e-07	3.699439e-09	6.153562e+00	2.420718e+02
2.330000e-06	8.352707e-07	3.633028e-09	5.796821e+00	2.376957e+02
2.340000e-06	7.835273e-07	3.564236e-09	5.437719e+00	2.332260e+02
2.350000e-06	7.313450e-07	3.499187e-09	5.075572e+00	2.286874e+02
2.360000e-06	6.787976e-07	3.430980e-09	4.710890e+00	2.240984e+02
2.370000e-06	6.258860e-07	3.357167e-09	4.343681e+00	2.194620e+02
2.380000e-06	5.725590e-07	3.292557e-09	3.973589e+00	2.147628e+02
2.390000e-06	5.188723e-07	3.224182e-09	3.601001e+00	2.099707e+02
2.400000e-06	4.648533e-07	3.147401e-09	3.226106e+00	2.050511e+02
2.410000e-06	4.105684e-07	3.068895e-09	2.849366e+00	1.999769e+02
2.420000e-06	3.561420e-07	2.986700e-09	2.471644e+00	1.947372e+02
2.430000e-06	3.015330e-07	2.907988e-09	2.092655e+00	1.893404e+02
2.440000e-06	2.467564e-07	2.824600e-09	1.712502e+00	1.838095e+02
2.450000e-06	1.918750e-07	2.735433e-09	1.331622e+00	1.781711e+02
2.460000e-06	1.369380e-07	2.652331e-09	9.503565e-01	1.724441e+02
2.470000e-06	8.202183e-08	2.569131e-09	5.692357e-01	1.666298e+02
2.480000e-06	2.711738e-08	2.484170e-09	1.881960e-01	1.607106e+02
2.490000e-06	-2.783167e-08	2.391527e-09	-1.931532e-01	1.546539e+02
2.500000e-06	-8.277160e-08	2.295728e-09	-5.744391e-01	1.484233e+02
2.510000e-06	-1.376611e-07	2.200206e-09	-9.553752e-01	1.419897e+02
2.520000e-06	-1.925291e-07	2.096809e-09	-1.336162e+00	1.353395e+02
2.530000e-06	-2.473582e-07	1.988102e-09	-1.716679e+00	1.284758e+02
2.540000e-06	-3.021760e-07	1.880705e-09	-2.097117e+00	1.214129e+02
2.550000e-06	-3.568979e-07	1.776885e-09	-2.476890e+00	1.141653e+02
2.560000e-06	-4.113793e-07	1.668425e-09	-2.854993e+00	1.067373e+02
2.570000e-06	-4.656409e-07	1.552090e-09	-3.231572e+00	9.911507e+01
2.580000e-06	-5.196044e-07	1.433867e-09	-3.606081e+00	9.126689e+01
2.590000e-06	-5.731666e-07	1.315497e-09	-3.977806e+00	8.314931e+01
2.600000e-06	-6.264227e-07	1.188344e-09	-4.347406e+00	7.471816e+01
2.610000e-06	-6.793037e-07	1.048272e-09	-4.714403e+00	6.593932e+01
2.620000e-06	-7.316739e-07	9.036119e-10	-5.077854e+00	5.679518e+01
2.630000e-06	-7.836468e-07	7.623243e-10	-5.438549e+00	4.728402e+01
2.640000e-06	-8.353006e-07	6.209715e-10	-5.797029e+00	3.741256e+01
2.650000e-06	-8.866469e-07	4.688750e-10	-6.153375e+00	2.718466e+01
2.660000e-06	-9.377263e-07	3.067261e-10	-6.507869e+00	1.659061e+01
2.670000e-06	-9.885174e-07	1.390860e-10	-6.860361e+00	5.601630e+00
2.680000e-06	-1.038977e-06	-3.287286e-11	-7.210554e+00	-5.827649e+00
2.690000e-06	-1.089004e-06	-2.158276e-10	-7.557745e+00	-1.774883e+01
2.700000e-06	-1.138583e-06	-4.100065e-10	-7.901828e+00	-3.020432e+01
2.710000e-06	-1.187758e-06	-6.084031e-10	-8.243104e+00	-4.321136e+01
2.720000e-06	-1.236381e-06	-8.098437e-10	-8.580547e+00	-5.675033e+01
2.730000e-06	-1.284321e-06	-1.018520e-09	-8.913255e+00	-7.076057e+01
2.740000e-06	-1.331479e-06	-1.240084e-09	-9.240531e+00	-8.514445e+01
2.750000e-06	-1.377969e-06	-1.468880e-09	-9.563173e+00	-9.977807e+01
2.760000e-06	-1.423976e-06	-1.695176e-09	-9.882469e+00	-1.145249e+02
2.770000e-06	-1.469596e-06	-1.917496e-09	-1.019907e+01	-1.292485e+02
2.780000e-06	-1.514919e-06	-2.142022e-09	-1.051361e+01	-1.438215e+02
2.790000e-06	-1.559825e-06	-2.364555e-09	-1.082526e+01	-1.581295e+02
2.800000e-06	-1.604170e-06	-2.578757e-09	-1.113302e+01	-1.720706e+02
2.810000e-06	-1.647954e-06	-2.784512e-09	-1.143688e+01	-1.855531e+02
2.820000e-06	-1.691314e-06	-2.984392e-09	-1.173781e+01	-1.984936e+02
2.830000e-06	-1.734325e-06	-3.175437e-09	-1.203631e+01	-2.108177e+02
2.840000e-06	-1.776818e-06	-3.354011e-09	-1.233121e+01	-2.224626e+02
2.850000e-06	-1.818647e-06	-3.521260e-09	-1.262151e+01	-2.333826e+02
2.860000e-06	-1.859901e-06	-3.677901e-09	-1.290781e+01	-2.435535e+02
2.870000e-06	-1.900557e-06	-3.825457e-09	-1.318997e+01	-2.529760e+02
2.880000e-06	-1.940482e-06	-3.962095e-09	-1.346705e+01	-2.616749e+02
2.890000e-06	-1.979828e-06	-4.087641e-09	-1.374011e+01	-2.696953e+02
2.900000e-06	-2.018659e-06	-4.202515e-09	-1.400960e+01	-2.770953e+02
2.910000e-06	-2.056694e-06	-4.308125e-09	-1.427356e+01	-2.839385e+02
2.920000e-06	-2.093682e-06	-4.405021e-09	-1.453026e+01	-2.902868e+02
2.930000e-06	-2.129696e-06	-4.495799e-09	-1.478020e+01	-2.961944e+02
2.940000e-06	-2.165060e-06	-4.583720e-09	-1.502563e+01	-3.017061e+02
