# Temperatura_=_27.38
# Concentracion g/m^3_=_13400.0
# C_Vs_to_Am_M_A/Vsm_=_65563218390.804596
# pendiente_HvsI_1/m_=_3716.3
# ordenada_HvsI_A/m_=_1297.0
# frecuencia_Hz_=_300845.7042703975

Tiempo_(s)	Campo_(V.s)	Magnetizacion_(V.s)	Campo_(kA/m)	Magnetizacion_(A/m)
0.000000e+00	-2.853431e-06	-5.740710e-09	-1.980096e+01	-3.753994e+02
1.000000e-08	-2.852474e-06	-5.739156e-09	-1.979432e+01	-3.753170e+02
2.000000e-08	-2.850373e-06	-5.736051e-09	-1.977974e+01	-3.752130e+02
3.000000e-08	-2.847031e-06	-5.736317e-09	-1.975655e+01	-3.750779e+02
4.000000e-08	-2.842786e-06	-5.734872e-09	-1.972709e+01	-3.748867e+02
5.000000e-08	-2.837772e-06	-5.725013e-09	-1.969230e+01	-3.746068e+02
6.000000e-08	-2.831894e-06	-5.705395e-09	-1.965150e+01	-3.742105e+02
7.000000e-08	-2.825065e-06	-5.696180e-09	-1.960412e+01	-3.736869e+02
8.000000e-08	-2.817160e-06	-5.752699e-09	-1.954926e+01	-3.730487e+02
9.000000e-08	-2.808006e-06	-5.788898e-09	-1.948574e+01	-3.723314e+02
1.000000e-07	-2.797425e-06	-5.692110e-09	-1.941232e+01	-3.715840e+02
1.100000e-07	-2.785745e-06	-5.543174e-09	-1.933126e+01	-3.708545e+02
1.200000e-07	-2.773319e-06	-5.653134e-09	-1.924504e+01	-3.701743e+02
1.300000e-07	-2.759928e-06	-5.805542e-09	-1.915211e+01	-3.695481e+02
1.400000e-07	-2.745524e-06	-5.586452e-09	-1.905216e+01	-3.689519e+02
1.500000e-07	-2.730127e-06	-5.532303e-09	-1.894531e+01	-3.683406e+02
1.600000e-07	-2.713417e-06	-5.764677e-09	-1.882935e+01	-3.676616e+02
1.700000e-07	-2.695535e-06	-5.693329e-09	-1.870526e+01	-3.668713e+02
1.800000e-07	-2.676938e-06	-5.478051e-09	-1.857621e+01	-3.659466e+02
1.900000e-07	-2.657576e-06	-5.623332e-09	-1.844186e+01	-3.648898e+02
2.000000e-07	-2.637299e-06	-5.646969e-09	-1.830114e+01	-3.637234e+02
2.100000e-07	-2.616189e-06	-5.412111e-09	-1.815465e+01	-3.624796e+02
2.200000e-07	-2.594288e-06	-5.544002e-09	-1.800267e+01	-3.611863e+02
2.300000e-07	-2.571426e-06	-5.655994e-09	-1.784403e+01	-3.598576e+02
2.400000e-07	-2.547657e-06	-5.438402e-09	-1.767909e+01	-3.584898e+02
2.500000e-07	-2.523212e-06	-5.429783e-09	-1.750945e+01	-3.570657e+02
2.600000e-07	-2.497842e-06	-5.502572e-09	-1.733340e+01	-3.555637e+02
2.700000e-07	-2.471297e-06	-5.392871e-09	-1.714920e+01	-3.539681e+02
2.800000e-07	-2.443729e-06	-5.382518e-09	-1.695790e+01	-3.522767e+02
2.900000e-07	-2.415239e-06	-5.366835e-09	-1.676019e+01	-3.505015e+02
3.000000e-07	-2.385882e-06	-5.330959e-09	-1.655647e+01	-3.486634e+02
3.100000e-07	-2.355806e-06	-5.366703e-09	-1.634777e+01	-3.467832e+02
3.200000e-07	-2.324987e-06	-5.303181e-09	-1.613390e+01	-3.448727e+02
3.300000e-07	-2.293370e-06	-5.211240e-09	-1.591450e+01	-3.429300e+02
3.400000e-07	-2.261128e-06	-5.249584e-09	-1.569076e+01	-3.409408e+02
3.500000e-07	-2.228314e-06	-5.199622e-09	-1.546305e+01	-3.388847e+02
3.600000e-07	-2.194564e-06	-5.132380e-09	-1.522885e+01	-3.367448e+02
3.700000e-07	-2.159583e-06	-5.178034e-09	-1.498610e+01	-3.345152e+02
3.800000e-07	-2.123674e-06	-5.091744e-09	-1.473692e+01	-3.322032e+02
3.900000e-07	-2.087198e-06	-5.024891e-09	-1.448380e+01	-3.298266e+02
4.000000e-07	-2.050039e-06	-5.060581e-09	-1.422594e+01	-3.274055e+02
4.100000e-07	-2.012154e-06	-5.005446e-09	-1.396304e+01	-3.249535e+02
4.200000e-07	-1.973556e-06	-4.913168e-09	-1.369520e+01	-3.224715e+02
4.300000e-07	-1.934203e-06	-4.913422e-09	-1.342211e+01	-3.199475e+02
4.400000e-07	-1.894255e-06	-4.886705e-09	-1.314490e+01	-3.173611e+02
4.500000e-07	-1.853921e-06	-4.827590e-09	-1.286501e+01	-3.146935e+02
4.600000e-07	-1.813122e-06	-4.784747e-09	-1.258189e+01	-3.119352e+02
4.700000e-07	-1.771493e-06	-4.734519e-09	-1.229301e+01	-3.090907e+02
4.800000e-07	-1.728801e-06	-4.696471e-09	-1.199676e+01	-3.061769e+02
4.900000e-07	-1.685194e-06	-4.654446e-09	-1.169415e+01	-3.032153e+02
5.000000e-07	-1.641058e-06	-4.604928e-09	-1.138788e+01	-3.002223e+02
5.100000e-07	-1.596530e-06	-4.548620e-09	-1.107888e+01	-2.972005e+02
5.200000e-07	-1.551493e-06	-4.516543e-09	-1.076635e+01	-2.941361e+02
5.300000e-07	-1.505862e-06	-4.468177e-09	-1.044970e+01	-2.910035e+02
5.400000e-07	-1.459697e-06	-4.413472e-09	-1.012935e+01	-2.877742e+02
5.500000e-07	-1.413014e-06	-4.356961e-09	-9.805400e+00	-2.844287e+02
5.600000e-07	-1.365753e-06	-4.292819e-09	-9.477437e+00	-2.809645e+02
5.700000e-07	-1.318029e-06	-4.245672e-09	-9.146262e+00	-2.773973e+02
5.800000e-07	-1.269953e-06	-4.200264e-09	-8.812649e+00	-2.737546e+02
5.900000e-07	-1.221543e-06	-4.140161e-09	-8.476713e+00	-2.700646e+02
6.000000e-07	-1.172707e-06	-4.074266e-09	-8.137826e+00	-2.663431e+02
6.100000e-07	-1.123277e-06	-4.025656e-09	-7.794814e+00	-2.625864e+02
6.200000e-07	-1.073105e-06	-3.964210e-09	-7.446653e+00	-2.587707e+02
6.300000e-07	-1.022263e-06	-3.895041e-09	-7.093845e+00	-2.548610e+02
6.400000e-07	-9.709515e-07	-3.825426e-09	-6.737773e+00	-2.508242e+02
6.500000e-07	-9.192277e-07	-3.763442e-09	-6.378844e+00	-2.466426e+02
6.600000e-07	-8.671696e-07	-3.705206e-09	-6.017594e+00	-2.423215e+02
6.700000e-07	-8.148529e-07	-3.638184e-09	-5.654550e+00	-2.378874e+02
6.800000e-07	-7.622479e-07	-3.568159e-09	-5.289506e+00	-2.333788e+02
6.900000e-07	-7.093465e-07	-3.495409e-09	-4.922404e+00	-2.288301e+02
7.000000e-07	-6.561906e-07	-3.428326e-09	-4.553537e+00	-2.242579e+02
7.100000e-07	-6.027799e-07	-3.353923e-09	-4.182901e+00	-2.196530e+02
7.200000e-07	-5.491526e-07	-3.277540e-09	-3.810763e+00	-2.149826e+02
7.300000e-07	-4.953253e-07	-3.201291e-09	-3.437236e+00	-2.102011e+02
7.400000e-07	-4.413142e-07	-3.126275e-09	-3.062434e+00	-2.052659e+02
7.500000e-07	-3.871984e-07	-3.049516e-09	-2.686906e+00	-2.001527e+02
7.600000e-07	-3.329805e-07	-2.967262e-09	-2.310669e+00	-1.948623e+02
7.700000e-07	-2.786848e-07	-2.881221e-09	-1.933892e+00	-1.894184e+02
7.800000e-07	-2.243066e-07	-2.794929e-09	-1.556542e+00	-1.838564e+02
7.900000e-07	-1.698354e-07	-2.713394e-09	-1.178547e+00	-1.782069e+02
8.000000e-07	-1.153184e-07	-2.623545e-09	-8.002348e-01	-1.724818e+02
8.100000e-07	-6.078806e-08	-2.530452e-09	-4.218297e-01	-1.666680e+02
8.200000e-07	-6.266837e-09	-2.435944e-09	-4.348778e-02	-1.607303e+02
8.300000e-07	4.824291e-08	-2.341650e-09	3.347745e-01	-1.546233e+02
8.400000e-07	1.027332e-07	-2.243769e-09	7.129016e-01	-1.483076e+02
8.500000e-07	1.571648e-07	-2.141783e-09	1.090622e+00	-1.417622e+02
8.600000e-07	2.115360e-07	-2.039374e-09	1.467923e+00	-1.349898e+02
8.700000e-07	2.658812e-07	-1.932876e-09	1.845043e+00	-1.280120e+02
8.800000e-07	3.201544e-07	-1.822823e-09	2.221664e+00	-1.208560e+02
8.900000e-07	3.743423e-07	-1.704656e-09	2.597693e+00	-1.135393e+02
9.000000e-07	4.284511e-07	-1.586261e-09	2.973173e+00	-1.060565e+02
9.100000e-07	4.824081e-07	-1.467681e-09	3.347599e+00	-9.837600e+01
9.200000e-07	5.361176e-07	-1.347715e-09	3.720308e+00	-9.044593e+01
9.300000e-07	5.896014e-07	-1.221829e-09	4.091451e+00	-8.220784e+01
9.400000e-07	6.429396e-07	-1.089392e-09	4.461584e+00	-7.361273e+01
9.500000e-07	6.960240e-07	-9.517918e-10	4.829955e+00	-6.463283e+01
9.600000e-07	7.488001e-07	-8.094243e-10	5.196187e+00	-5.526453e+01
9.700000e-07	8.013197e-07	-6.623689e-10	5.560639e+00	-4.552124e+01
9.800000e-07	8.535769e-07	-5.041707e-10	5.923270e+00	-3.541910e+01
9.900000e-07	9.055926e-07	-3.380100e-10	6.284225e+00	-2.496118e+01
1.000000e-06	9.572918e-07	-1.673800e-10	6.642983e+00	-1.412668e+01
1.010000e-06	1.008408e-06	3.791761e-12	6.997699e+00	-2.869804e+00
1.020000e-06	1.058763e-06	1.809139e-10	7.347126e+00	8.870534e+00
1.030000e-06	1.108476e-06	3.667271e-10	7.692105e+00	2.115313e+01
1.040000e-06	1.157658e-06	5.631531e-10	8.033396e+00	3.401460e+01
1.050000e-06	1.206374e-06	7.689242e-10	8.371455e+00	4.745361e+01
1.060000e-06	1.254802e-06	9.817514e-10	8.707514e+00	6.142409e+01
1.070000e-06	1.302975e-06	1.203413e-09	9.041799e+00	7.583875e+01
1.080000e-06	1.350742e-06	1.429403e-09	9.373274e+00	9.058096e+01
1.090000e-06	1.397954e-06	1.658375e-09	9.700893e+00	1.055203e+02
1.100000e-06	1.444617e-06	1.885029e-09	1.002470e+01	1.205263e+02
1.110000e-06	1.490836e-06	2.109496e-09	1.034543e+01	1.354767e+02
1.120000e-06	1.536514e-06	2.330040e-09	1.066241e+01	1.502591e+02
1.130000e-06	1.581601e-06	2.549424e-09	1.097528e+01	1.647670e+02
1.140000e-06	1.626258e-06	2.766533e-09	1.128518e+01	1.788955e+02
1.150000e-06	1.670598e-06	2.973969e-09	1.159287e+01	1.925388e+02
1.160000e-06	1.714540e-06	3.167645e-09	1.189780e+01	2.055933e+02
1.170000e-06	1.757768e-06	3.351831e-09	1.219777e+01	2.179655e+02
1.180000e-06	1.800027e-06	3.532753e-09	1.249102e+01	2.295831e+02
1.190000e-06	1.841328e-06	3.700317e-09	1.277762e+01	2.404047e+02
1.200000e-06	1.881912e-06	3.850344e-09	1.305925e+01	2.504241e+02
1.210000e-06	1.922011e-06	3.986075e-09	1.333751e+01	2.596693e+02
1.220000e-06	1.961540e-06	4.114251e-09	1.361181e+01	2.681936e+02
1.230000e-06	2.000434e-06	4.232976e-09	1.388171e+01	2.760636e+02
1.240000e-06	2.038669e-06	4.337783e-09	1.414704e+01	2.833467e+02
1.250000e-06	2.076157e-06	4.434642e-09	1.440718e+01	2.901026e+02
1.260000e-06	2.112999e-06	4.533590e-09	1.466284e+01	2.963784e+02
1.270000e-06	2.149348e-06	4.629587e-09	1.491508e+01	3.022108e+02
1.280000e-06	2.185042e-06	4.712031e-09	1.516277e+01	3.076303e+02
1.290000e-06	2.219761e-06	4.781156e-09	1.540370e+01	3.126667e+02
1.300000e-06	2.253414e-06	4.844260e-09	1.563723e+01	3.173524e+02
1.310000e-06	2.286146e-06	4.910514e-09	1.586437e+01	3.217229e+02
1.320000e-06	2.318172e-06	4.973997e-09	1.608661e+01	3.258138e+02
1.330000e-06	2.349468e-06	5.028643e-09	1.630378e+01	3.296573e+02
1.340000e-06	2.379975e-06	5.078559e-09	1.651548e+01	3.332778e+02
1.350000e-06	2.409657e-06	5.128560e-09	1.672146e+01	3.366906e+02
1.360000e-06	2.438544e-06	5.177764e-09	1.692191e+01	3.399032e+02
1.370000e-06	2.466824e-06	5.222423e-09	1.711816e+01	3.429179e+02
1.380000e-06	2.494337e-06	5.261946e-09	1.730908e+01	3.457361e+02
1.390000e-06	2.520631e-06	5.297340e-09	1.749154e+01	3.483624e+02
1.400000e-06	2.545735e-06	5.330002e-09	1.766575e+01	3.508056e+02
1.410000e-06	2.569946e-06	5.361267e-09	1.783376e+01	3.530796e+02
1.420000e-06	2.593297e-06	5.392492e-09	1.799580e+01	3.552013e+02
1.430000e-06	2.615767e-06	5.421736e-09	1.815172e+01	3.571886e+02
1.440000e-06	2.637351e-06	5.448442e-09	1.830150e+01	3.590576e+02
1.450000e-06	2.658163e-06	5.474985e-09	1.844592e+01	3.608212e+02
1.460000e-06	2.678218e-06	5.501431e-09	1.858509e+01	3.624879e+02
1.470000e-06	2.697342e-06	5.524878e-09	1.871780e+01	3.640616e+02
1.480000e-06	2.715479e-06	5.544058e-09	1.884366e+01	3.655414e+02
1.490000e-06	2.732692e-06	5.561928e-09	1.896311e+01	3.669234e+02
1.500000e-06	2.748886e-06	5.580355e-09	1.907549e+01	3.682015e+02
1.510000e-06	2.763953e-06	5.598390e-09	1.918004e+01	3.693704e+02
1.520000e-06	2.777928e-06	5.614039e-09	1.927702e+01	3.704279e+02
1.530000e-06	2.790916e-06	5.627791e-09	1.936715e+01	3.713770e+02
1.540000e-06	2.802942e-06	5.641597e-09	1.945060e+01	3.722271e+02
1.550000e-06	2.813682e-06	5.654012e-09	1.952513e+01	3.729929e+02
1.560000e-06	2.823101e-06	5.663928e-09	1.959049e+01	3.736907e+02
1.570000e-06	2.831551e-06	5.672631e-09	1.964912e+01	3.743340e+02
1.580000e-06	2.839105e-06	5.681551e-09	1.970155e+01	3.749289e+02
1.590000e-06	2.845709e-06	5.690617e-09	1.974738e+01	3.754716e+02
1.600000e-06	2.851315e-06	5.697214e-09	1.978628e+01	3.759490e+02
1.610000e-06	2.856070e-06	5.700637e-09	1.981927e+01	3.763434e+02
1.620000e-06	2.860009e-06	5.704744e-09	1.984660e+01	3.766392e+02
1.630000e-06	2.862679e-06	5.710639e-09	1.986513e+01	3.768295e+02
1.640000e-06	2.864096e-06	5.714079e-09	1.987497e+01	3.769205e+02
1.650000e-06	2.864605e-06	5.713636e-09	1.987850e+01	3.769307e+02
1.660000e-06	2.864202e-06	5.711310e-09	1.987571e+01	3.768853e+02
1.670000e-06	2.862864e-06	5.707091e-09	1.986642e+01	3.768069e+02
1.680000e-06	2.860645e-06	5.705745e-09	1.985102e+01	3.767066e+02
1.690000e-06	2.857624e-06	5.703665e-09	1.983006e+01	3.765783e+02
1.700000e-06	2.853839e-06	5.699372e-09	1.980379e+01	3.763992e+02
1.710000e-06	2.849063e-06	5.698979e-09	1.977065e+01	3.761372e+02
1.720000e-06	2.843114e-06	5.712672e-09	1.972937e+01	3.757629e+02
1.730000e-06	2.836169e-06	5.703208e-09	1.968117e+01	3.752615e+02
1.740000e-06	2.828311e-06	5.604998e-09	1.962664e+01	3.746415e+02
1.750000e-06	2.819087e-06	5.570288e-09	1.956263e+01	3.739347e+02
1.760000e-06	2.808263e-06	5.713909e-09	1.948752e+01	3.731887e+02
1.770000e-06	2.796610e-06	5.740346e-09	1.940666e+01	3.724527e+02
1.780000e-06	2.784861e-06	5.576302e-09	1.932513e+01	3.717623e+02
1.790000e-06	2.772229e-06	5.498434e-09	1.923747e+01	3.711271e+02
1.800000e-06	2.757862e-06	5.708751e-09	1.913777e+01	3.705282e+02
1.810000e-06	2.742457e-06	5.628790e-09	1.903087e+01	3.699232e+02
1.820000e-06	2.726499e-06	5.427675e-09	1.892014e+01	3.692597e+02
1.830000e-06	2.709316e-06	5.662716e-09	1.880089e+01	3.684914e+02
1.840000e-06	2.690877e-06	5.724323e-09	1.867294e+01	3.675910e+02
1.850000e-06	2.671836e-06	5.447003e-09	1.854081e+01	3.665563e+02
1.860000e-06	2.651982e-06	5.537003e-09	1.840304e+01	3.654070e+02
1.870000e-06	2.630945e-06	5.713023e-09	1.825705e+01	3.641744e+02
1.880000e-06	2.608935e-06	5.418308e-09	1.810432e+01	3.628882e+02
1.890000e-06	2.585905e-06	5.379891e-09	1.794450e+01	3.615653e+02
1.900000e-06	2.561776e-06	5.602845e-09	1.777706e+01	3.602052e+02
1.910000e-06	2.536930e-06	5.464692e-09	1.760465e+01	3.587925e+02
1.920000e-06	2.511282e-06	5.376960e-09	1.742667e+01	3.573056e+02
1.930000e-06	2.484680e-06	5.473912e-09	1.724207e+01	3.557270e+02
1.940000e-06	2.457446e-06	5.353549e-09	1.705308e+01	3.540520e+02
1.950000e-06	2.429336e-06	5.365293e-09	1.685802e+01	3.522902e+02
1.960000e-06	2.400062e-06	5.355753e-09	1.665487e+01	3.504614e+02
1.970000e-06	2.369805e-06	5.210278e-09	1.644491e+01	3.485872e+02
1.980000e-06	2.338736e-06	5.312493e-09	1.622931e+01	3.466816e+02
1.990000e-06	2.306932e-06	5.301846e-09	1.600861e+01	3.447451e+02
2.000000e-06	2.274387e-06	5.141677e-09	1.578277e+01	3.427653e+02
2.010000e-06	2.240998e-06	5.220246e-09	1.555107e+01	3.407224e+02
2.020000e-06	2.206901e-06	5.163497e-09	1.531446e+01	3.385981e+02
2.030000e-06	2.172218e-06	5.030689e-09	1.507379e+01	3.363840e+02
2.040000e-06	2.136854e-06	5.131313e-09	1.482838e+01	3.340854e+02
2.050000e-06	2.100845e-06	5.057122e-09	1.457850e+01	3.317186e+02
2.060000e-06	2.063869e-06	4.947496e-09	1.432191e+01	3.293038e+02
2.070000e-06	2.025722e-06	4.999364e-09	1.405720e+01	3.268566e+02
2.080000e-06	1.986767e-06	4.943243e-09	1.378687e+01	3.243803e+02
2.090000e-06	1.947242e-06	4.879698e-09	1.351260e+01	3.218649e+02
2.100000e-06	1.907089e-06	4.851979e-09	1.323396e+01	3.192909e+02
2.110000e-06	1.866313e-06	4.793014e-09	1.295100e+01	3.166386e+02
2.120000e-06	1.824970e-06	4.777898e-09	1.266411e+01	3.138963e+02
2.130000e-06	1.783060e-06	4.733336e-09	1.237328e+01	3.110660e+02
2.140000e-06	1.740503e-06	4.672788e-09	1.207796e+01	3.081627e+02
2.150000e-06	1.697410e-06	4.648216e-09	1.177892e+01	3.052080e+02
2.160000e-06	1.653938e-06	4.595671e-09	1.147726e+01	3.022197e+02
2.170000e-06	1.609920e-06	4.557646e-09	1.117180e+01	2.992033e+02
2.180000e-06	1.565331e-06	4.508732e-09	1.086238e+01	2.961479e+02
2.190000e-06	1.520148e-06	4.450826e-09	1.054884e+01	2.930294e+02
2.200000e-06	1.474374e-06	4.408308e-09	1.023120e+01	2.898189e+02
2.210000e-06	1.428170e-06	4.355920e-09	9.910576e+00	2.864946e+02
2.220000e-06	1.381468e-06	4.325084e-09	9.586492e+00	2.830507e+02
2.230000e-06	1.334259e-06	4.260115e-09	9.258892e+00	2.794998e+02
2.240000e-06	1.286556e-06	4.192078e-09	8.927867e+00	2.758681e+02
2.250000e-06	1.238274e-06	4.159593e-09	8.592819e+00	2.721847e+02
2.260000e-06	1.189472e-06	4.097769e-09	8.254162e+00	2.684682e+02
2.270000e-06	1.140262e-06	4.028958e-09	7.912681e+00	2.647187e+02
2.280000e-06	1.090671e-06	3.973188e-09	7.568552e+00	2.609157e+02
2.290000e-06	1.040594e-06	3.917015e-09	7.221047e+00	2.570252e+02
2.300000e-06	9.900411e-07	3.870585e-09	6.870242e+00	2.530127e+02
2.310000e-06	9.391463e-07	3.807005e-09	6.517066e+00	2.488571e+02
2.320000e-06	8.879572e-07	3.734888e-09	6.161847e+00	2.445592e+02
2.330000e-06	8.364901e-07	3.673364e-09	5.804698e+00	2.401424e+02
2.340000e-06	7.847568e-07	3.602059e-09	5.445703e+00	2.356439e+02
2.350000e-06	7.326854e-07	3.534804e-09	5.084361e+00	2.311002e+02
2.360000e-06	6.802454e-07	3.461600e-09	4.720462e+00	2.265319e+02
2.370000e-06	6.274447e-07	3.392202e-09	4.354059e+00	2.219344e+02
2.380000e-06	5.742385e-07	3.328762e-09	3.984842e+00	2.172786e+02
2.390000e-06	5.206581e-07	3.255401e-09	3.613029e+00	2.125201e+02
2.400000e-06	4.667408e-07	3.184777e-09	3.238878e+00	2.076146e+02
2.410000e-06	4.125605e-07	3.107558e-09	2.862902e+00	2.025336e+02
2.420000e-06	3.581626e-07	3.028792e-09	2.485416e+00	1.972734e+02
2.430000e-06	3.035803e-07	2.951622e-09	2.106650e+00	1.918542e+02
2.440000e-06	2.488531e-07	2.864507e-09	1.726879e+00	1.863104e+02
2.450000e-06	1.939934e-07	2.773832e-09	1.346188e+00	1.806747e+02
2.460000e-06	1.390604e-07	2.688308e-09	9.649886e-01	1.749631e+02
2.470000e-06	8.412977e-08	2.605214e-09	5.838060e-01	1.691669e+02
2.480000e-06	2.919686e-08	2.518790e-09	2.026073e-01	1.632543e+02
2.490000e-06	-2.582985e-08	2.425589e-09	-1.792424e-01	1.571806e+02
2.500000e-06	-8.091369e-08	2.333028e-09	-5.614885e-01	1.509041e+02
2.510000e-06	-1.359496e-07	2.240406e-09	-9.434023e-01	1.443999e+02
2.520000e-06	-1.908869e-07	2.136447e-09	-1.324631e+00	1.376666e+02
2.530000e-06	-2.457448e-07	2.026491e-09	-1.705309e+00	1.307232e+02
2.540000e-06	-3.005027e-07	1.917580e-09	-2.085293e+00	1.235970e+02
2.550000e-06	-3.550864e-07	1.812909e-09	-2.464069e+00	1.163084e+02
2.560000e-06	-4.094662e-07	1.703912e-09	-2.841430e+00	1.088565e+02
2.570000e-06	-4.636389e-07	1.586821e-09	-3.217353e+00	1.012145e+02
2.580000e-06	-5.175845e-07	1.468885e-09	-3.591700e+00	9.333301e+01
2.590000e-06	-5.711496e-07	1.347114e-09	-3.963407e+00	8.515372e+01
2.600000e-06	-6.243206e-07	1.218078e-09	-4.332380e+00	7.662485e+01
2.610000e-06	-6.771428e-07	1.079981e-09	-4.698931e+00	6.771433e+01
2.620000e-06	-7.295557e-07	9.362146e-10	-5.062643e+00	5.841447e+01
2.630000e-06	-7.815327e-07	7.891032e-10	-5.423330e+00	4.873656e+01
2.640000e-06	-8.331814e-07	6.402697e-10	-5.781738e+00	3.869746e+01
2.650000e-06	-8.846322e-07	4.844239e-10	-6.138773e+00	2.830357e+01
2.660000e-06	-9.358110e-07	3.205348e-10	-6.493921e+00	1.753876e+01
2.670000e-06	-9.866487e-07	1.537126e-10	-6.846702e+00	6.361294e+00
2.680000e-06	-1.037142e-06	-1.916056e-11	-7.197095e+00	-5.288324e+00
2.690000e-06	-1.087190e-06	-2.032905e-10	-7.544392e+00	-1.747078e+01
2.700000e-06	-1.136793e-06	-4.001415e-10	-7.888608e+00	-3.022799e+01
2.710000e-06	-1.186027e-06	-6.055653e-10	-8.230258e+00	-4.356621e+01
2.720000e-06	-1.234711e-06	-8.196034e-10	-8.568095e+00	-5.744737e+01
2.730000e-06	-1.282696e-06	-1.039865e-09	-8.901076e+00	-7.179088e+01
2.740000e-06	-1.329919e-06	-1.263662e-09	-9.228775e+00	-8.648423e+01
2.750000e-06	-1.376434e-06	-1.489224e-09	-9.551559e+00	-1.013983e+02
2.760000e-06	-1.422507e-06	-1.714902e-09	-9.871278e+00	-1.164019e+02
2.770000e-06	-1.468292e-06	-1.942243e-09	-1.018899e+01	-1.313711e+02
2.780000e-06	-1.513733e-06	-2.171420e-09	-1.050432e+01	-1.461916e+02
2.790000e-06	-1.558696e-06	-2.399266e-09	-1.081634e+01	-1.607565e+02
2.800000e-06	-1.603060e-06	-2.619821e-09	-1.112420e+01	-1.749608e+02
2.810000e-06	-1.646871e-06	-2.831714e-09	-1.142821e+01	-1.886987e+02
2.820000e-06	-1.690309e-06	-3.034715e-09	-1.172965e+01	-2.018658e+02
2.830000e-06	-1.733359e-06	-3.224858e-09	-1.202839e+01	-2.143662e+02
2.840000e-06	-1.775850e-06	-3.400837e-09	-1.232325e+01	-2.261229e+02
2.850000e-06	-1.817692e-06	-3.566210e-09	-1.261361e+01	-2.370883e+02
2.860000e-06	-1.858959e-06	-3.722373e-09	-1.289997e+01	-2.472501e+02
2.870000e-06	-1.899601e-06	-3.869124e-09	-1.318200e+01	-2.566305e+02
2.880000e-06	-1.939576e-06	-4.005948e-09	-1.345940e+01	-2.652791e+02
2.890000e-06	-1.979074e-06	-4.132261e-09	-1.373349e+01	-2.732611e+02
2.900000e-06	-2.018022e-06	-4.249459e-09	-1.400376e+01	-2.806446e+02
2.910000e-06	-2.056075e-06	-4.355682e-09	-1.426782e+01	-2.874911e+02
2.920000e-06	-2.093058e-06	-4.449213e-09	-1.452446e+01	-2.938499e+02
2.930000e-06	-2.129135e-06	-4.534825e-09	-1.477481e+01	-2.997594e+02
2.940000e-06	-2.164578e-06	-4.620576e-09	-1.502077e+01	-3.052508e+02
