# Temperatura_=_30.67
# Concentracion g/m^3_=_13400.0
# C_Vs_to_Am_M_A/Vsm_=_65563218390.804596
# pendiente_HvsI_1/m_=_3716.3
# ordenada_HvsI_A/m_=_1297.0
# frecuencia_Hz_=_300845.9445619224

Tiempo_(s)	Campo_(V.s)	Magnetizacion_(V.s)	Campo_(kA/m)	Magnetizacion_(A/m)
0.000000e+00	-2.857320e-06	-5.778906e-09	-1.980370e+01	-3.775685e+02
1.000000e-08	-2.856324e-06	-5.778439e-09	-1.979680e+01	-3.773997e+02
2.000000e-08	-2.854326e-06	-5.774048e-09	-1.978295e+01	-3.771962e+02
3.000000e-08	-2.851036e-06	-5.770112e-09	-1.976015e+01	-3.769678e+02
4.000000e-08	-2.846679e-06	-5.767781e-09	-1.972995e+01	-3.767089e+02
5.000000e-08	-2.841563e-06	-5.758932e-09	-1.969449e+01	-3.764003e+02
6.000000e-08	-2.835594e-06	-5.735414e-09	-1.965312e+01	-3.760165e+02
7.000000e-08	-2.828624e-06	-5.719536e-09	-1.960481e+01	-3.755360e+02
8.000000e-08	-2.820534e-06	-5.773124e-09	-1.954874e+01	-3.749517e+02
9.000000e-08	-2.811229e-06	-5.840828e-09	-1.948425e+01	-3.742762e+02
1.000000e-07	-2.800549e-06	-5.759838e-09	-1.941023e+01	-3.735411e+02
1.100000e-07	-2.788755e-06	-5.570945e-09	-1.932849e+01	-3.727877e+02
1.200000e-07	-2.776219e-06	-5.631504e-09	-1.924160e+01	-3.720541e+02
1.300000e-07	-2.762712e-06	-5.836305e-09	-1.914798e+01	-3.713623e+02
1.400000e-07	-2.748144e-06	-5.704819e-09	-1.904702e+01	-3.707093e+02
1.500000e-07	-2.732649e-06	-5.524723e-09	-1.893962e+01	-3.700662e+02
1.600000e-07	-2.715880e-06	-5.738383e-09	-1.882340e+01	-3.693858e+02
1.700000e-07	-2.697809e-06	-5.791030e-09	-1.869815e+01	-3.686163e+02
1.800000e-07	-2.679043e-06	-5.526029e-09	-1.856809e+01	-3.677158e+02
1.900000e-07	-2.659626e-06	-5.597936e-09	-1.843351e+01	-3.666641e+02
2.000000e-07	-2.639255e-06	-5.718360e-09	-1.829232e+01	-3.654671e+02
2.100000e-07	-2.618045e-06	-5.492000e-09	-1.814532e+01	-3.641527e+02
2.200000e-07	-2.596038e-06	-5.494779e-09	-1.799279e+01	-3.627601e+02
2.300000e-07	-2.573046e-06	-5.687760e-09	-1.783344e+01	-3.613267e+02
2.400000e-07	-2.549106e-06	-5.521991e-09	-1.766751e+01	-3.598764e+02
2.500000e-07	-2.524438e-06	-5.400079e-09	-1.749654e+01	-3.584143e+02
2.600000e-07	-2.498927e-06	-5.520205e-09	-1.731973e+01	-3.569277e+02
2.700000e-07	-2.472310e-06	-5.481195e-09	-1.713525e+01	-3.553928e+02
2.800000e-07	-2.444601e-06	-5.377162e-09	-1.694320e+01	-3.537849e+02
2.900000e-07	-2.415915e-06	-5.388604e-09	-1.674438e+01	-3.520872e+02
3.000000e-07	-2.386441e-06	-5.382050e-09	-1.654010e+01	-3.502953e+02
3.100000e-07	-2.356334e-06	-5.367721e-09	-1.633143e+01	-3.484168e+02
3.200000e-07	-2.325486e-06	-5.329233e-09	-1.611763e+01	-3.464672e+02
3.300000e-07	-2.293772e-06	-5.263224e-09	-1.589783e+01	-3.444624e+02
3.400000e-07	-2.261382e-06	-5.259776e-09	-1.567333e+01	-3.424138e+02
3.500000e-07	-2.228424e-06	-5.213683e-09	-1.544491e+01	-3.403245e+02
3.600000e-07	-2.194610e-06	-5.179468e-09	-1.521055e+01	-3.381910e+02
3.700000e-07	-2.159600e-06	-5.198943e-09	-1.496790e+01	-3.360056e+02
3.800000e-07	-2.123591e-06	-5.118255e-09	-1.471833e+01	-3.337610e+02
3.900000e-07	-2.086982e-06	-5.048477e-09	-1.446459e+01	-3.314529e+02
4.000000e-07	-2.049742e-06	-5.080072e-09	-1.420649e+01	-3.290807e+02
4.100000e-07	-2.011728e-06	-5.033001e-09	-1.394302e+01	-3.266462e+02
4.200000e-07	-1.972972e-06	-4.943552e-09	-1.367440e+01	-3.241505e+02
4.300000e-07	-1.933498e-06	-4.926192e-09	-1.340082e+01	-3.215924e+02
4.400000e-07	-1.893397e-06	-4.903880e-09	-1.312288e+01	-3.189684e+02
4.500000e-07	-1.852883e-06	-4.858730e-09	-1.284208e+01	-3.162739e+02
4.600000e-07	-1.811981e-06	-4.807668e-09	-1.255860e+01	-3.135063e+02
4.700000e-07	-1.770366e-06	-4.753454e-09	-1.227017e+01	-3.106671e+02
4.800000e-07	-1.727613e-06	-4.711077e-09	-1.197386e+01	-3.077626e+02
4.900000e-07	-1.683835e-06	-4.675877e-09	-1.167044e+01	-3.048016e+02
5.000000e-07	-1.639534e-06	-4.630527e-09	-1.136339e+01	-3.017917e+02
5.100000e-07	-1.594849e-06	-4.573531e-09	-1.105368e+01	-2.987354e+02
5.200000e-07	-1.549698e-06	-4.520377e-09	-1.074075e+01	-2.956275e+02
5.300000e-07	-1.504004e-06	-4.478995e-09	-1.042405e+01	-2.924556e+02
5.400000e-07	-1.457764e-06	-4.439007e-09	-1.010357e+01	-2.892037e+02
5.500000e-07	-1.410977e-06	-4.378210e-09	-9.779291e+00	-2.858572e+02
5.600000e-07	-1.363614e-06	-4.312665e-09	-9.451026e+00	-2.824081e+02
5.700000e-07	-1.315729e-06	-4.264293e-09	-9.119143e+00	-2.788573e+02
5.800000e-07	-1.267479e-06	-4.218327e-09	-8.784726e+00	-2.752139e+02
5.900000e-07	-1.218982e-06	-4.153419e-09	-8.448602e+00	-2.714907e+02
6.000000e-07	-1.170099e-06	-4.088702e-09	-8.109798e+00	-2.676983e+02
6.100000e-07	-1.120613e-06	-4.037177e-09	-7.766815e+00	-2.638407e+02
6.200000e-07	-1.070494e-06	-3.982191e-09	-7.419452e+00	-2.599126e+02
6.300000e-07	-1.019809e-06	-3.917302e-09	-7.068162e+00	-2.559020e+02
6.400000e-07	-9.685697e-07	-3.842979e-09	-6.713027e+00	-2.517952e+02
6.500000e-07	-9.168581e-07	-3.773507e-09	-6.354621e+00	-2.475827e+02
6.600000e-07	-8.647771e-07	-3.711131e-09	-5.993654e+00	-2.432646e+02
6.700000e-07	-8.123806e-07	-3.648239e-09	-5.630501e+00	-2.388502e+02
6.800000e-07	-7.597067e-07	-3.580002e-09	-5.265425e+00	-2.343554e+02
6.900000e-07	-7.067571e-07	-3.508009e-09	-4.898439e+00	-2.297951e+02
7.000000e-07	-6.535783e-07	-3.438896e-09	-4.529863e+00	-2.251766e+02
7.100000e-07	-6.001495e-07	-3.369537e-09	-4.159555e+00	-2.204946e+02
7.200000e-07	-5.464261e-07	-3.291839e-09	-3.787206e+00	-2.157308e+02
7.300000e-07	-4.924873e-07	-3.208444e-09	-3.413364e+00	-2.108596e+02
7.400000e-07	-4.384021e-07	-3.130356e-09	-3.038506e+00	-2.058553e+02
7.500000e-07	-3.841544e-07	-3.055421e-09	-2.662523e+00	-2.007009e+02
7.600000e-07	-3.297880e-07	-2.974560e-09	-2.285716e+00	-1.953931e+02
7.700000e-07	-2.753943e-07	-2.885097e-09	-1.908721e+00	-1.899419e+02
7.800000e-07	-2.209219e-07	-2.798812e-09	-1.531180e+00	-1.843652e+02
7.900000e-07	-1.663882e-07	-2.719490e-09	-1.153214e+00	-1.786801e+02
8.000000e-07	-1.118413e-07	-2.632593e-09	-7.751568e-01	-1.728940e+02
8.100000e-07	-5.725578e-08	-2.535204e-09	-3.968321e-01	-1.669997e+02
8.200000e-07	-2.634311e-09	-2.437293e-09	-1.825806e-02	-1.609755e+02
8.300000e-07	5.196866e-08	-2.342844e-09	3.601878e-01	-1.547915e+02
8.400000e-07	1.065331e-07	-2.244745e-09	7.383665e-01	-1.484181e+02
8.500000e-07	1.610989e-07	-2.141743e-09	1.116555e+00	-1.418351e+02
8.600000e-07	2.156114e-07	-2.037142e-09	1.494374e+00	-1.350357e+02
8.700000e-07	2.700561e-07	-1.931830e-09	1.871722e+00	-1.280262e+02
8.800000e-07	3.244411e-07	-1.823545e-09	2.248658e+00	-1.208183e+02
8.900000e-07	3.787477e-07	-1.708115e-09	2.625050e+00	-1.134207e+02
9.000000e-07	4.329409e-07	-1.586570e-09	3.000655e+00	-1.058297e+02
9.100000e-07	4.869792e-07	-1.463667e-09	3.375187e+00	-9.802527e+01
9.200000e-07	5.408125e-07	-1.341397e-09	3.748299e+00	-8.997252e+01
9.300000e-07	5.943977e-07	-1.213672e-09	4.119691e+00	-8.162881e+01
9.400000e-07	6.477773e-07	-1.078805e-09	4.489658e+00	-7.295327e+01
9.500000e-07	7.009164e-07	-9.391244e-10	4.857958e+00	-6.391516e+01
9.600000e-07	7.537527e-07	-7.961492e-10	5.224159e+00	-5.449769e+01
9.700000e-07	8.063418e-07	-6.475976e-10	5.588647e+00	-4.469565e+01
9.800000e-07	8.586451e-07	-4.905469e-10	5.951154e+00	-3.450796e+01
9.900000e-07	9.105835e-07	-3.253088e-10	6.311132e+00	-2.392802e+01
1.000000e-06	9.621099e-07	-1.545184e-10	6.668255e+00	-1.293603e+01
1.010000e-06	1.013096e-06	2.029647e-11	7.021630e+00	-1.496865e+00
1.020000e-06	1.063474e-06	2.020717e-10	7.370795e+00	1.043504e+01
1.030000e-06	1.113194e-06	3.923108e-10	7.715396e+00	2.290444e+01
1.040000e-06	1.162305e-06	5.926148e-10	8.055780e+00	3.594082e+01
1.050000e-06	1.211047e-06	8.015728e-10	8.393605e+00	4.954493e+01
1.060000e-06	1.259552e-06	1.017142e-09	8.729785e+00	6.368001e+01
1.070000e-06	1.307772e-06	1.238521e-09	9.063993e+00	7.827021e+01
1.080000e-06	1.355554e-06	1.466013e-09	9.395163e+00	9.320596e+01
1.090000e-06	1.402785e-06	1.697063e-09	9.722516e+00	1.083544e+02
1.100000e-06	1.449457e-06	1.927061e-09	1.004600e+01	1.235718e+02
1.110000e-06	1.495647e-06	2.155474e-09	1.036613e+01	1.387144e+02
1.120000e-06	1.541353e-06	2.381269e-09	1.068291e+01	1.536460e+02
1.130000e-06	1.586528e-06	2.603034e-09	1.099601e+01	1.682423e+02
1.140000e-06	1.631282e-06	2.818543e-09	1.130620e+01	1.823914e+02
1.150000e-06	1.675696e-06	3.023385e-09	1.161402e+01	1.959947e+02
1.160000e-06	1.719647e-06	3.215404e-09	1.191864e+01	2.089670e+02
1.170000e-06	1.762860e-06	3.399170e-09	1.221815e+01	2.212395e+02
1.180000e-06	1.805092e-06	3.576225e-09	1.251085e+01	2.327628e+02
1.190000e-06	1.846403e-06	3.741150e-09	1.279717e+01	2.435100e+02
1.200000e-06	1.887077e-06	3.891179e-09	1.307908e+01	2.534787e+02
1.210000e-06	1.927247e-06	4.028402e-09	1.335749e+01	2.626898e+02
1.220000e-06	1.966806e-06	4.156836e-09	1.363167e+01	2.711834e+02
1.230000e-06	2.005738e-06	4.275612e-09	1.390150e+01	2.790129e+02
1.240000e-06	2.043983e-06	4.381220e-09	1.416658e+01	2.862386e+02
1.250000e-06	2.081384e-06	4.477400e-09	1.442579e+01	2.929211e+02
1.260000e-06	2.118161e-06	4.570487e-09	1.468069e+01	2.991175e+02
1.270000e-06	2.154517e-06	4.658671e-09	1.493267e+01	3.048791e+02
1.280000e-06	2.190159e-06	4.738623e-09	1.517970e+01	3.102504e+02
1.290000e-06	2.224718e-06	4.812096e-09	1.541922e+01	3.152697e+02
1.300000e-06	2.258204e-06	4.883174e-09	1.565131e+01	3.199693e+02
1.310000e-06	2.290907e-06	4.952515e-09	1.587797e+01	3.243756e+02
1.320000e-06	2.322975e-06	5.014806e-09	1.610023e+01	3.285097e+02
1.330000e-06	2.354295e-06	5.069044e-09	1.631730e+01	3.323883e+02
1.340000e-06	2.384823e-06	5.118341e-09	1.652889e+01	3.360241e+02
1.350000e-06	2.414519e-06	5.164573e-09	1.673471e+01	3.394286e+02
1.360000e-06	2.443444e-06	5.209089e-09	1.693518e+01	3.426134e+02
1.370000e-06	2.471748e-06	5.253027e-09	1.713135e+01	3.455919e+02
1.380000e-06	2.499154e-06	5.296561e-09	1.732130e+01	3.483791e+02
1.390000e-06	2.525305e-06	5.337850e-09	1.750255e+01	3.509908e+02
1.400000e-06	2.550360e-06	5.374166e-09	1.767620e+01	3.534419e+02
1.410000e-06	2.574570e-06	5.404090e-09	1.784400e+01	3.557441e+02
1.420000e-06	2.597925e-06	5.430803e-09	1.800587e+01	3.579056e+02
1.430000e-06	2.620369e-06	5.458813e-09	1.816143e+01	3.599310e+02
1.440000e-06	2.641895e-06	5.486741e-09	1.831062e+01	3.618235e+02
1.450000e-06	2.662667e-06	5.511413e-09	1.845459e+01	3.635869e+02
1.460000e-06	2.682702e-06	5.534282e-09	1.859345e+01	3.652279e+02
1.470000e-06	2.701818e-06	5.558958e-09	1.872594e+01	3.667556e+02
1.480000e-06	2.720018e-06	5.583391e-09	1.885208e+01	3.681806e+02
1.490000e-06	2.737264e-06	5.604164e-09	1.897161e+01	3.695123e+02
1.500000e-06	2.753465e-06	5.622296e-09	1.908389e+01	3.707563e+02
1.510000e-06	2.768545e-06	5.638355e-09	1.918841e+01	3.719128e+02
1.520000e-06	2.782505e-06	5.651345e-09	1.928517e+01	3.729779e+02
1.530000e-06	2.795453e-06	5.662819e-09	1.937491e+01	3.739460e+02
1.540000e-06	2.807317e-06	5.676558e-09	1.945713e+01	3.748139e+02
1.550000e-06	2.817878e-06	5.692056e-09	1.953033e+01	3.755837e+02
1.560000e-06	2.827222e-06	5.704910e-09	1.959510e+01	3.762640e+02
1.570000e-06	2.835615e-06	5.714698e-09	1.965326e+01	3.768676e+02
1.580000e-06	2.843098e-06	5.723782e-09	1.970513e+01	3.774074e+02
1.590000e-06	2.849605e-06	5.733127e-09	1.975023e+01	3.778912e+02
1.600000e-06	2.855145e-06	5.739111e-09	1.978863e+01	3.783182e+02
1.610000e-06	2.859876e-06	5.739731e-09	1.982142e+01	3.786787e+02
1.620000e-06	2.863716e-06	5.740022e-09	1.984803e+01	3.789575e+02
1.630000e-06	2.866335e-06	5.744672e-09	1.986618e+01	3.791402e+02
1.640000e-06	2.867702e-06	5.752586e-09	1.987566e+01	3.792196e+02
1.650000e-06	2.868112e-06	5.757506e-09	1.987850e+01	3.792003e+02
1.660000e-06	2.867629e-06	5.756238e-09	1.987515e+01	3.790986e+02
1.670000e-06	2.866226e-06	5.750676e-09	1.986543e+01	3.789375e+02
1.680000e-06	2.863931e-06	5.746570e-09	1.984952e+01	3.787386e+02
1.690000e-06	2.860876e-06	5.743599e-09	1.982835e+01	3.785140e+02
1.700000e-06	2.857129e-06	5.736745e-09	1.980238e+01	3.782611e+02
1.710000e-06	2.852326e-06	5.731812e-09	1.976909e+01	3.779627e+02
1.720000e-06	2.846275e-06	5.747581e-09	1.972715e+01	3.775936e+02
1.730000e-06	2.839264e-06	5.748236e-09	1.967856e+01	3.771309e+02
1.740000e-06	2.831372e-06	5.651725e-09	1.962386e+01	3.765642e+02
1.750000e-06	2.822098e-06	5.583045e-09	1.955958e+01	3.759027e+02
1.760000e-06	2.811215e-06	5.714926e-09	1.948416e+01	3.751748e+02
1.770000e-06	2.799496e-06	5.823889e-09	1.940293e+01	3.744210e+02
1.780000e-06	2.787705e-06	5.645960e-09	1.932121e+01	3.736811e+02
1.790000e-06	2.775035e-06	5.499432e-09	1.923340e+01	3.729808e+02
1.800000e-06	2.760573e-06	5.699915e-09	1.913316e+01	3.723217e+02
1.810000e-06	2.745051e-06	5.725329e-09	1.902558e+01	3.716794e+02
1.820000e-06	2.729091e-06	5.472561e-09	1.891496e+01	3.710090e+02
1.830000e-06	2.711997e-06	5.594306e-09	1.879649e+01	3.702584e+02
1.840000e-06	2.693542e-06	5.801353e-09	1.866858e+01	3.693830e+02
1.850000e-06	2.674413e-06	5.540621e-09	1.853600e+01	3.683581e+02
1.860000e-06	2.654512e-06	5.480965e-09	1.839806e+01	3.671850e+02
1.870000e-06	2.633292e-06	5.740139e-09	1.825099e+01	3.658883e+02
1.880000e-06	2.610984e-06	5.539889e-09	1.809638e+01	3.645062e+02
1.890000e-06	2.587810e-06	5.350661e-09	1.793577e+01	3.630772e+02
1.900000e-06	2.563656e-06	5.584877e-09	1.776836e+01	3.616285e+02
1.910000e-06	2.538744e-06	5.546466e-09	1.759570e+01	3.601685e+02
1.920000e-06	2.513065e-06	5.369353e-09	1.741772e+01	3.586872e+02
1.930000e-06	2.486450e-06	5.459384e-09	1.723325e+01	3.571623e+02
1.940000e-06	2.459196e-06	5.440691e-09	1.704436e+01	3.555685e+02
1.950000e-06	2.431141e-06	5.367133e-09	1.684991e+01	3.538870e+02
1.960000e-06	2.401781e-06	5.371461e-09	1.664642e+01	3.521111e+02
1.970000e-06	2.371299e-06	5.287599e-09	1.643516e+01	3.502466e+02
1.980000e-06	2.340038e-06	5.299965e-09	1.621849e+01	3.483079e+02
1.990000e-06	2.308099e-06	5.313935e-09	1.599712e+01	3.463114e+02
2.000000e-06	2.275464e-06	5.199077e-09	1.577093e+01	3.442696e+02
2.010000e-06	2.242005e-06	5.223868e-09	1.553904e+01	3.421872e+02
2.020000e-06	2.207805e-06	5.194942e-09	1.530200e+01	3.400615e+02
2.030000e-06	2.172996e-06	5.079629e-09	1.506074e+01	3.378854e+02
2.040000e-06	2.137545e-06	5.143005e-09	1.481504e+01	3.356513e+02
2.050000e-06	2.101389e-06	5.102398e-09	1.456444e+01	3.333541e+02
2.060000e-06	2.064283e-06	4.982943e-09	1.430727e+01	3.309928e+02
2.070000e-06	2.026029e-06	5.013022e-09	1.404213e+01	3.285688e+02
2.080000e-06	1.986979e-06	4.978489e-09	1.377149e+01	3.260834e+02
2.090000e-06	1.947476e-06	4.909065e-09	1.349770e+01	3.235362e+02
2.100000e-06	1.907366e-06	4.888408e-09	1.321970e+01	3.209237e+02
2.110000e-06	1.866534e-06	4.835183e-09	1.293670e+01	3.182415e+02
2.120000e-06	1.825079e-06	4.813147e-09	1.264938e+01	3.154865e+02
2.130000e-06	1.783048e-06	4.770420e-09	1.235807e+01	3.126592e+02
2.140000e-06	1.740420e-06	4.704960e-09	1.206262e+01	3.097653e+02
2.150000e-06	1.697316e-06	4.677241e-09	1.176387e+01	3.068132e+02
2.160000e-06	1.653809e-06	4.622725e-09	1.146233e+01	3.038111e+02
2.170000e-06	1.609739e-06	4.585956e-09	1.115688e+01	3.007627e+02
2.180000e-06	1.564997e-06	4.551990e-09	1.084678e+01	2.976642e+02
2.190000e-06	1.519636e-06	4.484896e-09	1.053239e+01	2.945043e+02
2.200000e-06	1.473743e-06	4.436867e-09	1.021432e+01	2.912673e+02
2.210000e-06	1.427467e-06	4.392639e-09	9.893586e+00	2.879380e+02
2.220000e-06	1.380759e-06	4.345809e-09	9.569858e+00	2.845069e+02
2.230000e-06	1.333535e-06	4.289488e-09	9.242550e+00	2.809733e+02
2.240000e-06	1.285728e-06	4.224008e-09	8.911211e+00	2.773450e+02
2.250000e-06	1.237235e-06	4.182839e-09	8.575113e+00	2.736346e+02
2.260000e-06	1.188259e-06	4.126625e-09	8.235664e+00	2.698535e+02
2.270000e-06	1.138967e-06	4.055497e-09	7.894029e+00	2.660071e+02
2.280000e-06	1.089279e-06	3.998862e-09	7.549648e+00	2.620918e+02
2.290000e-06	1.039107e-06	3.940383e-09	7.201914e+00	2.580965e+02
2.300000e-06	9.884625e-07	3.889452e-09	6.850901e+00	2.540072e+02
2.310000e-06	9.374579e-07	3.828055e-09	6.497395e+00	2.498134e+02
2.320000e-06	8.862531e-07	3.756495e-09	6.142502e+00	2.455131e+02
2.330000e-06	8.348291e-07	3.690472e-09	5.786089e+00	2.411143e+02
2.340000e-06	7.830218e-07	3.618199e-09	5.427019e+00	2.366321e+02
2.350000e-06	7.307490e-07	3.551310e-09	5.064723e+00	2.320821e+02
2.360000e-06	6.780114e-07	3.481905e-09	4.699206e+00	2.274735e+02
2.370000e-06	6.248709e-07	3.409186e-09	4.330897e+00	2.228033e+02
2.380000e-06	5.713673e-07	3.344324e-09	3.960070e+00	2.180554e+02
2.390000e-06	5.174992e-07	3.274350e-09	3.586717e+00	2.132048e+02
2.400000e-06	4.632743e-07	3.200204e-09	3.210892e+00	2.082253e+02
2.410000e-06	4.088214e-07	3.121506e-09	2.833486e+00	2.030979e+02
2.420000e-06	3.542812e-07	3.039264e-09	2.455476e+00	1.978165e+02
2.430000e-06	2.995996e-07	2.960252e-09	2.076484e+00	1.923892e+02
2.440000e-06	2.447659e-07	2.874978e-09	1.696439e+00	1.868330e+02
2.450000e-06	1.898659e-07	2.786113e-09	1.315935e+00	1.811658e+02
2.460000e-06	1.349449e-07	2.701496e-09	9.352852e-01	1.753973e+02
2.470000e-06	7.995920e-08	2.617881e-09	5.541865e-01	1.695230e+02
2.480000e-06	2.492965e-08	2.531398e-09	1.727841e-01	1.635235e+02
2.490000e-06	-3.009338e-08	2.436896e-09	-2.085732e-01	1.573698e+02
2.500000e-06	-8.512507e-08	2.340898e-09	-5.899904e-01	1.510316e+02
2.510000e-06	-1.401421e-07	2.244404e-09	-9.713062e-01	1.444863e+02
2.520000e-06	-1.951051e-07	2.140663e-09	-1.352247e+00	1.377250e+02
2.530000e-06	-2.500302e-07	2.031223e-09	-1.732926e+00	1.307516e+02
2.540000e-06	-3.048456e-07	1.920876e-09	-2.112844e+00	1.235778e+02
2.550000e-06	-3.595016e-07	1.812853e-09	-2.491658e+00	1.162133e+02
2.560000e-06	-4.140320e-07	1.702807e-09	-2.869600e+00	1.086573e+02
2.570000e-06	-4.683753e-07	1.586348e-09	-3.246247e+00	1.008926e+02
2.580000e-06	-5.224552e-07	1.464995e-09	-3.621067e+00	9.288673e+01
2.590000e-06	-5.762174e-07	1.340316e-09	-3.993685e+00	8.459762e+01
2.600000e-06	-6.296003e-07	1.210134e-09	-4.363675e+00	7.598343e+01
2.610000e-06	-6.825521e-07	1.072148e-09	-4.730677e+00	6.701117e+01
2.620000e-06	-7.350419e-07	9.275834e-10	-5.094477e+00	5.766155e+01
2.630000e-06	-7.871195e-07	7.800265e-10	-5.455420e+00	4.792773e+01
2.640000e-06	-8.388344e-07	6.305522e-10	-5.813849e+00	3.780858e+01
2.650000e-06	-8.902200e-07	4.741735e-10	-6.169995e+00	2.729915e+01
2.660000e-06	-9.413553e-07	3.081496e-10	-6.524407e+00	1.638236e+01
2.670000e-06	-9.922157e-07	1.356652e-10	-6.876914e+00	5.025679e+00
2.680000e-06	-1.042730e-06	-4.180076e-11	-7.227024e+00	-6.815281e+00
2.690000e-06	-1.092819e-06	-2.296866e-10	-7.574183e+00	-1.918643e+01
2.700000e-06	-1.142437e-06	-4.295970e-10	-7.918075e+00	-3.212107e+01
2.710000e-06	-1.191584e-06	-6.370313e-10	-8.258708e+00	-4.562588e+01
2.720000e-06	-1.240256e-06	-8.515076e-10	-8.596049e+00	-5.967115e+01
2.730000e-06	-1.288319e-06	-1.073771e-09	-8.929167e+00	-7.418779e+01
2.740000e-06	-1.335599e-06	-1.301624e-09	-9.256857e+00	-8.907160e+01
2.750000e-06	-1.382160e-06	-1.531820e-09	-9.579567e+00	-1.041930e+02
2.760000e-06	-1.428210e-06	-1.761588e-09	-9.898734e+00	-1.194093e+02
2.770000e-06	-1.473913e-06	-1.990971e-09	-1.021549e+01	-1.345760e+02
2.780000e-06	-1.519305e-06	-2.222400e-09	-1.053010e+01	-1.495554e+02
2.790000e-06	-1.564305e-06	-2.453014e-09	-1.084199e+01	-1.642206e+02
2.800000e-06	-1.608714e-06	-2.675041e-09	-1.114978e+01	-1.784577e+02
2.810000e-06	-1.652475e-06	-2.885761e-09	-1.145308e+01	-1.921656e+02
2.820000e-06	-1.695808e-06	-3.087478e-09	-1.175342e+01	-2.052567e+02
2.830000e-06	-1.738787e-06	-3.276709e-09	-1.205130e+01	-2.176590e+02
2.840000e-06	-1.781279e-06	-3.451155e-09	-1.234580e+01	-2.293192e+02
2.850000e-06	-1.823155e-06	-3.615504e-09	-1.263604e+01	-2.402065e+02
2.860000e-06	-1.864428e-06	-3.773155e-09	-1.292210e+01	-2.503138e+02
2.870000e-06	-1.905114e-06	-3.922917e-09	-1.320409e+01	-2.596583e+02
2.880000e-06	-1.945095e-06	-4.059667e-09	-1.348119e+01	-2.682769e+02
2.890000e-06	-1.984462e-06	-4.183652e-09	-1.375404e+01	-2.762212e+02
2.900000e-06	-2.023336e-06	-4.299910e-09	-1.402347e+01	-2.835507e+02
2.910000e-06	-2.061478e-06	-4.405997e-09	-1.428783e+01	-2.903264e+02
2.920000e-06	-2.098576e-06	-4.498108e-09	-1.454495e+01	-2.966063e+02
2.930000e-06	-2.134627e-06	-4.582195e-09	-1.479482e+01	-3.024426e+02
2.940000e-06	-2.169942e-06	-4.666105e-09	-1.503958e+01	-3.078811e+02
