# Temperatura_=_25.14
# Concentracion g/m^3_=_13400.0
# C_Vs_to_Am_M_A/Vsm_=_65563218390.804596
# pendiente_HvsI_1/m_=_3716.3
# ordenada_HvsI_A/m_=_1297.0
# frecuencia_Hz_=_300842.9868201054

Tiempo_(s)	Campo_(V.s)	Magnetizacion_(V.s)	Campo_(kA/m)	Magnetizacion_(A/m)
0.000000e+00	-2.851816e-06	-5.683339e-09	-1.980428e+01	-3.710324e+02
1.000000e-08	-2.851000e-06	-5.682804e-09	-1.979861e+01	-3.709598e+02
2.000000e-08	-2.849237e-06	-5.682551e-09	-1.978637e+01	-3.708463e+02
3.000000e-08	-2.846235e-06	-5.681414e-09	-1.976552e+01	-3.706821e+02
4.000000e-08	-2.842119e-06	-5.679866e-09	-1.973694e+01	-3.704525e+02
5.000000e-08	-2.837190e-06	-5.674359e-09	-1.970271e+01	-3.701438e+02
6.000000e-08	-2.831438e-06	-5.663099e-09	-1.966277e+01	-3.697489e+02
7.000000e-08	-2.824683e-06	-5.636900e-09	-1.961586e+01	-3.692710e+02
8.000000e-08	-2.816911e-06	-5.642442e-09	-1.956188e+01	-3.687234e+02
9.000000e-08	-2.808001e-06	-5.702690e-09	-1.950000e+01	-3.681265e+02
1.000000e-07	-2.797671e-06	-5.723798e-09	-1.942827e+01	-3.675014e+02
1.100000e-07	-2.786107e-06	-5.559089e-09	-1.934796e+01	-3.668641e+02
1.200000e-07	-2.773723e-06	-5.489237e-09	-1.926196e+01	-3.662207e+02
1.300000e-07	-2.760465e-06	-5.648539e-09	-1.916990e+01	-3.655666e+02
1.400000e-07	-2.746169e-06	-5.715884e-09	-1.907062e+01	-3.648882e+02
1.500000e-07	-2.730945e-06	-5.467106e-09	-1.896490e+01	-3.641676e+02
1.600000e-07	-2.714537e-06	-5.507656e-09	-1.885095e+01	-3.633880e+02
1.700000e-07	-2.696742e-06	-5.713470e-09	-1.872738e+01	-3.625367e+02
1.800000e-07	-2.678101e-06	-5.478998e-09	-1.859793e+01	-3.616076e+02
1.900000e-07	-2.658856e-06	-5.403588e-09	-1.846428e+01	-3.605998e+02
2.000000e-07	-2.638733e-06	-5.589078e-09	-1.832453e+01	-3.595152e+02
2.100000e-07	-2.617708e-06	-5.464059e-09	-1.817853e+01	-3.583560e+02
2.200000e-07	-2.595932e-06	-5.315158e-09	-1.802731e+01	-3.571232e+02
2.300000e-07	-2.573262e-06	-5.525864e-09	-1.786988e+01	-3.558166e+02
2.400000e-07	-2.549567e-06	-5.497364e-09	-1.770533e+01	-3.544365e+02
2.500000e-07	-2.525121e-06	-5.305116e-09	-1.753556e+01	-3.529853e+02
2.600000e-07	-2.499934e-06	-5.359037e-09	-1.736066e+01	-3.514684e+02
2.700000e-07	-2.473677e-06	-5.394677e-09	-1.717832e+01	-3.498934e+02
2.800000e-07	-2.446248e-06	-5.273346e-09	-1.698784e+01	-3.482681e+02
2.900000e-07	-2.417790e-06	-5.280200e-09	-1.679021e+01	-3.465971e+02
3.000000e-07	-2.388555e-06	-5.263346e-09	-1.658719e+01	-3.448798e+02
3.100000e-07	-2.358661e-06	-5.238289e-09	-1.637959e+01	-3.431100e+02
3.200000e-07	-2.328050e-06	-5.266369e-09	-1.616701e+01	-3.412782e+02
3.300000e-07	-2.296577e-06	-5.157144e-09	-1.594845e+01	-3.393748e+02
3.400000e-07	-2.264349e-06	-5.127425e-09	-1.572465e+01	-3.373945e+02
3.500000e-07	-2.231592e-06	-5.133511e-09	-1.549717e+01	-3.353389e+02
3.600000e-07	-2.198175e-06	-5.069413e-09	-1.526510e+01	-3.332164e+02
3.700000e-07	-2.163631e-06	-5.058476e-09	-1.502522e+01	-3.310394e+02
3.800000e-07	-2.127871e-06	-5.053555e-09	-1.477688e+01	-3.288196e+02
3.900000e-07	-2.091389e-06	-4.951225e-09	-1.452353e+01	-3.265629e+02
4.000000e-07	-2.054370e-06	-4.951051e-09	-1.426646e+01	-3.242671e+02
4.100000e-07	-2.016645e-06	-4.958857e-09	-1.400448e+01	-3.219219e+02
4.200000e-07	-1.978183e-06	-4.862310e-09	-1.373739e+01	-3.195129e+02
4.300000e-07	-1.939011e-06	-4.821395e-09	-1.346536e+01	-3.170269e+02
4.400000e-07	-1.899141e-06	-4.808418e-09	-1.318848e+01	-3.144574e+02
4.500000e-07	-1.858764e-06	-4.770873e-09	-1.290808e+01	-3.118069e+02
4.600000e-07	-1.817999e-06	-4.719257e-09	-1.262499e+01	-3.090863e+02
4.700000e-07	-1.776669e-06	-4.677388e-09	-1.233798e+01	-3.063097e+02
4.800000e-07	-1.734343e-06	-4.622053e-09	-1.204405e+01	-3.034890e+02
4.900000e-07	-1.690931e-06	-4.590471e-09	-1.174258e+01	-3.006276e+02
5.000000e-07	-1.646821e-06	-4.555106e-09	-1.143626e+01	-2.977181e+02
5.100000e-07	-1.602315e-06	-4.498482e-09	-1.112719e+01	-2.947445e+02
5.200000e-07	-1.557415e-06	-4.441151e-09	-1.081538e+01	-2.916871e+02
5.300000e-07	-1.511976e-06	-4.398176e-09	-1.049983e+01	-2.885304e+02
5.400000e-07	-1.465962e-06	-4.362117e-09	-1.018030e+01	-2.852681e+02
5.500000e-07	-1.419397e-06	-4.302677e-09	-9.856926e+00	-2.819062e+02
5.600000e-07	-1.372308e-06	-4.242958e-09	-9.529918e+00	-2.784599e+02
5.700000e-07	-1.324726e-06	-4.182908e-09	-9.199487e+00	-2.749477e+02
5.800000e-07	-1.276705e-06	-4.143423e-09	-8.866007e+00	-2.713829e+02
5.900000e-07	-1.228302e-06	-4.091038e-09	-8.529876e+00	-2.677680e+02
6.000000e-07	-1.179551e-06	-4.024749e-09	-8.191325e+00	-2.640924e+02
6.100000e-07	-1.130412e-06	-3.963797e-09	-7.850085e+00	-2.603358e+02
6.200000e-07	-1.080684e-06	-3.906687e-09	-7.504749e+00	-2.564759e+02
6.300000e-07	-1.030284e-06	-3.847896e-09	-7.154748e+00	-2.524967e+02
6.400000e-07	-9.793091e-07	-3.777280e-09	-6.800758e+00	-2.483958e+02
6.500000e-07	-9.277737e-07	-3.711417e-09	-6.442873e+00	-2.441860e+02
6.600000e-07	-8.757589e-07	-3.650413e-09	-6.081660e+00	-2.398910e+02
6.700000e-07	-8.234681e-07	-3.593464e-09	-5.718529e+00	-2.355373e+02
6.800000e-07	-7.709526e-07	-3.522423e-09	-5.353838e+00	-2.311439e+02
6.900000e-07	-7.182015e-07	-3.446110e-09	-4.987511e+00	-2.267147e+02
7.000000e-07	-6.652074e-07	-3.374147e-09	-4.619496e+00	-2.222362e+02
7.100000e-07	-6.119610e-07	-3.308884e-09	-4.249730e+00	-2.176810e+02
7.200000e-07	-5.584751e-07	-3.239824e-09	-3.878300e+00	-2.130170e+02
7.300000e-07	-5.047250e-07	-3.160455e-09	-3.505035e+00	-2.082174e+02
7.400000e-07	-4.507601e-07	-3.083975e-09	-3.130279e+00	-2.032696e+02
7.500000e-07	-3.966426e-07	-3.007308e-09	-2.754463e+00	-1.981775e+02
7.600000e-07	-3.424372e-07	-2.928278e-09	-2.378036e+00	-1.929585e+02
7.700000e-07	-2.881617e-07	-2.840018e-09	-2.001123e+00	-1.876348e+02
7.800000e-07	-2.337803e-07	-2.753552e-09	-1.623474e+00	-1.822232e+02
7.900000e-07	-1.793597e-07	-2.673155e-09	-1.245554e+00	-1.767267e+02
8.000000e-07	-1.249106e-07	-2.592089e-09	-8.674345e-01	-1.711314e+02
8.100000e-07	-7.040458e-08	-2.502692e-09	-4.889207e-01	-1.654101e+02
8.200000e-07	-1.591222e-08	-2.407290e-09	-1.105015e-01	-1.595298e+02
8.300000e-07	3.854099e-08	-2.313828e-09	2.676458e-01	-1.534625e+02
8.400000e-07	9.302855e-08	-2.217677e-09	6.460316e-01	-1.471931e+02
8.500000e-07	1.475183e-07	-2.117937e-09	1.024433e+00	-1.407222e+02
8.600000e-07	2.019472e-07	-2.011027e-09	1.402411e+00	-1.340631e+02
8.700000e-07	2.563292e-07	-1.906771e-09	1.780064e+00	-1.272335e+02
8.800000e-07	3.106911e-07	-1.805678e-09	2.157577e+00	-1.202457e+02
8.900000e-07	3.649911e-07	-1.698906e-09	2.534660e+00	-1.130978e+02
9.000000e-07	4.191223e-07	-1.579705e-09	2.910571e+00	-1.057711e+02
9.100000e-07	4.730797e-07	-1.457128e-09	3.285276e+00	-9.823184e+01
9.200000e-07	5.268368e-07	-1.341458e-09	3.658589e+00	-9.043931e+01
9.300000e-07	5.803545e-07	-1.221707e-09	4.030240e+00	-8.235518e+01
9.400000e-07	6.336567e-07	-1.092010e-09	4.400394e+00	-7.395147e+01
9.500000e-07	6.867286e-07	-9.535991e-10	4.768949e+00	-6.521403e+01
9.600000e-07	7.395234e-07	-8.168366e-10	5.135580e+00	-5.614022e+01
9.700000e-07	7.920536e-07	-6.777772e-10	5.500373e+00	-4.673190e+01
9.800000e-07	8.443105e-07	-5.285926e-10	5.863268e+00	-3.698619e+01
9.900000e-07	8.962655e-07	-3.675707e-10	6.224066e+00	-2.688777e+01
1.000000e-06	9.478428e-07	-2.015863e-10	6.582242e+00	-1.640551e+01
1.010000e-06	9.988326e-07	-3.677823e-11	6.936338e+00	-5.495041e+00
1.020000e-06	1.049130e-06	1.334429e-10	7.285628e+00	5.893107e+00
1.030000e-06	1.098813e-06	3.150633e-10	7.630648e+00	1.780210e+01
1.040000e-06	1.148009e-06	5.089460e-10	7.972288e+00	3.025706e+01
1.050000e-06	1.196796e-06	7.074111e-10	8.311087e+00	4.325610e+01
1.060000e-06	1.245288e-06	9.124421e-10	8.647832e+00	5.676600e+01
1.070000e-06	1.293541e-06	1.125816e-09	8.982927e+00	7.072299e+01
1.080000e-06	1.341378e-06	1.345738e-09	9.315127e+00	8.503775e+01
1.090000e-06	1.388618e-06	1.567169e-09	9.643181e+00	9.960261e+01
1.100000e-06	1.435328e-06	1.786587e-09	9.967553e+00	1.142991e+02
1.110000e-06	1.481548e-06	2.009037e-09	1.028853e+01	1.290041e+02
1.120000e-06	1.527198e-06	2.232733e-09	1.060554e+01	1.435947e+02
1.130000e-06	1.572354e-06	2.449702e-09	1.091913e+01	1.579507e+02
1.140000e-06	1.617141e-06	2.657093e-09	1.123015e+01	1.719574e+02
1.150000e-06	1.661616e-06	2.861356e-09	1.153900e+01	1.855079e+02
1.160000e-06	1.705673e-06	3.059090e-09	1.184495e+01	1.985066e+02
1.170000e-06	1.748961e-06	3.247338e-09	1.214556e+01	2.108732e+02
1.180000e-06	1.791214e-06	3.423345e-09	1.243899e+01	2.225462e+02
1.190000e-06	1.832541e-06	3.587691e-09	1.272598e+01	2.334867e+02
1.200000e-06	1.873250e-06	3.743645e-09	1.300868e+01	2.436793e+02
1.210000e-06	1.913508e-06	3.888128e-09	1.328825e+01	2.531316e+02
1.220000e-06	1.953182e-06	4.017773e-09	1.356376e+01	2.618712e+02
1.230000e-06	1.992165e-06	4.134011e-09	1.383448e+01	2.699413e+02
1.240000e-06	2.030486e-06	4.244839e-09	1.410060e+01	2.773947e+02
1.250000e-06	2.068076e-06	4.349521e-09	1.436164e+01	2.842888e+02
1.260000e-06	2.105002e-06	4.446644e-09	1.461807e+01	2.906805e+02
1.270000e-06	2.141434e-06	4.533967e-09	1.487107e+01	2.966221e+02
1.280000e-06	2.177212e-06	4.614555e-09	1.511953e+01	3.021597e+02
1.290000e-06	2.211971e-06	4.691699e-09	1.536091e+01	3.073316e+02
1.300000e-06	2.245601e-06	4.765059e-09	1.559445e+01	3.121694e+02
1.310000e-06	2.278409e-06	4.833859e-09	1.582229e+01	3.166987e+02
1.320000e-06	2.310568e-06	4.896723e-09	1.604562e+01	3.209411e+02
1.330000e-06	2.341997e-06	4.954839e-09	1.626387e+01	3.249155e+02
1.340000e-06	2.372691e-06	5.008326e-09	1.647702e+01	3.286393e+02
1.350000e-06	2.402525e-06	5.055752e-09	1.668420e+01	3.321284e+02
1.360000e-06	2.431528e-06	5.099730e-09	1.688561e+01	3.353977e+02
1.370000e-06	2.459939e-06	5.146110e-09	1.708291e+01	3.384598e+02
1.380000e-06	2.487533e-06	5.192243e-09	1.727454e+01	3.413251e+02
1.390000e-06	2.513923e-06	5.233071e-09	1.745780e+01	3.440024e+02
1.400000e-06	2.539172e-06	5.267763e-09	1.763314e+01	3.464992e+02
1.410000e-06	2.563519e-06	5.299629e-09	1.780222e+01	3.488238e+02
1.420000e-06	2.587025e-06	5.330647e-09	1.796545e+01	3.509864e+02
1.430000e-06	2.609707e-06	5.358641e-09	1.812297e+01	3.529999e+02
1.440000e-06	2.631509e-06	5.383101e-09	1.827437e+01	3.548796e+02
1.450000e-06	2.652462e-06	5.406670e-09	1.841987e+01	3.566412e+02
1.460000e-06	2.672682e-06	5.432891e-09	1.856029e+01	3.582986e+02
1.470000e-06	2.691995e-06	5.460108e-09	1.869441e+01	3.598608e+02
1.480000e-06	2.710281e-06	5.484029e-09	1.882140e+01	3.613313e+02
1.490000e-06	2.727656e-06	5.504303e-09	1.894206e+01	3.627074e+02
1.500000e-06	2.743984e-06	5.522615e-09	1.905545e+01	3.639832e+02
1.510000e-06	2.759183e-06	5.539355e-09	1.916100e+01	3.651523e+02
1.520000e-06	2.773396e-06	5.552937e-09	1.925970e+01	3.662119e+02
1.530000e-06	2.786636e-06	5.563443e-09	1.935164e+01	3.671651e+02
1.540000e-06	2.798808e-06	5.575949e-09	1.943617e+01	3.680207e+02
1.550000e-06	2.809688e-06	5.593916e-09	1.951173e+01	3.687914e+02
1.560000e-06	2.819284e-06	5.610692e-09	1.957836e+01	3.694901e+02
1.570000e-06	2.827936e-06	5.620698e-09	1.963844e+01	3.701253e+02
1.580000e-06	2.835708e-06	5.626690e-09	1.969242e+01	3.706990e+02
1.590000e-06	2.842482e-06	5.634983e-09	1.973946e+01	3.712063e+02
1.600000e-06	2.848302e-06	5.643783e-09	1.977988e+01	3.716376e+02
1.610000e-06	2.853255e-06	5.646664e-09	1.981427e+01	3.719834e+02
1.620000e-06	2.857351e-06	5.646470e-09	1.984272e+01	3.722386e+02
1.630000e-06	2.860267e-06	5.650831e-09	1.986297e+01	3.724052e+02
1.640000e-06	2.861869e-06	5.658852e-09	1.987409e+01	3.724933e+02
1.650000e-06	2.862504e-06	5.662831e-09	1.987850e+01	3.725173e+02
1.660000e-06	2.862328e-06	5.661962e-09	1.987728e+01	3.724919e+02
1.670000e-06	2.861239e-06	5.659453e-09	1.986971e+01	3.724260e+02
1.680000e-06	2.859185e-06	5.657817e-09	1.985545e+01	3.723201e+02
1.690000e-06	2.856287e-06	5.656131e-09	1.983533e+01	3.721658e+02
1.700000e-06	2.852680e-06	5.649793e-09	1.981028e+01	3.719488e+02
1.710000e-06	2.848084e-06	5.642545e-09	1.977836e+01	3.716548e+02
1.720000e-06	2.842256e-06	5.644372e-09	1.973789e+01	3.712752e+02
1.730000e-06	2.835433e-06	5.670253e-09	1.969051e+01	3.708112e+02
1.740000e-06	2.827786e-06	5.622571e-09	1.963740e+01	3.702745e+02
1.750000e-06	2.818945e-06	5.523733e-09	1.957601e+01	3.696846e+02
1.760000e-06	2.808511e-06	5.532313e-09	1.950355e+01	3.690630e+02
1.770000e-06	2.796965e-06	5.715557e-09	1.942337e+01	3.684269e+02
1.780000e-06	2.785223e-06	5.676650e-09	1.934183e+01	3.677845e+02
1.790000e-06	2.772990e-06	5.445942e-09	1.925687e+01	3.671329e+02
1.800000e-06	2.759154e-06	5.522374e-09	1.916080e+01	3.664599e+02
1.810000e-06	2.743883e-06	5.698606e-09	1.905475e+01	3.657480e+02
1.820000e-06	2.728063e-06	5.509217e-09	1.894488e+01	3.649798e+02
1.830000e-06	2.711324e-06	5.372457e-09	1.882864e+01	3.641417e+02
1.840000e-06	2.693119e-06	5.654559e-09	1.870222e+01	3.632266e+02
1.850000e-06	2.674057e-06	5.585601e-09	1.856984e+01	3.622326e+02
1.860000e-06	2.654405e-06	5.313794e-09	1.843337e+01	3.611613e+02
1.870000e-06	2.633624e-06	5.565654e-09	1.828906e+01	3.600151e+02
1.880000e-06	2.611689e-06	5.587741e-09	1.813673e+01	3.587953e+02
1.890000e-06	2.588831e-06	5.244261e-09	1.797799e+01	3.575017e+02
1.900000e-06	2.564920e-06	5.399285e-09	1.781194e+01	3.561344e+02
1.910000e-06	2.540189e-06	5.517113e-09	1.764020e+01	3.546954e+02
1.920000e-06	2.514828e-06	5.312320e-09	1.746409e+01	3.531895e+02
1.930000e-06	2.488496e-06	5.334151e-09	1.728122e+01	3.516242e+02
1.940000e-06	2.461356e-06	5.379608e-09	1.709275e+01	3.500072e+02
1.950000e-06	2.433567e-06	5.273071e-09	1.689977e+01	3.483440e+02
1.960000e-06	2.404586e-06	5.296145e-09	1.669852e+01	3.466351e+02
1.970000e-06	2.374420e-06	5.227002e-09	1.648903e+01	3.448752e+02
1.980000e-06	2.343461e-06	5.153704e-09	1.627404e+01	3.430551e+02
1.990000e-06	2.311795e-06	5.265008e-09	1.605413e+01	3.411648e+02
2.000000e-06	2.279441e-06	5.159270e-09	1.582945e+01	3.391981e+02
2.010000e-06	2.246289e-06	5.093505e-09	1.559923e+01	3.371553e+02
2.020000e-06	2.212277e-06	5.163938e-09	1.536304e+01	3.350438e+02
2.030000e-06	2.177621e-06	5.026523e-09	1.512237e+01	3.328754e+02
2.040000e-06	2.142363e-06	5.006637e-09	1.487752e+01	3.306624e+02
2.050000e-06	2.106415e-06	5.061802e-09	1.462788e+01	3.284120e+02
2.060000e-06	2.069702e-06	4.921823e-09	1.437293e+01	3.261235e+02
2.070000e-06	2.031852e-06	4.910792e-09	1.411009e+01	3.237880e+02
2.080000e-06	1.993005e-06	4.930444e-09	1.384031e+01	3.213913e+02
2.090000e-06	1.953625e-06	4.832853e-09	1.356684e+01	3.189196e+02
2.100000e-06	1.913650e-06	4.820543e-09	1.328924e+01	3.163649e+02
2.110000e-06	1.872994e-06	4.770340e-09	1.300690e+01	3.137281e+02
2.120000e-06	1.831717e-06	4.719993e-09	1.272026e+01	3.110188e+02
2.130000e-06	1.789867e-06	4.709134e-09	1.242963e+01	3.082510e+02
2.140000e-06	1.747439e-06	4.640482e-09	1.213499e+01	3.054375e+02
2.150000e-06	1.704485e-06	4.602707e-09	1.183670e+01	3.025833e+02
2.160000e-06	1.661167e-06	4.561814e-09	1.153588e+01	2.996832e+02
2.170000e-06	1.617375e-06	4.518091e-09	1.123177e+01	2.967223e+02
2.180000e-06	1.572872e-06	4.485894e-09	1.092272e+01	2.936811e+02
2.190000e-06	1.527689e-06	4.419389e-09	1.060895e+01	2.905427e+02
2.200000e-06	1.481968e-06	4.363319e-09	1.029145e+01	2.872990e+02
2.210000e-06	1.435876e-06	4.325223e-09	9.971360e+00	2.839538e+02
2.220000e-06	1.389427e-06	4.274286e-09	9.648799e+00	2.805210e+02
2.230000e-06	1.342445e-06	4.230496e-09	9.322533e+00	2.770192e+02
2.240000e-06	1.294833e-06	4.159992e-09	8.991898e+00	2.734630e+02
2.250000e-06	1.246572e-06	4.107422e-09	8.656754e+00	2.698573e+02
2.260000e-06	1.197799e-06	4.068232e-09	8.318047e+00	2.661936e+02
2.270000e-06	1.148670e-06	3.993116e-09	7.976876e+00	2.624531e+02
2.280000e-06	1.099152e-06	3.937507e-09	7.633000e+00	2.586128e+02
2.290000e-06	1.049184e-06	3.879830e-09	7.286002e+00	2.546554e+02
2.300000e-06	9.987127e-07	3.827405e-09	6.935505e+00	2.505756e+02
2.310000e-06	9.478310e-07	3.772833e-09	6.582160e+00	2.463835e+02
2.320000e-06	8.967151e-07	3.693296e-09	6.227188e+00	2.421015e+02
2.330000e-06	8.453421e-07	3.623180e-09	5.870432e+00	2.377564e+02
2.340000e-06	7.937050e-07	3.558318e-09	5.511841e+00	2.333691e+02
2.350000e-06	7.417049e-07	3.495592e-09	5.150729e+00	2.289466e+02
2.360000e-06	6.892309e-07	3.430324e-09	4.786326e+00	2.244784e+02
2.370000e-06	6.363140e-07	3.355586e-09	4.418847e+00	2.199391e+02
2.380000e-06	5.830302e-07	3.289969e-09	4.048821e+00	2.152966e+02
2.390000e-06	5.293908e-07	3.224333e-09	3.676325e+00	2.105225e+02
2.400000e-06	4.753783e-07	3.146255e-09	3.301238e+00	2.056011e+02
2.410000e-06	4.211825e-07	3.068293e-09	2.924878e+00	2.005337e+02
2.420000e-06	3.668497e-07	2.987067e-09	2.547567e+00	1.953355e+02
2.430000e-06	3.122904e-07	2.910817e-09	2.168683e+00	1.900288e+02
2.440000e-06	2.575609e-07	2.832063e-09	1.788618e+00	1.846320e+02
2.450000e-06	2.027300e-07	2.745129e-09	1.407847e+00	1.791510e+02
2.460000e-06	1.478713e-07	2.663069e-09	1.026884e+00	1.735749e+02
2.470000e-06	9.301058e-08	2.578910e-09	6.459068e-01	1.678782e+02
2.480000e-06	3.810968e-08	2.494580e-09	2.646506e-01	1.620285e+02
2.490000e-06	-1.681965e-08	2.403226e-09	-1.168032e-01	1.559960e+02
2.500000e-06	-7.178765e-08	2.305680e-09	-4.985254e-01	1.497629e+02
2.510000e-06	-1.267687e-07	2.210351e-09	-8.803380e-01	1.433271e+02
2.520000e-06	-1.816697e-07	2.112932e-09	-1.261595e+00	1.367001e+02
2.530000e-06	-2.365008e-07	2.008123e-09	-1.642367e+00	1.298996e+02
2.540000e-06	-2.912748e-07	1.898445e-09	-2.022742e+00	1.229395e+02
2.550000e-06	-3.459207e-07	1.791819e-09	-2.402227e+00	1.158209e+02
2.560000e-06	-4.004029e-07	1.684894e-09	-2.780576e+00	1.085281e+02
2.570000e-06	-4.546816e-07	1.570851e-09	-3.157511e+00	1.010295e+02
2.580000e-06	-5.087149e-07	1.452050e-09	-3.532743e+00	9.328502e+01
2.590000e-06	-5.624059e-07	1.334041e-09	-3.905597e+00	8.525520e+01
2.600000e-06	-6.157377e-07	1.209652e-09	-4.275957e+00	7.690982e+01
2.610000e-06	-6.686984e-07	1.076343e-09	-4.643739e+00	6.823225e+01
2.620000e-06	-7.211710e-07	9.365141e-10	-5.008132e+00	5.921820e+01
2.630000e-06	-7.732077e-07	7.922988e-10	-5.369498e+00	4.986939e+01
2.640000e-06	-8.249064e-07	6.473319e-10	-5.728517e+00	4.018443e+01
2.650000e-06	-8.762905e-07	4.989025e-10	-6.085351e+00	3.015064e+01
2.660000e-06	-9.274111e-07	3.426254e-10	-6.440356e+00	1.973969e+01
2.670000e-06	-9.782385e-07	1.770293e-10	-6.793323e+00	8.909131e+00
2.680000e-06	-1.028732e-06	6.774151e-12	-7.143975e+00	-2.390390e+00
2.690000e-06	-1.078815e-06	-1.723032e-10	-7.491774e+00	-1.420405e+01
2.700000e-06	-1.128439e-06	-3.640759e-10	-7.836381e+00	-2.656097e+01
2.710000e-06	-1.177657e-06	-5.649327e-10	-8.178171e+00	-3.946456e+01
2.720000e-06	-1.226424e-06	-7.687481e-10	-8.516832e+00	-5.288726e+01
2.730000e-06	-1.274536e-06	-9.769422e-10	-8.850945e+00	-6.677049e+01
2.740000e-06	-1.321867e-06	-1.194182e-09	-9.179630e+00	-8.102902e+01
2.750000e-06	-1.368478e-06	-1.418157e-09	-9.503320e+00	-9.555787e+01
2.760000e-06	-1.414554e-06	-1.643302e-09	-9.823295e+00	-1.102400e+02
2.770000e-06	-1.460233e-06	-1.866852e-09	-1.014051e+01	-1.249527e+02
2.780000e-06	-1.505589e-06	-2.092663e-09	-1.045548e+01	-1.395728e+02
2.790000e-06	-1.550598e-06	-2.317648e-09	-1.076804e+01	-1.539795e+02
2.800000e-06	-1.595086e-06	-2.535428e-09	-1.107698e+01	-1.680569e+02
2.810000e-06	-1.638965e-06	-2.742749e-09	-1.138170e+01	-1.816964e+02
2.820000e-06	-1.682359e-06	-2.943047e-09	-1.168305e+01	-1.948003e+02
2.830000e-06	-1.725419e-06	-3.136043e-09	-1.198207e+01	-2.072850e+02
2.840000e-06	-1.767989e-06	-3.317690e-09	-1.227770e+01	-2.190856e+02
2.850000e-06	-1.809937e-06	-3.487324e-09	-1.256901e+01	-2.301588e+02
2.860000e-06	-1.851290e-06	-3.645676e-09	-1.285618e+01	-2.404852e+02
2.870000e-06	-1.891994e-06	-3.795140e-09	-1.313885e+01	-2.500684e+02
2.880000e-06	-1.932017e-06	-3.933759e-09	-1.341679e+01	-2.589327e+02
2.890000e-06	-1.971463e-06	-4.061265e-09	-1.369072e+01	-2.671188e+02
2.900000e-06	-2.010359e-06	-4.179416e-09	-1.396082e+01	-2.746784e+02
2.910000e-06	-2.048555e-06	-4.289011e-09	-1.422607e+01	-2.816684e+02
2.920000e-06	-2.085798e-06	-4.388854e-09	-1.448471e+01	-2.881459e+02
2.930000e-06	-2.122031e-06	-4.479476e-09	-1.473633e+01	-2.941645e+02
2.940000e-06	-2.157511e-06	-4.565963e-09	-1.498272e+01	-2.997714e+02
