# Temperatura_=_28.9
# Concentracion g/m^3_=_13400.0
# C_Vs_to_Am_M_A/Vsm_=_65563218390.804596
# pendiente_HvsI_1/m_=_3716.3
# ordenada_HvsI_A/m_=_1297.0
# frecuencia_Hz_=_300847.66932001495

Tiempo_(s)	Campo_(V.s)	Magnetizacion_(V.s)	Campo_(kA/m)	Magnetizacion_(A/m)
0.000000e+00	-2.853601e-06	-5.741743e-09	-1.980205e+01	-3.753207e+02
1.000000e-08	-2.852773e-06	-5.738613e-09	-1.979630e+01	-3.751355e+02
2.000000e-08	-2.850931e-06	-5.736228e-09	-1.978352e+01	-3.748948e+02
3.000000e-08	-2.847890e-06	-5.731034e-09	-1.976242e+01	-3.746217e+02
4.000000e-08	-2.843805e-06	-5.725504e-09	-1.973407e+01	-3.743273e+02
5.000000e-08	-2.838924e-06	-5.720941e-09	-1.970019e+01	-3.740060e+02
6.000000e-08	-2.833167e-06	-5.718494e-09	-1.966025e+01	-3.736372e+02
7.000000e-08	-2.826447e-06	-5.709102e-09	-1.961361e+01	-3.731935e+02
8.000000e-08	-2.818718e-06	-5.690764e-09	-1.955998e+01	-3.726521e+02
9.000000e-08	-2.809792e-06	-5.707894e-09	-1.949804e+01	-3.720058e+02
1.000000e-07	-2.799560e-06	-5.736041e-09	-1.942704e+01	-3.712688e+02
1.100000e-07	-2.788110e-06	-5.684687e-09	-1.934758e+01	-3.704748e+02
1.200000e-07	-2.775778e-06	-5.577462e-09	-1.926201e+01	-3.696678e+02
1.300000e-07	-2.762659e-06	-5.611491e-09	-1.917097e+01	-3.688883e+02
1.400000e-07	-2.748555e-06	-5.737876e-09	-1.907310e+01	-3.681592e+02
1.500000e-07	-2.733469e-06	-5.612634e-09	-1.896841e+01	-3.674772e+02
1.600000e-07	-2.717194e-06	-5.538473e-09	-1.885547e+01	-3.668118e+02
1.700000e-07	-2.699568e-06	-5.676081e-09	-1.873316e+01	-3.661131e+02
1.800000e-07	-2.681024e-06	-5.641477e-09	-1.860448e+01	-3.653268e+02
1.900000e-07	-2.661832e-06	-5.484029e-09	-1.847130e+01	-3.644092e+02
2.000000e-07	-2.641745e-06	-5.554004e-09	-1.833191e+01	-3.633397e+02
2.100000e-07	-2.620740e-06	-5.600935e-09	-1.818615e+01	-3.621255e+02
2.200000e-07	-2.598973e-06	-5.435338e-09	-1.803510e+01	-3.607973e+02
2.300000e-07	-2.576329e-06	-5.487528e-09	-1.787796e+01	-3.593978e+02
2.400000e-07	-2.552722e-06	-5.576013e-09	-1.771415e+01	-3.579676e+02
2.500000e-07	-2.528301e-06	-5.422107e-09	-1.754468e+01	-3.565322e+02
2.600000e-07	-2.503101e-06	-5.366965e-09	-1.736982e+01	-3.550954e+02
2.700000e-07	-2.476905e-06	-5.438320e-09	-1.718803e+01	-3.536402e+02
2.800000e-07	-2.449597e-06	-5.374856e-09	-1.699853e+01	-3.521369e+02
2.900000e-07	-2.421284e-06	-5.338125e-09	-1.680206e+01	-3.505541e+02
3.000000e-07	-2.392109e-06	-5.334238e-09	-1.659960e+01	-3.488705e+02
3.100000e-07	-2.362193e-06	-5.323483e-09	-1.639201e+01	-3.470811e+02
3.200000e-07	-2.331573e-06	-5.311788e-09	-1.617953e+01	-3.451984e+02
3.300000e-07	-2.300205e-06	-5.245256e-09	-1.596185e+01	-3.432463e+02
3.400000e-07	-2.268092e-06	-5.198331e-09	-1.573901e+01	-3.412512e+02
3.500000e-07	-2.235322e-06	-5.190584e-09	-1.551161e+01	-3.392324e+02
3.600000e-07	-2.201804e-06	-5.144121e-09	-1.527902e+01	-3.371958e+02
3.700000e-07	-2.167246e-06	-5.117583e-09	-1.503921e+01	-3.351325e+02
3.800000e-07	-2.131591e-06	-5.128579e-09	-1.479179e+01	-3.330227e+02
3.900000e-07	-2.095158e-06	-5.048512e-09	-1.453896e+01	-3.308431e+02
4.000000e-07	-2.058143e-06	-5.019692e-09	-1.428211e+01	-3.285747e+02
4.100000e-07	-2.020423e-06	-5.023001e-09	-1.402036e+01	-3.262091e+02
4.200000e-07	-1.981964e-06	-4.951115e-09	-1.375348e+01	-3.237499e+02
4.300000e-07	-1.942781e-06	-4.888251e-09	-1.348157e+01	-3.212106e+02
4.400000e-07	-1.902900e-06	-4.873212e-09	-1.320483e+01	-3.186086e+02
4.500000e-07	-1.862548e-06	-4.840426e-09	-1.292481e+01	-3.159584e+02
4.600000e-07	-1.821795e-06	-4.795272e-09	-1.264202e+01	-3.132666e+02
4.700000e-07	-1.780369e-06	-4.753812e-09	-1.235455e+01	-3.105297e+02
4.800000e-07	-1.738009e-06	-4.701456e-09	-1.206060e+01	-3.077354e+02
4.900000e-07	-1.694693e-06	-4.665160e-09	-1.176001e+01	-3.048675e+02
5.000000e-07	-1.650621e-06	-4.620455e-09	-1.145418e+01	-3.019115e+02
5.100000e-07	-1.606053e-06	-4.575979e-09	-1.114491e+01	-2.988597e+02
5.200000e-07	-1.561065e-06	-4.520914e-09	-1.083272e+01	-2.957136e+02
5.300000e-07	-1.515559e-06	-4.472115e-09	-1.051694e+01	-2.924828e+02
5.400000e-07	-1.469456e-06	-4.429270e-09	-1.019702e+01	-2.891814e+02
5.500000e-07	-1.422800e-06	-4.379012e-09	-9.873261e+00	-2.858224e+02
5.600000e-07	-1.375699e-06	-4.317668e-09	-9.546410e+00	-2.824123e+02
5.700000e-07	-1.328126e-06	-4.258367e-09	-9.216287e+00	-2.789486e+02
5.800000e-07	-1.280092e-06	-4.219974e-09	-8.882966e+00	-2.754191e+02
5.900000e-07	-1.231710e-06	-4.169670e-09	-8.547230e+00	-2.718057e+02
6.000000e-07	-1.182983e-06	-4.104789e-09	-8.209094e+00	-2.680892e+02
6.100000e-07	-1.133807e-06	-4.036763e-09	-7.867849e+00	-2.642558e+02
6.200000e-07	-1.084008e-06	-3.978346e-09	-7.522278e+00	-2.603010e+02
6.300000e-07	-1.033593e-06	-3.917057e-09	-7.172433e+00	-2.562316e+02
6.400000e-07	-9.826491e-07	-3.851235e-09	-6.818914e+00	-2.520636e+02
6.500000e-07	-9.311575e-07	-3.782893e-09	-6.461598e+00	-2.478175e+02
6.600000e-07	-8.792038e-07	-3.719657e-09	-6.101075e+00	-2.435114e+02
6.700000e-07	-8.269529e-07	-3.662450e-09	-5.738489e+00	-2.391561e+02
6.800000e-07	-7.744557e-07	-3.594068e-09	-5.374194e+00	-2.347504e+02
6.900000e-07	-7.216811e-07	-3.519898e-09	-5.007974e+00	-2.302822e+02
7.000000e-07	-6.686286e-07	-3.443644e-09	-4.639826e+00	-2.257313e+02
7.100000e-07	-6.152797e-07	-3.374314e-09	-4.269621e+00	-2.210758e+02
7.200000e-07	-5.617272e-07	-3.302570e-09	-3.898004e+00	-2.162981e+02
7.300000e-07	-5.080276e-07	-3.224324e-09	-3.525365e+00	-2.113896e+02
7.400000e-07	-4.540983e-07	-3.144552e-09	-3.151133e+00	-2.063523e+02
7.500000e-07	-3.999728e-07	-3.068117e-09	-2.775539e+00	-2.011957e+02
7.600000e-07	-3.457325e-07	-2.989852e-09	-2.399148e+00	-1.959326e+02
7.700000e-07	-2.914209e-07	-2.902830e-09	-2.022262e+00	-1.905720e+02
7.800000e-07	-2.370531e-07	-2.814801e-09	-1.644987e+00	-1.851148e+02
7.900000e-07	-1.826262e-07	-2.729650e-09	-1.267301e+00	-1.795516e+02
8.000000e-07	-1.281428e-07	-2.648178e-09	-8.892238e-01	-1.738648e+02
8.100000e-07	-7.360102e-08	-2.557208e-09	-5.107408e-01	-1.680333e+02
8.200000e-07	-1.904258e-08	-2.460358e-09	-1.321425e-01	-1.620389e+02
8.300000e-07	3.550037e-08	-2.362819e-09	2.463483e-01	-1.558708e+02
8.400000e-07	9.002659e-08	-2.265777e-09	6.247231e-01	-1.495277e+02
8.500000e-07	1.445384e-07	-2.166386e-09	1.002998e+00	-1.430153e+02
8.600000e-07	1.990093e-07	-2.061903e-09	1.380989e+00	-1.363413e+02
8.700000e-07	2.534041e-07	-1.956908e-09	1.758451e+00	-1.295084e+02
8.800000e-07	3.077438e-07	-1.850211e-09	2.135532e+00	-1.225089e+02
8.900000e-07	3.620097e-07	-1.741152e-09	2.512100e+00	-1.153225e+02
9.000000e-07	4.161898e-07	-1.621985e-09	2.888073e+00	-1.079187e+02
9.100000e-07	4.702205e-07	-1.498927e-09	3.263009e+00	-1.002626e+02
9.200000e-07	5.240820e-07	-1.377907e-09	3.636772e+00	-9.232184e+01
9.300000e-07	5.777419e-07	-1.254678e-09	4.009135e+00	-8.407317e+01
9.400000e-07	6.311153e-07	-1.122398e-09	4.379510e+00	-7.550448e+01
9.500000e-07	6.842524e-07	-9.838357e-10	4.748245e+00	-6.661277e+01
9.600000e-07	7.371477e-07	-8.443658e-10	5.115302e+00	-5.739793e+01
9.700000e-07	7.897844e-07	-6.994439e-10	5.480565e+00	-4.785476e+01
9.800000e-07	8.421634e-07	-5.460347e-10	5.844039e+00	-3.796620e+01
9.900000e-07	8.942303e-07	-3.834772e-10	6.205348e+00	-2.770038e+01
1.000000e-06	9.459326e-07	-2.166812e-10	6.564127e+00	-1.701282e+01
1.010000e-06	9.971092e-07	-4.573830e-11	6.919257e+00	-5.853561e+00
1.020000e-06	1.047571e-06	1.293193e-10	7.269426e+00	5.822930e+00
1.030000e-06	1.097398e-06	3.126490e-10	7.615190e+00	1.804771e+01
1.040000e-06	1.146727e-06	5.078577e-10	7.957505e+00	3.082979e+01
1.050000e-06	1.195586e-06	7.135545e-10	8.296553e+00	4.415261e+01
1.060000e-06	1.244110e-06	9.274863e-10	8.633278e+00	5.797445e+01
1.070000e-06	1.292384e-06	1.146379e-09	8.968267e+00	7.223155e+01
1.080000e-06	1.340243e-06	1.370297e-09	9.300369e+00	8.684206e+01
1.090000e-06	1.387594e-06	1.595658e-09	9.628955e+00	1.017090e+02
1.100000e-06	1.434393e-06	1.821590e-09	9.953707e+00	1.167221e+02
1.110000e-06	1.480674e-06	2.046266e-09	1.027487e+01	1.317582e+02
1.120000e-06	1.526477e-06	2.269853e-09	1.059271e+01	1.466833e+02
1.130000e-06	1.571733e-06	2.491007e-09	1.090676e+01	1.613566e+02
1.140000e-06	1.616528e-06	2.710379e-09	1.121760e+01	1.756377e+02
1.150000e-06	1.660952e-06	2.922868e-09	1.152587e+01	1.893966e+02
1.160000e-06	1.704930e-06	3.119744e-09	1.183105e+01	2.025249e+02
1.170000e-06	1.748281e-06	3.303397e-09	1.213188e+01	2.149442e+02
1.180000e-06	1.790716e-06	3.477513e-09	1.242634e+01	2.266109e+02
1.190000e-06	1.832207e-06	3.644396e-09	1.271427e+01	2.375143e+02
1.200000e-06	1.873030e-06	3.798588e-09	1.299755e+01	2.476702e+02
1.210000e-06	1.913307e-06	3.939821e-09	1.327705e+01	2.571105e+02
1.220000e-06	1.953011e-06	4.071446e-09	1.355256e+01	2.658735e+02
1.230000e-06	1.992072e-06	4.194669e-09	1.382362e+01	2.739966e+02
1.240000e-06	2.030451e-06	4.306277e-09	1.408995e+01	2.815143e+02
1.250000e-06	2.068090e-06	4.407915e-09	1.435114e+01	2.884596e+02
1.260000e-06	2.105044e-06	4.505043e-09	1.460757e+01	2.948690e+02
1.270000e-06	2.141480e-06	4.596205e-09	1.486041e+01	3.007867e+02
1.280000e-06	2.177327e-06	4.678838e-09	1.510917e+01	3.062654e+02
1.290000e-06	2.212241e-06	4.753216e-09	1.535144e+01	3.113635e+02
1.300000e-06	2.246017e-06	4.823069e-09	1.558582e+01	3.161384e+02
1.310000e-06	2.278870e-06	4.889767e-09	1.581380e+01	3.206385e+02
1.320000e-06	2.311020e-06	4.952696e-09	1.603690e+01	3.248962e+02
1.330000e-06	2.342514e-06	5.011913e-09	1.625545e+01	3.289262e+02
1.340000e-06	2.373289e-06	5.068299e-09	1.646900e+01	3.327282e+02
1.350000e-06	2.403199e-06	5.120798e-09	1.667656e+01	3.362938e+02
1.360000e-06	2.432292e-06	5.167427e-09	1.687845e+01	3.396160e+02
1.370000e-06	2.460688e-06	5.211601e-09	1.707549e+01	3.426966e+02
1.380000e-06	2.488347e-06	5.255513e-09	1.726743e+01	3.455498e+02
1.390000e-06	2.514913e-06	5.295455e-09	1.745178e+01	3.482003e+02
1.400000e-06	2.540228e-06	5.328787e-09	1.762745e+01	3.506780e+02
1.410000e-06	2.564579e-06	5.358010e-09	1.779643e+01	3.530097e+02
1.420000e-06	2.588112e-06	5.388879e-09	1.795973e+01	3.552134e+02
1.430000e-06	2.610836e-06	5.423632e-09	1.811742e+01	3.572955e+02
1.440000e-06	2.632723e-06	5.455782e-09	1.826930e+01	3.592523e+02
1.450000e-06	2.653731e-06	5.480598e-09	1.841508e+01	3.610764e+02
1.460000e-06	2.673962e-06	5.502534e-09	1.855547e+01	3.627623e+02
1.470000e-06	2.693337e-06	5.525176e-09	1.868992e+01	3.643121e+02
1.480000e-06	2.711681e-06	5.547268e-09	1.881722e+01	3.657364e+02
1.490000e-06	2.729026e-06	5.566739e-09	1.893758e+01	3.670518e+02
1.500000e-06	2.745382e-06	5.583915e-09	1.905108e+01	3.682751e+02
1.510000e-06	2.760658e-06	5.600676e-09	1.915709e+01	3.694183e+02
1.520000e-06	2.774904e-06	5.617934e-09	1.925594e+01	3.704844e+02
1.530000e-06	2.788171e-06	5.633969e-09	1.934800e+01	3.714687e+02
1.540000e-06	2.800397e-06	5.646760e-09	1.943284e+01	3.723623e+02
1.550000e-06	2.811383e-06	5.657542e-09	1.950908e+01	3.731578e+02
1.560000e-06	2.821045e-06	5.668884e-09	1.957613e+01	3.738548e+02
1.570000e-06	2.829683e-06	5.680744e-09	1.963607e+01	3.744615e+02
1.580000e-06	2.837435e-06	5.689803e-09	1.968986e+01	3.749926e+02
1.590000e-06	2.844200e-06	5.697977e-09	1.973681e+01	3.754634e+02
1.600000e-06	2.850011e-06	5.704690e-09	1.977713e+01	3.758839e+02
1.610000e-06	2.854999e-06	5.706765e-09	1.981174e+01	3.762532e+02
1.620000e-06	2.859150e-06	5.708675e-09	1.984055e+01	3.765597e+02
1.630000e-06	2.862167e-06	5.714289e-09	1.986149e+01	3.767849e+02
1.640000e-06	2.863913e-06	5.721581e-09	1.987361e+01	3.769109e+02
1.650000e-06	2.864619e-06	5.723955e-09	1.987850e+01	3.769283e+02
1.660000e-06	2.864434e-06	5.721857e-09	1.987722e+01	3.768416e+02
1.670000e-06	2.863379e-06	5.720083e-09	1.986990e+01	3.766688e+02
1.680000e-06	2.861449e-06	5.715266e-09	1.985651e+01	3.764356e+02
1.690000e-06	2.858674e-06	5.708594e-09	1.983725e+01	3.761664e+02
1.700000e-06	2.855102e-06	5.702656e-09	1.981246e+01	3.758752e+02
1.710000e-06	2.850559e-06	5.697531e-09	1.978094e+01	3.755593e+02
1.720000e-06	2.844854e-06	5.691595e-09	1.974134e+01	3.752004e+02
1.730000e-06	2.838114e-06	5.698100e-09	1.969457e+01	3.747715e+02
1.740000e-06	2.830451e-06	5.695573e-09	1.964140e+01	3.742482e+02
1.750000e-06	2.821596e-06	5.638128e-09	1.957995e+01	3.736197e+02
1.760000e-06	2.811242e-06	5.591061e-09	1.950810e+01	3.728964e+02
1.770000e-06	2.799755e-06	5.679726e-09	1.942839e+01	3.721089e+02
1.780000e-06	2.787883e-06	5.709067e-09	1.934601e+01	3.713004e+02
1.790000e-06	2.775468e-06	5.596311e-09	1.925985e+01	3.705131e+02
1.800000e-06	2.761605e-06	5.513670e-09	1.916365e+01	3.697740e+02
1.810000e-06	2.746349e-06	5.661281e-09	1.905779e+01	3.690846e+02
1.820000e-06	2.730401e-06	5.660264e-09	1.894712e+01	3.684189e+02
1.830000e-06	2.713628e-06	5.487139e-09	1.883073e+01	3.677297e+02
1.840000e-06	2.695572e-06	5.617063e-09	1.870543e+01	3.669622e+02
1.850000e-06	2.676556e-06	5.696952e-09	1.857347e+01	3.660698e+02
1.860000e-06	2.656854e-06	5.493626e-09	1.843675e+01	3.650272e+02
1.870000e-06	2.636143e-06	5.511046e-09	1.829304e+01	3.638366e+02
1.880000e-06	2.614260e-06	5.640428e-09	1.814118e+01	3.625253e+02
1.890000e-06	2.591341e-06	5.450371e-09	1.798214e+01	3.611348e+02
1.900000e-06	2.567431e-06	5.399992e-09	1.781622e+01	3.597071e+02
1.910000e-06	2.542666e-06	5.553858e-09	1.764437e+01	3.582711e+02
1.920000e-06	2.517208e-06	5.470177e-09	1.746771e+01	3.568348e+02
1.930000e-06	2.490880e-06	5.361913e-09	1.728501e+01	3.553843e+02
1.940000e-06	2.463732e-06	5.431327e-09	1.709662e+01	3.538915e+02
1.950000e-06	2.435864e-06	5.375583e-09	1.690323e+01	3.523243e+02
1.960000e-06	2.406976e-06	5.333149e-09	1.670277e+01	3.506591e+02
1.970000e-06	2.376935e-06	5.317479e-09	1.649431e+01	3.488876e+02
1.980000e-06	2.345982e-06	5.253410e-09	1.627951e+01	3.470195e+02
1.990000e-06	2.314295e-06	5.291304e-09	1.605963e+01	3.450773e+02
2.000000e-06	2.281942e-06	5.250175e-09	1.583512e+01	3.430876e+02
2.010000e-06	2.248836e-06	5.165122e-09	1.560539e+01	3.410716e+02
2.020000e-06	2.214899e-06	5.200764e-09	1.536989e+01	3.390379e+02
2.030000e-06	2.180295e-06	5.132647e-09	1.512976e+01	3.369801e+02
2.040000e-06	2.145040e-06	5.059259e-09	1.488511e+01	3.348798e+02
2.050000e-06	2.109069e-06	5.104844e-09	1.463550e+01	3.327138e+02
2.060000e-06	2.072279e-06	5.024842e-09	1.438021e+01	3.304617e+02
2.070000e-06	2.034444e-06	4.972571e-09	1.411765e+01	3.281130e+02
2.080000e-06	1.995639e-06	4.994353e-09	1.384837e+01	3.256692e+02
2.090000e-06	1.956214e-06	4.919587e-09	1.357479e+01	3.231424e+02
2.100000e-06	1.916233e-06	4.878777e-09	1.329735e+01	3.205498e+02
2.110000e-06	1.875563e-06	4.845596e-09	1.301513e+01	3.179069e+02
2.120000e-06	1.834295e-06	4.788967e-09	1.272876e+01	3.152220e+02
2.130000e-06	1.792507e-06	4.772151e-09	1.243877e+01	3.124934e+02
2.140000e-06	1.750163e-06	4.722054e-09	1.214494e+01	3.097099e+02
2.150000e-06	1.707254e-06	4.673696e-09	1.184718e+01	3.068558e+02
2.160000e-06	1.663835e-06	4.640966e-09	1.154588e+01	3.039159e+02
2.170000e-06	1.619942e-06	4.578596e-09	1.124129e+01	3.008808e+02
2.180000e-06	1.575452e-06	4.538056e-09	1.093256e+01	2.977505e+02
2.190000e-06	1.530341e-06	4.490750e-09	1.061953e+01	2.945334e+02
2.200000e-06	1.484692e-06	4.432385e-09	1.030275e+01	2.912430e+02
2.210000e-06	1.438529e-06	4.397225e-09	9.982407e+00	2.878930e+02
2.220000e-06	1.391934e-06	4.344624e-09	9.659071e+00	2.844914e+02
2.230000e-06	1.344916e-06	4.290377e-09	9.332797e+00	2.810374e+02
2.240000e-06	1.297335e-06	4.223419e-09	9.002618e+00	2.775204e+02
2.250000e-06	1.249082e-06	4.166097e-09	8.667777e+00	2.739228e+02
2.260000e-06	1.200287e-06	4.127919e-09	8.329173e+00	2.702255e+02
2.270000e-06	1.151136e-06	4.064716e-09	7.988098e+00	2.664130e+02
2.280000e-06	1.101617e-06	4.004611e-09	7.644468e+00	2.624792e+02
2.290000e-06	1.051681e-06	3.948294e-09	7.297949e+00	2.584288e+02
2.300000e-06	1.001264e-06	3.884789e-09	6.948087e+00	2.542764e+02
2.310000e-06	9.503963e-07	3.821753e-09	6.595102e+00	2.500422e+02
2.320000e-06	8.992715e-07	3.748452e-09	6.240331e+00	2.457453e+02
2.330000e-06	8.479140e-07	3.680040e-09	5.883944e+00	2.413980e+02
2.340000e-06	7.962104e-07	3.619632e-09	5.525157e+00	2.370013e+02
2.350000e-06	7.441609e-07	3.552230e-09	5.163969e+00	2.325451e+02
2.360000e-06	6.917756e-07	3.486730e-09	4.800450e+00	2.280101e+02
2.370000e-06	6.389546e-07	3.413196e-09	4.433909e+00	2.233742e+02
2.380000e-06	5.857066e-07	3.339815e-09	4.064404e+00	2.186187e+02
2.390000e-06	5.321020e-07	3.269701e-09	3.692425e+00	2.137333e+02
2.400000e-06	4.781903e-07	3.190639e-09	3.318315e+00	2.087179e+02
2.410000e-06	4.240192e-07	3.113954e-09	2.942404e+00	2.035812e+02
2.420000e-06	3.696496e-07	3.036741e-09	2.565116e+00	1.983357e+02
2.430000e-06	3.151127e-07	2.961190e-09	2.186667e+00	1.929916e+02
2.440000e-06	2.604189e-07	2.880173e-09	1.807130e+00	1.875515e+02
2.450000e-06	2.056095e-07	2.788716e-09	1.426790e+00	1.820078e+02
2.460000e-06	1.507303e-07	2.701047e-09	1.045966e+00	1.763441e+02
2.470000e-06	9.582467e-08	2.616995e-09	6.649578e-01	1.705394e+02
2.480000e-06	4.088132e-08	2.531137e-09	2.836884e-01	1.645747e+02
2.490000e-06	-1.411069e-08	2.439431e-09	-9.791854e-02	1.584374e+02
2.500000e-06	-6.910862e-08	2.344402e-09	-4.795667e-01	1.521247e+02
2.510000e-06	-1.240842e-07	2.250012e-09	-8.610600e-01	1.456415e+02
2.520000e-06	-1.790381e-07	2.151508e-09	-1.242402e+00	1.389954e+02
2.530000e-06	-2.339538e-07	2.043364e-09	-1.623480e+00	1.321906e+02
2.540000e-06	-2.887947e-07	1.932365e-09	-2.004039e+00	1.252214e+02
2.550000e-06	-3.434741e-07	1.823491e-09	-2.383476e+00	1.180698e+02
2.560000e-06	-3.979139e-07	1.717869e-09	-2.761251e+00	1.107069e+02
2.570000e-06	-4.521012e-07	1.608296e-09	-3.137274e+00	1.030978e+02
2.580000e-06	-5.059932e-07	1.488975e-09	-3.511248e+00	9.520939e+01
2.590000e-06	-5.596328e-07	1.364654e-09	-3.883470e+00	8.701639e+01
2.600000e-06	-6.130169e-07	1.235299e-09	-4.253919e+00	7.850474e+01
2.610000e-06	-6.660335e-07	1.101145e-09	-4.621818e+00	6.967018e+01
2.620000e-06	-7.185763e-07	9.591998e-10	-4.986429e+00	6.051265e+01
2.630000e-06	-7.705868e-07	8.123069e-10	-5.347347e+00	5.102843e+01
2.640000e-06	-8.222430e-07	6.653651e-10	-5.705806e+00	4.120293e+01
2.650000e-06	-8.736709e-07	5.149309e-10	-6.062680e+00	3.100692e+01
2.660000e-06	-9.248849e-07	3.563579e-10	-6.418070e+00	2.039777e+01
2.670000e-06	-9.758082e-07	1.893082e-10	-6.771443e+00	9.325825e+00
2.680000e-06	-1.026347e-06	1.429860e-11	-7.122150e+00	-2.256014e+00
2.690000e-06	-1.076455e-06	-1.693915e-10	-7.469861e+00	-1.438204e+01
2.700000e-06	-1.126142e-06	-3.635592e-10	-7.814659e+00	-2.706560e+01
2.710000e-06	-1.175463e-06	-5.682821e-10	-8.156909e+00	-4.029475e+01
2.720000e-06	-1.224299e-06	-7.787859e-10	-8.495802e+00	-5.403209e+01
2.730000e-06	-1.272462e-06	-9.947532e-10	-8.830021e+00	-6.821752e+01
2.740000e-06	-1.319844e-06	-1.217053e-09	-9.158815e+00	-8.277216e+01
2.750000e-06	-1.366531e-06	-1.443872e-09	-9.482792e+00	-9.760158e+01
2.760000e-06	-1.412750e-06	-1.671546e-09	-9.803522e+00	-1.125977e+02
2.770000e-06	-1.458649e-06	-1.898181e-09	-1.012203e+01	-1.276398e+02
2.780000e-06	-1.504173e-06	-2.126240e-09	-1.043793e+01	-1.425955e+02
2.790000e-06	-1.549214e-06	-2.356237e-09	-1.075049e+01	-1.573247e+02
2.800000e-06	-1.593688e-06	-2.581949e-09	-1.105911e+01	-1.716863e+02
2.810000e-06	-1.637585e-06	-2.796207e-09	-1.136372e+01	-1.855477e+02
2.820000e-06	-1.681023e-06	-2.998915e-09	-1.166515e+01	-1.987958e+02
2.830000e-06	-1.724077e-06	-3.189898e-09	-1.196392e+01	-2.113465e+02
2.840000e-06	-1.766647e-06	-3.369903e-09	-1.225933e+01	-2.231498e+02
2.850000e-06	-1.808596e-06	-3.537681e-09	-1.255042e+01	-2.341895e+02
2.860000e-06	-1.849949e-06	-3.693983e-09	-1.283738e+01	-2.444774e+02
2.870000e-06	-1.890746e-06	-3.842873e-09	-1.312049e+01	-2.540433e+02
2.880000e-06	-1.930897e-06	-3.984173e-09	-1.339911e+01	-2.629249e+02
2.890000e-06	-1.970427e-06	-4.115402e-09	-1.367342e+01	-2.711602e+02
2.900000e-06	-2.009449e-06	-4.235170e-09	-1.394421e+01	-2.787841e+02
2.910000e-06	-2.047762e-06	-4.342408e-09	-1.421007e+01	-2.858296e+02
2.920000e-06	-2.085066e-06	-4.437642e-09	-1.446894e+01	-2.923323e+02
2.930000e-06	-2.121359e-06	-4.527454e-09	-1.472079e+01	-2.983347e+02
2.940000e-06	-2.156886e-06	-4.614663e-09	-1.496731e+01	-3.038881e+02
