# Temperatura_=_22.34
# Concentracion g/m^3_=_13400.0
# C_Vs_to_Am_M_A/Vsm_=_65563218390.804596
# pendiente_HvsI_1/m_=_3716.3
# ordenada_HvsI_A/m_=_1297.0
# frecuencia_Hz_=_300834.54366235825

Tiempo_(s)	Campo_(V.s)	Magnetizacion_(V.s)	Campo_(kA/m)	Magnetizacion_(A/m)
0.000000e+00	-2.851721e-06	-5.621326e-09	-1.980858e+01	-3.670003e+02
1.000000e-08	-2.851301e-06	-5.622938e-09	-1.980567e+01	-3.669135e+02
2.000000e-08	-2.850101e-06	-5.625854e-09	-1.979733e+01	-3.667436e+02
3.000000e-08	-2.847831e-06	-5.621602e-09	-1.978156e+01	-3.665119e+02
4.000000e-08	-2.844355e-06	-5.615309e-09	-1.975742e+01	-3.662400e+02
5.000000e-08	-2.839945e-06	-5.609767e-09	-1.972678e+01	-3.659402e+02
6.000000e-08	-2.834762e-06	-5.600888e-09	-1.969078e+01	-3.656090e+02
7.000000e-08	-2.828668e-06	-5.576972e-09	-1.964846e+01	-3.652277e+02
8.000000e-08	-2.821573e-06	-5.558170e-09	-1.959917e+01	-3.647696e+02
9.000000e-08	-2.813456e-06	-5.629597e-09	-1.954279e+01	-3.642125e+02
1.000000e-07	-2.804092e-06	-5.699747e-09	-1.947774e+01	-3.635506e+02
1.100000e-07	-2.793296e-06	-5.593142e-09	-1.940275e+01	-3.628008e+02
1.200000e-07	-2.781381e-06	-5.376537e-09	-1.931999e+01	-3.620007e+02
1.300000e-07	-2.768697e-06	-5.488549e-09	-1.923188e+01	-3.611973e+02
1.400000e-07	-2.755103e-06	-5.717340e-09	-1.913746e+01	-3.604313e+02
1.500000e-07	-2.740522e-06	-5.472706e-09	-1.903617e+01	-3.597214e+02
1.600000e-07	-2.725010e-06	-5.337610e-09	-1.892843e+01	-3.590554e+02
1.700000e-07	-2.708122e-06	-5.610405e-09	-1.881112e+01	-3.583918e+02
1.800000e-07	-2.689940e-06	-5.581047e-09	-1.868482e+01	-3.576711e+02
1.900000e-07	-2.671134e-06	-5.299866e-09	-1.855419e+01	-3.568342e+02
2.000000e-07	-2.651616e-06	-5.445902e-09	-1.841862e+01	-3.558402e+02
2.100000e-07	-2.631122e-06	-5.524749e-09	-1.827626e+01	-3.546778e+02
2.200000e-07	-2.609855e-06	-5.240264e-09	-1.812854e+01	-3.533669e+02
2.300000e-07	-2.587819e-06	-5.352381e-09	-1.797547e+01	-3.519488e+02
2.400000e-07	-2.564762e-06	-5.530663e-09	-1.781531e+01	-3.504705e+02
2.500000e-07	-2.540777e-06	-5.281275e-09	-1.764871e+01	-3.489678e+02
2.600000e-07	-2.516085e-06	-5.225437e-09	-1.747719e+01	-3.474538e+02
2.700000e-07	-2.490537e-06	-5.336373e-09	-1.729973e+01	-3.459169e+02
2.800000e-07	-2.463909e-06	-5.236096e-09	-1.711477e+01	-3.443288e+02
2.900000e-07	-2.436183e-06	-5.210927e-09	-1.692218e+01	-3.426572e+02
3.000000e-07	-2.407489e-06	-5.202875e-09	-1.672286e+01	-3.408805e+02
3.100000e-07	-2.378009e-06	-5.160569e-09	-1.651809e+01	-3.389964e+02
3.200000e-07	-2.347818e-06	-5.200268e-09	-1.630838e+01	-3.370229e+02
3.300000e-07	-2.316865e-06	-5.139801e-09	-1.609337e+01	-3.349905e+02
3.400000e-07	-2.285094e-06	-5.018939e-09	-1.587269e+01	-3.329304e+02
3.500000e-07	-2.252616e-06	-5.062282e-09	-1.564709e+01	-3.308623e+02
3.600000e-07	-2.219566e-06	-5.032415e-09	-1.541752e+01	-3.287880e+02
3.700000e-07	-2.185766e-06	-4.956027e-09	-1.518273e+01	-3.266914e+02
3.800000e-07	-2.150802e-06	-5.010653e-09	-1.493987e+01	-3.245458e+02
3.900000e-07	-2.114763e-06	-4.930150e-09	-1.468954e+01	-3.223254e+02
4.000000e-07	-2.078093e-06	-4.842645e-09	-1.443482e+01	-3.200140e+02
4.100000e-07	-2.040833e-06	-4.887199e-09	-1.417600e+01	-3.176109e+02
4.200000e-07	-2.002870e-06	-4.842657e-09	-1.391231e+01	-3.151294e+02
4.300000e-07	-1.964163e-06	-4.727121e-09	-1.364344e+01	-3.125890e+02
4.400000e-07	-1.924663e-06	-4.724984e-09	-1.336907e+01	-3.100074e+02
4.500000e-07	-1.884498e-06	-4.714703e-09	-1.309007e+01	-3.073921e+02
4.600000e-07	-1.843950e-06	-4.660108e-09	-1.280842e+01	-3.047379e+02
4.700000e-07	-1.803004e-06	-4.614426e-09	-1.252400e+01	-3.020298e+02
4.800000e-07	-1.761316e-06	-4.557280e-09	-1.223443e+01	-2.992494e+02
4.900000e-07	-1.718596e-06	-4.517654e-09	-1.193769e+01	-2.963826e+02
5.000000e-07	-1.674887e-06	-4.487003e-09	-1.163407e+01	-2.934254e+02
5.100000e-07	-1.630543e-06	-4.438799e-09	-1.132605e+01	-2.903845e+02
5.200000e-07	-1.585826e-06	-4.368052e-09	-1.101544e+01	-2.872736e+02
5.300000e-07	-1.540708e-06	-4.334067e-09	-1.070204e+01	-2.841074e+02
5.400000e-07	-1.495070e-06	-4.298936e-09	-1.038504e+01	-2.808952e+02
5.500000e-07	-1.448849e-06	-4.248942e-09	-1.006397e+01	-2.776366e+02
5.600000e-07	-1.402104e-06	-4.186879e-09	-9.739277e+00	-2.743226e+02
5.700000e-07	-1.354845e-06	-4.121688e-09	-9.411004e+00	-2.709388e+02
5.800000e-07	-1.307038e-06	-4.078373e-09	-9.078930e+00	-2.674712e+02
5.900000e-07	-1.258808e-06	-4.036680e-09	-8.743917e+00	-2.639099e+02
6.000000e-07	-1.210282e-06	-3.973486e-09	-8.406844e+00	-2.602516e+02
6.100000e-07	-1.161425e-06	-3.903906e-09	-8.067473e+00	-2.564983e+02
6.200000e-07	-1.112084e-06	-3.858278e-09	-7.724741e+00	-2.526534e+02
6.300000e-07	-1.062129e-06	-3.801769e-09	-7.377744e+00	-2.487193e+02
6.400000e-07	-1.011532e-06	-3.731368e-09	-7.026290e+00	-2.446948e+02
6.500000e-07	-9.603494e-07	-3.656096e-09	-6.670766e+00	-2.405769e+02
6.600000e-07	-9.086566e-07	-3.591293e-09	-6.311698e+00	-2.363631e+02
6.700000e-07	-8.565771e-07	-3.536535e-09	-5.949944e+00	-2.320548e+02
6.800000e-07	-8.042149e-07	-3.474189e-09	-5.586226e+00	-2.276584e+02
6.900000e-07	-7.515750e-07	-3.402581e-09	-5.220580e+00	-2.231837e+02
7.000000e-07	-6.986476e-07	-3.328734e-09	-4.852936e+00	-2.186402e+02
7.100000e-07	-6.454874e-07	-3.264465e-09	-4.483676e+00	-2.140313e+02
7.200000e-07	-5.921422e-07	-3.190769e-09	-4.113130e+00	-2.093514e+02
7.300000e-07	-5.386233e-07	-3.108955e-09	-3.741377e+00	-2.045849e+02
7.400000e-07	-4.848665e-07	-3.028082e-09	-3.367973e+00	-1.997106e+02
7.500000e-07	-4.308900e-07	-2.955941e-09	-2.993042e+00	-1.947085e+02
7.600000e-07	-3.767972e-07	-2.885343e-09	-2.617303e+00	-1.895660e+02
7.700000e-07	-3.225797e-07	-2.804374e-09	-2.240699e+00	-1.842826e+02
7.800000e-07	-2.682316e-07	-2.715836e-09	-1.863187e+00	-1.788691e+02
7.900000e-07	-2.138067e-07	-2.628136e-09	-1.485141e+00	-1.733418e+02
8.000000e-07	-1.593556e-07	-2.545406e-09	-1.106913e+00	-1.677143e+02
8.100000e-07	-1.048528e-07	-2.453802e-09	-7.283267e-01	-1.619897e+02
8.200000e-07	-5.027651e-08	-2.358022e-09	-3.492300e-01	-1.561570e+02
8.300000e-07	4.310059e-09	-2.265321e-09	2.993847e-02	-1.501927e+02
8.400000e-07	5.887157e-08	-2.176239e-09	4.089328e-01	-1.440682e+02
8.500000e-07	1.134147e-07	-2.082316e-09	7.877993e-01	-1.377602e+02
8.600000e-07	1.679284e-07	-1.981553e-09	1.166462e+00	-1.312580e+02
8.700000e-07	2.223811e-07	-1.877725e-09	1.544700e+00	-1.245664e+02
8.800000e-07	2.767685e-07	-1.773225e-09	1.922485e+00	-1.177019e+02
8.900000e-07	3.310768e-07	-1.667957e-09	2.299721e+00	-1.106826e+02
9.000000e-07	3.852949e-07	-1.552173e-09	2.676330e+00	-1.035166e+02
9.100000e-07	4.393433e-07	-1.432580e-09	3.051760e+00	-9.619321e+01
9.200000e-07	4.931568e-07	-1.316923e-09	3.425559e+00	-8.868080e+01
9.300000e-07	5.467940e-07	-1.206189e-09	3.798133e+00	-8.093296e+01
9.400000e-07	6.002397e-07	-1.086870e-09	4.169376e+00	-7.290049e+01
9.500000e-07	6.534403e-07	-9.560713e-10	4.538917e+00	-6.454507e+01
9.600000e-07	7.063628e-07	-8.208246e-10	4.906527e+00	-5.584901e+01
9.700000e-07	7.590383e-07	-6.820209e-10	5.272421e+00	-4.681696e+01
9.800000e-07	8.114755e-07	-5.388546e-10	5.636659e+00	-3.746852e+01
9.900000e-07	8.636765e-07	-3.874298e-10	5.999258e+00	-2.782437e+01
1.000000e-06	9.155249e-07	-2.325553e-10	6.359406e+00	-1.789103e+01
1.010000e-06	9.668697e-07	-7.449739e-11	6.716057e+00	-7.650623e+00
1.020000e-06	1.017624e-06	8.521823e-11	7.068604e+00	2.940233e+00
1.030000e-06	1.067692e-06	2.503230e-10	7.416385e+00	1.394091e+01
1.040000e-06	1.117129e-06	4.257083e-10	7.759784e+00	2.540960e+01
1.050000e-06	1.166130e-06	6.120675e-10	8.100154e+00	3.738394e+01
1.060000e-06	1.214842e-06	8.059578e-10	8.438517e+00	4.986585e+01
1.070000e-06	1.263274e-06	1.004626e-09	8.774935e+00	6.281545e+01
1.080000e-06	1.311354e-06	1.208635e-09	9.108908e+00	7.615534e+01
1.090000e-06	1.358908e-06	1.415544e-09	9.439224e+00	8.978310e+01
1.100000e-06	1.405874e-06	1.625225e-09	9.765464e+00	1.035870e+02
1.110000e-06	1.452396e-06	1.834814e-09	1.008862e+01	1.174593e+02
1.120000e-06	1.498474e-06	2.044674e-09	1.040868e+01	1.313029e+02
1.130000e-06	1.543990e-06	2.251822e-09	1.072484e+01	1.450303e+02
1.140000e-06	1.589000e-06	2.455563e-09	1.103749e+01	1.585579e+02
1.150000e-06	1.633667e-06	2.656977e-09	1.134775e+01	1.717987e+02
1.160000e-06	1.677997e-06	2.852644e-09	1.165568e+01	1.846590e+02
1.170000e-06	1.721773e-06	3.038970e-09	1.195976e+01	1.970416e+02
1.180000e-06	1.764671e-06	3.215767e-09	1.225773e+01	2.088550e+02
1.190000e-06	1.806532e-06	3.384395e-09	1.254851e+01	2.200256e+02
1.200000e-06	1.847601e-06	3.545639e-09	1.283378e+01	2.305088e+02
1.210000e-06	1.888164e-06	3.699525e-09	1.311554e+01	2.402932e+02
1.220000e-06	1.928272e-06	3.837771e-09	1.339413e+01	2.493983e+02
1.230000e-06	1.967721e-06	3.959834e-09	1.366816e+01	2.578647e+02
1.240000e-06	2.006464e-06	4.074106e-09	1.393727e+01	2.657408e+02
1.250000e-06	2.044519e-06	4.185214e-09	1.420161e+01	2.730721e+02
1.260000e-06	2.081816e-06	4.289966e-09	1.446068e+01	2.798947e+02
1.270000e-06	2.118532e-06	4.384277e-09	1.471571e+01	2.862361e+02
1.280000e-06	2.154729e-06	4.469709e-09	1.496715e+01	2.921210e+02
1.290000e-06	2.190113e-06	4.551289e-09	1.521293e+01	2.975791e+02
1.300000e-06	2.224399e-06	4.629979e-09	1.545109e+01	3.026497e+02
1.310000e-06	2.257700e-06	4.699923e-09	1.568240e+01	3.073813e+02
1.320000e-06	2.290297e-06	4.763040e-09	1.590883e+01	3.118254e+02
1.330000e-06	2.322226e-06	4.824874e-09	1.613061e+01	3.160267e+02
1.340000e-06	2.353383e-06	4.886066e-09	1.634704e+01	3.200142e+02
1.350000e-06	2.383757e-06	4.941429e-09	1.655802e+01	3.237973e+02
1.360000e-06	2.413316e-06	4.987878e-09	1.676334e+01	3.273682e+02
1.370000e-06	2.442151e-06	5.033090e-09	1.696363e+01	3.307104e+02
1.380000e-06	2.470343e-06	5.082145e-09	1.715946e+01	3.338109e+02
1.390000e-06	2.497529e-06	5.129239e-09	1.734830e+01	3.366698e+02
1.400000e-06	2.523408e-06	5.168134e-09	1.752806e+01	3.393053e+02
1.410000e-06	2.548228e-06	5.200154e-09	1.770046e+01	3.417503e+02
1.420000e-06	2.572226e-06	5.230573e-09	1.786716e+01	3.440441e+02
1.430000e-06	2.595369e-06	5.262061e-09	1.802792e+01	3.462206e+02
1.440000e-06	2.617657e-06	5.291450e-09	1.818273e+01	3.482992e+02
1.450000e-06	2.639089e-06	5.317994e-09	1.833161e+01	3.502817e+02
1.460000e-06	2.659789e-06	5.344285e-09	1.847539e+01	3.521553e+02
1.470000e-06	2.679745e-06	5.371984e-09	1.861401e+01	3.539015e+02
1.480000e-06	2.698678e-06	5.400225e-09	1.874552e+01	3.555068e+02
1.490000e-06	2.716597e-06	5.424031e-09	1.886999e+01	3.569700e+02
1.500000e-06	2.733626e-06	5.441698e-09	1.898828e+01	3.583043e+02
1.510000e-06	2.749541e-06	5.455900e-09	1.909882e+01	3.595325e+02
1.520000e-06	2.764368e-06	5.471183e-09	1.920181e+01	3.606786e+02
1.530000e-06	2.778228e-06	5.487280e-09	1.929808e+01	3.617589e+02
1.540000e-06	2.791002e-06	5.501236e-09	1.938682e+01	3.627765e+02
1.550000e-06	2.802602e-06	5.514670e-09	1.946740e+01	3.637216e+02
1.560000e-06	2.812883e-06	5.530247e-09	1.953881e+01	3.645776e+02
1.570000e-06	2.822050e-06	5.546476e-09	1.960248e+01	3.653294e+02
1.580000e-06	2.830350e-06	5.558130e-09	1.966014e+01	3.659707e+02
1.590000e-06	2.837731e-06	5.564211e-09	1.971141e+01	3.665077e+02
1.600000e-06	2.844128e-06	5.569171e-09	1.975584e+01	3.669560e+02
1.610000e-06	2.849561e-06	5.574341e-09	1.979358e+01	3.673341e+02
1.620000e-06	2.854190e-06	5.577679e-09	1.982574e+01	3.676550e+02
1.630000e-06	2.857868e-06	5.581171e-09	1.985128e+01	3.679208e+02
1.640000e-06	2.860237e-06	5.587145e-09	1.986774e+01	3.681225e+02
1.650000e-06	2.861448e-06	5.593315e-09	1.987615e+01	3.682446e+02
1.660000e-06	2.861786e-06	5.596315e-09	1.987850e+01	3.682740e+02
1.670000e-06	2.861223e-06	5.594973e-09	1.987459e+01	3.682070e+02
1.680000e-06	2.859760e-06	5.588298e-09	1.986442e+01	3.680532e+02
1.690000e-06	2.857402e-06	5.583426e-09	1.984804e+01	3.678327e+02
1.700000e-06	2.854279e-06	5.580395e-09	1.982635e+01	3.675679e+02
1.710000e-06	2.850455e-06	5.574106e-09	1.979979e+01	3.672737e+02
1.720000e-06	2.845551e-06	5.572627e-09	1.976573e+01	3.669503e+02
1.730000e-06	2.839397e-06	5.594245e-09	1.972298e+01	3.665818e+02
1.740000e-06	2.832279e-06	5.592558e-09	1.967353e+01	3.661423e+02
1.750000e-06	2.824255e-06	5.469921e-09	1.961780e+01	3.656076e+02
1.760000e-06	2.814781e-06	5.406332e-09	1.955199e+01	3.649675e+02
1.770000e-06	2.803686e-06	5.588222e-09	1.947492e+01	3.642339e+02
1.780000e-06	2.791878e-06	5.669916e-09	1.939291e+01	3.634406e+02
1.790000e-06	2.780076e-06	5.465810e-09	1.931092e+01	3.626339e+02
1.800000e-06	2.767326e-06	5.322659e-09	1.922236e+01	3.618574e+02
1.810000e-06	2.752754e-06	5.592735e-09	1.912114e+01	3.611353e+02
1.820000e-06	2.737198e-06	5.560850e-09	1.901309e+01	3.604624e+02
1.830000e-06	2.721145e-06	5.256305e-09	1.890158e+01	3.598028e+02
1.840000e-06	2.703801e-06	5.478655e-09	1.878111e+01	3.590996e+02
1.850000e-06	2.685182e-06	5.641660e-09	1.865178e+01	3.582918e+02
1.860000e-06	2.666025e-06	5.320529e-09	1.851871e+01	3.573335e+02
1.870000e-06	2.646056e-06	5.349977e-09	1.838000e+01	3.562064e+02
1.880000e-06	2.624787e-06	5.606373e-09	1.823226e+01	3.549243e+02
1.890000e-06	2.602454e-06	5.303200e-09	1.807713e+01	3.535251e+02
1.900000e-06	2.579157e-06	5.180355e-09	1.791531e+01	3.520560e+02
1.910000e-06	2.554878e-06	5.464288e-09	1.774665e+01	3.505565e+02
1.920000e-06	2.529912e-06	5.363418e-09	1.757324e+01	3.490450e+02
1.930000e-06	2.504147e-06	5.215807e-09	1.739427e+01	3.475150e+02
1.940000e-06	2.477455e-06	5.328589e-09	1.720887e+01	3.459406e+02
1.950000e-06	2.450164e-06	5.224061e-09	1.701929e+01	3.442891e+02
1.960000e-06	2.422042e-06	5.207537e-09	1.682395e+01	3.425358e+02
1.970000e-06	2.392644e-06	5.212761e-09	1.661975e+01	3.406738e+02
1.980000e-06	2.362221e-06	5.057151e-09	1.640843e+01	3.387171e+02
1.990000e-06	2.331049e-06	5.154196e-09	1.619190e+01	3.366945e+02
2.000000e-06	2.299208e-06	5.177409e-09	1.597072e+01	3.346380e+02
2.010000e-06	2.266686e-06	4.988365e-09	1.574482e+01	3.325708e+02
2.020000e-06	2.233199e-06	5.059099e-09	1.551221e+01	3.304985e+02
2.030000e-06	2.198908e-06	5.032236e-09	1.527402e+01	3.284086e+02
2.040000e-06	2.164123e-06	4.873539e-09	1.503240e+01	3.262759e+02
2.050000e-06	2.128668e-06	4.975303e-09	1.478612e+01	3.240732e+02
2.060000e-06	2.092456e-06	4.921957e-09	1.453459e+01	3.217818e+02
2.070000e-06	2.055282e-06	4.789151e-09	1.427637e+01	3.193977e+02
2.080000e-06	2.016980e-06	4.850103e-09	1.401032e+01	3.169313e+02
2.090000e-06	1.977935e-06	4.807571e-09	1.373911e+01	3.144018e+02
2.100000e-06	1.938383e-06	4.727021e-09	1.346437e+01	3.118279e+02
2.110000e-06	1.898182e-06	4.705105e-09	1.318512e+01	3.092197e+02
2.120000e-06	1.857309e-06	4.643821e-09	1.290122e+01	3.065748e+02
2.130000e-06	1.815880e-06	4.627907e-09	1.261344e+01	3.038798e+02
2.140000e-06	1.773872e-06	4.594476e-09	1.232165e+01	3.011162e+02
2.150000e-06	1.731250e-06	4.523162e-09	1.202559e+01	2.982686e+02
2.160000e-06	1.688175e-06	4.496282e-09	1.172638e+01	2.953305e+02
2.170000e-06	1.644695e-06	4.452706e-09	1.142436e+01	2.923064e+02
2.180000e-06	1.600611e-06	4.407665e-09	1.111814e+01	2.892092e+02
2.190000e-06	1.555879e-06	4.349874e-09	1.080743e+01	2.860538e+02
2.200000e-06	1.510562e-06	4.292029e-09	1.049265e+01	2.828510e+02
2.210000e-06	1.464724e-06	4.260499e-09	1.017425e+01	2.796027e+02
2.220000e-06	1.418448e-06	4.209114e-09	9.852800e+00	2.763016e+02
2.230000e-06	1.371690e-06	4.166242e-09	9.528012e+00	2.729341e+02
2.240000e-06	1.324452e-06	4.102672e-09	9.199889e+00	2.694853e+02
2.250000e-06	1.276686e-06	4.037282e-09	8.868096e+00	2.659445e+02
2.260000e-06	1.228326e-06	4.006597e-09	8.532177e+00	2.623070e+02
2.270000e-06	1.179465e-06	3.944038e-09	8.192781e+00	2.585737e+02
2.280000e-06	1.130215e-06	3.871595e-09	7.850682e+00	2.547481e+02
2.290000e-06	1.080524e-06	3.823452e-09	7.505519e+00	2.508329e+02
2.300000e-06	1.030348e-06	3.768052e-09	7.156986e+00	2.468280e+02
2.310000e-06	9.797600e-07	3.712985e-09	6.805595e+00	2.427303e+02
2.320000e-06	9.288432e-07	3.644642e-09	6.451917e+00	2.385371e+02
2.330000e-06	8.777015e-07	3.568945e-09	6.096677e+00	2.342486e+02
2.340000e-06	8.263017e-07	3.508523e-09	5.739645e+00	2.298702e+02
2.350000e-06	7.745375e-07	3.440458e-09	5.380081e+00	2.254114e+02
2.360000e-06	7.223813e-07	3.373743e-09	5.017795e+00	2.208819e+02
2.370000e-06	6.697759e-07	3.301476e-09	4.652388e+00	2.162872e+02
2.380000e-06	6.167067e-07	3.232396e-09	4.283759e+00	2.116234e+02
2.390000e-06	5.633127e-07	3.169715e-09	3.912874e+00	2.068770e+02
2.400000e-06	5.095277e-07	3.091974e-09	3.539274e+00	2.020276e+02
2.410000e-06	4.554309e-07	3.012374e-09	3.163507e+00	1.970543e+02
2.420000e-06	4.012205e-07	2.932897e-09	2.786952e+00	1.919422e+02
2.430000e-06	3.467953e-07	2.855902e-09	2.408904e+00	1.866884e+02
2.440000e-06	2.921666e-07	2.781051e-09	2.029443e+00	1.813014e+02
2.450000e-06	2.374307e-07	2.697297e-09	1.649237e+00	1.757970e+02
2.460000e-06	1.826034e-07	2.610557e-09	1.268397e+00	1.701902e+02
2.470000e-06	1.277602e-07	2.525740e-09	8.874464e-01	1.644868e+02
2.480000e-06	7.291207e-08	2.439467e-09	5.064608e-01	1.586789e+02
2.490000e-06	1.803000e-08	2.350674e-09	1.252397e-01	1.527450e+02
2.500000e-06	-3.685822e-08	2.256016e-09	-2.560240e-01	1.466571e+02
2.510000e-06	-9.174962e-08	2.160179e-09	-6.373099e-01	1.403898e+02
2.520000e-06	-1.466133e-07	2.066597e-09	-1.018403e+00	1.339292e+02
2.530000e-06	-2.014270e-07	1.965831e-09	-1.399150e+00	1.272770e+02
2.540000e-06	-2.561978e-07	1.859217e-09	-1.779598e+00	1.204479e+02
2.550000e-06	-3.108409e-07	1.750316e-09	-2.159159e+00	1.134605e+02
2.560000e-06	-3.653275e-07	1.643868e-09	-2.537633e+00	1.063260e+02
2.570000e-06	-4.196791e-07	1.535940e-09	-2.915169e+00	9.903828e+01
2.580000e-06	-4.738036e-07	1.421218e-09	-3.291128e+00	9.156987e+01
2.590000e-06	-5.276711e-07	1.305351e-09	-3.665301e+00	8.387667e+01
2.600000e-06	-5.812511e-07	1.186169e-09	-4.037478e+00	7.590891e+01
2.610000e-06	-6.345219e-07	1.061150e-09	-4.407507e+00	6.762491e+01
2.620000e-06	-6.873829e-07	9.285218e-10	-4.774689e+00	5.900210e+01
2.630000e-06	-7.397172e-07	7.906191e-10	-5.138213e+00	5.004065e+01
2.640000e-06	-7.916079e-07	6.487488e-10	-5.498656e+00	4.075800e+01
2.650000e-06	-8.432064e-07	5.052446e-10	-5.857068e+00	3.117590e+01
2.660000e-06	-8.945720e-07	3.578402e-10	-6.213864e+00	2.130506e+01
2.670000e-06	-9.456490e-07	2.051803e-10	-6.568654e+00	1.113324e+01
2.680000e-06	-9.963593e-07	4.635503e-11	-6.920897e+00	6.220921e-01
2.690000e-06	-1.046711e-06	-1.197678e-10	-7.270647e+00	-1.028560e+01
2.700000e-06	-1.096684e-06	-2.910752e-10	-7.617774e+00	-2.164992e+01
2.710000e-06	-1.146181e-06	-4.722447e-10	-7.961588e+00	-3.351442e+01
2.720000e-06	-1.195241e-06	-6.645836e-10	-8.302365e+00	-4.588957e+01
2.730000e-06	-1.243794e-06	-8.637127e-10	-8.639621e+00	-5.874440e+01
2.740000e-06	-1.291570e-06	-1.063074e-09	-8.971483e+00	-7.200873e+01
2.750000e-06	-1.338568e-06	-1.266052e-09	-9.297941e+00	-8.558419e+01
2.760000e-06	-1.384934e-06	-1.476864e-09	-9.620006e+00	-9.935980e+01
2.770000e-06	-1.430877e-06	-1.688739e-09	-9.939137e+00	-1.132261e+02
2.780000e-06	-1.476520e-06	-1.898296e-09	-1.025618e+01	-1.270835e+02
2.790000e-06	-1.521779e-06	-2.109325e-09	-1.057056e+01	-1.408429e+02
2.800000e-06	-1.566559e-06	-2.321578e-09	-1.088161e+01	-1.544205e+02
2.810000e-06	-1.610765e-06	-2.529517e-09	-1.118868e+01	-1.677305e+02
2.820000e-06	-1.654423e-06	-2.730445e-09	-1.149193e+01	-1.806806e+02
2.830000e-06	-1.697679e-06	-2.921724e-09	-1.179239e+01	-1.931737e+02
2.840000e-06	-1.740596e-06	-3.102703e-09	-1.209050e+01	-2.051161e+02
2.850000e-06	-1.782960e-06	-3.273515e-09	-1.238477e+01	-2.164294e+02
2.860000e-06	-1.824668e-06	-3.433490e-09	-1.267448e+01	-2.270621e+02
2.870000e-06	-1.865793e-06	-3.583576e-09	-1.296015e+01	-2.369956e+02
2.880000e-06	-1.906280e-06	-3.727479e-09	-1.324137e+01	-2.462434e+02
2.890000e-06	-1.946077e-06	-3.865136e-09	-1.351781e+01	-2.548427e+02
2.900000e-06	-1.985360e-06	-3.993263e-09	-1.379068e+01	-2.628413e+02
2.910000e-06	-2.024139e-06	-4.111164e-09	-1.406005e+01	-2.702861e+02
2.920000e-06	-2.062025e-06	-4.217576e-09	-1.432321e+01	-2.772152e+02
2.930000e-06	-2.098809e-06	-4.313128e-09	-1.457872e+01	-2.836577e+02
2.940000e-06	-2.134674e-06	-4.400603e-09	-1.482784e+01	-2.896383e+02
