# Temperatura_=_22.99
# Concentracion g/m^3_=_13400.0
# C_Vs_to_Am_M_A/Vsm_=_65563218390.804596
# pendiente_HvsI_1/m_=_3716.3
# ordenada_HvsI_A/m_=_1297.0
# frecuencia_Hz_=_300838.499509248

Tiempo_(s)	Campo_(V.s)	Magnetizacion_(V.s)	Campo_(kA/m)	Magnetizacion_(A/m)
0.000000e+00	-2.850038e-06	-5.636814e-09	-1.980112e+01	-3.676514e+02
1.000000e-08	-2.848968e-06	-5.640792e-09	-1.979368e+01	-3.675691e+02
2.000000e-08	-2.846937e-06	-5.639953e-09	-1.977957e+01	-3.674241e+02
3.000000e-08	-2.843624e-06	-5.634376e-09	-1.975656e+01	-3.672119e+02
4.000000e-08	-2.839273e-06	-5.626732e-09	-1.972633e+01	-3.669253e+02
5.000000e-08	-2.834164e-06	-5.615490e-09	-1.969083e+01	-3.665576e+02
6.000000e-08	-2.828218e-06	-5.590765e-09	-1.964952e+01	-3.661059e+02
7.000000e-08	-2.821277e-06	-5.572494e-09	-1.960130e+01	-3.655748e+02
8.000000e-08	-2.813281e-06	-5.644619e-09	-1.954574e+01	-3.649779e+02
9.000000e-08	-2.804088e-06	-5.716465e-09	-1.948187e+01	-3.643361e+02
1.000000e-07	-2.793433e-06	-5.603998e-09	-1.940785e+01	-3.636738e+02
1.100000e-07	-2.781622e-06	-5.399864e-09	-1.932579e+01	-3.630126e+02
1.200000e-07	-2.769064e-06	-5.506147e-09	-1.923854e+01	-3.623653e+02
1.300000e-07	-2.755538e-06	-5.741370e-09	-1.914456e+01	-3.617313e+02
1.400000e-07	-2.741017e-06	-5.488194e-09	-1.904368e+01	-3.610959e+02
1.500000e-07	-2.725668e-06	-5.361625e-09	-1.893704e+01	-3.604325e+02
1.600000e-07	-2.708924e-06	-5.642722e-09	-1.882071e+01	-3.597094e+02
1.700000e-07	-2.690833e-06	-5.586391e-09	-1.869502e+01	-3.588963e+02
1.800000e-07	-2.672137e-06	-5.320621e-09	-1.856512e+01	-3.579708e+02
1.900000e-07	-2.652778e-06	-5.465982e-09	-1.843062e+01	-3.569230e+02
2.000000e-07	-2.632436e-06	-5.547883e-09	-1.828929e+01	-3.557555e+02
2.100000e-07	-2.611267e-06	-5.265560e-09	-1.814222e+01	-3.544814e+02
2.200000e-07	-2.589342e-06	-5.371881e-09	-1.798989e+01	-3.531196e+02
2.300000e-07	-2.566396e-06	-5.559800e-09	-1.783047e+01	-3.516901e+02
2.400000e-07	-2.542464e-06	-5.316156e-09	-1.766420e+01	-3.502098e+02
2.500000e-07	-2.517807e-06	-5.234447e-09	-1.749289e+01	-3.486895e+02
2.600000e-07	-2.492366e-06	-5.355995e-09	-1.731613e+01	-3.471338e+02
2.700000e-07	-2.465897e-06	-5.268438e-09	-1.713224e+01	-3.455408e+02
2.800000e-07	-2.438311e-06	-5.235493e-09	-1.694058e+01	-3.439043e+02
2.900000e-07	-2.409742e-06	-5.222560e-09	-1.674209e+01	-3.422150e+02
3.000000e-07	-2.380334e-06	-5.194606e-09	-1.653777e+01	-3.404629e+02
3.100000e-07	-2.350232e-06	-5.229059e-09	-1.632863e+01	-3.386395e+02
3.200000e-07	-2.319454e-06	-5.149295e-09	-1.611480e+01	-3.367395e+02
3.300000e-07	-2.287792e-06	-5.063831e-09	-1.589482e+01	-3.347636e+02
3.400000e-07	-2.255397e-06	-5.098277e-09	-1.566975e+01	-3.327183e+02
3.500000e-07	-2.222469e-06	-5.046053e-09	-1.544098e+01	-3.306160e+02
3.600000e-07	-2.188759e-06	-4.992578e-09	-1.520677e+01	-3.284716e+02
3.700000e-07	-2.153860e-06	-5.053401e-09	-1.496431e+01	-3.262983e+02
3.800000e-07	-2.117902e-06	-4.944194e-09	-1.471448e+01	-3.241030e+02
3.900000e-07	-2.081319e-06	-4.869249e-09	-1.446031e+01	-3.218826e+02
4.000000e-07	-2.044121e-06	-4.928570e-09	-1.420188e+01	-3.196233e+02
4.100000e-07	-2.006211e-06	-4.871939e-09	-1.393849e+01	-3.173037e+02
4.200000e-07	-1.967600e-06	-4.768755e-09	-1.367023e+01	-3.149008e+02
4.300000e-07	-1.928187e-06	-4.772357e-09	-1.339640e+01	-3.123978e+02
4.400000e-07	-1.888054e-06	-4.755293e-09	-1.311757e+01	-3.097896e+02
4.500000e-07	-1.847525e-06	-4.698950e-09	-1.283599e+01	-3.070862e+02
4.600000e-07	-1.806670e-06	-4.655674e-09	-1.255214e+01	-3.043091e+02
4.700000e-07	-1.765144e-06	-4.591444e-09	-1.226363e+01	-3.014848e+02
4.800000e-07	-1.722579e-06	-4.555261e-09	-1.196791e+01	-2.986348e+02
4.900000e-07	-1.679028e-06	-4.525781e-09	-1.166533e+01	-2.957675e+02
5.000000e-07	-1.634768e-06	-4.483067e-09	-1.135782e+01	-2.928740e+02
5.100000e-07	-1.590048e-06	-4.421721e-09	-1.104712e+01	-2.899302e+02
5.200000e-07	-1.544967e-06	-4.380619e-09	-1.073392e+01	-2.869049e+02
5.300000e-07	-1.499393e-06	-4.340017e-09	-1.041729e+01	-2.837710e+02
5.400000e-07	-1.453237e-06	-4.293322e-09	-1.009661e+01	-2.805150e+02
5.500000e-07	-1.406559e-06	-4.233938e-09	-9.772306e+00	-2.771419e+02
5.600000e-07	-1.359343e-06	-4.162149e-09	-9.444266e+00	-2.736734e+02
5.700000e-07	-1.311617e-06	-4.122931e-09	-9.112677e+00	-2.701385e+02
5.800000e-07	-1.263448e-06	-4.082291e-09	-8.778021e+00	-2.665615e+02
5.900000e-07	-1.214909e-06	-4.018198e-09	-8.440788e+00	-2.629509e+02
6.000000e-07	-1.166063e-06	-3.950399e-09	-8.101420e+00	-2.592941e+02
6.100000e-07	-1.116824e-06	-3.902701e-09	-7.759323e+00	-2.555608e+02
6.200000e-07	-1.066990e-06	-3.846441e-09	-7.413094e+00	-2.517127e+02
6.300000e-07	-1.016533e-06	-3.778834e-09	-7.062532e+00	-2.477183e+02
6.400000e-07	-9.655334e-07	-3.706591e-09	-6.708206e+00	-2.435656e+02
6.500000e-07	-9.139918e-07	-3.639215e-09	-6.350112e+00	-2.392675e+02
6.600000e-07	-8.620023e-07	-3.583200e-09	-5.988906e+00	-2.348593e+02
6.700000e-07	-8.096681e-07	-3.517096e-09	-5.625305e+00	-2.303861e+02
6.800000e-07	-7.570890e-07	-3.442315e-09	-5.260004e+00	-2.258865e+02
6.900000e-07	-7.042874e-07	-3.365775e-09	-4.893155e+00	-2.213785e+02
7.000000e-07	-6.512564e-07	-3.301472e-09	-4.524714e+00	-2.168513e+02
7.100000e-07	-5.979861e-07	-3.234896e-09	-4.154609e+00	-2.122680e+02
7.200000e-07	-5.444646e-07	-3.160519e-09	-3.782760e+00	-2.075785e+02
7.300000e-07	-4.907031e-07	-3.081725e-09	-3.409242e+00	-2.027361e+02
7.400000e-07	-4.367472e-07	-3.005414e-09	-3.034374e+00	-1.977140e+02
7.500000e-07	-3.826335e-07	-2.932129e-09	-2.658411e+00	-1.925133e+02
7.600000e-07	-3.283995e-07	-2.847219e-09	-2.281611e+00	-1.871620e+02
7.700000e-07	-2.740887e-07	-2.755388e-09	-1.904278e+00	-1.817018e+02
7.800000e-07	-2.197103e-07	-2.668666e-09	-1.526474e+00	-1.761716e+02
7.900000e-07	-1.652533e-07	-2.594647e-09	-1.148125e+00	-1.705907e+02
8.000000e-07	-1.107367e-07	-2.512855e-09	-7.693620e-01	-1.649498e+02
8.100000e-07	-5.621025e-08	-2.419499e-09	-3.905302e-01	-1.592132e+02
8.200000e-07	-1.687994e-09	-2.323563e-09	-1.172762e-02	-1.533300e+02
8.300000e-07	5.282791e-08	-2.230525e-09	3.670308e-01	-1.472518e+02
8.400000e-07	1.073926e-07	-2.135321e-09	7.461279e-01	-1.409486e+02
8.500000e-07	1.619126e-07	-2.032216e-09	1.124915e+00	-1.344179e+02
8.600000e-07	2.163029e-07	-1.927630e-09	1.502801e+00	-1.276821e+02
8.700000e-07	2.706352e-07	-1.822540e-09	1.880284e+00	-1.207770e+02
8.800000e-07	3.249342e-07	-1.718272e-09	2.257535e+00	-1.137346e+02
8.900000e-07	3.791447e-07	-1.605159e-09	2.634172e+00	-1.065666e+02
9.000000e-07	4.331811e-07	-1.487094e-09	3.009598e+00	-9.925669e+01
9.100000e-07	4.870307e-07	-1.369075e-09	3.383728e+00	-9.176225e+01
9.200000e-07	5.407075e-07	-1.253103e-09	3.756656e+00	-8.402647e+01
9.300000e-07	5.941739e-07	-1.132474e-09	4.128123e+00	-7.599533e+01
9.400000e-07	6.473773e-07	-1.002662e-09	4.497763e+00	-6.763300e+01
9.500000e-07	7.003622e-07	-8.675197e-10	4.865885e+00	-5.892971e+01
9.600000e-07	7.531164e-07	-7.294632e-10	5.232403e+00	-4.989897e+01
9.700000e-07	8.055711e-07	-5.887338e-10	5.596841e+00	-4.056539e+01
9.800000e-07	8.577771e-07	-4.374008e-10	5.959551e+00	-3.094759e+01
9.900000e-07	9.096563e-07	-2.812497e-10	6.319991e+00	-2.104315e+01
1.000000e-06	9.610155e-07	-1.245416e-10	6.676817e+00	-1.082137e+01
1.010000e-06	1.011721e-06	3.368548e-11	7.029103e+00	-2.269840e-01
1.020000e-06	1.061741e-06	2.020177e-10	7.376625e+00	1.080606e+01
1.030000e-06	1.111178e-06	3.816446e-10	7.720098e+00	2.233534e+01
1.040000e-06	1.160198e-06	5.674425e-10	8.060671e+00	3.439159e+01
1.050000e-06	1.208930e-06	7.586873e-10	8.399245e+00	4.696701e+01
1.060000e-06	1.257409e-06	9.559450e-10	8.736059e+00	6.001353e+01
1.070000e-06	1.305543e-06	1.163989e-09	9.070480e+00	7.345064e+01
1.080000e-06	1.353187e-06	1.374329e-09	9.401493e+00	8.717898e+01
1.090000e-06	1.400302e-06	1.582000e-09	9.728835e+00	1.010945e+02
1.100000e-06	1.446888e-06	1.790605e-09	1.005250e+01	1.150981e+02
1.110000e-06	1.492917e-06	2.005264e-09	1.037229e+01	1.290985e+02
1.120000e-06	1.538422e-06	2.218719e-09	1.068845e+01	1.430085e+02
1.130000e-06	1.583504e-06	2.424272e-09	1.100166e+01	1.567385e+02
1.140000e-06	1.628274e-06	2.624461e-09	1.131271e+01	1.701905e+02
1.150000e-06	1.672688e-06	2.821685e-09	1.162128e+01	1.832584e+02
1.160000e-06	1.716538e-06	3.013816e-09	1.192594e+01	1.958336e+02
1.170000e-06	1.759528e-06	3.194393e-09	1.222462e+01	2.078168e+02
1.180000e-06	1.801519e-06	3.363889e-09	1.251636e+01	2.191309e+02
1.190000e-06	1.842710e-06	3.524481e-09	1.280254e+01	2.297308e+02
1.200000e-06	1.883344e-06	3.678359e-09	1.308485e+01	2.396079e+02
1.210000e-06	1.923450e-06	3.817813e-09	1.336349e+01	2.487856e+02
1.220000e-06	1.962909e-06	3.941314e-09	1.363764e+01	2.573096e+02
1.230000e-06	2.001695e-06	4.055419e-09	1.390711e+01	2.652347e+02
1.240000e-06	2.039759e-06	4.165128e-09	1.417157e+01	2.726135e+02
1.250000e-06	2.077074e-06	4.269168e-09	1.443082e+01	2.794889e+02
1.260000e-06	2.113847e-06	4.364747e-09	1.468630e+01	2.858937e+02
1.270000e-06	2.150122e-06	4.452996e-09	1.493834e+01	2.918541e+02
1.280000e-06	2.185591e-06	4.535821e-09	1.518476e+01	2.973955e+02
1.290000e-06	2.219970e-06	4.616043e-09	1.542361e+01	3.025484e+02
1.300000e-06	2.253384e-06	4.688632e-09	1.565576e+01	3.073492e+02
1.310000e-06	2.286061e-06	4.753644e-09	1.588279e+01	3.118384e+02
1.320000e-06	2.318015e-06	4.813976e-09	1.610480e+01	3.160550e+02
1.330000e-06	2.349215e-06	4.872292e-09	1.632157e+01	3.200308e+02
1.340000e-06	2.379645e-06	4.928740e-09	1.653298e+01	3.237860e+02
1.350000e-06	2.409246e-06	4.977973e-09	1.673865e+01	3.273290e+02
1.360000e-06	2.438151e-06	5.022224e-09	1.693946e+01	3.306599e+02
1.370000e-06	2.466419e-06	5.069419e-09	1.713586e+01	3.337761e+02
1.380000e-06	2.493669e-06	5.118754e-09	1.732519e+01	3.366786e+02
1.390000e-06	2.519685e-06	5.159305e-09	1.750593e+01	3.393761e+02
1.400000e-06	2.544701e-06	5.188852e-09	1.767974e+01	3.418855e+02
1.410000e-06	2.568854e-06	5.216052e-09	1.784754e+01	3.442299e+02
1.420000e-06	2.592095e-06	5.247840e-09	1.800902e+01	3.464336e+02
1.430000e-06	2.614446e-06	5.281272e-09	1.816430e+01	3.485174e+02
1.440000e-06	2.635945e-06	5.309774e-09	1.831367e+01	3.504951e+02
1.450000e-06	2.656722e-06	5.335133e-09	1.845803e+01	3.523722e+02
1.460000e-06	2.676728e-06	5.363505e-09	1.859702e+01	3.541481e+02
1.470000e-06	2.695786e-06	5.392965e-09	1.872943e+01	3.558182e+02
1.480000e-06	2.713865e-06	5.415825e-09	1.885503e+01	3.573780e+02
1.490000e-06	2.731000e-06	5.432743e-09	1.897408e+01	3.588246e+02
1.500000e-06	2.747039e-06	5.449683e-09	1.908552e+01	3.601583e+02
1.510000e-06	2.761969e-06	5.469503e-09	1.918924e+01	3.613820e+02
1.520000e-06	2.775903e-06	5.488087e-09	1.928605e+01	3.624999e+02
1.530000e-06	2.788842e-06	5.501561e-09	1.937595e+01	3.635166e+02
1.540000e-06	2.800697e-06	5.514493e-09	1.945832e+01	3.644365e+02
1.550000e-06	2.811182e-06	5.529596e-09	1.953116e+01	3.652632e+02
1.560000e-06	2.820480e-06	5.543716e-09	1.959576e+01	3.660007e+02
1.570000e-06	2.828879e-06	5.552777e-09	1.965411e+01	3.666527e+02
1.580000e-06	2.836322e-06	5.558468e-09	1.970582e+01	3.672229e+02
1.590000e-06	2.842800e-06	5.565502e-09	1.975083e+01	3.677144e+02
1.600000e-06	2.848346e-06	5.573428e-09	1.978936e+01	3.681297e+02
1.610000e-06	2.853125e-06	5.579798e-09	1.982257e+01	3.684698e+02
1.620000e-06	2.856965e-06	5.585235e-09	1.984925e+01	3.687358e+02
1.630000e-06	2.859412e-06	5.590180e-09	1.986624e+01	3.689286e+02
1.640000e-06	2.860695e-06	5.593574e-09	1.987516e+01	3.690506e+02
1.650000e-06	2.861176e-06	5.595629e-09	1.987850e+01	3.691048e+02
1.660000e-06	2.860750e-06	5.596669e-09	1.987554e+01	3.690951e+02
1.670000e-06	2.859374e-06	5.593908e-09	1.986599e+01	3.690236e+02
1.680000e-06	2.857104e-06	5.591163e-09	1.985021e+01	3.688899e+02
1.690000e-06	2.854083e-06	5.587181e-09	1.982922e+01	3.686900e+02
1.700000e-06	2.850297e-06	5.581515e-09	1.980292e+01	3.684171e+02
1.710000e-06	2.845408e-06	5.582317e-09	1.976895e+01	3.680641e+02
1.720000e-06	2.839278e-06	5.605833e-09	1.972636e+01	3.676271e+02
1.730000e-06	2.832246e-06	5.600739e-09	1.967750e+01	3.671094e+02
1.740000e-06	2.824356e-06	5.475144e-09	1.962269e+01	3.665227e+02
1.750000e-06	2.815041e-06	5.404524e-09	1.955797e+01	3.658869e+02
1.760000e-06	2.804078e-06	5.602403e-09	1.948180e+01	3.652264e+02
1.770000e-06	2.792351e-06	5.678125e-09	1.940033e+01	3.645636e+02
1.780000e-06	2.780641e-06	5.476747e-09	1.931897e+01	3.639133e+02
1.790000e-06	2.768024e-06	5.346150e-09	1.923131e+01	3.632775e+02
1.800000e-06	2.753558e-06	5.607447e-09	1.913081e+01	3.626438e+02
1.810000e-06	2.738083e-06	5.577134e-09	1.902330e+01	3.619875e+02
1.820000e-06	2.722181e-06	5.275949e-09	1.891281e+01	3.612773e+02
1.830000e-06	2.705056e-06	5.527921e-09	1.879383e+01	3.604820e+02
1.840000e-06	2.686615e-06	5.678450e-09	1.866571e+01	3.595776e+02
1.850000e-06	2.667571e-06	5.333505e-09	1.853340e+01	3.585516e+02
1.860000e-06	2.647666e-06	5.389709e-09	1.839511e+01	3.574046e+02
1.870000e-06	2.626458e-06	5.640111e-09	1.824776e+01	3.561480e+02
1.880000e-06	2.604296e-06	5.321337e-09	1.809378e+01	3.548003e+02
1.890000e-06	2.581202e-06	5.210984e-09	1.793333e+01	3.533814e+02
1.900000e-06	2.557069e-06	5.489297e-09	1.776566e+01	3.519090e+02
1.910000e-06	2.532260e-06	5.399356e-09	1.759330e+01	3.503952e+02
1.920000e-06	2.506636e-06	5.239675e-09	1.741528e+01	3.488456e+02
1.930000e-06	2.480043e-06	5.338415e-09	1.723051e+01	3.472594e+02
1.940000e-06	2.452895e-06	5.252970e-09	1.704190e+01	3.456311e+02
1.950000e-06	2.424856e-06	5.244720e-09	1.684709e+01	3.439519e+02
1.960000e-06	2.395483e-06	5.237274e-09	1.664302e+01	3.422116e+02
1.970000e-06	2.365098e-06	5.095187e-09	1.643192e+01	3.404012e+02
1.980000e-06	2.333960e-06	5.206216e-09	1.621558e+01	3.385149e+02
1.990000e-06	2.302151e-06	5.199515e-09	1.599458e+01	3.365520e+02
2.000000e-06	2.269650e-06	5.024802e-09	1.576878e+01	3.345182e+02
2.010000e-06	2.236258e-06	5.111938e-09	1.553678e+01	3.324249e+02
2.020000e-06	2.202099e-06	5.051509e-09	1.529945e+01	3.302867e+02
2.030000e-06	2.167387e-06	4.904469e-09	1.505828e+01	3.281177e+02
2.040000e-06	2.132009e-06	5.034682e-09	1.481249e+01	3.259261e+02
2.050000e-06	2.095908e-06	4.960329e-09	1.456168e+01	3.237107e+02
2.060000e-06	2.058839e-06	4.828499e-09	1.430413e+01	3.214596e+02
2.070000e-06	2.020586e-06	4.899877e-09	1.403836e+01	3.191523e+02
2.080000e-06	1.981607e-06	4.844371e-09	1.376755e+01	3.167657e+02
2.090000e-06	1.942144e-06	4.769342e-09	1.349337e+01	3.142812e+02
2.100000e-06	1.902029e-06	4.751970e-09	1.321467e+01	3.116913e+02
2.110000e-06	1.861284e-06	4.693600e-09	1.293158e+01	3.090034e+02
2.120000e-06	1.819949e-06	4.683128e-09	1.264440e+01	3.062374e+02
2.130000e-06	1.778019e-06	4.640370e-09	1.235309e+01	3.034195e+02
2.140000e-06	1.735503e-06	4.568196e-09	1.205770e+01	3.005729e+02
2.150000e-06	1.692530e-06	4.544802e-09	1.175914e+01	2.977087e+02
2.160000e-06	1.649126e-06	4.496863e-09	1.145758e+01	2.948211e+02
2.170000e-06	1.605123e-06	4.459031e-09	1.115186e+01	2.918883e+02
2.180000e-06	1.560431e-06	4.414818e-09	1.084136e+01	2.888797e+02
2.190000e-06	1.515099e-06	4.352559e-09	1.052640e+01	2.857665e+02
2.200000e-06	1.469329e-06	4.315249e-09	1.020841e+01	2.825323e+02
2.210000e-06	1.423224e-06	4.266457e-09	9.888085e+00	2.791788e+02
2.220000e-06	1.376605e-06	4.225714e-09	9.564198e+00	2.757251e+02
2.230000e-06	1.329435e-06	4.155652e-09	9.236472e+00	2.721998e+02
2.240000e-06	1.281646e-06	4.089842e-09	8.904451e+00	2.686290e+02
2.250000e-06	1.233205e-06	4.064865e-09	8.567901e+00	2.650245e+02
2.260000e-06	1.184323e-06	4.001303e-09	8.228285e+00	2.613777e+02
2.270000e-06	1.135091e-06	3.930930e-09	7.886233e+00	2.576606e+02
2.280000e-06	1.085496e-06	3.880653e-09	7.541670e+00	2.538355e+02
2.290000e-06	1.035463e-06	3.825735e-09	7.194053e+00	2.498687e+02
2.300000e-06	9.849624e-07	3.772546e-09	6.843192e+00	2.457439e+02
2.310000e-06	9.341416e-07	3.702409e-09	6.490106e+00	2.414696e+02
2.320000e-06	8.830757e-07	3.627345e-09	6.135317e+00	2.370776e+02
2.330000e-06	8.317294e-07	3.566798e-09	5.778580e+00	2.326126e+02
2.340000e-06	7.800198e-07	3.496569e-09	5.419319e+00	2.281155e+02
2.350000e-06	7.279031e-07	3.429816e-09	5.057229e+00	2.236088e+02
2.360000e-06	6.753943e-07	3.358450e-09	4.692416e+00	2.190869e+02
2.370000e-06	6.224165e-07	3.288303e-09	4.324344e+00	2.145170e+02
2.380000e-06	5.689733e-07	3.225918e-09	3.953038e+00	2.098501e+02
2.390000e-06	5.152125e-07	3.148857e-09	3.579525e+00	2.050375e+02
2.400000e-06	4.611469e-07	3.070888e-09	3.203896e+00	2.000481e+02
2.410000e-06	4.068780e-07	2.991095e-09	2.826854e+00	1.948778e+02
2.420000e-06	3.525071e-07	2.912466e-09	2.449102e+00	1.895503e+02
2.430000e-06	2.979751e-07	2.833293e-09	2.070232e+00	1.841062e+02
2.440000e-06	2.432722e-07	2.744949e-09	1.690174e+00	1.785862e+02
2.450000e-06	1.884513e-07	2.658436e-09	1.309297e+00	1.730140e+02
2.460000e-06	1.336143e-07	2.575077e-09	9.283080e-01	1.673857e+02
2.470000e-06	7.876740e-08	2.490819e-09	5.472498e-01	1.616695e+02
2.480000e-06	2.390432e-08	2.404039e-09	1.660793e-01	1.558161e+02
2.490000e-06	-3.097393e-08	2.311363e-09	-2.151966e-01	1.497755e+02
2.500000e-06	-8.584693e-08	2.217079e-09	-5.964360e-01	1.435134e+02
2.510000e-06	-1.407068e-07	2.122293e-09	-9.775844e-01	1.370221e+02
2.520000e-06	-1.954932e-07	2.018276e-09	-1.358222e+00	1.303203e+02
2.530000e-06	-2.502160e-07	1.910467e-09	-1.738417e+00	1.234426e+02
2.540000e-06	-3.048886e-07	1.803481e-09	-2.118265e+00	1.164229e+02
2.550000e-06	-3.594474e-07	1.698994e-09	-2.497321e+00	1.092775e+02
2.560000e-06	-4.138556e-07	1.592380e-09	-2.875331e+00	1.019953e+02
2.570000e-06	-4.680741e-07	1.478286e-09	-3.252023e+00	9.453763e+01
2.580000e-06	-5.220715e-07	1.362061e-09	-3.627180e+00	8.684906e+01
2.590000e-06	-5.757434e-07	1.241502e-09	-4.000074e+00	7.887382e+01
2.600000e-06	-6.289866e-07	1.115938e-09	-4.369990e+00	7.057197e+01
2.610000e-06	-6.818135e-07	9.826217e-10	-4.737014e+00	6.192896e+01
2.620000e-06	-7.342313e-07	8.439433e-10	-5.101196e+00	5.295485e+01
2.630000e-06	-7.862050e-07	7.024919e-10	-5.462292e+00	4.367342e+01
2.640000e-06	-8.377980e-07	5.587700e-10	-5.820743e+00	3.410563e+01
2.650000e-06	-8.890661e-07	4.112945e-10	-6.176937e+00	2.425364e+01
2.660000e-06	-9.400650e-07	2.583604e-10	-6.531260e+00	1.409184e+01
2.670000e-06	-9.908358e-07	1.005377e-10	-6.883999e+00	3.568610e+00
2.680000e-06	-1.041279e-06	-6.446495e-11	-7.234460e+00	-7.381524e+00
2.690000e-06	-1.091274e-06	-2.378217e-10	-7.581809e+00	-1.881912e+01
2.700000e-06	-1.140786e-06	-4.216454e-10	-7.925802e+00	-3.078081e+01
2.710000e-06	-1.189876e-06	-6.141183e-10	-8.266862e+00	-4.326609e+01
2.720000e-06	-1.238526e-06	-8.143171e-10	-8.604871e+00	-5.623378e+01
2.730000e-06	-1.286470e-06	-1.017746e-09	-8.937967e+00	-6.960824e+01
2.740000e-06	-1.333641e-06	-1.223561e-09	-9.265694e+00	-8.329239e+01
2.750000e-06	-1.380145e-06	-1.434386e-09	-9.588791e+00	-9.718212e+01
2.760000e-06	-1.426083e-06	-1.647758e-09	-9.907954e+00	-1.111770e+02
2.770000e-06	-1.471669e-06	-1.861104e-09	-1.022467e+01	-1.251846e+02
2.780000e-06	-1.516937e-06	-2.075001e-09	-1.053918e+01	-1.391174e+02
2.790000e-06	-1.561819e-06	-2.291095e-09	-1.085100e+01	-1.528865e+02
2.800000e-06	-1.606142e-06	-2.502614e-09	-1.115894e+01	-1.663960e+02
2.810000e-06	-1.649817e-06	-2.704857e-09	-1.146238e+01	-1.795406e+02
2.820000e-06	-1.693050e-06	-2.897516e-09	-1.176275e+01	-1.922117e+02
2.830000e-06	-1.735944e-06	-3.080457e-09	-1.206076e+01	-2.043072e+02
2.840000e-06	-1.778325e-06	-3.253924e-09	-1.235521e+01	-2.157452e+02
2.850000e-06	-1.820051e-06	-3.416728e-09	-1.264511e+01	-2.264745e+02
2.860000e-06	-1.861174e-06	-3.569609e-09	-1.293082e+01	-2.364799e+02
2.870000e-06	-1.901688e-06	-3.715663e-09	-1.321229e+01	-2.457798e+02
2.880000e-06	-1.941531e-06	-3.855582e-09	-1.348911e+01	-2.544168e+02
2.890000e-06	-1.980840e-06	-3.983297e-09	-1.376222e+01	-2.624450e+02
2.900000e-06	-2.019649e-06	-4.097988e-09	-1.403185e+01	-2.699180e+02
2.910000e-06	-2.057689e-06	-4.203068e-09	-1.429614e+01	-2.768808e+02
2.920000e-06	-2.094661e-06	-4.300700e-09	-1.455301e+01	-2.833678e+02
2.930000e-06	-2.130610e-06	-4.392749e-09	-1.480277e+01	-2.894058e+02
2.940000e-06	-2.165856e-06	-4.482065e-09	-1.504765e+01	-2.950202e+02
