# Temperatura_=_25.84
# Concentracion g/m^3_=_13400.0
# C_Vs_to_Am_M_A/Vsm_=_65563218390.804596
# pendiente_HvsI_1/m_=_3716.3
# ordenada_HvsI_A/m_=_1297.0
# frecuencia_Hz_=_300846.7242947407

Tiempo_(s)	Campo_(V.s)	Magnetizacion_(V.s)	Campo_(kA/m)	Magnetizacion_(A/m)
0.000000e+00	-2.850925e-06	-5.738908e-09	-1.980650e+01	-3.744877e+02
1.000000e-08	-2.850003e-06	-5.738494e-09	-1.980009e+01	-3.743282e+02
2.000000e-08	-2.848056e-06	-5.735128e-09	-1.978656e+01	-3.741065e+02
3.000000e-08	-2.844915e-06	-5.729134e-09	-1.976474e+01	-3.738464e+02
4.000000e-08	-2.840786e-06	-5.725971e-09	-1.973606e+01	-3.735577e+02
5.000000e-08	-2.835841e-06	-5.723961e-09	-1.970170e+01	-3.732332e+02
6.000000e-08	-2.830082e-06	-5.718359e-09	-1.966169e+01	-3.728520e+02
7.000000e-08	-2.823346e-06	-5.697047e-09	-1.961490e+01	-3.723897e+02
8.000000e-08	-2.815549e-06	-5.692948e-09	-1.956072e+01	-3.718298e+02
9.000000e-08	-2.806612e-06	-5.721311e-09	-1.949864e+01	-3.711735e+02
1.000000e-07	-2.796254e-06	-5.739547e-09	-1.942667e+01	-3.704422e+02
1.100000e-07	-2.784674e-06	-5.637071e-09	-1.934622e+01	-3.696725e+02
1.200000e-07	-2.772333e-06	-5.572746e-09	-1.926049e+01	-3.689051e+02
1.300000e-07	-2.759103e-06	-5.671326e-09	-1.916857e+01	-3.681709e+02
1.400000e-07	-2.744848e-06	-5.714814e-09	-1.906954e+01	-3.674804e+02
1.500000e-07	-2.729626e-06	-5.558353e-09	-1.896379e+01	-3.668189e+02
1.600000e-07	-2.713218e-06	-5.564332e-09	-1.884979e+01	-3.661504e+02
1.700000e-07	-2.695489e-06	-5.692177e-09	-1.872662e+01	-3.654278e+02
1.800000e-07	-2.676852e-06	-5.552770e-09	-1.859714e+01	-3.646067e+02
1.900000e-07	-2.657567e-06	-5.474879e-09	-1.846316e+01	-3.636577e+02
2.000000e-07	-2.637378e-06	-5.591215e-09	-1.832290e+01	-3.625726e+02
2.100000e-07	-2.616333e-06	-5.521454e-09	-1.817669e+01	-3.613645e+02
2.200000e-07	-2.594579e-06	-5.410296e-09	-1.802556e+01	-3.600604e+02
2.300000e-07	-2.571893e-06	-5.538686e-09	-1.786795e+01	-3.586907e+02
2.400000e-07	-2.548197e-06	-5.513290e-09	-1.770333e+01	-3.572786e+02
2.500000e-07	-2.523702e-06	-5.363072e-09	-1.753315e+01	-3.558339e+02
2.600000e-07	-2.498441e-06	-5.389941e-09	-1.735765e+01	-3.543512e+02
2.700000e-07	-2.472110e-06	-5.415998e-09	-1.717472e+01	-3.528147e+02
2.800000e-07	-2.444621e-06	-5.331370e-09	-1.698374e+01	-3.512053e+02
2.900000e-07	-2.416171e-06	-5.319900e-09	-1.678609e+01	-3.495084e+02
3.000000e-07	-2.386889e-06	-5.309735e-09	-1.658266e+01	-3.477193e+02
3.100000e-07	-2.356902e-06	-5.284329e-09	-1.637432e+01	-3.458444e+02
3.200000e-07	-2.326196e-06	-5.280599e-09	-1.616099e+01	-3.438981e+02
3.300000e-07	-2.294701e-06	-5.201075e-09	-1.594219e+01	-3.418984e+02
3.400000e-07	-2.262525e-06	-5.163562e-09	-1.571865e+01	-3.398601e+02
3.500000e-07	-2.229771e-06	-5.154090e-09	-1.549109e+01	-3.377913e+02
3.600000e-07	-2.196242e-06	-5.112350e-09	-1.525815e+01	-3.356915e+02
3.700000e-07	-2.161600e-06	-5.101801e-09	-1.501748e+01	-3.335530e+02
3.800000e-07	-2.125891e-06	-5.080733e-09	-1.476940e+01	-3.313640e+02
3.900000e-07	-2.089479e-06	-5.008000e-09	-1.451643e+01	-3.291131e+02
4.000000e-07	-2.052464e-06	-4.996360e-09	-1.425927e+01	-3.267917e+02
4.100000e-07	-2.014736e-06	-4.976131e-09	-1.399716e+01	-3.243963e+02
4.200000e-07	-1.976260e-06	-4.895215e-09	-1.372986e+01	-3.219284e+02
4.300000e-07	-1.937044e-06	-4.858996e-09	-1.345741e+01	-3.193921e+02
4.400000e-07	-1.897178e-06	-4.843040e-09	-1.318044e+01	-3.167927e+02
4.500000e-07	-1.856829e-06	-4.809545e-09	-1.290012e+01	-3.141341e+02
4.600000e-07	-1.816078e-06	-4.763201e-09	-1.261701e+01	-3.114172e+02
4.700000e-07	-1.774643e-06	-4.714666e-09	-1.232914e+01	-3.086397e+02
4.800000e-07	-1.732179e-06	-4.661288e-09	-1.203413e+01	-3.057968e+02
4.900000e-07	-1.688713e-06	-4.619536e-09	-1.173215e+01	-3.028827e+02
5.000000e-07	-1.644568e-06	-4.577620e-09	-1.142546e+01	-2.998926e+02
5.100000e-07	-1.600040e-06	-4.526455e-09	-1.111611e+01	-2.968245e+02
5.200000e-07	-1.555107e-06	-4.477309e-09	-1.080394e+01	-2.936797e+02
5.300000e-07	-1.509646e-06	-4.435253e-09	-1.048810e+01	-2.904628e+02
5.400000e-07	-1.463603e-06	-4.391544e-09	-1.016823e+01	-2.871802e+02
5.500000e-07	-1.417016e-06	-4.330665e-09	-9.844566e+00	-2.838370e+02
5.600000e-07	-1.369911e-06	-4.271995e-09	-9.517312e+00	-2.804346e+02
5.700000e-07	-1.322283e-06	-4.220250e-09	-9.186422e+00	-2.769683e+02
5.800000e-07	-1.274218e-06	-4.175622e-09	-8.852490e+00	-2.734274e+02
5.900000e-07	-1.225817e-06	-4.119612e-09	-8.516235e+00	-2.697967e+02
6.000000e-07	-1.177039e-06	-4.054525e-09	-8.177350e+00	-2.660611e+02
6.100000e-07	-1.127786e-06	-3.994608e-09	-7.835172e+00	-2.622097e+02
6.200000e-07	-1.077955e-06	-3.936071e-09	-7.488978e+00	-2.582405e+02
6.300000e-07	-1.027454e-06	-3.874754e-09	-7.138127e+00	-2.541619e+02
6.400000e-07	-9.763785e-07	-3.805624e-09	-6.783285e+00	-2.499913e+02
6.500000e-07	-9.247949e-07	-3.739775e-09	-6.424913e+00	-2.457503e+02
6.600000e-07	-8.728015e-07	-3.678594e-09	-6.063695e+00	-2.414577e+02
6.700000e-07	-8.205387e-07	-3.616802e-09	-5.700604e+00	-2.371228e+02
6.800000e-07	-7.680443e-07	-3.545485e-09	-5.335906e+00	-2.327421e+02
6.900000e-07	-7.153268e-07	-3.471167e-09	-4.969656e+00	-2.282989e+02
7.000000e-07	-6.623244e-07	-3.401917e-09	-4.601428e+00	-2.237686e+02
7.100000e-07	-6.090699e-07	-3.335558e-09	-4.231447e+00	-2.191261e+02
7.200000e-07	-5.556210e-07	-3.262952e-09	-3.860117e+00	-2.143535e+02
7.300000e-07	-5.019365e-07	-3.181813e-09	-3.487150e+00	-2.094461e+02
7.400000e-07	-4.480255e-07	-3.104345e-09	-3.112609e+00	-2.044120e+02
7.500000e-07	-3.939734e-07	-3.028054e-09	-2.737088e+00	-1.992682e+02
7.600000e-07	-3.398181e-07	-2.947412e-09	-2.360850e+00	-1.940321e+02
7.700000e-07	-2.855446e-07	-2.860329e-09	-1.983791e+00	-1.887128e+02
7.800000e-07	-2.312041e-07	-2.775362e-09	-1.606265e+00	-1.833059e+02
7.900000e-07	-1.768071e-07	-2.694635e-09	-1.228348e+00	-1.777923e+02
8.000000e-07	-1.223333e-07	-2.611239e-09	-8.498977e-01	-1.721435e+02
8.100000e-07	-6.782096e-08	-2.520139e-09	-4.711788e-01	-1.663305e+02
8.200000e-07	-1.331601e-08	-2.423974e-09	-9.251154e-02	-1.603328e+02
8.300000e-07	4.115472e-08	-2.327926e-09	2.859180e-01	-1.541442e+02
8.400000e-07	9.558539e-08	-2.228287e-09	6.640692e-01	-1.477733e+02
8.500000e-07	1.499831e-07	-2.126280e-09	1.041992e+00	-1.412374e+02
8.600000e-07	2.043489e-07	-2.021519e-09	1.419692e+00	-1.345526e+02
8.700000e-07	2.586865e-07	-1.917515e-09	1.797197e+00	-1.277236e+02
8.800000e-07	3.129746e-07	-1.814331e-09	2.174358e+00	-1.207375e+02
8.900000e-07	3.671633e-07	-1.706297e-09	2.550827e+00	-1.135636e+02
9.000000e-07	4.212522e-07	-1.588921e-09	2.926604e+00	-1.061600e+02
9.100000e-07	4.751917e-07	-1.464898e-09	3.301343e+00	-9.848454e+01
9.200000e-07	5.288971e-07	-1.341603e-09	3.674456e+00	-9.050540e+01
9.300000e-07	5.824075e-07	-1.216204e-09	4.046214e+00	-8.220789e+01
9.400000e-07	6.356730e-07	-1.085129e-09	4.416270e+00	-7.359424e+01
9.500000e-07	6.886572e-07	-9.475675e-10	4.784372e+00	-6.467642e+01
9.600000e-07	7.413988e-07	-8.076692e-10	5.150789e+00	-5.546461e+01
9.700000e-07	7.938860e-07	-6.638215e-10	5.515438e+00	-4.595559e+01
9.800000e-07	8.461469e-07	-5.127364e-10	5.878515e+00	-3.612555e+01
9.900000e-07	8.981097e-07	-3.539949e-10	6.239521e+00	-2.593024e+01
1.000000e-06	9.497089e-07	-1.867016e-10	6.598001e+00	-1.531255e+01
1.010000e-06	1.000826e-06	-1.404835e-11	6.953134e+00	-4.215074e+00
1.020000e-06	1.051290e-06	1.611113e-10	7.303725e+00	7.406530e+00
1.030000e-06	1.101057e-06	3.425707e-10	7.649472e+00	1.957359e+01
1.040000e-06	1.150206e-06	5.380798e-10	7.990931e+00	3.228050e+01
1.050000e-06	1.198922e-06	7.442604e-10	8.329385e+00	4.549701e+01
1.060000e-06	1.247371e-06	9.539912e-10	8.665977e+00	5.917427e+01
1.070000e-06	1.295539e-06	1.166727e-09	9.000616e+00	7.325132e+01
1.080000e-06	1.343303e-06	1.386268e-09	9.332453e+00	8.765858e+01
1.090000e-06	1.390571e-06	1.610317e-09	9.660845e+00	1.023169e+02
1.100000e-06	1.437312e-06	1.834468e-09	9.985573e+00	1.171335e+02
1.110000e-06	1.483529e-06	2.058187e-09	1.030666e+01	1.319970e+02
1.120000e-06	1.529232e-06	2.280583e-09	1.062418e+01	1.467763e+02
1.130000e-06	1.574374e-06	2.500785e-09	1.093779e+01	1.613251e+02
1.140000e-06	1.619017e-06	2.716854e-09	1.124795e+01	1.754934e+02
1.150000e-06	1.663368e-06	2.923869e-09	1.155607e+01	1.891422e+02
1.160000e-06	1.707361e-06	3.116630e-09	1.186171e+01	2.021596e+02
1.170000e-06	1.750685e-06	3.299709e-09	1.216269e+01	2.144707e+02
1.180000e-06	1.793070e-06	3.476191e-09	1.245716e+01	2.260404e+02
1.190000e-06	1.834505e-06	3.642227e-09	1.274503e+01	2.368675e+02
1.200000e-06	1.875221e-06	3.795156e-09	1.302790e+01	2.469728e+02
1.210000e-06	1.915394e-06	3.936804e-09	1.330699e+01	2.563854e+02
1.220000e-06	1.954981e-06	4.069072e-09	1.358202e+01	2.651327e+02
1.230000e-06	1.993907e-06	4.190432e-09	1.385245e+01	2.732373e+02
1.240000e-06	2.032150e-06	4.299810e-09	1.411814e+01	2.807198e+02
1.250000e-06	2.069637e-06	4.399840e-09	1.437858e+01	2.876070e+02
1.260000e-06	2.106448e-06	4.495655e-09	1.463432e+01	2.939396e+02
1.270000e-06	2.142746e-06	4.584771e-09	1.488649e+01	2.997756e+02
1.280000e-06	2.178426e-06	4.665705e-09	1.513438e+01	3.051866e+02
1.290000e-06	2.213116e-06	4.740885e-09	1.537539e+01	3.102476e+02
1.300000e-06	2.246684e-06	4.811375e-09	1.560860e+01	3.150234e+02
1.310000e-06	2.279421e-06	4.878579e-09	1.583603e+01	3.195570e+02
1.320000e-06	2.311502e-06	4.941682e-09	1.605891e+01	3.238641e+02
1.330000e-06	2.342855e-06	5.001583e-09	1.627673e+01	3.279364e+02
1.340000e-06	2.373438e-06	5.057427e-09	1.648921e+01	3.317525e+02
1.350000e-06	2.403222e-06	5.106823e-09	1.669613e+01	3.352925e+02
1.360000e-06	2.432223e-06	5.151985e-09	1.689761e+01	3.385515e+02
1.370000e-06	2.460544e-06	5.196433e-09	1.709437e+01	3.415462e+02
1.380000e-06	2.488126e-06	5.238996e-09	1.728599e+01	3.443135e+02
1.390000e-06	2.514573e-06	5.276217e-09	1.746973e+01	3.469002e+02
1.400000e-06	2.539781e-06	5.309230e-09	1.764485e+01	3.493502e+02
1.410000e-06	2.564037e-06	5.341687e-09	1.781337e+01	3.516920e+02
1.420000e-06	2.587457e-06	5.374722e-09	1.797608e+01	3.539332e+02
1.430000e-06	2.610005e-06	5.405833e-09	1.813273e+01	3.560624e+02
1.440000e-06	2.631665e-06	5.433498e-09	1.828321e+01	3.580582e+02
1.450000e-06	2.652529e-06	5.460372e-09	1.842816e+01	3.599018e+02
1.460000e-06	2.672651e-06	5.486999e-09	1.856795e+01	3.615873e+02
1.470000e-06	2.691894e-06	5.509905e-09	1.870164e+01	3.631257e+02
1.480000e-06	2.710114e-06	5.529791e-09	1.882823e+01	3.645421e+02
1.490000e-06	2.727351e-06	5.550040e-09	1.894798e+01	3.658663e+02
1.500000e-06	2.743595e-06	5.570200e-09	1.906083e+01	3.671217e+02
1.510000e-06	2.758755e-06	5.587450e-09	1.916615e+01	3.683166e+02
1.520000e-06	2.772867e-06	5.601242e-09	1.926420e+01	3.694423e+02
1.530000e-06	2.786005e-06	5.614335e-09	1.935547e+01	3.704777e+02
1.540000e-06	2.798094e-06	5.630656e-09	1.943946e+01	3.713998e+02
1.550000e-06	2.808963e-06	5.648085e-09	1.951497e+01	3.721947e+02
1.560000e-06	2.818596e-06	5.659678e-09	1.958190e+01	3.728647e+02
1.570000e-06	2.827215e-06	5.666316e-09	1.964177e+01	3.734296e+02
1.580000e-06	2.834882e-06	5.673195e-09	1.969504e+01	3.739196e+02
1.590000e-06	2.841518e-06	5.681309e-09	1.974114e+01	3.743646e+02
1.600000e-06	2.847208e-06	5.687425e-09	1.978067e+01	3.747832e+02
1.610000e-06	2.852063e-06	5.690595e-09	1.981440e+01	3.751758e+02
1.620000e-06	2.856079e-06	5.694746e-09	1.984230e+01	3.755246e+02
1.630000e-06	2.859002e-06	5.701988e-09	1.986261e+01	3.758016e+02
1.640000e-06	2.860665e-06	5.709091e-09	1.987416e+01	3.759791e+02
1.650000e-06	2.861289e-06	5.710519e-09	1.987850e+01	3.760413e+02
1.660000e-06	2.861020e-06	5.709185e-09	1.987663e+01	3.759902e+02
1.670000e-06	2.859872e-06	5.708146e-09	1.986865e+01	3.758444e+02
1.680000e-06	2.857883e-06	5.704964e-09	1.985484e+01	3.756314e+02
1.690000e-06	2.855021e-06	5.699504e-09	1.983495e+01	3.753765e+02
1.700000e-06	2.851330e-06	5.691905e-09	1.980931e+01	3.750925e+02
1.710000e-06	2.846733e-06	5.684960e-09	1.977737e+01	3.747752e+02
1.720000e-06	2.840997e-06	5.680363e-09	1.973752e+01	3.744056e+02
1.730000e-06	2.834200e-06	5.696210e-09	1.969030e+01	3.739590e+02
1.740000e-06	2.826483e-06	5.671699e-09	1.963668e+01	3.734166e+02
1.750000e-06	2.817516e-06	5.609021e-09	1.957439e+01	3.727761e+02
1.760000e-06	2.807002e-06	5.603628e-09	1.950134e+01	3.720554e+02
1.770000e-06	2.795490e-06	5.696332e-09	1.942137e+01	3.712892e+02
1.780000e-06	2.783723e-06	5.688628e-09	1.933962e+01	3.705182e+02
1.790000e-06	2.771351e-06	5.536702e-09	1.925366e+01	3.697762e+02
1.800000e-06	2.757465e-06	5.550523e-09	1.915719e+01	3.690778e+02
1.810000e-06	2.742210e-06	5.669134e-09	1.905121e+01	3.684129e+02
1.820000e-06	2.726339e-06	5.570816e-09	1.894095e+01	3.677485e+02
1.830000e-06	2.709513e-06	5.486327e-09	1.882405e+01	3.670387e+02
1.840000e-06	2.691289e-06	5.645818e-09	1.869744e+01	3.662375e+02
1.850000e-06	2.672221e-06	5.612521e-09	1.856497e+01	3.653122e+02
1.860000e-06	2.652548e-06	5.435240e-09	1.842829e+01	3.642506e+02
1.870000e-06	2.631839e-06	5.559202e-09	1.828442e+01	3.630623e+02
1.880000e-06	2.609959e-06	5.583345e-09	1.813241e+01	3.617727e+02
1.890000e-06	2.587063e-06	5.371798e-09	1.797334e+01	3.604122e+02
1.900000e-06	2.563164e-06	5.452045e-09	1.780731e+01	3.590062e+02
1.910000e-06	2.538412e-06	5.538015e-09	1.763535e+01	3.575669e+02
1.920000e-06	2.512927e-06	5.390119e-09	1.745829e+01	3.560915e+02
1.930000e-06	2.486523e-06	5.374931e-09	1.727485e+01	3.545656e+02
1.940000e-06	2.459343e-06	5.401781e-09	1.708602e+01	3.529701e+02
1.950000e-06	2.431471e-06	5.328310e-09	1.689238e+01	3.512891e+02
1.960000e-06	2.402490e-06	5.327087e-09	1.669104e+01	3.495159e+02
1.970000e-06	2.372347e-06	5.279202e-09	1.648163e+01	3.476550e+02
1.980000e-06	2.341363e-06	5.228797e-09	1.626637e+01	3.457198e+02
1.990000e-06	2.309689e-06	5.280358e-09	1.604632e+01	3.437280e+02
2.000000e-06	2.277287e-06	5.201896e-09	1.582121e+01	3.416953e+02
2.010000e-06	2.244076e-06	5.144969e-09	1.559048e+01	3.396314e+02
2.020000e-06	2.210080e-06	5.170097e-09	1.535429e+01	3.375371e+02
2.030000e-06	2.175442e-06	5.074344e-09	1.511365e+01	3.354059e+02
2.040000e-06	2.140152e-06	5.053781e-09	1.486848e+01	3.332264e+02
2.050000e-06	2.104168e-06	5.074111e-09	1.461848e+01	3.309869e+02
2.060000e-06	2.067356e-06	4.977487e-09	1.436274e+01	3.286780e+02
2.070000e-06	2.029444e-06	4.963707e-09	1.409935e+01	3.262955e+02
2.080000e-06	1.990576e-06	4.959016e-09	1.382931e+01	3.238399e+02
2.090000e-06	1.951130e-06	4.876370e-09	1.355527e+01	3.213150e+02
2.100000e-06	1.911105e-06	4.847048e-09	1.327719e+01	3.187261e+02
2.110000e-06	1.870431e-06	4.798577e-09	1.299462e+01	3.160775e+02
2.120000e-06	1.829180e-06	4.755657e-09	1.270803e+01	3.133707e+02
2.130000e-06	1.787392e-06	4.742184e-09	1.241772e+01	3.106039e+02
2.140000e-06	1.745013e-06	4.688011e-09	1.212329e+01	3.077727e+02
2.150000e-06	1.702056e-06	4.645912e-09	1.182485e+01	3.048713e+02
2.160000e-06	1.658680e-06	4.595787e-09	1.152350e+01	3.018947e+02
2.170000e-06	1.614801e-06	4.544616e-09	1.121865e+01	2.988400e+02
2.180000e-06	1.570239e-06	4.505079e-09	1.090907e+01	2.957082e+02
2.190000e-06	1.525054e-06	4.446105e-09	1.059515e+01	2.925034e+02
2.200000e-06	1.479373e-06	4.401259e-09	1.027778e+01	2.892317e+02
2.210000e-06	1.433263e-06	4.363338e-09	9.957438e+00	2.858986e+02
2.220000e-06	1.386684e-06	4.308954e-09	9.633837e+00	2.825065e+02
2.230000e-06	1.339585e-06	4.255509e-09	9.306622e+00	2.790519e+02
2.240000e-06	1.291983e-06	4.188274e-09	8.975915e+00	2.755249e+02
2.250000e-06	1.243775e-06	4.136197e-09	8.640991e+00	2.719111e+02
2.260000e-06	1.194995e-06	4.093198e-09	8.302100e+00	2.681948e+02
2.270000e-06	1.145822e-06	4.027323e-09	7.960476e+00	2.643641e+02
2.280000e-06	1.096261e-06	3.970355e-09	7.616156e+00	2.604152e+02
2.290000e-06	1.046302e-06	3.909214e-09	7.269068e+00	2.563546e+02
2.300000e-06	9.958970e-07	3.848951e-09	6.918888e+00	2.521985e+02
2.310000e-06	9.450685e-07	3.787855e-09	6.565762e+00	2.479682e+02
2.320000e-06	8.939641e-07	3.712390e-09	6.210719e+00	2.436833e+02
2.330000e-06	8.426147e-07	3.646986e-09	5.853975e+00	2.393554e+02
2.340000e-06	7.910365e-07	3.586083e-09	5.495641e+00	2.349834e+02
2.350000e-06	7.390947e-07	3.522470e-09	5.134781e+00	2.305526e+02
2.360000e-06	6.866599e-07	3.452791e-09	4.770496e+00	2.260394e+02
2.370000e-06	6.338348e-07	3.376853e-09	4.403500e+00	2.214181e+02
2.380000e-06	5.806547e-07	3.308747e-09	4.034036e+00	2.166691e+02
2.390000e-06	5.270996e-07	3.238043e-09	3.661968e+00	2.117851e+02
2.400000e-06	4.731790e-07	3.158756e-09	3.287360e+00	2.067722e+02
2.410000e-06	4.190320e-07	3.081810e-09	2.911180e+00	2.016462e+02
2.420000e-06	3.646707e-07	3.005416e-09	2.533511e+00	1.964251e+02
2.430000e-06	3.100668e-07	2.929978e-09	2.154156e+00	1.911202e+02
2.440000e-06	2.553267e-07	2.847486e-09	1.773855e+00	1.857295e+02
2.450000e-06	2.004984e-07	2.758269e-09	1.392941e+00	1.802365e+02
2.460000e-06	1.456503e-07	2.673622e-09	1.011890e+00	1.746137e+02
2.470000e-06	9.077886e-08	2.588482e-09	6.306764e-01	1.688314e+02
2.480000e-06	3.586374e-08	2.501528e-09	2.491595e-01	1.628672e+02
2.490000e-06	-1.911925e-08	2.409538e-09	-1.328289e-01	1.567120e+02
2.500000e-06	-7.412683e-08	2.314776e-09	-5.149882e-01	1.503722e+02
2.510000e-06	-1.290745e-07	2.220435e-09	-8.967313e-01	1.438640e+02
2.520000e-06	-1.839491e-07	2.120109e-09	-1.277967e+00	1.372046e+02
2.530000e-06	-2.387805e-07	2.012845e-09	-1.658902e+00	1.304013e+02
2.540000e-06	-2.935712e-07	1.903551e-09	-2.039554e+00	1.234446e+02
2.550000e-06	-3.482311e-07	1.796187e-09	-2.419298e+00	1.163067e+02
2.560000e-06	-4.026439e-07	1.688509e-09	-2.797325e+00	1.089470e+02
2.570000e-06	-4.567757e-07	1.575396e-09	-3.173400e+00	1.013224e+02
2.580000e-06	-5.106746e-07	1.457098e-09	-3.547857e+00	9.339871e+01
2.590000e-06	-5.642836e-07	1.334580e-09	-3.920299e+00	8.515791e+01
2.600000e-06	-6.175016e-07	1.204015e-09	-4.290026e+00	7.659956e+01
2.610000e-06	-6.703000e-07	1.064928e-09	-4.656837e+00	6.773469e+01
2.620000e-06	-7.226724e-07	9.217296e-10	-5.020689e+00	5.857470e+01
2.630000e-06	-7.746343e-07	7.784427e-10	-5.381689e+00	4.911945e+01
2.640000e-06	-8.263015e-07	6.338970e-10	-5.740641e+00	3.934904e+01
2.650000e-06	-8.777323e-07	4.828971e-10	-6.097951e+00	2.922252e+01
2.660000e-06	-9.289088e-07	3.245223e-10	-6.453494e+00	1.868423e+01
2.670000e-06	-9.798036e-07	1.580591e-10	-6.807080e+00	7.675815e+00
2.680000e-06	-1.030317e-06	-1.648574e-11	-7.158019e+00	-3.850285e+00
2.690000e-06	-1.080352e-06	-1.999985e-10	-7.505628e+00	-1.591998e+01
2.700000e-06	-1.129933e-06	-3.947514e-10	-7.850087e+00	-2.853247e+01
2.710000e-06	-1.179102e-06	-5.968915e-10	-8.191687e+00	-4.166153e+01
2.720000e-06	-1.227764e-06	-8.027223e-10	-8.529760e+00	-5.526111e+01
2.730000e-06	-1.275778e-06	-1.014162e-09	-8.863333e+00	-6.927204e+01
2.740000e-06	-1.323013e-06	-1.233695e-09	-9.191491e+00	-8.362623e+01
2.750000e-06	-1.369577e-06	-1.458851e-09	-9.514988e+00	-9.824650e+01
2.760000e-06	-1.415703e-06	-1.683725e-09	-9.835443e+00	-1.130428e+02
2.770000e-06	-1.461486e-06	-1.907211e-09	-1.015352e+01	-1.279074e+02
2.780000e-06	-1.506924e-06	-2.135015e-09	-1.046919e+01	-1.427126e+02
2.790000e-06	-1.551936e-06	-2.364542e-09	-1.078191e+01	-1.573140e+02
2.800000e-06	-1.596399e-06	-2.587528e-09	-1.109081e+01	-1.715614e+02
2.810000e-06	-1.640273e-06	-2.799140e-09	-1.139562e+01	-1.853125e+02
2.820000e-06	-1.683747e-06	-3.000042e-09	-1.169765e+01	-1.984497e+02
2.830000e-06	-1.726870e-06	-3.190089e-09	-1.199725e+01	-2.108910e+02
2.840000e-06	-1.769412e-06	-3.367659e-09	-1.229280e+01	-2.225944e+02
2.850000e-06	-1.811299e-06	-3.532734e-09	-1.258380e+01	-2.335535e+02
2.860000e-06	-1.852632e-06	-3.687944e-09	-1.287096e+01	-2.437861e+02
2.870000e-06	-1.893333e-06	-3.838379e-09	-1.315373e+01	-2.533206e+02
2.880000e-06	-1.933366e-06	-3.981327e-09	-1.343185e+01	-2.621854e+02
2.890000e-06	-1.972845e-06	-4.111910e-09	-1.370613e+01	-2.704036e+02
2.900000e-06	-2.011775e-06	-4.230000e-09	-1.397659e+01	-2.779959e+02
2.910000e-06	-2.049901e-06	-4.337161e-09	-1.424146e+01	-2.849873e+02
2.920000e-06	-2.086983e-06	-4.433060e-09	-1.449909e+01	-2.914156e+02
2.930000e-06	-2.123139e-06	-4.520417e-09	-1.475028e+01	-2.973357e+02
2.940000e-06	-2.158599e-06	-4.604980e-09	-1.499663e+01	-3.028175e+02
