# Temperatura_=_49.73
# Concentracion g/m^3_=_13400.0
# C_Vs_to_Am_M_A/Vsm_=_65563218390.804596
# pendiente_HvsI_1/m_=_3716.3
# ordenada_HvsI_A/m_=_1297.0
# frecuencia_Hz_=_300808.907426955

Tiempo_(s)	Campo_(V.s)	Magnetizacion_(V.s)	Campo_(kA/m)	Magnetizacion_(A/m)
0.000000e+00	-5.489895e-06	-1.242267e-08	-3.830403e+01	-8.137601e+02
1.000000e-08	-5.488324e-06	-1.242448e-08	-3.829307e+01	-8.136160e+02
2.000000e-08	-5.484809e-06	-1.242211e-08	-3.826855e+01	-8.132797e+02
3.000000e-08	-5.479564e-06	-1.241831e-08	-3.823195e+01	-8.127667e+02
4.000000e-08	-5.472723e-06	-1.241234e-08	-3.818422e+01	-8.121256e+02
5.000000e-08	-5.464290e-06	-1.239915e-08	-3.812538e+01	-8.114146e+02
6.000000e-08	-5.453916e-06	-1.237869e-08	-3.805301e+01	-8.106747e+02
7.000000e-08	-5.441415e-06	-1.235276e-08	-3.796578e+01	-8.099116e+02
8.000000e-08	-5.426990e-06	-1.233464e-08	-3.786514e+01	-8.090932e+02
9.000000e-08	-5.410211e-06	-1.236832e-08	-3.774806e+01	-8.081659e+02
1.000000e-07	-5.391008e-06	-1.238323e-08	-3.761409e+01	-8.070803e+02
1.100000e-07	-5.369875e-06	-1.233405e-08	-3.746664e+01	-8.058165e+02
1.200000e-07	-5.346925e-06	-1.230051e-08	-3.730651e+01	-8.043962e+02
1.300000e-07	-5.322443e-06	-1.223583e-08	-3.713569e+01	-8.028757e+02
1.400000e-07	-5.296549e-06	-1.218548e-08	-3.695502e+01	-8.013235e+02
1.500000e-07	-5.268823e-06	-1.225746e-08	-3.676157e+01	-7.997894e+02
1.600000e-07	-5.239231e-06	-1.217054e-08	-3.655510e+01	-7.982812e+02
1.700000e-07	-5.208102e-06	-1.210842e-08	-3.633791e+01	-7.967563e+02
1.800000e-07	-5.175170e-06	-1.219922e-08	-3.610814e+01	-7.951354e+02
1.900000e-07	-5.140091e-06	-1.209596e-08	-3.586339e+01	-7.933306e+02
2.000000e-07	-5.103401e-06	-1.204874e-08	-3.560739e+01	-7.912781e+02
2.100000e-07	-5.065148e-06	-1.205423e-08	-3.534050e+01	-7.889618e+02
2.200000e-07	-5.025062e-06	-1.194412e-08	-3.506081e+01	-7.864178e+02
2.300000e-07	-4.983059e-06	-1.194968e-08	-3.476774e+01	-7.837188e+02
2.400000e-07	-4.939026e-06	-1.194326e-08	-3.446052e+01	-7.809438e+02
2.500000e-07	-4.893241e-06	-1.186825e-08	-3.414107e+01	-7.781468e+02
2.600000e-07	-4.845721e-06	-1.184268e-08	-3.380951e+01	-7.753373e+02
2.700000e-07	-4.796217e-06	-1.175822e-08	-3.346411e+01	-7.724792e+02
2.800000e-07	-4.744611e-06	-1.172491e-08	-3.310405e+01	-7.695094e+02
2.900000e-07	-4.691039e-06	-1.170177e-08	-3.273027e+01	-7.663662e+02
3.000000e-07	-4.635753e-06	-1.163813e-08	-3.234452e+01	-7.630165e+02
3.100000e-07	-4.578874e-06	-1.159370e-08	-3.194767e+01	-7.594689e+02
3.200000e-07	-4.520214e-06	-1.154303e-08	-3.153839e+01	-7.557685e+02
3.300000e-07	-4.459859e-06	-1.149438e-08	-3.111728e+01	-7.519750e+02
3.400000e-07	-4.398014e-06	-1.140115e-08	-3.068577e+01	-7.481353e+02
3.500000e-07	-4.334658e-06	-1.133325e-08	-3.024373e+01	-7.442617e+02
3.600000e-07	-4.269872e-06	-1.128408e-08	-2.979170e+01	-7.403263e+02
3.700000e-07	-4.203453e-06	-1.121847e-08	-2.932829e+01	-7.362724e+02
3.800000e-07	-4.135321e-06	-1.117897e-08	-2.885292e+01	-7.320395e+02
3.900000e-07	-4.065667e-06	-1.110546e-08	-2.836693e+01	-7.275889e+02
4.000000e-07	-3.994658e-06	-1.102644e-08	-2.787149e+01	-7.229203e+02
4.100000e-07	-3.922388e-06	-1.095750e-08	-2.736724e+01	-7.180703e+02
4.200000e-07	-3.848724e-06	-1.087153e-08	-2.685328e+01	-7.130952e+02
4.300000e-07	-3.773440e-06	-1.078977e-08	-2.632801e+01	-7.080443e+02
4.400000e-07	-3.696484e-06	-1.070327e-08	-2.579107e+01	-7.029367e+02
4.500000e-07	-3.618083e-06	-1.063921e-08	-2.524405e+01	-6.977517e+02
4.600000e-07	-3.538235e-06	-1.056847e-08	-2.468693e+01	-6.924366e+02
4.700000e-07	-3.456921e-06	-1.048094e-08	-2.411959e+01	-6.869289e+02
4.800000e-07	-3.374330e-06	-1.038994e-08	-2.354334e+01	-6.811827e+02
4.900000e-07	-3.290614e-06	-1.028986e-08	-2.295924e+01	-6.751878e+02
5.000000e-07	-3.205968e-06	-1.019699e-08	-2.236864e+01	-6.689724e+02
5.100000e-07	-3.120404e-06	-1.009586e-08	-2.177165e+01	-6.625885e+02
5.200000e-07	-3.033902e-06	-9.996647e-09	-2.116811e+01	-6.560864e+02
5.300000e-07	-2.946472e-06	-9.897887e-09	-2.055809e+01	-6.494899e+02
5.400000e-07	-2.858061e-06	-9.798144e-09	-1.994123e+01	-6.427843e+02
5.500000e-07	-2.768662e-06	-9.695890e-09	-1.931748e+01	-6.359211e+02
5.600000e-07	-2.678074e-06	-9.583899e-09	-1.868543e+01	-6.288393e+02
5.700000e-07	-2.586247e-06	-9.468208e-09	-1.804473e+01	-6.214926e+02
5.800000e-07	-2.493524e-06	-9.347452e-09	-1.739779e+01	-6.138696e+02
5.900000e-07	-2.400041e-06	-9.229667e-09	-1.674554e+01	-6.059982e+02
6.000000e-07	-2.305778e-06	-9.106812e-09	-1.608785e+01	-5.979301e+02
6.100000e-07	-2.210759e-06	-8.979399e-09	-1.542488e+01	-5.897130e+02
6.200000e-07	-2.114971e-06	-8.851229e-09	-1.475655e+01	-5.813625e+02
6.300000e-07	-2.018442e-06	-8.721895e-09	-1.408305e+01	-5.728469e+02
6.400000e-07	-1.921202e-06	-8.591587e-09	-1.340459e+01	-5.640935e+02
6.500000e-07	-1.823134e-06	-8.450705e-09	-1.272035e+01	-5.550145e+02
6.600000e-07	-1.724220e-06	-8.300525e-09	-1.203021e+01	-5.455415e+02
6.700000e-07	-1.624553e-06	-8.145367e-09	-1.133481e+01	-5.356537e+02
6.800000e-07	-1.524280e-06	-7.991426e-09	-1.063519e+01	-5.253859e+02
6.900000e-07	-1.423568e-06	-7.832383e-09	-9.932504e+00	-5.148106e+02
7.000000e-07	-1.322399e-06	-7.665517e-09	-9.226629e+00	-5.040012e+02
7.100000e-07	-1.220799e-06	-7.496105e-09	-8.517748e+00	-4.929912e+02
7.200000e-07	-1.118833e-06	-7.322885e-09	-7.806306e+00	-4.817483e+02
7.300000e-07	-1.016508e-06	-7.143849e-09	-7.092367e+00	-4.701752e+02
7.400000e-07	-9.138225e-07	-6.957937e-09	-6.375913e+00	-4.581407e+02
7.500000e-07	-8.107529e-07	-6.764622e-09	-5.656776e+00	-4.455272e+02
7.600000e-07	-7.073510e-07	-6.562313e-09	-4.935322e+00	-4.322755e+02
7.700000e-07	-6.037455e-07	-6.353281e-09	-4.212447e+00	-4.184054e+02
7.800000e-07	-5.000010e-07	-6.136139e-09	-3.488601e+00	-4.040003e+02
7.900000e-07	-3.961311e-07	-5.911798e-09	-2.763882e+00	-3.891592e+02
8.000000e-07	-2.921137e-07	-5.680499e-09	-2.038133e+00	-3.739350e+02
8.100000e-07	-1.879577e-07	-5.440864e-09	-1.311416e+00	-3.582859e+02
8.200000e-07	-8.374921e-08	-5.191782e-09	-5.843341e-01	-3.420628e+02
8.300000e-07	2.050316e-08	-4.930387e-09	1.430544e-01	-3.250423e+02
8.400000e-07	1.247327e-07	-4.653479e-09	8.702839e-01	-3.069954e+02
8.500000e-07	2.288799e-07	-4.359085e-09	1.596939e+00	-2.877610e+02
8.600000e-07	3.329451e-07	-4.048941e-09	2.323021e+00	-2.672911e+02
8.700000e-07	4.369100e-07	-3.722526e-09	3.048404e+00	-2.456369e+02
8.800000e-07	5.407525e-07	-3.377531e-09	3.772932e+00	-2.228709e+02
8.900000e-07	6.444492e-07	-3.010039e-09	4.496444e+00	-1.989647e+02
9.000000e-07	7.479355e-07	-2.618566e-09	5.218487e+00	-1.736682e+02
9.100000e-07	8.511324e-07	-2.196991e-09	5.938512e+00	-1.464425e+02
9.200000e-07	9.540452e-07	-1.734042e-09	6.656554e+00	-1.164917e+02
9.300000e-07	1.056588e-06	-1.217303e-09	7.372014e+00	-8.290577e+01
9.400000e-07	1.158707e-06	-6.382876e-10	8.084521e+00	-4.489296e+01
9.500000e-07	1.260483e-06	8.786188e-12	8.794631e+00	-2.040950e+00
9.600000e-07	1.361890e-06	7.296347e-10	9.502164e+00	4.546827e+01
9.700000e-07	1.462849e-06	1.516917e-09	1.020657e+01	9.676112e+01
9.800000e-07	1.563319e-06	2.344686e-09	1.090757e+01	1.503331e+02
9.900000e-07	1.663318e-06	3.173945e-09	1.160528e+01	2.042635e+02
1.000000e-06	1.762764e-06	3.969745e-09	1.229914e+01	2.565341e+02
1.010000e-06	1.861452e-06	4.703833e-09	1.298770e+01	3.053720e+02
1.020000e-06	1.959279e-06	5.359561e-09	1.367026e+01	3.495281e+02
1.030000e-06	2.056237e-06	5.935164e-09	1.434675e+01	3.884244e+02
1.040000e-06	2.152393e-06	6.438625e-09	1.501765e+01	4.221429e+02
1.050000e-06	2.247852e-06	6.882224e-09	1.568369e+01	4.512737e+02
1.060000e-06	2.342606e-06	7.274979e-09	1.634480e+01	4.766795e+02
1.070000e-06	2.436569e-06	7.623171e-09	1.700040e+01	4.992492e+02
1.080000e-06	2.529796e-06	7.932270e-09	1.765087e+01	5.197088e+02
1.090000e-06	2.622254e-06	8.212048e-09	1.829596e+01	5.385295e+02
1.100000e-06	2.713708e-06	8.469163e-09	1.893406e+01	5.559376e+02
1.110000e-06	2.804026e-06	8.706795e-09	1.956422e+01	5.719987e+02
1.120000e-06	2.893186e-06	8.927381e-09	2.018631e+01	5.867283e+02
1.130000e-06	2.981350e-06	9.130815e-09	2.080144e+01	6.001838e+02
1.140000e-06	3.068585e-06	9.318725e-09	2.141010e+01	6.125061e+02
1.150000e-06	3.154775e-06	9.496342e-09	2.201146e+01	6.239062e+02
1.160000e-06	3.239897e-06	9.664343e-09	2.260538e+01	6.346128e+02
1.170000e-06	3.324002e-06	9.818297e-09	2.319219e+01	6.448108e+02
1.180000e-06	3.407033e-06	9.961925e-09	2.377151e+01	6.545993e+02
1.190000e-06	3.488793e-06	1.010265e-08	2.434197e+01	6.639855e+02
1.200000e-06	3.569243e-06	1.023908e-08	2.490328e+01	6.729138e+02
1.210000e-06	3.648456e-06	1.036558e-08	2.545597e+01	6.813155e+02
1.220000e-06	3.726371e-06	1.048380e-08	2.599960e+01	6.891540e+02
1.230000e-06	3.802866e-06	1.059668e-08	2.653331e+01	6.964509e+02
1.240000e-06	3.877798e-06	1.070395e-08	2.705613e+01	7.032813e+02
1.250000e-06	3.951137e-06	1.080375e-08	2.756783e+01	7.097467e+02
1.260000e-06	4.023029e-06	1.089665e-08	2.806944e+01	7.159386e+02
1.270000e-06	4.093549e-06	1.098578e-08	2.856147e+01	7.219105e+02
1.280000e-06	4.162720e-06	1.107186e-08	2.904408e+01	7.276704e+02
1.290000e-06	4.230525e-06	1.115401e-08	2.951717e+01	7.331943e+02
1.300000e-06	4.296708e-06	1.123206e-08	2.997894e+01	7.384526e+02
1.310000e-06	4.361205e-06	1.130647e-08	3.042895e+01	7.434366e+02
1.320000e-06	4.424239e-06	1.137797e-08	3.086875e+01	7.481703e+02
1.330000e-06	4.485857e-06	1.144797e-08	3.129867e+01	7.527048e+02
1.340000e-06	4.546064e-06	1.151568e-08	3.171875e+01	7.570968e+02
1.350000e-06	4.604673e-06	1.158010e-08	3.212767e+01	7.613832e+02
1.360000e-06	4.661483e-06	1.164190e-08	3.252405e+01	7.655635e+02
1.370000e-06	4.716593e-06	1.170189e-08	3.290856e+01	7.696001e+02
1.380000e-06	4.769959e-06	1.175919e-08	3.328091e+01	7.734355e+02
1.390000e-06	4.821325e-06	1.181120e-08	3.363930e+01	7.770189e+02
1.400000e-06	4.870654e-06	1.185895e-08	3.398348e+01	7.803315e+02
1.410000e-06	4.918178e-06	1.190686e-08	3.431506e+01	7.833968e+02
1.420000e-06	4.964047e-06	1.195447e-08	3.463509e+01	7.862723e+02
1.430000e-06	5.008277e-06	1.199675e-08	3.494370e+01	7.890262e+02
1.440000e-06	5.050649e-06	1.203485e-08	3.523934e+01	7.917080e+02
1.450000e-06	5.091138e-06	1.207401e-08	3.552183e+01	7.943273e+02
1.460000e-06	5.129931e-06	1.211261e-08	3.579250e+01	7.968502e+02
1.470000e-06	5.167037e-06	1.214702e-08	3.605140e+01	7.992144e+02
1.480000e-06	5.202371e-06	1.217813e-08	3.629792e+01	8.013579e+02
1.490000e-06	5.235739e-06	1.220808e-08	3.653074e+01	8.032473e+02
1.500000e-06	5.267276e-06	1.223448e-08	3.675078e+01	8.048953e+02
1.510000e-06	5.297191e-06	1.225517e-08	3.695951e+01	8.063578e+02
1.520000e-06	5.325368e-06	1.227349e-08	3.715610e+01	8.077119e+02
1.530000e-06	5.351425e-06	1.229452e-08	3.733790e+01	8.090255e+02
1.540000e-06	5.375350e-06	1.231792e-08	3.750483e+01	8.103297e+02
1.550000e-06	5.397469e-06	1.233834e-08	3.765916e+01	8.116063e+02
1.560000e-06	5.417862e-06	1.235220e-08	3.780145e+01	8.127964e+02
1.570000e-06	5.436380e-06	1.236331e-08	3.793065e+01	8.138262e+02
1.580000e-06	5.452903e-06	1.237614e-08	3.804593e+01	8.146382e+02
1.590000e-06	5.467454e-06	1.238705e-08	3.814746e+01	8.152164e+02
1.600000e-06	5.479947e-06	1.239178e-08	3.823463e+01	8.155929e+02
1.610000e-06	5.490237e-06	1.239488e-08	3.830642e+01	8.158352e+02
1.620000e-06	5.498438e-06	1.240330e-08	3.836364e+01	8.160181e+02
1.630000e-06	5.504758e-06	1.241399e-08	3.840774e+01	8.161940e+02
1.640000e-06	5.509266e-06	1.241794e-08	3.843919e+01	8.163721e+02
1.650000e-06	5.511767e-06	1.241497e-08	3.845664e+01	8.165178e+02
1.660000e-06	5.512248e-06	1.241391e-08	3.846000e+01	8.165688e+02
1.670000e-06	5.510950e-06	1.241234e-08	3.845094e+01	8.164639e+02
1.680000e-06	5.507946e-06	1.240716e-08	3.842998e+01	8.161688e+02
1.690000e-06	5.503084e-06	1.239707e-08	3.839606e+01	8.156904e+02
1.700000e-06	5.496294e-06	1.238540e-08	3.834868e+01	8.150717e+02
1.710000e-06	5.487844e-06	1.237924e-08	3.828972e+01	8.143712e+02
1.720000e-06	5.477773e-06	1.237721e-08	3.821946e+01	8.136357e+02
1.730000e-06	5.465776e-06	1.238198e-08	3.813575e+01	8.128790e+02
1.740000e-06	5.451678e-06	1.236509e-08	3.803739e+01	8.120766e+02
1.750000e-06	5.435596e-06	1.228421e-08	3.792518e+01	8.111773e+02
1.760000e-06	5.417118e-06	1.226105e-08	3.779626e+01	8.101285e+02
1.770000e-06	5.395780e-06	1.226192e-08	3.764737e+01	8.089026e+02
1.780000e-06	5.372228e-06	1.227168e-08	3.748305e+01	8.075119e+02
1.790000e-06	5.347549e-06	1.232393e-08	3.731086e+01	8.060071e+02
1.800000e-06	5.322181e-06	1.219281e-08	3.713386e+01	8.044563e+02
1.810000e-06	5.295151e-06	1.217028e-08	3.694527e+01	8.029159e+02
1.820000e-06	5.265614e-06	1.226648e-08	3.673918e+01	8.014040e+02
1.830000e-06	5.234376e-06	1.213389e-08	3.652123e+01	7.998885e+02
1.840000e-06	5.201483e-06	1.216309e-08	3.629173e+01	7.982958e+02
1.850000e-06	5.166727e-06	1.220412e-08	3.604923e+01	7.965370e+02
1.860000e-06	5.130374e-06	1.205497e-08	3.579559e+01	7.945407e+02
1.870000e-06	5.091965e-06	1.212531e-08	3.552760e+01	7.922795e+02
1.880000e-06	5.051706e-06	1.208434e-08	3.524671e+01	7.897790e+02
1.890000e-06	5.009916e-06	1.196537e-08	3.495513e+01	7.871063e+02
1.900000e-06	4.966258e-06	1.200390e-08	3.465052e+01	7.843416e+02
1.910000e-06	4.920831e-06	1.188160e-08	3.433357e+01	7.815468e+02
1.920000e-06	4.873507e-06	1.189679e-08	3.400338e+01	7.787416e+02
1.930000e-06	4.824317e-06	1.189285e-08	3.366017e+01	7.758987e+02
1.940000e-06	4.773496e-06	1.174182e-08	3.330558e+01	7.729585e+02
1.950000e-06	4.720541e-06	1.177487e-08	3.293611e+01	7.698565e+02
1.960000e-06	4.665657e-06	1.169047e-08	3.255317e+01	7.665517e+02
1.970000e-06	4.609154e-06	1.162554e-08	3.215894e+01	7.630438e+02
1.980000e-06	4.551023e-06	1.158399e-08	3.175335e+01	7.593711e+02
1.990000e-06	4.491398e-06	1.149978e-08	3.133734e+01	7.555927e+02
2.000000e-06	4.429996e-06	1.151267e-08	3.090892e+01	7.517604e+02
2.010000e-06	4.366983e-06	1.141289e-08	3.046927e+01	7.478951e+02
2.020000e-06	4.302482e-06	1.137629e-08	3.001923e+01	7.439770e+02
2.030000e-06	4.236480e-06	1.129825e-08	2.955872e+01	7.399539e+02
2.040000e-06	4.169106e-06	1.119736e-08	2.908864e+01	7.357636e+02
2.050000e-06	4.099907e-06	1.118051e-08	2.860582e+01	7.313610e+02
2.060000e-06	4.029048e-06	1.107180e-08	2.811143e+01	7.267371e+02
2.070000e-06	3.956909e-06	1.103098e-08	2.760810e+01	7.219215e+02
2.080000e-06	3.883483e-06	1.094562e-08	2.709580e+01	7.169684e+02
2.090000e-06	3.808614e-06	1.087407e-08	2.657342e+01	7.119308e+02
2.100000e-06	3.731993e-06	1.081403e-08	2.603882e+01	7.068357e+02
2.110000e-06	3.653748e-06	1.069882e-08	2.549289e+01	7.016709e+02
2.120000e-06	3.574225e-06	1.063802e-08	2.493805e+01	6.963890e+02
2.130000e-06	3.493586e-06	1.053647e-08	2.437541e+01	6.909272e+02
2.140000e-06	3.411780e-06	1.046679e-08	2.380463e+01	6.852343e+02
2.150000e-06	3.328882e-06	1.037617e-08	2.322624e+01	6.792915e+02
2.160000e-06	3.244771e-06	1.027802e-08	2.263938e+01	6.731195e+02
2.170000e-06	3.159245e-06	1.019175e-08	2.204265e+01	6.667669e+02
2.180000e-06	3.072518e-06	1.008586e-08	2.143754e+01	6.602868e+02
2.190000e-06	2.984804e-06	9.996088e-09	2.082555e+01	6.537105e+02
2.200000e-06	2.896120e-06	9.881577e-09	2.020678e+01	6.470314e+02
2.210000e-06	2.806431e-06	9.783540e-09	1.958100e+01	6.402070e+02
2.220000e-06	2.715858e-06	9.677167e-09	1.894905e+01	6.331768e+02
2.230000e-06	2.624430e-06	9.568359e-09	1.831114e+01	6.258891e+02
2.240000e-06	2.532033e-06	9.453548e-09	1.766647e+01	6.183242e+02
2.250000e-06	2.438587e-06	9.331067e-09	1.701448e+01	6.105020e+02
2.260000e-06	2.344095e-06	9.214397e-09	1.635519e+01	6.024714e+02
2.270000e-06	2.248815e-06	9.089590e-09	1.569040e+01	5.942835e+02
2.280000e-06	2.152846e-06	8.971121e-09	1.502082e+01	5.859626e+02
2.290000e-06	2.056157e-06	8.840941e-09	1.434620e+01	5.774873e+02
2.300000e-06	1.958785e-06	8.709399e-09	1.366681e+01	5.687922e+02
2.310000e-06	1.860769e-06	8.570642e-09	1.298294e+01	5.597898e+02
2.320000e-06	1.762203e-06	8.424693e-09	1.229523e+01	5.504049e+02
2.330000e-06	1.663162e-06	8.272786e-09	1.160420e+01	5.406048e+02
2.340000e-06	1.563643e-06	8.118164e-09	1.090983e+01	5.304131e+02
2.350000e-06	1.463569e-06	7.968124e-09	1.021160e+01	5.198969e+02
2.360000e-06	1.362850e-06	7.809764e-09	9.508862e+00	5.091328e+02
2.370000e-06	1.261419e-06	7.644368e-09	8.801161e+00	4.981661e+02
2.380000e-06	1.159420e-06	7.469930e-09	8.089494e+00	4.869793e+02
2.390000e-06	1.056944e-06	7.292916e-09	7.374498e+00	4.754875e+02
2.400000e-06	9.540544e-07	7.110753e-09	6.656618e+00	4.635630e+02
2.410000e-06	8.508390e-07	6.919193e-09	5.936465e+00	4.510810e+02
2.420000e-06	7.473124e-07	6.720241e-09	5.214140e+00	4.379670e+02
2.430000e-06	6.435537e-07	6.511765e-09	4.490196e+00	4.242240e+02
2.440000e-06	5.396168e-07	6.294634e-09	3.765008e+00	4.099248e+02
2.450000e-06	4.355588e-07	6.070860e-09	3.038976e+00	3.951701e+02
2.460000e-06	3.313441e-07	5.840059e-09	2.311850e+00	3.800278e+02
2.470000e-06	2.269859e-07	5.602806e-09	1.583723e+00	3.644788e+02
2.480000e-06	1.225890e-07	5.357021e-09	8.553267e-01	3.483958e+02
2.490000e-06	1.817496e-08	5.096583e-09	1.268102e-01	3.315664e+02
2.500000e-06	-8.625673e-08	4.820468e-09	-6.018295e-01	3.137562e+02
2.510000e-06	-1.906782e-07	4.529651e-09	-1.330398e+00	2.947844e+02
2.520000e-06	-2.950123e-07	4.225597e-09	-2.058357e+00	2.745775e+02
2.530000e-06	-3.992048e-07	3.908162e-09	-2.785327e+00	2.531700e+02
2.540000e-06	-5.032330e-07	3.571845e-09	-3.511152e+00	2.306391e+02
2.550000e-06	-6.071213e-07	3.212344e-09	-4.236000e+00	2.069892e+02
2.560000e-06	-7.108546e-07	2.828039e-09	-4.959767e+00	1.820258e+02
2.570000e-06	-8.143276e-07	2.413598e-09	-5.681718e+00	1.552732e+02
2.580000e-06	-9.174043e-07	1.962228e-09	-6.400903e+00	1.259821e+02
2.590000e-06	-1.020124e-06	1.465137e-09	-7.117596e+00	9.324976e+01
2.600000e-06	-1.122447e-06	9.086121e-10	-7.831528e+00	5.623700e+01
2.610000e-06	-1.224246e-06	2.830932e-10	-8.541793e+00	1.442931e+01
2.620000e-06	-1.325515e-06	-4.123384e-10	-9.248366e+00	-3.213176e+01
2.630000e-06	-1.426211e-06	-1.176803e-09	-9.950941e+00	-8.272135e+01
2.640000e-06	-1.526317e-06	-1.998209e-09	-1.064940e+01	-1.359569e+02
2.650000e-06	-1.625865e-06	-2.841524e-09	-1.134397e+01	-1.899824e+02
2.660000e-06	-1.724821e-06	-3.659850e-09	-1.203440e+01	-2.427712e+02
2.670000e-06	-1.823169e-06	-4.418248e-09	-1.272059e+01	-2.924711e+02
2.680000e-06	-1.920949e-06	-5.103673e-09	-1.340282e+01	-3.377029e+02
2.690000e-06	-2.018100e-06	-5.713175e-09	-1.408066e+01	-3.777404e+02
2.700000e-06	-2.114601e-06	-6.249118e-09	-1.475397e+01	-4.125329e+02
2.710000e-06	-2.210459e-06	-6.716585e-09	-1.542279e+01	-4.425796e+02
2.720000e-06	-2.305659e-06	-7.125199e-09	-1.608702e+01	-4.687063e+02
2.730000e-06	-2.400127e-06	-7.488977e-09	-1.674614e+01	-4.918150e+02
2.740000e-06	-2.493602e-06	-7.815607e-09	-1.739833e+01	-5.126779e+02
2.750000e-06	-2.585982e-06	-8.109840e-09	-1.804288e+01	-5.318233e+02
2.760000e-06	-2.677367e-06	-8.376281e-09	-1.868050e+01	-5.495249e+02
2.770000e-06	-2.767806e-06	-8.620102e-09	-1.931150e+01	-5.658733e+02
2.780000e-06	-2.857260e-06	-8.849282e-09	-1.993564e+01	-5.808859e+02
2.790000e-06	-2.945719e-06	-9.064715e-09	-2.055284e+01	-5.946056e+02
2.800000e-06	-3.033211e-06	-9.261819e-09	-2.116329e+01	-6.071547e+02
2.810000e-06	-3.119661e-06	-9.441833e-09	-2.176646e+01	-6.187328e+02
2.820000e-06	-3.204933e-06	-9.610575e-09	-2.236143e+01	-6.295702e+02
2.830000e-06	-3.288916e-06	-9.770699e-09	-2.294739e+01	-6.398656e+02
2.840000e-06	-3.371713e-06	-9.920904e-09	-2.352508e+01	-6.497384e+02
2.850000e-06	-3.453427e-06	-1.006206e-08	-2.409521e+01	-6.592140e+02
2.860000e-06	-3.534008e-06	-1.019637e-08	-2.465744e+01	-6.682467e+02
2.870000e-06	-3.613403e-06	-1.032325e-08	-2.521140e+01	-6.767660e+02
2.880000e-06	-3.691427e-06	-1.044294e-08	-2.575579e+01	-6.847255e+02
2.890000e-06	-3.767920e-06	-1.055830e-08	-2.628949e+01	-6.921337e+02
2.900000e-06	-3.842859e-06	-1.067109e-08	-2.681235e+01	-6.990559e+02
2.910000e-06	-3.916384e-06	-1.077661e-08	-2.732535e+01	-7.055910e+02
2.920000e-06	-3.988626e-06	-1.087111e-08	-2.782940e+01	-7.118355e+02
2.930000e-06	-4.059537e-06	-1.095898e-08	-2.832416e+01	-7.178524e+02
2.940000e-06	-4.128943e-06	-1.104662e-08	-2.880841e+01	-7.236591e+02
