# Temperatura_=_31.12
# Concentracion g/m^3_=_13400.0
# C_Vs_to_Am_M_A/Vsm_=_65563218390.804596
# pendiente_HvsI_1/m_=_3716.3
# ordenada_HvsI_A/m_=_1297.0
# frecuencia_Hz_=_300814.02492540155

Tiempo_(s)	Campo_(V.s)	Magnetizacion_(V.s)	Campo_(kA/m)	Magnetizacion_(A/m)
0.000000e+00	-5.506518e-06	-1.211145e-08	-3.830500e+01	-7.924049e+02
1.000000e-08	-5.505230e-06	-1.211281e-08	-3.829604e+01	-7.923866e+02
2.000000e-08	-5.501927e-06	-1.211104e-08	-3.827307e+01	-7.922082e+02
3.000000e-08	-5.496767e-06	-1.210600e-08	-3.823717e+01	-7.918419e+02
4.000000e-08	-5.489977e-06	-1.209999e-08	-3.818994e+01	-7.913003e+02
5.000000e-08	-5.481591e-06	-1.209006e-08	-3.813160e+01	-7.906284e+02
6.000000e-08	-5.471285e-06	-1.207398e-08	-3.805991e+01	-7.898825e+02
7.000000e-08	-5.458831e-06	-1.205438e-08	-3.797328e+01	-7.891060e+02
8.000000e-08	-5.444399e-06	-1.204204e-08	-3.787288e+01	-7.883115e+02
9.000000e-08	-5.427681e-06	-1.205758e-08	-3.775659e+01	-7.874787e+02
1.000000e-07	-5.408619e-06	-1.206157e-08	-3.762399e+01	-7.865665e+02
1.100000e-07	-5.387554e-06	-1.202817e-08	-3.747745e+01	-7.855340e+02
1.200000e-07	-5.364603e-06	-1.199943e-08	-3.731780e+01	-7.843607e+02
1.300000e-07	-5.340061e-06	-1.194949e-08	-3.714707e+01	-7.830562e+02
1.400000e-07	-5.314082e-06	-1.190757e-08	-3.696636e+01	-7.816558e+02
1.500000e-07	-5.286349e-06	-1.194367e-08	-3.677344e+01	-7.802025e+02
1.600000e-07	-5.256843e-06	-1.189566e-08	-3.656818e+01	-7.787253e+02
1.700000e-07	-5.225812e-06	-1.184670e-08	-3.635232e+01	-7.772226e+02
1.800000e-07	-5.192922e-06	-1.188575e-08	-3.612353e+01	-7.756584e+02
1.900000e-07	-5.157942e-06	-1.181831e-08	-3.588020e+01	-7.739740e+02
2.000000e-07	-5.121304e-06	-1.176816e-08	-3.562534e+01	-7.721102e+02
2.100000e-07	-5.083013e-06	-1.175426e-08	-3.535897e+01	-7.700302e+02
2.200000e-07	-5.042890e-06	-1.168224e-08	-3.507986e+01	-7.677343e+02
2.300000e-07	-5.000888e-06	-1.167721e-08	-3.478768e+01	-7.652593e+02
2.400000e-07	-4.956864e-06	-1.167215e-08	-3.448144e+01	-7.626638e+02
2.500000e-07	-4.911030e-06	-1.161372e-08	-3.416261e+01	-7.600040e+02
2.600000e-07	-4.863441e-06	-1.157184e-08	-3.383156e+01	-7.573123e+02
2.700000e-07	-4.813870e-06	-1.150013e-08	-3.348673e+01	-7.545855e+02
2.800000e-07	-4.762210e-06	-1.144712e-08	-3.312737e+01	-7.517889e+02
2.900000e-07	-4.708572e-06	-1.141976e-08	-3.275425e+01	-7.488727e+02
3.000000e-07	-4.653247e-06	-1.137786e-08	-3.236939e+01	-7.457942e+02
3.100000e-07	-4.596297e-06	-1.133302e-08	-3.197323e+01	-7.425354e+02
3.200000e-07	-4.537590e-06	-1.129383e-08	-3.156485e+01	-7.391096e+02
3.300000e-07	-4.477209e-06	-1.124736e-08	-3.114482e+01	-7.355525e+02
3.400000e-07	-4.415276e-06	-1.116263e-08	-3.071399e+01	-7.319053e+02
3.500000e-07	-4.351876e-06	-1.109067e-08	-3.027296e+01	-7.281940e+02
3.600000e-07	-4.286985e-06	-1.103333e-08	-2.982156e+01	-7.244179e+02
3.700000e-07	-4.220433e-06	-1.097339e-08	-2.935860e+01	-7.205495e+02
3.800000e-07	-4.152202e-06	-1.092983e-08	-2.888397e+01	-7.165474e+02
3.900000e-07	-4.082454e-06	-1.087040e-08	-2.839878e+01	-7.123755e+02
4.000000e-07	-4.011426e-06	-1.080127e-08	-2.790469e+01	-7.080189e+02
4.100000e-07	-3.939122e-06	-1.073362e-08	-2.740172e+01	-7.034906e+02
4.200000e-07	-3.865323e-06	-1.065511e-08	-2.688835e+01	-6.988239e+02
4.300000e-07	-3.789926e-06	-1.057061e-08	-2.636387e+01	-6.940558e+02
4.400000e-07	-3.712940e-06	-1.048733e-08	-2.582833e+01	-6.892073e+02
4.500000e-07	-3.634445e-06	-1.042162e-08	-2.528229e+01	-6.842708e+02
4.600000e-07	-3.554454e-06	-1.035606e-08	-2.472586e+01	-6.792105e+02
4.700000e-07	-3.473009e-06	-1.027942e-08	-2.415930e+01	-6.739759e+02
4.800000e-07	-3.390283e-06	-1.019148e-08	-2.358383e+01	-6.685227e+02
4.900000e-07	-3.306478e-06	-1.009464e-08	-2.300086e+01	-6.628325e+02
5.000000e-07	-3.221729e-06	-1.000097e-08	-2.241132e+01	-6.569204e+02
5.100000e-07	-3.135997e-06	-9.906578e-09	-2.181494e+01	-6.508292e+02
5.200000e-07	-3.049317e-06	-9.812853e-09	-2.121197e+01	-6.446101e+02
5.300000e-07	-2.961686e-06	-9.717987e-09	-2.060238e+01	-6.382991e+02
5.400000e-07	-2.873014e-06	-9.621740e-09	-1.998555e+01	-6.318996e+02
5.500000e-07	-2.783223e-06	-9.524781e-09	-1.936094e+01	-6.253790e+02
5.600000e-07	-2.692306e-06	-9.420069e-09	-1.872849e+01	-6.186803e+02
5.700000e-07	-2.600387e-06	-9.308697e-09	-1.808908e+01	-6.117451e+02
5.800000e-07	-2.507560e-06	-9.195992e-09	-1.744334e+01	-6.045372e+02
5.900000e-07	-2.413872e-06	-9.084333e-09	-1.679162e+01	-5.970552e+02
6.000000e-07	-2.319390e-06	-8.967563e-09	-1.613437e+01	-5.893300e+02
6.100000e-07	-2.224146e-06	-8.844121e-09	-1.547183e+01	-5.814058e+02
6.200000e-07	-2.128129e-06	-8.716317e-09	-1.480391e+01	-5.733155e+02
6.300000e-07	-2.031291e-06	-8.585181e-09	-1.413027e+01	-5.650586e+02
6.400000e-07	-1.933618e-06	-8.453822e-09	-1.345083e+01	-5.565960e+02
6.500000e-07	-1.835179e-06	-8.321540e-09	-1.276606e+01	-5.478611e+02
6.600000e-07	-1.736007e-06	-8.185750e-09	-1.207619e+01	-5.387861e+02
6.700000e-07	-1.636161e-06	-8.043320e-09	-1.138163e+01	-5.293297e+02
6.800000e-07	-1.535746e-06	-7.895562e-09	-1.068311e+01	-5.194939e+02
6.900000e-07	-1.434784e-06	-7.739229e-09	-9.980789e+00	-5.093214e+02
7.000000e-07	-1.333315e-06	-7.573981e-09	-9.274939e+00	-4.988723e+02
7.100000e-07	-1.231416e-06	-7.405814e-09	-8.566099e+00	-4.881899e+02
7.200000e-07	-1.129122e-06	-7.234933e-09	-7.854513e+00	-4.772703e+02
7.300000e-07	-1.026467e-06	-7.062720e-09	-7.140411e+00	-4.660506e+02
7.400000e-07	-9.234669e-07	-6.890973e-09	-6.423914e+00	-4.544224e+02
7.500000e-07	-8.201492e-07	-6.712044e-09	-5.705205e+00	-4.422672e+02
7.600000e-07	-7.164858e-07	-6.517297e-09	-4.984091e+00	-4.294991e+02
7.700000e-07	-6.125484e-07	-6.308692e-09	-4.261071e+00	-4.160963e+02
7.800000e-07	-5.084705e-07	-6.092465e-09	-3.537074e+00	-4.021048e+02
7.900000e-07	-4.042553e-07	-5.872340e-09	-2.812122e+00	-3.876118e+02
8.000000e-07	-2.999314e-07	-5.647100e-09	-2.086413e+00	-3.726950e+02
8.100000e-07	-1.955078e-07	-5.413326e-09	-1.360011e+00	-3.573709e+02
8.200000e-07	-9.103635e-08	-5.170909e-09	-6.332763e-01	-3.415628e+02
8.300000e-07	1.343022e-08	-4.919788e-09	9.342470e-02	-3.251067e+02
8.400000e-07	1.179280e-07	-4.655500e-09	8.203431e-01	-3.077952e+02
8.500000e-07	2.223866e-07	-4.375857e-09	1.546988e+00	-2.894413e+02
8.600000e-07	3.267621e-07	-4.082118e-09	2.273056e+00	-2.699354e+02
8.700000e-07	4.310347e-07	-3.771032e-09	2.998407e+00	-2.492643e+02
8.800000e-07	5.351631e-07	-3.440008e-09	3.722756e+00	-2.274744e+02
8.900000e-07	6.391415e-07	-3.088694e-09	4.446061e+00	-2.045842e+02
9.000000e-07	7.429307e-07	-2.717497e-09	5.168050e+00	-1.804743e+02
9.100000e-07	8.464237e-07	-2.322239e-09	5.887979e+00	-1.547985e+02
9.200000e-07	9.496095e-07	-1.891567e-09	6.605770e+00	-1.269614e+02
9.300000e-07	1.052488e-06	-1.415384e-09	7.321423e+00	-9.619131e+01
9.400000e-07	1.154973e-06	-8.894501e-10	8.034340e+00	-6.170565e+01
9.500000e-07	1.257076e-06	-3.060864e-10	8.744597e+00	-2.293454e+01
9.600000e-07	1.358774e-06	3.461449e-10	9.452041e+00	2.025860e+01
9.700000e-07	1.460005e-06	1.067764e-09	1.015624e+01	6.742685e+01
9.800000e-07	1.560762e-06	1.841321e-09	1.085713e+01	1.175129e+02
9.900000e-07	1.661059e-06	2.635862e-09	1.155483e+01	1.689649e+02
1.000000e-06	1.760841e-06	3.419046e-09	1.224894e+01	2.199739e+02
1.010000e-06	1.859932e-06	4.160632e-09	1.293825e+01	2.687745e+02
1.020000e-06	1.958105e-06	4.837366e-09	1.362117e+01	3.139328e+02
1.030000e-06	2.055346e-06	5.438725e-09	1.429761e+01	3.545497e+02
1.040000e-06	2.151821e-06	5.968704e-09	1.496872e+01	3.903333e+02
1.050000e-06	2.247607e-06	6.439516e-09	1.563503e+01	4.215340e+02
1.060000e-06	2.342702e-06	6.860268e-09	1.629654e+01	4.487742e+02
1.070000e-06	2.437028e-06	7.232392e-09	1.695270e+01	4.728301e+02
1.080000e-06	2.530480e-06	7.561135e-09	1.760279e+01	4.944325e+02
1.090000e-06	2.623145e-06	7.857409e-09	1.824739e+01	5.141343e+02
1.100000e-06	2.715028e-06	8.129145e-09	1.888655e+01	5.322686e+02
1.110000e-06	2.805819e-06	8.379203e-09	1.951812e+01	5.489877e+02
1.120000e-06	2.895375e-06	8.607638e-09	2.014110e+01	5.643487e+02
1.130000e-06	2.983871e-06	8.817115e-09	2.075671e+01	5.784045e+02
1.140000e-06	3.071403e-06	9.011821e-09	2.136561e+01	5.912631e+02
1.150000e-06	3.157923e-06	9.194498e-09	2.196747e+01	6.030996e+02
1.160000e-06	3.243345e-06	9.365048e-09	2.256169e+01	6.141253e+02
1.170000e-06	3.327771e-06	9.520937e-09	2.314898e+01	6.245347e+02
1.180000e-06	3.411135e-06	9.668534e-09	2.372889e+01	6.344588e+02
1.190000e-06	3.493170e-06	9.815124e-09	2.429954e+01	6.439446e+02
1.200000e-06	3.573878e-06	9.954847e-09	2.486097e+01	6.529679e+02
1.210000e-06	3.653308e-06	1.008239e-08	2.541351e+01	6.614720e+02
1.220000e-06	3.731432e-06	1.020071e-08	2.595696e+01	6.694136e+02
1.230000e-06	3.808213e-06	1.031441e-08	2.649108e+01	6.767958e+02
1.240000e-06	3.883549e-06	1.042045e-08	2.701514e+01	6.836768e+02
1.250000e-06	3.957282e-06	1.051651e-08	2.752805e+01	6.901519e+02
1.260000e-06	4.029528e-06	1.060664e-08	2.803061e+01	6.963215e+02
1.270000e-06	4.100428e-06	1.069810e-08	2.852381e+01	7.022581e+02
1.280000e-06	4.169941e-06	1.078895e-08	2.900737e+01	7.079894e+02
1.290000e-06	4.238057e-06	1.087139e-08	2.948120e+01	7.135024e+02
1.300000e-06	4.304590e-06	1.094666e-08	2.994403e+01	7.187648e+02
1.310000e-06	4.369463e-06	1.101987e-08	3.039530e+01	7.237529e+02
1.320000e-06	4.432839e-06	1.109228e-08	3.083617e+01	7.284720e+02
1.330000e-06	4.494733e-06	1.116082e-08	3.126672e+01	7.329599e+02
1.340000e-06	4.555201e-06	1.122410e-08	3.168735e+01	7.372726e+02
1.350000e-06	4.614057e-06	1.128572e-08	3.209678e+01	7.414592e+02
1.360000e-06	4.671103e-06	1.134894e-08	3.249360e+01	7.455388e+02
1.370000e-06	4.726460e-06	1.141045e-08	3.287868e+01	7.494907e+02
1.380000e-06	4.780139e-06	1.146594e-08	3.325209e+01	7.532627e+02
1.390000e-06	4.831875e-06	1.151471e-08	3.361198e+01	7.567952e+02
1.400000e-06	4.881498e-06	1.155960e-08	3.395717e+01	7.600491e+02
1.410000e-06	4.929259e-06	1.160393e-08	3.428941e+01	7.630272e+02
1.420000e-06	4.975379e-06	1.164794e-08	3.461023e+01	7.657763e+02
1.430000e-06	5.019901e-06	1.168806e-08	3.491995e+01	7.683715e+02
1.440000e-06	5.062554e-06	1.172583e-08	3.521665e+01	7.708866e+02
1.450000e-06	5.103268e-06	1.176535e-08	3.549987e+01	7.733645e+02
1.460000e-06	5.142319e-06	1.180178e-08	3.577152e+01	7.758002e+02
1.470000e-06	5.179755e-06	1.183250e-08	3.603194e+01	7.781436e+02
1.480000e-06	5.215405e-06	1.186090e-08	3.627993e+01	7.803207e+02
1.490000e-06	5.249024e-06	1.188897e-08	3.651379e+01	7.822666e+02
1.500000e-06	5.280733e-06	1.191677e-08	3.673437e+01	7.839530e+02
1.510000e-06	5.310761e-06	1.194199e-08	3.694326e+01	7.854021e+02
1.520000e-06	5.339080e-06	1.196320e-08	3.714025e+01	7.866785e+02
1.530000e-06	5.365354e-06	1.198231e-08	3.732302e+01	7.878638e+02
1.540000e-06	5.389514e-06	1.200137e-08	3.749108e+01	7.890238e+02
1.550000e-06	5.411839e-06	1.201731e-08	3.764638e+01	7.901826e+02
1.560000e-06	5.432498e-06	1.202790e-08	3.779009e+01	7.913143e+02
1.570000e-06	5.451320e-06	1.203788e-08	3.792102e+01	7.923546e+02
1.580000e-06	5.468060e-06	1.205269e-08	3.803748e+01	7.932296e+02
1.590000e-06	5.482790e-06	1.206824e-08	3.813994e+01	7.938866e+02
1.600000e-06	5.495470e-06	1.207867e-08	3.822815e+01	7.943172e+02
1.610000e-06	5.505924e-06	1.208460e-08	3.830087e+01	7.945614e+02
1.620000e-06	5.514272e-06	1.208978e-08	3.835894e+01	7.946909e+02
1.630000e-06	5.520742e-06	1.209407e-08	3.840395e+01	7.947816e+02
1.640000e-06	5.525416e-06	1.209296e-08	3.843646e+01	7.948831e+02
1.650000e-06	5.528121e-06	1.208965e-08	3.845528e+01	7.950010e+02
1.660000e-06	5.528800e-06	1.209102e-08	3.846000e+01	7.950968e+02
1.670000e-06	5.527704e-06	1.209496e-08	3.845237e+01	7.951060e+02
1.680000e-06	5.524898e-06	1.209653e-08	3.843286e+01	7.949659e+02
1.690000e-06	5.520220e-06	1.209395e-08	3.840031e+01	7.946404e+02
1.700000e-06	5.513605e-06	1.208781e-08	3.835430e+01	7.941337e+02
1.710000e-06	5.505276e-06	1.208002e-08	3.829636e+01	7.934852e+02
1.720000e-06	5.495322e-06	1.206834e-08	3.822712e+01	7.927510e+02
1.730000e-06	5.483491e-06	1.205820e-08	3.814482e+01	7.919790e+02
1.740000e-06	5.469624e-06	1.204045e-08	3.804835e+01	7.911893e+02
1.750000e-06	5.453760e-06	1.199420e-08	3.793800e+01	7.903680e+02
1.760000e-06	5.435399e-06	1.197530e-08	3.781028e+01	7.894769e+02
1.770000e-06	5.414147e-06	1.197423e-08	3.766244e+01	7.884731e+02
1.780000e-06	5.390644e-06	1.198126e-08	3.749894e+01	7.873304e+02
1.790000e-06	5.365929e-06	1.201818e-08	3.732702e+01	7.860520e+02
1.800000e-06	5.340497e-06	1.193925e-08	3.715011e+01	7.846687e+02
1.810000e-06	5.313482e-06	1.188657e-08	3.696218e+01	7.832238e+02
1.820000e-06	5.284073e-06	1.193254e-08	3.675761e+01	7.817509e+02
1.830000e-06	5.252942e-06	1.185317e-08	3.654105e+01	7.802558e+02
1.840000e-06	5.220166e-06	1.183819e-08	3.631305e+01	7.787095e+02
1.850000e-06	5.185466e-06	1.186750e-08	3.607167e+01	7.770564e+02
1.860000e-06	5.149058e-06	1.178828e-08	3.581840e+01	7.752355e+02
1.870000e-06	5.110579e-06	1.180651e-08	3.555073e+01	7.732034e+02
1.880000e-06	5.070223e-06	1.177634e-08	3.527000e+01	7.709520e+02
1.890000e-06	5.028367e-06	1.168011e-08	3.497883e+01	7.685112e+02
1.900000e-06	4.984677e-06	1.167963e-08	3.467492e+01	7.659365e+02
1.910000e-06	4.939250e-06	1.160632e-08	3.435891e+01	7.632869e+02
1.920000e-06	4.891996e-06	1.158605e-08	3.403020e+01	7.606013e+02
1.930000e-06	4.842817e-06	1.159357e-08	3.368810e+01	7.578843e+02
1.940000e-06	4.791934e-06	1.150122e-08	3.333414e+01	7.551070e+02
1.950000e-06	4.738996e-06	1.147811e-08	3.296588e+01	7.522208e+02
1.960000e-06	4.684157e-06	1.142851e-08	3.258441e+01	7.491798e+02
1.970000e-06	4.627648e-06	1.135550e-08	3.219132e+01	7.459599e+02
1.980000e-06	4.569475e-06	1.130211e-08	3.178665e+01	7.425676e+02
1.990000e-06	4.509763e-06	1.124700e-08	3.137127e+01	7.390353e+02
2.000000e-06	4.448297e-06	1.122961e-08	3.094369e+01	7.354047e+02
2.010000e-06	4.385224e-06	1.116667e-08	3.050494e+01	7.317064e+02
2.020000e-06	4.320621e-06	1.111513e-08	3.005554e+01	7.279460e+02
2.030000e-06	4.254498e-06	1.105213e-08	2.959557e+01	7.241009e+02
2.040000e-06	4.186966e-06	1.096863e-08	2.912580e+01	7.201312e+02
2.050000e-06	4.117705e-06	1.091738e-08	2.864400e+01	7.159981e+02
2.060000e-06	4.046819e-06	1.083634e-08	2.815089e+01	7.116812e+02
2.070000e-06	3.974569e-06	1.077734e-08	2.764830e+01	7.071876e+02
2.080000e-06	3.900947e-06	1.071741e-08	2.713617e+01	7.025475e+02
2.090000e-06	3.825809e-06	1.065203e-08	2.661348e+01	6.977988e+02
2.100000e-06	3.748966e-06	1.058608e-08	2.607894e+01	6.929674e+02
2.110000e-06	3.670611e-06	1.049599e-08	2.553388e+01	6.880522e+02
2.120000e-06	3.590920e-06	1.041834e-08	2.497952e+01	6.830227e+02
2.130000e-06	3.510031e-06	1.033473e-08	2.441683e+01	6.778299e+02
2.140000e-06	3.428055e-06	1.025563e-08	2.384659e+01	6.724265e+02
2.150000e-06	3.344966e-06	1.017313e-08	2.326859e+01	6.667872e+02
2.160000e-06	3.260633e-06	1.008688e-08	2.268195e+01	6.609200e+02
2.170000e-06	3.174953e-06	1.000112e-08	2.208593e+01	6.548630e+02
2.180000e-06	3.088064e-06	9.905438e-09	2.148151e+01	6.486677e+02
2.190000e-06	3.000125e-06	9.809167e-09	2.086977e+01	6.423750e+02
2.200000e-06	2.911199e-06	9.707257e-09	2.025118e+01	6.359964e+02
2.210000e-06	2.821310e-06	9.609979e-09	1.962589e+01	6.295063e+02
2.220000e-06	2.730533e-06	9.512500e-09	1.899441e+01	6.228512e+02
2.230000e-06	2.638860e-06	9.407585e-09	1.835671e+01	6.159711e+02
2.240000e-06	2.546212e-06	9.295368e-09	1.771222e+01	6.088232e+02
2.250000e-06	2.452550e-06	9.180985e-09	1.706068e+01	6.013985e+02
2.260000e-06	2.357936e-06	9.068255e-09	1.640251e+01	5.937220e+02
2.270000e-06	2.262524e-06	8.953741e-09	1.573880e+01	5.858372e+02
2.280000e-06	2.166306e-06	8.840057e-09	1.506948e+01	5.777814e+02
2.290000e-06	2.069335e-06	8.719846e-09	1.439492e+01	5.695625e+02
2.300000e-06	1.971723e-06	8.593002e-09	1.371590e+01	5.611492e+02
2.310000e-06	1.873528e-06	8.457241e-09	1.303282e+01	5.524790e+02
2.320000e-06	1.774779e-06	8.313340e-09	1.234590e+01	5.434819e+02
2.330000e-06	1.675445e-06	8.165404e-09	1.165490e+01	5.341089e+02
2.340000e-06	1.575550e-06	8.016597e-09	1.096000e+01	5.243522e+02
2.350000e-06	1.475086e-06	7.871828e-09	1.026115e+01	5.142472e+02
2.360000e-06	1.373978e-06	7.722664e-09	9.557808e+00	5.038528e+02
2.370000e-06	1.272241e-06	7.566110e-09	8.850089e+00	4.932190e+02
2.380000e-06	1.169965e-06	7.399654e-09	8.138631e+00	4.823538e+02
2.390000e-06	1.067346e-06	7.225071e-09	7.424781e+00	4.712066e+02
2.400000e-06	9.643893e-07	7.046330e-09	6.708583e+00	4.596765e+02
2.410000e-06	8.609752e-07	6.860008e-09	5.989203e+00	4.476435e+02
2.420000e-06	7.571491e-07	6.667194e-09	5.266958e+00	4.350113e+02
2.430000e-06	6.530949e-07	6.465945e-09	4.543125e+00	4.217429e+02
2.440000e-06	5.488592e-07	6.255281e-09	3.818030e+00	4.078712e+02
2.450000e-06	4.444132e-07	6.037855e-09	3.091472e+00	3.934782e+02
2.460000e-06	3.398457e-07	5.814749e-09	2.364069e+00	3.786484e+02
2.470000e-06	2.351727e-07	5.584376e-09	1.635932e+00	3.634149e+02
2.480000e-06	1.304570e-07	5.344586e-09	9.074981e-01	3.477220e+02
2.490000e-06	2.573144e-08	5.092227e-09	1.789957e-01	3.314219e+02
2.500000e-06	-7.900907e-08	4.826159e-09	-5.496109e-01	3.143114e+02
2.510000e-06	-1.837422e-07	4.545110e-09	-1.278166e+00	2.961936e+02
2.520000e-06	-2.884435e-07	4.248997e-09	-2.006500e+00	2.769391e+02
2.530000e-06	-3.930095e-07	3.940994e-09	-2.733893e+00	2.565150e+02
2.540000e-06	-4.974010e-07	3.618935e-09	-3.460071e+00	2.349609e+02
2.550000e-06	-6.015937e-07	3.279669e-09	-4.184868e+00	2.123104e+02
2.560000e-06	-7.055301e-07	2.918941e-09	-4.907880e+00	1.884826e+02
2.570000e-06	-8.092017e-07	2.531309e-09	-5.629051e+00	1.631847e+02
2.580000e-06	-9.125909e-07	2.109654e-09	-6.348258e+00	1.358719e+02
2.590000e-06	-1.015688e-06	1.644956e-09	-7.065431e+00	1.057992e+02
2.600000e-06	-1.118402e-06	1.129647e-09	-7.779945e+00	7.216882e+01
2.610000e-06	-1.220635e-06	5.584075e-10	-8.491108e+00	3.434550e+01
2.620000e-06	-1.322310e-06	-7.174325e-11	-9.198387e+00	-7.916197e+00
2.630000e-06	-1.423384e-06	-7.657664e-10	-9.901490e+00	-5.430141e+01
2.640000e-06	-1.523860e-06	-1.520101e-09	-1.060043e+01	-1.038787e+02
2.650000e-06	-1.623772e-06	-2.311792e-09	-1.129545e+01	-1.551856e+02
2.660000e-06	-1.723141e-06	-3.104817e-09	-1.198669e+01	-2.064441e+02
2.670000e-06	-1.821901e-06	-3.864267e-09	-1.267369e+01	-2.558536e+02
2.680000e-06	-1.920067e-06	-4.568685e-09	-1.335657e+01	-3.018881e+02
2.690000e-06	-2.017602e-06	-5.205506e-09	-1.403504e+01	-3.435230e+02
2.700000e-06	-2.114402e-06	-5.768231e-09	-1.470842e+01	-3.803375e+02
2.710000e-06	-2.210525e-06	-6.259795e-09	-1.537708e+01	-4.124771e+02
2.720000e-06	-2.306051e-06	-6.692038e-09	-1.604159e+01	-4.405022e+02
2.730000e-06	-2.400931e-06	-7.079061e-09	-1.670160e+01	-4.651746e+02
2.740000e-06	-2.494871e-06	-7.426290e-09	-1.735508e+01	-4.872486e+02
2.750000e-06	-2.587680e-06	-7.736257e-09	-1.800068e+01	-5.073220e+02
2.760000e-06	-2.679460e-06	-8.015569e-09	-1.863914e+01	-5.257742e+02
2.770000e-06	-2.770255e-06	-8.270615e-09	-1.927073e+01	-5.427897e+02
2.780000e-06	-2.860014e-06	-8.507761e-09	-1.989512e+01	-5.584381e+02
2.790000e-06	-2.948754e-06	-8.730153e-09	-2.051242e+01	-5.727666e+02
2.800000e-06	-3.036557e-06	-8.935054e-09	-2.112320e+01	-5.858687e+02
2.810000e-06	-3.123450e-06	-9.124604e-09	-2.172766e+01	-5.979067e+02
2.820000e-06	-3.209192e-06	-9.302547e-09	-2.232411e+01	-6.090881e+02
2.830000e-06	-3.293568e-06	-9.467742e-09	-2.291105e+01	-6.196156e+02
2.840000e-06	-3.376734e-06	-9.618404e-09	-2.348958e+01	-6.296367e+02
2.850000e-06	-3.458768e-06	-9.758222e-09	-2.406023e+01	-6.392163e+02
2.860000e-06	-3.539617e-06	-9.893550e-09	-2.462264e+01	-6.483428e+02
2.870000e-06	-3.619312e-06	-1.002374e-08	-2.517703e+01	-6.569627e+02
2.880000e-06	-3.697696e-06	-1.014812e-08	-2.572229e+01	-6.650262e+02
2.890000e-06	-3.774530e-06	-1.026535e-08	-2.625677e+01	-6.725249e+02
2.900000e-06	-3.849822e-06	-1.037564e-08	-2.678052e+01	-6.795057e+02
2.910000e-06	-3.923675e-06	-1.047887e-08	-2.729427e+01	-6.860588e+02
2.920000e-06	-3.996151e-06	-1.057354e-08	-2.779843e+01	-6.922861e+02
2.930000e-06	-4.067359e-06	-1.066465e-08	-2.829377e+01	-6.982684e+02
2.940000e-06	-4.137098e-06	-1.075416e-08	-2.877890e+01	-7.040435e+02
