# Temperatura_=_41.33
# Concentracion g/m^3_=_13400.0
# C_Vs_to_Am_M_A/Vsm_=_65563218390.804596
# pendiente_HvsI_1/m_=_3716.3
# ordenada_HvsI_A/m_=_1297.0
# frecuencia_Hz_=_300814.16642640467

Tiempo_(s)	Campo_(V.s)	Magnetizacion_(V.s)	Campo_(kA/m)	Magnetizacion_(A/m)
0.000000e+00	-5.493155e-06	-1.222867e-08	-3.830362e+01	-7.999132e+02
1.000000e-08	-5.491920e-06	-1.222333e-08	-3.829501e+01	-7.997610e+02
2.000000e-08	-5.488721e-06	-1.221833e-08	-3.827271e+01	-7.994586e+02
3.000000e-08	-5.483677e-06	-1.221354e-08	-3.823754e+01	-7.989995e+02
4.000000e-08	-5.476961e-06	-1.220739e-08	-3.819071e+01	-7.984056e+02
5.000000e-08	-5.468641e-06	-1.219559e-08	-3.813268e+01	-7.977158e+02
6.000000e-08	-5.458486e-06	-1.217939e-08	-3.806188e+01	-7.969673e+02
7.000000e-08	-5.446252e-06	-1.216567e-08	-3.797657e+01	-7.961781e+02
8.000000e-08	-5.431986e-06	-1.215940e-08	-3.787709e+01	-7.953388e+02
9.000000e-08	-5.415559e-06	-1.215600e-08	-3.776255e+01	-7.944178e+02
1.000000e-07	-5.396773e-06	-1.215703e-08	-3.763155e+01	-7.933782e+02
1.100000e-07	-5.375834e-06	-1.212930e-08	-3.748555e+01	-7.921979e+02
1.200000e-07	-5.353043e-06	-1.208295e-08	-3.732663e+01	-7.908837e+02
1.300000e-07	-5.328692e-06	-1.205537e-08	-3.715682e+01	-7.894735e+02
1.400000e-07	-5.302911e-06	-1.202179e-08	-3.697706e+01	-7.880218e+02
1.500000e-07	-5.275342e-06	-1.201144e-08	-3.678482e+01	-7.865774e+02
1.600000e-07	-5.245956e-06	-1.201546e-08	-3.657991e+01	-7.851599e+02
1.700000e-07	-5.215040e-06	-1.195732e-08	-3.636434e+01	-7.837465e+02
1.800000e-07	-5.182298e-06	-1.194944e-08	-3.613602e+01	-7.822757e+02
1.900000e-07	-5.147437e-06	-1.194074e-08	-3.589294e+01	-7.806665e+02
2.000000e-07	-5.110914e-06	-1.185595e-08	-3.563826e+01	-7.788464e+02
2.100000e-07	-5.072814e-06	-1.184136e-08	-3.537260e+01	-7.767776e+02
2.200000e-07	-5.032951e-06	-1.182237e-08	-3.509463e+01	-7.744697e+02
2.300000e-07	-4.991262e-06	-1.177240e-08	-3.480394e+01	-7.719748e+02
2.400000e-07	-4.947522e-06	-1.175906e-08	-3.449894e+01	-7.693659e+02
2.500000e-07	-4.901941e-06	-1.171509e-08	-3.418110e+01	-7.667084e+02
2.600000e-07	-4.854650e-06	-1.164159e-08	-3.385135e+01	-7.640348e+02
2.700000e-07	-4.805409e-06	-1.158791e-08	-3.350799e+01	-7.613339e+02
2.800000e-07	-4.754099e-06	-1.155844e-08	-3.315020e+01	-7.585580e+02
2.900000e-07	-4.700793e-06	-1.153647e-08	-3.277851e+01	-7.556441e+02
3.000000e-07	-4.645734e-06	-1.148431e-08	-3.239458e+01	-7.525413e+02
3.100000e-07	-4.589095e-06	-1.144048e-08	-3.199964e+01	-7.492308e+02
3.200000e-07	-4.530704e-06	-1.138377e-08	-3.159248e+01	-7.457327e+02
3.300000e-07	-4.470560e-06	-1.130802e-08	-3.117310e+01	-7.420951e+02
3.400000e-07	-4.408866e-06	-1.125028e-08	-3.074291e+01	-7.383725e+02
3.500000e-07	-4.345691e-06	-1.118413e-08	-3.030239e+01	-7.346008e+02
3.600000e-07	-4.281053e-06	-1.113865e-08	-2.985167e+01	-7.307827e+02
3.700000e-07	-4.214795e-06	-1.109764e-08	-2.938965e+01	-7.268864e+02
3.800000e-07	-4.146861e-06	-1.103534e-08	-2.891595e+01	-7.228599e+02
3.900000e-07	-4.077390e-06	-1.095874e-08	-2.843153e+01	-7.186540e+02
4.000000e-07	-4.006546e-06	-1.087570e-08	-2.793754e+01	-7.142424e+02
4.100000e-07	-3.934477e-06	-1.080754e-08	-2.743500e+01	-7.096325e+02
4.200000e-07	-3.861061e-06	-1.073506e-08	-2.692307e+01	-7.048597e+02
4.300000e-07	-3.785982e-06	-1.066071e-08	-2.639955e+01	-6.999707e+02
4.400000e-07	-3.709181e-06	-1.059008e-08	-2.586402e+01	-6.950008e+02
4.500000e-07	-3.630882e-06	-1.052195e-08	-2.531804e+01	-6.899571e+02
4.600000e-07	-3.551108e-06	-1.044742e-08	-2.476178e+01	-6.848144e+02
4.700000e-07	-3.469909e-06	-1.035254e-08	-2.419559e+01	-6.795255e+02
4.800000e-07	-3.387462e-06	-1.025842e-08	-2.362068e+01	-6.740406e+02
4.900000e-07	-3.303842e-06	-1.017326e-08	-2.303760e+01	-6.683280e+02
5.000000e-07	-3.219273e-06	-1.008669e-08	-2.244790e+01	-6.623868e+02
5.100000e-07	-3.133804e-06	-9.997160e-09	-2.185193e+01	-6.562445e+02
5.200000e-07	-3.047349e-06	-9.902518e-09	-2.124908e+01	-6.499432e+02
5.300000e-07	-2.959948e-06	-9.803881e-09	-2.063964e+01	-6.435181e+02
5.400000e-07	-2.871635e-06	-9.702805e-09	-2.002384e+01	-6.369807e+02
5.500000e-07	-2.782326e-06	-9.597629e-09	-1.940109e+01	-6.303118e+02
5.600000e-07	-2.691831e-06	-9.487664e-09	-1.877006e+01	-6.234695e+02
5.700000e-07	-2.600153e-06	-9.377508e-09	-1.813080e+01	-6.164067e+02
5.800000e-07	-2.507549e-06	-9.269342e-09	-1.748507e+01	-6.090910e+02
5.900000e-07	-2.414180e-06	-9.156120e-09	-1.683401e+01	-6.015171e+02
6.000000e-07	-2.320011e-06	-9.037077e-09	-1.617737e+01	-5.937054e+02
6.100000e-07	-2.224997e-06	-8.910925e-09	-1.551484e+01	-5.856885e+02
6.200000e-07	-2.129218e-06	-8.782373e-09	-1.484698e+01	-5.774897e+02
6.300000e-07	-2.032737e-06	-8.654404e-09	-1.417422e+01	-5.691068e+02
6.400000e-07	-1.935539e-06	-8.524350e-09	-1.349646e+01	-5.605057e+02
6.500000e-07	-1.837538e-06	-8.389139e-09	-1.281310e+01	-5.516312e+02
6.600000e-07	-1.738642e-06	-8.246589e-09	-1.212350e+01	-5.424277e+02
6.700000e-07	-1.638981e-06	-8.098917e-09	-1.142857e+01	-5.328621e+02
6.800000e-07	-1.538755e-06	-7.944263e-09	-1.072970e+01	-5.229366e+02
6.900000e-07	-1.438075e-06	-7.784689e-09	-1.002766e+01	-5.126855e+02
7.000000e-07	-1.336992e-06	-7.622755e-09	-9.322812e+00	-5.021549e+02
7.100000e-07	-1.235473e-06	-7.460574e-09	-8.614924e+00	-4.913738e+02
7.200000e-07	-1.133489e-06	-7.293710e-09	-7.903789e+00	-4.803308e+02
7.300000e-07	-1.031092e-06	-7.117408e-09	-7.189777e+00	-4.689662e+02
7.400000e-07	-9.283037e-07	-6.934909e-09	-6.473037e+00	-4.571861e+02
7.500000e-07	-8.252066e-07	-6.745188e-09	-5.754144e+00	-4.448933e+02
7.600000e-07	-7.218432e-07	-6.547722e-09	-5.033394e+00	-4.320224e+02
7.700000e-07	-6.181783e-07	-6.341615e-09	-4.310541e+00	-4.185619e+02
7.800000e-07	-5.142940e-07	-6.130401e-09	-3.586158e+00	-4.045523e+02
7.900000e-07	-4.102889e-07	-5.915684e-09	-2.860934e+00	-3.900575e+02
8.000000e-07	-3.061486e-07	-5.692220e-09	-2.134766e+00	-3.751199e+02
8.100000e-07	-2.019052e-07	-5.456054e-09	-1.407880e+00	-3.597187e+02
8.200000e-07	-9.759746e-08	-5.207318e-09	-6.805445e-01	-3.437505e+02
8.300000e-07	6.737100e-09	-4.947925e-09	4.697762e-02	-3.270447e+02
8.400000e-07	1.110447e-07	-4.675884e-09	7.743116e-01	-3.094098e+02
8.500000e-07	2.153379e-07	-4.390230e-09	1.501545e+00	-2.906919e+02
8.600000e-07	3.195409e-07	-4.090515e-09	2.228150e+00	-2.708173e+02
8.700000e-07	4.236144e-07	-3.775889e-09	2.953852e+00	-2.497942e+02
8.800000e-07	5.275427e-07	-3.442134e-09	3.678541e+00	-2.276596e+02
8.900000e-07	6.312950e-07	-3.085763e-09	4.402003e+00	-2.043842e+02
9.000000e-07	7.348806e-07	-2.705261e-09	5.124303e+00	-1.797659e+02
9.100000e-07	8.381839e-07	-2.295839e-09	5.844634e+00	-1.533584e+02
9.200000e-07	9.411646e-07	-1.848321e-09	6.562716e+00	-1.244746e+02
9.300000e-07	1.043882e-06	-1.351910e-09	7.278962e+00	-9.228887e+01
9.400000e-07	1.146217e-06	-7.994374e-10	7.992540e+00	-5.602623e+01
9.500000e-07	1.248093e-06	-1.845229e-10	8.702922e+00	-1.519714e+01
9.600000e-07	1.349511e-06	5.023226e-10	9.410107e+00	3.018763e+01
9.700000e-07	1.450505e-06	1.259477e-09	1.011433e+01	7.948916e+01
9.800000e-07	1.551137e-06	2.062339e-09	1.081604e+01	1.314478e+02
9.900000e-07	1.651330e-06	2.875276e-09	1.151468e+01	1.843373e+02
1.000000e-06	1.750917e-06	3.667631e-09	1.220910e+01	2.362347e+02
1.010000e-06	1.849725e-06	4.412053e-09	1.289809e+01	2.853411e+02
1.020000e-06	1.947627e-06	5.084544e-09	1.358075e+01	3.302712e+02
1.030000e-06	2.044677e-06	5.674877e-09	1.425748e+01	3.702419e+02
1.040000e-06	2.141033e-06	6.190773e-09	1.492937e+01	4.051168e+02
1.050000e-06	2.236696e-06	6.647751e-09	1.559642e+01	4.353078e+02
1.060000e-06	2.331599e-06	7.055243e-09	1.625818e+01	4.615741e+02
1.070000e-06	2.425775e-06	7.412197e-09	1.691486e+01	4.847842e+02
1.080000e-06	2.519175e-06	7.725611e-09	1.756614e+01	5.057079e+02
1.090000e-06	2.611776e-06	8.009026e-09	1.821184e+01	5.248899e+02
1.100000e-06	2.703516e-06	8.273199e-09	1.885155e+01	5.426236e+02
1.110000e-06	2.794105e-06	8.519928e-09	1.948322e+01	5.590097e+02
1.120000e-06	2.883434e-06	8.745817e-09	2.010611e+01	5.740601e+02
1.130000e-06	2.971731e-06	8.951761e-09	2.072180e+01	5.878011e+02
1.140000e-06	3.059085e-06	9.140419e-09	2.133092e+01	6.003366e+02
1.150000e-06	3.145407e-06	9.317120e-09	2.193284e+01	6.118563e+02
1.160000e-06	3.230701e-06	9.483435e-09	2.252759e+01	6.225949e+02
1.170000e-06	3.315037e-06	9.638044e-09	2.311567e+01	6.327684e+02
1.180000e-06	3.398308e-06	9.784309e-09	2.369631e+01	6.425191e+02
1.190000e-06	3.480325e-06	9.926736e-09	2.426821e+01	6.518903e+02
1.200000e-06	3.561031e-06	1.006259e-08	2.483097e+01	6.608413e+02
1.210000e-06	3.640374e-06	1.018859e-08	2.538423e+01	6.692922e+02
1.220000e-06	3.718359e-06	1.030632e-08	2.592802e+01	6.771773e+02
1.230000e-06	3.795031e-06	1.041877e-08	2.646265e+01	6.844856e+02
1.240000e-06	3.870274e-06	1.052593e-08	2.698731e+01	6.912737e+02
1.250000e-06	3.943858e-06	1.062534e-08	2.750042e+01	6.976475e+02
1.260000e-06	4.015952e-06	1.071654e-08	2.800313e+01	7.037249e+02
1.270000e-06	4.086714e-06	1.080429e-08	2.849655e+01	7.095969e+02
1.280000e-06	4.156058e-06	1.089022e-08	2.898008e+01	7.153031e+02
1.290000e-06	4.224033e-06	1.097173e-08	2.945407e+01	7.208315e+02
1.300000e-06	4.290420e-06	1.104899e-08	2.991699e+01	7.261388e+02
1.310000e-06	4.355146e-06	1.112338e-08	3.036832e+01	7.311826e+02
1.320000e-06	4.418449e-06	1.119533e-08	3.080972e+01	7.359474e+02
1.330000e-06	4.480346e-06	1.126473e-08	3.124134e+01	7.404556e+02
1.340000e-06	4.540833e-06	1.133054e-08	3.166311e+01	7.447587e+02
1.350000e-06	4.599660e-06	1.139285e-08	3.207331e+01	7.489138e+02
1.360000e-06	4.656634e-06	1.145371e-08	3.247058e+01	7.529580e+02
1.370000e-06	4.711903e-06	1.151295e-08	3.285598e+01	7.568923e+02
1.380000e-06	4.765480e-06	1.156854e-08	3.322956e+01	7.606827e+02
1.390000e-06	4.817153e-06	1.161990e-08	3.358988e+01	7.642769e+02
1.400000e-06	4.866768e-06	1.166754e-08	3.393584e+01	7.676299e+02
1.410000e-06	4.914566e-06	1.171472e-08	3.426914e+01	7.707260e+02
1.420000e-06	4.960772e-06	1.176230e-08	3.459133e+01	7.735871e+02
1.430000e-06	5.005339e-06	1.180578e-08	3.490210e+01	7.762644e+02
1.440000e-06	5.048053e-06	1.184468e-08	3.519994e+01	7.788166e+02
1.450000e-06	5.088828e-06	1.188230e-08	3.548426e+01	7.812852e+02
1.460000e-06	5.127899e-06	1.191853e-08	3.575670e+01	7.836772e+02
1.470000e-06	5.165348e-06	1.195056e-08	3.601783e+01	7.859635e+02
1.480000e-06	5.201036e-06	1.197906e-08	3.626669e+01	7.880934e+02
1.490000e-06	5.234715e-06	1.200644e-08	3.650153e+01	7.900182e+02
1.500000e-06	5.266458e-06	1.203208e-08	3.672287e+01	7.917147e+02
1.510000e-06	5.296511e-06	1.205543e-08	3.693243e+01	7.931973e+02
1.520000e-06	5.324822e-06	1.207633e-08	3.712984e+01	7.945131e+02
1.530000e-06	5.351094e-06	1.209582e-08	3.731303e+01	7.957240e+02
1.540000e-06	5.375273e-06	1.211533e-08	3.748164e+01	7.968817e+02
1.550000e-06	5.397659e-06	1.213291e-08	3.763773e+01	7.980068e+02
1.560000e-06	5.418346e-06	1.214585e-08	3.778199e+01	7.990825e+02
1.570000e-06	5.437162e-06	1.215606e-08	3.791319e+01	8.000630e+02
1.580000e-06	5.453958e-06	1.216774e-08	3.803030e+01	8.008948e+02
1.590000e-06	5.468768e-06	1.217947e-08	3.813357e+01	8.015401e+02
1.600000e-06	5.481584e-06	1.218643e-08	3.822294e+01	8.019935e+02
1.610000e-06	5.492214e-06	1.219038e-08	3.829706e+01	8.022837e+02
1.620000e-06	5.500700e-06	1.219798e-08	3.835623e+01	8.024613e+02
1.630000e-06	5.507283e-06	1.220684e-08	3.840214e+01	8.025770e+02
1.640000e-06	5.512043e-06	1.220942e-08	3.843533e+01	8.026606e+02
1.650000e-06	5.514847e-06	1.220554e-08	3.845488e+01	8.027103e+02
1.660000e-06	5.515581e-06	1.220369e-08	3.846000e+01	8.026953e+02
1.670000e-06	5.514487e-06	1.220532e-08	3.845237e+01	8.025716e+02
1.680000e-06	5.511781e-06	1.220066e-08	3.843351e+01	8.023027e+02
1.690000e-06	5.507276e-06	1.219065e-08	3.840209e+01	8.018760e+02
1.700000e-06	5.500772e-06	1.218058e-08	3.835674e+01	8.013079e+02
1.710000e-06	5.492492e-06	1.217549e-08	3.829900e+01	8.006349e+02
1.720000e-06	5.482605e-06	1.217090e-08	3.823006e+01	7.998965e+02
1.730000e-06	5.470888e-06	1.216137e-08	3.814836e+01	7.991156e+02
1.740000e-06	5.457111e-06	1.214700e-08	3.805229e+01	7.982890e+02
1.750000e-06	5.441303e-06	1.211369e-08	3.794206e+01	7.973885e+02
1.760000e-06	5.423155e-06	1.207024e-08	3.781552e+01	7.963768e+02
1.770000e-06	5.402212e-06	1.206338e-08	3.766948e+01	7.952269e+02
1.780000e-06	5.378939e-06	1.205861e-08	3.750720e+01	7.939390e+02
1.790000e-06	5.354320e-06	1.207250e-08	3.733553e+01	7.925448e+02
1.800000e-06	5.328927e-06	1.206267e-08	3.715846e+01	7.910971e+02
1.810000e-06	5.302104e-06	1.197374e-08	3.697143e+01	7.896481e+02
1.820000e-06	5.272917e-06	1.200579e-08	3.676791e+01	7.882250e+02
1.830000e-06	5.241897e-06	1.200878e-08	3.655161e+01	7.868146e+02
1.840000e-06	5.209286e-06	1.191676e-08	3.632422e+01	7.853625e+02
1.850000e-06	5.174788e-06	1.195705e-08	3.608366e+01	7.837895e+02
1.860000e-06	5.138639e-06	1.192883e-08	3.583159e+01	7.820191e+02
1.870000e-06	5.100515e-06	1.185298e-08	3.556575e+01	7.800043e+02
1.880000e-06	5.060415e-06	1.188859e-08	3.528614e+01	7.777443e+02
1.890000e-06	5.018746e-06	1.181700e-08	3.499558e+01	7.752834e+02
1.900000e-06	4.975267e-06	1.176276e-08	3.469240e+01	7.726925e+02
1.910000e-06	4.930050e-06	1.176234e-08	3.437711e+01	7.700411e+02
1.920000e-06	4.883053e-06	1.169579e-08	3.404940e+01	7.673702e+02
1.930000e-06	4.834187e-06	1.168786e-08	3.370866e+01	7.646780e+02
1.940000e-06	4.783652e-06	1.161544e-08	3.335628e+01	7.619231e+02
1.950000e-06	4.731006e-06	1.156010e-08	3.298918e+01	7.590437e+02
1.960000e-06	4.676305e-06	1.154468e-08	3.260775e+01	7.559841e+02
1.970000e-06	4.620001e-06	1.146761e-08	3.221515e+01	7.527175e+02
1.980000e-06	4.562060e-06	1.145018e-08	3.181112e+01	7.492560e+02
1.990000e-06	4.502573e-06	1.138600e-08	3.139632e+01	7.456434e+02
2.000000e-06	4.441387e-06	1.132522e-08	3.096967e+01	7.419348e+02
2.010000e-06	4.378487e-06	1.128194e-08	3.053108e+01	7.381719e+02
2.020000e-06	4.314062e-06	1.118667e-08	3.008184e+01	7.343652e+02
2.030000e-06	4.248131e-06	1.114755e-08	2.962211e+01	7.304895e+02
2.040000e-06	4.180793e-06	1.107740e-08	2.915256e+01	7.264953e+02
2.050000e-06	4.111792e-06	1.102836e-08	2.867142e+01	7.223309e+02
2.060000e-06	4.041141e-06	1.097715e-08	2.817877e+01	7.179637e+02
2.070000e-06	3.969155e-06	1.088786e-08	2.767681e+01	7.133939e+02
2.080000e-06	3.895863e-06	1.082636e-08	2.716575e+01	7.086519e+02
2.090000e-06	3.821060e-06	1.073477e-08	2.664415e+01	7.037840e+02
2.100000e-06	3.744523e-06	1.066917e-08	2.611046e+01	6.988294e+02
2.110000e-06	3.666394e-06	1.059304e-08	2.556566e+01	6.938024e+02
2.120000e-06	3.586929e-06	1.052007e-08	2.501156e+01	6.886843e+02
2.130000e-06	3.506302e-06	1.044631e-08	2.444935e+01	6.834310e+02
2.140000e-06	3.424567e-06	1.034952e-08	2.387941e+01	6.779914e+02
2.150000e-06	3.341701e-06	1.027222e-08	2.330160e+01	6.723286e+02
2.160000e-06	3.257612e-06	1.017299e-08	2.271524e+01	6.664347e+02
2.170000e-06	3.172141e-06	1.008314e-08	2.211926e+01	6.603320e+02
2.180000e-06	3.085476e-06	9.991297e-09	2.151494e+01	6.540610e+02
2.190000e-06	2.997855e-06	9.901349e-09	2.090396e+01	6.476603e+02
2.200000e-06	2.909269e-06	9.806317e-09	2.028625e+01	6.411473e+02
2.210000e-06	2.819702e-06	9.700832e-09	1.966171e+01	6.345094e+02
2.220000e-06	2.729223e-06	9.596018e-09	1.903080e+01	6.277082e+02
2.230000e-06	2.637888e-06	9.478754e-09	1.839392e+01	6.206959e+02
2.240000e-06	2.545614e-06	9.372822e-09	1.775050e+01	6.134357e+02
2.250000e-06	2.452335e-06	9.260188e-09	1.710006e+01	6.059159e+02
2.260000e-06	2.358024e-06	9.150263e-09	1.644244e+01	5.981524e+02
2.270000e-06	2.262835e-06	9.035386e-09	1.577869e+01	5.901766e+02
2.280000e-06	2.166905e-06	8.914689e-09	1.510977e+01	5.820158e+02
2.290000e-06	2.070225e-06	8.787925e-09	1.443562e+01	5.736739e+02
2.300000e-06	1.972868e-06	8.647459e-09	1.375676e+01	5.651236e+02
2.310000e-06	1.874919e-06	8.508851e-09	1.307376e+01	5.563125e+02
2.320000e-06	1.776411e-06	8.367751e-09	1.238687e+01	5.471832e+02
2.330000e-06	1.677396e-06	8.230252e-09	1.169643e+01	5.376960e+02
2.340000e-06	1.577922e-06	8.086228e-09	1.100281e+01	5.278455e+02
2.350000e-06	1.477915e-06	7.936840e-09	1.030546e+01	5.176601e+02
2.360000e-06	1.377270e-06	7.783094e-09	9.603669e+00	5.071857e+02
2.370000e-06	1.275863e-06	7.619869e-09	8.896557e+00	4.964574e+02
2.380000e-06	1.173720e-06	7.447441e-09	8.184318e+00	4.854738e+02
2.390000e-06	1.071076e-06	7.266346e-09	7.468587e+00	4.741851e+02
2.400000e-06	9.681352e-07	7.085735e-09	6.750781e+00	4.625024e+02
2.410000e-06	8.649042e-07	6.905162e-09	6.030954e+00	4.503264e+02
2.420000e-06	7.613962e-07	6.718114e-09	5.309196e+00	4.375821e+02
2.430000e-06	6.576651e-07	6.516969e-09	4.585881e+00	4.242458e+02
2.440000e-06	5.537198e-07	6.302799e-09	3.861073e+00	4.103485e+02
2.450000e-06	4.496288e-07	6.081316e-09	3.135250e+00	3.959525e+02
2.460000e-06	3.453739e-07	5.854916e-09	2.408283e+00	3.811087e+02
2.470000e-06	2.409634e-07	5.620008e-09	1.680232e+00	3.658125e+02
2.480000e-06	1.364539e-07	5.375132e-09	9.514894e-01	3.499782e+02
2.490000e-06	3.192137e-08	5.120699e-09	2.225869e-01	3.334466e+02
2.500000e-06	-7.258744e-08	4.856245e-09	-5.061503e-01	3.160257e+02
2.510000e-06	-1.770708e-07	4.577028e-09	-1.234710e+00	2.975489e+02
2.520000e-06	-2.814882e-07	4.278155e-09	-1.962810e+00	2.779236e+02
2.530000e-06	-3.858185e-07	3.965327e-09	-2.690302e+00	2.571431e+02
2.540000e-06	-4.899546e-07	3.638186e-09	-3.416440e+00	2.352450e+02
2.550000e-06	-5.938655e-07	3.289304e-09	-4.141008e+00	2.122235e+02
2.560000e-06	-6.975848e-07	2.913236e-09	-4.864240e+00	1.879215e+02
2.570000e-06	-8.010572e-07	2.510235e-09	-5.585751e+00	1.619477e+02
2.580000e-06	-9.042487e-07	2.077266e-09	-6.305302e+00	1.336615e+02
2.590000e-06	-1.007179e-06	1.601595e-09	-7.023031e+00	1.022536e+02
2.600000e-06	-1.109743e-06	1.067979e-09	-7.738210e+00	6.691891e+01
2.610000e-06	-1.211765e-06	4.684538e-10	-8.449603e+00	2.708702e+01
2.620000e-06	-1.313155e-06	-1.967086e-10	-9.156593e+00	-1.735322e+01
2.630000e-06	-1.413919e-06	-9.271071e-10	-9.859217e+00	-6.590192e+01
2.640000e-06	-1.514107e-06	-1.716486e-09	-1.055783e+01	-1.174243e+02
2.650000e-06	-1.613765e-06	-2.538036e-09	-1.125274e+01	-1.702745e+02
2.660000e-06	-1.712906e-06	-3.348223e-09	-1.194404e+01	-2.225452e+02
2.670000e-06	-1.811464e-06	-4.111412e-09	-1.263129e+01	-2.723843e+02
2.680000e-06	-1.909374e-06	-4.810124e-09	-1.331402e+01	-3.182976e+02
2.690000e-06	-2.006634e-06	-5.437834e-09	-1.399220e+01	-3.593642e+02
2.700000e-06	-2.103222e-06	-5.991835e-09	-1.466571e+01	-3.953128e+02
2.710000e-06	-2.199128e-06	-6.472853e-09	-1.533446e+01	-4.264519e+02
2.720000e-06	-2.294445e-06	-6.889726e-09	-1.599911e+01	-4.534865e+02
2.730000e-06	-2.389168e-06	-7.261030e-09	-1.665961e+01	-4.772810e+02
2.740000e-06	-2.483017e-06	-7.598690e-09	-1.731401e+01	-4.986402e+02
2.750000e-06	-2.575670e-06	-7.903948e-09	-1.796008e+01	-5.181627e+02
2.760000e-06	-2.667212e-06	-8.179145e-09	-1.859840e+01	-5.361934e+02
2.770000e-06	-2.757844e-06	-8.429619e-09	-1.923038e+01	-5.528661e+02
2.780000e-06	-2.847490e-06	-8.663529e-09	-1.985547e+01	-5.682025e+02
2.790000e-06	-2.936104e-06	-8.880970e-09	-2.047338e+01	-5.822187e+02
2.800000e-06	-3.023734e-06	-9.077648e-09	-2.108442e+01	-5.949993e+02
2.810000e-06	-3.110433e-06	-9.257985e-09	-2.168897e+01	-6.067178e+02
2.820000e-06	-3.195992e-06	-9.430196e-09	-2.228557e+01	-6.176041e+02
2.830000e-06	-3.280171e-06	-9.594115e-09	-2.287254e+01	-6.278838e+02
2.840000e-06	-3.363177e-06	-9.746451e-09	-2.345135e+01	-6.377182e+02
2.850000e-06	-3.445149e-06	-9.889269e-09	-2.402293e+01	-6.471720e+02
2.860000e-06	-3.525972e-06	-1.002471e-08	-2.458651e+01	-6.562195e+02
2.870000e-06	-3.605601e-06	-1.015197e-08	-2.514176e+01	-6.647846e+02
2.880000e-06	-3.683935e-06	-1.027276e-08	-2.568798e+01	-6.727942e+02
2.890000e-06	-3.760764e-06	-1.038660e-08	-2.622371e+01	-6.802238e+02
2.900000e-06	-3.835977e-06	-1.049313e-08	-2.674816e+01	-6.871159e+02
2.910000e-06	-3.909726e-06	-1.059435e-08	-2.726241e+01	-6.935684e+02
2.920000e-06	-3.982142e-06	-1.069066e-08	-2.776737e+01	-6.997005e+02
2.930000e-06	-4.053258e-06	-1.078414e-08	-2.826326e+01	-7.056114e+02
2.940000e-06	-4.122893e-06	-1.087390e-08	-2.874883e+01	-7.113528e+02
