# Temperatura_=_25.14
# Concentracion g/m^3_=_13400.0
# C_Vs_to_Am_M_A/Vsm_=_65563218390.804596
# pendiente_HvsI_1/m_=_3716.3
# ordenada_HvsI_A/m_=_1297.0
# frecuencia_Hz_=_300814.4066062768

Tiempo_(s)	Campo_(V.s)	Magnetizacion_(V.s)	Campo_(kA/m)	Magnetizacion_(A/m)
0.000000e+00	-5.498571e-06	-1.201030e-08	-3.830635e+01	-7.854507e+02
1.000000e-08	-5.497073e-06	-1.201108e-08	-3.829591e+01	-7.853239e+02
2.000000e-08	-5.493597e-06	-1.201016e-08	-3.827170e+01	-7.850546e+02
3.000000e-08	-5.488359e-06	-1.200575e-08	-3.823521e+01	-7.846413e+02
4.000000e-08	-5.481504e-06	-1.199902e-08	-3.818746e+01	-7.841068e+02
5.000000e-08	-5.473040e-06	-1.198816e-08	-3.812848e+01	-7.834860e+02
6.000000e-08	-5.462694e-06	-1.197206e-08	-3.805641e+01	-7.828098e+02
7.000000e-08	-5.450236e-06	-1.195148e-08	-3.796962e+01	-7.820896e+02
8.000000e-08	-5.435776e-06	-1.194023e-08	-3.786889e+01	-7.813125e+02
9.000000e-08	-5.419029e-06	-1.195719e-08	-3.775221e+01	-7.804477e+02
1.000000e-07	-5.399915e-06	-1.195532e-08	-3.761906e+01	-7.794622e+02
1.100000e-07	-5.378772e-06	-1.192088e-08	-3.747176e+01	-7.783387e+02
1.200000e-07	-5.355770e-06	-1.189215e-08	-3.731151e+01	-7.770866e+02
1.300000e-07	-5.331269e-06	-1.183731e-08	-3.714083e+01	-7.757412e+02
1.400000e-07	-5.305346e-06	-1.182072e-08	-3.696023e+01	-7.743494e+02
1.500000e-07	-5.277595e-06	-1.184367e-08	-3.676690e+01	-7.729489e+02
1.600000e-07	-5.248048e-06	-1.177230e-08	-3.656106e+01	-7.715485e+02
1.700000e-07	-5.216939e-06	-1.175232e-08	-3.634433e+01	-7.701200e+02
1.800000e-07	-5.184018e-06	-1.177104e-08	-3.611498e+01	-7.686041e+02
1.900000e-07	-5.149043e-06	-1.169430e-08	-3.587133e+01	-7.669309e+02
2.000000e-07	-5.112410e-06	-1.167842e-08	-3.561612e+01	-7.650457e+02
2.100000e-07	-5.074098e-06	-1.165104e-08	-3.534922e+01	-7.629295e+02
2.200000e-07	-5.033948e-06	-1.156865e-08	-3.506951e+01	-7.606069e+02
2.300000e-07	-4.991928e-06	-1.157293e-08	-3.477677e+01	-7.581361e+02
2.400000e-07	-4.947932e-06	-1.155279e-08	-3.447027e+01	-7.555855e+02
2.500000e-07	-4.902166e-06	-1.149488e-08	-3.415144e+01	-7.530069e+02
2.600000e-07	-4.854628e-06	-1.146521e-08	-3.382026e+01	-7.504149e+02
2.700000e-07	-4.805142e-06	-1.140532e-08	-3.347551e+01	-7.477827e+02
2.800000e-07	-4.753535e-06	-1.135880e-08	-3.311598e+01	-7.450543e+02
2.900000e-07	-4.699923e-06	-1.132678e-08	-3.274249e+01	-7.421693e+02
3.000000e-07	-4.644604e-06	-1.127451e-08	-3.235710e+01	-7.390888e+02
3.100000e-07	-4.587718e-06	-1.121762e-08	-3.196080e+01	-7.358118e+02
3.200000e-07	-4.529077e-06	-1.118292e-08	-3.155227e+01	-7.323750e+02
3.300000e-07	-4.468699e-06	-1.114387e-08	-3.113164e+01	-7.288359e+02
3.400000e-07	-4.406830e-06	-1.106183e-08	-3.070063e+01	-7.252473e+02
3.500000e-07	-4.343493e-06	-1.100085e-08	-3.025938e+01	-7.216333e+02
3.600000e-07	-4.278655e-06	-1.094866e-08	-2.980768e+01	-7.179780e+02
3.700000e-07	-4.212125e-06	-1.088348e-08	-2.934419e+01	-7.142311e+02
3.800000e-07	-4.143930e-06	-1.083385e-08	-2.886911e+01	-7.103297e+02
3.900000e-07	-4.074227e-06	-1.076919e-08	-2.838352e+01	-7.062243e+02
4.000000e-07	-4.003184e-06	-1.070332e-08	-2.788858e+01	-7.019005e+02
4.100000e-07	-3.930931e-06	-1.064144e-08	-2.738523e+01	-6.973842e+02
4.200000e-07	-3.857290e-06	-1.056661e-08	-2.687220e+01	-6.927298e+02
4.300000e-07	-3.781979e-06	-1.048339e-08	-2.634754e+01	-6.879945e+02
4.400000e-07	-3.704977e-06	-1.040548e-08	-2.581110e+01	-6.832119e+02
4.500000e-07	-3.626523e-06	-1.034154e-08	-2.526454e+01	-6.783739e+02
4.600000e-07	-3.546568e-06	-1.027062e-08	-2.470753e+01	-6.734316e+02
4.700000e-07	-3.465167e-06	-1.019031e-08	-2.414044e+01	-6.683140e+02
4.800000e-07	-3.382579e-06	-1.010278e-08	-2.356508e+01	-6.629565e+02
4.900000e-07	-3.298844e-06	-1.001160e-08	-2.298173e+01	-6.573280e+02
5.000000e-07	-3.214120e-06	-9.922530e-09	-2.239149e+01	-6.514446e+02
5.100000e-07	-3.128449e-06	-9.827963e-09	-2.179466e+01	-6.453623e+02
5.200000e-07	-3.041770e-06	-9.733658e-09	-2.119080e+01	-6.391538e+02
5.300000e-07	-2.954150e-06	-9.641481e-09	-2.058039e+01	-6.328758e+02
5.400000e-07	-2.865610e-06	-9.545201e-09	-1.996356e+01	-6.265443e+02
5.500000e-07	-2.776076e-06	-9.446223e-09	-1.933982e+01	-6.201252e+02
5.600000e-07	-2.685391e-06	-9.341297e-09	-1.870805e+01	-6.135469e+02
5.700000e-07	-2.593540e-06	-9.230972e-09	-1.806816e+01	-6.067281e+02
5.800000e-07	-2.500700e-06	-9.118380e-09	-1.742138e+01	-5.996097e+02
5.900000e-07	-2.407079e-06	-9.006824e-09	-1.676916e+01	-5.921773e+02
6.000000e-07	-2.312715e-06	-8.891510e-09	-1.611176e+01	-5.844628e+02
6.100000e-07	-2.217544e-06	-8.771388e-09	-1.544875e+01	-5.765266e+02
6.200000e-07	-2.121638e-06	-8.647845e-09	-1.478060e+01	-5.684263e+02
6.300000e-07	-2.024982e-06	-8.519845e-09	-1.410724e+01	-5.601859e+02
6.400000e-07	-1.927488e-06	-8.390373e-09	-1.342804e+01	-5.517806e+02
6.500000e-07	-1.829172e-06	-8.254046e-09	-1.274311e+01	-5.431426e+02
6.600000e-07	-1.730057e-06	-8.111830e-09	-1.205262e+01	-5.341871e+02
6.700000e-07	-1.630253e-06	-7.969300e-09	-1.135732e+01	-5.248467e+02
6.800000e-07	-1.529911e-06	-7.826104e-09	-1.065828e+01	-5.150982e+02
6.900000e-07	-1.429095e-06	-7.673660e-09	-9.955931e+00	-5.049707e+02
7.000000e-07	-1.327800e-06	-7.510908e-09	-9.250256e+00	-4.945282e+02
7.100000e-07	-1.226067e-06	-7.345044e-09	-8.541518e+00	-4.838353e+02
7.200000e-07	-1.123964e-06	-7.176867e-09	-7.830208e+00	-4.729193e+02
7.300000e-07	-1.021492e-06	-7.004542e-09	-7.116327e+00	-4.617467e+02
7.400000e-07	-9.186782e-07	-6.826226e-09	-6.400065e+00	-4.502256e+02
7.500000e-07	-8.155166e-07	-6.641260e-09	-5.681379e+00	-4.382335e+02
7.600000e-07	-7.120044e-07	-6.448773e-09	-4.960250e+00	-4.256615e+02
7.700000e-07	-6.082111e-07	-6.248939e-09	-4.237164e+00	-4.124536e+02
7.800000e-07	-5.042372e-07	-6.041062e-09	-3.512819e+00	-3.986249e+02
7.900000e-07	-4.001736e-07	-5.824561e-09	-2.787850e+00	-3.842470e+02
8.000000e-07	-2.959903e-07	-5.600587e-09	-2.062046e+00	-3.694055e+02
8.100000e-07	-1.916998e-07	-5.367804e-09	-1.335496e+00	-3.541466e+02
8.200000e-07	-8.732192e-08	-5.125076e-09	-6.083370e-01	-3.384356e+02
8.300000e-07	1.709923e-08	-4.872244e-09	1.191235e-01	-3.221473e+02
8.400000e-07	1.214601e-07	-4.608886e-09	8.461638e-01	-3.050952e+02
8.500000e-07	2.257300e-07	-4.334374e-09	1.572571e+00	-2.870885e+02
8.600000e-07	3.299059e-07	-4.048064e-09	2.298323e+00	-2.679923e+02
8.700000e-07	4.340064e-07	-3.745360e-09	3.023550e+00	-2.477600e+02
8.800000e-07	5.380120e-07	-3.423153e-09	3.748115e+00	-2.264172e+02
8.900000e-07	6.418266e-07	-3.080931e-09	4.471350e+00	-2.039926e+02
9.000000e-07	7.454018e-07	-2.717314e-09	5.192917e+00	-1.804167e+02
9.100000e-07	8.487463e-07	-2.330497e-09	5.912877e+00	-1.554266e+02
9.200000e-07	9.518161e-07	-1.914216e-09	6.630923e+00	-1.285232e+02
9.300000e-07	1.054512e-06	-1.458839e-09	7.346361e+00	-9.901161e+01
9.400000e-07	1.156820e-06	-9.553325e-10	8.059107e+00	-6.613504e+01
9.500000e-07	1.258793e-06	-3.954182e-10	8.769507e+00	-2.927595e+01
9.600000e-07	1.360374e-06	2.293631e-10	9.477180e+00	1.182703e+01
9.700000e-07	1.461504e-06	9.158032e-10	1.018171e+01	5.691112e+01
9.800000e-07	1.562140e-06	1.651737e-09	1.088281e+01	1.051265e+02
9.900000e-07	1.662253e-06	2.419301e-09	1.158025e+01	1.551081e+02
1.000000e-06	1.761793e-06	3.190011e-09	1.227371e+01	2.051717e+02
1.010000e-06	1.860611e-06	3.930152e-09	1.296214e+01	2.535894e+02
1.020000e-06	1.958652e-06	4.610945e-09	1.364514e+01	2.988747e+02
1.030000e-06	2.055873e-06	5.221903e-09	1.432245e+01	3.400039e+02
1.040000e-06	2.152261e-06	5.766465e-09	1.499395e+01	3.765242e+02
1.050000e-06	2.247881e-06	6.250947e-09	1.566009e+01	4.085288e+02
1.060000e-06	2.342758e-06	6.678490e-09	1.632106e+01	4.365195e+02
1.070000e-06	2.436881e-06	7.054430e-09	1.697678e+01	4.612084e+02
1.080000e-06	2.530265e-06	7.390032e-09	1.762734e+01	4.833170e+02
1.090000e-06	2.622852e-06	7.695603e-09	1.827237e+01	5.034287e+02
1.100000e-06	2.714480e-06	7.973685e-09	1.891070e+01	5.219229e+02
1.110000e-06	2.805056e-06	8.225645e-09	1.954170e+01	5.389905e+02
1.120000e-06	2.894481e-06	8.458376e-09	2.016469e+01	5.547058e+02
1.130000e-06	2.982813e-06	8.677438e-09	2.078007e+01	5.691139e+02
1.140000e-06	3.070189e-06	8.880500e-09	2.138878e+01	5.822996e+02
1.150000e-06	3.156557e-06	9.064970e-09	2.199048e+01	5.944129e+02
1.160000e-06	3.241906e-06	9.235102e-09	2.258506e+01	6.056517e+02
1.170000e-06	3.326234e-06	9.394605e-09	2.317255e+01	6.162154e+02
1.180000e-06	3.409448e-06	9.547197e-09	2.375226e+01	6.262567e+02
1.190000e-06	3.491402e-06	9.694695e-09	2.432321e+01	6.358515e+02
1.200000e-06	3.572025e-06	9.833226e-09	2.488487e+01	6.450005e+02
1.210000e-06	3.651327e-06	9.962240e-09	2.543734e+01	6.536578e+02
1.220000e-06	3.729324e-06	1.008400e-08	2.598071e+01	6.617734e+02
1.230000e-06	3.805942e-06	1.019943e-08	2.651448e+01	6.693309e+02
1.240000e-06	3.881061e-06	1.030682e-08	2.703780e+01	6.763652e+02
1.250000e-06	3.954620e-06	1.040574e-08	2.755026e+01	6.829559e+02
1.260000e-06	4.026680e-06	1.049977e-08	2.805227e+01	6.892009e+02
1.270000e-06	4.097360e-06	1.059204e-08	2.854468e+01	6.951854e+02
1.280000e-06	4.166691e-06	1.068196e-08	2.902767e+01	7.009582e+02
1.290000e-06	4.234586e-06	1.076577e-08	2.950067e+01	7.065262e+02
1.300000e-06	4.300884e-06	1.084342e-08	2.996255e+01	7.118660e+02
1.310000e-06	4.365551e-06	1.091755e-08	3.041305e+01	7.169474e+02
1.320000e-06	4.428703e-06	1.098938e-08	3.085301e+01	7.217561e+02
1.330000e-06	4.490454e-06	1.105870e-08	3.128320e+01	7.263050e+02
1.340000e-06	4.550800e-06	1.112491e-08	3.170361e+01	7.306315e+02
1.350000e-06	4.609524e-06	1.118768e-08	3.211271e+01	7.347813e+02
1.360000e-06	4.666448e-06	1.124917e-08	3.250928e+01	7.387890e+02
1.370000e-06	4.721676e-06	1.130875e-08	3.289403e+01	7.426637e+02
1.380000e-06	4.775177e-06	1.136365e-08	3.326675e+01	7.463872e+02
1.390000e-06	4.826717e-06	1.141244e-08	3.362581e+01	7.499247e+02
1.400000e-06	4.876210e-06	1.145763e-08	3.397061e+01	7.532434e+02
1.410000e-06	4.923847e-06	1.150386e-08	3.430248e+01	7.563294e+02
1.420000e-06	4.969898e-06	1.155160e-08	3.462330e+01	7.591960e+02
1.430000e-06	5.014357e-06	1.159544e-08	3.493303e+01	7.618789e+02
1.440000e-06	5.056903e-06	1.163275e-08	3.522943e+01	7.644212e+02
1.450000e-06	5.097522e-06	1.166834e-08	3.551240e+01	7.668548e+02
1.460000e-06	5.136424e-06	1.170451e-08	3.578342e+01	7.691877e+02
1.470000e-06	5.173682e-06	1.173770e-08	3.604298e+01	7.714021e+02
1.480000e-06	5.209144e-06	1.176567e-08	3.629003e+01	7.734641e+02
1.490000e-06	5.242605e-06	1.179045e-08	3.652314e+01	7.753417e+02
1.500000e-06	5.274241e-06	1.181376e-08	3.674353e+01	7.770215e+02
1.510000e-06	5.304201e-06	1.183620e-08	3.695225e+01	7.785173e+02
1.520000e-06	5.332401e-06	1.185644e-08	3.714871e+01	7.798661e+02
1.530000e-06	5.358583e-06	1.187618e-08	3.733111e+01	7.811135e+02
1.540000e-06	5.382703e-06	1.189657e-08	3.749914e+01	7.822951e+02
1.550000e-06	5.404979e-06	1.191380e-08	3.765433e+01	7.834220e+02
1.560000e-06	5.425492e-06	1.192609e-08	3.779724e+01	7.844763e+02
1.570000e-06	5.444105e-06	1.193675e-08	3.792691e+01	7.854205e+02
1.580000e-06	5.460716e-06	1.194803e-08	3.804263e+01	7.862144e+02
1.590000e-06	5.475351e-06	1.195638e-08	3.814458e+01	7.868337e+02
1.600000e-06	5.487891e-06	1.196157e-08	3.823195e+01	7.872817e+02
1.610000e-06	5.498183e-06	1.196897e-08	3.830365e+01	7.875887e+02
1.620000e-06	5.506419e-06	1.197959e-08	3.836103e+01	7.877996e+02
1.630000e-06	5.512829e-06	1.198709e-08	3.840568e+01	7.879560e+02
1.640000e-06	5.517428e-06	1.198581e-08	3.843772e+01	7.880786e+02
1.650000e-06	5.520044e-06	1.198121e-08	3.845595e+01	7.881604e+02
1.660000e-06	5.520626e-06	1.198125e-08	3.846000e+01	7.881712e+02
1.670000e-06	5.519405e-06	1.198200e-08	3.845149e+01	7.880723e+02
1.680000e-06	5.516521e-06	1.197947e-08	3.843140e+01	7.878344e+02
1.690000e-06	5.511813e-06	1.197338e-08	3.839860e+01	7.874507e+02
1.700000e-06	5.505164e-06	1.196718e-08	3.835228e+01	7.869392e+02
1.710000e-06	5.496761e-06	1.196242e-08	3.829374e+01	7.863338e+02
1.720000e-06	5.486679e-06	1.195413e-08	3.822350e+01	7.856676e+02
1.730000e-06	5.474738e-06	1.194668e-08	3.814031e+01	7.849570e+02
1.740000e-06	5.460719e-06	1.192496e-08	3.804265e+01	7.841941e+02
1.750000e-06	5.444703e-06	1.188315e-08	3.793108e+01	7.833510e+02
1.760000e-06	5.426339e-06	1.186631e-08	3.780314e+01	7.823935e+02
1.770000e-06	5.405147e-06	1.185723e-08	3.765551e+01	7.812996e+02
1.780000e-06	5.381699e-06	1.187143e-08	3.749215e+01	7.800728e+02
1.790000e-06	5.357032e-06	1.188411e-08	3.732030e+01	7.787434e+02
1.800000e-06	5.331564e-06	1.180460e-08	3.714288e+01	7.773576e+02
1.810000e-06	5.304439e-06	1.178965e-08	3.695391e+01	7.759569e+02
1.820000e-06	5.274957e-06	1.180776e-08	3.674852e+01	7.745575e+02
1.830000e-06	5.243798e-06	1.173880e-08	3.653145e+01	7.731390e+02
1.840000e-06	5.210962e-06	1.175560e-08	3.630269e+01	7.716476e+02
1.850000e-06	5.176246e-06	1.174459e-08	3.606084e+01	7.700136e+02
1.860000e-06	5.139916e-06	1.166509e-08	3.580774e+01	7.681767e+02
1.870000e-06	5.101540e-06	1.170135e-08	3.554040e+01	7.661093e+02
1.880000e-06	5.061255e-06	1.165564e-08	3.525974e+01	7.638268e+02
1.890000e-06	5.019453e-06	1.158134e-08	3.496853e+01	7.613818e+02
1.900000e-06	4.975833e-06	1.158912e-08	3.466464e+01	7.588428e+02
1.910000e-06	4.930362e-06	1.150284e-08	3.434787e+01	7.562674e+02
1.920000e-06	4.882988e-06	1.148270e-08	3.401783e+01	7.536791e+02
1.930000e-06	4.833778e-06	1.147524e-08	3.367500e+01	7.510595e+02
1.940000e-06	4.782915e-06	1.139011e-08	3.332066e+01	7.483569e+02
1.950000e-06	4.729930e-06	1.137411e-08	3.295154e+01	7.455097e+02
1.960000e-06	4.675039e-06	1.132806e-08	3.256913e+01	7.424725e+02
1.970000e-06	4.618588e-06	1.126573e-08	3.217586e+01	7.392356e+02
1.980000e-06	4.560483e-06	1.120326e-08	3.177106e+01	7.358283e+02
1.990000e-06	4.500841e-06	1.115293e-08	3.135556e+01	7.323060e+02
2.000000e-06	4.439397e-06	1.113068e-08	3.092751e+01	7.287246e+02
2.010000e-06	4.376291e-06	1.105385e-08	3.048788e+01	7.251159e+02
2.020000e-06	4.311784e-06	1.101603e-08	3.003848e+01	7.214726e+02
2.030000e-06	4.245795e-06	1.095454e-08	2.957876e+01	7.177506e+02
2.040000e-06	4.178353e-06	1.087501e-08	2.910892e+01	7.138872e+02
2.050000e-06	4.109214e-06	1.083032e-08	2.862725e+01	7.098280e+02
2.060000e-06	4.038382e-06	1.074744e-08	2.813380e+01	7.055500e+02
2.070000e-06	3.966124e-06	1.069563e-08	2.763040e+01	7.010709e+02
2.080000e-06	3.892543e-06	1.062704e-08	2.711780e+01	6.964408e+02
2.090000e-06	3.817512e-06	1.055692e-08	2.659508e+01	6.917187e+02
2.100000e-06	3.740833e-06	1.049313e-08	2.606089e+01	6.869453e+02
2.110000e-06	3.662557e-06	1.040594e-08	2.551557e+01	6.821219e+02
2.120000e-06	3.582925e-06	1.033577e-08	2.496081e+01	6.772075e+02
2.130000e-06	3.502149e-06	1.024960e-08	2.439808e+01	6.721335e+02
2.140000e-06	3.420222e-06	1.017290e-08	2.382732e+01	6.668313e+02
2.150000e-06	3.337170e-06	1.008887e-08	2.324873e+01	6.612611e+02
2.160000e-06	3.252932e-06	1.000587e-08	2.266188e+01	6.554286e+02
2.170000e-06	3.167335e-06	9.922947e-09	2.206556e+01	6.493828e+02
2.180000e-06	3.080479e-06	9.821075e-09	2.146047e+01	6.431954e+02
2.190000e-06	2.992609e-06	9.726286e-09	2.084831e+01	6.369292e+02
2.200000e-06	2.903782e-06	9.627153e-09	2.022949e+01	6.306102e+02
2.210000e-06	2.813969e-06	9.534447e-09	1.960380e+01	6.242149e+02
2.220000e-06	2.723256e-06	9.435068e-09	1.897184e+01	6.176777e+02
2.230000e-06	2.631704e-06	9.331901e-09	1.833403e+01	6.109164e+02
2.240000e-06	2.539233e-06	9.226198e-09	1.768982e+01	6.038651e+02
2.250000e-06	2.445702e-06	9.116055e-09	1.703823e+01	5.964985e+02
2.260000e-06	2.351172e-06	9.003679e-09	1.637968e+01	5.888398e+02
2.270000e-06	2.255846e-06	8.883292e-09	1.571558e+01	5.809456e+02
2.280000e-06	2.159755e-06	8.767158e-09	1.504615e+01	5.728767e+02
2.290000e-06	2.062960e-06	8.644099e-09	1.437182e+01	5.646666e+02
2.300000e-06	1.965485e-06	8.516547e-09	1.369275e+01	5.563011e+02
2.310000e-06	1.867351e-06	8.382810e-09	1.300909e+01	5.477199e+02
2.320000e-06	1.768660e-06	8.245771e-09	1.232155e+01	5.388392e+02
2.330000e-06	1.669439e-06	8.104439e-09	1.163032e+01	5.295848e+02
2.340000e-06	1.569705e-06	7.958158e-09	1.093551e+01	5.199229e+02
2.350000e-06	1.469402e-06	7.811451e-09	1.023673e+01	5.098719e+02
2.360000e-06	1.368457e-06	7.658412e-09	9.533496e+00	4.994907e+02
2.370000e-06	1.266876e-06	7.500622e-09	8.825820e+00	4.888473e+02
2.380000e-06	1.164735e-06	7.331417e-09	8.114245e+00	4.779795e+02
2.390000e-06	1.062143e-06	7.155117e-09	7.399524e+00	4.668679e+02
2.400000e-06	9.591672e-07	6.978581e-09	6.682135e+00	4.554312e+02
2.410000e-06	8.558767e-07	6.799557e-09	5.962551e+00	4.435503e+02
2.420000e-06	7.522698e-07	6.613760e-09	5.240764e+00	4.311094e+02
2.430000e-06	6.483712e-07	6.415994e-09	4.516944e+00	4.180388e+02
2.440000e-06	5.442534e-07	6.206461e-09	3.791596e+00	4.043384e+02
2.450000e-06	4.399332e-07	5.990566e-09	3.064839e+00	3.900706e+02
2.460000e-06	3.354668e-07	5.767165e-09	2.337064e+00	3.753223e+02
2.470000e-06	2.309509e-07	5.531843e-09	1.608943e+00	3.601525e+02
2.480000e-06	1.263883e-07	5.287848e-09	8.804967e-01	3.445458e+02
2.490000e-06	2.176483e-08	5.038913e-09	1.516269e-01	3.283955e+02
2.500000e-06	-8.283366e-08	4.785088e-09	-5.770691e-01	3.115238e+02
2.510000e-06	-1.874155e-07	4.517724e-09	-1.305649e+00	2.937357e+02
2.520000e-06	-2.919195e-07	4.230662e-09	-2.033687e+00	2.748798e+02
2.530000e-06	-3.962976e-07	3.926114e-09	-2.760848e+00	2.548904e+02
2.540000e-06	-5.005443e-07	3.605203e-09	-3.487093e+00	2.337817e+02
2.550000e-06	-6.045987e-07	3.267268e-09	-4.211998e+00	2.115898e+02
2.560000e-06	-7.084566e-07	2.908793e-09	-4.935535e+00	1.882748e+02
2.570000e-06	-8.120319e-07	2.528135e-09	-5.657103e+00	1.636217e+02
2.580000e-06	-9.152378e-07	2.122974e-09	-6.376097e+00	1.371814e+02
2.590000e-06	-1.018073e-06	1.687123e-09	-7.092507e+00	1.082929e+02
2.600000e-06	-1.120511e-06	1.205238e-09	-7.806152e+00	7.619739e+01
2.610000e-06	-1.222498e-06	6.630603e-10	-8.516659e+00	4.022882e+01
2.620000e-06	-1.323993e-06	5.672934e-11	-9.223731e+00	3.266898e-02
2.630000e-06	-1.424908e-06	-6.133620e-10	-9.926764e+00	-4.425013e+01
2.640000e-06	-1.525152e-06	-1.342379e-09	-1.062513e+01	-9.189428e+01
2.650000e-06	-1.624766e-06	-2.111003e-09	-1.131910e+01	-1.416323e+02
2.660000e-06	-1.723878e-06	-2.886218e-09	-1.200957e+01	-1.918268e+02
2.670000e-06	-1.822516e-06	-3.633986e-09	-1.269674e+01	-2.407347e+02
2.680000e-06	-1.920542e-06	-4.333470e-09	-1.337965e+01	-2.867958e+02
2.690000e-06	-2.017851e-06	-4.972979e-09	-1.405756e+01	-3.288738e+02
2.700000e-06	-2.114492e-06	-5.546070e-09	-1.473082e+01	-3.663912e+02
2.710000e-06	-2.210505e-06	-6.054087e-09	-1.539970e+01	-3.993324e+02
2.720000e-06	-2.305851e-06	-6.502183e-09	-1.606394e+01	-4.281273e+02
2.730000e-06	-2.400450e-06	-6.901010e-09	-1.672298e+01	-4.534607e+02
2.740000e-06	-2.494174e-06	-7.257127e-09	-1.737592e+01	-4.760669e+02
2.750000e-06	-2.586866e-06	-7.574273e-09	-1.802166e+01	-4.965675e+02
2.760000e-06	-2.678483e-06	-7.859763e-09	-1.865992e+01	-5.153867e+02
2.770000e-06	-2.769127e-06	-8.118926e-09	-1.929141e+01	-5.327513e+02
2.780000e-06	-2.858807e-06	-8.358553e-09	-1.991617e+01	-5.487530e+02
2.790000e-06	-2.947456e-06	-8.583973e-09	-2.053375e+01	-5.634362e+02
2.800000e-06	-3.035170e-06	-8.793865e-09	-2.114482e+01	-5.768736e+02
2.810000e-06	-3.121916e-06	-8.988146e-09	-2.174915e+01	-5.892012e+02
2.820000e-06	-3.207419e-06	-9.170262e-09	-2.234481e+01	-6.006100e+02
2.830000e-06	-3.291590e-06	-9.340439e-09	-2.293120e+01	-6.113034e+02
2.840000e-06	-3.374600e-06	-9.496959e-09	-2.350949e+01	-6.214475e+02
2.850000e-06	-3.456519e-06	-9.640445e-09	-2.408019e+01	-6.311358e+02
2.860000e-06	-3.537326e-06	-9.774451e-09	-2.464314e+01	-6.403833e+02
2.870000e-06	-3.616970e-06	-9.902664e-09	-2.519799e+01	-6.491508e+02
2.880000e-06	-3.695262e-06	-1.002723e-08	-2.574341e+01	-6.573855e+02
2.890000e-06	-3.771926e-06	-1.014760e-08	-2.627751e+01	-6.650616e+02
2.900000e-06	-3.847024e-06	-1.026215e-08	-2.680068e+01	-6.722027e+02
2.910000e-06	-3.920770e-06	-1.036996e-08	-2.731444e+01	-6.788804e+02
2.920000e-06	-3.993138e-06	-1.047039e-08	-2.781860e+01	-6.851915e+02
2.930000e-06	-4.064124e-06	-1.056406e-08	-2.831313e+01	-6.912264e+02
2.940000e-06	-4.133580e-06	-1.065115e-08	-2.879700e+01	-6.970428e+02
