# Temperatura_=_44.83
# Concentracion g/m^3_=_13400.0
# C_Vs_to_Am_M_A/Vsm_=_65563218390.804596
# pendiente_HvsI_1/m_=_3716.3
# ordenada_HvsI_A/m_=_1297.0
# frecuencia_Hz_=_300812.36794124317

Tiempo_(s)	Campo_(V.s)	Magnetizacion_(V.s)	Campo_(kA/m)	Magnetizacion_(A/m)
0.000000e+00	-5.472800e-06	-1.232259e-08	-3.831082e+01	-8.063084e+02
1.000000e-08	-5.471206e-06	-1.232298e-08	-3.829966e+01	-8.061758e+02
2.000000e-08	-5.467606e-06	-1.232189e-08	-3.827446e+01	-8.058428e+02
3.000000e-08	-5.462250e-06	-1.231725e-08	-3.823697e+01	-8.053160e+02
4.000000e-08	-5.455274e-06	-1.230624e-08	-3.818813e+01	-8.046424e+02
5.000000e-08	-5.446655e-06	-1.228829e-08	-3.812780e+01	-8.038878e+02
6.000000e-08	-5.436116e-06	-1.226812e-08	-3.805403e+01	-8.031081e+02
7.000000e-08	-5.423495e-06	-1.225100e-08	-3.796568e+01	-8.023245e+02
8.000000e-08	-5.408881e-06	-1.224999e-08	-3.786337e+01	-8.015156e+02
9.000000e-08	-5.391929e-06	-1.226282e-08	-3.774471e+01	-8.006277e+02
1.000000e-07	-5.372625e-06	-1.224927e-08	-3.760957e+01	-7.996014e+02
1.100000e-07	-5.351365e-06	-1.221760e-08	-3.746075e+01	-7.984002e+02
1.200000e-07	-5.328339e-06	-1.217745e-08	-3.729956e+01	-7.970300e+02
1.300000e-07	-5.303845e-06	-1.212108e-08	-3.712810e+01	-7.955401e+02
1.400000e-07	-5.277879e-06	-1.213312e-08	-3.694633e+01	-7.940039e+02
1.500000e-07	-5.250043e-06	-1.212604e-08	-3.675147e+01	-7.924879e+02
1.600000e-07	-5.220417e-06	-1.205637e-08	-3.654408e+01	-7.910217e+02
1.700000e-07	-5.189284e-06	-1.207986e-08	-3.632614e+01	-7.895815e+02
1.800000e-07	-5.156265e-06	-1.205807e-08	-3.609500e+01	-7.880952e+02
1.900000e-07	-5.121155e-06	-1.198034e-08	-3.584923e+01	-7.864677e+02
2.000000e-07	-5.084431e-06	-1.198485e-08	-3.559215e+01	-7.846154e+02
2.100000e-07	-5.046073e-06	-1.193461e-08	-3.532364e+01	-7.824966e+02
2.200000e-07	-5.005923e-06	-1.188462e-08	-3.504258e+01	-7.801263e+02
2.300000e-07	-4.963892e-06	-1.190237e-08	-3.474835e+01	-7.775673e+02
2.400000e-07	-4.919893e-06	-1.185484e-08	-3.444035e+01	-7.749038e+02
2.500000e-07	-4.874154e-06	-1.179441e-08	-3.412017e+01	-7.722067e+02
2.600000e-07	-4.826649e-06	-1.174190e-08	-3.378762e+01	-7.695058e+02
2.700000e-07	-4.777149e-06	-1.167111e-08	-3.344111e+01	-7.667801e+02
2.800000e-07	-4.725554e-06	-1.163777e-08	-3.307993e+01	-7.639690e+02
2.900000e-07	-4.671978e-06	-1.162227e-08	-3.270489e+01	-7.609993e+02
3.000000e-07	-4.616728e-06	-1.157575e-08	-3.231813e+01	-7.578168e+02
3.100000e-07	-4.559959e-06	-1.151381e-08	-3.192073e+01	-7.544084e+02
3.200000e-07	-4.501480e-06	-1.147666e-08	-3.151136e+01	-7.508055e+02
3.300000e-07	-4.441277e-06	-1.140961e-08	-3.108993e+01	-7.470688e+02
3.400000e-07	-4.379547e-06	-1.131745e-08	-3.065780e+01	-7.432602e+02
3.500000e-07	-4.316346e-06	-1.126589e-08	-3.021538e+01	-7.394159e+02
3.600000e-07	-4.251682e-06	-1.120981e-08	-2.976272e+01	-7.355306e+02
3.700000e-07	-4.185420e-06	-1.115626e-08	-2.929888e+01	-7.315609e+02
3.800000e-07	-4.117452e-06	-1.110965e-08	-2.882308e+01	-7.274450e+02
3.900000e-07	-4.047935e-06	-1.103051e-08	-2.833645e+01	-7.231301e+02
4.000000e-07	-3.977087e-06	-1.095427e-08	-2.784050e+01	-7.185950e+02
4.100000e-07	-3.904950e-06	-1.088462e-08	-2.733552e+01	-7.138586e+02
4.200000e-07	-3.831452e-06	-1.080625e-08	-2.682102e+01	-7.089692e+02
4.300000e-07	-3.756326e-06	-1.072275e-08	-2.629512e+01	-7.039813e+02
4.400000e-07	-3.679532e-06	-1.065075e-08	-2.575755e+01	-6.989295e+02
4.500000e-07	-3.601305e-06	-1.058312e-08	-2.520994e+01	-6.938099e+02
4.600000e-07	-3.521611e-06	-1.050463e-08	-2.465206e+01	-6.885804e+02
4.700000e-07	-3.440506e-06	-1.041478e-08	-2.408431e+01	-6.831766e+02
4.800000e-07	-3.358198e-06	-1.031225e-08	-2.350813e+01	-6.775383e+02
4.900000e-07	-3.274739e-06	-1.022099e-08	-2.292390e+01	-6.716349e+02
5.000000e-07	-3.190229e-06	-1.013776e-08	-2.233232e+01	-6.654774e+02
5.100000e-07	-3.104780e-06	-1.004540e-08	-2.173415e+01	-6.591130e+02
5.200000e-07	-3.018386e-06	-9.948664e-09	-2.112937e+01	-6.526038e+02
5.300000e-07	-2.931009e-06	-9.848093e-09	-2.051771e+01	-6.459993e+02
5.400000e-07	-2.842676e-06	-9.742084e-09	-1.989937e+01	-6.393150e+02
5.500000e-07	-2.753399e-06	-9.632546e-09	-1.927440e+01	-6.325253e+02
5.600000e-07	-2.662993e-06	-9.520594e-09	-1.864154e+01	-6.255750e+02
5.700000e-07	-2.571432e-06	-9.408198e-09	-1.800060e+01	-6.184025e+02
5.800000e-07	-2.478916e-06	-9.297199e-09	-1.735297e+01	-6.109651e+02
5.900000e-07	-2.385622e-06	-9.185559e-09	-1.669988e+01	-6.032544e+02
6.000000e-07	-2.291641e-06	-9.065586e-09	-1.604200e+01	-5.952945e+02
6.100000e-07	-2.196880e-06	-8.937766e-09	-1.537865e+01	-5.871246e+02
6.200000e-07	-2.101317e-06	-8.805164e-09	-1.470969e+01	-5.787750e+02
6.300000e-07	-2.005006e-06	-8.669766e-09	-1.403549e+01	-5.702458e+02
6.400000e-07	-1.907960e-06	-8.534509e-09	-1.335614e+01	-5.615013e+02
6.500000e-07	-1.810212e-06	-8.393974e-09	-1.267189e+01	-5.524811e+02
6.600000e-07	-1.711709e-06	-8.249919e-09	-1.198234e+01	-5.431253e+02
6.700000e-07	-1.612430e-06	-8.104001e-09	-1.128737e+01	-5.333990e+02
6.800000e-07	-1.512445e-06	-7.953728e-09	-1.058746e+01	-5.233072e+02
6.900000e-07	-1.411915e-06	-7.795534e-09	-9.883721e+00	-5.128897e+02
7.000000e-07	-1.310992e-06	-7.628737e-09	-9.177234e+00	-5.021979e+02
7.100000e-07	-1.209706e-06	-7.458063e-09	-8.468211e+00	-4.912624e+02
7.200000e-07	-1.108066e-06	-7.283197e-09	-7.756710e+00	-4.800680e+02
7.300000e-07	-1.006065e-06	-7.105815e-09	-7.042677e+00	-4.685466e+02
7.400000e-07	-9.036683e-07	-6.924636e-09	-6.325879e+00	-4.565946e+02
7.500000e-07	-8.009182e-07	-6.734389e-09	-5.606606e+00	-4.441078e+02
7.600000e-07	-6.979264e-07	-6.533672e-09	-4.885640e+00	-4.310200e+02
7.700000e-07	-5.947425e-07	-6.324345e-09	-4.163330e+00	-4.173254e+02
7.800000e-07	-4.913340e-07	-6.107136e-09	-3.439447e+00	-4.030743e+02
7.900000e-07	-3.877626e-07	-5.885236e-09	-2.714424e+00	-3.883398e+02
8.000000e-07	-2.840863e-07	-5.657957e-09	-1.988667e+00	-3.731692e+02
8.100000e-07	-1.803230e-07	-5.419215e-09	-1.262301e+00	-3.575394e+02
8.200000e-07	-7.647897e-08	-5.168822e-09	-5.353699e-01	-3.413390e+02
8.300000e-07	2.744484e-08	-4.905872e-09	1.921200e-01	-3.243883e+02
8.400000e-07	1.313629e-07	-4.629577e-09	9.195699e-01	-3.064898e+02
8.500000e-07	2.352070e-07	-4.340686e-09	1.646502e+00	-2.874903e+02
8.600000e-07	3.389352e-07	-4.038057e-09	2.372622e+00	-2.673217e+02
8.700000e-07	4.425348e-07	-3.718650e-09	3.097842e+00	-2.459959e+02
8.800000e-07	5.460479e-07	-3.379706e-09	3.822457e+00	-2.235445e+02
8.900000e-07	6.493940e-07	-3.017016e-09	4.545903e+00	-1.999155e+02
9.000000e-07	7.524758e-07	-2.626506e-09	5.267498e+00	-1.748665e+02
9.100000e-07	8.553153e-07	-2.204962e-09	5.987398e+00	-1.479003e+02
9.200000e-07	9.578583e-07	-1.745730e-09	6.705222e+00	-1.182848e+02
9.300000e-07	1.060087e-06	-1.238731e-09	7.420847e+00	-8.517464e+01
9.400000e-07	1.161940e-06	-6.736058e-10	8.133840e+00	-4.781823e+01
9.500000e-07	1.263374e-06	-4.186059e-11	8.843899e+00	-5.800162e+00
9.600000e-07	1.364463e-06	6.634299e-10	9.551545e+00	4.075022e+01
9.700000e-07	1.465150e-06	1.437061e-09	1.025638e+01	9.105212e+01
9.800000e-07	1.565301e-06	2.251788e-09	1.095745e+01	1.437118e+02
9.900000e-07	1.664860e-06	3.070511e-09	1.165439e+01	1.969091e+02
1.000000e-06	1.763744e-06	3.860425e-09	1.234660e+01	2.486917e+02
1.010000e-06	1.861875e-06	4.592197e-09	1.303354e+01	2.973036e+02
1.020000e-06	1.959261e-06	5.247403e-09	1.371526e+01	3.414640e+02
1.030000e-06	2.055880e-06	5.824391e-09	1.439162e+01	3.805289e+02
1.040000e-06	2.151723e-06	6.331735e-09	1.506254e+01	4.145013e+02
1.050000e-06	2.246820e-06	6.780844e-09	1.572824e+01	4.439007e+02
1.060000e-06	2.341225e-06	7.177581e-09	1.638910e+01	4.695429e+02
1.070000e-06	2.434918e-06	7.526818e-09	1.704497e+01	4.922983e+02
1.080000e-06	2.527830e-06	7.837251e-09	1.769538e+01	5.128976e+02
1.090000e-06	2.619908e-06	8.118632e-09	1.833994e+01	5.318287e+02
1.100000e-06	2.711027e-06	8.378134e-09	1.897780e+01	5.493343e+02
1.110000e-06	2.801036e-06	8.617211e-09	1.960788e+01	5.654878e+02
1.120000e-06	2.889917e-06	8.837192e-09	2.023006e+01	5.803024e+02
1.130000e-06	2.977795e-06	9.040398e-09	2.084523e+01	5.938268e+02
1.140000e-06	3.064684e-06	9.228872e-09	2.145347e+01	6.061932e+02
1.150000e-06	3.150557e-06	9.405542e-09	2.205460e+01	6.176101e+02
1.160000e-06	3.235446e-06	9.571118e-09	2.264884e+01	6.283120e+02
1.170000e-06	3.319302e-06	9.724326e-09	2.323586e+01	6.384952e+02
1.180000e-06	3.401935e-06	9.870545e-09	2.381430e+01	6.482710e+02
1.190000e-06	3.483275e-06	1.001338e-08	2.438370e+01	6.576543e+02
1.200000e-06	3.563327e-06	1.014896e-08	2.494408e+01	6.665899e+02
1.210000e-06	3.642051e-06	1.027431e-08	2.549517e+01	6.750023e+02
1.220000e-06	3.719507e-06	1.039110e-08	2.603738e+01	6.828463e+02
1.230000e-06	3.795638e-06	1.050319e-08	2.657031e+01	6.901374e+02
1.240000e-06	3.870256e-06	1.061025e-08	2.709266e+01	6.969516e+02
1.250000e-06	3.943301e-06	1.070897e-08	2.760399e+01	7.033980e+02
1.260000e-06	4.014894e-06	1.080152e-08	2.810515e+01	7.095794e+02
1.270000e-06	4.085103e-06	1.089223e-08	2.859663e+01	7.155586e+02
1.280000e-06	4.153991e-06	1.097988e-08	2.907886e+01	7.213458e+02
1.290000e-06	4.221432e-06	1.106175e-08	2.955097e+01	7.269098e+02
1.300000e-06	4.287224e-06	1.113787e-08	3.001152e+01	7.322068e+02
1.310000e-06	4.351419e-06	1.120970e-08	3.046090e+01	7.372117e+02
1.320000e-06	4.414166e-06	1.128053e-08	3.090014e+01	7.419374e+02
1.330000e-06	4.475517e-06	1.135157e-08	3.132961e+01	7.464335e+02
1.340000e-06	4.535398e-06	1.142069e-08	3.174880e+01	7.507658e+02
1.350000e-06	4.593547e-06	1.148597e-08	3.215585e+01	7.549875e+02
1.360000e-06	4.649893e-06	1.154800e-08	3.255029e+01	7.591146e+02
1.370000e-06	4.704612e-06	1.160784e-08	3.293333e+01	7.631193e+02
1.380000e-06	4.757661e-06	1.166341e-08	3.330469e+01	7.669425e+02
1.390000e-06	4.808737e-06	1.171254e-08	3.366223e+01	7.705214e+02
1.400000e-06	4.857754e-06	1.175799e-08	3.400536e+01	7.738195e+02
1.410000e-06	4.904995e-06	1.180433e-08	3.433606e+01	7.768445e+02
1.420000e-06	4.950631e-06	1.185179e-08	3.465552e+01	7.796479e+02
1.430000e-06	4.994643e-06	1.189561e-08	3.496361e+01	7.823041e+02
1.440000e-06	5.036778e-06	1.193376e-08	3.525857e+01	7.848799e+02
1.450000e-06	5.077025e-06	1.197051e-08	3.554031e+01	7.874066e+02
1.460000e-06	5.115581e-06	1.200701e-08	3.581021e+01	7.898681e+02
1.470000e-06	5.152468e-06	1.204083e-08	3.606843e+01	7.922087e+02
1.480000e-06	5.187537e-06	1.207096e-08	3.631392e+01	7.943591e+02
1.490000e-06	5.220690e-06	1.209875e-08	3.654600e+01	7.962677e+02
1.500000e-06	5.252022e-06	1.212427e-08	3.676532e+01	7.979246e+02
1.510000e-06	5.281625e-06	1.214743e-08	3.697255e+01	7.993672e+02
1.520000e-06	5.309454e-06	1.216928e-08	3.716736e+01	8.006659e+02
1.530000e-06	5.335232e-06	1.219091e-08	3.734781e+01	8.018949e+02
1.540000e-06	5.358957e-06	1.220995e-08	3.751389e+01	8.031019e+02
1.550000e-06	5.380920e-06	1.222498e-08	3.766764e+01	8.042890e+02
1.560000e-06	5.401150e-06	1.223834e-08	3.780925e+01	8.054135e+02
1.570000e-06	5.419514e-06	1.225057e-08	3.793781e+01	8.064077e+02
1.580000e-06	5.435907e-06	1.226233e-08	3.805256e+01	8.072098e+02
1.590000e-06	5.450330e-06	1.227235e-08	3.815352e+01	8.077914e+02
1.600000e-06	5.462668e-06	1.227938e-08	3.823989e+01	8.081711e+02
1.610000e-06	5.472733e-06	1.228539e-08	3.831035e+01	8.084070e+02
1.620000e-06	5.480732e-06	1.229196e-08	3.836635e+01	8.085729e+02
1.630000e-06	5.486919e-06	1.229753e-08	3.840965e+01	8.087270e+02
1.640000e-06	5.491338e-06	1.229900e-08	3.844059e+01	8.088880e+02
1.650000e-06	5.493749e-06	1.229836e-08	3.845747e+01	8.090281e+02
1.660000e-06	5.494111e-06	1.229916e-08	3.846000e+01	8.090857e+02
1.670000e-06	5.492692e-06	1.229865e-08	3.845007e+01	8.089925e+02
1.680000e-06	5.489624e-06	1.229419e-08	3.842859e+01	8.087034e+02
1.690000e-06	5.484751e-06	1.228625e-08	3.839448e+01	8.082154e+02
1.700000e-06	5.477929e-06	1.227732e-08	3.834673e+01	8.075679e+02
1.710000e-06	5.469409e-06	1.226920e-08	3.828708e+01	8.068252e+02
1.720000e-06	5.459284e-06	1.226162e-08	3.821621e+01	8.060476e+02
1.730000e-06	5.447233e-06	1.225615e-08	3.813184e+01	8.052653e+02
1.740000e-06	5.433075e-06	1.223147e-08	3.803273e+01	8.044655e+02
1.750000e-06	5.416876e-06	1.219532e-08	3.791934e+01	8.035998e+02
1.760000e-06	5.398231e-06	1.217430e-08	3.778882e+01	8.026074e+02
1.770000e-06	5.376810e-06	1.216444e-08	3.763887e+01	8.014448e+02
1.780000e-06	5.353288e-06	1.218215e-08	3.747421e+01	8.001080e+02
1.790000e-06	5.328630e-06	1.216863e-08	3.730160e+01	7.986379e+02
1.800000e-06	5.303157e-06	1.211122e-08	3.712328e+01	7.971053e+02
1.810000e-06	5.275973e-06	1.211162e-08	3.693299e+01	7.955809e+02
1.820000e-06	5.246420e-06	1.209427e-08	3.672611e+01	7.941041e+02
1.830000e-06	5.215216e-06	1.205078e-08	3.650768e+01	7.926630e+02
1.840000e-06	5.182331e-06	1.206538e-08	3.627747e+01	7.911943e+02
1.850000e-06	5.147622e-06	1.203853e-08	3.603450e+01	7.896051e+02
1.860000e-06	5.111317e-06	1.199658e-08	3.578036e+01	7.878062e+02
1.870000e-06	5.072975e-06	1.199594e-08	3.551196e+01	7.857452e+02
1.880000e-06	5.032787e-06	1.193406e-08	3.523063e+01	7.834248e+02
1.890000e-06	4.991031e-06	1.187501e-08	3.493833e+01	7.808994e+02
1.900000e-06	4.947428e-06	1.185787e-08	3.463310e+01	7.782514e+02
1.910000e-06	4.902051e-06	1.181996e-08	3.431545e+01	7.755572e+02
1.920000e-06	4.854804e-06	1.180897e-08	3.398471e+01	7.728572e+02
1.930000e-06	4.805723e-06	1.177417e-08	3.364113e+01	7.701410e+02
1.940000e-06	4.754968e-06	1.169214e-08	3.328584e+01	7.673544e+02
1.950000e-06	4.702124e-06	1.163787e-08	3.291592e+01	7.644243e+02
1.960000e-06	4.647365e-06	1.160460e-08	3.253259e+01	7.612901e+02
1.970000e-06	4.590954e-06	1.154856e-08	3.213770e+01	7.579289e+02
1.980000e-06	4.532875e-06	1.149041e-08	3.173113e+01	7.543632e+02
1.990000e-06	4.473345e-06	1.147128e-08	3.131441e+01	7.506495e+02
2.000000e-06	4.412100e-06	1.141932e-08	3.088569e+01	7.468521e+02
2.010000e-06	4.349131e-06	1.134610e-08	3.044489e+01	7.430143e+02
2.020000e-06	4.284639e-06	1.128958e-08	2.999343e+01	7.391404e+02
2.030000e-06	4.218681e-06	1.120394e-08	2.953170e+01	7.351937e+02
2.040000e-06	4.151350e-06	1.114461e-08	2.906038e+01	7.311143e+02
2.050000e-06	4.082318e-06	1.109084e-08	2.857714e+01	7.268452e+02
2.060000e-06	4.011645e-06	1.102542e-08	2.808241e+01	7.223571e+02
2.070000e-06	3.939623e-06	1.096753e-08	2.757824e+01	7.176604e+02
2.080000e-06	3.866314e-06	1.088818e-08	2.706506e+01	7.127989e+02
2.090000e-06	3.791608e-06	1.081648e-08	2.654210e+01	7.078283e+02
2.100000e-06	3.715191e-06	1.073296e-08	2.600717e+01	7.027890e+02
2.110000e-06	3.637111e-06	1.064852e-08	2.546059e+01	6.976863e+02
2.120000e-06	3.557712e-06	1.057061e-08	2.490478e+01	6.924854e+02
2.130000e-06	3.477162e-06	1.049449e-08	2.434091e+01	6.871246e+02
2.140000e-06	3.395455e-06	1.042062e-08	2.376894e+01	6.815404e+02
2.150000e-06	3.312688e-06	1.032033e-08	2.318955e+01	6.756944e+02
2.160000e-06	3.228846e-06	1.023129e-08	2.260264e+01	6.695883e+02
2.170000e-06	3.143695e-06	1.013438e-08	2.200657e+01	6.632631e+02
2.180000e-06	3.057209e-06	1.003278e-08	2.140114e+01	6.567799e+02
2.190000e-06	2.969656e-06	9.939842e-09	2.078825e+01	6.501932e+02
2.200000e-06	2.881188e-06	9.832857e-09	2.016896e+01	6.435268e+02
2.210000e-06	2.791738e-06	9.735124e-09	1.954278e+01	6.367637e+02
2.220000e-06	2.701360e-06	9.628696e-09	1.891012e+01	6.298531e+02
2.230000e-06	2.610107e-06	9.518621e-09	1.827133e+01	6.227328e+02
2.240000e-06	2.517912e-06	9.404349e-09	1.762595e+01	6.153542e+02
2.250000e-06	2.424715e-06	9.285244e-09	1.697354e+01	6.077010e+02
2.260000e-06	2.330565e-06	9.174678e-09	1.631448e+01	5.997913e+02
2.270000e-06	2.235562e-06	9.056655e-09	1.564943e+01	5.916632e+02
2.280000e-06	2.139812e-06	8.937322e-09	1.497916e+01	5.833508e+02
2.290000e-06	2.043401e-06	8.808208e-09	1.430426e+01	5.748620e+02
2.300000e-06	1.946256e-06	8.671840e-09	1.362423e+01	5.661681e+02
2.310000e-06	1.848502e-06	8.533870e-09	1.293992e+01	5.572125e+02
2.320000e-06	1.750281e-06	8.387329e-09	1.225236e+01	5.479327e+02
2.330000e-06	1.651520e-06	8.240019e-09	1.156101e+01	5.382868e+02
2.340000e-06	1.552232e-06	8.092197e-09	1.086597e+01	5.282709e+02
2.350000e-06	1.452418e-06	7.942417e-09	1.016725e+01	5.179189e+02
2.360000e-06	1.352004e-06	7.786580e-09	9.464330e+00	5.072820e+02
2.370000e-06	1.251015e-06	7.620442e-09	8.757384e+00	4.963982e+02
2.380000e-06	1.149505e-06	7.447652e-09	8.046794e+00	4.852633e+02
2.390000e-06	1.047519e-06	7.268446e-09	7.332869e+00	4.738199e+02
2.400000e-06	9.450775e-07	7.084535e-09	6.615753e+00	4.619696e+02
2.410000e-06	8.421796e-07	6.897743e-09	5.895445e+00	4.496048e+02
2.420000e-06	7.388936e-07	6.703946e-09	5.172420e+00	4.366485e+02
2.430000e-06	6.353499e-07	6.500947e-09	4.447591e+00	4.230812e+02
2.440000e-06	5.316929e-07	6.285921e-09	3.721969e+00	4.089432e+02
2.450000e-06	4.279279e-07	6.062530e-09	2.995591e+00	3.943067e+02
2.460000e-06	3.240037e-07	5.833602e-09	2.268098e+00	3.792287e+02
2.470000e-06	2.199425e-07	5.595261e-09	1.539646e+00	3.637036e+02
2.480000e-06	1.158143e-07	5.346010e-09	8.107260e-01	3.476389e+02
2.490000e-06	1.168749e-08	5.083475e-09	8.181505e-02	3.308659e+02
2.500000e-06	-9.242170e-08	4.812586e-09	-6.469725e-01	3.131859e+02
2.510000e-06	-1.964985e-07	4.532256e-09	-1.375533e+00	2.944312e+02
2.520000e-06	-3.005387e-07	4.233917e-09	-2.103838e+00	2.745143e+02
2.530000e-06	-4.044817e-07	3.915286e-09	-2.831462e+00	2.534331e+02
2.540000e-06	-5.082644e-07	3.576432e-09	-3.557964e+00	2.312227e+02
2.550000e-06	-6.118475e-07	3.220450e-09	-4.283069e+00	2.078585e+02
2.560000e-06	-7.152059e-07	2.844988e-09	-5.006601e+00	1.831466e+02
2.570000e-06	-8.182696e-07	2.437811e-09	-5.728070e+00	1.566460e+02
2.580000e-06	-9.209938e-07	1.990214e-09	-6.447162e+00	1.276682e+02
2.590000e-06	-1.023340e-06	1.497766e-09	-7.163605e+00	9.537705e+01
2.600000e-06	-1.125176e-06	9.511058e-10	-7.876482e+00	5.898061e+01
2.610000e-06	-1.226486e-06	3.379036e-10	-8.585676e+00	1.797163e+01
2.620000e-06	-1.327280e-06	-3.473113e-10	-9.291253e+00	-2.765061e+01
2.630000e-06	-1.427542e-06	-1.099685e-09	-9.993112e+00	-7.724696e+01
2.640000e-06	-1.527293e-06	-1.904183e-09	-1.069139e+01	-1.295440e+02
2.650000e-06	-1.626551e-06	-2.731214e-09	-1.138622e+01	-1.827910e+02
2.660000e-06	-1.725266e-06	-3.540013e-09	-1.207725e+01	-2.350361e+02
2.670000e-06	-1.823358e-06	-4.296433e-09	-1.276391e+01	-2.844549e+02
2.680000e-06	-1.920852e-06	-4.982801e-09	-1.344639e+01	-3.296463e+02
2.690000e-06	-2.017727e-06	-5.593401e-09	-1.412454e+01	-3.698238e+02
2.700000e-06	-2.113925e-06	-6.130526e-09	-1.479795e+01	-4.048583e+02
2.710000e-06	-2.209516e-06	-6.600333e-09	-1.546710e+01	-4.351753e+02
2.720000e-06	-2.304454e-06	-7.012742e-09	-1.613169e+01	-4.615477e+02
2.730000e-06	-2.398549e-06	-7.379446e-09	-1.679038e+01	-4.848532e+02
2.740000e-06	-2.491690e-06	-7.709276e-09	-1.744238e+01	-5.058645e+02
2.750000e-06	-2.583826e-06	-8.007448e-09	-1.808736e+01	-5.251250e+02
2.760000e-06	-2.674948e-06	-8.276807e-09	-1.872523e+01	-5.429257e+02
2.770000e-06	-2.765045e-06	-8.521826e-09	-1.935593e+01	-5.593675e+02
2.780000e-06	-2.854123e-06	-8.751490e-09	-1.997950e+01	-5.744673e+02
2.790000e-06	-2.942247e-06	-8.966890e-09	-2.059639e+01	-5.882600e+02
2.800000e-06	-3.029439e-06	-9.162781e-09	-2.120675e+01	-6.008590e+02
2.810000e-06	-3.115586e-06	-9.343760e-09	-2.180979e+01	-6.124596e+02
2.820000e-06	-3.200491e-06	-9.515862e-09	-2.240415e+01	-6.232960e+02
2.830000e-06	-3.284127e-06	-9.678799e-09	-2.298962e+01	-6.335776e+02
2.840000e-06	-3.366638e-06	-9.831027e-09	-2.356722e+01	-6.434364e+02
2.850000e-06	-3.448100e-06	-9.972150e-09	-2.413747e+01	-6.529067e+02
2.860000e-06	-3.528412e-06	-1.010384e-08	-2.469967e+01	-6.619448e+02
2.870000e-06	-3.607517e-06	-1.022865e-08	-2.525342e+01	-6.704747e+02
2.880000e-06	-3.685203e-06	-1.034927e-08	-2.579724e+01	-6.784415e+02
2.890000e-06	-3.761292e-06	-1.046508e-08	-2.632988e+01	-6.858465e+02
2.900000e-06	-3.835918e-06	-1.057589e-08	-2.685228e+01	-6.927542e+02
2.910000e-06	-3.909197e-06	-1.068143e-08	-2.736525e+01	-6.992700e+02
2.920000e-06	-3.981160e-06	-1.078164e-08	-2.786901e+01	-7.055012e+02
2.930000e-06	-4.051705e-06	-1.087662e-08	-2.836284e+01	-7.115211e+02
2.940000e-06	-4.120669e-06	-1.096417e-08	-2.884560e+01	-7.173510e+02
