# Temperatura_=_35.48
# Concentracion g/m^3_=_13400.0
# C_Vs_to_Am_M_A/Vsm_=_65563218390.804596
# pendiente_HvsI_1/m_=_3716.3
# ordenada_HvsI_A/m_=_1297.0
# frecuencia_Hz_=_300812.54836077767

Tiempo_(s)	Campo_(V.s)	Magnetizacion_(V.s)	Campo_(kA/m)	Magnetizacion_(A/m)
0.000000e+00	-5.492778e-06	-1.207043e-08	-3.830544e+01	-7.899122e+02
1.000000e-08	-5.491473e-06	-1.207115e-08	-3.829635e+01	-7.897884e+02
2.000000e-08	-5.488189e-06	-1.206997e-08	-3.827344e+01	-7.895023e+02
3.000000e-08	-5.483083e-06	-1.206369e-08	-3.823783e+01	-7.890470e+02
4.000000e-08	-5.476365e-06	-1.205574e-08	-3.819099e+01	-7.884506e+02
5.000000e-08	-5.468045e-06	-1.204439e-08	-3.813297e+01	-7.877622e+02
6.000000e-08	-5.457868e-06	-1.202594e-08	-3.806199e+01	-7.870296e+02
7.000000e-08	-5.445583e-06	-1.200451e-08	-3.797632e+01	-7.862773e+02
8.000000e-08	-5.431290e-06	-1.198905e-08	-3.787664e+01	-7.854967e+02
9.000000e-08	-5.414716e-06	-1.199829e-08	-3.776106e+01	-7.846506e+02
1.000000e-07	-5.395747e-06	-1.201933e-08	-3.762877e+01	-7.836929e+02
1.100000e-07	-5.374753e-06	-1.198683e-08	-3.748237e+01	-7.825922e+02
1.200000e-07	-5.351938e-06	-1.194068e-08	-3.732326e+01	-7.813497e+02
1.300000e-07	-5.327565e-06	-1.190995e-08	-3.715328e+01	-7.800027e+02
1.400000e-07	-5.301743e-06	-1.185168e-08	-3.697321e+01	-7.786113e+02
1.500000e-07	-5.274126e-06	-1.188104e-08	-3.678062e+01	-7.772322e+02
1.600000e-07	-5.244698e-06	-1.186901e-08	-3.657539e+01	-7.758930e+02
1.700000e-07	-5.213732e-06	-1.176697e-08	-3.635944e+01	-7.745753e+02
1.800000e-07	-5.180979e-06	-1.181802e-08	-3.613103e+01	-7.732163e+02
1.900000e-07	-5.146132e-06	-1.180215e-08	-3.588801e+01	-7.717286e+02
2.000000e-07	-5.109591e-06	-1.171032e-08	-3.563318e+01	-7.700304e+02
2.100000e-07	-5.071470e-06	-1.171759e-08	-3.536733e+01	-7.680740e+02
2.200000e-07	-5.031564e-06	-1.164535e-08	-3.508904e+01	-7.658625e+02
2.300000e-07	-4.989771e-06	-1.161191e-08	-3.479758e+01	-7.634458e+02
2.400000e-07	-4.945921e-06	-1.162947e-08	-3.449178e+01	-7.608999e+02
2.500000e-07	-4.900275e-06	-1.156051e-08	-3.417345e+01	-7.582963e+02
2.600000e-07	-4.852915e-06	-1.153208e-08	-3.384318e+01	-7.556751e+02
2.700000e-07	-4.803598e-06	-1.147546e-08	-3.349926e+01	-7.530321e+02
2.800000e-07	-4.752187e-06	-1.141283e-08	-3.314073e+01	-7.503245e+02
2.900000e-07	-4.698774e-06	-1.140499e-08	-3.276823e+01	-7.474921e+02
3.000000e-07	-4.643660e-06	-1.135123e-08	-3.238388e+01	-7.444850e+02
3.100000e-07	-4.586903e-06	-1.129746e-08	-3.198807e+01	-7.412841e+02
3.200000e-07	-4.528329e-06	-1.125838e-08	-3.157959e+01	-7.379085e+02
3.300000e-07	-4.468020e-06	-1.121443e-08	-3.115901e+01	-7.344040e+02
3.400000e-07	-4.406192e-06	-1.114570e-08	-3.072783e+01	-7.308212e+02
3.500000e-07	-4.342935e-06	-1.107179e-08	-3.028669e+01	-7.271910e+02
3.600000e-07	-4.278204e-06	-1.102786e-08	-2.983527e+01	-7.235097e+02
3.700000e-07	-4.211833e-06	-1.096315e-08	-2.937241e+01	-7.197404e+02
3.800000e-07	-4.143803e-06	-1.091261e-08	-2.889799e+01	-7.158285e+02
3.900000e-07	-4.074274e-06	-1.085859e-08	-2.841311e+01	-7.117265e+02
4.000000e-07	-4.003427e-06	-1.077954e-08	-2.791903e+01	-7.074151e+02
4.100000e-07	-3.931300e-06	-1.072058e-08	-2.741604e+01	-7.029114e+02
4.200000e-07	-3.857764e-06	-1.064534e-08	-2.690322e+01	-6.982613e+02
4.300000e-07	-3.782535e-06	-1.056930e-08	-2.637858e+01	-6.935181e+02
4.400000e-07	-3.705649e-06	-1.049172e-08	-2.584239e+01	-6.887172e+02
4.500000e-07	-3.627351e-06	-1.042427e-08	-2.529636e+01	-6.838580e+02
4.600000e-07	-3.547568e-06	-1.035889e-08	-2.473997e+01	-6.789020e+02
4.700000e-07	-3.466311e-06	-1.027547e-08	-2.417331e+01	-6.737863e+02
4.800000e-07	-3.383782e-06	-1.018960e-08	-2.359777e+01	-6.684495e+02
4.900000e-07	-3.300155e-06	-1.009633e-08	-2.301457e+01	-6.628560e+02
5.000000e-07	-3.215541e-06	-1.000765e-08	-2.242449e+01	-6.570107e+02
5.100000e-07	-3.129998e-06	-9.914348e-09	-2.182793e+01	-6.509550e+02
5.200000e-07	-3.043508e-06	-9.821136e-09	-2.122477e+01	-6.447480e+02
5.300000e-07	-2.956034e-06	-9.731262e-09	-2.061474e+01	-6.384395e+02
5.400000e-07	-2.867654e-06	-9.636892e-09	-1.999840e+01	-6.320467e+02
5.500000e-07	-2.778279e-06	-9.537631e-09	-1.937512e+01	-6.255460e+02
5.600000e-07	-2.687679e-06	-9.429249e-09	-1.874329e+01	-6.188818e+02
5.700000e-07	-2.595933e-06	-9.315513e-09	-1.810347e+01	-6.119895e+02
5.800000e-07	-2.503263e-06	-9.202607e-09	-1.745721e+01	-6.048223e+02
5.900000e-07	-2.409770e-06	-9.092689e-09	-1.680521e+01	-5.973692e+02
6.000000e-07	-2.315517e-06	-8.978132e-09	-1.614792e+01	-5.896563e+02
6.100000e-07	-2.220504e-06	-8.856205e-09	-1.548532e+01	-5.817309e+02
6.200000e-07	-2.124751e-06	-8.732783e-09	-1.481755e+01	-5.736354e+02
6.300000e-07	-2.028278e-06	-8.608345e-09	-1.414477e+01	-5.653822e+02
6.400000e-07	-1.931025e-06	-8.478014e-09	-1.346655e+01	-5.569429e+02
6.500000e-07	-1.832923e-06	-8.338611e-09	-1.278241e+01	-5.482557e+02
6.600000e-07	-1.733951e-06	-8.192262e-09	-1.209220e+01	-5.392486e+02
6.700000e-07	-1.634303e-06	-8.048209e-09	-1.139728e+01	-5.298688e+02
6.800000e-07	-1.534149e-06	-7.905180e-09	-1.069882e+01	-5.201033e+02
6.900000e-07	-1.433466e-06	-7.753427e-09	-9.996683e+00	-5.099811e+02
7.000000e-07	-1.332297e-06	-7.591342e-09	-9.291152e+00	-4.995555e+02
7.100000e-07	-1.230699e-06	-7.425860e-09	-8.582631e+00	-4.888720e+02
7.200000e-07	-1.128731e-06	-7.259359e-09	-7.871526e+00	-4.779377e+02
7.300000e-07	-1.026335e-06	-7.087169e-09	-7.157441e+00	-4.667056e+02
7.400000e-07	-9.234844e-07	-6.907890e-09	-6.440180e+00	-4.550829e+02
7.500000e-07	-8.202878e-07	-6.719255e-09	-5.720510e+00	-4.429614e+02
7.600000e-07	-7.168155e-07	-6.523860e-09	-4.998916e+00	-4.302568e+02
7.700000e-07	-6.131659e-07	-6.321898e-09	-4.276086e+00	-4.169397e+02
7.800000e-07	-5.093829e-07	-6.111631e-09	-3.552326e+00	-4.030425e+02
7.900000e-07	-4.054909e-07	-5.893475e-09	-2.827806e+00	-3.886365e+02
8.000000e-07	-3.014789e-07	-5.669893e-09	-2.102449e+00	-3.737870e+02
8.100000e-07	-1.973772e-07	-5.440358e-09	-1.376466e+00	-3.585042e+02
8.200000e-07	-9.322815e-08	-5.198928e-09	-6.501529e-01	-3.427136e+02
8.300000e-07	1.096687e-08	-4.943962e-09	7.648060e-02	-3.262596e+02
8.400000e-07	1.151455e-07	-4.674776e-09	8.029998e-01	-3.089464e+02
8.500000e-07	2.193046e-07	-4.394380e-09	1.529383e+00	-2.905976e+02
8.600000e-07	3.234217e-07	-4.102265e-09	2.255473e+00	-2.711090e+02
8.700000e-07	4.273984e-07	-3.793969e-09	2.980584e+00	-2.504652e+02
8.800000e-07	5.312344e-07	-3.465689e-09	3.704714e+00	-2.287017e+02
8.900000e-07	6.349857e-07	-3.115467e-09	4.428253e+00	-2.058195e+02
9.000000e-07	7.386036e-07	-2.742877e-09	5.150862e+00	-1.816763e+02
9.100000e-07	8.419850e-07	-2.344352e-09	5.871821e+00	-1.559026e+02
9.200000e-07	9.450419e-07	-1.909792e-09	6.590518e+00	-1.278826e+02
9.300000e-07	1.047667e-06	-1.429091e-09	7.306201e+00	-9.683137e+01
9.400000e-07	1.149878e-06	-8.987421e-10	8.019001e+00	-6.196432e+01
9.500000e-07	1.251786e-06	-3.089478e-10	8.729686e+00	-2.272327e+01
9.600000e-07	1.353261e-06	3.515061e-10	9.437352e+00	2.100168e+01
9.700000e-07	1.454228e-06	1.081505e-09	1.014147e+01	6.872316e+01
9.800000e-07	1.554744e-06	1.862944e-09	1.084245e+01	1.193336e+02
9.900000e-07	1.654758e-06	2.663553e-09	1.153993e+01	1.712279e+02
1.000000e-06	1.754262e-06	3.449434e-09	1.223384e+01	2.225493e+02
1.010000e-06	1.853092e-06	4.192420e-09	1.292307e+01	2.714989e+02
1.020000e-06	1.951032e-06	4.869399e-09	1.360607e+01	3.166306e+02
1.030000e-06	2.048055e-06	5.467470e-09	1.428269e+01	3.570577e+02
1.040000e-06	2.144299e-06	5.990924e-09	1.495388e+01	3.925234e+02
1.050000e-06	2.239887e-06	6.453744e-09	1.562049e+01	4.233289e+02
1.060000e-06	2.334775e-06	6.868038e-09	1.628221e+01	4.501526e+02
1.070000e-06	2.428902e-06	7.233645e-09	1.693864e+01	4.738208e+02
1.080000e-06	2.522224e-06	7.556018e-09	1.758945e+01	4.950978e+02
1.090000e-06	2.614710e-06	7.849105e-09	1.823442e+01	5.145490e+02
1.100000e-06	2.706392e-06	8.118651e-09	1.887379e+01	5.324989e+02
1.110000e-06	2.797026e-06	8.364443e-09	1.950585e+01	5.490763e+02
1.120000e-06	2.886340e-06	8.586639e-09	2.012871e+01	5.643093e+02
1.130000e-06	2.974597e-06	8.792234e-09	2.074419e+01	5.782263e+02
1.140000e-06	3.061931e-06	8.987016e-09	2.135324e+01	5.909232e+02
1.150000e-06	3.148268e-06	9.170158e-09	2.195534e+01	6.025781e+02
1.160000e-06	3.233583e-06	9.338544e-09	2.255031e+01	6.134177e+02
1.170000e-06	3.317873e-06	9.492194e-09	2.313813e+01	6.236586e+02
1.180000e-06	3.401067e-06	9.640281e-09	2.371831e+01	6.334515e+02
1.190000e-06	3.482952e-06	9.785045e-09	2.428936e+01	6.428539e+02
1.200000e-06	3.563507e-06	9.917540e-09	2.485113e+01	6.518388e+02
1.210000e-06	3.642734e-06	1.003725e-08	2.540364e+01	6.603348e+02
1.220000e-06	3.720668e-06	1.015468e-08	2.594713e+01	6.682767e+02
1.230000e-06	3.797330e-06	1.027356e-08	2.648176e+01	6.756461e+02
1.240000e-06	3.872538e-06	1.038524e-08	2.700624e+01	6.824871e+02
1.250000e-06	3.946103e-06	1.048249e-08	2.751927e+01	6.888928e+02
1.260000e-06	4.018183e-06	1.057026e-08	2.802194e+01	6.949729e+02
1.270000e-06	4.088910e-06	1.065870e-08	2.851518e+01	7.008176e+02
1.280000e-06	4.158211e-06	1.074630e-08	2.899847e+01	7.064735e+02
1.290000e-06	4.226142e-06	1.082537e-08	2.947220e+01	7.119410e+02
1.300000e-06	4.292481e-06	1.089847e-08	2.993483e+01	7.171913e+02
1.310000e-06	4.357132e-06	1.097257e-08	3.038570e+01	7.221934e+02
1.320000e-06	4.420292e-06	1.104723e-08	3.082616e+01	7.269371e+02
1.330000e-06	4.482026e-06	1.111756e-08	3.125668e+01	7.314428e+02
1.340000e-06	4.542425e-06	1.118103e-08	3.167789e+01	7.357534e+02
1.350000e-06	4.601209e-06	1.124303e-08	3.208784e+01	7.399136e+02
1.360000e-06	4.658108e-06	1.130689e-08	3.248464e+01	7.439487e+02
1.370000e-06	4.713341e-06	1.136743e-08	3.286982e+01	7.478519e+02
1.380000e-06	4.766917e-06	1.142060e-08	3.324345e+01	7.515872e+02
1.390000e-06	4.818542e-06	1.146782e-08	3.360347e+01	7.551072e+02
1.400000e-06	4.868077e-06	1.151311e-08	3.394892e+01	7.583762e+02
1.410000e-06	4.915752e-06	1.155974e-08	3.428139e+01	7.613891e+02
1.420000e-06	4.961824e-06	1.160518e-08	3.460268e+01	7.641768e+02
1.430000e-06	5.006317e-06	1.164593e-08	3.491297e+01	7.667944e+02
1.440000e-06	5.048861e-06	1.168490e-08	3.520966e+01	7.692996e+02
1.450000e-06	5.089476e-06	1.172445e-08	3.549291e+01	7.717282e+02
1.460000e-06	5.128454e-06	1.176096e-08	3.576473e+01	7.740801e+02
1.470000e-06	5.165729e-06	1.179109e-08	3.602467e+01	7.763203e+02
1.480000e-06	5.201237e-06	1.181716e-08	3.627230e+01	7.783965e+02
1.490000e-06	5.234815e-06	1.184338e-08	3.650647e+01	7.802637e+02
1.500000e-06	5.266535e-06	1.187063e-08	3.672767e+01	7.819065e+02
1.510000e-06	5.296596e-06	1.189444e-08	3.693732e+01	7.833480e+02
1.520000e-06	5.324963e-06	1.191456e-08	3.713514e+01	7.846423e+02
1.530000e-06	5.351231e-06	1.193527e-08	3.731833e+01	7.858527e+02
1.540000e-06	5.375370e-06	1.195586e-08	3.748667e+01	7.870257e+02
1.550000e-06	5.397727e-06	1.197344e-08	3.764258e+01	7.881715e+02
1.560000e-06	5.418376e-06	1.198515e-08	3.778658e+01	7.892600e+02
1.570000e-06	5.437180e-06	1.199365e-08	3.791772e+01	7.902346e+02
1.580000e-06	5.453981e-06	1.200420e-08	3.803488e+01	7.910360e+02
1.590000e-06	5.468777e-06	1.201515e-08	3.813807e+01	7.916288e+02
1.600000e-06	5.481450e-06	1.202261e-08	3.822645e+01	7.920173e+02
1.610000e-06	5.491878e-06	1.202814e-08	3.829917e+01	7.922442e+02
1.620000e-06	5.500218e-06	1.203600e-08	3.835733e+01	7.923738e+02
1.630000e-06	5.506723e-06	1.204352e-08	3.840270e+01	7.924660e+02
1.640000e-06	5.511479e-06	1.204425e-08	3.843587e+01	7.925524e+02
1.650000e-06	5.514246e-06	1.203911e-08	3.845516e+01	7.926253e+02
1.660000e-06	5.514940e-06	1.203707e-08	3.846000e+01	7.926429e+02
1.670000e-06	5.513790e-06	1.203875e-08	3.845198e+01	7.925495e+02
1.680000e-06	5.510957e-06	1.203523e-08	3.843222e+01	7.923000e+02
1.690000e-06	5.506360e-06	1.202726e-08	3.840016e+01	7.918796e+02
1.700000e-06	5.499809e-06	1.201680e-08	3.835448e+01	7.913097e+02
1.710000e-06	5.491484e-06	1.201086e-08	3.829642e+01	7.906364e+02
1.720000e-06	5.481556e-06	1.200654e-08	3.822718e+01	7.899101e+02
1.730000e-06	5.469715e-06	1.199980e-08	3.814461e+01	7.891615e+02
1.740000e-06	5.455813e-06	1.199188e-08	3.804766e+01	7.883893e+02
1.750000e-06	5.439973e-06	1.193780e-08	3.793720e+01	7.875611e+02
1.760000e-06	5.421750e-06	1.190079e-08	3.781012e+01	7.866308e+02
1.770000e-06	5.400674e-06	1.190631e-08	3.766313e+01	7.855618e+02
1.780000e-06	5.377275e-06	1.189743e-08	3.749996e+01	7.843476e+02
1.790000e-06	5.352627e-06	1.194554e-08	3.732806e+01	7.830183e+02
1.800000e-06	5.327284e-06	1.188902e-08	3.715133e+01	7.816310e+02
1.810000e-06	5.300418e-06	1.178364e-08	3.696397e+01	7.802455e+02
1.820000e-06	5.271077e-06	1.188985e-08	3.675935e+01	7.788975e+02
1.830000e-06	5.239977e-06	1.185543e-08	3.654246e+01	7.775791e+02
1.840000e-06	5.207341e-06	1.178565e-08	3.631487e+01	7.762358e+02
1.850000e-06	5.172807e-06	1.186887e-08	3.607404e+01	7.747833e+02
1.860000e-06	5.136577e-06	1.177775e-08	3.582138e+01	7.731356e+02
1.870000e-06	5.098328e-06	1.176408e-08	3.555464e+01	7.712360e+02
1.880000e-06	5.058163e-06	1.180169e-08	3.527453e+01	7.690762e+02
1.890000e-06	5.016461e-06	1.167176e-08	3.498371e+01	7.666975e+02
1.900000e-06	4.972918e-06	1.168433e-08	3.468005e+01	7.641726e+02
1.910000e-06	4.927554e-06	1.162677e-08	3.436370e+01	7.615765e+02
1.920000e-06	4.880384e-06	1.155212e-08	3.403474e+01	7.589579e+02
1.930000e-06	4.831331e-06	1.160940e-08	3.369266e+01	7.563220e+02
1.940000e-06	4.780572e-06	1.148411e-08	3.333868e+01	7.536330e+02
1.950000e-06	4.727759e-06	1.147020e-08	3.297037e+01	7.508322e+02
1.960000e-06	4.673030e-06	1.145701e-08	3.258870e+01	7.478653e+02
1.970000e-06	4.616648e-06	1.134996e-08	3.219551e+01	7.447055e+02
1.980000e-06	4.558591e-06	1.133409e-08	3.179063e+01	7.413640e+02
1.990000e-06	4.499137e-06	1.124879e-08	3.137601e+01	7.378826e+02
2.000000e-06	4.437997e-06	1.123371e-08	3.094963e+01	7.343129e+02
2.010000e-06	4.375128e-06	1.117748e-08	3.051120e+01	7.306918e+02
2.020000e-06	4.310761e-06	1.110363e-08	3.006232e+01	7.270236e+02
2.030000e-06	4.244875e-06	1.107990e-08	2.960284e+01	7.232774e+02
2.040000e-06	4.177568e-06	1.096987e-08	2.913345e+01	7.194005e+02
2.050000e-06	4.108547e-06	1.094178e-08	2.865212e+01	7.153421e+02
2.060000e-06	4.037871e-06	1.086402e-08	2.815924e+01	7.110752e+02
2.070000e-06	3.965832e-06	1.078877e-08	2.765686e+01	7.066095e+02
2.080000e-06	3.892430e-06	1.073940e-08	2.714497e+01	7.019861e+02
2.090000e-06	3.817620e-06	1.064470e-08	2.662326e+01	6.972588e+02
2.100000e-06	3.741127e-06	1.060114e-08	2.608981e+01	6.924689e+02
2.110000e-06	3.663009e-06	1.050171e-08	2.554503e+01	6.876242e+02
2.120000e-06	3.583577e-06	1.043491e-08	2.499109e+01	6.826936e+02
2.130000e-06	3.502997e-06	1.036103e-08	2.442914e+01	6.776177e+02
2.140000e-06	3.421274e-06	1.027214e-08	2.385923e+01	6.723324e+02
2.150000e-06	3.338468e-06	1.019886e-08	2.328175e+01	6.667949e+02
2.160000e-06	3.254433e-06	1.009440e-08	2.269571e+01	6.610010e+02
2.170000e-06	3.168992e-06	1.001844e-08	2.209986e+01	6.549855e+02
2.180000e-06	3.082360e-06	9.920023e-09	2.149571e+01	6.488060e+02
2.190000e-06	2.994666e-06	9.829701e-09	2.088415e+01	6.425164e+02
2.200000e-06	2.906006e-06	9.730327e-09	2.026585e+01	6.361422e+02
2.210000e-06	2.816427e-06	9.625268e-09	1.964116e+01	6.296684e+02
2.220000e-06	2.725958e-06	9.530929e-09	1.901024e+01	6.230447e+02
2.230000e-06	2.634593e-06	9.423526e-09	1.837308e+01	6.162061e+02
2.240000e-06	2.542200e-06	9.318747e-09	1.772875e+01	6.091000e+02
2.250000e-06	2.448797e-06	9.199799e-09	1.707738e+01	6.017070e+02
2.260000e-06	2.354494e-06	9.088021e-09	1.641973e+01	5.940461e+02
2.270000e-06	2.259333e-06	8.974350e-09	1.575610e+01	5.861620e+02
2.280000e-06	2.163383e-06	8.859263e-09	1.508696e+01	5.781005e+02
2.290000e-06	2.066756e-06	8.733883e-09	1.441311e+01	5.698820e+02
2.300000e-06	1.969373e-06	8.601594e-09	1.373398e+01	5.614869e+02
2.310000e-06	1.871309e-06	8.471254e-09	1.305010e+01	5.528589e+02
2.320000e-06	1.772814e-06	8.334547e-09	1.236322e+01	5.439258e+02
2.330000e-06	1.673878e-06	8.193026e-09	1.167326e+01	5.346284e+02
2.340000e-06	1.574381e-06	8.041265e-09	1.097939e+01	5.249443e+02
2.350000e-06	1.474205e-06	7.894397e-09	1.028078e+01	5.148944e+02
2.360000e-06	1.373291e-06	7.745783e-09	9.577031e+00	5.045291e+02
2.370000e-06	1.271778e-06	7.589073e-09	8.869107e+00	4.938985e+02
2.380000e-06	1.169840e-06	7.419400e-09	8.158215e+00	4.830199e+02
2.390000e-06	1.067496e-06	7.244061e-09	7.444483e+00	4.718581e+02
2.400000e-06	9.647205e-07	7.068297e-09	6.727752e+00	4.603283e+02
2.410000e-06	8.615156e-07	6.882663e-09	6.008023e+00	4.483221e+02
2.420000e-06	7.579346e-07	6.689204e-09	5.285672e+00	4.357470e+02
2.430000e-06	6.541083e-07	6.489906e-09	4.561610e+00	4.225603e+02
2.440000e-06	5.501122e-07	6.284994e-09	3.836363e+00	4.087821e+02
2.450000e-06	4.459513e-07	6.070047e-09	3.109968e+00	3.944785e+02
2.460000e-06	3.416588e-07	5.845173e-09	2.382654e+00	3.797206e+02
2.470000e-06	2.372830e-07	5.611484e-09	1.654760e+00	3.645338e+02
2.480000e-06	1.328184e-07	5.369701e-09	9.262471e-01	3.488626e+02
2.490000e-06	2.829285e-08	5.116481e-09	1.973082e-01	3.325667e+02
2.500000e-06	-7.618841e-08	4.850137e-09	-5.313215e-01	3.154540e+02
2.510000e-06	-1.805658e-07	4.571585e-09	-1.259227e+00	2.973388e+02
2.520000e-06	-2.848994e-07	4.279353e-09	-1.986827e+00	2.780986e+02
2.530000e-06	-3.892032e-07	3.974359e-09	-2.714219e+00	2.576999e+02
2.540000e-06	-4.934076e-07	3.652497e-09	-3.440918e+00	2.361734e+02
2.550000e-06	-5.974368e-07	3.310866e-09	-4.166395e+00	2.135363e+02
2.560000e-06	-7.012253e-07	2.946031e-09	-4.890194e+00	1.896858e+02
2.570000e-06	-8.046758e-07	2.554434e-09	-5.611635e+00	1.643054e+02
2.580000e-06	-9.077864e-07	2.130366e-09	-6.330706e+00	1.368290e+02
2.590000e-06	-1.010613e-06	1.665982e-09	-7.047795e+00	1.064965e+02
2.600000e-06	-1.113058e-06	1.149523e-09	-7.762224e+00	7.250537e+01
2.610000e-06	-1.215017e-06	5.716315e-10	-8.473268e+00	3.422902e+01
2.620000e-06	-1.316485e-06	-6.781884e-11	-9.180879e+00	-8.554529e+00
2.630000e-06	-1.417442e-06	-7.703279e-10	-9.884930e+00	-5.549269e+01
2.640000e-06	-1.517757e-06	-1.533733e-09	-1.058451e+01	-1.056054e+02
2.650000e-06	-1.617313e-06	-2.337035e-09	-1.127879e+01	-1.573769e+02
2.660000e-06	-1.716276e-06	-3.137838e-09	-1.196894e+01	-2.089794e+02
2.670000e-06	-1.814821e-06	-3.898190e-09	-1.265617e+01	-2.585750e+02
2.680000e-06	-1.912808e-06	-4.599962e-09	-1.333951e+01	-3.046207e+02
2.690000e-06	-2.010096e-06	-5.234245e-09	-1.401798e+01	-3.460989e+02
2.700000e-06	-2.106733e-06	-5.794531e-09	-1.469190e+01	-3.826193e+02
2.710000e-06	-2.202713e-06	-6.280773e-09	-1.536124e+01	-4.143758e+02
2.720000e-06	-2.297985e-06	-6.706665e-09	-1.602565e+01	-4.419848e+02
2.730000e-06	-2.392578e-06	-7.089645e-09	-1.668532e+01	-4.662601e+02
2.740000e-06	-2.486343e-06	-7.434002e-09	-1.733922e+01	-4.879939e+02
2.750000e-06	-2.579012e-06	-7.740950e-09	-1.798547e+01	-5.078011e+02
2.760000e-06	-2.670508e-06	-8.017573e-09	-1.862354e+01	-5.260565e+02
2.770000e-06	-2.761017e-06	-8.270332e-09	-1.925474e+01	-5.429239e+02
2.780000e-06	-2.850596e-06	-8.505917e-09	-1.987944e+01	-5.584440e+02
2.790000e-06	-2.939156e-06	-8.725595e-09	-2.049704e+01	-5.726379e+02
2.800000e-06	-3.026727e-06	-8.926230e-09	-2.110774e+01	-5.855840e+02
2.810000e-06	-3.113334e-06	-9.112128e-09	-2.171172e+01	-5.974439e+02
2.820000e-06	-3.198844e-06	-9.287386e-09	-2.230804e+01	-6.084388e+02
2.830000e-06	-3.283032e-06	-9.450344e-09	-2.289515e+01	-6.187924e+02
2.840000e-06	-3.365982e-06	-9.599614e-09	-2.347363e+01	-6.286733e+02
2.850000e-06	-3.447837e-06	-9.740312e-09	-2.404447e+01	-6.381593e+02
2.860000e-06	-3.528552e-06	-9.877242e-09	-2.460736e+01	-6.472390e+02
2.870000e-06	-3.608101e-06	-1.000798e-08	-2.516211e+01	-6.558463e+02
2.880000e-06	-3.686351e-06	-1.013130e-08	-2.570782e+01	-6.639106e+02
2.890000e-06	-3.763022e-06	-1.024705e-08	-2.624250e+01	-6.714012e+02
2.900000e-06	-3.838147e-06	-1.035695e-08	-2.676640e+01	-6.783488e+02
2.910000e-06	-3.911907e-06	-1.045945e-08	-2.728079e+01	-6.848386e+02
2.920000e-06	-3.984326e-06	-1.055351e-08	-2.778583e+01	-6.909799e+02
2.930000e-06	-4.055439e-06	-1.064461e-08	-2.828176e+01	-6.968695e+02
2.940000e-06	-4.125063e-06	-1.073410e-08	-2.876729e+01	-7.025645e+02
