# Temperatura_=_39.86
# Concentracion g/m^3_=_13400.0
# C_Vs_to_Am_M_A/Vsm_=_65563218390.804596
# pendiente_HvsI_1/m_=_3716.3
# ordenada_HvsI_A/m_=_1297.0
# frecuencia_Hz_=_300812.7940945347

Tiempo_(s)	Campo_(V.s)	Magnetizacion_(V.s)	Campo_(kA/m)	Magnetizacion_(A/m)
0.000000e+00	-5.502042e-06	-1.222373e-08	-3.830724e+01	-7.996550e+02
1.000000e-08	-5.500754e-06	-1.222535e-08	-3.829827e+01	-7.996075e+02
2.000000e-08	-5.497505e-06	-1.222733e-08	-3.827566e+01	-7.994151e+02
3.000000e-08	-5.492431e-06	-1.222372e-08	-3.824033e+01	-7.990515e+02
4.000000e-08	-5.485678e-06	-1.221437e-08	-3.819331e+01	-7.985227e+02
5.000000e-08	-5.477296e-06	-1.220030e-08	-3.813495e+01	-7.978617e+02
6.000000e-08	-5.467072e-06	-1.218477e-08	-3.806377e+01	-7.971113e+02
7.000000e-08	-5.454781e-06	-1.216819e-08	-3.797820e+01	-7.963053e+02
8.000000e-08	-5.440547e-06	-1.215711e-08	-3.787909e+01	-7.954546e+02
9.000000e-08	-5.424036e-06	-1.216933e-08	-3.776414e+01	-7.945457e+02
1.000000e-07	-5.405057e-06	-1.217245e-08	-3.763199e+01	-7.935510e+02
1.100000e-07	-5.384001e-06	-1.214074e-08	-3.748540e+01	-7.924447e+02
1.200000e-07	-5.361157e-06	-1.210844e-08	-3.732635e+01	-7.912184e+02
1.300000e-07	-5.336767e-06	-1.205504e-08	-3.715654e+01	-7.898864e+02
1.400000e-07	-5.310941e-06	-1.201461e-08	-3.697673e+01	-7.884801e+02
1.500000e-07	-5.283375e-06	-1.205659e-08	-3.678480e+01	-7.870329e+02
1.600000e-07	-5.253994e-06	-1.201385e-08	-3.658024e+01	-7.855616e+02
1.700000e-07	-5.223023e-06	-1.196380e-08	-3.636461e+01	-7.840549e+02
1.800000e-07	-5.190207e-06	-1.199960e-08	-3.613613e+01	-7.824730e+02
1.900000e-07	-5.155301e-06	-1.192343e-08	-3.589311e+01	-7.807602e+02
2.000000e-07	-5.118757e-06	-1.186872e-08	-3.563867e+01	-7.788645e+02
2.100000e-07	-5.080578e-06	-1.186074e-08	-3.537285e+01	-7.767583e+02
2.200000e-07	-5.040588e-06	-1.178752e-08	-3.509443e+01	-7.744488e+02
2.300000e-07	-4.998767e-06	-1.178481e-08	-3.480326e+01	-7.719754e+02
2.400000e-07	-4.954927e-06	-1.178888e-08	-3.449803e+01	-7.693945e+02
2.500000e-07	-4.909253e-06	-1.172006e-08	-3.418003e+01	-7.667571e+02
2.600000e-07	-4.861784e-06	-1.166913e-08	-3.384953e+01	-7.640895e+02
2.700000e-07	-4.812291e-06	-1.160149e-08	-3.350494e+01	-7.613836e+02
2.800000e-07	-4.760782e-06	-1.154222e-08	-3.314632e+01	-7.586014e+02
2.900000e-07	-4.707340e-06	-1.152235e-08	-3.277423e+01	-7.556915e+02
3.000000e-07	-4.652153e-06	-1.149134e-08	-3.239000e+01	-7.526093e+02
3.100000e-07	-4.595353e-06	-1.143645e-08	-3.199454e+01	-7.493342e+02
3.200000e-07	-4.536772e-06	-1.139569e-08	-3.158668e+01	-7.458755e+02
3.300000e-07	-4.476499e-06	-1.135052e-08	-3.116704e+01	-7.422660e+02
3.400000e-07	-4.414717e-06	-1.125384e-08	-3.073688e+01	-7.385459e+02
3.500000e-07	-4.351454e-06	-1.118034e-08	-3.029643e+01	-7.347451e+02
3.600000e-07	-4.286691e-06	-1.113347e-08	-2.984552e+01	-7.308713e+02
3.700000e-07	-4.220260e-06	-1.107565e-08	-2.938300e+01	-7.269084e+02
3.800000e-07	-4.152172e-06	-1.102890e-08	-2.890895e+01	-7.228252e+02
3.900000e-07	-4.082560e-06	-1.096618e-08	-2.842429e+01	-7.185912e+02
4.000000e-07	-4.011630e-06	-1.089015e-08	-2.793044e+01	-7.141896e+02
4.100000e-07	-3.939461e-06	-1.082368e-08	-2.742798e+01	-7.096241e+02
4.200000e-07	-3.865830e-06	-1.074881e-08	-2.691533e+01	-7.049146e+02
4.300000e-07	-3.790529e-06	-1.066287e-08	-2.639106e+01	-7.000855e+02
4.400000e-07	-3.713581e-06	-1.058219e-08	-2.585532e+01	-6.951511e+02
4.500000e-07	-3.635100e-06	-1.051485e-08	-2.530891e+01	-6.901066e+02
4.600000e-07	-3.555107e-06	-1.044382e-08	-2.475197e+01	-6.849271e+02
4.700000e-07	-3.473775e-06	-1.036378e-08	-2.418570e+01	-6.795778e+02
4.800000e-07	-3.391240e-06	-1.027372e-08	-2.361107e+01	-6.740277e+02
4.900000e-07	-3.307525e-06	-1.018071e-08	-2.302821e+01	-6.682636e+02
5.000000e-07	-3.222790e-06	-1.009076e-08	-2.243825e+01	-6.622947e+02
5.100000e-07	-3.137118e-06	-9.992345e-09	-2.184177e+01	-6.561484e+02
5.200000e-07	-3.050521e-06	-9.894066e-09	-2.123885e+01	-6.498570e+02
5.300000e-07	-2.962955e-06	-9.799340e-09	-2.062918e+01	-6.434422e+02
5.400000e-07	-2.874427e-06	-9.702342e-09	-2.001282e+01	-6.369043e+02
5.500000e-07	-2.784909e-06	-9.601218e-09	-1.938956e+01	-6.302215e+02
5.600000e-07	-2.694184e-06	-9.493538e-09	-1.875790e+01	-6.233587e+02
5.700000e-07	-2.602334e-06	-9.380546e-09	-1.811841e+01	-6.162828e+02
5.800000e-07	-2.509584e-06	-9.265542e-09	-1.747265e+01	-6.089758e+02
5.900000e-07	-2.415982e-06	-9.153209e-09	-1.682096e+01	-6.014401e+02
6.000000e-07	-2.321604e-06	-9.036746e-09	-1.616386e+01	-5.936929e+02
6.100000e-07	-2.226468e-06	-8.912531e-09	-1.550149e+01	-5.857520e+02
6.200000e-07	-2.130565e-06	-8.784716e-09	-1.483378e+01	-5.776191e+02
6.300000e-07	-2.033886e-06	-8.653568e-09	-1.416066e+01	-5.692714e+02
6.400000e-07	-1.936375e-06	-8.520186e-09	-1.348176e+01	-5.606631e+02
6.500000e-07	-1.838051e-06	-8.381185e-09	-1.279719e+01	-5.517413e+02
6.600000e-07	-1.738955e-06	-8.236118e-09	-1.210724e+01	-5.424659e+02
6.700000e-07	-1.639198e-06	-8.089796e-09	-1.141270e+01	-5.328269e+02
6.800000e-07	-1.538892e-06	-7.942345e-09	-1.071433e+01	-5.228493e+02
6.900000e-07	-1.438137e-06	-7.787769e-09	-1.001284e+01	-5.125805e+02
7.000000e-07	-1.336842e-06	-7.623470e-09	-9.307586e+00	-5.020653e+02
7.100000e-07	-1.235007e-06	-7.454425e-09	-8.598576e+00	-4.913180e+02
7.200000e-07	-1.132793e-06	-7.282585e-09	-7.886920e+00	-4.803042e+02
7.300000e-07	-1.030211e-06	-7.107288e-09	-7.172709e+00	-4.689424e+02
7.400000e-07	-9.272907e-07	-6.927754e-09	-6.456139e+00	-4.571264e+02
7.500000e-07	-8.240436e-07	-6.741171e-09	-5.737295e+00	-4.447611e+02
7.600000e-07	-7.205085e-07	-6.546032e-09	-5.016446e+00	-4.317963e+02
7.700000e-07	-6.167453e-07	-6.341638e-09	-4.294008e+00	-4.182432e+02
7.800000e-07	-5.127682e-07	-6.126969e-09	-3.570081e+00	-4.041635e+02
7.900000e-07	-4.086545e-07	-5.903541e-09	-2.845203e+00	-3.896325e+02
8.000000e-07	-3.044511e-07	-5.673910e-09	-2.119701e+00	-3.746908e+02
8.100000e-07	-2.001573e-07	-5.438094e-09	-1.393569e+00	-3.593038e+02
8.200000e-07	-9.579971e-08	-5.193615e-09	-6.669929e-01	-3.433484e+02
8.300000e-07	8.613428e-09	-4.937576e-09	5.996986e-02	-3.266373e+02
8.400000e-07	1.130787e-07	-4.667617e-09	7.872952e-01	-3.089721e+02
8.500000e-07	2.175161e-07	-4.382947e-09	1.514427e+00	-2.902045e+02
8.600000e-07	3.217934e-07	-4.083573e-09	2.240444e+00	-2.702768e+02
8.700000e-07	4.259187e-07	-3.766472e-09	2.965403e+00	-2.492155e+02
8.800000e-07	5.299716e-07	-3.427541e-09	3.689857e+00	-2.270710e+02
8.900000e-07	6.339112e-07	-3.067409e-09	4.413523e+00	-2.038158e+02
9.000000e-07	7.376343e-07	-2.687081e-09	5.135682e+00	-1.792369e+02
9.100000e-07	8.411092e-07	-2.280732e-09	5.856112e+00	-1.528687e+02
9.200000e-07	9.443062e-07	-1.836440e-09	6.574608e+00	-1.240050e+02
9.300000e-07	1.047155e-06	-1.341496e-09	7.290676e+00	-9.180987e+01
9.400000e-07	1.149636e-06	-7.888607e-10	8.004189e+00	-5.551264e+01
9.500000e-07	1.251727e-06	-1.727841e-10	8.714984e+00	-1.464280e+01
9.600000e-07	1.353367e-06	5.146915e-10	9.422639e+00	3.076133e+01
9.700000e-07	1.454559e-06	1.271717e-09	1.012717e+01	8.003481e+01
9.800000e-07	1.555317e-06	2.075749e-09	1.082869e+01	1.319038e+02
9.900000e-07	1.655585e-06	2.890091e-09	1.152679e+01	1.846460e+02
1.000000e-06	1.755229e-06	3.680068e-09	1.222055e+01	2.363612e+02
1.010000e-06	1.854165e-06	4.416362e-09	1.290938e+01	2.852845e+02
1.020000e-06	1.952301e-06	5.081247e-09	1.359264e+01	3.300660e+02
1.030000e-06	2.049549e-06	5.672324e-09	1.426971e+01	3.699472e+02
1.040000e-06	2.145971e-06	6.192924e-09	1.494104e+01	4.047979e+02
1.050000e-06	2.241688e-06	6.650866e-09	1.560746e+01	4.350172e+02
1.060000e-06	2.336733e-06	7.057540e-09	1.626920e+01	4.613379e+02
1.070000e-06	2.430991e-06	7.418623e-09	1.692546e+01	4.845988e+02
1.080000e-06	2.524442e-06	7.737282e-09	1.757609e+01	5.055476e+02
1.090000e-06	2.617148e-06	8.021557e-09	1.822155e+01	5.247223e+02
1.100000e-06	2.709003e-06	8.281419e-09	1.886108e+01	5.424258e+02
1.110000e-06	2.799727e-06	8.523079e-09	1.949273e+01	5.587797e+02
1.120000e-06	2.889226e-06	8.748526e-09	2.011586e+01	5.738185e+02
1.130000e-06	2.977662e-06	8.957312e-09	2.073158e+01	5.875832e+02
1.140000e-06	3.065149e-06	9.148249e-09	2.134069e+01	6.001781e+02
1.150000e-06	3.151618e-06	9.325754e-09	2.194273e+01	6.117776e+02
1.160000e-06	3.237016e-06	9.494210e-09	2.253730e+01	6.225917e+02
1.170000e-06	3.321455e-06	9.650917e-09	2.312519e+01	6.328115e+02
1.180000e-06	3.404818e-06	9.797219e-09	2.370560e+01	6.425629e+02
1.190000e-06	3.486823e-06	9.937232e-09	2.427655e+01	6.518886e+02
1.200000e-06	3.567484e-06	1.007046e-08	2.483813e+01	6.607630e+02
1.210000e-06	3.646848e-06	1.019558e-08	2.539070e+01	6.691311e+02
1.220000e-06	3.724938e-06	1.031254e-08	2.593439e+01	6.769534e+02
1.230000e-06	3.801778e-06	1.042243e-08	2.646938e+01	6.842367e+02
1.240000e-06	3.877173e-06	1.052833e-08	2.699430e+01	6.910404e+02
1.250000e-06	3.950898e-06	1.062962e-08	2.750761e+01	6.974581e+02
1.260000e-06	4.023118e-06	1.072330e-08	2.801043e+01	7.035851e+02
1.270000e-06	4.094001e-06	1.081175e-08	2.850394e+01	7.094881e+02
1.280000e-06	4.163463e-06	1.089714e-08	2.898757e+01	7.151895e+02
1.290000e-06	4.231522e-06	1.097930e-08	2.946141e+01	7.206738e+02
1.300000e-06	4.298009e-06	1.105574e-08	2.992432e+01	7.259086e+02
1.310000e-06	4.362858e-06	1.112603e-08	3.037582e+01	7.308723e+02
1.320000e-06	4.426265e-06	1.119438e-08	3.081729e+01	7.355724e+02
1.330000e-06	4.488243e-06	1.126471e-08	3.124880e+01	7.400483e+02
1.340000e-06	4.548799e-06	1.133432e-08	3.167042e+01	7.443560e+02
1.350000e-06	4.607709e-06	1.139863e-08	3.208057e+01	7.485434e+02
1.360000e-06	4.664778e-06	1.145940e-08	3.247790e+01	7.526282e+02
1.370000e-06	4.720179e-06	1.151913e-08	3.286363e+01	7.565890e+02
1.380000e-06	4.773909e-06	1.157573e-08	3.323771e+01	7.603740e+02
1.390000e-06	4.825654e-06	1.162563e-08	3.359798e+01	7.639241e+02
1.400000e-06	4.875289e-06	1.166852e-08	3.394356e+01	7.672009e+02
1.410000e-06	4.923126e-06	1.171099e-08	3.427662e+01	7.702058e+02
1.420000e-06	4.969338e-06	1.175671e-08	3.459836e+01	7.729830e+02
1.430000e-06	5.013892e-06	1.179947e-08	3.490856e+01	7.756038e+02
1.440000e-06	5.056547e-06	1.183727e-08	3.520554e+01	7.781389e+02
1.450000e-06	5.097289e-06	1.187508e-08	3.548921e+01	7.806298e+02
1.460000e-06	5.136332e-06	1.191369e-08	3.576103e+01	7.830731e+02
1.470000e-06	5.173720e-06	1.194822e-08	3.602134e+01	7.854221e+02
1.480000e-06	5.209362e-06	1.197649e-08	3.626949e+01	7.876078e+02
1.490000e-06	5.242980e-06	1.200232e-08	3.650356e+01	7.895681e+02
1.500000e-06	5.274728e-06	1.202814e-08	3.672460e+01	7.912746e+02
1.510000e-06	5.304823e-06	1.205123e-08	3.693413e+01	7.927460e+02
1.520000e-06	5.333210e-06	1.207121e-08	3.713177e+01	7.940407e+02
1.530000e-06	5.359559e-06	1.209170e-08	3.731522e+01	7.952342e+02
1.540000e-06	5.383788e-06	1.211366e-08	3.748391e+01	7.963892e+02
1.550000e-06	5.406181e-06	1.213196e-08	3.763982e+01	7.975314e+02
1.560000e-06	5.426860e-06	1.214403e-08	3.778380e+01	7.986408e+02
1.570000e-06	5.445707e-06	1.215442e-08	3.791502e+01	7.996621e+02
1.580000e-06	5.462576e-06	1.216595e-08	3.803247e+01	8.005290e+02
1.590000e-06	5.477454e-06	1.217607e-08	3.813605e+01	8.011930e+02
1.600000e-06	5.490203e-06	1.218351e-08	3.822481e+01	8.016433e+02
1.610000e-06	5.500708e-06	1.219051e-08	3.829796e+01	8.019119e+02
1.620000e-06	5.509143e-06	1.219878e-08	3.835668e+01	8.020605e+02
1.630000e-06	5.515716e-06	1.220526e-08	3.840245e+01	8.021555e+02
1.640000e-06	5.520469e-06	1.220560e-08	3.843554e+01	8.022428e+02
1.650000e-06	5.523240e-06	1.220274e-08	3.845483e+01	8.023308e+02
1.660000e-06	5.523982e-06	1.220348e-08	3.846000e+01	8.023901e+02
1.670000e-06	5.522919e-06	1.220474e-08	3.845260e+01	8.023676e+02
1.680000e-06	5.520217e-06	1.220173e-08	3.843379e+01	8.022097e+02
1.690000e-06	5.515694e-06	1.219410e-08	3.840230e+01	8.018835e+02
1.700000e-06	5.509144e-06	1.218584e-08	3.835669e+01	8.013882e+02
1.710000e-06	5.500829e-06	1.218121e-08	3.829880e+01	8.007520e+02
1.720000e-06	5.490885e-06	1.217663e-08	3.822956e+01	8.000175e+02
1.730000e-06	5.479048e-06	1.217189e-08	3.814715e+01	7.992217e+02
1.740000e-06	5.465135e-06	1.215478e-08	3.805028e+01	7.983810e+02
1.750000e-06	5.449244e-06	1.210412e-08	3.793964e+01	7.974868e+02
1.760000e-06	5.431051e-06	1.207240e-08	3.781298e+01	7.965131e+02
1.770000e-06	5.410089e-06	1.206618e-08	3.766703e+01	7.954324e+02
1.780000e-06	5.386773e-06	1.207165e-08	3.750470e+01	7.942315e+02
1.790000e-06	5.362133e-06	1.211246e-08	3.733314e+01	7.929199e+02
1.800000e-06	5.336742e-06	1.204893e-08	3.715636e+01	7.915267e+02
1.810000e-06	5.309819e-06	1.199035e-08	3.696892e+01	7.900862e+02
1.820000e-06	5.280514e-06	1.203335e-08	3.676488e+01	7.886200e+02
1.830000e-06	5.249469e-06	1.195415e-08	3.654874e+01	7.871235e+02
1.840000e-06	5.216817e-06	1.192129e-08	3.632140e+01	7.855623e+02
1.850000e-06	5.182269e-06	1.196409e-08	3.608087e+01	7.838825e+02
1.860000e-06	5.146057e-06	1.189377e-08	3.582875e+01	7.820295e+02
1.870000e-06	5.107786e-06	1.189422e-08	3.556229e+01	7.799692e+02
1.880000e-06	5.067595e-06	1.188212e-08	3.528246e+01	7.777010e+02
1.890000e-06	5.025894e-06	1.177284e-08	3.499213e+01	7.752583e+02
1.900000e-06	4.982310e-06	1.175651e-08	3.468867e+01	7.726957e+02
1.910000e-06	4.936970e-06	1.172006e-08	3.437300e+01	7.700673e+02
1.920000e-06	4.889864e-06	1.169098e-08	3.404503e+01	7.674058e+02
1.930000e-06	4.840825e-06	1.170303e-08	3.370360e+01	7.647105e+02
1.940000e-06	4.790069e-06	1.162049e-08	3.335022e+01	7.619490e+02
1.950000e-06	4.737282e-06	1.155666e-08	3.298270e+01	7.590709e+02
1.960000e-06	4.682565e-06	1.151872e-08	3.260174e+01	7.560285e+02
1.970000e-06	4.626184e-06	1.146000e-08	3.220919e+01	7.527951e+02
1.980000e-06	4.568154e-06	1.140144e-08	3.180517e+01	7.493737e+02
1.990000e-06	4.508618e-06	1.137093e-08	3.139066e+01	7.457932e+02
2.000000e-06	4.447317e-06	1.134912e-08	3.096386e+01	7.420937e+02
2.010000e-06	4.384324e-06	1.127063e-08	3.052528e+01	7.383089e+02
2.020000e-06	4.319815e-06	1.120735e-08	3.007614e+01	7.344515e+02
2.030000e-06	4.253823e-06	1.113742e-08	2.961668e+01	7.305101e+02
2.040000e-06	4.186403e-06	1.105633e-08	2.914728e+01	7.264557e+02
2.050000e-06	4.117262e-06	1.100599e-08	2.866589e+01	7.222561e+02
2.060000e-06	4.046529e-06	1.093729e-08	2.817342e+01	7.178909e+02
2.070000e-06	3.974411e-06	1.088104e-08	2.767131e+01	7.133594e+02
2.080000e-06	3.900952e-06	1.081978e-08	2.715986e+01	7.086788e+02
2.090000e-06	3.825970e-06	1.074799e-08	2.663781e+01	7.038737e+02
2.100000e-06	3.749234e-06	1.067224e-08	2.610355e+01	6.989617e+02
2.110000e-06	3.670989e-06	1.058442e-08	2.555878e+01	6.939423e+02
2.120000e-06	3.591453e-06	1.050396e-08	2.500502e+01	6.887947e+02
2.130000e-06	3.510764e-06	1.041850e-08	2.444323e+01	6.834848e+02
2.140000e-06	3.428913e-06	1.033838e-08	2.387335e+01	6.779798e+02
2.150000e-06	3.345917e-06	1.025027e-08	2.329550e+01	6.722616e+02
2.160000e-06	3.261707e-06	1.016885e-08	2.270921e+01	6.663349e+02
2.170000e-06	3.176109e-06	1.008879e-08	2.211324e+01	6.602239e+02
2.180000e-06	3.089355e-06	9.988947e-09	2.150923e+01	6.539614e+02
2.190000e-06	3.001599e-06	9.888789e-09	2.089824e+01	6.475723e+02
2.200000e-06	2.912911e-06	9.782426e-09	2.028076e+01	6.410620e+02
2.210000e-06	2.823279e-06	9.681219e-09	1.965670e+01	6.344131e+02
2.220000e-06	2.732676e-06	9.577753e-09	1.902590e+01	6.275921e+02
2.230000e-06	2.641135e-06	9.470488e-09	1.838856e+01	6.205642e+02
2.240000e-06	2.548564e-06	9.365719e-09	1.774404e+01	6.133073e+02
2.250000e-06	2.455007e-06	9.254140e-09	1.709266e+01	6.058196e+02
2.260000e-06	2.360516e-06	9.143449e-09	1.643478e+01	5.981161e+02
2.270000e-06	2.265173e-06	9.025424e-09	1.577097e+01	5.902159e+02
2.280000e-06	2.169062e-06	8.905686e-09	1.510181e+01	5.821253e+02
2.290000e-06	2.072273e-06	8.782436e-09	1.442793e+01	5.738270e+02
2.300000e-06	1.974812e-06	8.650059e-09	1.374937e+01	5.652792e+02
2.310000e-06	1.876685e-06	8.512782e-09	1.306617e+01	5.564289e+02
2.320000e-06	1.778028e-06	8.369048e-09	1.237929e+01	5.472313e+02
2.330000e-06	1.678857e-06	8.226147e-09	1.168882e+01	5.376694e+02
2.340000e-06	1.579143e-06	8.080220e-09	1.099458e+01	5.277609e+02
2.350000e-06	1.478795e-06	7.930666e-09	1.029592e+01	5.175503e+02
2.360000e-06	1.377713e-06	7.777245e-09	9.592148e+00	5.070855e+02
2.370000e-06	1.276002e-06	7.616284e-09	8.883993e+00	4.963891e+02
2.380000e-06	1.173842e-06	7.447047e-09	8.172718e+00	4.854380e+02
2.390000e-06	1.071300e-06	7.270342e-09	7.458787e+00	4.741595e+02
2.400000e-06	9.683193e-07	7.088291e-09	6.741796e+00	4.624499e+02
2.410000e-06	8.649705e-07	6.900047e-09	6.022243e+00	4.502086e+02
2.420000e-06	7.612867e-07	6.705967e-09	5.300359e+00	4.373735e+02
2.430000e-06	6.573252e-07	6.504329e-09	4.576540e+00	4.239428e+02
2.440000e-06	5.532046e-07	6.295076e-09	3.851614e+00	4.099694e+02
2.450000e-06	4.489248e-07	6.077952e-09	3.125580e+00	3.955299e+02
2.460000e-06	3.444656e-07	5.852053e-09	2.398297e+00	3.806763e+02
2.470000e-06	2.398710e-07	5.616005e-09	1.670070e+00	3.653923e+02
2.480000e-06	1.351868e-07	5.369915e-09	9.412200e-01	3.495730e+02
2.490000e-06	3.045686e-08	5.113128e-09	2.120519e-01	3.330413e+02
2.500000e-06	-7.423053e-08	4.844917e-09	-5.168203e-01	3.155957e+02
2.510000e-06	-1.788521e-07	4.564504e-09	-1.245234e+00	2.970726e+02
2.520000e-06	-2.833788e-07	4.268692e-09	-1.972987e+00	2.773937e+02
2.530000e-06	-3.877784e-07	3.958621e-09	-2.699856e+00	2.565707e+02
2.540000e-06	-4.920821e-07	3.629454e-09	-3.426057e+00	2.346564e+02
2.550000e-06	-5.962519e-07	3.277151e-09	-4.151325e+00	2.116494e+02
2.560000e-06	-7.001769e-07	2.902458e-09	-4.874889e+00	1.873845e+02
2.570000e-06	-8.038138e-07	2.503696e-09	-5.596448e+00	1.614521e+02
2.580000e-06	-9.071368e-07	2.072580e-09	-6.315820e+00	1.331917e+02
2.590000e-06	-1.010135e-06	1.594939e-09	-7.032933e+00	1.017811e+02
2.600000e-06	-1.112731e-06	1.058660e-09	-7.747241e+00	6.641646e+01
2.610000e-06	-1.214853e-06	4.583962e-10	-8.458252e+00	2.654329e+01
2.620000e-06	-1.316439e-06	-2.069360e-10	-9.165531e+00	-1.792299e+01
2.630000e-06	-1.417482e-06	-9.387661e-10	-9.869032e+00	-6.645522e+01
2.640000e-06	-1.517974e-06	-1.729031e-09	-1.056870e+01	-1.179011e+02
2.650000e-06	-1.617829e-06	-2.547521e-09	-1.126392e+01	-1.706148e+02
2.660000e-06	-1.717053e-06	-3.351595e-09	-1.195476e+01	-2.227078e+02
2.670000e-06	-1.815685e-06	-4.108669e-09	-1.264147e+01	-2.723606e+02
2.680000e-06	-1.913781e-06	-4.804292e-09	-1.332445e+01	-3.181151e+02
2.690000e-06	-2.011284e-06	-5.431607e-09	-1.400330e+01	-3.590779e+02
2.700000e-06	-2.108066e-06	-5.984199e-09	-1.467713e+01	-3.949884e+02
2.710000e-06	-2.204156e-06	-6.464695e-09	-1.534615e+01	-4.261462e+02
2.720000e-06	-2.299650e-06	-6.885354e-09	-1.601101e+01	-4.532318e+02
2.730000e-06	-2.394469e-06	-7.259766e-09	-1.667118e+01	-4.770798e+02
2.740000e-06	-2.488403e-06	-7.596408e-09	-1.732518e+01	-4.984705e+02
2.750000e-06	-2.581243e-06	-7.899345e-09	-1.797156e+01	-5.179921e+02
2.760000e-06	-2.672953e-06	-8.173574e-09	-1.861008e+01	-5.359957e+02
2.770000e-06	-2.763664e-06	-8.423198e-09	-1.924164e+01	-5.526342e+02
2.780000e-06	-2.853418e-06	-8.654722e-09	-1.986655e+01	-5.679527e+02
2.790000e-06	-2.942139e-06	-8.872368e-09	-2.048425e+01	-5.819841e+02
2.800000e-06	-3.029864e-06	-9.071857e-09	-2.109503e+01	-5.948170e+02
2.810000e-06	-3.116649e-06	-9.255372e-09	-2.169926e+01	-6.066124e+02
2.820000e-06	-3.202317e-06	-9.429502e-09	-2.229571e+01	-6.175772e+02
2.830000e-06	-3.286683e-06	-9.593376e-09	-2.288309e+01	-6.279108e+02
2.840000e-06	-3.369782e-06	-9.744101e-09	-2.346166e+01	-6.377561e+02
2.850000e-06	-3.451755e-06	-9.884219e-09	-2.403239e+01	-6.471732e+02
2.860000e-06	-3.532616e-06	-1.001746e-08	-2.459537e+01	-6.561485e+02
2.870000e-06	-3.612333e-06	-1.014354e-08	-2.515039e+01	-6.646295e+02
2.880000e-06	-3.690790e-06	-1.026284e-08	-2.569664e+01	-6.725699e+02
2.890000e-06	-3.767711e-06	-1.037623e-08	-2.623219e+01	-6.799652e+02
2.900000e-06	-3.843041e-06	-1.048583e-08	-2.675667e+01	-6.868644e+02
2.910000e-06	-3.916914e-06	-1.059053e-08	-2.727100e+01	-6.933562e+02
2.920000e-06	-3.989415e-06	-1.068645e-08	-2.777578e+01	-6.995385e+02
2.930000e-06	-4.060638e-06	-1.077651e-08	-2.827166e+01	-7.054858e+02
2.940000e-06	-4.130409e-06	-1.086466e-08	-2.875743e+01	-7.112306e+02
