# Temperatura_=_30.58
# Concentracion g/m^3_=_13400.0
# C_Vs_to_Am_M_A/Vsm_=_65563218390.804596
# pendiente_HvsI_1/m_=_3716.3
# ordenada_HvsI_A/m_=_1297.0
# frecuencia_Hz_=_300815.97044398176

Tiempo_(s)	Campo_(V.s)	Magnetizacion_(V.s)	Campo_(kA/m)	Magnetizacion_(A/m)
0.000000e+00	-5.511082e-06	-1.205694e-08	-3.830638e+01	-7.899859e+02
1.000000e-08	-5.509814e-06	-1.206095e-08	-3.829756e+01	-7.899747e+02
2.000000e-08	-5.506563e-06	-1.205968e-08	-3.827497e+01	-7.897997e+02
3.000000e-08	-5.501433e-06	-1.205337e-08	-3.823931e+01	-7.894260e+02
4.000000e-08	-5.494651e-06	-1.204674e-08	-3.819217e+01	-7.888636e+02
5.000000e-08	-5.486315e-06	-1.203681e-08	-3.813423e+01	-7.881610e+02
6.000000e-08	-5.476043e-06	-1.202085e-08	-3.806283e+01	-7.873834e+02
7.000000e-08	-5.463643e-06	-1.199992e-08	-3.797664e+01	-7.865844e+02
8.000000e-08	-5.449352e-06	-1.197959e-08	-3.787731e+01	-7.857844e+02
9.000000e-08	-5.432789e-06	-1.200513e-08	-3.776218e+01	-7.849637e+02
1.000000e-07	-5.413801e-06	-1.202708e-08	-3.763020e+01	-7.840737e+02
1.100000e-07	-5.392766e-06	-1.198236e-08	-3.748398e+01	-7.830597e+02
1.200000e-07	-5.369878e-06	-1.195065e-08	-3.732490e+01	-7.818857e+02
1.300000e-07	-5.345441e-06	-1.190027e-08	-3.715504e+01	-7.805509e+02
1.400000e-07	-5.319518e-06	-1.182915e-08	-3.697486e+01	-7.790887e+02
1.500000e-07	-5.291789e-06	-1.191175e-08	-3.678212e+01	-7.775514e+02
1.600000e-07	-5.262295e-06	-1.185934e-08	-3.657711e+01	-7.759855e+02
1.700000e-07	-5.231275e-06	-1.176320e-08	-3.636150e+01	-7.744092e+02
1.800000e-07	-5.198417e-06	-1.186612e-08	-3.613311e+01	-7.728021e+02
1.900000e-07	-5.163424e-06	-1.178390e-08	-3.588988e+01	-7.711115e+02
2.000000e-07	-5.126819e-06	-1.171333e-08	-3.563544e+01	-7.692723e+02
2.100000e-07	-5.088635e-06	-1.174477e-08	-3.537004e+01	-7.672331e+02
2.200000e-07	-5.048642e-06	-1.163099e-08	-3.509205e+01	-7.649769e+02
2.300000e-07	-5.006756e-06	-1.162174e-08	-3.480091e+01	-7.625275e+02
2.400000e-07	-4.962775e-06	-1.164979e-08	-3.449521e+01	-7.599398e+02
2.500000e-07	-4.916935e-06	-1.157019e-08	-3.417658e+01	-7.572777e+02
2.600000e-07	-4.869379e-06	-1.154936e-08	-3.384603e+01	-7.545887e+02
2.700000e-07	-4.819840e-06	-1.147915e-08	-3.350170e+01	-7.518863e+02
2.800000e-07	-4.768177e-06	-1.142015e-08	-3.314260e+01	-7.491460e+02
2.900000e-07	-4.714573e-06	-1.139650e-08	-3.277001e+01	-7.463172e+02
3.000000e-07	-4.659304e-06	-1.134675e-08	-3.238584e+01	-7.433447e+02
3.100000e-07	-4.602401e-06	-1.130158e-08	-3.199032e+01	-7.401903e+02
3.200000e-07	-4.543657e-06	-1.125936e-08	-3.158201e+01	-7.368465e+02
3.300000e-07	-4.483232e-06	-1.124027e-08	-3.116201e+01	-7.333358e+02
3.400000e-07	-4.421363e-06	-1.115639e-08	-3.073197e+01	-7.296981e+02
3.500000e-07	-4.358036e-06	-1.107578e-08	-3.029179e+01	-7.259710e+02
3.600000e-07	-4.293217e-06	-1.102785e-08	-2.984125e+01	-7.221732e+02
3.700000e-07	-4.226709e-06	-1.095080e-08	-2.937897e+01	-7.182968e+02
3.800000e-07	-4.158456e-06	-1.090879e-08	-2.890456e+01	-7.143128e+02
3.900000e-07	-4.088683e-06	-1.085367e-08	-2.841958e+01	-7.101849e+02
4.000000e-07	-4.017616e-06	-1.077775e-08	-2.792561e+01	-7.058867e+02
4.100000e-07	-3.945289e-06	-1.071876e-08	-2.742288e+01	-7.014128e+02
4.200000e-07	-3.871504e-06	-1.064412e-08	-2.691002e+01	-6.967799e+02
4.300000e-07	-3.796068e-06	-1.056816e-08	-2.638567e+01	-6.920174e+02
4.400000e-07	-3.718970e-06	-1.048072e-08	-2.584978e+01	-6.871513e+02
4.500000e-07	-3.640389e-06	-1.040848e-08	-2.530358e+01	-6.821908e+02
4.600000e-07	-3.560396e-06	-1.033701e-08	-2.474756e+01	-6.771222e+02
4.700000e-07	-3.478926e-06	-1.025802e-08	-2.418129e+01	-6.719138e+02
4.800000e-07	-3.396187e-06	-1.018208e-08	-2.360618e+01	-6.665291e+02
4.900000e-07	-3.312389e-06	-1.008713e-08	-2.302372e+01	-6.609423e+02
5.000000e-07	-3.227598e-06	-9.997277e-09	-2.243435e+01	-6.551484e+02
5.100000e-07	-3.141825e-06	-9.900424e-09	-2.183816e+01	-6.491644e+02
5.200000e-07	-3.055099e-06	-9.806592e-09	-2.123535e+01	-6.430188e+02
5.300000e-07	-2.967468e-06	-9.715575e-09	-2.062625e+01	-6.367370e+02
5.400000e-07	-2.878837e-06	-9.617733e-09	-2.001019e+01	-6.303270e+02
5.500000e-07	-2.789146e-06	-9.515934e-09	-1.938677e+01	-6.237745e+02
5.600000e-07	-2.698288e-06	-9.409707e-09	-1.875523e+01	-6.170475e+02
5.700000e-07	-2.606270e-06	-9.302116e-09	-1.811564e+01	-6.101099e+02
5.800000e-07	-2.513288e-06	-9.185557e-09	-1.746934e+01	-6.029369e+02
5.900000e-07	-2.419509e-06	-9.073333e-09	-1.681750e+01	-5.955244e+02
6.000000e-07	-2.324994e-06	-8.962109e-09	-1.616054e+01	-5.878878e+02
6.100000e-07	-2.229753e-06	-8.844739e-09	-1.549855e+01	-5.800501e+02
6.200000e-07	-2.133722e-06	-8.718821e-09	-1.483105e+01	-5.720254e+02
6.300000e-07	-2.036859e-06	-8.585864e-09	-1.415778e+01	-5.638047e+02
6.400000e-07	-1.939204e-06	-8.453875e-09	-1.347900e+01	-5.553529e+02
6.500000e-07	-1.840742e-06	-8.320760e-09	-1.279461e+01	-5.466188e+02
6.600000e-07	-1.741485e-06	-8.181635e-09	-1.210470e+01	-5.375540e+02
6.700000e-07	-1.641525e-06	-8.036092e-09	-1.140990e+01	-5.281331e+02
6.800000e-07	-1.541007e-06	-7.889167e-09	-1.071121e+01	-5.183642e+02
6.900000e-07	-1.440039e-06	-7.738221e-09	-1.000941e+01	-5.082836e+02
7.000000e-07	-1.338599e-06	-7.579793e-09	-9.304320e+00	-4.979356e+02
7.100000e-07	-1.236675e-06	-7.413354e-09	-8.595871e+00	-4.873446e+02
7.200000e-07	-1.134347e-06	-7.240547e-09	-7.884611e+00	-4.764920e+02
7.300000e-07	-1.031639e-06	-7.066777e-09	-7.170707e+00	-4.653109e+02
7.400000e-07	-9.285820e-07	-6.893571e-09	-6.454379e+00	-4.537002e+02
7.500000e-07	-8.252206e-07	-6.712087e-09	-5.735935e+00	-4.415577e+02
7.600000e-07	-7.215663e-07	-6.515272e-09	-5.015456e+00	-4.288162e+02
7.700000e-07	-6.176094e-07	-6.309300e-09	-4.292874e+00	-4.154680e+02
7.800000e-07	-5.134434e-07	-6.099634e-09	-3.568837e+00	-4.015634e+02
7.900000e-07	-4.091743e-07	-5.883155e-09	-2.844085e+00	-3.871825e+02
8.000000e-07	-3.047739e-07	-5.655774e-09	-2.118420e+00	-3.723880e+02
8.100000e-07	-2.002298e-07	-5.421000e-09	-1.391756e+00	-3.571786e+02
8.200000e-07	-9.556483e-08	-5.181984e-09	-6.642511e-01	-3.414647e+02
8.300000e-07	9.147764e-09	-4.934354e-09	6.358419e-02	-3.250779e+02
8.400000e-07	1.138820e-07	-4.669466e-09	7.915700e-01	-3.078168e+02
8.500000e-07	2.185666e-07	-4.385662e-09	1.519211e+00	-2.895088e+02
8.600000e-07	3.231632e-07	-4.089741e-09	2.246240e+00	-2.700623e+02
8.700000e-07	4.276318e-07	-3.781953e-09	2.972379e+00	-2.494804e+02
8.800000e-07	5.318831e-07	-3.456935e-09	3.697008e+00	-2.278201e+02
8.900000e-07	6.359303e-07	-3.109240e-09	4.420219e+00	-2.051037e+02
9.000000e-07	7.397783e-07	-2.739823e-09	5.142044e+00	-1.812093e+02
9.100000e-07	8.433374e-07	-2.347328e-09	5.861861e+00	-1.557838e+02
9.200000e-07	9.465530e-07	-1.921939e-09	6.579292e+00	-1.282226e+02
9.300000e-07	1.049459e-06	-1.449869e-09	7.294572e+00	-9.774380e+01
9.400000e-07	1.152035e-06	-9.242041e-10	8.007556e+00	-6.355263e+01
9.500000e-07	1.254249e-06	-3.421988e-10	8.718023e+00	-2.506433e+01
9.600000e-07	1.356026e-06	3.051648e-10	9.425450e+00	1.787588e+01
9.700000e-07	1.457343e-06	1.019636e-09	1.012969e+01	6.484144e+01
9.800000e-07	1.558219e-06	1.787873e-09	1.083085e+01	1.147943e+02
9.900000e-07	1.658654e-06	2.581511e-09	1.152896e+01	1.661961e+02
1.000000e-06	1.758591e-06	3.367790e-09	1.222360e+01	2.172414e+02
1.010000e-06	1.857764e-06	4.113579e-09	1.291293e+01	2.661550e+02
1.020000e-06	1.956028e-06	4.793385e-09	1.359594e+01	3.114813e+02
1.030000e-06	2.053462e-06	5.397271e-09	1.427319e+01	3.522914e+02
1.040000e-06	2.150134e-06	5.931245e-09	1.494513e+01	3.882620e+02
1.050000e-06	2.246038e-06	6.406208e-09	1.561174e+01	4.196183e+02
1.060000e-06	2.341192e-06	6.825970e-09	1.627314e+01	4.469685e+02
1.070000e-06	2.435576e-06	7.194469e-09	1.692918e+01	4.710887e+02
1.080000e-06	2.529144e-06	7.521973e-09	1.757955e+01	4.927206e+02
1.090000e-06	2.621937e-06	7.821655e-09	1.822454e+01	5.124345e+02
1.100000e-06	2.713900e-06	8.097505e-09	1.886375e+01	5.305808e+02
1.110000e-06	2.804796e-06	8.348531e-09	1.949555e+01	5.473234e+02
1.120000e-06	2.894518e-06	8.576320e-09	2.011919e+01	5.627225e+02
1.130000e-06	2.983179e-06	8.786437e-09	2.073545e+01	5.768259e+02
1.140000e-06	3.070756e-06	8.981668e-09	2.134418e+01	5.897314e+02
1.150000e-06	3.157296e-06	9.163351e-09	2.194571e+01	6.016036e+02
1.160000e-06	3.242814e-06	9.332365e-09	2.254012e+01	6.126464e+02
1.170000e-06	3.327367e-06	9.489718e-09	2.312783e+01	6.230525e+02
1.180000e-06	3.410833e-06	9.640823e-09	2.370799e+01	6.329564e+02
1.190000e-06	3.492956e-06	9.788659e-09	2.427881e+01	6.424114e+02
1.200000e-06	3.573848e-06	9.928209e-09	2.484107e+01	6.514003e+02
1.210000e-06	3.653483e-06	1.005335e-08	2.539460e+01	6.598714e+02
1.220000e-06	3.731767e-06	1.016957e-08	2.593873e+01	6.677837e+02
1.230000e-06	3.808726e-06	1.028118e-08	2.647366e+01	6.751404e+02
1.240000e-06	3.884234e-06	1.038695e-08	2.699850e+01	6.819991e+02
1.250000e-06	3.958129e-06	1.048505e-08	2.751212e+01	6.884555e+02
1.260000e-06	4.030508e-06	1.057701e-08	2.801522e+01	6.946111e+02
1.270000e-06	4.101497e-06	1.066920e-08	2.850865e+01	7.005404e+02
1.280000e-06	4.171068e-06	1.076015e-08	2.899222e+01	7.062720e+02
1.290000e-06	4.239282e-06	1.084404e-08	2.946636e+01	7.117914e+02
1.300000e-06	4.305869e-06	1.092075e-08	2.992919e+01	7.170619e+02
1.310000e-06	4.370761e-06	1.099434e-08	3.038024e+01	7.220531e+02
1.320000e-06	4.434221e-06	1.106445e-08	3.082134e+01	7.267634e+02
1.330000e-06	4.496166e-06	1.112849e-08	3.125191e+01	7.312262e+02
1.340000e-06	4.556722e-06	1.119004e-08	3.167282e+01	7.354970e+02
1.350000e-06	4.615713e-06	1.125414e-08	3.208286e+01	7.396294e+02
1.360000e-06	4.672867e-06	1.131960e-08	3.248012e+01	7.436506e+02
1.370000e-06	4.728293e-06	1.138057e-08	3.286538e+01	7.475493e+02
1.380000e-06	4.782043e-06	1.143510e-08	3.323898e+01	7.512810e+02
1.390000e-06	4.833908e-06	1.148497e-08	3.359948e+01	7.547895e+02
1.400000e-06	4.883689e-06	1.153142e-08	3.394550e+01	7.580348e+02
1.410000e-06	4.931586e-06	1.157398e-08	3.427842e+01	7.610142e+02
1.420000e-06	4.977783e-06	1.161450e-08	3.459953e+01	7.637675e+02
1.430000e-06	5.022413e-06	1.165489e-08	3.490974e+01	7.663626e+02
1.440000e-06	5.065237e-06	1.169579e-08	3.520740e+01	7.688685e+02
1.450000e-06	5.106086e-06	1.173504e-08	3.549133e+01	7.713264e+02
1.460000e-06	5.145210e-06	1.177084e-08	3.576327e+01	7.737315e+02
1.470000e-06	5.182689e-06	1.180378e-08	3.602378e+01	7.760353e+02
1.480000e-06	5.218428e-06	1.183393e-08	3.627220e+01	7.781662e+02
1.490000e-06	5.252164e-06	1.185962e-08	3.650669e+01	7.800608e+02
1.500000e-06	5.283953e-06	1.188093e-08	3.672765e+01	7.816930e+02
1.510000e-06	5.314000e-06	1.190193e-08	3.693650e+01	7.830879e+02
1.520000e-06	5.342343e-06	1.192526e-08	3.713351e+01	7.843142e+02
1.530000e-06	5.368678e-06	1.194936e-08	3.731656e+01	7.854588e+02
1.540000e-06	5.392924e-06	1.196760e-08	3.748508e+01	7.865927e+02
1.550000e-06	5.415384e-06	1.197989e-08	3.764120e+01	7.877429e+02
1.560000e-06	5.436147e-06	1.199137e-08	3.778552e+01	7.888830e+02
1.570000e-06	5.455028e-06	1.200527e-08	3.791676e+01	7.899440e+02
1.580000e-06	5.471844e-06	1.202030e-08	3.803364e+01	7.908438e+02
1.590000e-06	5.486674e-06	1.203175e-08	3.813672e+01	7.915208e+02
1.600000e-06	5.499494e-06	1.203973e-08	3.822583e+01	7.919597e+02
1.610000e-06	5.510055e-06	1.204575e-08	3.829924e+01	7.921978e+02
1.620000e-06	5.518470e-06	1.205160e-08	3.835773e+01	7.923099e+02
1.630000e-06	5.525028e-06	1.205501e-08	3.840331e+01	7.923786e+02
1.640000e-06	5.529777e-06	1.205276e-08	3.843632e+01	7.924615e+02
1.650000e-06	5.532511e-06	1.205032e-08	3.845532e+01	7.925701e+02
1.660000e-06	5.533184e-06	1.205469e-08	3.846000e+01	7.926667e+02
1.670000e-06	5.532062e-06	1.205915e-08	3.845221e+01	7.926827e+02
1.680000e-06	5.529309e-06	1.205674e-08	3.843307e+01	7.925474e+02
1.690000e-06	5.524781e-06	1.205016e-08	3.840160e+01	7.922173e+02
1.700000e-06	5.518271e-06	1.204008e-08	3.835635e+01	7.916926e+02
1.710000e-06	5.509986e-06	1.203009e-08	3.829876e+01	7.910150e+02
1.720000e-06	5.500061e-06	1.202117e-08	3.822977e+01	7.902484e+02
1.730000e-06	5.488263e-06	1.201881e-08	3.814777e+01	7.894512e+02
1.740000e-06	5.474404e-06	1.201599e-08	3.805144e+01	7.886520e+02
1.750000e-06	5.458564e-06	1.194157e-08	3.794133e+01	7.878394e+02
1.760000e-06	5.440340e-06	1.191639e-08	3.781466e+01	7.869694e+02
1.770000e-06	5.419251e-06	1.192803e-08	3.766808e+01	7.859861e+02
1.780000e-06	5.395846e-06	1.192184e-08	3.750540e+01	7.848481e+02
1.790000e-06	5.371145e-06	1.199824e-08	3.733370e+01	7.835462e+02
1.800000e-06	5.345741e-06	1.188359e-08	3.715712e+01	7.821075e+02
1.810000e-06	5.318833e-06	1.180766e-08	3.697009e+01	7.805821e+02
1.820000e-06	5.289476e-06	1.193672e-08	3.676604e+01	7.790198e+02
1.830000e-06	5.258400e-06	1.181041e-08	3.655004e+01	7.774464e+02
1.840000e-06	5.225683e-06	1.179008e-08	3.632263e+01	7.758498e+02
1.850000e-06	5.190988e-06	1.187683e-08	3.608147e+01	7.741827e+02
1.860000e-06	5.154693e-06	1.171706e-08	3.582919e+01	7.723808e+02
1.870000e-06	5.116337e-06	1.176446e-08	3.556259e+01	7.703875e+02
1.880000e-06	5.076004e-06	1.177270e-08	3.528224e+01	7.681774e+02
1.890000e-06	5.034208e-06	1.161867e-08	3.499173e+01	7.657659e+02
1.900000e-06	4.990558e-06	1.166642e-08	3.468832e+01	7.632026e+02
1.910000e-06	4.945097e-06	1.156355e-08	3.437233e+01	7.605518e+02
1.920000e-06	4.897867e-06	1.153031e-08	3.404404e+01	7.578664e+02
1.930000e-06	4.848750e-06	1.157878e-08	3.370265e+01	7.551680e+02
1.940000e-06	4.797940e-06	1.143927e-08	3.334947e+01	7.524397e+02
1.950000e-06	4.745047e-06	1.145526e-08	3.298183e+01	7.496350e+02
1.960000e-06	4.690175e-06	1.139429e-08	3.260043e+01	7.466977e+02
1.970000e-06	4.633642e-06	1.131668e-08	3.220747e+01	7.435843e+02
1.980000e-06	4.575468e-06	1.127728e-08	3.180312e+01	7.402803e+02
1.990000e-06	4.515820e-06	1.118922e-08	3.138852e+01	7.368026e+02
2.000000e-06	4.454400e-06	1.121860e-08	3.096160e+01	7.331889e+02
2.010000e-06	4.391282e-06	1.112438e-08	3.052288e+01	7.294788e+02
2.020000e-06	4.326679e-06	1.108186e-08	3.007384e+01	7.256961e+02
2.030000e-06	4.260598e-06	1.103250e-08	2.961453e+01	7.218388e+02
2.040000e-06	4.193110e-06	1.091229e-08	2.914543e+01	7.178812e+02
2.050000e-06	4.123869e-06	1.089789e-08	2.866415e+01	7.137872e+02
2.060000e-06	4.052972e-06	1.079228e-08	2.817136e+01	7.095270e+02
2.070000e-06	3.980668e-06	1.075057e-08	2.766879e+01	7.050902e+02
2.080000e-06	3.907006e-06	1.069328e-08	2.715678e+01	7.004895e+02
2.090000e-06	3.831890e-06	1.061641e-08	2.663467e+01	6.957524e+02
2.100000e-06	3.755052e-06	1.057146e-08	2.610058e+01	6.909072e+02
2.110000e-06	3.676638e-06	1.045650e-08	2.555554e+01	6.859676e+02
2.120000e-06	3.596947e-06	1.039349e-08	2.500162e+01	6.809247e+02
2.130000e-06	3.516134e-06	1.029644e-08	2.443991e+01	6.757497e+02
2.140000e-06	3.434131e-06	1.022148e-08	2.386993e+01	6.704058e+02
2.150000e-06	3.350951e-06	1.014299e-08	2.329176e+01	6.648637e+02
2.160000e-06	3.266589e-06	1.005270e-08	2.270537e+01	6.591137e+02
2.170000e-06	3.180901e-06	9.987380e-09	2.210977e+01	6.531685e+02
2.180000e-06	3.093958e-06	9.882881e-09	2.150545e+01	6.470553e+02
2.190000e-06	3.006018e-06	9.790887e-09	2.089420e+01	6.408015e+02
2.200000e-06	2.917167e-06	9.683596e-09	2.027661e+01	6.344198e+02
2.210000e-06	2.827322e-06	9.584526e-09	1.965213e+01	6.279003e+02
2.220000e-06	2.736504e-06	9.483437e-09	1.902087e+01	6.212141e+02
2.230000e-06	2.644754e-06	9.378970e-09	1.838313e+01	6.143245e+02
2.240000e-06	2.552058e-06	9.276055e-09	1.773882e+01	6.072034e+02
2.250000e-06	2.458376e-06	9.162275e-09	1.708765e+01	5.998417e+02
2.260000e-06	2.363648e-06	9.054967e-09	1.642922e+01	5.922515e+02
2.270000e-06	2.268082e-06	8.937847e-09	1.576497e+01	5.844554e+02
2.280000e-06	2.171805e-06	8.820866e-09	1.509576e+01	5.764709e+02
2.290000e-06	2.074792e-06	8.693441e-09	1.442145e+01	5.682946e+02
2.300000e-06	1.977137e-06	8.563585e-09	1.374266e+01	5.598966e+02
2.310000e-06	1.878900e-06	8.430902e-09	1.305984e+01	5.512277e+02
2.320000e-06	1.780072e-06	8.292388e-09	1.237291e+01	5.422372e+02
2.330000e-06	1.680619e-06	8.151941e-09	1.168163e+01	5.328934e+02
2.340000e-06	1.580603e-06	8.006945e-09	1.098644e+01	5.231970e+02
2.350000e-06	1.480068e-06	7.862478e-09	1.028764e+01	5.131797e+02
2.360000e-06	1.378979e-06	7.708368e-09	9.584996e+00	5.028861e+02
2.370000e-06	1.277298e-06	7.549298e-09	8.878232e+00	4.923472e+02
2.380000e-06	1.175002e-06	7.383791e-09	8.167194e+00	4.815551e+02
2.390000e-06	1.072167e-06	7.212172e-09	7.452407e+00	4.704524e+02
2.400000e-06	9.689451e-07	7.035295e-09	6.734935e+00	4.589431e+02
2.410000e-06	8.653724e-07	6.851289e-09	6.015022e+00	4.469222e+02
2.420000e-06	7.614737e-07	6.663067e-09	5.292844e+00	4.343122e+02
2.430000e-06	6.573255e-07	6.464211e-09	4.568932e+00	4.210918e+02
2.440000e-06	5.529892e-07	6.252518e-09	3.843712e+00	4.073003e+02
2.450000e-06	4.485261e-07	6.033587e-09	3.117611e+00	3.930150e+02
2.460000e-06	3.439463e-07	5.811634e-09	2.390698e+00	3.783068e+02
2.470000e-06	2.392484e-07	5.583392e-09	1.662965e+00	3.631910e+02
2.480000e-06	1.344724e-07	5.343611e-09	9.346893e-01	3.475974e+02
2.490000e-06	2.964266e-08	5.091710e-09	2.060399e-01	3.313718e+02
2.500000e-06	-7.518080e-08	4.829224e-09	-5.225660e-01	3.143148e+02
2.510000e-06	-1.799776e-07	4.554127e-09	-1.250986e+00	2.962424e+02
2.520000e-06	-2.846874e-07	4.262442e-09	-1.978802e+00	2.770429e+02
2.530000e-06	-3.892604e-07	3.954392e-09	-2.705667e+00	2.567005e+02
2.540000e-06	-4.937227e-07	3.632370e-09	-3.431763e+00	2.352668e+02
2.550000e-06	-5.980391e-07	3.296050e-09	-4.156845e+00	2.127808e+02
2.560000e-06	-7.021006e-07	2.937806e-09	-4.880154e+00	1.891601e+02
2.570000e-06	-8.058947e-07	2.549057e-09	-5.601605e+00	1.641057e+02
2.580000e-06	-9.095032e-07	2.127994e-09	-6.321766e+00	1.370642e+02
2.590000e-06	-1.012770e-06	1.672764e-09	-7.039551e+00	1.072804e+02
2.600000e-06	-1.115543e-06	1.170495e-09	-7.753907e+00	7.394501e+01
2.610000e-06	-1.217800e-06	6.058206e-10	-8.464675e+00	3.640844e+01
2.620000e-06	-1.319562e-06	-2.459724e-11	-9.172001e+00	-5.592233e+00
2.630000e-06	-1.420753e-06	-7.181742e-10	-9.875358e+00	-5.176224e+01
2.640000e-06	-1.521288e-06	-1.469697e-09	-1.057415e+01	-1.011900e+02
2.650000e-06	-1.621296e-06	-2.261234e-09	-1.126929e+01	-1.524283e+02
2.660000e-06	-1.720787e-06	-3.057654e-09	-1.196083e+01	-2.037049e+02
2.670000e-06	-1.819642e-06	-3.818577e-09	-1.264795e+01	-2.532123e+02
2.680000e-06	-1.917820e-06	-4.520518e-09	-1.333037e+01	-2.994054e+02
2.690000e-06	-2.015390e-06	-5.155432e-09	-1.400856e+01	-3.412308e+02
2.700000e-06	-2.112288e-06	-5.721643e-09	-1.468207e+01	-3.782359e+02
2.710000e-06	-2.208504e-06	-6.219020e-09	-1.535085e+01	-4.105395e+02
2.720000e-06	-2.304165e-06	-6.653782e-09	-1.601577e+01	-4.386849e+02
2.730000e-06	-2.399130e-06	-7.040680e-09	-1.667585e+01	-4.634307e+02
2.740000e-06	-2.493182e-06	-7.389526e-09	-1.732959e+01	-4.855403e+02
2.750000e-06	-2.586146e-06	-7.703857e-09	-1.797576e+01	-5.056280e+02
2.760000e-06	-2.678034e-06	-7.985633e-09	-1.861446e+01	-5.240908e+02
2.770000e-06	-2.768959e-06	-8.239824e-09	-1.924645e+01	-5.411268e+02
2.780000e-06	-2.858870e-06	-8.476313e-09	-1.987141e+01	-5.568104e+02
2.790000e-06	-2.947724e-06	-8.698933e-09	-2.048901e+01	-5.711852e+02
2.800000e-06	-3.035638e-06	-8.902064e-09	-2.110009e+01	-5.843354e+02
2.810000e-06	-3.122675e-06	-9.086251e-09	-2.170506e+01	-5.964122e+02
2.820000e-06	-3.208484e-06	-9.261244e-09	-2.230150e+01	-6.076151e+02
2.830000e-06	-3.292940e-06	-9.430068e-09	-2.288853e+01	-6.181435e+02
2.840000e-06	-3.376218e-06	-9.586691e-09	-2.346738e+01	-6.281474e+02
2.850000e-06	-3.458381e-06	-9.729769e-09	-2.403848e+01	-6.376978e+02
2.860000e-06	-3.539383e-06	-9.863808e-09	-2.460151e+01	-6.467902e+02
2.870000e-06	-3.619239e-06	-9.991028e-09	-2.515657e+01	-6.553764e+02
2.880000e-06	-3.697832e-06	-1.011100e-08	-2.570285e+01	-6.634097e+02
2.890000e-06	-3.774851e-06	-1.022462e-08	-2.623820e+01	-6.708821e+02
2.900000e-06	-3.850301e-06	-1.033424e-08	-2.676264e+01	-6.778401e+02
2.910000e-06	-3.924292e-06	-1.043792e-08	-2.727693e+01	-6.843735e+02
2.920000e-06	-3.996870e-06	-1.053599e-08	-2.778140e+01	-6.905857e+02
2.930000e-06	-4.068148e-06	-1.063058e-08	-2.827684e+01	-6.965591e+02
2.940000e-06	-4.137911e-06	-1.071997e-08	-2.876175e+01	-7.023328e+02
