# Temperatura_=_23.23
# Concentracion g/m^3_=_13400.0
# C_Vs_to_Am_M_A/Vsm_=_65563218390.804596
# pendiente_HvsI_1/m_=_3716.3
# ordenada_HvsI_A/m_=_1297.0
# frecuencia_Hz_=_300816.61341364984

Tiempo_(s)	Campo_(V.s)	Magnetizacion_(V.s)	Campo_(kA/m)	Magnetizacion_(A/m)
0.000000e+00	-5.510149e-06	-1.199751e-08	-3.830159e+01	-7.851536e+02
1.000000e-08	-5.508596e-06	-1.199895e-08	-3.829080e+01	-7.850830e+02
2.000000e-08	-5.505098e-06	-1.199798e-08	-3.826648e+01	-7.848697e+02
3.000000e-08	-5.499805e-06	-1.199240e-08	-3.822969e+01	-7.844818e+02
4.000000e-08	-5.492914e-06	-1.198399e-08	-3.818179e+01	-7.839227e+02
5.000000e-08	-5.484389e-06	-1.197312e-08	-3.812253e+01	-7.832280e+02
6.000000e-08	-5.473893e-06	-1.195841e-08	-3.804957e+01	-7.824497e+02
7.000000e-08	-5.461311e-06	-1.194072e-08	-3.796212e+01	-7.816330e+02
8.000000e-08	-5.446737e-06	-1.192971e-08	-3.786081e+01	-7.807977e+02
9.000000e-08	-5.429853e-06	-1.194397e-08	-3.774344e+01	-7.799322e+02
1.000000e-07	-5.410647e-06	-1.194500e-08	-3.760995e+01	-7.790000e+02
1.100000e-07	-5.389471e-06	-1.190913e-08	-3.746275e+01	-7.779593e+02
1.200000e-07	-5.366493e-06	-1.187521e-08	-3.730302e+01	-7.767827e+02
1.300000e-07	-5.341953e-06	-1.182622e-08	-3.713245e+01	-7.754717e+02
1.400000e-07	-5.315901e-06	-1.179720e-08	-3.695136e+01	-7.740569e+02
1.500000e-07	-5.288030e-06	-1.182760e-08	-3.675762e+01	-7.725845e+02
1.600000e-07	-5.258421e-06	-1.177397e-08	-3.655181e+01	-7.710951e+02
1.700000e-07	-5.227303e-06	-1.173202e-08	-3.633550e+01	-7.696036e+02
1.800000e-07	-5.194249e-06	-1.176129e-08	-3.610574e+01	-7.680886e+02
1.900000e-07	-5.159044e-06	-1.169874e-08	-3.586103e+01	-7.664975e+02
2.000000e-07	-5.122300e-06	-1.166587e-08	-3.560562e+01	-7.647641e+02
2.100000e-07	-5.083981e-06	-1.164699e-08	-3.533925e+01	-7.628325e+02
2.200000e-07	-5.043788e-06	-1.157181e-08	-3.505987e+01	-7.606779e+02
2.300000e-07	-5.001680e-06	-1.157294e-08	-3.476718e+01	-7.583148e+02
2.400000e-07	-4.957543e-06	-1.156109e-08	-3.446038e+01	-7.557903e+02
2.500000e-07	-4.911618e-06	-1.149987e-08	-3.414114e+01	-7.531651e+02
2.600000e-07	-4.863934e-06	-1.146718e-08	-3.380969e+01	-7.504894e+02
2.700000e-07	-4.814294e-06	-1.139985e-08	-3.346463e+01	-7.477844e+02
2.800000e-07	-4.762558e-06	-1.135148e-08	-3.310502e+01	-7.450363e+02
2.900000e-07	-4.708786e-06	-1.132951e-08	-3.273124e+01	-7.422038e+02
3.000000e-07	-4.653310e-06	-1.128001e-08	-3.234562e+01	-7.392370e+02
3.100000e-07	-4.596231e-06	-1.122447e-08	-3.194886e+01	-7.360977e+02
3.200000e-07	-4.537327e-06	-1.119039e-08	-3.153941e+01	-7.327739e+02
3.300000e-07	-4.476754e-06	-1.115068e-08	-3.111836e+01	-7.292827e+02
3.400000e-07	-4.414748e-06	-1.106697e-08	-3.068735e+01	-7.256599e+02
3.500000e-07	-4.351244e-06	-1.100487e-08	-3.024593e+01	-7.219433e+02
3.600000e-07	-4.286253e-06	-1.095158e-08	-2.979417e+01	-7.181556e+02
3.700000e-07	-4.219566e-06	-1.088673e-08	-2.933063e+01	-7.142957e+02
3.800000e-07	-4.151154e-06	-1.084247e-08	-2.885509e+01	-7.103401e+02
3.900000e-07	-4.081232e-06	-1.077652e-08	-2.836905e+01	-7.062545e+02
4.000000e-07	-4.009980e-06	-1.070281e-08	-2.787377e+01	-7.020097e+02
4.100000e-07	-3.937526e-06	-1.064266e-08	-2.737014e+01	-6.975935e+02
4.200000e-07	-3.863625e-06	-1.057199e-08	-2.685644e+01	-6.930140e+02
4.300000e-07	-3.788036e-06	-1.049524e-08	-2.633101e+01	-6.882934e+02
4.400000e-07	-3.710824e-06	-1.041531e-08	-2.579431e+01	-6.834545e+02
4.500000e-07	-3.632130e-06	-1.034469e-08	-2.524729e+01	-6.785078e+02
4.600000e-07	-3.551858e-06	-1.027342e-08	-2.468932e+01	-6.734436e+02
4.700000e-07	-3.470135e-06	-1.019363e-08	-2.412125e+01	-6.682351e+02
4.800000e-07	-3.387279e-06	-1.010451e-08	-2.354531e+01	-6.628490e+02
4.900000e-07	-3.303355e-06	-1.001295e-08	-2.296195e+01	-6.572600e+02
5.000000e-07	-3.218460e-06	-9.930214e-09	-2.237184e+01	-6.514618e+02
5.100000e-07	-3.132588e-06	-9.838084e-09	-2.177493e+01	-6.454696e+02
5.200000e-07	-3.045725e-06	-9.741977e-09	-2.117113e+01	-6.393124e+02
5.300000e-07	-2.957888e-06	-9.645337e-09	-2.056057e+01	-6.330189e+02
5.400000e-07	-2.869087e-06	-9.547479e-09	-1.994331e+01	-6.266026e+02
5.500000e-07	-2.779287e-06	-9.451555e-09	-1.931910e+01	-6.200539e+02
5.600000e-07	-2.688287e-06	-9.350491e-09	-1.868655e+01	-6.133423e+02
5.700000e-07	-2.596144e-06	-9.240760e-09	-1.804606e+01	-6.064276e+02
5.800000e-07	-2.503149e-06	-9.125124e-09	-1.739963e+01	-5.992761e+02
5.900000e-07	-2.409354e-06	-9.013526e-09	-1.674766e+01	-5.918723e+02
6.000000e-07	-2.314760e-06	-8.899791e-09	-1.609013e+01	-5.842230e+02
6.100000e-07	-2.219398e-06	-8.778015e-09	-1.542725e+01	-5.763493e+02
6.200000e-07	-2.123257e-06	-8.651002e-09	-1.475897e+01	-5.682713e+02
6.300000e-07	-2.026355e-06	-8.522920e-09	-1.408539e+01	-5.599928e+02
6.400000e-07	-1.928637e-06	-8.394522e-09	-1.340615e+01	-5.514934e+02
6.500000e-07	-1.830082e-06	-8.257900e-09	-1.272108e+01	-5.427315e+02
6.600000e-07	-1.730749e-06	-8.113723e-09	-1.203061e+01	-5.336593e+02
6.700000e-07	-1.630765e-06	-7.969285e-09	-1.133561e+01	-5.242412e+02
6.800000e-07	-1.530253e-06	-7.824926e-09	-1.063694e+01	-5.144686e+02
6.900000e-07	-1.429239e-06	-7.671961e-09	-9.934782e+00	-5.043613e+02
7.000000e-07	-1.327747e-06	-7.508607e-09	-9.229298e+00	-4.939556e+02
7.100000e-07	-1.225810e-06	-7.341812e-09	-8.520724e+00	-4.832812e+02
7.200000e-07	-1.123455e-06	-7.173505e-09	-7.809249e+00	-4.723389e+02
7.300000e-07	-1.020754e-06	-7.000479e-09	-7.095363e+00	-4.610871e+02
7.400000e-07	-9.177358e-07	-6.822392e-09	-6.379273e+00	-4.494481e+02
7.500000e-07	-8.144076e-07	-6.638598e-09	-5.661028e+00	-4.373296e+02
7.600000e-07	-7.107777e-07	-6.445692e-09	-4.940686e+00	-4.246562e+02
7.700000e-07	-6.068670e-07	-6.241994e-09	-4.218393e+00	-4.113954e+02
7.800000e-07	-5.027610e-07	-6.028382e-09	-3.494742e+00	-3.975667e+02
7.900000e-07	-3.984959e-07	-5.809461e-09	-2.769985e+00	-3.832260e+02
8.000000e-07	-2.940996e-07	-5.586368e-09	-2.044315e+00	-3.684308e+02
8.100000e-07	-1.896019e-07	-5.356273e-09	-1.317942e+00	-3.531999e+02
8.200000e-07	-8.504660e-08	-5.117408e-09	-5.911673e-01	-3.374835e+02
8.300000e-07	1.952558e-08	-4.868410e-09	1.357242e-01	-3.211609e+02
8.400000e-07	1.240936e-07	-4.607060e-09	8.625870e-01	-3.040677e+02
8.500000e-07	2.286193e-07	-4.331386e-09	1.589155e+00	-2.860439e+02
8.600000e-07	3.330581e-07	-4.041044e-09	2.315120e+00	-2.669816e+02
8.700000e-07	4.374117e-07	-3.735514e-09	3.040492e+00	-2.468479e+02
8.800000e-07	5.416061e-07	-3.414999e-09	3.764757e+00	-2.256651e+02
8.900000e-07	6.456010e-07	-3.078422e-09	4.487637e+00	-2.034470e+02
9.000000e-07	7.494193e-07	-2.722236e-09	5.209288e+00	-1.801091e+02
9.100000e-07	8.529984e-07	-2.340435e-09	5.929277e+00	-1.553858e+02
9.200000e-07	9.562840e-07	-1.928102e-09	6.647225e+00	-1.287949e+02
9.300000e-07	1.059190e-06	-1.478168e-09	7.362533e+00	-9.967592e+01
9.400000e-07	1.161703e-06	-9.820919e-10	8.075113e+00	-6.731251e+01
9.500000e-07	1.263879e-06	-4.323096e-10	8.785348e+00	-3.111499e+01
9.600000e-07	1.365676e-06	1.787123e-10	9.492953e+00	9.180351e+00
9.700000e-07	1.466991e-06	8.502868e-10	1.019720e+01	5.335365e+01
9.800000e-07	1.567816e-06	1.572073e-09	1.089805e+01	1.006365e+02
9.900000e-07	1.668172e-06	2.327055e-09	1.159563e+01	1.497680e+02
1.000000e-06	1.767929e-06	3.090062e-09	1.228905e+01	1.991669e+02
1.010000e-06	1.866960e-06	3.824909e-09	1.297742e+01	2.471808e+02
1.020000e-06	1.965195e-06	4.502933e-09	1.366026e+01	2.923514e+02
1.030000e-06	2.062544e-06	5.115660e-09	1.433694e+01	3.336303e+02
1.040000e-06	2.159054e-06	5.666199e-09	1.500780e+01	3.704953e+02
1.050000e-06	2.254813e-06	6.158567e-09	1.567343e+01	4.029459e+02
1.060000e-06	2.349847e-06	6.591667e-09	1.633402e+01	4.313924e+02
1.070000e-06	2.444134e-06	6.971316e-09	1.698942e+01	4.564788e+02
1.080000e-06	2.537662e-06	7.311959e-09	1.763954e+01	4.788965e+02
1.090000e-06	2.630452e-06	7.622975e-09	1.828454e+01	4.992356e+02
1.100000e-06	2.722364e-06	7.905067e-09	1.892342e+01	5.179088e+02
1.110000e-06	2.813166e-06	8.160186e-09	1.955460e+01	5.351484e+02
1.120000e-06	2.902789e-06	8.395444e-09	2.017758e+01	5.510613e+02
1.130000e-06	2.991281e-06	8.616117e-09	2.079269e+01	5.657050e+02
1.140000e-06	3.078755e-06	8.820070e-09	2.140073e+01	5.791542e+02
1.150000e-06	3.165240e-06	9.006460e-09	2.200190e+01	5.915328e+02
1.160000e-06	3.250676e-06	9.179560e-09	2.259577e+01	6.030077e+02
1.170000e-06	3.335105e-06	9.343272e-09	2.318265e+01	6.137555e+02
1.180000e-06	3.418462e-06	9.500494e-09	2.376207e+01	6.239210e+02
1.190000e-06	3.500604e-06	9.650352e-09	2.433304e+01	6.335896e+02
1.200000e-06	3.581384e-06	9.788299e-09	2.489456e+01	6.427835e+02
1.210000e-06	3.660815e-06	9.916829e-09	2.544669e+01	6.514822e+02
1.220000e-06	3.738990e-06	1.004068e-08	2.599009e+01	6.596562e+02
1.230000e-06	3.815817e-06	1.015860e-08	2.652412e+01	6.672982e+02
1.240000e-06	3.891161e-06	1.026625e-08	2.704785e+01	6.744398e+02
1.250000e-06	3.964904e-06	1.036389e-08	2.756044e+01	6.811474e+02
1.260000e-06	4.037098e-06	1.045925e-08	2.806227e+01	6.875024e+02
1.270000e-06	4.107893e-06	1.055699e-08	2.855437e+01	6.935759e+02
1.280000e-06	4.177336e-06	1.065215e-08	2.903708e+01	6.994104e+02
1.290000e-06	4.245377e-06	1.073533e-08	2.951004e+01	7.050151e+02
1.300000e-06	4.311810e-06	1.081012e-08	2.997182e+01	7.103776e+02
1.310000e-06	4.376557e-06	1.088481e-08	3.042188e+01	7.154827e+02
1.320000e-06	4.439802e-06	1.095802e-08	3.086151e+01	7.203304e+02
1.330000e-06	4.501673e-06	1.102577e-08	3.129157e+01	7.249440e+02
1.340000e-06	4.562156e-06	1.109001e-08	3.171200e+01	7.293638e+02
1.350000e-06	4.620973e-06	1.115484e-08	3.212084e+01	7.336305e+02
1.360000e-06	4.677939e-06	1.122167e-08	3.251682e+01	7.377670e+02
1.370000e-06	4.733240e-06	1.128656e-08	3.290122e+01	7.417668e+02
1.380000e-06	4.786905e-06	1.134335e-08	3.327425e+01	7.455963e+02
1.390000e-06	4.838618e-06	1.139283e-08	3.363371e+01	7.492094e+02
1.400000e-06	4.888263e-06	1.143933e-08	3.397880e+01	7.525695e+02
1.410000e-06	4.936029e-06	1.148581e-08	3.431083e+01	7.556680e+02
1.420000e-06	4.982128e-06	1.153096e-08	3.463126e+01	7.585312e+02
1.430000e-06	5.026589e-06	1.157154e-08	3.494032e+01	7.612126e+02
1.440000e-06	5.069163e-06	1.160970e-08	3.523626e+01	7.637720e+02
1.450000e-06	5.109787e-06	1.165048e-08	3.551863e+01	7.662521e+02
1.460000e-06	5.148655e-06	1.169055e-08	3.578881e+01	7.686612e+02
1.470000e-06	5.185880e-06	1.172339e-08	3.604757e+01	7.709706e+02
1.480000e-06	5.221342e-06	1.175099e-08	3.629407e+01	7.731280e+02
1.490000e-06	5.254847e-06	1.177945e-08	3.652696e+01	7.750807e+02
1.500000e-06	5.286506e-06	1.180719e-08	3.674703e+01	7.768004e+02
1.510000e-06	5.316463e-06	1.182897e-08	3.695526e+01	7.782973e+02
1.520000e-06	5.344685e-06	1.184688e-08	3.715143e+01	7.796182e+02
1.530000e-06	5.370862e-06	1.186829e-08	3.733340e+01	7.808291e+02
1.540000e-06	5.394944e-06	1.189198e-08	3.750079e+01	7.819891e+02
1.550000e-06	5.417222e-06	1.191047e-08	3.765565e+01	7.831270e+02
1.560000e-06	5.437784e-06	1.192252e-08	3.779858e+01	7.842300e+02
1.570000e-06	5.456467e-06	1.193355e-08	3.792844e+01	7.852496e+02
1.580000e-06	5.473066e-06	1.194775e-08	3.804383e+01	7.861224e+02
1.590000e-06	5.487671e-06	1.195876e-08	3.814535e+01	7.867969e+02
1.600000e-06	5.500259e-06	1.196336e-08	3.823285e+01	7.872555e+02
1.610000e-06	5.510589e-06	1.196752e-08	3.830465e+01	7.875228e+02
1.620000e-06	5.518840e-06	1.197602e-08	3.836200e+01	7.876558e+02
1.630000e-06	5.525253e-06	1.198357e-08	3.840658e+01	7.877220e+02
1.640000e-06	5.529812e-06	1.198265e-08	3.843827e+01	7.877727e+02
1.650000e-06	5.532384e-06	1.197707e-08	3.845615e+01	7.878241e+02
1.660000e-06	5.532938e-06	1.197623e-08	3.846000e+01	7.878524e+02
1.670000e-06	5.531692e-06	1.197800e-08	3.845134e+01	7.878056e+02
1.680000e-06	5.528776e-06	1.197556e-08	3.843107e+01	7.876267e+02
1.690000e-06	5.524002e-06	1.196840e-08	3.839788e+01	7.872772e+02
1.700000e-06	5.517260e-06	1.195951e-08	3.835102e+01	7.867527e+02
1.710000e-06	5.508769e-06	1.195393e-08	3.829200e+01	7.860830e+02
1.720000e-06	5.498617e-06	1.194758e-08	3.822144e+01	7.853183e+02
1.730000e-06	5.486557e-06	1.193893e-08	3.813760e+01	7.845070e+02
1.740000e-06	5.472387e-06	1.191605e-08	3.803911e+01	7.836757e+02
1.750000e-06	5.456244e-06	1.186562e-08	3.792690e+01	7.828191e+02
1.760000e-06	5.437699e-06	1.185161e-08	3.779799e+01	7.819049e+02
1.770000e-06	5.416329e-06	1.185207e-08	3.764944e+01	7.808905e+02
1.780000e-06	5.392782e-06	1.185614e-08	3.748576e+01	7.797441e+02
1.790000e-06	5.368034e-06	1.187779e-08	3.731374e+01	7.784602e+02
1.800000e-06	5.342519e-06	1.180319e-08	3.713638e+01	7.770640e+02
1.810000e-06	5.315350e-06	1.177275e-08	3.694752e+01	7.756000e+02
1.820000e-06	5.285727e-06	1.181174e-08	3.674161e+01	7.741119e+02
1.830000e-06	5.254459e-06	1.174138e-08	3.652427e+01	7.726214e+02
1.840000e-06	5.221561e-06	1.174214e-08	3.629559e+01	7.711150e+02
1.850000e-06	5.186769e-06	1.175847e-08	3.605375e+01	7.695458e+02
1.860000e-06	5.150324e-06	1.168192e-08	3.580041e+01	7.678483e+02
1.870000e-06	5.111764e-06	1.170625e-08	3.553238e+01	7.659625e+02
1.880000e-06	5.071311e-06	1.167063e-08	3.525119e+01	7.638559e+02
1.890000e-06	5.029357e-06	1.158159e-08	3.495956e+01	7.615344e+02
1.900000e-06	4.985559e-06	1.158515e-08	3.465511e+01	7.590396e+02
1.910000e-06	4.940006e-06	1.151662e-08	3.433847e+01	7.564310e+02
1.920000e-06	4.892550e-06	1.149666e-08	3.400860e+01	7.537632e+02
1.930000e-06	4.843151e-06	1.149327e-08	3.366522e+01	7.510645e+02
1.940000e-06	4.792114e-06	1.140628e-08	3.331046e+01	7.483284e+02
1.950000e-06	4.738991e-06	1.138439e-08	3.294120e+01	7.455183e+02
1.960000e-06	4.683932e-06	1.132855e-08	3.255848e+01	7.425842e+02
1.970000e-06	4.627237e-06	1.126520e-08	3.216439e+01	7.394839e+02
1.980000e-06	4.568888e-06	1.121790e-08	3.175879e+01	7.361991e+02
1.990000e-06	4.509023e-06	1.117505e-08	3.134266e+01	7.327412e+02
2.000000e-06	4.447362e-06	1.115164e-08	3.091405e+01	7.291432e+02
2.010000e-06	4.384072e-06	1.107052e-08	3.047412e+01	7.254441e+02
2.020000e-06	4.319329e-06	1.102646e-08	3.002409e+01	7.216710e+02
2.030000e-06	4.253081e-06	1.095508e-08	2.956359e+01	7.178279e+02
2.040000e-06	4.185450e-06	1.087579e-08	2.909348e+01	7.138955e+02
2.050000e-06	4.116031e-06	1.084017e-08	2.861094e+01	7.098407e+02
2.060000e-06	4.044947e-06	1.076159e-08	2.811683e+01	7.056318e+02
2.070000e-06	3.972583e-06	1.071145e-08	2.761382e+01	7.012523e+02
2.080000e-06	3.898868e-06	1.063414e-08	2.710142e+01	6.967063e+02
2.090000e-06	3.823625e-06	1.056495e-08	2.657840e+01	6.920138e+02
2.100000e-06	3.746668e-06	1.050125e-08	2.604346e+01	6.871988e+02
2.110000e-06	3.668155e-06	1.040818e-08	2.549771e+01	6.822753e+02
2.120000e-06	3.588343e-06	1.034409e-08	2.494293e+01	6.772381e+02
2.130000e-06	3.507377e-06	1.026014e-08	2.438012e+01	6.720633e+02
2.140000e-06	3.425294e-06	1.018468e-08	2.380956e+01	6.667180e+02
2.150000e-06	3.342115e-06	1.009051e-08	2.323137e+01	6.611737e+02
2.160000e-06	3.257670e-06	1.000337e-08	2.264439e+01	6.554198e+02
2.170000e-06	3.171804e-06	9.928502e-09	2.204753e+01	6.494670e+02
2.180000e-06	3.084789e-06	9.833100e-09	2.144267e+01	6.433426e+02
2.190000e-06	2.996786e-06	9.745936e-09	2.083096e+01	6.370765e+02
2.200000e-06	2.907814e-06	9.638546e-09	2.021250e+01	6.306865e+02
2.210000e-06	2.817874e-06	9.536495e-09	1.958732e+01	6.241682e+02
2.220000e-06	2.727050e-06	9.433831e-09	1.895599e+01	6.174948e+02
2.230000e-06	2.635343e-06	9.329648e-09	1.831853e+01	6.106270e+02
2.240000e-06	2.542544e-06	9.225812e-09	1.767348e+01	6.035282e+02
2.250000e-06	2.448659e-06	9.112390e-09	1.702087e+01	5.961787e+02
2.260000e-06	2.353811e-06	9.004917e-09	1.636157e+01	5.885806e+02
2.270000e-06	2.258190e-06	8.888411e-09	1.569690e+01	5.807530e+02
2.280000e-06	2.161861e-06	8.766528e-09	1.502731e+01	5.727177e+02
2.290000e-06	2.064783e-06	8.639078e-09	1.435251e+01	5.644830e+02
2.300000e-06	1.967047e-06	8.512042e-09	1.367314e+01	5.560339e+02
2.310000e-06	1.868723e-06	8.385382e-09	1.298968e+01	5.473324e+02
2.320000e-06	1.769854e-06	8.246499e-09	1.230243e+01	5.383304e+02
2.330000e-06	1.670453e-06	8.099959e-09	1.161149e+01	5.289883e+02
2.340000e-06	1.570510e-06	7.953230e-09	1.091677e+01	5.192909e+02
2.350000e-06	1.469956e-06	7.806690e-09	1.021781e+01	5.092525e+02
2.360000e-06	1.368696e-06	7.653866e-09	9.513940e+00	4.989076e+02
2.370000e-06	1.266788e-06	7.493248e-09	8.805566e+00	4.882895e+02
2.380000e-06	1.164361e-06	7.326318e-09	8.093591e+00	4.774066e+02
2.390000e-06	1.061541e-06	7.155045e-09	7.378877e+00	4.662268e+02
2.400000e-06	9.583207e-07	6.977475e-09	6.661382e+00	4.546785e+02
2.410000e-06	8.547223e-07	6.791618e-09	5.941260e+00	4.426702e+02
2.420000e-06	7.508813e-07	6.600112e-09	5.219451e+00	4.301201e+02
2.430000e-06	6.468039e-07	6.403690e-09	4.495998e+00	4.169854e+02
2.440000e-06	5.425280e-07	6.197954e-09	3.771166e+00	4.032745e+02
2.450000e-06	4.380579e-07	5.982785e-09	3.044984e+00	3.890381e+02
2.460000e-06	3.334082e-07	5.758415e-09	2.317553e+00	3.743368e+02
2.470000e-06	2.286999e-07	5.525442e-09	1.589715e+00	3.592009e+02
2.480000e-06	1.239303e-07	5.285584e-09	8.614516e-01	3.435965e+02
2.490000e-06	1.911796e-08	5.036041e-09	1.328908e-01	3.274169e+02
2.500000e-06	-8.567991e-08	4.775176e-09	-5.955696e-01	3.105033e+02
2.510000e-06	-1.904407e-07	4.503455e-09	-1.323772e+00	2.926904e+02
2.520000e-06	-2.951316e-07	4.217002e-09	-2.051489e+00	2.738560e+02
2.530000e-06	-3.997002e-07	3.913873e-09	-2.778356e+00	2.539511e+02
2.540000e-06	-5.041526e-07	3.595791e-09	-3.504414e+00	2.329904e+02
2.550000e-06	-6.084708e-07	3.264058e-09	-4.229541e+00	2.109966e+02
2.560000e-06	-7.125415e-07	2.915465e-09	-4.952947e+00	1.879139e+02
2.570000e-06	-8.163385e-07	2.542361e-09	-5.674450e+00	1.635207e+02
2.580000e-06	-9.198408e-07	2.139599e-09	-6.393905e+00	1.373809e+02
2.590000e-06	-1.022991e-06	1.701332e-09	-7.110912e+00	1.088645e+02
2.600000e-06	-1.125744e-06	1.218245e-09	-7.825159e+00	7.725344e+01
2.610000e-06	-1.228010e-06	6.825833e-10	-8.536022e+00	4.191371e+01
2.620000e-06	-1.329737e-06	9.141265e-11	-9.243133e+00	2.496215e+00
2.630000e-06	-1.430910e-06	-5.597652e-10	-9.946396e+00	-4.089207e+01
2.640000e-06	-1.531499e-06	-1.269607e-09	-1.064560e+01	-8.759982e+01
2.650000e-06	-1.631456e-06	-2.020280e-09	-1.134041e+01	-1.364608e+02
2.660000e-06	-1.730756e-06	-2.782752e-09	-1.203066e+01	-1.859432e+02
2.670000e-06	-1.829441e-06	-3.528135e-09	-1.271662e+01	-2.343870e+02
2.680000e-06	-1.927550e-06	-4.234569e-09	-1.339859e+01	-2.802716e+02
2.690000e-06	-2.025007e-06	-4.882101e-09	-1.407603e+01	-3.224471e+02
2.700000e-06	-2.121757e-06	-5.457822e-09	-1.474854e+01	-3.602747e+02
2.710000e-06	-2.217905e-06	-5.964182e-09	-1.541688e+01	-3.936483e+02
2.720000e-06	-2.313435e-06	-6.413814e-09	-1.608092e+01	-4.229035e+02
2.730000e-06	-2.408256e-06	-6.818804e-09	-1.674003e+01	-4.486507e+02
2.740000e-06	-2.502240e-06	-7.179892e-09	-1.739332e+01	-4.715854e+02
2.750000e-06	-2.595167e-06	-7.498835e-09	-1.803926e+01	-4.923286e+02
2.760000e-06	-2.686913e-06	-7.788177e-09	-1.867700e+01	-5.113336e+02
2.770000e-06	-2.777658e-06	-8.055734e-09	-1.930777e+01	-5.288682e+02
2.780000e-06	-2.867485e-06	-8.303062e-09	-1.993217e+01	-5.450600e+02
2.790000e-06	-2.956283e-06	-8.531630e-09	-2.054942e+01	-5.599708e+02
2.800000e-06	-3.044084e-06	-8.741970e-09	-2.115973e+01	-5.736673e+02
2.810000e-06	-3.130906e-06	-8.938580e-09	-2.176324e+01	-5.862623e+02
2.820000e-06	-3.216569e-06	-9.124532e-09	-2.235869e+01	-5.979157e+02
2.830000e-06	-3.300902e-06	-9.294878e-09	-2.294490e+01	-6.088054e+02
2.840000e-06	-3.384026e-06	-9.448828e-09	-2.352270e+01	-6.190861e+02
2.850000e-06	-3.466066e-06	-9.594943e-09	-2.409297e+01	-6.288573e+02
2.860000e-06	-3.546997e-06	-9.736959e-09	-2.465553e+01	-6.381537e+02
2.870000e-06	-3.626753e-06	-9.869438e-09	-2.520992e+01	-6.469612e+02
2.880000e-06	-3.705181e-06	-9.993324e-09	-2.575508e+01	-6.552494e+02
2.890000e-06	-3.782011e-06	-1.011322e-08	-2.628914e+01	-6.630041e+02
2.900000e-06	-3.857265e-06	-1.022976e-08	-2.681223e+01	-6.702483e+02
2.910000e-06	-3.931120e-06	-1.033856e-08	-2.732561e+01	-6.770421e+02
2.920000e-06	-4.003632e-06	-1.043587e-08	-2.782964e+01	-6.834659e+02
2.930000e-06	-4.074784e-06	-1.052795e-08	-2.832423e+01	-6.895950e+02
2.940000e-06	-4.144410e-06	-1.061934e-08	-2.880820e+01	-6.954788e+02
