# Temperatura_=_42.12
# Concentracion g/m^3_=_13400.0
# C_Vs_to_Am_M_A/Vsm_=_65563218390.804596
# pendiente_HvsI_1/m_=_3716.3
# ordenada_HvsI_A/m_=_1297.0
# frecuencia_Hz_=_300813.4172867662

Tiempo_(s)	Campo_(V.s)	Magnetizacion_(V.s)	Campo_(kA/m)	Magnetizacion_(A/m)
0.000000e+00	-5.488040e-06	-1.223251e-08	-3.830942e+01	-8.001983e+02
1.000000e-08	-5.486669e-06	-1.223350e-08	-3.829984e+01	-8.001021e+02
2.000000e-08	-5.483334e-06	-1.223287e-08	-3.827656e+01	-7.998174e+02
3.000000e-08	-5.478189e-06	-1.222798e-08	-3.824065e+01	-7.993406e+02
4.000000e-08	-5.471382e-06	-1.221968e-08	-3.819314e+01	-7.987100e+02
5.000000e-08	-5.462917e-06	-1.220770e-08	-3.813405e+01	-7.979878e+02
6.000000e-08	-5.452583e-06	-1.219189e-08	-3.806191e+01	-7.972317e+02
7.000000e-08	-5.440173e-06	-1.217395e-08	-3.797528e+01	-7.964684e+02
8.000000e-08	-5.425747e-06	-1.216369e-08	-3.787458e+01	-7.956829e+02
9.000000e-08	-5.409030e-06	-1.217842e-08	-3.775788e+01	-7.948259e+02
1.000000e-07	-5.389982e-06	-1.217469e-08	-3.762492e+01	-7.938383e+02
1.100000e-07	-5.368938e-06	-1.213929e-08	-3.747802e+01	-7.926807e+02
1.200000e-07	-5.346055e-06	-1.210786e-08	-3.731829e+01	-7.913542e+02
1.300000e-07	-5.321639e-06	-1.204982e-08	-3.714785e+01	-7.899043e+02
1.400000e-07	-5.295786e-06	-1.203369e-08	-3.696739e+01	-7.884032e+02
1.500000e-07	-5.268159e-06	-1.206553e-08	-3.677453e+01	-7.869189e+02
1.600000e-07	-5.238761e-06	-1.199203e-08	-3.656932e+01	-7.854840e+02
1.700000e-07	-5.207821e-06	-1.197391e-08	-3.635334e+01	-7.840763e+02
1.800000e-07	-5.174969e-06	-1.199919e-08	-3.612402e+01	-7.826225e+02
1.900000e-07	-5.140029e-06	-1.190975e-08	-3.588012e+01	-7.810219e+02
2.000000e-07	-5.103499e-06	-1.188160e-08	-3.562512e+01	-7.791831e+02
2.100000e-07	-5.065306e-06	-1.186300e-08	-3.535851e+01	-7.770579e+02
2.200000e-07	-5.025266e-06	-1.179814e-08	-3.507901e+01	-7.746589e+02
2.300000e-07	-4.983406e-06	-1.179731e-08	-3.478681e+01	-7.720541e+02
2.400000e-07	-4.939545e-06	-1.177576e-08	-3.448063e+01	-7.693394e+02
2.500000e-07	-4.893892e-06	-1.171844e-08	-3.416195e+01	-7.666017e+02
2.600000e-07	-4.846537e-06	-1.165905e-08	-3.383138e+01	-7.638859e+02
2.700000e-07	-4.797172e-06	-1.158706e-08	-3.348680e+01	-7.611802e+02
2.800000e-07	-4.745732e-06	-1.155957e-08	-3.312772e+01	-7.584238e+02
2.900000e-07	-4.692299e-06	-1.153162e-08	-3.275472e+01	-7.555343e+02
3.000000e-07	-4.637138e-06	-1.148833e-08	-3.236967e+01	-7.524424e+02
3.100000e-07	-4.580380e-06	-1.144309e-08	-3.197347e+01	-7.491194e+02
3.200000e-07	-4.521820e-06	-1.139035e-08	-3.156469e+01	-7.455866e+02
3.300000e-07	-4.461531e-06	-1.133196e-08	-3.114385e+01	-7.419033e+02
3.400000e-07	-4.399739e-06	-1.124931e-08	-3.071250e+01	-7.381390e+02
3.500000e-07	-4.336503e-06	-1.118463e-08	-3.027108e+01	-7.343429e+02
3.600000e-07	-4.271781e-06	-1.113180e-08	-2.981929e+01	-7.305224e+02
3.700000e-07	-4.205430e-06	-1.108203e-08	-2.935612e+01	-7.266413e+02
3.800000e-07	-4.137415e-06	-1.103297e-08	-2.888134e+01	-7.226360e+02
3.900000e-07	-4.067890e-06	-1.095666e-08	-2.839602e+01	-7.184439e+02
4.000000e-07	-3.997029e-06	-1.088554e-08	-2.790138e+01	-7.140299e+02
4.100000e-07	-3.924902e-06	-1.081878e-08	-2.739789e+01	-7.094001e+02
4.200000e-07	-3.851387e-06	-1.074323e-08	-2.688471e+01	-7.045978e+02
4.300000e-07	-3.776227e-06	-1.066059e-08	-2.636006e+01	-6.996820e+02
4.400000e-07	-3.699395e-06	-1.058101e-08	-2.582373e+01	-6.946998e+02
4.500000e-07	-3.621046e-06	-1.051459e-08	-2.527681e+01	-6.896644e+02
4.600000e-07	-3.541165e-06	-1.044082e-08	-2.471920e+01	-6.845476e+02
4.700000e-07	-3.459884e-06	-1.035539e-08	-2.415182e+01	-6.792913e+02
4.800000e-07	-3.377442e-06	-1.026256e-08	-2.357633e+01	-6.738312e+02
4.900000e-07	-3.293916e-06	-1.017243e-08	-2.299327e+01	-6.681232e+02
5.000000e-07	-3.209421e-06	-1.008773e-08	-2.240346e+01	-6.621607e+02
5.100000e-07	-3.123964e-06	-9.994703e-09	-2.180692e+01	-6.559744e+02
5.200000e-07	-3.037482e-06	-9.894983e-09	-2.120323e+01	-6.496174e+02
5.300000e-07	-2.950021e-06	-9.793360e-09	-2.059271e+01	-6.431390e+02
5.400000e-07	-2.861637e-06	-9.693102e-09	-1.997574e+01	-6.365627e+02
5.500000e-07	-2.772218e-06	-9.590292e-09	-1.935155e+01	-6.298752e+02
5.600000e-07	-2.681621e-06	-9.480376e-09	-1.871913e+01	-6.230326e+02
5.700000e-07	-2.589938e-06	-9.370518e-09	-1.807914e+01	-6.159799e+02
5.800000e-07	-2.497297e-06	-9.259971e-09	-1.743245e+01	-6.086748e+02
5.900000e-07	-2.403835e-06	-9.149761e-09	-1.678004e+01	-6.011041e+02
6.000000e-07	-2.309635e-06	-9.031971e-09	-1.612247e+01	-5.932858e+02
6.100000e-07	-2.214690e-06	-8.903423e-09	-1.545971e+01	-5.852555e+02
6.200000e-07	-2.119033e-06	-8.771944e-09	-1.479197e+01	-5.770435e+02
6.300000e-07	-2.022599e-06	-8.640187e-09	-1.411881e+01	-5.686542e+02
6.400000e-07	-1.925278e-06	-8.509311e-09	-1.343945e+01	-5.600570e+02
6.500000e-07	-1.827108e-06	-8.373026e-09	-1.275418e+01	-5.511951e+02
6.600000e-07	-1.728240e-06	-8.230916e-09	-1.206403e+01	-5.420069e+02
6.700000e-07	-1.628761e-06	-8.085203e-09	-1.136961e+01	-5.324513e+02
6.800000e-07	-1.528657e-06	-7.936497e-09	-1.067083e+01	-5.225241e+02
6.900000e-07	-1.427984e-06	-7.779249e-09	-9.968083e+00	-5.122568e+02
7.000000e-07	-1.326852e-06	-7.612006e-09	-9.262126e+00	-5.016970e+02
7.100000e-07	-1.225320e-06	-7.443475e-09	-8.553381e+00	-4.908788e+02
7.200000e-07	-1.123429e-06	-7.273357e-09	-7.842126e+00	-4.797957e+02
7.300000e-07	-1.021091e-06	-7.098847e-09	-7.127756e+00	-4.683908e+02
7.400000e-07	-9.183271e-07	-6.919562e-09	-6.410408e+00	-4.565689e+02
7.500000e-07	-8.152705e-07	-6.732314e-09	-5.691019e+00	-4.442283e+02
7.600000e-07	-7.119576e-07	-6.533624e-09	-4.969840e+00	-4.312975e+02
7.700000e-07	-6.084506e-07	-6.324421e-09	-4.247307e+00	-4.177603e+02
7.800000e-07	-5.048421e-07	-6.107903e-09	-3.524064e+00	-4.036565e+02
7.900000e-07	-4.010928e-07	-5.888303e-09	-2.799840e+00	-3.890534e+02
8.000000e-07	-2.971606e-07	-5.664573e-09	-2.074338e+00	-3.740007e+02
8.100000e-07	-1.930962e-07	-5.430926e-09	-1.347913e+00	-3.584856e+02
8.200000e-07	-8.896132e-08	-5.184537e-09	-6.209970e-01	-3.424118e+02
8.300000e-07	1.514896e-08	-4.924112e-09	1.057478e-01	-3.256121e+02
8.400000e-07	1.192272e-07	-4.648225e-09	8.322685e-01	-3.078946e+02
8.500000e-07	2.232504e-07	-4.356998e-09	1.558405e+00	-2.891015e+02
8.600000e-07	3.271609e-07	-4.053814e-09	2.283756e+00	-2.691533e+02
8.700000e-07	4.309754e-07	-3.737940e-09	3.008436e+00	-2.480504e+02
8.800000e-07	5.346492e-07	-3.404992e-09	3.732134e+00	-2.258209e+02
8.900000e-07	6.381943e-07	-3.049873e-09	4.454933e+00	-2.024246e+02
9.000000e-07	7.416043e-07	-2.668408e-09	5.176790e+00	-1.776471e+02
9.100000e-07	8.448161e-07	-2.254486e-09	5.897263e+00	-1.510293e+02
9.200000e-07	9.477690e-07	-1.798220e-09	6.615928e+00	-1.218747e+02
9.300000e-07	1.050348e-06	-1.293503e-09	7.331980e+00	-8.935626e+01
9.400000e-07	1.152531e-06	-7.363201e-10	8.045274e+00	-5.271089e+01
9.500000e-07	1.254279e-06	-1.176607e-10	8.755529e+00	-1.147638e+01
9.600000e-07	1.355607e-06	5.739150e-10	9.462854e+00	3.429477e+01
9.700000e-07	1.456551e-06	1.335076e-09	1.016749e+01	8.391390e+01
9.800000e-07	1.556973e-06	2.140771e-09	1.086849e+01	1.360738e+02
9.900000e-07	1.656872e-06	2.954949e-09	1.156584e+01	1.890146e+02
1.000000e-06	1.756302e-06	3.745629e-09	1.225992e+01	2.408030e+02
1.010000e-06	1.855084e-06	4.485390e-09	1.294946e+01	2.896567e+02
1.020000e-06	1.952993e-06	5.151531e-09	1.363293e+01	3.342316e+02
1.030000e-06	2.049971e-06	5.735390e-09	1.430988e+01	3.737999e+02
1.040000e-06	2.146118e-06	6.245795e-09	1.498104e+01	4.082806e+02
1.050000e-06	2.241561e-06	6.699826e-09	1.564728e+01	4.381286e+02
1.060000e-06	2.336290e-06	7.105005e-09	1.630854e+01	4.641246e+02
1.070000e-06	2.430261e-06	7.458634e-09	1.696451e+01	4.871350e+02
1.080000e-06	2.523489e-06	7.767904e-09	1.761528e+01	5.079103e+02
1.090000e-06	2.615899e-06	8.050277e-09	1.826036e+01	5.269687e+02
1.100000e-06	2.707388e-06	8.316326e-09	1.889900e+01	5.445812e+02
1.110000e-06	2.797827e-06	8.562356e-09	1.953031e+01	5.608376e+02
1.120000e-06	2.887104e-06	8.783708e-09	2.015351e+01	5.757532e+02
1.130000e-06	2.975295e-06	8.986553e-09	2.076913e+01	5.893673e+02
1.140000e-06	3.062464e-06	9.177622e-09	2.137762e+01	6.017987e+02
1.150000e-06	3.148625e-06	9.355750e-09	2.197907e+01	6.132449e+02
1.160000e-06	3.233805e-06	9.518157e-09	2.257367e+01	6.239369e+02
1.170000e-06	3.317982e-06	9.668138e-09	2.316127e+01	6.340762e+02
1.180000e-06	3.401106e-06	9.814772e-09	2.374151e+01	6.437845e+02
1.190000e-06	3.482986e-06	9.959606e-09	2.431308e+01	6.530878e+02
1.200000e-06	3.563530e-06	1.009418e-08	2.487532e+01	6.619381e+02
1.210000e-06	3.642707e-06	1.021628e-08	2.542802e+01	6.702621e+02
1.220000e-06	3.720537e-06	1.033203e-08	2.597131e+01	6.780122e+02
1.230000e-06	3.797056e-06	1.044469e-08	2.650546e+01	6.852006e+02
1.240000e-06	3.872057e-06	1.054921e-08	2.702900e+01	6.919023e+02
1.250000e-06	3.945412e-06	1.064339e-08	2.754106e+01	6.982305e+02
1.260000e-06	4.017330e-06	1.073124e-08	2.804309e+01	7.042963e+02
1.270000e-06	4.087933e-06	1.081999e-08	2.853593e+01	7.101732e+02
1.280000e-06	4.157207e-06	1.090865e-08	2.901950e+01	7.158801e+02
1.290000e-06	4.225077e-06	1.099027e-08	2.949327e+01	7.213892e+02
1.300000e-06	4.291286e-06	1.106643e-08	2.995545e+01	7.266535e+02
1.310000e-06	4.355841e-06	1.114041e-08	3.040607e+01	7.316390e+02
1.320000e-06	4.418902e-06	1.121100e-08	3.084627e+01	7.363469e+02
1.330000e-06	4.480533e-06	1.127692e-08	3.127649e+01	7.408164e+02
1.340000e-06	4.540761e-06	1.133911e-08	3.169691e+01	7.451078e+02
1.350000e-06	4.599318e-06	1.140208e-08	3.210567e+01	7.492740e+02
1.360000e-06	4.656073e-06	1.146649e-08	3.250185e+01	7.533363e+02
1.370000e-06	4.711150e-06	1.152757e-08	3.288631e+01	7.572737e+02
1.380000e-06	4.764546e-06	1.158207e-08	3.325904e+01	7.610340e+02
1.390000e-06	4.816056e-06	1.163096e-08	3.361861e+01	7.645585e+02
1.400000e-06	4.865510e-06	1.167822e-08	3.396383e+01	7.678114e+02
1.410000e-06	4.913124e-06	1.172520e-08	3.429620e+01	7.707990e+02
1.420000e-06	4.959103e-06	1.176987e-08	3.461716e+01	7.735710e+02
1.430000e-06	5.003456e-06	1.180880e-08	3.492676e+01	7.762007e+02
1.440000e-06	5.045925e-06	1.184433e-08	3.522322e+01	7.787553e+02
1.450000e-06	5.086521e-06	1.188225e-08	3.550660e+01	7.812674e+02
1.460000e-06	5.125423e-06	1.192097e-08	3.577816e+01	7.837212e+02
1.470000e-06	5.162656e-06	1.195580e-08	3.603807e+01	7.860598e+02
1.480000e-06	5.198118e-06	1.198669e-08	3.628561e+01	7.882100e+02
1.490000e-06	5.231581e-06	1.201610e-08	3.651920e+01	7.901156e+02
1.500000e-06	5.263155e-06	1.204325e-08	3.673960e+01	7.917629e+02
1.510000e-06	5.293033e-06	1.206489e-08	3.694817e+01	7.931889e+02
1.520000e-06	5.321209e-06	1.208076e-08	3.714485e+01	7.944673e+02
1.530000e-06	5.347354e-06	1.209615e-08	3.732735e+01	7.956795e+02
1.540000e-06	5.371415e-06	1.211381e-08	3.749532e+01	7.968812e+02
1.550000e-06	5.393671e-06	1.213221e-08	3.765067e+01	7.980802e+02
1.560000e-06	5.414232e-06	1.215048e-08	3.779420e+01	7.992347e+02
1.570000e-06	5.432962e-06	1.216842e-08	3.792495e+01	8.002713e+02
1.580000e-06	5.449616e-06	1.218527e-08	3.804120e+01	8.011176e+02
1.590000e-06	5.464218e-06	1.219542e-08	3.814313e+01	8.017334e+02
1.600000e-06	5.476770e-06	1.219717e-08	3.823075e+01	8.021275e+02
1.610000e-06	5.487090e-06	1.219675e-08	3.830278e+01	8.023551e+02
1.620000e-06	5.495330e-06	1.220009e-08	3.836031e+01	8.024941e+02
1.630000e-06	5.501734e-06	1.220678e-08	3.840501e+01	8.026137e+02
1.640000e-06	5.506348e-06	1.221211e-08	3.843722e+01	8.027457e+02
1.650000e-06	5.508988e-06	1.221547e-08	3.845564e+01	8.028740e+02
1.660000e-06	5.509612e-06	1.221957e-08	3.846000e+01	8.029426e+02
1.670000e-06	5.508445e-06	1.222178e-08	3.845185e+01	8.028821e+02
1.680000e-06	5.505607e-06	1.221722e-08	3.843205e+01	8.026397e+02
1.690000e-06	5.500963e-06	1.220371e-08	3.839963e+01	8.022022e+02
1.700000e-06	5.494358e-06	1.218830e-08	3.835352e+01	8.015997e+02
1.710000e-06	5.486026e-06	1.217885e-08	3.829536e+01	8.008919e+02
1.720000e-06	5.476106e-06	1.217420e-08	3.822611e+01	8.001395e+02
1.730000e-06	5.464286e-06	1.217404e-08	3.814360e+01	7.993777e+02
1.740000e-06	5.450360e-06	1.215866e-08	3.804639e+01	7.986002e+02
1.750000e-06	5.434413e-06	1.211422e-08	3.793507e+01	7.977637e+02
1.760000e-06	5.416052e-06	1.208931e-08	3.780690e+01	7.968086e+02
1.770000e-06	5.394912e-06	1.207928e-08	3.765934e+01	7.956890e+02
1.780000e-06	5.371531e-06	1.208612e-08	3.749612e+01	7.943963e+02
1.790000e-06	5.346906e-06	1.210507e-08	3.732423e+01	7.929674e+02
1.800000e-06	5.321525e-06	1.203128e-08	3.714706e+01	7.914709e+02
1.810000e-06	5.294553e-06	1.200212e-08	3.695878e+01	7.899787e+02
1.820000e-06	5.265179e-06	1.202396e-08	3.675373e+01	7.885332e+02
1.830000e-06	5.234080e-06	1.194741e-08	3.653664e+01	7.871244e+02
1.840000e-06	5.201353e-06	1.194809e-08	3.630819e+01	7.856887e+02
1.850000e-06	5.166751e-06	1.197108e-08	3.606665e+01	7.841282e+02
1.860000e-06	5.130525e-06	1.189634e-08	3.581377e+01	7.823465e+02
1.870000e-06	5.092245e-06	1.189232e-08	3.554656e+01	7.802838e+02
1.880000e-06	5.052059e-06	1.186505e-08	3.526604e+01	7.779394e+02
1.890000e-06	5.010358e-06	1.177789e-08	3.497494e+01	7.753711e+02
1.900000e-06	4.966853e-06	1.175485e-08	3.467126e+01	7.726718e+02
1.910000e-06	4.921596e-06	1.171807e-08	3.435534e+01	7.699335e+02
1.920000e-06	4.874469e-06	1.170962e-08	3.402637e+01	7.672122e+02
1.930000e-06	4.825433e-06	1.168555e-08	3.368407e+01	7.645082e+02
1.940000e-06	4.774772e-06	1.160612e-08	3.333043e+01	7.617694e+02
1.950000e-06	4.722042e-06	1.156117e-08	3.296234e+01	7.589153e+02
1.960000e-06	4.667303e-06	1.150186e-08	3.258024e+01	7.558709e+02
1.970000e-06	4.610889e-06	1.145633e-08	3.218644e+01	7.525974e+02
1.980000e-06	4.552792e-06	1.140722e-08	3.178089e+01	7.491056e+02
1.990000e-06	4.493257e-06	1.136282e-08	3.136531e+01	7.454487e+02
2.000000e-06	4.432069e-06	1.133662e-08	3.093819e+01	7.416966e+02
2.010000e-06	4.369203e-06	1.125968e-08	3.049934e+01	7.379051e+02
2.020000e-06	4.304797e-06	1.119880e-08	3.004976e+01	7.340916e+02
2.030000e-06	4.238886e-06	1.112340e-08	2.958966e+01	7.302284e+02
2.040000e-06	4.171599e-06	1.105202e-08	2.911997e+01	7.262556e+02
2.050000e-06	4.102594e-06	1.100646e-08	2.863827e+01	7.221078e+02
2.060000e-06	4.031901e-06	1.093764e-08	2.814480e+01	7.177423e+02
2.070000e-06	3.959838e-06	1.088434e-08	2.764176e+01	7.131563e+02
2.080000e-06	3.886476e-06	1.080850e-08	2.712965e+01	7.083862e+02
2.090000e-06	3.811686e-06	1.073516e-08	2.660758e+01	7.034900e+02
2.100000e-06	3.735199e-06	1.065656e-08	2.607366e+01	6.985196e+02
2.110000e-06	3.657125e-06	1.056856e-08	2.552866e+01	6.934967e+02
2.120000e-06	3.577712e-06	1.049586e-08	2.497432e+01	6.884015e+02
2.130000e-06	3.497109e-06	1.041047e-08	2.441167e+01	6.831808e+02
2.140000e-06	3.415352e-06	1.034283e-08	2.384096e+01	6.777692e+02
2.150000e-06	3.332516e-06	1.025697e-08	2.326272e+01	6.721165e+02
2.160000e-06	3.248474e-06	1.016590e-08	2.267607e+01	6.662071e+02
2.170000e-06	3.163036e-06	1.007511e-08	2.207966e+01	6.600648e+02
2.180000e-06	3.076402e-06	9.975485e-09	2.147491e+01	6.537397e+02
2.190000e-06	2.988727e-06	9.882336e-09	2.086289e+01	6.472843e+02
2.200000e-06	2.900100e-06	9.774421e-09	2.024423e+01	6.407289e+02
2.210000e-06	2.810524e-06	9.678196e-09	1.961894e+01	6.340682e+02
2.220000e-06	2.720050e-06	9.575805e-09	1.898739e+01	6.272636e+02
2.230000e-06	2.628707e-06	9.469100e-09	1.834976e+01	6.202603e+02
2.240000e-06	2.536380e-06	9.360627e-09	1.770527e+01	6.130116e+02
2.250000e-06	2.443042e-06	9.242364e-09	1.705373e+01	6.054973e+02
2.260000e-06	2.348768e-06	9.131539e-09	1.639564e+01	5.977294e+02
2.270000e-06	2.253622e-06	9.015040e-09	1.573147e+01	5.897416e+02
2.280000e-06	2.157680e-06	8.896468e-09	1.506175e+01	5.815671e+02
2.290000e-06	2.061082e-06	8.769532e-09	1.438744e+01	5.732172e+02
2.300000e-06	1.963766e-06	8.635246e-09	1.370812e+01	5.646688e+02
2.310000e-06	1.865773e-06	8.501384e-09	1.302408e+01	5.558691e+02
2.320000e-06	1.767312e-06	8.362602e-09	1.233677e+01	5.467555e+02
2.330000e-06	1.668390e-06	8.220700e-09	1.164625e+01	5.372804e+02
2.340000e-06	1.568901e-06	8.073126e-09	1.095176e+01	5.274313e+02
2.350000e-06	1.468837e-06	7.922664e-09	1.025326e+01	5.172330e+02
2.360000e-06	1.368117e-06	7.769320e-09	9.550176e+00	5.067322e+02
2.370000e-06	1.266723e-06	7.606372e-09	8.842398e+00	4.959683e+02
2.380000e-06	1.164844e-06	7.434441e-09	8.131228e+00	4.849452e+02
2.390000e-06	1.062574e-06	7.257654e-09	7.417325e+00	4.736164e+02
2.400000e-06	9.599016e-07	7.078520e-09	6.700620e+00	4.618928e+02
2.410000e-06	8.568113e-07	6.894353e-09	5.980995e+00	4.496710e+02
2.420000e-06	7.533616e-07	6.700650e-09	5.258862e+00	4.368702e+02
2.430000e-06	6.496247e-07	6.498209e-09	4.534724e+00	4.234614e+02
2.440000e-06	5.456639e-07	6.287822e-09	3.809022e+00	4.094737e+02
2.450000e-06	4.415684e-07	6.068929e-09	3.082381e+00	3.949722e+02
2.460000e-06	3.373374e-07	5.838705e-09	2.354793e+00	3.800142e+02
2.470000e-06	2.329896e-07	5.596772e-09	1.626391e+00	3.646036e+02
2.480000e-06	1.286076e-07	5.349568e-09	8.977492e-01	3.486617e+02
2.490000e-06	2.422808e-08	5.096250e-09	1.691248e-01	3.320339e+02
2.500000e-06	-8.018333e-08	4.830617e-09	-5.597220e-01	3.145284e+02
2.510000e-06	-1.845744e-07	4.550268e-09	-1.288427e+00	2.959756e+02
2.520000e-06	-2.888640e-07	4.253529e-09	-2.016423e+00	2.762773e+02
2.530000e-06	-3.930337e-07	3.940663e-09	-2.743583e+00	2.554193e+02
2.540000e-06	-4.970717e-07	3.607574e-09	-3.469823e+00	2.334307e+02
2.550000e-06	-6.009675e-07	3.251497e-09	-4.195071e+00	2.102951e+02
2.560000e-06	-7.046398e-07	2.874091e-09	-4.918758e+00	1.858435e+02
2.570000e-06	-8.080418e-07	2.472649e-09	-5.640558e+00	1.596715e+02
2.580000e-06	-9.111152e-07	2.038543e-09	-6.360065e+00	1.311282e+02
2.590000e-06	-1.013780e-06	1.557810e-09	-7.076718e+00	9.940064e+01
2.600000e-06	-1.116003e-06	1.017672e-09	-7.790292e+00	6.369250e+01
2.610000e-06	-1.217779e-06	4.120341e-10	-8.500738e+00	2.345723e+01
2.620000e-06	-1.319024e-06	-2.607605e-10	-9.207486e+00	-2.137723e+01
2.630000e-06	-1.419719e-06	-9.998323e-10	-9.910389e+00	-7.026226e+01
2.640000e-06	-1.519882e-06	-1.794732e-09	-1.060958e+01	-1.220141e+02
2.650000e-06	-1.619436e-06	-2.615531e-09	-1.130452e+01	-1.749492e+02
2.660000e-06	-1.718406e-06	-3.421651e-09	-1.199538e+01	-2.271444e+02
2.670000e-06	-1.816852e-06	-4.180588e-09	-1.268259e+01	-2.767586e+02
2.680000e-06	-1.914711e-06	-4.875717e-09	-1.336569e+01	-3.223342e+02
2.690000e-06	-2.011902e-06	-5.497582e-09	-1.404414e+01	-3.630032e+02
2.700000e-06	-2.108406e-06	-6.041776e-09	-1.471778e+01	-3.985513e+02
2.710000e-06	-2.204291e-06	-6.515291e-09	-1.538711e+01	-4.293337e+02
2.720000e-06	-2.299531e-06	-6.931759e-09	-1.605194e+01	-4.560814e+02
2.730000e-06	-2.394040e-06	-7.304981e-09	-1.671166e+01	-4.796619e+02
2.740000e-06	-2.487617e-06	-7.639062e-09	-1.736488e+01	-5.008637e+02
2.750000e-06	-2.580075e-06	-7.936771e-09	-1.801029e+01	-5.202593e+02
2.760000e-06	-2.671485e-06	-8.206822e-09	-1.864838e+01	-5.381693e+02
2.770000e-06	-2.761969e-06	-8.455415e-09	-1.928000e+01	-5.547140e+02
2.780000e-06	-2.851448e-06	-8.686593e-09	-1.990461e+01	-5.699156e+02
2.790000e-06	-2.939885e-06	-8.900382e-09	-2.052195e+01	-5.838017e+02
2.800000e-06	-3.027405e-06	-9.095840e-09	-2.113289e+01	-5.964720e+02
2.810000e-06	-3.113986e-06	-9.279537e-09	-2.173727e+01	-6.081099e+02
2.820000e-06	-3.199362e-06	-9.454612e-09	-2.233324e+01	-6.189446e+02
2.830000e-06	-3.283362e-06	-9.615194e-09	-2.291960e+01	-6.291888e+02
2.840000e-06	-3.366197e-06	-9.760804e-09	-2.349784e+01	-6.389840e+02
2.850000e-06	-3.447946e-06	-9.898748e-09	-2.406848e+01	-6.483761e+02
2.860000e-06	-3.528586e-06	-1.003369e-08	-2.463139e+01	-6.573295e+02
2.870000e-06	-3.608100e-06	-1.016015e-08	-2.518644e+01	-6.657718e+02
2.880000e-06	-3.686278e-06	-1.027727e-08	-2.573216e+01	-6.736461e+02
2.890000e-06	-3.762867e-06	-1.039032e-08	-2.626680e+01	-6.809504e+02
2.900000e-06	-3.837847e-06	-1.050086e-08	-2.679020e+01	-6.877476e+02
2.910000e-06	-3.911415e-06	-1.060540e-08	-2.730374e+01	-6.941456e+02
2.920000e-06	-3.983680e-06	-1.070029e-08	-2.780819e+01	-7.002597e+02
2.930000e-06	-4.054615e-06	-1.078873e-08	-2.830336e+01	-7.061735e+02
2.940000e-06	-4.124054e-06	-1.087546e-08	-2.878807e+01	-7.119178e+02
