# Temperatura_=_31.67
# Concentracion g/m^3_=_13400.0
# C_Vs_to_Am_M_A/Vsm_=_65563218390.804596
# pendiente_HvsI_1/m_=_3716.3
# ordenada_HvsI_A/m_=_1297.0
# frecuencia_Hz_=_300814.5168317014

Tiempo_(s)	Campo_(V.s)	Magnetizacion_(V.s)	Campo_(kA/m)	Magnetizacion_(A/m)
0.000000e+00	-5.503371e-06	-1.209895e-08	-3.830699e+01	-7.918862e+02
1.000000e-08	-5.502114e-06	-1.209969e-08	-3.829825e+01	-7.917773e+02
2.000000e-08	-5.498889e-06	-1.209800e-08	-3.827579e+01	-7.915283e+02
3.000000e-08	-5.493802e-06	-1.209288e-08	-3.824039e+01	-7.911390e+02
4.000000e-08	-5.487060e-06	-1.208690e-08	-3.819346e+01	-7.906306e+02
5.000000e-08	-5.478692e-06	-1.207775e-08	-3.813521e+01	-7.900348e+02
6.000000e-08	-5.468424e-06	-1.206150e-08	-3.806374e+01	-7.893774e+02
7.000000e-08	-5.456053e-06	-1.204165e-08	-3.797763e+01	-7.886649e+02
8.000000e-08	-5.441682e-06	-1.202812e-08	-3.787760e+01	-7.878809e+02
9.000000e-08	-5.425021e-06	-1.204018e-08	-3.776163e+01	-7.869935e+02
1.000000e-07	-5.406034e-06	-1.204318e-08	-3.762946e+01	-7.859721e+02
1.100000e-07	-5.385070e-06	-1.201454e-08	-3.748355e+01	-7.848044e+02
1.200000e-07	-5.362191e-06	-1.198484e-08	-3.732429e+01	-7.835068e+02
1.300000e-07	-5.337725e-06	-1.193565e-08	-3.715399e+01	-7.821213e+02
1.400000e-07	-5.311839e-06	-1.190160e-08	-3.697381e+01	-7.807002e+02
1.500000e-07	-5.284187e-06	-1.192007e-08	-3.678133e+01	-7.792837e+02
1.600000e-07	-5.254793e-06	-1.187349e-08	-3.657673e+01	-7.778800e+02
1.700000e-07	-5.223838e-06	-1.184412e-08	-3.636126e+01	-7.764572e+02
1.800000e-07	-5.190983e-06	-1.187495e-08	-3.613257e+01	-7.749507e+02
1.900000e-07	-5.156053e-06	-1.182049e-08	-3.588944e+01	-7.732852e+02
2.000000e-07	-5.119509e-06	-1.178674e-08	-3.563507e+01	-7.714015e+02
2.100000e-07	-5.081354e-06	-1.176113e-08	-3.536948e+01	-7.692790e+02
2.200000e-07	-5.041351e-06	-1.168347e-08	-3.509104e+01	-7.669434e+02
2.300000e-07	-4.999461e-06	-1.167420e-08	-3.479946e+01	-7.644560e+02
2.400000e-07	-4.955557e-06	-1.166440e-08	-3.449385e+01	-7.618898e+02
2.500000e-07	-4.909823e-06	-1.160674e-08	-3.417551e+01	-7.593001e+02
2.600000e-07	-4.862342e-06	-1.156872e-08	-3.384502e+01	-7.567034e+02
2.700000e-07	-4.812876e-06	-1.151399e-08	-3.350071e+01	-7.540714e+02
2.800000e-07	-4.761326e-06	-1.145845e-08	-3.314188e+01	-7.513438e+02
2.900000e-07	-4.707844e-06	-1.142159e-08	-3.276961e+01	-7.484536e+02
3.000000e-07	-4.652678e-06	-1.138149e-08	-3.238563e+01	-7.453554e+02
3.100000e-07	-4.595859e-06	-1.132763e-08	-3.199013e+01	-7.420433e+02
3.200000e-07	-4.537209e-06	-1.128535e-08	-3.158188e+01	-7.385529e+02
3.300000e-07	-4.476841e-06	-1.124685e-08	-3.116169e+01	-7.349452e+02
3.400000e-07	-4.414954e-06	-1.116376e-08	-3.073091e+01	-7.312800e+02
3.500000e-07	-4.351623e-06	-1.109234e-08	-3.029009e+01	-7.275907e+02
3.600000e-07	-4.286787e-06	-1.103804e-08	-2.983879e+01	-7.238698e+02
3.700000e-07	-4.220300e-06	-1.097701e-08	-2.937599e+01	-7.200729e+02
3.800000e-07	-4.152203e-06	-1.092769e-08	-2.890200e+01	-7.161378e+02
3.900000e-07	-4.082573e-06	-1.086788e-08	-2.841732e+01	-7.120114e+02
4.000000e-07	-4.011607e-06	-1.080233e-08	-2.792336e+01	-7.076722e+02
4.100000e-07	-3.939381e-06	-1.073608e-08	-2.742062e+01	-7.031389e+02
4.200000e-07	-3.865727e-06	-1.065951e-08	-2.690794e+01	-6.984610e+02
4.300000e-07	-3.790370e-06	-1.057389e-08	-2.638341e+01	-6.936954e+02
4.400000e-07	-3.713340e-06	-1.049320e-08	-2.584723e+01	-6.888795e+02
4.500000e-07	-3.634855e-06	-1.042772e-08	-2.530092e+01	-6.840126e+02
4.600000e-07	-3.554926e-06	-1.035954e-08	-2.474456e+01	-6.790527e+02
4.700000e-07	-3.473572e-06	-1.028383e-08	-2.417829e+01	-6.739320e+02
4.800000e-07	-3.390957e-06	-1.019971e-08	-2.360324e+01	-6.685837e+02
4.900000e-07	-3.307225e-06	-1.010935e-08	-2.302041e+01	-6.629688e+02
5.000000e-07	-3.222512e-06	-1.001817e-08	-2.243075e+01	-6.570913e+02
5.100000e-07	-3.136876e-06	-9.919920e-09	-2.183467e+01	-6.509963e+02
5.200000e-07	-3.050228e-06	-9.821704e-09	-2.123154e+01	-6.447497e+02
5.300000e-07	-2.962600e-06	-9.727980e-09	-2.062160e+01	-6.384100e+02
5.400000e-07	-2.873998e-06	-9.631850e-09	-2.000487e+01	-6.320031e+02
5.500000e-07	-2.784382e-06	-9.530493e-09	-1.938108e+01	-6.255102e+02
5.600000e-07	-2.693660e-06	-9.425954e-09	-1.874960e+01	-6.188757e+02
5.700000e-07	-2.601781e-06	-9.320461e-09	-1.811006e+01	-6.120289e+02
5.800000e-07	-2.508964e-06	-9.211059e-09	-1.746400e+01	-6.049120e+02
5.900000e-07	-2.415364e-06	-9.096996e-09	-1.681248e+01	-5.975008e+02
6.000000e-07	-2.320994e-06	-8.977682e-09	-1.615560e+01	-5.898100e+02
6.100000e-07	-2.225861e-06	-8.856491e-09	-1.549342e+01	-5.818807e+02
6.200000e-07	-2.129893e-06	-8.731955e-09	-1.482542e+01	-5.737563e+02
6.300000e-07	-2.033117e-06	-8.601772e-09	-1.415180e+01	-5.654576e+02
6.400000e-07	-1.935589e-06	-8.469576e-09	-1.347294e+01	-5.569690e+02
6.500000e-07	-1.837303e-06	-8.334648e-09	-1.278881e+01	-5.482422e+02
6.600000e-07	-1.738218e-06	-8.195670e-09	-1.209911e+01	-5.392151e+02
6.700000e-07	-1.638368e-06	-8.050923e-09	-1.140409e+01	-5.298378e+02
6.800000e-07	-1.537914e-06	-7.903127e-09	-1.070487e+01	-5.200932e+02
6.900000e-07	-1.436999e-06	-7.749813e-09	-1.000243e+01	-5.100006e+02
7.000000e-07	-1.335673e-06	-7.589369e-09	-9.297142e+00	-4.996020e+02
7.100000e-07	-1.233884e-06	-7.423290e-09	-8.588622e+00	-4.889342e+02
7.200000e-07	-1.131668e-06	-7.251134e-09	-7.877133e+00	-4.780011e+02
7.300000e-07	-1.029118e-06	-7.077708e-09	-7.163324e+00	-4.667581e+02
7.400000e-07	-9.262736e-07	-6.903574e-09	-6.447458e+00	-4.551189e+02
7.500000e-07	-8.230801e-07	-6.721797e-09	-5.729165e+00	-4.429815e+02
7.600000e-07	-7.195123e-07	-6.525476e-09	-5.008267e+00	-4.302647e+02
7.700000e-07	-6.156876e-07	-6.318749e-09	-4.285581e+00	-4.169365e+02
7.800000e-07	-5.116657e-07	-6.106353e-09	-3.561522e+00	-4.030223e+02
7.900000e-07	-4.074204e-07	-5.888536e-09	-2.835907e+00	-3.885852e+02
8.000000e-07	-3.030138e-07	-5.663705e-09	-2.109170e+00	-3.736848e+02
8.100000e-07	-1.985294e-07	-5.429086e-09	-1.381892e+00	-3.583326e+02
8.200000e-07	-9.396115e-08	-5.185704e-09	-6.540299e-01	-3.424629e+02
8.300000e-07	1.064151e-08	-4.932039e-09	7.407173e-02	-3.259348e+02
8.400000e-07	1.151897e-07	-4.664317e-09	8.017939e-01	-3.085680e+02
8.500000e-07	2.196761e-07	-4.381536e-09	1.529087e+00	-2.901979e+02
8.600000e-07	3.240682e-07	-4.086713e-09	2.255723e+00	-2.707250e+02
8.700000e-07	4.282924e-07	-3.778100e-09	2.981190e+00	-2.501311e+02
8.800000e-07	5.323832e-07	-3.451757e-09	3.705728e+00	-2.284459e+02
8.900000e-07	6.363398e-07	-3.103050e-09	4.429333e+00	-2.056670e+02
9.000000e-07	7.400500e-07	-2.732107e-09	5.151223e+00	-1.816584e+02
9.100000e-07	8.434498e-07	-2.338093e-09	5.870952e+00	-1.560675e+02
9.200000e-07	9.465560e-07	-1.909524e-09	6.588637e+00	-1.283044e+02
9.300000e-07	1.049380e-06	-1.434097e-09	7.304357e+00	-9.761006e+01
9.400000e-07	1.151834e-06	-9.064868e-10	8.017505e+00	-6.321390e+01
9.500000e-07	1.253882e-06	-3.227853e-10	8.727826e+00	-2.454929e+01
9.600000e-07	1.355508e-06	3.272383e-10	9.435208e+00	1.853075e+01
9.700000e-07	1.456680e-06	1.046298e-09	1.013943e+01	6.560229e+01
9.800000e-07	1.557447e-06	1.817679e-09	1.084083e+01	1.156367e+02
9.900000e-07	1.657734e-06	2.610541e-09	1.153889e+01	1.671064e+02
1.000000e-06	1.757381e-06	3.393828e-09	1.223250e+01	2.182118e+02
1.010000e-06	1.856286e-06	4.138825e-09	1.292094e+01	2.671770e+02
1.020000e-06	1.954407e-06	4.820570e-09	1.360393e+01	3.125392e+02
1.030000e-06	2.051769e-06	5.426394e-09	1.428163e+01	3.533601e+02
1.040000e-06	2.148326e-06	5.958757e-09	1.495373e+01	3.893109e+02
1.050000e-06	2.244067e-06	6.430454e-09	1.562015e+01	4.206187e+02
1.060000e-06	2.339110e-06	6.850077e-09	1.628170e+01	4.479034e+02
1.070000e-06	2.433382e-06	7.220523e-09	1.693790e+01	4.719593e+02
1.080000e-06	2.526852e-06	7.548692e-09	1.758851e+01	4.935472e+02
1.090000e-06	2.619575e-06	7.846684e-09	1.823392e+01	5.132501e+02
1.100000e-06	2.711342e-06	8.121393e-09	1.887268e+01	5.314190e+02
1.110000e-06	2.801951e-06	8.372095e-09	1.950338e+01	5.482052e+02
1.120000e-06	2.891486e-06	8.598864e-09	2.012660e+01	5.636468e+02
1.130000e-06	2.979997e-06	8.806624e-09	2.074269e+01	5.777673e+02
1.140000e-06	3.067458e-06	9.001762e-09	2.135148e+01	5.906475e+02
1.150000e-06	3.153914e-06	9.186380e-09	2.195326e+01	6.024494e+02
1.160000e-06	3.239339e-06	9.357101e-09	2.254788e+01	6.133911e+02
1.170000e-06	3.323726e-06	9.512941e-09	2.313527e+01	6.236926e+02
1.180000e-06	3.406979e-06	9.661270e-09	2.371476e+01	6.335200e+02
1.190000e-06	3.489026e-06	9.805784e-09	2.428586e+01	6.429519e+02
1.200000e-06	3.569832e-06	9.941783e-09	2.484832e+01	6.519803e+02
1.210000e-06	3.649299e-06	1.006703e-08	2.540146e+01	6.605432e+02
1.220000e-06	3.727468e-06	1.018609e-08	2.594557e+01	6.685723e+02
1.230000e-06	3.804313e-06	1.030187e-08	2.648046e+01	6.760356e+02
1.240000e-06	3.879651e-06	1.041103e-08	2.700486e+01	6.829595e+02
1.250000e-06	3.953403e-06	1.051087e-08	2.751822e+01	6.894232e+02
1.260000e-06	4.025664e-06	1.060098e-08	2.802121e+01	6.955319e+02
1.270000e-06	4.096533e-06	1.068621e-08	2.851450e+01	7.013826e+02
1.280000e-06	4.166037e-06	1.076968e-08	2.899829e+01	7.070364e+02
1.290000e-06	4.234128e-06	1.085031e-08	2.947225e+01	7.125097e+02
1.300000e-06	4.300628e-06	1.092787e-08	2.993513e+01	7.177839e+02
1.310000e-06	4.365448e-06	1.100288e-08	3.038632e+01	7.228280e+02
1.320000e-06	4.428742e-06	1.107684e-08	3.082688e+01	7.276220e+02
1.330000e-06	4.490635e-06	1.114716e-08	3.125770e+01	7.321709e+02
1.340000e-06	4.551110e-06	1.121198e-08	3.167865e+01	7.365040e+02
1.350000e-06	4.609972e-06	1.127189e-08	3.208837e+01	7.406613e+02
1.360000e-06	4.667038e-06	1.133047e-08	3.248558e+01	7.446746e+02
1.370000e-06	4.722400e-06	1.139007e-08	3.287093e+01	7.485534e+02
1.380000e-06	4.776085e-06	1.144701e-08	3.324461e+01	7.522820e+02
1.390000e-06	4.827808e-06	1.149827e-08	3.360464e+01	7.558286e+02
1.400000e-06	4.877437e-06	1.154473e-08	3.395009e+01	7.591619e+02
1.410000e-06	4.925239e-06	1.159116e-08	3.428282e+01	7.622682e+02
1.420000e-06	4.971397e-06	1.163936e-08	3.460411e+01	7.651582e+02
1.430000e-06	5.015941e-06	1.168155e-08	3.491416e+01	7.678642e+02
1.440000e-06	5.058668e-06	1.171643e-08	3.521158e+01	7.704254e+02
1.450000e-06	5.099440e-06	1.175127e-08	3.549538e+01	7.728715e+02
1.460000e-06	5.138476e-06	1.178752e-08	3.576709e+01	7.752101e+02
1.470000e-06	5.175866e-06	1.182041e-08	3.602735e+01	7.774249e+02
1.480000e-06	5.211469e-06	1.184767e-08	3.627517e+01	7.794856e+02
1.490000e-06	5.245147e-06	1.187391e-08	3.650959e+01	7.813639e+02
1.500000e-06	5.276933e-06	1.190174e-08	3.673084e+01	7.830494e+02
1.510000e-06	5.306967e-06	1.192726e-08	3.693990e+01	7.845574e+02
1.520000e-06	5.335316e-06	1.194739e-08	3.713723e+01	7.859246e+02
1.530000e-06	5.361666e-06	1.196587e-08	3.732063e+01	7.871951e+02
1.540000e-06	5.385878e-06	1.198558e-08	3.748917e+01	7.884026e+02
1.550000e-06	5.408248e-06	1.200292e-08	3.764488e+01	7.895564e+02
1.560000e-06	5.428918e-06	1.201511e-08	3.778876e+01	7.906382e+02
1.570000e-06	5.447698e-06	1.202442e-08	3.791947e+01	7.916106e+02
1.580000e-06	5.464452e-06	1.203692e-08	3.803609e+01	7.924343e+02
1.590000e-06	5.479256e-06	1.205111e-08	3.813914e+01	7.930857e+02
1.600000e-06	5.492026e-06	1.206075e-08	3.822802e+01	7.935679e+02
1.610000e-06	5.502495e-06	1.206583e-08	3.830090e+01	7.939097e+02
1.620000e-06	5.510807e-06	1.207111e-08	3.835876e+01	7.941543e+02
1.630000e-06	5.517291e-06	1.207933e-08	3.840389e+01	7.943408e+02
1.640000e-06	5.522012e-06	1.208452e-08	3.843675e+01	7.944888e+02
1.650000e-06	5.524717e-06	1.208222e-08	3.845558e+01	7.945915e+02
1.660000e-06	5.525353e-06	1.207942e-08	3.846000e+01	7.946203e+02
1.670000e-06	5.524231e-06	1.208112e-08	3.845219e+01	7.945390e+02
1.680000e-06	5.521439e-06	1.208263e-08	3.843276e+01	7.943208e+02
1.690000e-06	5.516796e-06	1.207650e-08	3.840044e+01	7.939604e+02
1.700000e-06	5.510201e-06	1.206517e-08	3.835454e+01	7.934749e+02
1.710000e-06	5.501915e-06	1.205769e-08	3.829686e+01	7.928952e+02
1.720000e-06	5.492016e-06	1.205370e-08	3.822796e+01	7.922496e+02
1.730000e-06	5.480244e-06	1.205044e-08	3.814601e+01	7.915495e+02
1.740000e-06	5.466381e-06	1.203551e-08	3.804952e+01	7.907831e+02
1.750000e-06	5.450473e-06	1.199182e-08	3.793879e+01	7.899207e+02
1.760000e-06	5.432178e-06	1.196835e-08	3.781145e+01	7.889298e+02
1.770000e-06	5.411057e-06	1.196292e-08	3.766443e+01	7.877931e+02
1.780000e-06	5.387659e-06	1.196413e-08	3.750156e+01	7.865204e+02
1.790000e-06	5.362999e-06	1.198658e-08	3.732991e+01	7.851493e+02
1.800000e-06	5.337594e-06	1.192326e-08	3.715308e+01	7.837316e+02
1.810000e-06	5.310659e-06	1.188500e-08	3.696559e+01	7.823121e+02
1.820000e-06	5.281370e-06	1.191994e-08	3.676173e+01	7.809069e+02
1.830000e-06	5.250307e-06	1.185683e-08	3.654551e+01	7.794927e+02
1.840000e-06	5.217588e-06	1.184079e-08	3.631776e+01	7.780105e+02
1.850000e-06	5.182960e-06	1.184880e-08	3.607673e+01	7.763850e+02
1.860000e-06	5.146681e-06	1.177549e-08	3.582420e+01	7.745512e+02
1.870000e-06	5.108416e-06	1.178908e-08	3.555785e+01	7.724793e+02
1.880000e-06	5.068191e-06	1.174995e-08	3.527786e+01	7.701850e+02
1.890000e-06	5.026405e-06	1.166266e-08	3.498700e+01	7.677239e+02
1.900000e-06	4.982782e-06	1.166638e-08	3.468336e+01	7.651688e+02
1.910000e-06	4.937354e-06	1.159645e-08	3.436715e+01	7.625812e+02
1.920000e-06	4.890128e-06	1.157370e-08	3.403843e+01	7.599869e+02
1.930000e-06	4.841067e-06	1.157869e-08	3.369693e+01	7.573667e+02
1.940000e-06	4.790316e-06	1.148690e-08	3.334367e+01	7.546654e+02
1.950000e-06	4.737492e-06	1.145601e-08	3.297598e+01	7.518149e+02
1.960000e-06	4.682720e-06	1.141495e-08	3.259474e+01	7.487632e+02
1.970000e-06	4.626323e-06	1.134397e-08	3.220218e+01	7.454952e+02
1.980000e-06	4.568231e-06	1.128481e-08	3.179782e+01	7.420383e+02
1.990000e-06	4.508534e-06	1.123832e-08	3.138229e+01	7.384502e+02
2.000000e-06	4.447096e-06	1.121673e-08	3.095464e+01	7.347932e+02
2.010000e-06	4.384017e-06	1.115059e-08	3.051557e+01	7.311082e+02
2.020000e-06	4.319461e-06	1.110177e-08	3.006622e+01	7.273967e+02
2.030000e-06	4.253452e-06	1.103851e-08	2.960676e+01	7.236211e+02
2.040000e-06	4.186005e-06	1.096050e-08	2.913728e+01	7.197207e+02
2.050000e-06	4.116822e-06	1.091006e-08	2.865572e+01	7.156383e+02
2.060000e-06	4.045977e-06	1.083025e-08	2.816259e+01	7.113444e+02
2.070000e-06	3.973746e-06	1.077055e-08	2.765982e+01	7.068493e+02
2.080000e-06	3.900220e-06	1.070747e-08	2.714803e+01	7.021974e+02
2.090000e-06	3.825236e-06	1.064512e-08	2.662610e+01	6.974463e+02
2.100000e-06	3.748614e-06	1.057988e-08	2.609276e+01	6.926398e+02
2.110000e-06	3.670422e-06	1.049048e-08	2.554849e+01	6.877860e+02
2.120000e-06	3.590865e-06	1.041346e-08	2.499473e+01	6.828511e+02
2.130000e-06	3.510122e-06	1.033118e-08	2.443270e+01	6.777709e+02
2.140000e-06	3.428209e-06	1.025388e-08	2.386253e+01	6.724760e+02
2.150000e-06	3.345177e-06	1.016945e-08	2.328457e+01	6.669193e+02
2.160000e-06	3.260975e-06	1.008560e-08	2.269848e+01	6.610954e+02
2.170000e-06	3.175463e-06	1.000245e-08	2.210326e+01	6.550417e+02
2.180000e-06	3.088690e-06	9.907151e-09	2.149927e+01	6.488219e+02
2.190000e-06	3.000840e-06	9.811241e-09	2.088777e+01	6.424986e+02
2.200000e-06	2.912037e-06	9.710210e-09	2.026965e+01	6.361060e+02
2.210000e-06	2.822285e-06	9.614470e-09	1.964491e+01	6.296352e+02
2.220000e-06	2.731610e-06	9.517775e-09	1.901376e+01	6.230369e+02
2.230000e-06	2.640037e-06	9.415179e-09	1.837635e+01	6.162412e+02
2.240000e-06	2.547552e-06	9.304142e-09	1.773260e+01	6.091855e+02
2.250000e-06	2.454062e-06	9.189483e-09	1.708185e+01	6.018373e+02
2.260000e-06	2.359498e-06	9.075383e-09	1.642362e+01	5.942035e+02
2.270000e-06	2.264081e-06	8.959720e-09	1.575946e+01	5.863213e+02
2.280000e-06	2.167923e-06	8.845365e-09	1.509014e+01	5.782358e+02
2.290000e-06	2.071033e-06	8.723049e-09	1.441572e+01	5.699744e+02
2.300000e-06	1.973504e-06	8.595362e-09	1.373686e+01	5.615296e+02
2.310000e-06	1.875348e-06	8.461483e-09	1.305363e+01	5.528589e+02
2.320000e-06	1.776554e-06	8.320948e-09	1.236595e+01	5.439011e+02
2.330000e-06	1.677176e-06	8.176303e-09	1.167422e+01	5.346016e+02
2.340000e-06	1.577298e-06	8.028952e-09	1.097900e+01	5.249351e+02
2.350000e-06	1.476973e-06	7.883965e-09	1.028068e+01	5.149139e+02
2.360000e-06	1.376159e-06	7.736766e-09	9.578947e+00	5.045770e+02
2.370000e-06	1.274718e-06	7.581512e-09	8.872857e+00	4.939651e+02
2.380000e-06	1.172605e-06	7.412496e-09	8.162082e+00	4.830908e+02
2.390000e-06	1.069911e-06	7.235998e-09	7.447269e+00	4.719203e+02
2.400000e-06	9.667765e-07	7.058397e-09	6.729385e+00	4.603745e+02
2.410000e-06	8.632776e-07	6.874441e-09	6.008966e+00	4.483519e+02
2.420000e-06	7.595032e-07	6.681869e-09	5.286629e+00	4.357639e+02
2.430000e-06	6.555464e-07	6.481830e-09	4.563023e+00	4.225663e+02
2.440000e-06	5.513943e-07	6.276285e-09	3.838058e+00	4.087731e+02
2.450000e-06	4.470397e-07	6.062743e-09	3.111683e+00	3.944421e+02
2.460000e-06	3.425806e-07	5.837849e-09	2.384581e+00	3.796377e+02
2.470000e-06	2.380262e-07	5.602437e-09	1.656815e+00	3.643850e+02
2.480000e-06	1.333402e-07	5.360306e-09	9.281334e-01	3.486358e+02
2.490000e-06	2.860400e-08	5.109434e-09	1.991022e-01	3.322633e+02
2.500000e-06	-7.610141e-08	4.845739e-09	-5.297146e-01	3.150914e+02
2.510000e-06	-1.807763e-07	4.567710e-09	-1.258319e+00	2.969474e+02
2.520000e-06	-2.854061e-07	4.274484e-09	-1.986610e+00	2.777150e+02
2.530000e-06	-3.898892e-07	3.967559e-09	-2.713879e+00	2.573594e+02
2.540000e-06	-4.941556e-07	3.644910e-09	-3.439640e+00	2.359055e+02
2.550000e-06	-5.982593e-07	3.303780e-09	-4.164269e+00	2.133664e+02
2.560000e-06	-7.021828e-07	2.941256e-09	-4.887643e+00	1.896427e+02
2.570000e-06	-8.058475e-07	2.553440e-09	-5.609216e+00	1.644328e+02
2.580000e-06	-9.092701e-07	2.133934e-09	-6.329103e+00	1.371951e+02
2.590000e-06	-1.012392e-06	1.675027e-09	-7.046896e+00	1.071963e+02
2.600000e-06	-1.115063e-06	1.166940e-09	-7.761553e+00	7.365144e+01
2.610000e-06	-1.217151e-06	5.987404e-10	-8.472150e+00	3.593104e+01
2.620000e-06	-1.318654e-06	-3.320959e-11	-9.178675e+00	-6.217690e+00
2.630000e-06	-1.419591e-06	-7.299517e-10	-9.881264e+00	-5.250062e+01
2.640000e-06	-1.520003e-06	-1.485902e-09	-1.058019e+01	-1.020146e+02
2.650000e-06	-1.619925e-06	-2.278051e-09	-1.127571e+01	-1.533232e+02
2.660000e-06	-1.719271e-06	-3.070920e-09	-1.196723e+01	-2.046617e+02
2.670000e-06	-1.817993e-06	-3.830623e-09	-1.265440e+01	-2.542233e+02
2.680000e-06	-1.916047e-06	-4.536111e-09	-1.333692e+01	-3.004568e+02
2.690000e-06	-2.013405e-06	-5.175195e-09	-1.401459e+01	-3.422995e+02
2.700000e-06	-2.110122e-06	-5.742518e-09	-1.468780e+01	-3.792918e+02
2.710000e-06	-2.206259e-06	-6.239415e-09	-1.535698e+01	-4.115526e+02
2.720000e-06	-2.301792e-06	-6.673946e-09	-1.602195e+01	-4.396351e+02
2.730000e-06	-2.396557e-06	-7.060620e-09	-1.668157e+01	-4.643150e+02
2.740000e-06	-2.490369e-06	-7.407907e-09	-1.733457e+01	-4.863753e+02
2.750000e-06	-2.583203e-06	-7.718722e-09	-1.798075e+01	-5.064446e+02
2.760000e-06	-2.675016e-06	-7.998059e-09	-1.861983e+01	-5.249238e+02
2.770000e-06	-2.765802e-06	-8.252352e-09	-1.925176e+01	-5.420009e+02
2.780000e-06	-2.855583e-06	-8.490876e-09	-1.987669e+01	-5.577296e+02
2.790000e-06	-2.944342e-06	-8.715591e-09	-2.049451e+01	-5.721290e+02
2.800000e-06	-3.032142e-06	-8.920882e-09	-2.110565e+01	-5.852642e+02
2.810000e-06	-3.118927e-06	-9.107507e-09	-2.170973e+01	-5.972801e+02
2.820000e-06	-3.204528e-06	-9.282084e-09	-2.230557e+01	-6.083867e+02
2.830000e-06	-3.288846e-06	-9.446080e-09	-2.289248e+01	-6.188089e+02
2.840000e-06	-3.371958e-06	-9.597470e-09	-2.347099e+01	-6.287282e+02
2.850000e-06	-3.453947e-06	-9.738019e-09	-2.404169e+01	-6.382429e+02
2.860000e-06	-3.534821e-06	-9.872850e-09	-2.460462e+01	-6.473619e+02
2.870000e-06	-3.614570e-06	-1.000300e-08	-2.515972e+01	-6.560309e+02
2.880000e-06	-3.692985e-06	-1.012726e-08	-2.570555e+01	-6.641788e+02
2.890000e-06	-3.769859e-06	-1.024457e-08	-2.624063e+01	-6.717633e+02
2.900000e-06	-3.845162e-06	-1.035566e-08	-2.676480e+01	-6.787977e+02
2.910000e-06	-3.918963e-06	-1.046059e-08	-2.727850e+01	-6.853515e+02
2.920000e-06	-3.991445e-06	-1.055734e-08	-2.778302e+01	-6.915275e+02
2.930000e-06	-4.062642e-06	-1.064817e-08	-2.827859e+01	-6.974268e+02
2.940000e-06	-4.132320e-06	-1.073576e-08	-2.876360e+01	-7.031200e+02
