# Temperatura_=_38.76
# Concentracion g/m^3_=_13400.0
# C_Vs_to_Am_M_A/Vsm_=_65563218390.804596
# pendiente_HvsI_1/m_=_3716.3
# ordenada_HvsI_A/m_=_1297.0
# frecuencia_Hz_=_300814.1663527776

Tiempo_(s)	Campo_(V.s)	Magnetizacion_(V.s)	Campo_(kA/m)	Magnetizacion_(A/m)
0.000000e+00	-5.511371e-06	-1.215321e-08	-3.830503e+01	-7.953825e+02
1.000000e-08	-5.509467e-06	-1.215618e-08	-3.829179e+01	-7.952263e+02
2.000000e-08	-5.505664e-06	-1.215427e-08	-3.826536e+01	-7.949280e+02
3.000000e-08	-5.500130e-06	-1.214886e-08	-3.822690e+01	-7.944838e+02
4.000000e-08	-5.492950e-06	-1.214025e-08	-3.817700e+01	-7.939135e+02
5.000000e-08	-5.484127e-06	-1.212588e-08	-3.811568e+01	-7.932495e+02
6.000000e-08	-5.473324e-06	-1.210649e-08	-3.804059e+01	-7.925216e+02
7.000000e-08	-5.460376e-06	-1.208418e-08	-3.795060e+01	-7.917436e+02
8.000000e-08	-5.445407e-06	-1.208331e-08	-3.784656e+01	-7.909075e+02
9.000000e-08	-5.428054e-06	-1.211637e-08	-3.772596e+01	-7.899893e+02
1.000000e-07	-5.408382e-06	-1.209867e-08	-3.758923e+01	-7.889624e+02
1.100000e-07	-5.386803e-06	-1.205523e-08	-3.743925e+01	-7.878120e+02
1.200000e-07	-5.363494e-06	-1.202697e-08	-3.727725e+01	-7.865443e+02
1.300000e-07	-5.338681e-06	-1.194890e-08	-3.710480e+01	-7.851854e+02
1.400000e-07	-5.312256e-06	-1.196728e-08	-3.692114e+01	-7.837696e+02
1.500000e-07	-5.283997e-06	-1.199287e-08	-3.672473e+01	-7.823227e+02
1.600000e-07	-5.254045e-06	-1.187526e-08	-3.651656e+01	-7.808479e+02
1.700000e-07	-5.222460e-06	-1.191308e-08	-3.629704e+01	-7.793198e+02
1.800000e-07	-5.188945e-06	-1.192419e-08	-3.606411e+01	-7.776915e+02
1.900000e-07	-5.153414e-06	-1.180323e-08	-3.581716e+01	-7.759108e+02
2.000000e-07	-5.116327e-06	-1.182785e-08	-3.555940e+01	-7.739395e+02
2.100000e-07	-5.077554e-06	-1.177029e-08	-3.528992e+01	-7.717684e+02
2.200000e-07	-5.036936e-06	-1.169286e-08	-3.500762e+01	-7.694196e+02
2.300000e-07	-4.994392e-06	-1.174015e-08	-3.471193e+01	-7.669378e+02
2.400000e-07	-4.949824e-06	-1.169175e-08	-3.440218e+01	-7.643711e+02
2.500000e-07	-4.903525e-06	-1.164029e-08	-3.408039e+01	-7.617526e+02
2.600000e-07	-4.855415e-06	-1.159473e-08	-3.374602e+01	-7.590874e+02
2.700000e-07	-4.805211e-06	-1.151426e-08	-3.339709e+01	-7.563533e+02
2.800000e-07	-4.752924e-06	-1.149452e-08	-3.303368e+01	-7.535121e+02
2.900000e-07	-4.698798e-06	-1.145799e-08	-3.265749e+01	-7.505272e+02
3.000000e-07	-4.642995e-06	-1.141143e-08	-3.226966e+01	-7.473805e+02
3.100000e-07	-4.585520e-06	-1.136113e-08	-3.187020e+01	-7.440792e+02
3.200000e-07	-4.526189e-06	-1.132238e-08	-3.145784e+01	-7.406509e+02
3.300000e-07	-4.465238e-06	-1.127286e-08	-3.103422e+01	-7.371293e+02
3.400000e-07	-4.402904e-06	-1.117825e-08	-3.060098e+01	-7.335364e+02
3.500000e-07	-4.339084e-06	-1.112709e-08	-3.015742e+01	-7.298713e+02
3.600000e-07	-4.273715e-06	-1.106760e-08	-2.970309e+01	-7.261080e+02
3.700000e-07	-4.206618e-06	-1.101338e-08	-2.923675e+01	-7.222073e+02
3.800000e-07	-4.137873e-06	-1.097322e-08	-2.875896e+01	-7.181332e+02
3.900000e-07	-4.067710e-06	-1.089203e-08	-2.827132e+01	-7.138705e+02
4.000000e-07	-3.996245e-06	-1.082632e-08	-2.777463e+01	-7.094318e+02
4.100000e-07	-3.923513e-06	-1.075536e-08	-2.726912e+01	-7.048522e+02
4.200000e-07	-3.849237e-06	-1.067992e-08	-2.675290e+01	-7.001732e+02
4.300000e-07	-3.773218e-06	-1.059849e-08	-2.622455e+01	-6.954223e+02
4.400000e-07	-3.695602e-06	-1.052050e-08	-2.568510e+01	-6.905976e+02
4.500000e-07	-3.616560e-06	-1.045737e-08	-2.513574e+01	-6.856653e+02
4.600000e-07	-3.536061e-06	-1.038263e-08	-2.457626e+01	-6.805713e+02
4.700000e-07	-3.454199e-06	-1.030331e-08	-2.400731e+01	-6.752623e+02
4.800000e-07	-3.371115e-06	-1.020743e-08	-2.342986e+01	-6.697084e+02
4.900000e-07	-3.286935e-06	-1.011349e-08	-2.284479e+01	-6.639151e+02
5.000000e-07	-3.201824e-06	-1.002618e-08	-2.225326e+01	-6.579218e+02
5.100000e-07	-3.115715e-06	-9.931592e-09	-2.165479e+01	-6.517841e+02
5.200000e-07	-3.028599e-06	-9.837667e-09	-2.104931e+01	-6.455488e+02
5.300000e-07	-2.940561e-06	-9.740973e-09	-2.043743e+01	-6.392314e+02
5.400000e-07	-2.851569e-06	-9.642872e-09	-1.981892e+01	-6.328076e+02
5.500000e-07	-2.761500e-06	-9.541334e-09	-1.919292e+01	-6.262208e+02
5.600000e-07	-2.670225e-06	-9.432657e-09	-1.855855e+01	-6.194046e+02
5.700000e-07	-2.577867e-06	-9.320085e-09	-1.791665e+01	-6.123100e+02
5.800000e-07	-2.484694e-06	-9.207375e-09	-1.726907e+01	-6.049255e+02
5.900000e-07	-2.390766e-06	-9.095740e-09	-1.661625e+01	-5.972800e+02
6.000000e-07	-2.295971e-06	-8.975281e-09	-1.595742e+01	-5.894277e+02
6.100000e-07	-2.200375e-06	-8.849078e-09	-1.529300e+01	-5.814200e+02
6.200000e-07	-2.104049e-06	-8.719516e-09	-1.462352e+01	-5.732779e+02
6.300000e-07	-2.006891e-06	-8.588757e-09	-1.394826e+01	-5.649754e+02
6.400000e-07	-1.908870e-06	-8.458929e-09	-1.326699e+01	-5.564451e+02
6.500000e-07	-1.810101e-06	-8.321708e-09	-1.258053e+01	-5.476010e+02
6.600000e-07	-1.710689e-06	-8.180125e-09	-1.188960e+01	-5.383727e+02
6.700000e-07	-1.610616e-06	-8.035392e-09	-1.119407e+01	-5.287334e+02
6.800000e-07	-1.509935e-06	-7.885946e-09	-1.049432e+01	-5.187096e+02
6.900000e-07	-1.408748e-06	-7.726842e-09	-9.791054e+00	-5.083670e+02
7.000000e-07	-1.307112e-06	-7.558385e-09	-9.084663e+00	-4.977767e+02
7.100000e-07	-1.205004e-06	-7.388222e-09	-8.374998e+00	-4.869760e+02
7.200000e-07	-1.102456e-06	-7.218028e-09	-7.662272e+00	-4.759408e+02
7.300000e-07	-9.995350e-07	-7.046605e-09	-6.946949e+00	-4.645836e+02
7.400000e-07	-8.962700e-07	-6.868776e-09	-6.229239e+00	-4.527786e+02
7.500000e-07	-7.927551e-07	-6.680828e-09	-5.509792e+00	-4.404062e+02
7.600000e-07	-6.890248e-07	-6.482099e-09	-4.788847e+00	-4.273964e+02
7.700000e-07	-5.850777e-07	-6.274040e-09	-4.066396e+00	-4.137531e+02
7.800000e-07	-4.809417e-07	-6.056887e-09	-3.342632e+00	-3.995452e+02
7.900000e-07	-3.766489e-07	-5.832471e-09	-2.617778e+00	-3.848666e+02
8.000000e-07	-2.722556e-07	-5.602931e-09	-1.892225e+00	-3.697792e+02
8.100000e-07	-1.678305e-07	-5.366915e-09	-1.166452e+00	-3.542645e+02
8.200000e-07	-6.333963e-08	-5.123274e-09	-4.402219e-01	-3.382051e+02
8.300000e-07	4.130583e-08	-4.865658e-09	2.870830e-01	-3.214069e+02
8.400000e-07	1.459777e-07	-4.591033e-09	1.014572e+00	-3.036570e+02
8.500000e-07	2.505625e-07	-4.301329e-09	1.741455e+00	-2.847906e+02
8.600000e-07	3.549938e-07	-3.999180e-09	2.467271e+00	-2.647365e+02
8.700000e-07	4.592632e-07	-3.680261e-09	3.191963e+00	-2.435134e+02
8.800000e-07	5.633918e-07	-3.341490e-09	3.915675e+00	-2.211670e+02
8.900000e-07	6.673134e-07	-2.982182e-09	4.637949e+00	-1.976643e+02
9.000000e-07	7.710421e-07	-2.599735e-09	5.358882e+00	-1.727830e+02
9.100000e-07	8.745677e-07	-2.186475e-09	6.078404e+00	-1.460437e+02
9.200000e-07	9.777708e-07	-1.730606e-09	6.795684e+00	-1.167286e+02
9.300000e-07	1.080575e-06	-1.224465e-09	7.510194e+00	-8.400204e+01
9.400000e-07	1.183016e-06	-6.627457e-10	8.222174e+00	-4.711706e+01
9.500000e-07	1.285106e-06	-3.837562e-11	8.931723e+00	-5.656729e+00
9.600000e-07	1.386822e-06	6.580182e-10	9.638667e+00	4.025861e+01
9.700000e-07	1.488112e-06	1.420379e-09	1.034265e+01	8.986578e+01
9.800000e-07	1.588921e-06	2.221897e-09	1.104329e+01	1.417972e+02
9.900000e-07	1.689178e-06	3.027584e-09	1.174009e+01	1.942655e+02
1.000000e-06	1.788760e-06	3.807506e-09	1.243221e+01	2.453540e+02
1.010000e-06	1.887621e-06	4.532508e-09	1.311931e+01	2.933396e+02
1.020000e-06	1.985713e-06	5.182116e-09	1.380106e+01	3.369667e+02
1.030000e-06	2.083003e-06	5.753819e-09	1.447725e+01	3.756050e+02
1.040000e-06	2.179494e-06	6.256069e-09	1.514788e+01	4.092575e+02
1.050000e-06	2.275212e-06	6.701844e-09	1.581314e+01	4.384326e+02
1.060000e-06	2.370196e-06	7.096247e-09	1.647329e+01	4.639261e+02
1.070000e-06	2.464430e-06	7.442356e-09	1.712824e+01	4.865852e+02
1.080000e-06	2.557858e-06	7.749784e-09	1.777758e+01	5.071176e+02
1.090000e-06	2.650403e-06	8.031485e-09	1.842078e+01	5.259920e+02
1.100000e-06	2.742000e-06	8.291574e-09	1.905739e+01	5.434371e+02
1.110000e-06	2.832511e-06	8.529554e-09	1.968646e+01	5.595174e+02
1.120000e-06	2.921869e-06	8.750001e-09	2.030752e+01	5.742421e+02
1.130000e-06	3.010171e-06	8.955944e-09	2.092123e+01	5.876599e+02
1.140000e-06	3.097503e-06	9.145675e-09	2.152821e+01	5.999067e+02
1.150000e-06	3.183841e-06	9.317920e-09	2.212827e+01	6.111965e+02
1.160000e-06	3.269129e-06	9.477513e-09	2.272104e+01	6.217706e+02
1.170000e-06	3.353335e-06	9.628513e-09	2.330628e+01	6.318311e+02
1.180000e-06	3.436392e-06	9.775320e-09	2.388355e+01	6.414917e+02
1.190000e-06	3.518205e-06	9.916321e-09	2.445216e+01	6.507648e+02
1.200000e-06	3.598702e-06	1.004818e-08	2.501163e+01	6.595875e+02
1.210000e-06	3.677898e-06	1.017203e-08	2.556205e+01	6.678734e+02
1.220000e-06	3.755812e-06	1.029019e-08	2.610357e+01	6.755673e+02
1.230000e-06	3.832367e-06	1.040041e-08	2.663565e+01	6.826793e+02
1.240000e-06	3.907398e-06	1.050021e-08	2.715713e+01	6.892889e+02
1.250000e-06	3.980789e-06	1.059368e-08	2.766721e+01	6.955180e+02
1.260000e-06	4.052699e-06	1.068546e-08	2.816699e+01	7.014893e+02
1.270000e-06	4.123236e-06	1.077590e-08	2.865724e+01	7.072863e+02
1.280000e-06	4.192384e-06	1.086019e-08	2.913783e+01	7.129343e+02
1.290000e-06	4.260034e-06	1.093750e-08	2.960801e+01	7.184053e+02
1.300000e-06	4.326045e-06	1.101159e-08	3.006679e+01	7.236450e+02
1.310000e-06	4.390518e-06	1.108455e-08	3.051489e+01	7.286066e+02
1.320000e-06	4.453544e-06	1.115635e-08	3.095294e+01	7.332779e+02
1.330000e-06	4.515158e-06	1.122537e-08	3.138117e+01	7.376879e+02
1.340000e-06	4.575260e-06	1.129054e-08	3.179889e+01	7.418950e+02
1.350000e-06	4.633651e-06	1.135266e-08	3.220472e+01	7.459607e+02
1.360000e-06	4.690287e-06	1.141258e-08	3.259834e+01	7.499224e+02
1.370000e-06	4.745226e-06	1.146910e-08	3.298018e+01	7.537789e+02
1.380000e-06	4.798411e-06	1.152048e-08	3.334983e+01	7.574929e+02
1.390000e-06	4.849605e-06	1.156898e-08	3.370563e+01	7.610097e+02
1.400000e-06	4.898792e-06	1.161688e-08	3.404749e+01	7.642836e+02
1.410000e-06	4.946193e-06	1.166454e-08	3.437694e+01	7.672992e+02
1.420000e-06	4.991998e-06	1.171039e-08	3.469529e+01	7.700792e+02
1.430000e-06	5.036126e-06	1.175064e-08	3.500199e+01	7.726751e+02
1.440000e-06	5.078355e-06	1.178728e-08	3.529548e+01	7.751454e+02
1.450000e-06	5.118706e-06	1.182451e-08	3.557593e+01	7.775320e+02
1.460000e-06	5.157359e-06	1.185904e-08	3.584458e+01	7.798437e+02
1.470000e-06	5.194367e-06	1.188723e-08	3.610179e+01	7.820555e+02
1.480000e-06	5.229479e-06	1.191206e-08	3.634583e+01	7.841220e+02
1.490000e-06	5.262605e-06	1.193949e-08	3.657606e+01	7.859999e+02
1.500000e-06	5.293911e-06	1.196837e-08	3.679364e+01	7.876680e+02
1.510000e-06	5.323523e-06	1.199284e-08	3.699945e+01	7.891378e+02
1.520000e-06	5.351353e-06	1.201249e-08	3.719287e+01	7.904487e+02
1.530000e-06	5.377118e-06	1.203200e-08	3.737194e+01	7.916513e+02
1.540000e-06	5.400799e-06	1.205154e-08	3.753653e+01	7.927860e+02
1.550000e-06	5.422655e-06	1.206711e-08	3.768844e+01	7.938667e+02
1.560000e-06	5.442788e-06	1.207708e-08	3.782836e+01	7.948764e+02
1.570000e-06	5.461057e-06	1.208653e-08	3.795534e+01	7.957766e+02
1.580000e-06	5.477258e-06	1.210066e-08	3.806793e+01	7.965259e+02
1.590000e-06	5.491415e-06	1.211355e-08	3.816633e+01	7.970994e+02
1.600000e-06	5.503507e-06	1.212000e-08	3.825037e+01	7.975008e+02
1.610000e-06	5.513364e-06	1.212441e-08	3.831888e+01	7.977616e+02
1.620000e-06	5.521171e-06	1.213242e-08	3.837314e+01	7.979281e+02
1.630000e-06	5.527172e-06	1.213985e-08	3.841485e+01	7.980428e+02
1.640000e-06	5.531363e-06	1.213846e-08	3.844397e+01	7.981271e+02
1.650000e-06	5.533525e-06	1.213339e-08	3.845900e+01	7.981738e+02
1.660000e-06	5.533669e-06	1.213314e-08	3.846000e+01	7.981525e+02
1.670000e-06	5.532066e-06	1.213434e-08	3.844886e+01	7.980237e+02
1.680000e-06	5.528779e-06	1.213324e-08	3.842602e+01	7.977568e+02
1.690000e-06	5.523537e-06	1.212399e-08	3.838958e+01	7.973428e+02
1.700000e-06	5.516384e-06	1.211364e-08	3.833987e+01	7.967967e+02
1.710000e-06	5.507616e-06	1.210781e-08	3.827893e+01	7.961497e+02
1.720000e-06	5.497162e-06	1.210413e-08	3.820627e+01	7.954335e+02
1.730000e-06	5.484761e-06	1.210439e-08	3.812008e+01	7.946659e+02
1.740000e-06	5.470307e-06	1.206173e-08	3.801962e+01	7.938436e+02
1.750000e-06	5.453759e-06	1.201159e-08	3.790461e+01	7.929452e+02
1.760000e-06	5.434664e-06	1.201360e-08	3.777190e+01	7.919432e+02
1.770000e-06	5.412784e-06	1.200191e-08	3.761983e+01	7.908193e+02
1.780000e-06	5.388851e-06	1.203627e-08	3.745349e+01	7.895749e+02
1.790000e-06	5.363933e-06	1.201903e-08	3.728031e+01	7.882325e+02
1.800000e-06	5.338184e-06	1.191064e-08	3.710135e+01	7.868259e+02
1.810000e-06	5.310518e-06	1.197005e-08	3.690906e+01	7.853843e+02
1.820000e-06	5.280535e-06	1.194655e-08	3.670067e+01	7.839165e+02
1.830000e-06	5.248987e-06	1.185964e-08	3.648141e+01	7.824030e+02
1.840000e-06	5.215693e-06	1.194852e-08	3.625001e+01	7.808005e+02
1.850000e-06	5.180576e-06	1.187540e-08	3.600594e+01	7.790561e+02
1.860000e-06	5.143694e-06	1.181303e-08	3.574961e+01	7.771274e+02
1.870000e-06	5.104667e-06	1.188027e-08	3.547836e+01	7.749980e+02
1.880000e-06	5.063916e-06	1.174999e-08	3.519513e+01	7.726838e+02
1.890000e-06	5.021587e-06	1.172216e-08	3.490094e+01	7.702261e+02
1.900000e-06	4.977391e-06	1.172039e-08	3.459377e+01	7.676738e+02
1.910000e-06	4.931434e-06	1.162192e-08	3.427436e+01	7.650647e+02
1.920000e-06	4.883556e-06	1.167815e-08	3.394160e+01	7.624103e+02
1.930000e-06	4.833851e-06	1.159653e-08	3.359614e+01	7.596937e+02
1.940000e-06	4.782435e-06	1.152404e-08	3.323879e+01	7.568786e+02
1.950000e-06	4.728886e-06	1.152083e-08	3.286661e+01	7.539266e+02
1.960000e-06	4.673518e-06	1.142652e-08	3.248180e+01	7.508147e+02
1.970000e-06	4.616516e-06	1.139739e-08	3.208562e+01	7.475445e+02
1.980000e-06	4.557842e-06	1.131809e-08	3.167783e+01	7.441403e+02
1.990000e-06	4.497654e-06	1.130232e-08	3.125951e+01	7.406359e+02
2.000000e-06	4.435721e-06	1.127636e-08	3.082906e+01	7.370573e+02
2.010000e-06	4.372165e-06	1.118400e-08	3.038734e+01	7.334089e+02
2.020000e-06	4.307120e-06	1.116360e-08	2.993526e+01	7.296695e+02
2.030000e-06	4.240622e-06	1.105211e-08	2.947309e+01	7.258014e+02
2.040000e-06	4.172626e-06	1.100371e-08	2.900050e+01	7.217664e+02
2.050000e-06	4.102839e-06	1.094493e-08	2.851547e+01	7.175439e+02
2.060000e-06	4.031513e-06	1.085591e-08	2.801975e+01	7.131402e+02
2.070000e-06	3.958819e-06	1.082516e-08	2.751451e+01	7.085870e+02
2.080000e-06	3.884768e-06	1.073725e-08	2.699984e+01	7.039261e+02
2.090000e-06	3.809172e-06	1.069509e-08	2.647444e+01	6.991894e+02
2.100000e-06	3.731809e-06	1.060543e-08	2.593675e+01	6.943821e+02
2.110000e-06	3.652994e-06	1.052030e-08	2.538897e+01	6.894768e+02
2.120000e-06	3.572920e-06	1.044859e-08	2.483244e+01	6.844221e+02
2.130000e-06	3.491688e-06	1.035605e-08	2.426787e+01	6.791626e+02
2.140000e-06	3.409326e-06	1.028787e-08	2.369544e+01	6.736617e+02
2.150000e-06	3.325856e-06	1.018235e-08	2.311530e+01	6.679171e+02
2.160000e-06	3.241093e-06	1.011140e-08	2.252618e+01	6.619620e+02
2.170000e-06	3.154913e-06	1.002128e-08	2.192721e+01	6.558504e+02
2.180000e-06	3.067584e-06	9.927915e-09	2.132027e+01	6.496332e+02
2.190000e-06	2.979310e-06	9.832662e-09	2.070675e+01	6.433339e+02
2.200000e-06	2.890095e-06	9.726072e-09	2.008669e+01	6.369366e+02
2.210000e-06	2.799946e-06	9.634892e-09	1.946014e+01	6.303901e+02
2.220000e-06	2.708955e-06	9.525181e-09	1.882773e+01	6.236279e+02
2.230000e-06	2.616976e-06	9.422080e-09	1.818846e+01	6.165953e+02
2.240000e-06	2.523930e-06	9.303948e-09	1.754177e+01	6.092715e+02
2.250000e-06	2.429859e-06	9.194330e-09	1.688796e+01	6.016777e+02
2.260000e-06	2.334853e-06	9.083330e-09	1.622765e+01	5.938645e+02
2.270000e-06	2.239090e-06	8.969157e-09	1.556208e+01	5.858868e+02
2.280000e-06	2.142608e-06	8.853916e-09	1.489152e+01	5.777737e+02
2.290000e-06	2.045397e-06	8.722722e-09	1.421588e+01	5.695099e+02
2.300000e-06	1.947500e-06	8.591515e-09	1.353548e+01	5.610353e+02
2.310000e-06	1.849060e-06	8.452076e-09	1.285130e+01	5.522651e+02
2.320000e-06	1.750092e-06	8.311876e-09	1.216346e+01	5.431230e+02
2.330000e-06	1.650539e-06	8.165817e-09	1.147155e+01	5.335711e+02
2.340000e-06	1.550385e-06	8.021463e-09	1.077546e+01	5.236248e+02
2.350000e-06	1.449574e-06	7.873855e-09	1.007480e+01	5.133440e+02
2.360000e-06	1.348126e-06	7.717837e-09	9.369717e+00	5.028017e+02
2.370000e-06	1.246131e-06	7.554543e-09	8.660835e+00	4.920456e+02
2.380000e-06	1.143678e-06	7.382128e-09	7.948767e+00	4.810658e+02
2.390000e-06	1.040755e-06	7.205989e-09	7.233433e+00	4.697873e+02
2.400000e-06	9.374076e-07	7.024207e-09	6.515152e+00	4.580890e+02
2.410000e-06	8.337098e-07	6.838035e-09	5.794434e+00	4.458462e+02
2.420000e-06	7.297288e-07	6.645311e-09	5.071748e+00	4.329750e+02
2.430000e-06	6.255371e-07	6.442874e-09	4.347596e+00	4.194632e+02
2.440000e-06	5.211821e-07	6.229389e-09	3.622310e+00	4.053682e+02
2.450000e-06	4.166772e-07	6.008458e-09	2.895982e+00	3.907830e+02
2.460000e-06	3.120281e-07	5.778843e-09	2.168652e+00	3.757813e+02
2.470000e-06	2.073142e-07	5.540624e-09	1.440872e+00	3.603645e+02
2.480000e-06	1.025409e-07	5.293823e-09	7.126778e-01	3.444360e+02
2.490000e-06	-2.267756e-09	5.036648e-09	-1.576131e-02	3.278143e+02
2.500000e-06	-1.070647e-07	4.768506e-09	-7.441191e-01	3.102846e+02
2.510000e-06	-2.118402e-07	4.485804e-09	-1.472328e+00	2.916667e+02
2.520000e-06	-3.165298e-07	4.186968e-09	-2.199939e+00	2.718679e+02
2.530000e-06	-4.210939e-07	3.872107e-09	-2.926679e+00	2.508907e+02
2.540000e-06	-5.255220e-07	3.539089e-09	-3.652473e+00	2.287830e+02
2.550000e-06	-6.297716e-07	3.185524e-09	-4.377027e+00	2.055387e+02
2.560000e-06	-7.337835e-07	2.808526e-09	-5.099928e+00	1.809838e+02
2.570000e-06	-8.375403e-07	2.402243e-09	-5.821057e+00	1.546959e+02
2.580000e-06	-9.409938e-07	1.959660e-09	-6.540078e+00	1.260015e+02
2.590000e-06	-1.044020e-06	1.472759e-09	-7.256131e+00	9.407529e+01
2.600000e-06	-1.146581e-06	9.313604e-10	-7.968947e+00	5.813114e+01
2.610000e-06	-1.248692e-06	3.267204e-10	-8.678637e+00	1.766168e+01
2.620000e-06	-1.350319e-06	-3.445973e-10	-9.384960e+00	-2.734113e+01
2.630000e-06	-1.451381e-06	-1.083109e-09	-1.008736e+01	-7.625384e+01
2.640000e-06	-1.551822e-06	-1.878302e-09	-1.078544e+01	-1.278275e+02
2.650000e-06	-1.651657e-06	-2.695712e-09	-1.147932e+01	-1.803429e+02
2.660000e-06	-1.750903e-06	-3.491689e-09	-1.216909e+01	-2.318837e+02
2.670000e-06	-1.849551e-06	-4.237012e-09	-1.285471e+01	-2.806593e+02
2.680000e-06	-1.947595e-06	-4.917579e-09	-1.353614e+01	-3.252962e+02
2.690000e-06	-2.044997e-06	-5.523613e-09	-1.421310e+01	-3.650239e+02
2.700000e-06	-2.141757e-06	-6.052577e-09	-1.488560e+01	-3.997165e+02
2.710000e-06	-2.237857e-06	-6.514513e-09	-1.555351e+01	-4.297904e+02
2.720000e-06	-2.333251e-06	-6.925232e-09	-1.621652e+01	-4.560001e+02
2.730000e-06	-2.427873e-06	-7.295061e-09	-1.687416e+01	-4.792002e+02
2.740000e-06	-2.521588e-06	-7.625511e-09	-1.752549e+01	-5.001403e+02
2.750000e-06	-2.614306e-06	-7.921491e-09	-1.816990e+01	-5.193436e+02
2.760000e-06	-2.706002e-06	-8.188750e-09	-1.880720e+01	-5.370857e+02
2.770000e-06	-2.796650e-06	-8.433167e-09	-1.943723e+01	-5.534576e+02
2.780000e-06	-2.886264e-06	-8.661069e-09	-2.006006e+01	-5.684714e+02
2.790000e-06	-2.974864e-06	-8.871880e-09	-2.067584e+01	-5.821613e+02
2.800000e-06	-3.062485e-06	-9.065541e-09	-2.128483e+01	-5.946433e+02
2.810000e-06	-3.149071e-06	-9.247786e-09	-2.188661e+01	-6.061180e+02
2.820000e-06	-3.234440e-06	-9.420719e-09	-2.247994e+01	-6.168264e+02
2.830000e-06	-3.318558e-06	-9.579611e-09	-2.306458e+01	-6.269841e+02
2.840000e-06	-3.401478e-06	-9.724928e-09	-2.364089e+01	-6.367263e+02
2.850000e-06	-3.483254e-06	-9.862735e-09	-2.420925e+01	-6.460860e+02
2.860000e-06	-3.563891e-06	-9.995528e-09	-2.476969e+01	-6.550128e+02
2.870000e-06	-3.643299e-06	-1.012078e-08	-2.532159e+01	-6.634204e+02
2.880000e-06	-3.721373e-06	-1.023951e-08	-2.586422e+01	-6.712430e+02
2.890000e-06	-3.797932e-06	-1.035326e-08	-2.639632e+01	-6.784754e+02
2.900000e-06	-3.872928e-06	-1.046131e-08	-2.691755e+01	-6.851834e+02
2.910000e-06	-3.946493e-06	-1.056181e-08	-2.742884e+01	-6.914833e+02
2.920000e-06	-4.018744e-06	-1.065503e-08	-2.793100e+01	-6.975012e+02
2.930000e-06	-4.089624e-06	-1.074494e-08	-2.842363e+01	-7.033316e+02
2.940000e-06	-4.158978e-06	-1.083221e-08	-2.890565e+01	-7.090126e+02
