# Temperatura_=_39.7
# Concentracion g/m^3_=_13400.0
# C_Vs_to_Am_M_A/Vsm_=_65563218390.804596
# pendiente_HvsI_1/m_=_3716.3
# ordenada_HvsI_A/m_=_1297.0
# frecuencia_Hz_=_300815.85101257666

Tiempo_(s)	Campo_(V.s)	Magnetizacion_(V.s)	Campo_(kA/m)	Magnetizacion_(A/m)
0.000000e+00	-5.488299e-06	-1.220072e-08	-3.830529e+01	-7.986252e+02
1.000000e-08	-5.486668e-06	-1.220248e-08	-3.829392e+01	-7.985667e+02
2.000000e-08	-5.483004e-06	-1.220178e-08	-3.826834e+01	-7.983534e+02
3.000000e-08	-5.477519e-06	-1.220122e-08	-3.823006e+01	-7.979639e+02
4.000000e-08	-5.470397e-06	-1.219623e-08	-3.818035e+01	-7.974123e+02
5.000000e-08	-5.461689e-06	-1.218196e-08	-3.811957e+01	-7.967388e+02
6.000000e-08	-5.451076e-06	-1.216195e-08	-3.804550e+01	-7.959886e+02
7.000000e-08	-5.438392e-06	-1.213871e-08	-3.795697e+01	-7.951913e+02
8.000000e-08	-5.423712e-06	-1.213240e-08	-3.785452e+01	-7.943476e+02
9.000000e-08	-5.406600e-06	-1.217779e-08	-3.773508e+01	-7.934318e+02
1.000000e-07	-5.387136e-06	-1.216544e-08	-3.759924e+01	-7.924072e+02
1.100000e-07	-5.365764e-06	-1.211162e-08	-3.745007e+01	-7.912465e+02
1.200000e-07	-5.342592e-06	-1.209215e-08	-3.728834e+01	-7.899489e+02
1.300000e-07	-5.317963e-06	-1.199574e-08	-3.711644e+01	-7.885435e+02
1.400000e-07	-5.291923e-06	-1.200197e-08	-3.693470e+01	-7.870784e+02
1.500000e-07	-5.264020e-06	-1.208579e-08	-3.673996e+01	-7.855984e+02
1.600000e-07	-5.234359e-06	-1.192492e-08	-3.653293e+01	-7.841229e+02
1.700000e-07	-5.203174e-06	-1.195545e-08	-3.631528e+01	-7.826327e+02
1.800000e-07	-5.170067e-06	-1.203014e-08	-3.608421e+01	-7.810727e+02
1.900000e-07	-5.134895e-06	-1.185237e-08	-3.583873e+01	-7.793705e+02
2.000000e-07	-5.098146e-06	-1.188668e-08	-3.558225e+01	-7.774631e+02
2.100000e-07	-5.059707e-06	-1.185558e-08	-3.531396e+01	-7.753209e+02
2.200000e-07	-5.019453e-06	-1.173309e-08	-3.503301e+01	-7.729586e+02
2.300000e-07	-4.977357e-06	-1.180397e-08	-3.473920e+01	-7.704288e+02
2.400000e-07	-4.933194e-06	-1.177300e-08	-3.443097e+01	-7.677994e+02
2.500000e-07	-4.887222e-06	-1.169792e-08	-3.411011e+01	-7.651263e+02
2.600000e-07	-4.839502e-06	-1.166702e-08	-3.377705e+01	-7.624310e+02
2.700000e-07	-4.789849e-06	-1.156934e-08	-3.343050e+01	-7.596933e+02
2.800000e-07	-4.738112e-06	-1.153816e-08	-3.306941e+01	-7.568615e+02
2.900000e-07	-4.684388e-06	-1.151461e-08	-3.269444e+01	-7.538754e+02
3.000000e-07	-4.628980e-06	-1.147263e-08	-3.230773e+01	-7.506927e+02
3.100000e-07	-4.571937e-06	-1.141213e-08	-3.190960e+01	-7.473061e+02
3.200000e-07	-4.513089e-06	-1.137617e-08	-3.149887e+01	-7.437455e+02
3.300000e-07	-4.452550e-06	-1.133512e-08	-3.107634e+01	-7.400633e+02
3.400000e-07	-4.390520e-06	-1.121696e-08	-3.064340e+01	-7.363102e+02
3.500000e-07	-4.327024e-06	-1.117049e-08	-3.020024e+01	-7.325128e+02
3.600000e-07	-4.262083e-06	-1.111306e-08	-2.974699e+01	-7.286618e+02
3.700000e-07	-4.195516e-06	-1.104898e-08	-2.928239e+01	-7.247166e+02
3.800000e-07	-4.127238e-06	-1.102049e-08	-2.880584e+01	-7.206240e+02
3.900000e-07	-4.057409e-06	-1.093761e-08	-2.831847e+01	-7.163419e+02
4.000000e-07	-3.986248e-06	-1.086581e-08	-2.782181e+01	-7.118581e+02
4.100000e-07	-3.913857e-06	-1.079636e-08	-2.731656e+01	-7.071945e+02
4.200000e-07	-3.840083e-06	-1.071898e-08	-2.680166e+01	-7.023962e+02
4.300000e-07	-3.764704e-06	-1.063365e-08	-2.627555e+01	-6.975090e+02
4.400000e-07	-3.687700e-06	-1.055071e-08	-2.573811e+01	-6.925570e+02
4.500000e-07	-3.609183e-06	-1.048761e-08	-2.519011e+01	-6.875288e+02
4.600000e-07	-3.529132e-06	-1.041356e-08	-2.463139e+01	-6.823806e+02
4.700000e-07	-3.447673e-06	-1.033561e-08	-2.406285e+01	-6.770540e+02
4.800000e-07	-3.365046e-06	-1.023708e-08	-2.348616e+01	-6.715009e+02
4.900000e-07	-3.281312e-06	-1.014102e-08	-2.290174e+01	-6.657044e+02
5.000000e-07	-3.196517e-06	-1.005685e-08	-2.230992e+01	-6.596861e+02
5.100000e-07	-3.110768e-06	-9.958045e-09	-2.171144e+01	-6.534959e+02
5.200000e-07	-3.024099e-06	-9.862781e-09	-2.110654e+01	-6.471892e+02
5.300000e-07	-2.936481e-06	-9.769152e-09	-2.049501e+01	-6.408000e+02
5.400000e-07	-2.847948e-06	-9.673788e-09	-1.987711e+01	-6.343238e+02
5.500000e-07	-2.758376e-06	-9.571903e-09	-1.925194e+01	-6.277171e+02
5.600000e-07	-2.667643e-06	-9.458489e-09	-1.861867e+01	-6.209140e+02
5.700000e-07	-2.575818e-06	-9.344019e-09	-1.797779e+01	-6.138535e+02
5.800000e-07	-2.483045e-06	-9.230176e-09	-1.733029e+01	-6.065047e+02
5.900000e-07	-2.389486e-06	-9.122380e-09	-1.667729e+01	-5.988782e+02
6.000000e-07	-2.295205e-06	-9.004946e-09	-1.601926e+01	-5.910186e+02
6.100000e-07	-2.200144e-06	-8.877563e-09	-1.535579e+01	-5.829798e+02
6.200000e-07	-2.104288e-06	-8.747643e-09	-1.468677e+01	-5.747958e+02
6.300000e-07	-2.007706e-06	-8.616540e-09	-1.401268e+01	-5.664583e+02
6.400000e-07	-1.910330e-06	-8.486961e-09	-1.333305e+01	-5.579133e+02
6.500000e-07	-1.812117e-06	-8.347082e-09	-1.264757e+01	-5.490791e+02
6.600000e-07	-1.713162e-06	-8.203301e-09	-1.195693e+01	-5.398779e+02
6.700000e-07	-1.613560e-06	-8.060194e-09	-1.126176e+01	-5.302677e+02
6.800000e-07	-1.513358e-06	-7.914696e-09	-1.056240e+01	-5.202591e+02
6.900000e-07	-1.412649e-06	-7.755306e-09	-9.859509e+00	-5.099081e+02
7.000000e-07	-1.311458e-06	-7.584733e-09	-9.153250e+00	-4.992874e+02
7.100000e-07	-1.209811e-06	-7.413679e-09	-8.443814e+00	-4.884461e+02
7.200000e-07	-1.107771e-06	-7.242489e-09	-7.731627e+00	-4.773774e+02
7.300000e-07	-1.005371e-06	-7.069450e-09	-7.016936e+00	-4.660083e+02
7.400000e-07	-9.026400e-07	-6.890533e-09	-6.299929e+00	-4.542187e+02
7.500000e-07	-7.995641e-07	-6.705426e-09	-5.580516e+00	-4.418821e+02
7.600000e-07	-6.962080e-07	-6.509829e-09	-4.859148e+00	-4.289130e+02
7.700000e-07	-5.926341e-07	-6.303881e-09	-4.136259e+00	-4.152967e+02
7.800000e-07	-4.888524e-07	-6.085288e-09	-3.411920e+00	-4.010891e+02
7.900000e-07	-3.849398e-07	-5.858073e-09	-2.686667e+00	-3.863824e+02
8.000000e-07	-2.809503e-07	-5.628497e-09	-1.960878e+00	-3.712488e+02
8.100000e-07	-1.768607e-07	-5.393578e-09	-1.234390e+00	-3.556878e+02
8.200000e-07	-7.264937e-08	-5.149018e-09	-5.070525e-01	-3.395992e+02
8.300000e-07	3.157973e-08	-4.889420e-09	2.204090e-01	-3.227984e+02
8.400000e-07	1.357674e-07	-4.616369e-09	9.475816e-01	-3.050694e+02
8.500000e-07	2.399032e-07	-4.330706e-09	1.674392e+00	-2.862335e+02
8.600000e-07	3.439506e-07	-4.029734e-09	2.400586e+00	-2.662022e+02
8.700000e-07	4.478653e-07	-3.707355e-09	3.125853e+00	-2.449825e+02
8.800000e-07	5.516453e-07	-3.365243e-09	3.850179e+00	-2.226219e+02
8.900000e-07	6.552957e-07	-3.007135e-09	4.573602e+00	-1.991050e+02
9.000000e-07	7.587161e-07	-2.626314e-09	5.295420e+00	-1.742374e+02
9.100000e-07	8.618663e-07	-2.211296e-09	6.015351e+00	-1.475678e+02
9.200000e-07	9.646833e-07	-1.755845e-09	6.732957e+00	-1.183939e+02
9.300000e-07	1.067134e-06	-1.257520e-09	7.448004e+00	-8.587357e+01
9.400000e-07	1.169235e-06	-7.039093e-10	8.160614e+00	-4.922852e+01
9.500000e-07	1.270961e-06	-7.934055e-11	8.870603e+00	-7.992388e+00
9.600000e-07	1.372291e-06	6.207091e-10	9.577832e+00	3.776923e+01
9.700000e-07	1.473189e-06	1.382306e-09	1.028205e+01	8.733764e+01
9.800000e-07	1.573537e-06	2.182019e-09	1.098242e+01	1.393670e+02
9.900000e-07	1.673306e-06	2.991432e-09	1.167875e+01	1.920635e+02
1.000000e-06	1.772454e-06	3.779444e-09	1.237075e+01	2.434798e+02
1.010000e-06	1.870843e-06	4.511513e-09	1.305745e+01	2.918481e+02
1.020000e-06	1.968477e-06	5.165248e-09	1.373888e+01	3.358684e+02
1.030000e-06	2.065379e-06	5.741960e-09	1.441521e+01	3.748769e+02
1.040000e-06	2.161534e-06	6.251281e-09	1.508631e+01	4.088605e+02
1.050000e-06	2.256964e-06	6.702871e-09	1.575236e+01	4.383269e+02
1.060000e-06	2.351667e-06	7.100126e-09	1.641334e+01	4.640798e+02
1.070000e-06	2.445581e-06	7.449270e-09	1.706881e+01	4.869740e+02
1.080000e-06	2.538729e-06	7.761078e-09	1.771893e+01	5.077186e+02
1.090000e-06	2.631079e-06	8.047274e-09	1.836348e+01	5.267762e+02
1.100000e-06	2.722394e-06	8.310572e-09	1.900080e+01	5.443662e+02
1.110000e-06	2.812589e-06	8.548734e-09	1.963032e+01	5.605472e+02
1.120000e-06	2.901686e-06	8.767533e-09	2.025217e+01	5.753324e+02
1.130000e-06	2.989696e-06	8.973396e-09	2.086643e+01	5.887854e+02
1.140000e-06	3.076686e-06	9.165147e-09	2.147357e+01	6.010650e+02
1.150000e-06	3.162679e-06	9.340338e-09	2.207375e+01	6.124076e+02
1.160000e-06	3.247735e-06	9.502398e-09	2.266739e+01	6.230674e+02
1.170000e-06	3.331771e-06	9.653826e-09	2.325393e+01	6.332442e+02
1.180000e-06	3.414626e-06	9.800277e-09	2.383221e+01	6.430341e+02
1.190000e-06	3.496291e-06	9.942636e-09	2.440218e+01	6.524233e+02
1.200000e-06	3.576659e-06	1.007614e-08	2.496310e+01	6.613245e+02
1.210000e-06	3.655679e-06	1.020051e-08	2.551462e+01	6.696396e+02
1.220000e-06	3.733404e-06	1.031922e-08	2.605710e+01	6.773188e+02
1.230000e-06	3.809727e-06	1.043122e-08	2.658979e+01	6.843946e+02
1.240000e-06	3.884438e-06	1.053336e-08	2.711123e+01	6.909766e+02
1.250000e-06	3.957585e-06	1.062721e-08	2.762176e+01	6.972125e+02
1.260000e-06	4.029343e-06	1.071586e-08	2.812259e+01	7.032359e+02
1.270000e-06	4.099685e-06	1.080426e-08	2.861354e+01	7.091211e+02
1.280000e-06	4.168671e-06	1.089041e-08	2.909502e+01	7.148673e+02
1.290000e-06	4.236257e-06	1.097236e-08	2.956673e+01	7.204136e+02
1.300000e-06	4.302205e-06	1.105022e-08	3.002701e+01	7.256797e+02
1.310000e-06	4.366554e-06	1.112319e-08	3.047613e+01	7.306105e+02
1.320000e-06	4.429454e-06	1.119275e-08	3.091514e+01	7.352069e+02
1.330000e-06	4.490955e-06	1.125924e-08	3.134438e+01	7.395291e+02
1.340000e-06	4.550983e-06	1.132322e-08	3.176335e+01	7.436721e+02
1.350000e-06	4.609262e-06	1.138361e-08	3.217011e+01	7.477256e+02
1.360000e-06	4.665757e-06	1.144115e-08	3.256441e+01	7.517362e+02
1.370000e-06	4.720590e-06	1.149862e-08	3.294711e+01	7.556891e+02
1.380000e-06	4.773706e-06	1.155582e-08	3.331783e+01	7.595163e+02
1.390000e-06	4.824882e-06	1.160818e-08	3.367501e+01	7.631278e+02
1.400000e-06	4.874072e-06	1.165455e-08	3.401833e+01	7.664519e+02
1.410000e-06	4.921432e-06	1.170065e-08	3.434888e+01	7.694674e+02
1.420000e-06	4.967165e-06	1.174772e-08	3.466807e+01	7.722130e+02
1.430000e-06	5.011213e-06	1.178804e-08	3.497550e+01	7.747717e+02
1.440000e-06	5.053287e-06	1.182079e-08	3.526916e+01	7.772356e+02
1.450000e-06	5.093538e-06	1.185319e-08	3.555008e+01	7.796686e+02
1.460000e-06	5.132122e-06	1.188831e-08	3.581938e+01	7.820806e+02
1.470000e-06	5.169041e-06	1.192349e-08	3.607705e+01	7.844258e+02
1.480000e-06	5.204146e-06	1.195606e-08	3.632206e+01	7.866243e+02
1.490000e-06	5.237315e-06	1.198813e-08	3.655357e+01	7.885976e+02
1.500000e-06	5.268689e-06	1.201698e-08	3.677254e+01	7.903036e+02
1.510000e-06	5.298349e-06	1.203932e-08	3.697955e+01	7.917544e+02
1.520000e-06	5.326215e-06	1.205574e-08	3.717404e+01	7.930118e+02
1.530000e-06	5.351992e-06	1.207017e-08	3.735395e+01	7.941621e+02
1.540000e-06	5.375725e-06	1.208665e-08	3.751959e+01	7.952805e+02
1.550000e-06	5.397685e-06	1.210425e-08	3.767286e+01	7.964021e+02
1.560000e-06	5.417948e-06	1.212123e-08	3.781428e+01	7.975095e+02
1.570000e-06	5.436351e-06	1.213719e-08	3.794273e+01	7.985435e+02
1.580000e-06	5.452690e-06	1.215205e-08	3.805677e+01	7.994298e+02
1.590000e-06	5.467007e-06	1.216153e-08	3.815669e+01	8.001119e+02
1.600000e-06	5.479233e-06	1.216693e-08	3.824202e+01	8.005751e+02
1.610000e-06	5.489232e-06	1.217261e-08	3.831181e+01	8.008514e+02
1.620000e-06	5.497242e-06	1.217903e-08	3.836771e+01	8.010054e+02
1.630000e-06	5.503428e-06	1.218289e-08	3.841089e+01	8.011070e+02
1.640000e-06	5.507807e-06	1.218236e-08	3.844145e+01	8.012025e+02
1.650000e-06	5.510170e-06	1.218288e-08	3.845794e+01	8.012978e+02
1.660000e-06	5.510465e-06	1.218641e-08	3.846000e+01	8.013585e+02
1.670000e-06	5.508992e-06	1.218561e-08	3.844972e+01	8.013274e+02
1.680000e-06	5.505810e-06	1.218299e-08	3.842751e+01	8.011504e+02
1.690000e-06	5.500737e-06	1.217684e-08	3.839210e+01	8.007987e+02
1.700000e-06	5.493782e-06	1.216852e-08	3.834356e+01	8.002792e+02
1.710000e-06	5.485182e-06	1.215941e-08	3.828354e+01	7.996279e+02
1.720000e-06	5.474902e-06	1.215052e-08	3.821179e+01	7.988910e+02
1.730000e-06	5.462644e-06	1.215516e-08	3.812624e+01	7.981027e+02
1.740000e-06	5.448400e-06	1.212100e-08	3.802683e+01	7.972705e+02
1.750000e-06	5.432214e-06	1.205134e-08	3.791385e+01	7.963733e+02
1.760000e-06	5.413494e-06	1.205488e-08	3.778320e+01	7.953751e+02
1.770000e-06	5.391941e-06	1.204815e-08	3.763277e+01	7.942448e+02
1.780000e-06	5.368255e-06	1.208705e-08	3.746746e+01	7.929751e+02
1.790000e-06	5.343472e-06	1.210489e-08	3.729449e+01	7.915893e+02
1.800000e-06	5.317947e-06	1.194107e-08	3.711633e+01	7.901328e+02
1.810000e-06	5.290630e-06	1.200838e-08	3.692568e+01	7.886533e+02
1.820000e-06	5.260902e-06	1.202925e-08	3.671819e+01	7.871772e+02
1.830000e-06	5.229631e-06	1.185517e-08	3.649993e+01	7.856939e+02
1.840000e-06	5.196633e-06	1.197172e-08	3.626963e+01	7.841548e+02
1.850000e-06	5.161738e-06	1.195129e-08	3.602608e+01	7.824892e+02
1.860000e-06	5.125211e-06	1.183220e-08	3.577115e+01	7.806298e+02
1.870000e-06	5.086561e-06	1.194352e-08	3.550139e+01	7.785383e+02
1.880000e-06	5.046118e-06	1.181912e-08	3.521911e+01	7.762200e+02
1.890000e-06	5.004182e-06	1.173411e-08	3.492643e+01	7.737205e+02
1.900000e-06	4.960393e-06	1.176073e-08	3.462081e+01	7.711070e+02
1.910000e-06	4.914846e-06	1.164661e-08	3.430291e+01	7.684402e+02
1.920000e-06	4.867363e-06	1.171772e-08	3.397151e+01	7.657501e+02
1.930000e-06	4.817989e-06	1.166937e-08	3.362690e+01	7.630252e+02
1.940000e-06	4.766952e-06	1.156603e-08	3.327069e+01	7.602188e+02
1.950000e-06	4.713778e-06	1.156039e-08	3.289957e+01	7.572704e+02
1.960000e-06	4.658759e-06	1.146718e-08	3.251557e+01	7.541319e+02
1.970000e-06	4.602144e-06	1.143976e-08	3.212043e+01	7.507877e+02
1.980000e-06	4.543889e-06	1.135064e-08	3.171384e+01	7.472606e+02
1.990000e-06	4.484097e-06	1.134316e-08	3.129652e+01	7.435998e+02
2.000000e-06	4.422543e-06	1.132634e-08	3.086691e+01	7.398587e+02
2.010000e-06	4.359402e-06	1.120785e-08	3.042622e+01	7.360704e+02
2.020000e-06	4.294747e-06	1.119978e-08	2.997497e+01	7.322336e+02
2.030000e-06	4.228606e-06	1.107537e-08	2.951334e+01	7.283131e+02
2.040000e-06	4.161054e-06	1.102811e-08	2.904186e+01	7.242564e+02
2.050000e-06	4.091737e-06	1.098790e-08	2.855807e+01	7.200173e+02
2.060000e-06	4.020799e-06	1.088694e-08	2.806296e+01	7.155761e+02
2.070000e-06	3.948518e-06	1.086198e-08	2.755848e+01	7.109478e+02
2.080000e-06	3.874917e-06	1.075771e-08	2.704478e+01	7.061742e+02
2.090000e-06	3.799810e-06	1.071761e-08	2.652058e+01	7.013032e+02
2.100000e-06	3.723018e-06	1.062702e-08	2.598461e+01	6.963649e+02
2.110000e-06	3.644721e-06	1.053750e-08	2.543814e+01	6.913558e+02
2.120000e-06	3.565102e-06	1.047152e-08	2.488244e+01	6.862383e+02
2.130000e-06	3.484343e-06	1.037503e-08	2.431879e+01	6.809548e+02
2.140000e-06	3.402467e-06	1.032413e-08	2.374734e+01	6.754531e+02
2.150000e-06	3.319466e-06	1.020712e-08	2.316804e+01	6.697083e+02
2.160000e-06	3.235210e-06	1.013354e-08	2.257998e+01	6.637341e+02
2.170000e-06	3.149615e-06	1.004281e-08	2.198257e+01	6.575760e+02
2.180000e-06	3.062862e-06	9.943324e-09	2.137708e+01	6.512904e+02
2.190000e-06	2.975103e-06	9.855649e-09	2.076457e+01	6.449178e+02
2.200000e-06	2.886378e-06	9.738716e-09	2.014532e+01	6.384629e+02
2.210000e-06	2.796673e-06	9.653365e-09	1.951923e+01	6.318894e+02
2.220000e-06	2.706052e-06	9.544679e-09	1.888675e+01	6.251343e+02
2.230000e-06	2.614533e-06	9.444364e-09	1.824800e+01	6.181330e+02
2.240000e-06	2.522069e-06	9.329177e-09	1.760265e+01	6.108466e+02
2.250000e-06	2.428540e-06	9.211924e-09	1.694987e+01	6.032769e+02
2.260000e-06	2.334026e-06	9.105802e-09	1.629021e+01	5.954626e+02
2.270000e-06	2.238753e-06	8.987125e-09	1.562526e+01	5.874583e+02
2.280000e-06	2.142713e-06	8.872211e-09	1.495495e+01	5.793047e+02
2.290000e-06	2.045990e-06	8.743489e-09	1.427988e+01	5.710033e+02
2.300000e-06	1.948585e-06	8.612495e-09	1.360005e+01	5.625092e+02
2.310000e-06	1.850517e-06	8.476760e-09	1.291558e+01	5.537443e+02
2.320000e-06	1.751921e-06	8.334130e-09	1.222744e+01	5.446270e+02
2.330000e-06	1.652795e-06	8.187731e-09	1.153559e+01	5.351056e+02
2.340000e-06	1.553134e-06	8.041292e-09	1.084002e+01	5.251789e+02
2.350000e-06	1.452888e-06	7.893971e-09	1.014035e+01	5.148953e+02
2.360000e-06	1.351997e-06	7.742431e-09	9.436195e+00	5.043270e+02
2.370000e-06	1.250522e-06	7.580334e-09	8.727955e+00	4.935314e+02
2.380000e-06	1.148586e-06	7.407853e-09	8.016496e+00	4.825155e+02
2.390000e-06	1.046237e-06	7.229101e-09	7.302159e+00	4.712199e+02
2.400000e-06	9.434595e-07	7.044936e-09	6.584826e+00	4.595316e+02
2.410000e-06	8.402793e-07	6.859786e-09	5.864686e+00	4.473216e+02
2.420000e-06	7.367362e-07	6.667594e-09	5.142012e+00	4.344920e+02
2.430000e-06	6.329489e-07	6.466805e-09	4.417634e+00	4.210119e+02
2.440000e-06	5.290024e-07	6.255092e-09	3.692145e+00	4.069239e+02
2.450000e-06	4.248899e-07	6.034715e-09	2.965497e+00	3.923166e+02
2.460000e-06	3.206245e-07	5.804093e-09	2.237782e+00	3.772715e+02
2.470000e-06	2.162107e-07	5.562362e-09	1.509031e+00	3.618071e+02
2.480000e-06	1.117324e-07	5.313925e-09	7.798302e-01	3.458449e+02
2.490000e-06	7.303822e-09	5.058655e-09	5.097665e-02	3.292150e+02
2.500000e-06	-9.706242e-08	4.793461e-09	-6.774421e-01	3.117023e+02
2.510000e-06	-2.014185e-07	4.510555e-09	-1.405790e+00	2.931147e+02
2.520000e-06	-3.057166e-07	4.209255e-09	-2.133733e+00	2.733420e+02
2.530000e-06	-4.098948e-07	3.895439e-09	-2.860840e+00	2.523731e+02
2.540000e-06	-5.139193e-07	3.564535e-09	-3.586873e+00	2.302544e+02
2.550000e-06	-6.178003e-07	3.210116e-09	-4.311905e+00	2.069941e+02
2.560000e-06	-7.214614e-07	2.832488e-09	-5.035402e+00	1.824446e+02
2.570000e-06	-8.248196e-07	2.428053e-09	-5.756786e+00	1.562128e+02
2.580000e-06	-9.278938e-07	1.990649e-09	-6.476187e+00	1.276444e+02
2.590000e-06	-1.030594e-06	1.507420e-09	-7.192980e+00	9.591264e+01
2.600000e-06	-1.132822e-06	9.655925e-10	-7.906472e+00	6.020522e+01
2.610000e-06	-1.234504e-06	3.611042e-10	-8.616159e+00	1.996832e+01
2.620000e-06	-1.335682e-06	-3.075495e-10	-9.322322e+00	-2.486100e+01
2.630000e-06	-1.436344e-06	-1.041648e-09	-1.002489e+01	-7.370724e+01
2.640000e-06	-1.536421e-06	-1.835120e-09	-1.072337e+01	-1.253487e+02
2.650000e-06	-1.635894e-06	-2.656109e-09	-1.141763e+01	-1.780660e+02
2.660000e-06	-1.734756e-06	-3.457957e-09	-1.210764e+01	-2.299164e+02
2.670000e-06	-1.833034e-06	-4.206702e-09	-1.279356e+01	-2.790667e+02
2.680000e-06	-1.930731e-06	-4.891828e-09	-1.347544e+01	-3.240974e+02
2.690000e-06	-2.027806e-06	-5.506646e-09	-1.415296e+01	-3.642019e+02
2.700000e-06	-2.124202e-06	-6.044114e-09	-1.482575e+01	-3.992342e+02
2.710000e-06	-2.219999e-06	-6.508876e-09	-1.549436e+01	-4.296071e+02
2.720000e-06	-2.315150e-06	-6.918256e-09	-1.615847e+01	-4.560819e+02
2.730000e-06	-2.409475e-06	-7.290520e-09	-1.681681e+01	-4.795216e+02
2.740000e-06	-2.502838e-06	-7.626859e-09	-1.746843e+01	-5.006787e+02
2.750000e-06	-2.595167e-06	-7.926444e-09	-1.811283e+01	-5.200719e+02
2.760000e-06	-2.686480e-06	-8.194689e-09	-1.875015e+01	-5.379675e+02
2.770000e-06	-2.776818e-06	-8.439940e-09	-1.938066e+01	-5.544494e+02
2.780000e-06	-2.866110e-06	-8.670618e-09	-2.000386e+01	-5.695311e+02
2.790000e-06	-2.954356e-06	-8.884097e-09	-2.061977e+01	-5.832595e+02
2.800000e-06	-3.041665e-06	-9.076262e-09	-2.122914e+01	-5.957723e+02
2.810000e-06	-3.127967e-06	-9.255940e-09	-2.183148e+01	-6.072937e+02
2.820000e-06	-3.213070e-06	-9.429538e-09	-2.242546e+01	-6.180801e+02
2.830000e-06	-3.296858e-06	-9.591888e-09	-2.301025e+01	-6.283482e+02
2.840000e-06	-3.379485e-06	-9.740011e-09	-2.358694e+01	-6.382186e+02
2.850000e-06	-3.461037e-06	-9.879555e-09	-2.415612e+01	-6.476992e+02
2.860000e-06	-3.541478e-06	-1.001468e-08	-2.471756e+01	-6.567139e+02
2.870000e-06	-3.620775e-06	-1.014114e-08	-2.527101e+01	-6.651610e+02
2.880000e-06	-3.698684e-06	-1.025802e-08	-2.581477e+01	-6.729766e+02
2.890000e-06	-3.775013e-06	-1.036854e-08	-2.634751e+01	-6.801746e+02
2.900000e-06	-3.849824e-06	-1.047523e-08	-2.686964e+01	-6.868504e+02
2.910000e-06	-3.923219e-06	-1.057664e-08	-2.738191e+01	-6.931479e+02
2.920000e-06	-3.995261e-06	-1.067161e-08	-2.788472e+01	-6.992079e+02
2.930000e-06	-4.065981e-06	-1.076150e-08	-2.837830e+01	-7.051201e+02
2.940000e-06	-4.135151e-06	-1.084846e-08	-2.886107e+01	-7.108995e+02
