# Temperatura_=_19.15
# Concentracion g/m^3_=_13400.0
# C_Vs_to_Am_M_A/Vsm_=_65563218390.804596
# pendiente_HvsI_1/m_=_3716.3
# ordenada_HvsI_A/m_=_1297.0
# frecuencia_Hz_=_300819.04162701376

Tiempo_(s)	Campo_(V.s)	Magnetizacion_(V.s)	Campo_(kA/m)	Magnetizacion_(A/m)
0.000000e+00	-5.491671e-06	-1.238983e-08	-3.830435e+01	-8.100229e+02
1.000000e-08	-5.490378e-06	-1.238922e-08	-3.829534e+01	-8.099012e+02
2.000000e-08	-5.487101e-06	-1.238964e-08	-3.827248e+01	-8.096278e+02
3.000000e-08	-5.482029e-06	-1.238474e-08	-3.823710e+01	-8.091917e+02
4.000000e-08	-5.475344e-06	-1.237640e-08	-3.819047e+01	-8.086093e+02
5.000000e-08	-5.467044e-06	-1.236646e-08	-3.813258e+01	-8.079169e+02
6.000000e-08	-5.456883e-06	-1.235261e-08	-3.806171e+01	-8.071546e+02
7.000000e-08	-5.444673e-06	-1.233402e-08	-3.797654e+01	-8.063475e+02
8.000000e-08	-5.430445e-06	-1.231970e-08	-3.787730e+01	-8.054944e+02
9.000000e-08	-5.413871e-06	-1.230724e-08	-3.776170e+01	-8.045682e+02
1.000000e-07	-5.394904e-06	-1.229070e-08	-3.762940e+01	-8.035291e+02
1.100000e-07	-5.373921e-06	-1.227773e-08	-3.748305e+01	-8.023450e+02
1.200000e-07	-5.351129e-06	-1.225446e-08	-3.732408e+01	-8.010095e+02
1.300000e-07	-5.326835e-06	-1.222712e-08	-3.715462e+01	-7.995495e+02
1.400000e-07	-5.301071e-06	-1.223224e-08	-3.697492e+01	-7.980184e+02
1.500000e-07	-5.273503e-06	-1.218040e-08	-3.678263e+01	-7.964760e+02
1.600000e-07	-5.244167e-06	-1.212400e-08	-3.657802e+01	-7.949633e+02
1.700000e-07	-5.213310e-06	-1.212785e-08	-3.636279e+01	-7.934832e+02
1.800000e-07	-5.180683e-06	-1.209084e-08	-3.613521e+01	-7.919946e+02
1.900000e-07	-5.145940e-06	-1.207893e-08	-3.589289e+01	-7.904234e+02
2.000000e-07	-5.109467e-06	-1.208655e-08	-3.563849e+01	-7.886879e+02
2.100000e-07	-5.071355e-06	-1.203447e-08	-3.537265e+01	-7.867261e+02
2.200000e-07	-5.031421e-06	-1.199490e-08	-3.509411e+01	-7.845170e+02
2.300000e-07	-4.989637e-06	-1.196328e-08	-3.480267e+01	-7.820856e+02
2.400000e-07	-4.945847e-06	-1.189746e-08	-3.449724e+01	-7.794898e+02
2.500000e-07	-4.900283e-06	-1.184106e-08	-3.417943e+01	-7.767956e+02
2.600000e-07	-4.852959e-06	-1.180217e-08	-3.384934e+01	-7.740501e+02
2.700000e-07	-4.803605e-06	-1.178160e-08	-3.350510e+01	-7.712632e+02
2.800000e-07	-4.752115e-06	-1.174170e-08	-3.314595e+01	-7.684059e+02
2.900000e-07	-4.698639e-06	-1.170040e-08	-3.277296e+01	-7.654253e+02
3.000000e-07	-4.643517e-06	-1.165248e-08	-3.238849e+01	-7.622686e+02
3.100000e-07	-4.586833e-06	-1.157835e-08	-3.199312e+01	-7.589071e+02
3.200000e-07	-4.528357e-06	-1.152099e-08	-3.158524e+01	-7.553482e+02
3.300000e-07	-4.468133e-06	-1.145612e-08	-3.116518e+01	-7.516315e+02
3.400000e-07	-4.406462e-06	-1.139463e-08	-3.073503e+01	-7.478101e+02
3.500000e-07	-4.343339e-06	-1.135588e-08	-3.029475e+01	-7.439261e+02
3.600000e-07	-4.278706e-06	-1.130403e-08	-2.984394e+01	-7.399909e+02
3.700000e-07	-4.212381e-06	-1.123576e-08	-2.938132e+01	-7.359791e+02
3.800000e-07	-4.144319e-06	-1.116187e-08	-2.890658e+01	-7.318392e+02
3.900000e-07	-4.074760e-06	-1.108681e-08	-2.842141e+01	-7.275157e+02
4.000000e-07	-4.003880e-06	-1.101310e-08	-2.792702e+01	-7.229744e+02
4.100000e-07	-3.931771e-06	-1.094045e-08	-2.742406e+01	-7.182174e+02
4.200000e-07	-3.858347e-06	-1.087053e-08	-2.691193e+01	-7.132831e+02
4.300000e-07	-3.783245e-06	-1.079565e-08	-2.638809e+01	-7.082287e+02
4.400000e-07	-3.706429e-06	-1.072546e-08	-2.585231e+01	-7.031039e+02
4.500000e-07	-3.628145e-06	-1.064305e-08	-2.530628e+01	-6.979270e+02
4.600000e-07	-3.548353e-06	-1.055468e-08	-2.474973e+01	-6.926730e+02
4.700000e-07	-3.467076e-06	-1.046913e-08	-2.418282e+01	-6.872814e+02
4.800000e-07	-3.384589e-06	-1.037784e-08	-2.360748e+01	-6.816791e+02
4.900000e-07	-3.301054e-06	-1.029107e-08	-2.302482e+01	-6.758101e+02
5.000000e-07	-3.216550e-06	-1.019838e-08	-2.243541e+01	-6.696591e+02
5.100000e-07	-3.131081e-06	-1.009685e-08	-2.183926e+01	-6.632583e+02
5.200000e-07	-3.044559e-06	-9.993121e-09	-2.123577e+01	-6.566737e+02
5.300000e-07	-2.957071e-06	-9.893908e-09	-2.062555e+01	-6.499775e+02
5.400000e-07	-2.868688e-06	-9.791575e-09	-2.000907e+01	-6.432155e+02
5.500000e-07	-2.779354e-06	-9.684687e-09	-1.938597e+01	-6.363868e+02
5.600000e-07	-2.688833e-06	-9.576728e-09	-1.875459e+01	-6.294407e+02
5.700000e-07	-2.597091e-06	-9.466638e-09	-1.811468e+01	-6.222968e+02
5.800000e-07	-2.504412e-06	-9.351091e-09	-1.746825e+01	-6.148756e+02
5.900000e-07	-2.410970e-06	-9.227190e-09	-1.681650e+01	-6.071307e+02
6.000000e-07	-2.316783e-06	-9.099208e-09	-1.615954e+01	-5.990660e+02
6.100000e-07	-2.221792e-06	-8.970699e-09	-1.549698e+01	-5.907309e+02
6.200000e-07	-2.126036e-06	-8.843235e-09	-1.482908e+01	-5.821957e+02
6.300000e-07	-2.029585e-06	-8.713242e-09	-1.415634e+01	-5.735170e+02
6.400000e-07	-1.932367e-06	-8.580179e-09	-1.347824e+01	-5.647081e+02
6.500000e-07	-1.834296e-06	-8.439414e-09	-1.279420e+01	-5.557274e+02
6.600000e-07	-1.735378e-06	-8.289783e-09	-1.210424e+01	-5.464905e+02
6.700000e-07	-1.635772e-06	-8.138145e-09	-1.140949e+01	-5.369015e+02
6.800000e-07	-1.535592e-06	-7.987408e-09	-1.071074e+01	-5.268895e+02
6.900000e-07	-1.434891e-06	-7.832610e-09	-1.000835e+01	-5.164356e+02
7.000000e-07	-1.333737e-06	-7.666066e-09	-9.302806e+00	-5.055767e+02
7.100000e-07	-1.232181e-06	-7.492470e-09	-8.594453e+00	-4.943847e+02
7.200000e-07	-1.130228e-06	-7.316354e-09	-7.883330e+00	-4.829296e+02
7.300000e-07	-1.027862e-06	-7.138733e-09	-7.169329e+00	-4.712405e+02
7.400000e-07	-9.250807e-07	-6.956697e-09	-6.452429e+00	-4.592836e+02
7.500000e-07	-8.219407e-07	-6.766509e-09	-5.733029e+00	-4.469669e+02
7.600000e-07	-7.185396e-07	-6.568985e-09	-5.011807e+00	-4.341697e+02
7.700000e-07	-6.149337e-07	-6.364804e-09	-4.289157e+00	-4.207861e+02
7.800000e-07	-5.111865e-07	-6.152130e-09	-3.565521e+00	-4.067630e+02
7.900000e-07	-4.073310e-07	-5.929243e-09	-2.841130e+00	-3.921150e+02
8.000000e-07	-3.033646e-07	-5.699495e-09	-2.115965e+00	-3.769088e+02
8.100000e-07	-1.993367e-07	-5.462717e-09	-1.390372e+00	-3.612222e+02
8.200000e-07	-9.526072e-08	-5.218955e-09	-6.644426e-01	-3.450943e+02
8.300000e-07	8.850563e-09	-4.965755e-09	6.173259e-02	-3.284888e+02
8.400000e-07	1.129660e-07	-4.700059e-09	7.879370e-01	-3.112885e+02
8.500000e-07	2.170579e-07	-4.421715e-09	1.513977e+00	-2.933228e+02
8.600000e-07	3.210919e-07	-4.132925e-09	2.239613e+00	-2.744194e+02
8.700000e-07	4.250315e-07	-3.832947e-09	2.964591e+00	-2.544539e+02
8.800000e-07	5.288228e-07	-3.515592e-09	3.688534e+00	-2.333733e+02
8.900000e-07	6.324943e-07	-3.177928e-09	4.411642e+00	-2.111733e+02
9.000000e-07	7.359745e-07	-2.821384e-09	5.133415e+00	-1.878335e+02
9.100000e-07	8.392086e-07	-2.445474e-09	5.853472e+00	-1.632302e+02
9.200000e-07	9.421822e-07	-2.042467e-09	6.571712e+00	-1.370643e+02
9.300000e-07	1.044811e-06	-1.604457e-09	7.287544e+00	-1.088419e+02
9.400000e-07	1.147070e-06	-1.127407e-09	8.000803e+00	-7.793262e+01
9.500000e-07	1.248963e-06	-6.073120e-10	8.711506e+00	-4.370622e+01
9.600000e-07	1.350465e-06	-3.378185e-11	9.419479e+00	-5.717436e+00
9.700000e-07	1.451527e-06	6.013346e-10	1.012439e+01	3.611056e+01
9.800000e-07	1.552108e-06	1.292535e-09	1.082594e+01	8.136139e+01
9.900000e-07	1.652153e-06	2.023529e-09	1.152375e+01	1.291043e+02
1.000000e-06	1.751583e-06	2.774084e-09	1.221727e+01	1.779931e+02
1.010000e-06	1.850382e-06	3.517656e-09	1.290639e+01	2.264671e+02
1.020000e-06	1.948419e-06	4.224243e-09	1.359021e+01	2.730058e+02
1.030000e-06	2.045574e-06	4.873017e-09	1.426786e+01	3.163711e+02
1.040000e-06	2.141878e-06	5.458213e-09	1.493958e+01	3.557784e+02
1.050000e-06	2.237407e-06	5.985799e-09	1.560589e+01	3.909568e+02
1.060000e-06	2.332247e-06	6.460304e-09	1.626740e+01	4.220932e+02
1.070000e-06	2.426389e-06	6.881676e-09	1.692404e+01	4.496886e+02
1.080000e-06	2.519777e-06	7.256162e-09	1.757542e+01	4.743748e+02
1.090000e-06	2.612335e-06	7.594759e-09	1.822101e+01	4.967486e+02
1.100000e-06	2.703973e-06	7.906203e-09	1.886019e+01	5.172620e+02
1.110000e-06	2.794564e-06	8.191364e-09	1.949206e+01	5.361903e+02
1.120000e-06	2.883960e-06	8.450915e-09	2.011559e+01	5.536659e+02
1.130000e-06	2.972244e-06	8.689224e-09	2.073137e+01	5.697513e+02
1.140000e-06	3.059561e-06	8.910402e-09	2.134041e+01	5.845140e+02
1.150000e-06	3.145849e-06	9.118220e-09	2.194226e+01	5.980741e+02
1.160000e-06	3.231131e-06	9.310776e-09	2.253711e+01	6.106099e+02
1.170000e-06	3.315416e-06	9.486491e-09	2.312499e+01	6.223281e+02
1.180000e-06	3.398556e-06	9.652226e-09	2.370490e+01	6.334154e+02
1.190000e-06	3.480471e-06	9.813910e-09	2.427625e+01	6.439969e+02
1.200000e-06	3.561131e-06	9.967986e-09	2.483886e+01	6.541180e+02
1.210000e-06	3.640493e-06	1.011092e-08	2.539240e+01	6.637563e+02
1.220000e-06	3.718526e-06	1.024560e-08	2.593668e+01	6.728567e+02
1.230000e-06	3.795187e-06	1.037600e-08	2.647139e+01	6.813737e+02
1.240000e-06	3.870361e-06	1.050050e-08	2.699573e+01	6.893031e+02
1.250000e-06	3.943977e-06	1.061557e-08	2.750920e+01	6.966923e+02
1.260000e-06	4.016130e-06	1.071992e-08	2.801247e+01	7.036275e+02
1.270000e-06	4.086899e-06	1.081824e-08	2.850608e+01	7.102058e+02
1.280000e-06	4.156298e-06	1.091441e-08	2.899014e+01	7.165055e+02
1.290000e-06	4.224249e-06	1.100593e-08	2.946410e+01	7.225674e+02
1.300000e-06	4.290582e-06	1.108955e-08	2.992677e+01	7.283940e+02
1.310000e-06	4.355322e-06	1.116839e-08	3.037833e+01	7.339643e+02
1.320000e-06	4.418575e-06	1.124841e-08	3.081952e+01	7.392560e+02
1.330000e-06	4.480369e-06	1.132930e-08	3.125053e+01	7.442649e+02
1.340000e-06	4.540722e-06	1.140438e-08	3.167150e+01	7.490127e+02
1.350000e-06	4.599429e-06	1.146957e-08	3.208097e+01	7.535400e+02
1.360000e-06	4.656360e-06	1.153055e-08	3.247806e+01	7.578907e+02
1.370000e-06	4.711609e-06	1.159326e-08	3.286343e+01	7.620937e+02
1.380000e-06	4.765136e-06	1.165410e-08	3.323678e+01	7.661525e+02
1.390000e-06	4.816706e-06	1.170761e-08	3.359648e+01	7.700459e+02
1.400000e-06	4.866262e-06	1.175797e-08	3.394213e+01	7.737406e+02
1.410000e-06	4.914019e-06	1.181338e-08	3.427524e+01	7.772075e+02
1.420000e-06	4.960149e-06	1.187059e-08	3.459699e+01	7.804366e+02
1.430000e-06	5.004667e-06	1.191749e-08	3.490750e+01	7.834415e+02
1.440000e-06	5.047324e-06	1.195405e-08	3.520504e+01	7.862539e+02
1.450000e-06	5.088066e-06	1.199070e-08	3.548921e+01	7.889092e+02
1.460000e-06	5.127066e-06	1.202976e-08	3.576124e+01	7.914321e+02
1.470000e-06	5.164398e-06	1.206414e-08	3.602163e+01	7.938277e+02
1.480000e-06	5.199978e-06	1.209319e-08	3.626980e+01	7.960823e+02
1.490000e-06	5.233608e-06	1.212332e-08	3.650436e+01	7.981736e+02
1.500000e-06	5.265337e-06	1.215559e-08	3.672568e+01	8.000849e+02
1.510000e-06	5.295339e-06	1.218504e-08	3.693494e+01	8.018159e+02
1.520000e-06	5.323544e-06	1.220781e-08	3.713167e+01	8.033861e+02
1.530000e-06	5.349749e-06	1.222638e-08	3.731445e+01	8.048270e+02
1.540000e-06	5.373929e-06	1.224652e-08	3.748311e+01	8.061689e+02
1.550000e-06	5.396257e-06	1.226681e-08	3.763884e+01	8.074268e+02
1.560000e-06	5.416905e-06	1.228252e-08	3.778286e+01	8.085930e+02
1.570000e-06	5.435760e-06	1.229509e-08	3.791438e+01	8.096403e+02
1.580000e-06	5.452595e-06	1.230904e-08	3.803180e+01	8.105340e+02
1.590000e-06	5.467405e-06	1.232206e-08	3.813510e+01	8.112487e+02
1.600000e-06	5.480160e-06	1.233027e-08	3.822406e+01	8.117811e+02
1.610000e-06	5.490712e-06	1.233595e-08	3.829767e+01	8.121542e+02
1.620000e-06	5.499140e-06	1.234224e-08	3.835645e+01	8.124088e+02
1.630000e-06	5.505683e-06	1.234691e-08	3.840209e+01	8.125884e+02
1.640000e-06	5.510440e-06	1.234751e-08	3.843527e+01	8.127208e+02
1.650000e-06	5.513229e-06	1.234663e-08	3.845472e+01	8.128078e+02
1.660000e-06	5.513986e-06	1.234629e-08	3.846000e+01	8.128245e+02
1.670000e-06	5.512888e-06	1.234666e-08	3.845234e+01	8.127314e+02
1.680000e-06	5.510130e-06	1.234529e-08	3.843311e+01	8.124923e+02
1.690000e-06	5.505647e-06	1.233842e-08	3.840184e+01	8.120905e+02
1.700000e-06	5.499219e-06	1.232859e-08	3.835700e+01	8.115367e+02
1.710000e-06	5.491021e-06	1.231898e-08	3.829982e+01	8.108643e+02
1.720000e-06	5.481160e-06	1.230939e-08	3.823104e+01	8.101140e+02
1.730000e-06	5.469411e-06	1.230016e-08	3.814909e+01	8.093156e+02
1.740000e-06	5.455625e-06	1.228631e-08	3.805293e+01	8.084737e+02
1.750000e-06	5.439843e-06	1.227900e-08	3.794285e+01	8.075663e+02
1.760000e-06	5.421686e-06	1.225528e-08	3.781621e+01	8.065546e+02
1.770000e-06	5.400691e-06	1.223263e-08	3.766977e+01	8.054031e+02
1.780000e-06	5.377393e-06	1.222205e-08	3.750727e+01	8.040988e+02
1.790000e-06	5.352825e-06	1.218111e-08	3.733590e+01	8.026615e+02
1.800000e-06	5.327484e-06	1.217370e-08	3.715915e+01	8.011404e+02
1.810000e-06	5.300595e-06	1.217536e-08	3.697160e+01	7.995959e+02
1.820000e-06	5.271365e-06	1.214564e-08	3.676772e+01	7.980750e+02
1.830000e-06	5.240372e-06	1.213690e-08	3.655155e+01	7.965899e+02
1.840000e-06	5.207708e-06	1.208784e-08	3.632372e+01	7.951084e+02
1.850000e-06	5.173198e-06	1.204091e-08	3.608301e+01	7.935619e+02
1.860000e-06	5.137045e-06	1.204339e-08	3.583084e+01	7.918678e+02
1.870000e-06	5.098800e-06	1.200751e-08	3.556408e+01	7.899577e+02
1.880000e-06	5.058605e-06	1.197599e-08	3.528372e+01	7.878009e+02
1.890000e-06	5.016883e-06	1.195611e-08	3.499271e+01	7.854130e+02
1.900000e-06	4.973335e-06	1.192951e-08	3.468896e+01	7.828466e+02
1.910000e-06	4.928011e-06	1.191078e-08	3.437283e+01	7.801684e+02
1.920000e-06	4.880870e-06	1.183369e-08	3.404402e+01	7.774316e+02
1.930000e-06	4.831859e-06	1.179050e-08	3.370217e+01	7.746547e+02
1.940000e-06	4.781192e-06	1.176356e-08	3.334877e+01	7.718164e+02
1.950000e-06	4.728487e-06	1.168815e-08	3.298115e+01	7.688670e+02
1.960000e-06	4.673804e-06	1.167397e-08	3.259974e+01	7.657514e+02
1.970000e-06	4.617431e-06	1.162275e-08	3.220654e+01	7.624344e+02
1.980000e-06	4.559419e-06	1.156639e-08	3.180190e+01	7.589153e+02
1.990000e-06	4.499942e-06	1.153829e-08	3.138705e+01	7.552279e+02
2.000000e-06	4.438762e-06	1.145006e-08	3.096032e+01	7.514246e+02
2.010000e-06	4.375875e-06	1.138749e-08	3.052168e+01	7.475517e+02
2.020000e-06	4.311468e-06	1.132905e-08	3.007245e+01	7.436283e+02
2.030000e-06	4.245538e-06	1.127539e-08	2.961258e+01	7.396366e+02
2.040000e-06	4.178187e-06	1.122382e-08	2.914281e+01	7.355289e+02
2.050000e-06	4.109152e-06	1.115329e-08	2.866130e+01	7.312486e+02
2.060000e-06	4.038446e-06	1.109999e-08	2.816812e+01	7.267551e+02
2.070000e-06	3.966442e-06	1.101772e-08	2.766589e+01	7.220421e+02
2.080000e-06	3.893164e-06	1.093553e-08	2.715478e+01	7.171411e+02
2.090000e-06	3.818402e-06	1.085457e-08	2.663332e+01	7.121075e+02
2.100000e-06	3.741909e-06	1.078039e-08	2.609978e+01	7.069948e+02
2.110000e-06	3.663777e-06	1.071967e-08	2.555481e+01	7.018296e+02
2.120000e-06	3.584327e-06	1.063767e-08	2.500065e+01	6.965962e+02
2.130000e-06	3.503734e-06	1.056217e-08	2.443851e+01	6.912402e+02
2.140000e-06	3.421998e-06	1.047108e-08	2.386841e+01	6.856886e+02
2.150000e-06	3.339152e-06	1.037080e-08	2.329055e+01	6.798796e+02
2.160000e-06	3.255141e-06	1.028300e-08	2.270458e+01	6.737878e+02
2.170000e-06	3.169806e-06	1.019223e-08	2.210937e+01	6.674356e+02
2.180000e-06	3.083148e-06	1.009766e-08	2.150493e+01	6.608840e+02
2.190000e-06	2.995453e-06	1.000145e-08	2.089326e+01	6.542064e+02
2.200000e-06	2.906859e-06	9.899084e-09	2.027532e+01	6.474568e+02
2.210000e-06	2.817289e-06	9.795161e-09	1.965056e+01	6.406449e+02
2.220000e-06	2.726771e-06	9.685930e-09	1.901920e+01	6.337302e+02
2.230000e-06	2.635389e-06	9.574119e-09	1.838181e+01	6.266358e+02
2.240000e-06	2.543105e-06	9.465284e-09	1.773813e+01	6.192793e+02
2.250000e-06	2.449780e-06	9.350999e-09	1.708719e+01	6.116052e+02
2.260000e-06	2.355447e-06	9.239018e-09	1.642922e+01	6.036061e+02
2.270000e-06	2.260278e-06	9.117028e-09	1.576542e+01	5.953231e+02
2.280000e-06	2.164366e-06	8.989780e-09	1.509643e+01	5.868249e+02
2.290000e-06	2.067702e-06	8.858071e-09	1.442220e+01	5.781740e+02
2.300000e-06	1.970325e-06	8.719578e-09	1.374300e+01	5.693945e+02
2.310000e-06	1.872352e-06	8.583034e-09	1.305963e+01	5.604565e+02
2.320000e-06	1.773852e-06	8.444218e-09	1.237260e+01	5.512827e+02
2.330000e-06	1.674874e-06	8.307685e-09	1.168223e+01	5.417764e+02
2.340000e-06	1.575354e-06	8.160099e-09	1.098808e+01	5.318586e+02
2.350000e-06	1.475209e-06	7.999787e-09	1.028957e+01	5.214980e+02
2.360000e-06	1.374445e-06	7.837488e-09	9.586743e+00	5.107203e+02
2.370000e-06	1.273044e-06	7.671323e-09	8.879468e+00	4.995931e+02
2.380000e-06	1.171141e-06	7.498942e-09	8.168695e+00	4.881899e+02
2.390000e-06	1.068824e-06	7.316837e-09	7.455037e+00	4.765514e+02
2.400000e-06	9.660451e-07	7.130572e-09	6.738156e+00	4.646579e+02
2.410000e-06	8.628981e-07	6.946244e-09	6.018706e+00	4.524280e+02
2.420000e-06	7.593954e-07	6.758720e-09	5.296776e+00	4.397438e+02
2.430000e-06	6.555766e-07	6.560437e-09	4.572641e+00	4.264925e+02
2.440000e-06	5.516044e-07	6.347047e-09	3.847436e+00	4.126074e+02
2.450000e-06	4.474786e-07	6.123258e-09	3.121159e+00	3.980888e+02
2.460000e-06	3.431981e-07	5.893051e-09	2.393803e+00	3.829952e+02
2.470000e-06	2.388243e-07	5.653549e-09	1.665797e+00	3.674062e+02
2.480000e-06	1.344113e-07	5.406297e-09	9.375176e-01	3.513728e+02
2.490000e-06	2.994183e-08	5.152920e-09	2.088440e-01	3.348770e+02
2.500000e-06	-7.455021e-08	4.895349e-09	-5.199870e-01	3.178173e+02
2.510000e-06	-1.789859e-07	4.628643e-09	-1.248425e+00	3.000308e+02
2.520000e-06	-2.833608e-07	4.343289e-09	-1.976439e+00	2.813409e+02
2.530000e-06	-3.876214e-07	4.039862e-09	-2.703656e+00	2.616099e+02
2.540000e-06	-4.917603e-07	3.721963e-09	-3.430023e+00	2.407694e+02
2.550000e-06	-5.957928e-07	3.390146e-09	-4.155649e+00	2.188091e+02
2.560000e-06	-6.995877e-07	3.040790e-09	-4.879618e+00	1.957190e+02
2.570000e-06	-8.030549e-07	2.669134e-09	-5.601301e+00	1.714048e+02
2.580000e-06	-9.062017e-07	2.274073e-09	-6.320749e+00	1.456089e+02
2.590000e-06	-1.008962e-06	1.852322e-09	-7.037502e+00	1.178771e+02
2.600000e-06	-1.111276e-06	1.391814e-09	-7.751142e+00	8.759916e+01
2.610000e-06	-1.213134e-06	8.813223e-10	-8.461601e+00	5.413026e+01
2.620000e-06	-1.314523e-06	3.179544e-10	-9.168784e+00	1.696910e+01
2.630000e-06	-1.415380e-06	-2.994279e-10	-9.872265e+00	-2.405342e+01
2.640000e-06	-1.515599e-06	-9.740078e-10	-1.057129e+01	-6.863241e+01
2.650000e-06	-1.615172e-06	-1.698101e-09	-1.126581e+01	-1.159430e+02
2.660000e-06	-1.714181e-06	-2.449447e-09	-1.195640e+01	-1.647141e+02
2.670000e-06	-1.812667e-06	-3.199311e-09	-1.264334e+01	-2.134105e+02
2.680000e-06	-1.910606e-06	-3.921133e-09	-1.332646e+01	-2.604811e+02
2.690000e-06	-2.007896e-06	-4.596443e-09	-1.400505e+01	-3.046097e+02
2.700000e-06	-2.104481e-06	-5.213763e-09	-1.467874e+01	-3.449054e+02
2.710000e-06	-2.200438e-06	-5.767957e-09	-1.534804e+01	-3.809883e+02
2.720000e-06	-2.295724e-06	-6.258058e-09	-1.601265e+01	-4.129568e+02
2.730000e-06	-2.390226e-06	-6.695471e-09	-1.667180e+01	-4.412594e+02
2.740000e-06	-2.483859e-06	-7.093092e-09	-1.732490e+01	-4.665156e+02
2.750000e-06	-2.576521e-06	-7.451497e-09	-1.797121e+01	-4.893410e+02
2.760000e-06	-2.668107e-06	-7.772962e-09	-1.861002e+01	-5.102241e+02
2.770000e-06	-2.758655e-06	-8.064408e-09	-1.924159e+01	-5.294771e+02
2.780000e-06	-2.848247e-06	-8.333340e-09	-1.986649e+01	-5.472577e+02
2.790000e-06	-2.936872e-06	-8.584087e-09	-2.048465e+01	-5.636365e+02
2.800000e-06	-3.024537e-06	-8.815976e-09	-2.109611e+01	-5.786748e+02
2.810000e-06	-3.111179e-06	-9.031606e-09	-2.170045e+01	-5.924794e+02
2.820000e-06	-3.196650e-06	-9.234899e-09	-2.229660e+01	-6.052177e+02
2.830000e-06	-3.280847e-06	-9.425426e-09	-2.288388e+01	-6.170940e+02
2.840000e-06	-3.363823e-06	-9.600532e-09	-2.346263e+01	-6.283035e+02
2.850000e-06	-3.445716e-06	-9.760707e-09	-2.403384e+01	-6.389869e+02
2.860000e-06	-3.526512e-06	-9.910761e-09	-2.459739e+01	-6.492068e+02
2.870000e-06	-3.606040e-06	-1.005536e-08	-2.515209e+01	-6.589528e+02
2.880000e-06	-3.684194e-06	-1.019656e-08	-2.569722e+01	-6.681733e+02
2.890000e-06	-3.760867e-06	-1.033227e-08	-2.623201e+01	-6.768175e+02
2.900000e-06	-3.836012e-06	-1.046001e-08	-2.675615e+01	-6.848706e+02
2.910000e-06	-3.909735e-06	-1.057755e-08	-2.727036e+01	-6.923694e+02
2.920000e-06	-3.982125e-06	-1.068464e-08	-2.777528e+01	-6.993937e+02
2.930000e-06	-4.053186e-06	-1.078614e-08	-2.827094e+01	-7.060409e+02
2.940000e-06	-4.122738e-06	-1.088445e-08	-2.875606e+01	-7.123955e+02
