# Temperatura_=_24.8
# Concentracion g/m^3_=_13400.0
# C_Vs_to_Am_M_A/Vsm_=_65563218390.804596
# pendiente_HvsI_1/m_=_3716.3
# ordenada_HvsI_A/m_=_1297.0
# frecuencia_Hz_=_300815.51614722895

Tiempo_(s)	Campo_(V.s)	Magnetizacion_(V.s)	Campo_(kA/m)	Magnetizacion_(A/m)
0.000000e+00	-5.496144e-06	-1.199369e-08	-3.830668e+01	-7.853028e+02
1.000000e-08	-5.494693e-06	-1.199235e-08	-3.829657e+01	-7.851182e+02
2.000000e-08	-5.491211e-06	-1.199392e-08	-3.827230e+01	-7.848043e+02
3.000000e-08	-5.485959e-06	-1.199293e-08	-3.823570e+01	-7.843740e+02
4.000000e-08	-5.479080e-06	-1.198797e-08	-3.818775e+01	-7.838526e+02
5.000000e-08	-5.470532e-06	-1.197673e-08	-3.812817e+01	-7.832671e+02
6.000000e-08	-5.460105e-06	-1.195995e-08	-3.805550e+01	-7.826325e+02
7.000000e-08	-5.447587e-06	-1.194265e-08	-3.796825e+01	-7.819439e+02
8.000000e-08	-5.433109e-06	-1.193609e-08	-3.786735e+01	-7.811781e+02
9.000000e-08	-5.416341e-06	-1.194858e-08	-3.775047e+01	-7.803032e+02
1.000000e-07	-5.397153e-06	-1.194329e-08	-3.761674e+01	-7.792950e+02
1.100000e-07	-5.375977e-06	-1.190965e-08	-3.746915e+01	-7.781500e+02
1.200000e-07	-5.352997e-06	-1.187685e-08	-3.730899e+01	-7.768909e+02
1.300000e-07	-5.328493e-06	-1.183210e-08	-3.713820e+01	-7.755603e+02
1.400000e-07	-5.302500e-06	-1.181418e-08	-3.695704e+01	-7.742042e+02
1.500000e-07	-5.274692e-06	-1.182673e-08	-3.676322e+01	-7.728517e+02
1.600000e-07	-5.245141e-06	-1.177710e-08	-3.655726e+01	-7.714997e+02
1.700000e-07	-5.214065e-06	-1.176155e-08	-3.634067e+01	-7.701097e+02
1.800000e-07	-5.181116e-06	-1.177835e-08	-3.611102e+01	-7.686179e+02
1.900000e-07	-5.146030e-06	-1.171712e-08	-3.586648e+01	-7.669570e+02
2.000000e-07	-5.109340e-06	-1.168769e-08	-3.561076e+01	-7.650804e+02
2.100000e-07	-5.071019e-06	-1.165641e-08	-3.534367e+01	-7.629786e+02
2.200000e-07	-5.030892e-06	-1.158990e-08	-3.506400e+01	-7.606828e+02
2.300000e-07	-4.988934e-06	-1.158659e-08	-3.477156e+01	-7.582518e+02
2.400000e-07	-4.944924e-06	-1.156643e-08	-3.446482e+01	-7.557483e+02
2.500000e-07	-4.899125e-06	-1.151541e-08	-3.414561e+01	-7.532140e+02
2.600000e-07	-4.851616e-06	-1.148017e-08	-3.381449e+01	-7.506534e+02
2.700000e-07	-4.802125e-06	-1.141841e-08	-3.346955e+01	-7.480328e+02
2.800000e-07	-4.750504e-06	-1.137197e-08	-3.310976e+01	-7.452953e+02
2.900000e-07	-4.696910e-06	-1.133901e-08	-3.273623e+01	-7.423850e+02
3.000000e-07	-4.641648e-06	-1.128889e-08	-3.235107e+01	-7.392708e+02
3.100000e-07	-4.584788e-06	-1.123636e-08	-3.195477e+01	-7.359596e+02
3.200000e-07	-4.526070e-06	-1.119693e-08	-3.154552e+01	-7.324931e+02
3.300000e-07	-4.465599e-06	-1.115214e-08	-3.112405e+01	-7.289299e+02
3.400000e-07	-4.403670e-06	-1.107720e-08	-3.069242e+01	-7.253198e+02
3.500000e-07	-4.340273e-06	-1.101483e-08	-3.025056e+01	-7.216823e+02
3.600000e-07	-4.275420e-06	-1.095646e-08	-2.979855e+01	-7.179973e+02
3.700000e-07	-4.208891e-06	-1.089369e-08	-2.933486e+01	-7.142126e+02
3.800000e-07	-4.140658e-06	-1.084390e-08	-2.885930e+01	-7.102657e+02
3.900000e-07	-4.070966e-06	-1.077855e-08	-2.837357e+01	-7.061099e+02
4.000000e-07	-3.999912e-06	-1.070958e-08	-2.787834e+01	-7.017333e+02
4.100000e-07	-3.927656e-06	-1.064442e-08	-2.737473e+01	-6.971641e+02
4.200000e-07	-3.853982e-06	-1.057037e-08	-2.686124e+01	-6.924580e+02
4.300000e-07	-3.778590e-06	-1.049080e-08	-2.633578e+01	-6.876734e+02
4.400000e-07	-3.701611e-06	-1.041143e-08	-2.579926e+01	-6.828452e+02
4.500000e-07	-3.623182e-06	-1.034203e-08	-2.525263e+01	-6.779683e+02
4.600000e-07	-3.543223e-06	-1.026898e-08	-2.469533e+01	-6.729974e+02
4.700000e-07	-3.461804e-06	-1.018808e-08	-2.412786e+01	-6.678640e+02
4.800000e-07	-3.379157e-06	-1.009969e-08	-2.355184e+01	-6.625038e+02
4.900000e-07	-3.295402e-06	-1.000861e-08	-2.296809e+01	-6.568817e+02
5.000000e-07	-3.210705e-06	-9.921432e-09	-2.237777e+01	-6.510058e+02
5.100000e-07	-3.125092e-06	-9.828577e-09	-2.178107e+01	-6.449223e+02
5.200000e-07	-3.038473e-06	-9.734061e-09	-2.117736e+01	-6.386950e+02
5.300000e-07	-2.950862e-06	-9.639252e-09	-2.056674e+01	-6.323772e+02
5.400000e-07	-2.862355e-06	-9.540059e-09	-1.994986e+01	-6.259880e+02
5.500000e-07	-2.772823e-06	-9.438189e-09	-1.932585e+01	-6.195033e+02
5.600000e-07	-2.682027e-06	-9.332488e-09	-1.869303e+01	-6.128652e+02
5.700000e-07	-2.590114e-06	-9.222335e-09	-1.805242e+01	-6.060053e+02
5.800000e-07	-2.497350e-06	-9.111409e-09	-1.740588e+01	-5.988720e+02
5.900000e-07	-2.403813e-06	-9.001169e-09	-1.675394e+01	-5.914498e+02
6.000000e-07	-2.309464e-06	-8.885698e-09	-1.609636e+01	-5.837624e+02
6.100000e-07	-2.214323e-06	-8.764979e-09	-1.543325e+01	-5.758573e+02
6.200000e-07	-2.118474e-06	-8.638141e-09	-1.476521e+01	-5.677800e+02
6.300000e-07	-2.021914e-06	-8.507784e-09	-1.409221e+01	-5.595485e+02
6.400000e-07	-1.924566e-06	-8.377426e-09	-1.341372e+01	-5.511399e+02
6.500000e-07	-1.826351e-06	-8.241728e-09	-1.272919e+01	-5.424956e+02
6.600000e-07	-1.727282e-06	-8.101876e-09	-1.203870e+01	-5.335429e+02
6.700000e-07	-1.627481e-06	-7.960326e-09	-1.134312e+01	-5.242231e+02
6.800000e-07	-1.527132e-06	-7.815984e-09	-1.064371e+01	-5.145146e+02
6.900000e-07	-1.426363e-06	-7.664447e-09	-9.941378e+00	-5.044383e+02
7.000000e-07	-1.325180e-06	-7.505071e-09	-9.236159e+00	-4.940430e+02
7.100000e-07	-1.223524e-06	-7.339136e-09	-8.527642e+00	-4.833770e+02
7.200000e-07	-1.121404e-06	-7.165818e-09	-7.815892e+00	-4.724568e+02
7.300000e-07	-1.018888e-06	-6.990050e-09	-7.101384e+00	-4.612487e+02
7.400000e-07	-9.160344e-07	-6.815682e-09	-6.384519e+00	-4.496719e+02
7.500000e-07	-8.128658e-07	-6.637492e-09	-5.665461e+00	-4.376235e+02
7.600000e-07	-7.094102e-07	-6.446409e-09	-4.944403e+00	-4.250151e+02
7.700000e-07	-6.057228e-07	-6.241627e-09	-4.221729e+00	-4.118049e+02
7.800000e-07	-5.018321e-07	-6.030363e-09	-3.497638e+00	-3.980099e+02
7.900000e-07	-3.977727e-07	-5.814526e-09	-2.772371e+00	-3.836907e+02
8.000000e-07	-2.935857e-07	-5.589831e-09	-2.046215e+00	-3.689134e+02
8.100000e-07	-1.892808e-07	-5.354664e-09	-1.319238e+00	-3.537030e+02
8.200000e-07	-8.491790e-08	-5.114241e-09	-5.918555e-01	-3.380111e+02
8.300000e-07	1.949105e-08	-4.869210e-09	1.358475e-01	-3.217106e+02
8.400000e-07	1.239432e-07	-4.609607e-09	8.638513e-01	-3.046255e+02
8.500000e-07	2.283398e-07	-4.331029e-09	1.591468e+00	-2.865834e+02
8.600000e-07	3.326752e-07	-4.038836e-09	2.318659e+00	-2.674673e+02
8.700000e-07	4.368952e-07	-3.734372e-09	3.045045e+00	-2.472407e+02
8.800000e-07	5.409041e-07	-3.413161e-09	3.769960e+00	-2.259272e+02
8.900000e-07	6.447388e-07	-3.070010e-09	4.493660e+00	-2.035418e+02
9.000000e-07	7.483696e-07	-2.706186e-09	5.215940e+00	-1.799963e+02
9.100000e-07	8.516817e-07	-2.323184e-09	5.935998e+00	-1.550128e+02
9.200000e-07	9.546400e-07	-1.912983e-09	6.653590e+00	-1.280880e+02
9.300000e-07	1.057275e-06	-1.459628e-09	7.368926e+00	-9.853757e+01
9.400000e-07	1.159583e-06	-9.518393e-10	8.081990e+00	-6.562676e+01
9.500000e-07	1.261528e-06	-3.888560e-10	8.792520e+00	-2.876419e+01
9.600000e-07	1.363006e-06	2.339222e-10	9.499795e+00	1.229151e+01
9.700000e-07	1.463977e-06	9.199875e-10	1.020354e+01	5.727195e+01
9.800000e-07	1.564577e-06	1.659037e-09	1.090469e+01	1.053395e+02
9.900000e-07	1.664776e-06	2.425132e-09	1.160305e+01	1.551553e+02
1.000000e-06	1.764382e-06	3.188723e-09	1.229728e+01	2.050673e+02
1.010000e-06	1.863163e-06	3.922587e-09	1.298576e+01	2.533750e+02
1.020000e-06	1.961010e-06	4.602905e-09	1.366772e+01	2.986046e+02
1.030000e-06	2.058059e-06	5.216151e-09	1.434413e+01	3.397285e+02
1.040000e-06	2.154402e-06	5.761507e-09	1.501562e+01	3.762759e+02
1.050000e-06	2.249960e-06	6.246218e-09	1.568163e+01	4.083157e+02
1.060000e-06	2.344745e-06	6.675672e-09	1.634226e+01	4.363303e+02
1.070000e-06	2.438831e-06	7.053137e-09	1.699801e+01	4.610232e+02
1.080000e-06	2.532164e-06	7.387110e-09	1.764852e+01	4.831217e+02
1.090000e-06	2.624685e-06	7.688864e-09	1.829337e+01	5.032246e+02
1.100000e-06	2.716284e-06	7.966654e-09	1.893178e+01	5.217282e+02
1.110000e-06	2.806721e-06	8.224344e-09	1.956211e+01	5.388332e+02
1.120000e-06	2.895955e-06	8.460742e-09	2.018405e+01	5.546101e+02
1.130000e-06	2.984210e-06	8.676284e-09	2.079916e+01	5.690883e+02
1.140000e-06	3.071506e-06	8.873916e-09	2.140759e+01	5.823298e+02
1.150000e-06	3.157762e-06	9.059519e-09	2.200877e+01	5.944647e+02
1.160000e-06	3.243000e-06	9.233003e-09	2.260286e+01	6.056829e+02
1.170000e-06	3.327283e-06	9.390938e-09	2.319029e+01	6.161924e+02
1.180000e-06	3.410389e-06	9.541369e-09	2.376951e+01	6.261683e+02
1.190000e-06	3.492164e-06	9.689903e-09	2.433947e+01	6.357154e+02
1.200000e-06	3.572681e-06	9.831178e-09	2.490065e+01	6.448578e+02
1.210000e-06	3.651899e-06	9.959912e-09	2.545277e+01	6.535580e+02
1.220000e-06	3.729834e-06	1.007996e-08	2.599596e+01	6.617553e+02
1.230000e-06	3.806468e-06	1.019630e-08	2.653008e+01	6.694064e+02
1.240000e-06	3.881597e-06	1.030601e-08	2.705371e+01	6.765124e+02
1.250000e-06	3.955102e-06	1.040523e-08	2.756602e+01	6.831251e+02
1.260000e-06	4.027142e-06	1.049691e-08	2.806812e+01	6.893307e+02
1.270000e-06	4.097780e-06	1.058692e-08	2.856045e+01	6.952239e+02
1.280000e-06	4.167044e-06	1.067453e-08	2.904321e+01	7.008808e+02
1.290000e-06	4.234898e-06	1.075660e-08	2.951613e+01	7.063433e+02
1.300000e-06	4.301062e-06	1.083356e-08	2.997728e+01	7.116190e+02
1.310000e-06	4.365571e-06	1.090688e-08	3.042688e+01	7.166930e+02
1.320000e-06	4.428668e-06	1.097893e-08	3.086665e+01	7.215464e+02
1.330000e-06	4.490364e-06	1.104926e-08	3.129665e+01	7.261701e+02
1.340000e-06	4.550610e-06	1.111518e-08	3.171656e+01	7.305709e+02
1.350000e-06	4.609163e-06	1.117730e-08	3.212465e+01	7.347675e+02
1.360000e-06	4.665916e-06	1.123829e-08	3.252021e+01	7.387807e+02
1.370000e-06	4.721016e-06	1.129704e-08	3.290424e+01	7.426229e+02
1.380000e-06	4.774436e-06	1.135179e-08	3.327657e+01	7.462937e+02
1.390000e-06	4.825921e-06	1.140245e-08	3.363540e+01	7.497826e+02
1.400000e-06	4.875309e-06	1.145048e-08	3.397962e+01	7.530769e+02
1.410000e-06	4.922903e-06	1.149712e-08	3.431134e+01	7.561710e+02
1.420000e-06	4.968916e-06	1.154180e-08	3.463204e+01	7.590719e+02
1.430000e-06	5.013293e-06	1.158164e-08	3.494133e+01	7.617981e+02
1.440000e-06	5.055778e-06	1.161848e-08	3.523745e+01	7.643721e+02
1.450000e-06	5.096319e-06	1.165808e-08	3.552000e+01	7.668115e+02
1.460000e-06	5.135164e-06	1.169664e-08	3.579074e+01	7.691219e+02
1.470000e-06	5.172349e-06	1.172815e-08	3.604992e+01	7.712957e+02
1.480000e-06	5.207723e-06	1.175544e-08	3.629646e+01	7.733176e+02
1.490000e-06	5.241109e-06	1.178262e-08	3.652915e+01	7.751741e+02
1.500000e-06	5.272646e-06	1.180904e-08	3.674896e+01	7.768621e+02
1.510000e-06	5.302493e-06	1.183127e-08	3.695698e+01	7.783930e+02
1.520000e-06	5.330628e-06	1.185003e-08	3.715308e+01	7.797893e+02
1.530000e-06	5.356705e-06	1.187017e-08	3.733482e+01	7.810765e+02
1.540000e-06	5.380667e-06	1.189093e-08	3.750183e+01	7.822722e+02
1.550000e-06	5.402840e-06	1.190818e-08	3.765638e+01	7.833793e+02
1.560000e-06	5.423334e-06	1.192144e-08	3.779921e+01	7.843856e+02
1.570000e-06	5.441965e-06	1.193301e-08	3.792907e+01	7.852703e+02
1.580000e-06	5.458531e-06	1.194557e-08	3.804452e+01	7.860151e+02
1.590000e-06	5.473097e-06	1.195514e-08	3.814605e+01	7.866135e+02
1.600000e-06	5.485604e-06	1.195871e-08	3.823322e+01	7.870759e+02
1.610000e-06	5.495900e-06	1.196085e-08	3.830498e+01	7.874258e+02
1.620000e-06	5.504136e-06	1.196784e-08	3.836238e+01	7.876906e+02
1.630000e-06	5.510530e-06	1.197761e-08	3.840695e+01	7.878897e+02
1.640000e-06	5.515100e-06	1.198114e-08	3.843880e+01	7.880269e+02
1.650000e-06	5.517634e-06	1.197889e-08	3.845646e+01	7.880888e+02
1.660000e-06	5.518142e-06	1.197835e-08	3.846000e+01	7.880520e+02
1.670000e-06	5.516903e-06	1.197935e-08	3.845137e+01	7.878946e+02
1.680000e-06	5.513980e-06	1.197614e-08	3.843099e+01	7.876077e+02
1.690000e-06	5.509200e-06	1.196601e-08	3.839768e+01	7.872001e+02
1.700000e-06	5.502486e-06	1.195206e-08	3.835088e+01	7.866955e+02
1.710000e-06	5.494042e-06	1.194343e-08	3.829203e+01	7.861216e+02
1.720000e-06	5.483957e-06	1.194061e-08	3.822174e+01	7.854968e+02
1.730000e-06	5.471980e-06	1.193872e-08	3.813826e+01	7.848209e+02
1.740000e-06	5.457922e-06	1.191845e-08	3.804029e+01	7.840740e+02
1.750000e-06	5.441884e-06	1.187750e-08	3.792850e+01	7.832247e+02
1.760000e-06	5.423443e-06	1.186090e-08	3.779998e+01	7.822459e+02
1.770000e-06	5.402150e-06	1.185552e-08	3.765157e+01	7.811288e+02
1.780000e-06	5.378616e-06	1.185817e-08	3.748754e+01	7.798908e+02
1.790000e-06	5.353894e-06	1.186228e-08	3.731524e+01	7.785711e+02
1.800000e-06	5.328435e-06	1.179988e-08	3.713779e+01	7.772169e+02
1.810000e-06	5.301349e-06	1.178151e-08	3.694901e+01	7.758623e+02
1.820000e-06	5.271858e-06	1.180579e-08	3.674347e+01	7.745120e+02
1.830000e-06	5.240655e-06	1.175305e-08	3.652599e+01	7.731346e+02
1.840000e-06	5.207783e-06	1.174964e-08	3.629688e+01	7.716702e+02
1.850000e-06	5.173032e-06	1.174020e-08	3.605467e+01	7.700502e+02
1.860000e-06	5.136606e-06	1.167860e-08	3.580080e+01	7.682217e+02
1.870000e-06	5.098117e-06	1.169407e-08	3.553254e+01	7.661665e+02
1.880000e-06	5.057762e-06	1.164532e-08	3.525127e+01	7.639077e+02
1.890000e-06	5.015899e-06	1.157450e-08	3.495950e+01	7.614998e+02
1.900000e-06	4.972232e-06	1.157420e-08	3.465515e+01	7.590069e+02
1.910000e-06	4.926745e-06	1.150640e-08	3.433812e+01	7.564771e+02
1.920000e-06	4.879356e-06	1.148790e-08	3.400783e+01	7.539235e+02
1.930000e-06	4.830128e-06	1.147515e-08	3.366472e+01	7.513198e+02
1.940000e-06	4.779283e-06	1.139292e-08	3.331035e+01	7.486122e+02
1.950000e-06	4.726338e-06	1.137174e-08	3.294134e+01	7.457423e+02
1.960000e-06	4.671418e-06	1.132164e-08	3.255856e+01	7.426723e+02
1.970000e-06	4.614865e-06	1.125376e-08	3.216440e+01	7.394005e+02
1.980000e-06	4.556691e-06	1.120156e-08	3.175894e+01	7.359622e+02
1.990000e-06	4.497059e-06	1.115657e-08	3.134332e+01	7.324145e+02
2.000000e-06	4.435677e-06	1.112698e-08	3.091550e+01	7.288112e+02
2.010000e-06	4.372631e-06	1.105663e-08	3.047609e+01	7.251797e+02
2.020000e-06	4.308071e-06	1.100954e-08	3.002613e+01	7.215080e+02
2.030000e-06	4.242005e-06	1.094699e-08	2.956566e+01	7.177497e+02
2.040000e-06	4.174541e-06	1.087467e-08	2.909545e+01	7.138421e+02
2.050000e-06	4.105343e-06	1.082399e-08	2.861316e+01	7.097331e+02
2.060000e-06	4.034491e-06	1.074488e-08	2.811934e+01	7.054024e+02
2.070000e-06	3.962240e-06	1.069057e-08	2.761577e+01	7.008701e+02
2.080000e-06	3.888659e-06	1.062488e-08	2.710293e+01	6.961878e+02
2.090000e-06	3.813636e-06	1.055467e-08	2.658004e+01	6.914156e+02
2.100000e-06	3.736846e-06	1.048126e-08	2.604484e+01	6.865954e+02
2.110000e-06	3.658512e-06	1.039336e-08	2.549887e+01	6.817312e+02
2.120000e-06	3.578939e-06	1.032509e-08	2.494427e+01	6.767855e+02
2.130000e-06	3.498174e-06	1.024669e-08	2.438136e+01	6.716926e+02
2.140000e-06	3.416254e-06	1.016892e-08	2.381039e+01	6.663849e+02
2.150000e-06	3.333258e-06	1.008260e-08	2.323193e+01	6.608195e+02
2.160000e-06	3.249065e-06	9.998865e-09	2.264513e+01	6.549949e+02
2.170000e-06	3.163490e-06	9.913939e-09	2.204869e+01	6.489503e+02
2.180000e-06	3.076722e-06	9.814493e-09	2.144394e+01	6.427482e+02
2.190000e-06	2.988931e-06	9.718210e-09	2.083206e+01	6.364465e+02
2.200000e-06	2.900123e-06	9.619673e-09	2.021310e+01	6.300728e+02
2.210000e-06	2.810329e-06	9.526115e-09	1.958726e+01	6.236123e+02
2.220000e-06	2.719670e-06	9.427590e-09	1.895539e+01	6.170126e+02
2.230000e-06	2.628160e-06	9.323539e-09	1.831758e+01	6.102052e+02
2.240000e-06	2.535724e-06	9.214933e-09	1.767333e+01	6.031329e+02
2.250000e-06	2.442243e-06	9.104815e-09	1.702179e+01	5.957715e+02
2.260000e-06	2.347681e-06	8.993355e-09	1.636272e+01	5.881371e+02
2.270000e-06	2.252288e-06	8.877146e-09	1.569786e+01	5.802740e+02
2.280000e-06	2.156166e-06	8.761070e-09	1.502791e+01	5.722305e+02
2.290000e-06	2.059323e-06	8.637258e-09	1.435294e+01	5.640322e+02
2.300000e-06	1.961817e-06	8.509995e-09	1.367335e+01	5.556652e+02
2.310000e-06	1.863726e-06	8.376604e-09	1.298968e+01	5.470772e+02
2.320000e-06	1.765109e-06	8.238045e-09	1.230235e+01	5.381961e+02
2.330000e-06	1.665932e-06	8.097115e-09	1.161111e+01	5.289579e+02
2.340000e-06	1.566254e-06	7.954711e-09	1.091638e+01	5.193320e+02
2.350000e-06	1.466055e-06	7.810341e-09	1.021802e+01	5.093306e+02
2.360000e-06	1.365248e-06	7.657292e-09	9.515422e+00	4.989988e+02
2.370000e-06	1.263773e-06	7.496557e-09	8.808165e+00	4.883876e+02
2.380000e-06	1.161647e-06	7.327965e-09	8.096378e+00	4.775226e+02
2.390000e-06	1.059002e-06	7.155993e-09	7.380969e+00	4.663814e+02
2.400000e-06	9.559142e-07	6.979658e-09	6.662471e+00	4.548917e+02
2.410000e-06	8.525130e-07	6.796406e-09	5.941792e+00	4.429525e+02
2.420000e-06	7.489037e-07	6.608450e-09	5.219662e+00	4.304693e+02
2.430000e-06	6.450965e-07	6.412831e-09	4.496153e+00	4.173882e+02
2.440000e-06	5.410883e-07	6.205566e-09	3.771243e+00	4.037141e+02
2.450000e-06	4.369200e-07	5.988230e-09	3.045217e+00	3.895009e+02
2.460000e-06	3.325864e-07	5.764107e-09	2.318040e+00	3.748172e+02
2.470000e-06	2.281161e-07	5.534148e-09	1.589909e+00	3.597007e+02
2.480000e-06	1.235726e-07	5.296370e-09	8.612689e-01	3.441199e+02
2.490000e-06	1.901627e-08	5.046794e-09	1.325384e-01	3.279633e+02
2.500000e-06	-8.551480e-08	4.785345e-09	-5.960157e-01	3.110615e+02
2.510000e-06	-1.900057e-07	4.512713e-09	-1.324290e+00	2.932366e+02
2.520000e-06	-2.943852e-07	4.226721e-09	-2.051788e+00	2.743561e+02
2.530000e-06	-3.986812e-07	3.925515e-09	-2.778703e+00	2.543665e+02
2.540000e-06	-5.028700e-07	3.608086e-09	-3.504872e+00	2.332827e+02
2.550000e-06	-6.068154e-07	3.274988e-09	-4.229344e+00	2.111290e+02
2.560000e-06	-7.105224e-07	2.922228e-09	-4.952154e+00	1.878477e+02
2.570000e-06	-8.140246e-07	2.542160e-09	-5.673538e+00	1.632069e+02
2.580000e-06	-9.172934e-07	2.131597e-09	-6.393294e+00	1.367506e+02
2.590000e-06	-1.020263e-06	1.687562e-09	-7.110968e+00	1.078253e+02
2.600000e-06	-1.122768e-06	1.200492e-09	-7.825401e+00	7.569212e+01
2.610000e-06	-1.224748e-06	6.596397e-10	-8.536169e+00	3.971123e+01
2.620000e-06	-1.326126e-06	5.798622e-11	-9.242752e+00	-4.497653e-01
2.630000e-06	-1.426823e-06	-6.061750e-10	-9.944579e+00	-4.464077e+01
2.640000e-06	-1.526925e-06	-1.328397e-09	-1.064227e+01	-9.214485e+01
2.650000e-06	-1.626525e-06	-2.092587e-09	-1.133645e+01	-1.417184e+02
2.660000e-06	-1.725635e-06	-2.866911e-09	-1.202723e+01	-1.917561e+02
2.670000e-06	-1.824203e-06	-3.617960e-09	-1.271422e+01	-2.405435e+02
2.680000e-06	-1.922145e-06	-4.322239e-09	-1.339685e+01	-2.865372e+02
2.690000e-06	-2.019405e-06	-4.964078e-09	-1.407473e+01	-3.286005e+02
2.700000e-06	-2.115980e-06	-5.536865e-09	-1.474783e+01	-3.661402e+02
2.710000e-06	-2.211897e-06	-6.041687e-09	-1.541634e+01	-3.991171e+02
2.720000e-06	-2.307220e-06	-6.486666e-09	-1.608072e+01	-4.279396e+02
2.730000e-06	-2.401861e-06	-6.884191e-09	-1.674034e+01	-4.532815e+02
2.740000e-06	-2.495507e-06	-7.239614e-09	-1.739303e+01	-4.758798e+02
2.750000e-06	-2.587972e-06	-7.556981e-09	-1.803749e+01	-4.963699e+02
2.760000e-06	-2.679435e-06	-7.844255e-09	-1.867496e+01	-5.151937e+02
2.770000e-06	-2.769997e-06	-8.107482e-09	-1.930616e+01	-5.325896e+02
2.780000e-06	-2.859545e-06	-8.351553e-09	-1.993027e+01	-5.486489e+02
2.790000e-06	-2.948048e-06	-8.579151e-09	-2.054712e+01	-5.634025e+02
2.800000e-06	-3.035628e-06	-8.788630e-09	-2.115753e+01	-5.769008e+02
2.810000e-06	-3.122278e-06	-8.982274e-09	-2.176146e+01	-5.892587e+02
2.820000e-06	-3.207683e-06	-9.163417e-09	-2.235671e+01	-6.006560e+02
2.830000e-06	-3.291753e-06	-9.329222e-09	-2.294265e+01	-6.113010e+02
2.840000e-06	-3.374673e-06	-9.481317e-09	-2.352059e+01	-6.213800e+02
2.850000e-06	-3.456475e-06	-9.625394e-09	-2.409072e+01	-6.310147e+02
2.860000e-06	-3.537138e-06	-9.764028e-09	-2.465293e+01	-6.402457e+02
2.870000e-06	-3.616674e-06	-9.896297e-09	-2.520727e+01	-6.490459e+02
2.880000e-06	-3.694920e-06	-1.002236e-08	-2.575262e+01	-6.573561e+02
2.890000e-06	-3.771560e-06	-1.014400e-08	-2.628678e+01	-6.651262e+02
2.900000e-06	-3.846643e-06	-1.025980e-08	-2.681009e+01	-6.723466e+02
2.910000e-06	-3.920304e-06	-1.036568e-08	-2.732349e+01	-6.790588e+02
2.920000e-06	-3.992574e-06	-1.046164e-08	-2.782719e+01	-6.853439e+02
2.930000e-06	-4.063577e-06	-1.055229e-08	-2.832206e+01	-6.912970e+02
2.940000e-06	-4.133057e-06	-1.064128e-08	-2.880632e+01	-6.970000e+02
