# Temperatura_=_39.65
# Concentracion g/m^3_=_13400.0
# C_Vs_to_Am_M_A/Vsm_=_65563218390.804596
# pendiente_HvsI_1/m_=_3716.3
# ordenada_HvsI_A/m_=_1297.0
# frecuencia_Hz_=_300812.432176744

Tiempo_(s)	Campo_(V.s)	Magnetizacion_(V.s)	Campo_(kA/m)	Magnetizacion_(A/m)
0.000000e+00	-5.487265e-06	-1.215788e-08	-3.830533e+01	-7.954852e+02
1.000000e-08	-5.485636e-06	-1.215869e-08	-3.829396e+01	-7.953688e+02
2.000000e-08	-5.482034e-06	-1.215387e-08	-3.826881e+01	-7.950685e+02
3.000000e-08	-5.476704e-06	-1.214833e-08	-3.823160e+01	-7.945908e+02
4.000000e-08	-5.469778e-06	-1.214254e-08	-3.818325e+01	-7.939773e+02
5.000000e-08	-5.461222e-06	-1.213067e-08	-3.812352e+01	-7.932858e+02
6.000000e-08	-5.450771e-06	-1.211172e-08	-3.805057e+01	-7.925639e+02
7.000000e-08	-5.438187e-06	-1.209014e-08	-3.796272e+01	-7.918284e+02
8.000000e-08	-5.423560e-06	-1.208380e-08	-3.786062e+01	-7.910586e+02
9.000000e-08	-5.406620e-06	-1.211335e-08	-3.774236e+01	-7.902068e+02
1.000000e-07	-5.387309e-06	-1.210731e-08	-3.760756e+01	-7.892219e+02
1.100000e-07	-5.366033e-06	-1.206767e-08	-3.745903e+01	-7.880743e+02
1.200000e-07	-5.342940e-06	-1.204163e-08	-3.729783e+01	-7.867720e+02
1.300000e-07	-5.318338e-06	-1.196353e-08	-3.712609e+01	-7.853592e+02
1.400000e-07	-5.292321e-06	-1.195401e-08	-3.694447e+01	-7.838982e+02
1.500000e-07	-5.264492e-06	-1.201160e-08	-3.675020e+01	-7.824417e+02
1.600000e-07	-5.234859e-06	-1.190192e-08	-3.654334e+01	-7.810078e+02
1.700000e-07	-5.203679e-06	-1.190494e-08	-3.632567e+01	-7.795680e+02
1.800000e-07	-5.170634e-06	-1.195158e-08	-3.609500e+01	-7.780553e+02
1.900000e-07	-5.135501e-06	-1.182370e-08	-3.584974e+01	-7.763882e+02
2.000000e-07	-5.098769e-06	-1.182424e-08	-3.559332e+01	-7.745024e+02
2.100000e-07	-5.060436e-06	-1.179631e-08	-3.532573e+01	-7.723751e+02
2.200000e-07	-5.020275e-06	-1.170903e-08	-3.504538e+01	-7.700342e+02
2.300000e-07	-4.978169e-06	-1.175487e-08	-3.475144e+01	-7.675457e+02
2.400000e-07	-4.934088e-06	-1.173170e-08	-3.444372e+01	-7.649861e+02
2.500000e-07	-4.888326e-06	-1.165978e-08	-3.412427e+01	-7.624108e+02
2.600000e-07	-4.840768e-06	-1.162048e-08	-3.379228e+01	-7.598313e+02
2.700000e-07	-4.791194e-06	-1.152711e-08	-3.344622e+01	-7.572106e+02
2.800000e-07	-4.739571e-06	-1.148095e-08	-3.308585e+01	-7.544793e+02
2.900000e-07	-4.685965e-06	-1.147301e-08	-3.271164e+01	-7.515649e+02
3.000000e-07	-4.630590e-06	-1.144364e-08	-3.232508e+01	-7.484216e+02
3.100000e-07	-4.573597e-06	-1.139134e-08	-3.192722e+01	-7.450490e+02
3.200000e-07	-4.514884e-06	-1.135797e-08	-3.151736e+01	-7.414908e+02
3.300000e-07	-4.454498e-06	-1.129824e-08	-3.109582e+01	-7.378157e+02
3.400000e-07	-4.392641e-06	-1.118005e-08	-3.066401e+01	-7.340873e+02
3.500000e-07	-4.329291e-06	-1.112251e-08	-3.022178e+01	-7.303372e+02
3.600000e-07	-4.264448e-06	-1.106833e-08	-2.976912e+01	-7.265519e+02
3.700000e-07	-4.197974e-06	-1.101437e-08	-2.930508e+01	-7.226800e+02
3.800000e-07	-4.129792e-06	-1.099038e-08	-2.882912e+01	-7.186545e+02
3.900000e-07	-4.060087e-06	-1.092580e-08	-2.834253e+01	-7.144225e+02
4.000000e-07	-3.989083e-06	-1.085229e-08	-2.784686e+01	-7.099675e+02
4.100000e-07	-3.916836e-06	-1.077790e-08	-2.734252e+01	-7.053157e+02
4.200000e-07	-3.843212e-06	-1.069193e-08	-2.682857e+01	-7.005234e+02
4.300000e-07	-3.767924e-06	-1.060103e-08	-2.630301e+01	-6.956504e+02
4.400000e-07	-3.690890e-06	-1.052077e-08	-2.576525e+01	-6.907324e+02
4.500000e-07	-3.612402e-06	-1.045720e-08	-2.521734e+01	-6.857628e+02
4.600000e-07	-3.532482e-06	-1.039208e-08	-2.465944e+01	-6.806942e+02
4.700000e-07	-3.451118e-06	-1.032207e-08	-2.409145e+01	-6.754559e+02
4.800000e-07	-3.368536e-06	-1.022948e-08	-2.351497e+01	-6.699833e+02
4.900000e-07	-3.284866e-06	-1.013022e-08	-2.293089e+01	-6.642436e+02
5.000000e-07	-3.200199e-06	-1.003678e-08	-2.233985e+01	-6.582486e+02
5.100000e-07	-3.114630e-06	-9.936561e-09	-2.174251e+01	-6.520476e+02
5.200000e-07	-3.028090e-06	-9.840664e-09	-2.113839e+01	-6.457051e+02
5.300000e-07	-2.940495e-06	-9.746629e-09	-2.052691e+01	-6.392717e+02
5.400000e-07	-2.851960e-06	-9.650056e-09	-1.990887e+01	-6.327615e+02
5.500000e-07	-2.762560e-06	-9.550254e-09	-1.928479e+01	-6.261463e+02
5.600000e-07	-2.671999e-06	-9.440793e-09	-1.865260e+01	-6.193675e+02
5.700000e-07	-2.580181e-06	-9.325849e-09	-1.801165e+01	-6.123612e+02
5.800000e-07	-2.487405e-06	-9.211192e-09	-1.736400e+01	-6.050851e+02
5.900000e-07	-2.393854e-06	-9.102656e-09	-1.671094e+01	-5.975339e+02
6.000000e-07	-2.299581e-06	-8.986803e-09	-1.605284e+01	-5.897374e+02
6.100000e-07	-2.204547e-06	-8.860139e-09	-1.538943e+01	-5.817418e+02
6.200000e-07	-2.108726e-06	-8.728958e-09	-1.472052e+01	-5.735825e+02
6.300000e-07	-2.012174e-06	-8.596085e-09	-1.404652e+01	-5.652620e+02
6.400000e-07	-1.914969e-06	-8.465652e-09	-1.336796e+01	-5.567421e+02
6.500000e-07	-1.817058e-06	-8.329649e-09	-1.268446e+01	-5.479564e+02
6.600000e-07	-1.718296e-06	-8.190690e-09	-1.199503e+01	-5.388355e+02
6.700000e-07	-1.618693e-06	-8.050848e-09	-1.129972e+01	-5.293358e+02
6.800000e-07	-1.518428e-06	-7.906741e-09	-1.059979e+01	-5.194561e+02
6.900000e-07	-1.417697e-06	-7.749161e-09	-9.896611e+00	-5.092345e+02
7.000000e-07	-1.316585e-06	-7.579046e-09	-9.190776e+00	-4.987262e+02
7.100000e-07	-1.215069e-06	-7.406268e-09	-8.482114e+00	-4.879697e+02
7.200000e-07	-1.113116e-06	-7.233365e-09	-7.770401e+00	-4.769592e+02
7.300000e-07	-1.010804e-06	-7.061631e-09	-7.056190e+00	-4.656345e+02
7.400000e-07	-9.081481e-07	-6.888797e-09	-6.339571e+00	-4.538952e+02
7.500000e-07	-8.051490e-07	-6.708342e-09	-5.620559e+00	-4.416353e+02
7.600000e-07	-7.018806e-07	-6.513691e-09	-4.899665e+00	-4.287816e+02
7.700000e-07	-5.983367e-07	-6.304529e-09	-4.176849e+00	-4.153194e+02
7.800000e-07	-4.945922e-07	-6.083886e-09	-3.452634e+00	-4.012915e+02
7.900000e-07	-3.907006e-07	-5.858498e-09	-2.727391e+00	-3.867682e+02
8.000000e-07	-2.866269e-07	-5.630476e-09	-2.000876e+00	-3.717999e+02
8.100000e-07	-1.823828e-07	-5.399189e-09	-1.273172e+00	-3.563720e+02
8.200000e-07	-7.805887e-08	-5.161063e-09	-5.449109e-01	-3.403847e+02
8.300000e-07	2.627540e-08	-4.907550e-09	1.834224e-01	-3.236678e+02
8.400000e-07	1.305827e-07	-4.636086e-09	9.115674e-01	-3.060292e+02
8.500000e-07	2.347640e-07	-4.347439e-09	1.638833e+00	-2.873143e+02
8.600000e-07	3.388319e-07	-4.044842e-09	2.365307e+00	-2.674495e+02
8.700000e-07	4.428051e-07	-3.726700e-09	3.091120e+00	-2.464415e+02
8.800000e-07	5.466008e-07	-3.391124e-09	3.815693e+00	-2.243221e+02
8.900000e-07	6.502260e-07	-3.036334e-09	4.539077e+00	-2.010504e+02
9.000000e-07	7.536413e-07	-2.657929e-09	5.260995e+00	-1.764078e+02
9.100000e-07	8.567433e-07	-2.249570e-09	5.980726e+00	-1.499293e+02
9.200000e-07	9.595276e-07	-1.800540e-09	6.698240e+00	-1.209161e+02
9.300000e-07	1.062019e-06	-1.300962e-09	7.413705e+00	-8.854528e+01
9.400000e-07	1.164138e-06	-7.447497e-10	8.126578e+00	-5.206619e+01
9.500000e-07	1.265814e-06	-1.260449e-10	8.836355e+00	-1.103549e+01
9.600000e-07	1.367095e-06	5.641808e-10	9.543370e+00	3.447469e+01
9.700000e-07	1.468028e-06	1.321963e-09	1.024796e+01	8.376244e+01
9.800000e-07	1.568547e-06	2.121618e-09	1.094966e+01	1.355203e+02
9.900000e-07	1.668478e-06	2.927812e-09	1.164726e+01	1.880043e+02
1.000000e-06	1.767705e-06	3.709876e-09	1.233994e+01	2.393120e+02
1.010000e-06	1.866160e-06	4.439588e-09	1.302723e+01	2.877006e+02
1.020000e-06	1.963820e-06	5.096974e-09	1.370897e+01	3.318645e+02
1.030000e-06	2.060705e-06	5.677994e-09	1.438530e+01	3.711043e+02
1.040000e-06	2.156779e-06	6.189919e-09	1.505597e+01	4.053512e+02
1.050000e-06	2.252099e-06	6.645035e-09	1.572138e+01	4.350542e+02
1.060000e-06	2.346731e-06	7.048798e-09	1.638198e+01	4.609744e+02
1.070000e-06	2.440618e-06	7.402639e-09	1.703739e+01	4.839518e+02
1.080000e-06	2.533734e-06	7.713991e-09	1.768741e+01	5.047123e+02
1.090000e-06	2.626079e-06	7.996685e-09	1.833205e+01	5.237576e+02
1.100000e-06	2.717496e-06	8.258479e-09	1.897021e+01	5.413528e+02
1.110000e-06	2.807752e-06	8.498893e-09	1.960026e+01	5.575907e+02
1.120000e-06	2.896853e-06	8.719927e-09	2.022226e+01	5.724936e+02
1.130000e-06	2.984965e-06	8.927177e-09	2.083735e+01	5.861063e+02
1.140000e-06	3.072128e-06	9.122134e-09	2.144581e+01	5.985480e+02
1.150000e-06	3.158214e-06	9.301696e-09	2.204676e+01	6.100111e+02
1.160000e-06	3.243251e-06	9.464276e-09	2.264039e+01	6.207178e+02
1.170000e-06	3.327294e-06	9.611974e-09	2.322707e+01	6.308618e+02
1.180000e-06	3.410182e-06	9.754708e-09	2.380569e+01	6.405614e+02
1.190000e-06	3.491793e-06	9.897366e-09	2.437540e+01	6.498455e+02
1.200000e-06	3.572125e-06	1.003346e-08	2.493617e+01	6.586740e+02
1.210000e-06	3.651126e-06	1.015814e-08	2.548767e+01	6.669828e+02
1.220000e-06	3.728797e-06	1.027635e-08	2.602986e+01	6.747309e+02
1.230000e-06	3.805160e-06	1.039092e-08	2.656294e+01	6.819305e+02
1.240000e-06	3.880009e-06	1.049612e-08	2.708544e+01	6.886507e+02
1.250000e-06	3.953241e-06	1.058894e-08	2.759666e+01	6.949941e+02
1.260000e-06	4.025042e-06	1.067690e-08	2.809789e+01	7.010619e+02
1.270000e-06	4.095489e-06	1.076793e-08	2.858966e+01	7.069216e+02
1.280000e-06	4.164551e-06	1.085697e-08	2.907176e+01	7.125928e+02
1.290000e-06	4.232197e-06	1.093767e-08	2.954399e+01	7.180550e+02
1.300000e-06	4.298205e-06	1.101213e-08	3.000478e+01	7.232713e+02
1.310000e-06	4.362570e-06	1.108599e-08	3.045409e+01	7.282162e+02
1.320000e-06	4.425473e-06	1.115874e-08	3.089320e+01	7.328945e+02
1.330000e-06	4.486991e-06	1.122688e-08	3.132264e+01	7.373421e+02
1.340000e-06	4.547117e-06	1.129043e-08	3.174237e+01	7.416102e+02
1.350000e-06	4.605551e-06	1.135178e-08	3.215029e+01	7.457419e+02
1.360000e-06	4.662154e-06	1.141381e-08	3.254542e+01	7.497513e+02
1.370000e-06	4.717093e-06	1.147337e-08	3.292893e+01	7.536175e+02
1.380000e-06	4.770327e-06	1.152747e-08	3.330055e+01	7.572947e+02
1.390000e-06	4.821570e-06	1.157607e-08	3.365826e+01	7.607355e+02
1.400000e-06	4.870759e-06	1.162076e-08	3.400164e+01	7.639151e+02
1.410000e-06	4.918151e-06	1.166460e-08	3.433247e+01	7.668466e+02
1.420000e-06	4.963928e-06	1.170743e-08	3.465203e+01	7.695781e+02
1.430000e-06	5.008113e-06	1.174624e-08	3.496048e+01	7.721751e+02
1.440000e-06	5.050383e-06	1.178315e-08	3.525555e+01	7.746933e+02
1.450000e-06	5.090745e-06	1.182225e-08	3.553731e+01	7.771550e+02
1.460000e-06	5.129441e-06	1.185945e-08	3.580744e+01	7.795406e+02
1.470000e-06	5.166490e-06	1.189058e-08	3.606607e+01	7.817971e+02
1.480000e-06	5.201759e-06	1.191681e-08	3.631227e+01	7.838618e+02
1.490000e-06	5.234987e-06	1.194175e-08	3.654423e+01	7.856916e+02
1.500000e-06	5.266336e-06	1.196685e-08	3.676307e+01	7.872822e+02
1.510000e-06	5.296024e-06	1.198957e-08	3.697031e+01	7.886731e+02
1.520000e-06	5.323947e-06	1.200883e-08	3.716524e+01	7.899322e+02
1.530000e-06	5.349798e-06	1.202765e-08	3.734570e+01	7.911285e+02
1.540000e-06	5.373588e-06	1.204632e-08	3.751177e+01	7.923050e+02
1.550000e-06	5.395616e-06	1.206310e-08	3.766554e+01	7.934614e+02
1.560000e-06	5.415980e-06	1.207647e-08	3.780770e+01	7.945559e+02
1.570000e-06	5.434449e-06	1.208719e-08	3.793663e+01	7.955247e+02
1.580000e-06	5.450821e-06	1.209782e-08	3.805092e+01	7.963102e+02
1.590000e-06	5.465243e-06	1.210649e-08	3.815159e+01	7.968866e+02
1.600000e-06	5.477637e-06	1.211328e-08	3.823811e+01	7.972716e+02
1.610000e-06	5.487764e-06	1.211975e-08	3.830880e+01	7.975192e+02
1.620000e-06	5.495853e-06	1.212692e-08	3.836527e+01	7.976973e+02
1.630000e-06	5.502141e-06	1.213354e-08	3.840917e+01	7.978594e+02
1.640000e-06	5.506608e-06	1.213531e-08	3.844036e+01	7.980226e+02
1.650000e-06	5.509023e-06	1.213467e-08	3.845721e+01	7.981619e+02
1.660000e-06	5.509422e-06	1.213469e-08	3.846000e+01	7.982219e+02
1.670000e-06	5.508097e-06	1.213163e-08	3.845075e+01	7.981419e+02
1.680000e-06	5.505110e-06	1.212700e-08	3.842990e+01	7.978819e+02
1.690000e-06	5.500232e-06	1.212047e-08	3.839584e+01	7.974397e+02
1.700000e-06	5.493370e-06	1.211249e-08	3.834794e+01	7.968506e+02
1.710000e-06	5.484824e-06	1.210498e-08	3.828828e+01	7.961711e+02
1.720000e-06	5.474644e-06	1.209789e-08	3.821722e+01	7.954530e+02
1.730000e-06	5.462543e-06	1.209743e-08	3.813274e+01	7.947210e+02
1.740000e-06	5.448397e-06	1.207156e-08	3.803400e+01	7.939619e+02
1.750000e-06	5.432236e-06	1.201606e-08	3.792118e+01	7.931323e+02
1.760000e-06	5.413636e-06	1.200239e-08	3.779134e+01	7.921795e+02
1.770000e-06	5.392255e-06	1.199226e-08	3.764208e+01	7.910675e+02
1.780000e-06	5.368712e-06	1.201867e-08	3.747773e+01	7.897957e+02
1.790000e-06	5.343997e-06	1.204240e-08	3.730521e+01	7.884016e+02
1.800000e-06	5.318495e-06	1.192728e-08	3.712718e+01	7.869457e+02
1.810000e-06	5.291294e-06	1.193815e-08	3.693730e+01	7.854853e+02
1.820000e-06	5.261708e-06	1.196338e-08	3.673077e+01	7.840474e+02
1.830000e-06	5.230471e-06	1.185276e-08	3.651270e+01	7.826135e+02
1.840000e-06	5.197545e-06	1.190916e-08	3.628286e+01	7.811232e+02
1.850000e-06	5.162756e-06	1.191433e-08	3.604000e+01	7.794957e+02
1.860000e-06	5.126315e-06	1.183073e-08	3.578561e+01	7.776604e+02
1.870000e-06	5.087800e-06	1.187713e-08	3.551675e+01	7.755842e+02
1.880000e-06	5.047471e-06	1.178776e-08	3.523522e+01	7.732845e+02
1.890000e-06	5.005587e-06	1.169158e-08	3.494284e+01	7.708210e+02
1.900000e-06	4.961822e-06	1.170035e-08	3.463733e+01	7.682708e+02
1.910000e-06	4.916363e-06	1.163781e-08	3.431999e+01	7.656963e+02
1.920000e-06	4.869006e-06	1.166870e-08	3.398940e+01	7.631193e+02
1.930000e-06	4.819739e-06	1.165580e-08	3.364548e+01	7.605125e+02
1.940000e-06	4.768833e-06	1.155418e-08	3.329012e+01	7.578115e+02
1.950000e-06	4.715820e-06	1.150303e-08	3.292004e+01	7.549415e+02
1.960000e-06	4.660902e-06	1.143955e-08	3.253667e+01	7.518490e+02
1.970000e-06	4.604366e-06	1.138306e-08	3.214201e+01	7.485231e+02
1.980000e-06	4.546183e-06	1.131751e-08	3.173585e+01	7.449994e+02
1.990000e-06	4.486465e-06	1.131822e-08	3.131897e+01	7.413434e+02
2.000000e-06	4.425000e-06	1.129603e-08	3.088990e+01	7.376224e+02
2.010000e-06	4.361913e-06	1.120665e-08	3.044950e+01	7.338765e+02
2.020000e-06	4.297305e-06	1.116567e-08	2.999849e+01	7.301021e+02
2.030000e-06	4.231217e-06	1.106254e-08	2.953714e+01	7.262543e+02
2.040000e-06	4.163711e-06	1.099263e-08	2.906590e+01	7.222671e+02
2.050000e-06	4.094441e-06	1.094160e-08	2.858235e+01	7.180822e+02
2.060000e-06	4.023532e-06	1.086422e-08	2.808734e+01	7.136741e+02
2.070000e-06	3.951315e-06	1.082458e-08	2.758321e+01	7.090605e+02
2.080000e-06	3.877785e-06	1.074887e-08	2.706992e+01	7.042930e+02
2.090000e-06	3.802789e-06	1.069186e-08	2.654639e+01	6.994331e+02
2.100000e-06	3.726154e-06	1.060953e-08	2.601141e+01	6.945237e+02
2.110000e-06	3.647936e-06	1.051830e-08	2.546540e+01	6.895680e+02
2.120000e-06	3.568354e-06	1.043942e-08	2.490985e+01	6.845262e+02
2.130000e-06	3.487617e-06	1.035396e-08	2.434625e+01	6.793303e+02
2.140000e-06	3.405725e-06	1.028835e-08	2.377457e+01	6.739121e+02
2.150000e-06	3.322686e-06	1.019285e-08	2.319490e+01	6.682302e+02
2.160000e-06	3.238518e-06	1.011694e-08	2.260734e+01	6.622868e+02
2.170000e-06	3.153115e-06	1.002849e-08	2.201116e+01	6.561247e+02
2.180000e-06	3.066460e-06	9.924916e-09	2.140625e+01	6.498074e+02
2.190000e-06	2.978688e-06	9.829447e-09	2.079353e+01	6.433908e+02
2.200000e-06	2.889981e-06	9.720972e-09	2.017429e+01	6.368981e+02
2.210000e-06	2.800324e-06	9.629452e-09	1.954841e+01	6.303097e+02
2.220000e-06	2.709665e-06	9.529886e-09	1.891555e+01	6.235715e+02
2.230000e-06	2.618130e-06	9.427327e-09	1.827656e+01	6.166187e+02
2.240000e-06	2.525819e-06	9.314795e-09	1.763215e+01	6.094022e+02
2.250000e-06	2.432528e-06	9.195696e-09	1.698091e+01	6.019084e+02
2.260000e-06	2.338126e-06	9.084531e-09	1.632192e+01	5.941608e+02
2.270000e-06	2.242844e-06	8.967951e-09	1.565677e+01	5.862041e+02
2.280000e-06	2.146825e-06	8.853974e-09	1.498649e+01	5.780784e+02
2.290000e-06	2.050110e-06	8.731276e-09	1.431134e+01	5.697943e+02
2.300000e-06	1.952755e-06	8.601940e-09	1.363173e+01	5.613221e+02
2.310000e-06	1.854759e-06	8.468166e-09	1.294764e+01	5.525996e+02
2.320000e-06	1.756104e-06	8.322880e-09	1.225895e+01	5.435554e+02
2.330000e-06	1.656852e-06	8.172721e-09	1.156610e+01	5.341386e+02
2.340000e-06	1.557175e-06	8.022620e-09	1.087028e+01	5.243382e+02
2.350000e-06	1.457100e-06	7.877271e-09	1.017168e+01	5.141854e+02
2.360000e-06	1.356504e-06	7.732248e-09	9.469440e+00	5.037342e+02
2.370000e-06	1.255266e-06	7.576749e-09	8.762721e+00	4.930296e+02
2.380000e-06	1.153384e-06	7.408201e-09	8.051509e+00	4.820768e+02
2.390000e-06	1.050941e-06	7.228608e-09	7.336373e+00	4.708269e+02
2.400000e-06	9.480531e-07	7.041971e-09	6.618139e+00	4.591858e+02
2.410000e-06	8.448066e-07	6.853155e-09	5.897399e+00	4.470453e+02
2.420000e-06	7.412343e-07	6.660506e-09	5.174384e+00	4.343223e+02
2.430000e-06	6.374317e-07	6.463491e-09	4.449763e+00	4.209886e+02
2.440000e-06	5.334821e-07	6.260986e-09	3.724115e+00	4.070763e+02
2.450000e-06	4.294115e-07	6.047936e-09	2.997622e+00	3.926535e+02
2.460000e-06	3.252134e-07	5.819219e-09	2.270239e+00	3.777790e+02
2.470000e-06	2.209336e-07	5.576063e-09	1.542286e+00	3.624552e+02
2.480000e-06	1.166256e-07	5.326529e-09	8.141361e-01	3.466002e+02
2.490000e-06	1.228028e-08	5.070991e-09	8.572580e-02	3.300561e+02
2.500000e-06	-9.208980e-08	4.806359e-09	-6.428576e-01	3.126301e+02
2.510000e-06	-1.964205e-07	4.527987e-09	-1.371166e+00	2.941552e+02
2.520000e-06	-3.006377e-07	4.232770e-09	-2.098682e+00	2.745385e+02
2.530000e-06	-4.047189e-07	3.922589e-09	-2.825249e+00	2.537724e+02
2.540000e-06	-5.086926e-07	3.591734e-09	-3.551065e+00	2.318904e+02
2.550000e-06	-6.124814e-07	3.238407e-09	-4.275591e+00	2.088766e+02
2.560000e-06	-7.160787e-07	2.864920e-09	-4.998779e+00	1.845581e+02
2.570000e-06	-8.194405e-07	2.465898e-09	-5.720324e+00	1.585249e+02
2.580000e-06	-9.225047e-07	2.031989e-09	-6.439791e+00	1.301224e+02
2.590000e-06	-1.025209e-06	1.550422e-09	-7.156750e+00	9.854024e+01
2.600000e-06	-1.127393e-06	1.011368e-09	-7.870069e+00	6.299289e+01
2.610000e-06	-1.229005e-06	4.095212e-10	-8.579396e+00	2.295160e+01
2.620000e-06	-1.330025e-06	-2.577109e-10	-9.284594e+00	-2.163566e+01
2.630000e-06	-1.430517e-06	-9.905569e-10	-9.986107e+00	-7.020499e+01
2.640000e-06	-1.530558e-06	-1.778930e-09	-1.068447e+01	-1.215691e+02
2.650000e-06	-1.630139e-06	-2.592437e-09	-1.137962e+01	-1.740571e+02
2.660000e-06	-1.729152e-06	-3.392796e-09	-1.207081e+01	-2.257738e+02
2.670000e-06	-1.827488e-06	-4.146381e-09	-1.275727e+01	-2.749161e+02
2.680000e-06	-1.925178e-06	-4.834848e-09	-1.343922e+01	-3.200662e+02
2.690000e-06	-2.022212e-06	-5.450537e-09	-1.411659e+01	-3.603875e+02
2.700000e-06	-2.118571e-06	-5.990585e-09	-1.478925e+01	-3.956814e+02
2.710000e-06	-2.214345e-06	-6.460943e-09	-1.545783e+01	-4.263012e+02
2.720000e-06	-2.309557e-06	-6.873641e-09	-1.612248e+01	-4.529605e+02
2.730000e-06	-2.404013e-06	-7.243920e-09	-1.678185e+01	-4.765011e+02
2.740000e-06	-2.497429e-06	-7.577703e-09	-1.743397e+01	-4.976860e+02
2.750000e-06	-2.589753e-06	-7.878005e-09	-1.807847e+01	-5.170690e+02
2.760000e-06	-2.681002e-06	-8.149824e-09	-1.871545e+01	-5.349627e+02
2.770000e-06	-2.771286e-06	-8.396956e-09	-1.934570e+01	-5.514887e+02
2.780000e-06	-2.860642e-06	-8.627061e-09	-1.996948e+01	-5.666758e+02
2.790000e-06	-2.948951e-06	-8.842317e-09	-2.058594e+01	-5.805578e+02
2.800000e-06	-3.036356e-06	-9.039132e-09	-2.119610e+01	-5.932363e+02
2.810000e-06	-3.122764e-06	-9.221580e-09	-2.179929e+01	-6.048905e+02
2.820000e-06	-3.207927e-06	-9.394801e-09	-2.239379e+01	-6.157411e+02
2.830000e-06	-3.291833e-06	-9.557273e-09	-2.297952e+01	-6.259927e+02
2.840000e-06	-3.374577e-06	-9.706573e-09	-2.355714e+01	-6.357821e+02
2.850000e-06	-3.456247e-06	-9.844793e-09	-2.412726e+01	-6.451568e+02
2.860000e-06	-3.536783e-06	-9.975861e-09	-2.468946e+01	-6.540882e+02
2.870000e-06	-3.616170e-06	-1.010115e-08	-2.524364e+01	-6.625133e+02
2.880000e-06	-3.694213e-06	-1.022213e-08	-2.578844e+01	-6.703825e+02
2.890000e-06	-3.770612e-06	-1.033775e-08	-2.632177e+01	-6.776956e+02
2.900000e-06	-3.845460e-06	-1.044646e-08	-2.684426e+01	-6.845104e+02
2.910000e-06	-3.918937e-06	-1.054646e-08	-2.735719e+01	-6.909255e+02
2.920000e-06	-3.991081e-06	-1.063928e-08	-2.786081e+01	-6.970451e+02
2.930000e-06	-4.061909e-06	-1.072899e-08	-2.835525e+01	-7.029460e+02
2.940000e-06	-4.131201e-06	-1.081591e-08	-2.883895e+01	-7.086583e+02
