# Temperatura_=_49.0
# Concentracion g/m^3_=_13400.0
# C_Vs_to_Am_M_A/Vsm_=_65563218390.804596
# pendiente_HvsI_1/m_=_3716.3
# ordenada_HvsI_A/m_=_1297.0
# frecuencia_Hz_=_300808.9560747397

Tiempo_(s)	Campo_(V.s)	Magnetizacion_(V.s)	Campo_(kA/m)	Magnetizacion_(A/m)
0.000000e+00	-5.469534e-06	-1.236012e-08	-3.830800e+01	-8.091625e+02
1.000000e-08	-5.468076e-06	-1.236188e-08	-3.829779e+01	-8.090358e+02
2.000000e-08	-5.464638e-06	-1.236131e-08	-3.827371e+01	-8.087565e+02
3.000000e-08	-5.459433e-06	-1.235720e-08	-3.823726e+01	-8.083297e+02
4.000000e-08	-5.452600e-06	-1.235150e-08	-3.818940e+01	-8.077850e+02
5.000000e-08	-5.444145e-06	-1.234305e-08	-3.813018e+01	-8.071610e+02
6.000000e-08	-5.433802e-06	-1.232812e-08	-3.805774e+01	-8.064859e+02
7.000000e-08	-5.421382e-06	-1.230542e-08	-3.797075e+01	-8.057633e+02
8.000000e-08	-5.406922e-06	-1.228997e-08	-3.786947e+01	-8.049710e+02
9.000000e-08	-5.390148e-06	-1.230189e-08	-3.775199e+01	-8.040722e+02
1.000000e-07	-5.371083e-06	-1.230007e-08	-3.761846e+01	-8.030348e+02
1.100000e-07	-5.350005e-06	-1.227341e-08	-3.747083e+01	-8.018496e+02
1.200000e-07	-5.327097e-06	-1.224279e-08	-3.731039e+01	-8.005384e+02
1.300000e-07	-5.302726e-06	-1.218378e-08	-3.713970e+01	-7.991469e+02
1.400000e-07	-5.276899e-06	-1.217835e-08	-3.695881e+01	-7.977252e+02
1.500000e-07	-5.249252e-06	-1.219069e-08	-3.676517e+01	-7.963042e+02
1.600000e-07	-5.219853e-06	-1.211670e-08	-3.655926e+01	-7.948775e+02
1.700000e-07	-5.188900e-06	-1.211194e-08	-3.634247e+01	-7.933984e+02
1.800000e-07	-5.156030e-06	-1.212173e-08	-3.611225e+01	-7.917940e+02
1.900000e-07	-5.121081e-06	-1.205099e-08	-3.586747e+01	-7.899911e+02
2.000000e-07	-5.084570e-06	-1.203500e-08	-3.561176e+01	-7.879444e+02
2.100000e-07	-5.046465e-06	-1.199655e-08	-3.534487e+01	-7.856537e+02
2.200000e-07	-5.006561e-06	-1.192556e-08	-3.506539e+01	-7.831645e+02
2.300000e-07	-4.964783e-06	-1.191740e-08	-3.477278e+01	-7.805494e+02
2.400000e-07	-4.921049e-06	-1.189348e-08	-3.446647e+01	-7.778788e+02
2.500000e-07	-4.875522e-06	-1.184787e-08	-3.414760e+01	-7.751924e+02
2.600000e-07	-4.828192e-06	-1.179735e-08	-3.381611e+01	-7.724838e+02
2.700000e-07	-4.778930e-06	-1.174053e-08	-3.347109e+01	-7.697047e+02
2.800000e-07	-4.727566e-06	-1.170400e-08	-3.311134e+01	-7.667856e+02
2.900000e-07	-4.674190e-06	-1.165928e-08	-3.273750e+01	-7.636672e+02
3.000000e-07	-4.619171e-06	-1.160645e-08	-3.235216e+01	-7.603249e+02
3.100000e-07	-4.562572e-06	-1.155102e-08	-3.195574e+01	-7.567803e+02
3.200000e-07	-4.504184e-06	-1.150300e-08	-3.154680e+01	-7.530910e+02
3.300000e-07	-4.444058e-06	-1.145345e-08	-3.112568e+01	-7.493251e+02
3.400000e-07	-4.382370e-06	-1.137983e-08	-3.069363e+01	-7.455310e+02
3.500000e-07	-4.319230e-06	-1.131504e-08	-3.025140e+01	-7.417150e+02
3.600000e-07	-4.254756e-06	-1.125297e-08	-2.979983e+01	-7.378368e+02
3.700000e-07	-4.188700e-06	-1.119443e-08	-2.933718e+01	-7.338258e+02
3.800000e-07	-4.120818e-06	-1.113732e-08	-2.886174e+01	-7.296101e+02
3.900000e-07	-4.051386e-06	-1.106175e-08	-2.837545e+01	-7.251474e+02
4.000000e-07	-3.980689e-06	-1.098896e-08	-2.788030e+01	-7.204431e+02
4.100000e-07	-3.908747e-06	-1.091643e-08	-2.737642e+01	-7.155481e+02
4.200000e-07	-3.835385e-06	-1.084300e-08	-2.686260e+01	-7.105375e+02
4.300000e-07	-3.760417e-06	-1.076300e-08	-2.633754e+01	-7.054779e+02
4.400000e-07	-3.683859e-06	-1.068210e-08	-2.580134e+01	-7.003981e+02
4.500000e-07	-3.605809e-06	-1.060839e-08	-2.525468e+01	-6.952754e+02
4.600000e-07	-3.526254e-06	-1.052906e-08	-2.469749e+01	-6.900435e+02
4.700000e-07	-3.445256e-06	-1.044181e-08	-2.413018e+01	-6.846190e+02
4.800000e-07	-3.363017e-06	-1.034868e-08	-2.355419e+01	-6.789349e+02
4.900000e-07	-3.279667e-06	-1.025665e-08	-2.297042e+01	-6.729677e+02
5.000000e-07	-3.195334e-06	-1.016404e-08	-2.237976e+01	-6.667456e+02
5.100000e-07	-3.110068e-06	-1.006607e-08	-2.178257e+01	-6.603348e+02
5.200000e-07	-3.023789e-06	-9.963024e-09	-2.117828e+01	-6.538096e+02
5.300000e-07	-2.936559e-06	-9.859194e-09	-2.056733e+01	-6.472198e+02
5.400000e-07	-2.848435e-06	-9.756983e-09	-1.995012e+01	-6.405682e+02
5.500000e-07	-2.759372e-06	-9.653603e-09	-1.932633e+01	-6.338092e+02
5.600000e-07	-2.669197e-06	-9.545482e-09	-1.869475e+01	-6.268678e+02
5.700000e-07	-2.577805e-06	-9.432086e-09	-1.805465e+01	-6.196710e+02
5.800000e-07	-2.485444e-06	-9.315416e-09	-1.740777e+01	-6.121780e+02
5.900000e-07	-2.392304e-06	-9.197449e-09	-1.675543e+01	-6.043949e+02
6.000000e-07	-2.298392e-06	-9.075404e-09	-1.609768e+01	-5.963676e+02
6.100000e-07	-2.203695e-06	-8.948074e-09	-1.543443e+01	-5.881568e+02
6.200000e-07	-2.108233e-06	-8.818949e-09	-1.476583e+01	-5.798049e+02
6.300000e-07	-2.012050e-06	-8.688846e-09	-1.409217e+01	-5.713114e+02
6.400000e-07	-1.915169e-06	-8.555871e-09	-1.341363e+01	-5.626271e+02
6.500000e-07	-1.817529e-06	-8.415409e-09	-1.272977e+01	-5.536710e+02
6.600000e-07	-1.719041e-06	-8.269054e-09	-1.203997e+01	-5.443624e+02
6.700000e-07	-1.619753e-06	-8.119097e-09	-1.134457e+01	-5.346535e+02
6.800000e-07	-1.519842e-06	-7.967516e-09	-1.064480e+01	-5.245484e+02
6.900000e-07	-1.419439e-06	-7.810386e-09	-9.941587e+00	-5.140972e+02
7.000000e-07	-1.318549e-06	-7.645773e-09	-9.234968e+00	-5.033686e+02
7.100000e-07	-1.217269e-06	-7.477947e-09	-8.525617e+00	-4.924109e+02
7.200000e-07	-1.115660e-06	-7.304034e-09	-7.813956e+00	-4.812203e+02
7.300000e-07	-1.013676e-06	-7.124616e-09	-7.099669e+00	-4.697303e+02
7.400000e-07	-9.113555e-07	-6.940335e-09	-6.383031e+00	-4.578294e+02
7.500000e-07	-8.087045e-07	-6.751238e-09	-5.664075e+00	-4.454004e+02
7.600000e-07	-7.057259e-07	-6.555549e-09	-4.942825e+00	-4.323639e+02
7.700000e-07	-6.024806e-07	-6.350030e-09	-4.219706e+00	-4.187059e+02
7.800000e-07	-4.990625e-07	-6.134262e-09	-3.495378e+00	-4.044767e+02
7.900000e-07	-3.955138e-07	-5.911324e-09	-2.770134e+00	-3.897560e+02
8.000000e-07	-2.918107e-07	-5.681469e-09	-2.043809e+00	-3.746005e+02
8.100000e-07	-1.880285e-07	-5.441040e-09	-1.316930e+00	-3.589951e+02
8.200000e-07	-8.418639e-08	-5.190246e-09	-5.896320e-01	-3.428309e+02
8.300000e-07	1.973983e-08	-4.928755e-09	1.382555e-01	-3.259228e+02
8.400000e-07	1.236891e-07	-4.656633e-09	8.663043e-01	-3.080632e+02
8.500000e-07	2.275760e-07	-4.371299e-09	1.593917e+00	-2.890865e+02
8.600000e-07	3.313405e-07	-4.069589e-09	2.320672e+00	-2.689157e+02
8.700000e-07	4.349895e-07	-3.747651e-09	3.046617e+00	-2.475610e+02
8.800000e-07	5.384891e-07	-3.404473e-09	3.771517e+00	-2.250596e+02
8.900000e-07	6.417836e-07	-3.040003e-09	4.494980e+00	-2.013715e+02
9.000000e-07	7.448520e-07	-2.650835e-09	5.216860e+00	-1.762678e+02
9.100000e-07	8.476499e-07	-2.231693e-09	5.936844e+00	-1.492610e+02
9.200000e-07	9.501450e-07	-1.773666e-09	6.654709e+00	-1.196208e+02
9.300000e-07	1.052321e-06	-1.266613e-09	7.370335e+00	-8.649398e+01
9.400000e-07	1.154129e-06	-7.004692e-10	8.083391e+00	-4.911271e+01
9.500000e-07	1.255520e-06	-6.548911e-11	8.793520e+00	-7.040949e+00
9.600000e-07	1.356476e-06	6.443699e-10	9.500603e+00	3.961141e+01
9.700000e-07	1.457049e-06	1.420699e-09	1.020501e+01	9.007655e+01
9.800000e-07	1.557259e-06	2.237633e-09	1.090687e+01	1.429635e+02
9.900000e-07	1.656925e-06	3.059491e-09	1.160492e+01	1.964439e+02
1.000000e-06	1.755871e-06	3.853534e-09	1.229792e+01	2.485474e+02
1.010000e-06	1.853962e-06	4.591291e-09	1.298494e+01	2.974946e+02
1.020000e-06	1.951197e-06	5.252702e-09	1.366596e+01	3.419807e+02
1.030000e-06	2.047718e-06	5.834359e-09	1.434198e+01	3.813413e+02
1.040000e-06	2.143526e-06	6.345506e-09	1.501301e+01	4.155665e+02
1.050000e-06	2.238643e-06	6.797129e-09	1.567920e+01	4.451719e+02
1.060000e-06	2.333061e-06	7.195933e-09	1.634050e+01	4.709771e+02
1.070000e-06	2.426703e-06	7.547179e-09	1.699636e+01	4.938626e+02
1.080000e-06	2.519626e-06	7.860391e-09	1.764717e+01	5.145716e+02
1.090000e-06	2.611805e-06	8.146536e-09	1.829278e+01	5.336038e+02
1.100000e-06	2.702951e-06	8.410035e-09	1.893117e+01	5.512105e+02
1.110000e-06	2.792860e-06	8.650449e-09	1.956088e+01	5.674690e+02
1.120000e-06	2.881671e-06	8.870500e-09	2.018290e+01	5.823920e+02
1.130000e-06	2.969553e-06	9.075644e-09	2.079841e+01	5.960239e+02
1.140000e-06	3.056480e-06	9.267584e-09	2.140724e+01	6.084920e+02
1.150000e-06	3.142330e-06	9.446359e-09	2.200853e+01	6.200002e+02
1.160000e-06	3.227165e-06	9.612922e-09	2.260270e+01	6.307804e+02
1.170000e-06	3.311065e-06	9.768588e-09	2.319033e+01	6.410291e+02
1.180000e-06	3.393741e-06	9.917765e-09	2.376938e+01	6.508595e+02
1.190000e-06	3.475093e-06	1.006171e-08	2.433916e+01	6.602889e+02
1.200000e-06	3.555246e-06	1.019612e-08	2.490054e+01	6.692638e+02
1.210000e-06	3.634154e-06	1.032136e-08	2.545321e+01	6.777090e+02
1.220000e-06	3.711747e-06	1.044140e-08	2.599666e+01	6.855784e+02
1.230000e-06	3.787938e-06	1.055587e-08	2.653029e+01	6.928861e+02
1.240000e-06	3.862591e-06	1.066110e-08	2.705315e+01	6.997077e+02
1.250000e-06	3.935673e-06	1.075838e-08	2.756501e+01	7.061540e+02
1.260000e-06	4.007320e-06	1.085132e-08	2.806682e+01	7.123316e+02
1.270000e-06	4.077610e-06	1.094232e-08	2.855912e+01	7.183082e+02
1.280000e-06	4.146571e-06	1.103008e-08	2.904212e+01	7.240979e+02
1.290000e-06	4.214120e-06	1.111224e-08	2.951522e+01	7.296704e+02
1.300000e-06	4.279981e-06	1.119030e-08	2.997650e+01	7.349789e+02
1.310000e-06	4.344195e-06	1.126457e-08	3.042625e+01	7.399917e+02
1.320000e-06	4.407008e-06	1.133402e-08	3.086619e+01	7.447133e+02
1.330000e-06	4.468422e-06	1.140124e-08	3.129633e+01	7.491866e+02
1.340000e-06	4.528403e-06	1.146952e-08	3.171642e+01	7.534757e+02
1.350000e-06	4.586695e-06	1.153652e-08	3.212470e+01	7.576382e+02
1.360000e-06	4.643183e-06	1.159691e-08	3.252033e+01	7.617012e+02
1.370000e-06	4.698033e-06	1.165164e-08	3.290449e+01	7.656509e+02
1.380000e-06	4.751167e-06	1.170600e-08	3.327664e+01	7.694412e+02
1.390000e-06	4.802366e-06	1.176006e-08	3.363523e+01	7.730170e+02
1.400000e-06	4.851554e-06	1.180928e-08	3.397974e+01	7.763406e+02
1.410000e-06	4.898964e-06	1.185449e-08	3.431179e+01	7.794111e+02
1.420000e-06	4.944786e-06	1.190022e-08	3.463273e+01	7.822654e+02
1.430000e-06	4.988906e-06	1.194441e-08	3.494173e+01	7.849633e+02
1.440000e-06	5.031098e-06	1.198416e-08	3.523724e+01	7.875618e+02
1.450000e-06	5.071482e-06	1.202195e-08	3.552009e+01	7.900905e+02
1.460000e-06	5.110211e-06	1.205885e-08	3.579134e+01	7.925398e+02
1.470000e-06	5.147271e-06	1.209338e-08	3.605091e+01	7.948662e+02
1.480000e-06	5.182532e-06	1.212473e-08	3.629787e+01	7.970126e+02
1.490000e-06	5.215754e-06	1.215246e-08	3.653055e+01	7.989348e+02
1.500000e-06	5.247102e-06	1.217716e-08	3.675011e+01	8.006222e+02
1.510000e-06	5.276820e-06	1.219779e-08	3.695825e+01	8.021041e+02
1.520000e-06	5.304810e-06	1.221643e-08	3.715429e+01	8.034384e+02
1.530000e-06	5.330716e-06	1.223759e-08	3.733573e+01	8.046880e+02
1.540000e-06	5.354551e-06	1.225980e-08	3.750267e+01	8.058961e+02
1.550000e-06	5.376628e-06	1.227851e-08	3.765730e+01	8.070687e+02
1.560000e-06	5.397017e-06	1.229318e-08	3.780010e+01	8.081749e+02
1.570000e-06	5.415559e-06	1.230634e-08	3.792997e+01	8.091616e+02
1.580000e-06	5.432080e-06	1.231723e-08	3.804568e+01	8.099782e+02
1.590000e-06	5.446592e-06	1.232294e-08	3.814732e+01	8.105989e+02
1.600000e-06	5.459057e-06	1.232616e-08	3.823462e+01	8.110341e+02
1.610000e-06	5.469280e-06	1.233216e-08	3.830622e+01	8.113259e+02
1.620000e-06	5.477396e-06	1.234291e-08	3.836306e+01	8.115303e+02
1.630000e-06	5.483696e-06	1.235239e-08	3.840719e+01	8.116932e+02
1.640000e-06	5.488206e-06	1.235407e-08	3.843878e+01	8.118333e+02
1.650000e-06	5.490724e-06	1.235299e-08	3.845641e+01	8.119353e+02
1.660000e-06	5.491236e-06	1.235329e-08	3.846000e+01	8.119603e+02
1.670000e-06	5.489982e-06	1.235026e-08	3.845121e+01	8.118641e+02
1.680000e-06	5.487066e-06	1.234377e-08	3.843079e+01	8.116180e+02
1.690000e-06	5.482305e-06	1.233560e-08	3.839745e+01	8.112209e+02
1.700000e-06	5.475572e-06	1.232981e-08	3.835029e+01	8.106981e+02
1.710000e-06	5.467130e-06	1.232622e-08	3.829116e+01	8.100881e+02
1.720000e-06	5.457089e-06	1.231960e-08	3.822084e+01	8.094225e+02
1.730000e-06	5.445159e-06	1.231597e-08	3.813728e+01	8.087111e+02
1.740000e-06	5.431189e-06	1.229668e-08	3.803944e+01	8.079365e+02
1.750000e-06	5.415192e-06	1.225899e-08	3.792739e+01	8.070636e+02
1.760000e-06	5.396754e-06	1.223239e-08	3.779826e+01	8.060576e+02
1.770000e-06	5.375544e-06	1.221448e-08	3.764970e+01	8.049032e+02
1.780000e-06	5.352141e-06	1.223282e-08	3.748579e+01	8.036157e+02
1.790000e-06	5.327629e-06	1.223739e-08	3.731411e+01	8.022369e+02
1.800000e-06	5.302342e-06	1.217080e-08	3.713701e+01	8.008180e+02
1.810000e-06	5.275325e-06	1.216950e-08	3.694778e+01	7.993959e+02
1.820000e-06	5.245976e-06	1.217227e-08	3.674222e+01	7.979730e+02
1.830000e-06	5.214941e-06	1.210921e-08	3.652486e+01	7.965106e+02
1.840000e-06	5.182183e-06	1.211140e-08	3.629543e+01	7.949396e+02
1.850000e-06	5.147548e-06	1.208416e-08	3.605285e+01	7.931843e+02
1.860000e-06	5.111307e-06	1.202404e-08	3.579902e+01	7.911913e+02
1.870000e-06	5.073067e-06	1.204240e-08	3.553119e+01	7.889504e+02
1.880000e-06	5.033005e-06	1.200322e-08	3.525060e+01	7.864981e+02
1.890000e-06	4.991388e-06	1.194316e-08	3.495912e+01	7.839034e+02
1.900000e-06	4.947908e-06	1.191048e-08	3.465459e+01	7.812399e+02
1.910000e-06	4.902649e-06	1.183855e-08	3.433760e+01	7.785557e+02
1.920000e-06	4.855538e-06	1.182512e-08	3.400764e+01	7.758546e+02
1.930000e-06	4.806610e-06	1.179323e-08	3.366495e+01	7.730961e+02
1.940000e-06	4.756000e-06	1.172981e-08	3.331049e+01	7.702128e+02
1.950000e-06	4.703300e-06	1.170506e-08	3.294138e+01	7.671405e+02
1.960000e-06	4.648626e-06	1.164834e-08	3.255845e+01	7.638458e+02
1.970000e-06	4.592291e-06	1.158873e-08	3.216389e+01	7.603406e+02
1.980000e-06	4.534372e-06	1.152523e-08	3.175823e+01	7.566763e+02
1.990000e-06	4.474980e-06	1.146608e-08	3.134225e+01	7.529216e+02
2.000000e-06	4.413818e-06	1.142618e-08	3.091388e+01	7.491313e+02
2.010000e-06	4.350945e-06	1.136826e-08	3.047353e+01	7.453218e+02
2.020000e-06	4.286546e-06	1.131521e-08	3.002248e+01	7.414622e+02
2.030000e-06	4.220692e-06	1.124078e-08	2.956125e+01	7.374860e+02
2.040000e-06	4.153472e-06	1.117244e-08	2.909045e+01	7.333191e+02
2.050000e-06	4.084634e-06	1.111751e-08	2.860831e+01	7.289106e+02
2.060000e-06	4.014195e-06	1.104608e-08	2.811497e+01	7.242550e+02
2.070000e-06	3.942350e-06	1.097854e-08	2.761177e+01	7.193948e+02
2.080000e-06	3.869217e-06	1.089461e-08	2.709956e+01	7.144025e+02
2.090000e-06	3.794666e-06	1.081767e-08	2.657741e+01	7.093492e+02
2.100000e-06	3.718472e-06	1.073913e-08	2.604376e+01	7.042738e+02
2.110000e-06	3.640673e-06	1.065766e-08	2.549886e+01	6.991646e+02
2.120000e-06	3.561459e-06	1.058718e-08	2.494406e+01	6.939630e+02
2.130000e-06	3.481069e-06	1.050523e-08	2.438101e+01	6.885864e+02
2.140000e-06	3.399519e-06	1.042202e-08	2.380984e+01	6.829615e+02
2.150000e-06	3.316810e-06	1.033260e-08	2.323057e+01	6.770543e+02
2.160000e-06	3.232953e-06	1.023867e-08	2.264324e+01	6.708821e+02
2.170000e-06	3.147801e-06	1.014112e-08	2.204684e+01	6.645051e+02
2.180000e-06	3.061454e-06	1.004433e-08	2.144208e+01	6.579988e+02
2.190000e-06	2.974082e-06	9.948963e-09	2.083013e+01	6.514208e+02
2.200000e-06	2.885737e-06	9.848087e-09	2.021137e+01	6.447847e+02
2.210000e-06	2.796393e-06	9.743777e-09	1.958562e+01	6.380544e+02
2.220000e-06	2.706089e-06	9.636474e-09	1.895314e+01	6.311587e+02
2.230000e-06	2.614932e-06	9.533065e-09	1.831469e+01	6.240214e+02
2.240000e-06	2.522914e-06	9.424424e-09	1.767020e+01	6.165929e+02
2.250000e-06	2.430001e-06	9.308059e-09	1.701946e+01	6.088691e+02
2.260000e-06	2.336041e-06	9.185041e-09	1.636137e+01	6.008890e+02
2.270000e-06	2.241136e-06	9.061248e-09	1.569666e+01	5.927128e+02
2.280000e-06	2.145484e-06	8.939747e-09	1.502673e+01	5.843894e+02
2.290000e-06	2.049104e-06	8.811473e-09	1.435170e+01	5.759287e+02
2.300000e-06	1.952067e-06	8.679605e-09	1.367206e+01	5.672914e+02
2.310000e-06	1.854460e-06	8.545996e-09	1.298843e+01	5.584008e+02
2.320000e-06	1.756281e-06	8.408900e-09	1.230079e+01	5.491732e+02
2.330000e-06	1.657510e-06	8.262365e-09	1.160902e+01	5.395515e+02
2.340000e-06	1.558218e-06	8.106795e-09	1.091359e+01	5.295283e+02
2.350000e-06	1.458430e-06	7.950635e-09	1.021468e+01	5.191455e+02
2.360000e-06	1.358126e-06	7.794489e-09	9.512162e+00	5.084709e+02
2.370000e-06	1.257253e-06	7.633167e-09	8.805660e+00	4.975604e+02
2.380000e-06	1.155836e-06	7.461132e-09	8.095346e+00	4.864232e+02
2.390000e-06	1.053920e-06	7.281890e-09	7.381538e+00	4.750055e+02
2.400000e-06	9.514994e-07	7.100552e-09	6.664194e+00	4.632030e+02
2.410000e-06	8.486590e-07	6.914356e-09	5.943912e+00	4.508957e+02
2.420000e-06	7.455212e-07	6.719992e-09	5.221546e+00	4.379928e+02
2.430000e-06	6.421355e-07	6.514395e-09	4.497444e+00	4.244656e+02
2.440000e-06	5.385345e-07	6.299389e-09	3.771835e+00	4.103523e+02
2.450000e-06	4.347806e-07	6.078493e-09	3.045154e+00	3.957304e+02
2.460000e-06	3.309197e-07	5.849586e-09	2.317724e+00	3.806662e+02
2.470000e-06	2.269817e-07	5.611258e-09	1.589754e+00	3.651631e+02
2.480000e-06	1.229930e-07	5.364005e-09	8.614291e-01	3.491321e+02
2.490000e-06	1.896705e-08	5.106379e-09	1.328431e-01	3.324011e+02
2.500000e-06	-8.507393e-08	4.836434e-09	-5.958482e-01	3.147616e+02
2.510000e-06	-1.891151e-07	4.552422e-09	-1.324541e+00	2.960341e+02
2.520000e-06	-2.930781e-07	4.251372e-09	-2.052686e+00	2.761207e+02
2.530000e-06	-3.968323e-07	3.933393e-09	-2.779369e+00	2.550160e+02
2.540000e-06	-5.004499e-07	3.597397e-09	-3.505095e+00	2.327591e+02
2.550000e-06	-6.039632e-07	3.241692e-09	-4.230090e+00	2.093366e+02
2.560000e-06	-7.072827e-07	2.863613e-09	-4.953728e+00	1.845679e+02
2.570000e-06	-8.103493e-07	2.454370e-09	-5.675595e+00	1.580232e+02
2.580000e-06	-9.131238e-07	2.006905e-09	-6.395416e+00	1.290175e+02
2.590000e-06	-1.015512e-06	1.515858e-09	-7.112530e+00	9.670902e+01
2.600000e-06	-1.117334e-06	9.692005e-10	-7.825680e+00	6.029107e+01
2.610000e-06	-1.218531e-06	3.538574e-10	-8.534454e+00	1.923626e+01
2.620000e-06	-1.319135e-06	-3.338485e-10	-9.239076e+00	-2.647631e+01
2.630000e-06	-1.419224e-06	-1.088820e-09	-9.940087e+00	-7.622224e+01
2.640000e-06	-1.518882e-06	-1.895478e-09	-1.063808e+01	-1.287333e+02
2.650000e-06	-1.618115e-06	-2.724749e-09	-1.133310e+01	-1.822527e+02
2.660000e-06	-1.716840e-06	-3.538097e-09	-1.202456e+01	-2.348126e+02
2.670000e-06	-1.814908e-06	-4.300093e-09	-1.271141e+01	-2.845657e+02
2.680000e-06	-1.912336e-06	-4.991676e-09	-1.339379e+01	-3.300868e+02
2.690000e-06	-2.009167e-06	-5.608436e-09	-1.407198e+01	-3.705679e+02
2.700000e-06	-2.105278e-06	-6.151411e-09	-1.474513e+01	-4.058652e+02
2.710000e-06	-2.200753e-06	-6.625350e-09	-1.541382e+01	-4.363982e+02
2.720000e-06	-2.295745e-06	-7.040283e-09	-1.607914e+01	-4.629423e+02
2.730000e-06	-2.389997e-06	-7.408092e-09	-1.673927e+01	-4.863839e+02
2.740000e-06	-2.483116e-06	-7.737608e-09	-1.739146e+01	-5.075083e+02
2.750000e-06	-2.575077e-06	-8.035090e-09	-1.803555e+01	-5.268710e+02
2.760000e-06	-2.666072e-06	-8.304875e-09	-1.867287e+01	-5.447723e+02
2.770000e-06	-2.756125e-06	-8.552772e-09	-1.930359e+01	-5.613183e+02
2.780000e-06	-2.845218e-06	-8.786496e-09	-1.992759e+01	-5.765260e+02
2.790000e-06	-2.933384e-06	-9.005608e-09	-2.054509e+01	-5.904270e+02
2.800000e-06	-3.020632e-06	-9.202035e-09	-2.115616e+01	-6.031295e+02
2.810000e-06	-3.106815e-06	-9.381521e-09	-2.175978e+01	-6.148239e+02
2.820000e-06	-3.191740e-06	-9.554646e-09	-2.235459e+01	-6.257416e+02
2.830000e-06	-3.275442e-06	-9.719006e-09	-2.294083e+01	-6.360914e+02
2.840000e-06	-3.358004e-06	-9.869759e-09	-2.351908e+01	-6.460070e+02
2.850000e-06	-3.439464e-06	-1.000857e-08	-2.408962e+01	-6.555251e+02
2.860000e-06	-3.519817e-06	-1.014191e-08	-2.465240e+01	-6.646039e+02
2.870000e-06	-3.599010e-06	-1.027042e-08	-2.520706e+01	-6.731683e+02
2.880000e-06	-3.676703e-06	-1.039167e-08	-2.575122e+01	-6.811623e+02
2.890000e-06	-3.752780e-06	-1.050520e-08	-2.628405e+01	-6.885858e+02
2.900000e-06	-3.827474e-06	-1.061560e-08	-2.680720e+01	-6.955030e+02
2.910000e-06	-3.900800e-06	-1.072229e-08	-2.732076e+01	-7.020201e+02
2.920000e-06	-3.972768e-06	-1.082054e-08	-2.782482e+01	-7.082480e+02
2.930000e-06	-4.043370e-06	-1.091053e-08	-2.831931e+01	-7.142647e+02
2.940000e-06	-4.112406e-06	-1.099552e-08	-2.880283e+01	-7.200958e+02
