# Temperatura_=_56.37
# Concentracion g/m^3_=_13400.0
# C_Vs_to_Am_M_A/Vsm_=_65563218390.804596
# pendiente_HvsI_1/m_=_3716.3
# ordenada_HvsI_A/m_=_1297.0
# frecuencia_Hz_=_300807.64178447425

Tiempo_(s)	Campo_(V.s)	Magnetizacion_(V.s)	Campo_(kA/m)	Magnetizacion_(A/m)
0.000000e+00	-5.485481e-06	-1.263025e-08	-3.830695e+01	-8.270453e+02
1.000000e-08	-5.483827e-06	-1.262942e-08	-3.829540e+01	-8.269553e+02
2.000000e-08	-5.480172e-06	-1.262753e-08	-3.826987e+01	-8.266745e+02
3.000000e-08	-5.474777e-06	-1.262445e-08	-3.823220e+01	-8.261957e+02
4.000000e-08	-5.467801e-06	-1.262009e-08	-3.818348e+01	-8.255525e+02
5.000000e-08	-5.459153e-06	-1.260915e-08	-3.812309e+01	-8.248011e+02
6.000000e-08	-5.448570e-06	-1.258974e-08	-3.804919e+01	-8.239937e+02
7.000000e-08	-5.435958e-06	-1.256732e-08	-3.796111e+01	-8.231539e+02
8.000000e-08	-5.421303e-06	-1.256062e-08	-3.785878e+01	-8.222673e+02
9.000000e-08	-5.404285e-06	-1.257024e-08	-3.773993e+01	-8.212899e+02
1.000000e-07	-5.384963e-06	-1.256366e-08	-3.760500e+01	-8.201715e+02
1.100000e-07	-5.363683e-06	-1.253544e-08	-3.745640e+01	-8.188816e+02
1.200000e-07	-5.340591e-06	-1.249248e-08	-3.729514e+01	-8.174276e+02
1.300000e-07	-5.315994e-06	-1.244687e-08	-3.712336e+01	-8.158556e+02
1.400000e-07	-5.289863e-06	-1.244572e-08	-3.694088e+01	-8.142323e+02
1.500000e-07	-5.261893e-06	-1.242139e-08	-3.674556e+01	-8.126165e+02
1.600000e-07	-5.232252e-06	-1.237412e-08	-3.653857e+01	-8.110318e+02
1.700000e-07	-5.201044e-06	-1.237031e-08	-3.632063e+01	-8.094517e+02
1.800000e-07	-5.167874e-06	-1.233664e-08	-3.608899e+01	-8.078058e+02
1.900000e-07	-5.132646e-06	-1.229343e-08	-3.584298e+01	-8.060038e+02
2.000000e-07	-5.095875e-06	-1.227331e-08	-3.558620e+01	-8.039679e+02
2.100000e-07	-5.057496e-06	-1.222224e-08	-3.531819e+01	-8.016613e+02
2.200000e-07	-5.017289e-06	-1.218501e-08	-3.503741e+01	-7.991005e+02
2.300000e-07	-4.975159e-06	-1.216653e-08	-3.474320e+01	-7.963467e+02
2.400000e-07	-4.930999e-06	-1.211451e-08	-3.443482e+01	-7.934801e+02
2.500000e-07	-4.885103e-06	-1.206921e-08	-3.411431e+01	-7.905679e+02
2.600000e-07	-4.837481e-06	-1.200624e-08	-3.378175e+01	-7.876390e+02
2.700000e-07	-4.787862e-06	-1.193989e-08	-3.343524e+01	-7.846752e+02
2.800000e-07	-4.736106e-06	-1.191671e-08	-3.307382e+01	-7.816226e+02
2.900000e-07	-4.682389e-06	-1.188473e-08	-3.269869e+01	-7.784164e+02
3.000000e-07	-4.627017e-06	-1.182639e-08	-3.231201e+01	-7.750091e+02
3.100000e-07	-4.570077e-06	-1.177392e-08	-3.191438e+01	-7.713899e+02
3.200000e-07	-4.511348e-06	-1.171652e-08	-3.150425e+01	-7.675864e+02
3.300000e-07	-4.450898e-06	-1.163795e-08	-3.108211e+01	-7.636507e+02
3.400000e-07	-4.388977e-06	-1.157050e-08	-3.064969e+01	-7.596340e+02
3.500000e-07	-4.325585e-06	-1.151448e-08	-3.020701e+01	-7.555638e+02
3.600000e-07	-4.260728e-06	-1.145162e-08	-2.975409e+01	-7.514319e+02
3.700000e-07	-4.194181e-06	-1.139959e-08	-2.928937e+01	-7.471986e+02
3.800000e-07	-4.125905e-06	-1.133795e-08	-2.881258e+01	-7.428115e+02
3.900000e-07	-4.056147e-06	-1.124942e-08	-2.832543e+01	-7.382291e+02
4.000000e-07	-3.985136e-06	-1.117181e-08	-2.782954e+01	-7.334391e+02
4.100000e-07	-3.912957e-06	-1.110106e-08	-2.732549e+01	-7.284629e+02
4.200000e-07	-3.839324e-06	-1.102404e-08	-2.681128e+01	-7.233447e+02
4.300000e-07	-3.763958e-06	-1.094320e-08	-2.628498e+01	-7.181300e+02
4.400000e-07	-3.686917e-06	-1.086249e-08	-2.574698e+01	-7.128434e+02
4.500000e-07	-3.608456e-06	-1.078441e-08	-2.519906e+01	-7.074760e+02
4.600000e-07	-3.528553e-06	-1.070138e-08	-2.464107e+01	-7.019876e+02
4.700000e-07	-3.447219e-06	-1.060833e-08	-2.407308e+01	-6.963232e+02
4.800000e-07	-3.364684e-06	-1.051097e-08	-2.349671e+01	-6.904356e+02
4.900000e-07	-3.281021e-06	-1.042279e-08	-2.291247e+01	-6.843054e+02
5.000000e-07	-3.196358e-06	-1.033200e-08	-2.232124e+01	-6.779468e+02
5.100000e-07	-3.110774e-06	-1.023218e-08	-2.172358e+01	-6.714001e+02
5.200000e-07	-3.024212e-06	-1.012862e-08	-2.111908e+01	-6.647108e+02
5.300000e-07	-2.936656e-06	-1.002119e-08	-2.050765e+01	-6.579081e+02
5.400000e-07	-2.848183e-06	-9.914970e-09	-1.988981e+01	-6.509906e+02
5.500000e-07	-2.758735e-06	-9.808546e-09	-1.926517e+01	-6.439258e+02
5.600000e-07	-2.668020e-06	-9.695887e-09	-1.863168e+01	-6.366647e+02
5.700000e-07	-2.576134e-06	-9.579626e-09	-1.799001e+01	-6.291636e+02
5.800000e-07	-2.483420e-06	-9.462379e-09	-1.734255e+01	-6.214019e+02
5.900000e-07	-2.389931e-06	-9.340773e-09	-1.668968e+01	-6.133897e+02
6.000000e-07	-2.295659e-06	-9.210584e-09	-1.603135e+01	-6.051580e+02
6.100000e-07	-2.200666e-06	-9.074934e-09	-1.536799e+01	-5.967392e+02
6.200000e-07	-2.104904e-06	-8.941355e-09	-1.469925e+01	-5.881442e+02
6.300000e-07	-2.008355e-06	-8.810955e-09	-1.402501e+01	-5.793501e+02
6.400000e-07	-1.911120e-06	-8.676338e-09	-1.334599e+01	-5.703029e+02
6.500000e-07	-1.813132e-06	-8.529849e-09	-1.266171e+01	-5.609367e+02
6.600000e-07	-1.714254e-06	-8.378259e-09	-1.197121e+01	-5.512002e+02
6.700000e-07	-1.614573e-06	-8.225044e-09	-1.127511e+01	-5.410784e+02
6.800000e-07	-1.514290e-06	-8.066449e-09	-1.057480e+01	-5.305983e+02
6.900000e-07	-1.413568e-06	-7.900643e-09	-9.871416e+00	-5.198141e+02
7.000000e-07	-1.312489e-06	-7.728161e-09	-9.165550e+00	-5.087773e+02
7.100000e-07	-1.210996e-06	-7.554941e-09	-8.456789e+00	-4.975049e+02
7.200000e-07	-1.109019e-06	-7.379850e-09	-7.744651e+00	-4.859593e+02
7.300000e-07	-1.006669e-06	-7.199788e-09	-7.029908e+00	-4.740520e+02
7.400000e-07	-9.040575e-07	-7.011640e-09	-6.313336e+00	-4.616715e+02
7.500000e-07	-8.011897e-07	-6.812550e-09	-5.594976e+00	-4.487234e+02
7.600000e-07	-6.980604e-07	-6.604772e-09	-4.874790e+00	-4.351659e+02
7.700000e-07	-5.946200e-07	-6.391320e-09	-4.152431e+00	-4.210230e+02
7.800000e-07	-4.908810e-07	-6.169326e-09	-3.427986e+00	-4.063664e+02
7.900000e-07	-3.869750e-07	-5.937726e-09	-2.702376e+00	-3.912701e+02
8.000000e-07	-2.829579e-07	-5.700309e-09	-1.975990e+00	-3.757572e+02
8.100000e-07	-1.787862e-07	-5.458834e-09	-1.248524e+00	-3.597616e+02
8.200000e-07	-7.450734e-08	-5.208276e-09	-5.203097e-01	-3.431239e+02
8.300000e-07	2.982222e-08	-4.938175e-09	2.082585e-01	-3.256291e+02
8.400000e-07	1.341342e-07	-4.649302e-09	9.367037e-01	-3.070716e+02
8.500000e-07	2.383600e-07	-4.346264e-09	1.664548e+00	-2.873196e+02
8.600000e-07	3.424807e-07	-4.030146e-09	2.391658e+00	-2.663464e+02
8.700000e-07	4.464559e-07	-3.697050e-09	3.117751e+00	-2.442028e+02
8.800000e-07	5.502801e-07	-3.343332e-09	3.842790e+00	-2.209317e+02
8.900000e-07	6.538997e-07	-2.966701e-09	4.566400e+00	-1.964462e+02
9.000000e-07	7.572202e-07	-2.562956e-09	5.287922e+00	-1.704188e+02
9.100000e-07	8.602623e-07	-2.124887e-09	6.007500e+00	-1.422350e+02
9.200000e-07	9.630130e-07	-1.640705e-09	6.725042e+00	-1.110470e+02
9.300000e-07	1.065412e-06	-1.100126e-09	7.440126e+00	-7.593922e+01
9.400000e-07	1.167430e-06	-4.961071e-10	8.152554e+00	-3.617230e+01
9.500000e-07	1.269067e-06	1.774504e-10	8.862320e+00	8.554934e+00
9.600000e-07	1.370304e-06	9.251289e-10	9.569294e+00	5.790552e+01
9.700000e-07	1.471152e-06	1.738243e-09	1.027354e+01	1.108337e+02
9.800000e-07	1.571576e-06	2.585704e-09	1.097484e+01	1.656785e+02
9.900000e-07	1.671440e-06	3.426176e-09	1.167223e+01	2.204104e+02
1.000000e-06	1.770574e-06	4.226287e-09	1.236451e+01	2.729719e+02
1.010000e-06	1.868881e-06	4.959114e-09	1.305102e+01	3.216276e+02
1.020000e-06	1.966452e-06	5.606540e-09	1.373239e+01	3.652326e+02
1.030000e-06	2.063360e-06	6.168619e-09	1.440913e+01	4.033558e+02
1.040000e-06	2.159545e-06	6.658213e-09	1.508082e+01	4.362351e+02
1.050000e-06	2.254923e-06	7.091299e-09	1.574688e+01	4.645937e+02
1.060000e-06	2.349510e-06	7.477359e-09	1.640741e+01	4.893801e+02
1.070000e-06	2.443394e-06	7.818126e-09	1.706304e+01	5.115121e+02
1.080000e-06	2.536531e-06	8.121721e-09	1.771344e+01	5.316932e+02
1.090000e-06	2.628837e-06	8.400424e-09	1.835805e+01	5.503388e+02
1.100000e-06	2.720097e-06	8.659055e-09	1.899534e+01	5.676110e+02
1.110000e-06	2.810143e-06	8.894778e-09	1.962417e+01	5.835248e+02
1.120000e-06	2.899190e-06	9.108571e-09	2.024602e+01	5.980732e+02
1.130000e-06	2.987296e-06	9.307289e-09	2.086129e+01	6.113216e+02
1.140000e-06	3.074325e-06	9.494102e-09	2.146904e+01	6.234406e+02
1.150000e-06	3.160307e-06	9.670051e-09	2.206948e+01	6.346769e+02
1.160000e-06	3.245319e-06	9.833991e-09	2.266315e+01	6.452847e+02
1.170000e-06	3.329260e-06	9.986290e-09	2.324934e+01	6.554538e+02
1.180000e-06	3.411982e-06	1.013337e-08	2.382701e+01	6.652656e+02
1.190000e-06	3.493453e-06	1.027707e-08	2.439595e+01	6.746954e+02
1.200000e-06	3.573679e-06	1.041153e-08	2.495620e+01	6.836540e+02
1.210000e-06	3.652604e-06	1.053467e-08	2.550735e+01	6.920510e+02
1.220000e-06	3.730215e-06	1.065184e-08	2.604934e+01	6.998487e+02
1.230000e-06	3.806485e-06	1.076567e-08	2.658196e+01	7.070877e+02
1.240000e-06	3.881259e-06	1.087337e-08	2.710413e+01	7.138744e+02
1.250000e-06	3.954489e-06	1.097236e-08	2.761552e+01	7.203407e+02
1.260000e-06	4.026227e-06	1.106429e-08	2.811649e+01	7.265946e+02
1.270000e-06	4.096554e-06	1.115561e-08	2.860761e+01	7.326852e+02
1.280000e-06	4.165577e-06	1.124491e-08	2.908962e+01	7.385960e+02
1.290000e-06	4.233129e-06	1.132762e-08	2.956136e+01	7.442668e+02
1.300000e-06	4.299064e-06	1.140609e-08	3.002181e+01	7.496346e+02
1.310000e-06	4.363443e-06	1.148227e-08	3.047138e+01	7.546714e+02
1.320000e-06	4.426297e-06	1.155596e-08	3.091031e+01	7.594049e+02
1.330000e-06	4.487767e-06	1.162545e-08	3.133958e+01	7.639103e+02
1.340000e-06	4.547778e-06	1.168995e-08	3.175866e+01	7.682805e+02
1.350000e-06	4.606082e-06	1.175232e-08	3.216581e+01	7.725866e+02
1.360000e-06	4.662658e-06	1.181710e-08	3.256090e+01	7.768485e+02
1.370000e-06	4.717560e-06	1.188188e-08	3.294430e+01	7.810269e+02
1.380000e-06	4.770724e-06	1.194199e-08	3.331556e+01	7.850418e+02
1.390000e-06	4.821881e-06	1.199597e-08	3.367281e+01	7.888085e+02
1.400000e-06	4.870964e-06	1.204609e-08	3.401557e+01	7.922752e+02
1.410000e-06	4.918288e-06	1.209471e-08	3.434605e+01	7.954459e+02
1.420000e-06	4.964063e-06	1.214020e-08	3.466571e+01	7.983790e+02
1.430000e-06	5.008189e-06	1.218257e-08	3.497386e+01	8.011625e+02
1.440000e-06	5.050395e-06	1.222546e-08	3.526860e+01	8.038763e+02
1.450000e-06	5.090674e-06	1.227050e-08	3.554988e+01	8.065590e+02
1.460000e-06	5.129244e-06	1.231203e-08	3.581923e+01	8.091922e+02
1.470000e-06	5.166173e-06	1.234718e-08	3.607711e+01	8.117104e+02
1.480000e-06	5.201269e-06	1.237957e-08	3.632220e+01	8.140308e+02
1.490000e-06	5.234430e-06	1.241028e-08	3.655378e+01	8.160905e+02
1.500000e-06	5.265808e-06	1.243674e-08	3.677290e+01	8.178747e+02
1.510000e-06	5.295458e-06	1.245948e-08	3.697995e+01	8.194245e+02
1.520000e-06	5.323285e-06	1.248149e-08	3.717428e+01	8.208201e+02
1.530000e-06	5.349068e-06	1.250533e-08	3.735433e+01	8.221476e+02
1.540000e-06	5.372826e-06	1.252864e-08	3.752024e+01	8.234633e+02
1.550000e-06	5.394785e-06	1.254805e-08	3.767359e+01	8.247711e+02
1.560000e-06	5.415027e-06	1.256377e-08	3.781495e+01	8.260215e+02
1.570000e-06	5.433387e-06	1.257750e-08	3.794316e+01	8.271340e+02
1.580000e-06	5.449714e-06	1.258942e-08	3.805718e+01	8.280319e+02
1.590000e-06	5.464101e-06	1.259670e-08	3.815764e+01	8.286750e+02
1.600000e-06	5.476408e-06	1.260147e-08	3.824359e+01	8.290773e+02
1.610000e-06	5.486446e-06	1.260931e-08	3.831369e+01	8.293012e+02
1.620000e-06	5.494372e-06	1.261948e-08	3.836904e+01	8.294322e+02
1.630000e-06	5.500425e-06	1.262575e-08	3.841131e+01	8.295451e+02
1.640000e-06	5.504698e-06	1.262604e-08	3.844115e+01	8.296747e+02
1.650000e-06	5.507035e-06	1.262571e-08	3.845747e+01	8.298049e+02
1.660000e-06	5.507397e-06	1.262773e-08	3.846000e+01	8.298787e+02
1.670000e-06	5.505978e-06	1.262761e-08	3.845008e+01	8.298245e+02
1.680000e-06	5.502875e-06	1.262098e-08	3.842842e+01	8.295868e+02
1.690000e-06	5.497943e-06	1.261149e-08	3.839398e+01	8.291490e+02
1.700000e-06	5.491059e-06	1.260543e-08	3.834590e+01	8.285367e+02
1.710000e-06	5.482419e-06	1.259999e-08	3.828557e+01	8.278037e+02
1.720000e-06	5.472174e-06	1.259131e-08	3.821403e+01	8.270052e+02
1.730000e-06	5.460031e-06	1.258037e-08	3.812922e+01	8.261723e+02
1.740000e-06	5.445803e-06	1.255125e-08	3.802986e+01	8.252988e+02
1.750000e-06	5.429531e-06	1.251818e-08	3.791623e+01	8.243454e+02
1.760000e-06	5.410783e-06	1.249511e-08	3.778531e+01	8.232609e+02
1.770000e-06	5.389240e-06	1.248131e-08	3.763487e+01	8.220087e+02
1.780000e-06	5.365560e-06	1.249152e-08	3.746950e+01	8.205872e+02
1.790000e-06	5.340809e-06	1.247197e-08	3.729666e+01	8.190353e+02
1.800000e-06	5.315307e-06	1.243181e-08	3.711857e+01	8.174174e+02
1.810000e-06	5.288031e-06	1.241966e-08	3.692809e+01	8.157966e+02
1.820000e-06	5.258373e-06	1.239492e-08	3.672098e+01	8.142058e+02
1.830000e-06	5.227065e-06	1.237286e-08	3.650234e+01	8.126295e+02
1.840000e-06	5.194011e-06	1.236936e-08	3.627152e+01	8.110052e+02
1.850000e-06	5.159134e-06	1.233499e-08	3.602796e+01	8.092442e+02
1.860000e-06	5.122630e-06	1.229742e-08	3.577304e+01	8.072634e+02
1.870000e-06	5.084029e-06	1.227665e-08	3.550348e+01	8.050153e+02
1.880000e-06	5.043597e-06	1.222976e-08	3.522113e+01	8.025051e+02
1.890000e-06	5.001660e-06	1.218397e-08	3.492827e+01	7.997862e+02
1.900000e-06	4.957881e-06	1.214546e-08	3.462254e+01	7.969373e+02
1.910000e-06	4.912265e-06	1.210851e-08	3.430399e+01	7.940310e+02
1.920000e-06	4.864829e-06	1.208971e-08	3.397273e+01	7.911058e+02
1.930000e-06	4.815608e-06	1.203856e-08	3.362900e+01	7.881532e+02
1.940000e-06	4.764639e-06	1.196292e-08	3.327307e+01	7.851253e+02
1.950000e-06	4.711511e-06	1.190967e-08	3.290206e+01	7.819570e+02
1.960000e-06	4.656503e-06	1.186283e-08	3.251792e+01	7.785953e+02
1.970000e-06	4.599906e-06	1.181000e-08	3.212268e+01	7.750204e+02
1.980000e-06	4.541681e-06	1.176654e-08	3.171608e+01	7.712526e+02
1.990000e-06	4.481979e-06	1.172587e-08	3.129916e+01	7.673406e+02
2.000000e-06	4.420511e-06	1.165488e-08	3.086991e+01	7.633379e+02
2.010000e-06	4.357358e-06	1.158472e-08	3.042889e+01	7.592788e+02
2.020000e-06	4.292715e-06	1.151944e-08	2.997747e+01	7.551626e+02
2.030000e-06	4.226615e-06	1.143719e-08	2.951586e+01	7.509555e+02
2.040000e-06	4.159114e-06	1.138076e-08	2.904448e+01	7.466056e+02
2.050000e-06	4.089818e-06	1.132282e-08	2.856057e+01	7.420674e+02
2.060000e-06	4.018852e-06	1.125725e-08	2.806499e+01	7.373213e+02
2.070000e-06	3.946578e-06	1.118643e-08	2.756028e+01	7.323819e+02
2.080000e-06	3.873016e-06	1.109451e-08	2.704657e+01	7.272901e+02
2.090000e-06	3.798031e-06	1.101855e-08	2.652292e+01	7.220931e+02
2.100000e-06	3.721400e-06	1.093406e-08	2.598778e+01	7.168216e+02
2.110000e-06	3.643189e-06	1.085322e-08	2.544161e+01	7.114741e+02
2.120000e-06	3.563661e-06	1.077689e-08	2.488624e+01	7.060161e+02
2.130000e-06	3.482958e-06	1.069213e-08	2.432266e+01	7.003941e+02
2.140000e-06	3.401089e-06	1.060493e-08	2.375094e+01	6.945573e+02
2.150000e-06	3.318162e-06	1.049991e-08	2.317184e+01	6.884790e+02
2.160000e-06	3.234037e-06	1.041065e-08	2.258437e+01	6.821668e+02
2.170000e-06	3.148483e-06	1.031505e-08	2.198691e+01	6.756564e+02
2.180000e-06	3.061692e-06	1.021713e-08	2.138082e+01	6.689944e+02
2.190000e-06	2.973950e-06	1.011757e-08	2.076809e+01	6.622152e+02
2.200000e-06	2.885277e-06	9.999791e-09	2.014885e+01	6.553242e+02
2.210000e-06	2.795663e-06	9.896233e-09	1.952305e+01	6.482949e+02
2.220000e-06	2.705158e-06	9.786373e-09	1.889103e+01	6.410802e+02
2.230000e-06	2.613734e-06	9.675789e-09	1.825258e+01	6.336333e+02
2.240000e-06	2.521428e-06	9.561205e-09	1.760798e+01	6.259277e+02
2.250000e-06	2.428143e-06	9.441766e-09	1.695654e+01	6.179671e+02
2.260000e-06	2.333734e-06	9.328257e-09	1.629725e+01	6.097796e+02
2.270000e-06	2.238434e-06	9.201098e-09	1.563174e+01	6.013990e+02
2.280000e-06	2.142432e-06	9.069744e-09	1.496132e+01	5.928426e+02
2.290000e-06	2.045732e-06	8.932179e-09	1.428603e+01	5.840949e+02
2.300000e-06	1.948384e-06	8.796080e-09	1.360622e+01	5.751076e+02
2.310000e-06	1.850447e-06	8.659445e-09	1.292229e+01	5.658151e+02
2.320000e-06	1.751910e-06	8.509303e-09	1.223418e+01	5.561608e+02
2.330000e-06	1.652761e-06	8.356087e-09	1.154178e+01	5.461207e+02
2.340000e-06	1.553128e-06	8.199981e-09	1.084601e+01	5.357134e+02
2.350000e-06	1.453068e-06	8.041692e-09	1.014726e+01	5.249895e+02
2.360000e-06	1.352510e-06	7.878156e-09	9.445031e+00	5.140040e+02
2.370000e-06	1.251333e-06	7.706417e-09	8.738479e+00	5.027834e+02
2.380000e-06	1.149495e-06	7.531175e-09	8.027309e+00	4.913023e+02
2.390000e-06	1.047056e-06	7.348852e-09	7.311945e+00	4.794818e+02
2.400000e-06	9.441285e-07	7.157746e-09	6.593165e+00	4.672120e+02
2.410000e-06	8.408701e-07	6.959370e-09	5.872078e+00	4.543913e+02
2.420000e-06	7.373693e-07	6.754866e-09	5.149296e+00	4.409647e+02
2.430000e-06	6.336563e-07	6.546310e-09	4.425034e+00	4.269424e+02
2.440000e-06	5.297714e-07	6.329248e-09	3.699571e+00	4.123890e+02
2.450000e-06	4.257461e-07	6.101255e-09	2.973128e+00	3.973825e+02
2.460000e-06	3.216258e-07	5.862870e-09	2.246021e+00	3.819612e+02
2.470000e-06	2.174192e-07	5.618108e-09	1.518311e+00	3.660797e+02
2.480000e-06	1.130979e-07	5.365911e-09	7.898003e-01	3.495967e+02
2.490000e-06	8.741009e-09	5.096973e-09	6.104139e-02	3.323044e+02
2.500000e-06	-9.555843e-08	4.814351e-09	-6.673165e-01	3.139891e+02
2.510000e-06	-1.998381e-07	4.521836e-09	-1.395537e+00	2.944991e+02
2.520000e-06	-3.040444e-07	4.215407e-09	-2.123244e+00	2.737851e+02
2.530000e-06	-4.080759e-07	3.887302e-09	-2.849730e+00	2.518868e+02
2.540000e-06	-5.119790e-07	3.533445e-09	-3.575320e+00	2.288584e+02
2.550000e-06	-6.157518e-07	3.162711e-09	-4.300001e+00	2.046512e+02
2.560000e-06	-7.193022e-07	2.773898e-09	-5.023128e+00	1.789964e+02
2.570000e-06	-8.225884e-07	2.350449e-09	-5.744410e+00	1.513400e+02
2.580000e-06	-9.255971e-07	1.880481e-09	-6.463754e+00	1.208740e+02
2.590000e-06	-1.028212e-06	1.359354e-09	-7.180346e+00	8.667862e+01
2.600000e-06	-1.130282e-06	7.789523e-10	-7.893134e+00	4.795416e+01
2.610000e-06	-1.231799e-06	1.274256e-10	-8.602064e+00	4.285451e+00
2.620000e-06	-1.332761e-06	-6.007524e-10	-9.307113e+00	-4.413849e+01
2.630000e-06	-1.433161e-06	-1.399040e-09	-1.000824e+01	-9.642160e+01
2.640000e-06	-1.533142e-06	-2.243395e-09	-1.070644e+01	-1.510187e+02
2.650000e-06	-1.632673e-06	-3.094939e-09	-1.140150e+01	-2.059525e+02
2.660000e-06	-1.731610e-06	-3.913585e-09	-1.209241e+01	-2.591409e+02
2.670000e-06	-1.829895e-06	-4.670997e-09	-1.277877e+01	-3.087530e+02
2.680000e-06	-1.927501e-06	-5.352742e-09	-1.346039e+01	-3.535013e+02
2.690000e-06	-2.024444e-06	-5.954320e-09	-1.413737e+01	-3.927998e+02
2.700000e-06	-2.120775e-06	-6.478493e-09	-1.481008e+01	-4.267546e+02
2.710000e-06	-2.216547e-06	-6.932819e-09	-1.547889e+01	-4.560055e+02
2.720000e-06	-2.311694e-06	-7.328736e-09	-1.614333e+01	-4.814755e+02
2.730000e-06	-2.406023e-06	-7.681441e-09	-1.680206e+01	-5.041078e+02
2.740000e-06	-2.499292e-06	-8.001226e-09	-1.745339e+01	-5.246619e+02
2.750000e-06	-2.591531e-06	-8.292887e-09	-1.809753e+01	-5.436155e+02
2.760000e-06	-2.682848e-06	-8.559138e-09	-1.873522e+01	-5.611776e+02
2.770000e-06	-2.773132e-06	-8.802883e-09	-1.936571e+01	-5.773839e+02
2.780000e-06	-2.862329e-06	-9.030290e-09	-1.998860e+01	-5.922228e+02
2.790000e-06	-2.950618e-06	-9.241648e-09	-2.060515e+01	-6.057388e+02
2.800000e-06	-3.038119e-06	-9.433970e-09	-2.121620e+01	-6.180807e+02
2.810000e-06	-3.124517e-06	-9.611561e-09	-2.181955e+01	-6.294836e+02
2.820000e-06	-3.209568e-06	-9.780316e-09	-2.241349e+01	-6.402069e+02
2.830000e-06	-3.293413e-06	-9.939362e-09	-2.299901e+01	-6.504590e+02
2.840000e-06	-3.376105e-06	-1.008820e-08	-2.357647e+01	-6.603462e+02
2.850000e-06	-3.457638e-06	-1.022966e-08	-2.414584e+01	-6.698639e+02
2.860000e-06	-3.538054e-06	-1.036543e-08	-2.470741e+01	-6.789320e+02
2.870000e-06	-3.617305e-06	-1.049349e-08	-2.526085e+01	-6.874548e+02
2.880000e-06	-3.695155e-06	-1.061289e-08	-2.580450e+01	-6.953801e+02
2.890000e-06	-3.771493e-06	-1.072564e-08	-2.633760e+01	-7.027316e+02
2.900000e-06	-3.846338e-06	-1.083429e-08	-2.686027e+01	-7.096041e+02
2.910000e-06	-3.919713e-06	-1.093787e-08	-2.737267e+01	-7.161284e+02
2.920000e-06	-3.991800e-06	-1.103397e-08	-2.787608e+01	-7.224212e+02
2.930000e-06	-4.062519e-06	-1.112551e-08	-2.836993e+01	-7.285461e+02
2.940000e-06	-4.131614e-06	-1.121601e-08	-2.885244e+01	-7.344994e+02
