# Temperatura_=_48.78
# Concentracion g/m^3_=_13400.0
# C_Vs_to_Am_M_A/Vsm_=_65563218390.804596
# pendiente_HvsI_1/m_=_3716.3
# ordenada_HvsI_A/m_=_1297.0
# frecuencia_Hz_=_300808.8402401793

Tiempo_(s)	Campo_(V.s)	Magnetizacion_(V.s)	Campo_(kA/m)	Magnetizacion_(A/m)
0.000000e+00	-5.480755e-06	-1.235904e-08	-3.830440e+01	-8.090069e+02
1.000000e-08	-5.479133e-06	-1.236482e-08	-3.829306e+01	-8.089097e+02
2.000000e-08	-5.475475e-06	-1.236562e-08	-3.826749e+01	-8.086341e+02
3.000000e-08	-5.470138e-06	-1.236023e-08	-3.823020e+01	-8.081761e+02
4.000000e-08	-5.463240e-06	-1.235012e-08	-3.818198e+01	-8.075674e+02
5.000000e-08	-5.454722e-06	-1.233457e-08	-3.812245e+01	-8.068595e+02
6.000000e-08	-5.444243e-06	-1.231528e-08	-3.804922e+01	-8.061001e+02
7.000000e-08	-5.431643e-06	-1.228952e-08	-3.796116e+01	-8.053122e+02
8.000000e-08	-5.417060e-06	-1.227190e-08	-3.785924e+01	-8.044850e+02
9.000000e-08	-5.400181e-06	-1.231584e-08	-3.774127e+01	-8.035809e+02
1.000000e-07	-5.381001e-06	-1.232634e-08	-3.760722e+01	-8.025555e+02
1.100000e-07	-5.359803e-06	-1.227457e-08	-3.745908e+01	-8.013797e+02
1.200000e-07	-5.336729e-06	-1.224984e-08	-3.729781e+01	-8.000560e+02
1.300000e-07	-5.312168e-06	-1.215844e-08	-3.712616e+01	-7.986188e+02
1.400000e-07	-5.286186e-06	-1.212452e-08	-3.694457e+01	-7.971198e+02
1.500000e-07	-5.258367e-06	-1.222643e-08	-3.675015e+01	-7.956039e+02
1.600000e-07	-5.228763e-06	-1.209073e-08	-3.654325e+01	-7.940870e+02
1.700000e-07	-5.197656e-06	-1.206016e-08	-3.632585e+01	-7.925444e+02
1.800000e-07	-5.164700e-06	-1.217474e-08	-3.609552e+01	-7.909177e+02
1.900000e-07	-5.129642e-06	-1.202490e-08	-3.585050e+01	-7.891354e+02
2.000000e-07	-5.092994e-06	-1.201406e-08	-3.559438e+01	-7.871401e+02
2.100000e-07	-5.054710e-06	-1.201467e-08	-3.532681e+01	-7.849109e+02
2.200000e-07	-5.014608e-06	-1.187181e-08	-3.504654e+01	-7.824708e+02
2.300000e-07	-4.972648e-06	-1.190873e-08	-3.475329e+01	-7.798762e+02
2.400000e-07	-4.928635e-06	-1.191005e-08	-3.444569e+01	-7.771933e+02
2.500000e-07	-4.882822e-06	-1.183131e-08	-3.412551e+01	-7.744704e+02
2.600000e-07	-4.835306e-06	-1.181252e-08	-3.379342e+01	-7.717198e+02
2.700000e-07	-4.785818e-06	-1.172544e-08	-3.344755e+01	-7.689140e+02
2.800000e-07	-4.734212e-06	-1.168266e-08	-3.308689e+01	-7.660001e+02
2.900000e-07	-4.680656e-06	-1.165133e-08	-3.271259e+01	-7.629237e+02
3.000000e-07	-4.625407e-06	-1.159948e-08	-3.232646e+01	-7.596535e+02
3.100000e-07	-4.568528e-06	-1.154698e-08	-3.192894e+01	-7.561935e+02
3.200000e-07	-4.509871e-06	-1.150307e-08	-3.151899e+01	-7.525793e+02
3.300000e-07	-4.449498e-06	-1.147584e-08	-3.109705e+01	-7.488605e+02
3.400000e-07	-4.387605e-06	-1.137086e-08	-3.066449e+01	-7.450753e+02
3.500000e-07	-4.324283e-06	-1.130574e-08	-3.022194e+01	-7.412322e+02
3.600000e-07	-4.259492e-06	-1.125562e-08	-2.976912e+01	-7.373038e+02
3.700000e-07	-4.193005e-06	-1.118271e-08	-2.930445e+01	-7.332387e+02
3.800000e-07	-4.124823e-06	-1.114261e-08	-2.882793e+01	-7.289842e+02
3.900000e-07	-4.055211e-06	-1.106576e-08	-2.834143e+01	-7.245112e+02
4.000000e-07	-3.984327e-06	-1.098883e-08	-2.784602e+01	-7.198279e+02
4.100000e-07	-3.912232e-06	-1.092063e-08	-2.734216e+01	-7.149785e+02
4.200000e-07	-3.838761e-06	-1.084132e-08	-2.682868e+01	-7.100235e+02
4.300000e-07	-3.763570e-06	-1.075977e-08	-2.630318e+01	-7.050129e+02
4.400000e-07	-3.686703e-06	-1.067418e-08	-2.576596e+01	-6.999622e+02
4.500000e-07	-3.608362e-06	-1.060844e-08	-2.521845e+01	-6.948428e+02
4.600000e-07	-3.528549e-06	-1.053044e-08	-2.466064e+01	-6.895915e+02
4.700000e-07	-3.447348e-06	-1.044552e-08	-2.409314e+01	-6.841352e+02
4.800000e-07	-3.364891e-06	-1.035428e-08	-2.351685e+01	-6.784206e+02
4.900000e-07	-3.281330e-06	-1.025249e-08	-2.293286e+01	-6.724364e+02
5.000000e-07	-3.196820e-06	-1.016491e-08	-2.234222e+01	-6.662171e+02
5.100000e-07	-3.111385e-06	-1.006688e-08	-2.174513e+01	-6.598276e+02
5.200000e-07	-3.024984e-06	-9.965359e-09	-2.114128e+01	-6.533334e+02
5.300000e-07	-2.937616e-06	-9.863840e-09	-2.053068e+01	-6.467719e+02
5.400000e-07	-2.849298e-06	-9.760740e-09	-1.991343e+01	-6.401336e+02
5.500000e-07	-2.759972e-06	-9.657676e-09	-1.928914e+01	-6.333660e+02
5.600000e-07	-2.669500e-06	-9.547616e-09	-1.865684e+01	-6.263945e+02
5.700000e-07	-2.577837e-06	-9.433530e-09	-1.801622e+01	-6.191544e+02
5.800000e-07	-2.485223e-06	-9.315003e-09	-1.736895e+01	-6.116179e+02
5.900000e-07	-2.391880e-06	-9.201862e-09	-1.671659e+01	-6.038044e+02
6.000000e-07	-2.297746e-06	-9.081255e-09	-1.605870e+01	-5.957686e+02
6.100000e-07	-2.202758e-06	-8.951057e-09	-1.539483e+01	-5.875719e+02
6.200000e-07	-2.107058e-06	-8.816477e-09	-1.472600e+01	-5.792491e+02
6.300000e-07	-2.010687e-06	-8.681040e-09	-1.405247e+01	-5.707862e+02
6.400000e-07	-1.913557e-06	-8.550212e-09	-1.337364e+01	-5.621190e+02
6.500000e-07	-1.815558e-06	-8.413759e-09	-1.268873e+01	-5.531555e+02
6.600000e-07	-1.716711e-06	-8.269268e-09	-1.199790e+01	-5.438124e+02
6.700000e-07	-1.617170e-06	-8.119591e-09	-1.130222e+01	-5.340484e+02
6.800000e-07	-1.517062e-06	-7.969087e-09	-1.060258e+01	-5.238814e+02
6.900000e-07	-1.416467e-06	-7.808468e-09	-9.899534e+00	-5.133775e+02
7.000000e-07	-1.315418e-06	-7.637875e-09	-9.193312e+00	-5.026181e+02
7.100000e-07	-1.213962e-06	-7.465646e-09	-8.484246e+00	-4.916559e+02
7.200000e-07	-1.112145e-06	-7.291925e-09	-7.772657e+00	-4.804817e+02
7.300000e-07	-1.009934e-06	-7.115860e-09	-7.058321e+00	-4.690154e+02
7.400000e-07	-9.072994e-07	-6.934510e-09	-6.341016e+00	-4.571292e+02
7.500000e-07	-8.043187e-07	-6.746958e-09	-5.621295e+00	-4.446920e+02
7.600000e-07	-7.010678e-07	-6.550299e-09	-4.899686e+00	-4.316184e+02
7.700000e-07	-5.975981e-07	-6.344360e-09	-4.176547e+00	-4.178987e+02
7.800000e-07	-4.939823e-07	-6.126470e-09	-3.452388e+00	-4.035946e+02
7.900000e-07	-3.902567e-07	-5.897903e-09	-2.727461e+00	-3.888007e+02
8.000000e-07	-2.864004e-07	-5.662371e-09	-2.001621e+00	-3.735853e+02
8.100000e-07	-1.824404e-07	-5.422012e-09	-1.275056e+00	-3.579372e+02
8.200000e-07	-7.838605e-08	-5.175366e-09	-5.478315e-01	-3.417421e+02
8.300000e-07	2.570700e-08	-4.916080e-09	1.796634e-01	-3.248034e+02
8.400000e-07	1.297856e-07	-4.642597e-09	9.070575e-01	-3.068998e+02
8.500000e-07	2.338358e-07	-4.354974e-09	1.634253e+00	-2.878569e+02
8.600000e-07	3.378124e-07	-4.052374e-09	2.360933e+00	-2.675964e+02
8.700000e-07	4.416467e-07	-3.727329e-09	3.086620e+00	-2.461345e+02
8.800000e-07	5.453279e-07	-3.378796e-09	3.811237e+00	-2.235172e+02
8.900000e-07	6.488643e-07	-3.009907e-09	4.534841e+00	-1.997090e+02
9.000000e-07	7.521959e-07	-2.620078e-09	5.257014e+00	-1.744750e+02
9.100000e-07	8.552633e-07	-2.201583e-09	5.977341e+00	-1.473093e+02
9.200000e-07	9.580149e-07	-1.740149e-09	6.695461e+00	-1.174546e+02
9.300000e-07	1.060397e-06	-1.225236e-09	7.411000e+00	-8.403215e+01
9.400000e-07	1.162369e-06	-6.526493e-10	8.123667e+00	-4.626226e+01
9.500000e-07	1.263934e-06	-1.468927e-11	8.833497e+00	-3.722092e+00
9.600000e-07	1.365113e-06	7.013696e-10	9.540623e+00	4.343570e+01
9.700000e-07	1.465944e-06	1.487946e-09	1.024532e+01	9.437548e+01
9.800000e-07	1.566341e-06	2.313110e-09	1.094699e+01	1.476272e+02
9.900000e-07	1.666177e-06	3.135243e-09	1.164473e+01	2.012917e+02
1.000000e-06	1.765361e-06	3.925002e-09	1.233791e+01	2.533561e+02
1.010000e-06	1.863696e-06	4.658505e-09	1.302517e+01	3.020396e+02
1.020000e-06	1.961134e-06	5.315054e-09	1.370615e+01	3.460796e+02
1.030000e-06	2.057854e-06	5.888896e-09	1.438211e+01	3.848881e+02
1.040000e-06	2.153870e-06	6.388611e-09	1.505316e+01	4.185451e+02
1.050000e-06	2.249141e-06	6.831710e-09	1.571900e+01	4.476472e+02
1.060000e-06	2.343661e-06	7.227752e-09	1.637959e+01	4.730658e+02
1.070000e-06	2.437379e-06	7.577029e-09	1.703457e+01	4.956940e+02
1.080000e-06	2.530361e-06	7.883654e-09	1.768441e+01	5.162505e+02
1.090000e-06	2.622637e-06	8.162916e-09	1.832932e+01	5.351869e+02
1.100000e-06	2.713937e-06	8.425412e-09	1.896741e+01	5.527024e+02
1.110000e-06	2.804027e-06	8.668387e-09	1.959704e+01	5.688364e+02
1.120000e-06	2.892990e-06	8.887820e-09	2.021879e+01	5.835895e+02
1.130000e-06	2.981008e-06	9.086544e-09	2.083394e+01	5.970212e+02
1.140000e-06	3.068042e-06	9.272451e-09	2.144221e+01	6.092914e+02
1.150000e-06	3.153984e-06	9.450255e-09	2.204285e+01	6.206397e+02
1.160000e-06	3.238929e-06	9.617311e-09	2.263652e+01	6.313210e+02
1.170000e-06	3.322948e-06	9.770965e-09	2.322372e+01	6.415329e+02
1.180000e-06	3.405773e-06	9.918265e-09	2.380258e+01	6.513680e+02
1.190000e-06	3.487250e-06	1.006249e-08	2.437201e+01	6.608091e+02
1.200000e-06	3.567460e-06	1.019725e-08	2.493259e+01	6.697682e+02
1.210000e-06	3.646401e-06	1.032011e-08	2.548430e+01	6.781491e+02
1.220000e-06	3.724058e-06	1.043677e-08	2.602703e+01	6.859057e+02
1.230000e-06	3.800386e-06	1.055040e-08	2.656048e+01	6.930730e+02
1.240000e-06	3.875153e-06	1.065760e-08	2.708302e+01	6.997595e+02
1.250000e-06	3.948305e-06	1.075442e-08	2.759427e+01	7.061085e+02
1.260000e-06	4.020044e-06	1.084415e-08	2.809565e+01	7.122457e+02
1.270000e-06	4.090353e-06	1.093521e-08	2.858703e+01	7.182378e+02
1.280000e-06	4.159323e-06	1.102478e-08	2.906905e+01	7.240787e+02
1.290000e-06	4.226943e-06	1.110763e-08	2.954164e+01	7.297071e+02
1.300000e-06	4.292900e-06	1.118585e-08	3.000261e+01	7.350464e+02
1.310000e-06	4.357249e-06	1.126142e-08	3.045233e+01	7.400473e+02
1.320000e-06	4.420160e-06	1.133406e-08	3.089201e+01	7.447155e+02
1.330000e-06	4.481643e-06	1.140163e-08	3.132171e+01	7.491124e+02
1.340000e-06	4.541701e-06	1.146406e-08	3.174145e+01	7.533298e+02
1.350000e-06	4.600022e-06	1.152414e-08	3.214905e+01	7.574512e+02
1.360000e-06	4.656500e-06	1.158543e-08	3.254376e+01	7.615176e+02
1.370000e-06	4.711350e-06	1.164624e-08	3.292711e+01	7.655115e+02
1.380000e-06	4.764517e-06	1.170258e-08	3.329869e+01	7.693680e+02
1.390000e-06	4.815728e-06	1.175401e-08	3.365659e+01	7.730051e+02
1.400000e-06	4.864891e-06	1.180276e-08	3.400019e+01	7.763609e+02
1.410000e-06	4.912251e-06	1.184988e-08	3.433118e+01	7.794219e+02
1.420000e-06	4.957969e-06	1.189411e-08	3.465070e+01	7.822283e+02
1.430000e-06	5.002063e-06	1.193386e-08	3.495887e+01	7.848571e+02
1.440000e-06	5.044250e-06	1.197082e-08	3.525371e+01	7.873891e+02
1.450000e-06	5.084529e-06	1.201020e-08	3.553521e+01	7.898747e+02
1.460000e-06	5.123157e-06	1.204916e-08	3.580518e+01	7.923147e+02
1.470000e-06	5.160168e-06	1.208105e-08	3.606385e+01	7.946616e+02
1.480000e-06	5.195414e-06	1.210841e-08	3.631018e+01	7.968431e+02
1.490000e-06	5.228670e-06	1.213709e-08	3.654260e+01	7.987948e+02
1.500000e-06	5.260071e-06	1.216485e-08	3.676206e+01	8.004896e+02
1.510000e-06	5.289757e-06	1.218690e-08	3.696953e+01	8.019501e+02
1.520000e-06	5.317680e-06	1.220483e-08	3.716468e+01	8.032396e+02
1.530000e-06	5.343541e-06	1.222346e-08	3.734542e+01	8.044355e+02
1.540000e-06	5.367336e-06	1.224255e-08	3.751172e+01	8.055983e+02
1.550000e-06	5.389363e-06	1.225855e-08	3.766566e+01	8.067471e+02
1.560000e-06	5.409703e-06	1.227088e-08	3.780782e+01	8.078550e+02
1.570000e-06	5.428181e-06	1.228288e-08	3.793696e+01	8.088628e+02
1.580000e-06	5.444599e-06	1.229679e-08	3.805170e+01	8.097074e+02
1.590000e-06	5.459046e-06	1.230776e-08	3.815268e+01	8.103499e+02
1.600000e-06	5.471451e-06	1.231418e-08	3.823937e+01	8.107930e+02
1.610000e-06	5.481552e-06	1.232010e-08	3.830996e+01	8.110795e+02
1.620000e-06	5.489585e-06	1.232764e-08	3.836611e+01	8.112739e+02
1.630000e-06	5.495826e-06	1.233435e-08	3.840972e+01	8.114340e+02
1.640000e-06	5.500257e-06	1.233546e-08	3.844069e+01	8.115872e+02
1.650000e-06	5.502639e-06	1.233367e-08	3.845734e+01	8.117198e+02
1.660000e-06	5.503020e-06	1.233477e-08	3.846000e+01	8.117842e+02
1.670000e-06	5.501681e-06	1.233429e-08	3.845064e+01	8.117211e+02
1.680000e-06	5.498650e-06	1.233120e-08	3.842946e+01	8.114855e+02
1.690000e-06	5.493707e-06	1.232329e-08	3.839491e+01	8.110651e+02
1.700000e-06	5.486797e-06	1.231283e-08	3.834662e+01	8.104848e+02
1.710000e-06	5.478228e-06	1.230541e-08	3.828673e+01	8.097936e+02
1.720000e-06	5.468064e-06	1.230032e-08	3.821570e+01	8.090423e+02
1.730000e-06	5.455987e-06	1.230689e-08	3.813129e+01	8.082603e+02
1.740000e-06	5.441823e-06	1.228603e-08	3.803230e+01	8.074440e+02
1.750000e-06	5.425703e-06	1.220031e-08	3.791964e+01	8.065604e+02
1.760000e-06	5.407163e-06	1.218820e-08	3.779007e+01	8.055643e+02
1.770000e-06	5.385763e-06	1.218816e-08	3.764051e+01	8.044218e+02
1.780000e-06	5.362150e-06	1.221554e-08	3.747548e+01	8.031280e+02
1.790000e-06	5.337370e-06	1.227449e-08	3.730229e+01	8.017110e+02
1.800000e-06	5.311863e-06	1.210795e-08	3.712403e+01	8.002209e+02
1.810000e-06	5.284678e-06	1.212288e-08	3.693403e+01	7.987061e+02
1.820000e-06	5.255069e-06	1.220887e-08	3.672710e+01	7.971901e+02
1.830000e-06	5.223840e-06	1.202809e-08	3.650884e+01	7.956571e+02
1.840000e-06	5.190929e-06	1.210516e-08	3.627883e+01	7.940545e+02
1.850000e-06	5.156146e-06	1.213580e-08	3.603574e+01	7.923113e+02
1.860000e-06	5.119764e-06	1.197240e-08	3.578147e+01	7.903649e+02
1.870000e-06	5.081268e-06	1.208759e-08	3.551242e+01	7.881854e+02
1.880000e-06	5.040931e-06	1.201564e-08	3.523051e+01	7.857867e+02
1.890000e-06	4.999144e-06	1.188723e-08	3.493846e+01	7.832196e+02
1.900000e-06	4.955449e-06	1.193731e-08	3.463309e+01	7.805506e+02
1.910000e-06	4.909958e-06	1.179961e-08	3.431516e+01	7.778339e+02
1.920000e-06	4.862652e-06	1.183645e-08	3.398454e+01	7.750904e+02
1.930000e-06	4.813527e-06	1.183046e-08	3.364121e+01	7.723004e+02
1.940000e-06	4.762744e-06	1.169457e-08	3.328629e+01	7.694146e+02
1.950000e-06	4.709813e-06	1.172214e-08	3.291637e+01	7.663768e+02
1.960000e-06	4.654976e-06	1.162549e-08	3.253312e+01	7.631492e+02
1.970000e-06	4.598495e-06	1.157968e-08	3.213838e+01	7.597277e+02
1.980000e-06	4.540376e-06	1.151175e-08	3.173219e+01	7.561426e+02
1.990000e-06	4.480807e-06	1.144700e-08	3.131586e+01	7.524422e+02
2.000000e-06	4.419465e-06	1.146965e-08	3.088715e+01	7.486695e+02
2.010000e-06	4.356432e-06	1.135120e-08	3.044662e+01	7.448400e+02
2.020000e-06	4.291876e-06	1.133207e-08	2.999545e+01	7.409337e+02
2.030000e-06	4.225857e-06	1.124173e-08	2.953405e+01	7.369028e+02
2.040000e-06	4.158462e-06	1.114770e-08	2.906303e+01	7.326925e+02
2.050000e-06	4.089350e-06	1.113217e-08	2.858001e+01	7.282670e+02
2.060000e-06	4.018603e-06	1.101882e-08	2.808557e+01	7.236261e+02
2.070000e-06	3.946518e-06	1.098325e-08	2.758178e+01	7.188075e+02
2.080000e-06	3.873102e-06	1.089127e-08	2.706868e+01	7.138702e+02
2.090000e-06	3.798221e-06	1.082949e-08	2.654535e+01	7.088688e+02
2.100000e-06	3.721654e-06	1.076640e-08	2.601023e+01	7.038277e+02
2.110000e-06	3.643521e-06	1.065701e-08	2.546417e+01	6.987275e+02
2.120000e-06	3.564049e-06	1.059441e-08	2.490875e+01	6.935108e+02
2.130000e-06	3.483403e-06	1.048900e-08	2.434512e+01	6.881040e+02
2.140000e-06	3.401618e-06	1.042522e-08	2.377353e+01	6.824474e+02
2.150000e-06	3.318719e-06	1.032532e-08	2.319416e+01	6.765196e+02
2.160000e-06	3.234633e-06	1.023242e-08	2.260650e+01	6.703460e+02
2.170000e-06	3.149212e-06	1.015285e-08	2.200949e+01	6.639869e+02
2.180000e-06	3.062592e-06	1.004892e-08	2.140412e+01	6.575108e+02
2.190000e-06	2.974921e-06	9.958431e-09	2.079139e+01	6.509628e+02
2.200000e-06	2.886321e-06	9.842986e-09	2.017218e+01	6.443443e+02
2.210000e-06	2.796726e-06	9.742696e-09	1.954601e+01	6.376104e+02
2.220000e-06	2.706229e-06	9.635654e-09	1.891354e+01	6.306889e+02
2.230000e-06	2.614865e-06	9.532232e-09	1.827501e+01	6.235103e+02
2.240000e-06	2.522551e-06	9.417799e-09	1.762983e+01	6.160374e+02
2.250000e-06	2.429331e-06	9.297827e-09	1.697833e+01	6.082795e+02
2.260000e-06	2.335122e-06	9.184838e-09	1.631991e+01	6.002859e+02
2.270000e-06	2.240009e-06	9.065580e-09	1.565517e+01	5.921195e+02
2.280000e-06	2.144114e-06	8.947227e-09	1.498498e+01	5.838231e+02
2.290000e-06	2.047547e-06	8.813616e-09	1.431008e+01	5.753942e+02
2.300000e-06	1.950306e-06	8.681387e-09	1.363048e+01	5.667781e+02
2.310000e-06	1.852413e-06	8.545414e-09	1.294631e+01	5.578861e+02
2.320000e-06	1.754005e-06	8.404467e-09	1.225855e+01	5.486297e+02
2.330000e-06	1.655115e-06	8.255180e-09	1.156741e+01	5.389565e+02
2.340000e-06	1.555695e-06	8.103468e-09	1.087258e+01	5.288716e+02
2.350000e-06	1.455701e-06	7.954549e-09	1.017373e+01	5.184330e+02
2.360000e-06	1.355120e-06	7.797215e-09	9.470785e+00	5.077223e+02
2.370000e-06	1.253962e-06	7.632545e-09	8.763800e+00	4.968020e+02
2.380000e-06	1.152228e-06	7.458387e-09	8.052797e+00	4.856777e+02
2.390000e-06	1.049970e-06	7.281494e-09	7.338122e+00	4.742838e+02
2.400000e-06	9.472744e-07	7.100706e-09	6.620397e+00	4.624993e+02
2.410000e-06	8.442144e-07	6.912142e-09	5.900122e+00	4.501896e+02
2.420000e-06	7.408496e-07	6.715746e-09	5.177716e+00	4.372561e+02
2.430000e-06	6.372195e-07	6.511162e-09	4.453457e+00	4.236717e+02
2.440000e-06	5.333925e-07	6.298564e-09	3.727822e+00	4.094852e+02
2.450000e-06	4.294142e-07	6.078345e-09	3.001129e+00	3.947887e+02
2.460000e-06	3.253691e-07	5.847797e-09	2.273969e+00	3.796613e+02
2.470000e-06	2.212749e-07	5.607046e-09	1.546466e+00	3.641121e+02
2.480000e-06	1.170789e-07	5.358910e-09	8.182517e-01	3.480488e+02
2.490000e-06	1.281983e-08	5.099904e-09	8.959641e-02	3.312884e+02
2.500000e-06	-9.139459e-08	4.826983e-09	-6.387467e-01	3.136089e+02
2.510000e-06	-1.955701e-07	4.539706e-09	-1.366818e+00	2.948204e+02
2.520000e-06	-2.997698e-07	4.238842e-09	-2.095058e+00	2.748221e+02
2.530000e-06	-4.039218e-07	3.923736e-09	-2.822965e+00	2.536134e+02
2.540000e-06	-5.078753e-07	3.588618e-09	-3.549485e+00	2.312421e+02
2.550000e-06	-6.115641e-07	3.230199e-09	-4.274154e+00	2.077006e+02
2.560000e-06	-7.150133e-07	2.848535e-09	-4.997149e+00	1.828051e+02
2.570000e-06	-8.182479e-07	2.436878e-09	-5.718645e+00	1.561098e+02
2.580000e-06	-9.212119e-07	1.987152e-09	-6.438249e+00	1.269041e+02
2.590000e-06	-1.023780e-06	1.489840e-09	-7.155085e+00	9.431909e+01
2.600000e-06	-1.125816e-06	9.346805e-10	-7.868202e+00	5.753244e+01
2.610000e-06	-1.227264e-06	3.142882e-10	-8.577210e+00	1.602387e+01
2.620000e-06	-1.328172e-06	-3.753652e-10	-9.282448e+00	-3.019106e+01
2.630000e-06	-1.428507e-06	-1.135231e-09	-9.983676e+00	-8.042464e+01
2.640000e-06	-1.528296e-06	-1.953079e-09	-1.068110e+01	-1.333304e+02
2.650000e-06	-1.627630e-06	-2.791355e-09	-1.137533e+01	-1.870774e+02
2.660000e-06	-1.726458e-06	-3.604273e-09	-1.206603e+01	-2.396474e+02
2.670000e-06	-1.824708e-06	-4.359456e-09	-1.275268e+01	-2.891827e+02
2.680000e-06	-1.922345e-06	-5.045178e-09	-1.343506e+01	-3.342911e+02
2.690000e-06	-2.019295e-06	-5.655042e-09	-1.411263e+01	-3.742352e+02
2.700000e-06	-2.115542e-06	-6.187840e-09	-1.478529e+01	-4.089601e+02
2.710000e-06	-2.211186e-06	-6.651454e-09	-1.545373e+01	-4.389702e+02
2.720000e-06	-2.306274e-06	-7.059812e-09	-1.611829e+01	-4.651001e+02
2.730000e-06	-2.400627e-06	-7.426976e-09	-1.677772e+01	-4.882575e+02
2.740000e-06	-2.493929e-06	-7.757152e-09	-1.742980e+01	-5.092103e+02
2.750000e-06	-2.586078e-06	-8.053081e-09	-1.807381e+01	-5.284695e+02
2.760000e-06	-2.677226e-06	-8.320217e-09	-1.871084e+01	-5.462825e+02
2.770000e-06	-2.767464e-06	-8.565005e-09	-1.934150e+01	-5.627129e+02
2.780000e-06	-2.856671e-06	-8.793485e-09	-1.996496e+01	-5.777599e+02
2.790000e-06	-2.944863e-06	-9.006294e-09	-2.058133e+01	-5.914647e+02
2.800000e-06	-3.032241e-06	-9.202154e-09	-2.119200e+01	-6.039655e+02
2.810000e-06	-3.118633e-06	-9.386058e-09	-2.179578e+01	-6.154892e+02
2.820000e-06	-3.203677e-06	-9.560244e-09	-2.239015e+01	-6.262937e+02
2.830000e-06	-3.287406e-06	-9.720552e-09	-2.297532e+01	-6.365945e+02
2.840000e-06	-3.370018e-06	-9.867909e-09	-2.355269e+01	-6.465083e+02
2.850000e-06	-3.451559e-06	-1.000806e-08	-2.412256e+01	-6.560396e+02
2.860000e-06	-3.531979e-06	-1.014219e-08	-2.468461e+01	-6.651108e+02
2.870000e-06	-3.611213e-06	-1.026820e-08	-2.523837e+01	-6.736218e+02
2.880000e-06	-3.689078e-06	-1.038817e-08	-2.578256e+01	-6.815121e+02
2.890000e-06	-3.765358e-06	-1.050470e-08	-2.631568e+01	-6.887985e+02
2.900000e-06	-3.840096e-06	-1.061595e-08	-2.683801e+01	-6.955764e+02
2.910000e-06	-3.913413e-06	-1.071665e-08	-2.735042e+01	-7.019857e+02
2.920000e-06	-3.985414e-06	-1.080909e-08	-2.785362e+01	-7.081602e+02
2.930000e-06	-4.056116e-06	-1.090152e-08	-2.834775e+01	-7.141814e+02
2.940000e-06	-4.125213e-06	-1.099245e-08	-2.883066e+01	-7.200584e+02
