# Temperatura_=_44.38
# Concentracion g/m^3_=_13400.0
# C_Vs_to_Am_M_A/Vsm_=_65563218390.804596
# pendiente_HvsI_1/m_=_3716.3
# ordenada_HvsI_A/m_=_1297.0
# frecuencia_Hz_=_300810.6354268963

Tiempo_(s)	Campo_(V.s)	Magnetizacion_(V.s)	Campo_(kA/m)	Magnetizacion_(A/m)
0.000000e+00	-5.481392e-06	-1.230065e-08	-3.830694e+01	-8.049118e+02
1.000000e-08	-5.479674e-06	-1.230546e-08	-3.829493e+01	-8.047847e+02
2.000000e-08	-5.476046e-06	-1.230797e-08	-3.826958e+01	-8.044792e+02
3.000000e-08	-5.470652e-06	-1.230267e-08	-3.823188e+01	-8.040123e+02
4.000000e-08	-5.463586e-06	-1.229081e-08	-3.818250e+01	-8.034274e+02
5.000000e-08	-5.454893e-06	-1.227580e-08	-3.812175e+01	-8.027733e+02
6.000000e-08	-5.444307e-06	-1.225935e-08	-3.804777e+01	-8.020823e+02
7.000000e-08	-5.431601e-06	-1.223985e-08	-3.795897e+01	-8.013551e+02
8.000000e-08	-5.416816e-06	-1.224291e-08	-3.785565e+01	-8.005614e+02
9.000000e-08	-5.399757e-06	-1.225892e-08	-3.773643e+01	-7.996548e+02
1.000000e-07	-5.380440e-06	-1.223617e-08	-3.760143e+01	-7.985965e+02
1.100000e-07	-5.359106e-06	-1.221406e-08	-3.745234e+01	-7.973771e+02
1.200000e-07	-5.335941e-06	-1.218037e-08	-3.729045e+01	-7.960252e+02
1.300000e-07	-5.311297e-06	-1.210850e-08	-3.711822e+01	-7.946000e+02
1.400000e-07	-5.285193e-06	-1.215248e-08	-3.693579e+01	-7.931688e+02
1.500000e-07	-5.257245e-06	-1.211936e-08	-3.674048e+01	-7.917778e+02
1.600000e-07	-5.227564e-06	-1.202540e-08	-3.653305e+01	-7.904305e+02
1.700000e-07	-5.196345e-06	-1.210516e-08	-3.631488e+01	-7.890807e+02
1.800000e-07	-5.163208e-06	-1.205192e-08	-3.608330e+01	-7.876452e+02
1.900000e-07	-5.128060e-06	-1.196938e-08	-3.583766e+01	-7.860319e+02
2.000000e-07	-5.091311e-06	-1.200271e-08	-3.558084e+01	-7.841711e+02
2.100000e-07	-5.052852e-06	-1.190603e-08	-3.531207e+01	-7.820392e+02
2.200000e-07	-5.012615e-06	-1.186867e-08	-3.503087e+01	-7.796651e+02
2.300000e-07	-4.970497e-06	-1.189937e-08	-3.473652e+01	-7.771159e+02
2.400000e-07	-4.926362e-06	-1.183007e-08	-3.442809e+01	-7.744693e+02
2.500000e-07	-4.880472e-06	-1.179989e-08	-3.410738e+01	-7.717832e+02
2.600000e-07	-4.832817e-06	-1.174022e-08	-3.377435e+01	-7.690746e+02
2.700000e-07	-4.783203e-06	-1.167374e-08	-3.342761e+01	-7.663159e+02
2.800000e-07	-4.731496e-06	-1.164089e-08	-3.306626e+01	-7.634499e+02
2.900000e-07	-4.677838e-06	-1.160142e-08	-3.269127e+01	-7.604157e+02
3.000000e-07	-4.622501e-06	-1.155851e-08	-3.230454e+01	-7.571747e+02
3.100000e-07	-4.565534e-06	-1.149863e-08	-3.190643e+01	-7.537260e+02
3.200000e-07	-4.506789e-06	-1.147315e-08	-3.149588e+01	-7.501046e+02
3.300000e-07	-4.446350e-06	-1.140121e-08	-3.107351e+01	-7.463649e+02
3.400000e-07	-4.384450e-06	-1.130950e-08	-3.064091e+01	-7.425557e+02
3.500000e-07	-4.321082e-06	-1.126398e-08	-3.019807e+01	-7.386990e+02
3.600000e-07	-4.256249e-06	-1.119116e-08	-2.974498e+01	-7.347812e+02
3.700000e-07	-4.189779e-06	-1.114106e-08	-2.928045e+01	-7.307600e+02
3.800000e-07	-4.121603e-06	-1.109022e-08	-2.880399e+01	-7.265836e+02
3.900000e-07	-4.051925e-06	-1.100921e-08	-2.831705e+01	-7.222134e+02
4.000000e-07	-3.980878e-06	-1.094655e-08	-2.782054e+01	-7.176403e+02
4.100000e-07	-3.908613e-06	-1.087386e-08	-2.731551e+01	-7.128868e+02
4.200000e-07	-3.835009e-06	-1.080027e-08	-2.680112e+01	-7.079955e+02
4.300000e-07	-3.759681e-06	-1.071029e-08	-2.627469e+01	-7.030076e+02
4.400000e-07	-3.682689e-06	-1.063303e-08	-2.573663e+01	-6.979439e+02
4.500000e-07	-3.604318e-06	-1.055952e-08	-2.518893e+01	-6.927937e+02
4.600000e-07	-3.524461e-06	-1.047984e-08	-2.463084e+01	-6.875191e+02
4.700000e-07	-3.443145e-06	-1.040120e-08	-2.406256e+01	-6.820717e+02
4.800000e-07	-3.360587e-06	-1.030325e-08	-2.348560e+01	-6.764134e+02
4.900000e-07	-3.276895e-06	-1.021762e-08	-2.290072e+01	-6.705331e+02
5.000000e-07	-3.192254e-06	-1.012348e-08	-2.230920e+01	-6.644500e+02
5.100000e-07	-3.106745e-06	-1.002289e-08	-2.171162e+01	-6.582035e+02
5.200000e-07	-3.020259e-06	-9.925132e-09	-2.110721e+01	-6.518335e+02
5.300000e-07	-2.932765e-06	-9.828251e-09	-2.049575e+01	-6.453596e+02
5.400000e-07	-2.844366e-06	-9.729468e-09	-1.987797e+01	-6.387698e+02
5.500000e-07	-2.755075e-06	-9.625089e-09	-1.925396e+01	-6.320241e+02
5.600000e-07	-2.664640e-06	-9.517329e-09	-1.862195e+01	-6.250702e+02
5.700000e-07	-2.572965e-06	-9.399528e-09	-1.798127e+01	-6.178657e+02
5.800000e-07	-2.480315e-06	-9.282312e-09	-1.733379e+01	-6.103957e+02
5.900000e-07	-2.386941e-06	-9.167311e-09	-1.668124e+01	-6.026777e+02
6.000000e-07	-2.292799e-06	-9.048729e-09	-1.602332e+01	-5.947505e+02
6.100000e-07	-2.197814e-06	-8.925684e-09	-1.535952e+01	-5.866520e+02
6.200000e-07	-2.102068e-06	-8.797718e-09	-1.469039e+01	-5.783968e+02
6.300000e-07	-2.005637e-06	-8.662962e-09	-1.401648e+01	-5.699624e+02
6.400000e-07	-1.908528e-06	-8.524889e-09	-1.333783e+01	-5.612932e+02
6.500000e-07	-1.810629e-06	-8.383486e-09	-1.265365e+01	-5.523198e+02
6.600000e-07	-1.711812e-06	-8.241638e-09	-1.196307e+01	-5.429864e+02
6.700000e-07	-1.612192e-06	-8.098593e-09	-1.126687e+01	-5.332737e+02
6.800000e-07	-1.512017e-06	-7.949920e-09	-1.056679e+01	-5.232047e+02
6.900000e-07	-1.411415e-06	-7.792651e-09	-9.863730e+00	-5.128320e+02
7.000000e-07	-1.310416e-06	-7.624938e-09	-9.157896e+00	-5.022078e+02
7.100000e-07	-1.209032e-06	-7.452424e-09	-8.449371e+00	-4.913520e+02
7.200000e-07	-1.107228e-06	-7.275274e-09	-7.737909e+00	-4.802310e+02
7.300000e-07	-1.004955e-06	-7.098460e-09	-7.023173e+00	-4.687595e+02
7.400000e-07	-9.023161e-07	-6.922052e-09	-6.305874e+00	-4.568256e+02
7.500000e-07	-7.993751e-07	-6.738103e-09	-5.586466e+00	-4.443303e+02
7.600000e-07	-6.961160e-07	-6.539719e-09	-4.864836e+00	-4.312233e+02
7.700000e-07	-5.926067e-07	-6.326036e-09	-4.141457e+00	-4.175193e+02
7.800000e-07	-4.889409e-07	-6.104453e-09	-3.416984e+00	-4.032840e+02
7.900000e-07	-3.851500e-07	-5.881416e-09	-2.691637e+00	-3.885933e+02
8.000000e-07	-2.812268e-07	-5.654221e-09	-1.965365e+00	-3.734821e+02
8.100000e-07	-1.771933e-07	-5.416095e-09	-1.238323e+00	-3.579040e+02
8.200000e-07	-7.305676e-08	-5.169581e-09	-5.105603e-01	-3.417228e+02
8.300000e-07	3.110643e-08	-4.912587e-09	2.173886e-01	-3.247419e+02
8.400000e-07	1.352256e-07	-4.638970e-09	9.450297e-01	-3.067626e+02
8.500000e-07	2.392978e-07	-4.344609e-09	1.672343e+00	-2.876464e+02
8.600000e-07	3.433123e-07	-4.033125e-09	2.399252e+00	-2.673501e+02
8.700000e-07	4.471779e-07	-3.708129e-09	3.125121e+00	-2.459094e+02
8.800000e-07	5.508751e-07	-3.368445e-09	3.849814e+00	-2.233673e+02
8.900000e-07	6.544034e-07	-3.008793e-09	4.573325e+00	-1.996651e+02
9.000000e-07	7.577182e-07	-2.619755e-09	5.295346e+00	-1.745363e+02
9.100000e-07	8.607856e-07	-2.198331e-09	6.015636e+00	-1.474508e+02
9.200000e-07	9.635000e-07	-1.736534e-09	6.733460e+00	-1.176491e+02
9.300000e-07	1.065867e-06	-1.223582e-09	7.448857e+00	-8.427647e+01
9.400000e-07	1.167861e-06	-6.497421e-10	8.161646e+00	-4.659750e+01
9.500000e-07	1.269433e-06	-8.133168e-12	8.871482e+00	-4.237401e+00
9.600000e-07	1.370596e-06	7.040865e-10	9.578469e+00	4.261971e+01
9.700000e-07	1.471339e-06	1.480094e-09	1.028251e+01	9.313962e+01
9.800000e-07	1.571638e-06	2.293846e-09	1.098346e+01	1.458920e+02
9.900000e-07	1.671440e-06	3.109566e-09	1.168093e+01	1.990472e+02
1.000000e-06	1.770565e-06	3.894489e-09	1.237367e+01	2.506718e+02
1.010000e-06	1.868839e-06	4.623005e-09	1.306046e+01	2.990496e+02
1.020000e-06	1.966303e-06	5.276975e-09	1.374159e+01	3.429478e+02
1.030000e-06	2.063010e-06	5.852412e-09	1.441743e+01	3.817643e+02
1.040000e-06	2.158961e-06	6.358033e-09	1.508799e+01	4.155277e+02
1.050000e-06	2.254192e-06	6.806819e-09	1.575352e+01	4.447643e+02
1.060000e-06	2.348693e-06	7.203748e-09	1.641394e+01	4.702817e+02
1.070000e-06	2.442450e-06	7.550115e-09	1.706917e+01	4.929351e+02
1.080000e-06	2.535480e-06	7.855849e-09	1.771931e+01	5.134425e+02
1.090000e-06	2.627711e-06	8.133627e-09	1.836387e+01	5.322863e+02
1.100000e-06	2.718913e-06	8.392902e-09	1.900124e+01	5.497122e+02
1.110000e-06	2.808937e-06	8.633154e-09	1.963038e+01	5.658000e+02
1.120000e-06	2.897847e-06	8.855286e-09	2.025172e+01	5.805674e+02
1.130000e-06	2.985789e-06	9.062072e-09	2.086631e+01	5.940603e+02
1.140000e-06	3.072782e-06	9.253554e-09	2.147427e+01	6.064008e+02
1.150000e-06	3.158742e-06	9.429961e-09	2.207500e+01	6.177827e+02
1.160000e-06	3.243699e-06	9.591063e-09	2.266872e+01	6.284279e+02
1.170000e-06	3.327637e-06	9.738842e-09	2.325533e+01	6.385280e+02
1.180000e-06	3.410383e-06	9.881994e-09	2.383361e+01	6.482004e+02
1.190000e-06	3.491851e-06	1.002484e-08	2.440295e+01	6.574746e+02
1.200000e-06	3.572039e-06	1.016119e-08	2.496334e+01	6.663128e+02
1.210000e-06	3.650904e-06	1.028750e-08	2.551450e+01	6.746515e+02
1.220000e-06	3.728461e-06	1.040656e-08	2.605650e+01	6.824470e+02
1.230000e-06	3.804666e-06	1.052228e-08	2.658907e+01	6.897037e+02
1.240000e-06	3.879351e-06	1.062914e-08	2.711101e+01	6.964788e+02
1.250000e-06	3.952460e-06	1.072212e-08	2.762193e+01	7.028622e+02
1.260000e-06	4.024174e-06	1.080717e-08	2.812311e+01	7.089459e+02
1.270000e-06	4.094503e-06	1.089484e-08	2.861461e+01	7.147961e+02
1.280000e-06	4.163421e-06	1.098439e-08	2.909624e+01	7.204394e+02
1.290000e-06	4.230929e-06	1.106670e-08	2.956802e+01	7.258690e+02
1.300000e-06	4.296765e-06	1.114169e-08	3.002812e+01	7.310633e+02
1.310000e-06	4.360999e-06	1.121491e-08	3.047702e+01	7.360088e+02
1.320000e-06	4.423834e-06	1.128794e-08	3.091615e+01	7.407140e+02
1.330000e-06	4.485270e-06	1.135611e-08	3.134550e+01	7.452100e+02
1.340000e-06	4.545212e-06	1.141819e-08	3.176440e+01	7.495374e+02
1.350000e-06	4.603430e-06	1.147937e-08	3.217126e+01	7.537273e+02
1.360000e-06	4.659892e-06	1.154165e-08	3.256585e+01	7.577869e+02
1.370000e-06	4.714697e-06	1.160162e-08	3.294886e+01	7.616958e+02
1.380000e-06	4.767750e-06	1.165705e-08	3.331962e+01	7.654164e+02
1.390000e-06	4.818797e-06	1.170922e-08	3.367636e+01	7.689128e+02
1.400000e-06	4.867872e-06	1.175751e-08	3.401932e+01	7.721694e+02
1.410000e-06	4.915232e-06	1.180333e-08	3.435031e+01	7.752008e+02
1.420000e-06	4.960965e-06	1.184785e-08	3.466991e+01	7.780471e+02
1.430000e-06	5.005008e-06	1.188894e-08	3.497771e+01	7.807583e+02
1.440000e-06	5.047128e-06	1.192716e-08	3.527206e+01	7.833721e+02
1.450000e-06	5.087392e-06	1.196596e-08	3.555345e+01	7.858986e+02
1.460000e-06	5.125962e-06	1.200343e-08	3.582300e+01	7.883154e+02
1.470000e-06	5.162872e-06	1.203520e-08	3.608095e+01	7.905790e+02
1.480000e-06	5.198029e-06	1.206359e-08	3.632665e+01	7.926450e+02
1.490000e-06	5.231173e-06	1.209136e-08	3.655827e+01	7.944895e+02
1.500000e-06	5.262413e-06	1.211664e-08	3.677659e+01	7.961227e+02
1.510000e-06	5.291989e-06	1.213800e-08	3.698329e+01	7.975863e+02
1.520000e-06	5.319755e-06	1.215730e-08	3.717733e+01	7.989384e+02
1.530000e-06	5.345439e-06	1.217880e-08	3.735683e+01	8.002295e+02
1.540000e-06	5.369138e-06	1.220177e-08	3.752245e+01	8.014824e+02
1.550000e-06	5.391086e-06	1.221975e-08	3.767583e+01	8.026832e+02
1.560000e-06	5.411301e-06	1.223145e-08	3.781710e+01	8.037881e+02
1.570000e-06	5.429574e-06	1.224049e-08	3.794480e+01	8.047435e+02
1.580000e-06	5.445827e-06	1.225219e-08	3.805839e+01	8.055099e+02
1.590000e-06	5.460129e-06	1.226328e-08	3.815834e+01	8.060805e+02
1.600000e-06	5.472310e-06	1.227021e-08	3.824347e+01	8.064853e+02
1.610000e-06	5.482280e-06	1.227601e-08	3.831314e+01	8.067795e+02
1.620000e-06	5.490253e-06	1.228382e-08	3.836886e+01	8.070211e+02
1.630000e-06	5.496400e-06	1.229291e-08	3.841182e+01	8.072472e+02
1.640000e-06	5.500714e-06	1.229659e-08	3.844197e+01	8.074591e+02
1.650000e-06	5.503012e-06	1.229483e-08	3.845803e+01	8.076230e+02
1.660000e-06	5.503294e-06	1.229056e-08	3.846000e+01	8.076849e+02
1.670000e-06	5.501795e-06	1.228733e-08	3.844953e+01	8.075947e+02
1.680000e-06	5.498663e-06	1.228756e-08	3.842764e+01	8.073272e+02
1.690000e-06	5.493725e-06	1.228185e-08	3.839313e+01	8.068919e+02
1.700000e-06	5.486846e-06	1.227185e-08	3.834505e+01	8.063280e+02
1.710000e-06	5.478249e-06	1.226338e-08	3.828497e+01	8.056851e+02
1.720000e-06	5.467975e-06	1.225863e-08	3.821317e+01	8.050007e+02
1.730000e-06	5.455778e-06	1.225893e-08	3.812794e+01	8.042829e+02
1.740000e-06	5.441611e-06	1.221365e-08	3.802893e+01	8.035072e+02
1.750000e-06	5.425385e-06	1.219011e-08	3.791553e+01	8.026286e+02
1.760000e-06	5.406590e-06	1.217844e-08	3.778418e+01	8.016049e+02
1.770000e-06	5.385048e-06	1.215528e-08	3.763363e+01	8.004189e+02
1.780000e-06	5.361429e-06	1.219898e-08	3.746857e+01	7.990912e+02
1.790000e-06	5.336714e-06	1.214569e-08	3.729585e+01	7.976759e+02
1.800000e-06	5.311187e-06	1.208884e-08	3.711745e+01	7.962409e+02
1.810000e-06	5.283859e-06	1.214269e-08	3.692647e+01	7.948393e+02
1.820000e-06	5.254212e-06	1.205529e-08	3.671928e+01	7.934849e+02
1.830000e-06	5.222944e-06	1.202172e-08	3.650076e+01	7.921417e+02
1.840000e-06	5.189932e-06	1.206459e-08	3.627006e+01	7.907326e+02
1.850000e-06	5.155125e-06	1.197219e-08	3.602680e+01	7.891644e+02
1.860000e-06	5.118637e-06	1.199257e-08	3.577181e+01	7.873604e+02
1.870000e-06	5.080071e-06	1.199834e-08	3.550229e+01	7.852859e+02
1.880000e-06	5.039736e-06	1.188163e-08	3.522041e+01	7.829590e+02
1.890000e-06	4.997810e-06	1.187328e-08	3.492741e+01	7.804406e+02
1.900000e-06	4.954030e-06	1.181092e-08	3.462145e+01	7.778089e+02
1.910000e-06	4.908486e-06	1.177642e-08	3.430316e+01	7.751283e+02
1.920000e-06	4.861054e-06	1.180049e-08	3.397168e+01	7.724254e+02
1.930000e-06	4.811829e-06	1.172723e-08	3.362767e+01	7.696815e+02
1.940000e-06	4.760926e-06	1.170310e-08	3.327193e+01	7.668440e+02
1.950000e-06	4.707888e-06	1.161827e-08	3.290128e+01	7.638501e+02
1.960000e-06	4.652960e-06	1.156986e-08	3.251741e+01	7.606549e+02
1.970000e-06	4.596416e-06	1.152118e-08	3.212224e+01	7.572488e+02
1.980000e-06	4.538235e-06	1.143291e-08	3.171565e+01	7.536602e+02
1.990000e-06	4.478519e-06	1.145760e-08	3.129832e+01	7.499412e+02
2.000000e-06	4.417085e-06	1.137297e-08	3.086898e+01	7.461438e+02
2.010000e-06	4.354024e-06	1.131864e-08	3.042828e+01	7.422972e+02
2.020000e-06	4.289459e-06	1.126636e-08	2.997707e+01	7.383953e+02
2.030000e-06	4.223446e-06	1.115361e-08	2.951573e+01	7.344007e+02
2.040000e-06	4.155942e-06	1.113247e-08	2.904398e+01	7.302615e+02
2.050000e-06	4.086706e-06	1.104257e-08	2.856012e+01	7.259347e+02
2.060000e-06	4.015883e-06	1.099043e-08	2.806517e+01	7.214042e+02
2.070000e-06	3.943672e-06	1.092069e-08	2.756052e+01	7.166862e+02
2.080000e-06	3.870115e-06	1.083662e-08	2.704646e+01	7.118205e+02
2.090000e-06	3.795091e-06	1.079076e-08	2.652215e+01	7.068507e+02
2.100000e-06	3.718406e-06	1.068501e-08	2.598624e+01	7.018030e+02
2.110000e-06	3.640161e-06	1.062482e-08	2.543942e+01	6.966737e+02
2.120000e-06	3.560635e-06	1.053072e-08	2.488365e+01	6.914298e+02
2.130000e-06	3.479971e-06	1.045280e-08	2.431992e+01	6.860233e+02
2.140000e-06	3.398135e-06	1.036742e-08	2.374801e+01	6.804122e+02
2.150000e-06	3.315197e-06	1.026386e-08	2.316839e+01	6.745788e+02
2.160000e-06	3.231113e-06	1.020155e-08	2.258077e+01	6.685362e+02
2.170000e-06	3.145652e-06	1.009890e-08	2.198352e+01	6.623211e+02
2.180000e-06	3.058942e-06	1.001032e-08	2.137755e+01	6.559750e+02
2.190000e-06	2.971261e-06	9.905951e-09	2.076478e+01	6.495232e+02
2.200000e-06	2.882622e-06	9.799495e-09	2.014532e+01	6.429608e+02
2.210000e-06	2.792973e-06	9.700141e-09	1.951881e+01	6.362529e+02
2.220000e-06	2.702397e-06	9.591515e-09	1.888582e+01	6.293478e+02
2.230000e-06	2.610965e-06	9.491594e-09	1.824684e+01	6.221993e+02
2.240000e-06	2.518612e-06	9.376739e-09	1.760142e+01	6.147858e+02
2.250000e-06	2.425190e-06	9.268254e-09	1.694854e+01	6.071181e+02
2.260000e-06	2.330767e-06	9.154307e-09	1.628866e+01	5.992321e+02
2.270000e-06	2.235565e-06	9.031988e-09	1.562334e+01	5.911680e+02
2.280000e-06	2.139634e-06	8.907881e-09	1.495292e+01	5.829469e+02
2.290000e-06	2.042986e-06	8.779950e-09	1.427749e+01	5.745547e+02
2.300000e-06	1.945632e-06	8.651343e-09	1.359713e+01	5.659415e+02
2.310000e-06	1.847669e-06	8.515552e-09	1.291251e+01	5.570388e+02
2.320000e-06	1.749167e-06	8.370874e-09	1.222412e+01	5.477858e+02
2.330000e-06	1.650119e-06	8.223552e-09	1.153192e+01	5.381537e+02
2.340000e-06	1.550643e-06	8.076312e-09	1.083674e+01	5.281573e+02
2.350000e-06	1.450729e-06	7.926344e-09	1.013848e+01	5.178447e+02
2.360000e-06	1.350198e-06	7.773217e-09	9.435913e+00	5.072712e+02
2.370000e-06	1.249052e-06	7.608700e-09	8.729050e+00	4.964659e+02
2.380000e-06	1.147312e-06	7.436849e-09	8.018040e+00	4.854074e+02
2.390000e-06	1.045006e-06	7.257481e-09	7.303071e+00	4.740200e+02
2.400000e-06	9.422384e-07	7.071460e-09	6.584872e+00	4.621946e+02
2.410000e-06	8.390709e-07	6.883978e-09	5.863882e+00	4.498259e+02
2.420000e-06	7.356117e-07	6.692543e-09	5.140853e+00	4.368509e+02
2.430000e-06	6.319444e-07	6.493489e-09	4.416370e+00	4.232706e+02
2.440000e-06	5.281261e-07	6.281802e-09	3.690832e+00	4.091424e+02
2.450000e-06	4.241636e-07	6.059278e-09	2.964285e+00	3.945442e+02
2.460000e-06	3.200642e-07	5.825418e-09	2.236782e+00	3.795238e+02
2.470000e-06	2.158794e-07	5.581435e-09	1.508682e+00	3.640544e+02
2.480000e-06	1.116274e-07	5.332123e-09	7.801125e-01	3.480176e+02
2.490000e-06	7.325339e-09	5.074841e-09	5.119344e-02	3.312257e+02
2.500000e-06	-9.698623e-08	4.806588e-09	-6.777923e-01	3.134749e+02
2.510000e-06	-2.012300e-07	4.522949e-09	-1.406304e+00	2.946094e+02
2.520000e-06	-3.053601e-07	4.221170e-09	-2.134022e+00	2.745649e+02
2.530000e-06	-4.093282e-07	3.902093e-09	-2.860608e+00	2.533645e+02
2.540000e-06	-5.131468e-07	3.563277e-09	-3.586148e+00	2.310581e+02
2.550000e-06	-6.168379e-07	3.205781e-09	-4.310798e+00	2.076185e+02
2.560000e-06	-7.203191e-07	2.826619e-09	-5.033981e+00	1.828308e+02
2.570000e-06	-8.235280e-07	2.418067e-09	-5.755260e+00	1.562222e+02
2.580000e-06	-9.264688e-07	1.971570e-09	-6.474666e+00	1.270741e+02
2.590000e-06	-1.029036e-06	1.476366e-09	-7.191458e+00	9.453628e+01
2.600000e-06	-1.131116e-06	9.228054e-10	-7.904851e+00	5.782744e+01
2.610000e-06	-1.232677e-06	3.050728e-10	-8.614613e+00	1.647626e+01
2.620000e-06	-1.333621e-06	-3.798321e-10	-9.320065e+00	-2.946508e+01
2.630000e-06	-1.433979e-06	-1.133407e-09	-1.002142e+01	-7.930232e+01
2.640000e-06	-1.533847e-06	-1.944163e-09	-1.071935e+01	-1.317208e+02
2.650000e-06	-1.633223e-06	-2.775169e-09	-1.141385e+01	-1.849539e+02
2.660000e-06	-1.732031e-06	-3.581119e-09	-1.210437e+01	-2.370630e+02
2.670000e-06	-1.830244e-06	-4.332037e-09	-1.279074e+01	-2.862600e+02
2.680000e-06	-1.927854e-06	-5.015430e-09	-1.347289e+01	-3.311913e+02
2.690000e-06	-2.024809e-06	-5.624795e-09	-1.415046e+01	-3.711146e+02
2.700000e-06	-2.121083e-06	-6.156724e-09	-1.482328e+01	-4.059305e+02
2.710000e-06	-2.216737e-06	-6.618791e-09	-1.549176e+01	-4.360751e+02
2.720000e-06	-2.311791e-06	-7.026355e-09	-1.615605e+01	-4.623158e+02
2.730000e-06	-2.406059e-06	-7.394518e-09	-1.681485e+01	-4.855156e+02
2.740000e-06	-2.499310e-06	-7.727307e-09	-1.746653e+01	-5.064336e+02
2.750000e-06	-2.591500e-06	-8.024039e-09	-1.811081e+01	-5.256059e+02
2.760000e-06	-2.682686e-06	-8.289967e-09	-1.874806e+01	-5.433247e+02
2.770000e-06	-2.772877e-06	-8.533369e-09	-1.937837e+01	-5.596973e+02
2.780000e-06	-2.862078e-06	-8.761890e-09	-2.000175e+01	-5.747458e+02
2.790000e-06	-2.950289e-06	-8.974084e-09	-2.061822e+01	-5.885044e+02
2.800000e-06	-3.037550e-06	-9.168494e-09	-2.122804e+01	-6.010775e+02
2.810000e-06	-3.123834e-06	-9.351759e-09	-2.183105e+01	-6.126463e+02
2.820000e-06	-3.208888e-06	-9.526834e-09	-2.242545e+01	-6.234313e+02
2.830000e-06	-3.292607e-06	-9.688586e-09	-2.301052e+01	-6.336354e+02
2.840000e-06	-3.375184e-06	-9.834924e-09	-2.358761e+01	-6.433941e+02
2.850000e-06	-3.456707e-06	-9.971670e-09	-2.415734e+01	-6.527550e+02
2.860000e-06	-3.537130e-06	-1.010177e-08	-2.471938e+01	-6.616918e+02
2.870000e-06	-3.616311e-06	-1.022529e-08	-2.527274e+01	-6.701425e+02
2.880000e-06	-3.694058e-06	-1.034531e-08	-2.581608e+01	-6.780559e+02
2.890000e-06	-3.770215e-06	-1.046087e-08	-2.634831e+01	-6.854250e+02
2.900000e-06	-3.844891e-06	-1.056963e-08	-2.687018e+01	-6.922964e+02
2.910000e-06	-3.918233e-06	-1.067192e-08	-2.738274e+01	-6.987555e+02
2.920000e-06	-3.990193e-06	-1.076825e-08	-2.788563e+01	-7.048967e+02
2.930000e-06	-4.060782e-06	-1.085952e-08	-2.837894e+01	-7.107933e+02
2.940000e-06	-4.129863e-06	-1.094514e-08	-2.886172e+01	-7.164806e+02
