# Temperatura_=_56.32
# Concentracion g/m^3_=_13400.0
# C_Vs_to_Am_M_A/Vsm_=_65563218390.804596
# pendiente_HvsI_1/m_=_3716.3
# ordenada_HvsI_A/m_=_1297.0
# frecuencia_Hz_=_300808.5194316636

Tiempo_(s)	Campo_(V.s)	Magnetizacion_(V.s)	Campo_(kA/m)	Magnetizacion_(A/m)
0.000000e+00	-5.501131e-06	-1.260103e-08	-3.830975e+01	-8.254654e+02
1.000000e-08	-5.499613e-06	-1.260290e-08	-3.829919e+01	-8.253582e+02
2.000000e-08	-5.496133e-06	-1.260349e-08	-3.827495e+01	-8.250822e+02
3.000000e-08	-5.490835e-06	-1.259790e-08	-3.823805e+01	-8.246264e+02
4.000000e-08	-5.483914e-06	-1.258834e-08	-3.818986e+01	-8.240128e+02
5.000000e-08	-5.475366e-06	-1.257604e-08	-3.813033e+01	-8.232841e+02
6.000000e-08	-5.464866e-06	-1.255960e-08	-3.805721e+01	-8.224838e+02
7.000000e-08	-5.452248e-06	-1.254345e-08	-3.796934e+01	-8.216376e+02
8.000000e-08	-5.437647e-06	-1.254333e-08	-3.786765e+01	-8.207432e+02
9.000000e-08	-5.420815e-06	-1.253702e-08	-3.775043e+01	-8.197745e+02
1.000000e-07	-5.401653e-06	-1.251893e-08	-3.761699e+01	-8.186964e+02
1.100000e-07	-5.380474e-06	-1.250496e-08	-3.746950e+01	-8.174830e+02
1.200000e-07	-5.357474e-06	-1.246769e-08	-3.730933e+01	-8.161311e+02
1.300000e-07	-5.332932e-06	-1.242873e-08	-3.713842e+01	-8.146626e+02
1.400000e-07	-5.306853e-06	-1.243870e-08	-3.695681e+01	-8.131144e+02
1.500000e-07	-5.278932e-06	-1.238549e-08	-3.676237e+01	-8.115201e+02
1.600000e-07	-5.249301e-06	-1.235675e-08	-3.655602e+01	-8.098929e+02
1.700000e-07	-5.218071e-06	-1.237410e-08	-3.633853e+01	-8.082164e+02
1.800000e-07	-5.184930e-06	-1.230026e-08	-3.610774e+01	-8.064486e+02
1.900000e-07	-5.149802e-06	-1.227595e-08	-3.586311e+01	-8.045371e+02
2.000000e-07	-5.113049e-06	-1.226062e-08	-3.560716e+01	-8.024391e+02
2.100000e-07	-5.074645e-06	-1.218904e-08	-3.533971e+01	-8.001380e+02
2.200000e-07	-5.034427e-06	-1.217588e-08	-3.505964e+01	-7.976484e+02
2.300000e-07	-4.992308e-06	-1.215559e-08	-3.476632e+01	-7.950087e+02
2.400000e-07	-4.948198e-06	-1.210630e-08	-3.445914e+01	-7.922641e+02
2.500000e-07	-4.902307e-06	-1.207257e-08	-3.413956e+01	-7.894465e+02
2.600000e-07	-4.854619e-06	-1.199967e-08	-3.380746e+01	-7.865619e+02
2.700000e-07	-4.804937e-06	-1.194226e-08	-3.346147e+01	-7.835896e+02
2.800000e-07	-4.753192e-06	-1.189212e-08	-3.310112e+01	-7.804922e+02
2.900000e-07	-4.699515e-06	-1.186159e-08	-3.272732e+01	-7.772339e+02
3.000000e-07	-4.644166e-06	-1.182376e-08	-3.234187e+01	-7.737967e+02
3.100000e-07	-4.587188e-06	-1.175846e-08	-3.194508e+01	-7.701880e+02
3.200000e-07	-4.528427e-06	-1.171345e-08	-3.153587e+01	-7.664363e+02
3.300000e-07	-4.467971e-06	-1.163802e-08	-3.111485e+01	-7.625774e+02
3.400000e-07	-4.405961e-06	-1.156740e-08	-3.068302e+01	-7.586369e+02
3.500000e-07	-4.342483e-06	-1.150893e-08	-3.024095e+01	-7.546182e+02
3.600000e-07	-4.277551e-06	-1.144273e-08	-2.978877e+01	-7.505005e+02
3.700000e-07	-4.210938e-06	-1.139185e-08	-2.932488e+01	-7.462485e+02
3.800000e-07	-4.142653e-06	-1.132374e-08	-2.884935e+01	-7.418292e+02
3.900000e-07	-4.072921e-06	-1.124305e-08	-2.836373e+01	-7.372271e+02
4.000000e-07	-4.001882e-06	-1.116595e-08	-2.786902e+01	-7.324514e+02
4.100000e-07	-3.929534e-06	-1.109346e-08	-2.736518e+01	-7.275307e+02
4.200000e-07	-3.855676e-06	-1.102465e-08	-2.685084e+01	-7.224982e+02
4.300000e-07	-3.780125e-06	-1.094113e-08	-2.632471e+01	-7.173735e+02
4.400000e-07	-3.702967e-06	-1.086274e-08	-2.578738e+01	-7.121501e+02
4.500000e-07	-3.624347e-06	-1.077905e-08	-2.523987e+01	-7.067944e+02
4.600000e-07	-3.544238e-06	-1.069663e-08	-2.468199e+01	-7.012587e+02
4.700000e-07	-3.462769e-06	-1.060885e-08	-2.411465e+01	-6.955007e+02
4.800000e-07	-3.380103e-06	-1.050641e-08	-2.353896e+01	-6.895036e+02
4.900000e-07	-3.296374e-06	-1.041463e-08	-2.295587e+01	-6.832843e+02
5.000000e-07	-3.211656e-06	-1.032133e-08	-2.236590e+01	-6.768877e+02
5.100000e-07	-3.125930e-06	-1.022711e-08	-2.176891e+01	-6.703670e+02
5.200000e-07	-3.039203e-06	-1.012486e-08	-2.116495e+01	-6.637597e+02
5.300000e-07	-2.951520e-06	-1.001936e-08	-2.055432e+01	-6.570684e+02
5.400000e-07	-2.862961e-06	-9.914446e-09	-1.993759e+01	-6.502563e+02
5.500000e-07	-2.773301e-06	-9.807454e-09	-1.931321e+01	-6.432603e+02
5.600000e-07	-2.682392e-06	-9.694898e-09	-1.868012e+01	-6.360162e+02
5.700000e-07	-2.590427e-06	-9.570576e-09	-1.803968e+01	-6.284856e+02
5.800000e-07	-2.497544e-06	-9.447724e-09	-1.739284e+01	-6.206713e+02
5.900000e-07	-2.403847e-06	-9.329421e-09	-1.674034e+01	-6.126154e+02
6.000000e-07	-2.309409e-06	-9.211102e-09	-1.608267e+01	-6.043781e+02
6.100000e-07	-2.214219e-06	-9.083850e-09	-1.541977e+01	-5.960065e+02
6.200000e-07	-2.118310e-06	-8.947597e-09	-1.475186e+01	-5.875072e+02
6.300000e-07	-2.021657e-06	-8.808996e-09	-1.407877e+01	-5.788358e+02
6.400000e-07	-1.924112e-06	-8.670341e-09	-1.339947e+01	-5.699081e+02
6.500000e-07	-1.825645e-06	-8.525201e-09	-1.271375e+01	-5.606307e+02
6.600000e-07	-1.726439e-06	-8.372502e-09	-1.202289e+01	-5.509384e+02
6.700000e-07	-1.626657e-06	-8.220255e-09	-1.132801e+01	-5.408208e+02
6.800000e-07	-1.526325e-06	-8.067169e-09	-1.062929e+01	-5.303268e+02
6.900000e-07	-1.425476e-06	-7.906978e-09	-9.926984e+00	-5.195418e+02
7.000000e-07	-1.324106e-06	-7.735547e-09	-9.221044e+00	-5.085468e+02
7.100000e-07	-1.222314e-06	-7.558273e-09	-8.512168e+00	-4.973751e+02
7.200000e-07	-1.120149e-06	-7.376749e-09	-7.800691e+00	-4.859872e+02
7.300000e-07	-1.017550e-06	-7.193190e-09	-7.086193e+00	-4.742748e+02
7.400000e-07	-9.145951e-07	-7.009641e-09	-6.369220e+00	-4.620944e+02
7.500000e-07	-8.113339e-07	-6.819736e-09	-5.650111e+00	-4.493193e+02
7.600000e-07	-7.078131e-07	-6.618583e-09	-4.929195e+00	-4.358853e+02
7.700000e-07	-6.041077e-07	-6.405337e-09	-4.206992e+00	-4.218113e+02
7.800000e-07	-5.002600e-07	-6.182887e-09	-3.483799e+00	-4.071823e+02
7.900000e-07	-3.962929e-07	-5.952263e-09	-2.759775e+00	-3.920999e+02
8.000000e-07	-2.921869e-07	-5.714432e-09	-2.034783e+00	-3.766187e+02
8.100000e-07	-1.879575e-07	-5.468826e-09	-1.308932e+00	-3.606979e+02
8.200000e-07	-8.364089e-08	-5.214291e-09	-5.824733e-01	-3.441892e+02
8.300000e-07	2.068644e-08	-4.947234e-09	1.440599e-01	-3.268707e+02
8.400000e-07	1.249924e-07	-4.665162e-09	8.704441e-01	-3.085151e+02
8.500000e-07	2.292758e-07	-4.368070e-09	1.596672e+00	-2.889613e+02
8.600000e-07	3.334805e-07	-4.055638e-09	2.322351e+00	-2.681561e+02
8.700000e-07	4.375866e-07	-3.724822e-09	3.047343e+00	-2.461361e+02
8.800000e-07	5.415915e-07	-3.372346e-09	3.771631e+00	-2.229464e+02
8.900000e-07	6.454653e-07	-2.996563e-09	4.495006e+00	-1.985194e+02
9.000000e-07	7.491268e-07	-2.591370e-09	5.216903e+00	-1.725580e+02
9.100000e-07	8.525408e-07	-2.150940e-09	5.937075e+00	-1.444785e+02
9.200000e-07	9.556616e-07	-1.667734e-09	6.655206e+00	-1.134552e+02
9.300000e-07	1.058428e-06	-1.134398e-09	7.370869e+00	-7.857638e+01
9.400000e-07	1.160797e-06	-5.407100e-10	8.083767e+00	-3.908608e+01
9.500000e-07	1.262771e-06	1.264420e-10	8.793906e+00	5.351805e+00
9.600000e-07	1.364340e-06	8.725575e-10	9.501233e+00	5.444543e+01
9.700000e-07	1.465468e-06	1.685929e-09	1.020549e+01	1.071933e+02
9.800000e-07	1.566120e-06	2.535323e-09	1.090642e+01	1.619671e+02
9.900000e-07	1.666258e-06	3.379259e-09	1.160378e+01	2.167500e+02
1.000000e-06	1.765836e-06	4.180467e-09	1.229725e+01	2.694753e+02
1.010000e-06	1.864707e-06	4.913129e-09	1.298578e+01	3.183790e+02
1.020000e-06	1.962704e-06	5.562216e-09	1.366823e+01	3.622769e+02
1.030000e-06	2.059798e-06	6.128364e-09	1.434439e+01	4.006975e+02
1.040000e-06	2.156127e-06	6.623281e-09	1.501522e+01	4.338473e+02
1.050000e-06	2.251823e-06	7.060373e-09	1.568165e+01	4.624321e+02
1.060000e-06	2.346806e-06	7.449672e-09	1.634311e+01	4.873990e+02
1.070000e-06	2.441021e-06	7.794615e-09	1.699922e+01	5.096756e+02
1.080000e-06	2.534432e-06	8.101902e-09	1.764973e+01	5.299805e+02
1.090000e-06	2.627030e-06	8.380315e-09	1.829458e+01	5.487417e+02
1.100000e-06	2.718812e-06	8.636417e-09	1.893375e+01	5.661267e+02
1.110000e-06	2.809484e-06	8.872595e-09	1.956519e+01	5.821473e+02
1.120000e-06	2.898890e-06	9.091158e-09	2.018780e+01	5.967880e+02
1.130000e-06	2.987270e-06	9.294678e-09	2.080328e+01	6.101049e+02
1.140000e-06	3.074679e-06	9.481519e-09	2.141200e+01	6.222651e+02
1.150000e-06	3.161013e-06	9.654939e-09	2.201323e+01	6.335200e+02
1.160000e-06	3.246307e-06	9.818752e-09	2.260721e+01	6.441369e+02
1.170000e-06	3.330615e-06	9.972700e-09	2.319433e+01	6.543226e+02
1.180000e-06	3.413784e-06	1.011998e-08	2.377351e+01	6.641732e+02
1.190000e-06	3.495632e-06	1.026316e-08	2.434351e+01	6.736701e+02
1.200000e-06	3.576201e-06	1.039990e-08	2.490458e+01	6.827189e+02
1.210000e-06	3.655461e-06	1.052818e-08	2.545655e+01	6.912127e+02
1.220000e-06	3.733434e-06	1.064738e-08	2.599955e+01	6.990924e+02
1.230000e-06	3.810122e-06	1.075952e-08	2.653361e+01	7.063791e+02
1.240000e-06	3.885291e-06	1.086568e-08	2.705708e+01	7.131691e+02
1.250000e-06	3.958827e-06	1.096532e-08	2.756919e+01	7.195975e+02
1.260000e-06	4.030912e-06	1.105774e-08	2.807118e+01	7.257880e+02
1.270000e-06	4.101594e-06	1.114794e-08	2.856341e+01	7.318131e+02
1.280000e-06	4.170865e-06	1.123697e-08	2.904581e+01	7.376778e+02
1.290000e-06	4.238787e-06	1.132032e-08	2.951882e+01	7.433356e+02
1.300000e-06	4.305045e-06	1.139950e-08	2.998024e+01	7.487229e+02
1.310000e-06	4.369633e-06	1.147592e-08	3.043003e+01	7.537984e+02
1.320000e-06	4.432779e-06	1.154938e-08	3.086978e+01	7.585682e+02
1.330000e-06	4.494493e-06	1.161855e-08	3.129955e+01	7.630862e+02
1.340000e-06	4.554832e-06	1.168414e-08	3.171975e+01	7.674317e+02
1.350000e-06	4.613500e-06	1.174888e-08	3.212831e+01	7.716752e+02
1.360000e-06	4.670339e-06	1.181108e-08	3.252414e+01	7.758479e+02
1.370000e-06	4.725507e-06	1.187081e-08	3.290833e+01	7.799296e+02
1.380000e-06	4.778938e-06	1.192952e-08	3.328042e+01	7.838594e+02
1.390000e-06	4.830405e-06	1.198504e-08	3.363883e+01	7.875646e+02
1.400000e-06	4.879868e-06	1.203557e-08	3.398329e+01	7.909943e+02
1.410000e-06	4.927495e-06	1.208172e-08	3.431497e+01	7.941434e+02
1.420000e-06	4.973470e-06	1.212531e-08	3.463514e+01	7.970559e+02
1.430000e-06	5.017868e-06	1.216755e-08	3.494432e+01	7.998070e+02
1.440000e-06	5.060411e-06	1.220911e-08	3.524059e+01	8.024720e+02
1.450000e-06	5.100996e-06	1.225017e-08	3.552322e+01	8.050950e+02
1.460000e-06	5.139839e-06	1.228966e-08	3.579373e+01	8.076717e+02
1.470000e-06	5.177031e-06	1.232595e-08	3.605273e+01	8.101529e+02
1.480000e-06	5.212448e-06	1.235892e-08	3.629937e+01	8.124669e+02
1.490000e-06	5.245883e-06	1.238982e-08	3.653222e+01	8.145514e+02
1.500000e-06	5.277444e-06	1.241777e-08	3.675200e+01	8.163801e+02
1.510000e-06	5.307312e-06	1.244129e-08	3.696001e+01	8.179744e+02
1.520000e-06	5.335410e-06	1.246321e-08	3.715568e+01	8.193932e+02
1.530000e-06	5.361464e-06	1.248623e-08	3.733712e+01	8.207088e+02
1.540000e-06	5.385456e-06	1.250887e-08	3.750420e+01	8.219761e+02
1.550000e-06	5.407635e-06	1.252867e-08	3.765865e+01	8.232113e+02
1.560000e-06	5.428107e-06	1.254398e-08	3.780122e+01	8.243866e+02
1.570000e-06	5.446724e-06	1.255522e-08	3.793086e+01	8.254449e+02
1.580000e-06	5.463296e-06	1.256617e-08	3.804627e+01	8.263253e+02
1.590000e-06	5.477849e-06	1.257671e-08	3.814762e+01	8.269908e+02
1.600000e-06	5.490350e-06	1.258545e-08	3.823468e+01	8.274448e+02
1.610000e-06	5.500646e-06	1.259418e-08	3.830638e+01	8.277296e+02
1.620000e-06	5.508817e-06	1.260212e-08	3.836328e+01	8.279094e+02
1.630000e-06	5.515126e-06	1.260709e-08	3.840722e+01	8.280442e+02
1.640000e-06	5.519671e-06	1.260871e-08	3.843887e+01	8.281660e+02
1.650000e-06	5.522215e-06	1.260902e-08	3.845658e+01	8.282676e+02
1.660000e-06	5.522706e-06	1.260823e-08	3.846000e+01	8.283083e+02
1.670000e-06	5.521417e-06	1.260664e-08	3.845103e+01	8.282327e+02
1.680000e-06	5.518425e-06	1.260286e-08	3.843019e+01	8.279950e+02
1.690000e-06	5.513577e-06	1.259609e-08	3.839643e+01	8.275769e+02
1.700000e-06	5.506817e-06	1.258887e-08	3.834935e+01	8.269939e+02
1.710000e-06	5.498322e-06	1.258094e-08	3.829019e+01	8.262859e+02
1.720000e-06	5.488201e-06	1.257078e-08	3.821971e+01	8.254980e+02
1.730000e-06	5.476196e-06	1.255679e-08	3.813611e+01	8.246608e+02
1.740000e-06	5.462156e-06	1.252719e-08	3.803833e+01	8.237782e+02
1.750000e-06	5.446079e-06	1.251702e-08	3.792637e+01	8.228284e+02
1.760000e-06	5.427548e-06	1.248760e-08	3.779733e+01	8.217766e+02
1.770000e-06	5.406253e-06	1.246568e-08	3.764902e+01	8.205933e+02
1.780000e-06	5.382723e-06	1.247762e-08	3.748517e+01	8.192699e+02
1.790000e-06	5.357963e-06	1.243824e-08	3.731274e+01	8.178236e+02
1.800000e-06	5.332386e-06	1.243644e-08	3.713462e+01	8.162892e+02
1.810000e-06	5.305192e-06	1.241426e-08	3.694524e+01	8.147028e+02
1.820000e-06	5.275743e-06	1.235607e-08	3.674016e+01	8.130830e+02
1.830000e-06	5.244583e-06	1.238999e-08	3.652316e+01	8.114198e+02
1.840000e-06	5.211732e-06	1.234718e-08	3.629439e+01	8.096760e+02
1.850000e-06	5.177026e-06	1.228031e-08	3.605269e+01	8.077995e+02
1.860000e-06	5.140557e-06	1.231043e-08	3.579872e+01	8.057440e+02
1.870000e-06	5.102013e-06	1.224819e-08	3.553031e+01	8.034861e+02
1.880000e-06	5.061628e-06	1.219658e-08	3.524906e+01	8.010343e+02
1.890000e-06	5.019674e-06	1.217169e-08	3.495690e+01	7.984229e+02
1.900000e-06	4.975922e-06	1.208884e-08	3.465221e+01	7.956974e+02
1.910000e-06	4.930378e-06	1.209857e-08	3.433505e+01	7.928938e+02
1.920000e-06	4.882944e-06	1.206819e-08	3.400471e+01	7.900246e+02
1.930000e-06	4.833723e-06	1.201618e-08	3.366194e+01	7.870739e+02
1.940000e-06	4.782795e-06	1.197747e-08	3.330728e+01	7.840066e+02
1.950000e-06	4.729752e-06	1.186921e-08	3.293789e+01	7.807851e+02
1.960000e-06	4.674817e-06	1.184859e-08	3.255532e+01	7.773865e+02
1.970000e-06	4.618240e-06	1.178390e-08	3.216132e+01	7.738127e+02
1.980000e-06	4.560018e-06	1.172548e-08	3.175586e+01	7.700886e+02
1.990000e-06	4.500231e-06	1.171662e-08	3.133951e+01	7.662499e+02
2.000000e-06	4.438731e-06	1.162602e-08	3.091123e+01	7.623258e+02
2.010000e-06	4.375627e-06	1.158747e-08	3.047177e+01	7.583249e+02
2.020000e-06	4.310948e-06	1.149740e-08	3.002134e+01	7.542310e+02
2.030000e-06	4.244760e-06	1.141623e-08	2.956041e+01	7.500110e+02
2.040000e-06	4.177117e-06	1.137332e-08	2.908935e+01	7.456296e+02
2.050000e-06	4.107784e-06	1.128792e-08	2.860652e+01	7.410668e+02
2.060000e-06	4.036888e-06	1.124494e-08	2.811280e+01	7.363263e+02
2.070000e-06	3.964631e-06	1.115022e-08	2.760961e+01	7.314337e+02
2.080000e-06	3.891058e-06	1.108027e-08	2.709724e+01	7.264228e+02
2.090000e-06	3.816001e-06	1.101130e-08	2.657455e+01	7.213174e+02
2.100000e-06	3.739179e-06	1.092135e-08	2.603956e+01	7.161172e+02
2.110000e-06	3.660846e-06	1.084909e-08	2.549405e+01	7.107937e+02
2.120000e-06	3.581267e-06	1.074436e-08	2.493987e+01	7.053005e+02
2.130000e-06	3.500439e-06	1.067359e-08	2.437698e+01	6.995927e+02
2.140000e-06	3.418446e-06	1.057751e-08	2.380599e+01	6.936466e+02
2.150000e-06	3.335351e-06	1.048135e-08	2.322731e+01	6.874719e+02
2.160000e-06	3.251012e-06	1.039217e-08	2.263998e+01	6.811086e+02
2.170000e-06	3.165297e-06	1.029122e-08	2.204306e+01	6.746105e+02
2.180000e-06	3.078395e-06	1.020028e-08	2.143788e+01	6.680202e+02
2.190000e-06	2.990481e-06	1.008982e-08	2.082564e+01	6.613487e+02
2.200000e-06	2.901632e-06	9.980596e-09	2.020690e+01	6.545672e+02
2.210000e-06	2.811852e-06	9.872130e-09	1.958167e+01	6.476164e+02
2.220000e-06	2.721185e-06	9.770273e-09	1.895027e+01	6.404300e+02
2.230000e-06	2.629611e-06	9.662445e-09	1.831255e+01	6.329620e+02
2.240000e-06	2.536962e-06	9.544442e-09	1.766735e+01	6.252060e+02
2.250000e-06	2.443241e-06	9.422291e-09	1.701467e+01	6.171970e+02
2.260000e-06	2.348657e-06	9.299584e-09	1.635600e+01	6.089937e+02
2.270000e-06	2.253331e-06	9.176056e-09	1.569215e+01	6.006486e+02
2.280000e-06	2.157229e-06	9.046225e-09	1.502290e+01	5.921787e+02
2.290000e-06	2.060388e-06	8.915148e-09	1.434850e+01	5.835503e+02
2.300000e-06	1.962818e-06	8.781405e-09	1.366902e+01	5.746856e+02
2.310000e-06	1.864584e-06	8.647552e-09	1.298492e+01	5.654901e+02
2.320000e-06	1.765901e-06	8.500711e-09	1.229770e+01	5.558897e+02
2.330000e-06	1.666791e-06	8.345558e-09	1.160750e+01	5.458610e+02
2.340000e-06	1.567083e-06	8.188171e-09	1.091313e+01	5.354412e+02
2.350000e-06	1.466658e-06	8.028245e-09	1.021377e+01	5.247109e+02
2.360000e-06	1.365537e-06	7.866268e-09	9.509572e+00	5.137558e+02
2.370000e-06	1.263759e-06	7.697076e-09	8.800790e+00	5.026226e+02
2.380000e-06	1.161398e-06	7.526911e-09	8.087948e+00	4.912882e+02
2.390000e-06	1.058671e-06	7.350216e-09	7.372559e+00	4.796569e+02
2.400000e-06	9.556761e-07	7.163222e-09	6.655307e+00	4.675889e+02
2.410000e-06	8.523489e-07	6.967062e-09	5.935739e+00	4.549493e+02
2.420000e-06	7.486671e-07	6.762914e-09	5.213701e+00	4.416577e+02
2.430000e-06	6.447150e-07	6.554166e-09	4.489781e+00	4.277153e+02
2.440000e-06	5.405586e-07	6.337950e-09	3.764438e+00	4.131964e+02
2.450000e-06	4.362183e-07	6.111197e-09	3.037815e+00	3.982040e+02
2.460000e-06	3.317268e-07	5.874766e-09	2.310138e+00	3.828079e+02
2.470000e-06	2.271885e-07	5.630835e-09	1.582136e+00	3.669904e+02
2.480000e-06	1.226424e-07	5.380052e-09	8.540793e-01	3.506247e+02
2.490000e-06	1.807352e-08	5.115128e-09	1.258636e-01	3.334999e+02
2.500000e-06	-8.654172e-08	4.835963e-09	-6.026747e-01	3.153832e+02
2.510000e-06	-1.911555e-07	4.545925e-09	-1.331203e+00	2.960946e+02
2.520000e-06	-2.956972e-07	4.240126e-09	-2.059229e+00	2.755567e+02
2.530000e-06	-4.001587e-07	3.913497e-09	-2.786697e+00	2.537917e+02
2.540000e-06	-5.044992e-07	3.563192e-09	-3.513321e+00	2.308525e+02
2.550000e-06	-6.086180e-07	3.194651e-09	-4.238402e+00	2.067064e+02
2.560000e-06	-7.124544e-07	2.806332e-09	-4.961517e+00	1.811131e+02
2.570000e-06	-8.159963e-07	2.383988e-09	-5.682580e+00	1.535504e+02
2.580000e-06	-9.192624e-07	1.917233e-09	-6.401723e+00	1.232350e+02
2.590000e-06	-1.022202e-06	1.399570e-09	-7.118594e+00	8.925538e+01
2.600000e-06	-1.124707e-06	8.209956e-10	-7.832433e+00	5.079964e+01
2.610000e-06	-1.226757e-06	1.728386e-10	-8.543110e+00	7.421047e+00
2.620000e-06	-1.328310e-06	-5.491058e-10	-9.250321e+00	-4.073516e+01
2.630000e-06	-1.429231e-06	-1.340177e-09	-9.953130e+00	-9.281840e+01
2.640000e-06	-1.529456e-06	-2.180595e-09	-1.065110e+01	-1.473193e+02
2.650000e-06	-1.629047e-06	-3.034407e-09	-1.134465e+01	-2.022782e+02
2.660000e-06	-1.728117e-06	-3.859132e-09	-1.203457e+01	-2.556081e+02
2.670000e-06	-1.826687e-06	-4.621883e-09	-1.272101e+01	-3.054533e+02
2.680000e-06	-1.924661e-06	-5.306914e-09	-1.340330e+01	-3.504885e+02
2.690000e-06	-2.021997e-06	-5.910533e-09	-1.408114e+01	-3.900867e+02
2.700000e-06	-2.118681e-06	-6.436410e-09	-1.475445e+01	-4.243198e+02
2.710000e-06	-2.214697e-06	-6.893481e-09	-1.542310e+01	-4.538072e+02
2.720000e-06	-2.310063e-06	-7.293880e-09	-1.608723e+01	-4.794670e+02
2.730000e-06	-2.404772e-06	-7.651490e-09	-1.674678e+01	-5.022505e+02
2.740000e-06	-2.498587e-06	-7.975279e-09	-1.740010e+01	-5.229317e+02
2.750000e-06	-2.591285e-06	-8.271146e-09	-1.804565e+01	-5.420020e+02
2.760000e-06	-2.682892e-06	-8.539643e-09	-1.868360e+01	-5.596776e+02
2.770000e-06	-2.773506e-06	-8.779780e-09	-1.931463e+01	-5.759928e+02
2.780000e-06	-2.863108e-06	-9.002848e-09	-1.993862e+01	-5.909279e+02
2.790000e-06	-2.951661e-06	-9.215978e-09	-2.055530e+01	-6.045183e+02
2.800000e-06	-3.039280e-06	-9.413717e-09	-2.116548e+01	-6.169072e+02
2.810000e-06	-3.125978e-06	-9.594244e-09	-2.176924e+01	-6.283329e+02
2.820000e-06	-3.211476e-06	-9.762552e-09	-2.236465e+01	-6.390660e+02
2.830000e-06	-3.295597e-06	-9.921974e-09	-2.295047e+01	-6.493318e+02
2.840000e-06	-3.378530e-06	-1.007263e-08	-2.352801e+01	-6.592522e+02
2.850000e-06	-3.460432e-06	-1.021351e-08	-2.409837e+01	-6.688312e+02
2.860000e-06	-3.541244e-06	-1.034524e-08	-2.466115e+01	-6.779856e+02
2.870000e-06	-3.620888e-06	-1.047272e-08	-2.521579e+01	-6.866057e+02
2.880000e-06	-3.699172e-06	-1.059825e-08	-2.576095e+01	-6.946182e+02
2.890000e-06	-3.775817e-06	-1.071744e-08	-2.629471e+01	-7.020260e+02
2.900000e-06	-3.850876e-06	-1.082616e-08	-2.681742e+01	-7.089117e+02
2.910000e-06	-3.924554e-06	-1.092624e-08	-2.733051e+01	-7.154060e+02
2.920000e-06	-3.996923e-06	-1.102245e-08	-2.783449e+01	-7.216392e+02
2.930000e-06	-4.067991e-06	-1.111586e-08	-2.832940e+01	-7.276970e+02
2.940000e-06	-4.137502e-06	-1.120424e-08	-2.881347e+01	-7.335988e+02
