# Temperatura_=_39.45
# Concentracion g/m^3_=_13400.0
# C_Vs_to_Am_M_A/Vsm_=_65563218390.804596
# pendiente_HvsI_1/m_=_3716.3
# ordenada_HvsI_A/m_=_1297.0
# frecuencia_Hz_=_300811.42997815413

Tiempo_(s)	Campo_(V.s)	Magnetizacion_(V.s)	Campo_(kA/m)	Magnetizacion_(A/m)
0.000000e+00	-5.496272e-06	-1.212353e-08	-3.830798e+01	-7.929456e+02
1.000000e-08	-5.495039e-06	-1.213126e-08	-3.829939e+01	-7.930490e+02
2.000000e-08	-5.491825e-06	-1.213442e-08	-3.827699e+01	-7.929214e+02
3.000000e-08	-5.486767e-06	-1.213010e-08	-3.824174e+01	-7.925170e+02
4.000000e-08	-5.480025e-06	-1.212102e-08	-3.819474e+01	-7.918641e+02
5.000000e-08	-5.471686e-06	-1.210556e-08	-3.813662e+01	-7.910512e+02
6.000000e-08	-5.461495e-06	-1.208511e-08	-3.806559e+01	-7.901895e+02
7.000000e-08	-5.449190e-06	-1.206391e-08	-3.797983e+01	-7.893664e+02
8.000000e-08	-5.434897e-06	-1.205184e-08	-3.788022e+01	-7.886108e+02
9.000000e-08	-5.418327e-06	-1.207348e-08	-3.776472e+01	-7.878830e+02
1.000000e-07	-5.399368e-06	-1.209032e-08	-3.763258e+01	-7.870944e+02
1.100000e-07	-5.378375e-06	-1.205993e-08	-3.748626e+01	-7.861470e+02
1.200000e-07	-5.355536e-06	-1.202566e-08	-3.732708e+01	-7.849764e+02
1.300000e-07	-5.331183e-06	-1.197094e-08	-3.715734e+01	-7.835799e+02
1.400000e-07	-5.305413e-06	-1.192106e-08	-3.697774e+01	-7.820175e+02
1.500000e-07	-5.277828e-06	-1.196055e-08	-3.678547e+01	-7.803855e+02
1.600000e-07	-5.248453e-06	-1.191718e-08	-3.658074e+01	-7.787748e+02
1.700000e-07	-5.217518e-06	-1.185634e-08	-3.636512e+01	-7.772297e+02
1.800000e-07	-5.184738e-06	-1.190089e-08	-3.613665e+01	-7.757274e+02
1.900000e-07	-5.149865e-06	-1.184535e-08	-3.589359e+01	-7.741839e+02
2.000000e-07	-5.113347e-06	-1.179379e-08	-3.563907e+01	-7.724869e+02
2.100000e-07	-5.075224e-06	-1.178698e-08	-3.537336e+01	-7.705398e+02
2.200000e-07	-5.035275e-06	-1.170923e-08	-3.509492e+01	-7.683001e+02
2.300000e-07	-4.993470e-06	-1.169195e-08	-3.480355e+01	-7.657956e+02
2.400000e-07	-4.949638e-06	-1.168767e-08	-3.449805e+01	-7.631123e+02
2.500000e-07	-4.904001e-06	-1.162916e-08	-3.417997e+01	-7.603592e+02
2.600000e-07	-4.856616e-06	-1.158769e-08	-3.384970e+01	-7.576239e+02
2.700000e-07	-4.807221e-06	-1.151993e-08	-3.350543e+01	-7.549380e+02
2.800000e-07	-4.755759e-06	-1.148143e-08	-3.314675e+01	-7.522661e+02
2.900000e-07	-4.702319e-06	-1.146173e-08	-3.277428e+01	-7.495216e+02
3.000000e-07	-4.647143e-06	-1.140572e-08	-3.238972e+01	-7.466036e+02
3.100000e-07	-4.590367e-06	-1.135325e-08	-3.199399e+01	-7.434377e+02
3.200000e-07	-4.531807e-06	-1.130905e-08	-3.158584e+01	-7.400054e+02
3.300000e-07	-4.471519e-06	-1.126368e-08	-3.116565e+01	-7.363497e+02
3.400000e-07	-4.409744e-06	-1.118744e-08	-3.073509e+01	-7.325550e+02
3.500000e-07	-4.346503e-06	-1.111457e-08	-3.029431e+01	-7.287111e+02
3.600000e-07	-4.281798e-06	-1.106009e-08	-2.984333e+01	-7.248758e+02
3.700000e-07	-4.215476e-06	-1.100338e-08	-2.938107e+01	-7.210517e+02
3.800000e-07	-4.147430e-06	-1.095854e-08	-2.890681e+01	-7.171869e+02
3.900000e-07	-4.077865e-06	-1.089125e-08	-2.842195e+01	-7.131972e+02
4.000000e-07	-4.006987e-06	-1.081468e-08	-2.792795e+01	-7.090010e+02
4.100000e-07	-3.934837e-06	-1.075181e-08	-2.742508e+01	-7.045515e+02
4.200000e-07	-3.861210e-06	-1.067930e-08	-2.691191e+01	-6.998531e+02
4.300000e-07	-3.785944e-06	-1.059873e-08	-2.638732e+01	-6.949555e+02
4.400000e-07	-3.709058e-06	-1.051393e-08	-2.585144e+01	-6.899301e+02
4.500000e-07	-3.630662e-06	-1.044506e-08	-2.530503e+01	-6.848372e+02
4.600000e-07	-3.550769e-06	-1.037721e-08	-2.474819e+01	-6.797010e+02
4.700000e-07	-3.469465e-06	-1.029249e-08	-2.418152e+01	-6.744995e+02
4.800000e-07	-3.386932e-06	-1.020100e-08	-2.360628e+01	-6.691749e+02
4.900000e-07	-3.303287e-06	-1.010863e-08	-2.302329e+01	-6.636585e+02
5.000000e-07	-3.218638e-06	-1.002380e-08	-2.243331e+01	-6.578985e+02
5.100000e-07	-3.132999e-06	-9.935023e-09	-2.183641e+01	-6.518797e+02
5.200000e-07	-3.046376e-06	-9.840338e-09	-2.123267e+01	-6.456265e+02
5.300000e-07	-2.958857e-06	-9.742140e-09	-2.062268e+01	-6.391890e+02
5.400000e-07	-2.870456e-06	-9.641579e-09	-2.000654e+01	-6.326201e+02
5.500000e-07	-2.781032e-06	-9.538686e-09	-1.938327e+01	-6.259519e+02
5.600000e-07	-2.690439e-06	-9.428372e-09	-1.875186e+01	-6.191833e+02
5.700000e-07	-2.598675e-06	-9.316351e-09	-1.811228e+01	-6.122819e+02
5.800000e-07	-2.505981e-06	-9.206651e-09	-1.746622e+01	-6.051987e+02
5.900000e-07	-2.412516e-06	-9.099530e-09	-1.681478e+01	-5.978873e+02
6.000000e-07	-2.318259e-06	-8.987692e-09	-1.615783e+01	-5.903197e+02
6.100000e-07	-2.223188e-06	-8.866792e-09	-1.549520e+01	-5.824904e+02
6.200000e-07	-2.127349e-06	-8.737442e-09	-1.482722e+01	-5.744101e+02
6.300000e-07	-2.030817e-06	-8.604555e-09	-1.415442e+01	-5.660914e+02
6.400000e-07	-1.933504e-06	-8.473064e-09	-1.347616e+01	-5.575363e+02
6.500000e-07	-1.835293e-06	-8.337513e-09	-1.279165e+01	-5.487301e+02
6.600000e-07	-1.736256e-06	-8.195294e-09	-1.210138e+01	-5.396468e+02
6.700000e-07	-1.636547e-06	-8.050067e-09	-1.140643e+01	-5.302605e+02
6.800000e-07	-1.536276e-06	-7.905513e-09	-1.070755e+01	-5.205568e+02
6.900000e-07	-1.435503e-06	-7.754995e-09	-1.000518e+01	-5.105379e+02
7.000000e-07	-1.334258e-06	-7.594131e-09	-9.299531e+00	-5.002157e+02
7.100000e-07	-1.232629e-06	-7.426774e-09	-8.591193e+00	-4.895971e+02
7.200000e-07	-1.130577e-06	-7.255401e-09	-7.879906e+00	-4.786677e+02
7.300000e-07	-1.028082e-06	-7.081498e-09	-7.165539e+00	-4.673834e+02
7.400000e-07	-9.252688e-07	-6.902958e-09	-6.448950e+00	-4.556762e+02
7.500000e-07	-8.221296e-07	-6.715238e-09	-5.730089e+00	-4.434728e+02
7.600000e-07	-7.187075e-07	-6.518807e-09	-5.009257e+00	-4.307199e+02
7.700000e-07	-6.150669e-07	-6.316910e-09	-4.286901e+00	-4.174021e+02
7.800000e-07	-5.112362e-07	-6.109754e-09	-3.563221e+00	-4.035438e+02
7.900000e-07	-4.073008e-07	-5.894915e-09	-2.838810e+00	-3.891894e+02
8.000000e-07	-3.032488e-07	-5.670441e-09	-2.113588e+00	-3.743692e+02
8.100000e-07	-1.990455e-07	-5.435677e-09	-1.387310e+00	-3.590638e+02
8.200000e-07	-9.473748e-08	-5.189958e-09	-6.603024e-01	-3.431854e+02
8.300000e-07	9.590112e-09	-4.933111e-09	6.684128e-02	-3.265866e+02
8.400000e-07	1.138782e-07	-4.662969e-09	7.937100e-01	-3.090970e+02
8.500000e-07	2.181334e-07	-4.379017e-09	1.520349e+00	-2.905728e+02
8.600000e-07	3.223171e-07	-4.082361e-09	2.246490e+00	-2.709367e+02
8.700000e-07	4.263680e-07	-3.771825e-09	2.971705e+00	-2.501826e+02
8.800000e-07	5.302883e-07	-3.444071e-09	3.696010e+00	-2.283327e+02
8.900000e-07	6.340304e-07	-3.091858e-09	4.419073e+00	-2.053529e+02
9.000000e-07	7.375825e-07	-2.712042e-09	5.140811e+00	-1.810541e+02
9.100000e-07	8.409385e-07	-2.305883e-09	5.861184e+00	-1.550200e+02
9.200000e-07	9.440283e-07	-1.867237e-09	6.579700e+00	-1.266019e+02
9.300000e-07	1.046803e-06	-1.381618e-09	7.296019e+00	-9.500568e+01
9.400000e-07	1.149141e-06	-8.390931e-10	8.009294e+00	-5.946553e+01
9.500000e-07	1.251017e-06	-2.353226e-10	8.719351e+00	-1.946810e+01
9.600000e-07	1.352476e-06	4.357927e-10	9.426504e+00	2.503332e+01
9.700000e-07	1.453565e-06	1.174985e-09	1.013108e+01	7.348104e+01
9.800000e-07	1.554230e-06	1.966516e-09	1.083269e+01	1.247024e+02
9.900000e-07	1.654357e-06	2.775734e-09	1.153056e+01	1.770436e+02
1.000000e-06	1.753942e-06	3.565534e-09	1.222464e+01	2.286226e+02
1.010000e-06	1.852836e-06	4.307110e-09	1.291392e+01	2.776425e+02
1.020000e-06	1.950854e-06	4.980969e-09	1.359709e+01	3.226833e+02
1.030000e-06	2.047961e-06	5.578400e-09	1.427390e+01	3.629022e+02
1.040000e-06	2.144229e-06	6.101974e-09	1.494488e+01	3.980940e+02
1.050000e-06	2.239816e-06	6.562708e-09	1.561110e+01	4.286089e+02
1.060000e-06	2.334744e-06	6.971498e-09	1.627273e+01	4.551623e+02
1.070000e-06	2.428886e-06	7.332477e-09	1.692888e+01	4.786004e+02
1.080000e-06	2.522241e-06	7.651600e-09	1.757954e+01	4.996904e+02
1.090000e-06	2.614826e-06	7.941228e-09	1.822485e+01	5.189879e+02
1.100000e-06	2.706506e-06	8.209051e-09	1.886384e+01	5.368025e+02
1.110000e-06	2.797127e-06	8.454901e-09	1.949545e+01	5.532507e+02
1.120000e-06	2.886564e-06	8.677411e-09	2.011881e+01	5.683565e+02
1.130000e-06	2.974933e-06	8.881546e-09	2.073473e+01	5.821531e+02
1.140000e-06	3.062389e-06	9.073398e-09	2.134428e+01	5.947466e+02
1.150000e-06	3.148775e-06	9.253956e-09	2.194637e+01	6.063248e+02
1.160000e-06	3.234070e-06	9.420456e-09	2.254086e+01	6.171175e+02
1.170000e-06	3.318408e-06	9.574100e-09	2.312868e+01	6.273340e+02
1.180000e-06	3.401652e-06	9.721821e-09	2.370887e+01	6.371090e+02
1.190000e-06	3.483570e-06	9.864687e-09	2.427983e+01	6.464804e+02
1.200000e-06	3.564183e-06	9.997421e-09	2.484169e+01	6.554068e+02
1.210000e-06	3.643593e-06	1.012089e-08	2.539516e+01	6.638132e+02
1.220000e-06	3.721709e-06	1.023974e-08	2.593962e+01	6.716449e+02
1.230000e-06	3.798431e-06	1.035370e-08	2.647435e+01	6.789049e+02
1.240000e-06	3.873701e-06	1.046045e-08	2.699897e+01	6.856611e+02
1.250000e-06	3.947331e-06	1.055758e-08	2.751216e+01	6.920241e+02
1.260000e-06	4.019476e-06	1.064654e-08	2.801499e+01	6.981057e+02
1.270000e-06	4.090278e-06	1.073292e-08	2.850847e+01	7.039813e+02
1.280000e-06	4.159649e-06	1.081836e-08	2.899197e+01	7.096703e+02
1.290000e-06	4.227692e-06	1.090098e-08	2.946622e+01	7.151433e+02
1.300000e-06	4.294154e-06	1.097940e-08	2.992945e+01	7.203507e+02
1.310000e-06	4.358909e-06	1.105320e-08	3.038078e+01	7.252583e+02
1.320000e-06	4.422199e-06	1.112361e-08	3.082190e+01	7.298726e+02
1.330000e-06	4.484019e-06	1.118949e-08	3.125277e+01	7.342438e+02
1.340000e-06	4.544424e-06	1.124929e-08	3.167378e+01	7.384470e+02
1.350000e-06	4.603219e-06	1.130820e-08	3.208357e+01	7.425486e+02
1.360000e-06	4.660213e-06	1.137111e-08	3.248081e+01	7.465762e+02
1.370000e-06	4.715517e-06	1.143438e-08	3.286627e+01	7.505051e+02
1.380000e-06	4.769106e-06	1.149072e-08	3.323977e+01	7.542688e+02
1.390000e-06	4.820768e-06	1.153961e-08	3.359985e+01	7.577891e+02
1.400000e-06	4.870378e-06	1.158461e-08	3.394562e+01	7.610130e+02
1.410000e-06	4.918144e-06	1.162882e-08	3.427854e+01	7.639394e+02
1.420000e-06	4.964269e-06	1.167212e-08	3.460002e+01	7.666231e+02
1.430000e-06	5.008816e-06	1.171024e-08	3.491051e+01	7.691540e+02
1.440000e-06	5.051509e-06	1.174493e-08	3.520807e+01	7.716202e+02
1.450000e-06	5.092221e-06	1.178178e-08	3.549182e+01	7.740702e+02
1.460000e-06	5.131177e-06	1.181959e-08	3.576334e+01	7.764915e+02
1.470000e-06	5.168525e-06	1.185230e-08	3.602365e+01	7.788160e+02
1.480000e-06	5.204118e-06	1.187985e-08	3.627173e+01	7.809490e+02
1.490000e-06	5.237713e-06	1.190656e-08	3.650588e+01	7.828120e+02
1.500000e-06	5.269461e-06	1.193252e-08	3.672715e+01	7.843792e+02
1.510000e-06	5.299506e-06	1.195399e-08	3.693656e+01	7.856928e+02
1.520000e-06	5.327837e-06	1.197025e-08	3.713403e+01	7.868494e+02
1.530000e-06	5.354178e-06	1.198653e-08	3.731762e+01	7.879633e+02
1.540000e-06	5.378436e-06	1.200568e-08	3.748669e+01	7.891200e+02
1.550000e-06	5.400849e-06	1.202354e-08	3.764291e+01	7.903413e+02
1.560000e-06	5.421512e-06	1.203630e-08	3.778692e+01	7.915758e+02
1.570000e-06	5.440280e-06	1.204855e-08	3.791773e+01	7.927192e+02
1.580000e-06	5.457002e-06	1.206482e-08	3.803428e+01	7.936577e+02
1.590000e-06	5.471764e-06	1.207844e-08	3.813717e+01	7.943147e+02
1.600000e-06	5.484499e-06	1.208237e-08	3.822593e+01	7.946841e+02
1.610000e-06	5.494967e-06	1.208306e-08	3.829889e+01	7.948338e+02
1.620000e-06	5.503344e-06	1.209018e-08	3.835727e+01	7.948797e+02
1.630000e-06	5.509929e-06	1.209817e-08	3.840317e+01	7.949398e+02
1.640000e-06	5.514670e-06	1.209802e-08	3.843622e+01	7.950865e+02
1.650000e-06	5.517385e-06	1.209479e-08	3.845514e+01	7.953188e+02
1.660000e-06	5.518083e-06	1.209875e-08	3.846000e+01	7.955634e+02
1.670000e-06	5.517020e-06	1.210538e-08	3.845260e+01	7.957050e+02
1.680000e-06	5.514316e-06	1.210453e-08	3.843375e+01	7.956339e+02
1.690000e-06	5.509748e-06	1.209692e-08	3.840191e+01	7.952898e+02
1.700000e-06	5.503239e-06	1.208635e-08	3.835654e+01	7.946851e+02
1.710000e-06	5.495014e-06	1.207546e-08	3.829922e+01	7.938980e+02
1.720000e-06	5.485111e-06	1.206473e-08	3.823020e+01	7.930386e+02
1.730000e-06	5.473286e-06	1.206075e-08	3.814778e+01	7.922033e+02
1.740000e-06	5.459404e-06	1.205050e-08	3.805102e+01	7.914351e+02
1.750000e-06	5.443577e-06	1.200063e-08	3.794071e+01	7.907085e+02
1.760000e-06	5.425415e-06	1.197481e-08	3.781413e+01	7.899423e+02
1.770000e-06	5.404415e-06	1.197218e-08	3.766776e+01	7.890368e+02
1.780000e-06	5.381087e-06	1.197775e-08	3.750516e+01	7.879173e+02
1.790000e-06	5.356464e-06	1.201818e-08	3.733355e+01	7.865669e+02
1.800000e-06	5.331108e-06	1.193460e-08	3.715682e+01	7.850333e+02
1.810000e-06	5.304196e-06	1.187577e-08	3.696925e+01	7.834086e+02
1.820000e-06	5.274863e-06	1.193731e-08	3.676481e+01	7.817882e+02
1.830000e-06	5.243792e-06	1.185521e-08	3.654825e+01	7.802294e+02
1.840000e-06	5.211096e-06	1.182784e-08	3.632036e+01	7.787240e+02
1.850000e-06	5.176536e-06	1.186450e-08	3.607949e+01	7.771993e+02
1.860000e-06	5.140336e-06	1.176801e-08	3.582718e+01	7.755453e+02
1.870000e-06	5.102111e-06	1.178138e-08	3.556075e+01	7.736584e+02
1.880000e-06	5.061945e-06	1.177314e-08	3.528081e+01	7.714823e+02
1.890000e-06	5.020233e-06	1.167597e-08	3.499008e+01	7.690296e+02
1.900000e-06	4.976665e-06	1.168192e-08	3.468642e+01	7.663764e+02
1.910000e-06	4.931262e-06	1.160965e-08	3.436997e+01	7.636303e+02
1.920000e-06	4.884059e-06	1.158260e-08	3.404097e+01	7.608870e+02
1.930000e-06	4.835076e-06	1.158616e-08	3.369957e+01	7.581921e+02
1.940000e-06	4.784444e-06	1.147681e-08	3.334668e+01	7.555239e+02
1.950000e-06	4.731714e-06	1.146747e-08	3.297916e+01	7.528045e+02
1.960000e-06	4.677000e-06	1.142563e-08	3.259781e+01	7.499322e+02
1.970000e-06	4.620626e-06	1.135643e-08	3.220489e+01	7.468239e+02
1.980000e-06	4.562608e-06	1.131885e-08	3.180052e+01	7.434477e+02
1.990000e-06	4.503127e-06	1.125087e-08	3.138595e+01	7.398345e+02
2.000000e-06	4.441916e-06	1.123163e-08	3.095932e+01	7.360624e+02
2.010000e-06	4.379024e-06	1.116195e-08	3.052098e+01	7.322234e+02
2.020000e-06	4.314606e-06	1.110588e-08	3.007199e+01	7.283848e+02
2.030000e-06	4.248634e-06	1.105134e-08	2.961218e+01	7.245618e+02
2.040000e-06	4.181220e-06	1.096325e-08	2.914232e+01	7.207130e+02
2.050000e-06	4.112137e-06	1.092359e-08	2.866082e+01	7.167583e+02
2.060000e-06	4.041460e-06	1.084546e-08	2.816822e+01	7.126127e+02
2.070000e-06	3.969391e-06	1.079000e-08	2.766591e+01	7.082197e+02
2.080000e-06	3.896011e-06	1.072890e-08	2.715447e+01	7.035725e+02
2.090000e-06	3.821201e-06	1.065276e-08	2.663305e+01	6.987126e+02
2.100000e-06	3.744633e-06	1.059081e-08	2.609939e+01	6.937094e+02
2.110000e-06	3.666451e-06	1.049400e-08	2.555447e+01	6.886282e+02
2.120000e-06	3.586976e-06	1.042015e-08	2.500055e+01	6.835024e+02
2.130000e-06	3.506303e-06	1.033713e-08	2.443828e+01	6.783197e+02
2.140000e-06	3.424443e-06	1.025741e-08	2.386772e+01	6.730281e+02
2.150000e-06	3.341480e-06	1.017876e-08	2.328949e+01	6.675589e+02
2.160000e-06	3.257360e-06	1.008976e-08	2.270319e+01	6.618546e+02
2.170000e-06	3.171903e-06	1.000944e-08	2.210757e+01	6.558912e+02
2.180000e-06	3.085234e-06	9.914177e-09	2.150350e+01	6.496853e+02
2.190000e-06	2.997554e-06	9.818736e-09	2.089239e+01	6.432833e+02
2.200000e-06	2.908912e-06	9.716644e-09	2.027457e+01	6.367397e+02
2.210000e-06	2.819254e-06	9.617958e-09	1.964967e+01	6.300924e+02
2.220000e-06	2.728666e-06	9.515955e-09	1.901829e+01	6.233479e+02
2.230000e-06	2.637249e-06	9.407828e-09	1.838113e+01	6.164796e+02
2.240000e-06	2.544837e-06	9.300851e-09	1.773703e+01	6.094404e+02
2.250000e-06	2.451362e-06	9.191089e-09	1.708553e+01	6.021819e+02
2.260000e-06	2.356932e-06	9.083061e-09	1.642738e+01	5.946711e+02
2.270000e-06	2.261667e-06	8.970449e-09	1.576339e+01	5.868982e+02
2.280000e-06	2.165653e-06	8.856272e-09	1.509419e+01	5.788712e+02
2.290000e-06	2.068974e-06	8.732419e-09	1.442036e+01	5.706037e+02
2.300000e-06	1.971587e-06	8.599802e-09	1.374159e+01	5.621007e+02
2.310000e-06	1.873530e-06	8.461775e-09	1.305816e+01	5.533510e+02
2.320000e-06	1.774955e-06	8.322152e-09	1.237110e+01	5.443303e+02
2.330000e-06	1.675895e-06	8.182093e-09	1.168068e+01	5.350114e+02
2.340000e-06	1.576298e-06	8.039436e-09	1.098650e+01	5.253769e+02
2.350000e-06	1.476086e-06	7.895797e-09	1.028804e+01	5.154254e+02
2.360000e-06	1.375233e-06	7.745058e-09	9.585116e+00	5.051680e+02
2.370000e-06	1.273753e-06	7.587925e-09	8.877821e+00	4.946140e+02
2.380000e-06	1.171702e-06	7.419763e-09	8.166540e+00	4.837546e+02
2.390000e-06	1.069154e-06	7.243376e-09	7.451802e+00	4.725523e+02
2.400000e-06	9.661920e-07	7.065041e-09	6.734177e+00	4.609429e+02
2.410000e-06	8.628387e-07	6.883130e-09	6.013824e+00	4.488522e+02
2.420000e-06	7.591717e-07	6.695651e-09	5.291284e+00	4.362205e+02
2.430000e-06	6.553022e-07	6.495909e-09	4.567333e+00	4.230237e+02
2.440000e-06	5.512844e-07	6.285116e-09	3.842349e+00	4.092785e+02
2.450000e-06	4.471327e-07	6.068971e-09	3.116431e+00	3.950276e+02
2.460000e-06	3.428407e-07	5.846540e-09	2.389536e+00	3.803075e+02
2.470000e-06	2.384476e-07	5.613918e-09	1.661935e+00	3.651118e+02
2.480000e-06	1.339550e-07	5.370873e-09	9.336409e-01	3.493677e+02
2.490000e-06	2.942534e-08	5.117432e-09	2.050891e-01	3.329384e+02
2.500000e-06	-7.507330e-08	4.852755e-09	-5.232468e-01	3.156542e+02
2.510000e-06	-1.795729e-07	4.574303e-09	-1.251589e+00	2.973616e+02
2.520000e-06	-2.839861e-07	4.280638e-09	-1.979330e+00	2.779672e+02
2.530000e-06	-3.882921e-07	3.974048e-09	-2.706323e+00	2.574515e+02
2.540000e-06	-4.924754e-07	3.650905e-09	-3.432461e+00	2.358366e+02
2.550000e-06	-5.964684e-07	3.306586e-09	-4.157273e+00	2.131089e+02
2.560000e-06	-7.002684e-07	2.937457e-09	-4.880739e+00	1.891202e+02
2.570000e-06	-8.037897e-07	2.540319e-09	-5.602264e+00	1.635061e+02
2.580000e-06	-9.070191e-07	2.112139e-09	-6.321753e+00	1.356637e+02
2.590000e-06	-1.009967e-06	1.643859e-09	-7.039280e+00	1.048179e+02
2.600000e-06	-1.112508e-06	1.120249e-09	-7.753971e+00	7.017904e+01
2.610000e-06	-1.214512e-06	5.324255e-10	-8.464918e+00	3.116016e+01
2.620000e-06	-1.315936e-06	-1.186288e-10	-9.171829e+00	-1.240056e+01
2.630000e-06	-1.416766e-06	-8.345806e-10	-9.874596e+00	-6.008070e+01
2.640000e-06	-1.516986e-06	-1.612483e-09	-1.057311e+01	-1.108330e+02
2.650000e-06	-1.616639e-06	-2.426853e-09	-1.126767e+01	-1.630886e+02
2.660000e-06	-1.715746e-06	-3.233002e-09	-1.195843e+01	-2.149892e+02
2.670000e-06	-1.814297e-06	-3.992708e-09	-1.264531e+01	-2.646930e+02
2.680000e-06	-1.912299e-06	-4.690473e-09	-1.332836e+01	-3.106782e+02
2.690000e-06	-2.009692e-06	-5.319944e-09	-1.400718e+01	-3.519682e+02
2.700000e-06	-2.106318e-06	-5.875077e-09	-1.468064e+01	-3.882236e+02
2.710000e-06	-2.202230e-06	-6.358135e-09	-1.534913e+01	-4.196887e+02
2.720000e-06	-2.297572e-06	-6.782810e-09	-1.601365e+01	-4.470198e+02
2.730000e-06	-2.392286e-06	-7.164492e-09	-1.667378e+01	-4.710547e+02
2.740000e-06	-2.486110e-06	-7.507037e-09	-1.732772e+01	-4.925920e+02
2.750000e-06	-2.578775e-06	-7.810514e-09	-1.797358e+01	-5.122386e+02
2.760000e-06	-2.670337e-06	-8.082013e-09	-1.861175e+01	-5.303552e+02
2.770000e-06	-2.760964e-06	-8.330480e-09	-1.924340e+01	-5.470919e+02
2.780000e-06	-2.850604e-06	-8.563914e-09	-1.986817e+01	-5.624835e+02
2.790000e-06	-2.939205e-06	-8.782786e-09	-2.048571e+01	-5.765539e+02
2.800000e-06	-3.026861e-06	-8.982438e-09	-2.109666e+01	-5.893911e+02
2.810000e-06	-3.113547e-06	-9.167780e-09	-2.170084e+01	-6.011672e+02
2.820000e-06	-3.199077e-06	-9.345407e-09	-2.229697e+01	-6.121082e+02
2.830000e-06	-3.283326e-06	-9.510220e-09	-2.288417e+01	-6.224328e+02
2.840000e-06	-3.366383e-06	-9.658221e-09	-2.346306e+01	-6.322952e+02
2.850000e-06	-3.448350e-06	-9.795798e-09	-2.403435e+01	-6.417537e+02
2.860000e-06	-3.529123e-06	-9.930273e-09	-2.459733e+01	-6.507807e+02
2.870000e-06	-3.608701e-06	-1.005961e-08	-2.515197e+01	-6.593038e+02
2.880000e-06	-3.687079e-06	-1.018000e-08	-2.569825e+01	-6.672599e+02
2.890000e-06	-3.763937e-06	-1.029344e-08	-2.623393e+01	-6.746379e+02
2.900000e-06	-3.839201e-06	-1.040303e-08	-2.675851e+01	-6.814929e+02
2.910000e-06	-3.913008e-06	-1.050715e-08	-2.727293e+01	-6.879293e+02
2.920000e-06	-3.985405e-06	-1.060295e-08	-2.777753e+01	-6.940624e+02
2.930000e-06	-4.056471e-06	-1.069298e-08	-2.827284e+01	-6.999777e+02
2.940000e-06	-4.126090e-06	-1.078079e-08	-2.875807e+01	-7.057071e+02
