# Temperatura_=_32.03
# Concentracion g/m^3_=_13400.0
# C_Vs_to_Am_M_A/Vsm_=_65563218390.804596
# pendiente_HvsI_1/m_=_3716.3
# ordenada_HvsI_A/m_=_1297.0
# frecuencia_Hz_=_300815.6527050777

Tiempo_(s)	Campo_(V.s)	Magnetizacion_(V.s)	Campo_(kA/m)	Magnetizacion_(A/m)
0.000000e+00	-5.486217e-06	-1.210489e-08	-3.830479e+01	-7.924061e+02
1.000000e-08	-5.484910e-06	-1.210323e-08	-3.829566e+01	-7.922757e+02
2.000000e-08	-5.481640e-06	-1.210133e-08	-3.827283e+01	-7.919919e+02
3.000000e-08	-5.476520e-06	-1.209793e-08	-3.823709e+01	-7.915543e+02
4.000000e-08	-5.469747e-06	-1.209226e-08	-3.818980e+01	-7.909893e+02
5.000000e-08	-5.461410e-06	-1.208072e-08	-3.813158e+01	-7.903382e+02
6.000000e-08	-5.451123e-06	-1.206396e-08	-3.805977e+01	-7.896379e+02
7.000000e-08	-5.438694e-06	-1.204443e-08	-3.797299e+01	-7.889034e+02
8.000000e-08	-5.424309e-06	-1.202969e-08	-3.787255e+01	-7.881215e+02
9.000000e-08	-5.407618e-06	-1.205493e-08	-3.775601e+01	-7.872561e+02
1.000000e-07	-5.388597e-06	-1.205916e-08	-3.762321e+01	-7.862661e+02
1.100000e-07	-5.367596e-06	-1.201436e-08	-3.747658e+01	-7.851260e+02
1.200000e-07	-5.344740e-06	-1.198430e-08	-3.731700e+01	-7.838397e+02
1.300000e-07	-5.320412e-06	-1.191957e-08	-3.714714e+01	-7.824424e+02
1.400000e-07	-5.294690e-06	-1.189396e-08	-3.696755e+01	-7.809867e+02
1.500000e-07	-5.267116e-06	-1.195875e-08	-3.677503e+01	-7.795200e+02
1.600000e-07	-5.237724e-06	-1.187051e-08	-3.656981e+01	-7.780620e+02
1.700000e-07	-5.206811e-06	-1.183857e-08	-3.635398e+01	-7.765925e+02
1.800000e-07	-5.174040e-06	-1.190029e-08	-3.612517e+01	-7.750553e+02
1.900000e-07	-5.139119e-06	-1.178855e-08	-3.588135e+01	-7.733769e+02
2.000000e-07	-5.102620e-06	-1.176305e-08	-3.562651e+01	-7.714946e+02
2.100000e-07	-5.064523e-06	-1.175648e-08	-3.536052e+01	-7.693798e+02
2.200000e-07	-5.024563e-06	-1.165807e-08	-3.508152e+01	-7.670490e+02
2.300000e-07	-4.982729e-06	-1.167981e-08	-3.478944e+01	-7.645574e+02
2.400000e-07	-4.938866e-06	-1.167233e-08	-3.448318e+01	-7.619756e+02
2.500000e-07	-4.893237e-06	-1.160178e-08	-3.416460e+01	-7.593623e+02
2.600000e-07	-4.845895e-06	-1.157062e-08	-3.383406e+01	-7.567403e+02
2.700000e-07	-4.796587e-06	-1.148725e-08	-3.348979e+01	-7.540890e+02
2.800000e-07	-4.745173e-06	-1.144758e-08	-3.313082e+01	-7.513543e+02
2.900000e-07	-4.691751e-06	-1.142505e-08	-3.275783e+01	-7.484720e+02
3.000000e-07	-4.636626e-06	-1.137024e-08	-3.237294e+01	-7.453955e+02
3.100000e-07	-4.579934e-06	-1.132397e-08	-3.197712e+01	-7.421147e+02
3.200000e-07	-4.521435e-06	-1.128607e-08	-3.156868e+01	-7.386593e+02
3.300000e-07	-4.461205e-06	-1.124517e-08	-3.114815e+01	-7.350849e+02
3.400000e-07	-4.399491e-06	-1.115302e-08	-3.071727e+01	-7.314474e+02
3.500000e-07	-4.336305e-06	-1.108609e-08	-3.027610e+01	-7.277786e+02
3.600000e-07	-4.271726e-06	-1.103130e-08	-2.982521e+01	-7.240718e+02
3.700000e-07	-4.205585e-06	-1.096693e-08	-2.936341e+01	-7.202843e+02
3.800000e-07	-4.137676e-06	-1.093171e-08	-2.888927e+01	-7.163558e+02
3.900000e-07	-4.068158e-06	-1.086647e-08	-2.840390e+01	-7.122343e+02
4.000000e-07	-3.997331e-06	-1.079730e-08	-2.790938e+01	-7.078978e+02
4.100000e-07	-3.925296e-06	-1.073421e-08	-2.740644e+01	-7.033634e+02
4.200000e-07	-3.851924e-06	-1.065387e-08	-2.689415e+01	-6.986778e+02
4.300000e-07	-3.776827e-06	-1.057158e-08	-2.636982e+01	-6.938955e+02
4.400000e-07	-3.699926e-06	-1.048844e-08	-2.583290e+01	-6.890526e+02
4.500000e-07	-3.621604e-06	-1.042489e-08	-2.528605e+01	-6.841490e+02
4.600000e-07	-3.541870e-06	-1.035789e-08	-2.472935e+01	-6.791461e+02
4.700000e-07	-3.460684e-06	-1.027922e-08	-2.416251e+01	-6.739821e+02
4.800000e-07	-3.378297e-06	-1.019302e-08	-2.358728e+01	-6.685973e+02
4.900000e-07	-3.294784e-06	-1.009989e-08	-2.300419e+01	-6.629595e+02
5.000000e-07	-3.210245e-06	-1.001256e-08	-2.241394e+01	-6.570774e+02
5.100000e-07	-3.124789e-06	-9.916009e-09	-2.181729e+01	-6.509958e+02
5.200000e-07	-3.038338e-06	-9.819736e-09	-2.121369e+01	-6.447751e+02
5.300000e-07	-2.950863e-06	-9.724225e-09	-2.060294e+01	-6.384634e+02
5.400000e-07	-2.862470e-06	-9.627021e-09	-1.998578e+01	-6.320731e+02
5.500000e-07	-2.773169e-06	-9.529945e-09	-1.936228e+01	-6.255730e+02
5.600000e-07	-2.682680e-06	-9.424479e-09	-1.873048e+01	-6.188998e+02
5.700000e-07	-2.590988e-06	-9.315507e-09	-1.809029e+01	-6.119828e+02
5.800000e-07	-2.498425e-06	-9.203408e-09	-1.744402e+01	-6.047731e+02
5.900000e-07	-2.405122e-06	-9.092393e-09	-1.679257e+01	-5.972625e+02
6.000000e-07	-2.311035e-06	-8.974570e-09	-1.613566e+01	-5.894845e+02
6.100000e-07	-2.216149e-06	-8.848067e-09	-1.547316e+01	-5.814966e+02
6.200000e-07	-2.120444e-06	-8.718399e-09	-1.480495e+01	-5.733506e+02
6.300000e-07	-2.023964e-06	-8.589356e-09	-1.413133e+01	-5.650654e+02
6.400000e-07	-1.926817e-06	-8.463793e-09	-1.345304e+01	-5.566132e+02
6.500000e-07	-1.828907e-06	-8.331248e-09	-1.276944e+01	-5.479266e+02
6.600000e-07	-1.730142e-06	-8.191324e-09	-1.207986e+01	-5.389243e+02
6.700000e-07	-1.630598e-06	-8.046513e-09	-1.138484e+01	-5.295422e+02
6.800000e-07	-1.530415e-06	-7.899527e-09	-1.068537e+01	-5.197590e+02
6.900000e-07	-1.429784e-06	-7.743667e-09	-9.982757e+00	-5.096008e+02
7.000000e-07	-1.328775e-06	-7.577617e-09	-9.277514e+00	-4.991241e+02
7.100000e-07	-1.227352e-06	-7.410191e-09	-8.569375e+00	-4.883828e+02
7.200000e-07	-1.125513e-06	-7.242983e-09	-7.858339e+00	-4.773942e+02
7.300000e-07	-1.023243e-06	-7.074116e-09	-7.144286e+00	-4.661189e+02
7.400000e-07	-9.206232e-07	-6.899049e-09	-6.427795e+00	-4.544663e+02
7.500000e-07	-8.177129e-07	-6.713635e-09	-5.709275e+00	-4.423235e+02
7.600000e-07	-7.144708e-07	-6.516081e-09	-4.988438e+00	-4.295960e+02
7.700000e-07	-6.109474e-07	-6.310172e-09	-4.265637e+00	-4.162432e+02
7.800000e-07	-5.071925e-07	-6.096366e-09	-3.541220e+00	-4.022894e+02
7.900000e-07	-4.033071e-07	-5.876590e-09	-2.815892e+00	-3.878059e+02
8.000000e-07	-2.993271e-07	-5.652224e-09	-2.089903e+00	-3.728662e+02
8.100000e-07	-1.952376e-07	-5.420847e-09	-1.363150e+00	-3.574960e+02
8.200000e-07	-9.103030e-08	-5.179591e-09	-6.355740e-01	-3.416379e+02
8.300000e-07	1.323473e-08	-4.925779e-09	9.240495e-02	-3.251497e+02
8.400000e-07	1.174335e-07	-4.658028e-09	8.199215e-01	-3.078398e+02
8.500000e-07	2.215703e-07	-4.377204e-09	1.547005e+00	-2.895260e+02
8.600000e-07	3.256305e-07	-4.085372e-09	2.273553e+00	-2.700911e+02
8.700000e-07	4.295139e-07	-3.776007e-09	2.998868e+00	-2.495058e+02
8.800000e-07	5.332589e-07	-3.445080e-09	3.723216e+00	-2.277996e+02
8.900000e-07	6.368755e-07	-3.093463e-09	4.446667e+00	-2.049812e+02
9.000000e-07	7.402641e-07	-2.723522e-09	5.168527e+00	-1.809325e+02
9.100000e-07	8.433558e-07	-2.330695e-09	5.888314e+00	-1.553198e+02
9.200000e-07	9.461316e-07	-1.901866e-09	6.605895e+00	-1.275657e+02
9.300000e-07	1.048617e-06	-1.427503e-09	7.321451e+00	-9.691262e+01
9.400000e-07	1.150770e-06	-9.023603e-10	8.034682e+00	-6.258028e+01
9.500000e-07	1.252554e-06	-3.199871e-10	8.745338e+00	-2.398442e+01
9.600000e-07	1.353893e-06	3.308049e-10	9.452889e+00	1.904077e+01
9.700000e-07	1.454815e-06	1.051622e-09	1.015752e+01	6.608473e+01
9.800000e-07	1.555345e-06	1.824826e-09	1.085942e+01	1.161222e+02
9.900000e-07	1.655373e-06	2.618159e-09	1.155782e+01	1.676179e+02
1.000000e-06	1.754710e-06	3.401295e-09	1.225139e+01	2.187578e+02
1.010000e-06	1.853250e-06	4.144461e-09	1.293940e+01	2.677493e+02
1.020000e-06	1.951015e-06	4.823083e-09	1.362200e+01	3.131179e+02
1.030000e-06	2.047991e-06	5.429290e-09	1.429908e+01	3.539214e+02
1.040000e-06	2.144187e-06	5.967076e-09	1.497072e+01	3.898361e+02
1.050000e-06	2.239630e-06	6.442656e-09	1.563711e+01	4.211000e+02
1.060000e-06	2.334364e-06	6.860070e-09	1.629854e+01	4.483445e+02
1.070000e-06	2.428328e-06	7.228524e-09	1.695460e+01	4.723713e+02
1.080000e-06	2.521548e-06	7.556451e-09	1.760546e+01	4.939418e+02
1.090000e-06	2.614037e-06	7.852404e-09	1.825122e+01	5.136336e+02
1.100000e-06	2.705552e-06	8.122241e-09	1.889017e+01	5.317898e+02
1.110000e-06	2.795849e-06	8.372403e-09	1.952063e+01	5.485556e+02
1.120000e-06	2.885030e-06	8.604728e-09	2.014329e+01	5.639686e+02
1.130000e-06	2.973260e-06	8.818489e-09	2.075931e+01	5.780583e+02
1.140000e-06	3.060494e-06	9.013198e-09	2.136838e+01	5.909160e+02
1.150000e-06	3.146669e-06	9.191561e-09	2.197006e+01	6.027141e+02
1.160000e-06	3.231829e-06	9.359027e-09	2.256464e+01	6.136757e+02
1.170000e-06	3.315983e-06	9.516315e-09	2.315221e+01	6.240181e+02
1.180000e-06	3.399001e-06	9.666833e-09	2.373184e+01	6.338961e+02
1.190000e-06	3.480755e-06	9.811801e-09	2.430265e+01	6.433723e+02
1.200000e-06	3.561229e-06	9.949358e-09	2.486452e+01	6.524242e+02
1.210000e-06	3.640466e-06	1.007773e-08	2.541775e+01	6.609815e+02
1.220000e-06	3.718368e-06	1.019834e-08	2.596166e+01	6.689782e+02
1.230000e-06	3.794902e-06	1.031198e-08	2.649602e+01	6.763941e+02
1.240000e-06	3.869958e-06	1.041681e-08	2.702007e+01	6.832732e+02
1.250000e-06	3.943408e-06	1.051288e-08	2.753289e+01	6.897115e+02
1.260000e-06	4.015371e-06	1.060413e-08	2.803534e+01	6.958241e+02
1.270000e-06	4.085938e-06	1.069521e-08	2.852803e+01	7.017070e+02
1.280000e-06	4.155175e-06	1.078444e-08	2.901145e+01	7.074105e+02
1.290000e-06	4.223021e-06	1.086738e-08	2.948515e+01	7.129339e+02
1.300000e-06	4.289201e-06	1.094422e-08	2.994722e+01	7.182422e+02
1.310000e-06	4.353729e-06	1.101818e-08	3.039776e+01	7.232944e+02
1.320000e-06	4.416823e-06	1.109090e-08	3.083828e+01	7.280713e+02
1.330000e-06	4.478501e-06	1.116043e-08	3.126891e+01	7.325887e+02
1.340000e-06	4.538731e-06	1.122509e-08	3.168944e+01	7.368925e+02
1.350000e-06	4.597285e-06	1.128784e-08	3.209826e+01	7.410385e+02
1.360000e-06	4.654069e-06	1.135051e-08	3.249473e+01	7.450679e+02
1.370000e-06	4.709222e-06	1.141182e-08	3.287981e+01	7.489897e+02
1.380000e-06	4.762666e-06	1.146848e-08	3.325295e+01	7.527776e+02
1.390000e-06	4.814120e-06	1.151867e-08	3.361221e+01	7.563837e+02
1.400000e-06	4.863506e-06	1.156550e-08	3.395702e+01	7.597615e+02
1.410000e-06	4.911103e-06	1.161228e-08	3.428934e+01	7.628874e+02
1.420000e-06	4.957137e-06	1.165969e-08	3.461075e+01	7.657724e+02
1.430000e-06	5.001620e-06	1.170195e-08	3.492133e+01	7.684572e+02
1.440000e-06	5.044206e-06	1.173795e-08	3.521867e+01	7.709953e+02
1.450000e-06	5.084785e-06	1.177452e-08	3.550199e+01	7.734300e+02
1.460000e-06	5.123615e-06	1.181146e-08	3.577310e+01	7.757771e+02
1.470000e-06	5.160854e-06	1.184370e-08	3.603311e+01	7.780206e+02
1.480000e-06	5.196322e-06	1.187136e-08	3.628074e+01	7.801226e+02
1.490000e-06	5.229807e-06	1.189875e-08	3.651454e+01	7.820426e+02
1.500000e-06	5.261486e-06	1.192712e-08	3.673572e+01	7.837584e+02
1.510000e-06	5.291470e-06	1.195269e-08	3.694507e+01	7.852777e+02
1.520000e-06	5.319708e-06	1.197226e-08	3.714222e+01	7.866364e+02
1.530000e-06	5.345913e-06	1.198958e-08	3.732518e+01	7.878838e+02
1.540000e-06	5.370008e-06	1.200815e-08	3.749342e+01	7.890623e+02
1.550000e-06	5.392275e-06	1.202636e-08	3.764889e+01	7.901898e+02
1.560000e-06	5.412837e-06	1.204106e-08	3.779245e+01	7.912532e+02
1.570000e-06	5.431530e-06	1.205152e-08	3.792297e+01	7.922159e+02
1.580000e-06	5.448160e-06	1.206272e-08	3.803908e+01	7.930355e+02
1.590000e-06	5.462785e-06	1.207388e-08	3.814119e+01	7.936836e+02
1.600000e-06	5.475420e-06	1.208160e-08	3.822941e+01	7.941595e+02
1.610000e-06	5.485815e-06	1.208789e-08	3.830198e+01	7.944913e+02
1.620000e-06	5.494055e-06	1.209673e-08	3.835952e+01	7.947235e+02
1.630000e-06	5.500459e-06	1.210528e-08	3.840423e+01	7.948981e+02
1.640000e-06	5.505104e-06	1.210713e-08	3.843666e+01	7.950366e+02
1.650000e-06	5.507794e-06	1.210486e-08	3.845544e+01	7.951310e+02
1.660000e-06	5.508447e-06	1.210628e-08	3.846000e+01	7.951490e+02
1.670000e-06	5.507282e-06	1.210679e-08	3.845186e+01	7.950487e+02
1.680000e-06	5.504439e-06	1.210175e-08	3.843202e+01	7.947987e+02
1.690000e-06	5.499831e-06	1.209239e-08	3.839984e+01	7.943924e+02
1.700000e-06	5.493289e-06	1.208314e-08	3.835417e+01	7.938514e+02
1.710000e-06	5.484955e-06	1.207843e-08	3.829598e+01	7.932151e+02
1.720000e-06	5.474990e-06	1.207458e-08	3.822641e+01	7.925230e+02
1.730000e-06	5.463148e-06	1.207486e-08	3.814372e+01	7.917959e+02
1.740000e-06	5.449209e-06	1.206014e-08	3.804640e+01	7.910265e+02
1.750000e-06	5.433316e-06	1.199551e-08	3.793544e+01	7.901825e+02
1.760000e-06	5.415081e-06	1.197627e-08	3.780812e+01	7.892221e+02
1.770000e-06	5.393961e-06	1.197654e-08	3.766066e+01	7.881148e+02
1.780000e-06	5.370527e-06	1.198931e-08	3.749704e+01	7.868578e+02
1.790000e-06	5.345884e-06	1.202761e-08	3.732499e+01	7.854801e+02
1.800000e-06	5.320554e-06	1.190981e-08	3.714813e+01	7.840322e+02
1.810000e-06	5.293675e-06	1.189395e-08	3.696046e+01	7.825649e+02
1.820000e-06	5.264367e-06	1.195207e-08	3.675583e+01	7.811052e+02
1.830000e-06	5.233307e-06	1.181647e-08	3.653897e+01	7.796418e+02
1.840000e-06	5.200577e-06	1.183768e-08	3.631045e+01	7.781249e+02
1.850000e-06	5.165958e-06	1.186442e-08	3.606874e+01	7.764828e+02
1.860000e-06	5.129731e-06	1.173702e-08	3.581581e+01	7.746479e+02
1.870000e-06	5.091456e-06	1.180039e-08	3.554857e+01	7.725830e+02
1.880000e-06	5.051278e-06	1.175421e-08	3.526805e+01	7.702948e+02
1.890000e-06	5.009618e-06	1.164211e-08	3.497717e+01	7.678317e+02
1.900000e-06	4.966106e-06	1.167667e-08	3.467338e+01	7.652634e+02
1.910000e-06	4.920794e-06	1.157288e-08	3.435700e+01	7.626533e+02
1.920000e-06	4.873635e-06	1.158415e-08	3.402774e+01	7.600334e+02
1.930000e-06	4.824611e-06	1.158657e-08	3.368545e+01	7.573920e+02
1.940000e-06	4.773948e-06	1.145396e-08	3.333172e+01	7.546805e+02
1.950000e-06	4.721177e-06	1.146954e-08	3.296328e+01	7.518346e+02
1.960000e-06	4.666463e-06	1.140315e-08	3.258126e+01	7.488019e+02
1.970000e-06	4.610131e-06	1.133963e-08	3.218796e+01	7.455635e+02
1.980000e-06	4.552120e-06	1.129543e-08	3.178292e+01	7.421414e+02
1.990000e-06	4.492644e-06	1.122867e-08	3.136766e+01	7.385872e+02
2.000000e-06	4.431457e-06	1.123444e-08	3.094045e+01	7.349593e+02
2.010000e-06	4.368543e-06	1.114217e-08	3.050118e+01	7.312963e+02
2.020000e-06	4.304152e-06	1.110286e-08	3.005161e+01	7.276001e+02
2.030000e-06	4.238299e-06	1.103368e-08	2.959182e+01	7.238347e+02
2.040000e-06	4.171050e-06	1.094347e-08	2.912229e+01	7.199413e+02
2.050000e-06	4.102118e-06	1.092040e-08	2.864100e+01	7.158641e+02
2.060000e-06	4.031474e-06	1.082001e-08	2.814777e+01	7.115735e+02
2.070000e-06	3.959422e-06	1.077921e-08	2.764470e+01	7.070782e+02
2.080000e-06	3.886123e-06	1.070728e-08	2.713293e+01	7.024202e+02
2.090000e-06	3.811413e-06	1.064118e-08	2.661130e+01	6.976545e+02
2.100000e-06	3.734967e-06	1.058288e-08	2.607756e+01	6.928231e+02
2.110000e-06	3.656896e-06	1.047407e-08	2.553246e+01	6.879345e+02
2.120000e-06	3.577496e-06	1.041199e-08	2.497809e+01	6.829575e+02
2.130000e-06	3.496949e-06	1.032142e-08	2.441571e+01	6.778335e+02
2.140000e-06	3.415261e-06	1.025286e-08	2.384537e+01	6.724998e+02
2.150000e-06	3.332430e-06	1.016803e-08	2.326704e+01	6.669169e+02
2.160000e-06	3.248439e-06	1.008058e-08	2.268062e+01	6.610842e+02
2.170000e-06	3.163058e-06	1.000103e-08	2.208449e+01	6.550403e+02
2.180000e-06	3.076389e-06	9.896857e-09	2.147936e+01	6.488445e+02
2.190000e-06	2.988772e-06	9.807826e-09	2.086762e+01	6.425497e+02
2.200000e-06	2.900270e-06	9.702704e-09	2.024970e+01	6.361772e+02
2.210000e-06	2.810765e-06	9.610304e-09	1.962478e+01	6.297051e+02
2.220000e-06	2.720278e-06	9.509015e-09	1.899299e+01	6.230751e+02
2.230000e-06	2.628952e-06	9.404012e-09	1.835535e+01	6.162155e+02
2.240000e-06	2.536788e-06	9.295146e-09	1.771187e+01	6.090706e+02
2.250000e-06	2.443648e-06	9.179762e-09	1.706156e+01	6.016228e+02
2.260000e-06	2.349359e-06	9.069467e-09	1.640323e+01	5.938976e+02
2.270000e-06	2.254167e-06	8.951894e-09	1.573860e+01	5.859495e+02
2.280000e-06	2.158303e-06	8.837816e-09	1.506928e+01	5.778343e+02
2.290000e-06	2.061730e-06	8.710808e-09	1.439500e+01	5.695795e+02
2.300000e-06	1.964419e-06	8.579881e-09	1.371558e+01	5.611676e+02
2.310000e-06	1.866494e-06	8.445283e-09	1.303187e+01	5.525380e+02
2.320000e-06	1.768034e-06	8.308175e-09	1.234442e+01	5.436097e+02
2.330000e-06	1.668978e-06	8.167639e-09	1.165281e+01	5.343124e+02
2.340000e-06	1.569401e-06	8.022257e-09	1.095757e+01	5.246144e+02
2.350000e-06	1.469350e-06	7.876661e-09	1.025901e+01	5.145323e+02
2.360000e-06	1.368729e-06	7.723313e-09	9.556468e+00	5.041185e+02
2.370000e-06	1.267469e-06	7.562659e-09	8.849474e+00	4.934307e+02
2.380000e-06	1.165640e-06	7.390607e-09	8.138504e+00	4.824962e+02
2.390000e-06	1.063291e-06	7.213831e-09	7.423899e+00	4.712884e+02
2.400000e-06	9.604599e-07	7.035851e-09	6.705935e+00	4.597260e+02
2.410000e-06	8.572477e-07	6.853856e-09	5.985307e+00	4.476973e+02
2.420000e-06	7.537747e-07	6.665425e-09	5.262858e+00	4.351006e+02
2.430000e-06	6.501130e-07	6.466669e-09	4.539091e+00	4.218818e+02
2.440000e-06	5.462656e-07	6.258020e-09	3.814028e+00	4.080517e+02
2.450000e-06	4.422620e-07	6.039974e-09	3.087875e+00	3.936747e+02
2.460000e-06	3.381326e-07	5.811050e-09	2.360843e+00	3.788282e+02
2.470000e-06	2.339167e-07	5.574353e-09	1.633207e+00	3.635519e+02
2.480000e-06	1.296531e-07	5.333377e-09	9.052386e-01	3.478076e+02
2.490000e-06	2.536804e-08	5.083524e-09	1.771197e-01	3.314695e+02
2.500000e-06	-7.891453e-08	4.820263e-09	-5.509816e-01	3.143522e+02
2.510000e-06	-1.831637e-07	4.541470e-09	-1.278850e+00	2.962662e+02
2.520000e-06	-2.873484e-07	4.248814e-09	-2.006268e+00	2.770768e+02
2.530000e-06	-3.914570e-07	3.943643e-09	-2.733154e+00	2.567365e+02
2.540000e-06	-4.953866e-07	3.623208e-09	-3.458791e+00	2.352675e+02
2.550000e-06	-5.991511e-07	3.283019e-09	-4.183276e+00	2.126913e+02
2.560000e-06	-7.027927e-07	2.919134e-09	-4.906902e+00	1.889259e+02
2.570000e-06	-8.062080e-07	2.528938e-09	-5.628948e+00	1.636888e+02
2.580000e-06	-9.093196e-07	2.107366e-09	-6.348873e+00	1.364530e+02
2.590000e-06	-1.012055e-06	1.649419e-09	-7.066172e+00	1.064890e+02
2.600000e-06	-1.114330e-06	1.144125e-09	-7.780257e+00	7.300438e+01
2.610000e-06	-1.216064e-06	5.783612e-10	-8.490563e+00	3.535329e+01
2.620000e-06	-1.317211e-06	-5.134524e-11	-9.196771e+00	-6.736266e+00
2.630000e-06	-1.417817e-06	-7.461955e-10	-9.899207e+00	-5.298515e+01
2.640000e-06	-1.517888e-06	-1.500824e-09	-1.059790e+01	-1.024959e+02
2.650000e-06	-1.617430e-06	-2.293917e-09	-1.129291e+01	-1.538268e+02
2.660000e-06	-1.716452e-06	-3.091441e-09	-1.198427e+01	-2.051994e+02
2.670000e-06	-1.814848e-06	-3.855646e-09	-1.267127e+01	-2.547904e+02
2.680000e-06	-1.912575e-06	-4.561049e-09	-1.335361e+01	-3.010351e+02
2.690000e-06	-2.009695e-06	-5.194624e-09	-1.403170e+01	-3.428654e+02
2.700000e-06	-2.106189e-06	-5.755418e-09	-1.470542e+01	-3.798249e+02
2.710000e-06	-2.202037e-06	-6.250833e-09	-1.537463e+01	-4.120426e+02
2.720000e-06	-2.297299e-06	-6.688547e-09	-1.603975e+01	-4.400833e+02
2.730000e-06	-2.391853e-06	-7.077475e-09	-1.669993e+01	-4.647315e+02
2.740000e-06	-2.485394e-06	-7.423284e-09	-1.735303e+01	-4.867721e+02
2.750000e-06	-2.577772e-06	-7.733685e-09	-1.799802e+01	-5.068297e+02
2.760000e-06	-2.669152e-06	-8.015550e-09	-1.863603e+01	-5.252972e+02
2.770000e-06	-2.759631e-06	-8.269670e-09	-1.926775e+01	-5.423559e+02
2.780000e-06	-2.849109e-06	-8.502930e-09	-1.989249e+01	-5.580575e+02
2.790000e-06	-2.937555e-06	-8.723354e-09	-2.051002e+01	-5.724259e+02
2.800000e-06	-3.025012e-06	-8.929027e-09	-2.112065e+01	-5.855358e+02
2.810000e-06	-3.111477e-06	-9.119494e-09	-2.172435e+01	-5.975432e+02
2.820000e-06	-3.196775e-06	-9.296721e-09	-2.231989e+01	-6.086647e+02
2.830000e-06	-3.280791e-06	-9.460440e-09	-2.290650e+01	-6.191241e+02
2.840000e-06	-3.363625e-06	-9.611972e-09	-2.348484e+01	-6.290931e+02
2.850000e-06	-3.445388e-06	-9.754084e-09	-2.405571e+01	-6.386550e+02
2.860000e-06	-3.526053e-06	-9.889067e-09	-2.461892e+01	-6.478029e+02
2.870000e-06	-3.605526e-06	-1.001629e-08	-2.517380e+01	-6.564728e+02
2.880000e-06	-3.683611e-06	-1.013872e-08	-2.571899e+01	-6.645934e+02
2.890000e-06	-3.760160e-06	-1.025758e-08	-2.625345e+01	-6.721324e+02
2.900000e-06	-3.835261e-06	-1.036935e-08	-2.677781e+01	-6.791199e+02
2.910000e-06	-3.908886e-06	-1.047256e-08	-2.729186e+01	-6.856432e+02
2.920000e-06	-3.981097e-06	-1.056871e-08	-2.779603e+01	-6.918164e+02
2.930000e-06	-4.051979e-06	-1.065913e-08	-2.829094e+01	-6.977426e+02
2.940000e-06	-4.121300e-06	-1.074449e-08	-2.877493e+01	-7.034831e+02
