# Temperatura_=_49.36
# Concentracion g/m^3_=_13400.0
# C_Vs_to_Am_M_A/Vsm_=_65563218390.804596
# pendiente_HvsI_1/m_=_3716.3
# ordenada_HvsI_A/m_=_1297.0
# frecuencia_Hz_=_300809.4998995136

Tiempo_(s)	Campo_(V.s)	Magnetizacion_(V.s)	Campo_(kA/m)	Magnetizacion_(A/m)
0.000000e+00	-5.473167e-06	-1.239026e-08	-3.830491e+01	-8.112893e+02
1.000000e-08	-5.471509e-06	-1.238808e-08	-3.829331e+01	-8.111434e+02
2.000000e-08	-5.467864e-06	-1.238649e-08	-3.826780e+01	-8.108436e+02
3.000000e-08	-5.462465e-06	-1.238550e-08	-3.823001e+01	-8.103767e+02
4.000000e-08	-5.455453e-06	-1.237956e-08	-3.818094e+01	-8.097615e+02
5.000000e-08	-5.446769e-06	-1.236422e-08	-3.812016e+01	-8.090378e+02
6.000000e-08	-5.436117e-06	-1.234206e-08	-3.804561e+01	-8.082474e+02
7.000000e-08	-5.423401e-06	-1.231943e-08	-3.795661e+01	-8.074145e+02
8.000000e-08	-5.408709e-06	-1.231287e-08	-3.785379e+01	-8.065354e+02
9.000000e-08	-5.391664e-06	-1.233365e-08	-3.773450e+01	-8.055818e+02
1.000000e-07	-5.372284e-06	-1.232539e-08	-3.759887e+01	-8.045157e+02
1.100000e-07	-5.350971e-06	-1.229030e-08	-3.744970e+01	-8.033095e+02
1.200000e-07	-5.327897e-06	-1.226152e-08	-3.728821e+01	-8.019609e+02
1.300000e-07	-5.303359e-06	-1.219141e-08	-3.711648e+01	-8.004961e+02
1.400000e-07	-5.277360e-06	-1.218197e-08	-3.693452e+01	-7.989586e+02
1.500000e-07	-5.249505e-06	-1.220784e-08	-3.673957e+01	-7.973888e+02
1.600000e-07	-5.219880e-06	-1.211003e-08	-3.653224e+01	-7.958034e+02
1.700000e-07	-5.188700e-06	-1.211176e-08	-3.631402e+01	-7.941834e+02
1.800000e-07	-5.155660e-06	-1.214122e-08	-3.608278e+01	-7.924778e+02
1.900000e-07	-5.120608e-06	-1.203750e-08	-3.583747e+01	-7.906211e+02
2.000000e-07	-5.083923e-06	-1.202472e-08	-3.558072e+01	-7.885581e+02
2.100000e-07	-5.045561e-06	-1.199152e-08	-3.531224e+01	-7.862654e+02
2.200000e-07	-5.005362e-06	-1.190635e-08	-3.503089e+01	-7.837612e+02
2.300000e-07	-4.963310e-06	-1.192191e-08	-3.473659e+01	-7.810972e+02
2.400000e-07	-4.919286e-06	-1.190272e-08	-3.442848e+01	-7.783382e+02
2.500000e-07	-4.873493e-06	-1.184288e-08	-3.410799e+01	-7.755353e+02
2.600000e-07	-4.825943e-06	-1.179567e-08	-3.377520e+01	-7.727060e+02
2.700000e-07	-4.776415e-06	-1.172554e-08	-3.342857e+01	-7.698281e+02
2.800000e-07	-4.724827e-06	-1.168121e-08	-3.306752e+01	-7.668508e+02
2.900000e-07	-4.671270e-06	-1.164561e-08	-3.269269e+01	-7.637174e+02
3.000000e-07	-4.615993e-06	-1.160420e-08	-3.230583e+01	-7.603899e+02
3.100000e-07	-4.559067e-06	-1.155011e-08	-3.190742e+01	-7.568659e+02
3.200000e-07	-4.500353e-06	-1.150534e-08	-3.149650e+01	-7.531785e+02
3.300000e-07	-4.439959e-06	-1.145579e-08	-3.107383e+01	-7.493819e+02
3.400000e-07	-4.378105e-06	-1.136165e-08	-3.064093e+01	-7.455264e+02
3.500000e-07	-4.314815e-06	-1.129467e-08	-3.019798e+01	-7.416364e+02
3.600000e-07	-4.250036e-06	-1.123825e-08	-2.974461e+01	-7.376985e+02
3.700000e-07	-4.183608e-06	-1.117777e-08	-2.927971e+01	-7.336665e+02
3.800000e-07	-4.115500e-06	-1.112977e-08	-2.880304e+01	-7.294808e+02
3.900000e-07	-4.045919e-06	-1.106089e-08	-2.831606e+01	-7.250931e+02
4.000000e-07	-3.974996e-06	-1.099034e-08	-2.781970e+01	-7.204865e+02
4.100000e-07	-3.902835e-06	-1.091725e-08	-2.731467e+01	-7.156817e+02
4.200000e-07	-3.829327e-06	-1.083610e-08	-2.680021e+01	-7.107267e+02
4.300000e-07	-3.754105e-06	-1.074866e-08	-2.627375e+01	-7.056749e+02
4.400000e-07	-3.677168e-06	-1.066927e-08	-2.573530e+01	-7.005602e+02
4.500000e-07	-3.598825e-06	-1.060222e-08	-2.518701e+01	-6.953811e+02
4.600000e-07	-3.519070e-06	-1.052411e-08	-2.462882e+01	-6.901000e+02
4.700000e-07	-3.437870e-06	-1.043981e-08	-2.406053e+01	-6.846578e+02
4.800000e-07	-3.355429e-06	-1.034766e-08	-2.348355e+01	-6.789982e+02
4.900000e-07	-3.271884e-06	-1.025058e-08	-2.289885e+01	-6.730900e+02
5.000000e-07	-3.187359e-06	-1.015703e-08	-2.230729e+01	-6.669391e+02
5.100000e-07	-3.101856e-06	-1.006042e-08	-2.170888e+01	-6.605829e+02
5.200000e-07	-3.015388e-06	-9.963653e-09	-2.110371e+01	-6.540727e+02
5.300000e-07	-2.927973e-06	-9.867311e-09	-2.049193e+01	-6.474487e+02
5.400000e-07	-2.839632e-06	-9.765241e-09	-1.987366e+01	-6.407214e+02
5.500000e-07	-2.750436e-06	-9.656848e-09	-1.924941e+01	-6.338664e+02
5.600000e-07	-2.660118e-06	-9.543212e-09	-1.861730e+01	-6.268342e+02
5.700000e-07	-2.568533e-06	-9.427798e-09	-1.797632e+01	-6.195713e+02
5.800000e-07	-2.476029e-06	-9.312467e-09	-1.732892e+01	-6.120428e+02
5.900000e-07	-2.382779e-06	-9.197330e-09	-1.667630e+01	-6.042451e+02
6.000000e-07	-2.288741e-06	-9.075936e-09	-1.601815e+01	-5.962036e+02
6.100000e-07	-2.193938e-06	-8.950534e-09	-1.535466e+01	-5.879568e+02
6.200000e-07	-2.098342e-06	-8.821796e-09	-1.468561e+01	-5.795329e+02
6.300000e-07	-2.002025e-06	-8.685487e-09	-1.401152e+01	-5.709317e+02
6.400000e-07	-1.905074e-06	-8.545856e-09	-1.333299e+01	-5.621189e+02
6.500000e-07	-1.807350e-06	-8.403658e-09	-1.264906e+01	-5.530374e+02
6.600000e-07	-1.708706e-06	-8.260194e-09	-1.195868e+01	-5.436295e+02
6.700000e-07	-1.609243e-06	-8.114301e-09	-1.126257e+01	-5.338608e+02
6.800000e-07	-1.509180e-06	-7.963744e-09	-1.056226e+01	-5.237323e+02
6.900000e-07	-1.408682e-06	-7.804025e-09	-9.858902e+00	-5.132766e+02
7.000000e-07	-1.307796e-06	-7.637294e-09	-9.152840e+00	-5.025362e+02
7.100000e-07	-1.206503e-06	-7.467840e-09	-8.443921e+00	-4.915349e+02
7.200000e-07	-1.104830e-06	-7.290935e-09	-7.732342e+00	-4.802548e+02
7.300000e-07	-1.002763e-06	-7.109684e-09	-7.018009e+00	-4.686312e+02
7.400000e-07	-9.002826e-07	-6.927435e-09	-6.300784e+00	-4.565690e+02
7.500000e-07	-7.974707e-07	-6.738803e-09	-5.581237e+00	-4.439745e+02
7.600000e-07	-6.943918e-07	-6.538153e-09	-4.859822e+00	-4.307900e+02
7.700000e-07	-5.910580e-07	-6.326539e-09	-4.136622e+00	-4.170124e+02
7.800000e-07	-4.875031e-07	-6.108674e-09	-3.411875e+00	-4.026877e+02
7.900000e-07	-3.838131e-07	-5.886221e-09	-2.686183e+00	-3.878782e+02
8.000000e-07	-2.799961e-07	-5.656424e-09	-1.959601e+00	-3.726177e+02
8.100000e-07	-1.761085e-07	-5.415946e-09	-1.232526e+00	-3.568711e+02
8.200000e-07	-7.218616e-08	-5.164869e-09	-5.052074e-01	-3.405216e+02
8.300000e-07	3.179816e-08	-4.902281e-09	2.225450e-01	-3.233914e+02
8.400000e-07	1.358018e-07	-4.624820e-09	9.504327e-01	-3.052918e+02
8.500000e-07	2.397436e-07	-4.330459e-09	1.677888e+00	-2.860806e+02
8.600000e-07	3.436030e-07	-4.022612e-09	2.404765e+00	-2.656971e+02
8.700000e-07	4.473533e-07	-3.699945e-09	3.130880e+00	-2.441521e+02
8.800000e-07	5.509017e-07	-3.357215e-09	3.855581e+00	-2.214636e+02
8.900000e-07	6.542560e-07	-2.988753e-09	4.578925e+00	-1.975550e+02
9.000000e-07	7.573737e-07	-2.592611e-09	5.300612e+00	-1.721530e+02
9.100000e-07	8.602352e-07	-2.166026e-09	6.020506e+00	-1.447313e+02
9.200000e-07	9.628274e-07	-1.698309e-09	6.738515e+00	-1.145391e+02
9.300000e-07	1.065011e-06	-1.178778e-09	7.453668e+00	-8.073116e+01
9.400000e-07	1.166744e-06	-5.994402e-10	8.165663e+00	-4.257916e+01
9.500000e-07	1.268092e-06	4.619086e-11	8.874963e+00	2.858085e-01
9.600000e-07	1.369113e-06	7.645397e-10	9.581974e+00	4.766995e+01
9.700000e-07	1.469808e-06	1.548817e-09	1.028671e+01	9.871958e+01
9.800000e-07	1.570064e-06	2.372622e-09	1.098836e+01	1.519715e+02
9.900000e-07	1.669704e-06	3.197274e-09	1.168571e+01	2.055521e+02
1.000000e-06	1.768536e-06	3.986507e-09	1.237740e+01	2.574810e+02
1.010000e-06	1.866516e-06	4.713985e-09	1.306314e+01	3.060053e+02
1.020000e-06	1.963735e-06	5.365062e-09	1.374354e+01	3.498785e+02
1.030000e-06	2.060262e-06	5.937956e-09	1.441910e+01	3.885156e+02
1.040000e-06	2.156085e-06	6.438981e-09	1.508973e+01	4.219917e+02
1.050000e-06	2.251177e-06	6.879994e-09	1.575525e+01	4.508989e+02
1.060000e-06	2.345552e-06	7.269675e-09	1.641575e+01	4.761115e+02
1.070000e-06	2.439174e-06	7.612564e-09	1.707098e+01	4.985349e+02
1.080000e-06	2.532054e-06	7.918140e-09	1.772102e+01	5.189069e+02
1.090000e-06	2.624144e-06	8.196562e-09	1.836553e+01	5.376972e+02
1.100000e-06	2.715162e-06	8.454366e-09	1.900253e+01	5.551138e+02
1.110000e-06	2.804967e-06	8.694128e-09	1.963105e+01	5.711912e+02
1.120000e-06	2.893757e-06	8.915898e-09	2.025246e+01	5.859117e+02
1.130000e-06	2.981612e-06	9.118855e-09	2.086733e+01	5.993093e+02
1.140000e-06	3.068476e-06	9.303975e-09	2.147526e+01	6.115215e+02
1.150000e-06	3.154295e-06	9.476742e-09	2.207588e+01	6.227767e+02
1.160000e-06	3.239153e-06	9.639322e-09	2.266978e+01	6.333359e+02
1.170000e-06	3.322992e-06	9.792129e-09	2.325654e+01	6.434173e+02
1.180000e-06	3.405576e-06	9.940193e-09	2.383452e+01	6.531412e+02
1.190000e-06	3.486860e-06	1.008210e-08	2.440339e+01	6.625147e+02
1.200000e-06	3.566824e-06	1.021538e-08	2.496304e+01	6.714607e+02
1.210000e-06	3.645517e-06	1.034271e-08	2.551378e+01	6.798765e+02
1.220000e-06	3.722979e-06	1.046386e-08	2.605592e+01	6.876940e+02
1.230000e-06	3.799108e-06	1.057546e-08	2.658872e+01	6.949192e+02
1.240000e-06	3.873584e-06	1.067580e-08	2.710995e+01	7.016355e+02
1.250000e-06	3.946466e-06	1.076937e-08	2.762002e+01	7.079738e+02
1.260000e-06	4.018002e-06	1.086237e-08	2.812068e+01	7.140647e+02
1.270000e-06	4.088152e-06	1.095526e-08	2.861165e+01	7.199946e+02
1.280000e-06	4.156993e-06	1.104325e-08	2.909344e+01	7.257837e+02
1.290000e-06	4.224390e-06	1.112609e-08	2.956513e+01	7.313933e+02
1.300000e-06	4.290081e-06	1.120731e-08	3.002488e+01	7.367574e+02
1.310000e-06	4.354193e-06	1.128464e-08	3.047358e+01	7.418218e+02
1.320000e-06	4.416884e-06	1.135438e-08	3.091233e+01	7.465747e+02
1.330000e-06	4.478210e-06	1.141782e-08	3.134153e+01	7.510544e+02
1.340000e-06	4.538174e-06	1.148070e-08	3.176120e+01	7.553332e+02
1.350000e-06	4.596420e-06	1.154505e-08	3.216884e+01	7.594857e+02
1.360000e-06	4.652841e-06	1.160860e-08	3.256372e+01	7.635567e+02
1.370000e-06	4.707629e-06	1.166980e-08	3.294716e+01	7.675434e+02
1.380000e-06	4.760663e-06	1.172837e-08	3.331833e+01	7.713982e+02
1.390000e-06	4.811711e-06	1.178396e-08	3.367560e+01	7.750531e+02
1.400000e-06	4.860757e-06	1.183279e-08	3.401885e+01	7.784510e+02
1.410000e-06	4.908033e-06	1.187624e-08	3.434972e+01	7.815723e+02
1.420000e-06	4.953702e-06	1.191988e-08	3.466935e+01	7.844446e+02
1.430000e-06	4.997703e-06	1.196300e-08	3.497729e+01	7.871308e+02
1.440000e-06	5.039759e-06	1.200306e-08	3.527163e+01	7.897021e+02
1.450000e-06	5.079915e-06	1.204045e-08	3.555267e+01	7.922077e+02
1.460000e-06	5.118405e-06	1.207724e-08	3.582205e+01	7.946548e+02
1.470000e-06	5.155258e-06	1.211267e-08	3.607997e+01	7.970070e+02
1.480000e-06	5.190245e-06	1.214497e-08	3.632483e+01	7.992023e+02
1.490000e-06	5.223269e-06	1.217432e-08	3.655596e+01	8.011816e+02
1.500000e-06	5.254548e-06	1.219970e-08	3.677487e+01	8.029165e+02
1.510000e-06	5.284110e-06	1.222241e-08	3.698176e+01	8.044229e+02
1.520000e-06	5.311904e-06	1.224435e-08	3.717628e+01	8.057560e+02
1.530000e-06	5.337636e-06	1.226576e-08	3.735637e+01	8.069876e+02
1.540000e-06	5.361332e-06	1.228509e-08	3.752222e+01	8.081773e+02
1.550000e-06	5.383291e-06	1.230183e-08	3.767590e+01	8.093484e+02
1.560000e-06	5.403520e-06	1.231544e-08	3.781747e+01	8.104797e+02
1.570000e-06	5.421797e-06	1.232684e-08	3.794539e+01	8.115160e+02
1.580000e-06	5.437985e-06	1.233955e-08	3.805868e+01	8.123924e+02
1.590000e-06	5.452186e-06	1.235196e-08	3.815807e+01	8.130625e+02
1.600000e-06	5.464362e-06	1.236203e-08	3.824329e+01	8.135175e+02
1.610000e-06	5.474402e-06	1.236904e-08	3.831356e+01	8.137895e+02
1.620000e-06	5.482348e-06	1.237338e-08	3.836917e+01	8.139375e+02
1.630000e-06	5.488404e-06	1.237513e-08	3.841155e+01	8.140225e+02
1.640000e-06	5.492709e-06	1.237500e-08	3.844168e+01	8.140833e+02
1.650000e-06	5.495027e-06	1.237579e-08	3.845790e+01	8.141223e+02
1.660000e-06	5.495327e-06	1.237756e-08	3.846000e+01	8.141078e+02
1.670000e-06	5.493876e-06	1.237744e-08	3.844984e+01	8.139903e+02
1.680000e-06	5.490767e-06	1.237548e-08	3.842808e+01	8.137254e+02
1.690000e-06	5.485846e-06	1.236885e-08	3.839365e+01	8.132936e+02
1.700000e-06	5.479018e-06	1.235700e-08	3.834586e+01	8.127071e+02
1.710000e-06	5.470460e-06	1.234436e-08	3.828596e+01	8.120027e+02
1.720000e-06	5.460242e-06	1.233540e-08	3.821445e+01	8.112236e+02
1.730000e-06	5.448118e-06	1.233531e-08	3.812960e+01	8.103989e+02
1.740000e-06	5.433928e-06	1.230980e-08	3.803029e+01	8.095313e+02
1.750000e-06	5.417705e-06	1.226105e-08	3.791675e+01	8.085966e+02
1.760000e-06	5.398951e-06	1.224314e-08	3.778550e+01	8.075574e+02
1.770000e-06	5.377371e-06	1.223326e-08	3.763447e+01	8.063822e+02
1.780000e-06	5.353729e-06	1.225996e-08	3.746901e+01	8.050627e+02
1.790000e-06	5.329067e-06	1.226106e-08	3.729640e+01	8.036193e+02
1.800000e-06	5.303639e-06	1.216182e-08	3.711844e+01	8.020933e+02
1.810000e-06	5.276387e-06	1.217144e-08	3.692771e+01	8.005278e+02
1.820000e-06	5.246725e-06	1.218277e-08	3.672012e+01	7.989459e+02
1.830000e-06	5.215453e-06	1.210836e-08	3.650125e+01	7.973365e+02
1.840000e-06	5.182502e-06	1.215034e-08	3.627064e+01	7.956545e+02
1.850000e-06	5.147698e-06	1.212848e-08	3.602706e+01	7.938354e+02
1.860000e-06	5.111234e-06	1.205643e-08	3.577186e+01	7.918197e+02
1.870000e-06	5.072707e-06	1.209066e-08	3.550222e+01	7.895759e+02
1.880000e-06	5.032349e-06	1.201644e-08	3.521977e+01	7.871134e+02
1.890000e-06	4.990430e-06	1.194164e-08	3.492639e+01	7.844780e+02
1.900000e-06	4.946657e-06	1.192863e-08	3.462004e+01	7.817341e+02
1.910000e-06	4.901125e-06	1.185528e-08	3.430137e+01	7.789376e+02
1.920000e-06	4.853748e-06	1.186551e-08	3.396980e+01	7.761143e+02
1.930000e-06	4.804567e-06	1.182901e-08	3.362560e+01	7.732503e+02
1.940000e-06	4.753670e-06	1.174186e-08	3.326938e+01	7.702991e+02
1.950000e-06	4.700580e-06	1.171752e-08	3.289783e+01	7.672031e+02
1.960000e-06	4.645628e-06	1.165047e-08	3.251323e+01	7.639186e+02
1.970000e-06	4.589098e-06	1.159292e-08	3.211760e+01	7.604348e+02
1.980000e-06	4.530940e-06	1.152931e-08	3.171057e+01	7.567781e+02
1.990000e-06	4.471326e-06	1.148556e-08	3.129335e+01	7.529999e+02
2.000000e-06	4.409991e-06	1.146018e-08	3.086409e+01	7.491536e+02
2.010000e-06	4.346999e-06	1.138524e-08	3.042323e+01	7.452707e+02
2.020000e-06	4.282485e-06	1.133283e-08	2.997172e+01	7.413458e+02
2.030000e-06	4.216490e-06	1.125084e-08	2.950984e+01	7.373387e+02
2.040000e-06	4.149062e-06	1.118055e-08	2.903793e+01	7.331906e+02
2.050000e-06	4.079898e-06	1.112890e-08	2.855387e+01	7.288487e+02
2.060000e-06	4.009139e-06	1.104845e-08	2.805865e+01	7.242883e+02
2.070000e-06	3.937035e-06	1.098924e-08	2.755403e+01	7.195224e+02
2.080000e-06	3.863632e-06	1.091345e-08	2.704030e+01	7.145948e+02
2.090000e-06	3.788760e-06	1.084512e-08	2.651629e+01	7.095597e+02
2.100000e-06	3.712149e-06	1.076568e-08	2.598012e+01	7.044571e+02
2.110000e-06	3.633988e-06	1.067343e-08	2.543309e+01	6.992937e+02
2.120000e-06	3.554580e-06	1.059504e-08	2.487734e+01	6.940389e+02
2.130000e-06	3.474064e-06	1.051031e-08	2.431384e+01	6.886362e+02
2.140000e-06	3.392373e-06	1.043622e-08	2.374211e+01	6.830267e+02
2.150000e-06	3.309554e-06	1.034683e-08	2.316249e+01	6.771725e+02
2.160000e-06	3.225590e-06	1.025402e-08	2.257485e+01	6.710711e+02
2.170000e-06	3.140251e-06	1.016067e-08	2.197759e+01	6.647546e+02
2.180000e-06	3.053658e-06	1.006024e-08	2.137156e+01	6.582731e+02
2.190000e-06	2.966063e-06	9.959140e-09	2.075851e+01	6.516711e+02
2.200000e-06	2.877505e-06	9.851882e-09	2.013872e+01	6.449668e+02
2.210000e-06	2.787968e-06	9.751321e-09	1.951208e+01	6.381426e+02
2.220000e-06	2.697526e-06	9.648313e-09	1.887911e+01	6.311528e+02
2.230000e-06	2.606275e-06	9.542308e-09	1.824047e+01	6.239431e+02
2.240000e-06	2.514176e-06	9.426993e-09	1.759590e+01	6.164728e+02
2.250000e-06	2.421001e-06	9.306979e-09	1.694379e+01	6.087312e+02
2.260000e-06	2.326729e-06	9.187686e-09	1.628401e+01	6.007387e+02
2.270000e-06	2.231648e-06	9.068466e-09	1.561858e+01	5.925326e+02
2.280000e-06	2.135855e-06	8.948448e-09	1.494815e+01	5.841454e+02
2.290000e-06	2.039369e-06	8.817465e-09	1.427288e+01	5.755838e+02
2.300000e-06	1.942220e-06	8.683245e-09	1.359296e+01	5.668204e+02
2.310000e-06	1.844427e-06	8.544719e-09	1.290854e+01	5.578015e+02
2.320000e-06	1.746047e-06	8.399551e-09	1.222001e+01	5.484675e+02
2.330000e-06	1.647172e-06	8.247078e-09	1.152802e+01	5.387770e+02
2.340000e-06	1.547905e-06	8.094899e-09	1.083328e+01	5.287236e+02
2.350000e-06	1.448140e-06	7.945814e-09	1.013506e+01	5.183342e+02
2.360000e-06	1.347726e-06	7.790513e-09	9.432296e+00	5.076516e+02
2.370000e-06	1.246643e-06	7.627339e-09	8.724844e+00	4.967058e+02
2.380000e-06	1.144998e-06	7.452822e-09	8.013467e+00	4.854892e+02
2.390000e-06	1.042800e-06	7.271119e-09	7.298216e+00	4.739465e+02
2.400000e-06	9.401143e-07	7.083433e-09	6.579553e+00	4.619866e+02
2.410000e-06	8.371114e-07	6.890814e-09	5.858670e+00	4.495125e+02
2.420000e-06	7.338477e-07	6.695286e-09	5.135961e+00	4.364564e+02
2.430000e-06	6.303679e-07	6.492424e-09	4.411739e+00	4.228032e+02
2.440000e-06	5.267252e-07	6.279888e-09	3.686378e+00	4.085902e+02
2.450000e-06	4.229149e-07	6.057245e-09	2.959843e+00	3.938799e+02
2.460000e-06	3.189866e-07	5.823439e-09	2.232483e+00	3.787160e+02
2.470000e-06	2.149771e-07	5.579507e-09	1.504555e+00	3.630806e+02
2.480000e-06	1.109309e-07	5.327349e-09	7.763693e-01	3.468736e+02
2.490000e-06	6.854800e-09	5.064871e-09	4.797451e-02	3.299269e+02
2.500000e-06	-9.726941e-08	4.791334e-09	-6.807569e-01	3.120492e+02
2.510000e-06	-2.013180e-07	4.504091e-09	-1.408959e+00	2.930841e+02
2.520000e-06	-3.052606e-07	4.200971e-09	-2.136419e+00	2.729526e+02
2.530000e-06	-4.091202e-07	3.882021e-09	-2.863299e+00	2.516537e+02
2.540000e-06	-5.128386e-07	3.542997e-09	-3.589190e+00	2.292115e+02
2.550000e-06	-6.164117e-07	3.182589e-09	-4.314064e+00	2.055791e+02
2.560000e-06	-7.197832e-07	2.799381e-09	-5.037528e+00	1.805325e+02
2.570000e-06	-8.229061e-07	2.387340e-09	-5.759251e+00	1.536003e+02
2.580000e-06	-9.257671e-07	1.936438e-09	-6.479142e+00	1.240723e+02
2.590000e-06	-1.028223e-06	1.435328e-09	-7.196196e+00	9.110796e+01
2.600000e-06	-1.130118e-06	8.725977e-10	-7.909324e+00	5.393354e+01
2.610000e-06	-1.231372e-06	2.430519e-10	-8.617968e+00	1.208355e+01
2.620000e-06	-1.332045e-06	-4.547011e-10	-9.322550e+00	-3.438146e+01
2.630000e-06	-1.432201e-06	-1.218254e-09	-1.002351e+01	-8.475031e+01
2.640000e-06	-1.531866e-06	-2.032552e-09	-1.072103e+01	-1.376784e+02
2.650000e-06	-1.631105e-06	-2.865112e-09	-1.141557e+01	-1.913569e+02
2.660000e-06	-1.729820e-06	-3.672547e-09	-1.210645e+01	-2.438001e+02
2.670000e-06	-1.827868e-06	-4.426128e-09	-1.279265e+01	-2.931797e+02
2.680000e-06	-1.925301e-06	-5.112428e-09	-1.347456e+01	-3.381226e+02
2.690000e-06	-2.022100e-06	-5.722983e-09	-1.415202e+01	-3.778967e+02
2.700000e-06	-2.118205e-06	-6.256793e-09	-1.482463e+01	-4.124435e+02
2.710000e-06	-2.213705e-06	-6.719853e-09	-1.549300e+01	-4.422620e+02
2.720000e-06	-2.308628e-06	-7.123417e-09	-1.615734e+01	-4.681878e+02
2.730000e-06	-2.402756e-06	-7.481757e-09	-1.681611e+01	-4.911390e+02
2.740000e-06	-2.495802e-06	-7.804073e-09	-1.746730e+01	-5.119014e+02
2.750000e-06	-2.587759e-06	-8.097983e-09	-1.811088e+01	-5.310053e+02
2.760000e-06	-2.678765e-06	-8.367862e-09	-1.874780e+01	-5.487094e+02
2.770000e-06	-2.768829e-06	-8.615166e-09	-1.937813e+01	-5.650756e+02
2.780000e-06	-2.857890e-06	-8.845534e-09	-2.000144e+01	-5.800871e+02
2.790000e-06	-2.945979e-06	-9.060875e-09	-2.061795e+01	-5.937606e+02
2.800000e-06	-3.033215e-06	-9.256352e-09	-2.122848e+01	-6.062101e+02
2.810000e-06	-3.119407e-06	-9.432091e-09	-2.183171e+01	-6.176486e+02
2.820000e-06	-3.204236e-06	-9.595728e-09	-2.242540e+01	-6.283361e+02
2.830000e-06	-3.287771e-06	-9.753266e-09	-2.301003e+01	-6.385061e+02
2.840000e-06	-3.370209e-06	-9.905078e-09	-2.358699e+01	-6.483026e+02
2.850000e-06	-3.451604e-06	-1.004822e-08	-2.415665e+01	-6.577556e+02
2.860000e-06	-3.531879e-06	-1.018065e-08	-2.471847e+01	-6.668022e+02
2.870000e-06	-3.610974e-06	-1.030585e-08	-2.527203e+01	-6.753395e+02
2.880000e-06	-3.688659e-06	-1.042612e-08	-2.581572e+01	-6.832877e+02
2.890000e-06	-3.764749e-06	-1.054006e-08	-2.634825e+01	-6.906354e+02
2.900000e-06	-3.839341e-06	-1.064806e-08	-2.687030e+01	-6.974508e+02
2.910000e-06	-3.912518e-06	-1.075064e-08	-2.738244e+01	-7.038586e+02
2.920000e-06	-3.984362e-06	-1.084696e-08	-2.788525e+01	-7.099934e+02
2.930000e-06	-4.054909e-06	-1.093812e-08	-2.837898e+01	-7.159539e+02
2.940000e-06	-4.123895e-06	-1.102518e-08	-2.886180e+01	-7.217749e+02
