# Temperatura_=_37.55
# Concentracion g/m^3_=_13400.0
# C_Vs_to_Am_M_A/Vsm_=_65563218390.804596
# pendiente_HvsI_1/m_=_3716.3
# ordenada_HvsI_A/m_=_1297.0
# frecuencia_Hz_=_300813.11718589126

Tiempo_(s)	Campo_(V.s)	Magnetizacion_(V.s)	Campo_(kA/m)	Magnetizacion_(A/m)
0.000000e+00	-5.491290e-06	-1.214628e-08	-3.830756e+01	-7.949825e+02
1.000000e-08	-5.489905e-06	-1.214940e-08	-3.829790e+01	-7.948958e+02
2.000000e-08	-5.486538e-06	-1.215174e-08	-3.827441e+01	-7.946223e+02
3.000000e-08	-5.481381e-06	-1.214777e-08	-3.823843e+01	-7.941483e+02
4.000000e-08	-5.474617e-06	-1.213787e-08	-3.819125e+01	-7.935047e+02
5.000000e-08	-5.466211e-06	-1.212340e-08	-3.813260e+01	-7.927528e+02
6.000000e-08	-5.455895e-06	-1.210530e-08	-3.806065e+01	-7.919577e+02
7.000000e-08	-5.443482e-06	-1.208522e-08	-3.797405e+01	-7.911602e+02
8.000000e-08	-5.429147e-06	-1.207144e-08	-3.787405e+01	-7.903603e+02
9.000000e-08	-5.412571e-06	-1.208533e-08	-3.775841e+01	-7.895188e+02
1.000000e-07	-5.393609e-06	-1.209827e-08	-3.762613e+01	-7.885763e+02
1.100000e-07	-5.372627e-06	-1.206490e-08	-3.747976e+01	-7.874812e+02
1.200000e-07	-5.349810e-06	-1.202482e-08	-3.732059e+01	-7.862134e+02
1.300000e-07	-5.325421e-06	-1.197858e-08	-3.715045e+01	-7.847949e+02
1.400000e-07	-5.299563e-06	-1.193594e-08	-3.697006e+01	-7.832806e+02
1.500000e-07	-5.271934e-06	-1.196705e-08	-3.677732e+01	-7.817340e+02
1.600000e-07	-5.242524e-06	-1.192837e-08	-3.657215e+01	-7.801988e+02
1.700000e-07	-5.211518e-06	-1.186526e-08	-3.635585e+01	-7.786771e+02
1.800000e-07	-5.178708e-06	-1.190755e-08	-3.612697e+01	-7.771244e+02
1.900000e-07	-5.143816e-06	-1.185595e-08	-3.588356e+01	-7.754649e+02
2.000000e-07	-5.107259e-06	-1.179079e-08	-3.562854e+01	-7.736190e+02
2.100000e-07	-5.069099e-06	-1.178741e-08	-3.536233e+01	-7.715333e+02
2.200000e-07	-5.029115e-06	-1.171198e-08	-3.508340e+01	-7.692005e+02
2.300000e-07	-4.987305e-06	-1.169298e-08	-3.479173e+01	-7.666604e+02
2.400000e-07	-4.943499e-06	-1.169862e-08	-3.448614e+01	-7.639835e+02
2.500000e-07	-4.897891e-06	-1.163688e-08	-3.416797e+01	-7.612431e+02
2.600000e-07	-4.850536e-06	-1.159434e-08	-3.383762e+01	-7.584869e+02
2.700000e-07	-4.801179e-06	-1.152680e-08	-3.349331e+01	-7.557215e+02
2.800000e-07	-4.749746e-06	-1.147642e-08	-3.313451e+01	-7.529133e+02
2.900000e-07	-4.696312e-06	-1.145399e-08	-3.276175e+01	-7.500062e+02
3.000000e-07	-4.641116e-06	-1.140243e-08	-3.237669e+01	-7.469463e+02
3.100000e-07	-4.584358e-06	-1.135729e-08	-3.198075e+01	-7.437046e+02
3.200000e-07	-4.525802e-06	-1.131498e-08	-3.157226e+01	-7.402863e+02
3.300000e-07	-4.465487e-06	-1.127096e-08	-3.115150e+01	-7.367256e+02
3.400000e-07	-4.403704e-06	-1.119516e-08	-3.072050e+01	-7.330672e+02
3.500000e-07	-4.340440e-06	-1.111528e-08	-3.027916e+01	-7.293444e+02
3.600000e-07	-4.275683e-06	-1.106240e-08	-2.982741e+01	-7.255642e+02
3.700000e-07	-4.209316e-06	-1.100026e-08	-2.936443e+01	-7.217036e+02
3.800000e-07	-4.141246e-06	-1.095316e-08	-2.888958e+01	-7.177213e+02
3.900000e-07	-4.071652e-06	-1.089604e-08	-2.840408e+01	-7.135761e+02
4.000000e-07	-4.000774e-06	-1.082346e-08	-2.790963e+01	-7.092454e+02
4.100000e-07	-3.928668e-06	-1.076078e-08	-2.740662e+01	-7.047340e+02
4.200000e-07	-3.855171e-06	-1.068402e-08	-2.689390e+01	-7.000703e+02
4.300000e-07	-3.779966e-06	-1.060342e-08	-2.636927e+01	-6.952909e+02
4.400000e-07	-3.703053e-06	-1.052031e-08	-2.583272e+01	-6.904221e+02
4.500000e-07	-3.624706e-06	-1.045077e-08	-2.528616e+01	-6.854652e+02
4.600000e-07	-3.544919e-06	-1.038270e-08	-2.472956e+01	-6.803947e+02
4.700000e-07	-3.463635e-06	-1.030130e-08	-2.416252e+01	-6.751677e+02
4.800000e-07	-3.381106e-06	-1.021458e-08	-2.358679e+01	-6.697424e+02
4.900000e-07	-3.297560e-06	-1.011928e-08	-2.300397e+01	-6.640959e+02
5.000000e-07	-3.213024e-06	-1.002990e-08	-2.241425e+01	-6.582327e+02
5.100000e-07	-3.127508e-06	-9.937288e-09	-2.181768e+01	-6.521817e+02
5.200000e-07	-3.041021e-06	-9.841970e-09	-2.121434e+01	-6.459810e+02
5.300000e-07	-2.953588e-06	-9.747039e-09	-2.060440e+01	-6.396586e+02
5.400000e-07	-2.865212e-06	-9.649351e-09	-1.998789e+01	-6.332186e+02
5.500000e-07	-2.775825e-06	-9.549012e-09	-1.936431e+01	-6.266373e+02
5.600000e-07	-2.685321e-06	-9.442062e-09	-1.873295e+01	-6.198739e+02
5.700000e-07	-2.593680e-06	-9.330567e-09	-1.809366e+01	-6.128881e+02
5.800000e-07	-2.501013e-06	-9.216949e-09	-1.744721e+01	-6.056578e+02
5.900000e-07	-2.407503e-06	-9.105734e-09	-1.679488e+01	-5.981872e+02
6.000000e-07	-2.313198e-06	-8.992187e-09	-1.613701e+01	-5.905013e+02
6.100000e-07	-2.218162e-06	-8.870693e-09	-1.547403e+01	-5.826288e+02
6.200000e-07	-2.122469e-06	-8.743197e-09	-1.480647e+01	-5.745813e+02
6.300000e-07	-2.026046e-06	-8.613386e-09	-1.413381e+01	-5.663391e+02
6.400000e-07	-1.928769e-06	-8.482702e-09	-1.345521e+01	-5.578516e+02
6.500000e-07	-1.830663e-06	-8.347963e-09	-1.277081e+01	-5.490537e+02
6.600000e-07	-1.731810e-06	-8.206769e-09	-1.208121e+01	-5.398909e+02
6.700000e-07	-1.632229e-06	-8.061847e-09	-1.138653e+01	-5.303432e+02
6.800000e-07	-1.532051e-06	-7.914197e-09	-1.068768e+01	-5.204342e+02
6.900000e-07	-1.431382e-06	-7.758470e-09	-9.985404e+00	-5.102205e+02
7.000000e-07	-1.330221e-06	-7.593297e-09	-9.279698e+00	-4.997630e+02
7.100000e-07	-1.228606e-06	-7.425727e-09	-8.570829e+00	-4.890919e+02
7.200000e-07	-1.126623e-06	-7.257047e-09	-7.859390e+00	-4.781813e+02
7.300000e-07	-1.024288e-06	-7.084266e-09	-7.145493e+00	-4.669453e+02
7.400000e-07	-9.215663e-07	-6.906792e-09	-6.428901e+00	-4.552608e+02
7.500000e-07	-8.184738e-07	-6.721056e-09	-5.709721e+00	-4.430091e+02
7.600000e-07	-7.150522e-07	-6.525441e-09	-4.988246e+00	-4.301195e+02
7.700000e-07	-6.114298e-07	-6.319147e-09	-4.265370e+00	-4.165957e+02
7.800000e-07	-5.076925e-07	-6.102938e-09	-3.541693e+00	-4.025101e+02
7.900000e-07	-4.038124e-07	-5.879547e-09	-2.817019e+00	-3.879662e+02
8.000000e-07	-2.998187e-07	-5.652815e-09	-2.091553e+00	-3.730412e+02
8.100000e-07	-1.957373e-07	-5.422534e-09	-1.365475e+00	-3.577322e+02
8.200000e-07	-9.156616e-08	-5.182963e-09	-6.387709e-01	-3.419312e+02
8.300000e-07	1.266121e-08	-4.928840e-09	8.832537e-02	-3.254417e+02
8.400000e-07	1.168444e-07	-4.658052e-09	8.151137e-01	-3.080341e+02
8.500000e-07	2.209706e-07	-4.374716e-09	1.541504e+00	-2.895188e+02
8.600000e-07	3.249963e-07	-4.078680e-09	2.267193e+00	-2.698031e+02
8.700000e-07	4.289424e-07	-3.764190e-09	2.992327e+00	-2.489028e+02
8.800000e-07	5.328349e-07	-3.428535e-09	3.717087e+00	-2.268916e+02
8.900000e-07	6.365368e-07	-3.074076e-09	4.440518e+00	-2.037986e+02
9.000000e-07	7.400236e-07	-2.700966e-09	5.162448e+00	-1.794881e+02
9.100000e-07	8.432854e-07	-2.301348e-09	5.882808e+00	-1.535704e+02
9.200000e-07	9.462617e-07	-1.864537e-09	6.601177e+00	-1.253901e+02
9.300000e-07	1.048876e-06	-1.380628e-09	7.317023e+00	-9.411778e+01
9.400000e-07	1.151094e-06	-8.454565e-10	8.030097e+00	-5.893813e+01
9.500000e-07	1.252974e-06	-2.505813e-10	8.740821e+00	-1.929057e+01
9.600000e-07	1.354489e-06	4.187761e-10	9.448997e+00	2.490362e+01
9.700000e-07	1.455524e-06	1.161676e-09	1.015382e+01	7.309887e+01
9.800000e-07	1.556007e-06	1.951742e-09	1.085480e+01	1.241189e+02
9.900000e-07	1.655933e-06	2.752636e-09	1.155188e+01	1.763001e+02
1.000000e-06	1.755299e-06	3.536727e-09	1.224507e+01	2.277554e+02
1.010000e-06	1.854042e-06	4.279244e-09	1.293391e+01	2.766925e+02
1.020000e-06	1.951994e-06	4.954111e-09	1.361722e+01	3.217053e+02
1.030000e-06	2.049059e-06	5.548809e-09	1.429436e+01	3.619665e+02
1.040000e-06	2.145318e-06	6.071594e-09	1.496587e+01	3.972781e+02
1.050000e-06	2.240839e-06	6.537831e-09	1.563222e+01	4.279816e+02
1.060000e-06	2.335644e-06	6.953915e-09	1.629359e+01	4.547664e+02
1.070000e-06	2.429746e-06	7.318512e-09	1.695005e+01	4.784413e+02
1.080000e-06	2.523062e-06	7.637641e-09	1.760103e+01	4.997356e+02
1.090000e-06	2.615455e-06	7.927765e-09	1.824557e+01	5.191783e+02
1.100000e-06	2.706954e-06	8.197935e-09	1.888387e+01	5.370722e+02
1.110000e-06	2.797413e-06	8.444034e-09	1.951491e+01	5.535471e+02
1.120000e-06	2.886647e-06	8.665219e-09	2.013742e+01	5.686544e+02
1.130000e-06	2.974839e-06	8.870917e-09	2.075265e+01	5.824577e+02
1.140000e-06	3.062095e-06	9.065840e-09	2.136135e+01	5.950848e+02
1.150000e-06	3.148391e-06	9.247545e-09	2.196336e+01	6.067294e+02
1.160000e-06	3.233684e-06	9.413216e-09	2.255837e+01	6.176107e+02
1.170000e-06	3.317953e-06	9.566995e-09	2.314623e+01	6.279169e+02
1.180000e-06	3.401113e-06	9.717223e-09	2.372636e+01	6.377606e+02
1.190000e-06	3.482935e-06	9.862923e-09	2.429716e+01	6.471655e+02
1.200000e-06	3.563406e-06	9.996790e-09	2.485853e+01	6.560891e+02
1.210000e-06	3.642581e-06	1.011831e-08	2.541086e+01	6.644682e+02
1.220000e-06	3.720501e-06	1.023452e-08	2.595443e+01	6.722670e+02
1.230000e-06	3.797123e-06	1.034647e-08	2.648895e+01	6.795064e+02
1.240000e-06	3.872270e-06	1.044992e-08	2.701318e+01	6.862656e+02
1.250000e-06	3.945815e-06	1.054592e-08	2.752624e+01	6.926554e+02
1.260000e-06	4.017878e-06	1.063853e-08	2.802895e+01	6.987801e+02
1.270000e-06	4.088581e-06	1.073039e-08	2.852218e+01	7.047036e+02
1.280000e-06	4.157889e-06	1.081926e-08	2.900568e+01	7.104361e+02
1.290000e-06	4.225769e-06	1.090007e-08	2.947921e+01	7.159449e+02
1.300000e-06	4.292046e-06	1.097555e-08	2.994156e+01	7.211834e+02
1.310000e-06	4.356697e-06	1.104937e-08	3.039257e+01	7.261240e+02
1.320000e-06	4.419885e-06	1.111954e-08	3.083337e+01	7.307788e+02
1.330000e-06	4.481666e-06	1.118510e-08	3.126436e+01	7.352002e+02
1.340000e-06	4.542043e-06	1.124813e-08	3.168556e+01	7.394602e+02
1.350000e-06	4.600773e-06	1.131281e-08	3.209526e+01	7.436192e+02
1.360000e-06	4.657648e-06	1.137919e-08	3.249203e+01	7.476996e+02
1.370000e-06	4.712812e-06	1.143997e-08	3.287685e+01	7.516755e+02
1.380000e-06	4.766308e-06	1.149175e-08	3.325005e+01	7.554843e+02
1.390000e-06	4.817875e-06	1.153984e-08	3.360978e+01	7.590550e+02
1.400000e-06	4.867364e-06	1.158774e-08	3.395502e+01	7.623414e+02
1.410000e-06	4.915062e-06	1.163375e-08	3.428776e+01	7.653443e+02
1.420000e-06	4.961187e-06	1.167662e-08	3.460953e+01	7.681143e+02
1.430000e-06	5.005651e-06	1.171630e-08	3.491971e+01	7.707321e+02
1.440000e-06	5.048240e-06	1.175651e-08	3.521682e+01	7.732759e+02
1.450000e-06	5.088897e-06	1.179847e-08	3.550044e+01	7.757892e+02
1.460000e-06	5.127811e-06	1.183668e-08	3.577191e+01	7.782631e+02
1.470000e-06	5.165059e-06	1.186864e-08	3.603175e+01	7.806407e+02
1.480000e-06	5.200492e-06	1.189848e-08	3.627893e+01	7.828423e+02
1.490000e-06	5.233948e-06	1.192888e-08	3.651233e+01	7.847998e+02
1.500000e-06	5.265555e-06	1.195668e-08	3.673282e+01	7.864873e+02
1.510000e-06	5.295481e-06	1.197819e-08	3.694158e+01	7.879327e+02
1.520000e-06	5.323686e-06	1.199510e-08	3.713834e+01	7.892077e+02
1.530000e-06	5.349884e-06	1.201352e-08	3.732111e+01	7.903990e+02
1.540000e-06	5.373996e-06	1.203404e-08	3.748931e+01	7.915736e+02
1.550000e-06	5.396283e-06	1.205223e-08	3.764478e+01	7.927522e+02
1.560000e-06	5.416880e-06	1.206635e-08	3.778847e+01	7.939028e+02
1.570000e-06	5.435620e-06	1.207991e-08	3.791921e+01	7.949558e+02
1.580000e-06	5.452349e-06	1.209553e-08	3.803590e+01	7.958347e+02
1.590000e-06	5.467085e-06	1.210655e-08	3.813870e+01	7.964893e+02
1.600000e-06	5.479715e-06	1.210892e-08	3.822681e+01	7.969168e+02
1.610000e-06	5.490139e-06	1.211037e-08	3.829953e+01	7.971632e+02
1.620000e-06	5.498522e-06	1.211864e-08	3.835801e+01	7.973035e+02
1.630000e-06	5.505056e-06	1.212830e-08	3.840359e+01	7.974106e+02
1.640000e-06	5.509771e-06	1.213070e-08	3.843648e+01	7.975252e+02
1.650000e-06	5.512480e-06	1.213066e-08	3.845538e+01	7.976404e+02
1.660000e-06	5.513142e-06	1.213429e-08	3.846000e+01	7.977067e+02
1.670000e-06	5.511999e-06	1.213642e-08	3.845203e+01	7.976542e+02
1.680000e-06	5.509203e-06	1.213050e-08	3.843252e+01	7.974236e+02
1.690000e-06	5.504607e-06	1.211974e-08	3.840046e+01	7.969915e+02
1.700000e-06	5.498022e-06	1.210678e-08	3.835453e+01	7.963798e+02
1.710000e-06	5.489698e-06	1.209622e-08	3.829645e+01	7.956453e+02
1.720000e-06	5.479746e-06	1.208862e-08	3.822703e+01	7.948550e+02
1.730000e-06	5.467936e-06	1.208470e-08	3.814464e+01	7.940566e+02
1.740000e-06	5.454088e-06	1.207647e-08	3.804803e+01	7.932594e+02
1.750000e-06	5.438197e-06	1.202645e-08	3.793718e+01	7.924317e+02
1.760000e-06	5.419886e-06	1.199713e-08	3.780944e+01	7.915160e+02
1.770000e-06	5.398752e-06	1.199664e-08	3.766201e+01	7.904567e+02
1.780000e-06	5.375353e-06	1.199508e-08	3.749878e+01	7.892256e+02
1.790000e-06	5.350713e-06	1.202755e-08	3.732689e+01	7.878357e+02
1.800000e-06	5.325365e-06	1.195244e-08	3.715006e+01	7.863365e+02
1.810000e-06	5.298440e-06	1.188578e-08	3.696223e+01	7.847921e+02
1.820000e-06	5.269047e-06	1.195702e-08	3.675718e+01	7.832528e+02
1.830000e-06	5.237925e-06	1.189654e-08	3.654007e+01	7.817305e+02
1.840000e-06	5.205202e-06	1.186358e-08	3.631179e+01	7.801902e+02
1.850000e-06	5.170586e-06	1.191026e-08	3.607031e+01	7.785608e+02
1.860000e-06	5.134380e-06	1.181216e-08	3.581773e+01	7.767607e+02
1.870000e-06	5.096139e-06	1.181364e-08	3.555097e+01	7.747289e+02
1.880000e-06	5.055957e-06	1.181068e-08	3.527065e+01	7.724472e+02
1.890000e-06	5.014304e-06	1.169469e-08	3.498008e+01	7.699463e+02
1.900000e-06	4.970836e-06	1.170513e-08	3.467684e+01	7.672923e+02
1.910000e-06	4.925501e-06	1.164165e-08	3.436058e+01	7.645604e+02
1.920000e-06	4.878300e-06	1.160174e-08	3.403131e+01	7.618056e+02
1.930000e-06	4.829259e-06	1.162663e-08	3.368919e+01	7.590439e+02
1.940000e-06	4.778589e-06	1.150844e-08	3.333572e+01	7.562493e+02
1.950000e-06	4.725852e-06	1.148995e-08	3.296782e+01	7.533685e+02
1.960000e-06	4.671141e-06	1.144944e-08	3.258615e+01	7.503450e+02
1.970000e-06	4.614805e-06	1.136560e-08	3.219315e+01	7.471430e+02
1.980000e-06	4.556814e-06	1.133538e-08	3.178860e+01	7.437606e+02
1.990000e-06	4.497333e-06	1.126431e-08	3.137366e+01	7.402268e+02
2.000000e-06	4.436083e-06	1.125877e-08	3.094637e+01	7.365858e+02
2.010000e-06	4.373154e-06	1.119181e-08	3.050738e+01	7.328753e+02
2.020000e-06	4.308736e-06	1.112623e-08	3.005800e+01	7.291085e+02
2.030000e-06	4.242793e-06	1.107697e-08	2.959797e+01	7.252683e+02
2.040000e-06	4.175459e-06	1.097370e-08	2.912824e+01	7.213160e+02
2.050000e-06	4.106441e-06	1.094485e-08	2.864677e+01	7.172086e+02
2.060000e-06	4.035776e-06	1.086651e-08	2.815381e+01	7.129183e+02
2.070000e-06	3.963746e-06	1.080446e-08	2.765132e+01	7.084439e+02
2.080000e-06	3.890369e-06	1.074647e-08	2.713944e+01	7.038098e+02
2.090000e-06	3.815499e-06	1.066391e-08	2.661714e+01	6.990525e+02
2.100000e-06	3.738937e-06	1.061160e-08	2.608304e+01	6.942018e+02
2.110000e-06	3.660830e-06	1.051099e-08	2.553816e+01	6.892652e+02
2.120000e-06	3.581391e-06	1.044260e-08	2.498399e+01	6.842224e+02
2.130000e-06	3.500810e-06	1.036341e-08	2.442186e+01	6.790329e+02
2.140000e-06	3.419070e-06	1.028323e-08	2.385163e+01	6.736530e+02
2.150000e-06	3.336146e-06	1.020404e-08	2.327315e+01	6.680546e+02
2.160000e-06	3.252056e-06	1.010568e-08	2.268653e+01	6.622361e+02
2.170000e-06	3.166583e-06	1.002930e-08	2.209027e+01	6.562223e+02
2.180000e-06	3.079868e-06	9.932577e-09	2.148534e+01	6.500508e+02
2.190000e-06	2.992184e-06	9.840153e-09	2.087365e+01	6.437533e+02
2.200000e-06	2.903579e-06	9.736328e-09	2.025554e+01	6.373396e+02
2.210000e-06	2.813994e-06	9.634438e-09	1.963059e+01	6.307918e+02
2.220000e-06	2.723504e-06	9.536947e-09	1.899932e+01	6.240712e+02
2.230000e-06	2.632120e-06	9.432370e-09	1.836182e+01	6.171359e+02
2.240000e-06	2.539792e-06	9.326083e-09	1.771774e+01	6.099586e+02
2.250000e-06	2.446468e-06	9.210051e-09	1.706670e+01	6.025380e+02
2.260000e-06	2.352122e-06	9.099988e-09	1.640854e+01	5.948957e+02
2.270000e-06	2.256937e-06	8.984602e-09	1.574452e+01	5.870615e+02
2.280000e-06	2.160987e-06	8.869059e-09	1.507517e+01	5.790520e+02
2.290000e-06	2.064338e-06	8.743176e-09	1.440094e+01	5.708550e+02
2.300000e-06	1.967000e-06	8.611795e-09	1.372191e+01	5.624256e+02
2.310000e-06	1.869035e-06	8.479267e-09	1.303850e+01	5.536996e+02
2.320000e-06	1.770591e-06	8.339946e-09	1.235174e+01	5.446182e+02
2.330000e-06	1.671621e-06	8.195348e-09	1.166133e+01	5.351525e+02
2.340000e-06	1.572051e-06	8.044776e-09	1.096672e+01	5.253171e+02
2.350000e-06	1.471875e-06	7.896646e-09	1.026788e+01	5.151633e+02
2.360000e-06	1.371102e-06	7.743582e-09	9.564890e+00	5.047540e+02
2.370000e-06	1.269747e-06	7.586025e-09	8.857827e+00	4.941288e+02
2.380000e-06	1.167839e-06	7.418948e-09	8.146915e+00	4.832750e+02
2.390000e-06	1.065400e-06	7.243286e-09	7.432295e+00	4.721185e+02
2.400000e-06	9.624980e-07	7.062643e-09	6.714442e+00	4.605410e+02
2.410000e-06	8.592396e-07	6.876540e-09	5.994106e+00	4.484191e+02
2.420000e-06	7.556996e-07	6.687817e-09	5.271805e+00	4.356687e+02
2.430000e-06	6.518986e-07	6.488517e-09	4.547683e+00	4.222767e+02
2.440000e-06	5.479000e-07	6.276262e-09	3.822182e+00	4.083031e+02
2.450000e-06	4.437560e-07	6.056461e-09	3.095668e+00	3.938493e+02
2.460000e-06	3.394863e-07	5.829973e-09	2.368276e+00	3.790029e+02
2.470000e-06	2.351320e-07	5.595083e-09	1.640295e+00	3.637817e+02
2.480000e-06	1.307474e-07	5.351500e-09	9.121013e-01	3.481004e+02
2.490000e-06	2.635197e-08	5.097916e-09	1.838329e-01	3.317778e+02
2.500000e-06	-7.806692e-08	4.835000e-09	-5.445994e-01	3.145855e+02
2.510000e-06	-1.824365e-07	4.559163e-09	-1.272688e+00	2.963192e+02
2.520000e-06	-2.867432e-07	4.266364e-09	-2.000337e+00	2.768629e+02
2.530000e-06	-3.909832e-07	3.956407e-09	-2.727522e+00	2.562110e+02
2.540000e-06	-4.950948e-07	3.628089e-09	-3.453810e+00	2.344321e+02
2.550000e-06	-5.990372e-07	3.281684e-09	-4.178919e+00	2.115751e+02
2.560000e-06	-7.027851e-07	2.914472e-09	-4.902670e+00	1.875489e+02
2.570000e-06	-8.062535e-07	2.520288e-09	-5.624471e+00	1.620226e+02
2.580000e-06	-9.093497e-07	2.092241e-09	-6.343677e+00	1.343934e+02
2.590000e-06	-1.012069e-06	1.624775e-09	-7.060252e+00	1.038563e+02
2.600000e-06	-1.114360e-06	1.106724e-09	-7.773843e+00	6.957369e+01
2.610000e-06	-1.216196e-06	5.272159e-10	-8.484257e+00	3.090962e+01
2.620000e-06	-1.317540e-06	-1.177667e-10	-9.191239e+00	-1.233374e+01
2.630000e-06	-1.418356e-06	-8.323787e-10	-9.894532e+00	-5.975027e+01
2.640000e-06	-1.518601e-06	-1.607184e-09	-1.059385e+01	-1.102917e+02
2.650000e-06	-1.618215e-06	-2.414200e-09	-1.128876e+01	-1.623800e+02
2.660000e-06	-1.717239e-06	-3.216253e-09	-1.197956e+01	-2.141497e+02
2.670000e-06	-1.815711e-06	-3.979395e-09	-1.266651e+01	-2.637616e+02
2.680000e-06	-1.913608e-06	-4.681887e-09	-1.334944e+01	-3.097064e+02
2.690000e-06	-2.010827e-06	-5.309403e-09	-1.402765e+01	-3.510233e+02
2.700000e-06	-2.107380e-06	-5.861627e-09	-1.470120e+01	-3.873827e+02
2.710000e-06	-2.203332e-06	-6.347594e-09	-1.537057e+01	-4.190239e+02
2.720000e-06	-2.298672e-06	-6.777381e-09	-1.603567e+01	-4.465809e+02
2.730000e-06	-2.393273e-06	-7.160885e-09	-1.669561e+01	-4.708555e+02
2.740000e-06	-2.486954e-06	-7.502992e-09	-1.734914e+01	-4.926075e+02
2.750000e-06	-2.579546e-06	-7.809384e-09	-1.799507e+01	-5.124141e+02
2.760000e-06	-2.671008e-06	-8.087215e-09	-1.863311e+01	-5.306242e+02
2.770000e-06	-2.761511e-06	-8.338968e-09	-1.926446e+01	-5.473976e+02
2.780000e-06	-2.851028e-06	-8.570357e-09	-1.988894e+01	-5.627941e+02
2.790000e-06	-2.939501e-06	-8.788253e-09	-2.050613e+01	-5.768686e+02
2.800000e-06	-3.027025e-06	-8.989917e-09	-2.111670e+01	-5.897331e+02
2.810000e-06	-3.113592e-06	-9.175885e-09	-2.172060e+01	-6.015697e+02
2.820000e-06	-3.199019e-06	-9.350724e-09	-2.231655e+01	-6.125968e+02
2.830000e-06	-3.283188e-06	-9.514553e-09	-2.290371e+01	-6.230137e+02
2.840000e-06	-3.366191e-06	-9.665159e-09	-2.348275e+01	-6.329514e+02
2.850000e-06	-3.448059e-06	-9.804843e-09	-2.405386e+01	-6.424522e+02
2.860000e-06	-3.528773e-06	-9.938463e-09	-2.461693e+01	-6.514842e+02
2.870000e-06	-3.608254e-06	-1.006642e-08	-2.517139e+01	-6.599845e+02
2.880000e-06	-3.686441e-06	-1.018755e-08	-2.571682e+01	-6.679079e+02
2.890000e-06	-3.763110e-06	-1.030233e-08	-2.625167e+01	-6.752622e+02
2.900000e-06	-3.838189e-06	-1.041197e-08	-2.677543e+01	-6.821154e+02
2.910000e-06	-3.911881e-06	-1.051576e-08	-2.728951e+01	-6.885746e+02
2.920000e-06	-3.984204e-06	-1.061165e-08	-2.779404e+01	-6.947489e+02
2.930000e-06	-4.055184e-06	-1.070196e-08	-2.828920e+01	-7.007128e+02
2.940000e-06	-4.124718e-06	-1.079008e-08	-2.877428e+01	-7.064878e+02
