# Temperatura_=_49.0
# Concentracion g/m^3_=_13400.0
# C_Vs_to_Am_M_A/Vsm_=_65563218390.804596
# pendiente_HvsI_1/m_=_3716.3
# ordenada_HvsI_A/m_=_1297.0
# frecuencia_Hz_=_300811.0291496566

Tiempo_(s)	Campo_(V.s)	Magnetizacion_(V.s)	Campo_(kA/m)	Magnetizacion_(A/m)
0.000000e+00	-5.493342e-06	-1.240431e-08	-3.830713e+01	-8.123453e+02
1.000000e-08	-5.492074e-06	-1.240203e-08	-3.829829e+01	-8.121441e+02
2.000000e-08	-5.488807e-06	-1.240154e-08	-3.827551e+01	-8.118334e+02
3.000000e-08	-5.483767e-06	-1.239612e-08	-3.824036e+01	-8.114076e+02
4.000000e-08	-5.477159e-06	-1.238858e-08	-3.819428e+01	-8.108692e+02
5.000000e-08	-5.468911e-06	-1.237918e-08	-3.813676e+01	-8.102253e+02
6.000000e-08	-5.458728e-06	-1.236637e-08	-3.806576e+01	-8.094823e+02
7.000000e-08	-5.446467e-06	-1.234909e-08	-3.798026e+01	-8.086416e+02
8.000000e-08	-5.432252e-06	-1.233105e-08	-3.788113e+01	-8.077007e+02
9.000000e-08	-5.415835e-06	-1.233848e-08	-3.776665e+01	-8.066569e+02
1.000000e-07	-5.397039e-06	-1.234975e-08	-3.763557e+01	-8.055134e+02
1.100000e-07	-5.376139e-06	-1.231650e-08	-3.748983e+01	-8.042837e+02
1.200000e-07	-5.353380e-06	-1.227495e-08	-3.733113e+01	-8.029897e+02
1.300000e-07	-5.329053e-06	-1.222310e-08	-3.716148e+01	-8.016549e+02
1.400000e-07	-5.303297e-06	-1.218188e-08	-3.698188e+01	-8.002933e+02
1.500000e-07	-5.275752e-06	-1.222128e-08	-3.678979e+01	-7.988999e+02
1.600000e-07	-5.246415e-06	-1.219338e-08	-3.658521e+01	-7.974473e+02
1.700000e-07	-5.215535e-06	-1.213339e-08	-3.636988e+01	-7.958905e+02
1.800000e-07	-5.182825e-06	-1.215954e-08	-3.614178e+01	-7.941802e+02
1.900000e-07	-5.148006e-06	-1.209347e-08	-3.589898e+01	-7.922792e+02
2.000000e-07	-5.111547e-06	-1.202116e-08	-3.564473e+01	-7.901753e+02
2.100000e-07	-5.073520e-06	-1.201369e-08	-3.537955e+01	-7.878856e+02
2.200000e-07	-5.033653e-06	-1.194521e-08	-3.510155e+01	-7.854499e+02
2.300000e-07	-4.991956e-06	-1.194353e-08	-3.481078e+01	-7.829149e+02
2.400000e-07	-4.948250e-06	-1.196074e-08	-3.450600e+01	-7.803157e+02
2.500000e-07	-4.902722e-06	-1.189306e-08	-3.418852e+01	-7.776622e+02
2.600000e-07	-4.855444e-06	-1.184121e-08	-3.385883e+01	-7.749356e+02
2.700000e-07	-4.806152e-06	-1.175622e-08	-3.351510e+01	-7.720976e+02
2.800000e-07	-4.754794e-06	-1.168321e-08	-3.315696e+01	-7.691068e+02
2.900000e-07	-4.701460e-06	-1.167424e-08	-3.278505e+01	-7.659372e+02
3.000000e-07	-4.646376e-06	-1.163777e-08	-3.240092e+01	-7.625893e+02
3.100000e-07	-4.589676e-06	-1.158933e-08	-3.200553e+01	-7.590903e+02
3.200000e-07	-4.531216e-06	-1.155243e-08	-3.159786e+01	-7.554815e+02
3.300000e-07	-4.471028e-06	-1.149893e-08	-3.117815e+01	-7.517997e+02
3.400000e-07	-4.409383e-06	-1.140733e-08	-3.074828e+01	-7.480603e+02
3.500000e-07	-4.346230e-06	-1.132263e-08	-3.030789e+01	-7.442491e+02
3.600000e-07	-4.281555e-06	-1.126727e-08	-2.985689e+01	-7.403275e+02
3.700000e-07	-4.215359e-06	-1.120827e-08	-2.939528e+01	-7.362485e+02
3.800000e-07	-4.147484e-06	-1.116971e-08	-2.892196e+01	-7.319769e+02
3.900000e-07	-4.078031e-06	-1.111598e-08	-2.843764e+01	-7.275050e+02
4.000000e-07	-4.007247e-06	-1.103656e-08	-2.794403e+01	-7.228560e+02
4.100000e-07	-3.935195e-06	-1.096620e-08	-2.744159e+01	-7.180738e+02
4.200000e-07	-3.861761e-06	-1.088136e-08	-2.692950e+01	-7.132028e+02
4.300000e-07	-3.786748e-06	-1.079140e-08	-2.640641e+01	-7.082661e+02
4.400000e-07	-3.710071e-06	-1.070490e-08	-2.587171e+01	-7.032527e+02
4.500000e-07	-3.631858e-06	-1.063234e-08	-2.532631e+01	-6.981184e+02
4.600000e-07	-3.552211e-06	-1.056647e-08	-2.477090e+01	-6.928016e+02
4.700000e-07	-3.471139e-06	-1.048833e-08	-2.420556e+01	-6.872480e+02
4.800000e-07	-3.388764e-06	-1.039762e-08	-2.363112e+01	-6.814325e+02
4.900000e-07	-3.305250e-06	-1.029536e-08	-2.304875e+01	-6.753704e+02
5.000000e-07	-3.220691e-06	-1.019693e-08	-2.245908e+01	-6.691105e+02
5.100000e-07	-3.135149e-06	-1.009892e-08	-2.186257e+01	-6.627153e+02
5.200000e-07	-3.048628e-06	-1.000135e-08	-2.125923e+01	-6.562334e+02
5.300000e-07	-2.961147e-06	-9.904622e-09	-2.064918e+01	-6.496782e+02
5.400000e-07	-2.872684e-06	-9.800292e-09	-2.003231e+01	-6.430205e+02
5.500000e-07	-2.783264e-06	-9.694456e-09	-1.940875e+01	-6.362000e+02
5.600000e-07	-2.692813e-06	-9.582832e-09	-1.877799e+01	-6.291496e+02
5.700000e-07	-2.601174e-06	-9.466053e-09	-1.813896e+01	-6.218229e+02
5.800000e-07	-2.508529e-06	-9.350560e-09	-1.749291e+01	-6.142132e+02
5.900000e-07	-2.415133e-06	-9.237836e-09	-1.684163e+01	-6.063538e+02
6.000000e-07	-2.321002e-06	-9.121031e-09	-1.618522e+01	-5.983008e+02
6.100000e-07	-2.226106e-06	-8.993476e-09	-1.552347e+01	-5.901039e+02
6.200000e-07	-2.130425e-06	-8.857222e-09	-1.485625e+01	-5.817790e+02
6.300000e-07	-2.033859e-06	-8.716439e-09	-1.418286e+01	-5.732946e+02
6.400000e-07	-1.936507e-06	-8.578855e-09	-1.350399e+01	-5.645792e+02
6.500000e-07	-1.838509e-06	-8.442094e-09	-1.282061e+01	-5.555468e+02
6.600000e-07	-1.739781e-06	-8.302223e-09	-1.213214e+01	-5.461306e+02
6.700000e-07	-1.640248e-06	-8.159392e-09	-1.143806e+01	-5.363095e+02
6.800000e-07	-1.540030e-06	-8.011198e-09	-1.073920e+01	-5.261151e+02
6.900000e-07	-1.439323e-06	-7.850406e-09	-1.003694e+01	-5.156151e+02
7.000000e-07	-1.338179e-06	-7.676317e-09	-9.331625e+00	-5.048782e+02
7.100000e-07	-1.236585e-06	-7.498802e-09	-8.623174e+00	-4.939361e+02
7.200000e-07	-1.134578e-06	-7.322692e-09	-7.911836e+00	-4.827585e+02
7.300000e-07	-1.032228e-06	-7.147915e-09	-7.198112e+00	-4.712545e+02
7.400000e-07	-9.295475e-07	-6.970729e-09	-6.482083e+00	-4.593000e+02
7.500000e-07	-8.265629e-07	-6.784907e-09	-5.763933e+00	-4.467824e+02
7.600000e-07	-7.232601e-07	-6.587062e-09	-5.043564e+00	-4.336422e+02
7.700000e-07	-6.196704e-07	-6.377413e-09	-4.321194e+00	-4.198928e+02
7.800000e-07	-5.158700e-07	-6.157436e-09	-3.597355e+00	-4.056080e+02
7.900000e-07	-4.118904e-07	-5.929745e-09	-2.872266e+00	-3.908781e+02
8.000000e-07	-3.077707e-07	-5.699656e-09	-2.146200e+00	-3.757543e+02
8.100000e-07	-2.035309e-07	-5.465823e-09	-1.419297e+00	-3.602013e+02
8.200000e-07	-9.915783e-08	-5.220822e-09	-6.914647e-01	-3.440848e+02
8.300000e-07	5.287486e-09	-4.960422e-09	3.687162e-02	-3.271988e+02
8.400000e-07	1.097351e-07	-4.683455e-09	7.652239e-01	-3.093262e+02
8.500000e-07	2.141377e-07	-4.392290e-09	1.493263e+00	-2.903073e+02
8.600000e-07	3.183896e-07	-4.089334e-09	2.220250e+00	-2.700823e+02
8.700000e-07	4.225105e-07	-3.772069e-09	2.946324e+00	-2.486827e+02
8.800000e-07	5.265261e-07	-3.432557e-09	3.671664e+00	-2.261626e+02
8.900000e-07	6.303069e-07	-3.065952e-09	4.395366e+00	-2.024888e+02
9.000000e-07	7.338083e-07	-2.674945e-09	5.117120e+00	-1.774268e+02
9.100000e-07	8.370625e-07	-2.257003e-09	5.837151e+00	-1.504753e+02
9.200000e-07	9.399929e-07	-1.798573e-09	6.554922e+00	-1.208869e+02
9.300000e-07	1.042631e-06	-1.287895e-09	7.270655e+00	-8.779477e+01
9.400000e-07	1.144950e-06	-7.223472e-10	7.984165e+00	-5.042342e+01
9.500000e-07	1.246875e-06	-9.645077e-11	8.694929e+00	-8.335320e+00
9.600000e-07	1.348394e-06	6.054158e-10	9.402858e+00	3.835853e+01
9.700000e-07	1.449477e-06	1.385402e-09	1.010775e+01	8.889072e+01
9.800000e-07	1.550137e-06	2.212418e-09	1.080969e+01	1.418747e+02
9.900000e-07	1.650267e-06	3.042490e-09	1.150793e+01	1.954899e+02
1.000000e-06	1.749698e-06	3.841151e-09	1.220130e+01	2.477734e+02
1.010000e-06	1.848348e-06	4.583209e-09	1.288922e+01	2.969474e+02
1.020000e-06	1.946234e-06	5.250569e-09	1.357182e+01	3.416991e+02
1.030000e-06	2.043440e-06	5.837374e-09	1.424967e+01	3.813459e+02
1.040000e-06	2.139933e-06	6.349602e-09	1.492256e+01	4.158523e+02
1.050000e-06	2.235599e-06	6.801937e-09	1.558967e+01	4.457081e+02
1.060000e-06	2.330475e-06	7.206682e-09	1.625128e+01	4.717140e+02
1.070000e-06	2.424654e-06	7.564303e-09	1.690802e+01	4.947441e+02
1.080000e-06	2.518107e-06	7.880304e-09	1.755970e+01	5.155481e+02
1.090000e-06	2.610731e-06	8.166426e-09	1.820560e+01	5.346421e+02
1.100000e-06	2.702342e-06	8.429990e-09	1.884444e+01	5.522964e+02
1.110000e-06	2.792854e-06	8.672648e-09	1.947562e+01	5.686029e+02
1.120000e-06	2.882317e-06	8.893759e-09	2.009948e+01	5.835799e+02
1.130000e-06	2.970736e-06	9.098100e-09	2.071605e+01	5.972683e+02
1.140000e-06	3.058131e-06	9.289856e-09	2.132550e+01	6.097862e+02
1.150000e-06	3.144526e-06	9.469964e-09	2.192796e+01	6.213292e+02
1.160000e-06	3.229893e-06	9.637696e-09	2.252326e+01	6.321266e+02
1.170000e-06	3.314194e-06	9.792393e-09	2.311112e+01	6.423806e+02
1.180000e-06	3.397333e-06	9.940702e-09	2.369088e+01	6.522165e+02
1.190000e-06	3.479205e-06	1.008562e-08	2.426180e+01	6.616649e+02
1.200000e-06	3.559810e-06	1.022119e-08	2.482389e+01	6.706805e+02
1.210000e-06	3.639148e-06	1.034664e-08	2.537715e+01	6.791873e+02
1.220000e-06	3.717208e-06	1.046602e-08	2.592148e+01	6.871289e+02
1.230000e-06	3.793915e-06	1.058170e-08	2.645639e+01	6.945044e+02
1.240000e-06	3.869136e-06	1.069068e-08	2.698093e+01	7.013755e+02
1.250000e-06	3.942835e-06	1.079081e-08	2.749487e+01	7.078473e+02
1.260000e-06	4.015061e-06	1.088410e-08	2.799852e+01	7.140311e+02
1.270000e-06	4.085846e-06	1.097447e-08	2.849213e+01	7.200090e+02
1.280000e-06	4.155261e-06	1.106194e-08	2.897619e+01	7.258130e+02
1.290000e-06	4.223253e-06	1.114369e-08	2.945033e+01	7.314267e+02
1.300000e-06	4.289590e-06	1.122150e-08	2.991292e+01	7.368074e+02
1.310000e-06	4.354312e-06	1.129712e-08	3.036425e+01	7.419152e+02
1.320000e-06	4.417595e-06	1.137123e-08	3.080554e+01	7.467382e+02
1.330000e-06	4.479466e-06	1.144194e-08	3.123699e+01	7.513014e+02
1.340000e-06	4.539949e-06	1.150840e-08	3.165876e+01	7.556572e+02
1.350000e-06	4.598836e-06	1.157321e-08	3.206940e+01	7.598631e+02
1.360000e-06	4.655907e-06	1.163520e-08	3.246738e+01	7.639576e+02
1.370000e-06	4.711279e-06	1.169273e-08	3.285351e+01	7.679448e+02
1.380000e-06	4.764927e-06	1.174787e-08	3.322762e+01	7.717943e+02
1.390000e-06	4.816570e-06	1.180235e-08	3.358775e+01	7.754567e+02
1.400000e-06	4.866164e-06	1.185525e-08	3.393358e+01	7.788864e+02
1.410000e-06	4.913924e-06	1.190406e-08	3.426664e+01	7.820625e+02
1.420000e-06	4.960058e-06	1.194977e-08	3.458835e+01	7.849980e+02
1.430000e-06	5.004645e-06	1.199275e-08	3.489927e+01	7.877347e+02
1.440000e-06	5.047352e-06	1.203066e-08	3.519708e+01	7.903257e+02
1.450000e-06	5.088128e-06	1.206589e-08	3.548143e+01	7.928139e+02
1.460000e-06	5.127215e-06	1.210190e-08	3.575399e+01	7.952154e+02
1.470000e-06	5.164598e-06	1.213777e-08	3.601468e+01	7.975159e+02
1.480000e-06	5.200210e-06	1.217170e-08	3.626301e+01	7.996789e+02
1.490000e-06	5.233916e-06	1.220205e-08	3.649806e+01	8.016638e+02
1.500000e-06	5.265742e-06	1.222805e-08	3.671999e+01	8.034450e+02
1.510000e-06	5.295837e-06	1.225082e-08	3.692985e+01	8.050232e+02
1.520000e-06	5.324190e-06	1.227116e-08	3.712757e+01	8.064261e+02
1.530000e-06	5.350495e-06	1.229139e-08	3.731100e+01	8.076971e+02
1.540000e-06	5.374722e-06	1.231281e-08	3.747995e+01	8.088780e+02
1.550000e-06	5.397175e-06	1.233215e-08	3.763652e+01	8.099940e+02
1.560000e-06	5.417937e-06	1.234665e-08	3.778131e+01	8.110452e+02
1.570000e-06	5.436813e-06	1.235788e-08	3.791293e+01	8.120096e+02
1.580000e-06	5.453634e-06	1.236950e-08	3.803023e+01	8.128546e+02
1.590000e-06	5.468450e-06	1.237965e-08	3.813355e+01	8.135519e+02
1.600000e-06	5.481252e-06	1.238555e-08	3.822282e+01	8.140886e+02
1.610000e-06	5.491805e-06	1.239086e-08	3.829641e+01	8.144720e+02
1.620000e-06	5.500245e-06	1.239880e-08	3.835527e+01	8.147248e+02
1.630000e-06	5.506849e-06	1.240661e-08	3.840132e+01	8.148746e+02
1.640000e-06	5.511627e-06	1.240907e-08	3.843464e+01	8.149430e+02
1.650000e-06	5.514460e-06	1.240851e-08	3.845440e+01	8.149381e+02
1.660000e-06	5.515264e-06	1.241024e-08	3.846000e+01	8.148546e+02
1.670000e-06	5.514216e-06	1.240884e-08	3.845270e+01	8.146785e+02
1.680000e-06	5.511501e-06	1.239933e-08	3.843376e+01	8.143956e+02
1.690000e-06	5.506966e-06	1.238849e-08	3.840214e+01	8.139983e+02
1.700000e-06	5.500444e-06	1.238178e-08	3.835666e+01	8.134871e+02
1.710000e-06	5.492179e-06	1.237874e-08	3.829902e+01	8.128685e+02
1.720000e-06	5.482334e-06	1.237254e-08	3.823037e+01	8.121495e+02
1.730000e-06	5.470605e-06	1.236598e-08	3.814858e+01	8.113330e+02
1.740000e-06	5.456795e-06	1.235417e-08	3.805228e+01	8.104171e+02
1.750000e-06	5.441020e-06	1.230040e-08	3.794227e+01	8.093986e+02
1.760000e-06	5.422876e-06	1.225904e-08	3.781575e+01	8.082789e+02
1.770000e-06	5.401939e-06	1.225294e-08	3.766975e+01	8.070685e+02
1.780000e-06	5.378675e-06	1.226198e-08	3.750752e+01	8.057879e+02
1.790000e-06	5.354053e-06	1.230507e-08	3.733582e+01	8.044611e+02
1.800000e-06	5.328665e-06	1.223519e-08	3.715878e+01	8.031054e+02
1.810000e-06	5.301843e-06	1.216293e-08	3.697174e+01	8.017213e+02
1.820000e-06	5.272685e-06	1.222453e-08	3.676841e+01	8.002868e+02
1.830000e-06	5.241723e-06	1.215708e-08	3.655250e+01	7.987604e+02
1.840000e-06	5.209145e-06	1.212040e-08	3.632532e+01	7.970924e+02
1.850000e-06	5.174643e-06	1.217400e-08	3.608473e+01	7.952410e+02
1.860000e-06	5.138467e-06	1.207562e-08	3.583246e+01	7.931869e+02
1.870000e-06	5.100295e-06	1.206678e-08	3.556627e+01	7.909402e+02
1.880000e-06	5.060236e-06	1.205610e-08	3.528692e+01	7.885362e+02
1.890000e-06	5.018656e-06	1.192836e-08	3.499697e+01	7.860216e+02
1.900000e-06	4.975174e-06	1.194076e-08	3.469375e+01	7.834360e+02
1.910000e-06	4.929894e-06	1.189025e-08	3.437800e+01	7.807964e+02
1.920000e-06	4.882832e-06	1.185781e-08	3.404982e+01	7.780908e+02
1.930000e-06	4.833887e-06	1.189944e-08	3.370850e+01	7.752844e+02
1.940000e-06	4.783252e-06	1.176354e-08	3.335541e+01	7.723348e+02
1.950000e-06	4.730589e-06	1.171119e-08	3.298817e+01	7.692105e+02
1.960000e-06	4.675947e-06	1.167724e-08	3.260713e+01	7.659052e+02
1.970000e-06	4.619644e-06	1.159049e-08	3.221451e+01	7.624400e+02
1.980000e-06	4.561690e-06	1.156751e-08	3.181037e+01	7.588543e+02
1.990000e-06	4.502231e-06	1.150762e-08	3.139575e+01	7.551878e+02
2.000000e-06	4.441111e-06	1.149609e-08	3.096953e+01	7.514626e+02
2.010000e-06	4.378347e-06	1.143084e-08	3.053186e+01	7.476719e+02
2.020000e-06	4.314068e-06	1.134772e-08	3.008361e+01	7.437819e+02
2.030000e-06	4.248233e-06	1.128876e-08	2.962452e+01	7.397460e+02
2.040000e-06	4.180940e-06	1.117925e-08	2.915526e+01	7.355241e+02
2.050000e-06	4.111973e-06	1.114337e-08	2.867433e+01	7.311009e+02
2.060000e-06	4.041380e-06	1.107072e-08	2.818206e+01	7.264921e+02
2.070000e-06	3.969407e-06	1.100601e-08	2.768016e+01	7.217383e+02
2.080000e-06	3.896088e-06	1.095463e-08	2.716888e+01	7.168858e+02
2.090000e-06	3.821322e-06	1.086661e-08	2.664751e+01	7.119648e+02
2.100000e-06	3.744916e-06	1.080724e-08	2.611470e+01	7.069733e+02
2.110000e-06	3.666938e-06	1.069896e-08	2.557093e+01	7.018743e+02
2.120000e-06	3.587603e-06	1.061276e-08	2.501770e+01	6.966085e+02
2.130000e-06	3.507122e-06	1.053073e-08	2.445648e+01	6.911175e+02
2.140000e-06	3.425485e-06	1.044934e-08	2.388719e+01	6.853673e+02
2.150000e-06	3.342619e-06	1.037590e-08	2.330934e+01	6.793629e+02
2.160000e-06	3.258552e-06	1.027575e-08	2.272310e+01	6.731463e+02
2.170000e-06	3.173211e-06	1.018793e-08	2.212799e+01	6.667790e+02
2.180000e-06	3.086657e-06	1.007766e-08	2.152441e+01	6.603156e+02
2.190000e-06	2.999056e-06	9.975728e-09	2.091354e+01	6.537794e+02
2.200000e-06	2.910522e-06	9.870130e-09	2.029616e+01	6.471518e+02
2.210000e-06	2.821006e-06	9.770370e-09	1.967193e+01	6.403782e+02
2.220000e-06	2.730495e-06	9.678313e-09	1.904076e+01	6.333904e+02
2.230000e-06	2.639036e-06	9.565859e-09	1.840299e+01	6.261347e+02
2.240000e-06	2.546676e-06	9.447037e-09	1.775892e+01	6.185937e+02
2.250000e-06	2.453433e-06	9.318212e-09	1.710870e+01	6.107915e+02
2.260000e-06	2.359145e-06	9.199132e-09	1.645120e+01	6.027811e+02
2.270000e-06	2.263911e-06	9.082795e-09	1.578710e+01	5.946167e+02
2.280000e-06	2.167971e-06	8.970212e-09	1.511807e+01	5.863244e+02
2.290000e-06	2.071359e-06	8.845687e-09	1.444436e+01	5.778850e+02
2.300000e-06	1.974047e-06	8.709196e-09	1.376577e+01	5.692350e+02
2.310000e-06	1.876093e-06	8.566759e-09	1.308270e+01	5.602890e+02
2.320000e-06	1.777570e-06	8.416624e-09	1.239566e+01	5.509725e+02
2.330000e-06	1.678449e-06	8.265130e-09	1.170446e+01	5.412512e+02
2.340000e-06	1.578800e-06	8.112703e-09	1.100956e+01	5.311443e+02
2.350000e-06	1.478649e-06	7.969333e-09	1.031117e+01	5.207133e+02
2.360000e-06	1.377921e-06	7.819907e-09	9.608757e+00	5.100302e+02
2.370000e-06	1.276653e-06	7.658245e-09	8.902582e+00	4.991392e+02
2.380000e-06	1.174869e-06	7.480610e-09	8.192801e+00	4.880266e+02
2.390000e-06	1.072552e-06	7.294683e-09	7.479309e+00	4.766149e+02
2.400000e-06	9.697958e-07	7.108673e-09	6.762749e+00	4.647844e+02
2.410000e-06	8.666584e-07	6.919518e-09	6.043534e+00	4.524155e+02
2.420000e-06	7.631285e-07	6.728718e-09	5.321581e+00	4.394322e+02
2.430000e-06	6.593346e-07	6.530332e-09	4.597787e+00	4.258296e+02
2.440000e-06	5.553879e-07	6.319884e-09	3.872928e+00	4.116695e+02
2.450000e-06	4.512889e-07	6.095504e-09	3.147007e+00	3.970432e+02
2.460000e-06	3.470098e-07	5.860104e-09	2.419830e+00	3.820169e+02
2.470000e-06	2.425922e-07	5.617941e-09	1.691687e+00	3.665797e+02
2.480000e-06	1.381388e-07	5.372592e-09	9.632933e-01	3.506211e+02
2.490000e-06	3.366782e-08	5.117681e-09	2.347783e-01	3.339482e+02
2.500000e-06	-7.086950e-08	4.848322e-09	-4.941996e-01	3.163401e+02
2.510000e-06	-1.753921e-07	4.564716e-09	-1.223075e+00	2.976172e+02
2.520000e-06	-2.797905e-07	4.265245e-09	-1.951084e+00	2.776933e+02
2.530000e-06	-3.840883e-07	3.948078e-09	-2.678392e+00	2.565811e+02
2.540000e-06	-4.882806e-07	3.609839e-09	-3.404964e+00	2.343384e+02
2.550000e-06	-5.922873e-07	3.252866e-09	-4.130242e+00	2.109651e+02
2.560000e-06	-6.960729e-07	2.877556e-09	-4.853977e+00	1.862859e+02
2.570000e-06	-7.995783e-07	2.475556e-09	-5.575759e+00	1.598682e+02
2.580000e-06	-9.027364e-07	2.031518e-09	-6.295119e+00	1.310183e+02
2.590000e-06	-1.005500e-06	1.538061e-09	-7.011729e+00	9.888222e+01
2.600000e-06	-1.107820e-06	9.904762e-10	-7.725241e+00	6.263864e+01
2.610000e-06	-1.209684e-06	3.797236e-10	-8.435583e+00	2.174322e+01
2.620000e-06	-1.311012e-06	-3.017070e-10	-9.142175e+00	-2.384532e+01
2.630000e-06	-1.411788e-06	-1.054202e-09	-9.844929e+00	-7.352620e+01
2.640000e-06	-1.512070e-06	-1.863723e-09	-1.054423e+01	-1.260557e+02
2.650000e-06	-1.611892e-06	-2.700049e-09	-1.124033e+01	-1.796976e+02
2.660000e-06	-1.711162e-06	-3.520259e-09	-1.193257e+01	-2.324937e+02
2.670000e-06	-1.809728e-06	-4.290641e-09	-1.261991e+01	-2.825905e+02
2.680000e-06	-1.907633e-06	-4.991666e-09	-1.330264e+01	-3.285383e+02
2.690000e-06	-2.004934e-06	-5.613825e-09	-1.398116e+01	-3.694892e+02
2.700000e-06	-2.101570e-06	-6.157031e-09	-1.465503e+01	-4.052525e+02
2.710000e-06	-2.197571e-06	-6.631021e-09	-1.532449e+01	-4.362042e+02
2.720000e-06	-2.292991e-06	-7.049885e-09	-1.598989e+01	-4.630901e+02
2.730000e-06	-2.387647e-06	-7.423670e-09	-1.664996e+01	-4.867867e+02
2.740000e-06	-2.481274e-06	-7.757427e-09	-1.730285e+01	-5.080891e+02
2.750000e-06	-2.573858e-06	-8.057016e-09	-1.794847e+01	-5.275767e+02
2.760000e-06	-2.665546e-06	-8.328940e-09	-1.858785e+01	-5.455774e+02
2.770000e-06	-2.756274e-06	-8.575990e-09	-1.922053e+01	-5.622185e+02
2.780000e-06	-2.845921e-06	-8.805163e-09	-1.984567e+01	-5.775266e+02
2.790000e-06	-2.934542e-06	-9.021353e-09	-2.046366e+01	-5.915299e+02
2.800000e-06	-3.022214e-06	-9.221812e-09	-2.107503e+01	-6.043251e+02
2.810000e-06	-3.108918e-06	-9.406190e-09	-2.167965e+01	-6.160910e+02
2.820000e-06	-3.194407e-06	-9.578326e-09	-2.227580e+01	-6.270541e+02
2.830000e-06	-3.278627e-06	-9.740899e-09	-2.286310e+01	-6.374289e+02
2.840000e-06	-3.361711e-06	-9.893663e-09	-2.344247e+01	-6.473633e+02
2.850000e-06	-3.443624e-06	-1.003583e-08	-2.401368e+01	-6.569108e+02
2.860000e-06	-3.524395e-06	-1.016903e-08	-2.457693e+01	-6.660418e+02
2.870000e-06	-3.604039e-06	-1.029573e-08	-2.513232e+01	-6.746830e+02
2.880000e-06	-3.682303e-06	-1.041837e-08	-2.567808e+01	-6.827689e+02
2.890000e-06	-3.759001e-06	-1.053486e-08	-2.621292e+01	-6.902828e+02
2.900000e-06	-3.834203e-06	-1.064417e-08	-2.673733e+01	-6.972717e+02
2.910000e-06	-3.907956e-06	-1.074841e-08	-2.725164e+01	-7.038328e+02
2.920000e-06	-3.980397e-06	-1.084752e-08	-2.775680e+01	-7.100796e+02
2.930000e-06	-4.051576e-06	-1.094055e-08	-2.825316e+01	-7.161043e+02
2.940000e-06	-4.121211e-06	-1.102783e-08	-2.873875e+01	-7.219520e+02
