# Temperatura_=_40.6
# Concentracion g/m^3_=_13400.0
# C_Vs_to_Am_M_A/Vsm_=_65563218390.804596
# pendiente_HvsI_1/m_=_3716.3
# ordenada_HvsI_A/m_=_1297.0
# frecuencia_Hz_=_300810.84415699705

Tiempo_(s)	Campo_(V.s)	Magnetizacion_(V.s)	Campo_(kA/m)	Magnetizacion_(A/m)
0.000000e+00	-5.485909e-06	-1.219969e-08	-3.830775e+01	-7.986226e+02
1.000000e-08	-5.484439e-06	-1.219966e-08	-3.829748e+01	-7.984469e+02
2.000000e-08	-5.480943e-06	-1.220039e-08	-3.827308e+01	-7.980823e+02
3.000000e-08	-5.475689e-06	-1.219622e-08	-3.823639e+01	-7.975549e+02
4.000000e-08	-5.468830e-06	-1.218711e-08	-3.818849e+01	-7.969202e+02
5.000000e-08	-5.460345e-06	-1.217466e-08	-3.812924e+01	-7.962372e+02
6.000000e-08	-5.449978e-06	-1.215878e-08	-3.805684e+01	-7.955414e+02
7.000000e-08	-5.437515e-06	-1.213990e-08	-3.796982e+01	-7.948286e+02
8.000000e-08	-5.423037e-06	-1.212928e-08	-3.786872e+01	-7.940572e+02
9.000000e-08	-5.406266e-06	-1.214502e-08	-3.775161e+01	-7.931673e+02
1.000000e-07	-5.387110e-06	-1.214703e-08	-3.761784e+01	-7.921106e+02
1.100000e-07	-5.365943e-06	-1.211125e-08	-3.747004e+01	-7.908754e+02
1.200000e-07	-5.342956e-06	-1.207253e-08	-3.730952e+01	-7.894964e+02
1.300000e-07	-5.318426e-06	-1.201567e-08	-3.713823e+01	-7.880443e+02
1.400000e-07	-5.292509e-06	-1.199512e-08	-3.695725e+01	-7.865972e+02
1.500000e-07	-5.264757e-06	-1.202652e-08	-3.676346e+01	-7.852072e+02
1.600000e-07	-5.235164e-06	-1.195918e-08	-3.655681e+01	-7.838745e+02
1.700000e-07	-5.204051e-06	-1.192787e-08	-3.633955e+01	-7.825414e+02
1.800000e-07	-5.171095e-06	-1.196088e-08	-3.610942e+01	-7.811099e+02
1.900000e-07	-5.136039e-06	-1.188452e-08	-3.586463e+01	-7.794755e+02
2.000000e-07	-5.099346e-06	-1.185155e-08	-3.560841e+01	-7.775650e+02
2.100000e-07	-5.061090e-06	-1.183147e-08	-3.534127e+01	-7.753634e+02
2.200000e-07	-5.020976e-06	-1.175200e-08	-3.506115e+01	-7.729178e+02
2.300000e-07	-4.978966e-06	-1.175630e-08	-3.476780e+01	-7.703180e+02
2.400000e-07	-4.934973e-06	-1.173998e-08	-3.446060e+01	-7.676615e+02
2.500000e-07	-4.889218e-06	-1.167374e-08	-3.414110e+01	-7.650157e+02
2.600000e-07	-4.841744e-06	-1.163937e-08	-3.380959e+01	-7.623937e+02
2.700000e-07	-4.792305e-06	-1.156813e-08	-3.346436e+01	-7.597532e+02
2.800000e-07	-4.740778e-06	-1.152666e-08	-3.310455e+01	-7.570162e+02
2.900000e-07	-4.687210e-06	-1.151902e-08	-3.273049e+01	-7.541032e+02
3.000000e-07	-4.631944e-06	-1.146933e-08	-3.234457e+01	-7.509660e+02
3.100000e-07	-4.575089e-06	-1.140961e-08	-3.194755e+01	-7.476052e+02
3.200000e-07	-4.516441e-06	-1.137147e-08	-3.153801e+01	-7.440676e+02
3.300000e-07	-4.456079e-06	-1.131288e-08	-3.111652e+01	-7.404228e+02
3.400000e-07	-4.394249e-06	-1.121909e-08	-3.068476e+01	-7.367317e+02
3.500000e-07	-4.330921e-06	-1.116721e-08	-3.024254e+01	-7.330196e+02
3.600000e-07	-4.266133e-06	-1.112723e-08	-2.979014e+01	-7.292659e+02
3.700000e-07	-4.199762e-06	-1.106729e-08	-2.932667e+01	-7.254137e+02
3.800000e-07	-4.131672e-06	-1.102310e-08	-2.885120e+01	-7.213953e+02
3.900000e-07	-4.062111e-06	-1.095068e-08	-2.836546e+01	-7.171619e+02
4.000000e-07	-3.991187e-06	-1.086669e-08	-2.787020e+01	-7.127042e+02
4.100000e-07	-3.918981e-06	-1.080012e-08	-2.736599e+01	-7.080554e+02
4.200000e-07	-3.845422e-06	-1.072175e-08	-2.685234e+01	-7.032744e+02
4.300000e-07	-3.770175e-06	-1.064435e-08	-2.632689e+01	-6.984183e+02
4.400000e-07	-3.693259e-06	-1.057529e-08	-2.578979e+01	-6.935152e+02
4.500000e-07	-3.614895e-06	-1.050989e-08	-2.524258e+01	-6.885502e+02
4.600000e-07	-3.535055e-06	-1.043274e-08	-2.468506e+01	-6.834697e+02
4.700000e-07	-3.453781e-06	-1.034653e-08	-2.411753e+01	-6.782041e+02
4.800000e-07	-3.371248e-06	-1.025472e-08	-2.354121e+01	-6.726965e+02
4.900000e-07	-3.287595e-06	-1.016209e-08	-2.295706e+01	-6.669267e+02
5.000000e-07	-3.202975e-06	-1.007458e-08	-2.236617e+01	-6.609188e+02
5.100000e-07	-3.117415e-06	-9.978428e-09	-2.176871e+01	-6.547293e+02
5.200000e-07	-3.030877e-06	-9.883736e-09	-2.116442e+01	-6.484208e+02
5.300000e-07	-2.943385e-06	-9.788829e-09	-2.055347e+01	-6.420336e+02
5.400000e-07	-2.854975e-06	-9.688967e-09	-1.993611e+01	-6.355658e+02
5.500000e-07	-2.765577e-06	-9.588071e-09	-1.931185e+01	-6.289735e+02
5.600000e-07	-2.675035e-06	-9.482933e-09	-1.867960e+01	-6.221879e+02
5.700000e-07	-2.583334e-06	-9.373661e-09	-1.803926e+01	-6.151442e+02
5.800000e-07	-2.490658e-06	-9.258703e-09	-1.739211e+01	-6.078076e+02
5.900000e-07	-2.397168e-06	-9.142234e-09	-1.673927e+01	-6.001854e+02
6.000000e-07	-2.302919e-06	-9.023127e-09	-1.608113e+01	-5.923198e+02
6.100000e-07	-2.207916e-06	-8.900069e-09	-1.541773e+01	-5.842640e+02
6.200000e-07	-2.112197e-06	-8.773519e-09	-1.474933e+01	-5.760535e+02
6.300000e-07	-2.015761e-06	-8.643612e-09	-1.407593e+01	-5.676842e+02
6.400000e-07	-1.918557e-06	-8.512116e-09	-1.339716e+01	-5.591100e+02
6.500000e-07	-1.820540e-06	-8.375093e-09	-1.271272e+01	-5.502592e+02
6.600000e-07	-1.721683e-06	-8.232764e-09	-1.202240e+01	-5.410634e+02
6.700000e-07	-1.622099e-06	-8.086226e-09	-1.132701e+01	-5.314864e+02
6.800000e-07	-1.521915e-06	-7.935478e-09	-1.062744e+01	-5.215372e+02
6.900000e-07	-1.421226e-06	-7.778706e-09	-9.924330e+00	-5.112621e+02
7.000000e-07	-1.320089e-06	-7.616589e-09	-9.218096e+00	-5.007169e+02
7.100000e-07	-1.218549e-06	-7.450371e-09	-8.509047e+00	-4.899319e+02
7.200000e-07	-1.116657e-06	-7.276502e-09	-7.797542e+00	-4.788858e+02
7.300000e-07	-1.014385e-06	-7.097251e-09	-7.083383e+00	-4.675015e+02
7.400000e-07	-9.116957e-07	-6.917850e-09	-6.366312e+00	-4.556678e+02
7.500000e-07	-8.086600e-07	-6.732945e-09	-5.646821e+00	-4.432791e+02
7.600000e-07	-7.053597e-07	-6.535565e-09	-4.925482e+00	-4.302759e+02
7.700000e-07	-6.018424e-07	-6.326859e-09	-4.202627e+00	-4.166662e+02
7.800000e-07	-4.981674e-07	-6.111136e-09	-3.478671e+00	-4.025167e+02
7.900000e-07	-3.943510e-07	-5.891090e-09	-2.753728e+00	-3.879142e+02
8.000000e-07	-2.904024e-07	-5.663919e-09	-2.027862e+00	-3.729112e+02
8.100000e-07	-1.863753e-07	-5.426081e-09	-1.301447e+00	-3.574793e+02
8.200000e-07	-8.227407e-08	-5.177838e-09	-5.745146e-01	-3.414935e+02
8.300000e-07	2.190716e-08	-4.920602e-09	1.529763e-01	-3.247562e+02
8.400000e-07	1.260924e-07	-4.650746e-09	8.804953e-01	-3.070552e+02
8.500000e-07	2.301917e-07	-4.363959e-09	1.607414e+00	-2.882310e+02
8.600000e-07	3.341838e-07	-4.060604e-09	2.333584e+00	-2.682211e+02
8.700000e-07	4.380971e-07	-3.741434e-09	3.059204e+00	-2.470551e+02
8.800000e-07	5.418694e-07	-3.404605e-09	3.783839e+00	-2.247892e+02
8.900000e-07	6.454355e-07	-3.046172e-09	4.507034e+00	-2.013993e+02
9.000000e-07	7.488268e-07	-2.661988e-09	5.229010e+00	-1.766672e+02
9.100000e-07	8.519906e-07	-2.248328e-09	5.949396e+00	-1.501124e+02
9.200000e-07	9.548143e-07	-1.798272e-09	6.667407e+00	-1.210088e+02
9.300000e-07	1.057315e-06	-1.298580e-09	7.383164e+00	-8.850542e+01
9.400000e-07	1.159453e-06	-7.395072e-10	8.096383e+00	-5.183284e+01
9.500000e-07	1.261171e-06	-1.158585e-10	8.806675e+00	-1.054576e+01
9.600000e-07	1.362486e-06	5.769084e-10	9.514151e+00	3.526749e+01
9.700000e-07	1.463371e-06	1.335558e-09	1.021863e+01	8.487579e+01
9.800000e-07	1.563813e-06	2.140651e-09	1.092001e+01	1.369387e+02
9.900000e-07	1.663722e-06	2.954564e-09	1.161766e+01	1.896856e+02
1.000000e-06	1.762952e-06	3.740065e-09	1.231058e+01	2.412001e+02
1.010000e-06	1.861403e-06	4.471951e-09	1.299806e+01	2.897397e+02
1.020000e-06	1.959014e-06	5.133198e-09	1.367967e+01	3.340092e+02
1.030000e-06	2.055867e-06	5.715079e-09	1.435598e+01	3.733228e+02
1.040000e-06	2.151996e-06	6.222459e-09	1.502725e+01	4.076208e+02
1.050000e-06	2.247372e-06	6.671117e-09	1.569325e+01	4.373536e+02
1.060000e-06	2.342061e-06	7.072473e-09	1.635446e+01	4.632762e+02
1.070000e-06	2.436025e-06	7.427532e-09	1.701061e+01	4.862209e+02
1.080000e-06	2.529208e-06	7.739712e-09	1.766130e+01	5.069101e+02
1.090000e-06	2.621574e-06	8.021691e-09	1.830628e+01	5.258513e+02
1.100000e-06	2.712917e-06	8.282874e-09	1.894412e+01	5.433253e+02
1.110000e-06	2.803096e-06	8.523650e-09	1.957384e+01	5.594471e+02
1.120000e-06	2.892194e-06	8.742565e-09	2.019601e+01	5.742598e+02
1.130000e-06	2.980298e-06	8.945115e-09	2.081123e+01	5.878207e+02
1.140000e-06	3.067395e-06	9.136182e-09	2.141942e+01	6.002488e+02
1.150000e-06	3.153496e-06	9.316030e-09	2.202066e+01	6.117239e+02
1.160000e-06	3.238629e-06	9.481823e-09	2.261514e+01	6.224494e+02
1.170000e-06	3.322722e-06	9.634421e-09	2.320235e+01	6.326015e+02
1.180000e-06	3.405644e-06	9.781012e-09	2.378139e+01	6.422904e+02
1.190000e-06	3.487272e-06	9.922318e-09	2.435140e+01	6.515490e+02
1.200000e-06	3.567573e-06	1.005382e-08	2.491213e+01	6.603528e+02
1.210000e-06	3.646571e-06	1.017668e-08	2.546377e+01	6.686567e+02
1.220000e-06	3.724320e-06	1.029641e-08	2.600669e+01	6.764341e+02
1.230000e-06	3.800797e-06	1.041283e-08	2.654072e+01	6.837000e+02
1.240000e-06	3.875704e-06	1.052016e-08	2.706379e+01	6.905118e+02
1.250000e-06	3.948942e-06	1.061643e-08	2.757521e+01	6.969501e+02
1.260000e-06	4.020751e-06	1.070653e-08	2.807665e+01	7.030913e+02
1.270000e-06	4.091248e-06	1.079515e-08	2.856893e+01	7.089854e+02
1.280000e-06	4.160384e-06	1.088155e-08	2.905170e+01	7.146488e+02
1.290000e-06	4.227998e-06	1.096151e-08	2.952384e+01	7.200732e+02
1.300000e-06	4.293931e-06	1.103659e-08	2.998425e+01	7.252453e+02
1.310000e-06	4.358295e-06	1.111072e-08	3.043370e+01	7.301652e+02
1.320000e-06	4.421269e-06	1.118363e-08	3.087344e+01	7.348559e+02
1.330000e-06	4.482840e-06	1.125305e-08	3.130338e+01	7.393568e+02
1.340000e-06	4.542978e-06	1.131947e-08	3.172332e+01	7.437081e+02
1.350000e-06	4.601473e-06	1.138357e-08	3.213179e+01	7.479311e+02
1.360000e-06	4.658143e-06	1.144380e-08	3.252751e+01	7.520179e+02
1.370000e-06	4.713117e-06	1.149912e-08	3.291139e+01	7.559336e+02
1.380000e-06	4.766336e-06	1.155164e-08	3.328302e+01	7.596324e+02
1.390000e-06	4.817552e-06	1.160273e-08	3.364066e+01	7.630806e+02
1.400000e-06	4.866798e-06	1.165137e-08	3.398454e+01	7.662745e+02
1.410000e-06	4.914354e-06	1.169730e-08	3.431662e+01	7.692462e+02
1.420000e-06	4.960298e-06	1.174197e-08	3.463744e+01	7.720525e+02
1.430000e-06	5.004534e-06	1.178507e-08	3.494634e+01	7.747529e+02
1.440000e-06	5.046832e-06	1.182575e-08	3.524171e+01	7.773840e+02
1.450000e-06	5.087256e-06	1.186388e-08	3.552398e+01	7.799441e+02
1.460000e-06	5.126014e-06	1.189711e-08	3.579463e+01	7.823938e+02
1.470000e-06	5.163106e-06	1.192690e-08	3.605364e+01	7.846726e+02
1.480000e-06	5.198399e-06	1.195737e-08	3.630009e+01	7.867268e+02
1.490000e-06	5.231683e-06	1.198745e-08	3.653250e+01	7.885339e+02
1.500000e-06	5.263122e-06	1.201106e-08	3.675204e+01	7.901156e+02
1.510000e-06	5.292900e-06	1.203050e-08	3.695998e+01	7.915307e+02
1.520000e-06	5.320920e-06	1.205348e-08	3.715564e+01	7.928534e+02
1.530000e-06	5.346868e-06	1.207942e-08	3.733683e+01	7.941430e+02
1.540000e-06	5.370819e-06	1.209879e-08	3.750409e+01	7.954206e+02
1.550000e-06	5.392999e-06	1.211003e-08	3.765897e+01	7.966606e+02
1.560000e-06	5.413402e-06	1.212093e-08	3.780144e+01	7.978026e+02
1.570000e-06	5.431947e-06	1.213463e-08	3.793094e+01	7.987770e+02
1.580000e-06	5.448423e-06	1.214810e-08	3.804599e+01	7.995354e+02
1.590000e-06	5.462894e-06	1.215562e-08	3.814704e+01	8.000715e+02
1.600000e-06	5.475352e-06	1.216013e-08	3.823403e+01	8.004240e+02
1.610000e-06	5.485593e-06	1.216741e-08	3.830554e+01	8.006613e+02
1.620000e-06	5.493779e-06	1.217625e-08	3.836271e+01	8.008529e+02
1.630000e-06	5.500116e-06	1.218090e-08	3.840696e+01	8.010414e+02
1.640000e-06	5.504634e-06	1.217988e-08	3.843851e+01	8.012258e+02
1.650000e-06	5.507182e-06	1.217897e-08	3.845630e+01	8.013643e+02
1.660000e-06	5.507712e-06	1.218134e-08	3.846000e+01	8.013936e+02
1.670000e-06	5.506472e-06	1.218033e-08	3.845134e+01	8.012578e+02
1.680000e-06	5.503564e-06	1.217307e-08	3.843103e+01	8.009326e+02
1.690000e-06	5.498785e-06	1.216510e-08	3.839766e+01	8.004359e+02
1.700000e-06	5.492068e-06	1.215728e-08	3.835076e+01	7.998188e+02
1.710000e-06	5.483650e-06	1.214867e-08	3.829198e+01	7.991419e+02
1.720000e-06	5.473594e-06	1.214000e-08	3.822176e+01	7.984476e+02
1.730000e-06	5.461600e-06	1.213767e-08	3.813800e+01	7.977407e+02
1.740000e-06	5.447508e-06	1.212350e-08	3.803960e+01	7.969865e+02
1.750000e-06	5.431404e-06	1.206922e-08	3.792715e+01	7.961268e+02
1.760000e-06	5.412921e-06	1.203983e-08	3.779808e+01	7.951083e+02
1.770000e-06	5.391649e-06	1.203232e-08	3.764954e+01	7.939098e+02
1.780000e-06	5.368134e-06	1.204345e-08	3.748533e+01	7.925564e+02
1.790000e-06	5.343445e-06	1.207251e-08	3.731294e+01	7.911130e+02
1.800000e-06	5.318024e-06	1.198913e-08	3.713542e+01	7.896589e+02
1.810000e-06	5.290950e-06	1.195257e-08	3.694636e+01	7.882545e+02
1.820000e-06	5.261411e-06	1.200884e-08	3.674010e+01	7.869124e+02
1.830000e-06	5.230184e-06	1.193952e-08	3.652204e+01	7.855866e+02
1.840000e-06	5.197355e-06	1.193422e-08	3.629279e+01	7.841852e+02
1.850000e-06	5.162671e-06	1.196737e-08	3.605060e+01	7.826019e+02
1.860000e-06	5.126357e-06	1.188409e-08	3.579702e+01	7.807539e+02
1.870000e-06	5.087949e-06	1.189950e-08	3.552882e+01	7.786125e+02
1.880000e-06	5.047693e-06	1.187529e-08	3.524772e+01	7.762124e+02
1.890000e-06	5.005943e-06	1.176956e-08	3.495618e+01	7.736371e+02
1.900000e-06	4.962307e-06	1.176809e-08	3.465147e+01	7.709854e+02
1.910000e-06	4.916936e-06	1.170852e-08	3.433465e+01	7.683340e+02
1.920000e-06	4.869711e-06	1.168688e-08	3.400488e+01	7.657086e+02
1.930000e-06	4.820564e-06	1.169407e-08	3.366169e+01	7.630777e+02
1.940000e-06	4.769761e-06	1.158759e-08	3.330694e+01	7.603684e+02
1.950000e-06	4.716871e-06	1.155861e-08	3.293761e+01	7.574986e+02
1.960000e-06	4.662023e-06	1.152060e-08	3.255461e+01	7.544110e+02
1.970000e-06	4.605539e-06	1.144719e-08	3.216019e+01	7.510954e+02
1.980000e-06	4.547461e-06	1.140145e-08	3.175463e+01	7.475900e+02
1.990000e-06	4.487890e-06	1.135586e-08	3.133865e+01	7.439621e+02
2.000000e-06	4.426557e-06	1.132787e-08	3.091036e+01	7.402771e+02
2.010000e-06	4.363556e-06	1.124832e-08	3.047043e+01	7.365696e+02
2.020000e-06	4.299036e-06	1.119465e-08	3.001989e+01	7.328285e+02
2.030000e-06	4.233048e-06	1.112719e-08	2.955910e+01	7.290031e+02
2.040000e-06	4.165604e-06	1.104742e-08	2.908815e+01	7.250253e+02
2.050000e-06	4.096404e-06	1.101547e-08	2.860493e+01	7.208401e+02
2.060000e-06	4.025616e-06	1.093501e-08	2.811062e+01	7.164289e+02
2.070000e-06	3.953534e-06	1.087523e-08	2.760727e+01	7.118165e+02
2.080000e-06	3.880134e-06	1.079983e-08	2.709473e+01	7.070583e+02
2.090000e-06	3.805216e-06	1.072153e-08	2.657158e+01	7.022145e+02
2.100000e-06	3.728559e-06	1.065620e-08	2.603629e+01	6.973211e+02
2.110000e-06	3.650365e-06	1.056345e-08	2.549026e+01	6.923726e+02
2.120000e-06	3.570909e-06	1.049974e-08	2.493543e+01	6.873224e+02
2.130000e-06	3.490269e-06	1.042083e-08	2.437233e+01	6.821020e+02
2.140000e-06	3.408483e-06	1.034396e-08	2.380122e+01	6.766494e+02
2.150000e-06	3.325621e-06	1.024753e-08	2.322260e+01	6.709351e+02
2.160000e-06	3.241569e-06	1.015184e-08	2.263567e+01	6.649741e+02
2.170000e-06	3.156109e-06	1.006802e-08	2.203890e+01	6.588178e+02
2.180000e-06	3.069410e-06	9.966123e-09	2.143349e+01	6.525301e+02
2.190000e-06	2.981753e-06	9.879481e-09	2.082139e+01	6.461582e+02
2.200000e-06	2.893181e-06	9.775822e-09	2.020290e+01	6.397100e+02
2.210000e-06	2.803651e-06	9.681114e-09	1.957772e+01	6.331495e+02
2.220000e-06	2.713208e-06	9.581086e-09	1.894616e+01	6.264113e+02
2.230000e-06	2.621836e-06	9.469624e-09	1.830811e+01	6.194270e+02
2.240000e-06	2.529503e-06	9.355851e-09	1.766336e+01	6.121539e+02
2.250000e-06	2.436173e-06	9.231940e-09	1.701164e+01	6.045901e+02
2.260000e-06	2.341815e-06	9.122458e-09	1.635274e+01	5.967719e+02
2.270000e-06	2.246592e-06	9.005543e-09	1.568781e+01	5.887528e+02
2.280000e-06	2.150653e-06	8.888188e-09	1.501788e+01	5.805741e+02
2.290000e-06	2.054030e-06	8.763540e-09	1.434316e+01	5.722412e+02
2.300000e-06	1.956688e-06	8.633730e-09	1.366343e+01	5.637164e+02
2.310000e-06	1.858755e-06	8.502137e-09	1.297956e+01	5.549310e+02
2.320000e-06	1.760355e-06	8.355750e-09	1.229245e+01	5.458136e+02
2.330000e-06	1.661394e-06	8.204796e-09	1.160141e+01	5.363189e+02
2.340000e-06	1.561870e-06	8.050240e-09	1.090644e+01	5.264464e+02
2.350000e-06	1.461772e-06	7.899833e-09	1.020746e+01	5.162361e+02
2.360000e-06	1.361013e-06	7.750763e-09	9.503865e+00	5.057447e+02
2.370000e-06	1.259666e-06	7.595810e-09	8.796169e+00	4.950107e+02
2.380000e-06	1.157841e-06	7.431501e-09	8.085127e+00	4.840252e+02
2.390000e-06	1.055548e-06	7.257416e-09	7.370825e+00	4.727219e+02
2.400000e-06	9.527792e-07	7.073445e-09	6.653196e+00	4.609941e+02
2.410000e-06	8.496101e-07	6.880309e-09	5.932773e+00	4.487313e+02
2.420000e-06	7.461812e-07	6.679719e-09	5.210536e+00	4.358614e+02
2.430000e-06	6.425268e-07	6.472968e-09	4.486723e+00	4.223774e+02
2.440000e-06	5.386553e-07	6.262622e-09	3.761396e+00	4.083361e+02
2.450000e-06	4.346338e-07	6.049524e-09	3.035020e+00	3.938241e+02
2.460000e-06	3.304805e-07	5.829626e-09	2.307724e+00	3.789059e+02
2.470000e-06	2.262216e-07	5.594831e-09	1.579691e+00	3.635731e+02
2.480000e-06	1.218795e-07	5.347937e-09	8.510768e-01	3.477208e+02
2.490000e-06	1.749144e-08	5.088609e-09	1.221416e-01	3.311628e+02
2.500000e-06	-8.687180e-08	4.816048e-09	-6.066202e-01	3.136843e+02
2.510000e-06	-1.911476e-07	4.530846e-09	-1.334771e+00	2.951095e+02
2.520000e-06	-2.953301e-07	4.231195e-09	-2.062271e+00	2.753536e+02
2.530000e-06	-3.994652e-07	3.920460e-09	-2.789440e+00	2.544299e+02
2.540000e-06	-5.035366e-07	3.593302e-09	-3.516164e+00	2.323970e+02
2.550000e-06	-6.074057e-07	3.245038e-09	-4.241475e+00	2.092581e+02
2.560000e-06	-7.110179e-07	2.872584e-09	-4.964993e+00	1.848446e+02
2.570000e-06	-8.144069e-07	2.468955e-09	-5.686951e+00	1.587341e+02
2.580000e-06	-9.175241e-07	2.028221e-09	-6.407012e+00	1.302466e+02
2.590000e-06	-1.020248e-06	1.541796e-09	-7.124325e+00	9.854279e+01
2.600000e-06	-1.122483e-06	1.000813e-09	-7.838226e+00	6.281564e+01
2.610000e-06	-1.224197e-06	3.977679e-10	-8.548489e+00	2.253051e+01
2.620000e-06	-1.325361e-06	-2.716187e-10	-9.254912e+00	-2.235211e+01
2.630000e-06	-1.425947e-06	-1.007306e-09	-9.957293e+00	-7.124121e+01
2.640000e-06	-1.525987e-06	-1.799749e-09	-1.065587e+01	-1.229165e+02
2.650000e-06	-1.625511e-06	-2.620037e-09	-1.135084e+01	-1.756782e+02
2.660000e-06	-1.724442e-06	-3.426112e-09	-1.204167e+01	-2.276143e+02
2.670000e-06	-1.822796e-06	-4.182666e-09	-1.272847e+01	-2.769191e+02
2.680000e-06	-1.920607e-06	-4.872387e-09	-1.341148e+01	-3.221836e+02
2.690000e-06	-2.017735e-06	-5.489427e-09	-1.408971e+01	-3.625846e+02
2.700000e-06	-2.114099e-06	-6.031193e-09	-1.476262e+01	-3.979343e+02
2.710000e-06	-2.209858e-06	-6.502206e-09	-1.543130e+01	-4.285888e+02
2.720000e-06	-2.305056e-06	-6.915685e-09	-1.609606e+01	-4.552572e+02
2.730000e-06	-2.399554e-06	-7.286315e-09	-1.675593e+01	-4.787735e+02
2.740000e-06	-2.493090e-06	-7.621248e-09	-1.740909e+01	-4.998953e+02
2.750000e-06	-2.585444e-06	-7.921249e-09	-1.805399e+01	-5.191803e+02
2.760000e-06	-2.676740e-06	-8.189047e-09	-1.869150e+01	-5.369550e+02
2.770000e-06	-2.767086e-06	-8.431455e-09	-1.932239e+01	-5.533621e+02
2.780000e-06	-2.856418e-06	-8.659211e-09	-1.994618e+01	-5.684521e+02
2.790000e-06	-2.944732e-06	-8.874712e-09	-2.056287e+01	-5.822738e+02
2.800000e-06	-3.032132e-06	-9.071298e-09	-2.117318e+01	-5.949313e+02
2.810000e-06	-3.118600e-06	-9.252311e-09	-2.177699e+01	-6.065936e+02
2.820000e-06	-3.203864e-06	-9.425476e-09	-2.237238e+01	-6.174634e+02
2.830000e-06	-3.287809e-06	-9.589409e-09	-2.295856e+01	-6.277267e+02
2.840000e-06	-3.370597e-06	-9.738740e-09	-2.353666e+01	-6.375096e+02
2.850000e-06	-3.452305e-06	-9.874030e-09	-2.410722e+01	-6.468612e+02
2.860000e-06	-3.532846e-06	-1.000231e-08	-2.466964e+01	-6.557663e+02
2.870000e-06	-3.612195e-06	-1.012770e-08	-2.522373e+01	-6.641809e+02
2.880000e-06	-3.690226e-06	-1.024978e-08	-2.576861e+01	-6.720716e+02
2.890000e-06	-3.766650e-06	-1.036522e-08	-2.630228e+01	-6.794436e+02
2.900000e-06	-3.841497e-06	-1.047354e-08	-2.682493e+01	-6.863465e+02
2.910000e-06	-3.914957e-06	-1.057666e-08	-2.733789e+01	-6.928579e+02
2.920000e-06	-3.987116e-06	-1.067432e-08	-2.784178e+01	-6.990576e+02
2.930000e-06	-4.057967e-06	-1.076491e-08	-2.833653e+01	-7.050023e+02
2.940000e-06	-4.127259e-06	-1.084841e-08	-2.882038e+01	-7.107154e+02
