# Temperatura_=_33.41
# Concentracion g/m^3_=_13400.0
# C_Vs_to_Am_M_A/Vsm_=_65563218390.804596
# pendiente_HvsI_1/m_=_3716.3
# ordenada_HvsI_A/m_=_1297.0
# frecuencia_Hz_=_300814.0132435452

Tiempo_(s)	Campo_(V.s)	Magnetizacion_(V.s)	Campo_(kA/m)	Magnetizacion_(A/m)
0.000000e+00	-5.489528e-06	-1.207429e-08	-3.830938e+01	-7.902155e+02
1.000000e-08	-5.488147e-06	-1.207683e-08	-3.829975e+01	-7.900698e+02
2.000000e-08	-5.484762e-06	-1.207387e-08	-3.827612e+01	-7.897650e+02
3.000000e-08	-5.479563e-06	-1.206619e-08	-3.823984e+01	-7.893125e+02
4.000000e-08	-5.472735e-06	-1.205876e-08	-3.819219e+01	-7.887514e+02
5.000000e-08	-5.464337e-06	-1.204999e-08	-3.813359e+01	-7.881306e+02
6.000000e-08	-5.454016e-06	-1.203490e-08	-3.806156e+01	-7.874851e+02
7.000000e-08	-5.441532e-06	-1.201217e-08	-3.797444e+01	-7.868192e+02
8.000000e-08	-5.427074e-06	-1.199636e-08	-3.787354e+01	-7.861032e+02
9.000000e-08	-5.410340e-06	-1.202871e-08	-3.775676e+01	-7.852863e+02
1.000000e-07	-5.391268e-06	-1.203379e-08	-3.762366e+01	-7.843199e+02
1.100000e-07	-5.370200e-06	-1.198589e-08	-3.747664e+01	-7.831811e+02
1.200000e-07	-5.347248e-06	-1.195869e-08	-3.731647e+01	-7.818862e+02
1.300000e-07	-5.322760e-06	-1.189151e-08	-3.714557e+01	-7.804856e+02
1.400000e-07	-5.296828e-06	-1.186659e-08	-3.696460e+01	-7.790439e+02
1.500000e-07	-5.269081e-06	-1.193168e-08	-3.677097e+01	-7.776113e+02
1.600000e-07	-5.239536e-06	-1.182662e-08	-3.656478e+01	-7.761997e+02
1.700000e-07	-5.208462e-06	-1.179688e-08	-3.634793e+01	-7.747739e+02
1.800000e-07	-5.175572e-06	-1.186871e-08	-3.611840e+01	-7.732617e+02
1.900000e-07	-5.140578e-06	-1.175460e-08	-3.587419e+01	-7.715811e+02
2.000000e-07	-5.103995e-06	-1.174194e-08	-3.561889e+01	-7.696719e+02
2.100000e-07	-5.065780e-06	-1.173346e-08	-3.535220e+01	-7.675194e+02
2.200000e-07	-5.025689e-06	-1.162420e-08	-3.507242e+01	-7.651606e+02
2.300000e-07	-4.983750e-06	-1.164725e-08	-3.477975e+01	-7.626680e+02
2.400000e-07	-4.939808e-06	-1.162801e-08	-3.447309e+01	-7.601203e+02
2.500000e-07	-4.894078e-06	-1.155418e-08	-3.415396e+01	-7.575699e+02
2.600000e-07	-4.846604e-06	-1.153580e-08	-3.382265e+01	-7.550211e+02
2.700000e-07	-4.797124e-06	-1.145938e-08	-3.347735e+01	-7.524297e+02
2.800000e-07	-4.745546e-06	-1.142726e-08	-3.311741e+01	-7.497220e+02
2.900000e-07	-4.691987e-06	-1.140840e-08	-3.274364e+01	-7.468272e+02
3.000000e-07	-4.636743e-06	-1.135009e-08	-3.235811e+01	-7.437075e+02
3.100000e-07	-4.579911e-06	-1.129397e-08	-3.196150e+01	-7.403744e+02
3.200000e-07	-4.521258e-06	-1.125177e-08	-3.155219e+01	-7.368836e+02
3.300000e-07	-4.460892e-06	-1.120977e-08	-3.113092e+01	-7.333104e+02
3.400000e-07	-4.399065e-06	-1.111776e-08	-3.069945e+01	-7.297165e+02
3.500000e-07	-4.335768e-06	-1.106669e-08	-3.025772e+01	-7.261225e+02
3.600000e-07	-4.270996e-06	-1.102120e-08	-2.980570e+01	-7.224974e+02
3.700000e-07	-4.204598e-06	-1.095574e-08	-2.934233e+01	-7.187709e+02
3.800000e-07	-4.136525e-06	-1.091771e-08	-2.886728e+01	-7.148627e+02
3.900000e-07	-4.066926e-06	-1.084322e-08	-2.838157e+01	-7.107158e+02
4.000000e-07	-3.995947e-06	-1.076602e-08	-2.788624e+01	-7.063208e+02
4.100000e-07	-3.923734e-06	-1.070038e-08	-2.738229e+01	-7.017190e+02
4.200000e-07	-3.850162e-06	-1.062491e-08	-2.686886e+01	-6.969844e+02
4.300000e-07	-3.774908e-06	-1.054907e-08	-2.634368e+01	-6.921901e+02
4.400000e-07	-3.697989e-06	-1.047117e-08	-2.580690e+01	-6.873755e+02
4.500000e-07	-3.619589e-06	-1.040938e-08	-2.525977e+01	-6.825274e+02
4.600000e-07	-3.539714e-06	-1.033755e-08	-2.470235e+01	-6.775831e+02
4.700000e-07	-3.458427e-06	-1.025361e-08	-2.413508e+01	-6.724559e+02
4.800000e-07	-3.375912e-06	-1.016106e-08	-2.355924e+01	-6.670706e+02
4.900000e-07	-3.292313e-06	-1.006568e-08	-2.297584e+01	-6.613948e+02
5.000000e-07	-3.207725e-06	-9.983897e-09	-2.238552e+01	-6.554525e+02
5.100000e-07	-3.122174e-06	-9.894210e-09	-2.178850e+01	-6.493129e+02
5.200000e-07	-3.035616e-06	-9.800485e-09	-2.118444e+01	-6.430602e+02
5.300000e-07	-2.948063e-06	-9.701682e-09	-2.057344e+01	-6.367562e+02
5.400000e-07	-2.859570e-06	-9.600591e-09	-1.995588e+01	-6.304125e+02
5.500000e-07	-2.770050e-06	-9.502020e-09	-1.933115e+01	-6.239837e+02
5.600000e-07	-2.679392e-06	-9.396531e-09	-1.869849e+01	-6.173850e+02
5.700000e-07	-2.587634e-06	-9.288706e-09	-1.805814e+01	-6.105271e+02
5.800000e-07	-2.494933e-06	-9.179676e-09	-1.741121e+01	-6.033523e+02
5.900000e-07	-2.401460e-06	-9.071746e-09	-1.675890e+01	-5.958566e+02
6.000000e-07	-2.307245e-06	-8.954263e-09	-1.610141e+01	-5.880884e+02
6.100000e-07	-2.212252e-06	-8.828448e-09	-1.543849e+01	-5.801229e+02
6.200000e-07	-2.116509e-06	-8.700275e-09	-1.477034e+01	-5.720245e+02
6.300000e-07	-2.020030e-06	-8.571608e-09	-1.409704e+01	-5.638132e+02
6.400000e-07	-1.922728e-06	-8.444365e-09	-1.341801e+01	-5.554502e+02
6.500000e-07	-1.824575e-06	-8.310076e-09	-1.273303e+01	-5.468492e+02
6.600000e-07	-1.725698e-06	-8.171665e-09	-1.204301e+01	-5.379102e+02
6.700000e-07	-1.626186e-06	-8.030351e-09	-1.134855e+01	-5.285589e+02
6.800000e-07	-1.526033e-06	-7.884389e-09	-1.064962e+01	-5.187764e+02
6.900000e-07	-1.425371e-06	-7.725730e-09	-9.947140e+00	-5.086035e+02
7.000000e-07	-1.324263e-06	-7.559643e-09	-9.241544e+00	-4.981175e+02
7.100000e-07	-1.222704e-06	-7.395495e-09	-8.532800e+00	-4.873908e+02
7.200000e-07	-1.120685e-06	-7.229443e-09	-7.820845e+00	-4.764492e+02
7.300000e-07	-1.018236e-06	-7.057890e-09	-7.105894e+00	-4.652488e+02
7.400000e-07	-9.154596e-07	-6.880053e-09	-6.388654e+00	-4.536831e+02
7.500000e-07	-8.123847e-07	-6.695620e-09	-5.669332e+00	-4.416188e+02
7.600000e-07	-7.090437e-07	-6.500688e-09	-4.948154e+00	-4.289448e+02
7.700000e-07	-6.055081e-07	-6.296716e-09	-4.225617e+00	-4.156133e+02
7.800000e-07	-5.018080e-07	-6.084058e-09	-3.501932e+00	-4.016540e+02
7.900000e-07	-3.979666e-07	-5.865067e-09	-2.777262e+00	-3.871512e+02
8.000000e-07	-2.940054e-07	-5.641217e-09	-2.051755e+00	-3.721939e+02
8.100000e-07	-1.899481e-07	-5.408248e-09	-1.325578e+00	-3.568176e+02
8.200000e-07	-8.585081e-08	-5.164961e-09	-5.991210e-01	-3.409652e+02
8.300000e-07	1.828481e-08	-4.910104e-09	1.276029e-01	-3.244857e+02
8.400000e-07	1.224499e-07	-4.642074e-09	8.545325e-01	-3.071745e+02
8.500000e-07	2.265723e-07	-4.361318e-09	1.581164e+00	-2.888379e+02
8.600000e-07	3.306124e-07	-4.069163e-09	2.307222e+00	-2.693545e+02
8.700000e-07	4.345593e-07	-3.759640e-09	3.032629e+00	-2.486984e+02
8.800000e-07	5.383304e-07	-3.429555e-09	3.756809e+00	-2.269059e+02
8.900000e-07	6.419063e-07	-3.077921e-09	4.479627e+00	-2.039884e+02
9.000000e-07	7.453060e-07	-2.705594e-09	5.201215e+00	-1.798198e+02
9.100000e-07	8.484783e-07	-2.308232e-09	5.921216e+00	-1.540443e+02
9.200000e-07	9.513291e-07	-1.874838e-09	6.638974e+00	-1.260532e+02
9.300000e-07	1.053819e-06	-1.395308e-09	7.354216e+00	-9.505935e+01
9.400000e-07	1.155994e-06	-8.624043e-10	8.067254e+00	-6.026865e+01
9.500000e-07	1.257832e-06	-2.711046e-10	8.777945e+00	-2.111103e+01
9.600000e-07	1.359229e-06	3.879579e-10	9.485557e+00	2.253215e+01
9.700000e-07	1.460171e-06	1.115653e-09	1.018999e+01	7.017558e+01
9.800000e-07	1.560645e-06	1.896605e-09	1.089116e+01	1.207070e+02
9.900000e-07	1.660558e-06	2.697310e-09	1.158842e+01	1.725134e+02
1.000000e-06	1.759864e-06	3.481805e-09	1.228144e+01	2.237316e+02
1.010000e-06	1.858515e-06	4.221023e-09	1.296989e+01	2.725628e+02
1.020000e-06	1.956373e-06	4.894620e-09	1.365280e+01	3.175689e+02
1.030000e-06	2.053371e-06	5.493460e-09	1.432972e+01	3.578774e+02
1.040000e-06	2.149522e-06	6.019069e-09	1.500072e+01	3.932467e+02
1.050000e-06	2.244948e-06	6.483400e-09	1.566666e+01	4.239887e+02
1.060000e-06	2.339728e-06	6.897308e-09	1.632809e+01	4.507837e+02
1.070000e-06	2.433725e-06	7.262926e-09	1.698407e+01	4.744502e+02
1.080000e-06	2.526926e-06	7.584786e-09	1.763448e+01	4.957379e+02
1.090000e-06	2.619328e-06	7.876894e-09	1.827932e+01	5.151966e+02
1.100000e-06	2.710817e-06	8.146316e-09	1.891779e+01	5.331400e+02
1.110000e-06	2.801234e-06	8.393458e-09	1.954877e+01	5.496945e+02
1.120000e-06	2.890470e-06	8.618475e-09	2.017152e+01	5.648947e+02
1.130000e-06	2.978667e-06	8.825585e-09	2.078702e+01	5.787806e+02
1.140000e-06	3.065914e-06	9.018277e-09	2.139588e+01	5.914591e+02
1.150000e-06	3.152148e-06	9.198255e-09	2.199767e+01	6.031136e+02
1.160000e-06	3.237356e-06	9.367009e-09	2.259231e+01	6.139678e+02
1.170000e-06	3.321537e-06	9.522804e-09	2.317978e+01	6.242276e+02
1.180000e-06	3.404589e-06	9.670229e-09	2.375937e+01	6.340302e+02
1.190000e-06	3.486334e-06	9.813380e-09	2.432984e+01	6.434215e+02
1.200000e-06	3.566750e-06	9.948604e-09	2.489103e+01	6.523711e+02
1.210000e-06	3.645879e-06	1.007261e-08	2.544324e+01	6.608131e+02
1.220000e-06	3.723710e-06	1.018997e-08	2.598640e+01	6.686951e+02
1.230000e-06	3.800259e-06	1.030303e-08	2.652060e+01	6.760144e+02
1.240000e-06	3.875346e-06	1.040974e-08	2.704461e+01	6.828273e+02
1.250000e-06	3.948815e-06	1.050764e-08	2.755732e+01	6.892315e+02
1.260000e-06	4.020789e-06	1.059880e-08	2.805960e+01	6.953323e+02
1.270000e-06	4.091378e-06	1.068907e-08	2.855221e+01	7.012080e+02
1.280000e-06	4.160600e-06	1.077639e-08	2.903529e+01	7.068911e+02
1.290000e-06	4.228396e-06	1.085577e-08	2.950841e+01	7.123708e+02
1.300000e-06	4.294566e-06	1.093009e-08	2.997019e+01	7.176133e+02
1.310000e-06	4.359084e-06	1.100458e-08	3.042044e+01	7.225898e+02
1.320000e-06	4.422119e-06	1.107813e-08	3.086033e+01	7.272978e+02
1.330000e-06	4.483732e-06	1.114739e-08	3.129030e+01	7.317663e+02
1.340000e-06	4.543921e-06	1.121225e-08	3.171034e+01	7.360442e+02
1.350000e-06	4.602489e-06	1.127448e-08	3.211907e+01	7.401779e+02
1.360000e-06	4.659245e-06	1.133558e-08	3.251514e+01	7.441895e+02
1.370000e-06	4.714306e-06	1.139338e-08	3.289939e+01	7.480672e+02
1.380000e-06	4.767695e-06	1.144593e-08	3.327198e+01	7.517716e+02
1.390000e-06	4.819154e-06	1.149470e-08	3.363109e+01	7.552551e+02
1.400000e-06	4.868560e-06	1.154127e-08	3.397588e+01	7.584868e+02
1.410000e-06	4.916113e-06	1.158790e-08	3.430774e+01	7.614684e+02
1.420000e-06	4.962061e-06	1.163306e-08	3.462839e+01	7.642372e+02
1.430000e-06	5.006403e-06	1.167134e-08	3.493783e+01	7.668514e+02
1.440000e-06	5.048847e-06	1.170738e-08	3.523403e+01	7.693663e+02
1.450000e-06	5.089364e-06	1.174707e-08	3.551679e+01	7.718114e+02
1.460000e-06	5.128173e-06	1.178418e-08	3.578762e+01	7.741784e+02
1.470000e-06	5.165331e-06	1.181351e-08	3.604694e+01	7.764259e+02
1.480000e-06	5.200681e-06	1.183928e-08	3.629363e+01	7.784993e+02
1.490000e-06	5.234043e-06	1.186716e-08	3.652645e+01	7.803561e+02
1.500000e-06	5.265548e-06	1.189489e-08	3.674631e+01	7.819864e+02
1.510000e-06	5.295384e-06	1.191689e-08	3.695452e+01	7.834192e+02
1.520000e-06	5.323528e-06	1.193523e-08	3.715093e+01	7.847113e+02
1.530000e-06	5.349625e-06	1.195665e-08	3.733305e+01	7.859246e+02
1.540000e-06	5.373620e-06	1.197944e-08	3.750050e+01	7.871011e+02
1.550000e-06	5.395821e-06	1.199573e-08	3.765544e+01	7.882456e+02
1.560000e-06	5.416293e-06	1.200463e-08	3.779830e+01	7.893258e+02
1.570000e-06	5.434879e-06	1.201571e-08	3.792801e+01	7.902877e+02
1.580000e-06	5.451453e-06	1.203222e-08	3.804367e+01	7.910799e+02
1.590000e-06	5.466067e-06	1.204394e-08	3.814566e+01	7.916766e+02
1.600000e-06	5.478649e-06	1.204737e-08	3.823346e+01	7.920896e+02
1.610000e-06	5.488950e-06	1.205079e-08	3.830535e+01	7.923627e+02
1.620000e-06	5.497145e-06	1.206048e-08	3.836254e+01	7.925533e+02
1.630000e-06	5.503542e-06	1.206992e-08	3.840718e+01	7.927079e+02
1.640000e-06	5.508132e-06	1.206910e-08	3.843921e+01	7.928430e+02
1.650000e-06	5.510652e-06	1.206434e-08	3.845680e+01	7.929399e+02
1.660000e-06	5.511110e-06	1.206739e-08	3.846000e+01	7.929550e+02
1.670000e-06	5.509838e-06	1.206973e-08	3.845112e+01	7.928414e+02
1.680000e-06	5.506958e-06	1.206454e-08	3.843102e+01	7.925708e+02
1.690000e-06	5.502251e-06	1.205371e-08	3.839818e+01	7.921473e+02
1.700000e-06	5.495560e-06	1.204498e-08	3.835148e+01	7.916052e+02
1.710000e-06	5.487160e-06	1.204250e-08	3.829286e+01	7.909933e+02
1.720000e-06	5.477182e-06	1.203842e-08	3.822323e+01	7.903513e+02
1.730000e-06	5.465293e-06	1.203805e-08	3.814026e+01	7.896911e+02
1.740000e-06	5.451306e-06	1.202113e-08	3.804265e+01	7.889897e+02
1.750000e-06	5.435311e-06	1.195787e-08	3.793103e+01	7.881988e+02
1.760000e-06	5.416928e-06	1.194485e-08	3.780273e+01	7.872674e+02
1.770000e-06	5.395721e-06	1.194027e-08	3.765474e+01	7.861655e+02
1.780000e-06	5.372232e-06	1.195296e-08	3.749082e+01	7.849006e+02
1.790000e-06	5.347560e-06	1.199427e-08	3.731864e+01	7.835171e+02
1.800000e-06	5.322188e-06	1.186779e-08	3.714158e+01	7.820789e+02
1.810000e-06	5.295140e-06	1.186436e-08	3.695282e+01	7.806416e+02
1.820000e-06	5.265586e-06	1.192409e-08	3.674658e+01	7.792268e+02
1.830000e-06	5.234412e-06	1.177950e-08	3.652902e+01	7.778091e+02
1.840000e-06	5.201610e-06	1.182076e-08	3.630011e+01	7.763223e+02
1.850000e-06	5.166913e-06	1.183762e-08	3.605797e+01	7.746840e+02
1.860000e-06	5.130604e-06	1.169797e-08	3.580459e+01	7.728266e+02
1.870000e-06	5.092189e-06	1.177698e-08	3.553650e+01	7.707247e+02
1.880000e-06	5.051884e-06	1.172082e-08	3.525523e+01	7.684047e+02
1.890000e-06	5.010074e-06	1.162203e-08	3.496345e+01	7.659337e+02
1.900000e-06	4.966420e-06	1.166879e-08	3.465881e+01	7.633920e+02
1.910000e-06	4.921021e-06	1.154618e-08	3.434199e+01	7.608398e+02
1.920000e-06	4.873803e-06	1.156584e-08	3.401246e+01	7.582928e+02
1.930000e-06	4.824727e-06	1.156439e-08	3.366998e+01	7.557160e+02
1.940000e-06	4.773999e-06	1.142737e-08	3.331598e+01	7.530397e+02
1.950000e-06	4.721110e-06	1.144694e-08	3.294688e+01	7.501896e+02
1.960000e-06	4.666271e-06	1.138066e-08	3.256418e+01	7.471187e+02
1.970000e-06	4.609869e-06	1.132594e-08	3.217057e+01	7.438278e+02
1.980000e-06	4.551811e-06	1.127447e-08	3.176541e+01	7.403645e+02
1.990000e-06	4.492253e-06	1.121102e-08	3.134977e+01	7.368027e+02
2.000000e-06	4.430917e-06	1.120992e-08	3.092173e+01	7.332096e+02
2.010000e-06	4.367920e-06	1.111061e-08	3.048209e+01	7.296164e+02
2.020000e-06	4.303455e-06	1.108565e-08	3.003222e+01	7.260027e+02
2.030000e-06	4.237498e-06	1.100744e-08	2.957193e+01	7.223048e+02
2.040000e-06	4.170166e-06	1.092180e-08	2.910204e+01	7.184415e+02
2.050000e-06	4.101116e-06	1.090329e-08	2.862017e+01	7.143483e+02
2.060000e-06	4.030381e-06	1.080341e-08	2.812654e+01	7.100043e+02
2.070000e-06	3.958269e-06	1.076696e-08	2.762329e+01	7.054412e+02
2.080000e-06	3.884850e-06	1.068315e-08	2.711093e+01	7.007282e+02
2.090000e-06	3.810008e-06	1.061589e-08	2.658864e+01	6.959416e+02
2.100000e-06	3.733483e-06	1.055501e-08	2.605460e+01	6.911305e+02
2.110000e-06	3.655364e-06	1.045183e-08	2.550943e+01	6.862933e+02
2.120000e-06	3.575930e-06	1.039094e-08	2.495509e+01	6.813765e+02
2.130000e-06	3.495335e-06	1.029994e-08	2.439265e+01	6.762957e+02
2.140000e-06	3.413548e-06	1.023912e-08	2.382189e+01	6.709700e+02
2.150000e-06	3.330653e-06	1.014955e-08	2.324339e+01	6.653563e+02
2.160000e-06	3.246592e-06	1.005695e-08	2.265676e+01	6.594663e+02
2.170000e-06	3.161153e-06	9.971921e-09	2.206052e+01	6.533617e+02
2.180000e-06	3.074481e-06	9.871298e-09	2.145567e+01	6.471266e+02
2.190000e-06	2.986796e-06	9.786631e-09	2.084374e+01	6.408305e+02
2.200000e-06	2.898162e-06	9.679711e-09	2.022520e+01	6.344972e+02
2.210000e-06	2.808527e-06	9.585505e-09	1.959967e+01	6.280927e+02
2.220000e-06	2.717989e-06	9.485638e-09	1.896784e+01	6.215383e+02
2.230000e-06	2.626581e-06	9.384503e-09	1.832994e+01	6.147422e+02
2.240000e-06	2.534184e-06	9.273968e-09	1.768513e+01	6.076375e+02
2.250000e-06	2.440804e-06	9.159502e-09	1.703347e+01	6.002079e+02
2.260000e-06	2.346532e-06	9.050728e-09	1.637558e+01	5.924920e+02
2.270000e-06	2.251399e-06	8.933366e-09	1.571168e+01	5.845623e+02
2.280000e-06	2.155434e-06	8.817258e-09	1.504197e+01	5.764887e+02
2.290000e-06	2.058763e-06	8.687346e-09	1.436735e+01	5.683027e+02
2.300000e-06	1.961388e-06	8.557817e-09	1.368780e+01	5.599781e+02
2.310000e-06	1.863378e-06	8.425383e-09	1.300383e+01	5.514365e+02
2.320000e-06	1.764890e-06	8.292517e-09	1.231651e+01	5.425775e+02
2.330000e-06	1.665922e-06	8.154970e-09	1.162585e+01	5.333182e+02
2.340000e-06	1.566364e-06	8.010236e-09	1.093108e+01	5.236264e+02
2.350000e-06	1.466108e-06	7.862973e-09	1.023142e+01	5.135312e+02
2.360000e-06	1.365195e-06	7.706158e-09	9.527191e+00	5.031052e+02
2.370000e-06	1.263740e-06	7.543478e-09	8.819176e+00	4.924257e+02
2.380000e-06	1.161858e-06	7.370654e-09	8.108174e+00	4.815312e+02
2.390000e-06	1.059572e-06	7.196494e-09	7.394360e+00	4.703933e+02
2.400000e-06	9.568616e-07	7.023171e-09	6.677583e+00	4.589168e+02
2.410000e-06	8.536970e-07	6.846127e-09	5.957636e+00	4.469701e+02
2.420000e-06	7.501491e-07	6.660585e-09	5.235013e+00	4.344332e+02
2.430000e-06	6.463686e-07	6.459767e-09	4.510767e+00	4.212426e+02
2.440000e-06	5.424092e-07	6.246638e-09	3.785273e+00	4.074118e+02
2.450000e-06	4.382928e-07	6.026105e-09	3.058684e+00	3.930171e+02
2.460000e-06	3.341023e-07	5.798576e-09	2.331577e+00	3.781515e+02
2.470000e-06	2.298541e-07	5.563016e-09	1.604067e+00	3.628662e+02
2.480000e-06	1.254979e-07	5.321208e-09	8.758032e-01	3.471255e+02
2.490000e-06	2.107877e-08	5.072299e-09	1.471010e-01	3.307966e+02
2.500000e-06	-8.333727e-08	4.812261e-09	-5.815800e-01	3.136812e+02
2.510000e-06	-1.876996e-07	4.534600e-09	-1.309886e+00	2.955775e+02
2.520000e-06	-2.920106e-07	4.239391e-09	-2.037834e+00	2.763451e+02
2.530000e-06	-3.962173e-07	3.931205e-09	-2.765054e+00	2.559382e+02
2.540000e-06	-5.002674e-07	3.608804e-09	-3.491181e+00	2.343856e+02
2.550000e-06	-6.041519e-07	3.266003e-09	-4.216153e+00	2.117134e+02
2.560000e-06	-7.078221e-07	2.898305e-09	-4.939629e+00	1.878338e+02
2.570000e-06	-8.112570e-07	2.506526e-09	-5.661462e+00	1.624456e+02
2.580000e-06	-9.143419e-07	2.085748e-09	-6.380854e+00	1.349913e+02
2.590000e-06	-1.016991e-06	1.624523e-09	-7.097206e+00	1.047107e+02
2.600000e-06	-1.119229e-06	1.109885e-09	-7.810684e+00	7.079285e+01
2.610000e-06	-1.221005e-06	5.342792e-10	-8.520940e+00	3.259927e+01
2.620000e-06	-1.322318e-06	-1.028254e-10	-9.227968e+00	-1.010177e+01
2.630000e-06	-1.423119e-06	-8.044043e-10	-9.931422e+00	-5.696133e+01
2.640000e-06	-1.523284e-06	-1.569520e-09	-1.063043e+01	-1.069959e+02
2.650000e-06	-1.622825e-06	-2.372036e-09	-1.132510e+01	-1.586821e+02
2.660000e-06	-1.721798e-06	-3.169102e-09	-1.201579e+01	-2.101850e+02
2.670000e-06	-1.820213e-06	-3.925822e-09	-1.270260e+01	-2.596651e+02
2.680000e-06	-1.918046e-06	-4.624786e-09	-1.338534e+01	-3.055857e+02
2.690000e-06	-2.015236e-06	-5.255879e-09	-1.406359e+01	-3.469425e+02
2.700000e-06	-2.111745e-06	-5.813669e-09	-1.473709e+01	-3.833607e+02
2.710000e-06	-2.207600e-06	-6.300372e-09	-1.540602e+01	-4.150463e+02
2.720000e-06	-2.302790e-06	-6.726539e-09	-1.607032e+01	-4.426195e+02
2.730000e-06	-2.397207e-06	-7.108183e-09	-1.672922e+01	-4.668884e+02
2.740000e-06	-2.490725e-06	-7.450280e-09	-1.738185e+01	-4.886317e+02
2.750000e-06	-2.583207e-06	-7.756595e-09	-1.802724e+01	-5.084483e+02
2.760000e-06	-2.674653e-06	-8.033711e-09	-1.866542e+01	-5.267008e+02
2.770000e-06	-2.765109e-06	-8.286164e-09	-1.929667e+01	-5.435486e+02
2.780000e-06	-2.854554e-06	-8.521007e-09	-1.992088e+01	-5.590372e+02
2.790000e-06	-2.943014e-06	-8.740419e-09	-2.053821e+01	-5.731987e+02
2.800000e-06	-3.030544e-06	-8.940191e-09	-2.114904e+01	-5.861229e+02
2.810000e-06	-3.117106e-06	-9.123125e-09	-2.175313e+01	-5.979786e+02
2.820000e-06	-3.202484e-06	-9.298353e-09	-2.234895e+01	-6.089856e+02
2.830000e-06	-3.286567e-06	-9.464713e-09	-2.293573e+01	-6.193585e+02
2.840000e-06	-3.369418e-06	-9.616721e-09	-2.351392e+01	-6.292521e+02
2.850000e-06	-3.451136e-06	-9.756379e-09	-2.408420e+01	-6.387322e+02
2.860000e-06	-3.531764e-06	-9.888506e-09	-2.464687e+01	-6.477817e+02
2.870000e-06	-3.611225e-06	-1.001470e-08	-2.520140e+01	-6.563381e+02
2.880000e-06	-3.689339e-06	-1.013488e-08	-2.574653e+01	-6.643425e+02
2.890000e-06	-3.765880e-06	-1.024993e-08	-2.628068e+01	-6.717797e+02
2.900000e-06	-3.840903e-06	-1.036117e-08	-2.680424e+01	-6.786939e+02
2.910000e-06	-3.914542e-06	-1.046862e-08	-2.731814e+01	-6.851767e+02
2.920000e-06	-3.986817e-06	-1.056866e-08	-2.782252e+01	-6.913347e+02
2.930000e-06	-4.057742e-06	-1.065835e-08	-2.831748e+01	-6.972543e+02
2.940000e-06	-4.127125e-06	-1.074149e-08	-2.880168e+01	-7.029785e+02
