# Temperatura_=_43.45
# Concentracion g/m^3_=_13400.0
# C_Vs_to_Am_M_A/Vsm_=_65563218390.804596
# pendiente_HvsI_1/m_=_3716.3
# ordenada_HvsI_A/m_=_1297.0
# frecuencia_Hz_=_300812.7560728703

Tiempo_(s)	Campo_(V.s)	Magnetizacion_(V.s)	Campo_(kA/m)	Magnetizacion_(A/m)
0.000000e+00	-5.491609e-06	-1.229310e-08	-3.830866e+01	-8.038464e+02
1.000000e-08	-5.490236e-06	-1.229459e-08	-3.829908e+01	-8.037703e+02
2.000000e-08	-5.486889e-06	-1.229212e-08	-3.827574e+01	-8.035094e+02
3.000000e-08	-5.481737e-06	-1.228733e-08	-3.823980e+01	-8.030536e+02
4.000000e-08	-5.474908e-06	-1.228339e-08	-3.819216e+01	-8.024357e+02
5.000000e-08	-5.466441e-06	-1.227378e-08	-3.813310e+01	-8.017142e+02
6.000000e-08	-5.456132e-06	-1.225461e-08	-3.806118e+01	-8.009459e+02
7.000000e-08	-5.443750e-06	-1.223160e-08	-3.797480e+01	-8.001600e+02
8.000000e-08	-5.429387e-06	-1.222048e-08	-3.787461e+01	-7.993463e+02
9.000000e-08	-5.412746e-06	-1.224461e-08	-3.775852e+01	-7.984618e+02
1.000000e-07	-5.393734e-06	-1.224843e-08	-3.762590e+01	-7.974533e+02
1.100000e-07	-5.372651e-06	-1.220416e-08	-3.747883e+01	-7.962839e+02
1.200000e-07	-5.349671e-06	-1.216775e-08	-3.731852e+01	-7.949535e+02
1.300000e-07	-5.325219e-06	-1.211585e-08	-3.714795e+01	-7.935012e+02
1.400000e-07	-5.299393e-06	-1.209739e-08	-3.696779e+01	-7.919896e+02
1.500000e-07	-5.271721e-06	-1.212754e-08	-3.677476e+01	-7.904767e+02
1.600000e-07	-5.242233e-06	-1.204860e-08	-3.656905e+01	-7.889882e+02
1.700000e-07	-5.211238e-06	-1.201498e-08	-3.635284e+01	-7.875019e+02
1.800000e-07	-5.178396e-06	-1.205119e-08	-3.612374e+01	-7.859518e+02
1.900000e-07	-5.143427e-06	-1.196349e-08	-3.587980e+01	-7.842519e+02
2.000000e-07	-5.106832e-06	-1.192604e-08	-3.562452e+01	-7.823284e+02
2.100000e-07	-5.068646e-06	-1.191551e-08	-3.535813e+01	-7.801486e+02
2.200000e-07	-5.028672e-06	-1.183900e-08	-3.507928e+01	-7.777333e+02
2.300000e-07	-4.986811e-06	-1.183606e-08	-3.478727e+01	-7.751484e+02
2.400000e-07	-4.942861e-06	-1.181792e-08	-3.448068e+01	-7.724776e+02
2.500000e-07	-4.897141e-06	-1.175768e-08	-3.416174e+01	-7.697895e+02
2.600000e-07	-4.849758e-06	-1.171036e-08	-3.383120e+01	-7.671099e+02
2.700000e-07	-4.800391e-06	-1.163494e-08	-3.348683e+01	-7.644139e+02
2.800000e-07	-4.748874e-06	-1.160732e-08	-3.312745e+01	-7.616374e+02
2.900000e-07	-4.695340e-06	-1.158288e-08	-3.275401e+01	-7.587055e+02
3.000000e-07	-4.640105e-06	-1.152810e-08	-3.236870e+01	-7.555634e+02
3.100000e-07	-4.583273e-06	-1.148226e-08	-3.197224e+01	-7.521982e+02
3.200000e-07	-4.524637e-06	-1.143073e-08	-3.156321e+01	-7.486416e+02
3.300000e-07	-4.464307e-06	-1.137783e-08	-3.114236e+01	-7.449539e+02
3.400000e-07	-4.402487e-06	-1.129885e-08	-3.071111e+01	-7.411955e+02
3.500000e-07	-4.339223e-06	-1.123335e-08	-3.026978e+01	-7.373996e+02
3.600000e-07	-4.274502e-06	-1.118015e-08	-2.981830e+01	-7.335574e+02
3.700000e-07	-4.208107e-06	-1.112285e-08	-2.935514e+01	-7.296222e+02
3.800000e-07	-4.140053e-06	-1.107836e-08	-2.888041e+01	-7.255304e+02
3.900000e-07	-4.070500e-06	-1.100078e-08	-2.839521e+01	-7.212298e+02
4.000000e-07	-3.999610e-06	-1.092284e-08	-2.790069e+01	-7.167023e+02
4.100000e-07	-3.927492e-06	-1.085763e-08	-2.739761e+01	-7.119718e+02
4.200000e-07	-3.853969e-06	-1.078011e-08	-2.688472e+01	-7.070924e+02
4.300000e-07	-3.778713e-06	-1.069968e-08	-2.635975e+01	-7.021243e+02
4.400000e-07	-3.701785e-06	-1.061660e-08	-2.582311e+01	-6.971057e+02
4.500000e-07	-3.623403e-06	-1.054669e-08	-2.527633e+01	-6.920347e+02
4.600000e-07	-3.543515e-06	-1.047291e-08	-2.471904e+01	-6.868692e+02
4.700000e-07	-3.462207e-06	-1.038690e-08	-2.415185e+01	-6.815437e+02
4.800000e-07	-3.379692e-06	-1.029468e-08	-2.357624e+01	-6.759969e+02
4.900000e-07	-3.296064e-06	-1.020373e-08	-2.299286e+01	-6.701966e+02
5.000000e-07	-3.211486e-06	-1.012044e-08	-2.240285e+01	-6.641528e+02
5.100000e-07	-3.125997e-06	-1.002551e-08	-2.180650e+01	-6.579104e+02
5.200000e-07	-3.039483e-06	-9.924795e-09	-2.120299e+01	-6.515279e+02
5.300000e-07	-2.951942e-06	-9.821106e-09	-2.059232e+01	-6.450498e+02
5.400000e-07	-2.863443e-06	-9.718763e-09	-1.997496e+01	-6.384848e+02
5.500000e-07	-2.774010e-06	-9.617566e-09	-1.935109e+01	-6.318014e+02
5.600000e-07	-2.683444e-06	-9.509968e-09	-1.871931e+01	-6.249407e+02
5.700000e-07	-2.591702e-06	-9.401267e-09	-1.807933e+01	-6.178414e+02
5.800000e-07	-2.499052e-06	-9.288627e-09	-1.743302e+01	-6.104657e+02
5.900000e-07	-2.405622e-06	-9.175440e-09	-1.678127e+01	-6.028137e+02
6.000000e-07	-2.311387e-06	-9.055522e-09	-1.612390e+01	-5.949190e+02
6.100000e-07	-2.216369e-06	-8.925575e-09	-1.546106e+01	-5.868284e+02
6.200000e-07	-2.120560e-06	-8.792515e-09	-1.479272e+01	-5.785744e+02
6.300000e-07	-2.023951e-06	-8.661603e-09	-1.411878e+01	-5.701532e+02
6.400000e-07	-1.926613e-06	-8.532928e-09	-1.343977e+01	-5.615196e+02
6.500000e-07	-1.828554e-06	-8.395747e-09	-1.275572e+01	-5.526017e+02
6.600000e-07	-1.729756e-06	-8.250528e-09	-1.206653e+01	-5.433295e+02
6.700000e-07	-1.630201e-06	-8.102807e-09	-1.137205e+01	-5.336641e+02
6.800000e-07	-1.529951e-06	-7.953278e-09	-1.067271e+01	-5.236141e+02
6.900000e-07	-1.429224e-06	-7.795368e-09	-9.970058e+00	-5.132299e+02
7.000000e-07	-1.328120e-06	-7.627096e-09	-9.264771e+00	-5.025768e+02
7.100000e-07	-1.226611e-06	-7.456287e-09	-8.556656e+00	-4.916988e+02
7.200000e-07	-1.124665e-06	-7.284809e-09	-7.845496e+00	-4.805879e+02
7.300000e-07	-1.022305e-06	-7.109512e-09	-7.131447e+00	-4.691750e+02
7.400000e-07	-9.195820e-07	-6.928419e-09	-6.414870e+00	-4.573479e+02
7.500000e-07	-8.165190e-07	-6.741340e-09	-5.695917e+00	-4.449897e+02
7.600000e-07	-7.131412e-07	-6.545936e-09	-4.974769e+00	-4.320217e+02
7.700000e-07	-6.095523e-07	-6.341489e-09	-4.252148e+00	-4.184310e+02
7.800000e-07	-5.057357e-07	-6.126812e-09	-3.527939e+00	-4.042687e+02
7.900000e-07	-4.016990e-07	-5.902388e-09	-2.802193e+00	-3.896157e+02
8.000000e-07	-2.975587e-07	-5.669558e-09	-2.075726e+00	-3.745297e+02
8.100000e-07	-1.933291e-07	-5.429957e-09	-1.348636e+00	-3.589962e+02
8.200000e-07	-8.901105e-08	-5.184797e-09	-6.209281e-01	-3.429062e+02
8.300000e-07	1.538239e-08	-4.928380e-09	1.073053e-01	-3.260738e+02
8.400000e-07	1.197452e-07	-4.655257e-09	8.353250e-01	-3.082902e+02
8.500000e-07	2.240309e-07	-4.366601e-09	1.562807e+00	-2.893903e+02
8.600000e-07	3.281901e-07	-4.065128e-09	2.289406e+00	-2.693009e+02
8.700000e-07	4.322097e-07	-3.746745e-09	3.015031e+00	-2.480410e+02
8.800000e-07	5.360975e-07	-3.407131e-09	3.739738e+00	-2.256620e+02
8.900000e-07	6.397898e-07	-3.043629e-09	4.463081e+00	-2.021416e+02
9.000000e-07	7.432971e-07	-2.655533e-09	5.185132e+00	-1.772680e+02
9.100000e-07	8.465459e-07	-2.239527e-09	5.905380e+00	-1.505650e+02
9.200000e-07	9.494800e-07	-1.786697e-09	6.623434e+00	-1.213028e+02
9.300000e-07	1.052071e-06	-1.285145e-09	7.339095e+00	-8.861520e+01
9.400000e-07	1.154283e-06	-7.261643e-10	8.052111e+00	-5.170811e+01
9.500000e-07	1.256125e-06	-1.005423e-10	8.762545e+00	-1.011034e+01
9.600000e-07	1.357577e-06	6.010851e-10	9.470260e+00	3.610554e+01
9.700000e-07	1.458598e-06	1.372234e-09	1.017497e+01	8.620353e+01
9.800000e-07	1.559186e-06	2.186929e-09	1.087666e+01	1.388128e+02
9.900000e-07	1.659278e-06	3.007303e-09	1.157488e+01	1.921103e+02
1.000000e-06	1.758637e-06	3.800121e-09	1.226800e+01	2.441176e+02
1.010000e-06	1.857133e-06	4.539111e-09	1.295509e+01	2.930373e+02
1.020000e-06	1.954888e-06	5.202555e-09	1.363702e+01	3.375429e+02
1.030000e-06	2.052000e-06	5.783173e-09	1.431445e+01	3.769506e+02
1.040000e-06	2.148336e-06	6.290050e-09	1.498648e+01	4.112353e+02
1.050000e-06	2.243879e-06	6.739512e-09	1.565297e+01	4.409033e+02
1.060000e-06	2.338715e-06	7.142098e-09	1.631454e+01	4.667690e+02
1.070000e-06	2.432787e-06	7.498635e-09	1.697076e+01	4.897086e+02
1.080000e-06	2.526068e-06	7.812145e-09	1.762148e+01	5.104606e+02
1.090000e-06	2.618542e-06	8.093572e-09	1.826657e+01	5.295186e+02
1.100000e-06	2.709986e-06	8.353513e-09	1.890447e+01	5.471285e+02
1.110000e-06	2.800280e-06	8.595048e-09	1.953435e+01	5.633647e+02
1.120000e-06	2.889549e-06	8.817118e-09	2.015707e+01	5.782413e+02
1.130000e-06	2.977822e-06	9.021640e-09	2.077285e+01	5.918095e+02
1.140000e-06	3.065063e-06	9.210504e-09	2.138143e+01	6.042063e+02
1.150000e-06	3.151297e-06	9.386529e-09	2.198299e+01	6.156453e+02
1.160000e-06	3.236567e-06	9.551571e-09	2.257782e+01	6.263645e+02
1.170000e-06	3.320826e-06	9.706314e-09	2.316559e+01	6.365611e+02
1.180000e-06	3.403894e-06	9.854615e-09	2.374507e+01	6.463432e+02
1.190000e-06	3.485716e-06	9.997815e-09	2.431585e+01	6.557204e+02
1.200000e-06	3.566281e-06	1.013156e-08	2.487786e+01	6.646326e+02
1.210000e-06	3.645492e-06	1.025359e-08	2.543042e+01	6.730020e+02
1.220000e-06	3.723413e-06	1.037011e-08	2.597398e+01	6.807861e+02
1.230000e-06	3.799993e-06	1.048380e-08	2.650820e+01	6.880076e+02
1.240000e-06	3.874997e-06	1.058994e-08	2.703141e+01	6.947520e+02
1.250000e-06	3.948435e-06	1.068575e-08	2.754370e+01	7.011373e+02
1.260000e-06	4.020452e-06	1.077609e-08	2.804609e+01	7.072710e+02
1.270000e-06	4.091054e-06	1.086624e-08	2.853859e+01	7.132154e+02
1.280000e-06	4.160269e-06	1.095430e-08	2.902143e+01	7.189750e+02
1.290000e-06	4.228082e-06	1.103539e-08	2.949449e+01	7.245109e+02
1.300000e-06	4.294314e-06	1.111091e-08	2.995651e+01	7.297723e+02
1.310000e-06	4.358927e-06	1.118499e-08	3.040724e+01	7.347318e+02
1.320000e-06	4.422062e-06	1.125742e-08	3.084766e+01	7.394050e+02
1.330000e-06	4.483818e-06	1.132513e-08	3.127846e+01	7.438489e+02
1.340000e-06	4.544149e-06	1.138771e-08	3.169932e+01	7.481381e+02
1.350000e-06	4.602827e-06	1.145006e-08	3.210865e+01	7.523323e+02
1.360000e-06	4.659681e-06	1.151463e-08	3.250525e+01	7.564496e+02
1.370000e-06	4.714796e-06	1.157776e-08	3.288973e+01	7.604581e+02
1.380000e-06	4.768223e-06	1.163247e-08	3.326243e+01	7.642906e+02
1.390000e-06	4.819698e-06	1.167853e-08	3.362151e+01	7.678758e+02
1.400000e-06	4.869119e-06	1.172299e-08	3.396627e+01	7.711711e+02
1.410000e-06	4.916746e-06	1.177035e-08	3.429850e+01	7.741842e+02
1.420000e-06	4.962783e-06	1.181762e-08	3.461965e+01	7.769717e+02
1.430000e-06	5.007245e-06	1.185862e-08	3.492981e+01	7.796164e+02
1.440000e-06	5.049792e-06	1.189737e-08	3.522662e+01	7.821931e+02
1.450000e-06	5.090375e-06	1.193923e-08	3.550971e+01	7.847372e+02
1.460000e-06	5.129255e-06	1.197935e-08	3.578094e+01	7.872295e+02
1.470000e-06	5.166449e-06	1.201037e-08	3.604039e+01	7.896063e+02
1.480000e-06	5.201770e-06	1.203598e-08	3.628679e+01	7.917869e+02
1.490000e-06	5.235126e-06	1.206346e-08	3.651948e+01	7.937104e+02
1.500000e-06	5.266716e-06	1.209167e-08	3.673984e+01	7.953632e+02
1.510000e-06	5.296630e-06	1.211536e-08	3.694852e+01	7.967873e+02
1.520000e-06	5.324782e-06	1.213311e-08	3.714490e+01	7.980645e+02
1.530000e-06	5.350897e-06	1.215291e-08	3.732708e+01	7.992835e+02
1.540000e-06	5.374941e-06	1.217744e-08	3.749481e+01	8.005042e+02
1.550000e-06	5.397175e-06	1.219861e-08	3.764991e+01	8.017336e+02
1.560000e-06	5.417670e-06	1.221048e-08	3.779287e+01	8.029240e+02
1.570000e-06	5.436316e-06	1.221860e-08	3.792295e+01	8.039941e+02
1.580000e-06	5.452984e-06	1.223034e-08	3.803922e+01	8.048633e+02
1.590000e-06	5.467640e-06	1.224140e-08	3.814146e+01	8.054860e+02
1.600000e-06	5.480247e-06	1.224770e-08	3.822940e+01	8.058706e+02
1.610000e-06	5.490645e-06	1.225237e-08	3.830194e+01	8.060759e+02
1.620000e-06	5.498969e-06	1.226084e-08	3.836001e+01	8.061868e+02
1.630000e-06	5.505455e-06	1.227003e-08	3.840525e+01	8.062802e+02
1.640000e-06	5.510085e-06	1.227184e-08	3.843755e+01	8.063950e+02
1.650000e-06	5.512705e-06	1.226731e-08	3.845583e+01	8.065186e+02
1.660000e-06	5.513303e-06	1.226461e-08	3.846000e+01	8.065957e+02
1.670000e-06	5.512113e-06	1.226318e-08	3.845170e+01	8.065538e+02
1.680000e-06	5.509233e-06	1.225915e-08	3.843160e+01	8.063350e+02
1.690000e-06	5.504541e-06	1.225234e-08	3.839887e+01	8.059196e+02
1.700000e-06	5.497937e-06	1.224442e-08	3.835281e+01	8.053322e+02
1.710000e-06	5.489587e-06	1.223834e-08	3.829456e+01	8.046278e+02
1.720000e-06	5.479556e-06	1.223165e-08	3.822458e+01	8.038660e+02
1.730000e-06	5.467692e-06	1.222809e-08	3.814182e+01	8.030834e+02
1.740000e-06	5.453789e-06	1.220871e-08	3.804484e+01	8.022785e+02
1.750000e-06	5.437832e-06	1.214754e-08	3.793353e+01	8.014139e+02
1.760000e-06	5.419461e-06	1.212368e-08	3.780537e+01	8.004361e+02
1.770000e-06	5.398250e-06	1.212591e-08	3.765740e+01	7.993028e+02
1.780000e-06	5.374845e-06	1.213650e-08	3.749414e+01	7.980050e+02
1.790000e-06	5.350244e-06	1.216243e-08	3.732252e+01	7.965741e+02
1.800000e-06	5.324892e-06	1.207689e-08	3.714567e+01	7.950698e+02
1.810000e-06	5.297937e-06	1.204468e-08	3.695764e+01	7.935537e+02
1.820000e-06	5.268511e-06	1.208717e-08	3.675237e+01	7.920603e+02
1.830000e-06	5.237367e-06	1.198959e-08	3.653511e+01	7.905779e+02
1.840000e-06	5.204610e-06	1.198594e-08	3.630660e+01	7.890486e+02
1.850000e-06	5.169977e-06	1.202665e-08	3.606501e+01	7.873881e+02
1.860000e-06	5.133738e-06	1.192732e-08	3.581221e+01	7.855171e+02
1.870000e-06	5.095416e-06	1.194669e-08	3.554488e+01	7.833924e+02
1.880000e-06	5.055170e-06	1.193792e-08	3.526413e+01	7.810234e+02
1.890000e-06	5.013423e-06	1.183192e-08	3.497291e+01	7.784680e+02
1.900000e-06	4.969837e-06	1.182341e-08	3.466886e+01	7.758090e+02
1.910000e-06	4.924518e-06	1.175975e-08	3.435272e+01	7.731208e+02
1.920000e-06	4.877346e-06	1.174578e-08	3.402366e+01	7.704400e+02
1.930000e-06	4.828257e-06	1.174075e-08	3.368122e+01	7.677520e+02
1.940000e-06	4.777504e-06	1.164154e-08	3.332717e+01	7.649994e+02
1.950000e-06	4.724609e-06	1.162872e-08	3.295818e+01	7.621066e+02
1.960000e-06	4.669765e-06	1.156911e-08	3.257560e+01	7.590124e+02
1.970000e-06	4.613344e-06	1.151016e-08	3.218201e+01	7.556938e+02
1.980000e-06	4.555261e-06	1.146412e-08	3.177684e+01	7.521739e+02
1.990000e-06	4.495697e-06	1.140000e-08	3.136133e+01	7.485089e+02
2.000000e-06	4.434396e-06	1.138461e-08	3.093370e+01	7.447617e+02
2.010000e-06	4.371438e-06	1.129760e-08	3.049451e+01	7.409732e+02
2.020000e-06	4.306978e-06	1.124780e-08	3.004485e+01	7.371439e+02
2.030000e-06	4.241005e-06	1.117899e-08	2.958463e+01	7.332339e+02
2.040000e-06	4.173601e-06	1.109836e-08	2.911443e+01	7.291811e+02
2.050000e-06	4.104433e-06	1.106612e-08	2.863193e+01	7.249283e+02
2.060000e-06	4.033641e-06	1.097390e-08	2.813809e+01	7.204489e+02
2.070000e-06	3.961539e-06	1.092499e-08	2.763512e+01	7.157581e+02
2.080000e-06	3.888128e-06	1.084492e-08	2.712302e+01	7.109055e+02
2.090000e-06	3.813191e-06	1.077008e-08	2.660026e+01	7.059522e+02
2.100000e-06	3.736567e-06	1.070086e-08	2.606575e+01	7.009432e+02
2.110000e-06	3.658381e-06	1.060259e-08	2.552033e+01	6.958859e+02
2.120000e-06	3.578889e-06	1.054612e-08	2.496581e+01	6.907459e+02
2.130000e-06	3.498294e-06	1.045401e-08	2.440359e+01	6.854606e+02
2.140000e-06	3.416522e-06	1.038071e-08	2.383316e+01	6.799653e+02
2.150000e-06	3.333615e-06	1.028328e-08	2.325481e+01	6.742201e+02
2.160000e-06	3.249548e-06	1.019333e-08	2.266837e+01	6.682257e+02
2.170000e-06	3.164120e-06	1.011265e-08	2.207244e+01	6.620211e+02
2.180000e-06	3.077408e-06	1.000463e-08	2.146755e+01	6.556642e+02
2.190000e-06	2.989685e-06	9.918450e-09	2.085561e+01	6.492045e+02
2.200000e-06	2.901060e-06	9.808528e-09	2.023737e+01	6.426596e+02
2.210000e-06	2.811462e-06	9.715489e-09	1.961235e+01	6.360061e+02
2.220000e-06	2.720956e-06	9.608138e-09	1.898099e+01	6.291890e+02
2.230000e-06	2.629575e-06	9.497169e-09	1.834353e+01	6.221453e+02
2.240000e-06	2.537289e-06	9.392237e-09	1.769976e+01	6.148303e+02
2.250000e-06	2.444058e-06	9.272653e-09	1.704939e+01	6.072358e+02
2.260000e-06	2.349730e-06	9.164412e-09	1.639137e+01	5.993892e+02
2.270000e-06	2.254480e-06	9.043523e-09	1.572693e+01	5.913371e+02
2.280000e-06	2.158506e-06	8.924838e-09	1.505742e+01	5.831171e+02
2.290000e-06	2.061798e-06	8.797246e-09	1.438280e+01	5.747344e+02
2.300000e-06	1.964409e-06	8.663336e-09	1.370343e+01	5.661519e+02
2.310000e-06	1.866435e-06	8.529722e-09	1.301998e+01	5.573016e+02
2.320000e-06	1.767945e-06	8.388099e-09	1.233293e+01	5.481101e+02
2.330000e-06	1.668882e-06	8.245002e-09	1.164188e+01	5.385301e+02
2.340000e-06	1.569242e-06	8.094829e-09	1.094680e+01	5.285596e+02
2.350000e-06	1.469088e-06	7.941499e-09	1.024814e+01	5.182416e+02
2.360000e-06	1.368384e-06	7.784897e-09	9.545648e+00	5.076412e+02
2.370000e-06	1.267043e-06	7.621255e-09	8.838709e+00	4.968101e+02
2.380000e-06	1.165092e-06	7.450555e-09	8.127510e+00	4.857530e+02
2.390000e-06	1.062651e-06	7.273216e-09	7.412900e+00	4.744135e+02
2.400000e-06	9.597802e-07	7.091466e-09	6.695287e+00	4.626857e+02
2.410000e-06	8.565441e-07	6.906457e-09	5.975127e+00	4.504499e+02
2.420000e-06	7.530057e-07	6.712704e-09	5.252858e+00	4.376162e+02
2.430000e-06	6.492297e-07	6.508984e-09	4.528932e+00	4.241566e+02
2.440000e-06	5.452866e-07	6.295696e-09	3.803840e+00	4.101104e+02
2.450000e-06	4.411999e-07	6.076542e-09	3.077746e+00	3.955562e+02
2.460000e-06	3.370070e-07	5.849661e-09	2.350912e+00	3.805613e+02
2.470000e-06	2.327229e-07	5.611195e-09	1.623441e+00	3.651298e+02
2.480000e-06	1.283321e-07	5.363968e-09	8.952257e-01	3.491728e+02
2.490000e-06	2.389942e-08	5.105892e-09	1.667189e-01	3.325174e+02
2.500000e-06	-8.052189e-08	4.837799e-09	-5.617090e-01	3.149542e+02
2.510000e-06	-1.848947e-07	4.556856e-09	-1.289799e+00	2.963033e+02
2.520000e-06	-2.891623e-07	4.257160e-09	-2.017154e+00	2.764699e+02
2.530000e-06	-3.933398e-07	3.940439e-09	-2.743881e+00	2.554563e+02
2.540000e-06	-4.974407e-07	3.605819e-09	-3.470073e+00	2.333148e+02
2.550000e-06	-6.014018e-07	3.251205e-09	-4.195291e+00	2.100490e+02
2.560000e-06	-7.051750e-07	2.873787e-09	-4.919198e+00	1.854960e+02
2.570000e-06	-8.087276e-07	2.467956e-09	-5.641565e+00	1.592389e+02
2.580000e-06	-9.119321e-07	2.029123e-09	-6.361505e+00	1.305962e+02
2.590000e-06	-1.014702e-06	1.547780e-09	-7.078414e+00	9.871584e+01
2.600000e-06	-1.116984e-06	1.008545e-09	-7.791917e+00	6.276753e+01
2.610000e-06	-1.218706e-06	3.998727e-10	-8.501514e+00	2.219016e+01
2.620000e-06	-1.319856e-06	-2.781986e-10	-9.207123e+00	-2.307470e+01
2.630000e-06	-1.420534e-06	-1.025042e-09	-9.909441e+00	-7.243626e+01
2.640000e-06	-1.520791e-06	-1.831184e-09	-1.060882e+01	-1.246493e+02
2.650000e-06	-1.620562e-06	-2.662904e-09	-1.130480e+01	-1.779656e+02
2.660000e-06	-1.719724e-06	-3.474381e-09	-1.199654e+01	-2.304117e+02
2.670000e-06	-1.818152e-06	-4.230526e-09	-1.268317e+01	-2.801241e+02
2.680000e-06	-1.915960e-06	-4.917838e-09	-1.336545e+01	-3.256563e+02
2.690000e-06	-2.013179e-06	-5.533720e-09	-1.404365e+01	-3.661797e+02
2.700000e-06	-2.109737e-06	-6.078949e-09	-1.471722e+01	-4.015346e+02
2.710000e-06	-2.205681e-06	-6.556220e-09	-1.538651e+01	-4.321299e+02
2.720000e-06	-2.301047e-06	-6.974129e-09	-1.605177e+01	-4.587350e+02
2.730000e-06	-2.395631e-06	-7.345717e-09	-1.671157e+01	-4.822323e+02
2.740000e-06	-2.489159e-06	-7.678583e-09	-1.736401e+01	-5.034024e+02
2.750000e-06	-2.581643e-06	-7.977088e-09	-1.800916e+01	-5.227949e+02
2.760000e-06	-2.673152e-06	-8.244990e-09	-1.864752e+01	-5.407045e+02
2.770000e-06	-2.763658e-06	-8.485997e-09	-1.927888e+01	-5.572333e+02
2.780000e-06	-2.853137e-06	-8.711302e-09	-1.990307e+01	-5.723992e+02
2.790000e-06	-2.941621e-06	-8.929967e-09	-2.052032e+01	-5.862393e+02
2.800000e-06	-3.029209e-06	-9.135745e-09	-2.113132e+01	-5.988711e+02
2.810000e-06	-3.115759e-06	-9.321981e-09	-2.173508e+01	-6.104949e+02
2.820000e-06	-3.201054e-06	-9.491164e-09	-2.233008e+01	-6.213494e+02
2.830000e-06	-3.285150e-06	-9.648975e-09	-2.291673e+01	-6.316452e+02
2.840000e-06	-3.368090e-06	-9.797901e-09	-2.349530e+01	-6.415120e+02
2.850000e-06	-3.449900e-06	-9.937365e-09	-2.406600e+01	-6.509793e+02
2.860000e-06	-3.530600e-06	-1.006846e-08	-2.462895e+01	-6.599978e+02
2.870000e-06	-3.610131e-06	-1.019403e-08	-2.518375e+01	-6.684888e+02
2.880000e-06	-3.688252e-06	-1.031709e-08	-2.572871e+01	-6.763987e+02
2.890000e-06	-3.764816e-06	-1.043555e-08	-2.626281e+01	-6.837353e+02
2.900000e-06	-3.839903e-06	-1.054709e-08	-2.678660e+01	-6.905723e+02
2.910000e-06	-3.913547e-06	-1.065068e-08	-2.730033e+01	-6.970244e+02
2.920000e-06	-3.985858e-06	-1.074556e-08	-2.780476e+01	-7.032047e+02
2.930000e-06	-4.056839e-06	-1.083403e-08	-2.829991e+01	-7.091872e+02
2.940000e-06	-4.126290e-06	-1.091896e-08	-2.878440e+01	-7.149886e+02
