# Temperatura_=_56.36
# Concentracion g/m^3_=_13400.0
# C_Vs_to_Am_M_A/Vsm_=_65563218390.804596
# pendiente_HvsI_1/m_=_3716.3
# ordenada_HvsI_A/m_=_1297.0
# frecuencia_Hz_=_300810.5664379664

Tiempo_(s)	Campo_(V.s)	Magnetizacion_(V.s)	Campo_(kA/m)	Magnetizacion_(A/m)
0.000000e+00	-5.483720e-06	-1.257502e-08	-3.830852e+01	-8.229811e+02
1.000000e-08	-5.482097e-06	-1.257346e-08	-3.829718e+01	-8.228167e+02
2.000000e-08	-5.478473e-06	-1.257250e-08	-3.827187e+01	-8.224805e+02
3.000000e-08	-5.473084e-06	-1.257035e-08	-3.823421e+01	-8.219897e+02
4.000000e-08	-5.466064e-06	-1.256459e-08	-3.818517e+01	-8.213847e+02
5.000000e-08	-5.457368e-06	-1.255331e-08	-3.812442e+01	-8.207092e+02
6.000000e-08	-5.446717e-06	-1.253630e-08	-3.805002e+01	-8.199896e+02
7.000000e-08	-5.434004e-06	-1.251608e-08	-3.796121e+01	-8.192221e+02
8.000000e-08	-5.419325e-06	-1.250895e-08	-3.785866e+01	-8.183747e+02
9.000000e-08	-5.402380e-06	-1.251979e-08	-3.774028e+01	-8.174028e+02
1.000000e-07	-5.383113e-06	-1.251217e-08	-3.760569e+01	-8.162715e+02
1.100000e-07	-5.361804e-06	-1.248274e-08	-3.745683e+01	-8.149742e+02
1.200000e-07	-5.338677e-06	-1.244390e-08	-3.729527e+01	-8.135393e+02
1.300000e-07	-5.314086e-06	-1.238729e-08	-3.712348e+01	-8.120204e+02
1.400000e-07	-5.288022e-06	-1.238380e-08	-3.694140e+01	-8.104738e+02
1.500000e-07	-5.260124e-06	-1.238481e-08	-3.674650e+01	-8.089333e+02
1.600000e-07	-5.230451e-06	-1.231729e-08	-3.653921e+01	-8.073922e+02
1.700000e-07	-5.199230e-06	-1.231238e-08	-3.632111e+01	-8.058016e+02
1.800000e-07	-5.166138e-06	-1.230006e-08	-3.608993e+01	-8.040866e+02
1.900000e-07	-5.130982e-06	-1.222830e-08	-3.584434e+01	-8.021732e+02
2.000000e-07	-5.094261e-06	-1.221554e-08	-3.558781e+01	-8.000167e+02
2.100000e-07	-5.055914e-06	-1.216798e-08	-3.531992e+01	-7.976182e+02
2.200000e-07	-5.015699e-06	-1.210495e-08	-3.503899e+01	-7.950232e+02
2.300000e-07	-4.973590e-06	-1.210879e-08	-3.474482e+01	-7.923027e+02
2.400000e-07	-4.929484e-06	-1.206622e-08	-3.443670e+01	-7.895240e+02
2.500000e-07	-4.883607e-06	-1.200328e-08	-3.411621e+01	-7.867239e+02
2.600000e-07	-4.836002e-06	-1.195965e-08	-3.378365e+01	-7.838946e+02
2.700000e-07	-4.786398e-06	-1.188985e-08	-3.343713e+01	-7.809890e+02
2.800000e-07	-4.734700e-06	-1.184524e-08	-3.307597e+01	-7.779413e+02
2.900000e-07	-4.681091e-06	-1.182945e-08	-3.270146e+01	-7.746955e+02
3.000000e-07	-4.625824e-06	-1.178068e-08	-3.231537e+01	-7.712289e+02
3.100000e-07	-4.568895e-06	-1.171065e-08	-3.191768e+01	-7.675601e+02
3.200000e-07	-4.510166e-06	-1.166307e-08	-3.150740e+01	-7.637401e+02
3.300000e-07	-4.449744e-06	-1.159170e-08	-3.108530e+01	-7.598285e+02
3.400000e-07	-4.387821e-06	-1.150336e-08	-3.065272e+01	-7.558673e+02
3.500000e-07	-4.324469e-06	-1.145493e-08	-3.021015e+01	-7.518625e+02
3.600000e-07	-4.259655e-06	-1.140059e-08	-2.975737e+01	-7.477820e+02
3.700000e-07	-4.193195e-06	-1.134120e-08	-2.929309e+01	-7.435699e+02
3.800000e-07	-4.125032e-06	-1.128638e-08	-2.881691e+01	-7.391716e+02
3.900000e-07	-4.055353e-06	-1.120065e-08	-2.833014e+01	-7.345578e+02
4.000000e-07	-3.984357e-06	-1.111303e-08	-2.783417e+01	-7.297366e+02
4.100000e-07	-3.912086e-06	-1.104001e-08	-2.732930e+01	-7.247496e+02
4.200000e-07	-3.838381e-06	-1.096554e-08	-2.681441e+01	-7.196517e+02
4.300000e-07	-3.763048e-06	-1.088510e-08	-2.628814e+01	-7.144860e+02
4.400000e-07	-3.686155e-06	-1.080473e-08	-2.575097e+01	-7.092627e+02
4.500000e-07	-3.607827e-06	-1.072554e-08	-2.520379e+01	-7.039532e+02
4.600000e-07	-3.527995e-06	-1.064519e-08	-2.464609e+01	-6.985011e+02
4.700000e-07	-3.446726e-06	-1.055809e-08	-2.407836e+01	-6.928457e+02
4.800000e-07	-3.364177e-06	-1.045673e-08	-2.350168e+01	-6.869470e+02
4.900000e-07	-3.280483e-06	-1.036059e-08	-2.291700e+01	-6.808026e+02
5.000000e-07	-3.195811e-06	-1.026989e-08	-2.232550e+01	-6.744466e+02
5.100000e-07	-3.110208e-06	-1.016990e-08	-2.172749e+01	-6.679328e+02
5.200000e-07	-3.023638e-06	-1.006659e-08	-2.112272e+01	-6.613091e+02
5.300000e-07	-2.936080e-06	-9.962681e-09	-2.051105e+01	-6.545947e+02
5.400000e-07	-2.847611e-06	-9.857872e-09	-1.989302e+01	-6.477696e+02
5.500000e-07	-2.758207e-06	-9.753922e-09	-1.926845e+01	-6.407830e+02
5.600000e-07	-2.667644e-06	-9.644168e-09	-1.863580e+01	-6.335752e+02
5.700000e-07	-2.575949e-06	-9.523303e-09	-1.799523e+01	-6.261039e+02
5.800000e-07	-2.483309e-06	-9.397936e-09	-1.734806e+01	-6.183626e+02
5.900000e-07	-2.389857e-06	-9.276604e-09	-1.669521e+01	-6.103811e+02
6.000000e-07	-2.295644e-06	-9.154407e-09	-1.603705e+01	-6.022094e+02
6.100000e-07	-2.200666e-06	-9.027200e-09	-1.537355e+01	-5.938891e+02
6.200000e-07	-2.104948e-06	-8.896841e-09	-1.470488e+01	-5.854276e+02
6.300000e-07	-2.008511e-06	-8.765581e-09	-1.403118e+01	-5.767865e+02
6.400000e-07	-1.911299e-06	-8.632760e-09	-1.335207e+01	-5.678908e+02
6.500000e-07	-1.813246e-06	-8.487950e-09	-1.266709e+01	-5.586560e+02
6.600000e-07	-1.714377e-06	-8.333236e-09	-1.197641e+01	-5.490216e+02
6.700000e-07	-1.614803e-06	-8.178457e-09	-1.128079e+01	-5.389767e+02
6.800000e-07	-1.514695e-06	-8.024584e-09	-1.058145e+01	-5.285632e+02
6.900000e-07	-1.414128e-06	-7.864403e-09	-9.878903e+00	-5.178557e+02
7.000000e-07	-1.313104e-06	-7.695944e-09	-9.173168e+00	-5.069235e+02
7.100000e-07	-1.211646e-06	-7.525942e-09	-8.464394e+00	-4.957919e+02
7.200000e-07	-1.109815e-06	-7.352744e-09	-7.753017e+00	-4.844196e+02
7.300000e-07	-1.007577e-06	-7.172219e-09	-7.038797e+00	-4.727038e+02
7.400000e-07	-9.048951e-07	-6.983160e-09	-6.321473e+00	-4.605133e+02
7.500000e-07	-8.018690e-07	-6.786965e-09	-5.601747e+00	-4.477352e+02
7.600000e-07	-6.985388e-07	-6.584221e-09	-4.879897e+00	-4.343168e+02
7.700000e-07	-5.949416e-07	-6.372195e-09	-4.156181e+00	-4.202813e+02
7.800000e-07	-4.912119e-07	-6.151723e-09	-3.431539e+00	-4.057083e+02
7.900000e-07	-3.873793e-07	-5.925443e-09	-2.706179e+00	-3.906859e+02
8.000000e-07	-2.834408e-07	-5.692846e-09	-1.980079e+00	-3.752513e+02
8.100000e-07	-1.794256e-07	-5.450802e-09	-1.253443e+00	-3.593487e+02
8.200000e-07	-7.537238e-08	-5.197475e-09	-5.265412e-01	-3.428232e+02
8.300000e-07	2.869208e-08	-4.930825e-09	2.004390e-01	-3.254588e+02
8.400000e-07	1.327361e-07	-4.647777e-09	9.272760e-01	-3.070448e+02
8.500000e-07	2.366770e-07	-4.348192e-09	1.653393e+00	-2.874438e+02
8.600000e-07	3.405576e-07	-4.032938e-09	2.379089e+00	-2.666248e+02
8.700000e-07	4.444055e-07	-3.699903e-09	3.104556e+00	-2.446380e+02
8.800000e-07	5.481560e-07	-3.349241e-09	3.829343e+00	-2.215293e+02
8.900000e-07	6.517572e-07	-2.979032e-09	4.553087e+00	-1.972181e+02
9.000000e-07	7.551409e-07	-2.581360e-09	5.275311e+00	-1.713865e+02
9.100000e-07	8.582634e-07	-2.145270e-09	5.995711e+00	-1.434308e+02
9.200000e-07	9.610608e-07	-1.662071e-09	6.713839e+00	-1.125140e+02
9.300000e-07	1.063488e-06	-1.126836e-09	7.429383e+00	-7.772816e+01
9.400000e-07	1.165523e-06	-5.316070e-10	8.142183e+00	-3.833497e+01
9.500000e-07	1.267200e-06	1.353669e-10	8.852486e+00	5.975930e+00
9.600000e-07	1.368464e-06	8.801146e-10	9.559906e+00	5.488927e+01
9.700000e-07	1.469240e-06	1.687616e-09	1.026391e+01	1.073928e+02
9.800000e-07	1.569548e-06	2.525092e-09	1.096465e+01	1.618668e+02
9.900000e-07	1.669364e-06	3.358431e-09	1.166195e+01	2.163222e+02
1.000000e-06	1.768624e-06	4.158071e-09	1.235536e+01	2.687320e+02
1.010000e-06	1.867152e-06	4.892433e-09	1.304367e+01	3.173720e+02
1.020000e-06	1.964758e-06	5.539441e-09	1.372553e+01	3.610849e+02
1.030000e-06	2.061438e-06	6.102850e-09	1.440092e+01	3.994047e+02
1.040000e-06	2.157376e-06	6.599269e-09	1.507113e+01	4.325203e+02
1.050000e-06	2.252710e-06	7.039076e-09	1.573712e+01	4.611037e+02
1.060000e-06	2.347350e-06	7.425609e-09	1.639827e+01	4.860636e+02
1.070000e-06	2.441215e-06	7.764063e-09	1.705399e+01	5.082986e+02
1.080000e-06	2.534277e-06	8.066660e-09	1.770411e+01	5.285174e+02
1.090000e-06	2.626501e-06	8.344710e-09	1.834838e+01	5.471597e+02
1.100000e-06	2.717789e-06	8.603456e-09	1.898610e+01	5.644209e+02
1.110000e-06	2.807912e-06	8.841949e-09	1.961569e+01	5.803449e+02
1.120000e-06	2.896851e-06	9.059300e-09	2.023701e+01	5.949398e+02
1.130000e-06	2.984824e-06	9.260011e-09	2.085157e+01	6.082674e+02
1.140000e-06	3.071862e-06	9.446620e-09	2.145961e+01	6.204792e+02
1.150000e-06	3.157897e-06	9.621467e-09	2.206064e+01	6.317963e+02
1.160000e-06	3.242913e-06	9.784999e-09	2.265455e+01	6.424518e+02
1.170000e-06	3.326861e-06	9.937026e-09	2.324100e+01	6.526268e+02
1.180000e-06	3.409614e-06	1.008383e-08	2.381909e+01	6.624105e+02
1.190000e-06	3.491068e-06	1.022824e-08	2.438813e+01	6.717975e+02
1.200000e-06	3.571279e-06	1.036492e-08	2.494846e+01	6.807213e+02
1.210000e-06	3.650207e-06	1.049027e-08	2.549985e+01	6.891076e+02
1.220000e-06	3.727838e-06	1.060694e-08	2.604216e+01	6.969215e+02
1.230000e-06	3.804117e-06	1.071734e-08	2.657504e+01	7.041918e+02
1.240000e-06	3.878889e-06	1.082153e-08	2.709739e+01	7.110046e+02
1.250000e-06	3.952056e-06	1.092015e-08	2.760852e+01	7.174716e+02
1.260000e-06	4.023737e-06	1.101413e-08	2.810928e+01	7.236908e+02
1.270000e-06	4.094078e-06	1.110683e-08	2.860067e+01	7.297163e+02
1.280000e-06	4.163090e-06	1.119759e-08	2.908278e+01	7.355500e+02
1.290000e-06	4.230708e-06	1.128148e-08	2.955515e+01	7.411568e+02
1.300000e-06	4.296628e-06	1.135773e-08	3.001566e+01	7.464938e+02
1.310000e-06	4.360887e-06	1.142946e-08	3.046456e+01	7.515400e+02
1.320000e-06	4.423746e-06	1.150160e-08	3.090369e+01	7.563116e+02
1.330000e-06	4.485200e-06	1.157385e-08	3.133299e+01	7.608580e+02
1.340000e-06	4.545212e-06	1.164100e-08	3.175223e+01	7.652410e+02
1.350000e-06	4.603561e-06	1.170327e-08	3.215985e+01	7.695074e+02
1.360000e-06	4.660082e-06	1.176383e-08	3.255470e+01	7.736692e+02
1.370000e-06	4.714973e-06	1.182401e-08	3.293816e+01	7.776992e+02
1.380000e-06	4.768166e-06	1.188161e-08	3.330976e+01	7.815457e+02
1.390000e-06	4.819362e-06	1.193356e-08	3.366740e+01	7.851576e+02
1.400000e-06	4.868484e-06	1.198078e-08	3.401057e+01	7.885094e+02
1.410000e-06	4.915795e-06	1.202809e-08	3.434107e+01	7.916151e+02
1.420000e-06	4.961495e-06	1.207601e-08	3.466033e+01	7.945235e+02
1.430000e-06	5.005540e-06	1.211894e-08	3.496802e+01	7.972982e+02
1.440000e-06	5.047697e-06	1.215739e-08	3.526252e+01	7.999909e+02
1.450000e-06	5.087985e-06	1.219728e-08	3.554397e+01	8.026203e+02
1.460000e-06	5.126589e-06	1.223830e-08	3.581365e+01	8.051645e+02
1.470000e-06	5.163513e-06	1.227484e-08	3.607160e+01	8.075730e+02
1.480000e-06	5.198647e-06	1.230536e-08	3.631704e+01	8.097894e+02
1.490000e-06	5.231853e-06	1.233315e-08	3.654901e+01	8.117780e+02
1.500000e-06	5.263239e-06	1.235967e-08	3.676827e+01	8.135398e+02
1.510000e-06	5.292909e-06	1.238357e-08	3.697554e+01	8.151139e+02
1.520000e-06	5.320827e-06	1.240525e-08	3.717057e+01	8.165603e+02
1.530000e-06	5.346685e-06	1.242878e-08	3.735121e+01	8.179356e+02
1.540000e-06	5.370486e-06	1.245279e-08	3.751748e+01	8.192690e+02
1.550000e-06	5.392487e-06	1.247130e-08	3.767118e+01	8.205512e+02
1.560000e-06	5.412772e-06	1.248472e-08	3.781289e+01	8.217393e+02
1.570000e-06	5.431166e-06	1.249670e-08	3.794138e+01	8.227773e+02
1.580000e-06	5.447475e-06	1.250889e-08	3.805531e+01	8.236209e+02
1.590000e-06	5.461797e-06	1.251905e-08	3.815537e+01	8.242574e+02
1.600000e-06	5.474092e-06	1.252745e-08	3.824126e+01	8.247116e+02
1.610000e-06	5.484151e-06	1.253693e-08	3.831153e+01	8.250353e+02
1.620000e-06	5.492137e-06	1.254672e-08	3.836732e+01	8.252856e+02
1.630000e-06	5.498320e-06	1.255330e-08	3.841051e+01	8.255011e+02
1.640000e-06	5.502670e-06	1.255436e-08	3.844090e+01	8.256869e+02
1.650000e-06	5.505026e-06	1.255192e-08	3.845736e+01	8.258145e+02
1.660000e-06	5.505404e-06	1.255027e-08	3.846000e+01	8.258364e+02
1.670000e-06	5.504042e-06	1.254947e-08	3.845048e+01	8.257079e+02
1.680000e-06	5.500997e-06	1.254624e-08	3.842921e+01	8.254080e+02
1.690000e-06	5.496063e-06	1.253870e-08	3.839475e+01	8.249473e+02
1.700000e-06	5.489194e-06	1.252969e-08	3.834676e+01	8.243627e+02
1.710000e-06	5.480666e-06	1.252373e-08	3.828718e+01	8.236991e+02
1.720000e-06	5.470501e-06	1.251796e-08	3.821618e+01	8.229880e+02
1.730000e-06	5.458344e-06	1.250894e-08	3.813124e+01	8.222325e+02
1.740000e-06	5.444054e-06	1.247832e-08	3.803142e+01	8.214057e+02
1.750000e-06	5.427767e-06	1.243837e-08	3.791764e+01	8.204640e+02
1.760000e-06	5.409104e-06	1.241886e-08	3.778726e+01	8.193684e+02
1.770000e-06	5.387689e-06	1.241012e-08	3.763766e+01	8.181053e+02
1.780000e-06	5.364133e-06	1.242528e-08	3.747310e+01	8.166958e+02
1.790000e-06	5.339451e-06	1.241781e-08	3.730067e+01	8.151897e+02
1.800000e-06	5.313968e-06	1.235767e-08	3.712266e+01	8.136449e+02
1.810000e-06	5.286726e-06	1.234681e-08	3.693234e+01	8.121020e+02
1.820000e-06	5.257095e-06	1.233854e-08	3.672535e+01	8.105637e+02
1.830000e-06	5.225797e-06	1.229297e-08	3.650671e+01	8.089893e+02
1.840000e-06	5.192807e-06	1.230348e-08	3.627624e+01	8.073076e+02
1.850000e-06	5.157988e-06	1.228241e-08	3.603300e+01	8.054417e+02
1.860000e-06	5.121534e-06	1.223563e-08	3.577834e+01	8.033387e+02
1.870000e-06	5.082994e-06	1.224102e-08	3.550910e+01	8.009894e+02
1.880000e-06	5.042605e-06	1.218355e-08	3.522695e+01	7.984308e+02
1.890000e-06	5.000695e-06	1.211176e-08	3.493417e+01	7.957308e+02
1.900000e-06	4.956931e-06	1.208924e-08	3.462844e+01	7.929600e+02
1.910000e-06	4.911386e-06	1.204347e-08	3.431027e+01	7.901634e+02
1.920000e-06	4.864034e-06	1.202762e-08	3.397947e+01	7.873431e+02
1.930000e-06	4.814845e-06	1.200858e-08	3.363585e+01	7.844590e+02
1.940000e-06	4.763905e-06	1.192196e-08	3.327999e+01	7.814471e+02
1.950000e-06	4.710886e-06	1.185482e-08	3.290961e+01	7.782469e+02
1.960000e-06	4.656020e-06	1.182311e-08	3.252632e+01	7.748272e+02
1.970000e-06	4.599500e-06	1.175930e-08	3.213148e+01	7.711982e+02
1.980000e-06	4.541350e-06	1.169744e-08	3.172525e+01	7.674052e+02
1.990000e-06	4.481727e-06	1.167491e-08	3.130873e+01	7.635086e+02
2.000000e-06	4.420364e-06	1.161339e-08	3.088006e+01	7.595560e+02
2.010000e-06	4.357322e-06	1.153467e-08	3.043966e+01	7.555620e+02
2.020000e-06	4.292730e-06	1.147177e-08	2.998843e+01	7.515018e+02
2.030000e-06	4.226667e-06	1.139026e-08	2.952692e+01	7.473228e+02
2.040000e-06	4.159159e-06	1.133338e-08	2.905531e+01	7.429679e+02
2.050000e-06	4.089928e-06	1.127895e-08	2.857168e+01	7.384007e+02
2.060000e-06	4.019105e-06	1.120658e-08	2.807692e+01	7.336212e+02
2.070000e-06	3.946943e-06	1.113147e-08	2.757280e+01	7.286650e+02
2.080000e-06	3.873448e-06	1.104640e-08	2.705938e+01	7.235864e+02
2.090000e-06	3.798435e-06	1.097406e-08	2.653535e+01	7.184328e+02
2.100000e-06	3.721720e-06	1.089383e-08	2.599943e+01	7.132229e+02
2.110000e-06	3.643455e-06	1.080866e-08	2.545268e+01	7.079358e+02
2.120000e-06	3.563895e-06	1.072752e-08	2.489689e+01	7.025195e+02
2.130000e-06	3.483220e-06	1.065061e-08	2.433330e+01	6.969119e+02
2.140000e-06	3.401428e-06	1.056533e-08	2.376191e+01	6.910668e+02
2.150000e-06	3.318528e-06	1.045584e-08	2.318278e+01	6.849732e+02
2.160000e-06	3.234414e-06	1.036271e-08	2.259518e+01	6.786581e+02
2.170000e-06	3.148932e-06	1.027294e-08	2.199801e+01	6.721733e+02
2.180000e-06	3.062252e-06	1.017718e-08	2.139248e+01	6.655702e+02
2.190000e-06	2.974532e-06	1.007753e-08	2.077968e+01	6.588754e+02
2.200000e-06	2.885849e-06	9.963376e-09	2.016014e+01	6.520774e+02
2.210000e-06	2.796222e-06	9.860212e-09	1.953402e+01	6.451304e+02
2.220000e-06	2.705721e-06	9.755689e-09	1.890179e+01	6.379744e+02
2.230000e-06	2.614347e-06	9.644649e-09	1.826347e+01	6.305613e+02
2.240000e-06	2.521962e-06	9.526761e-09	1.761808e+01	6.228763e+02
2.250000e-06	2.428521e-06	9.404838e-09	1.696532e+01	6.149422e+02
2.260000e-06	2.334163e-06	9.292497e-09	1.630614e+01	6.068069e+02
2.270000e-06	2.239040e-06	9.169088e-09	1.564162e+01	5.985162e+02
2.280000e-06	2.143129e-06	9.039466e-09	1.497160e+01	5.900864e+02
2.290000e-06	2.046516e-06	8.906820e-09	1.429668e+01	5.814891e+02
2.300000e-06	1.949221e-06	8.773561e-09	1.361699e+01	5.726551e+02
2.310000e-06	1.851233e-06	8.637583e-09	1.293246e+01	5.634992e+02
2.320000e-06	1.752727e-06	8.486577e-09	1.224431e+01	5.539531e+02
2.330000e-06	1.653803e-06	8.333811e-09	1.155324e+01	5.439941e+02
2.340000e-06	1.554408e-06	8.179731e-09	1.085888e+01	5.336538e+02
2.350000e-06	1.454390e-06	8.022676e-09	1.016017e+01	5.230025e+02
2.360000e-06	1.353690e-06	7.861279e-09	9.456692e+00	5.121142e+02
2.370000e-06	1.252340e-06	7.692606e-09	8.748676e+00	5.010263e+02
2.380000e-06	1.150442e-06	7.520191e-09	8.036830e+00	4.897123e+02
2.390000e-06	1.048157e-06	7.339389e-09	7.322284e+00	4.780807e+02
2.400000e-06	9.455323e-07	7.149783e-09	6.605359e+00	4.660026e+02
2.410000e-06	8.424951e-07	6.954211e-09	5.885556e+00	4.533572e+02
2.420000e-06	7.390836e-07	6.753665e-09	5.163137e+00	4.400765e+02
2.430000e-06	6.354143e-07	6.547734e-09	4.438918e+00	4.261677e+02
2.440000e-06	5.315464e-07	6.330928e-09	3.713311e+00	4.117017e+02
2.450000e-06	4.275391e-07	6.103457e-09	2.986729e+00	3.967698e+02
2.460000e-06	3.234024e-07	5.867533e-09	2.259245e+00	3.814245e+02
2.470000e-06	2.191528e-07	5.621757e-09	1.530972e+00	3.656320e+02
2.480000e-06	1.148588e-07	5.366593e-09	8.023876e-01	3.492568e+02
2.490000e-06	1.055679e-08	5.098843e-09	7.374826e-02	3.320911e+02
2.500000e-06	-9.376690e-08	4.821106e-09	-6.550428e-01	3.139168e+02
2.510000e-06	-1.980609e-07	4.533447e-09	-1.383626e+00	2.945763e+02
2.520000e-06	-3.022969e-07	4.227694e-09	-2.111805e+00	2.740157e+02
2.530000e-06	-4.064634e-07	3.900526e-09	-2.839498e+00	2.522733e+02
2.540000e-06	-5.104384e-07	3.551066e-09	-3.565853e+00	2.294054e+02
2.550000e-06	-6.142051e-07	3.184083e-09	-4.290753e+00	2.053691e+02
2.560000e-06	-7.177677e-07	2.795253e-09	-5.014227e+00	1.799043e+02
2.570000e-06	-8.210719e-07	2.371674e-09	-5.735896e+00	1.524679e+02
2.580000e-06	-9.240361e-07	1.906170e-09	-6.455190e+00	1.222628e+02
2.590000e-06	-1.026619e-06	1.391214e-09	-7.171817e+00	8.837781e+01
2.600000e-06	-1.128785e-06	8.151636e-10	-7.885536e+00	5.001611e+01
2.610000e-06	-1.230508e-06	1.684622e-10	-8.596159e+00	6.755742e+00
2.620000e-06	-1.331756e-06	-5.513839e-10	-9.303466e+00	-4.123322e+01
2.630000e-06	-1.432353e-06	-1.340315e-09	-1.000622e+01	-9.308599e+01
2.640000e-06	-1.532236e-06	-2.179459e-09	-1.070399e+01	-1.472974e+02
2.650000e-06	-1.631519e-06	-3.030183e-09	-1.139757e+01	-2.019317e+02
2.660000e-06	-1.730286e-06	-3.848962e-09	-1.208754e+01	-2.549402e+02
2.670000e-06	-1.828544e-06	-4.605970e-09	-1.277396e+01	-3.045078e+02
2.680000e-06	-1.926239e-06	-5.287995e-09	-1.345644e+01	-3.493400e+02
2.690000e-06	-2.023269e-06	-5.890919e-09	-1.413428e+01	-3.888202e+02
2.700000e-06	-2.119624e-06	-6.416892e-09	-1.480740e+01	-4.230076e+02
2.710000e-06	-2.215326e-06	-6.873635e-09	-1.547596e+01	-4.524899e+02
2.720000e-06	-2.310333e-06	-7.273955e-09	-1.613967e+01	-4.781470e+02
2.730000e-06	-2.404671e-06	-7.632786e-09	-1.679870e+01	-5.008980e+02
2.740000e-06	-2.498151e-06	-7.957198e-09	-1.745174e+01	-5.215026e+02
2.750000e-06	-2.590454e-06	-8.248683e-09	-1.809656e+01	-5.404592e+02
2.760000e-06	-2.681636e-06	-8.511987e-09	-1.873354e+01	-5.580094e+02
2.770000e-06	-2.771883e-06	-8.753895e-09	-1.936399e+01	-5.742198e+02
2.780000e-06	-2.861152e-06	-8.981555e-09	-1.998761e+01	-5.890973e+02
2.790000e-06	-2.949401e-06	-9.193493e-09	-2.060412e+01	-6.026869e+02
2.800000e-06	-3.036673e-06	-9.386267e-09	-2.121379e+01	-6.151210e+02
2.810000e-06	-3.122918e-06	-9.566309e-09	-2.181628e+01	-6.266098e+02
2.820000e-06	-3.208009e-06	-9.738288e-09	-2.241071e+01	-6.373892e+02
2.830000e-06	-3.291799e-06	-9.898718e-09	-2.299606e+01	-6.476564e+02
2.840000e-06	-3.374389e-06	-1.004555e-08	-2.357302e+01	-6.575217e+02
2.850000e-06	-3.455926e-06	-1.018466e-08	-2.414262e+01	-6.669981e+02
2.860000e-06	-3.536364e-06	-1.032101e-08	-2.470455e+01	-6.760281e+02
2.870000e-06	-3.615632e-06	-1.044990e-08	-2.525831e+01	-6.845346e+02
2.880000e-06	-3.693601e-06	-1.056926e-08	-2.580299e+01	-6.924712e+02
2.890000e-06	-3.769944e-06	-1.068234e-08	-2.633631e+01	-6.998525e+02
2.900000e-06	-3.844680e-06	-1.079295e-08	-2.685841e+01	-7.067543e+02
2.910000e-06	-3.918094e-06	-1.089965e-08	-2.737127e+01	-7.132862e+02
2.920000e-06	-3.990189e-06	-1.099627e-08	-2.787492e+01	-7.195523e+02
2.930000e-06	-4.060917e-06	-1.108518e-08	-2.836901e+01	-7.256176e+02
2.940000e-06	-4.130107e-06	-1.117219e-08	-2.885236e+01	-7.314946e+02
