# Temperatura_=_39.7
# Concentracion g/m^3_=_13400.0
# C_Vs_to_Am_M_A/Vsm_=_65563218390.804596
# pendiente_HvsI_1/m_=_3716.3
# ordenada_HvsI_A/m_=_1297.0
# frecuencia_Hz_=_300813.89004925615

Tiempo_(s)	Campo_(V.s)	Magnetizacion_(V.s)	Campo_(kA/m)	Magnetizacion_(A/m)
0.000000e+00	-5.490581e-06	-1.215476e-08	-3.830440e+01	-7.949734e+02
1.000000e-08	-5.489150e-06	-1.215569e-08	-3.829441e+01	-7.948980e+02
2.000000e-08	-5.485782e-06	-1.215854e-08	-3.827092e+01	-7.946982e+02
3.000000e-08	-5.480584e-06	-1.215663e-08	-3.823466e+01	-7.943496e+02
4.000000e-08	-5.473709e-06	-1.214903e-08	-3.818669e+01	-7.938512e+02
5.000000e-08	-5.465225e-06	-1.213744e-08	-3.812751e+01	-7.932233e+02
6.000000e-08	-5.454880e-06	-1.212107e-08	-3.805533e+01	-7.924953e+02
7.000000e-08	-5.442478e-06	-1.210230e-08	-3.796882e+01	-7.916922e+02
8.000000e-08	-5.428048e-06	-1.209904e-08	-3.786815e+01	-7.908244e+02
9.000000e-08	-5.411294e-06	-1.209983e-08	-3.775126e+01	-7.898862e+02
1.000000e-07	-5.392165e-06	-1.208171e-08	-3.761781e+01	-7.888631e+02
1.100000e-07	-5.371033e-06	-1.206376e-08	-3.747039e+01	-7.877430e+02
1.200000e-07	-5.348100e-06	-1.202952e-08	-3.731040e+01	-7.865263e+02
1.300000e-07	-5.323657e-06	-1.198369e-08	-3.713988e+01	-7.852287e+02
1.400000e-07	-5.297763e-06	-1.200981e-08	-3.695923e+01	-7.838750e+02
1.500000e-07	-5.270024e-06	-1.196514e-08	-3.676571e+01	-7.824866e+02
1.600000e-07	-5.240475e-06	-1.191496e-08	-3.655956e+01	-7.810682e+02
1.700000e-07	-5.209369e-06	-1.194923e-08	-3.634255e+01	-7.795999e+02
1.800000e-07	-5.176452e-06	-1.188004e-08	-3.611292e+01	-7.780400e+02
1.900000e-07	-5.141494e-06	-1.182946e-08	-3.586903e+01	-7.763373e+02
2.000000e-07	-5.104869e-06	-1.183431e-08	-3.561353e+01	-7.744484e+02
2.100000e-07	-5.066544e-06	-1.176779e-08	-3.534616e+01	-7.723537e+02
2.200000e-07	-5.026397e-06	-1.174227e-08	-3.506607e+01	-7.700643e+02
2.300000e-07	-4.984441e-06	-1.174239e-08	-3.477338e+01	-7.676174e+02
2.400000e-07	-4.940528e-06	-1.169069e-08	-3.446702e+01	-7.650614e+02
2.500000e-07	-4.894802e-06	-1.164966e-08	-3.414802e+01	-7.624376e+02
2.600000e-07	-4.847280e-06	-1.158092e-08	-3.381649e+01	-7.597642e+02
2.700000e-07	-4.797764e-06	-1.153410e-08	-3.347105e+01	-7.570313e+02
2.800000e-07	-4.746182e-06	-1.149947e-08	-3.311119e+01	-7.542074e+02
2.900000e-07	-4.692619e-06	-1.146287e-08	-3.273751e+01	-7.512537e+02
3.000000e-07	-4.637345e-06	-1.142970e-08	-3.235190e+01	-7.481419e+02
3.100000e-07	-4.580547e-06	-1.137091e-08	-3.195565e+01	-7.448650e+02
3.200000e-07	-4.521926e-06	-1.132653e-08	-3.154669e+01	-7.414391e+02
3.300000e-07	-4.461563e-06	-1.126446e-08	-3.112557e+01	-7.378937e+02
3.400000e-07	-4.399744e-06	-1.118765e-08	-3.069430e+01	-7.342567e+02
3.500000e-07	-4.336371e-06	-1.113049e-08	-3.025219e+01	-7.305399e+02
3.600000e-07	-4.271553e-06	-1.107355e-08	-2.979999e+01	-7.267325e+02
3.700000e-07	-4.205172e-06	-1.102578e-08	-2.933689e+01	-7.228054e+02
3.800000e-07	-4.137063e-06	-1.096787e-08	-2.886174e+01	-7.187241e+02
3.900000e-07	-4.067438e-06	-1.089558e-08	-2.837601e+01	-7.144647e+02
4.000000e-07	-3.996493e-06	-1.082938e-08	-2.788107e+01	-7.100251e+02
4.100000e-07	-3.924311e-06	-1.075383e-08	-2.737750e+01	-7.054267e+02
4.200000e-07	-3.850733e-06	-1.067915e-08	-2.686419e+01	-7.007048e+02
4.300000e-07	-3.775475e-06	-1.059603e-08	-2.633916e+01	-6.958921e+02
4.400000e-07	-3.698536e-06	-1.052726e-08	-2.580241e+01	-6.910027e+02
4.500000e-07	-3.620134e-06	-1.046072e-08	-2.525544e+01	-6.860240e+02
4.600000e-07	-3.540271e-06	-1.038399e-08	-2.469829e+01	-6.809196e+02
4.700000e-07	-3.458939e-06	-1.030070e-08	-2.413089e+01	-6.756437e+02
4.800000e-07	-3.376395e-06	-1.020322e-08	-2.355503e+01	-6.701594e+02
4.900000e-07	-3.292712e-06	-1.011453e-08	-2.297122e+01	-6.644533e+02
5.000000e-07	-3.207997e-06	-1.002763e-08	-2.238022e+01	-6.585406e+02
5.100000e-07	-3.122364e-06	-9.939109e-09	-2.178281e+01	-6.524562e+02
5.200000e-07	-3.035773e-06	-9.845214e-09	-2.117872e+01	-6.462380e+02
5.300000e-07	-2.948227e-06	-9.750127e-09	-2.056797e+01	-6.399076e+02
5.400000e-07	-2.859777e-06	-9.650758e-09	-1.995090e+01	-6.334592e+02
5.500000e-07	-2.770367e-06	-9.542517e-09	-1.932714e+01	-6.268597e+02
5.600000e-07	-2.679762e-06	-9.432101e-09	-1.869505e+01	-6.200623e+02
5.700000e-07	-2.587970e-06	-9.319565e-09	-1.805467e+01	-6.130267e+02
5.800000e-07	-2.495287e-06	-9.209379e-09	-1.740808e+01	-6.057356e+02
5.900000e-07	-2.401849e-06	-9.099330e-09	-1.675622e+01	-5.982020e+02
6.000000e-07	-2.307581e-06	-8.986193e-09	-1.609857e+01	-5.904601e+02
6.100000e-07	-2.212477e-06	-8.864946e-09	-1.543509e+01	-5.825463e+02
6.200000e-07	-2.116606e-06	-8.735286e-09	-1.476626e+01	-5.744767e+02
6.300000e-07	-2.020039e-06	-8.601396e-09	-1.409257e+01	-5.662321e+02
6.400000e-07	-1.922745e-06	-8.467559e-09	-1.341381e+01	-5.577587e+02
6.500000e-07	-1.824674e-06	-8.333250e-09	-1.272963e+01	-5.489845e+02
6.600000e-07	-1.725814e-06	-8.196230e-09	-1.203994e+01	-5.398461e+02
6.700000e-07	-1.626188e-06	-8.054565e-09	-1.134491e+01	-5.303134e+02
6.800000e-07	-1.525949e-06	-7.905196e-09	-1.064561e+01	-5.204008e+02
6.900000e-07	-1.425266e-06	-7.746941e-09	-9.943202e+00	-5.101589e+02
7.000000e-07	-1.324146e-06	-7.580620e-09	-9.237750e+00	-4.996486e+02
7.100000e-07	-1.222573e-06	-7.412206e-09	-8.529140e+00	-4.889076e+02
7.200000e-07	-1.120574e-06	-7.240700e-09	-7.817553e+00	-4.779241e+02
7.300000e-07	-1.018195e-06	-7.067224e-09	-7.103318e+00	-4.666303e+02
7.400000e-07	-9.154769e-07	-6.891772e-09	-6.386718e+00	-4.549199e+02
7.500000e-07	-8.123943e-07	-6.707988e-09	-5.667575e+00	-4.426832e+02
7.600000e-07	-7.090409e-07	-6.510365e-09	-4.946541e+00	-4.298468e+02
7.700000e-07	-6.054681e-07	-6.301777e-09	-4.223978e+00	-4.163973e+02
7.800000e-07	-5.016861e-07	-6.087933e-09	-3.499955e+00	-4.023799e+02
7.900000e-07	-3.977645e-07	-5.870862e-09	-2.774958e+00	-3.878676e+02
8.000000e-07	-2.937035e-07	-5.646956e-09	-2.048988e+00	-3.729136e+02
8.100000e-07	-1.895283e-07	-5.411461e-09	-1.322222e+00	-3.575063e+02
8.200000e-07	-8.527757e-08	-5.166692e-09	-5.949290e-01	-3.415488e+02
8.300000e-07	1.899554e-08	-4.909767e-09	1.325202e-01	-3.248730e+02
8.400000e-07	1.232371e-07	-4.637682e-09	8.597491e-01	-3.072866e+02
8.500000e-07	2.274401e-07	-4.350296e-09	1.586710e+00	-2.886324e+02
8.600000e-07	3.315648e-07	-4.049973e-09	2.313123e+00	-2.688327e+02
8.700000e-07	4.355488e-07	-3.736795e-09	3.038556e+00	-2.478916e+02
8.800000e-07	5.393955e-07	-3.406008e-09	3.763030e+00	-2.258437e+02
8.900000e-07	6.430852e-07	-3.053337e-09	4.486409e+00	-2.026593e+02
9.000000e-07	7.465151e-07	-2.673884e-09	5.207976e+00	-1.781393e+02
9.100000e-07	8.496527e-07	-2.264509e-09	5.927503e+00	-1.518435e+02
9.200000e-07	9.525478e-07	-1.817538e-09	6.645339e+00	-1.230943e+02
9.300000e-07	1.055124e-06	-1.323643e-09	7.360951e+00	-9.107728e+01
9.400000e-07	1.157288e-06	-7.743425e-10	8.073682e+00	-5.502860e+01
9.500000e-07	1.259090e-06	-1.615403e-10	8.783892e+00	-1.446648e+01
9.600000e-07	1.360562e-06	5.205136e-10	9.491806e+00	3.059649e+01
9.700000e-07	1.461604e-06	1.269390e-09	1.019671e+01	7.952748e+01
9.800000e-07	1.562136e-06	2.064344e-09	1.089806e+01	1.310810e+02
9.900000e-07	1.662068e-06	2.872181e-09	1.159523e+01	1.835512e+02
1.000000e-06	1.761284e-06	3.659336e-09	1.228739e+01	2.350388e+02
1.010000e-06	1.859796e-06	4.396325e-09	1.297465e+01	2.837671e+02
1.020000e-06	1.957632e-06	5.062004e-09	1.365719e+01	3.283683e+02
1.030000e-06	2.054683e-06	5.650773e-09	1.433425e+01	3.680692e+02
1.040000e-06	2.150900e-06	6.167664e-09	1.500550e+01	4.027351e+02
1.050000e-06	2.246401e-06	6.623049e-09	1.567175e+01	4.327728e+02
1.060000e-06	2.341198e-06	7.025261e-09	1.633309e+01	4.589317e+02
1.070000e-06	2.435239e-06	7.378563e-09	1.698916e+01	4.820686e+02
1.080000e-06	2.528523e-06	7.693235e-09	1.763995e+01	5.029419e+02
1.090000e-06	2.620927e-06	7.981220e-09	1.828459e+01	5.220863e+02
1.100000e-06	2.712313e-06	8.248171e-09	1.892214e+01	5.397873e+02
1.110000e-06	2.802650e-06	8.492809e-09	1.955236e+01	5.561388e+02
1.120000e-06	2.891948e-06	8.715725e-09	2.017534e+01	5.711481e+02
1.130000e-06	2.980190e-06	8.920736e-09	2.079095e+01	5.848385e+02
1.140000e-06	3.067400e-06	9.109932e-09	2.139936e+01	5.973135e+02
1.150000e-06	3.153626e-06	9.285376e-09	2.200090e+01	6.087652e+02
1.160000e-06	3.238858e-06	9.449524e-09	2.259551e+01	6.194332e+02
1.170000e-06	3.323023e-06	9.604183e-09	2.318269e+01	6.295405e+02
1.180000e-06	3.406020e-06	9.752356e-09	2.376171e+01	6.392353e+02
1.190000e-06	3.487799e-06	9.894925e-09	2.433223e+01	6.485649e+02
1.200000e-06	3.568316e-06	1.002888e-08	2.489394e+01	6.574882e+02
1.210000e-06	3.647563e-06	1.015479e-08	2.544680e+01	6.659201e+02
1.220000e-06	3.725492e-06	1.027416e-08	2.599046e+01	6.737868e+02
1.230000e-06	3.802001e-06	1.038636e-08	2.652422e+01	6.810691e+02
1.240000e-06	3.876993e-06	1.048980e-08	2.704739e+01	6.878172e+02
1.250000e-06	3.950420e-06	1.058528e-08	2.755965e+01	6.941357e+02
1.260000e-06	4.022401e-06	1.067547e-08	2.806181e+01	7.001466e+02
1.270000e-06	4.093026e-06	1.076387e-08	2.855452e+01	7.059490e+02
1.280000e-06	4.162235e-06	1.085042e-08	2.903735e+01	7.115914e+02
1.290000e-06	4.229939e-06	1.093294e-08	2.950968e+01	7.170683e+02
1.300000e-06	4.296036e-06	1.101190e-08	2.997079e+01	7.223382e+02
1.310000e-06	4.360538e-06	1.108708e-08	3.042079e+01	7.273545e+02
1.320000e-06	4.423599e-06	1.115754e-08	3.086072e+01	7.320935e+02
1.330000e-06	4.485288e-06	1.122335e-08	3.129109e+01	7.365686e+02
1.340000e-06	4.545502e-06	1.128618e-08	3.171117e+01	7.408245e+02
1.350000e-06	4.604058e-06	1.134839e-08	3.211967e+01	7.449161e+02
1.360000e-06	4.660858e-06	1.141036e-08	3.251593e+01	7.488838e+02
1.370000e-06	4.715950e-06	1.147105e-08	3.290027e+01	7.527353e+02
1.380000e-06	4.769277e-06	1.152668e-08	3.327231e+01	7.564438e+02
1.390000e-06	4.820676e-06	1.157446e-08	3.363088e+01	7.599621e+02
1.400000e-06	4.870115e-06	1.161835e-08	3.397579e+01	7.632462e+02
1.410000e-06	4.917742e-06	1.166321e-08	3.430805e+01	7.662773e+02
1.420000e-06	4.963756e-06	1.170864e-08	3.462907e+01	7.690729e+02
1.430000e-06	5.008097e-06	1.175043e-08	3.493841e+01	7.716806e+02
1.440000e-06	5.050529e-06	1.178797e-08	3.523443e+01	7.741596e+02
1.450000e-06	5.091084e-06	1.182484e-08	3.551735e+01	7.765557e+02
1.460000e-06	5.129957e-06	1.186051e-08	3.578855e+01	7.788835e+02
1.470000e-06	5.167179e-06	1.189094e-08	3.604822e+01	7.811210e+02
1.480000e-06	5.202559e-06	1.191770e-08	3.629505e+01	7.832214e+02
1.490000e-06	5.235968e-06	1.194460e-08	3.652812e+01	7.851343e+02
1.500000e-06	5.267527e-06	1.197013e-08	3.674829e+01	7.868292e+02
1.510000e-06	5.297418e-06	1.199136e-08	3.695682e+01	7.883105e+02
1.520000e-06	5.325506e-06	1.201146e-08	3.715278e+01	7.896160e+02
1.530000e-06	5.351555e-06	1.203336e-08	3.733450e+01	7.908033e+02
1.540000e-06	5.375597e-06	1.205317e-08	3.750223e+01	7.919256e+02
1.550000e-06	5.397800e-06	1.206688e-08	3.765712e+01	7.930117e+02
1.560000e-06	5.418242e-06	1.207859e-08	3.779974e+01	7.940547e+02
1.570000e-06	5.436786e-06	1.209273e-08	3.792911e+01	7.950172e+02
1.580000e-06	5.453345e-06	1.210706e-08	3.804463e+01	7.958482e+02
1.590000e-06	5.467934e-06	1.211625e-08	3.814640e+01	7.965060e+02
1.600000e-06	5.480398e-06	1.212172e-08	3.823336e+01	7.969759e+02
1.610000e-06	5.490651e-06	1.212966e-08	3.830489e+01	7.972769e+02
1.620000e-06	5.498881e-06	1.213837e-08	3.836231e+01	7.974539e+02
1.630000e-06	5.505292e-06	1.214294e-08	3.840703e+01	7.975597e+02
1.640000e-06	5.509840e-06	1.214295e-08	3.843876e+01	7.976345e+02
1.650000e-06	5.512345e-06	1.214413e-08	3.845624e+01	7.976909e+02
1.660000e-06	5.512885e-06	1.214597e-08	3.846000e+01	7.977114e+02
1.670000e-06	5.511637e-06	1.214580e-08	3.845129e+01	7.976576e+02
1.680000e-06	5.508728e-06	1.214224e-08	3.843100e+01	7.974873e+02
1.690000e-06	5.503946e-06	1.213465e-08	3.839764e+01	7.971714e+02
1.700000e-06	5.497193e-06	1.212677e-08	3.835053e+01	7.967040e+02
1.710000e-06	5.488739e-06	1.211978e-08	3.829155e+01	7.961015e+02
1.720000e-06	5.478608e-06	1.211115e-08	3.822087e+01	7.953925e+02
1.730000e-06	5.466581e-06	1.210294e-08	3.813697e+01	7.946040e+02
1.740000e-06	5.452581e-06	1.207474e-08	3.803930e+01	7.937500e+02
1.750000e-06	5.436577e-06	1.206342e-08	3.792765e+01	7.928280e+02
1.760000e-06	5.418116e-06	1.204403e-08	3.779886e+01	7.918243e+02
1.770000e-06	5.396891e-06	1.202236e-08	3.765078e+01	7.907255e+02
1.780000e-06	5.373427e-06	1.204126e-08	3.748709e+01	7.895287e+02
1.790000e-06	5.348743e-06	1.199711e-08	3.731488e+01	7.882464e+02
1.800000e-06	5.323298e-06	1.197475e-08	3.713737e+01	7.869026e+02
1.810000e-06	5.296197e-06	1.197707e-08	3.694830e+01	7.855205e+02
1.820000e-06	5.266753e-06	1.191081e-08	3.674289e+01	7.841093e+02
1.830000e-06	5.235659e-06	1.192300e-08	3.652597e+01	7.826545e+02
1.840000e-06	5.202870e-06	1.192205e-08	3.629722e+01	7.811185e+02
1.850000e-06	5.168203e-06	1.184468e-08	3.605537e+01	7.794506e+02
1.860000e-06	5.131871e-06	1.184565e-08	3.580190e+01	7.776042e+02
1.870000e-06	5.093463e-06	1.181610e-08	3.553395e+01	7.755538e+02
1.880000e-06	5.053196e-06	1.174986e-08	3.525303e+01	7.733036e+02
1.890000e-06	5.011396e-06	1.173172e-08	3.496142e+01	7.708865e+02
1.900000e-06	4.967749e-06	1.167974e-08	3.465692e+01	7.683499e+02
1.910000e-06	4.922315e-06	1.166727e-08	3.433996e+01	7.657381e+02
1.920000e-06	4.875005e-06	1.164845e-08	3.400991e+01	7.630752e+02
1.930000e-06	4.825812e-06	1.158494e-08	3.366672e+01	7.603572e+02
1.940000e-06	4.774926e-06	1.155720e-08	3.331172e+01	7.575560e+02
1.950000e-06	4.721962e-06	1.148278e-08	3.294222e+01	7.546331e+02
1.960000e-06	4.667114e-06	1.143992e-08	3.255958e+01	7.515565e+02
1.970000e-06	4.610657e-06	1.139190e-08	3.216571e+01	7.483143e+02
1.980000e-06	4.552577e-06	1.132343e-08	3.176053e+01	7.449181e+02
1.990000e-06	4.493020e-06	1.131561e-08	3.134503e+01	7.413957e+02
2.000000e-06	4.431730e-06	1.125581e-08	3.091745e+01	7.377766e+02
2.010000e-06	4.368769e-06	1.120030e-08	3.047821e+01	7.340770e+02
2.020000e-06	4.304278e-06	1.113286e-08	3.002830e+01	7.302910e+02
2.030000e-06	4.238316e-06	1.105038e-08	2.956812e+01	7.263925e+02
2.040000e-06	4.170945e-06	1.100657e-08	2.909812e+01	7.223469e+02
2.050000e-06	4.101777e-06	1.092868e-08	2.861557e+01	7.181266e+02
2.060000e-06	4.030961e-06	1.087253e-08	2.812153e+01	7.137245e+02
2.070000e-06	3.958821e-06	1.080861e-08	2.761826e+01	7.091574e+02
2.080000e-06	3.885395e-06	1.074306e-08	2.710600e+01	7.044588e+02
2.090000e-06	3.810494e-06	1.068041e-08	2.658347e+01	6.996635e+02
2.100000e-06	3.733830e-06	1.058911e-08	2.604863e+01	6.947907e+02
2.110000e-06	3.655598e-06	1.051596e-08	2.550285e+01	6.898336e+02
2.120000e-06	3.576090e-06	1.042814e-08	2.494817e+01	6.847599e+02
2.130000e-06	3.495420e-06	1.035569e-08	2.438539e+01	6.795244e+02
2.140000e-06	3.413570e-06	1.027595e-08	2.381438e+01	6.740868e+02
2.150000e-06	3.330613e-06	1.018469e-08	2.323564e+01	6.684279e+02
2.160000e-06	3.246447e-06	1.010886e-08	2.264846e+01	6.625570e+02
2.170000e-06	3.160887e-06	1.001593e-08	2.205156e+01	6.565059e+02
2.180000e-06	3.074185e-06	9.921194e-09	2.144669e+01	6.503137e+02
2.190000e-06	2.986529e-06	9.814550e-09	2.083518e+01	6.440069e+02
2.200000e-06	2.897901e-06	9.716355e-09	2.021687e+01	6.375858e+02
2.210000e-06	2.808271e-06	9.625887e-09	1.959158e+01	6.310223e+02
2.220000e-06	2.717678e-06	9.525862e-09	1.895957e+01	6.242713e+02
2.230000e-06	2.626253e-06	9.421862e-09	1.832175e+01	6.172891e+02
2.240000e-06	2.533894e-06	9.309308e-09	1.767742e+01	6.100527e+02
2.250000e-06	2.440383e-06	9.198772e-09	1.702505e+01	6.025686e+02
2.260000e-06	2.345876e-06	9.082579e-09	1.636573e+01	5.948680e+02
2.270000e-06	2.250629e-06	8.965505e-09	1.570125e+01	5.869886e+02
2.280000e-06	2.154651e-06	8.848911e-09	1.503167e+01	5.789527e+02
2.290000e-06	2.057944e-06	8.727500e-09	1.435701e+01	5.707491e+02
2.300000e-06	1.960558e-06	8.600281e-09	1.367761e+01	5.623305e+02
2.310000e-06	1.862547e-06	8.463772e-09	1.299384e+01	5.536269e+02
2.320000e-06	1.763975e-06	8.321584e-09	1.230617e+01	5.445705e+02
2.330000e-06	1.664905e-06	8.176260e-09	1.161502e+01	5.351226e+02
2.340000e-06	1.565383e-06	8.032586e-09	1.092071e+01	5.252880e+02
2.350000e-06	1.465344e-06	7.886174e-09	1.022280e+01	5.151114e+02
2.360000e-06	1.364626e-06	7.733149e-09	9.520156e+00	5.046541e+02
2.370000e-06	1.263188e-06	7.571487e-09	8.812481e+00	4.939616e+02
2.380000e-06	1.161205e-06	7.401153e-09	8.101013e+00	4.830340e+02
2.390000e-06	1.058725e-06	7.225014e-09	7.386071e+00	4.718148e+02
2.400000e-06	9.557756e-07	7.045302e-09	6.667857e+00	4.602033e+02
2.410000e-06	8.525327e-07	6.863339e-09	5.947595e+00	4.480873e+02
2.420000e-06	7.490417e-07	6.674773e-09	5.225602e+00	4.353827e+02
2.430000e-06	6.452956e-07	6.475225e-09	4.501830e+00	4.220625e+02
2.440000e-06	5.413517e-07	6.262871e-09	3.776678e+00	4.081610e+02
2.450000e-06	4.372320e-07	6.041792e-09	3.050298e+00	3.937488e+02
2.460000e-06	3.329868e-07	5.813284e-09	2.323044e+00	3.788876e+02
2.470000e-06	2.286491e-07	5.577287e-09	1.595144e+00	3.635826e+02
2.480000e-06	1.242172e-07	5.334150e-09	8.665867e-01	3.477553e+02
2.490000e-06	1.974478e-08	5.081457e-09	1.377472e-01	3.312497e+02
2.500000e-06	-8.473909e-08	4.817665e-09	-5.911724e-01	3.138737e+02
2.510000e-06	-1.891839e-07	4.537700e-09	-1.319820e+00	2.954579e+02
2.520000e-06	-2.934931e-07	4.240351e-09	-2.047521e+00	2.759057e+02
2.530000e-06	-3.976880e-07	3.928058e-09	-2.774424e+00	2.552061e+02
2.540000e-06	-5.017567e-07	3.600428e-09	-3.500447e+00	2.333940e+02
2.550000e-06	-6.056172e-07	3.253693e-09	-4.225018e+00	2.104626e+02
2.560000e-06	-7.092810e-07	2.882890e-09	-4.948217e+00	1.862571e+02
2.570000e-06	-8.127134e-07	2.483099e-09	-5.669801e+00	1.603916e+02
2.580000e-06	-9.158617e-07	2.049942e-09	-6.389403e+00	1.322344e+02
2.590000e-06	-1.018651e-06	1.575043e-09	-7.106498e+00	1.009870e+02
2.600000e-06	-1.120928e-06	1.045184e-09	-7.820021e+00	6.585605e+01
2.610000e-06	-1.222684e-06	4.505977e-10	-8.529910e+00	2.627955e+01
2.620000e-06	-1.323930e-06	-2.117518e-10	-9.236241e+00	-1.785023e+01
2.630000e-06	-1.424663e-06	-9.400846e-10	-9.938995e+00	-6.603773e+01
2.640000e-06	-1.524883e-06	-1.724593e-09	-1.063817e+01	-1.171606e+02
2.650000e-06	-1.624517e-06	-2.537401e-09	-1.133325e+01	-1.695925e+02
2.660000e-06	-1.723488e-06	-3.338779e-09	-1.202371e+01	-2.214492e+02
2.670000e-06	-1.821812e-06	-4.094417e-09	-1.270966e+01	-2.709015e+02
2.680000e-06	-1.919558e-06	-4.788256e-09	-1.339157e+01	-3.164741e+02
2.690000e-06	-2.016684e-06	-5.411912e-09	-1.406916e+01	-3.572576e+02
2.700000e-06	-2.113139e-06	-5.959918e-09	-1.474207e+01	-3.929842e+02
2.710000e-06	-2.209000e-06	-6.438094e-09	-1.541083e+01	-4.239586e+02
2.720000e-06	-2.304259e-06	-6.858170e-09	-1.607540e+01	-4.508767e+02
2.730000e-06	-2.398731e-06	-7.232454e-09	-1.673447e+01	-4.745915e+02
2.740000e-06	-2.492237e-06	-7.566331e-09	-1.738680e+01	-4.958961e+02
2.750000e-06	-2.584755e-06	-7.865259e-09	-1.803224e+01	-5.153790e+02
2.760000e-06	-2.676307e-06	-8.138693e-09	-1.867095e+01	-5.333762e+02
2.770000e-06	-2.766838e-06	-8.390284e-09	-1.930252e+01	-5.500151e+02
2.780000e-06	-2.856321e-06	-8.623818e-09	-1.992679e+01	-5.653119e+02
2.790000e-06	-2.944802e-06	-8.841826e-09	-2.054407e+01	-5.792795e+02
2.800000e-06	-3.032355e-06	-9.040030e-09	-2.115487e+01	-5.920015e+02
2.810000e-06	-3.118805e-06	-9.220051e-09	-2.175798e+01	-6.036530e+02
2.820000e-06	-3.204016e-06	-9.389513e-09	-2.235245e+01	-6.144686e+02
2.830000e-06	-3.288046e-06	-9.549346e-09	-2.293867e+01	-6.246803e+02
2.840000e-06	-3.370906e-06	-9.697907e-09	-2.351673e+01	-6.344561e+02
2.850000e-06	-3.452644e-06	-9.838547e-09	-2.408697e+01	-6.438649e+02
2.860000e-06	-3.533259e-06	-9.974170e-09	-2.464937e+01	-6.528818e+02
2.870000e-06	-3.612649e-06	-1.010251e-08	-2.520323e+01	-6.614264e+02
2.880000e-06	-3.690694e-06	-1.022323e-08	-2.574770e+01	-6.694182e+02
2.890000e-06	-3.767309e-06	-1.033728e-08	-2.628219e+01	-6.768238e+02
2.900000e-06	-3.842399e-06	-1.044546e-08	-2.680605e+01	-6.836789e+02
2.910000e-06	-3.915997e-06	-1.054715e-08	-2.731950e+01	-6.900792e+02
2.920000e-06	-3.988242e-06	-1.064056e-08	-2.782351e+01	-6.961464e+02
2.930000e-06	-4.059108e-06	-1.072947e-08	-2.831789e+01	-7.019874e+02
2.940000e-06	-4.128438e-06	-1.081823e-08	-2.880157e+01	-7.076629e+02
