# Temperatura_=_27.42
# Concentracion g/m^3_=_13400.0
# C_Vs_to_Am_M_A/Vsm_=_65563218390.804596
# pendiente_HvsI_1/m_=_3716.3
# ordenada_HvsI_A/m_=_1297.0
# frecuencia_Hz_=_300816.59932122217

Tiempo_(s)	Campo_(V.s)	Magnetizacion_(V.s)	Campo_(kA/m)	Magnetizacion_(A/m)
0.000000e+00	-5.509757e-06	-1.199674e-08	-3.830575e+01	-7.851470e+02
1.000000e-08	-5.508253e-06	-1.199911e-08	-3.829529e+01	-7.850090e+02
2.000000e-08	-5.504766e-06	-1.199747e-08	-3.827105e+01	-7.847211e+02
3.000000e-08	-5.499504e-06	-1.199295e-08	-3.823446e+01	-7.842815e+02
4.000000e-08	-5.492589e-06	-1.198634e-08	-3.818639e+01	-7.837158e+02
5.000000e-08	-5.484087e-06	-1.197543e-08	-3.812728e+01	-7.830652e+02
6.000000e-08	-5.473668e-06	-1.195854e-08	-3.805484e+01	-7.823660e+02
7.000000e-08	-5.461157e-06	-1.193895e-08	-3.796786e+01	-7.816332e+02
8.000000e-08	-5.446631e-06	-1.193697e-08	-3.786687e+01	-7.808531e+02
9.000000e-08	-5.429731e-06	-1.195449e-08	-3.774938e+01	-7.799896e+02
1.000000e-07	-5.410528e-06	-1.193000e-08	-3.761587e+01	-7.790021e+02
1.100000e-07	-5.389353e-06	-1.189976e-08	-3.746866e+01	-7.778662e+02
1.200000e-07	-5.366283e-06	-1.188150e-08	-3.730826e+01	-7.765880e+02
1.300000e-07	-5.341686e-06	-1.181620e-08	-3.713726e+01	-7.752047e+02
1.400000e-07	-5.315597e-06	-1.183435e-08	-3.695588e+01	-7.737706e+02
1.500000e-07	-5.287689e-06	-1.183343e-08	-3.676186e+01	-7.723341e+02
1.600000e-07	-5.258102e-06	-1.172754e-08	-3.655615e+01	-7.709144e+02
1.700000e-07	-5.226966e-06	-1.177208e-08	-3.633968e+01	-7.694898e+02
1.800000e-07	-5.193866e-06	-1.175421e-08	-3.610956e+01	-7.680016e+02
1.900000e-07	-5.158698e-06	-1.165150e-08	-3.586506e+01	-7.663739e+02
2.000000e-07	-5.121985e-06	-1.169320e-08	-3.560982e+01	-7.645417e+02
2.100000e-07	-5.083609e-06	-1.162891e-08	-3.534301e+01	-7.624751e+02
2.200000e-07	-5.043405e-06	-1.156012e-08	-3.506351e+01	-7.601905e+02
2.300000e-07	-5.001255e-06	-1.159832e-08	-3.477046e+01	-7.577438e+02
2.400000e-07	-4.957072e-06	-1.154336e-08	-3.446329e+01	-7.552071e+02
2.500000e-07	-4.911153e-06	-1.149112e-08	-3.414405e+01	-7.526402e+02
2.600000e-07	-4.863392e-06	-1.145352e-08	-3.381199e+01	-7.500669e+02
2.700000e-07	-4.813580e-06	-1.139302e-08	-3.346568e+01	-7.474671e+02
2.800000e-07	-4.761719e-06	-1.135566e-08	-3.310512e+01	-7.447861e+02
2.900000e-07	-4.707966e-06	-1.132527e-08	-3.273142e+01	-7.419592e+02
3.000000e-07	-4.652569e-06	-1.129532e-08	-3.234628e+01	-7.389388e+02
3.100000e-07	-4.595525e-06	-1.123022e-08	-3.194969e+01	-7.357140e+02
3.200000e-07	-4.536641e-06	-1.119680e-08	-3.154030e+01	-7.323138e+02
3.300000e-07	-4.476076e-06	-1.115095e-08	-3.111924e+01	-7.287932e+02
3.400000e-07	-4.414066e-06	-1.105274e-08	-3.068812e+01	-7.252079e+02
3.500000e-07	-4.350581e-06	-1.100553e-08	-3.024675e+01	-7.215889e+02
3.600000e-07	-4.285513e-06	-1.094638e-08	-2.979438e+01	-7.179286e+02
3.700000e-07	-4.218737e-06	-1.088973e-08	-2.933012e+01	-7.141833e+02
3.800000e-07	-4.150328e-06	-1.084799e-08	-2.885452e+01	-7.102920e+02
3.900000e-07	-4.080492e-06	-1.077941e-08	-2.836900e+01	-7.062029e+02
4.000000e-07	-4.009368e-06	-1.071803e-08	-2.787452e+01	-7.018957e+02
4.100000e-07	-3.936966e-06	-1.064571e-08	-2.737115e+01	-6.973907e+02
4.200000e-07	-3.863013e-06	-1.057257e-08	-2.685701e+01	-6.927392e+02
4.300000e-07	-3.787308e-06	-1.048642e-08	-2.633068e+01	-6.880008e+02
4.400000e-07	-3.709998e-06	-1.041148e-08	-2.579320e+01	-6.832158e+02
4.500000e-07	-3.631222e-06	-1.034680e-08	-2.524552e+01	-6.783865e+02
4.600000e-07	-3.550938e-06	-1.027418e-08	-2.468736e+01	-6.734731e+02
4.700000e-07	-3.469299e-06	-1.020380e-08	-2.411977e+01	-6.684091e+02
4.800000e-07	-3.386487e-06	-1.011672e-08	-2.354403e+01	-6.631275e+02
4.900000e-07	-3.302576e-06	-1.003057e-08	-2.296065e+01	-6.575874e+02
5.000000e-07	-3.217719e-06	-9.941079e-09	-2.237070e+01	-6.517897e+02
5.100000e-07	-3.131881e-06	-9.842018e-09	-2.177393e+01	-6.457746e+02
5.200000e-07	-3.045059e-06	-9.744863e-09	-2.117031e+01	-6.396022e+02
5.300000e-07	-2.957251e-06	-9.652598e-09	-2.055984e+01	-6.333252e+02
5.400000e-07	-2.868424e-06	-9.558235e-09	-1.994228e+01	-6.269636e+02
5.500000e-07	-2.778545e-06	-9.458470e-09	-1.931741e+01	-6.204954e+02
5.600000e-07	-2.687480e-06	-9.356632e-09	-1.868429e+01	-6.138648e+02
5.700000e-07	-2.595353e-06	-9.249041e-09	-1.804379e+01	-6.070048e+02
5.800000e-07	-2.502333e-06	-9.137274e-09	-1.739709e+01	-5.998660e+02
5.900000e-07	-2.408463e-06	-9.024361e-09	-1.674447e+01	-5.924353e+02
6.000000e-07	-2.313801e-06	-8.906639e-09	-1.608635e+01	-5.847398e+02
6.100000e-07	-2.218394e-06	-8.783437e-09	-1.542305e+01	-5.768304e+02
6.200000e-07	-2.122251e-06	-8.654156e-09	-1.475462e+01	-5.687556e+02
6.300000e-07	-2.025356e-06	-8.522861e-09	-1.408098e+01	-5.605344e+02
6.400000e-07	-1.927626e-06	-8.396736e-09	-1.340153e+01	-5.521428e+02
6.500000e-07	-1.829028e-06	-8.267496e-09	-1.271604e+01	-5.435192e+02
6.600000e-07	-1.729663e-06	-8.129957e-09	-1.202522e+01	-5.345870e+02
6.700000e-07	-1.629686e-06	-7.987349e-09	-1.133014e+01	-5.252848e+02
6.800000e-07	-1.529220e-06	-7.842721e-09	-1.063167e+01	-5.155896e+02
6.900000e-07	-1.428249e-06	-7.688784e-09	-9.929683e+00	-5.055229e+02
7.000000e-07	-1.326736e-06	-7.522681e-09	-9.223927e+00	-4.951348e+02
7.100000e-07	-1.224705e-06	-7.351909e-09	-8.514574e+00	-4.844741e+02
7.200000e-07	-1.122282e-06	-7.180958e-09	-7.802496e+00	-4.735556e+02
7.300000e-07	-1.019564e-06	-7.013351e-09	-7.088366e+00	-4.623421e+02
7.400000e-07	-9.164995e-07	-6.841779e-09	-6.371823e+00	-4.507478e+02
7.500000e-07	-8.130503e-07	-6.658881e-09	-5.652608e+00	-4.386665e+02
7.600000e-07	-7.093138e-07	-6.462247e-09	-4.931396e+00	-4.260091e+02
7.700000e-07	-6.053497e-07	-6.256901e-09	-4.208601e+00	-4.127375e+02
7.800000e-07	-5.012195e-07	-6.045345e-09	-3.484652e+00	-3.988751e+02
7.900000e-07	-3.969837e-07	-5.825593e-09	-2.759968e+00	-3.844893e+02
8.000000e-07	-2.926294e-07	-5.598808e-09	-2.034461e+00	-3.696496e+02
8.100000e-07	-1.881659e-07	-5.366261e-09	-1.308195e+00	-3.543792e+02
8.200000e-07	-8.360731e-08	-5.129308e-09	-5.812671e-01	-3.386217e+02
8.300000e-07	2.099051e-08	-4.880404e-09	1.459334e-01	-3.222393e+02
8.400000e-07	1.255669e-07	-4.614773e-09	8.729850e-01	-3.050467e+02
8.500000e-07	2.300944e-07	-4.334276e-09	1.599696e+00	-2.868669e+02
8.600000e-07	3.345469e-07	-4.041861e-09	2.325886e+00	-2.675855e+02
8.700000e-07	4.388925e-07	-3.733864e-09	3.051333e+00	-2.471721e+02
8.800000e-07	5.430687e-07	-3.405912e-09	3.775603e+00	-2.256534e+02
8.900000e-07	6.470462e-07	-3.059768e-09	4.498490e+00	-2.030364e+02
9.000000e-07	7.508261e-07	-2.695352e-09	5.220004e+00	-1.792073e+02
9.100000e-07	8.543561e-07	-2.306999e-09	5.939780e+00	-1.538445e+02
9.200000e-07	9.576027e-07	-1.883424e-09	6.657587e+00	-1.263914e+02
9.300000e-07	1.060507e-06	-1.414734e-09	7.373011e+00	-9.611551e+01
9.400000e-07	1.163013e-06	-8.950847e-10	8.085674e+00	-6.225962e+01
9.500000e-07	1.265105e-06	-3.184105e-10	8.795452e+00	-2.425164e+01
9.600000e-07	1.366822e-06	3.241184e-10	9.502623e+00	1.807999e+01
9.700000e-07	1.468100e-06	1.030992e-09	1.020674e+01	6.435188e+01
9.800000e-07	1.568854e-06	1.787505e-09	1.090722e+01	1.135853e+02
9.900000e-07	1.669150e-06	2.566906e-09	1.160451e+01	1.643034e+02
1.000000e-06	1.768912e-06	3.338811e-09	1.229809e+01	2.147505e+02
1.010000e-06	1.867962e-06	4.074403e-09	1.298672e+01	2.631813e+02
1.020000e-06	1.966241e-06	4.748438e-09	1.366999e+01	3.081465e+02
1.030000e-06	2.063701e-06	5.351173e-09	1.434756e+01	3.487039e+02
1.040000e-06	2.160309e-06	5.884222e-09	1.501922e+01	3.845065e+02
1.050000e-06	2.256130e-06	6.357010e-09	1.568540e+01	4.157535e+02
1.060000e-06	2.351195e-06	6.775682e-09	1.634632e+01	4.430331e+02
1.070000e-06	2.445467e-06	7.143210e-09	1.700174e+01	4.671101e+02
1.080000e-06	2.538914e-06	7.469670e-09	1.765141e+01	4.887228e+02
1.090000e-06	2.631541e-06	7.767233e-09	1.829539e+01	5.084410e+02
1.100000e-06	2.723339e-06	8.040611e-09	1.893360e+01	5.266131e+02
1.110000e-06	2.814097e-06	8.290516e-09	1.956458e+01	5.433954e+02
1.120000e-06	2.903633e-06	8.519508e-09	2.018706e+01	5.588357e+02
1.130000e-06	2.992084e-06	8.731350e-09	2.080201e+01	5.729674e+02
1.140000e-06	3.079563e-06	8.928534e-09	2.141019e+01	5.858774e+02
1.150000e-06	3.165972e-06	9.110121e-09	2.201094e+01	5.977276e+02
1.160000e-06	3.251332e-06	9.276881e-09	2.260439e+01	6.087296e+02
1.170000e-06	3.335728e-06	9.431919e-09	2.319114e+01	6.190929e+02
1.180000e-06	3.419040e-06	9.582177e-09	2.377036e+01	6.289715e+02
1.190000e-06	3.501063e-06	9.728816e-09	2.434061e+01	6.384350e+02
1.200000e-06	3.581756e-06	9.866160e-09	2.490162e+01	6.474721e+02
1.210000e-06	3.661172e-06	9.993463e-09	2.545374e+01	6.560239e+02
1.220000e-06	3.739274e-06	1.011466e-08	2.599674e+01	6.640302e+02
1.230000e-06	3.816065e-06	1.023024e-08	2.653061e+01	6.714695e+02
1.240000e-06	3.891432e-06	1.033599e-08	2.705459e+01	6.783767e+02
1.250000e-06	3.965173e-06	1.043192e-08	2.756726e+01	6.848349e+02
1.260000e-06	4.037390e-06	1.052207e-08	2.806934e+01	6.909470e+02
1.270000e-06	4.108223e-06	1.061167e-08	2.856179e+01	6.968025e+02
1.280000e-06	4.177648e-06	1.069945e-08	2.904446e+01	7.024531e+02
1.290000e-06	4.245649e-06	1.078183e-08	2.951723e+01	7.079073e+02
1.300000e-06	4.312075e-06	1.085998e-08	2.997904e+01	7.131432e+02
1.310000e-06	4.376858e-06	1.093394e-08	3.042944e+01	7.181326e+02
1.320000e-06	4.440093e-06	1.100396e-08	3.086907e+01	7.228630e+02
1.330000e-06	4.501880e-06	1.107041e-08	3.129863e+01	7.273490e+02
1.340000e-06	4.562276e-06	1.113437e-08	3.171853e+01	7.316278e+02
1.350000e-06	4.621058e-06	1.119714e-08	3.212720e+01	7.357425e+02
1.360000e-06	4.678028e-06	1.125893e-08	3.252327e+01	7.397220e+02
1.370000e-06	4.733284e-06	1.131917e-08	3.290743e+01	7.435687e+02
1.380000e-06	4.786880e-06	1.137483e-08	3.328006e+01	7.472579e+02
1.390000e-06	4.838534e-06	1.142478e-08	3.363917e+01	7.507509e+02
1.400000e-06	4.888123e-06	1.146983e-08	3.398393e+01	7.540148e+02
1.410000e-06	4.935866e-06	1.151354e-08	3.431586e+01	7.570399e+02
1.420000e-06	4.981913e-06	1.155907e-08	3.463599e+01	7.598455e+02
1.430000e-06	5.026335e-06	1.160125e-08	3.494483e+01	7.624733e+02
1.440000e-06	5.068883e-06	1.163799e-08	3.524063e+01	7.649694e+02
1.450000e-06	5.109498e-06	1.167421e-08	3.552301e+01	7.673644e+02
1.460000e-06	5.148401e-06	1.171022e-08	3.579347e+01	7.696607e+02
1.470000e-06	5.185640e-06	1.174253e-08	3.605237e+01	7.718325e+02
1.480000e-06	5.221094e-06	1.176963e-08	3.629886e+01	7.738390e+02
1.490000e-06	5.254563e-06	1.179444e-08	3.653155e+01	7.756448e+02
1.500000e-06	5.286166e-06	1.181835e-08	3.675126e+01	7.772385e+02
1.510000e-06	5.316124e-06	1.184004e-08	3.695954e+01	7.786412e+02
1.520000e-06	5.344317e-06	1.185839e-08	3.715555e+01	7.799005e+02
1.530000e-06	5.370413e-06	1.187581e-08	3.733697e+01	7.810725e+02
1.540000e-06	5.394423e-06	1.189513e-08	3.750390e+01	7.821994e+02
1.550000e-06	5.416614e-06	1.191396e-08	3.765818e+01	7.832937e+02
1.560000e-06	5.437068e-06	1.192867e-08	3.780039e+01	7.843332e+02
1.570000e-06	5.455667e-06	1.193908e-08	3.792970e+01	7.852720e+02
1.580000e-06	5.472256e-06	1.194906e-08	3.804502e+01	7.860608e+02
1.590000e-06	5.486852e-06	1.195747e-08	3.814650e+01	7.866687e+02
1.600000e-06	5.499447e-06	1.196341e-08	3.823407e+01	7.870965e+02
1.610000e-06	5.509811e-06	1.196895e-08	3.830612e+01	7.873767e+02
1.620000e-06	5.518022e-06	1.197581e-08	3.836321e+01	7.875593e+02
1.630000e-06	5.524343e-06	1.198278e-08	3.840715e+01	7.876911e+02
1.640000e-06	5.528872e-06	1.198588e-08	3.843864e+01	7.877963e+02
1.650000e-06	5.531432e-06	1.198654e-08	3.845644e+01	7.878674e+02
1.660000e-06	5.531944e-06	1.198553e-08	3.846000e+01	7.878704e+02
1.670000e-06	5.530700e-06	1.198144e-08	3.845135e+01	7.877614e+02
1.680000e-06	5.527771e-06	1.197674e-08	3.843099e+01	7.875067e+02
1.690000e-06	5.522955e-06	1.196866e-08	3.839750e+01	7.870980e+02
1.700000e-06	5.516235e-06	1.195988e-08	3.835078e+01	7.865561e+02
1.710000e-06	5.507781e-06	1.195208e-08	3.829201e+01	7.859199e+02
1.720000e-06	5.497659e-06	1.194463e-08	3.822163e+01	7.852288e+02
1.730000e-06	5.485662e-06	1.194258e-08	3.813823e+01	7.845033e+02
1.740000e-06	5.471588e-06	1.190986e-08	3.804038e+01	7.837357e+02
1.750000e-06	5.455470e-06	1.187970e-08	3.792832e+01	7.828935e+02
1.760000e-06	5.436867e-06	1.187120e-08	3.779899e+01	7.819353e+02
1.770000e-06	5.415465e-06	1.184767e-08	3.765020e+01	7.808317e+02
1.780000e-06	5.391879e-06	1.187331e-08	3.748622e+01	7.795817e+02
1.790000e-06	5.367097e-06	1.185103e-08	3.731393e+01	7.782165e+02
1.800000e-06	5.341519e-06	1.177376e-08	3.713610e+01	7.767885e+02
1.810000e-06	5.314207e-06	1.181203e-08	3.694621e+01	7.753494e+02
1.820000e-06	5.284565e-06	1.176441e-08	3.674013e+01	7.739264e+02
1.830000e-06	5.253261e-06	1.171815e-08	3.652250e+01	7.725066e+02
1.840000e-06	5.220247e-06	1.178924e-08	3.629297e+01	7.710381e+02
1.850000e-06	5.185394e-06	1.170534e-08	3.605066e+01	7.694464e+02
1.860000e-06	5.148884e-06	1.167502e-08	3.579683e+01	7.676619e+02
1.870000e-06	5.110317e-06	1.172092e-08	3.552870e+01	7.656455e+02
1.880000e-06	5.069941e-06	1.160482e-08	3.524800e+01	7.634039e+02
1.890000e-06	5.028015e-06	1.158518e-08	3.495651e+01	7.609859e+02
1.900000e-06	4.984204e-06	1.156820e-08	3.465192e+01	7.584624e+02
1.910000e-06	4.938672e-06	1.149181e-08	3.433536e+01	7.558984e+02
1.920000e-06	4.891291e-06	1.151894e-08	3.400596e+01	7.533266e+02
1.930000e-06	4.841965e-06	1.145393e-08	3.366303e+01	7.507360e+02
1.940000e-06	4.790886e-06	1.140620e-08	3.330791e+01	7.480778e+02
1.950000e-06	4.737688e-06	1.136685e-08	3.293806e+01	7.452870e+02
1.960000e-06	4.682587e-06	1.130843e-08	3.255498e+01	7.423103e+02
1.970000e-06	4.625871e-06	1.127112e-08	3.216066e+01	7.391279e+02
1.980000e-06	4.567573e-06	1.117911e-08	3.175536e+01	7.357611e+02
1.990000e-06	4.507748e-06	1.117961e-08	3.133943e+01	7.322611e+02
2.000000e-06	4.446138e-06	1.113001e-08	3.091110e+01	7.286857e+02
2.010000e-06	4.382888e-06	1.105499e-08	3.047136e+01	7.250731e+02
2.020000e-06	4.318118e-06	1.102763e-08	3.002106e+01	7.214241e+02
2.030000e-06	4.251875e-06	1.092918e-08	2.956051e+01	7.177018e+02
2.040000e-06	4.184133e-06	1.089029e-08	2.908955e+01	7.138468e+02
2.050000e-06	4.114644e-06	1.081829e-08	2.860644e+01	7.098029e+02
2.060000e-06	4.043569e-06	1.074684e-08	2.811230e+01	7.055420e+02
2.070000e-06	3.971144e-06	1.069817e-08	2.760877e+01	7.010757e+02
2.080000e-06	3.897436e-06	1.061984e-08	2.709633e+01	6.964503e+02
2.090000e-06	3.822239e-06	1.057371e-08	2.657354e+01	6.917259e+02
2.100000e-06	3.745332e-06	1.048367e-08	2.603885e+01	6.869491e+02
2.110000e-06	3.666832e-06	1.041122e-08	2.549309e+01	6.821312e+02
2.120000e-06	3.586991e-06	1.032816e-08	2.493801e+01	6.772407e+02
2.130000e-06	3.506067e-06	1.025053e-08	2.437540e+01	6.722149e+02
2.140000e-06	3.424031e-06	1.017970e-08	2.380506e+01	6.669845e+02
2.150000e-06	3.340823e-06	1.008323e-08	2.322656e+01	6.615011e+02
2.160000e-06	3.256361e-06	1.001664e-08	2.263935e+01	6.557562e+02
2.170000e-06	3.170485e-06	9.925320e-09	2.204231e+01	6.497827e+02
2.180000e-06	3.083406e-06	9.832671e-09	2.143691e+01	6.436388e+02
2.190000e-06	2.995381e-06	9.730715e-09	2.082493e+01	6.373810e+02
2.200000e-06	2.906413e-06	9.631953e-09	2.020640e+01	6.310378e+02
2.210000e-06	2.816431e-06	9.539280e-09	1.958081e+01	6.245962e+02
2.220000e-06	2.725533e-06	9.436791e-09	1.894885e+01	6.180059e+02
2.230000e-06	2.633737e-06	9.338235e-09	1.831066e+01	6.112001e+02
2.240000e-06	2.540987e-06	9.224466e-09	1.766582e+01	6.041233e+02
2.250000e-06	2.447215e-06	9.116737e-09	1.701389e+01	5.967541e+02
2.260000e-06	2.352439e-06	9.001444e-09	1.635497e+01	5.891113e+02
2.270000e-06	2.256854e-06	8.886690e-09	1.569044e+01	5.812430e+02
2.280000e-06	2.160486e-06	8.771566e-09	1.502045e+01	5.732006e+02
2.290000e-06	2.063456e-06	8.647557e-09	1.434586e+01	5.650111e+02
2.300000e-06	1.965814e-06	8.520066e-09	1.366702e+01	5.566600e+02
2.310000e-06	1.867499e-06	8.384873e-09	1.298351e+01	5.480923e+02
2.320000e-06	1.768591e-06	8.248863e-09	1.229586e+01	5.392323e+02
2.330000e-06	1.669191e-06	8.107015e-09	1.160480e+01	5.300127e+02
2.340000e-06	1.569300e-06	7.964359e-09	1.091032e+01	5.204012e+02
2.350000e-06	1.468834e-06	7.817427e-09	1.021184e+01	5.104103e+02
2.360000e-06	1.367681e-06	7.665817e-09	9.508593e+00	5.000863e+02
2.370000e-06	1.265859e-06	7.508263e-09	8.800689e+00	4.894810e+02
2.380000e-06	1.163507e-06	7.340991e-09	8.089105e+00	4.786189e+02
2.390000e-06	1.060693e-06	7.167070e-09	7.374305e+00	4.674743e+02
2.400000e-06	9.575124e-07	6.989862e-09	6.656959e+00	4.559703e+02
2.410000e-06	8.540012e-07	6.809551e-09	5.937313e+00	4.440019e+02
2.420000e-06	7.501783e-07	6.621171e-09	5.215500e+00	4.314731e+02
2.430000e-06	6.461264e-07	6.420965e-09	4.492095e+00	4.183330e+02
2.440000e-06	5.418200e-07	6.210332e-09	3.766921e+00	4.045924e+02
2.450000e-06	4.373012e-07	5.994730e-09	3.040270e+00	3.903121e+02
2.460000e-06	3.326563e-07	5.771454e-09	2.312743e+00	3.755653e+02
2.470000e-06	2.279212e-07	5.540003e-09	1.584587e+00	3.603888e+02
2.480000e-06	1.231041e-07	5.300593e-09	8.558628e-01	3.447447e+02
2.490000e-06	1.818977e-08	5.050356e-09	1.264616e-01	3.285108e+02
2.500000e-06	-8.670630e-08	4.788099e-09	-6.028123e-01	3.115078e+02
2.510000e-06	-1.915115e-07	4.513561e-09	-1.331455e+00	2.935518e+02
2.520000e-06	-2.962335e-07	4.224183e-09	-2.059518e+00	2.745117e+02
2.530000e-06	-4.008612e-07	3.917593e-09	-2.786926e+00	2.543395e+02
2.540000e-06	-5.053289e-07	3.596054e-09	-3.513222e+00	2.330548e+02
2.550000e-06	-6.095312e-07	3.260387e-09	-4.237673e+00	2.106769e+02
2.560000e-06	-7.134701e-07	2.904100e-09	-4.960292e+00	1.871264e+02
2.570000e-06	-8.171738e-07	2.519819e-09	-5.681276e+00	1.621313e+02
2.580000e-06	-9.206301e-07	2.103620e-09	-6.400540e+00	1.351833e+02
2.590000e-06	-1.023817e-06	1.649945e-09	-7.117931e+00	1.055780e+02
2.600000e-06	-1.126588e-06	1.148401e-09	-7.832435e+00	7.254707e+01
2.610000e-06	-1.228795e-06	5.911727e-10	-8.543008e+00	3.545973e+01
2.620000e-06	-1.330431e-06	-2.659479e-11	-9.249622e+00	-5.957396e+00
2.630000e-06	-1.431490e-06	-7.102670e-10	-9.952218e+00	-5.144774e+01
2.640000e-06	-1.531943e-06	-1.454399e-09	-1.065060e+01	-1.001566e+02
2.650000e-06	-1.631802e-06	-2.235034e-09	-1.134485e+01	-1.506992e+02
2.660000e-06	-1.731133e-06	-3.018166e-09	-1.203544e+01	-2.013564e+02
2.670000e-06	-1.829911e-06	-3.771387e-09	-1.272218e+01	-2.503555e+02
2.680000e-06	-1.928043e-06	-4.472994e-09	-1.340443e+01	-2.961622e+02
2.690000e-06	-2.025537e-06	-5.107806e-09	-1.408224e+01	-3.377140e+02
2.700000e-06	-2.122389e-06	-5.668896e-09	-1.475558e+01	-3.745356e+02
2.710000e-06	-2.218567e-06	-6.161688e-09	-1.542425e+01	-4.067196e+02
2.720000e-06	-2.314054e-06	-6.597234e-09	-1.608811e+01	-4.347878e+02
2.730000e-06	-2.408859e-06	-6.986940e-09	-1.674722e+01	-4.594855e+02
2.740000e-06	-2.502812e-06	-7.334976e-09	-1.740042e+01	-4.815712e+02
2.750000e-06	-2.595651e-06	-7.645555e-09	-1.804587e+01	-5.016586e+02
2.760000e-06	-2.687406e-06	-7.925852e-09	-1.868378e+01	-5.201435e+02
2.770000e-06	-2.778204e-06	-8.181433e-09	-1.931504e+01	-5.372175e+02
2.780000e-06	-2.867989e-06	-8.418975e-09	-1.993926e+01	-5.529436e+02
2.790000e-06	-2.956697e-06	-8.641913e-09	-2.055599e+01	-5.673509e+02
2.800000e-06	-3.044434e-06	-8.848423e-09	-2.116596e+01	-5.805117e+02
2.810000e-06	-3.131235e-06	-9.038764e-09	-2.176944e+01	-5.925723e+02
2.820000e-06	-3.216893e-06	-9.215460e-09	-2.236496e+01	-6.037377e+02
2.830000e-06	-3.301202e-06	-9.378928e-09	-2.295110e+01	-6.142224e+02
2.840000e-06	-3.384291e-06	-9.531122e-09	-2.352877e+01	-6.241961e+02
2.850000e-06	-3.466281e-06	-9.674983e-09	-2.409879e+01	-6.337473e+02
2.860000e-06	-3.547117e-06	-9.811315e-09	-2.466079e+01	-6.428799e+02
2.870000e-06	-3.626767e-06	-9.939403e-09	-2.521455e+01	-6.515415e+02
2.880000e-06	-3.705091e-06	-1.006198e-08	-2.575908e+01	-6.596684e+02
2.890000e-06	-3.781818e-06	-1.017991e-08	-2.629252e+01	-6.672284e+02
2.900000e-06	-3.856987e-06	-1.029099e-08	-2.681512e+01	-6.742441e+02
2.910000e-06	-3.930809e-06	-1.039410e-08	-2.732835e+01	-6.807902e+02
2.920000e-06	-4.003307e-06	-1.049008e-08	-2.783238e+01	-6.869681e+02
2.930000e-06	-4.074458e-06	-1.058280e-08	-2.832705e+01	-6.928728e+02
2.940000e-06	-4.144033e-06	-1.067152e-08	-2.881076e+01	-6.985654e+02
