# Temperatura_=_48.85
# Concentracion g/m^3_=_13400.0
# C_Vs_to_Am_M_A/Vsm_=_65563218390.804596
# pendiente_HvsI_1/m_=_3716.3
# ordenada_HvsI_A/m_=_1297.0
# frecuencia_Hz_=_300799.78237642

Tiempo_(s)	Campo_(V.s)	Magnetizacion_(V.s)	Campo_(kA/m)	Magnetizacion_(A/m)
0.000000e+00	-5.500930e-06	-1.236757e-08	-3.830996e+01	-8.104330e+02
1.000000e-08	-5.499157e-06	-1.237012e-08	-3.829762e+01	-8.102863e+02
2.000000e-08	-5.495468e-06	-1.236116e-08	-3.827192e+01	-8.099397e+02
3.000000e-08	-5.490051e-06	-1.235159e-08	-3.823420e+01	-8.094201e+02
4.000000e-08	-5.482974e-06	-1.234704e-08	-3.818491e+01	-8.087909e+02
5.000000e-08	-5.474217e-06	-1.233867e-08	-3.812392e+01	-8.081241e+02
6.000000e-08	-5.463490e-06	-1.232359e-08	-3.804922e+01	-8.074688e+02
7.000000e-08	-5.450664e-06	-1.229792e-08	-3.795989e+01	-8.068296e+02
8.000000e-08	-5.435846e-06	-1.227935e-08	-3.785670e+01	-8.061643e+02
9.000000e-08	-5.418716e-06	-1.233475e-08	-3.773740e+01	-8.054032e+02
1.000000e-07	-5.399245e-06	-1.235797e-08	-3.760180e+01	-8.044810e+02
1.100000e-07	-5.377771e-06	-1.230355e-08	-3.745225e+01	-8.033676e+02
1.200000e-07	-5.354489e-06	-1.227619e-08	-3.729011e+01	-8.020848e+02
1.300000e-07	-5.329760e-06	-1.216693e-08	-3.711789e+01	-8.006995e+02
1.400000e-07	-5.303585e-06	-1.213243e-08	-3.693560e+01	-7.992975e+02
1.500000e-07	-5.275515e-06	-1.226953e-08	-3.674011e+01	-7.979464e+02
1.600000e-07	-5.245670e-06	-1.212665e-08	-3.653226e+01	-7.966648e+02
1.700000e-07	-5.214333e-06	-1.208886e-08	-3.631402e+01	-7.954102e+02
1.800000e-07	-5.181124e-06	-1.222453e-08	-3.608275e+01	-7.940913e+02
1.900000e-07	-5.145835e-06	-1.206785e-08	-3.583698e+01	-7.926007e+02
2.000000e-07	-5.108911e-06	-1.205333e-08	-3.557984e+01	-7.908541e+02
2.100000e-07	-5.070283e-06	-1.206761e-08	-3.531082e+01	-7.888209e+02
2.200000e-07	-5.029855e-06	-1.192759e-08	-3.502927e+01	-7.865337e+02
2.300000e-07	-4.987576e-06	-1.196008e-08	-3.473483e+01	-7.840724e+02
2.400000e-07	-4.943274e-06	-1.196538e-08	-3.442629e+01	-7.815310e+02
2.500000e-07	-4.897182e-06	-1.190947e-08	-3.410530e+01	-7.789794e+02
2.600000e-07	-4.849303e-06	-1.187467e-08	-3.377185e+01	-7.764380e+02
2.700000e-07	-4.799379e-06	-1.176295e-08	-3.342417e+01	-7.738728e+02
2.800000e-07	-4.747366e-06	-1.175970e-08	-3.306194e+01	-7.712140e+02
2.900000e-07	-4.693484e-06	-1.173771e-08	-3.268669e+01	-7.683886e+02
3.000000e-07	-4.637929e-06	-1.166715e-08	-3.229979e+01	-7.653529e+02
3.100000e-07	-4.580730e-06	-1.163154e-08	-3.190144e+01	-7.621106e+02
3.200000e-07	-4.521726e-06	-1.159034e-08	-3.149052e+01	-7.587092e+02
3.300000e-07	-4.461022e-06	-1.156001e-08	-3.106776e+01	-7.552167e+02
3.400000e-07	-4.398844e-06	-1.146825e-08	-3.063474e+01	-7.516897e+02
3.500000e-07	-4.335235e-06	-1.139779e-08	-3.019174e+01	-7.481464e+02
3.600000e-07	-4.270145e-06	-1.134212e-08	-2.973844e+01	-7.445573e+02
3.700000e-07	-4.203345e-06	-1.129500e-08	-2.927323e+01	-7.408575e+02
3.800000e-07	-4.134828e-06	-1.127482e-08	-2.879606e+01	-7.369746e+02
3.900000e-07	-4.064795e-06	-1.118745e-08	-2.830833e+01	-7.328604e+02
4.000000e-07	-3.993451e-06	-1.110995e-08	-2.781147e+01	-7.285124e+02
4.100000e-07	-3.920898e-06	-1.104839e-08	-2.730619e+01	-7.239743e+02
4.200000e-07	-3.846952e-06	-1.097561e-08	-2.679121e+01	-7.193164e+02
4.300000e-07	-3.771369e-06	-1.090043e-08	-2.626483e+01	-7.146034e+02
4.400000e-07	-3.694147e-06	-1.081384e-08	-2.572704e+01	-7.098644e+02
4.500000e-07	-3.615431e-06	-1.075754e-08	-2.517884e+01	-7.050777e+02
4.600000e-07	-3.535213e-06	-1.069231e-08	-2.462018e+01	-7.001779e+02
4.700000e-07	-3.453617e-06	-1.061122e-08	-2.405192e+01	-6.950823e+02
4.800000e-07	-3.370809e-06	-1.051740e-08	-2.347523e+01	-6.897247e+02
4.900000e-07	-3.286850e-06	-1.041943e-08	-2.289051e+01	-6.840829e+02
5.000000e-07	-3.201894e-06	-1.034208e-08	-2.229886e+01	-6.781871e+02
5.100000e-07	-3.115964e-06	-1.025848e-08	-2.170042e+01	-6.721053e+02
5.200000e-07	-3.029091e-06	-1.016801e-08	-2.109541e+01	-6.659123e+02
5.300000e-07	-2.941301e-06	-1.006509e-08	-2.048402e+01	-6.596556e+02
5.400000e-07	-2.852567e-06	-9.964742e-09	-1.986605e+01	-6.533331e+02
5.500000e-07	-2.762814e-06	-9.867333e-09	-1.924098e+01	-6.468922e+02
5.600000e-07	-2.671883e-06	-9.757000e-09	-1.860771e+01	-6.402516e+02
5.700000e-07	-2.579811e-06	-9.646678e-09	-1.796650e+01	-6.333346e+02
5.800000e-07	-2.486787e-06	-9.538468e-09	-1.731866e+01	-6.261005e+02
5.900000e-07	-2.392981e-06	-9.436891e-09	-1.666536e+01	-6.185597e+02
6.000000e-07	-2.298401e-06	-9.324709e-09	-1.600669e+01	-6.107650e+02
6.100000e-07	-2.203047e-06	-9.197655e-09	-1.534261e+01	-6.027833e+02
6.200000e-07	-2.106961e-06	-9.063294e-09	-1.467344e+01	-5.946604e+02
6.300000e-07	-2.010139e-06	-8.928623e-09	-1.399915e+01	-5.863948e+02
6.400000e-07	-1.912558e-06	-8.798903e-09	-1.331957e+01	-5.779323e+02
6.500000e-07	-1.814157e-06	-8.665015e-09	-1.263428e+01	-5.691851e+02
6.600000e-07	-1.715000e-06	-8.527923e-09	-1.194373e+01	-5.600660e+02
6.700000e-07	-1.615167e-06	-8.384476e-09	-1.124846e+01	-5.505239e+02
6.800000e-07	-1.514709e-06	-8.236105e-09	-1.054885e+01	-5.405623e+02
6.900000e-07	-1.413765e-06	-8.078210e-09	-9.845838e+00	-5.302329e+02
7.000000e-07	-1.312429e-06	-7.911662e-09	-9.140109e+00	-5.196053e+02
7.100000e-07	-1.210638e-06	-7.742361e-09	-8.431208e+00	-5.087265e+02
7.200000e-07	-1.108370e-06	-7.569259e-09	-7.718985e+00	-4.975879e+02
7.300000e-07	-1.005716e-06	-7.390220e-09	-7.004076e+00	-4.861171e+02
7.400000e-07	-9.027762e-07	-7.202258e-09	-6.287177e+00	-4.741977e+02
7.500000e-07	-7.995435e-07	-7.010245e-09	-5.568237e+00	-4.617124e+02
7.600000e-07	-6.959726e-07	-6.813674e-09	-4.846941e+00	-4.485871e+02
7.700000e-07	-5.921557e-07	-6.607822e-09	-4.123932e+00	-4.348183e+02
7.800000e-07	-4.881890e-07	-6.389630e-09	-3.399880e+00	-4.204661e+02
7.900000e-07	-3.840816e-07	-6.162761e-09	-2.674848e+00	-4.056152e+02
8.000000e-07	-2.798714e-07	-5.931191e-09	-1.949100e+00	-3.903173e+02
8.100000e-07	-1.755745e-07	-5.690524e-09	-1.222748e+00	-3.745421e+02
8.200000e-07	-7.114051e-08	-5.436161e-09	-4.954417e-01	-3.581591e+02
8.300000e-07	3.334345e-08	-5.166195e-09	2.322128e-01	-3.409630e+02
8.400000e-07	1.377681e-07	-4.883818e-09	9.594544e-01	-3.227348e+02
8.500000e-07	2.421349e-07	-4.590645e-09	1.686293e+00	-3.033124e+02
8.600000e-07	3.464079e-07	-4.282168e-09	2.412478e+00	-2.826350e+02
8.700000e-07	4.505319e-07	-3.953893e-09	3.137626e+00	-2.607331e+02
8.800000e-07	5.545417e-07	-3.604964e-09	3.861978e+00	-2.376543e+02
8.900000e-07	6.584072e-07	-3.232916e-09	4.585325e+00	-2.133445e+02
9.000000e-07	7.620523e-07	-2.833968e-09	5.307138e+00	-1.875276e+02
9.100000e-07	8.654361e-07	-2.398683e-09	6.027131e+00	-1.596387e+02
9.200000e-07	9.685063e-07	-1.917180e-09	6.744940e+00	-1.288548e+02
9.300000e-07	1.071237e-06	-1.384024e-09	7.460381e+00	-9.424075e+01
9.400000e-07	1.173597e-06	-7.903296e-10	8.173247e+00	-5.498651e+01
9.500000e-07	1.275569e-06	-1.236362e-10	8.883410e+00	-1.067690e+01
9.600000e-07	1.377113e-06	6.263861e-10	9.590587e+00	3.848512e+01
9.700000e-07	1.478220e-06	1.447100e-09	1.029472e+01	9.157596e+01
9.800000e-07	1.578895e-06	2.305285e-09	1.099585e+01	1.470136e+02
9.900000e-07	1.679019e-06	3.162910e-09	1.169314e+01	2.027816e+02
1.000000e-06	1.778455e-06	3.983669e-09	1.238564e+01	2.567634e+02
1.010000e-06	1.877138e-06	4.737931e-09	1.307290e+01	3.071034e+02
1.020000e-06	1.975046e-06	5.409741e-09	1.375476e+01	3.525004e+02
1.030000e-06	2.072121e-06	6.000480e-09	1.443081e+01	3.923634e+02
1.040000e-06	2.168362e-06	6.520220e-09	1.510106e+01	4.267975e+02
1.050000e-06	2.263921e-06	6.976829e-09	1.576656e+01	4.564412e+02
1.060000e-06	2.358824e-06	7.373608e-09	1.642749e+01	4.822138e+02
1.070000e-06	2.452943e-06	7.722368e-09	1.708296e+01	5.050531e+02
1.080000e-06	2.546255e-06	8.036706e-09	1.773281e+01	5.257151e+02
1.090000e-06	2.638777e-06	8.324001e-09	1.837716e+01	5.446797e+02
1.100000e-06	2.730340e-06	8.582437e-09	1.901482e+01	5.621671e+02
1.110000e-06	2.820706e-06	8.814034e-09	1.964416e+01	5.782319e+02
1.120000e-06	2.909872e-06	9.031422e-09	2.026514e+01	5.928851e+02
1.130000e-06	2.998031e-06	9.240983e-09	2.087910e+01	6.061922e+02
1.140000e-06	3.085233e-06	9.436515e-09	2.148640e+01	6.183145e+02
1.150000e-06	3.171412e-06	9.610255e-09	2.208657e+01	6.294883e+02
1.160000e-06	3.256599e-06	9.766992e-09	2.267984e+01	6.399627e+02
1.170000e-06	3.340786e-06	9.915957e-09	2.326614e+01	6.499301e+02
1.180000e-06	3.423726e-06	1.006097e-08	2.384376e+01	6.594809e+02
1.190000e-06	3.505386e-06	1.019790e-08	2.441245e+01	6.686025e+02
1.200000e-06	3.585805e-06	1.032476e-08	2.497251e+01	6.772183e+02
1.210000e-06	3.664909e-06	1.044510e-08	2.552342e+01	6.852482e+02
1.220000e-06	3.742750e-06	1.056256e-08	2.606552e+01	6.926635e+02
1.230000e-06	3.819287e-06	1.067350e-08	2.659855e+01	6.995136e+02
1.240000e-06	3.894308e-06	1.077179e-08	2.712101e+01	7.059155e+02
1.250000e-06	3.967665e-06	1.086103e-08	2.763189e+01	7.120135e+02
1.260000e-06	4.039557e-06	1.094888e-08	2.813257e+01	7.179291e+02
1.270000e-06	4.110104e-06	1.103691e-08	2.862387e+01	7.237227e+02
1.280000e-06	4.179248e-06	1.112194e-08	2.910541e+01	7.293831e+02
1.290000e-06	4.246917e-06	1.120183e-08	2.957667e+01	7.348472e+02
1.300000e-06	4.312901e-06	1.127896e-08	3.003621e+01	7.400389e+02
1.310000e-06	4.377286e-06	1.135574e-08	3.048460e+01	7.449101e+02
1.320000e-06	4.440261e-06	1.142854e-08	3.092318e+01	7.494648e+02
1.330000e-06	4.501851e-06	1.149284e-08	3.135210e+01	7.537571e+02
1.340000e-06	4.562074e-06	1.155214e-08	3.177152e+01	7.578669e+02
1.350000e-06	4.620557e-06	1.161350e-08	3.217881e+01	7.618634e+02
1.360000e-06	4.677172e-06	1.167491e-08	3.257309e+01	7.657758e+02
1.370000e-06	4.732180e-06	1.173064e-08	3.295618e+01	7.695825e+02
1.380000e-06	4.785483e-06	1.178120e-08	3.332739e+01	7.732237e+02
1.390000e-06	4.836738e-06	1.182947e-08	3.368435e+01	7.766317e+02
1.400000e-06	4.885904e-06	1.187771e-08	3.402676e+01	7.797632e+02
1.410000e-06	4.933292e-06	1.192545e-08	3.435678e+01	7.826208e+02
1.420000e-06	4.979082e-06	1.196884e-08	3.467567e+01	7.852532e+02
1.430000e-06	5.023225e-06	1.200672e-08	3.498310e+01	7.877349e+02
1.440000e-06	5.065430e-06	1.204247e-08	3.527702e+01	7.901345e+02
1.450000e-06	5.105755e-06	1.207692e-08	3.555786e+01	7.924869e+02
1.460000e-06	5.144424e-06	1.210874e-08	3.582716e+01	7.947803e+02
1.470000e-06	5.181431e-06	1.214034e-08	3.608488e+01	7.969650e+02
1.480000e-06	5.216614e-06	1.217272e-08	3.632991e+01	7.989781e+02
1.490000e-06	5.249783e-06	1.220288e-08	3.656091e+01	8.007743e+02
1.500000e-06	5.281109e-06	1.222756e-08	3.677907e+01	8.023480e+02
1.510000e-06	5.310792e-06	1.224832e-08	3.698579e+01	8.037365e+02
1.520000e-06	5.338680e-06	1.226900e-08	3.718001e+01	8.050044e+02
1.530000e-06	5.364503e-06	1.229004e-08	3.735985e+01	8.062152e+02
1.540000e-06	5.388308e-06	1.230884e-08	3.752563e+01	8.074033e+02
1.550000e-06	5.410312e-06	1.232372e-08	3.767887e+01	8.085591e+02
1.560000e-06	5.430611e-06	1.233814e-08	3.782024e+01	8.096341e+02
1.570000e-06	5.448958e-06	1.235371e-08	3.794802e+01	8.105634e+02
1.580000e-06	5.465204e-06	1.236568e-08	3.806116e+01	8.112957e+02
1.590000e-06	5.479495e-06	1.237266e-08	3.816068e+01	8.118182e+02
1.600000e-06	5.491687e-06	1.237826e-08	3.824559e+01	8.121633e+02
1.610000e-06	5.501612e-06	1.238525e-08	3.831471e+01	8.123968e+02
1.620000e-06	5.509522e-06	1.239227e-08	3.836980e+01	8.125897e+02
1.630000e-06	5.515626e-06	1.239586e-08	3.841231e+01	8.127881e+02
1.640000e-06	5.519918e-06	1.239753e-08	3.844220e+01	8.129937e+02
1.650000e-06	5.522199e-06	1.240162e-08	3.845809e+01	8.131631e+02
1.660000e-06	5.522474e-06	1.240713e-08	3.846000e+01	8.132273e+02
1.670000e-06	5.520987e-06	1.240219e-08	3.844964e+01	8.131224e+02
1.680000e-06	5.517832e-06	1.239114e-08	3.842767e+01	8.128179e+02
1.690000e-06	5.512796e-06	1.238285e-08	3.839260e+01	8.123310e+02
1.700000e-06	5.505780e-06	1.237799e-08	3.834374e+01	8.117189e+02
1.710000e-06	5.497083e-06	1.237239e-08	3.828317e+01	8.110548e+02
1.720000e-06	5.486751e-06	1.236470e-08	3.821121e+01	8.103949e+02
1.730000e-06	5.474491e-06	1.237856e-08	3.812583e+01	8.097544e+02
1.740000e-06	5.460185e-06	1.235912e-08	3.802620e+01	8.091000e+02
1.750000e-06	5.443844e-06	1.226037e-08	3.791240e+01	8.083656e+02
1.760000e-06	5.424999e-06	1.224604e-08	3.778116e+01	8.074820e+02
1.770000e-06	5.403349e-06	1.224791e-08	3.763038e+01	8.064096e+02
1.780000e-06	5.379616e-06	1.230278e-08	3.746510e+01	8.051587e+02
1.790000e-06	5.354876e-06	1.236672e-08	3.729280e+01	8.037882e+02
1.800000e-06	5.329334e-06	1.215624e-08	3.711492e+01	8.023829e+02
1.810000e-06	5.301884e-06	1.219213e-08	3.692375e+01	8.010173e+02
1.820000e-06	5.272065e-06	1.228105e-08	3.671609e+01	7.997223e+02
1.830000e-06	5.240697e-06	1.205800e-08	3.649763e+01	7.984683e+02
1.840000e-06	5.207601e-06	1.216049e-08	3.626714e+01	7.971723e+02
1.850000e-06	5.172668e-06	1.218212e-08	3.602386e+01	7.957269e+02
1.860000e-06	5.136016e-06	1.198638e-08	3.576860e+01	7.940399e+02
1.870000e-06	5.097222e-06	1.213117e-08	3.549843e+01	7.920674e+02
1.880000e-06	5.056717e-06	1.206993e-08	3.521635e+01	7.898291e+02
1.890000e-06	5.014670e-06	1.194352e-08	3.492352e+01	7.873971e+02
1.900000e-06	4.970663e-06	1.196852e-08	3.461704e+01	7.848655e+02
1.910000e-06	4.924899e-06	1.182918e-08	3.429833e+01	7.823125e+02
1.920000e-06	4.877281e-06	1.193362e-08	3.396670e+01	7.797700e+02
1.930000e-06	4.827843e-06	1.189407e-08	3.362240e+01	7.772150e+02
1.940000e-06	4.776679e-06	1.173275e-08	3.326608e+01	7.745828e+02
1.950000e-06	4.723331e-06	1.179765e-08	3.289456e+01	7.717981e+02
1.960000e-06	4.668146e-06	1.169531e-08	3.251023e+01	7.688089e+02
1.970000e-06	4.611361e-06	1.166690e-08	3.211476e+01	7.656081e+02
1.980000e-06	4.552970e-06	1.158850e-08	3.170811e+01	7.622353e+02
1.990000e-06	4.493051e-06	1.151411e-08	3.129082e+01	7.587567e+02
2.000000e-06	4.431365e-06	1.155410e-08	3.086122e+01	7.552339e+02
2.010000e-06	4.368054e-06	1.144120e-08	3.042031e+01	7.516950e+02
2.020000e-06	4.303180e-06	1.143269e-08	2.996851e+01	7.481203e+02
2.030000e-06	4.236848e-06	1.132102e-08	2.950655e+01	7.444506e+02
2.040000e-06	4.169062e-06	1.124886e-08	2.903448e+01	7.406121e+02
2.050000e-06	4.099512e-06	1.124622e-08	2.855011e+01	7.365495e+02
2.060000e-06	4.028424e-06	1.112081e-08	2.805503e+01	7.322493e+02
2.070000e-06	3.956010e-06	1.109956e-08	2.755072e+01	7.277465e+02
2.080000e-06	3.882244e-06	1.100237e-08	2.703700e+01	7.231080e+02
2.090000e-06	3.806925e-06	1.096827e-08	2.651245e+01	7.184028e+02
2.100000e-06	3.729832e-06	1.090100e-08	2.597556e+01	7.136693e+02
2.110000e-06	3.651209e-06	1.078153e-08	2.542801e+01	7.088972e+02
2.120000e-06	3.571358e-06	1.072601e-08	2.487190e+01	7.040285e+02
2.130000e-06	3.490364e-06	1.062025e-08	2.430784e+01	6.989815e+02
2.140000e-06	3.408252e-06	1.058602e-08	2.373599e+01	6.936836e+02
2.150000e-06	3.325015e-06	1.048804e-08	2.315630e+01	6.881019e+02
2.160000e-06	3.240504e-06	1.039525e-08	2.256774e+01	6.822557e+02
2.170000e-06	3.154667e-06	1.030732e-08	2.196995e+01	6.762071e+02
2.180000e-06	3.067655e-06	1.020413e-08	2.136398e+01	6.700325e+02
2.190000e-06	2.979659e-06	1.012435e-08	2.075115e+01	6.637878e+02
2.200000e-06	2.890705e-06	1.000240e-08	2.013165e+01	6.574822e+02
2.210000e-06	2.800802e-06	9.920266e-09	1.950554e+01	6.510730e+02
2.220000e-06	2.710024e-06	9.824924e-09	1.887334e+01	6.444824e+02
2.230000e-06	2.618282e-06	9.727528e-09	1.823443e+01	6.376296e+02
2.240000e-06	2.525518e-06	9.607434e-09	1.758839e+01	6.304643e+02
2.250000e-06	2.431734e-06	9.479408e-09	1.693525e+01	6.229859e+02
2.260000e-06	2.336941e-06	9.376421e-09	1.627509e+01	6.152399e+02
2.270000e-06	2.241339e-06	9.263359e-09	1.560929e+01	6.072931e+02
2.280000e-06	2.145114e-06	9.148896e-09	1.493915e+01	5.991987e+02
2.290000e-06	2.048251e-06	9.014701e-09	1.426457e+01	5.909666e+02
2.300000e-06	1.950674e-06	8.884211e-09	1.358502e+01	5.825530e+02
2.310000e-06	1.852472e-06	8.751141e-09	1.290112e+01	5.738748e+02
2.320000e-06	1.753742e-06	8.612305e-09	1.221353e+01	5.648413e+02
2.330000e-06	1.654468e-06	8.466475e-09	1.152216e+01	5.553915e+02
2.340000e-06	1.554630e-06	8.319686e-09	1.082686e+01	5.455167e+02
2.350000e-06	1.454199e-06	8.176575e-09	1.012744e+01	5.352603e+02
2.360000e-06	1.353131e-06	8.021157e-09	9.423572e+00	5.246912e+02
2.370000e-06	1.251453e-06	7.851242e-09	8.715455e+00	5.138647e+02
2.380000e-06	1.149266e-06	7.672852e-09	8.003800e+00	5.027858e+02
2.390000e-06	1.046591e-06	7.500240e-09	7.288741e+00	4.913950e+02
2.400000e-06	9.434945e-07	7.325398e-09	6.570750e+00	4.795823e+02
2.410000e-06	8.400484e-07	7.141284e-09	5.850324e+00	4.672265e+02
2.420000e-06	7.362920e-07	6.946066e-09	5.127736e+00	4.542412e+02
2.430000e-06	6.322984e-07	6.740597e-09	4.403497e+00	4.406070e+02
2.440000e-06	5.281222e-07	6.524442e-09	3.677986e+00	4.263727e+02
2.450000e-06	4.238439e-07	6.299112e-09	2.951763e+00	4.116222e+02
2.460000e-06	3.194926e-07	6.064788e-09	2.225033e+00	3.964193e+02
2.470000e-06	2.150010e-07	5.822546e-09	1.497325e+00	3.807540e+02
2.480000e-06	1.104337e-07	5.575347e-09	7.690900e-01	3.645168e+02
2.490000e-06	5.808116e-09	5.317839e-09	4.044929e-02	3.475139e+02
2.500000e-06	-9.883063e-08	5.044052e-09	-6.882832e-01	3.295234e+02
2.510000e-06	-2.033670e-07	4.750091e-09	-1.416302e+00	3.103658e+02
2.520000e-06	-3.078224e-07	4.441203e-09	-2.143758e+00	2.899571e+02
2.530000e-06	-4.121829e-07	4.118795e-09	-2.870553e+00	2.683126e+02
2.540000e-06	-5.163830e-07	3.773691e-09	-3.596231e+00	2.454851e+02
2.550000e-06	-6.204205e-07	3.402061e-09	-4.320776e+00	2.214531e+02
2.560000e-06	-7.242929e-07	3.009089e-09	-5.044171e+00	1.959966e+02
2.570000e-06	-8.279173e-07	2.591117e-09	-5.765840e+00	1.686136e+02
2.580000e-06	-9.312195e-07	2.132256e-09	-6.485264e+00	1.385280e+02
2.590000e-06	-1.034121e-06	1.619280e-09	-7.201897e+00	1.048113e+02
2.600000e-06	-1.136571e-06	1.045290e-09	-7.915389e+00	6.660378e+01
2.610000e-06	-1.238514e-06	4.032468e-10	-8.625346e+00	2.338398e+01
2.620000e-06	-1.339895e-06	-3.156351e-10	-9.331388e+00	-2.479122e+01
2.630000e-06	-1.440725e-06	-1.112917e-09	-1.003360e+01	-7.715334e+01
2.640000e-06	-1.540992e-06	-1.965123e-09	-1.073189e+01	-1.322477e+02
2.650000e-06	-1.640660e-06	-2.829343e-09	-1.142600e+01	-1.881253e+02
2.660000e-06	-1.739717e-06	-3.669367e-09	-1.211586e+01	-2.426602e+02
2.670000e-06	-1.838175e-06	-4.457294e-09	-1.280155e+01	-2.939124e+02
2.680000e-06	-1.936052e-06	-5.169687e-09	-1.348319e+01	-3.404436e+02
2.690000e-06	-2.033306e-06	-5.793590e-09	-1.416049e+01	-3.815057e+02
2.700000e-06	-2.129855e-06	-6.333553e-09	-1.483289e+01	-4.170641e+02
2.710000e-06	-2.225719e-06	-6.805324e-09	-1.550051e+01	-4.476623e+02
2.720000e-06	-2.320975e-06	-7.223499e-09	-1.616389e+01	-4.741825e+02
2.730000e-06	-2.415555e-06	-7.594467e-09	-1.682258e+01	-4.975783e+02
2.740000e-06	-2.509258e-06	-7.922550e-09	-1.747515e+01	-5.186566e+02
2.750000e-06	-2.601882e-06	-8.216781e-09	-1.812021e+01	-5.379587e+02
2.760000e-06	-2.693400e-06	-8.485055e-09	-1.875757e+01	-5.557542e+02
2.770000e-06	-2.783879e-06	-8.731344e-09	-1.938768e+01	-5.721232e+02
2.780000e-06	-2.873362e-06	-8.955770e-09	-2.001087e+01	-5.870763e+02
2.790000e-06	-2.961872e-06	-9.161544e-09	-2.062727e+01	-6.006617e+02
2.800000e-06	-3.049414e-06	-9.355141e-09	-2.123694e+01	-6.130198e+02
2.810000e-06	-3.135950e-06	-9.536355e-09	-2.183960e+01	-6.243752e+02
2.820000e-06	-3.221294e-06	-9.700975e-09	-2.243396e+01	-6.349805e+02
2.830000e-06	-3.305345e-06	-9.851937e-09	-2.301931e+01	-6.450451e+02
2.840000e-06	-3.388221e-06	-9.998508e-09	-2.359648e+01	-6.546831e+02
2.850000e-06	-3.469983e-06	-1.014018e-08	-2.416590e+01	-6.639018e+02
2.860000e-06	-3.550576e-06	-1.027064e-08	-2.472717e+01	-6.726336e+02
2.870000e-06	-3.630032e-06	-1.038959e-08	-2.528052e+01	-6.807938e+02
2.880000e-06	-3.708190e-06	-1.050320e-08	-2.582484e+01	-6.883394e+02
2.890000e-06	-3.784786e-06	-1.061292e-08	-2.635827e+01	-6.953027e+02
2.900000e-06	-3.859826e-06	-1.071470e-08	-2.688087e+01	-7.017887e+02
2.910000e-06	-3.933382e-06	-1.080807e-08	-2.739313e+01	-7.079401e+02
2.920000e-06	-4.005564e-06	-1.089916e-08	-2.789583e+01	-7.138872e+02
2.930000e-06	-4.076445e-06	-1.099140e-08	-2.838946e+01	-7.197056e+02
2.940000e-06	-4.145800e-06	-1.107968e-08	-2.887247e+01	-7.253987e+02
