# Temperatura_=_53.28
# Concentracion g/m^3_=_13400.0
# C_Vs_to_Am_M_A/Vsm_=_65563218390.804596
# pendiente_HvsI_1/m_=_3716.3
# ordenada_HvsI_A/m_=_1297.0
# frecuencia_Hz_=_300798.03629478085

Tiempo_(s)	Campo_(V.s)	Magnetizacion_(V.s)	Campo_(kA/m)	Magnetizacion_(A/m)
0.000000e+00	-5.515292e-06	-1.252173e-08	-3.830961e+01	-8.212056e+02
1.000000e-08	-5.513406e-06	-1.252457e-08	-3.829651e+01	-8.210740e+02
2.000000e-08	-5.509574e-06	-1.252058e-08	-3.826989e+01	-8.207132e+02
3.000000e-08	-5.504004e-06	-1.251101e-08	-3.823120e+01	-8.201501e+02
4.000000e-08	-5.496844e-06	-1.250032e-08	-3.818147e+01	-8.194582e+02
5.000000e-08	-5.488039e-06	-1.248823e-08	-3.812031e+01	-8.187258e+02
6.000000e-08	-5.477254e-06	-1.247294e-08	-3.804540e+01	-8.180187e+02
7.000000e-08	-5.464393e-06	-1.244838e-08	-3.795606e+01	-8.173522e+02
8.000000e-08	-5.449484e-06	-1.243388e-08	-3.785250e+01	-8.166855e+02
9.000000e-08	-5.432210e-06	-1.247960e-08	-3.773252e+01	-8.159389e+02
1.000000e-07	-5.412614e-06	-1.249706e-08	-3.759640e+01	-8.150292e+02
1.100000e-07	-5.391017e-06	-1.245621e-08	-3.744639e+01	-8.139050e+02
1.200000e-07	-5.367648e-06	-1.242538e-08	-3.728407e+01	-8.125698e+02
1.300000e-07	-5.342825e-06	-1.232371e-08	-3.711164e+01	-8.110802e+02
1.400000e-07	-5.316457e-06	-1.229358e-08	-3.692849e+01	-8.095223e+02
1.500000e-07	-5.288210e-06	-1.238221e-08	-3.673228e+01	-8.079750e+02
1.600000e-07	-5.258247e-06	-1.226548e-08	-3.652415e+01	-8.064752e+02
1.700000e-07	-5.226706e-06	-1.224039e-08	-3.630507e+01	-8.050013e+02
1.800000e-07	-5.193213e-06	-1.232681e-08	-3.607243e+01	-8.034802e+02
1.900000e-07	-5.157702e-06	-1.221075e-08	-3.582577e+01	-8.018153e+02
2.000000e-07	-5.120595e-06	-1.220424e-08	-3.556801e+01	-7.999250e+02
2.100000e-07	-5.081813e-06	-1.218781e-08	-3.529863e+01	-7.977733e+02
2.200000e-07	-5.041233e-06	-1.206341e-08	-3.501676e+01	-7.953826e+02
2.300000e-07	-4.998748e-06	-1.207992e-08	-3.472166e+01	-7.928216e+02
2.400000e-07	-4.954282e-06	-1.207306e-08	-3.441280e+01	-7.901759e+02
2.500000e-07	-4.908022e-06	-1.202375e-08	-3.409147e+01	-7.875116e+02
2.600000e-07	-4.859895e-06	-1.198935e-08	-3.375717e+01	-7.848500e+02
2.700000e-07	-4.809784e-06	-1.190082e-08	-3.340910e+01	-7.821605e+02
2.800000e-07	-4.757630e-06	-1.187764e-08	-3.304684e+01	-7.793771e+02
2.900000e-07	-4.703512e-06	-1.184477e-08	-3.267093e+01	-7.764280e+02
3.000000e-07	-4.647708e-06	-1.178027e-08	-3.228331e+01	-7.732672e+02
3.100000e-07	-4.590250e-06	-1.172764e-08	-3.188420e+01	-7.698934e+02
3.200000e-07	-4.530969e-06	-1.169112e-08	-3.147243e+01	-7.663482e+02
3.300000e-07	-4.470042e-06	-1.166464e-08	-3.104923e+01	-7.626966e+02
3.400000e-07	-4.407676e-06	-1.157860e-08	-3.061603e+01	-7.589962e+02
3.500000e-07	-4.343814e-06	-1.150977e-08	-3.017244e+01	-7.552713e+02
3.600000e-07	-4.278395e-06	-1.144767e-08	-2.971803e+01	-7.515013e+02
3.700000e-07	-4.211275e-06	-1.139205e-08	-2.925182e+01	-7.476297e+02
3.800000e-07	-4.142533e-06	-1.135815e-08	-2.877433e+01	-7.435885e+02
3.900000e-07	-4.072356e-06	-1.127466e-08	-2.828687e+01	-7.393272e+02
4.000000e-07	-4.000864e-06	-1.119872e-08	-2.779028e+01	-7.348345e+02
4.100000e-07	-3.928105e-06	-1.113868e-08	-2.728489e+01	-7.301414e+02
4.200000e-07	-3.853852e-06	-1.107082e-08	-2.676913e+01	-7.253069e+02
4.300000e-07	-3.777927e-06	-1.098644e-08	-2.624175e+01	-7.203903e+02
4.400000e-07	-3.700391e-06	-1.089146e-08	-2.570318e+01	-7.154246e+02
4.500000e-07	-3.621354e-06	-1.082553e-08	-2.515418e+01	-7.104008e+02
4.600000e-07	-3.540791e-06	-1.076007e-08	-2.459459e+01	-7.052717e+02
4.700000e-07	-3.458854e-06	-1.068368e-08	-2.402545e+01	-6.999714e+02
4.800000e-07	-3.375776e-06	-1.058712e-08	-2.344838e+01	-6.944438e+02
4.900000e-07	-3.291619e-06	-1.048589e-08	-2.286382e+01	-6.886656e+02
5.000000e-07	-3.206439e-06	-1.040425e-08	-2.227215e+01	-6.826544e+02
5.100000e-07	-3.120323e-06	-1.031848e-08	-2.167398e+01	-6.764589e+02
5.200000e-07	-3.033256e-06	-1.022189e-08	-2.106921e+01	-6.701349e+02
5.300000e-07	-2.945182e-06	-1.011667e-08	-2.045745e+01	-6.637183e+02
5.400000e-07	-2.856159e-06	-1.001845e-08	-1.983908e+01	-6.572073e+02
5.500000e-07	-2.766096e-06	-9.921769e-09	-1.921350e+01	-6.505614e+02
5.600000e-07	-2.674753e-06	-9.808917e-09	-1.857902e+01	-6.437179e+02
5.700000e-07	-2.582307e-06	-9.687956e-09	-1.793689e+01	-6.366175e+02
5.800000e-07	-2.489065e-06	-9.572811e-09	-1.728922e+01	-6.292282e+02
5.900000e-07	-2.395033e-06	-9.471600e-09	-1.663607e+01	-6.215553e+02
6.000000e-07	-2.300219e-06	-9.361474e-09	-1.597748e+01	-6.136345e+02
6.100000e-07	-2.204578e-06	-9.232695e-09	-1.531315e+01	-6.055098e+02
6.200000e-07	-2.108127e-06	-9.096983e-09	-1.464320e+01	-5.972080e+02
6.300000e-07	-2.011003e-06	-8.964728e-09	-1.396857e+01	-5.887208e+02
6.400000e-07	-1.913159e-06	-8.833674e-09	-1.328894e+01	-5.800041e+02
6.500000e-07	-1.814407e-06	-8.689652e-09	-1.260300e+01	-5.709942e+02
6.600000e-07	-1.714771e-06	-8.539262e-09	-1.191092e+01	-5.616341e+02
6.700000e-07	-1.614490e-06	-8.392950e-09	-1.121436e+01	-5.518970e+02
6.800000e-07	-1.513749e-06	-8.250288e-09	-1.051461e+01	-5.417945e+02
6.900000e-07	-1.412577e-06	-8.096065e-09	-9.811859e+00	-5.313657e+02
7.000000e-07	-1.310903e-06	-7.928518e-09	-9.105628e+00	-5.206505e+02
7.100000e-07	-1.208786e-06	-7.758104e-09	-8.396315e+00	-5.096590e+02
7.200000e-07	-1.106303e-06	-7.586190e-09	-7.684458e+00	-4.983529e+02
7.300000e-07	-1.003418e-06	-7.405000e-09	-6.969811e+00	-4.866488e+02
7.400000e-07	-9.001805e-07	-7.209887e-09	-6.252718e+00	-4.744440e+02
7.500000e-07	-7.966628e-07	-7.010904e-09	-5.533676e+00	-4.616543e+02
7.600000e-07	-6.928691e-07	-6.812313e-09	-4.812718e+00	-4.482468e+02
7.700000e-07	-5.888118e-07	-6.607646e-09	-4.089929e+00	-4.342497e+02
7.800000e-07	-4.845572e-07	-6.388473e-09	-3.365768e+00	-4.197326e+02
7.900000e-07	-3.801626e-07	-6.158320e-09	-2.640636e+00	-4.047610e+02
8.000000e-07	-2.756274e-07	-5.924998e-09	-1.914528e+00	-3.893446e+02
8.100000e-07	-1.709720e-07	-5.684789e-09	-1.187584e+00	-3.734028e+02
8.200000e-07	-6.625267e-08	-5.428793e-09	-4.601958e-01	-3.567648e+02
8.300000e-07	3.844894e-08	-5.153498e-09	2.670691e-01	-3.392119e+02
8.400000e-07	1.431386e-07	-4.864238e-09	9.942510e-01	-3.205439e+02
8.500000e-07	2.478018e-07	-4.564257e-09	1.721249e+00	-3.006427e+02
8.600000e-07	3.523887e-07	-4.248095e-09	2.447717e+00	-2.794982e+02
8.700000e-07	4.568925e-07	-3.910033e-09	3.173608e+00	-2.571750e+02
8.800000e-07	5.612313e-07	-3.552989e-09	3.898353e+00	-2.337183e+02
8.900000e-07	6.653587e-07	-3.178361e-09	4.621629e+00	-2.090275e+02
9.000000e-07	7.692494e-07	-2.776017e-09	5.343261e+00	-1.827443e+02
9.100000e-07	8.728572e-07	-2.330682e-09	6.062928e+00	-1.542101e+02
9.200000e-07	9.761367e-07	-1.834113e-09	6.780315e+00	-1.225290e+02
9.300000e-07	1.079074e-06	-1.284613e-09	7.495326e+00	-8.674331e+01
9.400000e-07	1.181662e-06	-6.714024e-10	8.207905e+00	-4.608919e+01
9.500000e-07	1.283853e-06	2.143718e-11	8.917737e+00	-2.647462e-01
9.600000e-07	1.385605e-06	7.979594e-10	9.624507e+00	5.036793e+01
9.700000e-07	1.486889e-06	1.637191e-09	1.032804e+01	1.047158e+02
9.800000e-07	1.587760e-06	2.503982e-09	1.102870e+01	1.610567e+02
9.900000e-07	1.688190e-06	3.364066e-09	1.172629e+01	2.172948e+02
1.000000e-06	1.787966e-06	4.184096e-09	1.241934e+01	2.713106e+02
1.010000e-06	1.886923e-06	4.933722e-09	1.310670e+01	3.213165e+02
1.020000e-06	1.984999e-06	5.598040e-09	1.378795e+01	3.661283e+02
1.030000e-06	2.082242e-06	6.181506e-09	1.446340e+01	4.052879e+02
1.040000e-06	2.178725e-06	6.692221e-09	1.513358e+01	4.390184e+02
1.050000e-06	2.274478e-06	7.136120e-09	1.579869e+01	4.680387e+02
1.060000e-06	2.369488e-06	7.521932e-09	1.645863e+01	4.933035e+02
1.070000e-06	2.463694e-06	7.864060e-09	1.711299e+01	5.157473e+02
1.080000e-06	2.557130e-06	8.171345e-09	1.776200e+01	5.361008e+02
1.090000e-06	2.649815e-06	8.450327e-09	1.840580e+01	5.548144e+02
1.100000e-06	2.741550e-06	8.707637e-09	1.904300e+01	5.720882e+02
1.110000e-06	2.832088e-06	8.945144e-09	1.967189e+01	5.879717e+02
1.120000e-06	2.921453e-06	9.164893e-09	2.029262e+01	6.024824e+02
1.130000e-06	3.009789e-06	9.368542e-09	2.090621e+01	6.156952e+02
1.140000e-06	3.097177e-06	9.556888e-09	2.151321e+01	6.277744e+02
1.150000e-06	3.183558e-06	9.728898e-09	2.211322e+01	6.389487e+02
1.160000e-06	3.268874e-06	9.885962e-09	2.270583e+01	6.494497e+02
1.170000e-06	3.353203e-06	1.003404e-08	2.329158e+01	6.594488e+02
1.180000e-06	3.436407e-06	1.017828e-08	2.386953e+01	6.690207e+02
1.190000e-06	3.518250e-06	1.031936e-08	2.443802e+01	6.781481e+02
1.200000e-06	3.598744e-06	1.045262e-08	2.499713e+01	6.867623e+02
1.210000e-06	3.677950e-06	1.057488e-08	2.554730e+01	6.947989e+02
1.220000e-06	3.755920e-06	1.068791e-08	2.608889e+01	7.022446e+02
1.230000e-06	3.832624e-06	1.079407e-08	2.662168e+01	7.091557e+02
1.240000e-06	3.907755e-06	1.089381e-08	2.714354e+01	7.156426e+02
1.250000e-06	3.981230e-06	1.098802e-08	2.765390e+01	7.218311e+02
1.260000e-06	4.053246e-06	1.107839e-08	2.815414e+01	7.278189e+02
1.270000e-06	4.123853e-06	1.116582e-08	2.864458e+01	7.336466e+02
1.280000e-06	4.193065e-06	1.125113e-08	2.912532e+01	7.392960e+02
1.290000e-06	4.260846e-06	1.133353e-08	2.959614e+01	7.447133e+02
1.300000e-06	4.326989e-06	1.141242e-08	3.005557e+01	7.498455e+02
1.310000e-06	4.391521e-06	1.148718e-08	3.050382e+01	7.546730e+02
1.320000e-06	4.454596e-06	1.155666e-08	3.094194e+01	7.592231e+02
1.330000e-06	4.516222e-06	1.162222e-08	3.137000e+01	7.635592e+02
1.340000e-06	4.576433e-06	1.168648e-08	3.178823e+01	7.677526e+02
1.350000e-06	4.634971e-06	1.174819e-08	3.219484e+01	7.718499e+02
1.360000e-06	4.691675e-06	1.180605e-08	3.258871e+01	7.758516e+02
1.370000e-06	4.746721e-06	1.186339e-08	3.297106e+01	7.797133e+02
1.380000e-06	4.800082e-06	1.192039e-08	3.334171e+01	7.833668e+02
1.390000e-06	4.851461e-06	1.197209e-08	3.369859e+01	7.867538e+02
1.400000e-06	4.900752e-06	1.201738e-08	3.404097e+01	7.898547e+02
1.410000e-06	4.948237e-06	1.205945e-08	3.437080e+01	7.927013e+02
1.420000e-06	4.994095e-06	1.210287e-08	3.468934e+01	7.953655e+02
1.430000e-06	5.038289e-06	1.214606e-08	3.499631e+01	7.979297e+02
1.440000e-06	5.080556e-06	1.218464e-08	3.528990e+01	8.004521e+02
1.450000e-06	5.120936e-06	1.222052e-08	3.557039e+01	8.029417e+02
1.460000e-06	5.159647e-06	1.225694e-08	3.583927e+01	8.053548e+02
1.470000e-06	5.196631e-06	1.229427e-08	3.609617e+01	8.076147e+02
1.480000e-06	5.231715e-06	1.232744e-08	3.633987e+01	8.096461e+02
1.490000e-06	5.264834e-06	1.235383e-08	3.656991e+01	8.114099e+02
1.500000e-06	5.296171e-06	1.237612e-08	3.678758e+01	8.129224e+02
1.510000e-06	5.325831e-06	1.239825e-08	3.699360e+01	8.142516e+02
1.520000e-06	5.353725e-06	1.242189e-08	3.718736e+01	8.154896e+02
1.530000e-06	5.379563e-06	1.244362e-08	3.736683e+01	8.167158e+02
1.540000e-06	5.403328e-06	1.246249e-08	3.753190e+01	8.179636e+02
1.550000e-06	5.425279e-06	1.248090e-08	3.768437e+01	8.192074e+02
1.560000e-06	5.445470e-06	1.249958e-08	3.782462e+01	8.203735e+02
1.570000e-06	5.463756e-06	1.251507e-08	3.795164e+01	8.213722e+02
1.580000e-06	5.480043e-06	1.252457e-08	3.806477e+01	8.221366e+02
1.590000e-06	5.494333e-06	1.253156e-08	3.816403e+01	8.226512e+02
1.600000e-06	5.506491e-06	1.254042e-08	3.824848e+01	8.229600e+02
1.610000e-06	5.516419e-06	1.254965e-08	3.831744e+01	8.231478e+02
1.620000e-06	5.524331e-06	1.255541e-08	3.837239e+01	8.233061e+02
1.630000e-06	5.530381e-06	1.255846e-08	3.841442e+01	8.234944e+02
1.640000e-06	5.534582e-06	1.256146e-08	3.844360e+01	8.237168e+02
1.650000e-06	5.536771e-06	1.256622e-08	3.845880e+01	8.239209e+02
1.660000e-06	5.536943e-06	1.257030e-08	3.846000e+01	8.240214e+02
1.670000e-06	5.535362e-06	1.256516e-08	3.844902e+01	8.239369e+02
1.680000e-06	5.532081e-06	1.255690e-08	3.842623e+01	8.236249e+02
1.690000e-06	5.526886e-06	1.255025e-08	3.839014e+01	8.231003e+02
1.700000e-06	5.519773e-06	1.254303e-08	3.834074e+01	8.224286e+02
1.710000e-06	5.511004e-06	1.253557e-08	3.827983e+01	8.216981e+02
1.720000e-06	5.500565e-06	1.253068e-08	3.820731e+01	8.209824e+02
1.730000e-06	5.488176e-06	1.253991e-08	3.812126e+01	8.203090e+02
1.740000e-06	5.473744e-06	1.251275e-08	3.802102e+01	8.196482e+02
1.750000e-06	5.457237e-06	1.243141e-08	3.790636e+01	8.189263e+02
1.760000e-06	5.438151e-06	1.241653e-08	3.777378e+01	8.180575e+02
1.770000e-06	5.416333e-06	1.241486e-08	3.762224e+01	8.169812e+02
1.780000e-06	5.392572e-06	1.246093e-08	3.745718e+01	8.156881e+02
1.790000e-06	5.367804e-06	1.249747e-08	3.728515e+01	8.142249e+02
1.800000e-06	5.342133e-06	1.233948e-08	3.710683e+01	8.126743e+02
1.810000e-06	5.314502e-06	1.237137e-08	3.691491e+01	8.111198e+02
1.820000e-06	5.284561e-06	1.242062e-08	3.670694e+01	8.096097e+02
1.830000e-06	5.253060e-06	1.225929e-08	3.648813e+01	8.081351e+02
1.840000e-06	5.219810e-06	1.233124e-08	3.625717e+01	8.066320e+02
1.850000e-06	5.184735e-06	1.231887e-08	3.601353e+01	8.050060e+02
1.860000e-06	5.147902e-06	1.218061e-08	3.575769e+01	8.031690e+02
1.870000e-06	5.108977e-06	1.228883e-08	3.548732e+01	8.010735e+02
1.880000e-06	5.068363e-06	1.222481e-08	3.520521e+01	7.987295e+02
1.890000e-06	5.026121e-06	1.212150e-08	3.491179e+01	7.961980e+02
1.900000e-06	4.981877e-06	1.211843e-08	3.460447e+01	7.935637e+02
1.910000e-06	4.935894e-06	1.200593e-08	3.428507e+01	7.909000e+02
1.920000e-06	4.888094e-06	1.206466e-08	3.395305e+01	7.882388e+02
1.930000e-06	4.838452e-06	1.202294e-08	3.360823e+01	7.855601e+02
1.940000e-06	4.787056e-06	1.191444e-08	3.325123e+01	7.828033e+02
1.950000e-06	4.733532e-06	1.193174e-08	3.287945e+01	7.798949e+02
1.960000e-06	4.678203e-06	1.184476e-08	3.249513e+01	7.767814e+02
1.970000e-06	4.621223e-06	1.181106e-08	3.209934e+01	7.734511e+02
1.980000e-06	4.562582e-06	1.171574e-08	3.169202e+01	7.699376e+02
1.990000e-06	4.502346e-06	1.165963e-08	3.127362e+01	7.663033e+02
2.000000e-06	4.440323e-06	1.167268e-08	3.084280e+01	7.626100e+02
2.010000e-06	4.376767e-06	1.157681e-08	3.040133e+01	7.588906e+02
2.020000e-06	4.311713e-06	1.155685e-08	2.994946e+01	7.551342e+02
2.030000e-06	4.245181e-06	1.144958e-08	2.948733e+01	7.512903e+02
2.040000e-06	4.177093e-06	1.138152e-08	2.901438e+01	7.472907e+02
2.050000e-06	4.107208e-06	1.134764e-08	2.852896e+01	7.430792e+02
2.060000e-06	4.035832e-06	1.123841e-08	2.803318e+01	7.386349e+02
2.070000e-06	3.963129e-06	1.120638e-08	2.752817e+01	7.339805e+02
2.080000e-06	3.889047e-06	1.112021e-08	2.701360e+01	7.291709e+02
2.090000e-06	3.813449e-06	1.107920e-08	2.648849e+01	7.242680e+02
2.100000e-06	3.736113e-06	1.100073e-08	2.595131e+01	7.193121e+02
2.110000e-06	3.657229e-06	1.089102e-08	2.540337e+01	7.143038e+02
2.120000e-06	3.577114e-06	1.081570e-08	2.484689e+01	7.092026e+02
2.130000e-06	3.495892e-06	1.071462e-08	2.428272e+01	7.039446e+02
2.140000e-06	3.413558e-06	1.066779e-08	2.371082e+01	6.984692e+02
2.150000e-06	3.330087e-06	1.057289e-08	2.313102e+01	6.927446e+02
2.160000e-06	3.245300e-06	1.048731e-08	2.254208e+01	6.867801e+02
2.170000e-06	3.159121e-06	1.039405e-08	2.194348e+01	6.806193e+02
2.180000e-06	3.071824e-06	1.028934e-08	2.133711e+01	6.743189e+02
2.190000e-06	2.983576e-06	1.019770e-08	2.072413e+01	6.679210e+02
2.200000e-06	2.894355e-06	1.007997e-08	2.010440e+01	6.614325e+02
2.210000e-06	2.804155e-06	9.990454e-09	1.947786e+01	6.548205e+02
2.220000e-06	2.713051e-06	9.892456e-09	1.884505e+01	6.480249e+02
2.230000e-06	2.621040e-06	9.797279e-09	1.820593e+01	6.409836e+02
2.240000e-06	2.528035e-06	9.678579e-09	1.755991e+01	6.336571e+02
2.250000e-06	2.433941e-06	9.549329e-09	1.690633e+01	6.260428e+02
2.260000e-06	2.338935e-06	9.434643e-09	1.624641e+01	6.181714e+02
2.270000e-06	2.243180e-06	9.318509e-09	1.558129e+01	6.100873e+02
2.280000e-06	2.146662e-06	9.200830e-09	1.491087e+01	6.018229e+02
2.290000e-06	2.049463e-06	9.062363e-09	1.423571e+01	5.933782e+02
2.300000e-06	1.951589e-06	8.927517e-09	1.355587e+01	5.847158e+02
2.310000e-06	1.853116e-06	8.795723e-09	1.287187e+01	5.757743e+02
2.320000e-06	1.754083e-06	8.659538e-09	1.218399e+01	5.664929e+02
2.330000e-06	1.654521e-06	8.511663e-09	1.149242e+01	5.568369e+02
2.340000e-06	1.554429e-06	8.358008e-09	1.079717e+01	5.468101e+02
2.350000e-06	1.453653e-06	8.204302e-09	1.009717e+01	5.364476e+02
2.360000e-06	1.352152e-06	8.042078e-09	9.392143e+00	5.257916e+02
2.370000e-06	1.250051e-06	7.870470e-09	8.682940e+00	5.148608e+02
2.380000e-06	1.147422e-06	7.693883e-09	7.970074e+00	5.036279e+02
2.390000e-06	1.044353e-06	7.521116e-09	7.254151e+00	4.920177e+02
2.400000e-06	9.409718e-07	7.343823e-09	6.536057e+00	4.799286e+02
2.410000e-06	8.372950e-07	7.152882e-09	5.815910e+00	4.672693e+02
2.420000e-06	7.333811e-07	6.948155e-09	5.094117e+00	4.539939e+02
2.430000e-06	6.292352e-07	6.734668e-09	4.370712e+00	4.401182e+02
2.440000e-06	5.248157e-07	6.515820e-09	3.645407e+00	4.257061e+02
2.450000e-06	4.201794e-07	6.290127e-09	2.918596e+00	4.108285e+02
2.460000e-06	3.154178e-07	6.055016e-09	2.190914e+00	3.955111e+02
2.470000e-06	2.105758e-07	5.811754e-09	1.462674e+00	3.796936e+02
2.480000e-06	1.056815e-07	5.559520e-09	7.340709e-01	3.632225e+02
2.490000e-06	7.486078e-10	5.292309e-09	5.199883e-03	3.458844e+02
2.500000e-06	-1.041682e-07	5.008174e-09	-7.235597e-01	3.274690e+02
2.510000e-06	-2.089938e-07	4.709172e-09	-1.451686e+00	3.078365e+02
2.520000e-06	-3.137334e-07	4.396783e-09	-2.179214e+00	2.869546e+02
2.530000e-06	-4.183633e-07	4.067626e-09	-2.905981e+00	2.648778e+02
2.540000e-06	-5.228702e-07	3.715813e-09	-3.631894e+00	2.416656e+02
2.550000e-06	-6.271991e-07	3.339593e-09	-4.356569e+00	2.172594e+02
2.560000e-06	-7.312660e-07	2.939808e-09	-5.079425e+00	1.913629e+02
2.570000e-06	-8.350317e-07	2.508795e-09	-5.800189e+00	1.633805e+02
2.580000e-06	-9.385042e-07	2.035097e-09	-6.518916e+00	1.324558e+02
2.590000e-06	-1.041683e-06	1.508801e-09	-7.235602e+00	9.762494e+01
2.600000e-06	-1.144465e-06	9.182145e-10	-7.949534e+00	5.805908e+01
2.610000e-06	-1.246809e-06	2.529953e-10	-8.660420e+00	1.333689e+01
2.620000e-06	-1.348609e-06	-4.932219e-10	-9.367534e+00	-3.633284e+01
2.630000e-06	-1.449702e-06	-1.313631e-09	-1.006973e+01	-9.001106e+01
2.640000e-06	-1.550153e-06	-2.180196e-09	-1.076747e+01	-1.460934e+02
2.650000e-06	-1.650074e-06	-3.054447e-09	-1.146153e+01	-2.025367e+02
2.660000e-06	-1.749380e-06	-3.898168e-09	-1.215132e+01	-2.571954e+02
2.670000e-06	-1.848050e-06	-4.678332e-09	-1.283668e+01	-3.081837e+02
2.680000e-06	-1.946146e-06	-5.378450e-09	-1.351807e+01	-3.541722e+02
2.690000e-06	-2.043567e-06	-5.994859e-09	-1.419476e+01	-3.945452e+02
2.700000e-06	-2.140278e-06	-6.531747e-09	-1.486652e+01	-4.293917e+02
2.710000e-06	-2.236332e-06	-6.998862e-09	-1.553372e+01	-4.593447e+02
2.720000e-06	-2.331748e-06	-7.406806e-09	-1.619649e+01	-4.853314e+02
2.730000e-06	-2.426531e-06	-7.765116e-09	-1.685486e+01	-5.083092e+02
2.740000e-06	-2.520462e-06	-8.084413e-09	-1.750731e+01	-5.290629e+02
2.750000e-06	-2.613288e-06	-8.375190e-09	-1.815208e+01	-5.481037e+02
2.760000e-06	-2.704982e-06	-8.643210e-09	-1.878899e+01	-5.656784e+02
2.770000e-06	-2.795634e-06	-8.889070e-09	-1.941867e+01	-5.818588e+02
2.780000e-06	-2.885286e-06	-9.113476e-09	-2.004140e+01	-5.966602e+02
2.790000e-06	-2.973935e-06	-9.320050e-09	-2.065716e+01	-6.101402e+02
2.800000e-06	-3.061622e-06	-9.512300e-09	-2.126624e+01	-6.224444e+02
2.810000e-06	-3.148394e-06	-9.689411e-09	-2.186896e+01	-6.337921e+02
2.820000e-06	-3.233980e-06	-9.852532e-09	-2.246345e+01	-6.444199e+02
2.830000e-06	-3.318157e-06	-1.000670e-08	-2.304816e+01	-6.545166e+02
2.840000e-06	-3.401107e-06	-1.015490e-08	-2.362433e+01	-6.641787e+02
2.850000e-06	-3.482921e-06	-1.029563e-08	-2.419261e+01	-6.734062e+02
2.860000e-06	-3.563563e-06	-1.042774e-08	-2.475276e+01	-6.821367e+02
2.870000e-06	-3.643099e-06	-1.055035e-08	-2.530523e+01	-6.903003e+02
2.880000e-06	-3.721373e-06	-1.066397e-08	-2.584892e+01	-6.978702e+02
2.890000e-06	-3.798066e-06	-1.077055e-08	-2.638164e+01	-7.048878e+02
2.900000e-06	-3.873218e-06	-1.087099e-08	-2.690365e+01	-7.114548e+02
2.910000e-06	-3.946926e-06	-1.096762e-08	-2.741563e+01	-7.176974e+02
2.920000e-06	-4.019222e-06	-1.106318e-08	-2.791780e+01	-7.237224e+02
2.930000e-06	-4.090206e-06	-1.115594e-08	-2.841086e+01	-7.295841e+02
2.940000e-06	-4.159672e-06	-1.124202e-08	-2.889337e+01	-7.352754e+02
