# Temperatura_=_38.3
# Concentracion g/m^3_=_13400.0
# C_Vs_to_Am_M_A/Vsm_=_65563218390.804596
# pendiente_HvsI_1/m_=_3716.3
# ordenada_HvsI_A/m_=_1297.0
# frecuencia_Hz_=_300802.0124615148

Tiempo_(s)	Campo_(V.s)	Magnetizacion_(V.s)	Campo_(kA/m)	Magnetizacion_(A/m)
0.000000e+00	-5.509200e-06	-1.216603e-08	-3.831351e+01	-7.970283e+02
1.000000e-08	-5.507466e-06	-1.217012e-08	-3.830145e+01	-7.970019e+02
2.000000e-08	-5.503770e-06	-1.216776e-08	-3.827575e+01	-7.967746e+02
3.000000e-08	-5.498335e-06	-1.216229e-08	-3.823795e+01	-7.963262e+02
4.000000e-08	-5.491276e-06	-1.215402e-08	-3.818886e+01	-7.956935e+02
5.000000e-08	-5.482569e-06	-1.213984e-08	-3.812830e+01	-7.949539e+02
6.000000e-08	-5.471919e-06	-1.212158e-08	-3.805424e+01	-7.941925e+02
7.000000e-08	-5.459148e-06	-1.209343e-08	-3.796543e+01	-7.934664e+02
8.000000e-08	-5.444387e-06	-1.206847e-08	-3.786277e+01	-7.927827e+02
9.000000e-08	-5.427342e-06	-1.212562e-08	-3.774423e+01	-7.920977e+02
1.000000e-07	-5.407904e-06	-1.215899e-08	-3.760905e+01	-7.913378e+02
1.100000e-07	-5.386448e-06	-1.210807e-08	-3.745983e+01	-7.904325e+02
1.200000e-07	-5.363206e-06	-1.208142e-08	-3.729820e+01	-7.893448e+02
1.300000e-07	-5.338515e-06	-1.197587e-08	-3.712649e+01	-7.880858e+02
1.400000e-07	-5.312313e-06	-1.192480e-08	-3.694427e+01	-7.867087e+02
1.500000e-07	-5.284261e-06	-1.206309e-08	-3.674918e+01	-7.852837e+02
1.600000e-07	-5.254493e-06	-1.193532e-08	-3.654216e+01	-7.838653e+02
1.700000e-07	-5.223144e-06	-1.188850e-08	-3.632415e+01	-7.824676e+02
1.800000e-07	-5.189852e-06	-1.202572e-08	-3.609261e+01	-7.810558e+02
1.900000e-07	-5.154515e-06	-1.187053e-08	-3.584686e+01	-7.795597e+02
2.000000e-07	-5.117610e-06	-1.186531e-08	-3.559021e+01	-7.779015e+02
2.100000e-07	-5.078986e-06	-1.189070e-08	-3.532160e+01	-7.760269e+02
2.200000e-07	-5.038494e-06	-1.173127e-08	-3.504001e+01	-7.739265e+02
2.300000e-07	-4.996033e-06	-1.176237e-08	-3.474471e+01	-7.716373e+02
2.400000e-07	-4.951581e-06	-1.178143e-08	-3.443557e+01	-7.692266e+02
2.500000e-07	-4.905448e-06	-1.171390e-08	-3.411474e+01	-7.667630e+02
2.600000e-07	-4.857516e-06	-1.168713e-08	-3.378140e+01	-7.642890e+02
2.700000e-07	-4.807550e-06	-1.158371e-08	-3.343391e+01	-7.618055e+02
2.800000e-07	-4.755476e-06	-1.157392e-08	-3.307177e+01	-7.592743e+02
2.900000e-07	-4.701522e-06	-1.155774e-08	-3.269655e+01	-7.566369e+02
3.000000e-07	-4.645926e-06	-1.149334e-08	-3.230990e+01	-7.538408e+02
3.100000e-07	-4.588592e-06	-1.144709e-08	-3.191118e+01	-7.508606e+02
3.200000e-07	-4.529378e-06	-1.140576e-08	-3.149938e+01	-7.477064e+02
3.300000e-07	-4.468572e-06	-1.139593e-08	-3.107650e+01	-7.444157e+02
3.400000e-07	-4.406324e-06	-1.130350e-08	-3.064360e+01	-7.410332e+02
3.500000e-07	-4.342565e-06	-1.123362e-08	-3.020020e+01	-7.375887e+02
3.600000e-07	-4.277354e-06	-1.118587e-08	-2.974669e+01	-7.340829e+02
3.700000e-07	-4.210465e-06	-1.113261e-08	-2.928151e+01	-7.304878e+02
3.800000e-07	-4.141910e-06	-1.111549e-08	-2.880475e+01	-7.267604e+02
3.900000e-07	-4.071920e-06	-1.103332e-08	-2.831801e+01	-7.228635e+02
4.000000e-07	-4.000576e-06	-1.095350e-08	-2.782184e+01	-7.187830e+02
4.100000e-07	-3.927917e-06	-1.089826e-08	-2.731654e+01	-7.145342e+02
4.200000e-07	-3.853776e-06	-1.083617e-08	-2.680093e+01	-7.101530e+02
4.300000e-07	-3.777935e-06	-1.076808e-08	-2.627350e+01	-7.056764e+02
4.400000e-07	-3.700510e-06	-1.067888e-08	-2.573505e+01	-7.011224e+02
4.500000e-07	-3.621683e-06	-1.062031e-08	-2.518685e+01	-6.964776e+02
4.600000e-07	-3.541334e-06	-1.055830e-08	-2.462807e+01	-6.916993e+02
4.700000e-07	-3.459602e-06	-1.048212e-08	-2.405966e+01	-6.867322e+02
4.800000e-07	-3.376688e-06	-1.038963e-08	-2.348304e+01	-6.815319e+02
4.900000e-07	-3.292659e-06	-1.029006e-08	-2.289867e+01	-6.760845e+02
5.000000e-07	-3.207659e-06	-1.022129e-08	-2.230754e+01	-6.704130e+02
5.100000e-07	-3.121680e-06	-1.014257e-08	-2.170960e+01	-6.645677e+02
5.200000e-07	-3.034713e-06	-1.004897e-08	-2.110479e+01	-6.586030e+02
5.300000e-07	-2.946759e-06	-9.943866e-09	-2.049312e+01	-6.525518e+02
5.400000e-07	-2.857859e-06	-9.849386e-09	-1.987487e+01	-6.464092e+02
5.500000e-07	-2.767941e-06	-9.764065e-09	-1.924953e+01	-6.401317e+02
5.600000e-07	-2.676776e-06	-9.660001e-09	-1.861553e+01	-6.336544e+02
5.700000e-07	-2.584511e-06	-9.547712e-09	-1.797387e+01	-6.269181e+02
5.800000e-07	-2.491409e-06	-9.435274e-09	-1.732640e+01	-6.198937e+02
5.900000e-07	-2.397517e-06	-9.336805e-09	-1.667343e+01	-6.125935e+02
6.000000e-07	-2.302806e-06	-9.227526e-09	-1.601478e+01	-6.050620e+02
6.100000e-07	-2.207310e-06	-9.101479e-09	-1.535065e+01	-5.973520e+02
6.200000e-07	-2.111108e-06	-8.974889e-09	-1.468161e+01	-5.894941e+02
6.300000e-07	-2.014216e-06	-8.854527e-09	-1.400778e+01	-5.814752e+02
6.400000e-07	-1.916524e-06	-8.735368e-09	-1.332839e+01	-5.732363e+02
6.500000e-07	-1.817940e-06	-8.597742e-09	-1.264279e+01	-5.646915e+02
6.600000e-07	-1.718541e-06	-8.450939e-09	-1.195152e+01	-5.557605e+02
6.700000e-07	-1.618455e-06	-8.307646e-09	-1.125548e+01	-5.464009e+02
6.800000e-07	-1.517838e-06	-8.167657e-09	-1.055574e+01	-5.366251e+02
6.900000e-07	-1.416786e-06	-8.013816e-09	-9.852980e+00	-5.264915e+02
7.000000e-07	-1.315274e-06	-7.848113e-09	-9.147018e+00	-5.160746e+02
7.100000e-07	-1.213279e-06	-7.685208e-09	-8.437700e+00	-5.054237e+02
7.200000e-07	-1.110878e-06	-7.524719e-09	-7.725555e+00	-4.945300e+02
7.300000e-07	-1.008117e-06	-7.353220e-09	-7.010910e+00	-4.833178e+02
7.400000e-07	-9.049829e-07	-7.163604e-09	-6.293667e+00	-4.716647e+02
7.500000e-07	-8.014928e-07	-6.970598e-09	-5.573949e+00	-4.594448e+02
7.600000e-07	-6.977403e-07	-6.778732e-09	-4.852407e+00	-4.465762e+02
7.700000e-07	-5.938074e-07	-6.579653e-09	-4.129610e+00	-4.330507e+02
7.800000e-07	-4.897121e-07	-6.363536e-09	-3.405683e+00	-4.189313e+02
7.900000e-07	-3.854580e-07	-6.136719e-09	-2.680653e+00	-4.043132e+02
8.000000e-07	-2.810474e-07	-5.909370e-09	-1.954533e+00	-3.892660e+02
8.100000e-07	-1.765335e-07	-5.677931e-09	-1.227695e+00	-3.737780e+02
8.200000e-07	-7.198793e-08	-5.431460e-09	-5.006372e-01	-3.577318e+02
8.300000e-07	3.254916e-08	-5.166774e-09	2.263618e-01	-3.409234e+02
8.400000e-07	1.370491e-07	-4.890425e-09	9.531022e-01	-3.231218e+02
8.500000e-07	2.415134e-07	-4.603709e-09	1.679595e+00	-3.041436e+02
8.600000e-07	3.459025e-07	-4.300797e-09	2.405565e+00	-2.839083e+02
8.700000e-07	4.501718e-07	-3.974560e-09	3.130702e+00	-2.624425e+02
8.800000e-07	5.542593e-07	-3.629504e-09	3.854574e+00	-2.398176e+02
8.900000e-07	6.581801e-07	-3.269150e-09	4.577287e+00	-2.160358e+02
9.000000e-07	7.619512e-07	-2.886029e-09	5.298959e+00	-1.909034e+02
9.100000e-07	8.654971e-07	-2.466237e-09	6.019065e+00	-1.639452e+02
9.200000e-07	9.687708e-07	-2.002689e-09	6.737278e+00	-1.344095e+02
9.300000e-07	1.071714e-06	-1.494230e-09	7.453195e+00	-1.013857e+02
9.400000e-07	1.174202e-06	-9.287300e-10	8.165940e+00	-6.402250e+01
9.500000e-07	1.276198e-06	-2.888075e-10	8.875270e+00	-2.179324e+01
9.600000e-07	1.377811e-06	4.295099e-10	9.581934e+00	2.526744e+01
9.700000e-07	1.479013e-06	1.214619e-09	1.028573e+01	7.643130e+01
9.800000e-07	1.579710e-06	2.044324e-09	1.098603e+01	1.303001e+02
9.900000e-07	1.679887e-06	2.887342e-09	1.168271e+01	1.849919e+02
1.000000e-06	1.779532e-06	3.706748e-09	1.237569e+01	2.384501e+02
1.010000e-06	1.878488e-06	4.462502e-09	1.306387e+01	2.887951e+02
1.020000e-06	1.976616e-06	5.136681e-09	1.374630e+01	3.346296e+02
1.030000e-06	2.073856e-06	5.735860e-09	1.442255e+01	3.752203e+02
1.040000e-06	2.170216e-06	6.269635e-09	1.509268e+01	4.105173e+02
1.050000e-06	2.265869e-06	6.740760e-09	1.575789e+01	4.410232e+02
1.060000e-06	2.360844e-06	7.149832e-09	1.641839e+01	4.675620e+02
1.070000e-06	2.455014e-06	7.510016e-09	1.707329e+01	4.910245e+02
1.080000e-06	2.548353e-06	7.831093e-09	1.772242e+01	5.121631e+02
1.090000e-06	2.640912e-06	8.120081e-09	1.836612e+01	5.314835e+02
1.100000e-06	2.732584e-06	8.379775e-09	1.900364e+01	5.492436e+02
1.110000e-06	2.823160e-06	8.616209e-09	1.963355e+01	5.655335e+02
1.120000e-06	2.912575e-06	8.837102e-09	2.025538e+01	5.803887e+02
1.130000e-06	3.000917e-06	9.045524e-09	2.086976e+01	5.938863e+02
1.140000e-06	3.088244e-06	9.242840e-09	2.147707e+01	6.061886e+02
1.150000e-06	3.174552e-06	9.423288e-09	2.207729e+01	6.175269e+02
1.160000e-06	3.259838e-06	9.585221e-09	2.267041e+01	6.281441e+02
1.170000e-06	3.344097e-06	9.731999e-09	2.325639e+01	6.382269e+02
1.180000e-06	3.427213e-06	9.871481e-09	2.383442e+01	6.478619e+02
1.190000e-06	3.509028e-06	1.000817e-08	2.440340e+01	6.570349e+02
1.200000e-06	3.589485e-06	1.013839e-08	2.496293e+01	6.656697e+02
1.210000e-06	3.668655e-06	1.025983e-08	2.551351e+01	6.736904e+02
1.220000e-06	3.746616e-06	1.037675e-08	2.605569e+01	6.810766e+02
1.230000e-06	3.823286e-06	1.048828e-08	2.658889e+01	6.878895e+02
1.240000e-06	3.898485e-06	1.058857e-08	2.711186e+01	6.942594e+02
1.250000e-06	3.972079e-06	1.067620e-08	2.762366e+01	7.003416e+02
1.260000e-06	4.044141e-06	1.075949e-08	2.812482e+01	7.062618e+02
1.270000e-06	4.114726e-06	1.084513e-08	2.861570e+01	7.120753e+02
1.280000e-06	4.183914e-06	1.093040e-08	2.909686e+01	7.177569e+02
1.290000e-06	4.251750e-06	1.101085e-08	2.956862e+01	7.232246e+02
1.300000e-06	4.317984e-06	1.108846e-08	3.002925e+01	7.283862e+02
1.310000e-06	4.382574e-06	1.116582e-08	3.047843e+01	7.331863e+02
1.320000e-06	4.445681e-06	1.123907e-08	3.091731e+01	7.376349e+02
1.330000e-06	4.507336e-06	1.130402e-08	3.134608e+01	7.418051e+02
1.340000e-06	4.567535e-06	1.136052e-08	3.176474e+01	7.458016e+02
1.350000e-06	4.626061e-06	1.141419e-08	3.217176e+01	7.497162e+02
1.360000e-06	4.682779e-06	1.147014e-08	3.256620e+01	7.535890e+02
1.370000e-06	4.737842e-06	1.152807e-08	3.294913e+01	7.573932e+02
1.380000e-06	4.791226e-06	1.158384e-08	3.332039e+01	7.610491e+02
1.390000e-06	4.842650e-06	1.163418e-08	3.367802e+01	7.644620e+02
1.400000e-06	4.891949e-06	1.168333e-08	3.402087e+01	7.675659e+02
1.410000e-06	4.939396e-06	1.173246e-08	3.435083e+01	7.703546e+02
1.420000e-06	4.985253e-06	1.177287e-08	3.466974e+01	7.728864e+02
1.430000e-06	5.029505e-06	1.180413e-08	3.497749e+01	7.752611e+02
1.440000e-06	5.071841e-06	1.183479e-08	3.527191e+01	7.775783e+02
1.450000e-06	5.112230e-06	1.187040e-08	3.555280e+01	7.798968e+02
1.460000e-06	5.150961e-06	1.190737e-08	3.582215e+01	7.822105e+02
1.470000e-06	5.188065e-06	1.194172e-08	3.608019e+01	7.844532e+02
1.480000e-06	5.223308e-06	1.197352e-08	3.632529e+01	7.865282e+02
1.490000e-06	5.256561e-06	1.200473e-08	3.655654e+01	7.883513e+02
1.500000e-06	5.288005e-06	1.203284e-08	3.677522e+01	7.898876e+02
1.510000e-06	5.317743e-06	1.205342e-08	3.698203e+01	7.911676e+02
1.520000e-06	5.345712e-06	1.206893e-08	3.717654e+01	7.922748e+02
1.530000e-06	5.371595e-06	1.208535e-08	3.735654e+01	7.933116e+02
1.540000e-06	5.395377e-06	1.210479e-08	3.752194e+01	7.943569e+02
1.550000e-06	5.417374e-06	1.212139e-08	3.767491e+01	7.954341e+02
1.560000e-06	5.437681e-06	1.213398e-08	3.781613e+01	7.965038e+02
1.570000e-06	5.456050e-06	1.214703e-08	3.794388e+01	7.974815e+02
1.580000e-06	5.472368e-06	1.216172e-08	3.805737e+01	7.982761e+02
1.590000e-06	5.486751e-06	1.217488e-08	3.815739e+01	7.988293e+02
1.600000e-06	5.499071e-06	1.218215e-08	3.824307e+01	7.991416e+02
1.610000e-06	5.509124e-06	1.218394e-08	3.831298e+01	7.992724e+02
1.620000e-06	5.517100e-06	1.218529e-08	3.836845e+01	7.993163e+02
1.630000e-06	5.523284e-06	1.218743e-08	3.841146e+01	7.993636e+02
1.640000e-06	5.527658e-06	1.218860e-08	3.844188e+01	7.994639e+02
1.650000e-06	5.529965e-06	1.219006e-08	3.845792e+01	7.996069e+02
1.660000e-06	5.530264e-06	1.219511e-08	3.846000e+01	7.997279e+02
1.670000e-06	5.528851e-06	1.219561e-08	3.845017e+01	7.997370e+02
1.680000e-06	5.525765e-06	1.219237e-08	3.842871e+01	7.995567e+02
1.690000e-06	5.520801e-06	1.218641e-08	3.839419e+01	7.991548e+02
1.700000e-06	5.513892e-06	1.217547e-08	3.834614e+01	7.985563e+02
1.710000e-06	5.505291e-06	1.216492e-08	3.828632e+01	7.978325e+02
1.720000e-06	5.495017e-06	1.215941e-08	3.821488e+01	7.970699e+02
1.730000e-06	5.482829e-06	1.217390e-08	3.813012e+01	7.963340e+02
1.740000e-06	5.468602e-06	1.216297e-08	3.803117e+01	7.956437e+02
1.750000e-06	5.452310e-06	1.205847e-08	3.791787e+01	7.949649e+02
1.760000e-06	5.433461e-06	1.204338e-08	3.778678e+01	7.942279e+02
1.770000e-06	5.411792e-06	1.205616e-08	3.763609e+01	7.933588e+02
1.780000e-06	5.388059e-06	1.209971e-08	3.747104e+01	7.923112e+02
1.790000e-06	5.363277e-06	1.218908e-08	3.729869e+01	7.910858e+02
1.800000e-06	5.337685e-06	1.199128e-08	3.712072e+01	7.897286e+02
1.810000e-06	5.310241e-06	1.199987e-08	3.692986e+01	7.883085e+02
1.820000e-06	5.280381e-06	1.210632e-08	3.672220e+01	7.868862e+02
1.830000e-06	5.248925e-06	1.186969e-08	3.650343e+01	7.854857e+02
1.840000e-06	5.215773e-06	1.195046e-08	3.627288e+01	7.840823e+02
1.850000e-06	5.180815e-06	1.200032e-08	3.602977e+01	7.826114e+02
1.860000e-06	5.144191e-06	1.179077e-08	3.577507e+01	7.809940e+02
1.870000e-06	5.105400e-06	1.194623e-08	3.550530e+01	7.791686e+02
1.880000e-06	5.064782e-06	1.190354e-08	3.522282e+01	7.771152e+02
1.890000e-06	5.022634e-06	1.174142e-08	3.492971e+01	7.748618e+02
1.900000e-06	4.978569e-06	1.178732e-08	3.462326e+01	7.724713e+02
1.910000e-06	4.932698e-06	1.165146e-08	3.430425e+01	7.700145e+02
1.920000e-06	4.884991e-06	1.173627e-08	3.397248e+01	7.675415e+02
1.930000e-06	4.835498e-06	1.172578e-08	3.362828e+01	7.650624e+02
1.940000e-06	4.784295e-06	1.156266e-08	3.327219e+01	7.625463e+02
1.950000e-06	4.730921e-06	1.162817e-08	3.290100e+01	7.599370e+02
1.960000e-06	4.675701e-06	1.152418e-08	3.251698e+01	7.571785e+02
1.970000e-06	4.618872e-06	1.149908e-08	3.212176e+01	7.542384e+02
1.980000e-06	4.560426e-06	1.142493e-08	3.171530e+01	7.511193e+02
1.990000e-06	4.500510e-06	1.134689e-08	3.129862e+01	7.478543e+02
2.000000e-06	4.438792e-06	1.141080e-08	3.086940e+01	7.444885e+02
2.010000e-06	4.375409e-06	1.128230e-08	3.042861e+01	7.410565e+02
2.020000e-06	4.310531e-06	1.127866e-08	2.997741e+01	7.375656e+02
2.030000e-06	4.244175e-06	1.118088e-08	2.951595e+01	7.339934e+02
2.040000e-06	4.176399e-06	1.109873e-08	2.904460e+01	7.302983e+02
2.050000e-06	4.106804e-06	1.110900e-08	2.856060e+01	7.264401e+02
2.060000e-06	4.035600e-06	1.097528e-08	2.806542e+01	7.223990e+02
2.070000e-06	3.963114e-06	1.096551e-08	2.756131e+01	7.181840e+02
2.080000e-06	3.889271e-06	1.087187e-08	2.704778e+01	7.138281e+02
2.090000e-06	3.813833e-06	1.083320e-08	2.652315e+01	7.093698e+02
2.100000e-06	3.736620e-06	1.077606e-08	2.598617e+01	7.048327e+02
2.110000e-06	3.657944e-06	1.065965e-08	2.543902e+01	7.002105e+02
2.120000e-06	3.578052e-06	1.061768e-08	2.488342e+01	6.954656e+02
2.130000e-06	3.497008e-06	1.050664e-08	2.431980e+01	6.905437e+02
2.140000e-06	3.414772e-06	1.047189e-08	2.374789e+01	6.853962e+02
2.150000e-06	3.331425e-06	1.037005e-08	2.316826e+01	6.800013e+02
2.160000e-06	3.246868e-06	1.028200e-08	2.258021e+01	6.743746e+02
2.170000e-06	3.160903e-06	1.020732e-08	2.198237e+01	6.685620e+02
2.180000e-06	3.073786e-06	1.010414e-08	2.137652e+01	6.626193e+02
2.190000e-06	2.985699e-06	1.003177e-08	2.076392e+01	6.565860e+02
2.200000e-06	2.896638e-06	9.911695e-09	2.014455e+01	6.504658e+02
2.210000e-06	2.806611e-06	9.831911e-09	1.951846e+01	6.442226e+02
2.220000e-06	2.715697e-06	9.733174e-09	1.888621e+01	6.377940e+02
2.230000e-06	2.623888e-06	9.637163e-09	1.824772e+01	6.311172e+02
2.240000e-06	2.531037e-06	9.525953e-09	1.760200e+01	6.241553e+02
2.250000e-06	2.437060e-06	9.404442e-09	1.694844e+01	6.169116e+02
2.260000e-06	2.342174e-06	9.306017e-09	1.628856e+01	6.094254e+02
2.270000e-06	2.246596e-06	9.191410e-09	1.562386e+01	6.017502e+02
2.280000e-06	2.150216e-06	9.077375e-09	1.495359e+01	5.939236e+02
2.290000e-06	2.053123e-06	8.945568e-09	1.427836e+01	5.859431e+02
2.300000e-06	1.955382e-06	8.821408e-09	1.359863e+01	5.777585e+02
2.310000e-06	1.857007e-06	8.695141e-09	1.291448e+01	5.692870e+02
2.320000e-06	1.758105e-06	8.560435e-09	1.222667e+01	5.604443e+02
2.330000e-06	1.658714e-06	8.417363e-09	1.153546e+01	5.511778e+02
2.340000e-06	1.558787e-06	8.271621e-09	1.084052e+01	5.414878e+02
2.350000e-06	1.458201e-06	8.127421e-09	1.014100e+01	5.314248e+02
2.360000e-06	1.356942e-06	7.970821e-09	9.436799e+00	5.210633e+02
2.370000e-06	1.255018e-06	7.805118e-09	8.727969e+00	5.104613e+02
2.380000e-06	1.152536e-06	7.635192e-09	8.015267e+00	4.996242e+02
2.390000e-06	1.049645e-06	7.468276e-09	7.299712e+00	4.884898e+02
2.400000e-06	9.463862e-07	7.294186e-09	6.581605e+00	4.769427e+02
2.410000e-06	8.428160e-07	7.109322e-09	5.861330e+00	4.648536e+02
2.420000e-06	7.389703e-07	6.916231e-09	5.139139e+00	4.521277e+02
2.430000e-06	6.349213e-07	6.715856e-09	4.415535e+00	4.387401e+02
2.440000e-06	5.306772e-07	6.504886e-09	3.690573e+00	4.247405e+02
2.450000e-06	4.262365e-07	6.285092e-09	2.964244e+00	4.102219e+02
2.460000e-06	3.216709e-07	6.057238e-09	2.237048e+00	3.952646e+02
2.470000e-06	2.170053e-07	5.822056e-09	1.509155e+00	3.798776e+02
2.480000e-06	1.122713e-07	5.578403e-09	7.807863e-01	3.639662e+02
2.490000e-06	7.528817e-09	5.318779e-09	5.235886e-02	3.473412e+02
2.500000e-06	-9.720776e-08	5.044473e-09	-6.760274e-01	3.297708e+02
2.510000e-06	-2.019080e-07	4.758392e-09	-1.404161e+00	3.110558e+02
2.520000e-06	-3.065362e-07	4.461149e-09	-2.131793e+00	2.910911e+02
2.530000e-06	-4.110784e-07	4.146781e-09	-2.858828e+00	2.698834e+02
2.540000e-06	-5.155117e-07	3.809261e-09	-3.585106e+00	2.475026e+02
2.550000e-06	-6.197948e-07	3.449174e-09	-4.310338e+00	2.239769e+02
2.560000e-06	-7.238076e-07	3.068268e-09	-5.033691e+00	1.991639e+02
2.570000e-06	-8.274856e-07	2.659185e-09	-5.754715e+00	1.726522e+02
2.580000e-06	-9.308429e-07	2.212835e-09	-6.473509e+00	1.437431e+02
2.590000e-06	-1.033900e-06	1.722638e-09	-7.190216e+00	1.115447e+02
2.600000e-06	-1.136597e-06	1.176929e-09	-7.904421e+00	7.517115e+01
2.610000e-06	-1.238800e-06	5.633936e-10	-8.615184e+00	3.400408e+01
2.620000e-06	-1.340459e-06	-1.242443e-10	-9.322171e+00	-1.205788e+01
2.630000e-06	-1.441537e-06	-8.859153e-10	-1.002511e+01	-6.243886e+01
2.640000e-06	-1.541978e-06	-1.706961e-09	-1.072362e+01	-1.158737e+02
2.650000e-06	-1.641828e-06	-2.553703e-09	-1.141803e+01	-1.705614e+02
2.660000e-06	-1.741110e-06	-3.388237e-09	-1.210848e+01	-2.244532e+02
2.670000e-06	-1.839786e-06	-4.175798e-09	-1.279472e+01	-2.756028e+02
2.680000e-06	-1.937822e-06	-4.892648e-09	-1.347651e+01	-3.224893e+02
2.690000e-06	-2.035183e-06	-5.526985e-09	-1.415360e+01	-3.642297e+02
2.700000e-06	-2.131888e-06	-6.081518e-09	-1.482613e+01	-4.006342e+02
2.710000e-06	-2.227911e-06	-6.568142e-09	-1.549392e+01	-4.321041e+02
2.720000e-06	-2.323316e-06	-6.996982e-09	-1.615741e+01	-4.594163e+02
2.730000e-06	-2.418087e-06	-7.374165e-09	-1.681649e+01	-4.834673e+02
2.740000e-06	-2.511941e-06	-7.708330e-09	-1.746919e+01	-5.050519e+02
2.750000e-06	-2.604698e-06	-8.012339e-09	-1.811427e+01	-5.247323e+02
2.760000e-06	-2.696334e-06	-8.289844e-09	-1.875155e+01	-5.428147e+02
2.770000e-06	-2.786931e-06	-8.540356e-09	-1.938160e+01	-5.594162e+02
2.780000e-06	-2.876511e-06	-8.769096e-09	-2.000458e+01	-5.745745e+02
2.790000e-06	-2.965107e-06	-8.981673e-09	-2.062072e+01	-5.883522e+02
2.800000e-06	-3.052796e-06	-9.176120e-09	-2.123054e+01	-6.008924e+02
2.810000e-06	-3.139495e-06	-9.353539e-09	-2.183349e+01	-6.124159e+02
2.820000e-06	-3.224998e-06	-9.520001e-09	-2.242812e+01	-6.231688e+02
2.830000e-06	-3.309199e-06	-9.678724e-09	-2.301369e+01	-6.333547e+02
2.840000e-06	-3.392185e-06	-9.830600e-09	-2.359081e+01	-6.430835e+02
2.850000e-06	-3.474032e-06	-9.972550e-09	-2.416001e+01	-6.523603e+02
2.860000e-06	-3.554735e-06	-1.010245e-08	-2.472126e+01	-6.611175e+02
2.870000e-06	-3.634280e-06	-1.022173e-08	-2.527446e+01	-6.692738e+02
2.880000e-06	-3.712534e-06	-1.033442e-08	-2.581867e+01	-6.767933e+02
2.890000e-06	-3.789199e-06	-1.044133e-08	-2.635183e+01	-6.837196e+02
2.900000e-06	-3.864289e-06	-1.054204e-08	-2.687404e+01	-6.901710e+02
2.910000e-06	-3.937976e-06	-1.063828e-08	-2.738650e+01	-6.963022e+02
2.920000e-06	-4.010313e-06	-1.073346e-08	-2.788956e+01	-7.022494e+02
2.930000e-06	-4.081324e-06	-1.082762e-08	-2.838341e+01	-7.080850e+02
2.940000e-06	-4.150774e-06	-1.091590e-08	-2.886639e+01	-7.138001e+02
