# Temperatura_=_29.11
# Concentracion g/m^3_=_13400.0
# C_Vs_to_Am_M_A/Vsm_=_65563218390.804596
# pendiente_HvsI_1/m_=_3716.3
# ordenada_HvsI_A/m_=_1297.0
# frecuencia_Hz_=_300808.8378677455

Tiempo_(s)	Campo_(V.s)	Magnetizacion_(V.s)	Campo_(kA/m)	Magnetizacion_(A/m)
0.000000e+00	-5.523007e-06	-1.202157e-08	-3.831108e+01	-7.880286e+02
1.000000e-08	-5.521511e-06	-1.202749e-08	-3.830070e+01	-7.879895e+02
2.000000e-08	-5.518023e-06	-1.202616e-08	-3.827651e+01	-7.877880e+02
3.000000e-08	-5.512739e-06	-1.201812e-08	-3.823986e+01	-7.874009e+02
4.000000e-08	-5.505848e-06	-1.200945e-08	-3.819206e+01	-7.868512e+02
5.000000e-08	-5.497354e-06	-1.199711e-08	-3.813314e+01	-7.861964e+02
6.000000e-08	-5.486888e-06	-1.198124e-08	-3.806054e+01	-7.855029e+02
7.000000e-08	-5.474283e-06	-1.195897e-08	-3.797310e+01	-7.848171e+02
8.000000e-08	-5.459748e-06	-1.193148e-08	-3.787227e+01	-7.841457e+02
9.000000e-08	-5.442848e-06	-1.198355e-08	-3.775505e+01	-7.834541e+02
1.000000e-07	-5.423533e-06	-1.202665e-08	-3.762107e+01	-7.826829e+02
1.100000e-07	-5.402187e-06	-1.196799e-08	-3.747299e+01	-7.817759e+02
1.200000e-07	-5.378988e-06	-1.193359e-08	-3.731207e+01	-7.807054e+02
1.300000e-07	-5.354344e-06	-1.184740e-08	-3.714113e+01	-7.794861e+02
1.400000e-07	-5.328273e-06	-1.176261e-08	-3.696028e+01	-7.781679e+02
1.500000e-07	-5.300319e-06	-1.192298e-08	-3.676638e+01	-7.768140e+02
1.600000e-07	-5.270526e-06	-1.183266e-08	-3.655971e+01	-7.754717e+02
1.700000e-07	-5.239248e-06	-1.173113e-08	-3.634275e+01	-7.741489e+02
1.800000e-07	-5.206130e-06	-1.190237e-08	-3.611302e+01	-7.728079e+02
1.900000e-07	-5.170827e-06	-1.176316e-08	-3.586814e+01	-7.713779e+02
2.000000e-07	-5.133921e-06	-1.171224e-08	-3.561213e+01	-7.697831e+02
2.100000e-07	-5.095384e-06	-1.177062e-08	-3.534481e+01	-7.679722e+02
2.200000e-07	-5.055028e-06	-1.161412e-08	-3.506488e+01	-7.659399e+02
2.300000e-07	-5.012809e-06	-1.164266e-08	-3.477203e+01	-7.637279e+02
2.400000e-07	-4.968555e-06	-1.168221e-08	-3.446505e+01	-7.614082e+02
2.500000e-07	-4.922575e-06	-1.159775e-08	-3.414610e+01	-7.590528e+02
2.600000e-07	-4.874800e-06	-1.158661e-08	-3.381470e+01	-7.567052e+02
2.700000e-07	-4.824958e-06	-1.146839e-08	-3.346897e+01	-7.543628e+02
2.800000e-07	-4.772997e-06	-1.144414e-08	-3.310854e+01	-7.519796e+02
2.900000e-07	-4.719081e-06	-1.145612e-08	-3.273454e+01	-7.494861e+02
3.000000e-07	-4.663542e-06	-1.139509e-08	-3.234928e+01	-7.468188e+02
3.100000e-07	-4.606422e-06	-1.135610e-08	-3.195306e+01	-7.439448e+02
3.200000e-07	-4.547463e-06	-1.131669e-08	-3.154409e+01	-7.408742e+02
3.300000e-07	-4.486775e-06	-1.130124e-08	-3.112312e+01	-7.376518e+02
3.400000e-07	-4.424601e-06	-1.120181e-08	-3.069184e+01	-7.343358e+02
3.500000e-07	-4.360929e-06	-1.112896e-08	-3.025017e+01	-7.309704e+02
3.600000e-07	-4.295754e-06	-1.109197e-08	-2.979807e+01	-7.275666e+02
3.700000e-07	-4.228848e-06	-1.103451e-08	-2.933397e+01	-7.240969e+02
3.800000e-07	-4.160246e-06	-1.102798e-08	-2.885810e+01	-7.205089e+02
3.900000e-07	-4.090228e-06	-1.095736e-08	-2.837241e+01	-7.167486e+02
4.000000e-07	-4.018921e-06	-1.086925e-08	-2.787779e+01	-7.127842e+02
4.100000e-07	-3.946311e-06	-1.081571e-08	-2.737412e+01	-7.086191e+02
4.200000e-07	-3.872204e-06	-1.074653e-08	-2.686006e+01	-7.042891e+02
4.300000e-07	-3.796369e-06	-1.068044e-08	-2.633403e+01	-6.998438e+02
4.400000e-07	-3.718868e-06	-1.059363e-08	-2.579642e+01	-6.953223e+02
4.500000e-07	-3.639966e-06	-1.053819e-08	-2.524911e+01	-6.907328e+02
4.600000e-07	-3.559617e-06	-1.047927e-08	-2.469176e+01	-6.860470e+02
4.700000e-07	-3.477827e-06	-1.040222e-08	-2.412442e+01	-6.812103e+02
4.800000e-07	-3.394817e-06	-1.031421e-08	-2.354860e+01	-6.761651e+02
4.900000e-07	-3.310722e-06	-1.021282e-08	-2.296527e+01	-6.708754e+02
5.000000e-07	-3.225659e-06	-1.014641e-08	-2.237522e+01	-6.653427e+02
5.100000e-07	-3.139618e-06	-1.006940e-08	-2.177838e+01	-6.596046e+02
5.200000e-07	-3.052565e-06	-9.983301e-09	-2.117452e+01	-6.537176e+02
5.300000e-07	-2.964542e-06	-9.883006e-09	-2.056394e+01	-6.477310e+02
5.400000e-07	-2.875553e-06	-9.783006e-09	-1.994666e+01	-6.416626e+02
5.500000e-07	-2.785557e-06	-9.691938e-09	-1.932239e+01	-6.354888e+02
5.600000e-07	-2.694328e-06	-9.587138e-09	-1.868957e+01	-6.291521e+02
5.700000e-07	-2.601951e-06	-9.481276e-09	-1.804878e+01	-6.225837e+02
5.800000e-07	-2.508707e-06	-9.373545e-09	-1.740198e+01	-6.157309e+02
5.900000e-07	-2.414680e-06	-9.277626e-09	-1.674975e+01	-6.085772e+02
6.000000e-07	-2.319923e-06	-9.172773e-09	-1.609246e+01	-6.011460e+02
6.100000e-07	-2.224357e-06	-9.049815e-09	-1.542955e+01	-5.934855e+02
6.200000e-07	-2.127965e-06	-8.920149e-09	-1.476091e+01	-5.856423e+02
6.300000e-07	-2.030828e-06	-8.793656e-09	-1.408711e+01	-5.776352e+02
6.400000e-07	-1.932948e-06	-8.671761e-09	-1.340815e+01	-5.694411e+02
6.500000e-07	-1.834226e-06	-8.540517e-09	-1.272335e+01	-5.610006e+02
6.600000e-07	-1.734669e-06	-8.404430e-09	-1.203276e+01	-5.522400e+02
6.700000e-07	-1.634423e-06	-8.267996e-09	-1.133740e+01	-5.431012e+02
6.800000e-07	-1.533637e-06	-8.128831e-09	-1.063828e+01	-5.335645e+02
6.900000e-07	-1.432385e-06	-7.974054e-09	-9.935932e+00	-5.236531e+02
7.000000e-07	-1.330624e-06	-7.810140e-09	-9.230049e+00	-5.134167e+02
7.100000e-07	-1.228416e-06	-7.647973e-09	-8.521074e+00	-5.029006e+02
7.200000e-07	-1.125852e-06	-7.487862e-09	-7.809622e+00	-4.921137e+02
7.300000e-07	-1.022937e-06	-7.319751e-09	-7.095741e+00	-4.810111e+02
7.400000e-07	-9.196919e-07	-7.137599e-09	-6.379566e+00	-4.695009e+02
7.500000e-07	-8.160680e-07	-6.949199e-09	-5.660765e+00	-4.574743e+02
7.600000e-07	-7.120736e-07	-6.755842e-09	-4.939394e+00	-4.448450e+02
7.700000e-07	-6.078245e-07	-6.555297e-09	-4.216256e+00	-4.315823e+02
7.800000e-07	-5.034150e-07	-6.343642e-09	-3.492005e+00	-4.177192e+02
7.900000e-07	-3.988830e-07	-6.125963e-09	-2.766905e+00	-4.033304e+02
8.000000e-07	-2.942477e-07	-5.906051e-09	-2.041089e+00	-3.884855e+02
8.100000e-07	-1.895111e-07	-5.678899e-09	-1.314569e+00	-3.731984e+02
8.200000e-07	-8.465393e-08	-5.435713e-09	-5.872133e-01	-3.573941e+02
8.300000e-07	2.029295e-08	-5.175531e-09	1.407648e-01	-3.409122e+02
8.400000e-07	1.252368e-07	-4.903763e-09	8.687222e-01	-3.235475e+02
8.500000e-07	2.300756e-07	-4.622578e-09	1.595950e+00	-3.051144e+02
8.600000e-07	3.347868e-07	-4.329902e-09	2.322294e+00	-2.855041e+02
8.700000e-07	4.393346e-07	-4.019505e-09	3.047504e+00	-2.647061e+02
8.800000e-07	5.437496e-07	-3.689946e-09	3.771792e+00	-2.427723e+02
8.900000e-07	6.480305e-07	-3.340453e-09	4.495151e+00	-2.197278e+02
9.000000e-07	7.520769e-07	-2.968745e-09	5.216882e+00	-1.954563e+02
9.100000e-07	8.558698e-07	-2.566335e-09	5.936856e+00	-1.696044e+02
9.200000e-07	9.593281e-07	-2.127413e-09	6.654508e+00	-1.415536e+02
9.300000e-07	1.062447e-06	-1.647023e-09	7.369804e+00	-1.104907e+02
9.400000e-07	1.165279e-06	-1.114665e-09	8.083118e+00	-7.557667e+01
9.500000e-07	1.267722e-06	-5.186378e-10	8.793722e+00	-3.618088e+01
9.600000e-07	1.369701e-06	1.503613e-10	9.501118e+00	7.884143e+00
9.700000e-07	1.471195e-06	8.880031e-10	1.020514e+01	5.619745e+01
9.800000e-07	1.572207e-06	1.679423e-09	1.090582e+01	1.076918e+02
9.900000e-07	1.672690e-06	2.497450e-09	1.160284e+01	1.607667e+02
1.000000e-06	1.772600e-06	3.307821e-09	1.229588e+01	2.135317e+02
1.010000e-06	1.871868e-06	4.075838e-09	1.298446e+01	2.641211e+02
1.020000e-06	1.970328e-06	4.777148e-09	1.366745e+01	3.110004e+02
1.030000e-06	2.067960e-06	5.402856e-09	1.434468e+01	3.531860e+02
1.040000e-06	2.164726e-06	5.957133e-09	1.501592e+01	3.903295e+02
1.050000e-06	2.260672e-06	6.446631e-09	1.568146e+01	4.226566e+02
1.060000e-06	2.355923e-06	6.875616e-09	1.634218e+01	4.507928e+02
1.070000e-06	2.450459e-06	7.255203e-09	1.699794e+01	4.755370e+02
1.080000e-06	2.544185e-06	7.592081e-09	1.764808e+01	4.976510e+02
1.090000e-06	2.637044e-06	7.895827e-09	1.829221e+01	5.177196e+02
1.100000e-06	2.729034e-06	8.171254e-09	1.893031e+01	5.361041e+02
1.110000e-06	2.819988e-06	8.420945e-09	1.956123e+01	5.529808e+02
1.120000e-06	2.909751e-06	8.650680e-09	2.018388e+01	5.684283e+02
1.130000e-06	2.998415e-06	8.864308e-09	2.079891e+01	5.825194e+02
1.140000e-06	3.086064e-06	9.062958e-09	2.140690e+01	5.953806e+02
1.150000e-06	3.172702e-06	9.244505e-09	2.200787e+01	6.072002e+02
1.160000e-06	3.258338e-06	9.410206e-09	2.260190e+01	6.181948e+02
1.170000e-06	3.342916e-06	9.564392e-09	2.318859e+01	6.285537e+02
1.180000e-06	3.426353e-06	9.712930e-09	2.376736e+01	6.383936e+02
1.190000e-06	3.508541e-06	9.857154e-09	2.433747e+01	6.477434e+02
1.200000e-06	3.589438e-06	9.994176e-09	2.489862e+01	6.565648e+02
1.210000e-06	3.669070e-06	1.011930e-08	2.545100e+01	6.647993e+02
1.220000e-06	3.747349e-06	1.023418e-08	2.599399e+01	6.724181e+02
1.230000e-06	3.824269e-06	1.034183e-08	2.652755e+01	6.794548e+02
1.240000e-06	3.899770e-06	1.044251e-08	2.705128e+01	6.860062e+02
1.250000e-06	3.973658e-06	1.053663e-08	2.756381e+01	6.922045e+02
1.260000e-06	4.045996e-06	1.062654e-08	2.806560e+01	6.981723e+02
1.270000e-06	4.116951e-06	1.071322e-08	2.855778e+01	7.039835e+02
1.280000e-06	4.186527e-06	1.079743e-08	2.904041e+01	7.096449e+02
1.290000e-06	4.254681e-06	1.088120e-08	2.951317e+01	7.151069e+02
1.300000e-06	4.321251e-06	1.096303e-08	2.997494e+01	7.202969e+02
1.310000e-06	4.386146e-06	1.103745e-08	3.042509e+01	7.251599e+02
1.320000e-06	4.449505e-06	1.110320e-08	3.086459e+01	7.296888e+02
1.330000e-06	4.511456e-06	1.116537e-08	3.129432e+01	7.339309e+02
1.340000e-06	4.572032e-06	1.122734e-08	3.171451e+01	7.379687e+02
1.350000e-06	4.630989e-06	1.128737e-08	3.212348e+01	7.418852e+02
1.360000e-06	4.688122e-06	1.134337e-08	3.251979e+01	7.457282e+02
1.370000e-06	4.743546e-06	1.139857e-08	3.290424e+01	7.494911e+02
1.380000e-06	4.797275e-06	1.145612e-08	3.327694e+01	7.531172e+02
1.390000e-06	4.849056e-06	1.151165e-08	3.363613e+01	7.565267e+02
1.400000e-06	4.898718e-06	1.155928e-08	3.398061e+01	7.596532e+02
1.410000e-06	4.946527e-06	1.159767e-08	3.431225e+01	7.624749e+02
1.420000e-06	4.992719e-06	1.163318e-08	3.463267e+01	7.650251e+02
1.430000e-06	5.037285e-06	1.167002e-08	3.494180e+01	7.673801e+02
1.440000e-06	5.080032e-06	1.170509e-08	3.523832e+01	7.696277e+02
1.450000e-06	5.120839e-06	1.173787e-08	3.552138e+01	7.718311e+02
1.460000e-06	5.159901e-06	1.176992e-08	3.579234e+01	7.740042e+02
1.470000e-06	5.197289e-06	1.180403e-08	3.605170e+01	7.761076e+02
1.480000e-06	5.232848e-06	1.183715e-08	3.629836e+01	7.780688e+02
1.490000e-06	5.266428e-06	1.186439e-08	3.653128e+01	7.798152e+02
1.500000e-06	5.298137e-06	1.188487e-08	3.675124e+01	7.813082e+02
1.510000e-06	5.328139e-06	1.190295e-08	3.695936e+01	7.825613e+02
1.520000e-06	5.356398e-06	1.192109e-08	3.715537e+01	7.836365e+02
1.530000e-06	5.382577e-06	1.193714e-08	3.733697e+01	7.846198e+02
1.540000e-06	5.406643e-06	1.195209e-08	3.750391e+01	7.855859e+02
1.550000e-06	5.428929e-06	1.196829e-08	3.765849e+01	7.865686e+02
1.560000e-06	5.449515e-06	1.198482e-08	3.780129e+01	7.875485e+02
1.570000e-06	5.468163e-06	1.199943e-08	3.793065e+01	7.884631e+02
1.580000e-06	5.484756e-06	1.201087e-08	3.804575e+01	7.892351e+02
1.590000e-06	5.499392e-06	1.201906e-08	3.814727e+01	7.898068e+02
1.600000e-06	5.511953e-06	1.202543e-08	3.823440e+01	7.901649e+02
1.610000e-06	5.522222e-06	1.202933e-08	3.830563e+01	7.903464e+02
1.620000e-06	5.530420e-06	1.203103e-08	3.836250e+01	7.904233e+02
1.630000e-06	5.536817e-06	1.203280e-08	3.840688e+01	7.904723e+02
1.640000e-06	5.541400e-06	1.203562e-08	3.843866e+01	7.905430e+02
1.650000e-06	5.543963e-06	1.203993e-08	3.845645e+01	7.906382e+02
1.660000e-06	5.544476e-06	1.204692e-08	3.846000e+01	7.907149e+02
1.670000e-06	5.543218e-06	1.204449e-08	3.845127e+01	7.907039e+02
1.680000e-06	5.540320e-06	1.203398e-08	3.843117e+01	7.905408e+02
1.690000e-06	5.535548e-06	1.202564e-08	3.839807e+01	7.901933e+02
1.700000e-06	5.528757e-06	1.201745e-08	3.835097e+01	7.896747e+02
1.710000e-06	5.520294e-06	1.201092e-08	3.829226e+01	7.890368e+02
1.720000e-06	5.510231e-06	1.200789e-08	3.822246e+01	7.883468e+02
1.730000e-06	5.498249e-06	1.202151e-08	3.813934e+01	7.876574e+02
1.740000e-06	5.484192e-06	1.202556e-08	3.804183e+01	7.869848e+02
1.750000e-06	5.468102e-06	1.191071e-08	3.793023e+01	7.863023e+02
1.760000e-06	5.449491e-06	1.188506e-08	3.780113e+01	7.855536e+02
1.770000e-06	5.427980e-06	1.190589e-08	3.765191e+01	7.846794e+02
1.780000e-06	5.404269e-06	1.192341e-08	3.748744e+01	7.836445e+02
1.790000e-06	5.379435e-06	1.205036e-08	3.731517e+01	7.824540e+02
1.800000e-06	5.353881e-06	1.185686e-08	3.713791e+01	7.811518e+02
1.810000e-06	5.326621e-06	1.180771e-08	3.694882e+01	7.798008e+02
1.820000e-06	5.296932e-06	1.199217e-08	3.674288e+01	7.784540e+02
1.830000e-06	5.265632e-06	1.176125e-08	3.652577e+01	7.771289e+02
1.840000e-06	5.232691e-06	1.180724e-08	3.629726e+01	7.757971e+02
1.850000e-06	5.197881e-06	1.192452e-08	3.605580e+01	7.743931e+02
1.860000e-06	5.161388e-06	1.167322e-08	3.580266e+01	7.728393e+02
1.870000e-06	5.122741e-06	1.181390e-08	3.553458e+01	7.710771e+02
1.880000e-06	5.082252e-06	1.181242e-08	3.525373e+01	7.690904e+02
1.890000e-06	5.040271e-06	1.161359e-08	3.496251e+01	7.669117e+02
1.900000e-06	4.996322e-06	1.169817e-08	3.465766e+01	7.646086e+02
1.910000e-06	4.950527e-06	1.154963e-08	3.434000e+01	7.622561e+02
1.920000e-06	4.902878e-06	1.161253e-08	3.400947e+01	7.599056e+02
1.930000e-06	4.853357e-06	1.166333e-08	3.366596e+01	7.575648e+02
1.940000e-06	4.802239e-06	1.144330e-08	3.331138e+01	7.551960e+02
1.950000e-06	4.748997e-06	1.151490e-08	3.294205e+01	7.527324e+02
1.960000e-06	4.693844e-06	1.143015e-08	3.255948e+01	7.501065e+02
1.970000e-06	4.637065e-06	1.138938e-08	3.216562e+01	7.472777e+02
1.980000e-06	4.578604e-06	1.134886e-08	3.176010e+01	7.442465e+02
1.990000e-06	4.518669e-06	1.124875e-08	3.134435e+01	7.410520e+02
2.000000e-06	4.456908e-06	1.132985e-08	3.091594e+01	7.377516e+02
2.010000e-06	4.393495e-06	1.119631e-08	3.047607e+01	7.343948e+02
2.020000e-06	4.328606e-06	1.119086e-08	3.002596e+01	7.310005e+02
2.030000e-06	4.262227e-06	1.110740e-08	2.956551e+01	7.275489e+02
2.040000e-06	4.194428e-06	1.099031e-08	2.909521e+01	7.239914e+02
2.050000e-06	4.124793e-06	1.102844e-08	2.861218e+01	7.202720e+02
2.060000e-06	4.053567e-06	1.089191e-08	2.811811e+01	7.163524e+02
2.070000e-06	3.981056e-06	1.089038e-08	2.761513e+01	7.122284e+02
2.080000e-06	3.907204e-06	1.080553e-08	2.710284e+01	7.079299e+02
2.090000e-06	3.831854e-06	1.075109e-08	2.658017e+01	7.035055e+02
2.100000e-06	3.754677e-06	1.071263e-08	2.604482e+01	6.989985e+02
2.110000e-06	3.675943e-06	1.057260e-08	2.549868e+01	6.944250e+02
2.120000e-06	3.595952e-06	1.053621e-08	2.494380e+01	6.897640e+02
2.130000e-06	3.514826e-06	1.042737e-08	2.438107e+01	6.849649e+02
2.140000e-06	3.432604e-06	1.040100e-08	2.381072e+01	6.799687e+02
2.150000e-06	3.349259e-06	1.031467e-08	2.323259e+01	6.747328e+02
2.160000e-06	3.264671e-06	1.021521e-08	2.264583e+01	6.692503e+02
2.170000e-06	3.178614e-06	1.014655e-08	2.204888e+01	6.635519e+02
2.180000e-06	3.091368e-06	1.003241e-08	2.144369e+01	6.576922e+02
2.190000e-06	3.003155e-06	9.968009e-09	2.083179e+01	6.517243e+02
2.200000e-06	2.913996e-06	9.850835e-09	2.021333e+01	6.456741e+02
2.210000e-06	2.823894e-06	9.771035e-09	1.958832e+01	6.395271e+02
2.220000e-06	2.732865e-06	9.684392e-09	1.895689e+01	6.332313e+02
2.230000e-06	2.640929e-06	9.589409e-09	1.831916e+01	6.267181e+02
2.240000e-06	2.547911e-06	9.480418e-09	1.767393e+01	6.199292e+02
2.250000e-06	2.453792e-06	9.348220e-09	1.702106e+01	6.128395e+02
2.260000e-06	2.358762e-06	9.249861e-09	1.636187e+01	6.054644e+02
2.270000e-06	2.263008e-06	9.143000e-09	1.569766e+01	5.978487e+02
2.280000e-06	2.166489e-06	9.035793e-09	1.502814e+01	5.900420e+02
2.290000e-06	2.069242e-06	8.907545e-09	1.435357e+01	5.820707e+02
2.300000e-06	1.971329e-06	8.778979e-09	1.367439e+01	5.739209e+02
2.310000e-06	1.872775e-06	8.652660e-09	1.299075e+01	5.655395e+02
2.320000e-06	1.773680e-06	8.517540e-09	1.230337e+01	5.568535e+02
2.330000e-06	1.674063e-06	8.372251e-09	1.161236e+01	5.477992e+02
2.340000e-06	1.573921e-06	8.226073e-09	1.091772e+01	5.383473e+02
2.350000e-06	1.473103e-06	8.088863e-09	1.021838e+01	5.285127e+02
2.360000e-06	1.371568e-06	7.943734e-09	9.514067e+00	5.183416e+02
2.370000e-06	1.269445e-06	7.783131e-09	8.805677e+00	5.078833e+02
2.380000e-06	1.166784e-06	7.610015e-09	8.093555e+00	4.971564e+02
2.390000e-06	1.063727e-06	7.442414e-09	7.378685e+00	4.861281e+02
2.400000e-06	9.603684e-07	7.271797e-09	6.661725e+00	4.747147e+02
2.410000e-06	8.566632e-07	7.092320e-09	5.942359e+00	4.628075e+02
2.420000e-06	7.526193e-07	6.900177e-09	5.220645e+00	4.503124e+02
2.430000e-06	6.482873e-07	6.699308e-09	4.496932e+00	4.371848e+02
2.440000e-06	5.437284e-07	6.494147e-09	3.771645e+00	4.234451e+02
2.450000e-06	4.390126e-07	6.277571e-09	3.045270e+00	4.091623e+02
2.460000e-06	3.341998e-07	6.050288e-09	2.318222e+00	3.944116e+02
2.470000e-06	2.293111e-07	5.815785e-09	1.590647e+00	3.792224e+02
2.480000e-06	1.243531e-07	5.578792e-09	8.625918e-01	3.635402e+02
2.490000e-06	1.935085e-08	5.332046e-09	1.342297e-01	3.472203e+02
2.500000e-06	-8.562674e-08	5.065251e-09	-5.939614e-01	3.300623e+02
2.510000e-06	-1.905873e-07	4.779516e-09	-1.322034e+00	3.118707e+02
2.520000e-06	-2.954810e-07	4.483125e-09	-2.049644e+00	2.925169e+02
2.530000e-06	-4.002494e-07	4.178119e-09	-2.776384e+00	2.719704e+02
2.540000e-06	-5.049399e-07	3.855075e-09	-3.502584e+00	2.502754e+02
2.550000e-06	-6.094900e-07	3.507155e-09	-4.227809e+00	2.274723e+02
2.560000e-06	-7.137738e-07	3.138104e-09	-4.951188e+00	2.034845e+02
2.570000e-06	-8.177467e-07	2.746996e-09	-5.672410e+00	1.780149e+02
2.580000e-06	-9.214118e-07	2.325243e-09	-6.391497e+00	1.504993e+02
2.590000e-06	-1.024735e-06	1.859716e-09	-7.108209e+00	1.201550e+02
2.600000e-06	-1.127650e-06	1.341254e-09	-7.822098e+00	8.613042e+01
2.610000e-06	-1.230141e-06	7.650079e-10	-8.533037e+00	4.772929e+01
2.620000e-06	-1.332170e-06	1.254300e-10	-9.240776e+00	4.651859e+00
2.630000e-06	-1.433580e-06	-5.844390e-10	-9.944220e+00	-4.281944e+01
2.640000e-06	-1.534362e-06	-1.361661e-09	-1.064331e+01	-9.375149e+01
2.650000e-06	-1.634564e-06	-2.179994e-09	-1.133837e+01	-1.466413e+02
2.660000e-06	-1.734158e-06	-3.003015e-09	-1.202922e+01	-1.996354e+02
2.670000e-06	-1.833104e-06	-3.793792e-09	-1.271557e+01	-2.508355e+02
2.680000e-06	-1.931401e-06	-4.525177e-09	-1.339742e+01	-2.986135e+02
2.690000e-06	-2.029097e-06	-5.183403e-09	-1.407511e+01	-3.418556e+02
2.700000e-06	-2.126143e-06	-5.763676e-09	-1.474828e+01	-3.800779e+02
2.710000e-06	-2.222483e-06	-6.271579e-09	-1.541655e+01	-4.133945e+02
2.720000e-06	-2.318160e-06	-6.721111e-09	-1.608023e+01	-4.423638e+02
2.730000e-06	-2.413146e-06	-7.120479e-09	-1.673911e+01	-4.677665e+02
2.740000e-06	-2.507297e-06	-7.475586e-09	-1.739220e+01	-4.903873e+02
2.750000e-06	-2.600436e-06	-7.793682e-09	-1.803827e+01	-5.108561e+02
2.760000e-06	-2.692438e-06	-8.081214e-09	-1.867646e+01	-5.295813e+02
2.770000e-06	-2.783425e-06	-8.341883e-09	-1.930760e+01	-5.467724e+02
2.780000e-06	-2.873491e-06	-8.577048e-09	-1.993235e+01	-5.625209e+02
2.790000e-06	-2.962554e-06	-8.792327e-09	-2.055015e+01	-5.768942e+02
2.800000e-06	-3.050553e-06	-8.992694e-09	-2.116057e+01	-5.900047e+02
2.810000e-06	-3.137500e-06	-9.181900e-09	-2.176369e+01	-6.020293e+02
2.820000e-06	-3.223327e-06	-9.361615e-09	-2.235904e+01	-6.131827e+02
2.830000e-06	-3.307852e-06	-9.527328e-09	-2.294536e+01	-6.236649e+02
2.840000e-06	-3.391128e-06	-9.680677e-09	-2.352302e+01	-6.336105e+02
2.850000e-06	-3.473290e-06	-9.824445e-09	-2.409294e+01	-6.430666e+02
2.860000e-06	-3.554324e-06	-9.958044e-09	-2.465505e+01	-6.520061e+02
2.870000e-06	-3.634199e-06	-1.008053e-08	-2.520911e+01	-6.603703e+02
2.880000e-06	-3.712822e-06	-1.019242e-08	-2.575449e+01	-6.681204e+02
2.890000e-06	-3.789911e-06	-1.029923e-08	-2.628922e+01	-6.752754e+02
2.900000e-06	-3.865372e-06	-1.040563e-08	-2.681267e+01	-6.819201e+02
2.910000e-06	-3.939421e-06	-1.050864e-08	-2.732632e+01	-6.881825e+02
2.920000e-06	-4.012085e-06	-1.060512e-08	-2.783037e+01	-6.941912e+02
2.930000e-06	-4.083389e-06	-1.069731e-08	-2.832497e+01	-7.000328e+02
2.940000e-06	-4.153275e-06	-1.078586e-08	-2.880975e+01	-7.057288e+02
