# Temperatura_=_48.48
# Concentracion g/m^3_=_13400.0
# C_Vs_to_Am_M_A/Vsm_=_65563218390.804596
# pendiente_HvsI_1/m_=_3716.3
# ordenada_HvsI_A/m_=_1297.0
# frecuencia_Hz_=_300798.9736583985

Tiempo_(s)	Campo_(V.s)	Magnetizacion_(V.s)	Campo_(kA/m)	Magnetizacion_(A/m)
0.000000e+00	-5.501142e-06	-1.237094e-08	-3.831094e+01	-8.111068e+02
1.000000e-08	-5.499469e-06	-1.237716e-08	-3.829929e+01	-8.110222e+02
2.000000e-08	-5.495865e-06	-1.238064e-08	-3.827419e+01	-8.107261e+02
3.000000e-08	-5.490452e-06	-1.237703e-08	-3.823649e+01	-8.102224e+02
4.000000e-08	-5.483365e-06	-1.236550e-08	-3.818714e+01	-8.095653e+02
5.000000e-08	-5.474646e-06	-1.234747e-08	-3.812642e+01	-8.088356e+02
6.000000e-08	-5.463938e-06	-1.232833e-08	-3.805184e+01	-8.081063e+02
7.000000e-08	-5.451129e-06	-1.230247e-08	-3.796264e+01	-8.074120e+02
8.000000e-08	-5.436413e-06	-1.227966e-08	-3.786016e+01	-8.067353e+02
9.000000e-08	-5.419321e-06	-1.233321e-08	-3.774113e+01	-8.060159e+02
1.000000e-07	-5.399810e-06	-1.236427e-08	-3.760525e+01	-8.051780e+02
1.100000e-07	-5.378339e-06	-1.231673e-08	-3.745572e+01	-8.041645e+02
1.200000e-07	-5.355083e-06	-1.228908e-08	-3.729376e+01	-8.029622e+02
1.300000e-07	-5.330380e-06	-1.218521e-08	-3.712172e+01	-8.016070e+02
1.400000e-07	-5.304247e-06	-1.213338e-08	-3.693973e+01	-8.001677e+02
1.500000e-07	-5.276263e-06	-1.226123e-08	-3.674484e+01	-7.987145e+02
1.600000e-07	-5.246479e-06	-1.213721e-08	-3.653742e+01	-7.972866e+02
1.700000e-07	-5.215135e-06	-1.208983e-08	-3.631914e+01	-7.958720e+02
1.800000e-07	-5.181867e-06	-1.222506e-08	-3.608746e+01	-7.944106e+02
1.900000e-07	-5.146543e-06	-1.207909e-08	-3.584145e+01	-7.928166e+02
2.000000e-07	-5.109638e-06	-1.206761e-08	-3.558444e+01	-7.910129e+02
2.100000e-07	-5.071042e-06	-1.208282e-08	-3.531565e+01	-7.889619e+02
2.200000e-07	-5.030657e-06	-1.192629e-08	-3.503440e+01	-7.866803e+02
2.300000e-07	-4.988388e-06	-1.196427e-08	-3.474003e+01	-7.842306e+02
2.400000e-07	-4.944093e-06	-1.197718e-08	-3.443155e+01	-7.816948e+02
2.500000e-07	-4.898007e-06	-1.190398e-08	-3.411060e+01	-7.791400e+02
2.600000e-07	-4.850095e-06	-1.188463e-08	-3.377694e+01	-7.765917e+02
2.700000e-07	-4.800167e-06	-1.177727e-08	-3.342923e+01	-7.740252e+02
2.800000e-07	-4.748179e-06	-1.175368e-08	-3.306717e+01	-7.713788e+02
2.900000e-07	-4.694277e-06	-1.174306e-08	-3.269179e+01	-7.685821e+02
3.000000e-07	-4.638678e-06	-1.167791e-08	-3.230458e+01	-7.655862e+02
3.100000e-07	-4.581448e-06	-1.162804e-08	-3.190603e+01	-7.623843e+02
3.200000e-07	-4.522446e-06	-1.159639e-08	-3.149513e+01	-7.590120e+02
3.300000e-07	-4.461803e-06	-1.157942e-08	-3.107280e+01	-7.555285e+02
3.400000e-07	-4.399669e-06	-1.147415e-08	-3.064009e+01	-7.519881e+02
3.500000e-07	-4.336032e-06	-1.140247e-08	-3.019691e+01	-7.484135e+02
3.600000e-07	-4.270913e-06	-1.135398e-08	-2.974341e+01	-7.447849e+02
3.700000e-07	-4.204102e-06	-1.129622e-08	-2.927812e+01	-7.410482e+02
3.800000e-07	-4.135614e-06	-1.127906e-08	-2.880116e+01	-7.371393e+02
3.900000e-07	-4.065647e-06	-1.119910e-08	-2.831390e+01	-7.330134e+02
4.000000e-07	-3.994369e-06	-1.111817e-08	-2.781750e+01	-7.286658e+02
4.100000e-07	-3.921889e-06	-1.106052e-08	-2.731274e+01	-7.241340e+02
4.200000e-07	-3.847938e-06	-1.098604e-08	-2.679773e+01	-7.194810e+02
4.300000e-07	-3.772232e-06	-1.090466e-08	-2.627050e+01	-7.147657e+02
4.400000e-07	-3.694876e-06	-1.081292e-08	-2.573178e+01	-7.100137e+02
4.500000e-07	-3.616107e-06	-1.075564e-08	-2.518322e+01	-7.052029e+02
4.600000e-07	-3.535872e-06	-1.069458e-08	-2.462445e+01	-7.002696e+02
4.700000e-07	-3.454296e-06	-1.061948e-08	-2.405634e+01	-6.951333e+02
4.800000e-07	-3.371533e-06	-1.052582e-08	-2.347996e+01	-6.897306e+02
4.900000e-07	-3.287597e-06	-1.042199e-08	-2.289542e+01	-6.840418e+02
5.000000e-07	-3.202685e-06	-1.034412e-08	-2.230408e+01	-6.780994e+02
5.100000e-07	-3.116832e-06	-1.025558e-08	-2.170618e+01	-6.719742e+02
5.200000e-07	-3.029955e-06	-1.016002e-08	-2.110115e+01	-6.657439e+02
5.300000e-07	-2.942076e-06	-1.005735e-08	-2.048915e+01	-6.594578e+02
5.400000e-07	-2.853350e-06	-9.959319e-09	-1.987124e+01	-6.531143e+02
5.500000e-07	-2.763582e-06	-9.866444e-09	-1.924608e+01	-6.466584e+02
5.600000e-07	-2.672519e-06	-9.758236e-09	-1.861191e+01	-6.400042e+02
5.700000e-07	-2.580399e-06	-9.644360e-09	-1.797036e+01	-6.330692e+02
5.800000e-07	-2.487437e-06	-9.529828e-09	-1.732296e+01	-6.258083e+02
5.900000e-07	-2.393639e-06	-9.424685e-09	-1.666973e+01	-6.182305e+02
6.000000e-07	-2.298994e-06	-9.310777e-09	-1.601061e+01	-6.103911e+02
6.100000e-07	-2.203607e-06	-9.182681e-09	-1.534632e+01	-6.023630e+02
6.200000e-07	-2.107585e-06	-9.049154e-09	-1.467760e+01	-5.941995e+02
6.300000e-07	-2.010846e-06	-8.919479e-09	-1.400389e+01	-5.859044e+02
6.400000e-07	-1.913274e-06	-8.796165e-09	-1.332438e+01	-5.774246e+02
6.500000e-07	-1.814769e-06	-8.661400e-09	-1.263838e+01	-5.686680e+02
6.600000e-07	-1.715449e-06	-8.515813e-09	-1.194669e+01	-5.595400e+02
6.700000e-07	-1.615514e-06	-8.367811e-09	-1.125073e+01	-5.499812e+02
6.800000e-07	-1.515073e-06	-8.221040e-09	-1.055124e+01	-5.399904e+02
6.900000e-07	-1.414191e-06	-8.064206e-09	-9.848681e+00	-5.296205e+02
7.000000e-07	-1.312863e-06	-7.896870e-09	-9.143013e+00	-5.189487e+02
7.100000e-07	-1.211064e-06	-7.726936e-09	-8.434066e+00	-5.080329e+02
7.200000e-07	-1.108812e-06	-7.556631e-09	-7.721965e+00	-4.968750e+02
7.300000e-07	-1.006187e-06	-7.381602e-09	-7.007265e+00	-4.854075e+02
7.400000e-07	-9.031820e-07	-7.195201e-09	-6.289922e+00	-4.735114e+02
7.500000e-07	-7.998407e-07	-7.000012e-09	-5.570234e+00	-4.610588e+02
7.600000e-07	-6.962425e-07	-6.799745e-09	-4.848758e+00	-4.479620e+02
7.700000e-07	-5.924361e-07	-6.595065e-09	-4.125831e+00	-4.342051e+02
7.800000e-07	-4.884763e-07	-6.379487e-09	-3.401837e+00	-4.198436e+02
7.900000e-07	-3.843874e-07	-6.152388e-09	-2.676943e+00	-4.049666e+02
8.000000e-07	-2.802015e-07	-5.919078e-09	-1.951374e+00	-3.896390e+02
8.100000e-07	-1.758897e-07	-5.679707e-09	-1.224928e+00	-3.738464e+02
8.200000e-07	-7.149491e-08	-5.428613e-09	-4.979034e-01	-3.574705e+02
8.300000e-07	3.289738e-08	-5.161454e-09	2.291032e-01	-3.403095e+02
8.400000e-07	1.372668e-07	-4.880114e-09	9.559503e-01	-3.221363e+02
8.500000e-07	2.415781e-07	-4.586460e-09	1.682394e+00	-3.027728e+02
8.600000e-07	3.458201e-07	-4.277371e-09	2.408354e+00	-2.821405e+02
8.700000e-07	4.499342e-07	-3.946630e-09	3.133423e+00	-2.602586e+02
8.800000e-07	5.539083e-07	-3.595317e-09	3.857517e+00	-2.371763e+02
8.900000e-07	6.577360e-07	-3.224289e-09	4.580592e+00	-2.128549e+02
9.000000e-07	7.613601e-07	-2.829091e-09	5.302248e+00	-1.870433e+02
9.100000e-07	8.647673e-07	-2.397101e-09	6.022395e+00	-1.592018e+02
9.200000e-07	9.678778e-07	-1.917080e-09	6.740475e+00	-1.285227e+02
9.300000e-07	1.070634e-06	-1.384923e-09	7.456085e+00	-9.406862e+01
9.400000e-07	1.172992e-06	-7.930614e-10	8.168928e+00	-5.500761e+01
9.500000e-07	1.274915e-06	-1.283752e-10	8.878734e+00	-1.088860e+01
9.600000e-07	1.376408e-06	6.195166e-10	9.585549e+00	3.812486e+01
9.700000e-07	1.477494e-06	1.437927e-09	1.028954e+01	9.113971e+01
9.800000e-07	1.578165e-06	2.294927e-09	1.099062e+01	1.465857e+02
9.900000e-07	1.678289e-06	3.151420e-09	1.168791e+01	2.024361e+02
1.000000e-06	1.777784e-06	3.972343e-09	1.238081e+01	2.565461e+02
1.010000e-06	1.876566e-06	4.729587e-09	1.306874e+01	3.070236e+02
1.020000e-06	1.974491e-06	5.405653e-09	1.375071e+01	3.525356e+02
1.030000e-06	2.071534e-06	5.998049e-09	1.442653e+01	3.924735e+02
1.040000e-06	2.167784e-06	6.515319e-09	1.509684e+01	4.269430e+02
1.050000e-06	2.263326e-06	6.969103e-09	1.576221e+01	4.565986e+02
1.060000e-06	2.358218e-06	7.366934e-09	1.642306e+01	4.823822e+02
1.070000e-06	2.452373e-06	7.718598e-09	1.707877e+01	5.052506e+02
1.080000e-06	2.545672e-06	8.031255e-09	1.772852e+01	5.259667e+02
1.090000e-06	2.638106e-06	8.314329e-09	1.837225e+01	5.450035e+02
1.100000e-06	2.729656e-06	8.572967e-09	1.900981e+01	5.625640e+02
1.110000e-06	2.820117e-06	8.809976e-09	1.963980e+01	5.786842e+02
1.120000e-06	2.909336e-06	9.029472e-09	2.026114e+01	5.933642e+02
1.130000e-06	2.997494e-06	9.234120e-09	2.087509e+01	6.066726e+02
1.140000e-06	3.084698e-06	9.424795e-09	2.148239e+01	6.187871e+02
1.150000e-06	3.170885e-06	9.600403e-09	2.208261e+01	6.299686e+02
1.160000e-06	3.256054e-06	9.761213e-09	2.267574e+01	6.404886e+02
1.170000e-06	3.340213e-06	9.909967e-09	2.326184e+01	6.505501e+02
1.180000e-06	3.423201e-06	1.005257e-08	2.383979e+01	6.602376e+02
1.190000e-06	3.504870e-06	1.019095e-08	2.440854e+01	6.695167e+02
1.200000e-06	3.585227e-06	1.032471e-08	2.496817e+01	6.782807e+02
1.210000e-06	3.664324e-06	1.045096e-08	2.551901e+01	6.864217e+02
1.220000e-06	3.742151e-06	1.056832e-08	2.606102e+01	6.938955e+02
1.230000e-06	3.818681e-06	1.067615e-08	2.659398e+01	7.007533e+02
1.240000e-06	3.893711e-06	1.077453e-08	2.711650e+01	7.071291e+02
1.250000e-06	3.967057e-06	1.086608e-08	2.762730e+01	7.131928e+02
1.260000e-06	4.038937e-06	1.095420e-08	2.812788e+01	7.190888e+02
1.270000e-06	4.109472e-06	1.104004e-08	2.861910e+01	7.248898e+02
1.280000e-06	4.178649e-06	1.112346e-08	2.910086e+01	7.305813e+02
1.290000e-06	4.246370e-06	1.120609e-08	2.957249e+01	7.360844e+02
1.300000e-06	4.312432e-06	1.128695e-08	3.003255e+01	7.413025e+02
1.310000e-06	4.376918e-06	1.136262e-08	3.048165e+01	7.461715e+02
1.320000e-06	4.439972e-06	1.143159e-08	3.092076e+01	7.506917e+02
1.330000e-06	4.501599e-06	1.149589e-08	3.134995e+01	7.549284e+02
1.340000e-06	4.561699e-06	1.155801e-08	3.176849e+01	7.589826e+02
1.350000e-06	4.620079e-06	1.161826e-08	3.217506e+01	7.629470e+02
1.360000e-06	4.676720e-06	1.167577e-08	3.256952e+01	7.668662e+02
1.370000e-06	4.731698e-06	1.173150e-08	3.295239e+01	7.707201e+02
1.380000e-06	4.784950e-06	1.178718e-08	3.332325e+01	7.744352e+02
1.390000e-06	4.836182e-06	1.183998e-08	3.368004e+01	7.779201e+02
1.400000e-06	4.885403e-06	1.188917e-08	3.402283e+01	7.811075e+02
1.410000e-06	4.932885e-06	1.193495e-08	3.435350e+01	7.839849e+02
1.420000e-06	4.978724e-06	1.197608e-08	3.467273e+01	7.865998e+02
1.430000e-06	5.022912e-06	1.201316e-08	3.498046e+01	7.890401e+02
1.440000e-06	5.065172e-06	1.204779e-08	3.527477e+01	7.913957e+02
1.450000e-06	5.105516e-06	1.208226e-08	3.555573e+01	7.937214e+02
1.460000e-06	5.144190e-06	1.211622e-08	3.582507e+01	7.960157e+02
1.470000e-06	5.181223e-06	1.214943e-08	3.608297e+01	7.982245e+02
1.480000e-06	5.216407e-06	1.218120e-08	3.632800e+01	8.002681e+02
1.490000e-06	5.249612e-06	1.221004e-08	3.655924e+01	8.020791e+02
1.500000e-06	5.281029e-06	1.223391e-08	3.677804e+01	8.036337e+02
1.510000e-06	5.310733e-06	1.225448e-08	3.698490e+01	8.049632e+02
1.520000e-06	5.338645e-06	1.227540e-08	3.717928e+01	8.061413e+02
1.530000e-06	5.364484e-06	1.229506e-08	3.735923e+01	8.072520e+02
1.540000e-06	5.388231e-06	1.231226e-08	3.752461e+01	8.083541e+02
1.550000e-06	5.410189e-06	1.232825e-08	3.767753e+01	8.094562e+02
1.560000e-06	5.430456e-06	1.234272e-08	3.781868e+01	8.105147e+02
1.570000e-06	5.448780e-06	1.235391e-08	3.794629e+01	8.114543e+02
1.580000e-06	5.465013e-06	1.236327e-08	3.805933e+01	8.122028e+02
1.590000e-06	5.479315e-06	1.237317e-08	3.815894e+01	8.127245e+02
1.600000e-06	5.491563e-06	1.238306e-08	3.824423e+01	8.130372e+02
1.610000e-06	5.501537e-06	1.238980e-08	3.831369e+01	8.132064e+02
1.620000e-06	5.509472e-06	1.239277e-08	3.836895e+01	8.133178e+02
1.630000e-06	5.515639e-06	1.239567e-08	3.841190e+01	8.134417e+02
1.640000e-06	5.519993e-06	1.239853e-08	3.844222e+01	8.136030e+02
1.650000e-06	5.522271e-06	1.240014e-08	3.845809e+01	8.137715e+02
1.660000e-06	5.522546e-06	1.240203e-08	3.846000e+01	8.138750e+02
1.670000e-06	5.521080e-06	1.239763e-08	3.844979e+01	8.138311e+02
1.680000e-06	5.517969e-06	1.239209e-08	3.842813e+01	8.135820e+02
1.690000e-06	5.513002e-06	1.238700e-08	3.839354e+01	8.131200e+02
1.700000e-06	5.506052e-06	1.237845e-08	3.834513e+01	8.124896e+02
1.710000e-06	5.497407e-06	1.236991e-08	3.828493e+01	8.117686e+02
1.720000e-06	5.487097e-06	1.236465e-08	3.821313e+01	8.110348e+02
1.730000e-06	5.474832e-06	1.237639e-08	3.812771e+01	8.103329e+02
1.740000e-06	5.460537e-06	1.235584e-08	3.802816e+01	8.096566e+02
1.750000e-06	5.444234e-06	1.225084e-08	3.791463e+01	8.089528e+02
1.760000e-06	5.425379e-06	1.223919e-08	3.778332e+01	8.081464e+02
1.770000e-06	5.403699e-06	1.225507e-08	3.763233e+01	8.071736e+02
1.780000e-06	5.379962e-06	1.230013e-08	3.746702e+01	8.060104e+02
1.790000e-06	5.355190e-06	1.236987e-08	3.729451e+01	8.046831e+02
1.800000e-06	5.329623e-06	1.216985e-08	3.711645e+01	8.032556e+02
1.810000e-06	5.302174e-06	1.218746e-08	3.692529e+01	8.018008e+02
1.820000e-06	5.272334e-06	1.229301e-08	3.671748e+01	8.003668e+02
1.830000e-06	5.240940e-06	1.207698e-08	3.649885e+01	7.989532e+02
1.840000e-06	5.207825e-06	1.217049e-08	3.626823e+01	7.975088e+02
1.850000e-06	5.172911e-06	1.220621e-08	3.602508e+01	7.959508e+02
1.860000e-06	5.136315e-06	1.200437e-08	3.577022e+01	7.941970e+02
1.870000e-06	5.097518e-06	1.215800e-08	3.550003e+01	7.921997e+02
1.880000e-06	5.056977e-06	1.209457e-08	3.521770e+01	7.899636e+02
1.890000e-06	5.014916e-06	1.194322e-08	3.492477e+01	7.875434e+02
1.900000e-06	4.970873e-06	1.198942e-08	3.461805e+01	7.850196e+02
1.910000e-06	4.925043e-06	1.183942e-08	3.429888e+01	7.824652e+02
1.920000e-06	4.877396e-06	1.192677e-08	3.396706e+01	7.799160e+02
1.930000e-06	4.827965e-06	1.192355e-08	3.362282e+01	7.773579e+02
1.940000e-06	4.776818e-06	1.175662e-08	3.326662e+01	7.747350e+02
1.950000e-06	4.723512e-06	1.181348e-08	3.289539e+01	7.719759e+02
1.960000e-06	4.668399e-06	1.171510e-08	3.251157e+01	7.690250e+02
1.970000e-06	4.611651e-06	1.167752e-08	3.211636e+01	7.658657e+02
1.980000e-06	4.553273e-06	1.159261e-08	3.170981e+01	7.625255e+02
1.990000e-06	4.493445e-06	1.152495e-08	3.129316e+01	7.590609e+02
2.000000e-06	4.431796e-06	1.157924e-08	3.086382e+01	7.555295e+02
2.010000e-06	4.368468e-06	1.145290e-08	3.042280e+01	7.519626e+02
2.020000e-06	4.303645e-06	1.145625e-08	2.997136e+01	7.483494e+02
2.030000e-06	4.237390e-06	1.135240e-08	2.950994e+01	7.446416e+02
2.040000e-06	4.169687e-06	1.126419e-08	2.903845e+01	7.407746e+02
2.050000e-06	4.100152e-06	1.125976e-08	2.855420e+01	7.366974e+02
2.060000e-06	4.029030e-06	1.112056e-08	2.805889e+01	7.323956e+02
2.070000e-06	3.956581e-06	1.111143e-08	2.755434e+01	7.278985e+02
2.080000e-06	3.882747e-06	1.102269e-08	2.704015e+01	7.232662e+02
2.090000e-06	3.807387e-06	1.098567e-08	2.651533e+01	7.185607e+02
2.100000e-06	3.730286e-06	1.092476e-08	2.597838e+01	7.138169e+02
2.110000e-06	3.651688e-06	1.080154e-08	2.543101e+01	7.090232e+02
2.120000e-06	3.571914e-06	1.074683e-08	2.487545e+01	7.041229e+02
2.130000e-06	3.491021e-06	1.063152e-08	2.431210e+01	6.990368e+02
2.140000e-06	3.408948e-06	1.059647e-08	2.374052e+01	6.936948e+02
2.150000e-06	3.325761e-06	1.049910e-08	2.316120e+01	6.880665e+02
2.160000e-06	3.241320e-06	1.040834e-08	2.257314e+01	6.821735e+02
2.170000e-06	3.155460e-06	1.032572e-08	2.197519e+01	6.760808e+02
2.180000e-06	3.068447e-06	1.021482e-08	2.136921e+01	6.698676e+02
2.190000e-06	2.980432e-06	1.013714e-08	2.075627e+01	6.635919e+02
2.200000e-06	2.891462e-06	1.001698e-08	2.013666e+01	6.572638e+02
2.210000e-06	2.801576e-06	9.934770e-09	1.951068e+01	6.508389e+02
2.220000e-06	2.710789e-06	9.839590e-09	1.887842e+01	6.442349e+02
2.230000e-06	2.619107e-06	9.741720e-09	1.823993e+01	6.373657e+02
2.240000e-06	2.526397e-06	9.623169e-09	1.759429e+01	6.301760e+02
2.250000e-06	2.432565e-06	9.492476e-09	1.694082e+01	6.226629e+02
2.260000e-06	2.337825e-06	9.387820e-09	1.628103e+01	6.148736e+02
2.270000e-06	2.242359e-06	9.276258e-09	1.561619e+01	6.068805e+02
2.280000e-06	2.146158e-06	9.162724e-09	1.494623e+01	5.987439e+02
2.290000e-06	2.049260e-06	9.026572e-09	1.427142e+01	5.904798e+02
2.300000e-06	1.951634e-06	8.893971e-09	1.359153e+01	5.820466e+02
2.310000e-06	1.853396e-06	8.762677e-09	1.290738e+01	5.733580e+02
2.320000e-06	1.754649e-06	8.625100e-09	1.221969e+01	5.643164e+02
2.330000e-06	1.655381e-06	8.477213e-09	1.152837e+01	5.548523e+02
2.340000e-06	1.555617e-06	8.329204e-09	1.083360e+01	5.449514e+02
2.350000e-06	1.455202e-06	8.184227e-09	1.013429e+01	5.346566e+02
2.360000e-06	1.354026e-06	8.027370e-09	9.429682e+00	5.240435e+02
2.370000e-06	1.252244e-06	7.855777e-09	8.720854e+00	5.131777e+02
2.380000e-06	1.150002e-06	7.677501e-09	8.008823e+00	5.020752e+02
2.390000e-06	1.047326e-06	7.509171e-09	7.293765e+00	4.906831e+02
2.400000e-06	9.442257e-07	7.335306e-09	6.575758e+00	4.788902e+02
2.410000e-06	8.407604e-07	7.147791e-09	5.855207e+00	4.665665e+02
2.420000e-06	7.370456e-07	6.948440e-09	5.132918e+00	4.536118e+02
2.430000e-06	6.331365e-07	6.742542e-09	4.409276e+00	4.399940e+02
2.440000e-06	5.290422e-07	6.529727e-09	3.684345e+00	4.257551e+02
2.450000e-06	4.247793e-07	6.305159e-09	2.958240e+00	4.109815e+02
2.460000e-06	3.203863e-07	6.069448e-09	2.231228e+00	3.957485e+02
2.470000e-06	2.159000e-07	5.828099e-09	1.503567e+00	3.800621e+02
2.480000e-06	1.113298e-07	5.583418e-09	7.753209e-01	3.638263e+02
2.490000e-06	6.731602e-09	5.325104e-09	4.688009e-02	3.468530e+02
2.500000e-06	-9.784511e-08	5.045856e-09	-6.814110e-01	3.289146e+02
2.510000e-06	-2.023949e-07	4.748208e-09	-1.409514e+00	3.098168e+02
2.520000e-06	-3.068661e-07	4.440755e-09	-2.137071e+00	2.894576e+02
2.530000e-06	-4.112477e-07	4.121889e-09	-2.864003e+00	2.678390e+02
2.540000e-06	-5.155099e-07	3.779161e-09	-3.590104e+00	2.450124e+02
2.550000e-06	-6.195628e-07	3.409770e-09	-4.314747e+00	2.209689e+02
2.560000e-06	-7.234058e-07	3.019452e-09	-5.037928e+00	1.955120e+02
2.570000e-06	-8.270239e-07	2.600171e-09	-5.759543e+00	1.681658e+02
2.580000e-06	-9.303666e-07	2.137615e-09	-6.479240e+00	1.381725e+02
2.590000e-06	-1.033352e-06	1.623488e-09	-7.196448e+00	1.046053e+02
2.600000e-06	-1.135914e-06	1.052422e-09	-7.910708e+00	6.658669e+01
2.610000e-06	-1.237951e-06	4.148765e-10	-8.621311e+00	2.356165e+01
2.620000e-06	-1.339420e-06	-3.003170e-10	-9.327959e+00	-2.445275e+01
2.630000e-06	-1.440313e-06	-1.093251e-09	-1.003060e+01	-7.672140e+01
2.640000e-06	-1.540593e-06	-1.942025e-09	-1.072896e+01	-1.318059e+02
2.650000e-06	-1.640278e-06	-2.808973e-09	-1.142319e+01	-1.877518e+02
2.660000e-06	-1.739313e-06	-3.656789e-09	-1.211289e+01	-2.424077e+02
2.670000e-06	-1.837752e-06	-4.449170e-09	-1.279843e+01	-2.937984e+02
2.680000e-06	-1.935645e-06	-5.162104e-09	-1.348018e+01	-3.404512e+02
2.690000e-06	-2.032886e-06	-5.787680e-09	-1.415738e+01	-3.815972e+02
2.700000e-06	-2.129415e-06	-6.328960e-09	-1.482963e+01	-4.171983e+02
2.710000e-06	-2.225324e-06	-6.800384e-09	-1.549756e+01	-4.478115e+02
2.720000e-06	-2.320650e-06	-7.217589e-09	-1.616142e+01	-4.743408e+02
2.730000e-06	-2.415193e-06	-7.587573e-09	-1.681984e+01	-4.977606e+02
2.740000e-06	-2.508770e-06	-7.917579e-09	-1.747152e+01	-5.188875e+02
2.750000e-06	-2.601281e-06	-8.215783e-09	-1.811579e+01	-5.382589e+02
2.760000e-06	-2.692764e-06	-8.488215e-09	-1.875290e+01	-5.561289e+02
2.770000e-06	-2.783256e-06	-8.737370e-09	-1.938309e+01	-5.725582e+02
2.780000e-06	-2.872733e-06	-8.962937e-09	-2.000623e+01	-5.875444e+02
2.790000e-06	-2.961214e-06	-9.169312e-09	-2.062243e+01	-6.011352e+02
2.800000e-06	-3.048719e-06	-9.361102e-09	-2.123182e+01	-6.134854e+02
2.810000e-06	-3.135243e-06	-9.541053e-09	-2.183440e+01	-6.248428e+02
2.820000e-06	-3.220611e-06	-9.708611e-09	-2.242892e+01	-6.354839e+02
2.830000e-06	-3.304684e-06	-9.863964e-09	-2.301442e+01	-6.456320e+02
2.840000e-06	-3.387567e-06	-1.001358e-08	-2.359162e+01	-6.553988e+02
2.850000e-06	-3.469356e-06	-1.015798e-08	-2.416122e+01	-6.647728e+02
2.860000e-06	-3.550017e-06	-1.029118e-08	-2.472296e+01	-6.736571e+02
2.870000e-06	-3.629479e-06	-1.041045e-08	-2.527634e+01	-6.819380e+02
2.880000e-06	-3.707563e-06	-1.052207e-08	-2.582013e+01	-6.895537e+02
2.890000e-06	-3.784089e-06	-1.063113e-08	-2.635307e+01	-6.965343e+02
2.900000e-06	-3.859081e-06	-1.073444e-08	-2.687534e+01	-7.029993e+02
2.910000e-06	-3.932630e-06	-1.082987e-08	-2.738754e+01	-7.091157e+02
2.920000e-06	-4.004808e-06	-1.092194e-08	-2.789021e+01	-7.150385e+02
2.930000e-06	-4.075627e-06	-1.101406e-08	-2.838340e+01	-7.208580e+02
2.940000e-06	-4.144920e-06	-1.110200e-08	-2.886597e+01	-7.265778e+02
