# Temperatura_=_40.34
# Concentracion g/m^3_=_13400.0
# C_Vs_to_Am_M_A/Vsm_=_65563218390.804596
# pendiente_HvsI_1/m_=_3716.3
# ordenada_HvsI_A/m_=_1297.0
# frecuencia_Hz_=_300800.72595903993

Tiempo_(s)	Campo_(V.s)	Magnetizacion_(V.s)	Campo_(kA/m)	Magnetizacion_(A/m)
0.000000e+00	-5.512232e-06	-1.227012e-08	-3.830372e+01	-8.045729e+02
1.000000e-08	-5.510441e-06	-1.227244e-08	-3.829127e+01	-8.044664e+02
2.000000e-08	-5.506677e-06	-1.226827e-08	-3.826512e+01	-8.041085e+02
3.000000e-08	-5.501075e-06	-1.226159e-08	-3.822619e+01	-8.035219e+02
4.000000e-08	-5.493836e-06	-1.224995e-08	-3.817589e+01	-8.027893e+02
5.000000e-08	-5.484977e-06	-1.223106e-08	-3.811433e+01	-8.020191e+02
6.000000e-08	-5.474153e-06	-1.221332e-08	-3.803911e+01	-8.012998e+02
7.000000e-08	-5.461243e-06	-1.219193e-08	-3.794941e+01	-8.006630e+02
8.000000e-08	-5.446355e-06	-1.218165e-08	-3.784595e+01	-8.000705e+02
9.000000e-08	-5.429115e-06	-1.223887e-08	-3.772616e+01	-7.994301e+02
1.000000e-07	-5.409512e-06	-1.225360e-08	-3.758993e+01	-7.986352e+02
1.100000e-07	-5.387930e-06	-1.220327e-08	-3.743996e+01	-7.976087e+02
1.200000e-07	-5.364587e-06	-1.217360e-08	-3.727776e+01	-7.963357e+02
1.300000e-07	-5.339775e-06	-1.205451e-08	-3.710534e+01	-7.948688e+02
1.400000e-07	-5.313421e-06	-1.202766e-08	-3.692221e+01	-7.933050e+02
1.500000e-07	-5.285188e-06	-1.214435e-08	-3.672602e+01	-7.917442e+02
1.600000e-07	-5.255241e-06	-1.200388e-08	-3.651793e+01	-7.902459e+02
1.700000e-07	-5.223744e-06	-1.199859e-08	-3.629906e+01	-7.888033e+02
1.800000e-07	-5.190259e-06	-1.209957e-08	-3.606638e+01	-7.873448e+02
1.900000e-07	-5.154734e-06	-1.193942e-08	-3.581952e+01	-7.857627e+02
2.000000e-07	-5.117701e-06	-1.196395e-08	-3.556218e+01	-7.839572e+02
2.100000e-07	-5.078916e-06	-1.194889e-08	-3.529267e+01	-7.818762e+02
2.200000e-07	-5.038264e-06	-1.180109e-08	-3.501019e+01	-7.795364e+02
2.300000e-07	-4.995706e-06	-1.185682e-08	-3.471446e+01	-7.770147e+02
2.400000e-07	-4.951126e-06	-1.184790e-08	-3.440467e+01	-7.744158e+02
2.500000e-07	-4.904808e-06	-1.179090e-08	-3.408282e+01	-7.718296e+02
2.600000e-07	-4.856643e-06	-1.176823e-08	-3.374812e+01	-7.692946e+02
2.700000e-07	-4.806451e-06	-1.165598e-08	-3.339935e+01	-7.667845e+02
2.800000e-07	-4.754211e-06	-1.164422e-08	-3.303634e+01	-7.642214e+02
2.900000e-07	-4.700087e-06	-1.163003e-08	-3.266024e+01	-7.615103e+02
3.000000e-07	-4.644344e-06	-1.156315e-08	-3.227289e+01	-7.585792e+02
3.100000e-07	-4.586977e-06	-1.150944e-08	-3.187426e+01	-7.554084e+02
3.200000e-07	-4.527764e-06	-1.147935e-08	-3.146279e+01	-7.520363e+02
3.300000e-07	-4.466871e-06	-1.145783e-08	-3.103966e+01	-7.485407e+02
3.400000e-07	-4.404517e-06	-1.135591e-08	-3.060637e+01	-7.450035e+02
3.500000e-07	-4.340685e-06	-1.129389e-08	-3.016280e+01	-7.414740e+02
3.600000e-07	-4.275335e-06	-1.123930e-08	-2.970870e+01	-7.379482e+02
3.700000e-07	-4.208246e-06	-1.118990e-08	-2.924251e+01	-7.343700e+02
3.800000e-07	-4.139501e-06	-1.117598e-08	-2.876481e+01	-7.306555e+02
3.900000e-07	-4.069311e-06	-1.109359e-08	-2.827707e+01	-7.267287e+02
4.000000e-07	-3.997825e-06	-1.101823e-08	-2.778032e+01	-7.225524e+02
4.100000e-07	-3.925065e-06	-1.095923e-08	-2.727472e+01	-7.181418e+02
4.200000e-07	-3.850783e-06	-1.088996e-08	-2.675855e+01	-7.135557e+02
4.300000e-07	-3.774836e-06	-1.080929e-08	-2.623080e+01	-7.088683e+02
4.400000e-07	-3.697239e-06	-1.072120e-08	-2.569159e+01	-7.041356e+02
4.500000e-07	-3.618140e-06	-1.066732e-08	-2.514194e+01	-6.993700e+02
4.600000e-07	-3.537623e-06	-1.060772e-08	-2.458244e+01	-6.945350e+02
4.700000e-07	-3.455752e-06	-1.053347e-08	-2.401354e+01	-6.895601e+02
4.800000e-07	-3.372659e-06	-1.043456e-08	-2.343613e+01	-6.843716e+02
4.900000e-07	-3.288495e-06	-1.033413e-08	-2.285128e+01	-6.789222e+02
5.000000e-07	-3.203389e-06	-1.026454e-08	-2.225990e+01	-6.732094e+02
5.100000e-07	-3.117298e-06	-1.018521e-08	-2.166166e+01	-6.672733e+02
5.200000e-07	-3.030205e-06	-1.009259e-08	-2.105647e+01	-6.611755e+02
5.300000e-07	-2.942125e-06	-9.988235e-09	-2.044441e+01	-6.549698e+02
5.400000e-07	-2.853107e-06	-9.889050e-09	-1.982584e+01	-6.486765e+02
5.500000e-07	-2.763092e-06	-9.797243e-09	-1.920034e+01	-6.422733e+02
5.600000e-07	-2.671842e-06	-9.691055e-09	-1.856625e+01	-6.357047e+02
5.700000e-07	-2.579476e-06	-9.578940e-09	-1.792441e+01	-6.289064e+02
5.800000e-07	-2.486281e-06	-9.470159e-09	-1.727682e+01	-6.218323e+02
5.900000e-07	-2.392344e-06	-9.371358e-09	-1.662406e+01	-6.144718e+02
6.000000e-07	-2.297582e-06	-9.262668e-09	-1.596557e+01	-6.068494e+02
6.100000e-07	-2.201993e-06	-9.136409e-09	-1.530134e+01	-5.990071e+02
6.200000e-07	-2.105670e-06	-9.003657e-09	-1.463200e+01	-5.909779e+02
6.300000e-07	-2.008578e-06	-8.875727e-09	-1.395732e+01	-5.827641e+02
6.400000e-07	-1.910668e-06	-8.752869e-09	-1.327696e+01	-5.743298e+02
6.500000e-07	-1.811939e-06	-8.618887e-09	-1.259091e+01	-5.656128e+02
6.600000e-07	-1.712414e-06	-8.477445e-09	-1.189933e+01	-5.565495e+02
6.700000e-07	-1.612203e-06	-8.335659e-09	-1.120297e+01	-5.471018e+02
6.800000e-07	-1.511476e-06	-8.193105e-09	-1.050303e+01	-5.372720e+02
6.900000e-07	-1.410343e-06	-8.036650e-09	-9.800277e+00	-5.270968e+02
7.000000e-07	-1.308763e-06	-7.868575e-09	-9.094410e+00	-5.166232e+02
7.100000e-07	-1.206713e-06	-7.700353e-09	-8.385277e+00	-5.058762e+02
7.200000e-07	-1.104247e-06	-7.533574e-09	-7.673256e+00	-4.948332e+02
7.300000e-07	-1.001358e-06	-7.362178e-09	-6.958298e+00	-4.834198e+02
7.400000e-07	-8.980804e-07	-7.177578e-09	-6.240634e+00	-4.715299e+02
7.500000e-07	-7.944812e-07	-6.983576e-09	-5.520738e+00	-4.590638e+02
7.600000e-07	-6.906330e-07	-6.783018e-09	-4.799111e+00	-4.459665e+02
7.700000e-07	-5.865791e-07	-6.576120e-09	-4.076055e+00	-4.322485e+02
7.800000e-07	-4.823786e-07	-6.358460e-09	-3.351981e+00	-4.179752e+02
7.900000e-07	-3.780641e-07	-6.132690e-09	-2.627114e+00	-4.032271e+02
8.000000e-07	-2.736431e-07	-5.904692e-09	-1.901507e+00	-3.880453e+02
8.100000e-07	-1.691271e-07	-5.670693e-09	-1.175240e+00	-3.723862e+02
8.200000e-07	-6.451987e-08	-5.422889e-09	-4.483394e-01	-3.561088e+02
8.300000e-07	4.010147e-08	-5.154888e-09	2.786595e-01	-3.390027e+02
8.400000e-07	1.446616e-07	-4.871511e-09	1.005233e+00	-3.208512e+02
8.500000e-07	2.491505e-07	-4.577660e-09	1.731311e+00	-3.015002e+02
8.600000e-07	3.535571e-07	-4.268440e-09	2.456819e+00	-2.809014e+02
8.700000e-07	4.578448e-07	-3.937733e-09	3.181499e+00	-2.591001e+02
8.800000e-07	5.620113e-07	-3.587913e-09	3.905337e+00	-2.361592e+02
8.900000e-07	6.660369e-07	-3.221281e-09	4.628196e+00	-2.120403e+02
9.000000e-07	7.698789e-07	-2.830426e-09	5.349780e+00	-1.864829e+02
9.100000e-07	8.734639e-07	-2.401206e-09	6.069577e+00	-1.589371e+02
9.200000e-07	9.766942e-07	-1.925253e-09	6.786910e+00	-1.285928e+02
9.300000e-07	1.079546e-06	-1.400585e-09	7.501611e+00	-9.452220e+01
9.400000e-07	1.181997e-06	-8.159489e-10	8.213527e+00	-5.591310e+01
9.500000e-07	1.284073e-06	-1.566743e-10	8.922843e+00	-1.233510e+01
9.600000e-07	1.385720e-06	5.817087e-10	9.629173e+00	3.603930e+01
9.700000e-07	1.486901e-06	1.385728e-09	1.033227e+01	8.833130e+01
9.800000e-07	1.587641e-06	2.228493e-09	1.103229e+01	1.430133e+02
9.900000e-07	1.687890e-06	3.076252e-09	1.172891e+01	1.981248e+02
1.000000e-06	1.787615e-06	3.892559e-09	1.242189e+01	2.515974e+02
1.010000e-06	1.886660e-06	4.643732e-09	1.311013e+01	3.016058e+02
1.020000e-06	1.984861e-06	5.312776e-09	1.379252e+01	3.468548e+02
1.030000e-06	2.082105e-06	5.902706e-09	1.446825e+01	3.867332e+02
1.040000e-06	2.178492e-06	6.422713e-09	1.513804e+01	4.213035e+02
1.050000e-06	2.274211e-06	6.880651e-09	1.580317e+01	4.511480e+02
1.060000e-06	2.369239e-06	7.280244e-09	1.646351e+01	4.771280e+02
1.070000e-06	2.463465e-06	7.632787e-09	1.711827e+01	5.001340e+02
1.080000e-06	2.556843e-06	7.947631e-09	1.776714e+01	5.208951e+02
1.090000e-06	2.649384e-06	8.232359e-09	1.841019e+01	5.398884e+02
1.100000e-06	2.741051e-06	8.491531e-09	1.904718e+01	5.573529e+02
1.110000e-06	2.831684e-06	8.726242e-09	1.967697e+01	5.733758e+02
1.120000e-06	2.921090e-06	8.943237e-09	2.029824e+01	5.880031e+02
1.130000e-06	3.009397e-06	9.149573e-09	2.091187e+01	6.013258e+02
1.140000e-06	3.096756e-06	9.343462e-09	2.151892e+01	6.135131e+02
1.150000e-06	3.183095e-06	9.519358e-09	2.211888e+01	6.247900e+02
1.160000e-06	3.268366e-06	9.678992e-09	2.271141e+01	6.353790e+02
1.170000e-06	3.352608e-06	9.827503e-09	2.329680e+01	6.454399e+02
1.180000e-06	3.435754e-06	9.970511e-09	2.387457e+01	6.550360e+02
1.190000e-06	3.517562e-06	1.010901e-08	2.444304e+01	6.641418e+02
1.200000e-06	3.598024e-06	1.024036e-08	2.500216e+01	6.726864e+02
1.210000e-06	3.677209e-06	1.036060e-08	2.555241e+01	6.806120e+02
1.220000e-06	3.755094e-06	1.047237e-08	2.609362e+01	6.879209e+02
1.230000e-06	3.831650e-06	1.057997e-08	2.662560e+01	6.946909e+02
1.240000e-06	3.906681e-06	1.068113e-08	2.714698e+01	7.010553e+02
1.250000e-06	3.980086e-06	1.077273e-08	2.765706e+01	7.071574e+02
1.260000e-06	4.052055e-06	1.085774e-08	2.815716e+01	7.131008e+02
1.270000e-06	4.122631e-06	1.094230e-08	2.864758e+01	7.189187e+02
1.280000e-06	4.191829e-06	1.102832e-08	2.912842e+01	7.245736e+02
1.290000e-06	4.259652e-06	1.111161e-08	2.959972e+01	7.299868e+02
1.300000e-06	4.325759e-06	1.118934e-08	3.005909e+01	7.350840e+02
1.310000e-06	4.390181e-06	1.126347e-08	3.050675e+01	7.398348e+02
1.320000e-06	4.453158e-06	1.133274e-08	3.094436e+01	7.442709e+02
1.330000e-06	4.514732e-06	1.139673e-08	3.137224e+01	7.484740e+02
1.340000e-06	4.574891e-06	1.145645e-08	3.179027e+01	7.525407e+02
1.350000e-06	4.633370e-06	1.151475e-08	3.219663e+01	7.565409e+02
1.360000e-06	4.690047e-06	1.157317e-08	3.259048e+01	7.604881e+02
1.370000e-06	4.745036e-06	1.163008e-08	3.297258e+01	7.643358e+02
1.380000e-06	4.798298e-06	1.168698e-08	3.334270e+01	7.679998e+02
1.390000e-06	4.849590e-06	1.174167e-08	3.369912e+01	7.713984e+02
1.400000e-06	4.898801e-06	1.179084e-08	3.404108e+01	7.744903e+02
1.410000e-06	4.946193e-06	1.183239e-08	3.437040e+01	7.772946e+02
1.420000e-06	4.992023e-06	1.186946e-08	3.468886e+01	7.798842e+02
1.430000e-06	5.036241e-06	1.190604e-08	3.499613e+01	7.823548e+02
1.440000e-06	5.078493e-06	1.194374e-08	3.528973e+01	7.847837e+02
1.450000e-06	5.118819e-06	1.198190e-08	3.556995e+01	7.871975e+02
1.460000e-06	5.157493e-06	1.201772e-08	3.583869e+01	7.895607e+02
1.470000e-06	5.194521e-06	1.205396e-08	3.609599e+01	7.917938e+02
1.480000e-06	5.229700e-06	1.208922e-08	3.634045e+01	7.938089e+02
1.490000e-06	5.262878e-06	1.211820e-08	3.657100e+01	7.955512e+02
1.500000e-06	5.294187e-06	1.213890e-08	3.678856e+01	7.970249e+02
1.510000e-06	5.323788e-06	1.215558e-08	3.699425e+01	7.982940e+02
1.520000e-06	5.351641e-06	1.217505e-08	3.718780e+01	7.994568e+02
1.530000e-06	5.377399e-06	1.219663e-08	3.736679e+01	8.006044e+02
1.540000e-06	5.401115e-06	1.221633e-08	3.753158e+01	8.017825e+02
1.550000e-06	5.423085e-06	1.223430e-08	3.768425e+01	8.029717e+02
1.560000e-06	5.443293e-06	1.225108e-08	3.782467e+01	8.040961e+02
1.570000e-06	5.461546e-06	1.226716e-08	3.795151e+01	8.050561e+02
1.580000e-06	5.477745e-06	1.227943e-08	3.806408e+01	8.057724e+02
1.590000e-06	5.491981e-06	1.228547e-08	3.816300e+01	8.062216e+02
1.600000e-06	5.504153e-06	1.228919e-08	3.824758e+01	8.064479e+02
1.610000e-06	5.514070e-06	1.229227e-08	3.831649e+01	8.065468e+02
1.620000e-06	5.521940e-06	1.229458e-08	3.837118e+01	8.066261e+02
1.630000e-06	5.528007e-06	1.229762e-08	3.841334e+01	8.067616e+02
1.640000e-06	5.532256e-06	1.230239e-08	3.844286e+01	8.069658e+02
1.650000e-06	5.534490e-06	1.231045e-08	3.845839e+01	8.071833e+02
1.660000e-06	5.534722e-06	1.231813e-08	3.846000e+01	8.073145e+02
1.670000e-06	5.533163e-06	1.231174e-08	3.844917e+01	8.072582e+02
1.680000e-06	5.529939e-06	1.230039e-08	3.842676e+01	8.069549e+02
1.690000e-06	5.524801e-06	1.229259e-08	3.839106e+01	8.064121e+02
1.700000e-06	5.517656e-06	1.228558e-08	3.834141e+01	8.057021e+02
1.710000e-06	5.508846e-06	1.227722e-08	3.828019e+01	8.049314e+02
1.720000e-06	5.498357e-06	1.227025e-08	3.820730e+01	8.041965e+02
1.730000e-06	5.485867e-06	1.228470e-08	3.812051e+01	8.035431e+02
1.740000e-06	5.471352e-06	1.225961e-08	3.801965e+01	8.029477e+02
1.750000e-06	5.454831e-06	1.216914e-08	3.790485e+01	8.023269e+02
1.760000e-06	5.435716e-06	1.216430e-08	3.777202e+01	8.015735e+02
1.770000e-06	5.413794e-06	1.216675e-08	3.761969e+01	8.006005e+02
1.780000e-06	5.389882e-06	1.222501e-08	3.745353e+01	7.993783e+02
1.790000e-06	5.365024e-06	1.227324e-08	3.728079e+01	7.979459e+02
1.800000e-06	5.339331e-06	1.207103e-08	3.710226e+01	7.963940e+02
1.810000e-06	5.311670e-06	1.212155e-08	3.691005e+01	7.948259e+02
1.820000e-06	5.281650e-06	1.218318e-08	3.670144e+01	7.933125e+02
1.830000e-06	5.250066e-06	1.198774e-08	3.648197e+01	7.918623e+02
1.840000e-06	5.216729e-06	1.210760e-08	3.625031e+01	7.904159e+02
1.850000e-06	5.181626e-06	1.207071e-08	3.600639e+01	7.888699e+02
1.860000e-06	5.144828e-06	1.190229e-08	3.575068e+01	7.871189e+02
1.870000e-06	5.105857e-06	1.206925e-08	3.547988e+01	7.850982e+02
1.880000e-06	5.065134e-06	1.195361e-08	3.519690e+01	7.828093e+02
1.890000e-06	5.022801e-06	1.184829e-08	3.490274e+01	7.803183e+02
1.900000e-06	4.978543e-06	1.188229e-08	3.459519e+01	7.777274e+02
1.910000e-06	4.932543e-06	1.173025e-08	3.427555e+01	7.751334e+02
1.920000e-06	4.884692e-06	1.184489e-08	3.394303e+01	7.725876e+02
1.930000e-06	4.835086e-06	1.178866e-08	3.359833e+01	7.700776e+02
1.940000e-06	4.783735e-06	1.163933e-08	3.324150e+01	7.675341e+02
1.950000e-06	4.730184e-06	1.170345e-08	3.286938e+01	7.648624e+02
1.960000e-06	4.674832e-06	1.160409e-08	3.248475e+01	7.619824e+02
1.970000e-06	4.617852e-06	1.158112e-08	3.208880e+01	7.588617e+02
1.980000e-06	4.559214e-06	1.148153e-08	3.168133e+01	7.555273e+02
1.990000e-06	4.499020e-06	1.143326e-08	3.126305e+01	7.520510e+02
2.000000e-06	4.437046e-06	1.147413e-08	3.083240e+01	7.485172e+02
2.010000e-06	4.373461e-06	1.135174e-08	3.039056e+01	7.449847e+02
2.020000e-06	4.308376e-06	1.135217e-08	2.993830e+01	7.414615e+02
2.030000e-06	4.241848e-06	1.123164e-08	2.947600e+01	7.379013e+02
2.040000e-06	4.173818e-06	1.116745e-08	2.900327e+01	7.342235e+02
2.050000e-06	4.103997e-06	1.115602e-08	2.851809e+01	7.303472e+02
2.060000e-06	4.032662e-06	1.103261e-08	2.802240e+01	7.262251e+02
2.070000e-06	3.960032e-06	1.102554e-08	2.751771e+01	7.218611e+02
2.080000e-06	3.886009e-06	1.093277e-08	2.700333e+01	7.173066e+02
2.090000e-06	3.810374e-06	1.090228e-08	2.647775e+01	7.126353e+02
2.100000e-06	3.733001e-06	1.082711e-08	2.594010e+01	7.079097e+02
2.110000e-06	3.654171e-06	1.070184e-08	2.539232e+01	7.031530e+02
2.120000e-06	3.574133e-06	1.064269e-08	2.483615e+01	6.983382e+02
2.130000e-06	3.492971e-06	1.054732e-08	2.427216e+01	6.934001e+02
2.140000e-06	3.410665e-06	1.051898e-08	2.370023e+01	6.882629e+02
2.150000e-06	3.327226e-06	1.042137e-08	2.312043e+01	6.828714e+02
2.160000e-06	3.242417e-06	1.033248e-08	2.253110e+01	6.772131e+02
2.170000e-06	3.156192e-06	1.024925e-08	2.193193e+01	6.713202e+02
2.180000e-06	3.068945e-06	1.014458e-08	2.132567e+01	6.652520e+02
2.190000e-06	2.980740e-06	1.006103e-08	2.071274e+01	6.590665e+02
2.200000e-06	2.891551e-06	9.948277e-09	2.009298e+01	6.527927e+02
2.210000e-06	2.801412e-06	9.866681e-09	1.946662e+01	6.464171e+02
2.220000e-06	2.710355e-06	9.775565e-09	1.883388e+01	6.398897e+02
2.230000e-06	2.618372e-06	9.675085e-09	1.819469e+01	6.331457e+02
2.240000e-06	2.525350e-06	9.552695e-09	1.754830e+01	6.261331e+02
2.250000e-06	2.431243e-06	9.430807e-09	1.689436e+01	6.188332e+02
2.260000e-06	2.336236e-06	9.327677e-09	1.623417e+01	6.112638e+02
2.270000e-06	2.240534e-06	9.224224e-09	1.556915e+01	6.034653e+02
2.280000e-06	2.144100e-06	9.109954e-09	1.489905e+01	5.954749e+02
2.290000e-06	2.046907e-06	8.975853e-09	1.422367e+01	5.873027e+02
2.300000e-06	1.948984e-06	8.842532e-09	1.354322e+01	5.789205e+02
2.310000e-06	1.850480e-06	8.704902e-09	1.285872e+01	5.702700e+02
2.320000e-06	1.751484e-06	8.566550e-09	1.217082e+01	5.612855e+02
2.330000e-06	1.651987e-06	8.417974e-09	1.147942e+01	5.519217e+02
2.340000e-06	1.551919e-06	8.277325e-09	1.078407e+01	5.421718e+02
2.350000e-06	1.451174e-06	8.138625e-09	1.008400e+01	5.320667e+02
2.360000e-06	1.349748e-06	7.987446e-09	9.379209e+00	5.216540e+02
2.370000e-06	1.247755e-06	7.817586e-09	8.670474e+00	5.109658e+02
2.380000e-06	1.145291e-06	7.635481e-09	7.958468e+00	4.999911e+02
2.390000e-06	1.042366e-06	7.464338e-09	7.243252e+00	4.886657e+02
2.400000e-06	9.390383e-07	7.290005e-09	6.525245e+00	4.768874e+02
2.410000e-06	8.353214e-07	7.105345e-09	5.804530e+00	4.645515e+02
2.420000e-06	7.312873e-07	6.908463e-09	5.081612e+00	4.515911e+02
2.430000e-06	6.270883e-07	6.704382e-09	4.357548e+00	4.380023e+02
2.440000e-06	5.227272e-07	6.494602e-09	3.632358e+00	4.238412e+02
2.450000e-06	4.181910e-07	6.271459e-09	2.905950e+00	4.091894e+02
2.460000e-06	3.135158e-07	6.034011e-09	2.178577e+00	3.941010e+02
2.470000e-06	2.087462e-07	5.790410e-09	1.450548e+00	3.785531e+02
2.480000e-06	1.039610e-07	5.546196e-09	7.224103e-01	3.624246e+02
2.490000e-06	-8.094402e-10	5.291659e-09	-5.624685e-03	3.455154e+02
2.500000e-06	-1.055700e-07	5.013583e-09	-7.335913e-01	3.276042e+02
2.510000e-06	-2.103156e-07	4.714524e-09	-1.461454e+00	3.085183e+02
2.520000e-06	-3.150326e-07	4.409261e-09	-2.189117e+00	2.881858e+02
2.530000e-06	-4.196391e-07	4.095793e-09	-2.916013e+00	2.666360e+02
2.540000e-06	-5.241101e-07	3.756882e-09	-3.641967e+00	2.439373e+02
2.550000e-06	-6.284426e-07	3.385489e-09	-4.366959e+00	2.200839e+02
2.560000e-06	-7.325079e-07	2.992500e-09	-5.090094e+00	1.948711e+02
2.570000e-06	-8.362523e-07	2.579322e-09	-5.810999e+00	1.678123e+02
2.580000e-06	-9.396721e-07	2.129896e-09	-6.529649e+00	1.381451e+02
2.590000e-06	-1.042745e-06	1.625335e-09	-7.245889e+00	1.049496e+02
2.600000e-06	-1.145452e-06	1.058238e-09	-7.959583e+00	6.736638e+01
2.610000e-06	-1.247748e-06	4.260609e-10	-8.670422e+00	2.486194e+01
2.620000e-06	-1.349523e-06	-2.802285e-10	-9.377647e+00	-2.253408e+01
2.630000e-06	-1.450638e-06	-1.063603e-09	-1.008028e+01	-7.409518e+01
2.640000e-06	-1.551045e-06	-1.905691e-09	-1.077799e+01	-1.284195e+02
2.650000e-06	-1.650790e-06	-2.763198e-09	-1.147111e+01	-1.836147e+02
2.660000e-06	-1.749941e-06	-3.593525e-09	-1.216009e+01	-2.376053e+02
2.670000e-06	-1.848583e-06	-4.369354e-09	-1.284554e+01	-2.884863e+02
2.680000e-06	-1.946710e-06	-5.076457e-09	-1.352741e+01	-3.348306e+02
2.690000e-06	-2.044186e-06	-5.706030e-09	-1.420476e+01	-3.758759e+02
2.700000e-06	-2.140962e-06	-6.252730e-09	-1.487724e+01	-4.115488e+02
2.710000e-06	-2.237034e-06	-6.726507e-09	-1.554484e+01	-4.423388e+02
2.720000e-06	-2.332410e-06	-7.146927e-09	-1.620759e+01	-4.690692e+02
2.730000e-06	-2.427098e-06	-7.519833e-09	-1.686556e+01	-4.926433e+02
2.740000e-06	-2.520901e-06	-7.846908e-09	-1.751738e+01	-5.138361e+02
2.750000e-06	-2.613557e-06	-8.139906e-09	-1.816124e+01	-5.331807e+02
2.760000e-06	-2.705113e-06	-8.408726e-09	-1.879745e+01	-5.509617e+02
2.770000e-06	-2.795763e-06	-8.657791e-09	-1.942736e+01	-5.672897e+02
2.780000e-06	-2.885414e-06	-8.885170e-09	-2.005034e+01	-5.822106e+02
2.790000e-06	-2.973982e-06	-9.092443e-09	-2.066578e+01	-5.958010e+02
2.800000e-06	-3.061552e-06	-9.285592e-09	-2.127429e+01	-6.082137e+02
2.810000e-06	-3.148157e-06	-9.465746e-09	-2.187610e+01	-6.196656e+02
2.820000e-06	-3.233660e-06	-9.632154e-09	-2.247025e+01	-6.303854e+02
2.830000e-06	-3.317852e-06	-9.786622e-09	-2.305529e+01	-6.405505e+02
2.840000e-06	-3.400782e-06	-9.933972e-09	-2.363155e+01	-6.502456e+02
2.850000e-06	-3.482559e-06	-1.007404e-08	-2.419981e+01	-6.594615e+02
2.860000e-06	-3.563178e-06	-1.020443e-08	-2.476002e+01	-6.681323e+02
2.870000e-06	-3.642609e-06	-1.032330e-08	-2.531197e+01	-6.761927e+02
2.880000e-06	-3.720706e-06	-1.043374e-08	-2.585466e+01	-6.836295e+02
2.890000e-06	-3.797264e-06	-1.054041e-08	-2.638665e+01	-6.905049e+02
2.900000e-06	-3.872283e-06	-1.064360e-08	-2.690795e+01	-6.969435e+02
2.910000e-06	-3.945872e-06	-1.074033e-08	-2.741931e+01	-7.030908e+02
2.920000e-06	-4.018103e-06	-1.083164e-08	-2.792123e+01	-7.090625e+02
2.930000e-06	-4.088984e-06	-1.092181e-08	-2.841377e+01	-7.149081e+02
2.940000e-06	-4.158400e-06	-1.101032e-08	-2.889614e+01	-7.206036e+02
