# Temperatura_=_23.31
# Concentracion g/m^3_=_13400.0
# C_Vs_to_Am_M_A/Vsm_=_65563218390.804596
# pendiente_HvsI_1/m_=_3716.3
# ordenada_HvsI_A/m_=_1297.0
# frecuencia_Hz_=_300811.64066836855

Tiempo_(s)	Campo_(V.s)	Magnetizacion_(V.s)	Campo_(kA/m)	Magnetizacion_(A/m)
0.000000e+00	-5.519668e-06	-1.212889e-08	-3.831054e+01	-7.937704e+02
1.000000e-08	-5.518155e-06	-1.212780e-08	-3.830003e+01	-7.937428e+02
2.000000e-08	-5.514678e-06	-1.212974e-08	-3.827590e+01	-7.935574e+02
3.000000e-08	-5.509426e-06	-1.212744e-08	-3.823945e+01	-7.931918e+02
4.000000e-08	-5.502530e-06	-1.211650e-08	-3.819158e+01	-7.926632e+02
5.000000e-08	-5.493999e-06	-1.209982e-08	-3.813237e+01	-7.920208e+02
6.000000e-08	-5.483563e-06	-1.208819e-08	-3.805994e+01	-7.913249e+02
7.000000e-08	-5.470959e-06	-1.208686e-08	-3.797246e+01	-7.906215e+02
8.000000e-08	-5.456382e-06	-1.207292e-08	-3.787128e+01	-7.899236e+02
9.000000e-08	-5.439554e-06	-1.205615e-08	-3.775449e+01	-7.892076e+02
1.000000e-07	-5.420296e-06	-1.207393e-08	-3.762082e+01	-7.884259e+02
1.100000e-07	-5.398979e-06	-1.206642e-08	-3.747286e+01	-7.875295e+02
1.200000e-07	-5.375874e-06	-1.203052e-08	-3.731250e+01	-7.864922e+02
1.300000e-07	-5.351283e-06	-1.201143e-08	-3.714182e+01	-7.853236e+02
1.400000e-07	-5.325182e-06	-1.193626e-08	-3.696066e+01	-7.840654e+02
1.500000e-07	-5.297259e-06	-1.193807e-08	-3.676685e+01	-7.827733e+02
1.600000e-07	-5.267601e-06	-1.198388e-08	-3.656100e+01	-7.814897e+02
1.700000e-07	-5.236349e-06	-1.188728e-08	-3.634409e+01	-7.802215e+02
1.800000e-07	-5.203155e-06	-1.188258e-08	-3.611370e+01	-7.789317e+02
1.900000e-07	-5.167910e-06	-1.190035e-08	-3.586908e+01	-7.775487e+02
2.000000e-07	-5.131054e-06	-1.181897e-08	-3.561327e+01	-7.759921e+02
2.100000e-07	-5.092571e-06	-1.182162e-08	-3.534616e+01	-7.742023e+02
2.200000e-07	-5.052274e-06	-1.177841e-08	-3.506648e+01	-7.721639e+02
2.300000e-07	-5.010078e-06	-1.171003e-08	-3.477361e+01	-7.699119e+02
2.400000e-07	-4.965859e-06	-1.172373e-08	-3.446669e+01	-7.675183e+02
2.500000e-07	-4.919827e-06	-1.168632e-08	-3.414720e+01	-7.650645e+02
2.600000e-07	-4.872056e-06	-1.163636e-08	-3.381563e+01	-7.626097e+02
2.700000e-07	-4.822240e-06	-1.158287e-08	-3.346987e+01	-7.601694e+02
2.800000e-07	-4.770299e-06	-1.154117e-08	-3.310937e+01	-7.577110e+02
2.900000e-07	-4.716415e-06	-1.152721e-08	-3.273537e+01	-7.551687e+02
3.000000e-07	-4.660856e-06	-1.147151e-08	-3.234975e+01	-7.524713e+02
3.100000e-07	-4.603681e-06	-1.142573e-08	-3.195292e+01	-7.495706e+02
3.200000e-07	-4.544679e-06	-1.137679e-08	-3.154339e+01	-7.464591e+02
3.300000e-07	-4.483998e-06	-1.133207e-08	-3.112223e+01	-7.431704e+02
3.400000e-07	-4.421864e-06	-1.129047e-08	-3.069097e+01	-7.397620e+02
3.500000e-07	-4.358245e-06	-1.121221e-08	-3.024941e+01	-7.362894e+02
3.600000e-07	-4.293050e-06	-1.116004e-08	-2.979691e+01	-7.327817e+02
3.700000e-07	-4.226149e-06	-1.111544e-08	-2.933256e+01	-7.292302e+02
3.800000e-07	-4.157608e-06	-1.106659e-08	-2.885684e+01	-7.255931e+02
3.900000e-07	-4.087654e-06	-1.100844e-08	-2.837131e+01	-7.218151e+02
4.000000e-07	-4.016384e-06	-1.093025e-08	-2.787665e+01	-7.178517e+02
4.100000e-07	-3.943801e-06	-1.087080e-08	-2.737286e+01	-7.136880e+02
4.200000e-07	-3.869697e-06	-1.080491e-08	-2.685853e+01	-7.093431e+02
4.300000e-07	-3.793914e-06	-1.073810e-08	-2.633254e+01	-7.048596e+02
4.400000e-07	-3.716568e-06	-1.066342e-08	-2.579570e+01	-7.002809e+02
4.500000e-07	-3.637712e-06	-1.059518e-08	-2.524838e+01	-6.956293e+02
4.600000e-07	-3.557300e-06	-1.053774e-08	-2.469027e+01	-6.908927e+02
4.700000e-07	-3.475525e-06	-1.046104e-08	-2.412269e+01	-6.860271e+02
4.800000e-07	-3.392573e-06	-1.037359e-08	-2.354694e+01	-6.809737e+02
4.900000e-07	-3.308569e-06	-1.027782e-08	-2.296389e+01	-6.756835e+02
5.000000e-07	-3.223557e-06	-1.019399e-08	-2.237385e+01	-6.701378e+02
5.100000e-07	-3.137500e-06	-1.011759e-08	-2.177654e+01	-6.643564e+02
5.200000e-07	-3.050441e-06	-1.003246e-08	-2.117229e+01	-6.583888e+02
5.300000e-07	-2.962443e-06	-9.937322e-09	-2.056152e+01	-6.522922e+02
5.400000e-07	-2.873493e-06	-9.839912e-09	-1.994414e+01	-6.461060e+02
5.500000e-07	-2.783321e-06	-9.745451e-09	-1.931829e+01	-6.398334e+02
5.600000e-07	-2.692003e-06	-9.643577e-09	-1.868447e+01	-6.334385e+02
5.700000e-07	-2.599749e-06	-9.534586e-09	-1.804416e+01	-6.268593e+02
5.800000e-07	-2.506534e-06	-9.424275e-09	-1.739718e+01	-6.200324e+02
5.900000e-07	-2.412488e-06	-9.317842e-09	-1.674443e+01	-6.129164e+02
6.000000e-07	-2.317690e-06	-9.212680e-09	-1.608647e+01	-6.055054e+02
6.100000e-07	-2.222097e-06	-9.098037e-09	-1.542298e+01	-5.978262e+02
6.200000e-07	-2.125833e-06	-8.974445e-09	-1.475484e+01	-5.899200e+02
6.300000e-07	-2.028872e-06	-8.850009e-09	-1.408185e+01	-5.818181e+02
6.400000e-07	-1.930958e-06	-8.724052e-09	-1.340226e+01	-5.735214e+02
6.500000e-07	-1.832085e-06	-8.590181e-09	-1.271601e+01	-5.649950e+02
6.600000e-07	-1.732485e-06	-8.449567e-09	-1.202471e+01	-5.561783e+02
6.700000e-07	-1.632394e-06	-8.307452e-09	-1.133001e+01	-5.470086e+02
6.800000e-07	-1.531817e-06	-8.163229e-09	-1.063193e+01	-5.374446e+02
6.900000e-07	-1.430656e-06	-8.015120e-09	-9.929802e+00	-5.274811e+02
7.000000e-07	-1.328935e-06	-7.860345e-09	-9.223779e+00	-5.171459e+02
7.100000e-07	-1.226787e-06	-7.698154e-09	-8.514798e+00	-5.064796e+02
7.200000e-07	-1.124241e-06	-7.530010e-09	-7.803054e+00	-4.955082e+02
7.300000e-07	-1.021228e-06	-7.354194e-09	-7.088071e+00	-4.842196e+02
7.400000e-07	-9.178073e-07	-7.171491e-09	-6.370254e+00	-4.725577e+02
7.500000e-07	-8.140840e-07	-6.982539e-09	-5.650338e+00	-4.604354e+02
7.600000e-07	-7.101201e-07	-6.788109e-09	-4.928753e+00	-4.477649e+02
7.700000e-07	-6.059821e-07	-6.586252e-09	-4.205959e+00	-4.344890e+02
7.800000e-07	-5.017481e-07	-6.376026e-09	-3.482499e+00	-4.206004e+02
7.900000e-07	-3.974383e-07	-6.158802e-09	-2.758513e+00	-4.061382e+02
8.000000e-07	-2.930280e-07	-5.935498e-09	-2.033829e+00	-3.911592e+02
8.100000e-07	-1.885232e-07	-5.703719e-09	-1.308489e+00	-3.756977e+02
8.200000e-07	-8.401099e-08	-5.458091e-09	-5.830977e-01	-3.597284e+02
8.300000e-07	2.052120e-08	-5.198799e-09	1.424321e-01	-3.431531e+02
8.400000e-07	1.250993e-07	-4.928511e-09	8.682809e-01	-3.258174e+02
8.500000e-07	2.296409e-07	-4.649379e-09	1.593876e+00	-3.075537e+02
8.600000e-07	3.340942e-07	-4.358346e-09	2.318858e+00	-2.882311e+02
8.700000e-07	4.384706e-07	-4.050756e-09	3.043307e+00	-2.677874e+02
8.800000e-07	5.427529e-07	-3.725209e-09	3.767102e+00	-2.462202e+02
8.900000e-07	6.468851e-07	-3.381809e-09	4.489856e+00	-2.235330e+02
9.000000e-07	7.508825e-07	-3.019024e-09	5.211673e+00	-1.996469e+02
9.100000e-07	8.547148e-07	-2.629017e-09	5.932346e+00	-1.743127e+02
9.200000e-07	9.582727e-07	-2.203712e-09	6.651113e+00	-1.470618e+02
9.300000e-07	1.061449e-06	-1.740261e-09	7.367231e+00	-1.172316e+02
9.400000e-07	1.164167e-06	-1.232714e-09	8.080173e+00	-8.407751e+01
9.500000e-07	1.266456e-06	-6.693722e-10	8.790128e+00	-4.695606e+01
9.600000e-07	1.368294e-06	-4.059597e-11	9.496959e+00	-5.534687e+00
9.700000e-07	1.469650e-06	6.540060e-10	1.020044e+01	4.003100e+01
9.800000e-07	1.570565e-06	1.405537e-09	1.090087e+01	8.901034e+01
9.900000e-07	1.671005e-06	2.194122e-09	1.159800e+01	1.401365e+02
1.000000e-06	1.770924e-06	2.987862e-09	1.229151e+01	1.917718e+02
1.010000e-06	1.870276e-06	3.753277e-09	1.298108e+01	2.421644e+02
1.020000e-06	1.968795e-06	4.467190e-09	1.366488e+01	2.897314e+02
1.030000e-06	2.066304e-06	5.118322e-09	1.434166e+01	3.333005e+02
1.040000e-06	2.162922e-06	5.703214e-09	1.501226e+01	3.722492e+02
1.050000e-06	2.258831e-06	6.222299e-09	1.567794e+01	4.065163e+02
1.060000e-06	2.354069e-06	6.680298e-09	1.633896e+01	4.364951e+02
1.070000e-06	2.448544e-06	7.083873e-09	1.699469e+01	4.628492e+02
1.080000e-06	2.542210e-06	7.440291e-09	1.764480e+01	4.863102e+02
1.090000e-06	2.635073e-06	7.760267e-09	1.828934e+01	5.075133e+02
1.100000e-06	2.727137e-06	8.051742e-09	1.892832e+01	5.269070e+02
1.110000e-06	2.818213e-06	8.316560e-09	1.956046e+01	5.447455e+02
1.120000e-06	2.907968e-06	8.559357e-09	2.018343e+01	5.611451e+02
1.130000e-06	2.996532e-06	8.786656e-09	2.079812e+01	5.761674e+02
1.140000e-06	3.084189e-06	9.000360e-09	2.140653e+01	5.898937e+02
1.150000e-06	3.170825e-06	9.197445e-09	2.200785e+01	6.024620e+02
1.160000e-06	3.256394e-06	9.373164e-09	2.260175e+01	6.140607e+02
1.170000e-06	3.340982e-06	9.531517e-09	2.318886e+01	6.248901e+02
1.180000e-06	3.424464e-06	9.682805e-09	2.376828e+01	6.351147e+02
1.190000e-06	3.506565e-06	9.832678e-09	2.433813e+01	6.448293e+02
1.200000e-06	3.587365e-06	9.976868e-09	2.489893e+01	6.540542e+02
1.210000e-06	3.666963e-06	1.010928e-08	2.545141e+01	6.627584e+02
1.220000e-06	3.745235e-06	1.023387e-08	2.599467e+01	6.709004e+02
1.230000e-06	3.822169e-06	1.035226e-08	2.652865e+01	6.784676e+02
1.240000e-06	3.897674e-06	1.045995e-08	2.705271e+01	6.854968e+02
1.250000e-06	3.971518e-06	1.055706e-08	2.756524e+01	6.920715e+02
1.260000e-06	4.043817e-06	1.064866e-08	2.806705e+01	6.982971e+02
1.270000e-06	4.114767e-06	1.073893e-08	2.855949e+01	7.042677e+02
1.280000e-06	4.184310e-06	1.082643e-08	2.904217e+01	7.100398e+02
1.290000e-06	4.252458e-06	1.090916e-08	2.951517e+01	7.156231e+02
1.300000e-06	4.318993e-06	1.098940e-08	2.997697e+01	7.209911e+02
1.310000e-06	4.383844e-06	1.106924e-08	3.042708e+01	7.261058e+02
1.320000e-06	4.447214e-06	1.114549e-08	3.086692e+01	7.309435e+02
1.330000e-06	4.509134e-06	1.121497e-08	3.129669e+01	7.355105e+02
1.340000e-06	4.569668e-06	1.127829e-08	3.171684e+01	7.398426e+02
1.350000e-06	4.628594e-06	1.133994e-08	3.212583e+01	7.439893e+02
1.360000e-06	4.685653e-06	1.140026e-08	3.252186e+01	7.479913e+02
1.370000e-06	4.741015e-06	1.145721e-08	3.290611e+01	7.518624e+02
1.380000e-06	4.794655e-06	1.151266e-08	3.327841e+01	7.555843e+02
1.390000e-06	4.846316e-06	1.156679e-08	3.363698e+01	7.591164e+02
1.400000e-06	4.895958e-06	1.161897e-08	3.398153e+01	7.624170e+02
1.410000e-06	4.943803e-06	1.166726e-08	3.431361e+01	7.654638e+02
1.420000e-06	4.990023e-06	1.171103e-08	3.463441e+01	7.682675e+02
1.430000e-06	5.034590e-06	1.175056e-08	3.494373e+01	7.708686e+02
1.440000e-06	5.077273e-06	1.178603e-08	3.523999e+01	7.733218e+02
1.450000e-06	5.118008e-06	1.181893e-08	3.552272e+01	7.756738e+02
1.460000e-06	5.157005e-06	1.185125e-08	3.579339e+01	7.779439e+02
1.470000e-06	5.194325e-06	1.188562e-08	3.605242e+01	7.801178e+02
1.480000e-06	5.229871e-06	1.192032e-08	3.629913e+01	7.821562e+02
1.490000e-06	5.263442e-06	1.195266e-08	3.653214e+01	7.840145e+02
1.500000e-06	5.295096e-06	1.197994e-08	3.675184e+01	7.856657e+02
1.510000e-06	5.325002e-06	1.200069e-08	3.695941e+01	7.871144e+02
1.520000e-06	5.353162e-06	1.201837e-08	3.715486e+01	7.883978e+02
1.530000e-06	5.379334e-06	1.203595e-08	3.733651e+01	7.895711e+02
1.540000e-06	5.403459e-06	1.205349e-08	3.750395e+01	7.906845e+02
1.550000e-06	5.425730e-06	1.206894e-08	3.765854e+01	7.917623e+02
1.560000e-06	5.446249e-06	1.208326e-08	3.780095e+01	7.927927e+02
1.570000e-06	5.464923e-06	1.209912e-08	3.793056e+01	7.937336e+02
1.580000e-06	5.481540e-06	1.211469e-08	3.804590e+01	7.945316e+02
1.590000e-06	5.496162e-06	1.212708e-08	3.814739e+01	7.951470e+02
1.600000e-06	5.508731e-06	1.213436e-08	3.823463e+01	7.955725e+02
1.610000e-06	5.519037e-06	1.213661e-08	3.830615e+01	7.958389e+02
1.620000e-06	5.527234e-06	1.213770e-08	3.836304e+01	7.960036e+02
1.630000e-06	5.533590e-06	1.213948e-08	3.840716e+01	7.961280e+02
1.640000e-06	5.538129e-06	1.214188e-08	3.843867e+01	7.962520e+02
1.650000e-06	5.540668e-06	1.214610e-08	3.845629e+01	7.963783e+02
1.660000e-06	5.541203e-06	1.215358e-08	3.846000e+01	7.964709e+02
1.670000e-06	5.539967e-06	1.215788e-08	3.845142e+01	7.964712e+02
1.680000e-06	5.536996e-06	1.215228e-08	3.843080e+01	7.963230e+02
1.690000e-06	5.532149e-06	1.214360e-08	3.839716e+01	7.959961e+02
1.700000e-06	5.525426e-06	1.213516e-08	3.835050e+01	7.954994e+02
1.710000e-06	5.516961e-06	1.212628e-08	3.829175e+01	7.948765e+02
1.720000e-06	5.506806e-06	1.211386e-08	3.822126e+01	7.941876e+02
1.730000e-06	5.494763e-06	1.209675e-08	3.813767e+01	7.934836e+02
1.740000e-06	5.480705e-06	1.210546e-08	3.804010e+01	7.927856e+02
1.750000e-06	5.464575e-06	1.208335e-08	3.792815e+01	7.920772e+02
1.760000e-06	5.445959e-06	1.204346e-08	3.779894e+01	7.913142e+02
1.770000e-06	5.424600e-06	1.204662e-08	3.765069e+01	7.904459e+02
1.780000e-06	5.401074e-06	1.202206e-08	3.748740e+01	7.894396e+02
1.790000e-06	5.376346e-06	1.205921e-08	3.731578e+01	7.882967e+02
1.800000e-06	5.350757e-06	1.204708e-08	3.713817e+01	7.870533e+02
1.810000e-06	5.323445e-06	1.191754e-08	3.694860e+01	7.857643e+02
1.820000e-06	5.293814e-06	1.197296e-08	3.674294e+01	7.844770e+02
1.830000e-06	5.262496e-06	1.196542e-08	3.652557e+01	7.832074e+02
1.840000e-06	5.229517e-06	1.185827e-08	3.629667e+01	7.819276e+02
1.850000e-06	5.194679e-06	1.191482e-08	3.605487e+01	7.805717e+02
1.860000e-06	5.158117e-06	1.185164e-08	3.580110e+01	7.790587e+02
1.870000e-06	5.119497e-06	1.179817e-08	3.553305e+01	7.773221e+02
1.880000e-06	5.079037e-06	1.185754e-08	3.525223e+01	7.753359e+02
1.890000e-06	5.037020e-06	1.175050e-08	3.496060e+01	7.731247e+02
1.900000e-06	4.993059e-06	1.171258e-08	3.465548e+01	7.707547e+02
1.910000e-06	4.947295e-06	1.169847e-08	3.433785e+01	7.683078e+02
1.920000e-06	4.899791e-06	1.164144e-08	3.400813e+01	7.658505e+02
1.930000e-06	4.850441e-06	1.167483e-08	3.366561e+01	7.634085e+02
1.940000e-06	4.799315e-06	1.157611e-08	3.331075e+01	7.609590e+02
1.950000e-06	4.746109e-06	1.153662e-08	3.294147e+01	7.584411e+02
1.960000e-06	4.691004e-06	1.153168e-08	3.255900e+01	7.557824e+02
1.970000e-06	4.634250e-06	1.145930e-08	3.216509e+01	7.529276e+02
1.980000e-06	4.575884e-06	1.143358e-08	3.175998e+01	7.498600e+02
1.990000e-06	4.515936e-06	1.134326e-08	3.134390e+01	7.466051e+02
2.000000e-06	4.454236e-06	1.132878e-08	3.091566e+01	7.432174e+02
2.010000e-06	4.390921e-06	1.129077e-08	3.047620e+01	7.397551e+02
2.020000e-06	4.326074e-06	1.121072e-08	3.002612e+01	7.362546e+02
2.030000e-06	4.259762e-06	1.118006e-08	2.956586e+01	7.327153e+02
2.040000e-06	4.191989e-06	1.108707e-08	2.909547e+01	7.291013e+02
2.050000e-06	4.122464e-06	1.105954e-08	2.861292e+01	7.253582e+02
2.060000e-06	4.051331e-06	1.099430e-08	2.811920e+01	7.214372e+02
2.070000e-06	3.978822e-06	1.092117e-08	2.761594e+01	7.173161e+02
2.080000e-06	3.904913e-06	1.087550e-08	2.710295e+01	7.130072e+02
2.090000e-06	3.829423e-06	1.079519e-08	2.657900e+01	7.085496e+02
2.100000e-06	3.752156e-06	1.075095e-08	2.604271e+01	7.039886e+02
2.110000e-06	3.673422e-06	1.065289e-08	2.549624e+01	6.993527e+02
2.120000e-06	3.593522e-06	1.057735e-08	2.494167e+01	6.946373e+02
2.130000e-06	3.512481e-06	1.050457e-08	2.437919e+01	6.898044e+02
2.140000e-06	3.430300e-06	1.043369e-08	2.380879e+01	6.847963e+02
2.150000e-06	3.346957e-06	1.037509e-08	2.323033e+01	6.795598e+02
2.160000e-06	3.262276e-06	1.027412e-08	2.264258e+01	6.740687e+02
2.170000e-06	3.176249e-06	1.019140e-08	2.204549e+01	6.683347e+02
2.180000e-06	3.089151e-06	1.009347e-08	2.144097e+01	6.624023e+02
2.190000e-06	3.001042e-06	1.000545e-08	2.082943e+01	6.563293e+02
2.200000e-06	2.911951e-06	9.911124e-09	2.021107e+01	6.501608e+02
2.210000e-06	2.821928e-06	9.815037e-09	1.958625e+01	6.439087e+02
2.220000e-06	2.731054e-06	9.730578e-09	1.895551e+01	6.375448e+02
2.230000e-06	2.639215e-06	9.628220e-09	1.831809e+01	6.310111e+02
2.240000e-06	2.546180e-06	9.524365e-09	1.767235e+01	6.242421e+02
2.250000e-06	2.452083e-06	9.407528e-09	1.701925e+01	6.171900e+02
2.260000e-06	2.357156e-06	9.301230e-09	1.636039e+01	6.098411e+02
2.270000e-06	2.261425e-06	9.193584e-09	1.569594e+01	6.022162e+02
2.280000e-06	2.164949e-06	9.075876e-09	1.502633e+01	5.943556e+02
2.290000e-06	2.067751e-06	8.952348e-09	1.435170e+01	5.862945e+02
2.300000e-06	1.969787e-06	8.821932e-09	1.367176e+01	5.780415e+02
2.310000e-06	1.871287e-06	8.692677e-09	1.298810e+01	5.695690e+02
2.320000e-06	1.772409e-06	8.558666e-09	1.230182e+01	5.608204e+02
2.330000e-06	1.673057e-06	8.422171e-09	1.161224e+01	5.517311e+02
2.340000e-06	1.573027e-06	8.279469e-09	1.091796e+01	5.422535e+02
2.350000e-06	1.472174e-06	8.132559e-09	1.021797e+01	5.323745e+02
2.360000e-06	1.370616e-06	7.976833e-09	9.513080e+00	5.221158e+02
2.370000e-06	1.268490e-06	7.812456e-09	8.804245e+00	5.115175e+02
2.380000e-06	1.165918e-06	7.643512e-09	8.092321e+00	5.006112e+02
2.390000e-06	1.063021e-06	7.473119e-09	7.378145e+00	4.893941e+02
2.400000e-06	9.597299e-07	7.300906e-09	6.661228e+00	4.778190e+02
2.410000e-06	8.559965e-07	7.120646e-09	5.941242e+00	4.658035e+02
2.420000e-06	7.519115e-07	6.930742e-09	5.218816e+00	4.532570e+02
2.430000e-06	6.475738e-07	6.729058e-09	4.494636e+00	4.401134e+02
2.440000e-06	5.430802e-07	6.518278e-09	3.769374e+00	4.263544e+02
2.450000e-06	4.384307e-07	6.299868e-09	3.043030e+00	4.120105e+02
2.460000e-06	3.336663e-07	6.072242e-09	2.315888e+00	3.971382e+02
2.470000e-06	2.288586e-07	5.836514e-09	1.588446e+00	3.817800e+02
2.480000e-06	1.239735e-07	5.596895e-09	8.604670e-01	3.659256e+02
2.490000e-06	1.908340e-08	5.348239e-09	1.324527e-01	3.494920e+02
2.500000e-06	-8.580794e-08	5.083042e-09	-5.955699e-01	3.323339e+02
2.510000e-06	-1.907119e-07	4.802370e-09	-1.323680e+00	3.142822e+02
2.520000e-06	-2.955219e-07	4.510147e-09	-2.051138e+00	2.951945e+02
2.530000e-06	-4.002027e-07	4.207070e-09	-2.777699e+00	2.749929e+02
2.540000e-06	-5.047531e-07	3.885951e-09	-3.503356e+00	2.536654e+02
2.550000e-06	-6.091670e-07	3.544837e-09	-4.228065e+00	2.312208e+02
2.560000e-06	-7.134270e-07	3.185143e-09	-4.951705e+00	2.076059e+02
2.570000e-06	-8.174373e-07	2.802562e-09	-5.673613e+00	1.826140e+02
2.580000e-06	-9.211204e-07	2.389981e-09	-6.393249e+00	1.558243e+02
2.590000e-06	-1.024423e-06	1.941468e-09	-7.110247e+00	1.266093e+02
2.600000e-06	-1.127313e-06	1.450495e-09	-7.824376e+00	9.422857e+01
2.610000e-06	-1.229834e-06	9.047615e-10	-8.535950e+00	5.799919e+01
2.620000e-06	-1.331888e-06	2.973538e-10	-9.244279e+00	1.750507e+01
2.630000e-06	-1.433339e-06	-3.738206e-10	-9.948421e+00	-2.721393e+01
2.640000e-06	-1.534063e-06	-1.105431e-09	-1.064752e+01	-7.555165e+01
2.650000e-06	-1.634027e-06	-1.883559e-09	-1.134134e+01	-1.263462e+02
2.660000e-06	-1.733313e-06	-2.682759e-09	-1.203046e+01	-1.780202e+02
2.670000e-06	-1.832086e-06	-3.467488e-09	-1.271602e+01	-2.288220e+02
2.680000e-06	-1.930409e-06	-4.207351e-09	-1.339845e+01	-2.771099e+02
2.690000e-06	-2.028098e-06	-4.886830e-09	-1.407648e+01	-3.216077e+02
2.700000e-06	-2.125040e-06	-5.497176e-09	-1.474933e+01	-3.615696e+02
2.710000e-06	-2.221283e-06	-6.035464e-09	-1.541733e+01	-3.968196e+02
2.720000e-06	-2.316825e-06	-6.509483e-09	-1.608046e+01	-4.276673e+02
2.730000e-06	-2.411724e-06	-6.930233e-09	-1.673913e+01	-4.547357e+02
2.740000e-06	-2.505939e-06	-7.307362e-09	-1.739305e+01	-4.787578e+02
2.750000e-06	-2.599077e-06	-7.644884e-09	-1.803950e+01	-5.003997e+02
2.760000e-06	-2.690968e-06	-7.947952e-09	-1.867729e+01	-5.201534e+02
2.770000e-06	-2.781859e-06	-8.223110e-09	-1.930814e+01	-5.383117e+02
2.780000e-06	-2.871888e-06	-8.475547e-09	-1.993300e+01	-5.550136e+02
2.790000e-06	-2.960881e-06	-8.711150e-09	-2.055068e+01	-5.703255e+02
2.800000e-06	-3.048755e-06	-8.929211e-09	-2.116059e+01	-5.843198e+02
2.810000e-06	-3.135665e-06	-9.127134e-09	-2.176381e+01	-5.971215e+02
2.820000e-06	-3.221503e-06	-9.308737e-09	-2.235958e+01	-6.089105e+02
2.830000e-06	-3.305925e-06	-9.479271e-09	-2.294554e+01	-6.198888e+02
2.840000e-06	-3.389113e-06	-9.640132e-09	-2.352292e+01	-6.302321e+02
2.850000e-06	-3.471244e-06	-9.788782e-09	-2.409297e+01	-6.400518e+02
2.860000e-06	-3.552264e-06	-9.927893e-09	-2.465531e+01	-6.493828e+02
2.870000e-06	-3.632128e-06	-1.006216e-08	-2.520962e+01	-6.582021e+02
2.880000e-06	-3.710728e-06	-1.019047e-08	-2.575517e+01	-6.664670e+02
2.890000e-06	-3.787752e-06	-1.030698e-08	-2.628977e+01	-6.741558e+02
2.900000e-06	-3.863090e-06	-1.041167e-08	-2.681267e+01	-6.812943e+02
2.910000e-06	-3.937032e-06	-1.051168e-08	-2.732588e+01	-6.879576e+02
2.920000e-06	-4.009641e-06	-1.061132e-08	-2.782984e+01	-6.942490e+02
2.930000e-06	-4.080901e-06	-1.070809e-08	-2.832444e+01	-7.002677e+02
2.940000e-06	-4.150724e-06	-1.079870e-08	-2.880906e+01	-7.060798e+02
