# Temperatura_=_47.45
# Concentracion g/m^3_=_13400.0
# C_Vs_to_Am_M_A/Vsm_=_65563218390.804596
# pendiente_HvsI_1/m_=_3716.3
# ordenada_HvsI_A/m_=_1297.0
# frecuencia_Hz_=_300799.43039148336

Tiempo_(s)	Campo_(V.s)	Magnetizacion_(V.s)	Campo_(kA/m)	Magnetizacion_(A/m)
0.000000e+00	-5.510079e-06	-1.235957e-08	-3.830874e+01	-8.101657e+02
1.000000e-08	-5.508216e-06	-1.236365e-08	-3.829578e+01	-8.100310e+02
2.000000e-08	-5.504392e-06	-1.235805e-08	-3.826920e+01	-8.097134e+02
3.000000e-08	-5.498826e-06	-1.234787e-08	-3.823050e+01	-8.092193e+02
4.000000e-08	-5.491653e-06	-1.233548e-08	-3.818063e+01	-8.085918e+02
5.000000e-08	-5.482786e-06	-1.231978e-08	-3.811898e+01	-8.078917e+02
6.000000e-08	-5.471929e-06	-1.230488e-08	-3.804350e+01	-8.071715e+02
7.000000e-08	-5.459078e-06	-1.228143e-08	-3.795415e+01	-8.064534e+02
8.000000e-08	-5.444255e-06	-1.227047e-08	-3.785109e+01	-8.057217e+02
9.000000e-08	-5.427078e-06	-1.232472e-08	-3.773167e+01	-8.049322e+02
1.000000e-07	-5.407515e-06	-1.233681e-08	-3.759566e+01	-8.040344e+02
1.100000e-07	-5.385899e-06	-1.229329e-08	-3.744538e+01	-8.029952e+02
1.200000e-07	-5.362515e-06	-1.226441e-08	-3.728280e+01	-8.018155e+02
1.300000e-07	-5.337735e-06	-1.214676e-08	-3.711052e+01	-8.005290e+02
1.400000e-07	-5.311500e-06	-1.213571e-08	-3.692812e+01	-7.991865e+02
1.500000e-07	-5.283410e-06	-1.223283e-08	-3.673282e+01	-7.978301e+02
1.600000e-07	-5.253548e-06	-1.209836e-08	-3.652520e+01	-7.964710e+02
1.700000e-07	-5.222062e-06	-1.210915e-08	-3.630630e+01	-7.950787e+02
1.800000e-07	-5.188568e-06	-1.218635e-08	-3.607344e+01	-7.935890e+02
1.900000e-07	-5.153075e-06	-1.203759e-08	-3.582667e+01	-7.919268e+02
2.000000e-07	-5.116046e-06	-1.205157e-08	-3.556923e+01	-7.900341e+02
2.100000e-07	-5.077306e-06	-1.202156e-08	-3.529989e+01	-7.878927e+02
2.200000e-07	-5.036753e-06	-1.190147e-08	-3.501794e+01	-7.855311e+02
2.300000e-07	-4.994304e-06	-1.194916e-08	-3.472281e+01	-7.830129e+02
2.400000e-07	-4.949933e-06	-1.194074e-08	-3.441433e+01	-7.804116e+02
2.500000e-07	-4.903810e-06	-1.190280e-08	-3.409366e+01	-7.777831e+02
2.600000e-07	-4.855796e-06	-1.185088e-08	-3.375985e+01	-7.751457e+02
2.700000e-07	-4.805769e-06	-1.174489e-08	-3.341203e+01	-7.724769e+02
2.800000e-07	-4.753642e-06	-1.173797e-08	-3.304962e+01	-7.697269e+02
2.900000e-07	-4.699561e-06	-1.170178e-08	-3.267363e+01	-7.668422e+02
3.000000e-07	-4.643862e-06	-1.164411e-08	-3.228638e+01	-7.637897e+02
3.100000e-07	-4.586539e-06	-1.160712e-08	-3.188784e+01	-7.605694e+02
3.200000e-07	-4.527382e-06	-1.157582e-08	-3.147655e+01	-7.572116e+02
3.300000e-07	-4.466556e-06	-1.154750e-08	-3.105366e+01	-7.537600e+02
3.400000e-07	-4.404265e-06	-1.145022e-08	-3.062058e+01	-7.502497e+02
3.500000e-07	-4.340509e-06	-1.137354e-08	-3.017732e+01	-7.466882e+02
3.600000e-07	-4.275215e-06	-1.130810e-08	-2.972336e+01	-7.430512e+02
3.700000e-07	-4.208263e-06	-1.126861e-08	-2.925788e+01	-7.392922e+02
3.800000e-07	-4.139684e-06	-1.125142e-08	-2.878109e+01	-7.353627e+02
3.900000e-07	-4.069590e-06	-1.117596e-08	-2.829376e+01	-7.312342e+02
4.000000e-07	-3.998159e-06	-1.110992e-08	-2.779714e+01	-7.269100e+02
4.100000e-07	-3.925470e-06	-1.103817e-08	-2.729177e+01	-7.224231e+02
4.200000e-07	-3.851292e-06	-1.095794e-08	-2.677604e+01	-7.178197e+02
4.300000e-07	-3.775374e-06	-1.086758e-08	-2.624823e+01	-7.131366e+02
4.400000e-07	-3.697835e-06	-1.078108e-08	-2.570914e+01	-7.083816e+02
4.500000e-07	-3.618893e-06	-1.073332e-08	-2.516030e+01	-7.035280e+02
4.600000e-07	-3.538583e-06	-1.067687e-08	-2.460194e+01	-6.985239e+02
4.700000e-07	-3.456875e-06	-1.060351e-08	-2.403387e+01	-6.933142e+02
4.800000e-07	-3.373917e-06	-1.050317e-08	-2.345710e+01	-6.878648e+02
4.900000e-07	-3.289858e-06	-1.039682e-08	-2.287268e+01	-6.821775e+02
5.000000e-07	-3.204761e-06	-1.031031e-08	-2.228105e+01	-6.762893e+02
5.100000e-07	-3.118691e-06	-1.022563e-08	-2.168265e+01	-6.702558e+02
5.200000e-07	-3.031656e-06	-1.013663e-08	-2.107754e+01	-6.641243e+02
5.300000e-07	-2.943625e-06	-1.004179e-08	-2.046550e+01	-6.579112e+02
5.400000e-07	-2.854675e-06	-9.951770e-09	-1.984708e+01	-6.515911e+02
5.500000e-07	-2.764834e-06	-9.853743e-09	-1.922246e+01	-6.451052e+02
5.600000e-07	-2.673748e-06	-9.733538e-09	-1.858919e+01	-6.383848e+02
5.700000e-07	-2.581407e-06	-9.611022e-09	-1.794719e+01	-6.313794e+02
5.800000e-07	-2.488241e-06	-9.502137e-09	-1.729945e+01	-6.240773e+02
5.900000e-07	-2.394347e-06	-9.406872e-09	-1.664666e+01	-6.165091e+02
6.000000e-07	-2.299678e-06	-9.301733e-09	-1.598847e+01	-6.087310e+02
6.100000e-07	-2.204246e-06	-9.177343e-09	-1.532498e+01	-6.007956e+02
6.200000e-07	-2.107926e-06	-9.041840e-09	-1.465532e+01	-5.927228e+02
6.300000e-07	-2.010840e-06	-8.905709e-09	-1.398033e+01	-5.844848e+02
6.400000e-07	-1.913166e-06	-8.772727e-09	-1.330125e+01	-5.760114e+02
6.500000e-07	-1.814670e-06	-8.634471e-09	-1.261646e+01	-5.672166e+02
6.600000e-07	-1.715168e-06	-8.495608e-09	-1.192468e+01	-5.580323e+02
6.700000e-07	-1.614881e-06	-8.358987e-09	-1.122743e+01	-5.484360e+02
6.800000e-07	-1.514138e-06	-8.217710e-09	-1.052702e+01	-5.384582e+02
6.900000e-07	-1.413082e-06	-8.059083e-09	-9.824430e+00	-5.281646e+02
7.000000e-07	-1.311623e-06	-7.887476e-09	-9.119038e+00	-5.176199e+02
7.100000e-07	-1.209674e-06	-7.715502e-09	-8.410236e+00	-5.068484e+02
7.200000e-07	-1.107295e-06	-7.544246e-09	-7.698449e+00	-4.958100e+02
7.300000e-07	-1.004571e-06	-7.368946e-09	-6.984263e+00	-4.844033e+02
7.400000e-07	-9.015526e-07	-7.184974e-09	-6.268030e+00	-4.724976e+02
7.500000e-07	-7.981799e-07	-6.995514e-09	-5.549333e+00	-4.599802e+02
7.600000e-07	-6.944180e-07	-6.798023e-09	-4.827930e+00	-4.467993e+02
7.700000e-07	-5.903402e-07	-6.590205e-09	-4.104331e+00	-4.329816e+02
7.800000e-07	-4.860334e-07	-6.370645e-09	-3.379140e+00	-4.186134e+02
7.900000e-07	-3.815758e-07	-6.143779e-09	-2.652899e+00	-4.037909e+02
8.000000e-07	-2.769748e-07	-5.912656e-09	-1.925663e+00	-3.885581e+02
8.100000e-07	-1.722304e-07	-5.672218e-09	-1.197429e+00	-3.728603e+02
8.200000e-07	-6.739817e-08	-5.420623e-09	-4.685847e-01	-3.565360e+02
8.300000e-07	3.742255e-08	-5.153536e-09	2.601797e-01	-3.393551e+02
8.400000e-07	1.422335e-07	-4.871390e-09	9.888758e-01	-3.210893e+02
8.500000e-07	2.470158e-07	-4.576175e-09	1.717373e+00	-3.015872e+02
8.600000e-07	3.516772e-07	-4.266017e-09	2.445030e+00	-2.808143e+02
8.700000e-07	4.561999e-07	-3.935601e-09	3.171722e+00	-2.588325e+02
8.800000e-07	5.605240e-07	-3.583849e-09	3.897034e+00	-2.357133e+02
8.900000e-07	6.646195e-07	-3.210840e-09	4.620757e+00	-2.114096e+02
9.000000e-07	7.684221e-07	-2.811334e-09	5.342442e+00	-1.856319e+02
9.100000e-07	8.718435e-07	-2.376314e-09	6.061478e+00	-1.577869e+02
9.200000e-07	9.749068e-07	-1.896465e-09	6.778024e+00	-1.270196e+02
9.300000e-07	1.077662e-06	-1.365177e-09	7.492426e+00	-9.237257e+01
9.400000e-07	1.180085e-06	-7.713572e-10	8.204522e+00	-5.303287e+01
9.500000e-07	1.282128e-06	-1.022481e-10	8.913974e+00	-8.605107e+00
9.600000e-07	1.383739e-06	6.482865e-10	9.620420e+00	4.067110e+01
9.700000e-07	1.484893e-06	1.468454e-09	1.032369e+01	9.383068e+01
9.800000e-07	1.585678e-06	2.329282e-09	1.102440e+01	1.492594e+02
9.900000e-07	1.686011e-06	3.188715e-09	1.172196e+01	2.049289e+02
1.000000e-06	1.785616e-06	4.006482e-09	1.241446e+01	2.587351e+02
1.010000e-06	1.884350e-06	4.757014e-09	1.310091e+01	3.088550e+02
1.020000e-06	1.982263e-06	5.426164e-09	1.378165e+01	3.540291e+02
1.030000e-06	2.079509e-06	6.013647e-09	1.445775e+01	3.937037e+02
1.040000e-06	2.176018e-06	6.527854e-09	1.512873e+01	4.280055e+02
1.050000e-06	2.271670e-06	6.980283e-09	1.579375e+01	4.575744e+02
1.060000e-06	2.366553e-06	7.377618e-09	1.645342e+01	4.833132e+02
1.070000e-06	2.460652e-06	7.728401e-09	1.710765e+01	5.061339e+02
1.080000e-06	2.553999e-06	8.042415e-09	1.775663e+01	5.267690e+02
1.090000e-06	2.646637e-06	8.328230e-09	1.840070e+01	5.456864e+02
1.100000e-06	2.738325e-06	8.587674e-09	1.903816e+01	5.631094e+02
1.110000e-06	2.828831e-06	8.821098e-09	1.966740e+01	5.791090e+02
1.120000e-06	2.918231e-06	9.037406e-09	2.028895e+01	5.937181e+02
1.130000e-06	3.006604e-06	9.242126e-09	2.090336e+01	6.070197e+02
1.140000e-06	3.093945e-06	9.435660e-09	2.151060e+01	6.191804e+02
1.150000e-06	3.180209e-06	9.613438e-09	2.211035e+01	6.304269e+02
1.160000e-06	3.265470e-06	9.774066e-09	2.270313e+01	6.409869e+02
1.170000e-06	3.349734e-06	9.923525e-09	2.328897e+01	6.510265e+02
1.180000e-06	3.432799e-06	1.006823e-08	2.386648e+01	6.606152e+02
1.190000e-06	3.514564e-06	1.020640e-08	2.443495e+01	6.697315e+02
1.200000e-06	3.594997e-06	1.033311e-08	2.499416e+01	6.783049e+02
1.210000e-06	3.674137e-06	1.045192e-08	2.554438e+01	6.862744e+02
1.220000e-06	3.752018e-06	1.056875e-08	2.608585e+01	6.936358e+02
1.230000e-06	3.828570e-06	1.068235e-08	2.661807e+01	7.004599e+02
1.240000e-06	3.903590e-06	1.078487e-08	2.713965e+01	7.068745e+02
1.250000e-06	3.976992e-06	1.087448e-08	2.764997e+01	7.130203e+02
1.260000e-06	4.048902e-06	1.095985e-08	2.814992e+01	7.190030e+02
1.270000e-06	4.119419e-06	1.104701e-08	2.864020e+01	7.248598e+02
1.280000e-06	4.188610e-06	1.113277e-08	2.912125e+01	7.305573e+02
1.290000e-06	4.256334e-06	1.121418e-08	2.959209e+01	7.360182e+02
1.300000e-06	4.322396e-06	1.129394e-08	3.005139e+01	7.411644e+02
1.310000e-06	4.386875e-06	1.137312e-08	3.049968e+01	7.459581e+02
1.320000e-06	4.449908e-06	1.144587e-08	3.093792e+01	7.504215e+02
1.330000e-06	4.511576e-06	1.150748e-08	3.136666e+01	7.546289e+02
1.340000e-06	4.571791e-06	1.156342e-08	3.178530e+01	7.586754e+02
1.350000e-06	4.630235e-06	1.162145e-08	3.219163e+01	7.626366e+02
1.360000e-06	4.686851e-06	1.168219e-08	3.258526e+01	7.665371e+02
1.370000e-06	4.741857e-06	1.174178e-08	3.296769e+01	7.703431e+02
1.380000e-06	4.795150e-06	1.179696e-08	3.333820e+01	7.739792e+02
1.390000e-06	4.846404e-06	1.184820e-08	3.369454e+01	7.773650e+02
1.400000e-06	4.895622e-06	1.189872e-08	3.403673e+01	7.804515e+02
1.410000e-06	4.943073e-06	1.194465e-08	3.436663e+01	7.832452e+02
1.420000e-06	4.988933e-06	1.198195e-08	3.468547e+01	7.858063e+02
1.430000e-06	5.033134e-06	1.201500e-08	3.499278e+01	7.882249e+02
1.440000e-06	5.075399e-06	1.205167e-08	3.528663e+01	7.905837e+02
1.450000e-06	5.115728e-06	1.209076e-08	3.556702e+01	7.929246e+02
1.460000e-06	5.154360e-06	1.212514e-08	3.583561e+01	7.952332e+02
1.470000e-06	5.191376e-06	1.215699e-08	3.609296e+01	7.974469e+02
1.480000e-06	5.226554e-06	1.219037e-08	3.633753e+01	7.994839e+02
1.490000e-06	5.259735e-06	1.222186e-08	3.656822e+01	8.012788e+02
1.500000e-06	5.291091e-06	1.224603e-08	3.678623e+01	8.028117e+02
1.510000e-06	5.320728e-06	1.226374e-08	3.699227e+01	8.041165e+02
1.520000e-06	5.348521e-06	1.228156e-08	3.718550e+01	8.052668e+02
1.530000e-06	5.374218e-06	1.230215e-08	3.736416e+01	8.063457e+02
1.540000e-06	5.397927e-06	1.232145e-08	3.752900e+01	8.074119e+02
1.550000e-06	5.419908e-06	1.233530e-08	3.768182e+01	8.084782e+02
1.560000e-06	5.440183e-06	1.234799e-08	3.782279e+01	8.095088e+02
1.570000e-06	5.458570e-06	1.236383e-08	3.795062e+01	8.104385e+02
1.580000e-06	5.474862e-06	1.237879e-08	3.806389e+01	8.112029e+02
1.590000e-06	5.489098e-06	1.238785e-08	3.816287e+01	8.117670e+02
1.600000e-06	5.501225e-06	1.239249e-08	3.824718e+01	8.121404e+02
1.610000e-06	5.511165e-06	1.239885e-08	3.831629e+01	8.123725e+02
1.620000e-06	5.519095e-06	1.240688e-08	3.837142e+01	8.125301e+02
1.630000e-06	5.525203e-06	1.241135e-08	3.841389e+01	8.126683e+02
1.640000e-06	5.529438e-06	1.241092e-08	3.844333e+01	8.128070e+02
1.650000e-06	5.531617e-06	1.241254e-08	3.845848e+01	8.129232e+02
1.660000e-06	5.531836e-06	1.241755e-08	3.846000e+01	8.129625e+02
1.670000e-06	5.530339e-06	1.241506e-08	3.844959e+01	8.128638e+02
1.680000e-06	5.527200e-06	1.240943e-08	3.842777e+01	8.125863e+02
1.690000e-06	5.522157e-06	1.240258e-08	3.839271e+01	8.121274e+02
1.700000e-06	5.515128e-06	1.239392e-08	3.834384e+01	8.115235e+02
1.710000e-06	5.506410e-06	1.238561e-08	3.828323e+01	8.108338e+02
1.720000e-06	5.496009e-06	1.238026e-08	3.821091e+01	8.101148e+02
1.730000e-06	5.483599e-06	1.239517e-08	3.812463e+01	8.093962e+02
1.740000e-06	5.469163e-06	1.235738e-08	3.802427e+01	8.086704e+02
1.750000e-06	5.452673e-06	1.227468e-08	3.790962e+01	8.078977e+02
1.760000e-06	5.433550e-06	1.226908e-08	3.777667e+01	8.070267e+02
1.770000e-06	5.411637e-06	1.226527e-08	3.762432e+01	8.060190e+02
1.780000e-06	5.387723e-06	1.233737e-08	3.745805e+01	8.048675e+02
1.790000e-06	5.362869e-06	1.236294e-08	3.728526e+01	8.035998e+02
1.800000e-06	5.337223e-06	1.217668e-08	3.710696e+01	8.022650e+02
1.810000e-06	5.309586e-06	1.224141e-08	3.691481e+01	8.009093e+02
1.820000e-06	5.279610e-06	1.226334e-08	3.670640e+01	7.995518e+02
1.830000e-06	5.248124e-06	1.209742e-08	3.648749e+01	7.981711e+02
1.840000e-06	5.214902e-06	1.222300e-08	3.625652e+01	7.967086e+02
1.850000e-06	5.179882e-06	1.216417e-08	3.601304e+01	7.950892e+02
1.860000e-06	5.143100e-06	1.203226e-08	3.575732e+01	7.932490e+02
1.870000e-06	5.104173e-06	1.216250e-08	3.548668e+01	7.911600e+02
1.880000e-06	5.063533e-06	1.202968e-08	3.520413e+01	7.888411e+02
1.890000e-06	5.021295e-06	1.196115e-08	3.491047e+01	7.863500e+02
1.900000e-06	4.977142e-06	1.195850e-08	3.460350e+01	7.837608e+02
1.910000e-06	4.931198e-06	1.182420e-08	3.428407e+01	7.811351e+02
1.920000e-06	4.883373e-06	1.194435e-08	3.395157e+01	7.785002e+02
1.930000e-06	4.833845e-06	1.185655e-08	3.360723e+01	7.758417e+02
1.940000e-06	4.782513e-06	1.174839e-08	3.325035e+01	7.731138e+02
1.950000e-06	4.728942e-06	1.179109e-08	3.287789e+01	7.702616e+02
1.960000e-06	4.673596e-06	1.166686e-08	3.249310e+01	7.672463e+02
1.970000e-06	4.616642e-06	1.164689e-08	3.209713e+01	7.640602e+02
1.980000e-06	4.558124e-06	1.154922e-08	3.169028e+01	7.607282e+02
1.990000e-06	4.498081e-06	1.151314e-08	3.127284e+01	7.572932e+02
2.000000e-06	4.436242e-06	1.153787e-08	3.084290e+01	7.537936e+02
2.010000e-06	4.372761e-06	1.143799e-08	3.040155e+01	7.502440e+02
2.020000e-06	4.307748e-06	1.143174e-08	2.994955e+01	7.466266e+02
2.030000e-06	4.241320e-06	1.130534e-08	2.948771e+01	7.428980e+02
2.040000e-06	4.173366e-06	1.124619e-08	2.901526e+01	7.390084e+02
2.050000e-06	4.103570e-06	1.119889e-08	2.853001e+01	7.349234e+02
2.060000e-06	4.032266e-06	1.108510e-08	2.803427e+01	7.306391e+02
2.070000e-06	3.959701e-06	1.107683e-08	2.752976e+01	7.261832e+02
2.080000e-06	3.885803e-06	1.100054e-08	2.701598e+01	7.216010e+02
2.090000e-06	3.810280e-06	1.097721e-08	2.649091e+01	7.169331e+02
2.100000e-06	3.733026e-06	1.088541e-08	2.595380e+01	7.121946e+02
2.110000e-06	3.654320e-06	1.077005e-08	2.540660e+01	7.073659e+02
2.120000e-06	3.574355e-06	1.069430e-08	2.485064e+01	7.023989e+02
2.130000e-06	3.493238e-06	1.059220e-08	2.428668e+01	6.972371e+02
2.140000e-06	3.410923e-06	1.055517e-08	2.371439e+01	6.918402e+02
2.150000e-06	3.327459e-06	1.046964e-08	2.313411e+01	6.862017e+02
2.160000e-06	3.242701e-06	1.038909e-08	2.254483e+01	6.803522e+02
2.170000e-06	3.156555e-06	1.029085e-08	2.194589e+01	6.743450e+02
2.180000e-06	3.069359e-06	1.018243e-08	2.133967e+01	6.682318e+02
2.190000e-06	2.981203e-06	1.008637e-08	2.072677e+01	6.620368e+02
2.200000e-06	2.892051e-06	9.980420e-09	2.010694e+01	6.557437e+02
2.210000e-06	2.801896e-06	9.904367e-09	1.948014e+01	6.492992e+02
2.220000e-06	2.710848e-06	9.814708e-09	1.884712e+01	6.426343e+02
2.230000e-06	2.618993e-06	9.712632e-09	1.820851e+01	6.356923e+02
2.240000e-06	2.526193e-06	9.584130e-09	1.756332e+01	6.284525e+02
2.250000e-06	2.432256e-06	9.455892e-09	1.691022e+01	6.209370e+02
2.260000e-06	2.337281e-06	9.336874e-09	1.624991e+01	6.131989e+02
2.270000e-06	2.241592e-06	9.230070e-09	1.558463e+01	6.052940e+02
2.280000e-06	2.145195e-06	9.123055e-09	1.491444e+01	5.972512e+02
2.290000e-06	2.048081e-06	8.998654e-09	1.423925e+01	5.890533e+02
2.300000e-06	1.950318e-06	8.867620e-09	1.355956e+01	5.806375e+02
2.310000e-06	1.851940e-06	8.726925e-09	1.287558e+01	5.719184e+02
2.320000e-06	1.752947e-06	8.583978e-09	1.218734e+01	5.628213e+02
2.330000e-06	1.653421e-06	8.428209e-09	1.149538e+01	5.533123e+02
2.340000e-06	1.553454e-06	8.282826e-09	1.080036e+01	5.434114e+02
2.350000e-06	1.452917e-06	8.141139e-09	1.010138e+01	5.331793e+02
2.360000e-06	1.351680e-06	7.991516e-09	9.397531e+00	5.226844e+02
2.370000e-06	1.249711e-06	7.825313e-09	8.688592e+00	5.119625e+02
2.380000e-06	1.147132e-06	7.644358e-09	7.975416e+00	5.009880e+02
2.390000e-06	1.044125e-06	7.471440e-09	7.259263e+00	4.896709e+02
2.400000e-06	9.407845e-07	7.296513e-09	6.540789e+00	4.778829e+02
2.410000e-06	8.371703e-07	7.111326e-09	5.820413e+00	4.655035e+02
2.420000e-06	7.332780e-07	6.911167e-09	5.098103e+00	4.524651e+02
2.430000e-06	6.291595e-07	6.701748e-09	4.374222e+00	4.387779e+02
2.440000e-06	5.248897e-07	6.488070e-09	3.649287e+00	4.245190e+02
2.450000e-06	4.204578e-07	6.265060e-09	2.923226e+00	4.097875e+02
2.460000e-06	3.158577e-07	6.029532e-09	2.195996e+00	3.946433e+02
2.470000e-06	2.111578e-07	5.787278e-09	1.468071e+00	3.790553e+02
2.480000e-06	1.063969e-07	5.542564e-09	7.397225e-01	3.628832e+02
2.490000e-06	1.607843e-09	5.288014e-09	1.117850e-02	3.459063e+02
2.500000e-06	-1.031617e-07	5.012816e-09	-7.172299e-01	3.278893e+02
2.510000e-06	-2.078778e-07	4.713947e-09	-1.445267e+00	3.086591e+02
2.520000e-06	-3.125073e-07	4.401235e-09	-2.172702e+00	2.881556e+02
2.530000e-06	-4.170470e-07	4.077264e-09	-2.899512e+00	2.664253e+02
2.540000e-06	-5.214320e-07	3.733406e-09	-3.625248e+00	2.435477e+02
2.550000e-06	-6.255794e-07	3.364716e-09	-4.349331e+00	2.195123e+02
2.560000e-06	-7.294920e-07	2.974258e-09	-5.071781e+00	1.940899e+02
2.570000e-06	-8.331696e-07	2.557854e-09	-5.792598e+00	1.667525e+02
2.580000e-06	-9.365979e-07	2.100703e-09	-6.511682e+00	1.366919e+02
2.590000e-06	-1.039720e-06	1.587567e-09	-7.228639e+00	1.029537e+02
2.600000e-06	-1.142438e-06	1.009076e-09	-7.942782e+00	6.467099e+01
2.610000e-06	-1.244596e-06	3.606468e-10	-8.653037e+00	2.133736e+01
2.620000e-06	-1.346082e-06	-3.638886e-10	-9.358615e+00	-2.695646e+01
2.630000e-06	-1.446929e-06	-1.160532e-09	-1.005975e+01	-7.940033e+01
2.640000e-06	-1.547224e-06	-2.008269e-09	-1.075705e+01	-1.345042e+02
2.650000e-06	-1.647086e-06	-2.869980e-09	-1.145134e+01	-1.903022e+02
2.660000e-06	-1.746422e-06	-3.706355e-09	-1.214197e+01	-2.446759e+02
2.670000e-06	-1.845048e-06	-4.487032e-09	-1.282767e+01	-2.957143e+02
2.680000e-06	-1.942999e-06	-5.195332e-09	-1.350867e+01	-3.420197e+02
2.690000e-06	-2.040337e-06	-5.821827e-09	-1.418541e+01	-3.828835e+02
2.700000e-06	-2.136984e-06	-6.365790e-09	-1.485735e+01	-4.182968e+02
2.710000e-06	-2.232934e-06	-6.839873e-09	-1.552443e+01	-4.488088e+02
2.720000e-06	-2.328323e-06	-7.257654e-09	-1.618763e+01	-4.752885e+02
2.730000e-06	-2.423063e-06	-7.623506e-09	-1.684630e+01	-4.986647e+02
2.740000e-06	-2.516769e-06	-7.944577e-09	-1.749780e+01	-5.197194e+02
2.750000e-06	-2.609367e-06	-8.236610e-09	-1.814158e+01	-5.389789e+02
2.760000e-06	-2.701025e-06	-8.507404e-09	-1.877883e+01	-5.567127e+02
2.770000e-06	-2.791685e-06	-8.756459e-09	-1.940914e+01	-5.730150e+02
2.780000e-06	-2.881279e-06	-8.981314e-09	-2.003205e+01	-5.879178e+02
2.790000e-06	-2.969818e-06	-9.187930e-09	-2.064761e+01	-6.014884e+02
2.800000e-06	-3.057433e-06	-9.382710e-09	-2.125675e+01	-6.138758e+02
2.810000e-06	-3.144102e-06	-9.563212e-09	-2.185932e+01	-6.252981e+02
2.820000e-06	-3.229530e-06	-9.727938e-09	-2.245326e+01	-6.359883e+02
2.830000e-06	-3.313670e-06	-9.880263e-09	-2.303824e+01	-6.461302e+02
2.840000e-06	-3.396590e-06	-1.002777e-08	-2.361474e+01	-6.558147e+02
2.850000e-06	-3.478356e-06	-1.017100e-08	-2.418321e+01	-6.650374e+02
2.860000e-06	-3.559010e-06	-1.030252e-08	-2.474396e+01	-6.737335e+02
2.870000e-06	-3.638512e-06	-1.041993e-08	-2.529669e+01	-6.818353e+02
2.880000e-06	-3.716647e-06	-1.053099e-08	-2.583993e+01	-6.893236e+02
2.890000e-06	-3.793243e-06	-1.064047e-08	-2.637246e+01	-6.962535e+02
2.900000e-06	-3.868319e-06	-1.074434e-08	-2.689442e+01	-7.027437e+02
2.910000e-06	-3.941931e-06	-1.083898e-08	-2.740621e+01	-7.089364e+02
2.920000e-06	-4.014201e-06	-1.092949e-08	-2.790866e+01	-7.149484e+02
2.930000e-06	-4.085111e-06	-1.102078e-08	-2.840166e+01	-7.208328e+02
2.940000e-06	-4.154511e-06	-1.110943e-08	-2.888417e+01	-7.265702e+02
