# Temperatura_=_41.82
# Concentracion g/m^3_=_13400.0
# C_Vs_to_Am_M_A/Vsm_=_65563218390.804596
# pendiente_HvsI_1/m_=_3716.3
# ordenada_HvsI_A/m_=_1297.0
# frecuencia_Hz_=_300799.6506625304

Tiempo_(s)	Campo_(V.s)	Magnetizacion_(V.s)	Campo_(kA/m)	Magnetizacion_(A/m)
0.000000e+00	-5.508313e-06	-1.229044e-08	-3.830865e+01	-8.058983e+02
1.000000e-08	-5.506457e-06	-1.229445e-08	-3.829575e+01	-8.057717e+02
2.000000e-08	-5.502627e-06	-1.229469e-08	-3.826911e+01	-8.054527e+02
3.000000e-08	-5.497011e-06	-1.228621e-08	-3.823005e+01	-8.049573e+02
4.000000e-08	-5.489773e-06	-1.227129e-08	-3.817971e+01	-8.043404e+02
5.000000e-08	-5.480881e-06	-1.225472e-08	-3.811787e+01	-8.036720e+02
6.000000e-08	-5.470000e-06	-1.224118e-08	-3.804220e+01	-8.030071e+02
7.000000e-08	-5.456996e-06	-1.222597e-08	-3.795176e+01	-8.023618e+02
8.000000e-08	-5.441995e-06	-1.220959e-08	-3.784743e+01	-8.017083e+02
9.000000e-08	-5.424661e-06	-1.224105e-08	-3.772688e+01	-8.009873e+02
1.000000e-07	-5.404962e-06	-1.226611e-08	-3.758987e+01	-8.001355e+02
1.100000e-07	-5.383279e-06	-1.223210e-08	-3.743908e+01	-7.991140e+02
1.200000e-07	-5.359834e-06	-1.219784e-08	-3.727602e+01	-7.979254e+02
1.300000e-07	-5.334944e-06	-1.212332e-08	-3.710292e+01	-7.966124e+02
1.400000e-07	-5.308548e-06	-1.206450e-08	-3.691935e+01	-7.952384e+02
1.500000e-07	-5.280248e-06	-1.214670e-08	-3.672253e+01	-7.938578e+02
1.600000e-07	-5.250171e-06	-1.208675e-08	-3.651336e+01	-7.924903e+02
1.700000e-07	-5.218499e-06	-1.202371e-08	-3.629309e+01	-7.911084e+02
1.800000e-07	-5.184880e-06	-1.209884e-08	-3.605927e+01	-7.896462e+02
1.900000e-07	-5.149286e-06	-1.201449e-08	-3.581173e+01	-7.880237e+02
2.000000e-07	-5.112122e-06	-1.198576e-08	-3.555326e+01	-7.861783e+02
2.100000e-07	-5.073196e-06	-1.198931e-08	-3.528255e+01	-7.840891e+02
2.200000e-07	-5.032455e-06	-1.187761e-08	-3.499920e+01	-7.817841e+02
2.300000e-07	-4.989868e-06	-1.187580e-08	-3.470302e+01	-7.793289e+02
2.400000e-07	-4.945300e-06	-1.188490e-08	-3.439307e+01	-7.767992e+02
2.500000e-07	-4.898944e-06	-1.182377e-08	-3.407068e+01	-7.742518e+02
2.600000e-07	-4.850803e-06	-1.178457e-08	-3.373587e+01	-7.717034e+02
2.700000e-07	-4.800696e-06	-1.171211e-08	-3.338739e+01	-7.691281e+02
2.800000e-07	-4.748429e-06	-1.169885e-08	-3.302389e+01	-7.664709e+02
2.900000e-07	-4.694207e-06	-1.166765e-08	-3.264679e+01	-7.636738e+02
3.000000e-07	-4.638392e-06	-1.160013e-08	-3.225861e+01	-7.606997e+02
3.100000e-07	-4.580899e-06	-1.155755e-08	-3.185877e+01	-7.575466e+02
3.200000e-07	-4.521617e-06	-1.151343e-08	-3.144648e+01	-7.542438e+02
3.300000e-07	-4.460701e-06	-1.149253e-08	-3.102283e+01	-7.508351e+02
3.400000e-07	-4.398284e-06	-1.141506e-08	-3.058874e+01	-7.473557e+02
3.500000e-07	-4.334436e-06	-1.133415e-08	-3.014469e+01	-7.438146e+02
3.600000e-07	-4.269056e-06	-1.128690e-08	-2.968999e+01	-7.401896e+02
3.700000e-07	-4.201968e-06	-1.123977e-08	-2.922342e+01	-7.364382e+02
3.800000e-07	-4.133218e-06	-1.119970e-08	-2.874528e+01	-7.325182e+02
3.900000e-07	-4.063002e-06	-1.112172e-08	-2.825695e+01	-7.284075e+02
4.000000e-07	-3.991530e-06	-1.104623e-08	-2.775988e+01	-7.241153e+02
4.100000e-07	-3.918812e-06	-1.098827e-08	-2.725416e+01	-7.196773e+02
4.200000e-07	-3.844544e-06	-1.091850e-08	-2.673764e+01	-7.151374e+02
4.300000e-07	-3.768506e-06	-1.084134e-08	-2.620882e+01	-7.105250e+02
4.400000e-07	-3.690891e-06	-1.075843e-08	-2.566903e+01	-7.058376e+02
4.500000e-07	-3.611856e-06	-1.070246e-08	-2.511937e+01	-7.010381e+02
4.600000e-07	-3.531349e-06	-1.063719e-08	-2.455946e+01	-6.960678e+02
4.700000e-07	-3.449471e-06	-1.054944e-08	-2.399003e+01	-6.908719e+02
4.800000e-07	-3.366402e-06	-1.045358e-08	-2.341231e+01	-6.854231e+02
4.900000e-07	-3.282246e-06	-1.035530e-08	-2.282703e+01	-6.797358e+02
5.000000e-07	-3.197109e-06	-1.028230e-08	-2.223492e+01	-6.738605e+02
5.100000e-07	-3.111030e-06	-1.020334e-08	-2.163628e+01	-6.678619e+02
5.200000e-07	-3.023974e-06	-1.010863e-08	-2.103083e+01	-6.617893e+02
5.300000e-07	-2.935958e-06	-1.000589e-08	-2.041870e+01	-6.556519e+02
5.400000e-07	-2.846987e-06	-9.907022e-09	-1.979993e+01	-6.494108e+02
5.500000e-07	-2.756950e-06	-9.808463e-09	-1.917375e+01	-6.429920e+02
5.600000e-07	-2.665727e-06	-9.696310e-09	-1.853933e+01	-6.363155e+02
5.700000e-07	-2.573382e-06	-9.584708e-09	-1.789709e+01	-6.293283e+02
5.800000e-07	-2.480160e-06	-9.479006e-09	-1.724876e+01	-6.220265e+02
5.900000e-07	-2.386205e-06	-9.377601e-09	-1.659534e+01	-6.144558e+02
6.000000e-07	-2.291473e-06	-9.263103e-09	-1.593650e+01	-6.066899e+02
6.100000e-07	-2.195958e-06	-9.134520e-09	-1.527222e+01	-5.987945e+02
6.200000e-07	-2.099698e-06	-9.003315e-09	-1.460276e+01	-5.907932e+02
6.300000e-07	-2.002671e-06	-8.876500e-09	-1.392797e+01	-5.826503e+02
6.400000e-07	-1.904814e-06	-8.750149e-09	-1.324740e+01	-5.742794e+02
6.500000e-07	-1.806068e-06	-8.613017e-09	-1.256066e+01	-5.655747e+02
6.600000e-07	-1.706498e-06	-8.469722e-09	-1.186818e+01	-5.564525e+02
6.700000e-07	-1.606266e-06	-8.325939e-09	-1.117109e+01	-5.468846e+02
6.800000e-07	-1.505561e-06	-8.179534e-09	-1.047072e+01	-5.369078e+02
6.900000e-07	-1.404504e-06	-8.021183e-09	-9.767902e+00	-5.266039e+02
7.000000e-07	-1.303021e-06	-7.856608e-09	-9.062117e+00	-5.160574e+02
7.100000e-07	-1.201023e-06	-7.693478e-09	-8.352754e+00	-5.053090e+02
7.200000e-07	-1.098584e-06	-7.528025e-09	-7.640322e+00	-4.943251e+02
7.300000e-07	-9.958208e-07	-7.352130e-09	-6.925632e+00	-4.829987e+02
7.400000e-07	-8.927030e-07	-7.161223e-09	-6.208480e+00	-4.711829e+02
7.500000e-07	-7.892677e-07	-6.964195e-09	-5.489118e+00	-4.587447e+02
7.600000e-07	-6.855925e-07	-6.766381e-09	-4.768089e+00	-4.456154e+02
7.700000e-07	-5.816428e-07	-6.562260e-09	-4.045150e+00	-4.318145e+02
7.800000e-07	-4.774559e-07	-6.346447e-09	-3.320562e+00	-4.174345e+02
7.900000e-07	-3.731256e-07	-6.123540e-09	-2.594976e+00	-4.025887e+02
8.000000e-07	-2.686921e-07	-5.896022e-09	-1.868672e+00	-3.873446e+02
8.100000e-07	-1.641894e-07	-5.658359e-09	-1.141888e+00	-3.716688e+02
8.200000e-07	-5.958997e-08	-5.403244e-09	-4.144302e-01	-3.554123e+02
8.300000e-07	4.507275e-08	-5.130763e-09	3.134674e-01	-3.383439e+02
8.400000e-07	1.496993e-07	-4.848775e-09	1.041113e+00	-3.202222e+02
8.500000e-07	2.542143e-07	-4.559577e-09	1.767983e+00	-3.008739e+02
8.600000e-07	3.586316e-07	-4.255361e-09	2.494175e+00	-2.802425e+02
8.700000e-07	4.629362e-07	-3.926657e-09	3.219581e+00	-2.583745e+02
8.800000e-07	5.670457e-07	-3.575050e-09	3.943631e+00	-2.353387e+02
8.900000e-07	6.709314e-07	-3.203077e-09	4.666125e+00	-2.110990e+02
9.000000e-07	7.745702e-07	-2.807514e-09	5.386902e+00	-1.853894e+02
9.100000e-07	8.780038e-07	-2.375460e-09	6.106251e+00	-1.576461e+02
9.200000e-07	9.811617e-07	-1.897327e-09	6.823683e+00	-1.270432e+02
9.300000e-07	1.083932e-06	-1.369919e-09	7.538420e+00	-9.264502e+01
9.400000e-07	1.186324e-06	-7.819002e-10	8.250525e+00	-5.364804e+01
9.500000e-07	1.288300e-06	-1.162490e-10	8.959736e+00	-9.651764e+00
9.600000e-07	1.389842e-06	6.319297e-10	9.665932e+00	3.912331e+01
9.700000e-07	1.490984e-06	1.444127e-09	1.036934e+01	9.174257e+01
9.800000e-07	1.591710e-06	2.290329e-09	1.106986e+01	1.466292e+02
9.900000e-07	1.691935e-06	3.134710e-09	1.176689e+01	2.017941e+02
1.000000e-06	1.791527e-06	3.943965e-09	1.245953e+01	2.551690e+02
1.010000e-06	1.890336e-06	4.689374e-09	1.314671e+01	3.049582e+02
1.020000e-06	1.988301e-06	5.356178e-09	1.382803e+01	3.499173e+02
1.030000e-06	2.085429e-06	5.946211e-09	1.450353e+01	3.894932e+02
1.040000e-06	2.181735e-06	6.466256e-09	1.517331e+01	4.237992e+02
1.050000e-06	2.277301e-06	6.921957e-09	1.583794e+01	4.534495e+02
1.060000e-06	2.372186e-06	7.318428e-09	1.649784e+01	4.793147e+02
1.070000e-06	2.466293e-06	7.668781e-09	1.715232e+01	5.022739e+02
1.080000e-06	2.559561e-06	7.982666e-09	1.780097e+01	5.230322e+02
1.090000e-06	2.652060e-06	8.265497e-09	1.844428e+01	5.420407e+02
1.100000e-06	2.743622e-06	8.522310e-09	1.908106e+01	5.595181e+02
1.110000e-06	2.834062e-06	8.759441e-09	1.971005e+01	5.755420e+02
1.120000e-06	2.923330e-06	8.982524e-09	2.033088e+01	5.901589e+02
1.130000e-06	3.011558e-06	9.191926e-09	2.094448e+01	6.034665e+02
1.140000e-06	3.098835e-06	9.384681e-09	2.155146e+01	6.156427e+02
1.150000e-06	3.185056e-06	9.559015e-09	2.215110e+01	6.269184e+02
1.160000e-06	3.270225e-06	9.718331e-09	2.274342e+01	6.375175e+02
1.170000e-06	3.354360e-06	9.867077e-09	2.332856e+01	6.475976e+02
1.180000e-06	3.437352e-06	1.000925e-08	2.390574e+01	6.572176e+02
1.190000e-06	3.519002e-06	1.014593e-08	2.447360e+01	6.663483e+02
1.200000e-06	3.599284e-06	1.027773e-08	2.503193e+01	6.749167e+02
1.210000e-06	3.678303e-06	1.040230e-08	2.558149e+01	6.828651e+02
1.220000e-06	3.756094e-06	1.051808e-08	2.612250e+01	6.901964e+02
1.230000e-06	3.832557e-06	1.062559e-08	2.665427e+01	6.969901e+02
1.240000e-06	3.907418e-06	1.072659e-08	2.717491e+01	7.033804e+02
1.250000e-06	3.980664e-06	1.082204e-08	2.768431e+01	7.095114e+02
1.260000e-06	4.052542e-06	1.090991e-08	2.818420e+01	7.154879e+02
1.270000e-06	4.123064e-06	1.099210e-08	2.867467e+01	7.213444e+02
1.280000e-06	4.192156e-06	1.107408e-08	2.915518e+01	7.270443e+02
1.290000e-06	4.259767e-06	1.115794e-08	2.962539e+01	7.325081e+02
1.300000e-06	4.325720e-06	1.124024e-08	3.008407e+01	7.376574e+02
1.310000e-06	4.390079e-06	1.131704e-08	3.053168e+01	7.424546e+02
1.320000e-06	4.453002e-06	1.138746e-08	3.096928e+01	7.469213e+02
1.330000e-06	4.514484e-06	1.145411e-08	3.139687e+01	7.511296e+02
1.340000e-06	4.574472e-06	1.151593e-08	3.181407e+01	7.551697e+02
1.350000e-06	4.632771e-06	1.157122e-08	3.221952e+01	7.591116e+02
1.360000e-06	4.689304e-06	1.162351e-08	3.261269e+01	7.629762e+02
1.370000e-06	4.744180e-06	1.167802e-08	3.299434e+01	7.667291e+02
1.380000e-06	4.797305e-06	1.173412e-08	3.336381e+01	7.703006e+02
1.390000e-06	4.848389e-06	1.178680e-08	3.371908e+01	7.736196e+02
1.400000e-06	4.897442e-06	1.183594e-08	3.406023e+01	7.766487e+02
1.410000e-06	4.944743e-06	1.188201e-08	3.438919e+01	7.794035e+02
1.420000e-06	4.990417e-06	1.192377e-08	3.470684e+01	7.819478e+02
1.430000e-06	5.034471e-06	1.196043e-08	3.501322e+01	7.843673e+02
1.440000e-06	5.076670e-06	1.199298e-08	3.530671e+01	7.867339e+02
1.450000e-06	5.116991e-06	1.202512e-08	3.558712e+01	7.890754e+02
1.460000e-06	5.155632e-06	1.205880e-08	3.585586e+01	7.913650e+02
1.470000e-06	5.192526e-06	1.209288e-08	3.611245e+01	7.935344e+02
1.480000e-06	5.227542e-06	1.212533e-08	3.635597e+01	7.955049e+02
1.490000e-06	5.260590e-06	1.215451e-08	3.658582e+01	7.972228e+02
1.500000e-06	5.291790e-06	1.217871e-08	3.680280e+01	7.986838e+02
1.510000e-06	5.321266e-06	1.219789e-08	3.700780e+01	7.999364e+02
1.520000e-06	5.348929e-06	1.221559e-08	3.720018e+01	8.010623e+02
1.530000e-06	5.374499e-06	1.223347e-08	3.737802e+01	8.021432e+02
1.540000e-06	5.398054e-06	1.225063e-08	3.754184e+01	8.032277e+02
1.550000e-06	5.419879e-06	1.226485e-08	3.769362e+01	8.043130e+02
1.560000e-06	5.439957e-06	1.227729e-08	3.783326e+01	8.053487e+02
1.570000e-06	5.458070e-06	1.229205e-08	3.795923e+01	8.062607e+02
1.580000e-06	5.474122e-06	1.230697e-08	3.807086e+01	8.069848e+02
1.590000e-06	5.488176e-06	1.231753e-08	3.816861e+01	8.074950e+02
1.600000e-06	5.500175e-06	1.232361e-08	3.825206e+01	8.078152e+02
1.610000e-06	5.510012e-06	1.232743e-08	3.832047e+01	8.080089e+02
1.620000e-06	5.517819e-06	1.233090e-08	3.837476e+01	8.081516e+02
1.630000e-06	5.523788e-06	1.233281e-08	3.841628e+01	8.082987e+02
1.640000e-06	5.527906e-06	1.233347e-08	3.844492e+01	8.084628e+02
1.650000e-06	5.529982e-06	1.233618e-08	3.845935e+01	8.086091e+02
1.660000e-06	5.530075e-06	1.234274e-08	3.846000e+01	8.086719e+02
1.670000e-06	5.528451e-06	1.234395e-08	3.844871e+01	8.085841e+02
1.680000e-06	5.525126e-06	1.233716e-08	3.842558e+01	8.083066e+02
1.690000e-06	5.519888e-06	1.232772e-08	3.838915e+01	8.078454e+02
1.700000e-06	5.512745e-06	1.231827e-08	3.833948e+01	8.072487e+02
1.710000e-06	5.503943e-06	1.231108e-08	3.827826e+01	8.065859e+02
1.720000e-06	5.493409e-06	1.230448e-08	3.820500e+01	8.059173e+02
1.730000e-06	5.480862e-06	1.230467e-08	3.811774e+01	8.052688e+02
1.740000e-06	5.466279e-06	1.229664e-08	3.801632e+01	8.046213e+02
1.750000e-06	5.449639e-06	1.222941e-08	3.790059e+01	8.039204e+02
1.760000e-06	5.430410e-06	1.220799e-08	3.776686e+01	8.031011e+02
1.770000e-06	5.408515e-06	1.221220e-08	3.761459e+01	8.021174e+02
1.780000e-06	5.384726e-06	1.222516e-08	3.744914e+01	8.009621e+02
1.790000e-06	5.359896e-06	1.227839e-08	3.727646e+01	7.996708e+02
1.800000e-06	5.334119e-06	1.215621e-08	3.709719e+01	7.983045e+02
1.810000e-06	5.306405e-06	1.212105e-08	3.690445e+01	7.969222e+02
1.820000e-06	5.276391e-06	1.219069e-08	3.669570e+01	7.955526e+02
1.830000e-06	5.244772e-06	1.207386e-08	3.647580e+01	7.941783e+02
1.840000e-06	5.211410e-06	1.209904e-08	3.624378e+01	7.927400e+02
1.850000e-06	5.176223e-06	1.210321e-08	3.599907e+01	7.911582e+02
1.860000e-06	5.139286e-06	1.196301e-08	3.574218e+01	7.893641e+02
1.870000e-06	5.100217e-06	1.204038e-08	3.547047e+01	7.873263e+02
1.880000e-06	5.059402e-06	1.200265e-08	3.518661e+01	7.850630e+02
1.890000e-06	5.017031e-06	1.189405e-08	3.489194e+01	7.826335e+02
1.900000e-06	4.972742e-06	1.190954e-08	3.458392e+01	7.801140e+02
1.910000e-06	4.926642e-06	1.180878e-08	3.426330e+01	7.775674e+02
1.920000e-06	4.878721e-06	1.183917e-08	3.393003e+01	7.750201e+02
1.930000e-06	4.829028e-06	1.180600e-08	3.358443e+01	7.724545e+02
1.940000e-06	4.777527e-06	1.168450e-08	3.322626e+01	7.698201e+02
1.950000e-06	4.723870e-06	1.172641e-08	3.285309e+01	7.670571e+02
1.960000e-06	4.668405e-06	1.164271e-08	3.246735e+01	7.641224e+02
1.970000e-06	4.611333e-06	1.160120e-08	3.207043e+01	7.610061e+02
1.980000e-06	4.552693e-06	1.153331e-08	3.166261e+01	7.577319e+02
1.990000e-06	4.492486e-06	1.144726e-08	3.124388e+01	7.543423e+02
2.000000e-06	4.430521e-06	1.148288e-08	3.081294e+01	7.508763e+02
2.010000e-06	4.366982e-06	1.138826e-08	3.037104e+01	7.473492e+02
2.020000e-06	4.301889e-06	1.135370e-08	2.991834e+01	7.437453e+02
2.030000e-06	4.235341e-06	1.127979e-08	2.945552e+01	7.400250e+02
2.040000e-06	4.167258e-06	1.119486e-08	2.898202e+01	7.361439e+02
2.050000e-06	4.097412e-06	1.117432e-08	2.849626e+01	7.320744e+02
2.060000e-06	4.026093e-06	1.106066e-08	2.800026e+01	7.278189e+02
2.070000e-06	3.953427e-06	1.102869e-08	2.749489e+01	7.234083e+02
2.080000e-06	3.879377e-06	1.095802e-08	2.697989e+01	7.188869e+02
2.090000e-06	3.803695e-06	1.090274e-08	2.645355e+01	7.142890e+02
2.100000e-06	3.726311e-06	1.084136e-08	2.591537e+01	7.096198e+02
2.110000e-06	3.647560e-06	1.072447e-08	2.536768e+01	7.048489e+02
2.120000e-06	3.567593e-06	1.066404e-08	2.481153e+01	6.999204e+02
2.130000e-06	3.486444e-06	1.057015e-08	2.424716e+01	6.947763e+02
2.140000e-06	3.404140e-06	1.051967e-08	2.367476e+01	6.893820e+02
2.150000e-06	3.320684e-06	1.043342e-08	2.309435e+01	6.837426e+02
2.160000e-06	3.235885e-06	1.032566e-08	2.250460e+01	6.779022e+02
2.170000e-06	3.149765e-06	1.024132e-08	2.190567e+01	6.719249e+02
2.180000e-06	3.062560e-06	1.013984e-08	2.129918e+01	6.658658e+02
2.190000e-06	2.974359e-06	1.005709e-08	2.068577e+01	6.597440e+02
2.200000e-06	2.885179e-06	9.958083e-09	2.006555e+01	6.535305e+02
2.210000e-06	2.795072e-06	9.872788e-09	1.943888e+01	6.471569e+02
2.220000e-06	2.704121e-06	9.780166e-09	1.880634e+01	6.405414e+02
2.230000e-06	2.612148e-06	9.668819e-09	1.816670e+01	6.336230e+02
2.240000e-06	2.519039e-06	9.545575e-09	1.751916e+01	6.263863e+02
2.250000e-06	2.424946e-06	9.420257e-09	1.686476e+01	6.188675e+02
2.260000e-06	2.329986e-06	9.311482e-09	1.620435e+01	6.111370e+02
2.270000e-06	2.234277e-06	9.206461e-09	1.553872e+01	6.032655e+02
2.280000e-06	2.137832e-06	9.093080e-09	1.486798e+01	5.952878e+02
2.290000e-06	2.040620e-06	8.965197e-09	1.419189e+01	5.871812e+02
2.300000e-06	1.942742e-06	8.833174e-09	1.351118e+01	5.788681e+02
2.310000e-06	1.844350e-06	8.698258e-09	1.282690e+01	5.702433e+02
2.320000e-06	1.745490e-06	8.561307e-09	1.213935e+01	5.612152e+02
2.330000e-06	1.646102e-06	8.415857e-09	1.144815e+01	5.517418e+02
2.340000e-06	1.546075e-06	8.272231e-09	1.075249e+01	5.418468e+02
2.350000e-06	1.445364e-06	8.123830e-09	1.005207e+01	5.316052e+02
2.360000e-06	1.344007e-06	7.963195e-09	9.347165e+00	5.211051e+02
2.370000e-06	1.242053e-06	7.793949e-09	8.638100e+00	5.104001e+02
2.380000e-06	1.139550e-06	7.620198e-09	7.925229e+00	4.994735e+02
2.390000e-06	1.036604e-06	7.453838e-09	7.209270e+00	4.882323e+02
2.400000e-06	9.333517e-07	7.281945e-09	6.491179e+00	4.765339e+02
2.410000e-06	8.298020e-07	7.099361e-09	5.771022e+00	4.642377e+02
2.420000e-06	7.259788e-07	6.904718e-09	5.048963e+00	4.512579e+02
2.430000e-06	6.219230e-07	6.695899e-09	4.325286e+00	4.375951e+02
2.440000e-06	5.176912e-07	6.474441e-09	3.600386e+00	4.233293e+02
2.450000e-06	4.132722e-07	6.243899e-09	2.874184e+00	4.085751e+02
2.460000e-06	3.086739e-07	6.010729e-09	2.146733e+00	3.934151e+02
2.470000e-06	2.039732e-07	5.776354e-09	1.418572e+00	3.778407e+02
2.480000e-06	9.921714e-08	5.534834e-09	6.900252e-01	3.617262e+02
2.490000e-06	-5.518573e-09	5.277512e-09	-3.838000e-02	3.448531e+02
2.500000e-06	-1.102496e-07	5.001899e-09	-7.667530e-01	3.269750e+02
2.510000e-06	-2.149893e-07	4.709731e-09	-1.495185e+00	3.078986e+02
2.520000e-06	-3.196294e-07	4.403249e-09	-2.222926e+00	2.875410e+02
2.530000e-06	-4.240917e-07	4.078285e-09	-2.949429e+00	2.659312e+02
2.540000e-06	-5.284229e-07	3.731154e-09	-3.675021e+00	2.431430e+02
2.550000e-06	-6.326080e-07	3.363396e-09	-4.399598e+00	2.191743e+02
2.560000e-06	-7.365286e-07	2.976988e-09	-5.122334e+00	1.938167e+02
2.570000e-06	-8.401539e-07	2.561721e-09	-5.843016e+00	1.665713e+02
2.580000e-06	-9.435598e-07	2.102234e-09	-6.562173e+00	1.366595e+02
2.590000e-06	-1.046624e-06	1.590760e-09	-7.278954e+00	1.031510e+02
2.600000e-06	-1.149224e-06	1.021764e-09	-7.992506e+00	6.519081e+01
2.610000e-06	-1.251360e-06	3.847724e-10	-8.702831e+00	2.227087e+01
2.620000e-06	-1.352908e-06	-3.314554e-10	-9.409068e+00	-2.553444e+01
2.630000e-06	-1.453837e-06	-1.123428e-09	-1.011099e+01	-7.744333e+01
2.640000e-06	-1.554191e-06	-1.966099e-09	-1.080893e+01	-1.320021e+02
2.650000e-06	-1.653945e-06	-2.822368e-09	-1.150269e+01	-1.872843e+02
2.660000e-06	-1.753074e-06	-3.654067e-09	-1.219210e+01	-2.412082e+02
2.670000e-06	-1.851563e-06	-4.430631e-09	-1.287706e+01	-2.918925e+02
2.680000e-06	-1.949468e-06	-5.133074e-09	-1.355796e+01	-3.379575e+02
2.690000e-06	-2.046782e-06	-5.752231e-09	-1.423475e+01	-3.786984e+02
2.700000e-06	-2.143373e-06	-6.292022e-09	-1.490651e+01	-4.140955e+02
2.710000e-06	-2.239281e-06	-6.766633e-09	-1.557352e+01	-4.446749e+02
2.720000e-06	-2.334633e-06	-7.188863e-09	-1.623666e+01	-4.712741e+02
2.730000e-06	-2.429309e-06	-7.560133e-09	-1.689511e+01	-4.947887e+02
2.740000e-06	-2.523011e-06	-7.885327e-09	-1.754678e+01	-5.159717e+02
2.750000e-06	-2.615584e-06	-8.178555e-09	-1.819060e+01	-5.353299e+02
2.760000e-06	-2.707075e-06	-8.448653e-09	-1.882689e+01	-5.531257e+02
2.770000e-06	-2.797580e-06	-8.695780e-09	-1.945632e+01	-5.694577e+02
2.780000e-06	-2.887122e-06	-8.919117e-09	-2.007906e+01	-5.843704e+02
2.790000e-06	-2.975647e-06	-9.126314e-09	-2.069473e+01	-5.979462e+02
2.800000e-06	-3.063201e-06	-9.322483e-09	-2.130364e+01	-6.103465e+02
2.810000e-06	-3.149757e-06	-9.504347e-09	-2.190561e+01	-6.217950e+02
2.820000e-06	-3.235096e-06	-9.670397e-09	-2.249911e+01	-6.325228e+02
2.830000e-06	-3.319106e-06	-9.823819e-09	-2.308338e+01	-6.427056e+02
2.840000e-06	-3.401910e-06	-9.971343e-09	-2.365926e+01	-6.524242e+02
2.850000e-06	-3.483573e-06	-1.011160e-08	-2.422719e+01	-6.616653e+02
2.860000e-06	-3.564090e-06	-1.024051e-08	-2.478717e+01	-6.703604e+02
2.870000e-06	-3.643452e-06	-1.036040e-08	-2.533911e+01	-6.784439e+02
2.880000e-06	-3.721471e-06	-1.047553e-08	-2.588171e+01	-6.859033e+02
2.890000e-06	-3.797937e-06	-1.058370e-08	-2.641351e+01	-6.928022e+02
2.900000e-06	-3.872864e-06	-1.068229e-08	-2.693460e+01	-6.992663e+02
2.910000e-06	-3.946393e-06	-1.077599e-08	-2.744597e+01	-7.054420e+02
2.920000e-06	-4.018558e-06	-1.087071e-08	-2.794786e+01	-7.114461e+02
2.930000e-06	-4.089365e-06	-1.096259e-08	-2.844030e+01	-7.173292e+02
2.940000e-06	-4.158630e-06	-1.104717e-08	-2.892201e+01	-7.230685e+02
