# Temperatura_=_64.4
# Concentracion g/m^3_=_13400.0
# C_Vs_to_Am_M_A/Vsm_=_65563218390.804596
# pendiente_HvsI_1/m_=_3716.3
# ordenada_HvsI_A/m_=_1297.0
# frecuencia_Hz_=_300796.267069392

Tiempo_(s)	Campo_(V.s)	Magnetizacion_(V.s)	Campo_(kA/m)	Magnetizacion_(A/m)
0.000000e+00	-5.513953e-06	-1.228550e-08	-3.831278e+01	-8.067329e+02
1.000000e-08	-5.511924e-06	-1.228810e-08	-3.829868e+01	-8.065188e+02
2.000000e-08	-5.507918e-06	-1.228591e-08	-3.827085e+01	-8.060923e+02
3.000000e-08	-5.502235e-06	-1.228196e-08	-3.823135e+01	-8.054991e+02
4.000000e-08	-5.494928e-06	-1.227194e-08	-3.818058e+01	-8.048177e+02
5.000000e-08	-5.485959e-06	-1.225457e-08	-3.811826e+01	-8.041244e+02
6.000000e-08	-5.475036e-06	-1.223490e-08	-3.804237e+01	-8.034590e+02
7.000000e-08	-5.462011e-06	-1.220227e-08	-3.795186e+01	-8.028074e+02
8.000000e-08	-5.446954e-06	-1.218976e-08	-3.784725e+01	-8.021077e+02
9.000000e-08	-5.429451e-06	-1.226935e-08	-3.772563e+01	-8.012782e+02
1.000000e-07	-5.409597e-06	-1.228305e-08	-3.758768e+01	-8.002537e+02
1.100000e-07	-5.387825e-06	-1.222354e-08	-3.743640e+01	-7.990163e+02
1.200000e-07	-5.364297e-06	-1.219816e-08	-3.727292e+01	-7.976038e+02
1.300000e-07	-5.339381e-06	-1.204956e-08	-3.709979e+01	-7.960951e+02
1.400000e-07	-5.312926e-06	-1.204279e-08	-3.691597e+01	-7.945751e+02
1.500000e-07	-5.284537e-06	-1.218179e-08	-3.671872e+01	-7.930970e+02
1.600000e-07	-5.254472e-06	-1.198349e-08	-3.650981e+01	-7.916568e+02
1.700000e-07	-5.222798e-06	-1.201541e-08	-3.628974e+01	-7.901913e+02
1.800000e-07	-5.189075e-06	-1.214378e-08	-3.605542e+01	-7.886017e+02
1.900000e-07	-5.153372e-06	-1.194123e-08	-3.580734e+01	-7.867926e+02
2.000000e-07	-5.116188e-06	-1.199373e-08	-3.554898e+01	-7.847102e+02
2.100000e-07	-5.077256e-06	-1.195748e-08	-3.527846e+01	-7.823639e+02
2.200000e-07	-5.036519e-06	-1.178463e-08	-3.499540e+01	-7.798218e+02
2.300000e-07	-4.993830e-06	-1.186410e-08	-3.469879e+01	-7.771820e+02
2.400000e-07	-4.949148e-06	-1.184264e-08	-3.438832e+01	-7.745325e+02
2.500000e-07	-4.902806e-06	-1.179545e-08	-3.406632e+01	-7.719152e+02
2.600000e-07	-4.854555e-06	-1.176938e-08	-3.373106e+01	-7.693107e+02
2.700000e-07	-4.804230e-06	-1.164692e-08	-3.338138e+01	-7.666483e+02
2.800000e-07	-4.751860e-06	-1.164590e-08	-3.301750e+01	-7.638370e+02
2.900000e-07	-4.697567e-06	-1.161072e-08	-3.264025e+01	-7.608044e+02
3.000000e-07	-4.641608e-06	-1.154241e-08	-3.225144e+01	-7.575264e+02
3.100000e-07	-4.584023e-06	-1.149076e-08	-3.185132e+01	-7.540349e+02
3.200000e-07	-4.524633e-06	-1.146460e-08	-3.143865e+01	-7.504012e+02
3.300000e-07	-4.463619e-06	-1.144213e-08	-3.101470e+01	-7.467030e+02
3.400000e-07	-4.401089e-06	-1.132221e-08	-3.058023e+01	-7.429891e+02
3.500000e-07	-4.337055e-06	-1.126466e-08	-3.013530e+01	-7.392578e+02
3.600000e-07	-4.271543e-06	-1.119777e-08	-2.968010e+01	-7.354583e+02
3.700000e-07	-4.204340e-06	-1.114382e-08	-2.921315e+01	-7.315137e+02
3.800000e-07	-4.135470e-06	-1.112814e-08	-2.873462e+01	-7.273557e+02
3.900000e-07	-4.065209e-06	-1.103154e-08	-2.824642e+01	-7.229548e+02
4.000000e-07	-3.993670e-06	-1.096180e-08	-2.774934e+01	-7.183330e+02
4.100000e-07	-3.920823e-06	-1.089640e-08	-2.724318e+01	-7.135531e+02
4.200000e-07	-3.846430e-06	-1.082433e-08	-2.672627e+01	-7.086891e+02
4.300000e-07	-3.770289e-06	-1.073849e-08	-2.619722e+01	-7.037914e+02
4.400000e-07	-3.692570e-06	-1.064440e-08	-2.565720e+01	-6.988621e+02
4.500000e-07	-3.613371e-06	-1.058786e-08	-2.510690e+01	-6.938517e+02
4.600000e-07	-3.532636e-06	-1.051867e-08	-2.454593e+01	-6.886791e+02
4.700000e-07	-3.450613e-06	-1.044349e-08	-2.397600e+01	-6.832657e+02
4.800000e-07	-3.367440e-06	-1.034100e-08	-2.339809e+01	-6.775693e+02
4.900000e-07	-3.283172e-06	-1.023988e-08	-2.281257e+01	-6.716026e+02
5.000000e-07	-3.197978e-06	-1.016166e-08	-2.222061e+01	-6.654266e+02
5.100000e-07	-3.111806e-06	-1.006980e-08	-2.162186e+01	-6.591234e+02
5.200000e-07	-3.024604e-06	-9.972595e-09	-2.101595e+01	-6.527590e+02
5.300000e-07	-2.936461e-06	-9.865519e-09	-2.040350e+01	-6.463524e+02
5.400000e-07	-2.847428e-06	-9.766384e-09	-1.978487e+01	-6.398653e+02
5.500000e-07	-2.757281e-06	-9.670550e-09	-1.915850e+01	-6.332177e+02
5.600000e-07	-2.665863e-06	-9.559851e-09	-1.852330e+01	-6.263204e+02
5.700000e-07	-2.573347e-06	-9.441914e-09	-1.788047e+01	-6.191129e+02
5.800000e-07	-2.480001e-06	-9.325372e-09	-1.723187e+01	-6.115873e+02
5.900000e-07	-2.385920e-06	-9.220563e-09	-1.657816e+01	-6.037884e+02
6.000000e-07	-2.291062e-06	-9.104754e-09	-1.591906e+01	-5.957892e+02
6.100000e-07	-2.195428e-06	-8.974253e-09	-1.525456e+01	-5.876526e+02
6.200000e-07	-2.099069e-06	-8.840007e-09	-1.458503e+01	-5.793977e+02
6.300000e-07	-2.001989e-06	-8.705964e-09	-1.391048e+01	-5.709842e+02
6.400000e-07	-1.904056e-06	-8.574032e-09	-1.323001e+01	-5.623260e+02
6.500000e-07	-1.805204e-06	-8.431688e-09	-1.254316e+01	-5.533252e+02
6.600000e-07	-1.705590e-06	-8.285559e-09	-1.185101e+01	-5.439140e+02
6.700000e-07	-1.605390e-06	-8.141483e-09	-1.115478e+01	-5.340836e+02
6.800000e-07	-1.504672e-06	-7.995845e-09	-1.045496e+01	-5.238862e+02
6.900000e-07	-1.403487e-06	-7.837250e-09	-9.751893e+00	-5.134075e+02
7.000000e-07	-1.301843e-06	-7.668692e-09	-9.045639e+00	-5.027209e+02
7.100000e-07	-1.199729e-06	-7.497856e-09	-8.336118e+00	-4.918432e+02
7.200000e-07	-1.097165e-06	-7.323346e-09	-7.623468e+00	-4.807133e+02
7.300000e-07	-9.942282e-07	-7.143991e-09	-6.908228e+00	-4.692055e+02
7.400000e-07	-8.909525e-07	-6.955984e-09	-6.190634e+00	-4.571736e+02
7.500000e-07	-7.873400e-07	-6.763892e-09	-5.470700e+00	-4.445070e+02
7.600000e-07	-6.834581e-07	-6.566621e-09	-4.748894e+00	-4.311752e+02
7.700000e-07	-5.793842e-07	-6.360436e-09	-4.025754e+00	-4.172361e+02
7.800000e-07	-4.751714e-07	-6.139818e-09	-3.301649e+00	-4.028025e+02
7.900000e-07	-3.708474e-07	-5.910253e-09	-2.576771e+00	-3.879778e+02
8.000000e-07	-2.664133e-07	-5.678190e-09	-1.851128e+00	-3.727867e+02
8.100000e-07	-1.618962e-07	-5.438325e-09	-1.124909e+00	-3.571329e+02
8.200000e-07	-5.727999e-08	-5.185706e-09	-3.980004e-01	-3.408068e+02
8.300000e-07	4.737824e-08	-4.916897e-09	3.291997e-01	-3.235436e+02
8.400000e-07	1.519605e-07	-4.635738e-09	1.055872e+00	-3.051100e+02
8.500000e-07	2.564661e-07	-4.342540e-09	1.782011e+00	-2.853809e+02
8.600000e-07	3.608779e-07	-4.031374e-09	2.507499e+00	-2.643654e+02
8.700000e-07	4.651840e-07	-3.695091e-09	3.232253e+00	-2.421581e+02
8.800000e-07	5.693614e-07	-3.336621e-09	3.956112e+00	-2.188222e+02
8.900000e-07	6.733721e-07	-2.957340e-09	4.678813e+00	-1.942416e+02
9.000000e-07	7.771737e-07	-2.548772e-09	5.400061e+00	-1.680028e+02
9.100000e-07	8.807571e-07	-2.099270e-09	6.119793e+00	-1.393645e+02
9.200000e-07	9.840720e-07	-1.600599e-09	6.837659e+00	-1.073540e+02
9.300000e-07	1.087037e-06	-1.048006e-09	7.553093e+00	-7.098490e+01
9.400000e-07	1.189568e-06	-4.281314e-10	8.265512e+00	-2.954788e+01
9.500000e-07	1.291631e-06	2.755646e-10	8.974684e+00	1.710710e+01
9.600000e-07	1.393321e-06	1.063882e-09	9.681254e+00	6.838658e+01
9.700000e-07	1.494625e-06	1.911194e-09	1.038515e+01	1.229346e+02
9.800000e-07	1.595451e-06	2.777811e-09	1.108573e+01	1.788003e+02
9.900000e-07	1.695713e-06	3.621514e-09	1.178237e+01	2.337582e+02
1.000000e-06	1.795309e-06	4.406714e-09	1.247441e+01	2.856995e+02
1.010000e-06	1.894183e-06	5.108175e-09	1.316141e+01	3.329929e+02
1.020000e-06	1.992249e-06	5.719985e-09	1.384281e+01	3.747217e+02
1.030000e-06	2.089434e-06	6.252814e-09	1.451808e+01	4.107416e+02
1.040000e-06	2.185840e-06	6.720050e-09	1.518794e+01	4.415611e+02
1.050000e-06	2.281580e-06	7.131885e-09	1.585318e+01	4.680940e+02
1.060000e-06	2.376585e-06	7.494420e-09	1.651330e+01	4.913672e+02
1.070000e-06	2.470749e-06	7.819283e-09	1.716758e+01	5.122705e+02
1.080000e-06	2.564118e-06	8.109417e-09	1.781634e+01	5.314107e+02
1.090000e-06	2.656686e-06	8.370482e-09	1.845953e+01	5.490911e+02
1.100000e-06	2.748296e-06	8.609405e-09	1.909608e+01	5.653937e+02
1.110000e-06	2.838810e-06	8.827901e-09	1.972500e+01	5.803115e+02
1.120000e-06	2.928191e-06	9.030751e-09	2.034604e+01	5.938727e+02
1.130000e-06	3.016475e-06	9.222042e-09	2.095947e+01	6.062080e+02
1.140000e-06	3.103742e-06	9.404917e-09	2.156583e+01	6.175477e+02
1.150000e-06	3.190003e-06	9.574532e-09	2.216520e+01	6.281612e+02
1.160000e-06	3.275228e-06	9.729909e-09	2.275737e+01	6.382756e+02
1.170000e-06	3.359427e-06	9.873410e-09	2.334241e+01	6.480130e+02
1.180000e-06	3.442470e-06	1.001037e-08	2.391943e+01	6.573733e+02
1.190000e-06	3.524171e-06	1.014360e-08	2.448711e+01	6.662684e+02
1.200000e-06	3.604536e-06	1.026909e-08	2.504551e+01	6.745885e+02
1.210000e-06	3.683627e-06	1.038489e-08	2.559506e+01	6.822713e+02
1.220000e-06	3.761439e-06	1.049436e-08	2.613573e+01	6.893443e+02
1.230000e-06	3.837895e-06	1.060059e-08	2.666697e+01	6.959237e+02
1.240000e-06	3.912846e-06	1.070235e-08	2.718775e+01	7.021738e+02
1.250000e-06	3.986227e-06	1.079799e-08	2.769763e+01	7.082469e+02
1.260000e-06	4.058119e-06	1.088788e-08	2.819716e+01	7.142300e+02
1.270000e-06	4.128595e-06	1.097349e-08	2.868685e+01	7.201222e+02
1.280000e-06	4.197643e-06	1.105617e-08	2.916662e+01	7.258495e+02
1.290000e-06	4.265208e-06	1.113718e-08	2.963608e+01	7.313090e+02
1.300000e-06	4.331146e-06	1.121617e-08	3.009424e+01	7.364223e+02
1.310000e-06	4.395509e-06	1.129139e-08	3.054146e+01	7.411737e+02
1.320000e-06	4.458420e-06	1.136172e-08	3.097858e+01	7.456175e+02
1.330000e-06	4.519933e-06	1.142876e-08	3.140600e+01	7.498539e+02
1.340000e-06	4.579985e-06	1.149260e-08	3.182325e+01	7.539837e+02
1.350000e-06	4.638286e-06	1.155345e-08	3.222835e+01	7.580650e+02
1.360000e-06	4.694843e-06	1.161183e-08	3.262133e+01	7.620894e+02
1.370000e-06	4.749751e-06	1.166844e-08	3.300285e+01	7.659889e+02
1.380000e-06	4.802873e-06	1.172339e-08	3.337196e+01	7.696693e+02
1.390000e-06	4.853994e-06	1.177468e-08	3.372716e+01	7.730545e+02
1.400000e-06	4.903071e-06	1.182357e-08	3.406817e+01	7.761226e+02
1.410000e-06	4.950353e-06	1.186896e-08	3.439670e+01	7.789169e+02
1.420000e-06	4.996027e-06	1.191056e-08	3.471405e+01	7.815279e+02
1.430000e-06	5.040017e-06	1.195108e-08	3.501971e+01	7.840553e+02
1.440000e-06	5.082051e-06	1.198975e-08	3.531178e+01	7.865649e+02
1.450000e-06	5.122275e-06	1.202601e-08	3.559127e+01	7.890619e+02
1.460000e-06	5.160858e-06	1.205988e-08	3.585935e+01	7.914899e+02
1.470000e-06	5.197736e-06	1.209370e-08	3.611559e+01	7.937577e+02
1.480000e-06	5.232724e-06	1.212692e-08	3.635870e+01	7.957802e+02
1.490000e-06	5.265752e-06	1.215652e-08	3.658819e+01	7.975172e+02
1.500000e-06	5.297049e-06	1.218043e-08	3.680565e+01	7.989913e+02
1.510000e-06	5.326651e-06	1.220157e-08	3.701134e+01	8.002801e+02
1.520000e-06	5.354368e-06	1.222314e-08	3.720393e+01	8.014830e+02
1.530000e-06	5.379941e-06	1.224420e-08	3.738162e+01	8.026804e+02
1.540000e-06	5.403507e-06	1.226280e-08	3.754536e+01	8.039005e+02
1.550000e-06	5.425349e-06	1.227797e-08	3.769713e+01	8.051094e+02
1.560000e-06	5.445471e-06	1.229317e-08	3.783694e+01	8.062282e+02
1.570000e-06	5.463604e-06	1.230750e-08	3.796293e+01	8.071685e+02
1.580000e-06	5.479606e-06	1.231803e-08	3.807412e+01	8.078719e+02
1.590000e-06	5.493606e-06	1.232790e-08	3.817140e+01	8.083355e+02
1.600000e-06	5.505532e-06	1.233990e-08	3.825427e+01	8.086132e+02
1.610000e-06	5.515274e-06	1.234989e-08	3.832196e+01	8.087924e+02
1.620000e-06	5.523020e-06	1.235419e-08	3.837578e+01	8.089558e+02
1.630000e-06	5.528962e-06	1.235338e-08	3.841706e+01	8.091473e+02
1.640000e-06	5.533033e-06	1.235203e-08	3.844535e+01	8.093536e+02
1.650000e-06	5.535059e-06	1.235545e-08	3.845943e+01	8.095122e+02
1.660000e-06	5.535141e-06	1.236042e-08	3.846000e+01	8.095405e+02
1.670000e-06	5.533484e-06	1.235342e-08	3.844848e+01	8.093726e+02
1.680000e-06	5.530136e-06	1.234602e-08	3.842522e+01	8.089892e+02
1.690000e-06	5.524819e-06	1.234053e-08	3.838828e+01	8.084256e+02
1.700000e-06	5.517577e-06	1.233447e-08	3.833796e+01	8.077559e+02
1.710000e-06	5.508711e-06	1.232623e-08	3.827635e+01	8.070599e+02
1.720000e-06	5.498117e-06	1.231853e-08	3.820274e+01	8.063876e+02
1.730000e-06	5.485479e-06	1.233908e-08	3.811493e+01	8.057367e+02
1.740000e-06	5.470847e-06	1.229097e-08	3.801326e+01	8.050539e+02
1.750000e-06	5.454239e-06	1.218041e-08	3.789786e+01	8.042586e+02
1.760000e-06	5.434962e-06	1.218727e-08	3.776392e+01	8.032792e+02
1.770000e-06	5.412898e-06	1.218418e-08	3.761062e+01	8.020858e+02
1.780000e-06	5.388908e-06	1.227198e-08	3.744392e+01	8.007050e+02
1.790000e-06	5.364005e-06	1.231167e-08	3.727089e+01	7.992091e+02
1.800000e-06	5.338269e-06	1.206133e-08	3.709206e+01	7.976852e+02
1.810000e-06	5.310439e-06	1.218014e-08	3.689869e+01	7.961962e+02
1.820000e-06	5.280281e-06	1.221749e-08	3.668914e+01	7.947512e+02
1.830000e-06	5.248655e-06	1.196246e-08	3.646940e+01	7.932986e+02
1.840000e-06	5.215250e-06	1.214953e-08	3.623729e+01	7.917442e+02
1.850000e-06	5.180071e-06	1.208363e-08	3.599285e+01	7.899883e+02
1.860000e-06	5.143079e-06	1.190583e-08	3.573582e+01	7.879657e+02
1.870000e-06	5.103898e-06	1.212561e-08	3.546358e+01	7.856718e+02
1.880000e-06	5.063117e-06	1.196491e-08	3.518022e+01	7.831637e+02
1.890000e-06	5.020736e-06	1.187353e-08	3.488574e+01	7.805362e+02
1.900000e-06	4.976332e-06	1.188947e-08	3.457720e+01	7.778831e+02
1.910000e-06	4.930215e-06	1.170522e-08	3.425677e+01	7.752582e+02
1.920000e-06	4.882255e-06	1.186875e-08	3.392353e+01	7.726554e+02
1.930000e-06	4.832467e-06	1.177482e-08	3.357759e+01	7.700127e+02
1.940000e-06	4.780874e-06	1.165902e-08	3.321910e+01	7.672404e+02
1.950000e-06	4.727120e-06	1.172437e-08	3.284560e+01	7.642590e+02
1.960000e-06	4.671684e-06	1.157732e-08	3.246041e+01	7.610326e+02
1.970000e-06	4.614571e-06	1.157564e-08	3.206357e+01	7.575815e+02
1.980000e-06	4.555848e-06	1.143728e-08	3.165554e+01	7.539712e+02
1.990000e-06	4.495583e-06	1.141254e-08	3.123681e+01	7.502811e+02
2.000000e-06	4.433506e-06	1.144168e-08	3.080547e+01	7.465686e+02
2.010000e-06	4.369915e-06	1.130727e-08	3.036362e+01	7.428437e+02
2.020000e-06	4.304738e-06	1.133980e-08	2.991075e+01	7.390647e+02
2.030000e-06	4.238115e-06	1.117467e-08	2.944783e+01	7.351576e+02
2.040000e-06	4.169994e-06	1.113544e-08	2.897451e+01	7.310493e+02
2.050000e-06	4.100008e-06	1.110210e-08	2.848822e+01	7.267001e+02
2.060000e-06	4.028567e-06	1.096598e-08	2.799182e+01	7.221212e+02
2.070000e-06	3.955865e-06	1.096504e-08	2.748667e+01	7.173686e+02
2.080000e-06	3.881764e-06	1.084041e-08	2.697179e+01	7.125169e+02
2.090000e-06	3.805962e-06	1.083489e-08	2.644509e+01	7.076241e+02
2.100000e-06	3.728405e-06	1.073206e-08	2.590620e+01	7.027040e+02
2.110000e-06	3.649508e-06	1.062211e-08	2.535799e+01	6.977170e+02
2.120000e-06	3.569421e-06	1.056006e-08	2.480152e+01	6.925863e+02
2.130000e-06	3.488136e-06	1.044371e-08	2.423673e+01	6.872294e+02
2.140000e-06	3.405741e-06	1.041533e-08	2.366422e+01	6.815944e+02
2.150000e-06	3.322268e-06	1.028770e-08	2.308422e+01	6.756816e+02
2.160000e-06	3.237368e-06	1.021334e-08	2.249431e+01	6.695435e+02
2.170000e-06	3.151091e-06	1.011432e-08	2.189482e+01	6.632608e+02
2.180000e-06	3.063796e-06	1.001309e-08	2.128827e+01	6.569058e+02
2.190000e-06	2.975554e-06	9.928763e-09	2.067513e+01	6.505093e+02
2.200000e-06	2.886318e-06	9.799711e-09	2.005510e+01	6.440450e+02
2.210000e-06	2.796132e-06	9.715933e-09	1.942845e+01	6.374394e+02
2.220000e-06	2.705140e-06	9.608863e-09	1.879621e+01	6.306019e+02
2.230000e-06	2.613120e-06	9.515954e-09	1.815682e+01	6.234634e+02
2.240000e-06	2.519922e-06	9.389666e-09	1.750926e+01	6.160036e+02
2.250000e-06	2.425696e-06	9.263356e-09	1.685454e+01	6.082573e+02
2.260000e-06	2.330646e-06	9.153463e-09	1.619410e+01	6.002946e+02
2.270000e-06	2.234926e-06	9.037272e-09	1.552901e+01	5.921838e+02
2.280000e-06	2.138433e-06	8.917449e-09	1.485854e+01	5.839554e+02
2.290000e-06	2.041137e-06	8.777829e-09	1.418250e+01	5.755818e+02
2.300000e-06	1.943222e-06	8.646385e-09	1.350215e+01	5.669843e+02
2.310000e-06	1.844812e-06	8.511793e-09	1.281836e+01	5.580641e+02
2.320000e-06	1.745877e-06	8.371584e-09	1.213093e+01	5.487436e+02
2.330000e-06	1.646364e-06	8.217077e-09	1.143948e+01	5.390003e+02
2.340000e-06	1.546201e-06	8.068130e-09	1.074351e+01	5.288746e+02
2.350000e-06	1.445278e-06	7.918332e-09	1.004227e+01	5.184487e+02
2.360000e-06	1.343669e-06	7.759060e-09	9.336256e+00	5.078026e+02
2.370000e-06	1.241545e-06	7.586976e-09	8.626666e+00	4.969680e+02
2.380000e-06	1.138957e-06	7.408849e-09	7.913849e+00	4.859008e+02
2.390000e-06	1.035943e-06	7.237483e-09	7.198075e+00	4.744863e+02
2.400000e-06	9.325692e-07	7.059381e-09	6.479801e+00	4.625779e+02
2.410000e-06	8.288811e-07	6.872860e-09	5.759341e+00	4.500528e+02
2.420000e-06	7.249410e-07	6.672818e-09	5.037130e+00	4.368613e+02
2.430000e-06	6.207739e-07	6.465440e-09	4.313343e+00	4.230436e+02
2.440000e-06	5.164165e-07	6.250575e-09	3.588233e+00	4.087057e+02
2.450000e-06	4.118727e-07	6.025460e-09	2.861828e+00	3.939590e+02
2.460000e-06	3.071572e-07	5.790037e-09	2.134230e+00	3.788499e+02
2.470000e-06	2.023345e-07	5.548526e-09	1.405887e+00	3.633093e+02
2.480000e-06	9.749211e-08	5.301004e-09	6.774076e-01	3.471488e+02
2.490000e-06	-7.339230e-09	5.039672e-09	-5.099540e-02	3.301083e+02
2.500000e-06	-1.121820e-07	4.761115e-09	-7.794776e-01	3.119403e+02
2.510000e-06	-2.170129e-07	4.466027e-09	-1.507878e+00	2.924923e+02
2.520000e-06	-3.217479e-07	4.156417e-09	-2.235612e+00	2.717458e+02
2.530000e-06	-4.263388e-07	3.828695e-09	-2.962343e+00	2.497851e+02
2.540000e-06	-5.307816e-07	3.476861e-09	-3.688047e+00	2.266923e+02
2.550000e-06	-6.350526e-07	3.100777e-09	-4.412557e+00	2.024017e+02
2.560000e-06	-7.391186e-07	2.703656e-09	-5.135642e+00	1.765699e+02
2.570000e-06	-8.429239e-07	2.274697e-09	-5.856915e+00	1.485221e+02
2.580000e-06	-9.464166e-07	1.799121e-09	-6.576017e+00	1.173208e+02
2.590000e-06	-1.049554e-06	1.264823e-09	-7.292647e+00	8.195924e+01
2.600000e-06	-1.152228e-06	6.637163e-10	-8.006060e+00	4.164341e+01
2.610000e-06	-1.254377e-06	-1.057904e-11	-8.715830e+00	-3.916710e+00
2.620000e-06	-1.356065e-06	-7.661867e-10	-9.422389e+00	-5.429490e+01
2.630000e-06	-1.457248e-06	-1.596595e-09	-1.012545e+01	-1.082907e+02
2.640000e-06	-1.557832e-06	-2.466769e-09	-1.082433e+01	-1.640581e+02
2.650000e-06	-1.657745e-06	-3.325867e-09	-1.151857e+01	-2.193982e+02
2.660000e-06	-1.756878e-06	-4.133673e-09	-1.220737e+01	-2.721443e+02
2.670000e-06	-1.855343e-06	-4.868574e-09	-1.289154e+01	-3.205376e+02
2.680000e-06	-1.953309e-06	-5.521928e-09	-1.357224e+01	-3.634968e+02
2.690000e-06	-2.050675e-06	-6.090028e-09	-1.424877e+01	-4.007165e+02
2.700000e-06	-2.147385e-06	-6.578740e-09	-1.492075e+01	-4.325830e+02
2.710000e-06	-2.243462e-06	-7.005873e-09	-1.558832e+01	-4.599477e+02
2.720000e-06	-2.338865e-06	-7.386899e-09	-1.625121e+01	-4.838370e+02
2.730000e-06	-2.433501e-06	-7.723993e-09	-1.690877e+01	-5.051864e+02
2.740000e-06	-2.527237e-06	-8.020166e-09	-1.756008e+01	-5.246695e+02
2.750000e-06	-2.619992e-06	-8.287178e-09	-1.820457e+01	-5.426504e+02
2.760000e-06	-2.711659e-06	-8.536640e-09	-1.884151e+01	-5.592480e+02
2.770000e-06	-2.802236e-06	-8.770398e-09	-1.947086e+01	-5.744631e+02
2.780000e-06	-2.891803e-06	-8.980769e-09	-2.009321e+01	-5.883081e+02
2.790000e-06	-2.980342e-06	-9.170760e-09	-2.070840e+01	-6.008897e+02
2.800000e-06	-3.067924e-06	-9.351069e-09	-2.131695e+01	-6.124203e+02
2.810000e-06	-3.154536e-06	-9.523269e-09	-2.191876e+01	-6.231679e+02
2.820000e-06	-3.239958e-06	-9.682957e-09	-2.251230e+01	-6.333750e+02
2.830000e-06	-3.324059e-06	-9.829943e-09	-2.309666e+01	-6.431894e+02
2.840000e-06	-3.406962e-06	-9.971455e-09	-2.367271e+01	-6.526360e+02
2.850000e-06	-3.488741e-06	-1.010834e-08	-2.424093e+01	-6.616406e+02
2.860000e-06	-3.569366e-06	-1.023566e-08	-2.480114e+01	-6.700919e+02
2.870000e-06	-3.648844e-06	-1.035075e-08	-2.535338e+01	-6.779124e+02
2.880000e-06	-3.727000e-06	-1.045830e-08	-2.589643e+01	-6.851091e+02
2.890000e-06	-3.803599e-06	-1.056323e-08	-2.642867e+01	-6.917815e+02
2.900000e-06	-3.878581e-06	-1.066409e-08	-2.694967e+01	-6.980882e+02
2.910000e-06	-3.952106e-06	-1.075836e-08	-2.746054e+01	-7.041893e+02
2.920000e-06	-4.024281e-06	-1.084938e-08	-2.796204e+01	-7.101889e+02
2.930000e-06	-4.095102e-06	-1.094048e-08	-2.845413e+01	-7.161050e+02
2.940000e-06	-4.164478e-06	-1.102802e-08	-2.893618e+01	-7.218763e+02
