# Temperatura_=_33.6
# Concentracion g/m^3_=_13400.0
# C_Vs_to_Am_M_A/Vsm_=_65563218390.804596
# pendiente_HvsI_1/m_=_3716.3
# ordenada_HvsI_A/m_=_1297.0
# frecuencia_Hz_=_300805.99815620034

Tiempo_(s)	Campo_(V.s)	Magnetizacion_(V.s)	Campo_(kA/m)	Magnetizacion_(A/m)
0.000000e+00	-5.489827e-06	-1.210160e-08	-3.830717e+01	-7.928884e+02
1.000000e-08	-5.487803e-06	-1.210114e-08	-3.829305e+01	-7.927858e+02
2.000000e-08	-5.483844e-06	-1.209704e-08	-3.826542e+01	-7.924829e+02
3.000000e-08	-5.478154e-06	-1.209344e-08	-3.822572e+01	-7.919911e+02
4.000000e-08	-5.470838e-06	-1.208278e-08	-3.817467e+01	-7.913655e+02
5.000000e-08	-5.461870e-06	-1.206262e-08	-3.811209e+01	-7.906813e+02
6.000000e-08	-5.450931e-06	-1.204283e-08	-3.803576e+01	-7.900007e+02
7.000000e-08	-5.437923e-06	-1.202000e-08	-3.794499e+01	-7.893466e+02
8.000000e-08	-5.422864e-06	-1.202715e-08	-3.783992e+01	-7.886934e+02
9.000000e-08	-5.405388e-06	-1.208746e-08	-3.771797e+01	-7.879790e+02
1.000000e-07	-5.385608e-06	-1.207566e-08	-3.757995e+01	-7.871339e+02
1.100000e-07	-5.363892e-06	-1.202539e-08	-3.742842e+01	-7.861127e+02
1.200000e-07	-5.340402e-06	-1.198567e-08	-3.726451e+01	-7.849162e+02
1.300000e-07	-5.315527e-06	-1.186047e-08	-3.709093e+01	-7.835916e+02
1.400000e-07	-5.289142e-06	-1.191114e-08	-3.690682e+01	-7.822134e+02
1.500000e-07	-5.260820e-06	-1.198248e-08	-3.670920e+01	-7.808496e+02
1.600000e-07	-5.230832e-06	-1.181589e-08	-3.649995e+01	-7.795303e+02
1.700000e-07	-5.199332e-06	-1.190565e-08	-3.628014e+01	-7.782311e+02
1.800000e-07	-5.165819e-06	-1.193866e-08	-3.604630e+01	-7.768788e+02
1.900000e-07	-5.130296e-06	-1.176217e-08	-3.579842e+01	-7.753788e+02
2.000000e-07	-5.093208e-06	-1.182982e-08	-3.553963e+01	-7.736515e+02
2.100000e-07	-5.054387e-06	-1.176311e-08	-3.526874e+01	-7.716640e+02
2.200000e-07	-5.013768e-06	-1.165635e-08	-3.498531e+01	-7.694434e+02
2.300000e-07	-4.971189e-06	-1.173967e-08	-3.468820e+01	-7.670657e+02
2.400000e-07	-4.926618e-06	-1.170037e-08	-3.437719e+01	-7.646256e+02
2.500000e-07	-4.880348e-06	-1.166493e-08	-3.405432e+01	-7.621985e+02
2.600000e-07	-4.832301e-06	-1.160870e-08	-3.371906e+01	-7.598120e+02
2.700000e-07	-4.782223e-06	-1.149592e-08	-3.336962e+01	-7.574359e+02
2.800000e-07	-4.730021e-06	-1.150072e-08	-3.300536e+01	-7.549971e+02
2.900000e-07	-4.675941e-06	-1.148020e-08	-3.262800e+01	-7.524106e+02
3.000000e-07	-4.620241e-06	-1.143268e-08	-3.223934e+01	-7.496143e+02
3.100000e-07	-4.562864e-06	-1.138862e-08	-3.183897e+01	-7.465931e+02
3.200000e-07	-4.503694e-06	-1.136536e-08	-3.142609e+01	-7.433815e+02
3.300000e-07	-4.442908e-06	-1.131624e-08	-3.100193e+01	-7.400458e+02
3.400000e-07	-4.380635e-06	-1.121128e-08	-3.056740e+01	-7.366526e+02
3.500000e-07	-4.316921e-06	-1.116477e-08	-3.012282e+01	-7.332390e+02
3.600000e-07	-4.251741e-06	-1.110501e-08	-2.966800e+01	-7.297961e+02
3.700000e-07	-4.184838e-06	-1.107652e-08	-2.920116e+01	-7.262734e+02
3.800000e-07	-4.116251e-06	-1.105819e-08	-2.872257e+01	-7.226017e+02
3.900000e-07	-4.046225e-06	-1.096335e-08	-2.823394e+01	-7.187233e+02
4.000000e-07	-3.974925e-06	-1.089540e-08	-2.773642e+01	-7.146176e+02
4.100000e-07	-3.902368e-06	-1.083165e-08	-2.723013e+01	-7.103086e+02
4.200000e-07	-3.828324e-06	-1.076631e-08	-2.671346e+01	-7.058529e+02
4.300000e-07	-3.752560e-06	-1.068583e-08	-2.618479e+01	-7.013130e+02
4.400000e-07	-3.675196e-06	-1.060867e-08	-2.564496e+01	-6.967275e+02
4.500000e-07	-3.596419e-06	-1.055810e-08	-2.509526e+01	-6.920916e+02
4.600000e-07	-3.516140e-06	-1.049447e-08	-2.453509e+01	-6.873578e+02
4.700000e-07	-3.434522e-06	-1.041868e-08	-2.396557e+01	-6.824541e+02
4.800000e-07	-3.351725e-06	-1.031497e-08	-2.338783e+01	-6.773150e+02
4.900000e-07	-3.267768e-06	-1.022404e-08	-2.280199e+01	-6.719086e+02
5.000000e-07	-3.182827e-06	-1.015286e-08	-2.220928e+01	-6.662498e+02
5.100000e-07	-3.096976e-06	-1.007392e-08	-2.161022e+01	-6.603927e+02
5.200000e-07	-3.010132e-06	-9.983890e-09	-2.100424e+01	-6.544056e+02
5.300000e-07	-2.922259e-06	-9.882259e-09	-2.039108e+01	-6.483397e+02
5.400000e-07	-2.833434e-06	-9.790599e-09	-1.977127e+01	-6.422055e+02
5.500000e-07	-2.743634e-06	-9.699215e-09	-1.914466e+01	-6.359657e+02
5.600000e-07	-2.652665e-06	-9.592285e-09	-1.850989e+01	-6.295507e+02
5.700000e-07	-2.560590e-06	-9.476792e-09	-1.786741e+01	-6.228868e+02
5.800000e-07	-2.467659e-06	-9.369603e-09	-1.721895e+01	-6.159258e+02
5.900000e-07	-2.373992e-06	-9.274480e-09	-1.656535e+01	-6.086636e+02
6.000000e-07	-2.279547e-06	-9.167512e-09	-1.590633e+01	-6.011369e+02
6.100000e-07	-2.184266e-06	-9.046059e-09	-1.524148e+01	-5.934018e+02
6.200000e-07	-2.088208e-06	-8.917508e-09	-1.457120e+01	-5.855027e+02
6.300000e-07	-1.991376e-06	-8.789528e-09	-1.389551e+01	-5.774459e+02
6.400000e-07	-1.893770e-06	-8.662771e-09	-1.321444e+01	-5.691904e+02
6.500000e-07	-1.795401e-06	-8.525953e-09	-1.252804e+01	-5.606607e+02
6.600000e-07	-1.696254e-06	-8.387012e-09	-1.183620e+01	-5.517757e+02
6.700000e-07	-1.596397e-06	-8.252668e-09	-1.113941e+01	-5.424819e+02
6.800000e-07	-1.495968e-06	-8.116449e-09	-1.043863e+01	-5.327728e+02
6.900000e-07	-1.395065e-06	-7.963810e-09	-9.734553e+00	-5.226884e+02
7.000000e-07	-1.293745e-06	-7.796152e-09	-9.027558e+00	-5.122900e+02
7.100000e-07	-1.192098e-06	-7.627070e-09	-8.318275e+00	-5.016243e+02
7.200000e-07	-1.090020e-06	-7.459088e-09	-7.605995e+00	-4.906907e+02
7.300000e-07	-9.875002e-07	-7.286006e-09	-6.890626e+00	-4.794290e+02
7.400000e-07	-8.846629e-07	-7.102621e-09	-6.173043e+00	-4.677344e+02
7.500000e-07	-7.815133e-07	-6.915264e-09	-5.453281e+00	-4.554937e+02
7.600000e-07	-6.780919e-07	-6.724675e-09	-4.731622e+00	-4.426289e+02
7.700000e-07	-5.745163e-07	-6.523066e-09	-4.008887e+00	-4.291262e+02
7.800000e-07	-4.707791e-07	-6.304980e-09	-3.285025e+00	-4.150359e+02
7.900000e-07	-3.668440e-07	-6.079029e-09	-2.559782e+00	-4.004401e+02
8.000000e-07	-2.628021e-07	-5.853251e-09	-1.833793e+00	-3.854005e+02
8.100000e-07	-1.586389e-07	-5.622100e-09	-1.106958e+00	-3.699072e+02
8.200000e-07	-5.441810e-08	-5.377122e-09	-3.797212e-01	-3.538547e+02
8.300000e-07	4.979506e-08	-5.114481e-09	3.474623e-01	-3.370573e+02
8.400000e-07	1.539427e-07	-4.839031e-09	1.074189e+00	-3.193014e+02
8.500000e-07	2.580020e-07	-4.551531e-09	1.800299e+00	-3.004141e+02
8.600000e-07	3.620077e-07	-4.248094e-09	2.526034e+00	-2.803143e+02
8.700000e-07	4.659038e-07	-3.926104e-09	3.251006e+00	-2.590168e+02
8.800000e-07	5.697017e-07	-3.589279e-09	3.975292e+00	-2.365769e+02
8.900000e-07	6.733204e-07	-3.235901e-09	4.698327e+00	-2.129854e+02
9.000000e-07	7.767178e-07	-2.854315e-09	5.419818e+00	-1.880508e+02
9.100000e-07	8.798980e-07	-2.435268e-09	6.139794e+00	-1.613198e+02
9.200000e-07	9.827692e-07	-1.976528e-09	6.857614e+00	-1.320799e+02
9.300000e-07	1.085281e-06	-1.475547e-09	7.572924e+00	-9.946831e+01
9.400000e-07	1.187364e-06	-9.185041e-10	8.285245e+00	-6.267541e+01
9.500000e-07	1.289018e-06	-2.898008e-10	8.994572e+00	-2.119340e+01
9.600000e-07	1.390306e-06	4.139997e-10	9.701345e+00	2.495876e+01
9.700000e-07	1.491239e-06	1.180998e-09	1.040564e+01	7.510682e+01
9.800000e-07	1.591643e-06	1.991862e-09	1.110624e+01	1.279376e+02
9.900000e-07	1.691378e-06	2.818833e-09	1.180218e+01	1.816689e+02
1.000000e-06	1.790435e-06	3.626431e-09	1.249338e+01	2.343359e+02
1.010000e-06	1.888750e-06	4.377736e-09	1.317941e+01	2.841230e+02
1.020000e-06	1.986297e-06	5.051704e-09	1.386008e+01	3.296548e+02
1.030000e-06	2.083067e-06	5.652435e-09	1.453532e+01	3.701755e+02
1.040000e-06	2.179067e-06	6.187027e-09	1.520520e+01	4.055778e+02
1.050000e-06	2.274354e-06	6.657357e-09	1.587010e+01	4.362889e+02
1.060000e-06	2.368934e-06	7.066499e-09	1.653006e+01	4.630607e+02
1.070000e-06	2.462744e-06	7.428189e-09	1.718465e+01	4.867318e+02
1.080000e-06	2.555773e-06	7.754473e-09	1.783379e+01	5.080312e+02
1.090000e-06	2.647948e-06	8.048985e-09	1.847698e+01	5.274681e+02
1.100000e-06	2.739104e-06	8.312991e-09	1.911305e+01	5.453217e+02
1.110000e-06	2.829095e-06	8.551795e-09	1.974099e+01	5.617068e+02
1.120000e-06	2.917942e-06	8.774673e-09	2.036095e+01	5.766753e+02
1.130000e-06	3.005781e-06	8.984403e-09	2.097388e+01	5.903049e+02
1.140000e-06	3.092692e-06	9.178069e-09	2.158033e+01	6.027447e+02
1.150000e-06	3.178608e-06	9.353835e-09	2.217984e+01	6.142059e+02
1.160000e-06	3.263478e-06	9.516399e-09	2.277205e+01	6.249137e+02
1.170000e-06	3.347278e-06	9.668448e-09	2.335680e+01	6.350485e+02
1.180000e-06	3.429890e-06	9.812566e-09	2.393325e+01	6.447046e+02
1.190000e-06	3.511179e-06	9.951203e-09	2.450047e+01	6.538855e+02
1.200000e-06	3.591180e-06	1.008374e-08	2.505871e+01	6.625353e+02
1.210000e-06	3.669958e-06	1.020795e-08	2.560841e+01	6.705914e+02
1.220000e-06	3.747466e-06	1.032271e-08	2.614924e+01	6.780334e+02
1.230000e-06	3.823611e-06	1.042791e-08	2.668057e+01	6.849093e+02
1.240000e-06	3.898176e-06	1.052522e-08	2.720088e+01	6.913280e+02
1.250000e-06	3.971124e-06	1.061721e-08	2.770990e+01	6.974245e+02
1.260000e-06	4.042645e-06	1.070479e-08	2.820896e+01	7.033149e+02
1.270000e-06	4.112827e-06	1.079012e-08	2.869868e+01	7.090604e+02
1.280000e-06	4.181662e-06	1.087491e-08	2.917900e+01	7.146559e+02
1.290000e-06	4.249016e-06	1.095882e-08	2.964899e+01	7.200467e+02
1.300000e-06	4.314677e-06	1.103930e-08	3.010715e+01	7.251637e+02
1.310000e-06	4.378747e-06	1.111204e-08	3.055423e+01	7.299616e+02
1.320000e-06	4.441412e-06	1.117635e-08	3.099150e+01	7.344424e+02
1.330000e-06	4.502692e-06	1.123656e-08	3.141910e+01	7.386554e+02
1.340000e-06	4.562493e-06	1.129623e-08	3.183638e+01	7.426753e+02
1.350000e-06	4.620550e-06	1.135630e-08	3.224149e+01	7.465693e+02
1.360000e-06	4.676838e-06	1.141573e-08	3.263426e+01	7.503682e+02
1.370000e-06	4.731468e-06	1.147383e-08	3.301546e+01	7.540560e+02
1.380000e-06	4.784289e-06	1.152993e-08	3.338404e+01	7.575804e+02
1.390000e-06	4.835040e-06	1.158104e-08	3.373817e+01	7.608804e+02
1.400000e-06	4.883790e-06	1.162609e-08	3.407834e+01	7.639174e+02
1.410000e-06	4.930839e-06	1.166475e-08	3.440664e+01	7.666953e+02
1.420000e-06	4.976275e-06	1.169977e-08	3.472369e+01	7.692613e+02
1.430000e-06	5.020024e-06	1.173578e-08	3.502896e+01	7.716860e+02
1.440000e-06	5.061874e-06	1.177403e-08	3.532098e+01	7.740336e+02
1.450000e-06	5.101879e-06	1.181299e-08	3.560014e+01	7.763337e+02
1.460000e-06	5.140216e-06	1.184879e-08	3.586764e+01	7.785696e+02
1.470000e-06	5.176888e-06	1.188138e-08	3.612353e+01	7.806863e+02
1.480000e-06	5.211674e-06	1.191132e-08	3.636627e+01	7.826168e+02
1.490000e-06	5.244502e-06	1.193722e-08	3.659533e+01	7.843134e+02
1.500000e-06	5.275594e-06	1.195756e-08	3.681229e+01	7.857712e+02
1.510000e-06	5.305015e-06	1.197552e-08	3.701758e+01	7.870325e+02
1.520000e-06	5.332547e-06	1.199473e-08	3.720970e+01	7.881708e+02
1.530000e-06	5.357958e-06	1.201487e-08	3.738701e+01	7.892603e+02
1.540000e-06	5.381392e-06	1.203356e-08	3.755053e+01	7.903454e+02
1.550000e-06	5.403094e-06	1.205032e-08	3.770196e+01	7.914222e+02
1.560000e-06	5.423082e-06	1.206630e-08	3.784144e+01	7.924413e+02
1.570000e-06	5.441102e-06	1.208050e-08	3.796718e+01	7.933302e+02
1.580000e-06	5.457025e-06	1.209121e-08	3.807828e+01	7.940260e+02
1.590000e-06	5.470935e-06	1.209816e-08	3.817535e+01	7.945040e+02
1.600000e-06	5.482741e-06	1.210328e-08	3.825773e+01	7.947899e+02
1.610000e-06	5.492354e-06	1.210702e-08	3.832481e+01	7.949505e+02
1.620000e-06	5.499993e-06	1.210986e-08	3.837811e+01	7.950661e+02
1.630000e-06	5.505831e-06	1.211333e-08	3.841885e+01	7.951972e+02
1.640000e-06	5.509798e-06	1.211702e-08	3.844653e+01	7.953599e+02
1.650000e-06	5.511729e-06	1.212300e-08	3.846000e+01	7.955190e+02
1.660000e-06	5.511724e-06	1.212767e-08	3.845997e+01	7.956044e+02
1.670000e-06	5.509988e-06	1.212130e-08	3.844785e+01	7.955413e+02
1.680000e-06	5.506580e-06	1.211324e-08	3.842407e+01	7.952823e+02
1.690000e-06	5.501235e-06	1.210528e-08	3.838678e+01	7.948277e+02
1.700000e-06	5.493977e-06	1.209825e-08	3.833613e+01	7.942247e+02
1.710000e-06	5.485140e-06	1.209168e-08	3.827447e+01	7.935470e+02
1.720000e-06	5.474558e-06	1.208919e-08	3.820063e+01	7.928622e+02
1.730000e-06	5.461931e-06	1.210688e-08	3.811252e+01	7.922031e+02
1.740000e-06	5.447324e-06	1.205732e-08	3.801060e+01	7.915541e+02
1.750000e-06	5.430637e-06	1.198281e-08	3.789416e+01	7.908590e+02
1.760000e-06	5.411320e-06	1.198871e-08	3.775936e+01	7.900471e+02
1.770000e-06	5.389344e-06	1.198469e-08	3.760602e+01	7.890655e+02
1.780000e-06	5.365434e-06	1.207485e-08	3.743918e+01	7.879040e+02
1.790000e-06	5.340620e-06	1.206101e-08	3.726603e+01	7.866012e+02
1.800000e-06	5.314926e-06	1.187916e-08	3.708674e+01	7.852281e+02
1.810000e-06	5.287109e-06	1.200100e-08	3.689264e+01	7.838571e+02
1.820000e-06	5.257060e-06	1.196264e-08	3.668296e+01	7.825285e+02
1.830000e-06	5.225549e-06	1.180169e-08	3.646308e+01	7.812299e+02
1.840000e-06	5.192166e-06	1.197395e-08	3.623014e+01	7.798969e+02
1.850000e-06	5.156993e-06	1.187438e-08	3.598471e+01	7.784364e+02
1.860000e-06	5.120090e-06	1.178482e-08	3.572720e+01	7.767626e+02
1.870000e-06	5.081031e-06	1.193893e-08	3.545466e+01	7.748308e+02
1.880000e-06	5.040328e-06	1.176793e-08	3.517064e+01	7.726551e+02
1.890000e-06	4.998006e-06	1.171147e-08	3.487532e+01	7.703033e+02
1.900000e-06	4.953810e-06	1.169744e-08	3.456693e+01	7.678690e+02
1.910000e-06	4.907919e-06	1.159444e-08	3.424671e+01	7.654351e+02
1.920000e-06	4.860076e-06	1.174104e-08	3.391287e+01	7.630406e+02
1.930000e-06	4.810471e-06	1.163439e-08	3.356673e+01	7.606675e+02
1.940000e-06	4.759124e-06	1.153991e-08	3.320844e+01	7.582495e+02
1.950000e-06	4.705595e-06	1.155882e-08	3.283492e+01	7.557012e+02
1.960000e-06	4.650277e-06	1.145627e-08	3.244892e+01	7.529531e+02
1.970000e-06	4.593297e-06	1.144492e-08	3.205133e+01	7.499788e+02
1.980000e-06	4.534778e-06	1.133962e-08	3.164299e+01	7.468032e+02
1.990000e-06	4.474712e-06	1.134905e-08	3.122385e+01	7.434880e+02
2.000000e-06	4.412788e-06	1.134136e-08	3.079176e+01	7.401028e+02
2.010000e-06	4.349305e-06	1.124229e-08	3.034878e+01	7.366927e+02
2.020000e-06	4.284343e-06	1.123635e-08	2.989549e+01	7.332593e+02
2.030000e-06	4.217937e-06	1.108969e-08	2.943212e+01	7.297595e+02
2.040000e-06	4.150000e-06	1.107418e-08	2.895807e+01	7.261255e+02
2.050000e-06	4.080273e-06	1.102941e-08	2.847152e+01	7.222948e+02
2.060000e-06	4.009076e-06	1.093413e-08	2.797472e+01	7.182374e+02
2.070000e-06	3.936577e-06	1.091510e-08	2.746883e+01	7.139680e+02
2.080000e-06	3.862713e-06	1.081616e-08	2.695342e+01	7.095383e+02
2.090000e-06	3.787303e-06	1.080132e-08	2.642722e+01	7.050121e+02
2.100000e-06	3.710244e-06	1.070005e-08	2.588952e+01	7.004352e+02
2.110000e-06	3.631682e-06	1.061273e-08	2.534132e+01	6.958130e+02
2.120000e-06	3.551785e-06	1.054259e-08	2.478381e+01	6.911059e+02
2.130000e-06	3.470791e-06	1.045740e-08	2.421865e+01	6.862449e+02
2.140000e-06	3.388692e-06	1.042181e-08	2.364577e+01	6.811606e+02
2.150000e-06	3.305469e-06	1.031032e-08	2.306506e+01	6.758119e+02
2.160000e-06	3.220983e-06	1.024151e-08	2.247553e+01	6.702038e+02
2.170000e-06	3.135116e-06	1.014472e-08	2.187636e+01	6.643835e+02
2.180000e-06	3.048064e-06	1.005492e-08	2.126892e+01	6.584190e+02
2.190000e-06	2.960050e-06	9.965570e-09	2.065478e+01	6.523677e+02
2.200000e-06	2.871156e-06	9.855219e-09	2.003449e+01	6.462498e+02
2.210000e-06	2.781300e-06	9.780388e-09	1.940748e+01	6.400378e+02
2.220000e-06	2.690530e-06	9.684019e-09	1.877411e+01	6.336671e+02
2.230000e-06	2.598891e-06	9.591283e-09	1.813467e+01	6.270619e+02
2.240000e-06	2.506277e-06	9.467569e-09	1.748842e+01	6.201666e+02
2.250000e-06	2.412573e-06	9.354108e-09	1.683457e+01	6.129671e+02
2.260000e-06	2.317904e-06	9.249257e-09	1.617398e+01	6.054927e+02
2.270000e-06	2.222470e-06	9.138538e-09	1.550806e+01	5.977977e+02
2.280000e-06	2.126302e-06	9.026974e-09	1.483701e+01	5.899318e+02
2.290000e-06	2.029405e-06	8.900236e-09	1.416088e+01	5.819108e+02
2.300000e-06	1.931843e-06	8.778171e-09	1.348010e+01	5.737035e+02
2.310000e-06	1.833755e-06	8.644497e-09	1.279567e+01	5.652398e+02
2.320000e-06	1.735121e-06	8.503726e-09	1.210741e+01	5.564370e+02
2.330000e-06	1.635901e-06	8.355384e-09	1.141507e+01	5.472331e+02
2.340000e-06	1.536112e-06	8.215078e-09	1.071875e+01	5.376111e+02
2.350000e-06	1.435748e-06	8.074242e-09	1.001843e+01	5.276023e+02
2.360000e-06	1.334812e-06	7.920998e-09	9.314112e+00	5.172663e+02
2.370000e-06	1.233323e-06	7.755996e-09	8.605937e+00	5.066560e+02
2.380000e-06	1.131343e-06	7.586837e-09	7.894336e+00	4.957830e+02
2.390000e-06	1.028844e-06	7.420021e-09	7.179113e+00	4.845995e+02
2.400000e-06	9.258418e-07	7.242360e-09	6.460383e+00	4.730077e+02
2.410000e-06	8.224617e-07	7.054534e-09	5.739012e+00	4.608925e+02
2.420000e-06	7.188409e-07	6.858223e-09	5.015962e+00	4.481651e+02
2.430000e-06	6.150453e-07	6.659170e-09	4.291692e+00	4.347969e+02
2.440000e-06	5.110668e-07	6.452752e-09	3.566146e+00	4.208260e+02
2.450000e-06	4.068965e-07	6.233944e-09	2.839262e+00	4.063319e+02
2.460000e-06	3.026483e-07	6.001464e-09	2.111834e+00	3.913852e+02
2.470000e-06	1.983218e-07	5.762208e-09	1.383859e+00	3.759948e+02
2.480000e-06	9.389403e-08	5.520130e-09	6.551782e-01	3.600758e+02
2.490000e-06	-1.052668e-08	5.266332e-09	-7.345359e-02	3.434561e+02
2.500000e-06	-1.149299e-07	4.995431e-09	-8.019632e-01	3.259227e+02
2.510000e-06	-2.192528e-07	4.707380e-09	-1.529912e+00	3.072884e+02
2.520000e-06	-3.234534e-07	4.409835e-09	-2.257009e+00	2.874500e+02
2.530000e-06	-4.275713e-07	4.098378e-09	-2.983527e+00	2.664047e+02
2.540000e-06	-5.315900e-07	3.761317e-09	-3.709354e+00	2.442065e+02
2.550000e-06	-6.354275e-07	3.398619e-09	-4.433916e+00	2.208701e+02
2.560000e-06	-7.390527e-07	3.018950e-09	-5.156997e+00	1.962520e+02
2.570000e-06	-8.424955e-07	2.619748e-09	-5.878805e+00	1.699582e+02
2.580000e-06	-9.456059e-07	2.184499e-09	-6.598294e+00	1.413260e+02
2.590000e-06	-1.048188e-06	1.698290e-09	-7.314097e+00	1.095107e+02
2.600000e-06	-1.150274e-06	1.153894e-09	-8.026438e+00	7.367074e+01
2.610000e-06	-1.251919e-06	5.468300e-10	-8.735702e+00	3.321280e+01
2.620000e-06	-1.353039e-06	-1.300350e-10	-9.441301e+00	-1.197212e+01
2.630000e-06	-1.453610e-06	-8.765777e-10	-1.014307e+01	-6.135420e+01
2.640000e-06	-1.553655e-06	-1.679130e-09	-1.084116e+01	-1.137478e+02
2.650000e-06	-1.653064e-06	-2.507938e-09	-1.153483e+01	-1.674502e+02
2.660000e-06	-1.751832e-06	-3.326973e-09	-1.222401e+01	-2.205081e+02
2.670000e-06	-1.850038e-06	-4.104370e-09	-1.290928e+01	-2.710467e+02
2.680000e-06	-1.947671e-06	-4.818095e-09	-1.359055e+01	-3.175765e+02
2.690000e-06	-2.044658e-06	-5.454989e-09	-1.426731e+01	-3.592011e+02
2.700000e-06	-2.140923e-06	-6.011534e-09	-1.493903e+01	-3.956796e+02
2.710000e-06	-2.236572e-06	-6.497429e-09	-1.560646e+01	-4.273399e+02
2.720000e-06	-2.331636e-06	-6.927042e-09	-1.626980e+01	-4.548847e+02
2.730000e-06	-2.425919e-06	-7.306737e-09	-1.692769e+01	-4.791527e+02
2.740000e-06	-2.519210e-06	-7.641978e-09	-1.757866e+01	-5.009090e+02
2.750000e-06	-2.611408e-06	-7.945407e-09	-1.822201e+01	-5.207142e+02
2.760000e-06	-2.702555e-06	-8.225530e-09	-1.885802e+01	-5.388932e+02
2.770000e-06	-2.792712e-06	-8.481988e-09	-1.948712e+01	-5.555879e+02
2.780000e-06	-2.881836e-06	-8.714048e-09	-2.010901e+01	-5.708552e+02
2.790000e-06	-2.970001e-06	-8.925704e-09	-2.072421e+01	-5.847617e+02
2.800000e-06	-3.057235e-06	-9.121717e-09	-2.133292e+01	-5.974402e+02
2.810000e-06	-3.143428e-06	-9.304664e-09	-2.193436e+01	-6.090915e+02
2.820000e-06	-3.228428e-06	-9.473549e-09	-2.252748e+01	-6.199431e+02
2.830000e-06	-3.312104e-06	-9.630217e-09	-2.311135e+01	-6.301894e+02
2.840000e-06	-3.394597e-06	-9.779824e-09	-2.368698e+01	-6.399449e+02
2.850000e-06	-3.476017e-06	-9.922233e-09	-2.425511e+01	-6.492309e+02
2.860000e-06	-3.556281e-06	-1.005534e-08	-2.481519e+01	-6.580003e+02
2.870000e-06	-3.635323e-06	-1.017720e-08	-2.536673e+01	-6.661872e+02
2.880000e-06	-3.713041e-06	-1.029124e-08	-2.590903e+01	-6.737592e+02
2.890000e-06	-3.789160e-06	-1.039964e-08	-2.644018e+01	-6.807488e+02
2.900000e-06	-3.863722e-06	-1.050055e-08	-2.696046e+01	-6.872542e+02
2.910000e-06	-3.936931e-06	-1.059559e-08	-2.747130e+01	-6.934086e+02
2.920000e-06	-4.008793e-06	-1.068875e-08	-2.797274e+01	-6.993357e+02
2.930000e-06	-4.079319e-06	-1.078118e-08	-2.846486e+01	-7.051103e+02
2.940000e-06	-4.148272e-06	-1.086759e-08	-2.894601e+01	-7.107412e+02
