# Temperatura_=_49.3
# Concentracion g/m^3_=_13400.0
# C_Vs_to_Am_M_A/Vsm_=_65563218390.804596
# pendiente_HvsI_1/m_=_3716.3
# ordenada_HvsI_A/m_=_1297.0
# frecuencia_Hz_=_300798.8718253397

Tiempo_(s)	Campo_(V.s)	Magnetizacion_(V.s)	Campo_(kA/m)	Magnetizacion_(A/m)
0.000000e+00	-5.503438e-06	-1.243663e-08	-3.830610e+01	-8.151219e+02
1.000000e-08	-5.501696e-06	-1.244098e-08	-3.829398e+01	-8.149594e+02
2.000000e-08	-5.498046e-06	-1.244174e-08	-3.826857e+01	-8.145822e+02
3.000000e-08	-5.492619e-06	-1.243398e-08	-3.823080e+01	-8.140187e+02
4.000000e-08	-5.485533e-06	-1.242114e-08	-3.818148e+01	-8.133394e+02
5.000000e-08	-5.476812e-06	-1.240772e-08	-3.812077e+01	-8.126265e+02
6.000000e-08	-5.466150e-06	-1.239358e-08	-3.804656e+01	-8.119386e+02
7.000000e-08	-5.453375e-06	-1.236881e-08	-3.795764e+01	-8.112842e+02
8.000000e-08	-5.438606e-06	-1.234942e-08	-3.785484e+01	-8.106176e+02
9.000000e-08	-5.421496e-06	-1.238849e-08	-3.773575e+01	-8.098578e+02
1.000000e-07	-5.402014e-06	-1.241330e-08	-3.760015e+01	-8.089244e+02
1.100000e-07	-5.380518e-06	-1.237779e-08	-3.745053e+01	-8.077728e+02
1.200000e-07	-5.357251e-06	-1.234277e-08	-3.728858e+01	-8.064160e+02
1.300000e-07	-5.332576e-06	-1.225014e-08	-3.711683e+01	-8.049216e+02
1.400000e-07	-5.306414e-06	-1.221168e-08	-3.693474e+01	-8.033856e+02
1.500000e-07	-5.278341e-06	-1.229095e-08	-3.673934e+01	-8.018925e+02
1.600000e-07	-5.248513e-06	-1.219559e-08	-3.653172e+01	-8.004796e+02
1.700000e-07	-5.217156e-06	-1.215827e-08	-3.631346e+01	-7.991190e+02
1.800000e-07	-5.183862e-06	-1.224292e-08	-3.608173e+01	-7.977259e+02
1.900000e-07	-5.148511e-06	-1.215297e-08	-3.583567e+01	-7.961895e+02
2.000000e-07	-5.111565e-06	-1.213571e-08	-3.557851e+01	-7.944140e+02
2.100000e-07	-5.072959e-06	-1.212176e-08	-3.530980e+01	-7.923541e+02
2.200000e-07	-5.032577e-06	-1.200632e-08	-3.502872e+01	-7.900289e+02
2.300000e-07	-4.990278e-06	-1.201186e-08	-3.473430e+01	-7.875116e+02
2.400000e-07	-4.945908e-06	-1.200832e-08	-3.442547e+01	-7.848974e+02
2.500000e-07	-4.899778e-06	-1.196225e-08	-3.410439e+01	-7.822655e+02
2.600000e-07	-4.851869e-06	-1.192600e-08	-3.377093e+01	-7.796484e+02
2.700000e-07	-4.801962e-06	-1.183624e-08	-3.342355e+01	-7.770231e+02
2.800000e-07	-4.749965e-06	-1.181491e-08	-3.306163e+01	-7.743248e+02
2.900000e-07	-4.696020e-06	-1.179172e-08	-3.268616e+01	-7.714776e+02
3.000000e-07	-4.640421e-06	-1.172342e-08	-3.229916e+01	-7.684273e+02
3.100000e-07	-4.583215e-06	-1.167300e-08	-3.190099e+01	-7.651639e+02
3.200000e-07	-4.524220e-06	-1.163898e-08	-3.149036e+01	-7.617225e+02
3.300000e-07	-4.463542e-06	-1.160727e-08	-3.106801e+01	-7.581654e+02
3.400000e-07	-4.401340e-06	-1.152525e-08	-3.063506e+01	-7.545523e+02
3.500000e-07	-4.337640e-06	-1.145621e-08	-3.019168e+01	-7.509131e+02
3.600000e-07	-4.272490e-06	-1.139708e-08	-2.973822e+01	-7.472344e+02
3.700000e-07	-4.205727e-06	-1.134495e-08	-2.927352e+01	-7.434667e+02
3.800000e-07	-4.137276e-06	-1.131295e-08	-2.879708e+01	-7.395461e+02
3.900000e-07	-4.067317e-06	-1.123425e-08	-2.831013e+01	-7.354233e+02
4.000000e-07	-3.996070e-06	-1.115860e-08	-2.781423e+01	-7.310840e+02
4.100000e-07	-3.923578e-06	-1.109842e-08	-2.730965e+01	-7.265538e+02
4.200000e-07	-3.849610e-06	-1.102916e-08	-2.679480e+01	-7.218841e+02
4.300000e-07	-3.773929e-06	-1.094939e-08	-2.626803e+01	-7.171266e+02
4.400000e-07	-3.696611e-06	-1.086127e-08	-2.572987e+01	-7.123076e+02
4.500000e-07	-3.617855e-06	-1.079812e-08	-2.518170e+01	-7.074144e+02
4.600000e-07	-3.537580e-06	-1.073385e-08	-2.462296e+01	-7.023994e+02
4.700000e-07	-3.455904e-06	-1.065478e-08	-2.405445e+01	-6.972005e+02
4.800000e-07	-3.373064e-06	-1.055910e-08	-2.347786e+01	-6.917685e+02
4.900000e-07	-3.289114e-06	-1.046172e-08	-2.289353e+01	-6.860885e+02
5.000000e-07	-3.204205e-06	-1.038167e-08	-2.230253e+01	-6.801860e+02
5.100000e-07	-3.118344e-06	-1.029651e-08	-2.170490e+01	-6.741134e+02
5.200000e-07	-3.031449e-06	-1.020179e-08	-2.110008e+01	-6.679252e+02
5.300000e-07	-2.943564e-06	-1.009929e-08	-2.048836e+01	-6.616501e+02
5.400000e-07	-2.854808e-06	-1.000262e-08	-1.987059e+01	-6.552753e+02
5.500000e-07	-2.765025e-06	-9.906308e-09	-1.924567e+01	-6.487490e+02
5.600000e-07	-2.673950e-06	-9.794143e-09	-1.861175e+01	-6.420014e+02
5.700000e-07	-2.581792e-06	-9.675775e-09	-1.797029e+01	-6.349735e+02
5.800000e-07	-2.488741e-06	-9.561645e-09	-1.732262e+01	-6.276420e+02
5.900000e-07	-2.394867e-06	-9.456973e-09	-1.666922e+01	-6.200278e+02
6.000000e-07	-2.300304e-06	-9.344472e-09	-1.601103e+01	-6.121833e+02
6.100000e-07	-2.204995e-06	-9.218063e-09	-1.534763e+01	-6.041646e+02
6.200000e-07	-2.108955e-06	-9.086422e-09	-1.467916e+01	-5.960003e+02
6.300000e-07	-2.012196e-06	-8.957279e-09	-1.400567e+01	-5.876716e+02
6.400000e-07	-1.914586e-06	-8.828493e-09	-1.332628e+01	-5.791137e+02
6.500000e-07	-1.816053e-06	-8.686721e-09	-1.264044e+01	-5.702390e+02
6.600000e-07	-1.716715e-06	-8.538246e-09	-1.194901e+01	-5.609715e+02
6.700000e-07	-1.616758e-06	-8.392077e-09	-1.125328e+01	-5.512787e+02
6.800000e-07	-1.516260e-06	-8.245063e-09	-1.055377e+01	-5.411835e+02
6.900000e-07	-1.415308e-06	-8.086026e-09	-9.851100e+00	-5.307510e+02
7.000000e-07	-1.313912e-06	-7.918368e-09	-9.145347e+00	-5.200539e+02
7.100000e-07	-1.212060e-06	-7.751942e-09	-8.436413e+00	-5.091310e+02
7.200000e-07	-1.109763e-06	-7.583635e-09	-7.724390e+00	-4.979578e+02
7.300000e-07	-1.007088e-06	-7.405341e-09	-7.009731e+00	-4.864443e+02
7.400000e-07	-9.040756e-07	-7.214071e-09	-6.292723e+00	-4.744619e+02
7.500000e-07	-8.007079e-07	-7.014562e-09	-5.573243e+00	-4.618902e+02
7.600000e-07	-6.970584e-07	-6.811605e-09	-4.851802e+00	-4.486630e+02
7.700000e-07	-5.931972e-07	-6.605025e-09	-4.128887e+00	-4.347913e+02
7.800000e-07	-4.891664e-07	-6.388588e-09	-3.404791e+00	-4.203511e+02
7.900000e-07	-3.850026e-07	-6.163694e-09	-2.679770e+00	-4.054373e+02
8.000000e-07	-2.807589e-07	-5.933807e-09	-1.954193e+00	-3.901021e+02
8.100000e-07	-1.764791e-07	-5.693742e-09	-1.228364e+00	-3.743048e+02
8.200000e-07	-7.213511e-08	-5.436236e-09	-5.020889e-01	-3.578972e+02
8.300000e-07	3.227642e-08	-5.162285e-09	2.246567e-01	-3.406550e+02
8.400000e-07	1.366987e-07	-4.878800e-09	9.514767e-01	-3.223463e+02
8.500000e-07	2.410722e-07	-4.584778e-09	1.677957e+00	-3.028060e+02
8.600000e-07	3.453568e-07	-4.273179e-09	2.403819e+00	-2.819817e+02
8.700000e-07	4.495158e-07	-3.940491e-09	3.128807e+00	-2.599202e+02
8.800000e-07	5.535538e-07	-3.589591e-09	3.852953e+00	-2.366872e+02
8.900000e-07	6.574623e-07	-3.219449e-09	4.576197e+00	-2.122416e+02
9.000000e-07	7.611585e-07	-2.818960e-09	5.297964e+00	-1.863104e+02
9.100000e-07	8.646437e-07	-2.376578e-09	6.018261e+00	-1.583214e+02
9.200000e-07	9.678319e-07	-1.888911e-09	6.736492e+00	-1.274370e+02
9.300000e-07	1.070634e-06	-1.355390e-09	7.452037e+00	-9.270593e+01
9.400000e-07	1.173039e-06	-7.629679e-10	8.164813e+00	-5.330788e+01
9.500000e-07	1.274996e-06	-9.367671e-11	8.874472e+00	-8.827666e+00
9.600000e-07	1.376568e-06	6.590613e-10	9.581460e+00	4.052049e+01
9.700000e-07	1.477741e-06	1.481142e-09	1.028566e+01	9.379380e+01
9.800000e-07	1.578408e-06	2.341798e-09	1.098634e+01	1.493894e+02
9.900000e-07	1.678584e-06	3.203383e-09	1.168360e+01	2.052749e+02
1.000000e-06	1.778175e-06	4.026564e-09	1.237680e+01	2.593287e+02
1.010000e-06	1.876978e-06	4.781217e-09	1.306451e+01	3.097009e+02
1.020000e-06	1.974949e-06	5.454361e-09	1.374642e+01	3.551056e+02
1.030000e-06	2.072087e-06	6.046748e-09	1.442254e+01	3.949695e+02
1.040000e-06	2.168418e-06	6.563591e-09	1.509304e+01	4.294126e+02
1.050000e-06	2.264039e-06	7.014463e-09	1.575860e+01	4.590797e+02
1.060000e-06	2.358935e-06	7.410088e-09	1.641912e+01	4.848875e+02
1.070000e-06	2.453064e-06	7.762260e-09	1.707429e+01	5.077639e+02
1.080000e-06	2.546417e-06	8.078213e-09	1.772407e+01	5.284535e+02
1.090000e-06	2.638952e-06	8.362526e-09	1.836815e+01	5.474287e+02
1.100000e-06	2.730558e-06	8.620873e-09	1.900576e+01	5.649101e+02
1.110000e-06	2.821033e-06	8.857604e-09	1.963550e+01	5.809610e+02
1.120000e-06	2.910302e-06	9.077431e-09	2.025685e+01	5.956071e+02
1.130000e-06	2.998530e-06	9.281582e-09	2.087095e+01	6.089289e+02
1.140000e-06	3.085817e-06	9.469949e-09	2.147850e+01	6.210972e+02
1.150000e-06	3.172100e-06	9.642796e-09	2.207907e+01	6.323491e+02
1.160000e-06	3.257324e-06	9.803239e-09	2.267226e+01	6.429255e+02
1.170000e-06	3.341507e-06	9.954331e-09	2.325821e+01	6.530038e+02
1.180000e-06	3.424512e-06	1.009961e-08	2.383596e+01	6.626590e+02
1.190000e-06	3.506223e-06	1.024031e-08	2.440470e+01	6.718670e+02
1.200000e-06	3.586674e-06	1.037298e-08	2.496466e+01	6.805480e+02
1.210000e-06	3.665857e-06	1.049508e-08	2.551581e+01	6.886269e+02
1.220000e-06	3.743735e-06	1.060870e-08	2.605788e+01	6.960860e+02
1.230000e-06	3.820239e-06	1.071563e-08	2.659037e+01	7.029861e+02
1.240000e-06	3.895197e-06	1.081380e-08	2.711211e+01	7.094518e+02
1.250000e-06	3.968547e-06	1.090516e-08	2.762266e+01	7.156277e+02
1.260000e-06	4.040442e-06	1.099496e-08	2.812307e+01	7.216287e+02
1.270000e-06	4.110950e-06	1.108445e-08	2.861384e+01	7.275044e+02
1.280000e-06	4.180118e-06	1.117073e-08	2.909527e+01	7.332330e+02
1.290000e-06	4.247868e-06	1.125288e-08	2.956684e+01	7.387455e+02
1.300000e-06	4.313947e-06	1.133367e-08	3.002677e+01	7.439669e+02
1.310000e-06	4.378380e-06	1.141233e-08	3.047525e+01	7.488570e+02
1.320000e-06	4.441370e-06	1.148143e-08	3.091369e+01	7.534308e+02
1.330000e-06	4.502972e-06	1.154109e-08	3.134246e+01	7.577533e+02
1.340000e-06	4.563237e-06	1.159931e-08	3.176193e+01	7.619096e+02
1.350000e-06	4.621854e-06	1.166145e-08	3.216993e+01	7.659681e+02
1.360000e-06	4.678600e-06	1.172479e-08	3.256490e+01	7.699510e+02
1.370000e-06	4.733644e-06	1.178372e-08	3.294803e+01	7.738273e+02
1.380000e-06	4.786942e-06	1.183843e-08	3.331900e+01	7.775295e+02
1.390000e-06	4.838250e-06	1.189173e-08	3.367613e+01	7.809873e+02
1.400000e-06	4.887534e-06	1.194450e-08	3.401917e+01	7.841614e+02
1.410000e-06	4.935029e-06	1.199012e-08	3.434975e+01	7.870634e+02
1.420000e-06	4.980904e-06	1.202666e-08	3.466906e+01	7.897518e+02
1.430000e-06	5.025112e-06	1.206304e-08	3.497676e+01	7.923075e+02
1.440000e-06	5.067419e-06	1.210327e-08	3.527123e+01	7.947988e+02
1.450000e-06	5.107852e-06	1.214265e-08	3.555267e+01	7.972523e+02
1.460000e-06	5.146591e-06	1.217589e-08	3.582231e+01	7.996423e+02
1.470000e-06	5.183674e-06	1.220942e-08	3.608042e+01	8.019038e+02
1.480000e-06	5.218897e-06	1.224703e-08	3.632559e+01	8.039626e+02
1.490000e-06	5.252100e-06	1.228206e-08	3.655669e+01	8.057700e+02
1.500000e-06	5.283471e-06	1.230661e-08	3.677504e+01	8.073253e+02
1.510000e-06	5.313210e-06	1.232048e-08	3.698204e+01	8.086786e+02
1.520000e-06	5.341193e-06	1.233527e-08	3.717681e+01	8.099096e+02
1.530000e-06	5.367054e-06	1.235593e-08	3.735681e+01	8.110945e+02
1.540000e-06	5.390847e-06	1.237661e-08	3.752243e+01	8.122742e+02
1.550000e-06	5.412851e-06	1.239245e-08	3.767558e+01	8.134374e+02
1.560000e-06	5.433134e-06	1.240922e-08	3.781676e+01	8.145272e+02
1.570000e-06	5.451534e-06	1.243015e-08	3.794483e+01	8.154675e+02
1.580000e-06	5.467886e-06	1.244617e-08	3.805864e+01	8.161974e+02
1.590000e-06	5.482216e-06	1.245133e-08	3.815839e+01	8.166998e+02
1.600000e-06	5.494407e-06	1.245130e-08	3.824324e+01	8.170099e+02
1.610000e-06	5.504396e-06	1.245448e-08	3.831277e+01	8.172012e+02
1.620000e-06	5.512389e-06	1.246081e-08	3.836840e+01	8.173548e+02
1.630000e-06	5.518575e-06	1.246479e-08	3.841146e+01	8.175245e+02
1.640000e-06	5.522904e-06	1.246631e-08	3.844159e+01	8.177144e+02
1.650000e-06	5.525210e-06	1.247194e-08	3.845764e+01	8.178774e+02
1.660000e-06	5.525549e-06	1.248044e-08	3.846000e+01	8.179363e+02
1.670000e-06	5.524105e-06	1.247802e-08	3.844995e+01	8.178181e+02
1.680000e-06	5.520958e-06	1.246580e-08	3.842804e+01	8.174863e+02
1.690000e-06	5.515958e-06	1.245309e-08	3.839324e+01	8.169578e+02
1.700000e-06	5.509035e-06	1.244391e-08	3.834506e+01	8.162962e+02
1.710000e-06	5.500362e-06	1.243686e-08	3.828469e+01	8.155842e+02
1.720000e-06	5.489970e-06	1.243037e-08	3.821236e+01	8.148883e+02
1.730000e-06	5.477618e-06	1.244011e-08	3.812638e+01	8.142288e+02
1.740000e-06	5.463288e-06	1.242234e-08	3.802664e+01	8.135708e+02
1.750000e-06	5.446969e-06	1.235001e-08	3.791305e+01	8.128384e+02
1.760000e-06	5.428068e-06	1.232823e-08	3.778150e+01	8.119476e+02
1.770000e-06	5.406343e-06	1.231959e-08	3.763028e+01	8.108436e+02
1.780000e-06	5.382617e-06	1.235562e-08	3.746514e+01	8.095267e+02
1.790000e-06	5.357906e-06	1.239663e-08	3.729314e+01	8.080541e+02
1.800000e-06	5.332362e-06	1.225627e-08	3.711534e+01	8.065188e+02
1.810000e-06	5.304890e-06	1.226446e-08	3.692412e+01	8.050113e+02
1.820000e-06	5.275063e-06	1.231679e-08	3.671652e+01	8.035812e+02
1.830000e-06	5.243666e-06	1.217332e-08	3.649799e+01	8.022149e+02
1.840000e-06	5.210524e-06	1.222354e-08	3.626730e+01	8.008378e+02
1.850000e-06	5.175580e-06	1.222159e-08	3.602408e+01	7.993412e+02
1.860000e-06	5.138953e-06	1.208917e-08	3.576914e+01	7.976229e+02
1.870000e-06	5.100149e-06	1.217995e-08	3.549905e+01	7.956245e+02
1.880000e-06	5.059561e-06	1.213519e-08	3.521654e+01	7.933514e+02
1.890000e-06	5.017438e-06	1.202935e-08	3.492335e+01	7.908673e+02
1.900000e-06	4.973413e-06	1.201442e-08	3.461692e+01	7.882661e+02
1.910000e-06	4.927618e-06	1.191195e-08	3.429817e+01	7.856333e+02
1.920000e-06	4.879975e-06	1.196992e-08	3.396655e+01	7.830131e+02
1.930000e-06	4.830516e-06	1.193773e-08	3.362230e+01	7.803939e+02
1.940000e-06	4.779308e-06	1.181987e-08	3.326587e+01	7.777178e+02
1.950000e-06	4.725984e-06	1.184007e-08	3.289472e+01	7.749082e+02
1.960000e-06	4.670872e-06	1.176601e-08	3.251112e+01	7.719039e+02
1.970000e-06	4.614122e-06	1.172182e-08	3.211611e+01	7.686845e+02
1.980000e-06	4.555713e-06	1.163656e-08	3.170956e+01	7.652765e+02
1.990000e-06	4.495738e-06	1.157347e-08	3.129211e+01	7.617386e+02
2.000000e-06	4.434001e-06	1.158383e-08	3.086240e+01	7.581336e+02
2.010000e-06	4.370695e-06	1.150032e-08	3.042176e+01	7.544995e+02
2.020000e-06	4.305792e-06	1.147577e-08	2.997001e+01	7.508325e+02
2.030000e-06	4.239402e-06	1.137876e-08	2.950791e+01	7.470891e+02
2.040000e-06	4.171586e-06	1.131145e-08	2.903589e+01	7.432063e+02
2.050000e-06	4.101979e-06	1.128237e-08	2.855139e+01	7.391294e+02
2.060000e-06	4.030832e-06	1.117620e-08	2.805618e+01	7.348355e+02
2.070000e-06	3.958408e-06	1.113284e-08	2.755208e+01	7.303424e+02
2.080000e-06	3.884622e-06	1.104860e-08	2.703851e+01	7.256978e+02
2.090000e-06	3.809259e-06	1.100938e-08	2.651394e+01	7.209556e+02
2.100000e-06	3.732112e-06	1.094230e-08	2.597697e+01	7.161495e+02
2.110000e-06	3.653454e-06	1.083741e-08	2.542948e+01	7.112752e+02
2.120000e-06	3.573575e-06	1.076709e-08	2.487349e+01	7.062914e+02
2.130000e-06	3.492522e-06	1.067091e-08	2.430933e+01	7.011368e+02
2.140000e-06	3.410323e-06	1.061872e-08	2.373720e+01	6.957573e+02
2.150000e-06	3.327066e-06	1.052363e-08	2.315769e+01	6.901297e+02
2.160000e-06	3.242535e-06	1.043063e-08	2.256932e+01	6.842709e+02
2.170000e-06	3.156577e-06	1.033890e-08	2.197102e+01	6.782298e+02
2.180000e-06	3.069497e-06	1.024247e-08	2.136491e+01	6.720627e+02
2.190000e-06	2.981456e-06	1.015984e-08	2.075211e+01	6.658057e+02
2.200000e-06	2.892467e-06	1.004971e-08	2.013271e+01	6.594554e+02
2.210000e-06	2.802564e-06	9.961385e-09	1.950695e+01	6.529673e+02
2.220000e-06	2.711813e-06	9.864714e-09	1.887529e+01	6.462728e+02
2.230000e-06	2.620140e-06	9.763706e-09	1.823721e+01	6.393084e+02
2.240000e-06	2.527308e-06	9.641945e-09	1.759106e+01	6.320416e+02
2.250000e-06	2.433385e-06	9.516177e-09	1.693732e+01	6.244843e+02
2.260000e-06	2.338651e-06	9.408599e-09	1.627794e+01	6.166840e+02
2.270000e-06	2.243177e-06	9.297037e-09	1.561340e+01	6.086988e+02
2.280000e-06	2.146929e-06	9.180401e-09	1.494347e+01	6.005655e+02
2.290000e-06	2.049950e-06	9.046745e-09	1.426846e+01	5.922761e+02
2.300000e-06	1.952249e-06	8.914616e-09	1.358843e+01	5.837744e+02
2.310000e-06	1.853962e-06	8.780885e-09	1.290431e+01	5.749748e+02
2.320000e-06	1.755237e-06	8.639947e-09	1.221714e+01	5.657960e+02
2.330000e-06	1.656047e-06	8.490903e-09	1.152674e+01	5.561942e+02
2.340000e-06	1.556231e-06	8.341845e-09	1.083198e+01	5.461808e+02
2.350000e-06	1.455706e-06	8.194212e-09	1.013229e+01	5.358140e+02
2.360000e-06	1.354466e-06	8.036242e-09	9.427616e+00	5.251686e+02
2.370000e-06	1.252630e-06	7.865383e-09	8.718800e+00	5.142937e+02
2.380000e-06	1.150326e-06	7.687683e-09	8.006726e+00	5.031796e+02
2.390000e-06	1.047591e-06	7.513683e-09	7.291649e+00	4.917492e+02
2.400000e-06	9.444729e-07	7.338158e-09	6.573904e+00	4.798784e+02
2.410000e-06	8.410319e-07	7.154043e-09	5.853914e+00	4.674409e+02
2.420000e-06	7.373219e-07	6.957036e-09	5.132051e+00	4.543559e+02
2.430000e-06	6.333561e-07	6.748044e-09	4.408408e+00	4.406176e+02
2.440000e-06	5.292060e-07	6.530168e-09	3.683483e+00	4.262909e+02
2.450000e-06	4.248814e-07	6.304661e-09	2.957342e+00	4.114717e+02
2.460000e-06	3.204047e-07	6.069999e-09	2.230143e+00	3.962265e+02
2.470000e-06	2.158333e-07	5.828136e-09	1.502285e+00	3.805372e+02
2.480000e-06	1.112468e-07	5.581069e-09	7.743216e-01	3.642775e+02
2.490000e-06	6.635508e-09	5.322748e-09	4.618576e-02	3.472346e+02
2.500000e-06	-9.799119e-08	5.045886e-09	-6.820574e-01	3.291715e+02
2.510000e-06	-2.025798e-07	4.749224e-09	-1.410035e+00	3.099036e+02
2.520000e-06	-3.070940e-07	4.438068e-09	-2.137495e+00	2.893531e+02
2.530000e-06	-4.114994e-07	4.111805e-09	-2.864198e+00	2.675501e+02
2.540000e-06	-5.157813e-07	3.763413e-09	-3.590041e+00	2.445658e+02
2.550000e-06	-6.199139e-07	3.391958e-09	-4.314845e+00	2.203934e+02
2.560000e-06	-7.238246e-07	3.000850e-09	-5.038105e+00	1.948183e+02
2.570000e-06	-8.274457e-07	2.581347e-09	-5.759348e+00	1.673332e+02
2.580000e-06	-9.307330e-07	2.120805e-09	-6.478269e+00	1.371486e+02
2.590000e-06	-1.033621e-06	1.607091e-09	-7.194413e+00	1.033195e+02
2.600000e-06	-1.136118e-06	1.030206e-09	-7.907830e+00	6.497428e+01
2.610000e-06	-1.238242e-06	3.836262e-10	-8.618653e+00	2.158901e+01
2.620000e-06	-1.339866e-06	-3.406597e-10	-9.325995e+00	-2.677045e+01
2.630000e-06	-1.440892e-06	-1.140963e-09	-1.002918e+01	-7.931767e+01
2.640000e-06	-1.541272e-06	-1.993488e-09	-1.072786e+01	-1.345768e+02
2.650000e-06	-1.640924e-06	-2.859832e-09	-1.142148e+01	-1.905815e+02
2.660000e-06	-1.739956e-06	-3.702127e-09	-1.211078e+01	-2.451979e+02
2.670000e-06	-1.838487e-06	-4.489092e-09	-1.279659e+01	-2.964900e+02
2.680000e-06	-1.936447e-06	-5.199736e-09	-1.347844e+01	-3.430326e+02
2.690000e-06	-2.033666e-06	-5.823984e-09	-1.415512e+01	-3.840957e+02
2.700000e-06	-2.130187e-06	-6.365997e-09	-1.482694e+01	-4.196604e+02
2.710000e-06	-2.226100e-06	-6.840238e-09	-1.549453e+01	-4.502790e+02
2.720000e-06	-2.321344e-06	-7.259777e-09	-1.615747e+01	-4.768325e+02
2.730000e-06	-2.415898e-06	-7.629564e-09	-1.681561e+01	-5.002660e+02
2.740000e-06	-2.509616e-06	-7.957429e-09	-1.746792e+01	-5.213748e+02
2.750000e-06	-2.602288e-06	-8.252477e-09	-1.811295e+01	-5.406914e+02
2.760000e-06	-2.693852e-06	-8.520570e-09	-1.875027e+01	-5.584841e+02
2.770000e-06	-2.784389e-06	-8.765606e-09	-1.938045e+01	-5.748398e+02
2.780000e-06	-2.873958e-06	-8.990229e-09	-2.000388e+01	-5.897831e+02
2.790000e-06	-2.962507e-06	-9.198597e-09	-2.062022e+01	-6.033774e+02
2.800000e-06	-3.050071e-06	-9.394757e-09	-2.122969e+01	-6.157744e+02
2.810000e-06	-3.136683e-06	-9.577036e-09	-2.183255e+01	-6.272015e+02
2.820000e-06	-3.222135e-06	-9.743922e-09	-2.242733e+01	-6.379047e+02
2.830000e-06	-3.306233e-06	-9.899967e-09	-2.301269e+01	-6.480798e+02
2.840000e-06	-3.389095e-06	-1.005037e-08	-2.358944e+01	-6.578247e+02
2.850000e-06	-3.470859e-06	-1.019086e-08	-2.415855e+01	-6.671343e+02
2.860000e-06	-3.551476e-06	-1.031807e-08	-2.471967e+01	-6.759357e+02
2.870000e-06	-3.630916e-06	-1.043654e-08	-2.527261e+01	-6.841477e+02
2.880000e-06	-3.709049e-06	-1.055237e-08	-2.581645e+01	-6.917372e+02
2.890000e-06	-3.785599e-06	-1.066508e-08	-2.634926e+01	-6.987484e+02
2.900000e-06	-3.860562e-06	-1.076820e-08	-2.687103e+01	-7.052948e+02
2.910000e-06	-3.934111e-06	-1.086414e-08	-2.738297e+01	-7.115215e+02
2.920000e-06	-4.006302e-06	-1.096097e-08	-2.788545e+01	-7.175533e+02
2.930000e-06	-4.077197e-06	-1.105650e-08	-2.837890e+01	-7.234555e+02
2.940000e-06	-4.146612e-06	-1.114269e-08	-2.886206e+01	-7.292204e+02
