# Temperatura_=_63.78
# Concentracion g/m^3_=_13400.0
# C_Vs_to_Am_M_A/Vsm_=_65563218390.804596
# pendiente_HvsI_1/m_=_3716.3
# ordenada_HvsI_A/m_=_1297.0
# frecuencia_Hz_=_300796.55217432097

Tiempo_(s)	Campo_(V.s)	Magnetizacion_(V.s)	Campo_(kA/m)	Magnetizacion_(A/m)
0.000000e+00	-5.499052e-06	-1.257925e-08	-3.830908e+01	-8.254245e+02
1.000000e-08	-5.497058e-06	-1.258064e-08	-3.829519e+01	-8.252580e+02
2.000000e-08	-5.493098e-06	-1.257403e-08	-3.826760e+01	-8.248686e+02
3.000000e-08	-5.487415e-06	-1.256412e-08	-3.822802e+01	-8.242817e+02
4.000000e-08	-5.480106e-06	-1.255083e-08	-3.817709e+01	-8.235620e+02
5.000000e-08	-5.471147e-06	-1.253239e-08	-3.811468e+01	-8.227844e+02
6.000000e-08	-5.460226e-06	-1.251380e-08	-3.803860e+01	-8.220008e+02
7.000000e-08	-5.447187e-06	-1.248822e-08	-3.794777e+01	-8.212187e+02
8.000000e-08	-5.432116e-06	-1.247946e-08	-3.784278e+01	-8.204010e+02
9.000000e-08	-5.414670e-06	-1.253111e-08	-3.772124e+01	-8.194853e+02
1.000000e-07	-5.394901e-06	-1.253736e-08	-3.758352e+01	-8.184147e+02
1.100000e-07	-5.373156e-06	-1.249276e-08	-3.743203e+01	-8.171658e+02
1.200000e-07	-5.349655e-06	-1.245668e-08	-3.726831e+01	-8.157605e+02
1.300000e-07	-5.324773e-06	-1.233981e-08	-3.709497e+01	-8.142572e+02
1.400000e-07	-5.298397e-06	-1.234022e-08	-3.691122e+01	-8.127243e+02
1.500000e-07	-5.270118e-06	-1.241606e-08	-3.671422e+01	-8.112083e+02
1.600000e-07	-5.240115e-06	-1.227750e-08	-3.650520e+01	-8.097103e+02
1.700000e-07	-5.208545e-06	-1.230368e-08	-3.628527e+01	-8.081813e+02
1.800000e-07	-5.175002e-06	-1.236804e-08	-3.605159e+01	-8.065391e+02
1.900000e-07	-5.139456e-06	-1.223168e-08	-3.580396e+01	-8.046999e+02
2.000000e-07	-5.102353e-06	-1.225859e-08	-3.554548e+01	-8.026104e+02
2.100000e-07	-5.063529e-06	-1.220704e-08	-3.527502e+01	-8.002680e+02
2.200000e-07	-5.022929e-06	-1.208147e-08	-3.499218e+01	-7.977200e+02
2.300000e-07	-4.980414e-06	-1.212896e-08	-3.469600e+01	-7.950428e+02
2.400000e-07	-4.935877e-06	-1.210265e-08	-3.438573e+01	-7.923100e+02
2.500000e-07	-4.889571e-06	-1.206557e-08	-3.406314e+01	-7.895632e+02
2.600000e-07	-4.841420e-06	-1.202397e-08	-3.372770e+01	-7.867980e+02
2.700000e-07	-4.791242e-06	-1.191555e-08	-3.337813e+01	-7.839700e+02
2.800000e-07	-4.738993e-06	-1.190742e-08	-3.301415e+01	-7.810177e+02
2.900000e-07	-4.684857e-06	-1.186942e-08	-3.263700e+01	-7.778917e+02
3.000000e-07	-4.629059e-06	-1.179270e-08	-3.224829e+01	-7.745766e+02
3.100000e-07	-4.571640e-06	-1.174619e-08	-3.184828e+01	-7.710964e+02
3.200000e-07	-4.512365e-06	-1.172388e-08	-3.143534e+01	-7.675007e+02
3.300000e-07	-4.451435e-06	-1.169038e-08	-3.101087e+01	-7.638395e+02
3.400000e-07	-4.389083e-06	-1.158914e-08	-3.057650e+01	-7.601373e+02
3.500000e-07	-4.325259e-06	-1.152016e-08	-3.013187e+01	-7.563795e+02
3.600000e-07	-4.259980e-06	-1.145075e-08	-2.967711e+01	-7.525165e+02
3.700000e-07	-4.192985e-06	-1.140264e-08	-2.921038e+01	-7.484855e+02
3.800000e-07	-4.124280e-06	-1.137828e-08	-2.873175e+01	-7.442378e+02
3.900000e-07	-4.054123e-06	-1.128922e-08	-2.824300e+01	-7.397615e+02
4.000000e-07	-3.982660e-06	-1.121649e-08	-2.774516e+01	-7.350868e+02
4.100000e-07	-3.909985e-06	-1.114647e-08	-2.723887e+01	-7.302728e+02
4.200000e-07	-3.835807e-06	-1.106701e-08	-2.672210e+01	-7.253801e+02
4.300000e-07	-3.759887e-06	-1.097782e-08	-2.619321e+01	-7.204415e+02
4.400000e-07	-3.682387e-06	-1.089199e-08	-2.565331e+01	-7.154452e+02
4.500000e-07	-3.603493e-06	-1.083923e-08	-2.510369e+01	-7.103367e+02
4.600000e-07	-3.523107e-06	-1.077098e-08	-2.454369e+01	-7.050407e+02
4.700000e-07	-3.441312e-06	-1.068661e-08	-2.397386e+01	-6.994928e+02
4.800000e-07	-3.358320e-06	-1.058020e-08	-2.339570e+01	-6.936670e+02
4.900000e-07	-3.274255e-06	-1.047591e-08	-2.281006e+01	-6.875868e+02
5.000000e-07	-3.189305e-06	-1.039135e-08	-2.221826e+01	-6.813141e+02
5.100000e-07	-3.103402e-06	-1.030024e-08	-2.161982e+01	-6.749207e+02
5.200000e-07	-3.016413e-06	-1.020466e-08	-2.101381e+01	-6.684542e+02
5.300000e-07	-2.928450e-06	-1.010260e-08	-2.040101e+01	-6.619143e+02
5.400000e-07	-2.839678e-06	-1.000257e-08	-1.978259e+01	-6.552505e+02
5.500000e-07	-2.749865e-06	-9.896704e-09	-1.915690e+01	-6.483814e+02
5.600000e-07	-2.658721e-06	-9.772879e-09	-1.852195e+01	-6.412304e+02
5.700000e-07	-2.566471e-06	-9.648444e-09	-1.787929e+01	-6.337582e+02
5.800000e-07	-2.473432e-06	-9.537452e-09	-1.723114e+01	-6.259805e+02
5.900000e-07	-2.379625e-06	-9.434930e-09	-1.657763e+01	-6.179601e+02
6.000000e-07	-2.284968e-06	-9.317421e-09	-1.591821e+01	-6.097765e+02
6.100000e-07	-2.189541e-06	-9.183682e-09	-1.525341e+01	-6.014858e+02
6.200000e-07	-2.093452e-06	-9.044392e-09	-1.458401e+01	-5.930896e+02
6.300000e-07	-1.996650e-06	-8.907873e-09	-1.390964e+01	-5.845268e+02
6.400000e-07	-1.899028e-06	-8.772887e-09	-1.322956e+01	-5.756935e+02
6.500000e-07	-1.800461e-06	-8.629209e-09	-1.254289e+01	-5.664838e+02
6.600000e-07	-1.701023e-06	-8.483627e-09	-1.185016e+01	-5.568339e+02
6.700000e-07	-1.600957e-06	-8.339062e-09	-1.115305e+01	-5.467486e+02
6.800000e-07	-1.500466e-06	-8.187451e-09	-1.045298e+01	-5.362977e+02
6.900000e-07	-1.399618e-06	-8.020353e-09	-9.750420e+00	-5.255813e+02
7.000000e-07	-1.298270e-06	-7.846808e-09	-9.044383e+00	-5.146787e+02
7.100000e-07	-1.196436e-06	-7.675931e-09	-8.334961e+00	-5.036011e+02
7.200000e-07	-1.094183e-06	-7.502467e-09	-7.622616e+00	-4.922729e+02
7.300000e-07	-9.915237e-07	-7.319731e-09	-6.907439e+00	-4.805493e+02
7.400000e-07	-8.884871e-07	-7.126387e-09	-6.189635e+00	-4.682676e+02
7.500000e-07	-7.850846e-07	-6.927490e-09	-5.469283e+00	-4.553092e+02
7.600000e-07	-6.814066e-07	-6.723249e-09	-4.747012e+00	-4.416467e+02
7.700000e-07	-5.775812e-07	-6.509087e-09	-4.023713e+00	-4.273514e+02
7.800000e-07	-4.736634e-07	-6.283925e-09	-3.299771e+00	-4.125549e+02
7.900000e-07	-3.695825e-07	-6.054630e-09	-2.574693e+00	-3.973787e+02
8.000000e-07	-2.653519e-07	-5.822051e-09	-1.848571e+00	-3.818580e+02
8.100000e-07	-1.610632e-07	-5.577554e-09	-1.122045e+00	-3.658964e+02
8.200000e-07	-5.674226e-08	-5.315365e-09	-3.952943e-01	-3.492732e+02
8.300000e-07	4.758771e-08	-5.036997e-09	3.315192e-01	-3.317053e+02
8.400000e-07	1.518960e-07	-4.749510e-09	1.058182e+00	-3.129410e+02
8.500000e-07	2.561502e-07	-4.450990e-09	1.784468e+00	-2.928429e+02
8.600000e-07	3.603130e-07	-4.133167e-09	2.510117e+00	-2.714197e+02
8.700000e-07	4.643700e-07	-3.790007e-09	3.235028e+00	-2.487787e+02
8.800000e-07	5.682929e-07	-3.423870e-09	3.959006e+00	-2.250060e+02
8.900000e-07	6.720543e-07	-3.038010e-09	4.681859e+00	-2.000121e+02
9.000000e-07	7.756400e-07	-2.624562e-09	5.403487e+00	-1.734041e+02
9.100000e-07	8.789753e-07	-2.170081e-09	6.123371e+00	-1.444473e+02
9.200000e-07	9.819700e-07	-1.667377e-09	6.840883e+00	-1.121550e+02
9.300000e-07	1.084593e-06	-1.110826e-09	7.555808e+00	-7.550539e+01
9.400000e-07	1.186836e-06	-4.844727e-10	8.268083e+00	-3.373658e+01
9.500000e-07	1.288699e-06	2.279274e-10	8.977710e+00	1.336198e+01
9.600000e-07	1.390162e-06	1.027204e-09	9.684548e+00	6.525284e+01
9.700000e-07	1.491174e-06	1.886903e-09	1.038825e+01	1.206190e+02
9.800000e-07	1.591714e-06	2.766943e-09	1.108866e+01	1.775218e+02
9.900000e-07	1.691726e-06	3.627859e-09	1.178539e+01	2.337162e+02
1.000000e-06	1.791066e-06	4.434523e-09	1.247744e+01	2.870446e+02
1.010000e-06	1.889638e-06	5.159337e-09	1.316414e+01	3.358056e+02
1.020000e-06	1.987405e-06	5.792977e-09	1.384524e+01	3.790028e+02
1.030000e-06	2.084330e-06	6.346884e-09	1.452046e+01	4.164177e+02
1.040000e-06	2.180439e-06	6.833997e-09	1.519000e+01	4.485017e+02
1.050000e-06	2.275834e-06	7.261900e-09	1.585457e+01	4.761362e+02
1.060000e-06	2.370539e-06	7.636996e-09	1.651433e+01	5.003426e+02
1.070000e-06	2.464482e-06	7.970651e-09	1.716879e+01	5.220281e+02
1.080000e-06	2.557639e-06	8.270498e-09	1.781776e+01	5.418313e+02
1.090000e-06	2.649955e-06	8.542005e-09	1.846088e+01	5.600916e+02
1.100000e-06	2.741329e-06	8.789171e-09	1.909744e+01	5.769222e+02
1.110000e-06	2.831588e-06	9.015085e-09	1.972623e+01	5.923371e+02
1.120000e-06	2.920653e-06	9.225701e-09	2.034670e+01	6.063730e+02
1.130000e-06	3.008674e-06	9.424143e-09	2.095989e+01	6.191591e+02
1.140000e-06	3.095732e-06	9.610496e-09	2.156638e+01	6.309190e+02
1.150000e-06	3.181816e-06	9.783770e-09	2.216609e+01	6.419153e+02
1.160000e-06	3.266901e-06	9.944145e-09	2.275883e+01	6.523728e+02
1.170000e-06	3.350909e-06	1.009217e-08	2.334407e+01	6.624164e+02
1.180000e-06	3.433691e-06	1.023310e-08	2.392077e+01	6.720542e+02
1.190000e-06	3.515115e-06	1.036962e-08	2.448801e+01	6.812076e+02
1.200000e-06	3.595263e-06	1.049981e-08	2.504636e+01	6.897753e+02
1.210000e-06	3.674198e-06	1.062169e-08	2.559626e+01	6.976993e+02
1.220000e-06	3.751854e-06	1.073660e-08	2.613725e+01	7.050065e+02
1.230000e-06	3.828136e-06	1.084576e-08	2.666867e+01	7.118082e+02
1.240000e-06	3.902876e-06	1.094702e-08	2.718934e+01	7.182621e+02
1.250000e-06	3.975990e-06	1.104102e-08	2.769869e+01	7.245142e+02
1.260000e-06	4.047642e-06	1.113108e-08	2.819785e+01	7.306486e+02
1.270000e-06	4.117937e-06	1.121989e-08	2.868756e+01	7.366649e+02
1.280000e-06	4.186861e-06	1.130692e-08	2.916772e+01	7.424938e+02
1.290000e-06	4.254299e-06	1.139045e-08	2.963753e+01	7.480398e+02
1.300000e-06	4.320089e-06	1.147087e-08	3.009585e+01	7.532329e+02
1.310000e-06	4.384286e-06	1.154712e-08	3.054308e+01	7.580653e+02
1.320000e-06	4.447002e-06	1.161731e-08	3.097999e+01	7.625980e+02
1.330000e-06	4.508346e-06	1.168258e-08	3.140734e+01	7.669351e+02
1.340000e-06	4.568238e-06	1.174612e-08	3.182458e+01	7.711792e+02
1.350000e-06	4.626379e-06	1.180972e-08	3.222962e+01	7.753872e+02
1.360000e-06	4.682735e-06	1.187147e-08	3.262222e+01	7.795475e+02
1.370000e-06	4.737465e-06	1.193217e-08	3.300350e+01	7.835866e+02
1.380000e-06	4.790425e-06	1.199084e-08	3.337244e+01	7.874040e+02
1.390000e-06	4.841310e-06	1.204476e-08	3.372693e+01	7.909177e+02
1.400000e-06	4.890199e-06	1.209602e-08	3.406752e+01	7.941010e+02
1.410000e-06	4.937381e-06	1.214334e-08	3.439621e+01	7.969951e+02
1.420000e-06	4.982953e-06	1.218566e-08	3.471368e+01	7.996916e+02
1.430000e-06	5.026785e-06	1.222545e-08	3.501904e+01	8.022937e+02
1.440000e-06	5.068689e-06	1.226449e-08	3.531097e+01	8.048717e+02
1.450000e-06	5.108801e-06	1.230264e-08	3.559040e+01	8.074348e+02
1.460000e-06	5.147286e-06	1.233878e-08	3.585851e+01	8.099282e+02
1.470000e-06	5.184110e-06	1.237430e-08	3.611505e+01	8.122591e+02
1.480000e-06	5.219020e-06	1.240979e-08	3.635825e+01	8.143385e+02
1.490000e-06	5.251944e-06	1.244338e-08	3.658761e+01	8.161210e+02
1.500000e-06	5.283164e-06	1.247096e-08	3.680510e+01	8.176263e+02
1.510000e-06	5.312699e-06	1.249150e-08	3.701086e+01	8.189322e+02
1.520000e-06	5.340303e-06	1.250930e-08	3.720316e+01	8.201425e+02
1.530000e-06	5.365817e-06	1.252791e-08	3.738091e+01	8.213451e+02
1.540000e-06	5.389360e-06	1.254723e-08	3.754492e+01	8.225761e+02
1.550000e-06	5.411139e-06	1.256552e-08	3.769664e+01	8.238067e+02
1.560000e-06	5.431167e-06	1.258334e-08	3.783617e+01	8.249576e+02
1.570000e-06	5.449248e-06	1.260109e-08	3.796212e+01	8.259346e+02
1.580000e-06	5.465281e-06	1.261631e-08	3.807382e+01	8.266694e+02
1.590000e-06	5.479339e-06	1.262684e-08	3.817175e+01	8.271489e+02
1.600000e-06	5.491255e-06	1.263200e-08	3.825477e+01	8.274210e+02
1.610000e-06	5.500972e-06	1.263477e-08	3.832246e+01	8.275740e+02
1.620000e-06	5.508743e-06	1.263720e-08	3.837660e+01	8.277000e+02
1.630000e-06	5.514686e-06	1.263955e-08	3.841800e+01	8.278566e+02
1.640000e-06	5.518736e-06	1.264185e-08	3.844621e+01	8.280451e+02
1.650000e-06	5.520702e-06	1.264777e-08	3.845991e+01	8.282121e+02
1.660000e-06	5.520715e-06	1.265625e-08	3.846000e+01	8.282739e+02
1.670000e-06	5.519038e-06	1.265474e-08	3.844832e+01	8.281533e+02
1.680000e-06	5.515655e-06	1.264724e-08	3.842475e+01	8.278113e+02
1.690000e-06	5.510336e-06	1.263717e-08	3.838769e+01	8.272621e+02
1.700000e-06	5.503125e-06	1.262569e-08	3.833746e+01	8.265644e+02
1.710000e-06	5.494256e-06	1.261483e-08	3.827567e+01	8.257936e+02
1.720000e-06	5.483676e-06	1.260801e-08	3.820197e+01	8.250089e+02
1.730000e-06	5.471101e-06	1.262244e-08	3.811436e+01	8.242282e+02
1.740000e-06	5.456498e-06	1.258502e-08	3.801263e+01	8.234229e+02
1.750000e-06	5.439884e-06	1.250425e-08	3.789689e+01	8.225336e+02
1.760000e-06	5.420679e-06	1.249761e-08	3.776310e+01	8.214996e+02
1.770000e-06	5.398706e-06	1.249007e-08	3.761002e+01	8.202886e+02
1.780000e-06	5.374805e-06	1.255731e-08	3.744352e+01	8.189128e+02
1.790000e-06	5.349970e-06	1.256489e-08	3.727051e+01	8.174245e+02
1.800000e-06	5.324244e-06	1.238475e-08	3.709128e+01	8.158928e+02
1.810000e-06	5.296443e-06	1.245842e-08	3.689761e+01	8.143713e+02
1.820000e-06	5.266331e-06	1.246672e-08	3.668783e+01	8.128720e+02
1.830000e-06	5.234715e-06	1.231034e-08	3.646758e+01	8.113558e+02
1.840000e-06	5.201311e-06	1.242779e-08	3.623487e+01	8.097453e+02
1.850000e-06	5.166153e-06	1.233732e-08	3.598995e+01	8.079543e+02
1.860000e-06	5.129233e-06	1.221059e-08	3.573275e+01	8.059205e+02
1.870000e-06	5.090146e-06	1.235113e-08	3.546045e+01	8.036297e+02
1.880000e-06	5.049399e-06	1.221348e-08	3.517658e+01	8.011199e+02
1.890000e-06	5.007030e-06	1.215181e-08	3.488142e+01	7.984635e+02
1.900000e-06	4.962742e-06	1.214678e-08	3.457289e+01	7.957376e+02
1.910000e-06	4.916692e-06	1.200455e-08	3.425208e+01	7.929926e+02
1.920000e-06	4.868763e-06	1.212594e-08	3.391819e+01	7.902339e+02
1.930000e-06	4.819085e-06	1.203388e-08	3.357210e+01	7.874243e+02
1.940000e-06	4.767602e-06	1.191630e-08	3.321344e+01	7.845036e+02
1.950000e-06	4.713956e-06	1.196318e-08	3.283972e+01	7.814174e+02
1.960000e-06	4.658596e-06	1.184467e-08	3.245406e+01	7.781421e+02
1.970000e-06	4.601626e-06	1.181608e-08	3.205718e+01	7.746936e+02
1.980000e-06	4.543087e-06	1.170922e-08	3.164936e+01	7.711179e+02
1.990000e-06	4.482987e-06	1.167160e-08	3.123068e+01	7.674675e+02
2.000000e-06	4.421040e-06	1.169047e-08	3.079913e+01	7.637739e+02
2.010000e-06	4.357544e-06	1.158697e-08	3.035678e+01	7.600312e+02
2.020000e-06	4.292534e-06	1.158504e-08	2.990389e+01	7.561960e+02
2.030000e-06	4.226091e-06	1.144936e-08	2.944101e+01	7.522059e+02
2.040000e-06	4.158227e-06	1.138800e-08	2.896824e+01	7.480071e+02
2.050000e-06	4.088554e-06	1.134085e-08	2.848287e+01	7.435785e+02
2.060000e-06	4.017306e-06	1.121834e-08	2.798652e+01	7.389419e+02
2.070000e-06	3.944751e-06	1.120542e-08	2.748106e+01	7.341523e+02
2.080000e-06	3.870810e-06	1.111166e-08	2.696596e+01	7.292723e+02
2.090000e-06	3.795266e-06	1.108505e-08	2.643968e+01	7.243429e+02
2.100000e-06	3.717967e-06	1.099629e-08	2.590117e+01	7.193623e+02
2.110000e-06	3.639216e-06	1.088069e-08	2.535255e+01	7.142838e+02
2.120000e-06	3.559287e-06	1.080665e-08	2.479573e+01	7.090342e+02
2.130000e-06	3.478200e-06	1.069437e-08	2.423084e+01	7.035441e+02
2.140000e-06	3.395985e-06	1.064764e-08	2.365809e+01	6.977774e+02
2.150000e-06	3.312723e-06	1.054477e-08	2.307805e+01	6.917475e+02
2.160000e-06	3.228134e-06	1.045963e-08	2.248876e+01	6.855098e+02
2.170000e-06	3.142083e-06	1.036252e-08	2.188928e+01	6.791369e+02
2.180000e-06	3.054958e-06	1.025459e-08	2.128233e+01	6.726842e+02
2.190000e-06	2.966923e-06	1.016391e-08	2.066903e+01	6.661627e+02
2.200000e-06	2.877915e-06	1.004774e-08	2.004896e+01	6.595317e+02
2.210000e-06	2.787906e-06	9.955887e-09	1.942192e+01	6.527138e+02
2.220000e-06	2.697037e-06	9.850331e-09	1.878888e+01	6.456281e+02
2.230000e-06	2.605317e-06	9.740862e-09	1.814991e+01	6.382252e+02
2.240000e-06	2.512532e-06	9.609596e-09	1.750353e+01	6.305090e+02
2.250000e-06	2.418597e-06	9.481686e-09	1.684913e+01	6.225339e+02
2.260000e-06	2.323774e-06	9.365004e-09	1.618854e+01	6.143791e+02
2.270000e-06	2.228298e-06	9.253644e-09	1.552342e+01	6.061090e+02
2.280000e-06	2.132107e-06	9.136355e-09	1.485330e+01	5.977385e+02
2.290000e-06	2.035148e-06	8.997510e-09	1.417784e+01	5.892192e+02
2.300000e-06	1.937411e-06	8.855370e-09	1.349695e+01	5.804533e+02
2.310000e-06	1.839077e-06	8.708084e-09	1.281191e+01	5.713316e+02
2.320000e-06	1.740308e-06	8.562700e-09	1.212384e+01	5.617781e+02
2.330000e-06	1.641135e-06	8.406030e-09	1.143295e+01	5.517821e+02
2.340000e-06	1.541389e-06	8.257665e-09	1.073807e+01	5.414013e+02
2.350000e-06	1.440832e-06	8.107655e-09	1.003754e+01	5.307336e+02
2.360000e-06	1.339539e-06	7.945778e-09	9.331883e+00	5.198670e+02
2.370000e-06	1.237649e-06	7.770581e-09	8.622071e+00	5.088303e+02
2.380000e-06	1.135278e-06	7.585720e-09	7.908901e+00	4.975662e+02
2.390000e-06	1.032508e-06	7.408370e-09	7.192954e+00	4.859414e+02
2.400000e-06	9.293713e-07	7.225031e-09	6.474455e+00	4.737916e+02
2.410000e-06	8.259182e-07	7.033984e-09	5.753750e+00	4.609841e+02
2.420000e-06	7.221954e-07	6.831410e-09	5.031166e+00	4.474695e+02
2.430000e-06	6.182823e-07	6.618741e-09	4.307257e+00	4.332997e+02
2.440000e-06	5.142120e-07	6.397444e-09	3.582252e+00	4.185988e+02
2.450000e-06	4.099487e-07	6.165422e-09	2.855903e+00	4.034971e+02
2.460000e-06	3.055540e-07	5.925089e-09	2.128639e+00	3.880535e+02
2.470000e-06	2.010702e-07	5.680943e-09	1.400753e+00	3.722013e+02
2.480000e-06	9.654442e-08	5.429559e-09	6.725756e-01	3.557428e+02
2.490000e-06	-7.976166e-09	5.163388e-09	-5.556587e-02	3.384011e+02
2.500000e-06	-1.125088e-07	4.878765e-09	-7.837912e-01	3.199095e+02
2.510000e-06	-2.170347e-07	4.575840e-09	-1.511970e+00	3.001013e+02
2.520000e-06	-3.214945e-07	4.259763e-09	-2.239688e+00	2.789549e+02
2.530000e-06	-4.258315e-07	3.927164e-09	-2.966551e+00	2.565645e+02
2.540000e-06	-5.300290e-07	3.572642e-09	-3.692441e+00	2.330335e+02
2.550000e-06	-6.340242e-07	3.194703e-09	-4.416923e+00	2.083227e+02
2.560000e-06	-7.377932e-07	2.792489e-09	-5.139828e+00	1.821112e+02
2.570000e-06	-8.413072e-07	2.355464e-09	-5.860957e+00	1.537346e+02
2.580000e-06	-9.445482e-07	1.870765e-09	-6.580184e+00	1.222460e+02
2.590000e-06	-1.047447e-06	1.329166e-09	-7.297029e+00	8.660786e+01
2.600000e-06	-1.149901e-06	7.223283e-10	-8.010769e+00	4.597640e+01
2.610000e-06	-1.251848e-06	4.188256e-11	-8.720987e+00	1.881986e-03
2.620000e-06	-1.353218e-06	-7.198538e-10	-9.427177e+00	-5.094755e+01
2.630000e-06	-1.453981e-06	-1.555589e-09	-1.012915e+01	-1.057150e+02
2.640000e-06	-1.554097e-06	-2.435451e-09	-1.082660e+01	-1.624729e+02
2.650000e-06	-1.653550e-06	-3.315533e-09	-1.151944e+01	-2.190098e+02
2.660000e-06	-1.752397e-06	-4.151403e-09	-1.220806e+01	-2.731161e+02
2.670000e-06	-1.850742e-06	-4.912265e-09	-1.289317e+01	-3.229661e+02
2.680000e-06	-1.948552e-06	-5.588752e-09	-1.357457e+01	-3.674000e+02
2.690000e-06	-2.045670e-06	-6.178532e-09	-1.425114e+01	-4.060358e+02
2.700000e-06	-2.142095e-06	-6.685754e-09	-1.492288e+01	-4.391983e+02
2.710000e-06	-2.237938e-06	-7.127995e-09	-1.559057e+01	-4.677007e+02
2.720000e-06	-2.333123e-06	-7.522323e-09	-1.625368e+01	-4.925583e+02
2.730000e-06	-2.427534e-06	-7.872300e-09	-1.691139e+01	-5.147199e+02
2.740000e-06	-2.521074e-06	-8.181799e-09	-1.756304e+01	-5.348882e+02
2.750000e-06	-2.613547e-06	-8.460701e-09	-1.820725e+01	-5.534637e+02
2.760000e-06	-2.704924e-06	-8.717131e-09	-1.884383e+01	-5.705981e+02
2.770000e-06	-2.795286e-06	-8.955603e-09	-1.947333e+01	-5.863157e+02
2.780000e-06	-2.884616e-06	-9.174055e-09	-2.009565e+01	-6.006399e+02
2.790000e-06	-2.972977e-06	-9.373893e-09	-2.071121e+01	-6.136777e+02
2.800000e-06	-3.060351e-06	-9.560723e-09	-2.131990e+01	-6.256356e+02
2.810000e-06	-3.146714e-06	-9.737894e-09	-2.192155e+01	-6.367742e+02
2.820000e-06	-3.231934e-06	-9.904011e-09	-2.251523e+01	-6.473326e+02
2.830000e-06	-3.315802e-06	-1.005869e-08	-2.309950e+01	-6.574605e+02
2.840000e-06	-3.398468e-06	-1.020454e-08	-2.367539e+01	-6.671898e+02
2.850000e-06	-3.480030e-06	-1.034187e-08	-2.424359e+01	-6.764559e+02
2.860000e-06	-3.560405e-06	-1.047190e-08	-2.480352e+01	-6.851564e+02
2.870000e-06	-3.639548e-06	-1.059210e-08	-2.535487e+01	-6.932193e+02
2.880000e-06	-3.717344e-06	-1.070435e-08	-2.589684e+01	-7.006518e+02
2.890000e-06	-3.793570e-06	-1.081328e-08	-2.642786e+01	-7.075493e+02
2.900000e-06	-3.868253e-06	-1.091797e-08	-2.694814e+01	-7.140642e+02
2.910000e-06	-3.941558e-06	-1.101649e-08	-2.745882e+01	-7.203499e+02
2.920000e-06	-4.013555e-06	-1.110992e-08	-2.796039e+01	-7.265066e+02
2.930000e-06	-4.084188e-06	-1.120093e-08	-2.845245e+01	-7.325523e+02
2.940000e-06	-4.153262e-06	-1.128929e-08	-2.893365e+01	-7.384294e+02
