# Temperatura_=_42.85
# Concentracion g/m^3_=_13400.0
# C_Vs_to_Am_M_A/Vsm_=_65563218390.804596
# pendiente_HvsI_1/m_=_3716.3
# ordenada_HvsI_A/m_=_1297.0
# frecuencia_Hz_=_300800.6598365421

Tiempo_(s)	Campo_(V.s)	Magnetizacion_(V.s)	Campo_(kA/m)	Magnetizacion_(A/m)
0.000000e+00	-5.522077e-06	-1.234238e-08	-3.831201e+01	-8.094152e+02
1.000000e-08	-5.520262e-06	-1.234121e-08	-3.829941e+01	-8.092708e+02
2.000000e-08	-5.516488e-06	-1.233859e-08	-3.827323e+01	-8.089190e+02
3.000000e-08	-5.510940e-06	-1.233453e-08	-3.823474e+01	-8.083789e+02
4.000000e-08	-5.503750e-06	-1.232477e-08	-3.818485e+01	-8.077106e+02
5.000000e-08	-5.494896e-06	-1.230861e-08	-3.812343e+01	-8.069893e+02
6.000000e-08	-5.484046e-06	-1.229291e-08	-3.804815e+01	-8.062736e+02
7.000000e-08	-5.471124e-06	-1.227150e-08	-3.795850e+01	-8.055814e+02
8.000000e-08	-5.456179e-06	-1.226347e-08	-3.785481e+01	-8.048841e+02
9.000000e-08	-5.438846e-06	-1.230278e-08	-3.773455e+01	-8.041214e+02
1.000000e-07	-5.419155e-06	-1.230628e-08	-3.759794e+01	-8.032297e+02
1.100000e-07	-5.397467e-06	-1.227243e-08	-3.744746e+01	-8.021715e+02
1.200000e-07	-5.373978e-06	-1.224262e-08	-3.728450e+01	-8.009531e+02
1.300000e-07	-5.349053e-06	-1.213540e-08	-3.711157e+01	-7.996217e+02
1.400000e-07	-5.322600e-06	-1.213427e-08	-3.692804e+01	-7.982441e+02
1.500000e-07	-5.294265e-06	-1.219987e-08	-3.673146e+01	-7.968745e+02
1.600000e-07	-5.264247e-06	-1.208620e-08	-3.652319e+01	-7.955274e+02
1.700000e-07	-5.232649e-06	-1.211238e-08	-3.630396e+01	-7.941660e+02
1.800000e-07	-5.199034e-06	-1.214712e-08	-3.607074e+01	-7.927124e+02
1.900000e-07	-5.163423e-06	-1.202077e-08	-3.582368e+01	-7.910766e+02
2.000000e-07	-5.126276e-06	-1.204668e-08	-3.556595e+01	-7.891909e+02
2.100000e-07	-5.087415e-06	-1.200131e-08	-3.529633e+01	-7.870374e+02
2.200000e-07	-5.046736e-06	-1.190173e-08	-3.501410e+01	-7.846555e+02
2.300000e-07	-5.004075e-06	-1.194478e-08	-3.471813e+01	-7.821271e+02
2.400000e-07	-4.959365e-06	-1.192417e-08	-3.440793e+01	-7.795450e+02
2.500000e-07	-4.912958e-06	-1.188337e-08	-3.408596e+01	-7.769769e+02
2.600000e-07	-4.864754e-06	-1.182921e-08	-3.375152e+01	-7.744406e+02
2.700000e-07	-4.814492e-06	-1.173866e-08	-3.340280e+01	-7.718999e+02
2.800000e-07	-4.762143e-06	-1.173170e-08	-3.303961e+01	-7.692811e+02
2.900000e-07	-4.707908e-06	-1.170076e-08	-3.266333e+01	-7.665052e+02
3.000000e-07	-4.652055e-06	-1.164381e-08	-3.227582e+01	-7.635200e+02
3.100000e-07	-4.594488e-06	-1.159778e-08	-3.187642e+01	-7.603198e+02
3.200000e-07	-4.535135e-06	-1.157104e-08	-3.146463e+01	-7.569453e+02
3.300000e-07	-4.474170e-06	-1.153782e-08	-3.104166e+01	-7.534628e+02
3.400000e-07	-4.411650e-06	-1.144366e-08	-3.060789e+01	-7.499348e+02
3.500000e-07	-4.347659e-06	-1.137494e-08	-3.016393e+01	-7.463914e+02
3.600000e-07	-4.282164e-06	-1.131379e-08	-2.970953e+01	-7.428181e+02
3.700000e-07	-4.215008e-06	-1.127586e-08	-2.924360e+01	-7.391614e+02
3.800000e-07	-4.146215e-06	-1.124865e-08	-2.876631e+01	-7.353521e+02
3.900000e-07	-4.075930e-06	-1.116862e-08	-2.827868e+01	-7.313339e+02
4.000000e-07	-4.004369e-06	-1.110131e-08	-2.778219e+01	-7.270855e+02
4.100000e-07	-3.931537e-06	-1.103718e-08	-2.727688e+01	-7.226269e+02
4.200000e-07	-3.857155e-06	-1.096586e-08	-2.676083e+01	-7.180085e+02
4.300000e-07	-3.781034e-06	-1.087991e-08	-2.623270e+01	-7.132856e+02
4.400000e-07	-3.703335e-06	-1.079600e-08	-2.569363e+01	-7.084937e+02
4.500000e-07	-3.624179e-06	-1.073987e-08	-2.514445e+01	-7.036319e+02
4.600000e-07	-3.543523e-06	-1.067712e-08	-2.458486e+01	-6.986635e+02
4.700000e-07	-3.461533e-06	-1.060052e-08	-2.401601e+01	-6.935325e+02
4.800000e-07	-3.378362e-06	-1.049956e-08	-2.343897e+01	-6.881878e+02
4.900000e-07	-3.294093e-06	-1.040132e-08	-2.285432e+01	-6.826048e+02
5.000000e-07	-3.208829e-06	-1.032608e-08	-2.226276e+01	-6.767943e+02
5.100000e-07	-3.122548e-06	-1.024690e-08	-2.166415e+01	-6.707949e+02
5.200000e-07	-3.035307e-06	-1.015365e-08	-2.105887e+01	-6.646533e+02
5.300000e-07	-2.947147e-06	-1.005104e-08	-2.044722e+01	-6.584004e+02
5.400000e-07	-2.857979e-06	-9.952272e-09	-1.982858e+01	-6.520355e+02
5.500000e-07	-2.767676e-06	-9.852504e-09	-1.920205e+01	-6.455247e+02
5.600000e-07	-2.676224e-06	-9.740374e-09	-1.856756e+01	-6.388150e+02
5.700000e-07	-2.583775e-06	-9.624283e-09	-1.792615e+01	-6.318558e+02
5.800000e-07	-2.490453e-06	-9.516860e-09	-1.727869e+01	-6.246196e+02
5.900000e-07	-2.396320e-06	-9.416516e-09	-1.662560e+01	-6.171111e+02
6.000000e-07	-2.301359e-06	-9.305550e-09	-1.596676e+01	-6.093597e+02
6.100000e-07	-2.205625e-06	-9.178224e-09	-1.530256e+01	-6.014013e+02
6.200000e-07	-2.109204e-06	-9.043679e-09	-1.463360e+01	-5.932555e+02
6.300000e-07	-2.011972e-06	-8.911473e-09	-1.395900e+01	-5.849111e+02
6.400000e-07	-1.913845e-06	-8.780714e-09	-1.327820e+01	-5.763264e+02
6.500000e-07	-1.814915e-06	-8.640603e-09	-1.259183e+01	-5.674450e+02
6.600000e-07	-1.715300e-06	-8.496928e-09	-1.190070e+01	-5.582191e+02
6.700000e-07	-1.615055e-06	-8.356451e-09	-1.120520e+01	-5.486298e+02
6.800000e-07	-1.514233e-06	-8.212541e-09	-1.050571e+01	-5.386931e+02
6.900000e-07	-1.412910e-06	-8.053780e-09	-9.802730e+00	-5.284473e+02
7.000000e-07	-1.311100e-06	-7.885901e-09	-9.096370e+00	-5.179268e+02
7.100000e-07	-1.208806e-06	-7.720769e-09	-8.386662e+00	-5.071342e+02
7.200000e-07	-1.106071e-06	-7.554309e-09	-7.673885e+00	-4.960237e+02
7.300000e-07	-1.002985e-06	-7.376181e-09	-6.958682e+00	-4.845068e+02
7.400000e-07	-8.996253e-07	-7.182672e-09	-6.241574e+00	-4.724792e+02
7.500000e-07	-7.959823e-07	-6.984797e-09	-5.522502e+00	-4.598586e+02
7.600000e-07	-6.920571e-07	-6.785518e-09	-4.801471e+00	-4.466169e+02
7.700000e-07	-5.878981e-07	-6.578820e-09	-4.078820e+00	-4.327891e+02
7.800000e-07	-4.835507e-07	-6.360069e-09	-3.354860e+00	-4.184524e+02
7.900000e-07	-3.790527e-07	-6.136270e-09	-2.629856e+00	-4.036802e+02
8.000000e-07	-2.744266e-07	-5.911764e-09	-1.903963e+00	-3.884895e+02
8.100000e-07	-1.697303e-07	-5.675522e-09	-1.177584e+00	-3.728045e+02
8.200000e-07	-6.498605e-08	-5.419382e-09	-4.508713e-01	-3.564568e+02
8.300000e-07	3.985545e-08	-5.145040e-09	2.765159e-01	-3.392249e+02
8.400000e-07	1.447436e-07	-4.861279e-09	1.004227e+00	-3.209016e+02
8.500000e-07	2.495066e-07	-4.568842e-09	1.731069e+00	-3.013595e+02
8.600000e-07	3.541327e-07	-4.258290e-09	2.456962e+00	-2.805817e+02
8.700000e-07	4.586231e-07	-3.925985e-09	3.181913e+00	-2.586348e+02
8.800000e-07	5.629492e-07	-3.578020e-09	3.905725e+00	-2.355806e+02
8.900000e-07	6.671619e-07	-3.211392e-09	4.628749e+00	-2.113528e+02
9.000000e-07	7.711698e-07	-2.812986e-09	5.350353e+00	-1.856436e+02
9.100000e-07	8.748928e-07	-2.374141e-09	6.069980e+00	-1.578509e+02
9.200000e-07	9.782699e-07	-1.893410e-09	6.787207e+00	-1.271270e+02
9.300000e-07	1.081304e-06	-1.365476e-09	7.502057e+00	-9.253689e+01
9.400000e-07	1.184000e-06	-7.728818e-10	8.214557e+00	-5.329810e+01
9.500000e-07	1.286309e-06	-1.013126e-10	8.924373e+00	-9.041652e+00
9.600000e-07	1.388228e-06	6.485556e-10	9.631486e+00	3.998234e+01
9.700000e-07	1.489695e-06	1.460902e-09	1.033546e+01	9.282168e+01
9.800000e-07	1.590671e-06	2.310627e-09	1.103603e+01	1.478982e+02
9.900000e-07	1.691139e-06	3.162904e-09	1.173308e+01	2.032342e+02
1.000000e-06	1.791009e-06	3.978676e-09	1.242596e+01	2.567774e+02
1.010000e-06	1.890129e-06	4.727622e-09	1.311366e+01	3.067415e+02
1.020000e-06	1.988447e-06	5.396886e-09	1.379578e+01	3.518792e+02
1.030000e-06	2.085913e-06	5.988791e-09	1.447200e+01	3.916201e+02
1.040000e-06	2.182556e-06	6.507882e-09	1.514251e+01	4.260523e+02
1.050000e-06	2.278489e-06	6.961503e-09	1.580809e+01	4.557674e+02
1.060000e-06	2.373656e-06	7.357218e-09	1.646835e+01	4.816256e+02
1.070000e-06	2.468017e-06	7.707052e-09	1.712303e+01	5.045147e+02
1.080000e-06	2.561591e-06	8.021736e-09	1.777225e+01	5.251661e+02
1.090000e-06	2.654357e-06	8.306744e-09	1.841585e+01	5.440671e+02
1.100000e-06	2.746271e-06	8.565481e-09	1.905354e+01	5.614710e+02
1.110000e-06	2.837084e-06	8.801852e-09	1.968361e+01	5.774761e+02
1.120000e-06	2.926662e-06	9.021837e-09	2.030510e+01	5.921289e+02
1.130000e-06	3.015190e-06	9.226444e-09	2.091930e+01	6.055079e+02
1.140000e-06	3.102704e-06	9.415241e-09	2.152647e+01	6.177594e+02
1.150000e-06	3.189169e-06	9.589420e-09	2.212636e+01	6.290828e+02
1.160000e-06	3.274612e-06	9.750417e-09	2.271916e+01	6.396830e+02
1.170000e-06	3.359027e-06	9.900538e-09	2.330483e+01	6.497179e+02
1.180000e-06	3.442288e-06	1.004384e-08	2.388250e+01	6.592659e+02
1.190000e-06	3.524199e-06	1.018229e-08	2.445079e+01	6.683294e+02
1.200000e-06	3.604781e-06	1.031385e-08	2.500986e+01	6.768670e+02
1.210000e-06	3.684097e-06	1.043525e-08	2.556016e+01	6.848406e+02
1.220000e-06	3.762095e-06	1.054927e-08	2.610130e+01	6.922539e+02
1.230000e-06	3.838741e-06	1.065682e-08	2.663307e+01	6.991669e+02
1.240000e-06	3.913856e-06	1.075608e-08	2.715422e+01	7.056815e+02
1.250000e-06	3.987357e-06	1.084879e-08	2.766416e+01	7.119075e+02
1.260000e-06	4.059446e-06	1.093821e-08	2.816431e+01	7.179257e+02
1.270000e-06	4.130134e-06	1.102651e-08	2.865475e+01	7.237644e+02
1.280000e-06	4.199414e-06	1.111218e-08	2.913541e+01	7.294005e+02
1.290000e-06	4.267268e-06	1.119318e-08	2.960618e+01	7.347832e+02
1.300000e-06	4.333465e-06	1.127094e-08	3.006545e+01	7.398674e+02
1.310000e-06	4.398062e-06	1.134620e-08	3.051363e+01	7.446432e+02
1.320000e-06	4.461166e-06	1.141441e-08	3.095144e+01	7.491459e+02
1.330000e-06	4.522817e-06	1.147452e-08	3.137917e+01	7.534439e+02
1.340000e-06	4.583035e-06	1.153208e-08	3.179696e+01	7.576099e+02
1.350000e-06	4.641530e-06	1.159391e-08	3.220280e+01	7.616886e+02
1.360000e-06	4.698238e-06	1.165821e-08	3.259623e+01	7.656775e+02
1.370000e-06	4.753318e-06	1.171821e-08	3.297838e+01	7.695274e+02
1.380000e-06	4.806682e-06	1.177213e-08	3.334862e+01	7.731652e+02
1.390000e-06	4.858016e-06	1.182189e-08	3.370477e+01	7.765270e+02
1.400000e-06	4.907301e-06	1.187068e-08	3.404671e+01	7.795886e+02
1.410000e-06	4.954817e-06	1.191455e-08	3.437637e+01	7.823782e+02
1.420000e-06	5.000685e-06	1.195147e-08	3.469461e+01	7.849671e+02
1.430000e-06	5.044867e-06	1.198743e-08	3.500114e+01	7.874409e+02
1.440000e-06	5.087110e-06	1.202541e-08	3.529422e+01	7.898651e+02
1.450000e-06	5.127460e-06	1.206375e-08	3.557416e+01	7.922585e+02
1.460000e-06	5.166106e-06	1.209901e-08	3.584229e+01	7.945868e+02
1.470000e-06	5.203110e-06	1.213270e-08	3.609902e+01	7.967793e+02
1.480000e-06	5.238299e-06	1.216593e-08	3.634316e+01	7.987609e+02
1.490000e-06	5.271523e-06	1.219537e-08	3.657367e+01	8.004863e+02
1.500000e-06	5.302955e-06	1.221698e-08	3.679175e+01	8.019610e+02
1.510000e-06	5.332706e-06	1.223308e-08	3.699815e+01	8.032406e+02
1.520000e-06	5.360574e-06	1.225069e-08	3.719150e+01	8.044090e+02
1.530000e-06	5.386299e-06	1.227247e-08	3.736998e+01	8.055436e+02
1.540000e-06	5.410011e-06	1.229404e-08	3.753450e+01	8.066847e+02
1.550000e-06	5.431930e-06	1.230928e-08	3.768657e+01	8.078192e+02
1.560000e-06	5.452097e-06	1.232173e-08	3.782649e+01	8.088886e+02
1.570000e-06	5.470331e-06	1.233584e-08	3.795299e+01	8.098150e+02
1.580000e-06	5.486532e-06	1.234874e-08	3.806540e+01	8.105360e+02
1.590000e-06	5.500772e-06	1.235637e-08	3.816419e+01	8.110321e+02
1.600000e-06	5.512862e-06	1.236125e-08	3.824807e+01	8.113357e+02
1.610000e-06	5.522713e-06	1.236698e-08	3.831642e+01	8.115179e+02
1.620000e-06	5.530550e-06	1.237353e-08	3.837079e+01	8.116584e+02
1.630000e-06	5.536586e-06	1.237771e-08	3.841267e+01	8.118122e+02
1.640000e-06	5.540880e-06	1.237783e-08	3.844246e+01	8.119875e+02
1.650000e-06	5.543163e-06	1.238013e-08	3.845830e+01	8.121426e+02
1.660000e-06	5.543408e-06	1.238543e-08	3.846000e+01	8.122048e+02
1.670000e-06	5.541857e-06	1.238387e-08	3.844924e+01	8.121023e+02
1.680000e-06	5.538617e-06	1.237710e-08	3.842676e+01	8.117950e+02
1.690000e-06	5.533460e-06	1.236702e-08	3.839098e+01	8.112913e+02
1.700000e-06	5.526328e-06	1.235815e-08	3.834150e+01	8.106442e+02
1.710000e-06	5.517542e-06	1.235124e-08	3.828054e+01	8.099283e+02
1.720000e-06	5.507098e-06	1.234419e-08	3.820808e+01	8.092083e+02
1.730000e-06	5.494664e-06	1.235104e-08	3.812182e+01	8.085120e+02
1.740000e-06	5.480201e-06	1.231407e-08	3.802147e+01	8.078201e+02
1.750000e-06	5.463661e-06	1.224918e-08	3.790671e+01	8.070771e+02
1.760000e-06	5.444498e-06	1.224417e-08	3.777377e+01	8.062175e+02
1.770000e-06	5.422586e-06	1.223530e-08	3.762174e+01	8.051960e+02
1.780000e-06	5.398710e-06	1.229423e-08	3.745609e+01	8.040091e+02
1.790000e-06	5.373839e-06	1.230274e-08	3.728354e+01	8.026966e+02
1.800000e-06	5.348073e-06	1.215487e-08	3.710477e+01	8.013234e+02
1.810000e-06	5.320325e-06	1.220945e-08	3.691226e+01	7.999491e+02
1.820000e-06	5.290330e-06	1.220387e-08	3.670416e+01	7.985986e+02
1.830000e-06	5.258801e-06	1.208937e-08	3.648541e+01	7.972457e+02
1.840000e-06	5.225475e-06	1.220031e-08	3.625419e+01	7.958196e+02
1.850000e-06	5.190314e-06	1.212375e-08	3.601024e+01	7.942298e+02
1.860000e-06	5.153331e-06	1.202476e-08	3.575365e+01	7.924011e+02
1.870000e-06	5.114260e-06	1.213052e-08	3.548259e+01	7.903035e+02
1.880000e-06	5.073524e-06	1.201354e-08	3.519996e+01	7.879647e+02
1.890000e-06	5.031123e-06	1.195669e-08	3.490578e+01	7.854597e+02
1.900000e-06	4.986760e-06	1.193639e-08	3.459799e+01	7.828821e+02
1.910000e-06	4.940665e-06	1.183387e-08	3.427819e+01	7.803075e+02
1.920000e-06	4.892721e-06	1.192678e-08	3.394555e+01	7.777658e+02
1.930000e-06	4.842966e-06	1.183608e-08	3.360036e+01	7.752313e+02
1.940000e-06	4.791411e-06	1.174713e-08	3.324267e+01	7.726362e+02
1.950000e-06	4.737751e-06	1.176614e-08	3.287037e+01	7.698997e+02
1.960000e-06	4.682285e-06	1.167001e-08	3.248555e+01	7.669615e+02
1.970000e-06	4.625122e-06	1.165459e-08	3.208896e+01	7.638054e+02
1.980000e-06	4.566412e-06	1.155582e-08	3.168163e+01	7.604631e+02
1.990000e-06	4.506167e-06	1.151984e-08	3.126365e+01	7.569979e+02
2.000000e-06	4.444148e-06	1.152210e-08	3.083337e+01	7.534756e+02
2.010000e-06	4.380482e-06	1.143109e-08	3.039166e+01	7.499352e+02
2.020000e-06	4.315240e-06	1.141371e-08	2.993901e+01	7.463717e+02
2.030000e-06	4.248595e-06	1.129918e-08	2.947662e+01	7.427386e+02
2.040000e-06	4.180407e-06	1.124930e-08	2.900354e+01	7.389676e+02
2.050000e-06	4.110481e-06	1.120552e-08	2.851840e+01	7.349974e+02
2.060000e-06	4.039149e-06	1.110979e-08	2.802350e+01	7.307979e+02
2.070000e-06	3.966441e-06	1.108374e-08	2.751905e+01	7.263809e+02
2.080000e-06	3.892258e-06	1.099919e-08	2.700437e+01	7.217918e+02
2.090000e-06	3.816394e-06	1.096240e-08	2.647803e+01	7.170872e+02
2.100000e-06	3.738849e-06	1.087536e-08	2.594002e+01	7.123088e+02
2.110000e-06	3.659914e-06	1.077163e-08	2.539238e+01	7.074641e+02
2.120000e-06	3.579736e-06	1.070043e-08	2.483610e+01	7.025229e+02
2.130000e-06	3.498398e-06	1.061212e-08	2.427178e+01	6.974316e+02
2.140000e-06	3.415951e-06	1.056514e-08	2.369977e+01	6.921359e+02
2.150000e-06	3.332357e-06	1.047282e-08	2.311979e+01	6.866042e+02
2.160000e-06	3.247412e-06	1.038546e-08	2.253045e+01	6.808399e+02
2.170000e-06	3.161157e-06	1.029113e-08	2.193202e+01	6.748770e+02
2.180000e-06	3.073800e-06	1.019090e-08	2.132593e+01	6.687624e+02
2.190000e-06	2.985450e-06	1.009790e-08	2.071296e+01	6.625322e+02
2.200000e-06	2.896129e-06	9.996470e-09	2.009326e+01	6.561931e+02
2.210000e-06	2.805863e-06	9.911218e-09	1.946699e+01	6.497177e+02
2.220000e-06	2.714660e-06	9.818449e-09	1.883423e+01	6.430553e+02
2.230000e-06	2.622398e-06	9.714611e-09	1.819412e+01	6.361528e+02
2.240000e-06	2.529087e-06	9.590507e-09	1.754673e+01	6.289768e+02
2.250000e-06	2.434844e-06	9.470427e-09	1.689287e+01	6.215247e+02
2.260000e-06	2.339732e-06	9.358706e-09	1.623299e+01	6.138222e+02
2.270000e-06	2.243845e-06	9.253002e-09	1.556773e+01	6.059056e+02
2.280000e-06	2.147211e-06	9.134050e-09	1.489729e+01	5.977997e+02
2.290000e-06	2.049848e-06	9.002573e-09	1.422178e+01	5.895005e+02
2.300000e-06	1.951838e-06	8.870394e-09	1.354179e+01	5.809719e+02
2.310000e-06	1.853325e-06	8.733645e-09	1.285832e+01	5.721588e+02
2.320000e-06	1.754293e-06	8.593695e-09	1.217123e+01	5.630095e+02
2.330000e-06	1.654596e-06	8.442020e-09	1.147954e+01	5.534978e+02
2.340000e-06	1.554231e-06	8.299625e-09	1.078321e+01	5.436327e+02
2.350000e-06	1.453244e-06	8.154434e-09	1.008256e+01	5.334496e+02
2.360000e-06	1.351668e-06	7.997222e-09	9.377835e+00	5.229864e+02
2.370000e-06	1.249539e-06	7.828925e-09	8.669265e+00	5.122542e+02
2.380000e-06	1.146900e-06	7.653690e-09	7.957156e+00	5.012181e+02
2.390000e-06	1.043804e-06	7.482311e-09	7.241878e+00	4.897971e+02
2.400000e-06	9.403108e-07	7.304018e-09	6.523849e+00	4.778871e+02
2.410000e-06	8.365210e-07	7.116302e-09	5.803758e+00	4.653981e+02
2.420000e-06	7.324643e-07	6.917974e-09	5.081815e+00	4.522886e+02
2.430000e-06	6.281539e-07	6.710625e-09	4.358113e+00	4.385808e+02
2.440000e-06	5.236525e-07	6.495991e-09	3.633086e+00	4.243460e+02
2.450000e-06	4.190140e-07	6.271675e-09	2.907107e+00	4.096630e+02
2.460000e-06	3.142380e-07	6.038091e-09	2.180174e+00	3.945649e+02
2.470000e-06	2.093333e-07	5.798410e-09	1.452348e+00	3.789972e+02
2.480000e-06	1.043625e-07	5.550985e-09	7.240637e-01	3.628093e+02
2.490000e-06	-6.209263e-10	5.291041e-09	-4.307968e-03	3.457859e+02
2.500000e-06	-1.055810e-07	5.014010e-09	-7.325177e-01	3.277106e+02
2.510000e-06	-2.104698e-07	4.718110e-09	-1.460234e+00	3.084349e+02
2.520000e-06	-3.152557e-07	4.407258e-09	-2.187235e+00	2.879182e+02
2.530000e-06	-4.199436e-07	4.082902e-09	-2.913556e+00	2.662147e+02
2.540000e-06	-5.245203e-07	3.740691e-09	-3.639106e+00	2.433970e+02
2.550000e-06	-6.289870e-07	3.375965e-09	-4.363893e+00	2.194370e+02
2.560000e-06	-7.332514e-07	2.986691e-09	-5.087276e+00	1.940859e+02
2.570000e-06	-8.371615e-07	2.565356e-09	-5.808202e+00	1.668043e+02
2.580000e-06	-9.407278e-07	2.103339e-09	-6.526741e+00	1.367875e+02
2.590000e-06	-1.043962e-06	1.592379e-09	-7.242976e+00	1.031010e+02
2.600000e-06	-1.146782e-06	1.021203e-09	-7.956336e+00	6.490721e+01
2.610000e-06	-1.249179e-06	3.792292e-10	-8.666764e+00	2.172827e+01
2.620000e-06	-1.351141e-06	-3.387789e-10	-9.374179e+00	-2.633039e+01
2.630000e-06	-1.452532e-06	-1.129573e-09	-1.007762e+01	-7.846623e+01
2.640000e-06	-1.553271e-06	-1.973580e-09	-1.077655e+01	-1.332207e+02
2.650000e-06	-1.653392e-06	-2.834627e-09	-1.147118e+01	-1.886768e+02
2.660000e-06	-1.752841e-06	-3.671691e-09	-1.216116e+01	-2.427684e+02
2.670000e-06	-1.851582e-06	-4.450361e-09	-1.284622e+01	-2.936260e+02
2.680000e-06	-1.949771e-06	-5.153398e-09	-1.352745e+01	-3.398698e+02
2.690000e-06	-2.047367e-06	-5.774369e-09	-1.420457e+01	-3.807806e+02
2.700000e-06	-2.144204e-06	-6.315637e-09	-1.487643e+01	-4.163145e+02
2.710000e-06	-2.240319e-06	-6.790305e-09	-1.554327e+01	-4.469733e+02
2.720000e-06	-2.335807e-06	-7.211209e-09	-1.620576e+01	-4.735809e+02
2.730000e-06	-2.430605e-06	-7.582320e-09	-1.686347e+01	-4.970372e+02
2.740000e-06	-2.524525e-06	-7.908456e-09	-1.751508e+01	-5.181183e+02
2.750000e-06	-2.617426e-06	-8.200030e-09	-1.815962e+01	-5.373660e+02
2.760000e-06	-2.709232e-06	-8.466595e-09	-1.879657e+01	-5.550787e+02
2.770000e-06	-2.800006e-06	-8.712404e-09	-1.942636e+01	-5.713794e+02
2.780000e-06	-2.889781e-06	-8.938304e-09	-2.004921e+01	-5.863174e+02
2.790000e-06	-2.978541e-06	-9.147980e-09	-2.066503e+01	-5.999595e+02
2.800000e-06	-3.066305e-06	-9.345513e-09	-2.127393e+01	-6.124370e+02
2.810000e-06	-3.153048e-06	-9.530140e-09	-2.187575e+01	-6.239414e+02
2.820000e-06	-3.238639e-06	-9.697347e-09	-2.246958e+01	-6.346810e+02
2.830000e-06	-3.322922e-06	-9.849626e-09	-2.305433e+01	-6.448275e+02
2.840000e-06	-3.405985e-06	-9.995392e-09	-2.363063e+01	-6.544774e+02
2.850000e-06	-3.487942e-06	-1.013425e-08	-2.419924e+01	-6.636474e+02
2.860000e-06	-3.568718e-06	-1.026332e-08	-2.475966e+01	-6.723017e+02
2.870000e-06	-3.648295e-06	-1.038333e-08	-2.531176e+01	-6.803977e+02
2.880000e-06	-3.726531e-06	-1.049735e-08	-2.585456e+01	-6.879280e+02
2.890000e-06	-3.803237e-06	-1.060691e-08	-2.638675e+01	-6.949406e+02
2.900000e-06	-3.878418e-06	-1.070935e-08	-2.690835e+01	-7.015309e+02
2.910000e-06	-3.952108e-06	-1.080535e-08	-2.741961e+01	-7.078105e+02
2.920000e-06	-4.024457e-06	-1.090021e-08	-2.792157e+01	-7.138689e+02
2.930000e-06	-4.095536e-06	-1.099523e-08	-2.841470e+01	-7.197465e+02
2.940000e-06	-4.165064e-06	-1.108441e-08	-2.889709e+01	-7.254299e+02
