# Temperatura_=_29.63
# Concentracion g/m^3_=_13400.0
# C_Vs_to_Am_M_A/Vsm_=_65563218390.804596
# pendiente_HvsI_1/m_=_3716.3
# ordenada_HvsI_A/m_=_1297.0
# frecuencia_Hz_=_300808.15766199917

Tiempo_(s)	Campo_(V.s)	Magnetizacion_(V.s)	Campo_(kA/m)	Magnetizacion_(A/m)
0.000000e+00	-5.537804e-06	-1.208606e-08	-3.831139e+01	-7.918404e+02
1.000000e-08	-5.535757e-06	-1.208985e-08	-3.829723e+01	-7.917524e+02
2.000000e-08	-5.531726e-06	-1.208697e-08	-3.826934e+01	-7.914550e+02
3.000000e-08	-5.525950e-06	-1.207835e-08	-3.822938e+01	-7.909558e+02
4.000000e-08	-5.518513e-06	-1.206603e-08	-3.817794e+01	-7.903119e+02
5.000000e-08	-5.509403e-06	-1.205309e-08	-3.811491e+01	-7.896065e+02
6.000000e-08	-5.498314e-06	-1.204052e-08	-3.803820e+01	-7.889136e+02
7.000000e-08	-5.485138e-06	-1.201699e-08	-3.794704e+01	-7.882665e+02
8.000000e-08	-5.469850e-06	-1.202153e-08	-3.784127e+01	-7.876444e+02
9.000000e-08	-5.452182e-06	-1.207379e-08	-3.771905e+01	-7.869815e+02
1.000000e-07	-5.432282e-06	-1.206023e-08	-3.758137e+01	-7.861957e+02
1.100000e-07	-5.410411e-06	-1.201806e-08	-3.743007e+01	-7.852247e+02
1.200000e-07	-5.386784e-06	-1.198115e-08	-3.726661e+01	-7.840527e+02
1.300000e-07	-5.361746e-06	-1.186057e-08	-3.709340e+01	-7.827181e+02
1.400000e-07	-5.335135e-06	-1.190427e-08	-3.690930e+01	-7.812971e+02
1.500000e-07	-5.306605e-06	-1.195455e-08	-3.671192e+01	-7.798701e+02
1.600000e-07	-5.276413e-06	-1.180756e-08	-3.650305e+01	-7.784864e+02
1.700000e-07	-5.244621e-06	-1.188591e-08	-3.628310e+01	-7.771401e+02
1.800000e-07	-5.210763e-06	-1.189948e-08	-3.604887e+01	-7.757702e+02
1.900000e-07	-5.174933e-06	-1.175738e-08	-3.580099e+01	-7.742823e+02
2.000000e-07	-5.137583e-06	-1.180740e-08	-3.554260e+01	-7.725861e+02
2.100000e-07	-5.098478e-06	-1.172784e-08	-3.527207e+01	-7.706309e+02
2.200000e-07	-5.057512e-06	-1.164583e-08	-3.498866e+01	-7.684259e+02
2.300000e-07	-5.014539e-06	-1.170905e-08	-3.469136e+01	-7.660363e+02
2.400000e-07	-4.969610e-06	-1.166394e-08	-3.438054e+01	-7.635573e+02
2.500000e-07	-4.923016e-06	-1.164574e-08	-3.405819e+01	-7.610761e+02
2.600000e-07	-4.874520e-06	-1.157833e-08	-3.372269e+01	-7.586379e+02
2.700000e-07	-4.823880e-06	-1.147995e-08	-3.337235e+01	-7.562301e+02
2.800000e-07	-4.771138e-06	-1.149443e-08	-3.300747e+01	-7.537897e+02
2.900000e-07	-4.716566e-06	-1.145876e-08	-3.262994e+01	-7.512304e+02
3.000000e-07	-4.660410e-06	-1.140585e-08	-3.224144e+01	-7.484789e+02
3.100000e-07	-4.602561e-06	-1.137165e-08	-3.184124e+01	-7.455032e+02
3.200000e-07	-4.542870e-06	-1.135065e-08	-3.142828e+01	-7.423234e+02
3.300000e-07	-4.481585e-06	-1.129831e-08	-3.100431e+01	-7.389993e+02
3.400000e-07	-4.418806e-06	-1.120772e-08	-3.056999e+01	-7.356027e+02
3.500000e-07	-4.354555e-06	-1.115656e-08	-3.012549e+01	-7.321847e+02
3.600000e-07	-4.288734e-06	-1.108851e-08	-2.967013e+01	-7.287539e+02
3.700000e-07	-4.221132e-06	-1.106347e-08	-2.920245e+01	-7.252731e+02
3.800000e-07	-4.151920e-06	-1.103591e-08	-2.872363e+01	-7.216757e+02
3.900000e-07	-4.081282e-06	-1.094422e-08	-2.823495e+01	-7.178946e+02
4.000000e-07	-4.009380e-06	-1.088692e-08	-2.773752e+01	-7.138904e+02
4.100000e-07	-3.936190e-06	-1.082485e-08	-2.723118e+01	-7.096660e+02
4.200000e-07	-3.861392e-06	-1.076199e-08	-2.671371e+01	-7.052636e+02
4.300000e-07	-3.784911e-06	-1.068047e-08	-2.618460e+01	-7.007430e+02
4.400000e-07	-3.706883e-06	-1.060164e-08	-2.564479e+01	-6.961541e+02
4.500000e-07	-3.627300e-06	-1.054807e-08	-2.509423e+01	-6.915134e+02
4.600000e-07	-3.546260e-06	-1.048365e-08	-2.453358e+01	-6.867958e+02
4.700000e-07	-3.463922e-06	-1.040955e-08	-2.396395e+01	-6.819455e+02
4.800000e-07	-3.380368e-06	-1.031231e-08	-2.338591e+01	-6.768991e+02
4.900000e-07	-3.295779e-06	-1.023072e-08	-2.280072e+01	-6.716128e+02
5.000000e-07	-3.210223e-06	-1.015855e-08	-2.220882e+01	-6.660790e+02
5.100000e-07	-3.123686e-06	-1.007811e-08	-2.161015e+01	-6.603280e+02
5.200000e-07	-3.036175e-06	-9.986612e-09	-2.100473e+01	-6.544115e+02
5.300000e-07	-2.947706e-06	-9.883731e-09	-2.039269e+01	-6.483772e+02
5.400000e-07	-2.858205e-06	-9.793953e-09	-1.977351e+01	-6.422465e+02
5.500000e-07	-2.767487e-06	-9.704184e-09	-1.914591e+01	-6.360026e+02
5.600000e-07	-2.675633e-06	-9.599842e-09	-1.851045e+01	-6.295976e+02
5.700000e-07	-2.582822e-06	-9.487145e-09	-1.786836e+01	-6.229719e+02
5.800000e-07	-2.489080e-06	-9.382357e-09	-1.721984e+01	-6.160787e+02
5.900000e-07	-2.394562e-06	-9.285325e-09	-1.656595e+01	-6.089019e+02
6.000000e-07	-2.299332e-06	-9.176365e-09	-1.590714e+01	-6.014581e+02
6.100000e-07	-2.203352e-06	-9.054712e-09	-1.524313e+01	-5.937833e+02
6.200000e-07	-2.106622e-06	-8.928925e-09	-1.457394e+01	-5.859101e+02
6.300000e-07	-2.009003e-06	-8.805303e-09	-1.389860e+01	-5.778455e+02
6.400000e-07	-1.910433e-06	-8.678005e-09	-1.321667e+01	-5.695618e+02
6.500000e-07	-1.811002e-06	-8.539348e-09	-1.252879e+01	-5.610031e+02
6.600000e-07	-1.710879e-06	-8.400474e-09	-1.183613e+01	-5.521069e+02
6.700000e-07	-1.610248e-06	-8.265348e-09	-1.113995e+01	-5.428285e+02
6.800000e-07	-1.509149e-06	-8.125384e-09	-1.044052e+01	-5.331580e+02
6.900000e-07	-1.407518e-06	-7.972446e-09	-9.737427e+00	-5.231204e+02
7.000000e-07	-1.305345e-06	-7.809851e-09	-9.030582e+00	-5.127571e+02
7.100000e-07	-1.202747e-06	-7.646099e-09	-8.320793e+00	-5.020976e+02
7.200000e-07	-1.099753e-06	-7.479450e-09	-7.608262e+00	-4.911343e+02
7.300000e-07	-9.963925e-07	-7.303708e-09	-6.893199e+00	-4.798126e+02
7.400000e-07	-8.926845e-07	-7.118651e-09	-6.175730e+00	-4.680436e+02
7.500000e-07	-7.886337e-07	-6.929961e-09	-5.455891e+00	-4.557340e+02
7.600000e-07	-6.843291e-07	-6.737781e-09	-4.734296e+00	-4.428218e+02
7.700000e-07	-5.798453e-07	-6.535451e-09	-4.011460e+00	-4.292986e+02
7.800000e-07	-4.752068e-07	-6.317071e-09	-3.287555e+00	-4.152081e+02
7.900000e-07	-3.704303e-07	-6.092695e-09	-2.562695e+00	-4.006170e+02
8.000000e-07	-2.656156e-07	-5.868702e-09	-1.837570e+00	-3.855685e+02
8.100000e-07	-1.607173e-07	-5.636590e-09	-1.111867e+00	-3.700401e+02
8.200000e-07	-5.571503e-08	-5.388748e-09	-3.854452e-01	-3.539239e+02
8.300000e-07	4.933004e-08	-5.123200e-09	3.412729e-01	-3.370433e+02
8.400000e-07	1.543913e-07	-4.847925e-09	1.068103e+00	-3.192023e+02
8.500000e-07	2.593820e-07	-4.561980e-09	1.794445e+00	-3.002469e+02
8.600000e-07	3.642410e-07	-4.257640e-09	2.519876e+00	-2.801098e+02
8.700000e-07	4.689650e-07	-3.933044e-09	3.244373e+00	-2.588107e+02
8.800000e-07	5.735069e-07	-3.593750e-09	3.967610e+00	-2.364011e+02
8.900000e-07	6.778830e-07	-3.240770e-09	4.689700e+00	-2.128641e+02
9.000000e-07	7.820854e-07	-2.862358e-09	5.410588e+00	-1.880029e+02
9.100000e-07	8.860083e-07	-2.448232e-09	6.129544e+00	-1.613663e+02
9.200000e-07	9.896492e-07	-1.992095e-09	6.846548e+00	-1.322530e+02
9.300000e-07	1.092978e-06	-1.491274e-09	7.561391e+00	-9.981704e+01
9.400000e-07	1.195942e-06	-9.360763e-10	8.273716e+00	-6.326297e+01
9.500000e-07	1.298516e-06	-3.127231e-10	8.983340e+00	-2.208652e+01
9.600000e-07	1.400645e-06	3.844361e-10	9.689882e+00	2.370708e+01
9.700000e-07	1.502326e-06	1.148597e-09	1.039333e+01	7.347535e+01
9.800000e-07	1.603468e-06	1.957920e-09	1.109304e+01	1.259494e+02
9.900000e-07	1.704050e-06	2.780671e-09	1.178888e+01	1.793933e+02
1.000000e-06	1.804092e-06	3.581762e-09	1.248099e+01	2.318779e+02
1.010000e-06	1.903532e-06	4.330718e-09	1.316893e+01	2.816026e+02
1.020000e-06	2.002197e-06	5.009044e-09	1.385151e+01	3.271827e+02
1.030000e-06	2.099871e-06	5.613808e-09	1.452723e+01	3.678312e+02
1.040000e-06	2.196639e-06	6.150952e-09	1.519669e+01	4.033979e+02
1.050000e-06	2.292696e-06	6.624227e-09	1.586123e+01	4.342678e+02
1.060000e-06	2.388048e-06	7.036692e-09	1.652089e+01	4.611624e+02
1.070000e-06	2.482606e-06	7.399667e-09	1.717505e+01	4.849091e+02
1.080000e-06	2.576339e-06	7.722876e-09	1.782351e+01	5.062442e+02
1.090000e-06	2.669213e-06	8.013984e-09	1.846603e+01	5.256977e+02
1.100000e-06	2.761171e-06	8.279311e-09	1.910221e+01	5.435723e+02
1.110000e-06	2.852118e-06	8.523099e-09	1.973140e+01	5.600003e+02
1.120000e-06	2.941915e-06	8.749833e-09	2.035263e+01	5.750384e+02
1.130000e-06	3.030570e-06	8.960963e-09	2.096596e+01	5.887559e+02
1.140000e-06	3.118210e-06	9.156262e-09	2.157226e+01	6.012837e+02
1.150000e-06	3.204814e-06	9.334680e-09	2.217140e+01	6.128133e+02
1.160000e-06	3.290339e-06	9.496166e-09	2.276308e+01	6.235559e+02
1.170000e-06	3.374800e-06	9.643989e-09	2.334739e+01	6.336881e+02
1.180000e-06	3.458147e-06	9.785524e-09	2.392400e+01	6.433120e+02
1.190000e-06	3.540215e-06	9.924659e-09	2.449176e+01	6.524467e+02
1.200000e-06	3.620949e-06	1.005957e-08	2.505029e+01	6.610541e+02
1.210000e-06	3.700381e-06	1.018532e-08	2.559981e+01	6.690853e+02
1.220000e-06	3.778513e-06	1.030130e-08	2.614034e+01	6.765254e+02
1.230000e-06	3.855318e-06	1.040866e-08	2.667169e+01	6.834184e+02
1.240000e-06	3.930636e-06	1.050545e-08	2.719275e+01	6.898629e+02
1.250000e-06	4.004331e-06	1.059336e-08	2.770259e+01	6.959811e+02
1.260000e-06	4.076450e-06	1.067709e-08	2.820152e+01	7.018789e+02
1.270000e-06	4.147107e-06	1.076176e-08	2.869033e+01	7.076131e+02
1.280000e-06	4.216447e-06	1.084936e-08	2.917004e+01	7.131815e+02
1.290000e-06	4.284409e-06	1.093566e-08	2.964021e+01	7.185374e+02
1.300000e-06	4.350657e-06	1.101612e-08	3.009852e+01	7.236225e+02
1.310000e-06	4.415261e-06	1.108887e-08	3.054547e+01	7.284008e+02
1.320000e-06	4.478424e-06	1.115439e-08	3.098243e+01	7.328798e+02
1.330000e-06	4.540168e-06	1.121458e-08	3.140959e+01	7.371092e+02
1.340000e-06	4.600479e-06	1.127207e-08	3.182683e+01	7.411594e+02
1.350000e-06	4.659070e-06	1.132980e-08	3.223217e+01	7.450898e+02
1.360000e-06	4.715826e-06	1.138912e-08	3.262482e+01	7.489232e+02
1.370000e-06	4.770894e-06	1.144937e-08	3.300579e+01	7.526368e+02
1.380000e-06	4.824179e-06	1.150575e-08	3.337442e+01	7.561744e+02
1.390000e-06	4.875494e-06	1.155617e-08	3.372942e+01	7.594750e+02
1.400000e-06	4.924778e-06	1.160213e-08	3.407038e+01	7.625029e+02
1.410000e-06	4.972247e-06	1.164387e-08	3.439878e+01	7.652676e+02
1.420000e-06	5.018142e-06	1.168173e-08	3.471629e+01	7.678222e+02
1.430000e-06	5.062371e-06	1.171596e-08	3.502227e+01	7.702428e+02
1.440000e-06	5.104669e-06	1.174875e-08	3.531490e+01	7.725966e+02
1.450000e-06	5.145039e-06	1.178389e-08	3.559418e+01	7.749128e+02
1.460000e-06	5.183677e-06	1.182075e-08	3.586149e+01	7.771712e+02
1.470000e-06	5.220665e-06	1.185727e-08	3.611737e+01	7.793108e+02
1.480000e-06	5.255844e-06	1.188962e-08	3.636075e+01	7.812580e+02
1.490000e-06	5.289060e-06	1.191485e-08	3.659054e+01	7.829602e+02
1.500000e-06	5.320438e-06	1.193518e-08	3.680762e+01	7.844112e+02
1.510000e-06	5.350120e-06	1.195335e-08	3.701297e+01	7.856565e+02
1.520000e-06	5.377958e-06	1.197010e-08	3.720555e+01	7.867768e+02
1.530000e-06	5.403676e-06	1.198589e-08	3.738347e+01	7.878557e+02
1.540000e-06	5.427346e-06	1.200358e-08	3.754723e+01	7.889456e+02
1.550000e-06	5.449222e-06	1.202307e-08	3.769857e+01	7.900472e+02
1.560000e-06	5.469335e-06	1.204202e-08	3.783771e+01	7.911100e+02
1.570000e-06	5.487456e-06	1.205724e-08	3.796307e+01	7.920549e+02
1.580000e-06	5.503523e-06	1.206791e-08	3.807423e+01	7.928092e+02
1.590000e-06	5.517615e-06	1.207540e-08	3.817172e+01	7.933381e+02
1.600000e-06	5.529572e-06	1.208097e-08	3.825444e+01	7.936606e+02
1.610000e-06	5.539336e-06	1.208522e-08	3.832199e+01	7.938420e+02
1.620000e-06	5.547124e-06	1.208786e-08	3.837587e+01	7.939664e+02
1.630000e-06	5.553074e-06	1.209083e-08	3.841703e+01	7.941017e+02
1.640000e-06	5.557142e-06	1.209593e-08	3.844517e+01	7.942706e+02
1.650000e-06	5.559183e-06	1.210351e-08	3.845929e+01	7.944418e+02
1.660000e-06	5.559285e-06	1.210808e-08	3.846000e+01	7.945440e+02
1.670000e-06	5.557644e-06	1.210178e-08	3.844865e+01	7.944966e+02
1.680000e-06	5.554238e-06	1.209366e-08	3.842508e+01	7.942456e+02
1.690000e-06	5.548838e-06	1.208541e-08	3.838773e+01	7.937864e+02
1.700000e-06	5.541526e-06	1.207701e-08	3.833714e+01	7.931670e+02
1.710000e-06	5.532584e-06	1.206800e-08	3.827528e+01	7.924680e+02
1.720000e-06	5.521938e-06	1.206366e-08	3.820163e+01	7.917680e+02
1.730000e-06	5.509256e-06	1.208041e-08	3.811389e+01	7.911111e+02
1.740000e-06	5.494549e-06	1.202749e-08	3.801215e+01	7.904882e+02
1.750000e-06	5.477815e-06	1.196293e-08	3.789638e+01	7.898410e+02
1.760000e-06	5.458387e-06	1.196779e-08	3.776197e+01	7.890882e+02
1.770000e-06	5.436212e-06	1.195550e-08	3.760856e+01	7.881602e+02
1.780000e-06	5.412127e-06	1.204258e-08	3.744194e+01	7.870299e+02
1.790000e-06	5.387115e-06	1.202410e-08	3.726890e+01	7.857249e+02
1.800000e-06	5.361225e-06	1.186629e-08	3.708979e+01	7.843153e+02
1.810000e-06	5.333200e-06	1.197236e-08	3.689591e+01	7.828841e+02
1.820000e-06	5.302916e-06	1.192605e-08	3.668640e+01	7.814897e+02
1.830000e-06	5.271157e-06	1.181301e-08	3.646669e+01	7.801390e+02
1.840000e-06	5.237578e-06	1.196610e-08	3.623438e+01	7.787817e+02
1.850000e-06	5.202211e-06	1.185069e-08	3.598971e+01	7.773276e+02
1.860000e-06	5.165007e-06	1.178800e-08	3.573232e+01	7.756822e+02
1.870000e-06	5.125636e-06	1.191630e-08	3.545995e+01	7.737841e+02
1.880000e-06	5.084673e-06	1.176441e-08	3.517656e+01	7.716289e+02
1.890000e-06	5.042056e-06	1.173194e-08	3.488173e+01	7.692715e+02
1.900000e-06	4.997446e-06	1.168276e-08	3.457311e+01	7.668037e+02
1.910000e-06	4.951030e-06	1.159817e-08	3.425200e+01	7.643174e+02
1.920000e-06	4.902718e-06	1.173008e-08	3.391777e+01	7.618692e+02
1.930000e-06	4.852663e-06	1.160649e-08	3.357148e+01	7.594590e+02
1.940000e-06	4.800817e-06	1.154563e-08	3.321280e+01	7.570327e+02
1.950000e-06	4.746895e-06	1.154883e-08	3.283976e+01	7.545062e+02
1.960000e-06	4.691237e-06	1.145378e-08	3.245471e+01	7.518005e+02
1.970000e-06	4.633863e-06	1.144969e-08	3.205779e+01	7.488730e+02
1.980000e-06	4.574925e-06	1.133413e-08	3.165004e+01	7.457331e+02
1.990000e-06	4.514403e-06	1.134102e-08	3.123134e+01	7.424340e+02
2.000000e-06	4.452037e-06	1.131837e-08	3.079989e+01	7.390476e+02
2.010000e-06	4.388086e-06	1.123947e-08	3.035746e+01	7.356320e+02
2.020000e-06	4.322576e-06	1.122675e-08	2.990425e+01	7.322058e+02
2.030000e-06	4.255670e-06	1.108606e-08	2.944139e+01	7.287409e+02
2.040000e-06	4.187172e-06	1.108163e-08	2.896751e+01	7.251747e+02
2.050000e-06	4.116880e-06	1.102027e-08	2.848122e+01	7.214378e+02
2.060000e-06	4.045227e-06	1.094056e-08	2.798551e+01	7.174828e+02
2.070000e-06	3.972212e-06	1.090899e-08	2.748038e+01	7.133033e+02
2.080000e-06	3.897711e-06	1.081182e-08	2.696497e+01	7.089344e+02
2.090000e-06	3.821515e-06	1.079829e-08	2.643784e+01	7.044343e+02
2.100000e-06	3.743619e-06	1.069135e-08	2.589894e+01	6.998575e+02
2.110000e-06	3.664350e-06	1.061716e-08	2.535054e+01	6.952287e+02
2.120000e-06	3.583893e-06	1.054162e-08	2.479393e+01	6.905318e+02
2.130000e-06	3.502294e-06	1.046184e-08	2.422942e+01	6.857155e+02
2.140000e-06	3.419558e-06	1.041841e-08	2.365704e+01	6.807161e+02
2.150000e-06	3.335614e-06	1.030962e-08	2.307630e+01	6.754833e+02
2.160000e-06	3.250194e-06	1.024263e-08	2.248535e+01	6.700013e+02
2.170000e-06	3.163508e-06	1.014225e-08	2.188564e+01	6.642931e+02
2.180000e-06	3.075805e-06	1.006341e-08	2.127890e+01	6.584076e+02
2.190000e-06	2.987082e-06	9.971661e-09	2.066510e+01	6.523958e+02
2.200000e-06	2.897415e-06	9.862686e-09	2.004477e+01	6.462860e+02
2.210000e-06	2.806875e-06	9.781585e-09	1.941840e+01	6.400697e+02
2.220000e-06	2.715406e-06	9.685688e-09	1.878560e+01	6.337044e+02
2.230000e-06	2.622785e-06	9.596067e-09	1.814483e+01	6.271308e+02
2.240000e-06	2.529048e-06	9.471928e-09	1.749635e+01	6.202977e+02
2.250000e-06	2.434406e-06	9.360267e-09	1.684160e+01	6.131815e+02
2.260000e-06	2.338984e-06	9.254059e-09	1.618146e+01	6.057924e+02
2.270000e-06	2.242779e-06	9.147343e-09	1.551589e+01	5.981640e+02
2.280000e-06	2.145807e-06	9.033023e-09	1.484503e+01	5.903317e+02
2.290000e-06	2.048110e-06	8.903388e-09	1.416914e+01	5.823095e+02
2.300000e-06	1.949754e-06	8.780955e-09	1.348870e+01	5.740769e+02
2.310000e-06	1.850895e-06	8.651878e-09	1.280478e+01	5.655828e+02
2.320000e-06	1.751507e-06	8.518137e-09	1.211720e+01	5.567637e+02
2.330000e-06	1.651449e-06	8.371152e-09	1.142498e+01	5.475695e+02
2.340000e-06	1.550656e-06	8.226338e-09	1.072768e+01	5.379821e+02
2.350000e-06	1.449151e-06	8.081629e-09	1.002545e+01	5.280200e+02
2.360000e-06	1.347002e-06	7.930156e-09	9.318768e+00	5.177233e+02
2.370000e-06	1.244354e-06	7.764971e-09	8.608632e+00	5.071266e+02
2.380000e-06	1.141357e-06	7.592984e-09	7.896089e+00	4.962316e+02
2.390000e-06	1.038000e-06	7.424523e-09	7.181046e+00	4.849936e+02
2.400000e-06	9.342512e-07	7.249587e-09	6.463296e+00	4.733288e+02
2.410000e-06	8.301398e-07	7.064769e-09	5.743037e+00	4.611420e+02
2.420000e-06	7.257327e-07	6.868084e-09	5.020732e+00	4.483618e+02
2.430000e-06	6.210859e-07	6.665129e-09	4.296769e+00	4.349675e+02
2.440000e-06	5.162552e-07	6.454507e-09	3.571534e+00	4.209933e+02
2.450000e-06	4.112986e-07	6.234067e-09	2.845428e+00	4.065044e+02
2.460000e-06	3.062304e-07	6.002362e-09	2.118550e+00	3.915533e+02
2.470000e-06	2.010585e-07	5.764714e-09	1.390954e+00	3.761340e+02
2.480000e-06	9.581383e-08	5.522867e-09	6.628550e-01	3.601570e+02
2.490000e-06	-9.503396e-09	5.269577e-09	-6.574598e-02	3.434571e+02
2.500000e-06	-1.148330e-07	4.997782e-09	-7.944327e-01	3.258374e+02
2.510000e-06	-2.200536e-07	4.706670e-09	-1.522365e+00	3.071300e+02
2.520000e-06	-3.252245e-07	4.404347e-09	-2.249954e+00	2.872471e+02
2.530000e-06	-4.302880e-07	4.089793e-09	-2.976800e+00	2.661926e+02
2.540000e-06	-5.351342e-07	3.755595e-09	-3.702142e+00	2.440185e+02
2.550000e-06	-6.397950e-07	3.398769e-09	-4.426202e+00	2.207321e+02
2.560000e-06	-7.442631e-07	3.021619e-09	-5.148928e+00	1.961836e+02
2.570000e-06	-8.484605e-07	2.621499e-09	-5.869782e+00	1.699790e+02
2.580000e-06	-9.523030e-07	2.186336e-09	-6.588180e+00	1.414654e+02
2.590000e-06	-1.055770e-06	1.702254e-09	-7.303980e+00	1.098138e+02
2.600000e-06	-1.158861e-06	1.160867e-09	-8.017182e+00	7.419844e+01
2.610000e-06	-1.261545e-06	5.580493e-10	-8.727566e+00	3.403233e+01
2.620000e-06	-1.363777e-06	-1.114950e-10	-9.434824e+00	-1.080322e+01
2.630000e-06	-1.465488e-06	-8.510781e-10	-1.013848e+01	-5.980655e+01
2.640000e-06	-1.566543e-06	-1.648825e-09	-1.083759e+01	-1.118345e+02
2.650000e-06	-1.666854e-06	-2.472926e-09	-1.153155e+01	-1.652310e+02
2.660000e-06	-1.766441e-06	-3.288755e-09	-1.222052e+01	-2.180818e+02
2.670000e-06	-1.865397e-06	-4.065268e-09	-1.290510e+01	-2.685321e+02
2.680000e-06	-1.963768e-06	-4.778476e-09	-1.358565e+01	-3.150884e+02
2.690000e-06	-2.061519e-06	-5.414843e-09	-1.426191e+01	-3.568271e+02
2.700000e-06	-2.158585e-06	-5.973002e-09	-1.493343e+01	-3.934659e+02
2.710000e-06	-2.254974e-06	-6.463437e-09	-1.560026e+01	-4.252893e+02
2.720000e-06	-2.350652e-06	-6.896457e-09	-1.626217e+01	-4.529662e+02
2.730000e-06	-2.445567e-06	-7.275660e-09	-1.691882e+01	-4.773198e+02
2.740000e-06	-2.539730e-06	-7.609809e-09	-1.757025e+01	-4.991189e+02
2.750000e-06	-2.632978e-06	-7.914945e-09	-1.821535e+01	-5.189427e+02
2.760000e-06	-2.725072e-06	-8.197632e-09	-1.885248e+01	-5.371398e+02
2.770000e-06	-2.816059e-06	-8.453105e-09	-1.948194e+01	-5.538718e+02
2.780000e-06	-2.906015e-06	-8.680685e-09	-2.010426e+01	-5.692033e+02
2.790000e-06	-2.994926e-06	-8.890872e-09	-2.071936e+01	-5.831949e+02
2.800000e-06	-3.082840e-06	-9.091248e-09	-2.132757e+01	-5.959630e+02
2.810000e-06	-3.169791e-06	-9.278729e-09	-2.192911e+01	-6.076885e+02
2.820000e-06	-3.255622e-06	-9.447788e-09	-2.252290e+01	-6.185827e+02
2.830000e-06	-3.340099e-06	-9.602364e-09	-2.310733e+01	-6.288340e+02
2.840000e-06	-3.423283e-06	-9.752258e-09	-2.368281e+01	-6.385624e+02
2.850000e-06	-3.505304e-06	-9.895635e-09	-2.425024e+01	-6.478036e+02
2.860000e-06	-3.586219e-06	-1.002637e-08	-2.481002e+01	-6.565284e+02
2.870000e-06	-3.665988e-06	-1.014493e-08	-2.536188e+01	-6.646859e+02
2.880000e-06	-3.744418e-06	-1.025755e-08	-2.590447e+01	-6.722509e+02
2.890000e-06	-3.821289e-06	-1.036704e-08	-2.643627e+01	-6.792543e+02
2.900000e-06	-3.896587e-06	-1.047005e-08	-2.695720e+01	-6.857846e+02
2.910000e-06	-3.970442e-06	-1.056575e-08	-2.746814e+01	-6.919625e+02
2.920000e-06	-4.042905e-06	-1.065771e-08	-2.796945e+01	-6.979005e+02
2.930000e-06	-4.113958e-06	-1.075004e-08	-2.846101e+01	-7.036679e+02
2.940000e-06	-4.183495e-06	-1.083940e-08	-2.894207e+01	-7.092744e+02
