# Temperatura_=_40.0
# Concentracion g/m^3_=_13400.0
# C_Vs_to_Am_M_A/Vsm_=_65563218390.804596
# pendiente_HvsI_1/m_=_3716.3
# ordenada_HvsI_A/m_=_1297.0
# frecuencia_Hz_=_300801.16672247584

Tiempo_(s)	Campo_(V.s)	Magnetizacion_(V.s)	Campo_(kA/m)	Magnetizacion_(A/m)
0.000000e+00	-5.511724e-06	-1.223925e-08	-3.830863e+01	-8.018980e+02
1.000000e-08	-5.510176e-06	-1.224246e-08	-3.829787e+01	-8.018397e+02
2.000000e-08	-5.506635e-06	-1.223931e-08	-3.827325e+01	-8.015535e+02
3.000000e-08	-5.501310e-06	-1.223162e-08	-3.823625e+01	-8.010543e+02
4.000000e-08	-5.494363e-06	-1.222121e-08	-3.818796e+01	-8.004101e+02
5.000000e-08	-5.485787e-06	-1.220586e-08	-3.812836e+01	-7.997126e+02
6.000000e-08	-5.475289e-06	-1.218971e-08	-3.805539e+01	-7.990394e+02
7.000000e-08	-5.462677e-06	-1.216885e-08	-3.796773e+01	-7.984217e+02
8.000000e-08	-5.448108e-06	-1.214217e-08	-3.786647e+01	-7.978319e+02
9.000000e-08	-5.431238e-06	-1.221114e-08	-3.774922e+01	-7.971967e+02
1.000000e-07	-5.411961e-06	-1.225694e-08	-3.761523e+01	-7.964296e+02
1.100000e-07	-5.390656e-06	-1.219004e-08	-3.746716e+01	-7.954688e+02
1.200000e-07	-5.367512e-06	-1.216858e-08	-3.730630e+01	-7.943038e+02
1.300000e-07	-5.342901e-06	-1.205220e-08	-3.713524e+01	-7.929801e+02
1.400000e-07	-5.316906e-06	-1.196192e-08	-3.695457e+01	-7.915789e+02
1.500000e-07	-5.289049e-06	-1.216665e-08	-3.676095e+01	-7.901816e+02
1.600000e-07	-5.259371e-06	-1.202575e-08	-3.655468e+01	-7.888326e+02
1.700000e-07	-5.228139e-06	-1.192980e-08	-3.633760e+01	-7.875186e+02
1.800000e-07	-5.195003e-06	-1.214140e-08	-3.610730e+01	-7.861707e+02
1.900000e-07	-5.159781e-06	-1.195240e-08	-3.586249e+01	-7.846911e+02
2.000000e-07	-5.122933e-06	-1.191634e-08	-3.560638e+01	-7.829912e+02
2.100000e-07	-5.084405e-06	-1.197580e-08	-3.533860e+01	-7.810267e+02
2.200000e-07	-5.044062e-06	-1.178381e-08	-3.505820e+01	-7.788143e+02
2.300000e-07	-5.001848e-06	-1.182625e-08	-3.476479e+01	-7.764233e+02
2.400000e-07	-4.957621e-06	-1.187232e-08	-3.445740e+01	-7.739461e+02
2.500000e-07	-4.911634e-06	-1.179733e-08	-3.413777e+01	-7.714603e+02
2.600000e-07	-4.863874e-06	-1.178878e-08	-3.380582e+01	-7.689978e+02
2.700000e-07	-4.814140e-06	-1.165844e-08	-3.346015e+01	-7.665340e+02
2.800000e-07	-4.762348e-06	-1.163903e-08	-3.310017e+01	-7.640007e+02
2.900000e-07	-4.708560e-06	-1.163426e-08	-3.272633e+01	-7.613166e+02
3.000000e-07	-4.653043e-06	-1.156404e-08	-3.234046e+01	-7.584219e+02
3.100000e-07	-4.595943e-06	-1.152392e-08	-3.194359e+01	-7.553027e+02
3.200000e-07	-4.537055e-06	-1.148380e-08	-3.153430e+01	-7.519940e+02
3.300000e-07	-4.476436e-06	-1.148144e-08	-3.111298e+01	-7.485613e+02
3.400000e-07	-4.414324e-06	-1.137565e-08	-3.068127e+01	-7.450706e+02
3.500000e-07	-4.350743e-06	-1.129867e-08	-3.023936e+01	-7.415574e+02
3.600000e-07	-4.285642e-06	-1.125259e-08	-2.978688e+01	-7.380120e+02
3.700000e-07	-4.218863e-06	-1.118913e-08	-2.932274e+01	-7.343840e+02
3.800000e-07	-4.150421e-06	-1.118065e-08	-2.884704e+01	-7.306055e+02
3.900000e-07	-4.080488e-06	-1.110176e-08	-2.836098e+01	-7.266222e+02
4.000000e-07	-4.009245e-06	-1.101789e-08	-2.786581e+01	-7.224169e+02
4.100000e-07	-3.936753e-06	-1.096401e-08	-2.736197e+01	-7.180165e+02
4.200000e-07	-3.862839e-06	-1.089669e-08	-2.684823e+01	-7.134782e+02
4.300000e-07	-3.787239e-06	-1.082407e-08	-2.632278e+01	-7.088616e+02
4.400000e-07	-3.709951e-06	-1.072865e-08	-2.578560e+01	-7.041993e+02
4.500000e-07	-3.631190e-06	-1.067139e-08	-2.523819e+01	-6.994794e+02
4.600000e-07	-3.550978e-06	-1.061322e-08	-2.468068e+01	-6.946478e+02
4.700000e-07	-3.469336e-06	-1.053717e-08	-2.411324e+01	-6.896306e+02
4.800000e-07	-3.386436e-06	-1.044355e-08	-2.353705e+01	-6.843651e+02
4.900000e-07	-3.302429e-06	-1.033657e-08	-2.295316e+01	-6.788281e+02
5.000000e-07	-3.217450e-06	-1.026601e-08	-2.236253e+01	-6.730458e+02
5.100000e-07	-3.131505e-06	-1.018722e-08	-2.176518e+01	-6.670830e+02
5.200000e-07	-3.044609e-06	-1.009472e-08	-2.116122e+01	-6.610145e+02
5.300000e-07	-2.956758e-06	-9.988424e-09	-2.055062e+01	-6.548910e+02
5.400000e-07	-2.867928e-06	-9.889629e-09	-1.993321e+01	-6.487153e+02
5.500000e-07	-2.778062e-06	-9.802408e-09	-1.930861e+01	-6.424382e+02
5.600000e-07	-2.687025e-06	-9.697075e-09	-1.867587e+01	-6.359777e+02
5.700000e-07	-2.594838e-06	-9.586299e-09	-1.803513e+01	-6.292518e+02
5.800000e-07	-2.501750e-06	-9.473912e-09	-1.738813e+01	-6.222111e+02
5.900000e-07	-2.407938e-06	-9.375739e-09	-1.673611e+01	-6.148576e+02
6.000000e-07	-2.313327e-06	-9.269155e-09	-1.607852e+01	-6.072391e+02
6.100000e-07	-2.217923e-06	-9.143853e-09	-1.541543e+01	-5.994233e+02
6.200000e-07	-2.121786e-06	-9.011157e-09	-1.474724e+01	-5.914625e+02
6.300000e-07	-2.024845e-06	-8.881583e-09	-1.407346e+01	-5.833637e+02
6.400000e-07	-1.927066e-06	-8.758632e-09	-1.339386e+01	-5.750802e+02
6.500000e-07	-1.828488e-06	-8.622473e-09	-1.270871e+01	-5.665266e+02
6.600000e-07	-1.729121e-06	-8.480542e-09	-1.201806e+01	-5.576120e+02
6.700000e-07	-1.629049e-06	-8.341223e-09	-1.132252e+01	-5.482775e+02
6.800000e-07	-1.528422e-06	-8.204570e-09	-1.062313e+01	-5.385184e+02
6.900000e-07	-1.427368e-06	-8.053402e-09	-9.920763e+00	-5.283826e+02
7.000000e-07	-1.325905e-06	-7.886924e-09	-9.215553e+00	-5.179426e+02
7.100000e-07	-1.223984e-06	-7.717931e-09	-8.507168e+00	-5.072550e+02
7.200000e-07	-1.121619e-06	-7.549143e-09	-7.795686e+00	-4.963234e+02
7.300000e-07	-1.018859e-06	-7.375953e-09	-7.081465e+00	-4.850846e+02
7.400000e-07	-9.157253e-07	-7.191795e-09	-6.364648e+00	-4.734237e+02
7.500000e-07	-8.122805e-07	-7.003857e-09	-5.645666e+00	-4.612148e+02
7.600000e-07	-7.085883e-07	-6.812106e-09	-4.924964e+00	-4.483682e+02
7.700000e-07	-6.046809e-07	-6.611066e-09	-4.202768e+00	-4.348637e+02
7.800000e-07	-5.005966e-07	-6.393705e-09	-3.479341e+00	-4.207516e+02
7.900000e-07	-3.963448e-07	-6.166651e-09	-2.754750e+00	-4.061191e+02
8.000000e-07	-2.919687e-07	-5.939719e-09	-2.029296e+00	-3.910344e+02
8.100000e-07	-1.874846e-07	-5.707600e-09	-1.303091e+00	-3.754923e+02
8.200000e-07	-8.290696e-08	-5.460155e-09	-5.762357e-01	-3.593868e+02
8.300000e-07	2.172363e-08	-5.194888e-09	1.509877e-01	-3.425271e+02
8.400000e-07	1.263330e-07	-4.918822e-09	8.780638e-01	-3.246921e+02
8.500000e-07	2.308594e-07	-4.633355e-09	1.604563e+00	-3.057018e+02
8.600000e-07	3.353474e-07	-4.331737e-09	2.330795e+00	-2.854713e+02
8.700000e-07	4.397226e-07	-4.006797e-09	3.056243e+00	-2.640142e+02
8.800000e-07	5.439022e-07	-3.663095e-09	3.780332e+00	-2.413839e+02
8.900000e-07	6.478845e-07	-3.302097e-09	4.503049e+00	-2.175631e+02
9.000000e-07	7.516964e-07	-2.916982e-09	5.224583e+00	-1.923412e+02
9.100000e-07	8.553303e-07	-2.494202e-09	5.944879e+00	-1.652327e+02
9.200000e-07	9.586658e-07	-2.026155e-09	6.663101e+00	-1.354838e+02
9.300000e-07	1.061655e-06	-1.514077e-09	7.378913e+00	-1.021906e+02
9.400000e-07	1.164257e-06	-9.469595e-10	8.092041e+00	-6.451547e+01
9.500000e-07	1.266411e-06	-3.066513e-10	8.802047e+00	-2.194868e+01
9.600000e-07	1.368148e-06	4.156253e-10	9.509158e+00	2.545822e+01
9.700000e-07	1.469484e-06	1.207421e-09	1.021348e+01	7.696356e+01
9.800000e-07	1.570357e-06	2.043489e-09	1.091459e+01	1.311610e+02
9.900000e-07	1.670769e-06	2.891193e-09	1.161249e+01	1.861660e+02
1.000000e-06	1.770613e-06	3.717143e-09	1.230645e+01	2.399227e+02
1.010000e-06	1.869662e-06	4.485660e-09	1.299488e+01	2.905532e+02
1.020000e-06	1.967828e-06	5.171377e-09	1.367717e+01	3.366603e+02
1.030000e-06	2.065136e-06	5.775238e-09	1.435350e+01	3.775071e+02
1.040000e-06	2.161688e-06	6.307901e-09	1.502457e+01	4.130375e+02
1.050000e-06	2.257543e-06	6.776911e-09	1.569080e+01	4.437464e+02
1.060000e-06	2.352656e-06	7.185322e-09	1.635187e+01	4.704523e+02
1.070000e-06	2.446962e-06	7.547105e-09	1.700734e+01	4.940451e+02
1.080000e-06	2.540470e-06	7.873675e-09	1.765726e+01	5.152826e+02
1.090000e-06	2.633202e-06	8.170394e-09	1.830178e+01	5.346807e+02
1.100000e-06	2.725105e-06	8.437712e-09	1.894054e+01	5.525096e+02
1.110000e-06	2.815893e-06	8.678023e-09	1.957155e+01	5.688698e+02
1.120000e-06	2.905384e-06	8.897756e-09	2.019355e+01	5.838020e+02
1.130000e-06	2.993859e-06	9.102973e-09	2.080848e+01	5.973810e+02
1.140000e-06	3.081391e-06	9.296438e-09	2.141687e+01	6.097613e+02
1.150000e-06	3.167829e-06	9.473318e-09	2.201764e+01	6.211642e+02
1.160000e-06	3.253210e-06	9.635045e-09	2.261108e+01	6.318253e+02
1.170000e-06	3.337665e-06	9.787353e-09	2.319807e+01	6.419305e+02
1.180000e-06	3.421004e-06	9.933922e-09	2.377731e+01	6.515741e+02
1.190000e-06	3.502940e-06	1.007454e-08	2.434680e+01	6.607552e+02
1.200000e-06	3.583614e-06	1.020680e-08	2.490751e+01	6.694127e+02
1.210000e-06	3.663051e-06	1.032758e-08	2.545963e+01	6.774808e+02
1.220000e-06	3.741145e-06	1.044103e-08	2.600241e+01	6.849395e+02
1.230000e-06	3.817955e-06	1.054962e-08	2.653627e+01	6.918400e+02
1.240000e-06	3.893311e-06	1.065086e-08	2.706003e+01	6.982941e+02
1.250000e-06	3.966982e-06	1.074425e-08	2.757207e+01	7.044366e+02
1.260000e-06	4.039124e-06	1.083279e-08	2.807348e+01	7.103780e+02
1.270000e-06	4.109919e-06	1.091896e-08	2.856554e+01	7.161700e+02
1.280000e-06	4.179338e-06	1.100198e-08	2.904803e+01	7.217972e+02
1.290000e-06	4.247400e-06	1.108146e-08	2.952108e+01	7.271979e+02
1.300000e-06	4.313776e-06	1.115830e-08	2.998242e+01	7.323039e+02
1.310000e-06	4.378463e-06	1.123218e-08	3.043203e+01	7.370790e+02
1.320000e-06	4.441748e-06	1.130107e-08	3.087188e+01	7.415408e+02
1.330000e-06	4.503565e-06	1.136423e-08	3.130153e+01	7.457555e+02
1.340000e-06	4.564040e-06	1.142475e-08	3.172186e+01	7.498096e+02
1.350000e-06	4.622890e-06	1.148474e-08	3.213088e+01	7.537726e+02
1.360000e-06	4.679823e-06	1.154271e-08	3.252659e+01	7.576665e+02
1.370000e-06	4.735054e-06	1.159865e-08	3.291047e+01	7.614580e+02
1.380000e-06	4.788621e-06	1.165360e-08	3.328278e+01	7.650748e+02
1.390000e-06	4.840205e-06	1.170466e-08	3.364131e+01	7.684401e+02
1.400000e-06	4.889690e-06	1.175065e-08	3.398525e+01	7.715087e+02
1.410000e-06	4.937379e-06	1.179210e-08	3.431671e+01	7.742896e+02
1.420000e-06	4.983420e-06	1.183046e-08	3.463671e+01	7.768435e+02
1.430000e-06	5.027910e-06	1.186850e-08	3.494594e+01	7.792584e+02
1.440000e-06	5.070487e-06	1.190608e-08	3.524186e+01	7.816126e+02
1.450000e-06	5.111049e-06	1.194266e-08	3.552378e+01	7.839423e+02
1.460000e-06	5.149915e-06	1.197628e-08	3.579391e+01	7.862272e+02
1.470000e-06	5.187164e-06	1.200735e-08	3.605281e+01	7.884020e+02
1.480000e-06	5.222628e-06	1.203626e-08	3.629930e+01	7.903868e+02
1.490000e-06	5.256080e-06	1.206182e-08	3.653180e+01	7.921243e+02
1.500000e-06	5.287739e-06	1.208442e-08	3.675184e+01	7.936073e+02
1.510000e-06	5.317717e-06	1.210522e-08	3.696020e+01	7.948840e+02
1.520000e-06	5.345928e-06	1.212490e-08	3.715628e+01	7.960389e+02
1.530000e-06	5.372052e-06	1.214442e-08	3.733785e+01	7.971578e+02
1.540000e-06	5.396052e-06	1.216326e-08	3.750466e+01	7.982918e+02
1.550000e-06	5.418230e-06	1.217901e-08	3.765881e+01	7.994364e+02
1.560000e-06	5.438749e-06	1.219357e-08	3.780142e+01	8.005341e+02
1.570000e-06	5.457369e-06	1.220832e-08	3.793084e+01	8.015007e+02
1.580000e-06	5.473914e-06	1.221893e-08	3.804584e+01	8.022628e+02
1.590000e-06	5.488532e-06	1.222406e-08	3.814744e+01	8.027905e+02
1.600000e-06	5.501079e-06	1.222853e-08	3.823464e+01	8.031122e+02
1.610000e-06	5.511365e-06	1.223547e-08	3.830613e+01	8.033038e+02
1.620000e-06	5.519572e-06	1.224362e-08	3.836318e+01	8.034568e+02
1.630000e-06	5.525948e-06	1.224977e-08	3.840749e+01	8.036401e+02
1.640000e-06	5.530521e-06	1.225226e-08	3.843927e+01	8.038711e+02
1.650000e-06	5.533032e-06	1.225485e-08	3.845673e+01	8.041079e+02
1.660000e-06	5.533503e-06	1.226103e-08	3.846000e+01	8.042677e+02
1.670000e-06	5.532237e-06	1.225678e-08	3.845120e+01	8.042619e+02
1.680000e-06	5.529286e-06	1.224656e-08	3.843069e+01	8.040339e+02
1.690000e-06	5.524375e-06	1.223918e-08	3.839655e+01	8.035837e+02
1.700000e-06	5.517499e-06	1.223279e-08	3.834877e+01	8.029677e+02
1.710000e-06	5.508975e-06	1.222751e-08	3.828952e+01	8.022753e+02
1.720000e-06	5.498786e-06	1.222407e-08	3.821870e+01	8.015912e+02
1.730000e-06	5.486723e-06	1.224358e-08	3.813486e+01	8.009603e+02
1.740000e-06	5.472624e-06	1.224147e-08	3.803687e+01	8.003693e+02
1.750000e-06	5.456531e-06	1.211220e-08	3.792501e+01	7.997540e+02
1.760000e-06	5.437987e-06	1.208759e-08	3.779613e+01	7.990276e+02
1.770000e-06	5.416534e-06	1.209952e-08	3.764702e+01	7.981188e+02
1.780000e-06	5.392847e-06	1.213858e-08	3.748239e+01	7.970029e+02
1.790000e-06	5.368074e-06	1.227520e-08	3.731021e+01	7.957123e+02
1.800000e-06	5.342609e-06	1.202461e-08	3.713321e+01	7.943225e+02
1.810000e-06	5.315363e-06	1.202612e-08	3.694384e+01	7.929184e+02
1.820000e-06	5.285653e-06	1.221631e-08	3.673735e+01	7.915565e+02
1.830000e-06	5.254365e-06	1.191521e-08	3.651988e+01	7.902386e+02
1.840000e-06	5.221386e-06	1.200984e-08	3.629067e+01	7.889082e+02
1.850000e-06	5.186559e-06	1.211645e-08	3.604861e+01	7.874711e+02
1.860000e-06	5.150092e-06	1.183693e-08	3.579514e+01	7.858329e+02
1.870000e-06	5.111452e-06	1.202453e-08	3.552659e+01	7.839357e+02
1.880000e-06	5.070997e-06	1.199329e-08	3.524540e+01	7.817808e+02
1.890000e-06	5.029019e-06	1.179571e-08	3.495364e+01	7.794264e+02
1.900000e-06	4.985109e-06	1.188159e-08	3.464845e+01	7.769625e+02
1.910000e-06	4.939456e-06	1.169814e-08	3.433115e+01	7.744740e+02
1.920000e-06	4.891953e-06	1.180047e-08	3.400098e+01	7.720062e+02
1.930000e-06	4.842576e-06	1.182565e-08	3.365779e+01	7.695481e+02
1.940000e-06	4.791524e-06	1.160800e-08	3.330296e+01	7.670402e+02
1.950000e-06	4.738345e-06	1.169530e-08	3.293334e+01	7.644010e+02
1.960000e-06	4.683324e-06	1.158720e-08	3.255092e+01	7.615627e+02
1.970000e-06	4.626663e-06	1.155862e-08	3.215711e+01	7.584984e+02
1.980000e-06	4.568327e-06	1.148756e-08	3.175165e+01	7.552319e+02
1.990000e-06	4.508451e-06	1.139425e-08	3.133549e+01	7.518238e+02
2.000000e-06	4.446775e-06	1.147837e-08	3.090682e+01	7.483429e+02
2.010000e-06	4.383506e-06	1.133266e-08	3.046708e+01	7.448347e+02
2.020000e-06	4.318724e-06	1.134221e-08	3.001681e+01	7.413011e+02
2.030000e-06	4.252471e-06	1.123549e-08	2.955633e+01	7.377002e+02
2.040000e-06	4.184791e-06	1.113257e-08	2.908592e+01	7.339658e+02
2.050000e-06	4.115271e-06	1.116394e-08	2.860273e+01	7.300373e+02
2.060000e-06	4.044186e-06	1.101817e-08	2.810867e+01	7.258869e+02
2.070000e-06	3.971803e-06	1.101592e-08	2.760558e+01	7.215310e+02
2.080000e-06	3.898042e-06	1.091409e-08	2.709291e+01	7.170215e+02
2.090000e-06	3.822713e-06	1.087449e-08	2.656935e+01	7.124202e+02
2.100000e-06	3.745647e-06	1.082346e-08	2.603370e+01	7.077689e+02
2.110000e-06	3.667092e-06	1.069034e-08	2.548772e+01	7.030673e+02
2.120000e-06	3.587288e-06	1.065150e-08	2.493305e+01	6.982706e+02
2.130000e-06	3.506349e-06	1.053573e-08	2.437049e+01	6.933070e+02
2.140000e-06	3.424244e-06	1.050986e-08	2.379983e+01	6.881080e+02
2.150000e-06	3.341049e-06	1.040795e-08	2.322159e+01	6.826386e+02
2.160000e-06	3.256614e-06	1.031386e-08	2.263473e+01	6.769129e+02
2.170000e-06	3.170759e-06	1.023934e-08	2.203801e+01	6.709883e+02
2.180000e-06	3.083719e-06	1.013183e-08	2.143305e+01	6.649403e+02
2.190000e-06	2.995680e-06	1.006353e-08	2.082114e+01	6.588285e+02
2.200000e-06	2.906650e-06	9.940309e-09	2.020235e+01	6.526689e+02
2.210000e-06	2.816685e-06	9.862321e-09	1.957706e+01	6.464244e+02
2.220000e-06	2.725834e-06	9.766488e-09	1.894561e+01	6.400184e+02
2.230000e-06	2.633992e-06	9.672344e-09	1.830727e+01	6.333654e+02
2.240000e-06	2.541133e-06	9.559174e-09	1.766186e+01	6.264057e+02
2.250000e-06	2.447272e-06	9.429283e-09	1.700950e+01	6.191277e+02
2.260000e-06	2.352471e-06	9.330426e-09	1.635059e+01	6.115695e+02
2.270000e-06	2.256880e-06	9.219943e-09	1.568620e+01	6.037973e+02
2.280000e-06	2.160530e-06	9.111059e-09	1.501652e+01	5.958702e+02
2.290000e-06	2.063437e-06	8.979594e-09	1.434169e+01	5.878086e+02
2.300000e-06	1.965667e-06	8.851820e-09	1.366215e+01	5.795786e+02
2.310000e-06	1.867337e-06	8.724789e-09	1.297872e+01	5.711017e+02
2.320000e-06	1.768464e-06	8.589581e-09	1.229152e+01	5.622850e+02
2.330000e-06	1.669051e-06	8.444578e-09	1.160055e+01	5.530586e+02
2.340000e-06	1.569080e-06	8.296880e-09	1.090572e+01	5.434032e+02
2.350000e-06	1.468470e-06	8.154999e-09	1.020644e+01	5.333553e+02
2.360000e-06	1.367194e-06	8.003678e-09	9.502528e+00	5.229850e+02
2.370000e-06	1.265263e-06	7.839638e-09	8.794072e+00	5.123567e+02
2.380000e-06	1.162799e-06	7.665644e-09	8.081908e+00	5.014898e+02
2.390000e-06	1.059879e-06	7.495921e-09	7.366570e+00	4.903374e+02
2.400000e-06	9.565679e-07	7.324802e-09	6.648520e+00	4.787945e+02
2.410000e-06	8.529353e-07	7.143496e-09	5.928232e+00	4.667335e+02
2.420000e-06	7.490421e-07	6.949872e-09	5.206134e+00	4.540516e+02
2.430000e-06	6.449777e-07	6.748075e-09	4.482846e+00	4.407096e+02
2.440000e-06	5.407113e-07	6.537983e-09	3.758154e+00	4.267420e+02
2.450000e-06	4.362638e-07	6.318133e-09	3.032203e+00	4.122317e+02
2.460000e-06	3.317206e-07	6.087767e-09	2.305588e+00	3.972573e+02
2.470000e-06	2.270100e-07	5.850431e-09	1.577808e+00	3.818357e+02
2.480000e-06	1.221912e-07	5.608369e-09	8.492762e-01	3.658867e+02
2.490000e-06	1.735622e-08	5.353657e-09	1.206325e-01	3.492366e+02
2.500000e-06	-8.746522e-08	5.080857e-09	-6.079173e-01	3.316653e+02
2.510000e-06	-1.921945e-07	4.790809e-09	-1.335827e+00	3.129764e+02
2.520000e-06	-2.968161e-07	4.490120e-09	-2.062987e+00	2.930583e+02
2.530000e-06	-4.013796e-07	4.176636e-09	-2.789744e+00	2.719031e+02
2.540000e-06	-5.058495e-07	3.840310e-09	-3.515851e+00	2.495631e+02
2.550000e-06	-6.100835e-07	3.479287e-09	-4.240318e+00	2.260505e+02
2.560000e-06	-7.140664e-07	3.098808e-09	-4.963040e+00	2.012132e+02
2.570000e-06	-8.178294e-07	2.693056e-09	-5.684233e+00	1.746380e+02
2.580000e-06	-9.213368e-07	2.247575e-09	-6.403649e+00	1.456314e+02
2.590000e-06	-1.024510e-06	1.750486e-09	-7.120741e+00	1.133101e+02
2.600000e-06	-1.127294e-06	1.198132e-09	-7.835136e+00	7.679586e+01
2.610000e-06	-1.229634e-06	5.839281e-10	-8.546439e+00	3.547261e+01
2.620000e-06	-1.331461e-06	-1.047878e-10	-9.254172e+00	-1.076568e+01
2.630000e-06	-1.432672e-06	-8.720023e-10	-9.957628e+00	-6.135400e+01
2.640000e-06	-1.533174e-06	-1.699798e-09	-1.065616e+01	-1.150406e+02
2.650000e-06	-1.633027e-06	-2.552119e-09	-1.135018e+01	-1.700355e+02
2.660000e-06	-1.732318e-06	-3.390759e-09	-1.204028e+01	-2.242928e+02
2.670000e-06	-1.831037e-06	-4.183262e-09	-1.272642e+01	-2.758586e+02
2.680000e-06	-1.929192e-06	-4.907982e-09	-1.340863e+01	-3.231927e+02
2.690000e-06	-2.026742e-06	-5.551099e-09	-1.408665e+01	-3.653850e+02
2.700000e-06	-2.123544e-06	-6.109869e-09	-1.475946e+01	-4.022159e+02
2.710000e-06	-2.219607e-06	-6.597966e-09	-1.542713e+01	-4.340614e+02
2.720000e-06	-2.315051e-06	-7.030491e-09	-1.609051e+01	-4.616830e+02
2.730000e-06	-2.409891e-06	-7.411740e-09	-1.674968e+01	-4.859749e+02
2.740000e-06	-2.503919e-06	-7.746470e-09	-1.740321e+01	-5.077423e+02
2.750000e-06	-2.596865e-06	-8.046752e-09	-1.804922e+01	-5.275658e+02
2.760000e-06	-2.688656e-06	-8.323902e-09	-1.868721e+01	-5.457724e+02
2.770000e-06	-2.779409e-06	-8.579630e-09	-1.931798e+01	-5.624953e+02
2.780000e-06	-2.869202e-06	-8.809986e-09	-1.994207e+01	-5.777797e+02
2.790000e-06	-2.957947e-06	-9.019721e-09	-2.055888e+01	-5.916856e+02
2.800000e-06	-3.045684e-06	-9.215316e-09	-2.116869e+01	-6.043464e+02
2.810000e-06	-3.132541e-06	-9.399592e-09	-2.177238e+01	-6.159707e+02
2.820000e-06	-3.218289e-06	-9.570184e-09	-2.236836e+01	-6.267965e+02
2.830000e-06	-3.302589e-06	-9.727128e-09	-2.295428e+01	-6.370276e+02
2.840000e-06	-3.385620e-06	-9.876119e-09	-2.353138e+01	-6.467830e+02
2.850000e-06	-3.467591e-06	-1.001695e-08	-2.410111e+01	-6.560837e+02
2.860000e-06	-3.548427e-06	-1.014727e-08	-2.466295e+01	-6.648788e+02
2.870000e-06	-3.628131e-06	-1.026558e-08	-2.521693e+01	-6.730983e+02
2.880000e-06	-3.706611e-06	-1.037860e-08	-2.576239e+01	-6.807071e+02
2.890000e-06	-3.783462e-06	-1.048938e-08	-2.629653e+01	-6.877383e+02
2.900000e-06	-3.858697e-06	-1.059305e-08	-2.681945e+01	-6.942912e+02
2.910000e-06	-3.932576e-06	-1.068895e-08	-2.733294e+01	-7.004992e+02
2.920000e-06	-4.005049e-06	-1.078215e-08	-2.783665e+01	-7.064830e+02
2.930000e-06	-4.076239e-06	-1.087456e-08	-2.833145e+01	-7.123111e+02
2.940000e-06	-4.145985e-06	-1.096199e-08	-2.881621e+01	-7.179837e+02
