# Temperatura_=_57.81
# Concentracion g/m^3_=_13400.0
# C_Vs_to_Am_M_A/Vsm_=_65563218390.804596
# pendiente_HvsI_1/m_=_3716.3
# ordenada_HvsI_A/m_=_1297.0
# frecuencia_Hz_=_300796.5612020124

Tiempo_(s)	Campo_(V.s)	Magnetizacion_(V.s)	Campo_(kA/m)	Magnetizacion_(A/m)
0.000000e+00	-5.495752e-06	-1.262723e-08	-3.831135e+01	-8.282274e+02
1.000000e-08	-5.494011e-06	-1.263015e-08	-3.829922e+01	-8.280787e+02
2.000000e-08	-5.490272e-06	-1.262640e-08	-3.827315e+01	-8.276984e+02
3.000000e-08	-5.484754e-06	-1.261958e-08	-3.823469e+01	-8.271183e+02
4.000000e-08	-5.477602e-06	-1.260946e-08	-3.818483e+01	-8.264135e+02
5.000000e-08	-5.468803e-06	-1.259346e-08	-3.812349e+01	-8.256704e+02
6.000000e-08	-5.458060e-06	-1.257562e-08	-3.804860e+01	-8.249496e+02
7.000000e-08	-5.445265e-06	-1.254900e-08	-3.795941e+01	-8.242605e+02
8.000000e-08	-5.430501e-06	-1.253072e-08	-3.785648e+01	-8.235586e+02
9.000000e-08	-5.413355e-06	-1.259545e-08	-3.773695e+01	-8.227657e+02
1.000000e-07	-5.393838e-06	-1.261936e-08	-3.760090e+01	-8.218056e+02
1.100000e-07	-5.372331e-06	-1.256141e-08	-3.745098e+01	-8.206377e+02
1.200000e-07	-5.348985e-06	-1.253389e-08	-3.728823e+01	-8.192763e+02
1.300000e-07	-5.324223e-06	-1.240685e-08	-3.711561e+01	-8.177857e+02
1.400000e-07	-5.298094e-06	-1.236703e-08	-3.693346e+01	-8.162530e+02
1.500000e-07	-5.270066e-06	-1.250969e-08	-3.673807e+01	-8.147512e+02
1.600000e-07	-5.240218e-06	-1.235060e-08	-3.653000e+01	-8.133063e+02
1.700000e-07	-5.208807e-06	-1.232570e-08	-3.631103e+01	-8.118834e+02
1.800000e-07	-5.175523e-06	-1.247166e-08	-3.607901e+01	-8.103980e+02
1.900000e-07	-5.140217e-06	-1.230244e-08	-3.583289e+01	-8.087461e+02
2.000000e-07	-5.103311e-06	-1.230300e-08	-3.557562e+01	-8.068435e+02
2.100000e-07	-5.064717e-06	-1.230190e-08	-3.530657e+01	-8.046554e+02
2.200000e-07	-5.024314e-06	-1.213918e-08	-3.502492e+01	-8.022073e+02
2.300000e-07	-4.982032e-06	-1.218247e-08	-3.473016e+01	-7.995712e+02
2.400000e-07	-4.937716e-06	-1.218186e-08	-3.442124e+01	-7.968352e+02
2.500000e-07	-4.891649e-06	-1.212751e-08	-3.410010e+01	-7.940684e+02
2.600000e-07	-4.843781e-06	-1.210083e-08	-3.376641e+01	-7.912959e+02
2.700000e-07	-4.793957e-06	-1.197705e-08	-3.341908e+01	-7.884937e+02
2.800000e-07	-4.742060e-06	-1.197053e-08	-3.305730e+01	-7.856036e+02
2.900000e-07	-4.688165e-06	-1.194502e-08	-3.268160e+01	-7.825622e+02
3.000000e-07	-4.632624e-06	-1.185898e-08	-3.229442e+01	-7.793289e+02
3.100000e-07	-4.575456e-06	-1.181364e-08	-3.189589e+01	-7.759023e+02
3.200000e-07	-4.516466e-06	-1.178668e-08	-3.148467e+01	-7.723183e+02
3.300000e-07	-4.455829e-06	-1.176502e-08	-3.106196e+01	-7.686308e+02
3.400000e-07	-4.393743e-06	-1.166303e-08	-3.062915e+01	-7.648859e+02
3.500000e-07	-4.330125e-06	-1.159311e-08	-3.018567e+01	-7.611002e+02
3.600000e-07	-4.264968e-06	-1.152773e-08	-2.973146e+01	-7.572526e+02
3.700000e-07	-4.198192e-06	-1.147169e-08	-2.926595e+01	-7.532943e+02
3.800000e-07	-4.129718e-06	-1.145500e-08	-2.878861e+01	-7.491704e+02
3.900000e-07	-4.059720e-06	-1.136161e-08	-2.830065e+01	-7.448434e+02
4.000000e-07	-3.988433e-06	-1.128279e-08	-2.780371e+01	-7.403085e+02
4.100000e-07	-3.915938e-06	-1.122535e-08	-2.729834e+01	-7.355929e+02
4.200000e-07	-3.842052e-06	-1.115262e-08	-2.678327e+01	-7.307404e+02
4.300000e-07	-3.766492e-06	-1.106733e-08	-2.625653e+01	-7.257888e+02
4.400000e-07	-3.689279e-06	-1.096992e-08	-2.571828e+01	-7.207499e+02
4.500000e-07	-3.610610e-06	-1.091210e-08	-2.516987e+01	-7.156032e+02
4.600000e-07	-3.530453e-06	-1.084859e-08	-2.461109e+01	-7.103041e+02
4.700000e-07	-3.448895e-06	-1.076384e-08	-2.404254e+01	-7.048044e+02
4.800000e-07	-3.366147e-06	-1.065655e-08	-2.346570e+01	-6.990750e+02
4.900000e-07	-3.282265e-06	-1.055040e-08	-2.288095e+01	-6.931193e+02
5.000000e-07	-3.197359e-06	-1.047335e-08	-2.228906e+01	-6.869720e+02
5.100000e-07	-3.111537e-06	-1.038820e-08	-2.169079e+01	-6.806817e+02
5.200000e-07	-3.024738e-06	-1.029331e-08	-2.108570e+01	-6.742870e+02
5.300000e-07	-2.936968e-06	-1.018566e-08	-2.047385e+01	-6.677958e+02
5.400000e-07	-2.848313e-06	-1.008448e-08	-1.985583e+01	-6.611783e+02
5.500000e-07	-2.758658e-06	-9.985533e-09	-1.923084e+01	-6.543774e+02
5.600000e-07	-2.667840e-06	-9.866062e-09	-1.859774e+01	-6.473323e+02
5.700000e-07	-2.575878e-06	-9.743163e-09	-1.795666e+01	-6.400049e+02
5.800000e-07	-2.482968e-06	-9.626950e-09	-1.730898e+01	-6.323960e+02
5.900000e-07	-2.389242e-06	-9.524473e-09	-1.665561e+01	-6.245433e+02
6.000000e-07	-2.294764e-06	-9.410672e-09	-1.599699e+01	-6.165017e+02
6.100000e-07	-2.199547e-06	-9.278882e-09	-1.533323e+01	-6.083132e+02
6.200000e-07	-2.103567e-06	-9.142687e-09	-1.466414e+01	-5.999809e+02
6.300000e-07	-2.006865e-06	-9.010471e-09	-1.399002e+01	-5.914596e+02
6.400000e-07	-1.909440e-06	-8.879956e-09	-1.331087e+01	-5.826678e+02
6.500000e-07	-1.811193e-06	-8.733659e-09	-1.262598e+01	-5.735185e+02
6.600000e-07	-1.712093e-06	-8.582112e-09	-1.193515e+01	-5.639542e+02
6.700000e-07	-1.612280e-06	-8.434242e-09	-1.123934e+01	-5.539709e+02
6.800000e-07	-1.511880e-06	-8.286865e-09	-1.053945e+01	-5.436187e+02
6.900000e-07	-1.410990e-06	-8.126474e-09	-9.836127e+00	-5.329768e+02
7.000000e-07	-1.309636e-06	-7.955593e-09	-9.129582e+00	-5.221117e+02
7.100000e-07	-1.207872e-06	-7.784523e-09	-8.420179e+00	-5.110380e+02
7.200000e-07	-1.105723e-06	-7.610896e-09	-7.708086e+00	-4.996983e+02
7.300000e-07	-1.003208e-06	-7.428681e-09	-6.993447e+00	-4.879739e+02
7.400000e-07	-9.003692e-07	-7.234367e-09	-6.276550e+00	-4.757248e+02
7.500000e-07	-7.971530e-07	-7.035572e-09	-5.557021e+00	-4.628410e+02
7.600000e-07	-6.936380e-07	-6.832497e-09	-4.835409e+00	-4.492847e+02
7.700000e-07	-5.899185e-07	-6.621995e-09	-4.112372e+00	-4.351015e+02
7.800000e-07	-4.860145e-07	-6.400259e-09	-3.388048e+00	-4.203924e+02
7.900000e-07	-3.819608e-07	-6.170768e-09	-2.662681e+00	-4.052557e+02
8.000000e-07	-2.777963e-07	-5.936060e-09	-1.936541e+00	-3.897225e+02
8.100000e-07	-1.735378e-07	-5.691160e-09	-1.209747e+00	-3.737135e+02
8.200000e-07	-6.922994e-08	-5.432087e-09	-4.826077e-01	-3.570401e+02
8.300000e-07	3.507866e-08	-5.158005e-09	2.445363e-01	-3.394535e+02
8.400000e-07	1.393928e-07	-4.871803e-09	9.717187e-01	-3.207248e+02
8.500000e-07	2.436618e-07	-4.570950e-09	1.698587e+00	-3.007194e+02
8.600000e-07	3.478421e-07	-4.252110e-09	2.424836e+00	-2.794304e+02
8.700000e-07	4.519146e-07	-3.912045e-09	3.150335e+00	-2.569426e+02
8.800000e-07	5.558372e-07	-3.552117e-09	3.874788e+00	-2.333297e+02
8.900000e-07	6.596073e-07	-3.171477e-09	4.598178e+00	-2.085146e+02
9.000000e-07	7.631731e-07	-2.762899e-09	5.320144e+00	-1.821461e+02
9.100000e-07	8.664455e-07	-2.315833e-09	6.040065e+00	-1.535506e+02
9.200000e-07	9.693690e-07	-1.821594e-09	6.757553e+00	-1.217987e+02
9.300000e-07	1.071914e-06	-1.273048e-09	7.472404e+00	-8.589133e+01
9.400000e-07	1.174151e-06	-6.577330e-10	8.185103e+00	-4.503026e+01
9.500000e-07	1.276040e-06	3.891290e-11	8.895380e+00	1.100865e+00
9.600000e-07	1.377454e-06	8.206924e-10	9.602351e+00	5.212798e+01
9.700000e-07	1.478419e-06	1.667669e-09	1.030618e+01	1.069220e+02
9.800000e-07	1.578958e-06	2.546141e-09	1.100705e+01	1.637109e+02
9.900000e-07	1.678959e-06	3.415553e-09	1.170417e+01	2.203495e+02
1.000000e-06	1.778294e-06	4.239043e-09	1.239664e+01	2.746835e+02
1.010000e-06	1.876864e-06	4.990688e-09	1.308378e+01	3.249127e+02
1.020000e-06	1.974598e-06	5.655912e-09	1.376509e+01	3.698624e+02
1.030000e-06	2.071535e-06	6.237035e-09	1.444085e+01	4.090999e+02
1.040000e-06	2.167715e-06	6.745311e-09	1.511133e+01	4.428777e+02
1.050000e-06	2.263179e-06	7.191269e-09	1.577681e+01	4.719383e+02
1.060000e-06	2.357914e-06	7.582247e-09	1.643722e+01	4.972472e+02
1.070000e-06	2.451866e-06	7.928245e-09	1.709217e+01	5.197374e+02
1.080000e-06	2.545079e-06	8.237688e-09	1.774196e+01	5.401300e+02
1.090000e-06	2.637513e-06	8.519715e-09	1.838633e+01	5.588666e+02
1.100000e-06	2.728930e-06	8.776488e-09	1.902360e+01	5.761449e+02
1.110000e-06	2.819161e-06	9.008621e-09	1.965261e+01	5.920217e+02
1.120000e-06	2.908291e-06	9.223251e-09	2.027394e+01	6.065292e+02
1.130000e-06	2.996463e-06	9.425233e-09	2.088860e+01	6.197585e+02
1.140000e-06	3.083653e-06	9.617248e-09	2.149641e+01	6.318848e+02
1.150000e-06	3.169795e-06	9.796585e-09	2.209691e+01	6.431374e+02
1.160000e-06	3.254955e-06	9.960126e-09	2.269057e+01	6.537379e+02
1.170000e-06	3.339083e-06	1.010976e-08	2.327703e+01	6.638410e+02
1.180000e-06	3.421942e-06	1.025189e-08	2.385464e+01	6.735045e+02
1.190000e-06	3.503495e-06	1.039069e-08	2.442316e+01	6.827012e+02
1.200000e-06	3.583776e-06	1.052368e-08	2.498280e+01	6.913628e+02
1.210000e-06	3.662726e-06	1.064459e-08	2.553317e+01	6.994362e+02
1.220000e-06	3.740412e-06	1.075872e-08	2.607473e+01	7.069252e+02
1.230000e-06	3.816820e-06	1.087256e-08	2.660738e+01	7.139026e+02
1.240000e-06	3.891657e-06	1.097904e-08	2.712907e+01	7.204879e+02
1.250000e-06	3.964899e-06	1.107228e-08	2.763965e+01	7.268057e+02
1.260000e-06	4.036699e-06	1.115959e-08	2.814017e+01	7.329424e+02
1.270000e-06	4.107046e-06	1.124826e-08	2.863057e+01	7.389221e+02
1.280000e-06	4.176081e-06	1.133702e-08	2.911181e+01	7.447107e+02
1.290000e-06	4.243712e-06	1.142130e-08	2.958327e+01	7.502449e+02
1.300000e-06	4.309626e-06	1.150142e-08	3.004277e+01	7.554712e+02
1.310000e-06	4.373940e-06	1.158012e-08	3.049110e+01	7.603777e+02
1.320000e-06	4.436841e-06	1.165446e-08	3.092960e+01	7.650035e+02
1.330000e-06	4.498331e-06	1.172071e-08	3.135825e+01	7.694232e+02
1.340000e-06	4.558345e-06	1.178058e-08	3.177661e+01	7.737139e+02
1.350000e-06	4.616610e-06	1.184073e-08	3.218278e+01	7.779213e+02
1.360000e-06	4.673113e-06	1.190311e-08	3.257666e+01	7.820396e+02
1.370000e-06	4.728054e-06	1.196403e-08	3.295966e+01	7.860150e+02
1.380000e-06	4.781288e-06	1.202123e-08	3.333076e+01	7.897719e+02
1.390000e-06	4.832427e-06	1.207446e-08	3.368726e+01	7.932482e+02
1.400000e-06	4.881527e-06	1.212507e-08	3.402954e+01	7.964258e+02
1.410000e-06	4.928888e-06	1.217149e-08	3.435969e+01	7.993406e+02
1.420000e-06	4.974615e-06	1.221187e-08	3.467846e+01	8.020694e+02
1.430000e-06	5.018697e-06	1.224887e-08	3.498576e+01	8.046974e+02
1.440000e-06	5.060856e-06	1.228731e-08	3.527965e+01	8.072827e+02
1.450000e-06	5.101128e-06	1.232743e-08	3.556039e+01	8.098316e+02
1.460000e-06	5.139738e-06	1.236528e-08	3.582955e+01	8.122972e+02
1.470000e-06	5.176699e-06	1.240045e-08	3.608720e+01	8.146011e+02
1.480000e-06	5.211821e-06	1.243372e-08	3.633205e+01	8.166695e+02
1.490000e-06	5.244947e-06	1.246556e-08	3.656297e+01	8.184669e+02
1.500000e-06	5.276260e-06	1.249167e-08	3.678125e+01	8.200141e+02
1.510000e-06	5.305913e-06	1.251098e-08	3.698797e+01	8.213812e+02
1.520000e-06	5.333746e-06	1.253035e-08	3.718200e+01	8.226592e+02
1.530000e-06	5.359483e-06	1.255129e-08	3.736141e+01	8.239219e+02
1.540000e-06	5.383223e-06	1.257217e-08	3.752690e+01	8.251953e+02
1.550000e-06	5.405193e-06	1.259024e-08	3.768005e+01	8.264469e+02
1.560000e-06	5.425400e-06	1.260706e-08	3.782092e+01	8.276000e+02
1.570000e-06	5.443679e-06	1.262436e-08	3.794835e+01	8.285671e+02
1.580000e-06	5.459933e-06	1.263878e-08	3.806165e+01	8.292889e+02
1.590000e-06	5.474242e-06	1.264806e-08	3.816140e+01	8.297605e+02
1.600000e-06	5.486430e-06	1.265367e-08	3.824637e+01	8.300350e+02
1.610000e-06	5.496346e-06	1.265843e-08	3.831549e+01	8.302033e+02
1.620000e-06	5.504261e-06	1.266257e-08	3.837067e+01	8.303563e+02
1.630000e-06	5.510376e-06	1.266484e-08	3.841330e+01	8.305487e+02
1.640000e-06	5.514596e-06	1.266554e-08	3.844272e+01	8.307769e+02
1.650000e-06	5.516790e-06	1.267003e-08	3.845801e+01	8.309815e+02
1.660000e-06	5.517076e-06	1.267770e-08	3.846000e+01	8.310738e+02
1.670000e-06	5.515639e-06	1.267502e-08	3.844998e+01	8.309734e+02
1.680000e-06	5.512498e-06	1.266793e-08	3.842809e+01	8.306420e+02
1.690000e-06	5.507411e-06	1.265983e-08	3.839263e+01	8.300995e+02
1.700000e-06	5.500394e-06	1.265044e-08	3.834371e+01	8.294140e+02
1.710000e-06	5.491752e-06	1.264176e-08	3.828347e+01	8.286727e+02
1.720000e-06	5.481421e-06	1.263404e-08	3.821145e+01	8.279444e+02
1.730000e-06	5.469069e-06	1.265206e-08	3.812534e+01	8.272506e+02
1.740000e-06	5.454712e-06	1.262462e-08	3.802526e+01	8.265574e+02
1.750000e-06	5.438360e-06	1.251579e-08	3.791126e+01	8.257912e+02
1.760000e-06	5.419415e-06	1.250647e-08	3.777920e+01	8.248720e+02
1.770000e-06	5.397701e-06	1.250854e-08	3.762783e+01	8.237494e+02
1.780000e-06	5.373996e-06	1.257522e-08	3.746258e+01	8.224256e+02
1.790000e-06	5.349291e-06	1.264155e-08	3.729036e+01	8.209556e+02
1.800000e-06	5.323769e-06	1.241036e-08	3.711245e+01	8.194247e+02
1.810000e-06	5.296276e-06	1.247025e-08	3.692078e+01	8.179122e+02
1.820000e-06	5.266444e-06	1.256162e-08	3.671283e+01	8.164560e+02
1.830000e-06	5.235127e-06	1.231595e-08	3.649451e+01	8.150343e+02
1.840000e-06	5.202041e-06	1.244127e-08	3.626387e+01	8.135710e+02
1.850000e-06	5.167114e-06	1.244829e-08	3.602039e+01	8.119632e+02
1.860000e-06	5.130466e-06	1.224558e-08	3.576491e+01	8.101192e+02
1.870000e-06	5.091681e-06	1.242501e-08	3.549454e+01	8.079923e+02
1.880000e-06	5.051170e-06	1.234052e-08	3.521213e+01	8.055950e+02
1.890000e-06	5.009077e-06	1.220870e-08	3.491870e+01	8.029918e+02
1.900000e-06	4.965043e-06	1.223498e-08	3.461174e+01	8.002703e+02
1.910000e-06	4.919276e-06	1.206457e-08	3.429269e+01	7.975063e+02
1.920000e-06	4.871664e-06	1.217836e-08	3.396078e+01	7.947356e+02
1.930000e-06	4.822216e-06	1.213541e-08	3.361608e+01	7.919439e+02
1.940000e-06	4.771014e-06	1.197932e-08	3.325914e+01	7.890783e+02
1.950000e-06	4.717712e-06	1.205165e-08	3.288757e+01	7.860740e+02
1.960000e-06	4.662629e-06	1.193447e-08	3.250358e+01	7.828834e+02
1.970000e-06	4.605845e-06	1.190132e-08	3.210773e+01	7.794963e+02
1.980000e-06	4.547462e-06	1.180503e-08	3.170074e+01	7.759417e+02
1.990000e-06	4.487590e-06	1.174108e-08	3.128337e+01	7.722719e+02
2.000000e-06	4.425902e-06	1.177912e-08	3.085334e+01	7.685368e+02
2.010000e-06	4.362636e-06	1.165388e-08	3.041230e+01	7.647604e+02
2.020000e-06	4.297835e-06	1.165909e-08	2.996057e+01	7.609295e+02
2.030000e-06	4.231566e-06	1.153211e-08	2.949861e+01	7.569998e+02
2.040000e-06	4.163804e-06	1.145970e-08	2.902623e+01	7.529155e+02
2.050000e-06	4.094265e-06	1.144503e-08	2.854147e+01	7.486337e+02
2.060000e-06	4.023242e-06	1.130771e-08	2.804636e+01	7.441420e+02
2.070000e-06	3.950885e-06	1.129845e-08	2.754195e+01	7.394618e+02
2.080000e-06	3.877166e-06	1.119697e-08	2.702805e+01	7.346349e+02
2.090000e-06	3.801830e-06	1.116447e-08	2.650288e+01	7.297025e+02
2.100000e-06	3.724765e-06	1.108394e-08	2.596565e+01	7.246830e+02
2.110000e-06	3.646280e-06	1.095985e-08	2.541853e+01	7.195627e+02
2.120000e-06	3.566519e-06	1.089887e-08	2.486250e+01	7.143005e+02
2.130000e-06	3.485604e-06	1.078179e-08	2.429844e+01	7.088473e+02
2.140000e-06	3.403576e-06	1.074442e-08	2.372661e+01	7.031680e+02
2.150000e-06	3.320487e-06	1.063790e-08	2.314739e+01	6.972589e+02
2.160000e-06	3.236139e-06	1.055014e-08	2.255940e+01	6.911487e+02
2.170000e-06	3.150381e-06	1.045513e-08	2.196157e+01	6.848851e+02
2.180000e-06	3.063495e-06	1.034416e-08	2.135589e+01	6.785109e+02
2.190000e-06	2.975622e-06	1.026381e-08	2.074332e+01	6.720418e+02
2.200000e-06	2.886782e-06	1.014155e-08	2.012400e+01	6.654556e+02
2.210000e-06	2.796981e-06	1.005663e-08	1.949799e+01	6.586994e+02
2.220000e-06	2.706281e-06	9.949997e-09	1.886572e+01	6.517110e+02
2.230000e-06	2.614631e-06	9.847077e-09	1.822682e+01	6.444455e+02
2.240000e-06	2.521913e-06	9.721150e-09	1.758047e+01	6.368949e+02
2.250000e-06	2.428166e-06	9.587441e-09	1.692695e+01	6.290900e+02
2.260000e-06	2.333538e-06	9.476794e-09	1.626729e+01	6.210845e+02
2.270000e-06	2.238161e-06	9.361849e-09	1.560241e+01	6.129256e+02
2.280000e-06	2.142052e-06	9.249398e-09	1.493243e+01	6.046264e+02
2.290000e-06	2.045245e-06	9.110250e-09	1.425758e+01	5.961517e+02
2.300000e-06	1.947689e-06	8.972317e-09	1.357750e+01	5.874256e+02
2.310000e-06	1.849490e-06	8.832352e-09	1.289295e+01	5.783593e+02
2.320000e-06	1.750825e-06	8.687716e-09	1.220515e+01	5.688863e+02
2.330000e-06	1.651670e-06	8.534021e-09	1.151393e+01	5.589902e+02
2.340000e-06	1.551926e-06	8.378509e-09	1.081861e+01	5.487109e+02
2.350000e-06	1.451515e-06	8.227273e-09	1.011864e+01	5.381244e+02
2.360000e-06	1.350476e-06	8.067296e-09	9.414279e+00	5.273037e+02
2.370000e-06	1.248843e-06	7.895996e-09	8.705793e+00	5.162771e+02
2.380000e-06	1.146698e-06	7.715811e-09	7.993730e+00	5.050027e+02
2.390000e-06	1.044103e-06	7.539837e-09	7.278529e+00	4.933727e+02
2.400000e-06	9.411192e-07	7.360266e-09	6.560621e+00	4.812471e+02
2.410000e-06	8.377822e-07	7.168546e-09	5.840251e+00	4.685054e+02
2.420000e-06	7.341138e-07	6.962273e-09	5.117570e+00	4.550922e+02
2.430000e-06	6.302558e-07	6.747642e-09	4.393567e+00	4.410360e+02
2.440000e-06	5.262249e-07	6.526622e-09	3.668358e+00	4.264302e+02
2.450000e-06	4.220097e-07	6.297867e-09	2.941865e+00	4.113794e+02
2.460000e-06	3.176534e-07	6.060162e-09	2.214389e+00	3.959338e+02
2.470000e-06	2.131794e-07	5.815716e-09	1.486092e+00	3.800394e+02
2.480000e-06	1.086433e-07	5.564323e-09	7.573613e-01	3.635284e+02
2.490000e-06	4.105199e-09	5.296641e-09	2.861769e-02	3.461588e+02
2.500000e-06	-1.004014e-07	5.009215e-09	-6.999065e-01	3.276903e+02
2.510000e-06	-2.048707e-07	4.704435e-09	-1.428171e+00	3.079635e+02
2.520000e-06	-3.092262e-07	4.388730e-09	-2.155642e+00	2.869444e+02
2.530000e-06	-4.134765e-07	4.060277e-09	-2.882380e+00	2.647049e+02
2.540000e-06	-5.176319e-07	3.709960e-09	-3.608456e+00	2.413323e+02
2.550000e-06	-6.215716e-07	3.333833e-09	-4.333028e+00	2.167937e+02
2.560000e-06	-7.252584e-07	2.933300e-09	-5.055838e+00	1.908040e+02
2.570000e-06	-8.286947e-07	2.501815e-09	-5.776901e+00	1.627574e+02
2.580000e-06	-9.318315e-07	2.026040e-09	-6.495876e+00	1.317673e+02
2.590000e-06	-1.034579e-06	1.494277e-09	-7.212135e+00	9.682899e+01
2.600000e-06	-1.136904e-06	8.972975e-10	-7.925453e+00	5.707647e+01
2.610000e-06	-1.238832e-06	2.284201e-10	-8.636004e+00	1.206884e+01
2.620000e-06	-1.340286e-06	-5.192255e-10	-9.343244e+00	-3.797890e+01
2.630000e-06	-1.441130e-06	-1.343366e-09	-1.004624e+01	-9.209616e+01
2.640000e-06	-1.541313e-06	-2.218125e-09	-1.074462e+01	-1.486305e+02
2.650000e-06	-1.640906e-06	-3.100663e-09	-1.143890e+01	-2.054882e+02
2.660000e-06	-1.739935e-06	-3.949339e-09	-1.212924e+01	-2.604846e+02
2.670000e-06	-1.838365e-06	-4.732071e-09	-1.281540e+01	-3.117165e+02
2.680000e-06	-1.936140e-06	-5.433481e-09	-1.349699e+01	-3.578594e+02
2.690000e-06	-2.033221e-06	-6.050526e-09	-1.417375e+01	-3.983208e+02
2.700000e-06	-2.129670e-06	-6.586485e-09	-1.484611e+01	-4.332189e+02
2.710000e-06	-2.225466e-06	-7.053341e-09	-1.551391e+01	-4.632124e+02
2.720000e-06	-2.320624e-06	-7.464520e-09	-1.617727e+01	-4.892421e+02
2.730000e-06	-2.415077e-06	-7.826757e-09	-1.683571e+01	-5.122665e+02
2.740000e-06	-2.508656e-06	-8.148329e-09	-1.748805e+01	-5.330618e+02
2.750000e-06	-2.601170e-06	-8.437240e-09	-1.813298e+01	-5.521295e+02
2.760000e-06	-2.692528e-06	-8.699466e-09	-1.876984e+01	-5.697125e+02
2.770000e-06	-2.782882e-06	-8.942442e-09	-1.939970e+01	-5.858876e+02
2.780000e-06	-2.872248e-06	-9.168358e-09	-2.002268e+01	-6.006837e+02
2.790000e-06	-2.960604e-06	-9.377782e-09	-2.063862e+01	-6.141748e+02
2.800000e-06	-3.047996e-06	-9.571740e-09	-2.124783e+01	-6.265191e+02
2.810000e-06	-3.134384e-06	-9.750929e-09	-2.185005e+01	-6.379389e+02
2.820000e-06	-3.219587e-06	-9.916781e-09	-2.244401e+01	-6.486631e+02
2.830000e-06	-3.303507e-06	-1.007235e-08	-2.302903e+01	-6.588644e+02
2.840000e-06	-3.386273e-06	-1.022007e-08	-2.360600e+01	-6.686220e+02
2.850000e-06	-3.467905e-06	-1.035820e-08	-2.417506e+01	-6.779239e+02
2.860000e-06	-3.548359e-06	-1.048671e-08	-2.473591e+01	-6.867059e+02
2.870000e-06	-3.627669e-06	-1.060812e-08	-2.528879e+01	-6.949073e+02
2.880000e-06	-3.705652e-06	-1.072585e-08	-2.583241e+01	-7.025176e+02
2.890000e-06	-3.782049e-06	-1.083890e-08	-2.636498e+01	-7.095956e+02
2.900000e-06	-3.856897e-06	-1.094424e-08	-2.688675e+01	-7.162538e+02
2.910000e-06	-3.930321e-06	-1.104186e-08	-2.739860e+01	-7.226197e+02
2.920000e-06	-4.002412e-06	-1.113610e-08	-2.790115e+01	-7.287909e+02
2.930000e-06	-4.073218e-06	-1.122900e-08	-2.839474e+01	-7.348054e+02
2.940000e-06	-4.142504e-06	-1.131577e-08	-2.887775e+01	-7.406398e+02
