# Temperatura_=_25.4
# Concentracion g/m^3_=_13400.0
# C_Vs_to_Am_M_A/Vsm_=_65563218390.804596
# pendiente_HvsI_1/m_=_3716.3
# ordenada_HvsI_A/m_=_1297.0
# frecuencia_Hz_=_300809.4987038686

Tiempo_(s)	Campo_(V.s)	Magnetizacion_(V.s)	Campo_(kA/m)	Magnetizacion_(A/m)
0.000000e+00	-5.523569e-06	-1.199866e-08	-3.830640e+01	-7.856439e+02
1.000000e-08	-5.521838e-06	-1.200002e-08	-3.829440e+01	-7.855675e+02
2.000000e-08	-5.518129e-06	-1.199658e-08	-3.826868e+01	-7.853151e+02
3.000000e-08	-5.512678e-06	-1.198951e-08	-3.823087e+01	-7.848751e+02
4.000000e-08	-5.505590e-06	-1.197914e-08	-3.818172e+01	-7.842787e+02
5.000000e-08	-5.496810e-06	-1.196447e-08	-3.812082e+01	-7.835859e+02
6.000000e-08	-5.486032e-06	-1.195069e-08	-3.804608e+01	-7.828597e+02
7.000000e-08	-5.473185e-06	-1.193898e-08	-3.795698e+01	-7.821398e+02
8.000000e-08	-5.458346e-06	-1.192259e-08	-3.785407e+01	-7.814279e+02
9.000000e-08	-5.441140e-06	-1.194568e-08	-3.773475e+01	-7.806900e+02
1.000000e-07	-5.421611e-06	-1.196143e-08	-3.759931e+01	-7.798740e+02
1.100000e-07	-5.400131e-06	-1.192180e-08	-3.745035e+01	-7.789352e+02
1.200000e-07	-5.376835e-06	-1.189511e-08	-3.728879e+01	-7.778576e+02
1.300000e-07	-5.352076e-06	-1.183222e-08	-3.711708e+01	-7.766605e+02
1.400000e-07	-5.325788e-06	-1.176112e-08	-3.693477e+01	-7.753901e+02
1.500000e-07	-5.297629e-06	-1.184560e-08	-3.673949e+01	-7.740964e+02
1.600000e-07	-5.267757e-06	-1.180146e-08	-3.653233e+01	-7.728087e+02
1.700000e-07	-5.236299e-06	-1.173876e-08	-3.631416e+01	-7.715188e+02
1.800000e-07	-5.202832e-06	-1.181575e-08	-3.608206e+01	-7.701806e+02
1.900000e-07	-5.167345e-06	-1.171847e-08	-3.583596e+01	-7.687261e+02
2.000000e-07	-5.130348e-06	-1.167589e-08	-3.557938e+01	-7.670914e+02
2.100000e-07	-5.091657e-06	-1.168288e-08	-3.531106e+01	-7.652423e+02
2.200000e-07	-5.051080e-06	-1.157689e-08	-3.502965e+01	-7.631875e+02
2.300000e-07	-5.008546e-06	-1.158918e-08	-3.473467e+01	-7.609748e+02
2.400000e-07	-4.964037e-06	-1.161333e-08	-3.442600e+01	-7.586715e+02
2.500000e-07	-4.917774e-06	-1.155732e-08	-3.410516e+01	-7.563370e+02
2.600000e-07	-4.869665e-06	-1.152577e-08	-3.377152e+01	-7.539996e+02
2.700000e-07	-4.819462e-06	-1.143119e-08	-3.342336e+01	-7.516465e+02
2.800000e-07	-4.767216e-06	-1.139518e-08	-3.306103e+01	-7.492310e+02
2.900000e-07	-4.713143e-06	-1.138580e-08	-3.268603e+01	-7.466933e+02
3.000000e-07	-4.657403e-06	-1.133853e-08	-3.229947e+01	-7.439859e+02
3.100000e-07	-4.599924e-06	-1.129853e-08	-3.190085e+01	-7.410921e+02
3.200000e-07	-4.540633e-06	-1.126549e-08	-3.148966e+01	-7.380308e+02
3.300000e-07	-4.479701e-06	-1.124553e-08	-3.106709e+01	-7.348454e+02
3.400000e-07	-4.417288e-06	-1.115919e-08	-3.063425e+01	-7.315824e+02
3.500000e-07	-4.353417e-06	-1.108186e-08	-3.019130e+01	-7.282698e+02
3.600000e-07	-4.287943e-06	-1.103266e-08	-2.973723e+01	-7.249046e+02
3.700000e-07	-4.220831e-06	-1.098636e-08	-2.927181e+01	-7.214540e+02
3.800000e-07	-4.152126e-06	-1.096479e-08	-2.879533e+01	-7.178708e+02
3.900000e-07	-4.081882e-06	-1.090076e-08	-2.830818e+01	-7.141142e+02
4.000000e-07	-4.010340e-06	-1.082929e-08	-2.781203e+01	-7.101666e+02
4.100000e-07	-3.937531e-06	-1.077438e-08	-2.730710e+01	-7.060403e+02
4.200000e-07	-3.863150e-06	-1.070481e-08	-2.679126e+01	-7.017684e+02
4.300000e-07	-3.787075e-06	-1.062834e-08	-2.626368e+01	-6.973874e+02
4.400000e-07	-3.709451e-06	-1.054500e-08	-2.572534e+01	-6.929176e+02
4.500000e-07	-3.630340e-06	-1.048997e-08	-2.517670e+01	-6.883515e+02
4.600000e-07	-3.549719e-06	-1.043584e-08	-2.461759e+01	-6.836556e+02
4.700000e-07	-3.467795e-06	-1.036420e-08	-2.404944e+01	-6.787849e+02
4.800000e-07	-3.384714e-06	-1.027663e-08	-2.347327e+01	-6.737033e+02
4.900000e-07	-3.300505e-06	-1.017967e-08	-2.288927e+01	-6.684001e+02
5.000000e-07	-3.215304e-06	-1.010258e-08	-2.229840e+01	-6.628954e+02
5.100000e-07	-3.129135e-06	-1.002142e-08	-2.170081e+01	-6.572298e+02
5.200000e-07	-3.041965e-06	-9.935451e-09	-2.109627e+01	-6.514442e+02
5.300000e-07	-2.953838e-06	-9.843740e-09	-2.048511e+01	-6.455575e+02
5.400000e-07	-2.864680e-06	-9.754474e-09	-1.986679e+01	-6.395543e+02
5.500000e-07	-2.774398e-06	-9.664668e-09	-1.924068e+01	-6.333869e+02
5.600000e-07	-2.683031e-06	-9.556015e-09	-1.860704e+01	-6.269934e+02
5.700000e-07	-2.590590e-06	-9.442925e-09	-1.796595e+01	-6.203234e+02
5.800000e-07	-2.497224e-06	-9.335034e-09	-1.731845e+01	-6.133591e+02
5.900000e-07	-2.403072e-06	-9.237401e-09	-1.666550e+01	-6.061233e+02
6.000000e-07	-2.308134e-06	-9.132725e-09	-1.600710e+01	-5.986680e+02
6.100000e-07	-2.212452e-06	-9.015835e-09	-1.534354e+01	-5.910480e+02
6.200000e-07	-2.116037e-06	-8.890989e-09	-1.467489e+01	-5.832917e+02
6.300000e-07	-2.018824e-06	-8.762601e-09	-1.400071e+01	-5.753811e+02
6.400000e-07	-1.920721e-06	-8.635247e-09	-1.332036e+01	-5.672512e+02
6.500000e-07	-1.821793e-06	-8.502149e-09	-1.263428e+01	-5.588115e+02
6.600000e-07	-1.722180e-06	-8.366277e-09	-1.194346e+01	-5.499799e+02
6.700000e-07	-1.621916e-06	-8.230093e-09	-1.124812e+01	-5.407157e+02
6.800000e-07	-1.521067e-06	-8.090859e-09	-1.054872e+01	-5.310350e+02
6.900000e-07	-1.419726e-06	-7.938776e-09	-9.845918e+00	-5.210026e+02
7.000000e-07	-1.317893e-06	-7.776026e-09	-9.139696e+00	-5.106988e+02
7.100000e-07	-1.215620e-06	-7.610150e-09	-8.430424e+00	-5.001773e+02
7.200000e-07	-1.112981e-06	-7.444469e-09	-7.718612e+00	-4.894305e+02
7.300000e-07	-1.009952e-06	-7.275301e-09	-7.004101e+00	-4.783788e+02
7.400000e-07	-9.065689e-07	-7.097195e-09	-6.287129e+00	-4.668917e+02
7.500000e-07	-8.029098e-07	-6.911222e-09	-5.568245e+00	-4.548319e+02
7.600000e-07	-6.990107e-07	-6.717250e-09	-4.847697e+00	-4.421071e+02
7.700000e-07	-5.948918e-07	-6.513821e-09	-4.125623e+00	-4.287046e+02
7.800000e-07	-4.905487e-07	-6.298720e-09	-3.401996e+00	-4.146927e+02
7.900000e-07	-3.860365e-07	-6.076074e-09	-2.677195e+00	-4.001853e+02
8.000000e-07	-2.814238e-07	-5.850750e-09	-1.951697e+00	-3.852814e+02
8.100000e-07	-1.767111e-07	-5.622538e-09	-1.225506e+00	-3.700040e+02
8.200000e-07	-7.192288e-08	-5.384323e-09	-4.987911e-01	-3.542654e+02
8.300000e-07	3.294399e-08	-5.129507e-09	2.284693e-01	-3.378769e+02
8.400000e-07	1.378320e-07	-4.858394e-09	9.558760e-01	-3.206023e+02
8.500000e-07	2.426362e-07	-4.574804e-09	1.682702e+00	-3.022343e+02
8.600000e-07	3.473432e-07	-4.280789e-09	2.408854e+00	-2.826617e+02
8.700000e-07	4.518917e-07	-3.969238e-09	3.133906e+00	-2.618926e+02
8.800000e-07	5.562421e-07	-3.636893e-09	3.857585e+00	-2.400140e+02
8.900000e-07	6.604041e-07	-3.288400e-09	4.579957e+00	-2.170946e+02
9.000000e-07	7.643696e-07	-2.923731e-09	5.300966e+00	-1.930594e+02
9.100000e-07	8.680895e-07	-2.530866e-09	6.020272e+00	-1.675882e+02
9.200000e-07	9.715160e-07	-2.099841e-09	6.737542e+00	-1.400835e+02
9.300000e-07	1.074623e-06	-1.626890e-09	7.452601e+00	-1.097418e+02
9.400000e-07	1.177384e-06	-1.106683e-09	8.165252e+00	-7.572335e+01
9.500000e-07	1.279747e-06	-5.272655e-10	8.875147e+00	-3.738506e+01
9.600000e-07	1.381645e-06	1.233597e-10	9.581818e+00	5.487264e+00
9.700000e-07	1.483057e-06	8.420881e-10	1.028512e+01	5.251859e+01
9.800000e-07	1.584016e-06	1.611958e-09	1.098528e+01	1.027097e+02
9.900000e-07	1.684516e-06	2.407647e-09	1.168225e+01	1.545479e+02
1.000000e-06	1.784422e-06	3.201729e-09	1.237511e+01	2.062407e+02
1.010000e-06	1.883629e-06	3.961161e-09	1.306312e+01	2.560138e+02
1.020000e-06	1.982063e-06	4.658191e-09	1.374577e+01	3.023976e+02
1.030000e-06	2.079672e-06	5.282155e-09	1.442269e+01	3.444302e+02
1.040000e-06	2.176398e-06	5.838857e-09	1.509350e+01	3.817336e+02
1.050000e-06	2.272277e-06	6.335117e-09	1.575843e+01	4.144572e+02
1.060000e-06	2.367469e-06	6.771960e-09	1.641859e+01	4.431203e+02
1.070000e-06	2.461916e-06	7.159343e-09	1.707359e+01	4.684118e+02
1.080000e-06	2.555556e-06	7.505640e-09	1.772299e+01	4.910053e+02
1.090000e-06	2.648398e-06	7.817245e-09	1.836685e+01	5.114378e+02
1.100000e-06	2.740359e-06	8.098179e-09	1.900461e+01	5.300689e+02
1.110000e-06	2.831290e-06	8.350994e-09	1.963522e+01	5.471110e+02
1.120000e-06	2.921018e-06	8.581057e-09	2.025750e+01	5.626971e+02
1.130000e-06	3.009650e-06	8.795132e-09	2.087217e+01	5.769498e+02
1.140000e-06	3.097300e-06	8.997442e-09	2.148003e+01	5.900222e+02
1.150000e-06	3.183859e-06	9.183438e-09	2.208032e+01	6.020989e+02
1.160000e-06	3.269337e-06	9.351092e-09	2.267312e+01	6.133661e+02
1.170000e-06	3.353867e-06	9.507290e-09	2.325934e+01	6.239715e+02
1.180000e-06	3.437302e-06	9.658951e-09	2.383797e+01	6.339960e+02
1.190000e-06	3.519376e-06	9.806638e-09	2.440716e+01	6.434534e+02
1.200000e-06	3.600105e-06	9.946065e-09	2.496702e+01	6.523162e+02
1.210000e-06	3.679576e-06	1.007299e-08	2.551816e+01	6.605576e+02
1.220000e-06	3.757760e-06	1.018842e-08	2.606037e+01	6.681883e+02
1.230000e-06	3.834602e-06	1.029522e-08	2.659328e+01	6.752735e+02
1.240000e-06	3.909962e-06	1.039447e-08	2.711590e+01	6.819227e+02
1.250000e-06	3.983705e-06	1.048839e-08	2.762732e+01	6.882576e+02
1.260000e-06	4.055941e-06	1.058034e-08	2.812828e+01	6.943741e+02
1.270000e-06	4.126771e-06	1.067262e-08	2.861949e+01	7.003147e+02
1.280000e-06	4.196181e-06	1.076303e-08	2.910086e+01	7.060635e+02
1.290000e-06	4.264148e-06	1.084744e-08	2.957222e+01	7.115660e+02
1.300000e-06	4.330486e-06	1.092624e-08	3.003227e+01	7.167640e+02
1.310000e-06	4.395163e-06	1.099998e-08	3.048081e+01	7.216290e+02
1.320000e-06	4.458364e-06	1.106692e-08	3.091912e+01	7.261814e+02
1.330000e-06	4.520159e-06	1.112840e-08	3.134767e+01	7.304852e+02
1.340000e-06	4.580539e-06	1.118876e-08	3.176641e+01	7.346223e+02
1.350000e-06	4.639270e-06	1.125125e-08	3.217372e+01	7.386579e+02
1.360000e-06	4.696151e-06	1.131345e-08	3.256819e+01	7.426130e+02
1.370000e-06	4.751307e-06	1.137220e-08	3.295070e+01	7.464558e+02
1.380000e-06	4.804787e-06	1.142835e-08	3.332159e+01	7.501166e+02
1.390000e-06	4.856321e-06	1.148111e-08	3.367898e+01	7.535191e+02
1.400000e-06	4.905740e-06	1.153106e-08	3.402170e+01	7.566157e+02
1.410000e-06	4.953298e-06	1.157535e-08	3.435152e+01	7.594105e+02
1.420000e-06	4.999232e-06	1.161102e-08	3.467008e+01	7.619599e+02
1.430000e-06	5.043584e-06	1.164372e-08	3.497767e+01	7.643516e+02
1.440000e-06	5.086074e-06	1.167959e-08	3.527234e+01	7.666699e+02
1.450000e-06	5.126615e-06	1.171696e-08	3.555349e+01	7.689621e+02
1.460000e-06	5.165456e-06	1.174976e-08	3.582286e+01	7.712213e+02
1.470000e-06	5.202616e-06	1.178155e-08	3.608056e+01	7.733911e+02
1.480000e-06	5.237933e-06	1.181707e-08	3.632549e+01	7.753919e+02
1.490000e-06	5.271262e-06	1.185077e-08	3.655663e+01	7.771562e+02
1.500000e-06	5.302771e-06	1.187416e-08	3.677515e+01	7.786582e+02
1.510000e-06	5.332599e-06	1.188765e-08	3.698201e+01	7.799265e+02
1.520000e-06	5.360644e-06	1.190085e-08	3.717650e+01	7.810325e+02
1.530000e-06	5.386586e-06	1.191791e-08	3.735641e+01	7.820620e+02
1.540000e-06	5.410424e-06	1.193619e-08	3.752173e+01	7.830809e+02
1.550000e-06	5.432462e-06	1.195227e-08	3.767457e+01	7.841094e+02
1.560000e-06	5.452819e-06	1.196762e-08	3.781574e+01	7.851164e+02
1.570000e-06	5.471283e-06	1.198514e-08	3.794379e+01	7.860350e+02
1.580000e-06	5.487669e-06	1.200048e-08	3.805743e+01	7.867931e+02
1.590000e-06	5.502037e-06	1.200803e-08	3.815708e+01	7.873447e+02
1.600000e-06	5.514339e-06	1.200994e-08	3.824239e+01	7.876902e+02
1.610000e-06	5.524416e-06	1.201229e-08	3.831228e+01	7.878763e+02
1.620000e-06	5.532406e-06	1.201627e-08	3.836769e+01	7.879759e+02
1.630000e-06	5.538590e-06	1.201925e-08	3.841057e+01	7.880578e+02
1.640000e-06	5.542999e-06	1.202063e-08	3.844115e+01	7.881583e+02
1.650000e-06	5.545393e-06	1.202346e-08	3.845775e+01	7.882673e+02
1.660000e-06	5.545717e-06	1.202979e-08	3.846000e+01	7.883340e+02
1.670000e-06	5.544248e-06	1.203038e-08	3.844981e+01	7.882897e+02
1.680000e-06	5.541126e-06	1.202198e-08	3.842816e+01	7.880776e+02
1.690000e-06	5.536132e-06	1.201152e-08	3.839353e+01	7.876767e+02
1.700000e-06	5.529131e-06	1.200331e-08	3.834497e+01	7.871095e+02
1.710000e-06	5.520411e-06	1.199673e-08	3.828450e+01	7.864318e+02
1.720000e-06	5.510011e-06	1.198792e-08	3.821238e+01	7.857084e+02
1.730000e-06	5.497693e-06	1.198389e-08	3.812695e+01	7.849857e+02
1.740000e-06	5.483355e-06	1.198313e-08	3.802752e+01	7.842741e+02
1.750000e-06	5.466951e-06	1.191813e-08	3.791375e+01	7.835459e+02
1.760000e-06	5.448045e-06	1.189507e-08	3.778264e+01	7.827512e+02
1.770000e-06	5.426385e-06	1.190173e-08	3.763242e+01	7.818414e+02
1.780000e-06	5.402615e-06	1.190621e-08	3.746758e+01	7.807932e+02
1.790000e-06	5.377721e-06	1.198226e-08	3.729493e+01	7.796186e+02
1.800000e-06	5.351971e-06	1.186976e-08	3.711635e+01	7.783595e+02
1.810000e-06	5.324389e-06	1.181129e-08	3.692507e+01	7.770674e+02
1.820000e-06	5.294485e-06	1.189006e-08	3.671768e+01	7.757778e+02
1.830000e-06	5.263019e-06	1.175210e-08	3.649947e+01	7.744912e+02
1.840000e-06	5.229801e-06	1.176337e-08	3.626910e+01	7.731688e+02
1.850000e-06	5.194684e-06	1.181854e-08	3.602556e+01	7.717452e+02
1.860000e-06	5.157872e-06	1.168154e-08	3.577026e+01	7.701535e+02
1.870000e-06	5.118954e-06	1.175321e-08	3.550037e+01	7.683512e+02
1.880000e-06	5.078243e-06	1.173009e-08	3.521803e+01	7.663377e+02
1.890000e-06	5.035930e-06	1.158572e-08	3.492458e+01	7.641535e+02
1.900000e-06	4.991717e-06	1.159991e-08	3.461796e+01	7.618640e+02
1.910000e-06	4.945742e-06	1.151637e-08	3.429913e+01	7.595326e+02
1.920000e-06	4.897862e-06	1.156120e-08	3.396707e+01	7.571956e+02
1.930000e-06	4.848128e-06	1.158085e-08	3.362216e+01	7.548491e+02
1.940000e-06	4.796665e-06	1.144547e-08	3.326526e+01	7.524520e+02
1.950000e-06	4.743113e-06	1.145442e-08	3.289387e+01	7.499454e+02
1.960000e-06	4.687752e-06	1.138232e-08	3.250994e+01	7.472770e+02
1.970000e-06	4.630736e-06	1.133217e-08	3.211453e+01	7.444228e+02
1.980000e-06	4.572076e-06	1.127115e-08	3.170772e+01	7.413944e+02
1.990000e-06	4.511847e-06	1.120976e-08	3.129003e+01	7.382316e+02
2.000000e-06	4.449869e-06	1.125138e-08	3.086020e+01	7.349820e+02
2.010000e-06	4.386355e-06	1.116219e-08	3.041973e+01	7.316793e+02
2.020000e-06	4.321312e-06	1.113235e-08	2.996865e+01	7.283274e+02
2.030000e-06	4.254754e-06	1.105476e-08	2.950707e+01	7.248990e+02
2.040000e-06	4.186703e-06	1.096950e-08	2.903512e+01	7.213483e+02
2.050000e-06	4.116874e-06	1.095091e-08	2.855086e+01	7.176314e+02
2.060000e-06	4.045490e-06	1.084143e-08	2.805580e+01	7.137248e+02
2.070000e-06	3.972727e-06	1.081805e-08	2.755118e+01	7.096346e+02
2.080000e-06	3.898516e-06	1.075646e-08	2.703653e+01	7.053907e+02
2.090000e-06	3.822772e-06	1.071131e-08	2.651124e+01	7.010307e+02
2.100000e-06	3.745432e-06	1.065443e-08	2.597488e+01	6.965796e+02
2.110000e-06	3.666639e-06	1.054391e-08	2.542844e+01	6.920364e+02
2.120000e-06	3.586512e-06	1.047833e-08	2.487275e+01	6.873721e+02
2.130000e-06	3.505202e-06	1.037783e-08	2.430886e+01	6.825426e+02
2.140000e-06	3.422798e-06	1.033118e-08	2.373739e+01	6.775082e+02
2.150000e-06	3.339258e-06	1.025318e-08	2.315803e+01	6.722519e+02
2.160000e-06	3.254390e-06	1.016995e-08	2.256946e+01	6.667875e+02
2.170000e-06	3.168221e-06	1.009276e-08	2.197187e+01	6.611527e+02
2.180000e-06	3.080968e-06	9.988411e-09	2.136676e+01	6.553903e+02
2.190000e-06	2.992694e-06	9.903117e-09	2.075458e+01	6.495254e+02
2.200000e-06	2.903434e-06	9.797854e-09	2.013555e+01	6.435504e+02
2.210000e-06	2.813193e-06	9.721399e-09	1.950973e+01	6.374233e+02
2.220000e-06	2.722017e-06	9.636666e-09	1.887741e+01	6.310835e+02
2.230000e-06	2.629794e-06	9.534707e-09	1.823783e+01	6.244756e+02
2.240000e-06	2.536533e-06	9.417419e-09	1.759107e+01	6.175739e+02
2.250000e-06	2.442323e-06	9.295157e-09	1.693771e+01	6.103927e+02
2.260000e-06	2.347199e-06	9.190688e-09	1.627802e+01	6.029795e+02
2.270000e-06	2.251344e-06	9.082855e-09	1.561325e+01	5.953912e+02
2.280000e-06	2.154726e-06	8.973057e-09	1.494320e+01	5.876641e+02
2.290000e-06	2.057332e-06	8.852780e-09	1.426776e+01	5.797907e+02
2.300000e-06	1.959329e-06	8.731533e-09	1.358811e+01	5.717151e+02
2.310000e-06	1.860808e-06	8.602128e-09	1.290486e+01	5.633496e+02
2.320000e-06	1.761715e-06	8.460439e-09	1.221764e+01	5.546074e+02
2.330000e-06	1.661980e-06	8.312153e-09	1.152597e+01	5.454366e+02
2.340000e-06	1.561562e-06	8.169004e-09	1.082956e+01	5.358411e+02
2.350000e-06	1.460556e-06	8.028740e-09	1.012908e+01	5.258773e+02
2.360000e-06	1.359014e-06	7.877870e-09	9.424875e+00	5.156257e+02
2.370000e-06	1.256878e-06	7.714722e-09	8.716549e+00	5.051491e+02
2.380000e-06	1.154180e-06	7.545942e-09	8.004331e+00	4.944551e+02
2.390000e-06	1.051020e-06	7.382120e-09	7.288908e+00	4.834787e+02
2.400000e-06	9.474938e-07	7.212894e-09	6.570947e+00	4.720971e+02
2.410000e-06	8.436355e-07	7.031326e-09	5.850681e+00	4.601701e+02
2.420000e-06	7.394994e-07	6.837602e-09	5.128489e+00	4.475920e+02
2.430000e-06	6.351608e-07	6.636618e-09	4.404892e+00	4.343315e+02
2.440000e-06	5.306476e-07	6.428763e-09	3.680085e+00	4.204414e+02
2.450000e-06	4.259493e-07	6.210529e-09	2.953993e+00	4.060305e+02
2.460000e-06	3.210916e-07	5.982814e-09	2.226796e+00	3.912064e+02
2.470000e-06	2.161210e-07	5.748627e-09	1.498816e+00	3.760126e+02
2.480000e-06	1.110725e-07	5.511112e-09	7.702966e-01	3.603858e+02
2.490000e-06	6.015494e-09	5.264972e-09	4.171794e-02	3.441561e+02
2.500000e-06	-9.901232e-08	5.003410e-09	-6.866585e-01	3.270911e+02
2.510000e-06	-2.039989e-07	4.722579e-09	-1.414749e+00	3.089709e+02
2.520000e-06	-3.089089e-07	4.425601e-09	-2.142309e+00	2.896598e+02
2.530000e-06	-4.136779e-07	4.116589e-09	-2.868890e+00	2.691413e+02
2.540000e-06	-5.182761e-07	3.791296e-09	-3.594287e+00	2.474924e+02
2.550000e-06	-6.227294e-07	3.446372e-09	-4.318679e+00	2.247956e+02
2.560000e-06	-7.269973e-07	3.084527e-09	-5.041786e+00	2.010172e+02
2.570000e-06	-8.309691e-07	2.702392e-09	-5.762838e+00	1.758949e+02
2.580000e-06	-9.346337e-07	2.291115e-09	-6.481761e+00	1.488887e+02
2.590000e-06	-1.037997e-06	1.838387e-09	-7.198597e+00	1.192279e+02
2.600000e-06	-1.140977e-06	1.332837e-09	-7.912767e+00	8.606195e+01
2.610000e-06	-1.243492e-06	7.669499e-10	-8.623720e+00	4.868522e+01
2.620000e-06	-1.345425e-06	1.372109e-10	-9.330629e+00	6.774580e+00
2.630000e-06	-1.446742e-06	-5.570448e-10	-1.003328e+01	-3.942899e+01
2.640000e-06	-1.547476e-06	-1.309866e-09	-1.073188e+01	-8.905563e+01
2.650000e-06	-1.647573e-06	-2.100627e-09	-1.142605e+01	-1.406865e+02
2.660000e-06	-1.747033e-06	-2.900086e-09	-1.211581e+01	-1.925650e+02
2.670000e-06	-1.845918e-06	-3.675330e-09	-1.280159e+01	-2.428873e+02
2.680000e-06	-1.944167e-06	-4.400384e-09	-1.348295e+01	-2.900976e+02
2.690000e-06	-2.041763e-06	-5.059215e-09	-1.415979e+01	-3.331142e+02
2.700000e-06	-2.138696e-06	-5.645126e-09	-1.483203e+01	-3.714344e+02
2.710000e-06	-2.234945e-06	-6.161289e-09	-1.549953e+01	-4.051052e+02
2.720000e-06	-2.330566e-06	-6.616651e-09	-1.616267e+01	-4.345830e+02
2.730000e-06	-2.425535e-06	-7.019462e-09	-1.682128e+01	-4.605373e+02
2.740000e-06	-2.519644e-06	-7.376967e-09	-1.747394e+01	-4.836578e+02
2.750000e-06	-2.612648e-06	-7.696704e-09	-1.811893e+01	-5.045170e+02
2.760000e-06	-2.704536e-06	-7.987957e-09	-1.875618e+01	-5.235120e+02
2.770000e-06	-2.795415e-06	-8.255262e-09	-1.938643e+01	-5.408818e+02
2.780000e-06	-2.885281e-06	-8.497787e-09	-2.000966e+01	-5.567700e+02
2.790000e-06	-2.974084e-06	-8.720306e-09	-2.062552e+01	-5.712967e+02
2.800000e-06	-3.061898e-06	-8.926609e-09	-2.123451e+01	-5.846072e+02
2.810000e-06	-3.148793e-06	-9.119346e-09	-2.183714e+01	-5.968808e+02
2.820000e-06	-3.234566e-06	-9.297775e-09	-2.243198e+01	-6.083071e+02
2.830000e-06	-3.319002e-06	-9.461083e-09	-2.301755e+01	-6.190449e+02
2.840000e-06	-3.402183e-06	-9.615219e-09	-2.359441e+01	-6.291906e+02
2.850000e-06	-3.484256e-06	-9.761990e-09	-2.416360e+01	-6.387709e+02
2.860000e-06	-3.565214e-06	-9.898645e-09	-2.472505e+01	-6.477640e+02
2.870000e-06	-3.644971e-06	-1.002218e-08	-2.527817e+01	-6.561392e+02
2.880000e-06	-3.723428e-06	-1.013779e-08	-2.582228e+01	-6.638971e+02
2.890000e-06	-3.800299e-06	-1.024947e-08	-2.635538e+01	-6.710910e+02
2.900000e-06	-3.875570e-06	-1.035401e-08	-2.687740e+01	-6.778230e+02
2.910000e-06	-3.949423e-06	-1.045318e-08	-2.738957e+01	-6.842157e+02
2.920000e-06	-4.021887e-06	-1.055197e-08	-2.789211e+01	-6.903733e+02
2.930000e-06	-4.093011e-06	-1.064739e-08	-2.838536e+01	-6.963510e+02
2.940000e-06	-4.162581e-06	-1.073312e-08	-2.886784e+01	-7.021445e+02
