# Temperatura_=_57.45
# Concentracion g/m^3_=_13400.0
# C_Vs_to_Am_M_A/Vsm_=_65563218390.804596
# pendiente_HvsI_1/m_=_3716.3
# ordenada_HvsI_A/m_=_1297.0
# frecuencia_Hz_=_300798.29968001676

Tiempo_(s)	Campo_(V.s)	Magnetizacion_(V.s)	Campo_(kA/m)	Magnetizacion_(A/m)
0.000000e+00	-5.507942e-06	-1.260368e-08	-3.831086e+01	-8.260555e+02
1.000000e-08	-5.505929e-06	-1.260653e-08	-3.829686e+01	-8.258993e+02
2.000000e-08	-5.501983e-06	-1.260155e-08	-3.826941e+01	-8.255336e+02
3.000000e-08	-5.496289e-06	-1.259423e-08	-3.822981e+01	-8.249802e+02
4.000000e-08	-5.488936e-06	-1.258185e-08	-3.817866e+01	-8.242984e+02
5.000000e-08	-5.479934e-06	-1.256263e-08	-3.811605e+01	-8.235597e+02
6.000000e-08	-5.468952e-06	-1.254223e-08	-3.803966e+01	-8.228160e+02
7.000000e-08	-5.455911e-06	-1.251647e-08	-3.794895e+01	-8.220782e+02
8.000000e-08	-5.440815e-06	-1.252268e-08	-3.784395e+01	-8.213129e+02
9.000000e-08	-5.423287e-06	-1.257590e-08	-3.772204e+01	-8.204590e+02
1.000000e-07	-5.403422e-06	-1.256058e-08	-3.758386e+01	-8.194576e+02
1.100000e-07	-5.381591e-06	-1.252469e-08	-3.743201e+01	-8.182803e+02
1.200000e-07	-5.358035e-06	-1.249710e-08	-3.726817e+01	-8.169448e+02
1.300000e-07	-5.333077e-06	-1.236436e-08	-3.709458e+01	-8.155090e+02
1.400000e-07	-5.306556e-06	-1.240544e-08	-3.691010e+01	-8.140471e+02
1.500000e-07	-5.278178e-06	-1.245296e-08	-3.671272e+01	-8.126161e+02
1.600000e-07	-5.248138e-06	-1.229026e-08	-3.650377e+01	-8.112287e+02
1.700000e-07	-5.216494e-06	-1.238196e-08	-3.628367e+01	-8.098425e+02
1.800000e-07	-5.182825e-06	-1.239632e-08	-3.604948e+01	-8.083727e+02
1.900000e-07	-5.147196e-06	-1.224943e-08	-3.580166e+01	-8.067214e+02
2.000000e-07	-5.109983e-06	-1.231375e-08	-3.554283e+01	-8.048132e+02
2.100000e-07	-5.071022e-06	-1.222489e-08	-3.527183e+01	-8.026222e+02
2.200000e-07	-5.030274e-06	-1.212947e-08	-3.498841e+01	-8.001796e+02
2.300000e-07	-4.987555e-06	-1.218468e-08	-3.469127e+01	-7.975589e+02
2.400000e-07	-4.942847e-06	-1.213730e-08	-3.438030e+01	-7.948459e+02
2.500000e-07	-4.896451e-06	-1.212306e-08	-3.405759e+01	-7.921058e+02
2.600000e-07	-4.848249e-06	-1.205165e-08	-3.372232e+01	-7.893601e+02
2.700000e-07	-4.797977e-06	-1.196005e-08	-3.337265e+01	-7.865832e+02
2.800000e-07	-4.745608e-06	-1.196296e-08	-3.300839e+01	-7.837184e+02
2.900000e-07	-4.691350e-06	-1.190535e-08	-3.263100e+01	-7.807049e+02
3.000000e-07	-4.635476e-06	-1.184629e-08	-3.224236e+01	-7.775050e+02
3.100000e-07	-4.577945e-06	-1.179584e-08	-3.184220e+01	-7.741184e+02
3.200000e-07	-4.518596e-06	-1.177301e-08	-3.142939e+01	-7.705790e+02
3.300000e-07	-4.457583e-06	-1.173055e-08	-3.100501e+01	-7.669361e+02
3.400000e-07	-4.395097e-06	-1.163455e-08	-3.057039e+01	-7.632296e+02
3.500000e-07	-4.331211e-06	-1.157614e-08	-3.012603e+01	-7.594705e+02
3.600000e-07	-4.265796e-06	-1.149962e-08	-2.967103e+01	-7.556351e+02
3.700000e-07	-4.198680e-06	-1.146591e-08	-2.920420e+01	-7.516758e+02
3.800000e-07	-4.129907e-06	-1.143003e-08	-2.872584e+01	-7.475425e+02
3.900000e-07	-4.059669e-06	-1.133290e-08	-2.823730e+01	-7.432055e+02
4.000000e-07	-3.988148e-06	-1.127045e-08	-2.773983e+01	-7.386674e+02
4.100000e-07	-3.915310e-06	-1.119857e-08	-2.723320e+01	-7.339605e+02
4.200000e-07	-3.840960e-06	-1.112933e-08	-2.671605e+01	-7.291296e+02
4.300000e-07	-3.764932e-06	-1.103867e-08	-2.618723e+01	-7.242091e+02
4.400000e-07	-3.687311e-06	-1.095748e-08	-2.564734e+01	-7.192043e+02
4.500000e-07	-3.608192e-06	-1.089904e-08	-2.509702e+01	-7.140868e+02
4.600000e-07	-3.527618e-06	-1.082263e-08	-2.453658e+01	-7.088059e+02
4.700000e-07	-3.445735e-06	-1.073706e-08	-2.396704e+01	-7.033107e+02
4.800000e-07	-3.362616e-06	-1.062535e-08	-2.338890e+01	-6.975737e+02
4.900000e-07	-3.278428e-06	-1.053113e-08	-2.280332e+01	-6.916035e+02
5.000000e-07	-3.193282e-06	-1.045036e-08	-2.221108e+01	-6.854413e+02
5.100000e-07	-3.107186e-06	-1.036618e-08	-2.161224e+01	-6.791418e+02
5.200000e-07	-3.020122e-06	-1.026956e-08	-2.100666e+01	-6.727468e+02
5.300000e-07	-2.932089e-06	-1.016184e-08	-2.039434e+01	-6.662635e+02
5.400000e-07	-2.843118e-06	-1.006095e-08	-1.977550e+01	-6.596583e+02
5.500000e-07	-2.753054e-06	-9.954854e-09	-1.914905e+01	-6.528688e+02
5.600000e-07	-2.661834e-06	-9.839575e-09	-1.851457e+01	-6.458296e+02
5.700000e-07	-2.569545e-06	-9.721508e-09	-1.787264e+01	-6.385008e+02
5.800000e-07	-2.476348e-06	-9.610565e-09	-1.722440e+01	-6.308848e+02
5.900000e-07	-2.382373e-06	-9.504060e-09	-1.657076e+01	-6.230244e+02
6.000000e-07	-2.287605e-06	-9.386786e-09	-1.591159e+01	-6.149811e+02
6.100000e-07	-2.192084e-06	-9.257201e-09	-1.524718e+01	-6.068025e+02
6.200000e-07	-2.095844e-06	-9.121644e-09	-1.457778e+01	-5.984945e+02
6.300000e-07	-1.998852e-06	-8.987871e-09	-1.390315e+01	-5.900104e+02
6.400000e-07	-1.901061e-06	-8.855258e-09	-1.322295e+01	-5.812637e+02
6.500000e-07	-1.802366e-06	-8.712567e-09	-1.253648e+01	-5.721601e+02
6.600000e-07	-1.702847e-06	-8.564938e-09	-1.184426e+01	-5.626347e+02
6.700000e-07	-1.602709e-06	-8.416555e-09	-1.114775e+01	-5.526788e+02
6.800000e-07	-1.502034e-06	-8.263716e-09	-1.044750e+01	-5.423412e+02
6.900000e-07	-1.400912e-06	-8.101041e-09	-9.744136e+00	-5.317033e+02
7.000000e-07	-1.299353e-06	-7.932839e-09	-9.037735e+00	-5.208367e+02
7.100000e-07	-1.197330e-06	-7.766022e-09	-8.328110e+00	-5.097610e+02
7.200000e-07	-1.094858e-06	-7.593677e-09	-7.615355e+00	-4.984225e+02
7.300000e-07	-9.920023e-07	-7.410962e-09	-6.899938e+00	-4.867037e+02
7.400000e-07	-8.888335e-07	-7.216260e-09	-6.182341e+00	-4.744626e+02
7.500000e-07	-7.853747e-07	-7.015716e-09	-5.462726e+00	-4.615851e+02
7.600000e-07	-6.816948e-07	-6.811327e-09	-4.741574e+00	-4.480288e+02
7.700000e-07	-5.777792e-07	-6.599019e-09	-4.018782e+00	-4.338352e+02
7.800000e-07	-4.736766e-07	-6.376081e-09	-3.294689e+00	-4.191033e+02
7.900000e-07	-3.694744e-07	-6.148109e-09	-2.569904e+00	-4.039316e+02
8.000000e-07	-2.651561e-07	-5.917697e-09	-1.844311e+00	-3.883528e+02
8.100000e-07	-1.607189e-07	-5.673871e-09	-1.117891e+00	-3.722902e+02
8.200000e-07	-5.617923e-08	-5.411371e-09	-3.907584e-01	-3.555575e+02
8.300000e-07	4.837622e-08	-5.130521e-09	3.364840e-01	-3.379073e+02
8.400000e-07	1.528750e-07	-4.839425e-09	1.063332e+00	-3.191098e+02
8.500000e-07	2.572915e-07	-4.538837e-09	1.789608e+00	-2.990267e+02
8.600000e-07	3.616099e-07	-4.219798e-09	2.515202e+00	-2.776430e+02
8.700000e-07	4.658520e-07	-3.877628e-09	3.240265e+00	-2.550305e+02
8.800000e-07	5.699452e-07	-3.516331e-09	3.964292e+00	-2.312443e+02
8.900000e-07	6.738296e-07	-3.136279e-09	4.686867e+00	-2.061848e+02
9.000000e-07	7.775615e-07	-2.723036e-09	5.408381e+00	-1.794782e+02
9.100000e-07	8.810430e-07	-2.263404e-09	6.128153e+00	-1.504338e+02
9.200000e-07	9.841897e-07	-1.755023e-09	6.845597e+00	-1.181190e+02
9.300000e-07	1.087000e-06	-1.198234e-09	7.560704e+00	-8.155277e+01
9.400000e-07	1.189406e-06	-5.767646e-10	8.272991e+00	-3.998001e+01
9.500000e-07	1.291386e-06	1.301398e-10	8.982322e+00	6.847591e+00
9.600000e-07	1.392994e-06	9.233779e-10	9.689061e+00	5.847080e+01
9.700000e-07	1.494170e-06	1.777216e-09	1.039280e+01	1.136721e+02
9.800000e-07	1.594822e-06	2.655291e-09	1.109289e+01	1.706054e+02
9.900000e-07	1.694949e-06	3.521909e-09	1.178933e+01	2.270834e+02
1.000000e-06	1.794498e-06	4.339599e-09	1.248175e+01	2.809536e+02
1.010000e-06	1.893344e-06	5.077305e-09	1.316928e+01	3.304646e+02
1.020000e-06	1.991351e-06	5.724986e-09	1.385097e+01	3.745305e+02
1.030000e-06	2.088404e-06	6.292109e-09	1.452604e+01	4.128288e+02
1.040000e-06	2.184635e-06	6.791390e-09	1.519538e+01	4.457215e+02
1.050000e-06	2.280241e-06	7.230253e-09	1.586037e+01	4.740362e+02
1.060000e-06	2.375092e-06	7.611448e-09	1.652011e+01	4.987838e+02
1.070000e-06	2.469118e-06	7.947535e-09	1.717412e+01	5.208967e+02
1.080000e-06	2.562381e-06	8.251838e-09	1.782281e+01	5.410565e+02
1.090000e-06	2.654857e-06	8.532190e-09	1.846604e+01	5.596425e+02
1.100000e-06	2.746435e-06	8.788237e-09	1.910301e+01	5.767891e+02
1.110000e-06	2.836849e-06	9.018044e-09	1.973189e+01	5.925071e+02
1.120000e-06	2.926032e-06	9.231172e-09	2.035221e+01	6.068120e+02
1.130000e-06	3.014162e-06	9.433761e-09	2.096521e+01	6.198081e+02
1.140000e-06	3.101288e-06	9.623449e-09	2.157122e+01	6.317048e+02
1.150000e-06	3.187404e-06	9.794230e-09	2.217020e+01	6.427707e+02
1.160000e-06	3.272536e-06	9.949870e-09	2.276234e+01	6.532554e+02
1.170000e-06	3.356602e-06	1.009920e-08	2.334707e+01	6.633193e+02
1.180000e-06	3.439452e-06	1.024547e-08	2.392333e+01	6.730010e+02
1.190000e-06	3.521034e-06	1.038644e-08	2.449079e+01	6.822360e+02
1.200000e-06	3.601312e-06	1.051693e-08	2.504917e+01	6.909138e+02
1.210000e-06	3.680281e-06	1.063921e-08	2.559844e+01	6.989490e+02
1.220000e-06	3.758014e-06	1.075591e-08	2.613912e+01	7.063339e+02
1.230000e-06	3.834438e-06	1.086395e-08	2.667069e+01	7.131536e+02
1.240000e-06	3.909315e-06	1.096007e-08	2.719150e+01	7.195589e+02
1.250000e-06	3.982544e-06	1.105014e-08	2.770085e+01	7.257126e+02
1.260000e-06	4.054304e-06	1.114247e-08	2.819998e+01	7.317322e+02
1.270000e-06	4.124677e-06	1.123457e-08	2.868947e+01	7.376558e+02
1.280000e-06	4.193665e-06	1.131969e-08	2.916932e+01	7.434414e+02
1.290000e-06	4.261188e-06	1.139991e-08	2.963898e+01	7.490000e+02
1.300000e-06	4.327040e-06	1.148161e-08	3.009702e+01	7.542450e+02
1.310000e-06	4.391333e-06	1.156176e-08	3.054421e+01	7.591357e+02
1.320000e-06	4.454187e-06	1.163204e-08	3.098139e+01	7.636978e+02
1.330000e-06	4.515598e-06	1.169491e-08	3.140854e+01	7.680110e+02
1.340000e-06	4.575555e-06	1.175866e-08	3.182558e+01	7.721743e+02
1.350000e-06	4.633812e-06	1.182343e-08	3.223079e+01	7.762622e+02
1.360000e-06	4.690278e-06	1.188344e-08	3.262354e+01	7.802939e+02
1.370000e-06	4.745128e-06	1.193895e-08	3.300505e+01	7.842278e+02
1.380000e-06	4.798258e-06	1.199445e-08	3.337460e+01	7.879833e+02
1.390000e-06	4.849280e-06	1.204957e-08	3.372949e+01	7.914792e+02
1.400000e-06	4.898273e-06	1.210243e-08	3.407026e+01	7.946717e+02
1.410000e-06	4.945536e-06	1.214874e-08	3.439900e+01	7.975752e+02
1.420000e-06	4.991172e-06	1.218933e-08	3.471643e+01	8.002568e+02
1.430000e-06	5.035122e-06	1.222940e-08	3.502213e+01	8.028077e+02
1.440000e-06	5.077120e-06	1.226963e-08	3.531424e+01	8.053051e+02
1.450000e-06	5.117278e-06	1.230798e-08	3.559357e+01	8.077796e+02
1.460000e-06	5.155803e-06	1.234134e-08	3.586153e+01	8.102042e+02
1.470000e-06	5.192646e-06	1.237218e-08	3.611779e+01	8.125086e+02
1.480000e-06	5.227609e-06	1.240446e-08	3.636098e+01	8.146108e+02
1.490000e-06	5.260596e-06	1.243660e-08	3.659043e+01	8.164550e+02
1.500000e-06	5.291761e-06	1.246487e-08	3.680720e+01	8.180362e+02
1.510000e-06	5.321268e-06	1.248803e-08	3.701244e+01	8.194029e+02
1.520000e-06	5.348955e-06	1.250825e-08	3.720501e+01	8.206370e+02
1.530000e-06	5.374501e-06	1.252740e-08	3.738270e+01	8.218190e+02
1.540000e-06	5.398058e-06	1.254486e-08	3.754655e+01	8.229954e+02
1.550000e-06	5.419868e-06	1.255919e-08	3.769826e+01	8.241605e+02
1.560000e-06	5.439899e-06	1.257359e-08	3.783758e+01	8.252618e+02
1.570000e-06	5.457937e-06	1.258935e-08	3.796305e+01	8.262255e+02
1.580000e-06	5.473966e-06	1.260429e-08	3.807453e+01	8.269903e+02
1.590000e-06	5.488099e-06	1.261657e-08	3.817284e+01	8.275355e+02
1.600000e-06	5.500066e-06	1.262443e-08	3.825607e+01	8.278903e+02
1.610000e-06	5.509753e-06	1.262936e-08	3.832345e+01	8.281216e+02
1.620000e-06	5.517462e-06	1.263349e-08	3.837707e+01	8.283047e+02
1.630000e-06	5.523359e-06	1.263673e-08	3.841809e+01	8.284910e+02
1.640000e-06	5.527399e-06	1.263730e-08	3.844619e+01	8.286861e+02
1.650000e-06	5.529384e-06	1.264040e-08	3.846000e+01	8.288482e+02
1.660000e-06	5.529383e-06	1.264563e-08	3.845999e+01	8.289066e+02
1.670000e-06	5.527642e-06	1.264344e-08	3.844788e+01	8.287933e+02
1.680000e-06	5.524241e-06	1.264020e-08	3.842423e+01	8.284723e+02
1.690000e-06	5.518944e-06	1.263236e-08	3.838738e+01	8.279550e+02
1.700000e-06	5.511728e-06	1.262377e-08	3.833719e+01	8.272946e+02
1.710000e-06	5.502869e-06	1.261637e-08	3.827557e+01	8.265626e+02
1.720000e-06	5.492285e-06	1.260998e-08	3.820195e+01	8.258174e+02
1.730000e-06	5.479687e-06	1.262065e-08	3.811433e+01	8.250798e+02
1.740000e-06	5.465127e-06	1.255747e-08	3.801306e+01	8.243249e+02
1.750000e-06	5.448494e-06	1.249794e-08	3.789736e+01	8.234955e+02
1.760000e-06	5.429135e-06	1.250579e-08	3.776271e+01	8.225294e+02
1.770000e-06	5.407054e-06	1.248501e-08	3.760913e+01	8.213899e+02
1.780000e-06	5.383115e-06	1.257672e-08	3.744262e+01	8.200845e+02
1.790000e-06	5.358252e-06	1.253705e-08	3.726968e+01	8.186640e+02
1.800000e-06	5.332452e-06	1.237559e-08	3.709022e+01	8.172018e+02
1.810000e-06	5.304530e-06	1.250932e-08	3.689601e+01	8.157613e+02
1.820000e-06	5.274423e-06	1.242602e-08	3.668660e+01	8.143662e+02
1.830000e-06	5.242829e-06	1.230435e-08	3.646685e+01	8.129858e+02
1.840000e-06	5.209352e-06	1.246813e-08	3.623400e+01	8.115422e+02
1.850000e-06	5.174133e-06	1.232508e-08	3.598903e+01	8.099373e+02
1.860000e-06	5.137098e-06	1.227665e-08	3.573143e+01	8.080882e+02
1.870000e-06	5.097960e-06	1.239775e-08	3.545920e+01	8.059571e+02
1.880000e-06	5.057245e-06	1.223436e-08	3.517600e+01	8.035632e+02
1.890000e-06	5.014802e-06	1.222745e-08	3.488079e+01	8.009733e+02
1.900000e-06	4.970379e-06	1.215215e-08	3.457181e+01	7.982734e+02
1.910000e-06	4.924274e-06	1.206056e-08	3.425112e+01	7.955356e+02
1.920000e-06	4.876287e-06	1.218535e-08	3.391734e+01	7.927917e+02
1.930000e-06	4.826527e-06	1.202698e-08	3.357123e+01	7.900256e+02
1.940000e-06	4.774990e-06	1.199919e-08	3.321276e+01	7.871850e+02
1.950000e-06	4.721361e-06	1.200189e-08	3.283974e+01	7.842076e+02
1.960000e-06	4.665951e-06	1.189301e-08	3.245434e+01	7.810490e+02
1.970000e-06	4.608814e-06	1.188395e-08	3.205691e+01	7.777005e+02
1.980000e-06	4.550133e-06	1.174860e-08	3.164876e+01	7.741898e+02
1.990000e-06	4.489916e-06	1.175634e-08	3.122991e+01	7.705649e+02
2.000000e-06	4.427936e-06	1.171593e-08	3.079880e+01	7.668699e+02
2.010000e-06	4.364367e-06	1.164186e-08	3.035665e+01	7.631230e+02
2.020000e-06	4.299239e-06	1.162645e-08	2.990364e+01	7.593074e+02
2.030000e-06	4.232684e-06	1.147539e-08	2.944072e+01	7.553790e+02
2.040000e-06	4.164553e-06	1.147306e-08	2.896683e+01	7.512865e+02
2.050000e-06	4.094661e-06	1.138671e-08	2.848069e+01	7.469941e+02
2.060000e-06	4.023285e-06	1.130418e-08	2.798423e+01	7.424971e+02
2.070000e-06	3.950571e-06	1.126572e-08	2.747846e+01	7.378226e+02
2.080000e-06	3.876498e-06	1.116653e-08	2.696324e+01	7.330147e+02
2.090000e-06	3.800738e-06	1.115065e-08	2.643628e+01	7.281118e+02
2.100000e-06	3.723324e-06	1.102682e-08	2.589783e+01	7.231263e+02
2.110000e-06	3.644584e-06	1.094977e-08	2.535015e+01	7.180367e+02
2.120000e-06	3.564584e-06	1.086169e-08	2.479370e+01	7.127954e+02
2.130000e-06	3.483367e-06	1.077900e-08	2.422879e+01	7.073495e+02
2.140000e-06	3.401010e-06	1.072812e-08	2.365595e+01	7.016649e+02
2.150000e-06	3.317498e-06	1.061337e-08	2.307508e+01	6.957420e+02
2.160000e-06	3.232634e-06	1.053763e-08	2.248480e+01	6.896164e+02
2.170000e-06	3.146453e-06	1.041715e-08	2.188536e+01	6.833419e+02
2.180000e-06	3.059165e-06	1.032978e-08	2.127822e+01	6.769653e+02
2.190000e-06	2.970910e-06	1.023010e-08	2.066436e+01	6.705024e+02
2.200000e-06	2.881713e-06	1.012377e-08	2.004395e+01	6.639279e+02
2.210000e-06	2.791590e-06	1.004116e-08	1.941709e+01	6.571837e+02
2.220000e-06	2.700574e-06	9.934136e-09	1.878402e+01	6.502026e+02
2.230000e-06	2.608560e-06	9.829441e-09	1.814402e+01	6.429371e+02
2.240000e-06	2.515575e-06	9.688820e-09	1.749725e+01	6.353802e+02
2.250000e-06	2.421591e-06	9.566820e-09	1.684354e+01	6.275672e+02
2.260000e-06	2.326644e-06	9.451846e-09	1.618312e+01	6.195580e+02
2.270000e-06	2.230897e-06	9.340556e-09	1.551715e+01	6.114061e+02
2.280000e-06	2.134414e-06	9.221273e-09	1.484606e+01	6.031280e+02
2.290000e-06	2.037227e-06	9.086208e-09	1.417007e+01	5.946879e+02
2.300000e-06	1.939385e-06	8.955487e-09	1.348952e+01	5.860058e+02
2.310000e-06	1.841016e-06	8.814066e-09	1.280531e+01	5.769856e+02
2.320000e-06	1.742134e-06	8.665826e-09	1.211753e+01	5.675534e+02
2.330000e-06	1.642642e-06	8.508456e-09	1.142551e+01	5.576873e+02
2.340000e-06	1.542488e-06	8.361430e-09	1.072888e+01	5.474252e+02
2.350000e-06	1.441731e-06	8.213407e-09	1.002806e+01	5.368445e+02
2.360000e-06	1.340428e-06	8.052336e-09	9.323437e+00	5.260229e+02
2.370000e-06	1.238510e-06	7.875328e-09	8.614541e+00	5.149939e+02
2.380000e-06	1.136079e-06	7.694277e-09	7.902077e+00	5.037198e+02
2.390000e-06	1.033243e-06	7.518281e-09	7.186788e+00	4.920944e+02
2.400000e-06	9.299792e-07	7.336768e-09	6.468532e+00	4.799766e+02
2.410000e-06	8.263534e-07	7.146394e-09	5.747757e+00	4.672418e+02
2.420000e-06	7.224689e-07	6.943998e-09	5.025180e+00	4.538302e+02
2.430000e-06	6.184091e-07	6.732183e-09	4.301386e+00	4.397660e+02
2.440000e-06	5.141674e-07	6.509625e-09	3.576326e+00	4.251401e+02
2.450000e-06	4.097292e-07	6.277709e-09	2.849899e+00	4.100567e+02
2.460000e-06	3.051586e-07	6.036556e-09	2.122551e+00	3.945675e+02
2.470000e-06	2.005220e-07	5.790658e-09	1.394744e+00	3.786209e+02
2.480000e-06	9.579937e-08	5.539054e-09	6.663389e-01	3.620516e+02
2.490000e-06	-8.957527e-09	5.272996e-09	-6.230468e-02	3.446192e+02
2.500000e-06	-1.136613e-07	4.988168e-09	-7.905789e-01	3.260831e+02
2.510000e-06	-2.183022e-07	4.684300e-09	-1.518415e+00	3.062808e+02
2.520000e-06	-3.228293e-07	4.367183e-09	-2.245461e+00	2.851716e+02
2.530000e-06	-4.272543e-07	4.035845e-09	-2.971796e+00	2.628151e+02
2.540000e-06	-5.315607e-07	3.682756e-09	-3.697306e+00	2.392814e+02
2.550000e-06	-6.357226e-07	3.304685e-09	-4.421811e+00	2.145155e+02
2.560000e-06	-7.396902e-07	2.900004e-09	-5.144965e+00	1.882094e+02
2.570000e-06	-8.433680e-07	2.460167e-09	-5.866103e+00	1.597384e+02
2.580000e-06	-9.467183e-07	1.973680e-09	-6.584962e+00	1.282092e+02
2.590000e-06	-1.049697e-06	1.431917e-09	-7.301239e+00	9.262966e+01
2.600000e-06	-1.152221e-06	8.270995e-10	-8.014353e+00	5.217170e+01
2.610000e-06	-1.254254e-06	1.502423e-10	-8.724050e+00	6.457501e+00
2.620000e-06	-1.355771e-06	-6.061931e-10	-9.430153e+00	-4.421552e+01
2.630000e-06	-1.456734e-06	-1.437190e-09	-1.013241e+01	-9.878760e+01
2.640000e-06	-1.557130e-06	-2.316019e-09	-1.083072e+01	-1.555277e+02
2.650000e-06	-1.656901e-06	-3.200688e-09	-1.152469e+01	-2.122916e+02
2.660000e-06	-1.756011e-06	-4.047664e-09	-1.221405e+01	-2.668867e+02
2.670000e-06	-1.854495e-06	-4.822339e-09	-1.289906e+01	-3.174488e+02
2.680000e-06	-1.952387e-06	-5.511024e-09	-1.357996e+01	-3.627346e+02
2.690000e-06	-2.049649e-06	-6.112679e-09	-1.425647e+01	-4.022591e+02
2.700000e-06	-2.146246e-06	-6.632333e-09	-1.492836e+01	-4.362522e+02
2.710000e-06	-2.242206e-06	-7.085030e-09	-1.559581e+01	-4.654648e+02
2.720000e-06	-2.337527e-06	-7.485638e-09	-1.625883e+01	-4.908922e+02
2.730000e-06	-2.432109e-06	-7.841285e-09	-1.691669e+01	-5.135022e+02
2.740000e-06	-2.525753e-06	-8.159576e-09	-1.756804e+01	-5.340385e+02
2.750000e-06	-2.618271e-06	-8.449348e-09	-1.821156e+01	-5.529438e+02
2.760000e-06	-2.709715e-06	-8.714119e-09	-1.884761e+01	-5.703958e+02
2.770000e-06	-2.800184e-06	-8.955443e-09	-1.947687e+01	-5.864205e+02
2.780000e-06	-2.889644e-06	-9.175235e-09	-2.009911e+01	-6.010232e+02
2.790000e-06	-2.978050e-06	-9.377874e-09	-2.071403e+01	-6.142854e+02
2.800000e-06	-3.065514e-06	-9.566847e-09	-2.132239e+01	-6.263961e+02
2.810000e-06	-3.152052e-06	-9.742716e-09	-2.192431e+01	-6.376172e+02
2.820000e-06	-3.237386e-06	-9.906215e-09	-2.251785e+01	-6.482091e+02
2.830000e-06	-3.321346e-06	-1.006218e-08	-2.310184e+01	-6.583557e+02
2.840000e-06	-3.404102e-06	-1.021421e-08	-2.367746e+01	-6.681220e+02
2.850000e-06	-3.485775e-06	-1.035745e-08	-2.424554e+01	-6.774615e+02
2.860000e-06	-3.566318e-06	-1.048853e-08	-2.480576e+01	-6.862678e+02
2.870000e-06	-3.645661e-06	-1.060668e-08	-2.535764e+01	-6.944446e+02
2.880000e-06	-3.723644e-06	-1.071783e-08	-2.590005e+01	-7.019647e+02
2.890000e-06	-3.800049e-06	-1.082580e-08	-2.643149e+01	-7.088944e+02
2.900000e-06	-3.874938e-06	-1.092850e-08	-2.695239e+01	-7.153744e+02
2.910000e-06	-3.948422e-06	-1.102756e-08	-2.746351e+01	-7.215698e+02
2.920000e-06	-4.020493e-06	-1.112495e-08	-2.796481e+01	-7.276120e+02
2.930000e-06	-4.091202e-06	-1.121906e-08	-2.845663e+01	-7.335573e+02
2.940000e-06	-4.160398e-06	-1.130612e-08	-2.893792e+01	-7.393792e+02
