# Temperatura_=_51.41
# Concentracion g/m^3_=_13400.0
# C_Vs_to_Am_M_A/Vsm_=_65563218390.804596
# pendiente_HvsI_1/m_=_3716.3
# ordenada_HvsI_A/m_=_1297.0
# frecuencia_Hz_=_300801.1690729201

Tiempo_(s)	Campo_(V.s)	Magnetizacion_(V.s)	Campo_(kA/m)	Magnetizacion_(A/m)
0.000000e+00	-5.520768e-06	-1.246518e-08	-3.830757e+01	-8.176978e+02
1.000000e-08	-5.519048e-06	-1.247124e-08	-3.829564e+01	-8.176408e+02
2.000000e-08	-5.515344e-06	-1.246697e-08	-3.826994e+01	-8.173297e+02
3.000000e-08	-5.509796e-06	-1.245802e-08	-3.823144e+01	-8.167751e+02
4.000000e-08	-5.502632e-06	-1.244834e-08	-3.818173e+01	-8.160499e+02
5.000000e-08	-5.493863e-06	-1.243528e-08	-3.812089e+01	-8.152578e+02
6.000000e-08	-5.483118e-06	-1.241920e-08	-3.804633e+01	-8.144901e+02
7.000000e-08	-5.470242e-06	-1.239359e-08	-3.795699e+01	-8.137878e+02
8.000000e-08	-5.455403e-06	-1.237473e-08	-3.785402e+01	-8.131257e+02
9.000000e-08	-5.438192e-06	-1.243101e-08	-3.773460e+01	-8.124248e+02
1.000000e-07	-5.418605e-06	-1.245609e-08	-3.759869e+01	-8.115868e+02
1.100000e-07	-5.397017e-06	-1.240295e-08	-3.744889e+01	-8.105368e+02
1.200000e-07	-5.373618e-06	-1.237268e-08	-3.728653e+01	-8.092552e+02
1.300000e-07	-5.348782e-06	-1.226889e-08	-3.711420e+01	-8.077860e+02
1.400000e-07	-5.322413e-06	-1.222559e-08	-3.693123e+01	-8.062172e+02
1.500000e-07	-5.294189e-06	-1.235129e-08	-3.673539e+01	-8.046433e+02
1.600000e-07	-5.264270e-06	-1.221895e-08	-3.652779e+01	-8.031239e+02
1.700000e-07	-5.232795e-06	-1.217037e-08	-3.630939e+01	-8.016576e+02
1.800000e-07	-5.199344e-06	-1.229643e-08	-3.607728e+01	-8.001812e+02
1.900000e-07	-5.163855e-06	-1.215695e-08	-3.583102e+01	-7.985935e+02
2.000000e-07	-5.126836e-06	-1.215431e-08	-3.557416e+01	-7.967954e+02
2.100000e-07	-5.088088e-06	-1.216391e-08	-3.530529e+01	-7.947278e+02
2.200000e-07	-5.047492e-06	-1.201809e-08	-3.502360e+01	-7.923926e+02
2.300000e-07	-5.004973e-06	-1.204948e-08	-3.472857e+01	-7.898493e+02
2.400000e-07	-4.960448e-06	-1.205177e-08	-3.441962e+01	-7.871885e+02
2.500000e-07	-4.914209e-06	-1.198327e-08	-3.409878e+01	-7.844946e+02
2.600000e-07	-4.866130e-06	-1.195350e-08	-3.376517e+01	-7.818136e+02
2.700000e-07	-4.816006e-06	-1.185519e-08	-3.341736e+01	-7.791386e+02
2.800000e-07	-4.763794e-06	-1.184019e-08	-3.305508e+01	-7.764175e+02
2.900000e-07	-4.709660e-06	-1.181760e-08	-3.267945e+01	-7.735792e+02
3.000000e-07	-4.653891e-06	-1.175419e-08	-3.229248e+01	-7.705655e+02
3.100000e-07	-4.596431e-06	-1.170509e-08	-3.189378e+01	-7.673541e+02
3.200000e-07	-4.537129e-06	-1.166838e-08	-3.148229e+01	-7.639641e+02
3.300000e-07	-4.476179e-06	-1.164960e-08	-3.105936e+01	-7.604430e+02
3.400000e-07	-4.413750e-06	-1.155026e-08	-3.062618e+01	-7.568407e+02
3.500000e-07	-4.349888e-06	-1.148000e-08	-3.018306e+01	-7.531850e+02
3.600000e-07	-4.284520e-06	-1.142383e-08	-2.972948e+01	-7.494675e+02
3.700000e-07	-4.217395e-06	-1.137020e-08	-2.926372e+01	-7.456488e+02
3.800000e-07	-4.148596e-06	-1.135003e-08	-2.878633e+01	-7.416766e+02
3.900000e-07	-4.078359e-06	-1.126824e-08	-2.829897e+01	-7.375113e+02
4.000000e-07	-4.006820e-06	-1.118988e-08	-2.780258e+01	-7.331436e+02
4.100000e-07	-3.934055e-06	-1.112683e-08	-2.729767e+01	-7.285981e+02
4.200000e-07	-3.859763e-06	-1.105626e-08	-2.678217e+01	-7.239203e+02
4.300000e-07	-3.783712e-06	-1.097833e-08	-2.625447e+01	-7.191527e+02
4.400000e-07	-3.706082e-06	-1.088759e-08	-2.571581e+01	-7.143122e+02
4.500000e-07	-3.626998e-06	-1.082662e-08	-2.516706e+01	-7.093794e+02
4.600000e-07	-3.546366e-06	-1.076085e-08	-2.460757e+01	-7.043046e+02
4.700000e-07	-3.464308e-06	-1.068280e-08	-2.403819e+01	-6.990290e+02
4.800000e-07	-3.381120e-06	-1.058714e-08	-2.346096e+01	-6.935111e+02
4.900000e-07	-3.296932e-06	-1.048849e-08	-2.287679e+01	-6.877456e+02
5.000000e-07	-3.211763e-06	-1.041278e-08	-2.228582e+01	-6.817664e+02
5.100000e-07	-3.125589e-06	-1.032372e-08	-2.168787e+01	-6.756313e+02
5.200000e-07	-3.038423e-06	-1.022410e-08	-2.108305e+01	-6.693948e+02
5.300000e-07	-2.950309e-06	-1.011730e-08	-2.047164e+01	-6.630811e+02
5.400000e-07	-2.861190e-06	-1.001938e-08	-1.985326e+01	-6.566703e+02
5.500000e-07	-2.770990e-06	-9.926255e-09	-1.922738e+01	-6.501039e+02
5.600000e-07	-2.679616e-06	-9.818930e-09	-1.859335e+01	-6.433086e+02
5.700000e-07	-2.587164e-06	-9.705731e-09	-1.795185e+01	-6.362271e+02
5.800000e-07	-2.493850e-06	-9.590865e-09	-1.730436e+01	-6.288423e+02
5.900000e-07	-2.399765e-06	-9.483812e-09	-1.665152e+01	-6.211831e+02
6.000000e-07	-2.304956e-06	-9.366154e-09	-1.599366e+01	-6.133088e+02
6.100000e-07	-2.209405e-06	-9.234886e-09	-1.533065e+01	-6.052771e+02
6.200000e-07	-2.113095e-06	-9.103437e-09	-1.466237e+01	-5.971119e+02
6.300000e-07	-2.015952e-06	-8.979067e-09	-1.398831e+01	-5.887839e+02
6.400000e-07	-1.917881e-06	-8.855313e-09	-1.330781e+01	-5.802154e+02
6.500000e-07	-1.818961e-06	-8.712671e-09	-1.262143e+01	-5.713081e+02
6.600000e-07	-1.719335e-06	-8.561905e-09	-1.193014e+01	-5.619822e+02
6.700000e-07	-1.619098e-06	-8.415448e-09	-1.123462e+01	-5.522096e+02
6.800000e-07	-1.518357e-06	-8.269964e-09	-1.053560e+01	-5.420253e+02
6.900000e-07	-1.417111e-06	-8.110620e-09	-9.833071e+00	-5.315097e+02
7.000000e-07	-1.315351e-06	-7.938897e-09	-9.126973e+00	-5.207483e+02
7.100000e-07	-1.213142e-06	-7.766711e-09	-8.417768e+00	-5.097853e+02
7.200000e-07	-1.110501e-06	-7.597057e-09	-7.705561e+00	-4.985919e+02
7.300000e-07	-1.007468e-06	-7.422696e-09	-6.990632e+00	-4.870653e+02
7.400000e-07	-9.040873e-07	-7.233757e-09	-6.273292e+00	-4.750605e+02
7.500000e-07	-8.003852e-07	-7.035789e-09	-5.553723e+00	-4.624429e+02
7.600000e-07	-6.964378e-07	-6.833491e-09	-4.832451e+00	-4.491399e+02
7.700000e-07	-5.922953e-07	-6.626371e-09	-4.109826e+00	-4.351658e+02
7.800000e-07	-4.879956e-07	-6.407511e-09	-3.386110e+00	-4.206079e+02
7.900000e-07	-3.835936e-07	-6.177287e-09	-2.661684e+00	-4.055748e+02
8.000000e-07	-2.790746e-07	-5.941375e-09	-1.936446e+00	-3.901294e+02
8.100000e-07	-1.744460e-07	-5.699752e-09	-1.210448e+00	-3.742333e+02
8.200000e-07	-6.976295e-08	-5.446717e-09	-4.840720e-01	-3.577320e+02
8.300000e-07	3.490158e-08	-5.176473e-09	2.421755e-01	-3.403895e+02
8.400000e-07	1.395457e-07	-4.891647e-09	9.682812e-01	-3.219623e+02
8.500000e-07	2.441745e-07	-4.594447e-09	1.694281e+00	-3.022796e+02
8.600000e-07	3.486963e-07	-4.280001e-09	2.419539e+00	-2.812915e+02
8.700000e-07	4.530985e-07	-3.942587e-09	3.143966e+00	-2.590531e+02
8.800000e-07	5.574000e-07	-3.585033e-09	3.867694e+00	-2.356368e+02
8.900000e-07	6.615641e-07	-3.207823e-09	4.590469e+00	-2.109983e+02
9.000000e-07	7.655459e-07	-2.804420e-09	5.311979e+00	-1.848458e+02
9.100000e-07	8.692909e-07	-2.360779e-09	6.031846e+00	-1.565714e+02
9.200000e-07	9.727243e-07	-1.870223e-09	6.749552e+00	-1.252949e+02
9.300000e-07	1.075778e-06	-1.330830e-09	7.464625e+00	-9.002995e+01
9.400000e-07	1.178430e-06	-7.285924e-10	8.176908e+00	-4.994586e+01
9.500000e-07	1.280749e-06	-4.512806e-11	8.886878e+00	-4.655357e+00
9.600000e-07	1.382651e-06	7.251637e-10	9.593958e+00	4.555791e+01
9.700000e-07	1.484024e-06	1.562062e-09	1.029736e+01	9.964976e+01
9.800000e-07	1.584877e-06	2.431459e-09	1.099717e+01	1.559052e+02
9.900000e-07	1.685230e-06	3.296119e-09	1.169350e+01	2.121969e+02
1.000000e-06	1.785094e-06	4.120177e-09	1.238643e+01	2.663499e+02
1.010000e-06	1.884355e-06	4.871511e-09	1.307519e+01	3.165193e+02
1.020000e-06	1.982793e-06	5.533678e-09	1.375823e+01	3.614807e+02
1.030000e-06	2.080156e-06	6.113607e-09	1.443382e+01	4.007637e+02
1.040000e-06	2.176624e-06	6.624680e-09	1.510318e+01	4.346043e+02
1.050000e-06	2.272512e-06	7.075935e-09	1.576853e+01	4.637471e+02
1.060000e-06	2.367714e-06	7.469124e-09	1.642912e+01	4.891678e+02
1.070000e-06	2.462122e-06	7.815139e-09	1.708420e+01	5.118039e+02
1.080000e-06	2.555741e-06	8.125983e-09	1.773381e+01	5.323658e+02
1.090000e-06	2.648482e-06	8.407789e-09	1.837732e+01	5.512672e+02
1.100000e-06	2.740378e-06	8.662855e-09	1.901497e+01	5.686701e+02
1.110000e-06	2.831283e-06	8.894329e-09	1.964574e+01	5.846004e+02
1.120000e-06	2.920856e-06	9.109379e-09	2.026727e+01	5.990786e+02
1.130000e-06	3.009326e-06	9.314064e-09	2.088115e+01	6.122089e+02
1.140000e-06	3.096863e-06	9.507538e-09	2.148855e+01	6.242020e+02
1.150000e-06	3.183346e-06	9.683207e-09	2.208864e+01	6.353314e+02
1.160000e-06	3.268785e-06	9.842066e-09	2.268149e+01	6.458552e+02
1.170000e-06	3.353219e-06	9.989345e-09	2.326736e+01	6.559416e+02
1.180000e-06	3.436530e-06	1.013151e-08	2.384544e+01	6.656342e+02
1.190000e-06	3.518487e-06	1.027043e-08	2.441412e+01	6.748686e+02
1.200000e-06	3.599120e-06	1.040088e-08	2.497362e+01	6.835325e+02
1.210000e-06	3.678461e-06	1.052017e-08	2.552415e+01	6.915392e+02
1.220000e-06	3.756537e-06	1.063616e-08	2.606591e+01	6.988845e+02
1.230000e-06	3.833336e-06	1.074909e-08	2.659880e+01	7.056624e+02
1.240000e-06	3.908614e-06	1.085116e-08	2.712114e+01	7.120356e+02
1.250000e-06	3.982198e-06	1.094121e-08	2.763173e+01	7.181766e+02
1.260000e-06	4.054288e-06	1.102708e-08	2.813195e+01	7.242059e+02
1.270000e-06	4.125037e-06	1.111465e-08	2.862286e+01	7.301537e+02
1.280000e-06	4.194359e-06	1.120189e-08	2.910387e+01	7.359617e+02
1.290000e-06	4.262319e-06	1.128514e-08	2.957543e+01	7.415213e+02
1.300000e-06	4.328685e-06	1.136415e-08	3.003593e+01	7.467312e+02
1.310000e-06	4.393347e-06	1.144142e-08	3.048461e+01	7.515473e+02
1.320000e-06	4.456533e-06	1.151470e-08	3.092305e+01	7.560060e+02
1.330000e-06	4.518312e-06	1.157941e-08	3.135172e+01	7.602091e+02
1.340000e-06	4.578703e-06	1.163669e-08	3.177076e+01	7.642805e+02
1.350000e-06	4.637385e-06	1.169421e-08	3.217795e+01	7.683132e+02
1.360000e-06	4.694196e-06	1.175564e-08	3.257215e+01	7.723307e+02
1.370000e-06	4.749329e-06	1.181550e-08	3.295470e+01	7.762794e+02
1.380000e-06	4.802765e-06	1.186928e-08	3.332549e+01	7.800544e+02
1.390000e-06	4.854216e-06	1.192051e-08	3.368250e+01	7.835475e+02
1.400000e-06	4.903565e-06	1.197370e-08	3.402492e+01	7.866957e+02
1.410000e-06	4.951126e-06	1.202391e-08	3.435494e+01	7.895095e+02
1.420000e-06	4.997098e-06	1.206373e-08	3.467393e+01	7.920697e+02
1.430000e-06	5.041436e-06	1.209688e-08	3.498158e+01	7.944931e+02
1.440000e-06	5.083843e-06	1.213240e-08	3.527584e+01	7.968844e+02
1.450000e-06	5.124317e-06	1.217177e-08	3.555668e+01	7.992932e+02
1.460000e-06	5.163125e-06	1.220847e-08	3.582596e+01	8.016964e+02
1.470000e-06	5.200272e-06	1.224132e-08	3.608371e+01	8.040110e+02
1.480000e-06	5.235568e-06	1.227509e-08	3.632862e+01	8.061336e+02
1.490000e-06	5.268861e-06	1.230859e-08	3.655964e+01	8.079864e+02
1.500000e-06	5.300326e-06	1.233443e-08	3.677797e+01	8.095526e+02
1.510000e-06	5.330123e-06	1.235173e-08	3.698472e+01	8.108834e+02
1.520000e-06	5.358140e-06	1.236919e-08	3.717913e+01	8.120762e+02
1.530000e-06	5.384070e-06	1.239053e-08	3.735905e+01	8.132323e+02
1.540000e-06	5.407960e-06	1.241152e-08	3.752482e+01	8.144136e+02
1.550000e-06	5.430069e-06	1.242828e-08	3.767823e+01	8.156167e+02
1.560000e-06	5.450397e-06	1.244438e-08	3.781928e+01	8.167757e+02
1.570000e-06	5.468741e-06	1.246145e-08	3.794657e+01	8.177924e+02
1.580000e-06	5.485038e-06	1.247329e-08	3.805965e+01	8.185805e+02
1.590000e-06	5.499407e-06	1.247976e-08	3.815935e+01	8.191044e+02
1.600000e-06	5.511728e-06	1.248455e-08	3.824485e+01	8.193967e+02
1.610000e-06	5.521752e-06	1.248908e-08	3.831440e+01	8.195455e+02
1.620000e-06	5.529694e-06	1.249439e-08	3.836951e+01	8.196582e+02
1.630000e-06	5.535881e-06	1.250083e-08	3.841244e+01	8.198168e+02
1.640000e-06	5.540223e-06	1.250689e-08	3.844257e+01	8.200429e+02
1.650000e-06	5.542476e-06	1.251154e-08	3.845820e+01	8.202896e+02
1.660000e-06	5.542735e-06	1.251435e-08	3.846000e+01	8.204612e+02
1.670000e-06	5.541269e-06	1.250681e-08	3.844983e+01	8.204538e+02
1.680000e-06	5.538086e-06	1.249752e-08	3.842774e+01	8.201990e+02
1.690000e-06	5.532991e-06	1.249118e-08	3.839239e+01	8.196927e+02
1.700000e-06	5.525963e-06	1.248391e-08	3.834362e+01	8.189961e+02
1.710000e-06	5.517261e-06	1.247671e-08	3.828324e+01	8.182099e+02
1.720000e-06	5.506903e-06	1.247061e-08	3.821137e+01	8.174318e+02
1.730000e-06	5.494575e-06	1.248240e-08	3.812582e+01	8.167157e+02
1.740000e-06	5.480148e-06	1.245850e-08	3.802572e+01	8.160506e+02
1.750000e-06	5.463695e-06	1.235799e-08	3.791156e+01	8.153667e+02
1.760000e-06	5.444716e-06	1.234644e-08	3.777986e+01	8.145661e+02
1.770000e-06	5.422902e-06	1.235259e-08	3.762850e+01	8.135657e+02
1.780000e-06	5.399024e-06	1.239808e-08	3.746282e+01	8.123325e+02
1.790000e-06	5.374159e-06	1.246275e-08	3.729028e+01	8.108974e+02
1.800000e-06	5.348517e-06	1.226525e-08	3.711236e+01	8.093420e+02
1.810000e-06	5.320949e-06	1.229607e-08	3.692107e+01	8.077628e+02
1.820000e-06	5.291011e-06	1.239308e-08	3.671333e+01	8.062299e+02
1.830000e-06	5.259504e-06	1.218973e-08	3.649471e+01	8.047560e+02
1.840000e-06	5.226219e-06	1.228427e-08	3.626375e+01	8.032899e+02
1.850000e-06	5.191094e-06	1.229011e-08	3.602003e+01	8.017355e+02
1.860000e-06	5.154269e-06	1.209687e-08	3.576450e+01	7.999897e+02
1.870000e-06	5.115293e-06	1.224516e-08	3.549406e+01	7.979823e+02
1.880000e-06	5.074599e-06	1.218176e-08	3.521169e+01	7.957015e+02
1.890000e-06	5.032371e-06	1.205580e-08	3.491868e+01	7.931960e+02
1.900000e-06	4.988138e-06	1.208518e-08	3.461176e+01	7.905529e+02
1.910000e-06	4.942106e-06	1.194215e-08	3.429234e+01	7.878609e+02
1.920000e-06	4.894222e-06	1.202474e-08	3.396009e+01	7.851763e+02
1.930000e-06	4.844506e-06	1.198676e-08	3.361512e+01	7.825035e+02
1.940000e-06	4.793074e-06	1.184073e-08	3.325825e+01	7.797984e+02
1.950000e-06	4.739536e-06	1.189214e-08	3.288675e+01	7.769915e+02
1.960000e-06	4.684219e-06	1.179620e-08	3.250292e+01	7.740191e+02
1.970000e-06	4.627309e-06	1.177070e-08	3.210803e+01	7.708501e+02
1.980000e-06	4.568783e-06	1.167771e-08	3.170193e+01	7.674953e+02
1.990000e-06	4.508701e-06	1.162052e-08	3.128503e+01	7.639981e+02
2.000000e-06	4.446797e-06	1.165418e-08	3.085549e+01	7.604103e+02
2.010000e-06	4.383250e-06	1.153284e-08	3.041455e+01	7.567658e+02
2.020000e-06	4.318164e-06	1.152924e-08	2.996293e+01	7.530644e+02
2.030000e-06	4.251642e-06	1.141357e-08	2.950135e+01	7.492720e+02
2.040000e-06	4.183617e-06	1.134488e-08	2.902933e+01	7.453373e+02
2.050000e-06	4.113768e-06	1.133242e-08	2.854466e+01	7.412157e+02
2.060000e-06	4.042423e-06	1.120948e-08	2.804962e+01	7.368907e+02
2.070000e-06	3.969777e-06	1.119093e-08	2.754554e+01	7.323803e+02
2.080000e-06	3.895748e-06	1.109227e-08	2.703187e+01	7.277271e+02
2.090000e-06	3.820092e-06	1.105783e-08	2.650690e+01	7.229765e+02
2.100000e-06	3.742689e-06	1.098151e-08	2.596982e+01	7.181524e+02
2.110000e-06	3.663827e-06	1.086837e-08	2.542261e+01	7.132431e+02
2.120000e-06	3.583698e-06	1.081132e-08	2.486661e+01	7.082042e+02
2.130000e-06	3.502423e-06	1.070521e-08	2.430265e+01	7.029765e+02
2.140000e-06	3.420043e-06	1.066117e-08	2.373104e+01	6.975128e+02
2.150000e-06	3.336547e-06	1.054910e-08	2.315167e+01	6.917990e+02
2.160000e-06	3.251770e-06	1.046189e-08	2.256342e+01	6.858616e+02
2.170000e-06	3.165665e-06	1.037485e-08	2.196595e+01	6.797551e+02
2.180000e-06	3.078419e-06	1.027734e-08	2.136057e+01	6.735373e+02
2.190000e-06	2.990162e-06	1.019857e-08	2.074817e+01	6.672406e+02
2.200000e-06	2.900902e-06	1.007871e-08	2.012882e+01	6.608548e+02
2.210000e-06	2.810694e-06	9.992095e-09	1.950288e+01	6.543283e+02
2.220000e-06	2.719552e-06	9.886159e-09	1.887046e+01	6.475883e+02
2.230000e-06	2.627348e-06	9.784678e-09	1.823068e+01	6.405716e+02
2.240000e-06	2.534128e-06	9.660937e-09	1.758384e+01	6.332511e+02
2.250000e-06	2.439957e-06	9.536592e-09	1.693041e+01	6.256468e+02
2.260000e-06	2.344896e-06	9.436772e-09	1.627079e+01	6.178134e+02
2.270000e-06	2.249073e-06	9.324700e-09	1.560590e+01	6.098122e+02
2.280000e-06	2.152492e-06	9.205927e-09	1.493574e+01	6.016766e+02
2.290000e-06	2.055186e-06	9.067980e-09	1.426055e+01	5.933890e+02
2.300000e-06	1.957235e-06	8.936283e-09	1.358089e+01	5.848806e+02
2.310000e-06	1.858733e-06	8.801515e-09	1.289740e+01	5.760542e+02
2.320000e-06	1.759681e-06	8.656376e-09	1.221010e+01	5.668228e+02
2.330000e-06	1.660039e-06	8.504423e-09	1.151870e+01	5.571455e+02
2.340000e-06	1.559711e-06	8.357054e-09	1.082254e+01	5.470441e+02
2.350000e-06	1.458659e-06	8.212648e-09	1.012136e+01	5.365921e+02
2.360000e-06	1.357023e-06	8.052384e-09	9.416125e+00	5.258779e+02
2.370000e-06	1.254878e-06	7.877024e-09	8.707364e+00	5.149582e+02
2.380000e-06	1.152287e-06	7.699771e-09	7.995501e+00	5.038209e+02
2.390000e-06	1.049273e-06	7.529448e-09	7.280706e+00	4.923776e+02
2.400000e-06	9.458277e-07	7.353556e-09	6.562921e+00	4.804882e+02
2.410000e-06	8.419972e-07	7.162444e-09	5.842461e+00	4.680111e+02
2.420000e-06	7.379053e-07	6.960129e-09	5.120187e+00	4.548572e+02
2.430000e-06	6.336229e-07	6.753013e-09	4.396591e+00	4.410219e+02
2.440000e-06	5.291395e-07	6.537873e-09	3.671600e+00	4.265800e+02
2.450000e-06	4.244653e-07	6.311860e-09	2.945285e+00	4.116413e+02
2.460000e-06	3.196559e-07	6.072754e-09	2.218033e+00	3.962838e+02
2.470000e-06	2.147400e-07	5.827369e-09	1.490041e+00	3.804939e+02
2.480000e-06	1.097786e-07	5.577591e-09	7.617330e-01	3.641407e+02
2.490000e-06	4.850274e-09	5.314428e-09	3.365514e-02	3.470004e+02
2.500000e-06	-1.000913e-07	5.032651e-09	-6.945149e-01	3.288239e+02
2.510000e-06	-2.050355e-07	4.734411e-09	-1.422703e+00	3.094191e+02
2.520000e-06	-3.098939e-07	4.425833e-09	-2.150296e+00	2.887092e+02
2.530000e-06	-4.146235e-07	4.101405e-09	-2.876995e+00	2.667318e+02
2.540000e-06	-5.192290e-07	3.751679e-09	-3.602832e+00	2.435658e+02
2.550000e-06	-6.236790e-07	3.376048e-09	-4.327592e+00	2.192041e+02
2.560000e-06	-7.279403e-07	2.979088e-09	-5.051041e+00	1.934166e+02
2.570000e-06	-8.319397e-07	2.552030e-09	-5.772674e+00	1.656638e+02
2.580000e-06	-9.355907e-07	2.081660e-09	-6.491889e+00	1.351139e+02
2.590000e-06	-1.038845e-06	1.560269e-09	-7.208352e+00	1.007837e+02
2.600000e-06	-1.141667e-06	9.786650e-10	-7.921810e+00	6.178451e+01
2.610000e-06	-1.244069e-06	3.242602e-10	-8.632361e+00	1.761151e+01
2.620000e-06	-1.346074e-06	-4.116474e-10	-9.340152e+00	-3.160861e+01
2.630000e-06	-1.447600e-06	-1.225568e-09	-1.004463e+01	-8.499340e+01
2.640000e-06	-1.548414e-06	-2.091554e-09	-1.074415e+01	-1.409550e+02
2.650000e-06	-1.648471e-06	-2.968653e-09	-1.143843e+01	-1.974260e+02
2.660000e-06	-1.747819e-06	-3.815426e-09	-1.212779e+01	-2.522088e+02
2.670000e-06	-1.846585e-06	-4.597741e-09	-1.281311e+01	-3.033588e+02
2.680000e-06	-1.944840e-06	-5.299241e-09	-1.349488e+01	-3.495016e+02
2.690000e-06	-2.042450e-06	-5.914778e-09	-1.417218e+01	-3.900031e+02
2.700000e-06	-2.139393e-06	-6.448553e-09	-1.484485e+01	-4.249603e+02
2.710000e-06	-2.235664e-06	-6.914306e-09	-1.551285e+01	-4.550307e+02
2.720000e-06	-2.331181e-06	-7.327773e-09	-1.617563e+01	-4.811648e+02
2.730000e-06	-2.425950e-06	-7.694920e-09	-1.683321e+01	-5.043278e+02
2.740000e-06	-2.519968e-06	-8.018878e-09	-1.748559e+01	-5.252888e+02
2.750000e-06	-2.613012e-06	-8.310551e-09	-1.813120e+01	-5.445249e+02
2.760000e-06	-2.704855e-06	-8.580959e-09	-1.876848e+01	-5.622438e+02
2.770000e-06	-2.795650e-06	-8.830440e-09	-1.939849e+01	-5.784892e+02
2.780000e-06	-2.885475e-06	-9.052893e-09	-2.002177e+01	-5.932730e+02
2.790000e-06	-2.974271e-06	-9.253243e-09	-2.063791e+01	-6.066774e+02
2.800000e-06	-3.062046e-06	-9.442000e-09	-2.124696e+01	-6.188919e+02
2.810000e-06	-3.148818e-06	-9.621215e-09	-2.184906e+01	-6.301824e+02
2.820000e-06	-3.234538e-06	-9.787377e-09	-2.244385e+01	-6.408175e+02
2.830000e-06	-3.318936e-06	-9.942581e-09	-2.302948e+01	-6.509892e+02
2.840000e-06	-3.402065e-06	-1.009363e-08	-2.360629e+01	-6.607683e+02
2.850000e-06	-3.484085e-06	-1.023849e-08	-2.417541e+01	-6.701095e+02
2.860000e-06	-3.564962e-06	-1.037069e-08	-2.473660e+01	-6.789045e+02
2.870000e-06	-3.644622e-06	-1.048854e-08	-2.528935e+01	-6.870553e+02
2.880000e-06	-3.722986e-06	-1.059886e-08	-2.583310e+01	-6.945373e+02
2.890000e-06	-3.799782e-06	-1.070618e-08	-2.636598e+01	-7.014243e+02
2.900000e-06	-3.874959e-06	-1.080716e-08	-2.688762e+01	-7.078686e+02
2.910000e-06	-3.948715e-06	-1.090097e-08	-2.739939e+01	-7.140463e+02
2.920000e-06	-4.021118e-06	-1.099573e-08	-2.790178e+01	-7.200933e+02
2.930000e-06	-4.092243e-06	-1.109373e-08	-2.839531e+01	-7.260604e+02
2.940000e-06	-4.161881e-06	-1.118639e-08	-2.887851e+01	-7.319062e+02
