# Temperatura_=_59.51
# Concentracion g/m^3_=_13400.0
# C_Vs_to_Am_M_A/Vsm_=_65563218390.804596
# pendiente_HvsI_1/m_=_3716.3
# ordenada_HvsI_A/m_=_1297.0
# frecuencia_Hz_=_300796.6029535871

Tiempo_(s)	Campo_(V.s)	Magnetizacion_(V.s)	Campo_(kA/m)	Magnetizacion_(A/m)
0.000000e+00	-5.504207e-06	-1.267212e-08	-3.831027e+01	-8.310175e+02
1.000000e-08	-5.502438e-06	-1.267697e-08	-3.829796e+01	-8.308122e+02
2.000000e-08	-5.498627e-06	-1.267486e-08	-3.827144e+01	-8.303618e+02
3.000000e-08	-5.493040e-06	-1.266469e-08	-3.823255e+01	-8.297184e+02
4.000000e-08	-5.485828e-06	-1.265053e-08	-3.818236e+01	-8.289757e+02
5.000000e-08	-5.477040e-06	-1.263591e-08	-3.812119e+01	-8.282275e+02
6.000000e-08	-5.466353e-06	-1.262111e-08	-3.804680e+01	-8.275270e+02
7.000000e-08	-5.453533e-06	-1.259084e-08	-3.795758e+01	-8.268630e+02
8.000000e-08	-5.438704e-06	-1.256658e-08	-3.785436e+01	-8.261649e+02
9.000000e-08	-5.421527e-06	-1.264111e-08	-3.773481e+01	-8.253343e+02
1.000000e-07	-5.401963e-06	-1.266661e-08	-3.759864e+01	-8.242890e+02
1.100000e-07	-5.380379e-06	-1.260561e-08	-3.744841e+01	-8.230016e+02
1.200000e-07	-5.356989e-06	-1.258483e-08	-3.728561e+01	-8.215140e+02
1.300000e-07	-5.332156e-06	-1.243178e-08	-3.711277e+01	-8.199223e+02
1.400000e-07	-5.305883e-06	-1.239796e-08	-3.692990e+01	-8.183367e+02
1.500000e-07	-5.277722e-06	-1.257339e-08	-3.673390e+01	-8.168344e+02
1.600000e-07	-5.247803e-06	-1.237001e-08	-3.652565e+01	-8.154236e+02
1.700000e-07	-5.216369e-06	-1.236145e-08	-3.630687e+01	-8.140362e+02
1.800000e-07	-5.182935e-06	-1.253922e-08	-3.607416e+01	-8.125505e+02
1.900000e-07	-5.147425e-06	-1.233410e-08	-3.582701e+01	-8.108372e+02
2.000000e-07	-5.110386e-06	-1.236385e-08	-3.556921e+01	-8.088076e+02
2.100000e-07	-5.071652e-06	-1.235728e-08	-3.529962e+01	-8.064470e+02
2.200000e-07	-5.031113e-06	-1.215374e-08	-3.501746e+01	-8.038170e+02
2.300000e-07	-4.988707e-06	-1.221539e-08	-3.472231e+01	-8.010290e+02
2.400000e-07	-4.944272e-06	-1.221692e-08	-3.441303e+01	-7.981982e+02
2.500000e-07	-4.898072e-06	-1.215824e-08	-3.409147e+01	-7.953990e+02
2.600000e-07	-4.850085e-06	-1.214367e-08	-3.375747e+01	-7.926385e+02
2.700000e-07	-4.800081e-06	-1.202565e-08	-3.340943e+01	-7.898600e+02
2.800000e-07	-4.747998e-06	-1.201317e-08	-3.304692e+01	-7.869720e+02
2.900000e-07	-4.693976e-06	-1.196779e-08	-3.267092e+01	-7.838904e+02
3.000000e-07	-4.638290e-06	-1.188695e-08	-3.228334e+01	-7.805753e+02
3.100000e-07	-4.580944e-06	-1.183360e-08	-3.188420e+01	-7.770459e+02
3.200000e-07	-4.521798e-06	-1.180461e-08	-3.147253e+01	-7.733680e+02
3.300000e-07	-4.461001e-06	-1.180614e-08	-3.104937e+01	-7.696215e+02
3.400000e-07	-4.398724e-06	-1.169610e-08	-3.061592e+01	-7.658616e+02
3.500000e-07	-4.334999e-06	-1.162386e-08	-3.017237e+01	-7.620917e+02
3.600000e-07	-4.269769e-06	-1.155429e-08	-2.971837e+01	-7.582608e+02
3.700000e-07	-4.202836e-06	-1.148817e-08	-2.925250e+01	-7.542854e+02
3.800000e-07	-4.134233e-06	-1.147017e-08	-2.877501e+01	-7.500873e+02
3.900000e-07	-4.064153e-06	-1.137634e-08	-2.828724e+01	-7.456281e+02
4.000000e-07	-3.992779e-06	-1.129963e-08	-2.779046e+01	-7.409266e+02
4.100000e-07	-3.920139e-06	-1.123627e-08	-2.728487e+01	-7.360506e+02
4.200000e-07	-3.845999e-06	-1.116669e-08	-2.676885e+01	-7.310851e+02
4.300000e-07	-3.770156e-06	-1.108166e-08	-2.624097e+01	-7.260930e+02
4.400000e-07	-3.692711e-06	-1.098132e-08	-2.570194e+01	-7.210841e+02
4.500000e-07	-3.613823e-06	-1.092205e-08	-2.515286e+01	-7.160073e+02
4.600000e-07	-3.533447e-06	-1.085114e-08	-2.459343e+01	-7.107706e+02
4.700000e-07	-3.451695e-06	-1.077118e-08	-2.402442e+01	-7.052793e+02
4.800000e-07	-3.368750e-06	-1.067093e-08	-2.344711e+01	-6.994763e+02
4.900000e-07	-3.284699e-06	-1.056158e-08	-2.286210e+01	-6.933678e+02
5.000000e-07	-3.199628e-06	-1.048065e-08	-2.226999e+01	-6.870205e+02
5.100000e-07	-3.113594e-06	-1.038979e-08	-2.167117e+01	-6.805328e+02
5.200000e-07	-3.026584e-06	-1.028919e-08	-2.106558e+01	-6.739917e+02
5.300000e-07	-2.938654e-06	-1.018129e-08	-2.045357e+01	-6.674335e+02
5.400000e-07	-2.849815e-06	-1.007920e-08	-1.983523e+01	-6.608268e+02
5.500000e-07	-2.759930e-06	-9.979907e-09	-1.920961e+01	-6.540837e+02
5.600000e-07	-2.668885e-06	-9.864355e-09	-1.857592e+01	-6.470971e+02
5.700000e-07	-2.576716e-06	-9.743754e-09	-1.793441e+01	-6.397847e+02
5.800000e-07	-2.483635e-06	-9.625288e-09	-1.728655e+01	-6.321232e+02
5.900000e-07	-2.389788e-06	-9.518861e-09	-1.663335e+01	-6.241549e+02
6.000000e-07	-2.295122e-06	-9.401821e-09	-1.597447e+01	-6.159645e+02
6.100000e-07	-2.199693e-06	-9.269547e-09	-1.531026e+01	-6.076362e+02
6.200000e-07	-2.103563e-06	-9.132596e-09	-1.464118e+01	-5.992098e+02
6.300000e-07	-2.006675e-06	-8.997400e-09	-1.396682e+01	-5.906554e+02
6.400000e-07	-1.908923e-06	-8.866277e-09	-1.328645e+01	-5.818806e+02
6.500000e-07	-1.810327e-06	-8.723616e-09	-1.260021e+01	-5.727653e+02
6.600000e-07	-1.710994e-06	-8.572708e-09	-1.190883e+01	-5.632113e+02
6.700000e-07	-1.611001e-06	-8.419805e-09	-1.121286e+01	-5.531836e+02
6.800000e-07	-1.510468e-06	-8.267135e-09	-1.051313e+01	-5.427233e+02
6.900000e-07	-1.409444e-06	-8.103069e-09	-9.809985e+00	-5.319260e+02
7.000000e-07	-1.307962e-06	-7.930438e-09	-9.103654e+00	-5.208930e+02
7.100000e-07	-1.206030e-06	-7.758195e-09	-8.394188e+00	-5.096774e+02
7.200000e-07	-1.103668e-06	-7.584614e-09	-7.681729e+00	-4.982479e+02
7.300000e-07	-1.000919e-06	-7.403406e-09	-6.966579e+00	-4.864899e+02
7.400000e-07	-8.978411e-07	-7.206931e-09	-6.249136e+00	-4.742439e+02
7.500000e-07	-7.944740e-07	-7.004777e-09	-5.529683e+00	-4.613671e+02
7.600000e-07	-6.908135e-07	-6.800253e-09	-4.808187e+00	-4.477897e+02
7.700000e-07	-5.869555e-07	-6.590159e-09	-4.085317e+00	-4.335398e+02
7.800000e-07	-4.829684e-07	-6.368597e-09	-3.361547e+00	-4.187227e+02
7.900000e-07	-3.788649e-07	-6.137685e-09	-2.636968e+00	-4.034607e+02
8.000000e-07	-2.746348e-07	-5.900162e-09	-1.911508e+00	-3.878166e+02
8.100000e-07	-1.702670e-07	-5.651565e-09	-1.185089e+00	-3.717365e+02
8.200000e-07	-6.578103e-08	-5.391156e-09	-4.578479e-01	-3.550394e+02
8.300000e-07	3.872211e-08	-5.117295e-09	2.695129e-01	-3.374621e+02
8.400000e-07	1.431348e-07	-4.829365e-09	9.962438e-01	-3.187448e+02
8.500000e-07	2.474911e-07	-4.526758e-09	1.722583e+00	-2.987183e+02
8.600000e-07	3.517591e-07	-4.208345e-09	2.448307e+00	-2.773501e+02
8.700000e-07	4.558957e-07	-3.868663e-09	3.173116e+00	-2.547168e+02
8.800000e-07	5.599012e-07	-3.505282e-09	3.897013e+00	-2.309014e+02
8.900000e-07	6.637584e-07	-3.116986e-09	4.619879e+00	-2.058439e+02
9.000000e-07	7.674712e-07	-2.702523e-09	5.341739e+00	-1.792056e+02
9.100000e-07	8.709931e-07	-2.251390e-09	6.062269e+00	-1.503103e+02
9.200000e-07	9.742205e-07	-1.752347e-09	6.780751e+00	-1.182086e+02
9.300000e-07	1.077026e-06	-1.198381e-09	7.496295e+00	-8.187359e+01
9.400000e-07	1.179407e-06	-5.750274e-10	8.208885e+00	-4.048741e+01
9.500000e-07	1.281399e-06	1.308132e-10	8.918766e+00	6.258519e+00
9.600000e-07	1.382930e-06	9.218037e-10	9.625446e+00	5.794375e+01
9.700000e-07	1.483998e-06	1.779708e-09	1.032890e+01	1.133560e+02
9.800000e-07	1.584625e-06	2.668740e-09	1.102928e+01	1.706201e+02
9.900000e-07	1.684773e-06	3.543350e-09	1.172633e+01	2.274957e+02
1.000000e-06	1.784277e-06	4.363104e-09	1.241889e+01	2.817704e+02
1.010000e-06	1.883004e-06	5.102859e-09	1.310605e+01	3.316438e+02
1.020000e-06	1.980898e-06	5.755829e-09	1.378741e+01	3.760029e+02
1.030000e-06	2.077880e-06	6.328221e-09	1.446242e+01	4.145235e+02
1.040000e-06	2.174098e-06	6.828415e-09	1.513212e+01	4.475833e+02
1.050000e-06	2.269707e-06	7.267225e-09	1.579757e+01	4.760325e+02
1.060000e-06	2.364598e-06	7.651506e-09	1.645803e+01	5.008986e+02
1.070000e-06	2.458662e-06	7.993573e-09	1.711273e+01	5.231193e+02
1.080000e-06	2.551904e-06	8.299823e-09	1.776172e+01	5.433707e+02
1.090000e-06	2.644389e-06	8.574380e-09	1.840542e+01	5.620223e+02
1.100000e-06	2.735977e-06	8.824210e-09	1.904289e+01	5.792031e+02
1.110000e-06	2.826362e-06	9.054414e-09	1.967199e+01	5.949298e+02
1.120000e-06	2.915561e-06	9.270175e-09	2.029284e+01	6.092347e+02
1.130000e-06	3.003812e-06	9.474000e-09	2.090707e+01	6.222445e+02
1.140000e-06	3.091117e-06	9.665261e-09	2.151473e+01	6.341874e+02
1.150000e-06	3.177323e-06	9.840331e-09	2.211474e+01	6.453384e+02
1.160000e-06	3.262509e-06	1.000117e-08	2.270765e+01	6.559380e+02
1.170000e-06	3.346727e-06	1.015068e-08	2.329383e+01	6.661247e+02
1.180000e-06	3.429694e-06	1.029337e-08	2.387129e+01	6.759118e+02
1.190000e-06	3.511295e-06	1.043191e-08	2.443925e+01	6.852165e+02
1.200000e-06	3.591653e-06	1.056566e-08	2.499855e+01	6.939257e+02
1.210000e-06	3.670706e-06	1.069043e-08	2.554877e+01	7.019686e+02
1.220000e-06	3.748446e-06	1.080586e-08	2.608986e+01	7.093635e+02
1.230000e-06	3.824901e-06	1.091443e-08	2.662200e+01	7.162222e+02
1.240000e-06	3.899806e-06	1.101550e-08	2.714336e+01	7.227112e+02
1.250000e-06	3.973090e-06	1.110999e-08	2.765343e+01	7.289910e+02
1.260000e-06	4.044984e-06	1.119931e-08	2.815382e+01	7.351594e+02
1.270000e-06	4.115486e-06	1.128646e-08	2.864453e+01	7.412248e+02
1.280000e-06	4.184631e-06	1.137381e-08	2.912579e+01	7.471180e+02
1.290000e-06	4.252400e-06	1.145997e-08	2.959748e+01	7.527365e+02
1.300000e-06	4.318467e-06	1.154305e-08	3.005731e+01	7.579998e+02
1.310000e-06	4.382857e-06	1.162118e-08	3.050548e+01	7.628911e+02
1.320000e-06	4.445790e-06	1.169296e-08	3.094350e+01	7.674669e+02
1.330000e-06	4.507335e-06	1.175879e-08	3.137186e+01	7.718332e+02
1.340000e-06	4.567473e-06	1.182101e-08	3.179044e+01	7.760984e+02
1.350000e-06	4.625879e-06	1.188174e-08	3.219696e+01	7.803264e+02
1.360000e-06	4.682477e-06	1.194271e-08	3.259089e+01	7.845097e+02
1.370000e-06	4.737447e-06	1.200397e-08	3.297349e+01	7.885748e+02
1.380000e-06	4.790671e-06	1.206343e-08	3.334394e+01	7.924171e+02
1.390000e-06	4.841846e-06	1.211837e-08	3.370012e+01	7.959492e+02
1.400000e-06	4.890975e-06	1.216902e-08	3.404207e+01	7.991409e+02
1.410000e-06	4.938324e-06	1.221479e-08	3.437163e+01	8.020336e+02
1.420000e-06	4.984054e-06	1.225524e-08	3.468992e+01	8.047235e+02
1.430000e-06	5.028171e-06	1.229355e-08	3.499698e+01	8.073202e+02
1.440000e-06	5.070334e-06	1.233224e-08	3.529044e+01	8.099005e+02
1.450000e-06	5.110630e-06	1.237255e-08	3.557091e+01	8.124765e+02
1.460000e-06	5.149282e-06	1.241109e-08	3.583993e+01	8.149924e+02
1.470000e-06	5.186274e-06	1.244623e-08	3.609740e+01	8.173515e+02
1.480000e-06	5.221414e-06	1.247848e-08	3.634198e+01	8.194598e+02
1.490000e-06	5.254517e-06	1.250806e-08	3.657239e+01	8.212694e+02
1.500000e-06	5.285812e-06	1.253375e-08	3.679021e+01	8.228001e+02
1.510000e-06	5.315458e-06	1.255627e-08	3.699655e+01	8.241321e+02
1.520000e-06	5.343317e-06	1.257789e-08	3.719045e+01	8.253723e+02
1.530000e-06	5.369070e-06	1.259801e-08	3.736970e+01	8.266091e+02
1.540000e-06	5.392769e-06	1.261774e-08	3.753465e+01	8.278755e+02
1.550000e-06	5.414701e-06	1.263611e-08	3.768730e+01	8.291367e+02
1.560000e-06	5.434870e-06	1.265212e-08	3.782768e+01	8.303072e+02
1.570000e-06	5.453074e-06	1.266600e-08	3.795438e+01	8.312902e+02
1.580000e-06	5.469237e-06	1.267718e-08	3.806688e+01	8.320206e+02
1.590000e-06	5.483401e-06	1.268741e-08	3.816546e+01	8.324949e+02
1.600000e-06	5.495449e-06	1.269671e-08	3.824932e+01	8.327735e+02
1.610000e-06	5.505281e-06	1.270390e-08	3.831775e+01	8.329548e+02
1.620000e-06	5.513133e-06	1.270880e-08	3.837240e+01	8.331328e+02
1.630000e-06	5.519172e-06	1.271152e-08	3.841444e+01	8.333572e+02
1.640000e-06	5.523384e-06	1.271378e-08	3.844375e+01	8.336120e+02
1.650000e-06	5.525548e-06	1.271686e-08	3.845881e+01	8.338237e+02
1.660000e-06	5.525718e-06	1.272000e-08	3.846000e+01	8.338935e+02
1.670000e-06	5.524216e-06	1.271360e-08	3.844954e+01	8.337414e+02
1.680000e-06	5.521054e-06	1.270740e-08	3.842754e+01	8.333410e+02
1.690000e-06	5.515891e-06	1.270196e-08	3.839160e+01	8.327319e+02
1.700000e-06	5.508780e-06	1.269363e-08	3.834210e+01	8.320018e+02
1.710000e-06	5.500056e-06	1.268474e-08	3.828139e+01	8.312483e+02
1.720000e-06	5.489640e-06	1.267893e-08	3.820888e+01	8.305361e+02
1.730000e-06	5.477208e-06	1.270209e-08	3.812236e+01	8.298685e+02
1.740000e-06	5.462748e-06	1.266717e-08	3.802171e+01	8.291856e+02
1.750000e-06	5.446337e-06	1.254321e-08	3.790749e+01	8.283915e+02
1.760000e-06	5.427319e-06	1.253954e-08	3.777512e+01	8.273967e+02
1.770000e-06	5.405473e-06	1.253971e-08	3.762307e+01	8.261599e+02
1.780000e-06	5.381621e-06	1.261917e-08	3.745706e+01	8.247084e+02
1.790000e-06	5.356800e-06	1.269406e-08	3.728430e+01	8.231293e+02
1.800000e-06	5.331211e-06	1.242489e-08	3.710619e+01	8.215341e+02
1.810000e-06	5.303618e-06	1.251913e-08	3.691414e+01	8.200104e+02
1.820000e-06	5.273646e-06	1.261017e-08	3.670553e+01	8.185832e+02
1.830000e-06	5.242211e-06	1.231684e-08	3.648674e+01	8.171997e+02
1.840000e-06	5.209012e-06	1.248187e-08	3.625567e+01	8.157465e+02
1.850000e-06	5.173975e-06	1.245951e-08	3.601180e+01	8.140913e+02
1.860000e-06	5.137161e-06	1.224193e-08	3.575557e+01	8.121335e+02
1.870000e-06	5.098182e-06	1.248128e-08	3.548427e+01	8.098409e+02
1.880000e-06	5.057574e-06	1.235780e-08	3.520163e+01	8.072602e+02
1.890000e-06	5.015421e-06	1.223399e-08	3.490824e+01	8.044957e+02
1.900000e-06	4.971229e-06	1.226610e-08	3.460065e+01	8.016658e+02
1.910000e-06	4.925284e-06	1.204386e-08	3.428087e+01	7.988566e+02
1.920000e-06	4.877565e-06	1.218842e-08	3.394874e+01	7.960907e+02
1.930000e-06	4.828062e-06	1.212396e-08	3.360419e+01	7.933231e+02
1.940000e-06	4.776773e-06	1.198575e-08	3.324720e+01	7.904664e+02
1.950000e-06	4.723305e-06	1.209590e-08	3.287506e+01	7.874315e+02
1.960000e-06	4.668081e-06	1.194507e-08	3.249069e+01	7.841668e+02
1.970000e-06	4.611207e-06	1.192907e-08	3.209483e+01	7.806788e+02
1.980000e-06	4.552726e-06	1.179672e-08	3.168780e+01	7.770258e+02
1.990000e-06	4.492661e-06	1.172064e-08	3.126974e+01	7.732879e+02
2.000000e-06	4.430820e-06	1.178519e-08	3.083931e+01	7.695286e+02
2.010000e-06	4.367435e-06	1.164683e-08	3.039814e+01	7.657633e+02
2.020000e-06	4.302461e-06	1.167971e-08	2.994590e+01	7.619518e+02
2.030000e-06	4.236075e-06	1.154637e-08	2.948385e+01	7.580147e+02
2.040000e-06	4.168218e-06	1.147255e-08	2.901155e+01	7.538693e+02
2.050000e-06	4.098524e-06	1.145749e-08	2.852647e+01	7.494663e+02
2.060000e-06	4.027348e-06	1.130295e-08	2.803107e+01	7.448122e+02
2.070000e-06	3.954874e-06	1.130149e-08	2.752664e+01	7.399664e+02
2.080000e-06	3.881029e-06	1.119026e-08	2.701267e+01	7.350133e+02
2.090000e-06	3.805546e-06	1.116553e-08	2.648729e+01	7.300240e+02
2.100000e-06	3.728303e-06	1.108496e-08	2.594966e+01	7.250209e+02
2.110000e-06	3.649607e-06	1.095838e-08	2.540192e+01	7.199654e+02
2.120000e-06	3.569695e-06	1.090292e-08	2.484572e+01	7.147715e+02
2.130000e-06	3.488691e-06	1.078166e-08	2.428192e+01	7.093412e+02
2.140000e-06	3.406570e-06	1.075157e-08	2.371034e+01	7.036068e+02
2.150000e-06	3.323301e-06	1.064160e-08	2.313078e+01	6.975598e+02
2.160000e-06	3.238704e-06	1.054473e-08	2.254196e+01	6.912557e+02
2.170000e-06	3.152768e-06	1.044993e-08	2.194383e+01	6.847896e+02
2.180000e-06	3.065683e-06	1.033668e-08	2.133771e+01	6.782546e+02
2.190000e-06	2.977602e-06	1.025114e-08	2.072465e+01	6.717004e+02
2.200000e-06	2.888559e-06	1.013183e-08	2.010490e+01	6.651099e+02
2.210000e-06	2.798565e-06	1.004555e-08	1.947852e+01	6.584050e+02
2.220000e-06	2.707691e-06	9.943511e-09	1.884602e+01	6.514789e+02
2.230000e-06	2.615801e-06	9.842022e-09	1.820645e+01	6.442405e+02
2.240000e-06	2.522902e-06	9.714509e-09	1.755985e+01	6.366523e+02
2.250000e-06	2.429035e-06	9.584719e-09	1.690652e+01	6.287433e+02
2.260000e-06	2.334189e-06	9.467454e-09	1.624638e+01	6.205926e+02
2.270000e-06	2.238565e-06	9.350907e-09	1.558082e+01	6.122884e+02
2.280000e-06	2.142210e-06	9.229989e-09	1.491017e+01	6.038829e+02
2.290000e-06	2.045130e-06	9.087339e-09	1.423447e+01	5.953619e+02
2.300000e-06	1.947414e-06	8.950411e-09	1.355435e+01	5.866441e+02
2.310000e-06	1.849155e-06	8.814077e-09	1.287045e+01	5.776114e+02
2.320000e-06	1.750383e-06	8.680053e-09	1.218298e+01	5.681569e+02
2.330000e-06	1.651071e-06	8.526583e-09	1.149175e+01	5.582297e+02
2.340000e-06	1.551136e-06	8.372599e-09	1.079619e+01	5.478552e+02
2.350000e-06	1.450518e-06	8.216590e-09	1.009587e+01	5.371208e+02
2.360000e-06	1.349254e-06	8.049826e-09	9.391053e+00	5.261314e+02
2.370000e-06	1.247384e-06	7.872388e-09	8.682017e+00	5.149544e+02
2.380000e-06	1.145016e-06	7.684870e-09	7.969515e+00	5.035778e+02
2.390000e-06	1.042186e-06	7.510790e-09	7.253806e+00	4.919028e+02
2.400000e-06	9.389052e-07	7.337867e-09	6.534950e+00	4.797748e+02
2.410000e-06	8.353100e-07	7.154009e-09	5.813909e+00	4.670422e+02
2.420000e-06	7.315185e-07	6.950218e-09	5.091501e+00	4.536158e+02
2.430000e-06	6.275596e-07	6.730230e-09	4.367928e+00	4.395030e+02
2.440000e-06	5.234115e-07	6.502488e-09	3.643038e+00	4.247965e+02
2.450000e-06	4.190511e-07	6.269582e-09	2.916672e+00	4.096213e+02
2.460000e-06	3.145423e-07	6.029974e-09	2.189272e+00	3.940590e+02
2.470000e-06	2.099702e-07	5.785634e-09	1.461431e+00	3.780835e+02
2.480000e-06	1.053453e-07	5.536177e-09	7.332226e-01	3.615390e+02
2.490000e-06	6.771802e-10	5.273345e-09	4.713297e-03	3.441737e+02
2.500000e-06	-1.039858e-07	4.991610e-09	-7.237601e-01	3.257191e+02
2.510000e-06	-2.085717e-07	4.689345e-09	-1.451697e+00	3.059806e+02
2.520000e-06	-3.130771e-07	4.371440e-09	-2.179073e+00	2.848959e+02
2.530000e-06	-4.174403e-07	4.036257e-09	-2.905460e+00	2.625247e+02
2.540000e-06	-5.216369e-07	3.678445e-09	-3.630687e+00	2.389604e+02
2.550000e-06	-6.257235e-07	3.298142e-09	-4.355149e+00	2.141863e+02
2.560000e-06	-7.295703e-07	2.896235e-09	-5.077941e+00	1.879322e+02
2.570000e-06	-8.331436e-07	2.462094e-09	-5.798830e+00	1.595933e+02
2.580000e-06	-9.365001e-07	1.982764e-09	-6.518210e+00	1.282663e+02
2.590000e-06	-1.039520e-06	1.448466e-09	-7.235246e+00	9.291909e+01
2.600000e-06	-1.142141e-06	8.473114e-10	-7.949506e+00	5.266271e+01
2.610000e-06	-1.244327e-06	1.679178e-10	-8.660742e+00	7.056857e+00
2.620000e-06	-1.345925e-06	-5.944384e-10	-9.367882e+00	-4.364576e+01
2.630000e-06	-1.446857e-06	-1.431581e-09	-1.007039e+01	-9.839830e+01
2.640000e-06	-1.547208e-06	-2.314557e-09	-1.076885e+01	-1.554474e+02
2.650000e-06	-1.646961e-06	-3.200502e-09	-1.146315e+01	-2.125999e+02
2.660000e-06	-1.746003e-06	-4.048109e-09	-1.215250e+01	-2.676028e+02
2.670000e-06	-1.844477e-06	-4.826616e-09	-1.283790e+01	-3.185393e+02
2.680000e-06	-1.942431e-06	-5.521042e-09	-1.351967e+01	-3.641342e+02
2.690000e-06	-2.039713e-06	-6.127099e-09	-1.419677e+01	-4.038953e+02
2.700000e-06	-2.136252e-06	-6.651548e-09	-1.486870e+01	-4.380656e+02
2.710000e-06	-2.232136e-06	-7.109762e-09	-1.553607e+01	-4.674179e+02
2.720000e-06	-2.327392e-06	-7.516160e-09	-1.619907e+01	-4.929665e+02
2.730000e-06	-2.421953e-06	-7.874746e-09	-1.685723e+01	-5.156868e+02
2.740000e-06	-2.515638e-06	-8.191317e-09	-1.750929e+01	-5.363190e+02
2.750000e-06	-2.608200e-06	-8.477491e-09	-1.815355e+01	-5.552962e+02
2.760000e-06	-2.699660e-06	-8.740690e-09	-1.879012e+01	-5.727892e+02
2.770000e-06	-2.790129e-06	-8.984220e-09	-1.941980e+01	-5.888270e+02
2.780000e-06	-2.879617e-06	-9.207358e-09	-2.004266e+01	-6.034298e+02
2.790000e-06	-2.968053e-06	-9.412678e-09	-2.065819e+01	-6.167010e+02
2.800000e-06	-3.055553e-06	-9.603217e-09	-2.126720e+01	-6.288499e+02
2.810000e-06	-3.142211e-06	-9.781060e-09	-2.187036e+01	-6.401480e+02
2.820000e-06	-3.227689e-06	-9.947503e-09	-2.246530e+01	-6.508500e+02
2.830000e-06	-3.311707e-06	-1.010402e-08	-2.305008e+01	-6.611199e+02
2.840000e-06	-3.394465e-06	-1.025373e-08	-2.362609e+01	-6.709973e+02
2.850000e-06	-3.476175e-06	-1.039435e-08	-2.419481e+01	-6.804150e+02
2.860000e-06	-3.556713e-06	-1.052572e-08	-2.475537e+01	-6.892603e+02
2.870000e-06	-3.636042e-06	-1.064795e-08	-2.530751e+01	-6.974480e+02
2.880000e-06	-3.714073e-06	-1.076379e-08	-2.585062e+01	-7.049753e+02
2.890000e-06	-3.790471e-06	-1.087476e-08	-2.638236e+01	-7.119359e+02
2.900000e-06	-3.865341e-06	-1.097923e-08	-2.690347e+01	-7.184895e+02
2.910000e-06	-3.938882e-06	-1.107791e-08	-2.741533e+01	-7.248032e+02
2.920000e-06	-4.010980e-06	-1.117322e-08	-2.791715e+01	-7.309917e+02
2.930000e-06	-4.081736e-06	-1.126640e-08	-2.840962e+01	-7.370830e+02
2.940000e-06	-4.151007e-06	-1.135490e-08	-2.889176e+01	-7.430215e+02
