# Temperatura_=_46.73
# Concentracion g/m^3_=_13400.0
# C_Vs_to_Am_M_A/Vsm_=_65563218390.804596
# pendiente_HvsI_1/m_=_3716.3
# ordenada_HvsI_A/m_=_1297.0
# frecuencia_Hz_=_300799.05684622406

Tiempo_(s)	Campo_(V.s)	Magnetizacion_(V.s)	Campo_(kA/m)	Magnetizacion_(A/m)
0.000000e+00	-5.509591e-06	-1.239440e-08	-3.830561e+01	-8.130780e+02
1.000000e-08	-5.507711e-06	-1.239823e-08	-3.829253e+01	-8.129603e+02
2.000000e-08	-5.503885e-06	-1.239632e-08	-3.826593e+01	-8.126258e+02
3.000000e-08	-5.498322e-06	-1.239047e-08	-3.822725e+01	-8.120891e+02
4.000000e-08	-5.491146e-06	-1.237923e-08	-3.817736e+01	-8.114117e+02
5.000000e-08	-5.482335e-06	-1.236275e-08	-3.811611e+01	-8.106762e+02
6.000000e-08	-5.471478e-06	-1.234555e-08	-3.804062e+01	-8.099514e+02
7.000000e-08	-5.458481e-06	-1.232128e-08	-3.795026e+01	-8.092637e+02
8.000000e-08	-5.443468e-06	-1.231145e-08	-3.784588e+01	-8.085871e+02
9.000000e-08	-5.426126e-06	-1.235191e-08	-3.772531e+01	-8.078553e+02
1.000000e-07	-5.406519e-06	-1.236379e-08	-3.758899e+01	-8.069908e+02
1.100000e-07	-5.384925e-06	-1.233204e-08	-3.743886e+01	-8.059373e+02
1.200000e-07	-5.361546e-06	-1.229819e-08	-3.727631e+01	-8.046833e+02
1.300000e-07	-5.336729e-06	-1.219578e-08	-3.710377e+01	-8.032646e+02
1.400000e-07	-5.310367e-06	-1.218015e-08	-3.692049e+01	-8.017468e+02
1.500000e-07	-5.282138e-06	-1.224575e-08	-3.672423e+01	-8.001946e+02
1.600000e-07	-5.252236e-06	-1.214504e-08	-3.651633e+01	-7.986420e+02
1.700000e-07	-5.220743e-06	-1.214326e-08	-3.629738e+01	-7.970758e+02
1.800000e-07	-5.187240e-06	-1.219300e-08	-3.606445e+01	-7.954403e+02
1.900000e-07	-5.151742e-06	-1.208801e-08	-3.581765e+01	-7.936601e+02
2.000000e-07	-5.114671e-06	-1.208538e-08	-3.555991e+01	-7.916722e+02
2.100000e-07	-5.075879e-06	-1.204635e-08	-3.529021e+01	-7.894537e+02
2.200000e-07	-5.035286e-06	-1.194090e-08	-3.500798e+01	-7.870315e+02
2.300000e-07	-4.992758e-06	-1.196311e-08	-3.471230e+01	-7.844723e+02
2.400000e-07	-4.948231e-06	-1.196391e-08	-3.440273e+01	-7.818559e+02
2.500000e-07	-4.901956e-06	-1.192869e-08	-3.408100e+01	-7.792427e+02
2.600000e-07	-4.853853e-06	-1.186703e-08	-3.374656e+01	-7.766503e+02
2.700000e-07	-4.803721e-06	-1.178569e-08	-3.339802e+01	-7.740476e+02
2.800000e-07	-4.751502e-06	-1.177524e-08	-3.303497e+01	-7.713697e+02
2.900000e-07	-4.697394e-06	-1.172687e-08	-3.265878e+01	-7.685447e+02
3.000000e-07	-4.641670e-06	-1.166560e-08	-3.227135e+01	-7.655238e+02
3.100000e-07	-4.584273e-06	-1.162792e-08	-3.187230e+01	-7.622985e+02
3.200000e-07	-4.525025e-06	-1.159997e-08	-3.146038e+01	-7.589014e+02
3.300000e-07	-4.464134e-06	-1.157874e-08	-3.103703e+01	-7.553882e+02
3.400000e-07	-4.401762e-06	-1.149212e-08	-3.060339e+01	-7.518114e+02
3.500000e-07	-4.337883e-06	-1.140132e-08	-3.015926e+01	-7.481959e+02
3.600000e-07	-4.272454e-06	-1.133749e-08	-2.970437e+01	-7.445288e+02
3.700000e-07	-4.205329e-06	-1.130163e-08	-2.923768e+01	-7.407654e+02
3.800000e-07	-4.136572e-06	-1.126763e-08	-2.875964e+01	-7.368500e+02
3.900000e-07	-4.066407e-06	-1.119132e-08	-2.827182e+01	-7.327407e+02
4.000000e-07	-3.994979e-06	-1.112788e-08	-2.777522e+01	-7.284270e+02
4.100000e-07	-3.922335e-06	-1.106614e-08	-2.727016e+01	-7.239331e+02
4.200000e-07	-3.848162e-06	-1.099347e-08	-2.675447e+01	-7.193044e+02
4.300000e-07	-3.772236e-06	-1.089966e-08	-2.622659e+01	-7.145848e+02
4.400000e-07	-3.694698e-06	-1.080789e-08	-2.568750e+01	-7.097949e+02
4.500000e-07	-3.615675e-06	-1.075582e-08	-2.513809e+01	-7.049206e+02
4.600000e-07	-3.535200e-06	-1.069770e-08	-2.457859e+01	-6.999180e+02
4.700000e-07	-3.453387e-06	-1.062190e-08	-2.400978e+01	-6.947325e+02
4.800000e-07	-3.370358e-06	-1.052597e-08	-2.343252e+01	-6.893224e+02
4.900000e-07	-3.286242e-06	-1.042574e-08	-2.284770e+01	-6.836769e+02
5.000000e-07	-3.201188e-06	-1.034269e-08	-2.225636e+01	-6.778202e+02
5.100000e-07	-3.115123e-06	-1.025794e-08	-2.165799e+01	-6.717994e+02
5.200000e-07	-3.028043e-06	-1.016206e-08	-2.105256e+01	-6.656607e+02
5.300000e-07	-2.940052e-06	-1.006231e-08	-2.044080e+01	-6.594266e+02
5.400000e-07	-2.851094e-06	-9.971267e-09	-1.982232e+01	-6.530831e+02
5.500000e-07	-2.761031e-06	-9.875785e-09	-1.919615e+01	-6.465833e+02
5.600000e-07	-2.669777e-06	-9.760579e-09	-1.856171e+01	-6.398660e+02
5.700000e-07	-2.577487e-06	-9.641145e-09	-1.792006e+01	-6.328815e+02
5.800000e-07	-2.484364e-06	-9.532327e-09	-1.727262e+01	-6.256116e+02
5.900000e-07	-2.390439e-06	-9.432526e-09	-1.661960e+01	-6.180746e+02
6.000000e-07	-2.295691e-06	-9.322299e-09	-1.596087e+01	-6.103134e+02
6.100000e-07	-2.200140e-06	-9.196433e-09	-1.529654e+01	-6.023706e+02
6.200000e-07	-2.103831e-06	-9.065207e-09	-1.462695e+01	-5.942628e+02
6.300000e-07	-2.006763e-06	-8.934287e-09	-1.395208e+01	-5.859661e+02
6.400000e-07	-1.908884e-06	-8.801589e-09	-1.327157e+01	-5.774206e+02
6.500000e-07	-1.810172e-06	-8.663259e-09	-1.258527e+01	-5.685525e+02
6.600000e-07	-1.710724e-06	-8.523065e-09	-1.189386e+01	-5.593039e+02
6.700000e-07	-1.610609e-06	-8.381429e-09	-1.119781e+01	-5.496570e+02
6.800000e-07	-1.509920e-06	-8.234016e-09	-1.049776e+01	-5.396402e+02
6.900000e-07	-1.408793e-06	-8.074173e-09	-9.794676e+00	-5.293108e+02
7.000000e-07	-1.307236e-06	-7.905132e-09	-9.088600e+00	-5.187220e+02
7.100000e-07	-1.205272e-06	-7.734266e-09	-8.379689e+00	-5.078882e+02
7.200000e-07	-1.102929e-06	-7.563859e-09	-7.668145e+00	-4.967635e+02
7.300000e-07	-1.000179e-06	-7.388944e-09	-6.953774e+00	-4.852477e+02
7.400000e-07	-8.970032e-07	-7.203188e-09	-6.236442e+00	-4.732172e+02
7.500000e-07	-7.934701e-07	-7.009142e-09	-5.516626e+00	-4.605702e+02
7.600000e-07	-6.897275e-07	-6.807846e-09	-4.795352e+00	-4.472657e+02
7.700000e-07	-5.858422e-07	-6.595565e-09	-4.073086e+00	-4.333371e+02
7.800000e-07	-4.817065e-07	-6.371970e-09	-3.349079e+00	-4.188713e+02
7.900000e-07	-3.773846e-07	-6.146064e-09	-2.623778e+00	-4.039589e+02
8.000000e-07	-2.729806e-07	-5.920015e-09	-1.897906e+00	-3.886344e+02
8.100000e-07	-1.684502e-07	-5.682334e-09	-1.171155e+00	-3.728335e+02
8.200000e-07	-6.384195e-08	-5.425507e-09	-4.438632e-01	-3.563885e+02
8.300000e-07	4.079528e-08	-5.152261e-09	2.836304e-01	-3.390693e+02
8.400000e-07	1.454043e-07	-4.868904e-09	1.010928e+00	-3.206538e+02
8.500000e-07	2.499921e-07	-4.572738e-09	1.738078e+00	-3.010005e+02
8.600000e-07	3.544757e-07	-4.257720e-09	2.464503e+00	-2.800845e+02
8.700000e-07	4.587841e-07	-3.921986e-09	3.189711e+00	-2.579724e+02
8.800000e-07	5.629743e-07	-3.567911e-09	3.914096e+00	-2.347331e+02
8.900000e-07	6.669713e-07	-3.195116e-09	4.637139e+00	-2.103083e+02
9.000000e-07	7.707138e-07	-2.796544e-09	5.358411e+00	-1.843933e+02
9.100000e-07	8.741771e-07	-2.360568e-09	6.077743e+00	-1.563804e+02
9.200000e-07	9.773344e-07	-1.876554e-09	6.794948e+00	-1.254074e+02
9.300000e-07	1.080185e-06	-1.339701e-09	7.510019e+00	-9.052194e+01
9.400000e-07	1.182701e-06	-7.410696e-10	8.222766e+00	-5.093003e+01
9.500000e-07	1.284789e-06	-6.632822e-11	8.932534e+00	-6.265861e+00
9.600000e-07	1.386374e-06	6.905610e-10	9.638805e+00	4.319734e+01
9.700000e-07	1.487523e-06	1.513448e-09	1.034205e+01	9.646577e+01
9.800000e-07	1.588300e-06	2.369674e-09	1.104270e+01	1.519096e+02
9.900000e-07	1.688615e-06	3.221885e-09	1.174015e+01	2.075030e+02
1.000000e-06	1.788273e-06	4.036334e-09	1.243302e+01	2.611627e+02
1.010000e-06	1.887084e-06	4.785126e-09	1.312001e+01	3.110993e+02
1.020000e-06	1.985040e-06	5.452421e-09	1.380105e+01	3.560910e+02
1.030000e-06	2.082265e-06	6.039553e-09	1.447701e+01	3.956157e+02
1.040000e-06	2.178711e-06	6.554454e-09	1.514756e+01	4.298185e+02
1.050000e-06	2.274343e-06	7.006928e-09	1.581244e+01	4.593399e+02
1.060000e-06	2.369272e-06	7.403316e-09	1.647244e+01	4.850682e+02
1.070000e-06	2.463438e-06	7.752522e-09	1.712713e+01	5.078923e+02
1.080000e-06	2.556768e-06	8.064377e-09	1.777601e+01	5.285210e+02
1.090000e-06	2.649360e-06	8.346388e-09	1.841976e+01	5.474066e+02
1.100000e-06	2.741100e-06	8.602933e-09	1.905758e+01	5.647691e+02
1.110000e-06	2.831606e-06	8.836791e-09	1.968683e+01	5.806882e+02
1.120000e-06	2.920902e-06	9.054775e-09	2.030767e+01	5.952137e+02
1.130000e-06	3.009225e-06	9.261068e-09	2.092173e+01	6.084466e+02
1.140000e-06	3.096536e-06	9.454134e-09	2.152876e+01	6.205659e+02
1.150000e-06	3.182785e-06	9.629009e-09	2.212841e+01	6.318016e+02
1.160000e-06	3.268059e-06	9.786886e-09	2.272128e+01	6.423745e+02
1.170000e-06	3.352368e-06	9.934349e-09	2.330744e+01	6.524377e+02
1.180000e-06	3.435426e-06	1.007741e-08	2.388490e+01	6.620466e+02
1.190000e-06	3.517115e-06	1.021638e-08	2.445285e+01	6.711699e+02
1.200000e-06	3.597515e-06	1.034800e-08	2.501184e+01	6.797349e+02
1.210000e-06	3.676660e-06	1.047055e-08	2.556209e+01	6.876850e+02
1.220000e-06	3.754569e-06	1.058615e-08	2.610375e+01	6.950250e+02
1.230000e-06	3.831161e-06	1.069437e-08	2.663627e+01	7.018337e+02
1.240000e-06	3.906197e-06	1.079193e-08	2.715796e+01	7.082429e+02
1.250000e-06	3.979565e-06	1.088129e-08	2.766805e+01	7.143912e+02
1.260000e-06	4.051437e-06	1.096969e-08	2.816774e+01	7.203777e+02
1.270000e-06	4.121922e-06	1.105838e-08	2.865779e+01	7.262324e+02
1.280000e-06	4.191059e-06	1.114461e-08	2.913847e+01	7.319180e+02
1.290000e-06	4.258768e-06	1.122671e-08	2.960922e+01	7.373594e+02
1.300000e-06	4.324792e-06	1.130487e-08	3.006825e+01	7.424875e+02
1.310000e-06	4.389176e-06	1.137912e-08	3.051588e+01	7.472768e+02
1.320000e-06	4.452103e-06	1.144735e-08	3.095338e+01	7.517605e+02
1.330000e-06	4.513607e-06	1.151089e-08	3.138099e+01	7.560180e+02
1.340000e-06	4.573729e-06	1.157318e-08	3.179899e+01	7.601403e+02
1.350000e-06	4.632130e-06	1.163581e-08	3.220503e+01	7.641910e+02
1.360000e-06	4.688674e-06	1.169580e-08	3.259815e+01	7.681788e+02
1.370000e-06	4.743625e-06	1.175254e-08	3.298020e+01	7.720553e+02
1.380000e-06	4.796886e-06	1.180764e-08	3.335050e+01	7.757380e+02
1.390000e-06	4.848078e-06	1.186026e-08	3.370641e+01	7.791493e+02
1.400000e-06	4.897190e-06	1.190896e-08	3.404786e+01	7.822518e+02
1.410000e-06	4.944548e-06	1.195207e-08	3.437712e+01	7.850679e+02
1.420000e-06	4.990299e-06	1.199168e-08	3.469521e+01	7.876714e+02
1.430000e-06	5.034339e-06	1.203205e-08	3.500140e+01	7.901579e+02
1.440000e-06	5.076479e-06	1.207195e-08	3.529438e+01	7.926049e+02
1.450000e-06	5.116787e-06	1.210854e-08	3.557462e+01	7.950402e+02
1.460000e-06	5.155424e-06	1.214350e-08	3.584325e+01	7.974311e+02
1.470000e-06	5.192386e-06	1.217938e-08	3.610023e+01	7.997005e+02
1.480000e-06	5.227506e-06	1.221289e-08	3.634440e+01	8.017617e+02
1.490000e-06	5.260655e-06	1.224012e-08	3.657487e+01	8.035565e+02
1.500000e-06	5.291972e-06	1.226183e-08	3.679260e+01	8.050823e+02
1.510000e-06	5.321622e-06	1.228242e-08	3.699874e+01	8.063942e+02
1.520000e-06	5.349421e-06	1.230486e-08	3.719202e+01	8.075832e+02
1.530000e-06	5.375086e-06	1.232695e-08	3.737045e+01	8.087384e+02
1.540000e-06	5.398726e-06	1.234620e-08	3.753481e+01	8.099112e+02
1.550000e-06	5.420603e-06	1.236363e-08	3.768691e+01	8.110952e+02
1.560000e-06	5.440781e-06	1.238063e-08	3.782720e+01	8.122306e+02
1.570000e-06	5.459035e-06	1.239530e-08	3.795411e+01	8.132314e+02
1.580000e-06	5.475198e-06	1.240572e-08	3.806648e+01	8.140233e+02
1.590000e-06	5.489395e-06	1.241318e-08	3.816519e+01	8.145759e+02
1.600000e-06	5.501506e-06	1.242051e-08	3.824939e+01	8.149156e+02
1.610000e-06	5.511435e-06	1.242729e-08	3.831842e+01	8.151145e+02
1.620000e-06	5.519341e-06	1.243248e-08	3.837339e+01	8.152597e+02
1.630000e-06	5.525375e-06	1.243633e-08	3.841534e+01	8.154163e+02
1.640000e-06	5.529553e-06	1.243889e-08	3.844439e+01	8.156010e+02
1.650000e-06	5.531666e-06	1.244307e-08	3.845908e+01	8.157757e+02
1.660000e-06	5.531798e-06	1.244683e-08	3.846000e+01	8.158653e+02
1.670000e-06	5.530202e-06	1.244289e-08	3.844890e+01	8.157907e+02
1.680000e-06	5.526897e-06	1.243681e-08	3.842592e+01	8.155035e+02
1.690000e-06	5.521689e-06	1.243038e-08	3.838972e+01	8.150063e+02
1.700000e-06	5.514564e-06	1.242287e-08	3.834018e+01	8.143524e+02
1.710000e-06	5.505743e-06	1.241366e-08	3.827885e+01	8.136227e+02
1.720000e-06	5.495217e-06	1.240552e-08	3.820567e+01	8.128917e+02
1.730000e-06	5.482688e-06	1.241335e-08	3.811856e+01	8.121966e+02
1.740000e-06	5.468199e-06	1.238325e-08	3.801783e+01	8.115222e+02
1.750000e-06	5.451704e-06	1.231649e-08	3.790314e+01	8.108091e+02
1.760000e-06	5.432569e-06	1.230235e-08	3.777011e+01	8.099790e+02
1.770000e-06	5.410705e-06	1.229645e-08	3.761809e+01	8.089688e+02
1.780000e-06	5.386824e-06	1.235086e-08	3.745206e+01	8.077563e+02
1.790000e-06	5.361911e-06	1.236737e-08	3.727885e+01	8.063681e+02
1.800000e-06	5.336142e-06	1.222997e-08	3.709969e+01	8.048656e+02
1.810000e-06	5.308403e-06	1.226359e-08	3.690683e+01	8.033165e+02
1.820000e-06	5.278409e-06	1.227002e-08	3.669831e+01	8.017635e+02
1.830000e-06	5.246872e-06	1.215068e-08	3.647904e+01	8.002039e+02
1.840000e-06	5.213575e-06	1.222612e-08	3.624754e+01	7.985895e+02
1.850000e-06	5.178495e-06	1.217018e-08	3.600365e+01	7.968466e+02
1.860000e-06	5.141631e-06	1.207129e-08	3.574735e+01	7.949069e+02
1.870000e-06	5.102665e-06	1.216584e-08	3.547643e+01	7.927373e+02
1.880000e-06	5.062007e-06	1.207976e-08	3.519376e+01	7.903542e+02
1.890000e-06	5.019717e-06	1.200555e-08	3.489974e+01	7.878178e+02
1.900000e-06	4.975499e-06	1.196474e-08	3.459231e+01	7.852075e+02
1.910000e-06	4.929512e-06	1.186188e-08	3.427259e+01	7.825906e+02
1.920000e-06	4.881692e-06	1.193519e-08	3.394011e+01	7.799948e+02
1.930000e-06	4.832088e-06	1.186560e-08	3.359524e+01	7.773991e+02
1.940000e-06	4.780651e-06	1.179799e-08	3.323762e+01	7.747437e+02
1.950000e-06	4.727079e-06	1.182198e-08	3.286516e+01	7.719556e+02
1.960000e-06	4.671734e-06	1.171839e-08	3.248037e+01	7.689790e+02
1.970000e-06	4.614734e-06	1.168744e-08	3.208408e+01	7.657961e+02
1.980000e-06	4.556155e-06	1.158066e-08	3.167681e+01	7.624316e+02
1.990000e-06	4.496021e-06	1.152293e-08	3.125872e+01	7.589385e+02
2.000000e-06	4.434069e-06	1.154306e-08	3.082800e+01	7.553720e+02
2.010000e-06	4.370557e-06	1.146776e-08	3.038643e+01	7.517647e+02
2.020000e-06	4.305532e-06	1.144590e-08	2.993435e+01	7.481117e+02
2.030000e-06	4.239029e-06	1.134425e-08	2.947198e+01	7.443737e+02
2.040000e-06	4.171038e-06	1.128244e-08	2.899927e+01	7.404953e+02
2.050000e-06	4.101246e-06	1.122846e-08	2.851404e+01	7.364298e+02
2.060000e-06	4.029907e-06	1.112253e-08	2.801805e+01	7.321590e+02
2.070000e-06	3.957238e-06	1.109056e-08	2.751282e+01	7.277004e+02
2.080000e-06	3.883174e-06	1.101879e-08	2.699789e+01	7.230966e+02
2.090000e-06	3.807499e-06	1.098516e-08	2.647175e+01	7.183938e+02
2.100000e-06	3.730172e-06	1.090425e-08	2.593414e+01	7.136190e+02
2.110000e-06	3.651463e-06	1.080273e-08	2.538691e+01	7.087657e+02
2.120000e-06	3.571511e-06	1.072457e-08	2.483104e+01	7.037953e+02
2.130000e-06	3.490372e-06	1.062452e-08	2.426692e+01	6.986535e+02
2.140000e-06	3.408097e-06	1.057783e-08	2.369490e+01	6.932937e+02
2.150000e-06	3.324718e-06	1.049440e-08	2.311521e+01	6.876977e+02
2.160000e-06	3.239999e-06	1.040393e-08	2.252619e+01	6.818830e+02
2.170000e-06	3.153917e-06	1.031094e-08	2.192770e+01	6.758931e+02
2.180000e-06	3.066714e-06	1.021441e-08	2.132142e+01	6.697767e+02
2.190000e-06	2.978487e-06	1.012302e-08	2.070802e+01	6.635630e+02
2.200000e-06	2.889310e-06	1.001699e-08	2.008802e+01	6.572461e+02
2.210000e-06	2.799237e-06	9.927520e-09	1.946178e+01	6.507849e+02
2.220000e-06	2.708248e-06	9.835900e-09	1.882918e+01	6.441193e+02
2.230000e-06	2.616254e-06	9.736461e-09	1.818959e+01	6.371950e+02
2.240000e-06	2.523260e-06	9.615235e-09	1.754304e+01	6.299859e+02
2.250000e-06	2.429248e-06	9.489089e-09	1.688942e+01	6.225032e+02
2.260000e-06	2.334301e-06	9.371009e-09	1.622930e+01	6.147861e+02
2.270000e-06	2.238574e-06	9.266171e-09	1.556375e+01	6.068797e+02
2.280000e-06	2.142090e-06	9.154114e-09	1.489295e+01	5.988079e+02
2.290000e-06	2.044920e-06	9.022777e-09	1.421737e+01	5.905558e+02
2.300000e-06	1.947083e-06	8.887042e-09	1.353715e+01	5.820700e+02
2.310000e-06	1.848671e-06	8.749776e-09	1.285294e+01	5.732769e+02
2.320000e-06	1.749749e-06	8.612795e-09	1.216519e+01	5.641130e+02
2.330000e-06	1.650269e-06	8.460440e-09	1.147354e+01	5.545507e+02
2.340000e-06	1.550173e-06	8.311167e-09	1.077763e+01	5.446090e+02
2.350000e-06	1.449429e-06	8.164860e-09	1.007720e+01	5.343414e+02
2.360000e-06	1.348068e-06	8.013217e-09	9.372488e+00	5.238054e+02
2.370000e-06	1.246146e-06	7.847697e-09	8.663866e+00	5.130258e+02
2.380000e-06	1.143674e-06	7.667577e-09	7.951431e+00	5.019704e+02
2.390000e-06	1.040692e-06	7.493327e-09	7.235445e+00	4.905488e+02
2.400000e-06	9.373349e-07	7.317422e-09	6.516850e+00	4.786387e+02
2.410000e-06	8.336948e-07	7.130368e-09	5.796289e+00	4.661299e+02
2.420000e-06	7.298284e-07	6.928368e-09	5.074155e+00	4.529660e+02
2.430000e-06	6.257730e-07	6.716998e-09	4.350706e+00	4.391651e+02
2.440000e-06	5.215322e-07	6.501334e-09	3.625969e+00	4.248061e+02
2.450000e-06	4.170779e-07	6.276860e-09	2.899747e+00	4.099839e+02
2.460000e-06	3.124318e-07	6.041366e-09	2.172192e+00	3.947495e+02
2.470000e-06	2.076821e-07	5.798767e-09	1.443916e+00	3.790616e+02
2.480000e-06	1.029075e-07	5.551286e-09	7.154672e-01	3.627730e+02
2.490000e-06	-1.888962e-09	5.291353e-09	-1.313307e-02	3.456613e+02
2.500000e-06	-1.067340e-07	5.011423e-09	-7.420712e-01	3.274964e+02
2.510000e-06	-2.114930e-07	4.712050e-09	-1.470412e+00	3.081146e+02
2.520000e-06	-3.160766e-07	4.401027e-09	-2.197532e+00	2.874658e+02
2.530000e-06	-4.205189e-07	4.078153e-09	-2.923671e+00	2.656026e+02
2.540000e-06	-5.248476e-07	3.733158e-09	-3.649019e+00	2.426034e+02
2.550000e-06	-6.289940e-07	3.360463e-09	-4.373100e+00	2.184486e+02
2.560000e-06	-7.328843e-07	2.964727e-09	-5.095401e+00	1.928938e+02
2.570000e-06	-8.365116e-07	2.544474e-09	-5.815873e+00	1.653962e+02
2.580000e-06	-9.399108e-07	2.084010e-09	-6.534759e+00	1.351380e+02
2.590000e-06	-1.043038e-06	1.567723e-09	-7.251757e+00	1.011675e+02
2.600000e-06	-1.145719e-06	9.865081e-10	-7.965650e+00	6.263347e+01
2.610000e-06	-1.247882e-06	3.377939e-10	-8.675936e+00	1.905737e+01
2.620000e-06	-1.349472e-06	-3.836537e-10	-9.382244e+00	-2.943661e+01
2.630000e-06	-1.450416e-06	-1.182952e-09	-1.008406e+01	-8.200780e+01
2.640000e-06	-1.550747e-06	-2.038456e-09	-1.078162e+01	-1.371472e+02
2.650000e-06	-1.650595e-06	-2.904325e-09	-1.147581e+01	-1.928874e+02
2.660000e-06	-1.749871e-06	-3.737912e-09	-1.216603e+01	-2.471270e+02
2.670000e-06	-1.848432e-06	-4.513094e-09	-1.285128e+01	-2.979866e+02
2.680000e-06	-1.946375e-06	-5.217794e-09	-1.353223e+01	-3.441061e+02
2.690000e-06	-2.043748e-06	-5.841617e-09	-1.420922e+01	-3.848110e+02
2.700000e-06	-2.140459e-06	-6.381749e-09	-1.488161e+01	-4.201135e+02
2.710000e-06	-2.236436e-06	-6.851259e-09	-1.554889e+01	-4.505676e+02
2.720000e-06	-2.331770e-06	-7.267846e-09	-1.621170e+01	-4.770305e+02
2.730000e-06	-2.426477e-06	-7.637936e-09	-1.687016e+01	-5.004091e+02
2.740000e-06	-2.520276e-06	-7.962386e-09	-1.752230e+01	-5.214611e+02
2.750000e-06	-2.612956e-06	-8.250133e-09	-1.816666e+01	-5.406948e+02
2.760000e-06	-2.704527e-06	-8.516365e-09	-1.880331e+01	-5.583738e+02
2.770000e-06	-2.795058e-06	-8.767110e-09	-1.943273e+01	-5.745984e+02
2.780000e-06	-2.884574e-06	-8.994990e-09	-2.005509e+01	-5.894165e+02
2.790000e-06	-2.973091e-06	-9.200155e-09	-2.067051e+01	-6.029138e+02
2.800000e-06	-3.060706e-06	-9.390273e-09	-2.127965e+01	-6.152533e+02
2.810000e-06	-3.147388e-06	-9.569652e-09	-2.188231e+01	-6.266583e+02
2.820000e-06	-3.232870e-06	-9.737924e-09	-2.247663e+01	-6.373573e+02
2.830000e-06	-3.316974e-06	-9.892872e-09	-2.306136e+01	-6.475215e+02
2.840000e-06	-3.399883e-06	-1.003870e-08	-2.363780e+01	-6.572278e+02
2.850000e-06	-3.481730e-06	-1.017816e-08	-2.420684e+01	-6.664607e+02
2.860000e-06	-3.562432e-06	-1.031000e-08	-2.476792e+01	-6.751513e+02
2.870000e-06	-3.641921e-06	-1.043115e-08	-2.532057e+01	-6.832352e+02
2.880000e-06	-3.720022e-06	-1.054287e-08	-2.586357e+01	-6.907016e+02
2.890000e-06	-3.796558e-06	-1.064741e-08	-2.639569e+01	-6.976143e+02
2.900000e-06	-3.871595e-06	-1.074761e-08	-2.691739e+01	-7.040967e+02
2.910000e-06	-3.945207e-06	-1.084474e-08	-2.742917e+01	-7.102906e+02
2.920000e-06	-4.017388e-06	-1.093877e-08	-2.793102e+01	-7.163066e+02
2.930000e-06	-4.088218e-06	-1.103074e-08	-2.842346e+01	-7.221906e+02
2.940000e-06	-4.157569e-06	-1.111743e-08	-2.890563e+01	-7.279179e+02
