# Temperatura_=_58.18
# Concentracion g/m^3_=_13400.0
# C_Vs_to_Am_M_A/Vsm_=_65563218390.804596
# pendiente_HvsI_1/m_=_3716.3
# ordenada_HvsI_A/m_=_1297.0
# frecuencia_Hz_=_300796.2354173228

Tiempo_(s)	Campo_(V.s)	Magnetizacion_(V.s)	Campo_(kA/m)	Magnetizacion_(A/m)
0.000000e+00	-5.494716e-06	-1.262034e-08	-3.830783e+01	-8.271322e+02
1.000000e-08	-5.492844e-06	-1.262280e-08	-3.829478e+01	-8.269305e+02
2.000000e-08	-5.488984e-06	-1.262160e-08	-3.826787e+01	-8.265117e+02
3.000000e-08	-5.483373e-06	-1.261425e-08	-3.822875e+01	-8.259138e+02
4.000000e-08	-5.476178e-06	-1.260130e-08	-3.817859e+01	-8.252091e+02
5.000000e-08	-5.467307e-06	-1.258372e-08	-3.811674e+01	-8.244728e+02
6.000000e-08	-5.456452e-06	-1.256475e-08	-3.804106e+01	-8.237506e+02
7.000000e-08	-5.443503e-06	-1.253984e-08	-3.795079e+01	-8.230396e+02
8.000000e-08	-5.428508e-06	-1.252976e-08	-3.784625e+01	-8.222911e+02
9.000000e-08	-5.411187e-06	-1.257140e-08	-3.772548e+01	-8.214336e+02
1.000000e-07	-5.391537e-06	-1.258916e-08	-3.758849e+01	-8.204062e+02
1.100000e-07	-5.369889e-06	-1.255426e-08	-3.743757e+01	-8.191876e+02
1.200000e-07	-5.346467e-06	-1.251303e-08	-3.727427e+01	-8.178073e+02
1.300000e-07	-5.321605e-06	-1.240286e-08	-3.710094e+01	-8.163348e+02
1.400000e-07	-5.295288e-06	-1.237857e-08	-3.691747e+01	-8.148499e+02
1.500000e-07	-5.267091e-06	-1.245816e-08	-3.672089e+01	-8.134076e+02
1.600000e-07	-5.237131e-06	-1.235225e-08	-3.651201e+01	-8.120116e+02
1.700000e-07	-5.205596e-06	-1.233980e-08	-3.629215e+01	-8.106089e+02
1.800000e-07	-5.172134e-06	-1.241401e-08	-3.605887e+01	-8.091073e+02
1.900000e-07	-5.136694e-06	-1.230473e-08	-3.581178e+01	-8.074092e+02
2.000000e-07	-5.099628e-06	-1.228302e-08	-3.555337e+01	-8.054476e+02
2.100000e-07	-5.060900e-06	-1.225630e-08	-3.528337e+01	-8.032099e+02
2.200000e-07	-5.020360e-06	-1.214254e-08	-3.500074e+01	-8.007396e+02
2.300000e-07	-4.977918e-06	-1.215424e-08	-3.470484e+01	-7.981160e+02
2.400000e-07	-4.933522e-06	-1.216157e-08	-3.439532e+01	-7.954213e+02
2.500000e-07	-4.887318e-06	-1.211899e-08	-3.407320e+01	-7.927073e+02
2.600000e-07	-4.839298e-06	-1.206402e-08	-3.373842e+01	-7.899784e+02
2.700000e-07	-4.789308e-06	-1.197383e-08	-3.338990e+01	-7.871942e+02
2.800000e-07	-4.737251e-06	-1.195124e-08	-3.302697e+01	-7.842915e+02
2.900000e-07	-4.683257e-06	-1.191635e-08	-3.265054e+01	-7.812151e+02
3.000000e-07	-4.627606e-06	-1.184945e-08	-3.226255e+01	-7.779421e+02
3.100000e-07	-4.570290e-06	-1.180350e-08	-3.186295e+01	-7.744914e+02
3.200000e-07	-4.511190e-06	-1.177202e-08	-3.145093e+01	-7.709126e+02
3.300000e-07	-4.450424e-06	-1.173660e-08	-3.102728e+01	-7.672613e+02
3.400000e-07	-4.388163e-06	-1.164808e-08	-3.059321e+01	-7.635715e+02
3.500000e-07	-4.324439e-06	-1.156590e-08	-3.014894e+01	-7.598385e+02
3.600000e-07	-4.259182e-06	-1.150500e-08	-2.969399e+01	-7.560192e+02
3.700000e-07	-4.192335e-06	-1.145895e-08	-2.922795e+01	-7.520509e+02
3.800000e-07	-4.123839e-06	-1.142016e-08	-2.875041e+01	-7.478793e+02
3.900000e-07	-4.053788e-06	-1.134030e-08	-2.826203e+01	-7.434825e+02
4.000000e-07	-3.982434e-06	-1.126336e-08	-2.776456e+01	-7.388810e+02
4.100000e-07	-3.909793e-06	-1.119830e-08	-2.725813e+01	-7.341282e+02
4.200000e-07	-3.835764e-06	-1.112279e-08	-2.674202e+01	-7.292851e+02
4.300000e-07	-3.760108e-06	-1.103603e-08	-2.621456e+01	-7.243914e+02
4.400000e-07	-3.682781e-06	-1.094934e-08	-2.567546e+01	-7.194445e+02
4.500000e-07	-3.603972e-06	-1.088765e-08	-2.512602e+01	-7.143983e+02
4.600000e-07	-3.523752e-06	-1.082084e-08	-2.456674e+01	-7.091804e+02
4.700000e-07	-3.442164e-06	-1.073647e-08	-2.399793e+01	-7.037227e+02
4.800000e-07	-3.359302e-06	-1.063519e-08	-2.342024e+01	-6.979904e+02
4.900000e-07	-3.275362e-06	-1.053086e-08	-2.283503e+01	-6.919967e+02
5.000000e-07	-3.190436e-06	-1.044549e-08	-2.224295e+01	-6.857973e+02
5.100000e-07	-3.104592e-06	-1.036160e-08	-2.164447e+01	-6.794645e+02
5.200000e-07	-3.017826e-06	-1.026664e-08	-2.103955e+01	-6.730548e+02
5.300000e-07	-2.930082e-06	-1.016151e-08	-2.042782e+01	-6.665814e+02
5.400000e-07	-2.841323e-06	-1.005908e-08	-1.980902e+01	-6.600066e+02
5.500000e-07	-2.751499e-06	-9.955201e-09	-1.918279e+01	-6.532561e+02
5.600000e-07	-2.660600e-06	-9.839035e-09	-1.854906e+01	-6.462496e+02
5.700000e-07	-2.568588e-06	-9.720049e-09	-1.790757e+01	-6.389349e+02
5.800000e-07	-2.475602e-06	-9.606877e-09	-1.725930e+01	-6.313091e+02
5.900000e-07	-2.381870e-06	-9.500761e-09	-1.660582e+01	-6.234179e+02
6.000000e-07	-2.287359e-06	-9.385537e-09	-1.594691e+01	-6.153317e+02
6.100000e-07	-2.192083e-06	-9.254625e-09	-1.528267e+01	-6.071095e+02
6.200000e-07	-2.096095e-06	-9.116800e-09	-1.461347e+01	-5.987666e+02
6.300000e-07	-1.999250e-06	-8.979551e-09	-1.393829e+01	-5.902609e+02
6.400000e-07	-1.901543e-06	-8.844357e-09	-1.325710e+01	-5.815048e+02
6.500000e-07	-1.803121e-06	-8.703780e-09	-1.257092e+01	-5.723993e+02
6.600000e-07	-1.704024e-06	-8.557882e-09	-1.188005e+01	-5.628738e+02
6.700000e-07	-1.604261e-06	-8.410737e-09	-1.118452e+01	-5.529150e+02
6.800000e-07	-1.503849e-06	-8.260861e-09	-1.048447e+01	-5.425698e+02
6.900000e-07	-1.402884e-06	-8.099686e-09	-9.780565e+00	-5.319205e+02
7.000000e-07	-1.301473e-06	-7.928409e-09	-9.073554e+00	-5.210400e+02
7.100000e-07	-1.199677e-06	-7.755004e-09	-8.363859e+00	-5.099489e+02
7.200000e-07	-1.097531e-06	-7.580045e-09	-7.651719e+00	-4.985926e+02
7.300000e-07	-9.949655e-07	-7.399053e-09	-6.936659e+00	-4.868516e+02
7.400000e-07	-8.920153e-07	-7.207496e-09	-6.218915e+00	-4.745822e+02
7.500000e-07	-7.887986e-07	-7.008146e-09	-5.499313e+00	-4.616711e+02
7.600000e-07	-6.853506e-07	-6.804236e-09	-4.778099e+00	-4.480801e+02
7.700000e-07	-5.817000e-07	-6.592763e-09	-4.055472e+00	-4.338581e+02
7.800000e-07	-4.778794e-07	-6.369983e-09	-3.331659e+00	-4.191128e+02
7.900000e-07	-3.738949e-07	-6.139350e-09	-2.606705e+00	-4.039494e+02
8.000000e-07	-2.697876e-07	-5.903949e-09	-1.880894e+00	-3.884035e+02
8.100000e-07	-1.656429e-07	-5.660222e-09	-1.154822e+00	-3.723952e+02
8.200000e-07	-6.146688e-08	-5.402170e-09	-4.285322e-01	-3.557308e+02
8.300000e-07	4.276842e-08	-5.126865e-09	2.981710e-01	-3.381527e+02
8.400000e-07	1.469833e-07	-4.837821e-09	1.024732e+00	-3.194226e+02
8.500000e-07	2.511285e-07	-4.537094e-09	1.750807e+00	-2.993985e+02
8.600000e-07	3.552249e-07	-4.219350e-09	2.476542e+00	-2.780685e+02
8.700000e-07	4.592300e-07	-3.878768e-09	3.201640e+00	-2.555139e+02
8.800000e-07	5.630652e-07	-3.516945e-09	3.925554e+00	-2.318043e+02
8.900000e-07	6.667479e-07	-3.135064e-09	4.648405e+00	-2.068550e+02
9.000000e-07	7.702862e-07	-2.724460e-09	5.370249e+00	-1.803048e+02
9.100000e-07	8.735993e-07	-2.272647e-09	6.090523e+00	-1.514699e+02
9.200000e-07	9.765813e-07	-1.772473e-09	6.808489e+00	-1.194163e+02
9.300000e-07	1.079200e-06	-1.219890e-09	7.523920e+00	-8.315298e+01
9.400000e-07	1.181394e-06	-6.012292e-10	8.236391e+00	-4.190640e+01
9.500000e-07	1.283155e-06	1.014466e-10	8.945850e+00	4.597609e+00
9.600000e-07	1.384536e-06	8.895595e-10	9.652649e+00	5.593096e+01
9.700000e-07	1.485524e-06	1.740578e-09	1.035671e+01	1.109093e+02
9.800000e-07	1.586102e-06	2.619623e-09	1.105792e+01	1.677174e+02
9.900000e-07	1.686145e-06	3.487519e-09	1.175539e+01	2.241908e+02
1.000000e-06	1.785528e-06	4.305619e-09	1.244827e+01	2.781869e+02
1.010000e-06	1.884082e-06	5.045705e-09	1.313537e+01	3.279469e+02
1.020000e-06	1.981650e-06	5.697854e-09	1.381558e+01	3.723590e+02
1.030000e-06	2.078385e-06	6.269958e-09	1.449000e+01	4.110601e+02
1.040000e-06	2.174460e-06	6.774057e-09	1.515981e+01	4.443637e+02
1.050000e-06	2.269858e-06	7.216653e-09	1.582490e+01	4.730509e+02
1.060000e-06	2.364527e-06	7.603354e-09	1.648491e+01	4.980984e+02
1.070000e-06	2.458434e-06	7.945125e-09	1.713961e+01	5.204237e+02
1.080000e-06	2.551576e-06	8.251104e-09	1.778897e+01	5.407149e+02
1.090000e-06	2.643948e-06	8.527970e-09	1.843296e+01	5.593752e+02
1.100000e-06	2.735339e-06	8.779150e-09	1.907012e+01	5.765704e+02
1.110000e-06	2.825451e-06	9.008328e-09	1.969836e+01	5.923402e+02
1.120000e-06	2.914407e-06	9.223596e-09	2.031854e+01	6.067167e+02
1.130000e-06	3.002430e-06	9.427875e-09	2.093221e+01	6.198039e+02
1.140000e-06	3.089485e-06	9.618942e-09	2.153914e+01	6.317962e+02
1.150000e-06	3.175468e-06	9.793224e-09	2.213859e+01	6.429404e+02
1.160000e-06	3.260479e-06	9.952256e-09	2.273127e+01	6.534678e+02
1.170000e-06	3.344547e-06	1.010266e-08	2.331738e+01	6.635323e+02
1.180000e-06	3.427303e-06	1.024652e-08	2.389433e+01	6.731827e+02
1.190000e-06	3.508725e-06	1.038309e-08	2.446198e+01	6.823778e+02
1.200000e-06	3.588929e-06	1.051217e-08	2.502115e+01	6.910361e+02
1.210000e-06	3.667816e-06	1.063445e-08	2.557113e+01	6.990952e+02
1.220000e-06	3.745449e-06	1.075285e-08	2.611236e+01	7.065560e+02
1.230000e-06	3.821805e-06	1.086597e-08	2.664470e+01	7.134930e+02
1.240000e-06	3.896479e-06	1.096805e-08	2.716531e+01	7.200312e+02
1.250000e-06	3.969495e-06	1.106083e-08	2.767436e+01	7.263013e+02
1.260000e-06	4.041199e-06	1.115029e-08	2.817426e+01	7.323943e+02
1.270000e-06	4.111486e-06	1.123767e-08	2.866429e+01	7.383368e+02
1.280000e-06	4.180445e-06	1.132208e-08	2.914505e+01	7.440954e+02
1.290000e-06	4.247975e-06	1.140376e-08	2.961585e+01	7.496059e+02
1.300000e-06	4.313755e-06	1.148550e-08	3.007446e+01	7.548131e+02
1.310000e-06	4.377965e-06	1.156584e-08	3.052211e+01	7.597032e+02
1.320000e-06	4.440768e-06	1.163915e-08	3.095996e+01	7.643131e+02
1.330000e-06	4.502161e-06	1.170474e-08	3.138798e+01	7.687147e+02
1.340000e-06	4.562058e-06	1.176616e-08	3.180556e+01	7.729826e+02
1.350000e-06	4.620149e-06	1.182714e-08	3.221056e+01	7.771605e+02
1.360000e-06	4.676491e-06	1.188766e-08	3.260336e+01	7.812421e+02
1.370000e-06	4.731277e-06	1.194642e-08	3.298532e+01	7.851756e+02
1.380000e-06	4.784309e-06	1.200297e-08	3.335504e+01	7.888888e+02
1.390000e-06	4.835254e-06	1.205525e-08	3.371022e+01	7.923246e+02
1.400000e-06	4.884199e-06	1.210333e-08	3.405146e+01	7.954690e+02
1.410000e-06	4.931434e-06	1.214782e-08	3.438076e+01	7.983603e+02
1.420000e-06	4.977045e-06	1.218900e-08	3.469875e+01	8.010749e+02
1.430000e-06	5.021016e-06	1.222798e-08	3.500531e+01	8.036949e+02
1.440000e-06	5.063055e-06	1.226659e-08	3.529839e+01	8.062739e+02
1.450000e-06	5.103218e-06	1.230541e-08	3.557840e+01	8.088146e+02
1.460000e-06	5.141741e-06	1.234178e-08	3.584697e+01	8.112683e+02
1.470000e-06	5.178609e-06	1.237646e-08	3.610401e+01	8.135579e+02
1.480000e-06	5.213595e-06	1.240902e-08	3.634793e+01	8.156127e+02
1.490000e-06	5.246548e-06	1.243818e-08	3.657766e+01	8.174011e+02
1.500000e-06	5.277746e-06	1.246207e-08	3.679517e+01	8.189459e+02
1.510000e-06	5.307304e-06	1.248230e-08	3.700124e+01	8.203162e+02
1.520000e-06	5.335022e-06	1.250371e-08	3.719448e+01	8.215996e+02
1.530000e-06	5.360621e-06	1.252592e-08	3.737295e+01	8.228652e+02
1.540000e-06	5.384181e-06	1.254632e-08	3.753721e+01	8.241353e+02
1.550000e-06	5.406001e-06	1.256320e-08	3.768933e+01	8.253772e+02
1.560000e-06	5.426091e-06	1.257874e-08	3.782939e+01	8.265180e+02
1.570000e-06	5.444249e-06	1.259333e-08	3.795599e+01	8.274771e+02
1.580000e-06	5.460382e-06	1.260376e-08	3.806846e+01	8.282021e+02
1.590000e-06	5.474505e-06	1.261154e-08	3.816692e+01	8.286917e+02
1.600000e-06	5.486482e-06	1.262074e-08	3.825043e+01	8.289971e+02
1.610000e-06	5.496254e-06	1.263001e-08	3.831855e+01	8.292010e+02
1.620000e-06	5.504069e-06	1.263611e-08	3.837304e+01	8.293829e+02
1.630000e-06	5.510092e-06	1.263788e-08	3.841503e+01	8.295858e+02
1.640000e-06	5.514267e-06	1.263872e-08	3.844413e+01	8.297992e+02
1.650000e-06	5.516390e-06	1.264321e-08	3.845894e+01	8.299652e+02
1.660000e-06	5.516543e-06	1.264720e-08	3.846000e+01	8.300038e+02
1.670000e-06	5.514972e-06	1.264135e-08	3.844905e+01	8.298485e+02
1.680000e-06	5.511690e-06	1.263165e-08	3.842617e+01	8.294745e+02
1.690000e-06	5.506519e-06	1.262514e-08	3.839012e+01	8.289095e+02
1.700000e-06	5.499405e-06	1.262012e-08	3.834052e+01	8.282208e+02
1.710000e-06	5.490601e-06	1.261295e-08	3.827914e+01	8.274858e+02
1.720000e-06	5.480095e-06	1.260442e-08	3.820590e+01	8.267589e+02
1.730000e-06	5.467622e-06	1.260961e-08	3.811894e+01	8.260481e+02
1.740000e-06	5.453135e-06	1.258031e-08	3.801794e+01	8.253132e+02
1.750000e-06	5.436575e-06	1.250517e-08	3.790249e+01	8.244849e+02
1.760000e-06	5.417422e-06	1.248236e-08	3.776895e+01	8.234973e+02
1.770000e-06	5.395529e-06	1.247763e-08	3.761632e+01	8.223187e+02
1.780000e-06	5.371702e-06	1.253223e-08	3.745021e+01	8.209681e+02
1.790000e-06	5.346904e-06	1.255820e-08	3.727732e+01	8.195082e+02
1.800000e-06	5.321226e-06	1.241375e-08	3.709830e+01	8.180199e+02
1.810000e-06	5.293576e-06	1.243874e-08	3.690553e+01	8.165660e+02
1.820000e-06	5.263616e-06	1.247255e-08	3.669665e+01	8.151626e+02
1.830000e-06	5.232098e-06	1.234354e-08	3.647692e+01	8.137680e+02
1.840000e-06	5.198875e-06	1.240475e-08	3.624530e+01	8.122961e+02
1.850000e-06	5.163842e-06	1.238987e-08	3.600105e+01	8.106471e+02
1.860000e-06	5.127030e-06	1.227609e-08	3.574442e+01	8.087449e+02
1.870000e-06	5.088124e-06	1.235180e-08	3.547317e+01	8.065643e+02
1.880000e-06	5.047507e-06	1.230274e-08	3.519000e+01	8.041377e+02
1.890000e-06	5.005249e-06	1.220085e-08	3.489539e+01	8.015395e+02
1.900000e-06	4.961030e-06	1.216348e-08	3.458710e+01	7.988541e+02
1.910000e-06	4.915100e-06	1.209102e-08	3.426689e+01	7.961420e+02
1.920000e-06	4.867345e-06	1.214623e-08	3.393395e+01	7.934182e+02
1.930000e-06	4.817784e-06	1.209292e-08	3.358843e+01	7.906507e+02
1.940000e-06	4.766473e-06	1.199400e-08	3.323069e+01	7.877787e+02
1.950000e-06	4.713096e-06	1.200292e-08	3.285857e+01	7.847426e+02
1.960000e-06	4.657901e-06	1.192077e-08	3.247376e+01	7.815114e+02
1.970000e-06	4.601036e-06	1.186732e-08	3.207731e+01	7.780952e+02
1.980000e-06	4.542545e-06	1.178654e-08	3.166953e+01	7.745387e+02
1.990000e-06	4.482418e-06	1.173251e-08	3.125034e+01	7.708988e+02
2.000000e-06	4.420558e-06	1.174228e-08	3.081906e+01	7.672161e+02
2.010000e-06	4.357168e-06	1.166810e-08	3.037712e+01	7.634947e+02
2.020000e-06	4.292262e-06	1.161955e-08	2.992461e+01	7.596988e+02
2.030000e-06	4.225931e-06	1.152377e-08	2.946217e+01	7.557676e+02
2.040000e-06	4.158094e-06	1.145212e-08	2.898923e+01	7.516426e+02
2.050000e-06	4.088519e-06	1.140783e-08	2.850417e+01	7.472936e+02
2.060000e-06	4.017422e-06	1.130917e-08	2.800849e+01	7.427321e+02
2.070000e-06	3.944980e-06	1.126404e-08	2.750345e+01	7.380063e+02
2.080000e-06	3.871162e-06	1.119643e-08	2.698881e+01	7.331779e+02
2.090000e-06	3.795699e-06	1.114298e-08	2.646270e+01	7.282935e+02
2.100000e-06	3.718549e-06	1.106246e-08	2.592482e+01	7.233604e+02
2.110000e-06	3.639967e-06	1.095386e-08	2.537697e+01	7.183409e+02
2.120000e-06	3.560137e-06	1.087646e-08	2.482042e+01	7.131660e+02
2.130000e-06	3.479149e-06	1.078523e-08	2.425578e+01	7.077640e+02
2.140000e-06	3.397040e-06	1.072758e-08	2.368334e+01	7.020909e+02
2.150000e-06	3.313751e-06	1.063764e-08	2.310267e+01	6.961497e+02
2.160000e-06	3.229170e-06	1.053521e-08	2.251299e+01	6.899881e+02
2.170000e-06	3.143339e-06	1.043841e-08	2.191460e+01	6.836780e+02
2.180000e-06	3.056347e-06	1.033403e-08	2.130811e+01	6.772817e+02
2.190000e-06	2.968379e-06	1.024068e-08	2.069482e+01	6.708233e+02
2.200000e-06	2.879459e-06	1.013287e-08	2.007489e+01	6.642756e+02
2.210000e-06	2.789576e-06	1.004254e-08	1.944825e+01	6.575697e+02
2.220000e-06	2.698809e-06	9.945627e-09	1.881544e+01	6.506237e+02
2.230000e-06	2.607057e-06	9.833827e-09	1.817577e+01	6.433769e+02
2.240000e-06	2.514309e-06	9.706315e-09	1.752915e+01	6.358152e+02
2.250000e-06	2.420597e-06	9.573209e-09	1.687582e+01	6.279751e+02
2.260000e-06	2.325926e-06	9.459256e-09	1.621579e+01	6.199247e+02
2.270000e-06	2.230436e-06	9.348997e-09	1.555006e+01	6.117283e+02
2.280000e-06	2.134228e-06	9.233329e-09	1.487932e+01	6.034127e+02
2.290000e-06	2.037289e-06	9.099925e-09	1.420349e+01	5.949479e+02
2.300000e-06	1.939678e-06	8.960973e-09	1.352296e+01	5.862539e+02
2.310000e-06	1.841536e-06	8.821924e-09	1.283874e+01	5.772307e+02
2.320000e-06	1.742839e-06	8.676320e-09	1.215065e+01	5.677983e+02
2.330000e-06	1.643566e-06	8.521785e-09	1.145854e+01	5.579301e+02
2.340000e-06	1.543736e-06	8.365793e-09	1.076255e+01	5.476613e+02
2.350000e-06	1.443282e-06	8.214571e-09	1.006222e+01	5.370698e+02
2.360000e-06	1.342268e-06	8.057920e-09	9.357967e+00	5.262346e+02
2.370000e-06	1.240739e-06	7.887809e-09	8.650135e+00	5.151904e+02
2.380000e-06	1.138659e-06	7.705419e-09	7.938454e+00	5.038991e+02
2.390000e-06	1.035994e-06	7.524152e-09	7.222699e+00	4.922525e+02
2.400000e-06	9.328641e-07	7.342500e-09	6.503703e+00	4.801075e+02
2.410000e-06	8.294160e-07	7.153098e-09	5.782487e+00	4.673400e+02
2.420000e-06	7.257493e-07	6.951544e-09	5.059749e+00	4.538932e+02
2.430000e-06	6.219068e-07	6.736078e-09	4.335784e+00	4.397985e+02
2.440000e-06	5.179028e-07	6.513212e-09	3.610693e+00	4.251551e+02
2.450000e-06	4.137656e-07	6.284783e-09	2.884674e+00	4.100749e+02
2.460000e-06	3.094851e-07	6.047092e-09	2.157655e+00	3.946132e+02
2.470000e-06	2.051196e-07	5.800169e-09	1.430045e+00	3.787168e+02
2.480000e-06	1.007045e-07	5.545996e-09	7.020876e-01	3.622134e+02
2.490000e-06	-3.752074e-09	5.280263e-09	-2.615855e-02	3.448531e+02
2.500000e-06	-1.081892e-07	4.997590e-09	-7.542692e-01	3.263858e+02
2.510000e-06	-2.125795e-07	4.694613e-09	-1.482053e+00	3.066442e+02
2.520000e-06	-3.169194e-07	4.377198e-09	-2.209485e+00	2.855890e+02
2.530000e-06	-4.211824e-07	4.046570e-09	-2.936381e+00	2.632884e+02
2.540000e-06	-5.252972e-07	3.693448e-09	-3.662245e+00	2.398258e+02
2.550000e-06	-6.292162e-07	3.314068e-09	-4.386743e+00	2.151617e+02
2.560000e-06	-7.328912e-07	2.910211e-09	-5.109540e+00	1.890012e+02
2.570000e-06	-8.362869e-07	2.476260e-09	-5.830390e+00	1.607280e+02
2.580000e-06	-9.394262e-07	1.997462e-09	-6.549453e+00	1.294493e+02
2.590000e-06	-1.042212e-06	1.461710e-09	-7.266053e+00	9.416489e+01
2.600000e-06	-1.144588e-06	8.613071e-10	-7.979789e+00	5.402997e+01
2.610000e-06	-1.246482e-06	1.882586e-10	-8.690171e+00	8.642283e+00
2.620000e-06	-1.347805e-06	-5.653352e-10	-9.396571e+00	-4.173098e+01
2.630000e-06	-1.448538e-06	-1.395501e-09	-1.009885e+01	-9.606314e+01
2.640000e-06	-1.548585e-06	-2.273014e-09	-1.079636e+01	-1.526549e+02
2.650000e-06	-1.647956e-06	-3.153654e-09	-1.148915e+01	-2.093872e+02
2.660000e-06	-1.746789e-06	-3.996580e-09	-1.217819e+01	-2.640804e+02
2.670000e-06	-1.845147e-06	-4.772410e-09	-1.286392e+01	-3.148666e+02
2.680000e-06	-1.942960e-06	-5.467570e-09	-1.354585e+01	-3.604809e+02
2.690000e-06	-2.040082e-06	-6.077396e-09	-1.422296e+01	-4.004002e+02
2.700000e-06	-2.136463e-06	-6.605326e-09	-1.489490e+01	-4.348068e+02
2.710000e-06	-2.232150e-06	-7.065408e-09	-1.556201e+01	-4.644036e+02
2.720000e-06	-2.327244e-06	-7.473590e-09	-1.622498e+01	-4.901486e+02
2.730000e-06	-2.421720e-06	-7.834701e-09	-1.688364e+01	-5.129899e+02
2.740000e-06	-2.515243e-06	-8.153068e-09	-1.753566e+01	-5.336737e+02
2.750000e-06	-2.607574e-06	-8.439747e-09	-1.817938e+01	-5.526630e+02
2.760000e-06	-2.698825e-06	-8.703842e-09	-1.881555e+01	-5.701665e+02
2.770000e-06	-2.789145e-06	-8.949045e-09	-1.944524e+01	-5.862406e+02
2.780000e-06	-2.878481e-06	-9.173450e-09	-2.006807e+01	-6.009102e+02
2.790000e-06	-2.966781e-06	-9.377966e-09	-2.068368e+01	-6.142603e+02
2.800000e-06	-3.054127e-06	-9.567514e-09	-2.129264e+01	-6.264674e+02
2.810000e-06	-3.140583e-06	-9.746431e-09	-2.189539e+01	-6.377724e+02
2.820000e-06	-3.225817e-06	-9.914219e-09	-2.248962e+01	-6.484158e+02
2.830000e-06	-3.309584e-06	-1.006861e-08	-2.307362e+01	-6.585720e+02
2.840000e-06	-3.392193e-06	-1.021417e-08	-2.364955e+01	-6.683122e+02
2.850000e-06	-3.473735e-06	-1.035380e-08	-2.421804e+01	-6.776115e+02
2.860000e-06	-3.554111e-06	-1.048557e-08	-2.477840e+01	-6.863917e+02
2.870000e-06	-3.633376e-06	-1.060626e-08	-2.533102e+01	-6.945818e+02
2.880000e-06	-3.711269e-06	-1.071986e-08	-2.587407e+01	-7.021670e+02
2.890000e-06	-3.787461e-06	-1.083038e-08	-2.640526e+01	-7.092070e+02
2.900000e-06	-3.862153e-06	-1.093612e-08	-2.692599e+01	-7.158193e+02
2.910000e-06	-3.935489e-06	-1.103595e-08	-2.743728e+01	-7.221375e+02
2.920000e-06	-4.007456e-06	-1.113180e-08	-2.793902e+01	-7.282639e+02
2.930000e-06	-4.078129e-06	-1.122420e-08	-2.843173e+01	-7.342400e+02
2.940000e-06	-4.147188e-06	-1.130956e-08	-2.891319e+01	-7.400431e+02
