# Temperatura_=_61.96
# Concentracion g/m^3_=_13400.0
# C_Vs_to_Am_M_A/Vsm_=_65563218390.804596
# pendiente_HvsI_1/m_=_3716.3
# ordenada_HvsI_A/m_=_1297.0
# frecuencia_Hz_=_300797.55157365714

Tiempo_(s)	Campo_(V.s)	Magnetizacion_(V.s)	Campo_(kA/m)	Magnetizacion_(A/m)
0.000000e+00	-5.488409e-06	-1.255393e-08	-3.830666e+01	-8.230757e+02
1.000000e-08	-5.486442e-06	-1.256166e-08	-3.829293e+01	-8.228704e+02
2.000000e-08	-5.482504e-06	-1.255767e-08	-3.826545e+01	-8.224301e+02
3.000000e-08	-5.476868e-06	-1.254548e-08	-3.822611e+01	-8.217911e+02
4.000000e-08	-5.469591e-06	-1.253227e-08	-3.817532e+01	-8.210318e+02
5.000000e-08	-5.460669e-06	-1.251719e-08	-3.811305e+01	-8.202392e+02
6.000000e-08	-5.449788e-06	-1.249761e-08	-3.803710e+01	-8.194726e+02
7.000000e-08	-5.436820e-06	-1.246092e-08	-3.794659e+01	-8.187398e+02
8.000000e-08	-5.421845e-06	-1.244654e-08	-3.784207e+01	-8.179947e+02
9.000000e-08	-5.404488e-06	-1.251937e-08	-3.772093e+01	-8.171596e+02
1.000000e-07	-5.384792e-06	-1.253255e-08	-3.758346e+01	-8.161601e+02
1.100000e-07	-5.363100e-06	-1.248077e-08	-3.743206e+01	-8.149587e+02
1.200000e-07	-5.339653e-06	-1.244874e-08	-3.726840e+01	-8.135720e+02
1.300000e-07	-5.314873e-06	-1.230158e-08	-3.709546e+01	-8.120649e+02
1.400000e-07	-5.288633e-06	-1.232097e-08	-3.691231e+01	-8.105218e+02
1.500000e-07	-5.260432e-06	-1.243379e-08	-3.671548e+01	-8.090101e+02
1.600000e-07	-5.230434e-06	-1.223222e-08	-3.650611e+01	-8.075482e+02
1.700000e-07	-5.198857e-06	-1.227839e-08	-3.628571e+01	-8.060948e+02
1.800000e-07	-5.165297e-06	-1.237058e-08	-3.605148e+01	-8.045611e+02
1.900000e-07	-5.129744e-06	-1.217873e-08	-3.580334e+01	-8.028444e+02
2.000000e-07	-5.092677e-06	-1.223913e-08	-3.554462e+01	-8.008663e+02
2.100000e-07	-5.053929e-06	-1.219429e-08	-3.527418e+01	-7.986017e+02
2.200000e-07	-5.013413e-06	-1.204010e-08	-3.499140e+01	-7.960867e+02
2.300000e-07	-4.970960e-06	-1.212275e-08	-3.469509e+01	-7.934019e+02
2.400000e-07	-4.926526e-06	-1.209252e-08	-3.438497e+01	-7.906391e+02
2.500000e-07	-4.880344e-06	-1.203569e-08	-3.406263e+01	-7.878653e+02
2.600000e-07	-4.832324e-06	-1.199196e-08	-3.372748e+01	-7.850980e+02
2.700000e-07	-4.782319e-06	-1.187631e-08	-3.337846e+01	-7.823033e+02
2.800000e-07	-4.730191e-06	-1.188240e-08	-3.301463e+01	-7.794135e+02
2.900000e-07	-4.676138e-06	-1.185342e-08	-3.263737e+01	-7.763591e+02
3.000000e-07	-4.620455e-06	-1.178172e-08	-3.224872e+01	-7.730983e+02
3.100000e-07	-4.563148e-06	-1.172607e-08	-3.184875e+01	-7.696331e+02
3.200000e-07	-4.504026e-06	-1.170121e-08	-3.143610e+01	-7.660057e+02
3.300000e-07	-4.443262e-06	-1.167067e-08	-3.101200e+01	-7.622762e+02
3.400000e-07	-4.381043e-06	-1.155109e-08	-3.057774e+01	-7.584941e+02
3.500000e-07	-4.317363e-06	-1.148807e-08	-3.013327e+01	-7.546757e+02
3.600000e-07	-4.252273e-06	-1.142193e-08	-2.967898e+01	-7.507962e+02
3.700000e-07	-4.185504e-06	-1.137504e-08	-2.921296e+01	-7.468018e+02
3.800000e-07	-4.116979e-06	-1.136320e-08	-2.873468e+01	-7.426341e+02
3.900000e-07	-4.046968e-06	-1.126810e-08	-2.824604e+01	-7.382556e+02
4.000000e-07	-3.975645e-06	-1.119189e-08	-2.774823e+01	-7.336661e+02
4.100000e-07	-3.903152e-06	-1.112037e-08	-2.724227e+01	-7.289008e+02
4.200000e-07	-3.829280e-06	-1.104164e-08	-2.672667e+01	-7.240121e+02
4.300000e-07	-3.753614e-06	-1.095061e-08	-2.619856e+01	-7.190439e+02
4.400000e-07	-3.676271e-06	-1.086246e-08	-2.565874e+01	-7.140088e+02
4.500000e-07	-3.597561e-06	-1.081296e-08	-2.510938e+01	-7.088807e+02
4.600000e-07	-3.517402e-06	-1.074717e-08	-2.454990e+01	-7.036044e+02
4.700000e-07	-3.435804e-06	-1.066622e-08	-2.398039e+01	-6.981191e+02
4.800000e-07	-3.352983e-06	-1.055339e-08	-2.340233e+01	-6.923849e+02
4.900000e-07	-3.269046e-06	-1.044229e-08	-2.281649e+01	-6.864004e+02
5.000000e-07	-3.184186e-06	-1.036163e-08	-2.222420e+01	-6.802020e+02
5.100000e-07	-3.098402e-06	-1.027750e-08	-2.162547e+01	-6.738471e+02
5.200000e-07	-3.011577e-06	-1.018596e-08	-2.101947e+01	-6.673866e+02
5.300000e-07	-2.923810e-06	-1.008190e-08	-2.040690e+01	-6.608394e+02
5.400000e-07	-2.835131e-06	-9.978042e-09	-1.978795e+01	-6.541824e+02
5.500000e-07	-2.745439e-06	-9.871092e-09	-1.916195e+01	-6.473574e+02
5.600000e-07	-2.654534e-06	-9.747990e-09	-1.852747e+01	-6.402954e+02
5.700000e-07	-2.562482e-06	-9.625348e-09	-1.788499e+01	-6.329452e+02
5.800000e-07	-2.469601e-06	-9.515426e-09	-1.723672e+01	-6.252941e+02
5.900000e-07	-2.375964e-06	-9.415912e-09	-1.658317e+01	-6.173710e+02
6.000000e-07	-2.281540e-06	-9.299454e-09	-1.592413e+01	-6.092301e+02
6.100000e-07	-2.186352e-06	-9.164004e-09	-1.525977e+01	-6.009217e+02
6.200000e-07	-2.090445e-06	-9.021482e-09	-1.459038e+01	-5.924650e+02
6.300000e-07	-1.993817e-06	-8.880784e-09	-1.391596e+01	-5.838338e+02
6.400000e-07	-1.896445e-06	-8.745846e-09	-1.323635e+01	-5.749640e+02
6.500000e-07	-1.798259e-06	-8.603243e-09	-1.255105e+01	-5.657787e+02
6.600000e-07	-1.699168e-06	-8.458531e-09	-1.185944e+01	-5.562206e+02
6.700000e-07	-1.599278e-06	-8.316482e-09	-1.116225e+01	-5.462759e+02
6.800000e-07	-1.498861e-06	-8.168665e-09	-1.046138e+01	-5.359780e+02
6.900000e-07	-1.398028e-06	-8.000082e-09	-9.757617e+00	-5.253867e+02
7.000000e-07	-1.296786e-06	-7.820226e-09	-9.050989e+00	-5.145531e+02
7.100000e-07	-1.195133e-06	-7.646917e-09	-8.341497e+00	-5.034838e+02
7.200000e-07	-1.093093e-06	-7.477885e-09	-7.629305e+00	-4.921239e+02
7.300000e-07	-9.906953e-07	-7.301199e-09	-6.914613e+00	-4.803660e+02
7.400000e-07	-8.879073e-07	-7.108655e-09	-6.197198e+00	-4.680865e+02
7.500000e-07	-7.847717e-07	-6.909453e-09	-5.477358e+00	-4.551919e+02
7.600000e-07	-6.813635e-07	-6.706483e-09	-4.755615e+00	-4.416552e+02
7.700000e-07	-5.777416e-07	-6.494247e-09	-4.032380e+00	-4.275234e+02
7.800000e-07	-4.739104e-07	-6.267095e-09	-3.307684e+00	-4.128894e+02
7.900000e-07	-3.699485e-07	-6.034002e-09	-2.582076e+00	-3.978367e+02
8.000000e-07	-2.659104e-07	-5.804790e-09	-1.855937e+00	-3.823796e+02
8.100000e-07	-1.617819e-07	-5.567732e-09	-1.129166e+00	-3.664267e+02
8.200000e-07	-5.760915e-08	-5.309494e-09	-4.020863e-01	-3.497861e+02
8.300000e-07	4.660038e-08	-5.028490e-09	3.252500e-01	-3.322160e+02
8.400000e-07	1.507625e-07	-4.737453e-09	1.052255e+00	-3.135020e+02
8.500000e-07	2.548127e-07	-4.440835e-09	1.778480e+00	-2.935250e+02
8.600000e-07	3.587980e-07	-4.127794e-09	2.504251e+00	-2.722862e+02
8.700000e-07	4.627136e-07	-3.788014e-09	3.229536e+00	-2.498638e+02
8.800000e-07	5.665149e-07	-3.425852e-09	3.954022e+00	-2.263066e+02
8.900000e-07	6.700884e-07	-3.044887e-09	4.676919e+00	-2.014972e+02
9.000000e-07	7.734055e-07	-2.635143e-09	5.398027e+00	-1.750379e+02
9.100000e-07	8.765246e-07	-2.183163e-09	6.117752e+00	-1.462160e+02
9.200000e-07	9.793441e-07	-1.681286e-09	6.835387e+00	-1.140858e+02
9.300000e-07	1.081789e-06	-1.127288e-09	7.550408e+00	-7.766713e+01
9.400000e-07	1.183830e-06	-5.074654e-10	8.262611e+00	-3.622073e+01
9.500000e-07	1.285445e-06	1.953797e-10	8.971836e+00	1.047575e+01
9.600000e-07	1.386688e-06	9.846064e-10	9.678467e+00	6.193380e+01
9.700000e-07	1.487582e-06	1.838069e-09	1.038266e+01	1.169113e+02
9.800000e-07	1.588035e-06	2.716592e-09	1.108378e+01	1.735484e+02
9.900000e-07	1.687880e-06	3.577732e-09	1.178065e+01	2.296574e+02
1.000000e-06	1.786968e-06	4.384591e-09	1.247225e+01	2.830971e+02
1.010000e-06	1.885239e-06	5.113240e-09	1.315813e+01	3.321350e+02
1.020000e-06	1.982712e-06	5.756007e-09	1.383845e+01	3.757054e+02
1.030000e-06	2.079444e-06	6.318471e-09	1.451359e+01	4.135034e+02
1.040000e-06	2.175464e-06	6.807200e-09	1.518377e+01	4.459036e+02
1.050000e-06	2.270797e-06	7.233395e-09	1.584915e+01	4.737425e+02
1.060000e-06	2.365421e-06	7.608581e-09	1.650959e+01	4.980380e+02
1.070000e-06	2.459249e-06	7.944352e-09	1.716447e+01	5.197311e+02
1.080000e-06	2.552310e-06	8.244869e-09	1.781399e+01	5.395148e+02
1.090000e-06	2.644590e-06	8.515128e-09	1.845806e+01	5.577804e+02
1.100000e-06	2.735817e-06	8.762550e-09	1.909479e+01	5.746721e+02
1.110000e-06	2.825841e-06	8.991560e-09	1.972312e+01	5.902036e+02
1.120000e-06	2.914784e-06	9.205327e-09	2.034390e+01	6.043835e+02
1.130000e-06	3.002701e-06	9.403082e-09	2.095752e+01	6.172989e+02
1.140000e-06	3.089591e-06	9.585701e-09	2.156397e+01	6.291353e+02
1.150000e-06	3.175437e-06	9.756672e-09	2.216314e+01	6.401374e+02
1.160000e-06	3.260330e-06	9.918232e-09	2.275566e+01	6.505377e+02
1.170000e-06	3.344231e-06	1.006873e-08	2.334125e+01	6.604920e+02
1.180000e-06	3.426855e-06	1.021065e-08	2.391792e+01	6.700483e+02
1.190000e-06	3.508191e-06	1.034827e-08	2.448561e+01	6.791617e+02
1.200000e-06	3.588290e-06	1.048036e-08	2.504467e+01	6.877458e+02
1.210000e-06	3.667062e-06	1.060071e-08	2.559447e+01	6.957340e+02
1.220000e-06	3.744519e-06	1.071083e-08	2.613508e+01	7.031258e+02
1.230000e-06	3.820621e-06	1.081701e-08	2.666624e+01	7.099990e+02
1.240000e-06	3.895141e-06	1.091941e-08	2.718635e+01	7.164846e+02
1.250000e-06	3.968084e-06	1.101601e-08	2.769547e+01	7.227197e+02
1.260000e-06	4.039646e-06	1.110631e-08	2.819493e+01	7.287996e+02
1.270000e-06	4.109864e-06	1.119359e-08	2.868503e+01	7.347498e+02
1.280000e-06	4.178752e-06	1.128103e-08	2.916583e+01	7.405303e+02
1.290000e-06	4.246072e-06	1.136662e-08	2.963570e+01	7.460663e+02
1.300000e-06	4.311698e-06	1.144745e-08	3.009374e+01	7.512917e+02
1.310000e-06	4.375764e-06	1.152150e-08	3.054089e+01	7.561846e+02
1.320000e-06	4.438380e-06	1.159024e-08	3.097792e+01	7.607800e+02
1.330000e-06	4.499654e-06	1.165574e-08	3.140559e+01	7.651547e+02
1.340000e-06	4.559439e-06	1.171981e-08	3.182286e+01	7.693926e+02
1.350000e-06	4.617451e-06	1.178375e-08	3.222775e+01	7.735475e+02
1.360000e-06	4.673704e-06	1.184597e-08	3.262037e+01	7.776205e+02
1.370000e-06	4.728331e-06	1.190655e-08	3.300165e+01	7.815607e+02
1.380000e-06	4.781176e-06	1.196376e-08	3.337049e+01	7.852911e+02
1.390000e-06	4.831959e-06	1.201400e-08	3.372493e+01	7.887449e+02
1.400000e-06	4.880771e-06	1.206024e-08	3.406561e+01	7.918984e+02
1.410000e-06	4.927916e-06	1.210470e-08	3.439466e+01	7.947832e+02
1.420000e-06	4.973486e-06	1.214680e-08	3.471272e+01	7.974748e+02
1.430000e-06	5.017327e-06	1.218738e-08	3.501871e+01	8.000607e+02
1.440000e-06	5.059218e-06	1.222767e-08	3.531110e+01	8.026034e+02
1.450000e-06	5.099255e-06	1.226768e-08	3.559054e+01	8.051145e+02
1.460000e-06	5.137616e-06	1.230377e-08	3.585828e+01	8.075512e+02
1.470000e-06	5.174360e-06	1.233708e-08	3.611473e+01	8.098363e+02
1.480000e-06	5.209201e-06	1.236892e-08	3.635791e+01	8.118938e+02
1.490000e-06	5.242041e-06	1.239805e-08	3.658712e+01	8.136838e+02
1.500000e-06	5.273155e-06	1.242247e-08	3.680428e+01	8.152212e+02
1.510000e-06	5.302614e-06	1.244360e-08	3.700989e+01	8.165712e+02
1.520000e-06	5.330204e-06	1.246554e-08	3.720245e+01	8.178219e+02
1.530000e-06	5.355671e-06	1.248836e-08	3.738021e+01	8.190471e+02
1.540000e-06	5.379173e-06	1.251008e-08	3.754424e+01	8.202762e+02
1.550000e-06	5.400940e-06	1.252673e-08	3.769616e+01	8.214818e+02
1.560000e-06	5.420946e-06	1.254068e-08	3.783580e+01	8.225933e+02
1.570000e-06	5.438978e-06	1.255450e-08	3.796165e+01	8.235287e+02
1.580000e-06	5.454992e-06	1.256576e-08	3.807342e+01	8.242318e+02
1.590000e-06	5.469077e-06	1.257443e-08	3.817173e+01	8.246975e+02
1.600000e-06	5.481000e-06	1.258173e-08	3.825495e+01	8.249760e+02
1.610000e-06	5.490679e-06	1.258836e-08	3.832250e+01	8.251524e+02
1.620000e-06	5.498360e-06	1.259470e-08	3.837611e+01	8.253111e+02
1.630000e-06	5.504216e-06	1.259952e-08	3.841698e+01	8.255002e+02
1.640000e-06	5.508260e-06	1.260252e-08	3.844521e+01	8.257114e+02
1.650000e-06	5.510287e-06	1.260589e-08	3.845935e+01	8.258840e+02
1.660000e-06	5.510379e-06	1.260758e-08	3.846000e+01	8.259305e+02
1.670000e-06	5.508764e-06	1.259885e-08	3.844872e+01	8.257747e+02
1.680000e-06	5.505424e-06	1.259145e-08	3.842542e+01	8.253834e+02
1.690000e-06	5.500131e-06	1.258618e-08	3.838847e+01	8.247813e+02
1.700000e-06	5.492938e-06	1.258014e-08	3.833826e+01	8.240400e+02
1.710000e-06	5.484122e-06	1.257298e-08	3.827674e+01	8.232480e+02
1.720000e-06	5.473585e-06	1.256594e-08	3.820319e+01	8.224731e+02
1.730000e-06	5.461075e-06	1.258711e-08	3.811588e+01	8.217351e+02
1.740000e-06	5.446576e-06	1.254034e-08	3.801468e+01	8.209985e+02
1.750000e-06	5.430009e-06	1.243881e-08	3.789905e+01	8.201895e+02
1.760000e-06	5.410834e-06	1.244042e-08	3.776521e+01	8.192300e+02
1.770000e-06	5.388918e-06	1.243655e-08	3.761226e+01	8.180722e+02
1.780000e-06	5.365009e-06	1.253374e-08	3.744538e+01	8.167210e+02
1.790000e-06	5.340145e-06	1.254669e-08	3.727184e+01	8.152325e+02
1.800000e-06	5.314488e-06	1.230784e-08	3.709277e+01	8.136902e+02
1.810000e-06	5.286801e-06	1.243070e-08	3.689952e+01	8.121681e+02
1.820000e-06	5.256822e-06	1.243920e-08	3.669028e+01	8.106969e+02
1.830000e-06	5.225331e-06	1.221328e-08	3.647049e+01	8.092478e+02
1.840000e-06	5.191997e-06	1.239387e-08	3.623783e+01	8.077399e+02
1.850000e-06	5.156944e-06	1.230189e-08	3.599318e+01	8.060703e+02
1.860000e-06	5.120186e-06	1.214264e-08	3.573663e+01	8.041523e+02
1.870000e-06	5.081234e-06	1.233880e-08	3.546476e+01	8.019479e+02
1.880000e-06	5.040609e-06	1.216886e-08	3.518122e+01	7.994807e+02
1.890000e-06	4.998339e-06	1.210701e-08	3.488619e+01	7.968242e+02
1.900000e-06	4.954112e-06	1.212841e-08	3.457750e+01	7.940711e+02
1.910000e-06	4.908182e-06	1.195063e-08	3.425693e+01	7.912961e+02
1.920000e-06	4.860390e-06	1.210320e-08	3.392336e+01	7.885286e+02
1.930000e-06	4.810839e-06	1.199264e-08	3.357752e+01	7.857446e+02
1.940000e-06	4.759531e-06	1.186483e-08	3.321941e+01	7.828814e+02
1.950000e-06	4.706043e-06	1.193912e-08	3.284609e+01	7.798669e+02
1.960000e-06	4.650797e-06	1.180623e-08	3.246049e+01	7.766516e+02
1.970000e-06	4.593927e-06	1.179664e-08	3.206357e+01	7.732277e+02
1.980000e-06	4.535456e-06	1.167489e-08	3.165547e+01	7.696300e+02
1.990000e-06	4.475435e-06	1.164292e-08	3.123655e+01	7.659173e+02
2.000000e-06	4.413608e-06	1.166810e-08	3.080502e+01	7.621436e+02
2.010000e-06	4.350215e-06	1.153554e-08	3.036257e+01	7.583336e+02
2.020000e-06	4.285279e-06	1.155423e-08	2.990934e+01	7.544709e+02
2.030000e-06	4.218881e-06	1.140502e-08	2.944591e+01	7.505062e+02
2.040000e-06	4.151048e-06	1.135122e-08	2.897247e+01	7.463797e+02
2.050000e-06	4.081438e-06	1.131735e-08	2.848662e+01	7.420476e+02
2.060000e-06	4.010284e-06	1.118358e-08	2.799000e+01	7.375013e+02
2.070000e-06	3.937824e-06	1.118689e-08	2.748426e+01	7.327693e+02
2.080000e-06	3.864023e-06	1.108481e-08	2.696917e+01	7.279026e+02
2.090000e-06	3.788653e-06	1.106148e-08	2.644312e+01	7.229489e+02
2.100000e-06	3.711567e-06	1.096233e-08	2.590509e+01	7.179289e+02
2.110000e-06	3.633019e-06	1.083895e-08	2.535686e+01	7.128246e+02
2.120000e-06	3.553245e-06	1.077305e-08	2.480007e+01	7.075853e+02
2.130000e-06	3.472348e-06	1.066447e-08	2.423545e+01	7.021490e+02
2.140000e-06	3.390280e-06	1.063589e-08	2.366265e+01	6.964696e+02
2.150000e-06	3.307112e-06	1.052925e-08	2.308217e+01	6.905367e+02
2.160000e-06	3.222651e-06	1.044226e-08	2.249268e+01	6.843795e+02
2.170000e-06	3.136773e-06	1.033861e-08	2.189328e+01	6.780531e+02
2.180000e-06	3.049807e-06	1.022407e-08	2.128630e+01	6.716120e+02
2.190000e-06	2.961889e-06	1.013556e-08	2.067267e+01	6.650838e+02
2.200000e-06	2.873055e-06	1.002224e-08	2.005265e+01	6.584542e+02
2.210000e-06	2.783287e-06	9.941455e-09	1.942610e+01	6.516710e+02
2.220000e-06	2.692624e-06	9.838021e-09	1.879332e+01	6.446649e+02
2.230000e-06	2.601077e-06	9.729616e-09	1.815436e+01	6.373789e+02
2.240000e-06	2.508492e-06	9.595893e-09	1.750816e+01	6.297910e+02
2.250000e-06	2.414749e-06	9.466442e-09	1.685388e+01	6.219220e+02
2.260000e-06	2.320015e-06	9.350411e-09	1.619267e+01	6.138228e+02
2.270000e-06	2.224561e-06	9.239415e-09	1.552645e+01	6.055472e+02
2.280000e-06	2.128410e-06	9.124248e-09	1.485535e+01	5.971227e+02
2.290000e-06	2.031529e-06	8.986074e-09	1.417917e+01	5.885332e+02
2.300000e-06	1.933966e-06	8.845063e-09	1.349823e+01	5.797209e+02
2.310000e-06	1.835826e-06	8.696632e-09	1.281325e+01	5.706090e+02
2.320000e-06	1.737175e-06	8.552161e-09	1.212471e+01	5.611335e+02
2.330000e-06	1.638060e-06	8.397681e-09	1.143293e+01	5.512702e+02
2.340000e-06	1.538453e-06	8.253593e-09	1.073772e+01	5.410433e+02
2.350000e-06	1.438227e-06	8.107990e-09	1.003819e+01	5.305095e+02
2.360000e-06	1.337315e-06	7.948125e-09	9.333862e+00	5.197252e+02
2.370000e-06	1.235722e-06	7.774189e-09	8.624793e+00	5.087088e+02
2.380000e-06	1.133605e-06	7.588339e-09	7.912059e+00	4.974186e+02
2.390000e-06	1.031065e-06	7.409600e-09	7.196375e+00	4.857564e+02
2.400000e-06	9.280782e-07	7.225793e-09	6.477574e+00	4.735982e+02
2.410000e-06	8.247399e-07	7.036628e-09	5.756318e+00	4.608402e+02
2.420000e-06	7.211444e-07	6.837820e-09	5.033267e+00	4.474393e+02
2.430000e-06	6.173809e-07	6.629336e-09	4.309045e+00	4.334279e+02
2.440000e-06	5.134879e-07	6.411167e-09	3.583918e+00	4.188931e+02
2.450000e-06	4.094019e-07	6.180241e-09	2.857444e+00	4.039256e+02
2.460000e-06	3.052067e-07	5.938038e-09	2.130207e+00	3.885589e+02
2.470000e-06	2.009636e-07	5.691587e-09	1.402636e+00	3.727254e+02
2.480000e-06	9.661805e-08	5.442778e-09	6.743511e-01	3.562517e+02
2.490000e-06	-7.762384e-09	5.181685e-09	-5.417799e-02	3.389009e+02
2.500000e-06	-1.121299e-07	4.899456e-09	-7.826167e-01	3.204459e+02
2.510000e-06	-2.164294e-07	4.595803e-09	-1.510581e+00	3.007433e+02
2.520000e-06	-3.206182e-07	4.279405e-09	-2.237772e+00	2.797695e+02
2.530000e-06	-4.247356e-07	3.949762e-09	-2.964466e+00	2.575934e+02
2.540000e-06	-5.287327e-07	3.598725e-09	-3.690319e+00	2.342814e+02
2.550000e-06	-6.325425e-07	3.221890e-09	-4.414866e+00	2.097630e+02
2.560000e-06	-7.361558e-07	2.822310e-09	-5.138041e+00	1.837068e+02
2.570000e-06	-8.395477e-07	2.390219e-09	-5.859670e+00	1.554650e+02
2.580000e-06	-9.426284e-07	1.909731e-09	-6.579128e+00	1.241287e+02
2.590000e-06	-1.045247e-06	1.370032e-09	-7.295358e+00	8.870381e+01
2.600000e-06	-1.147352e-06	7.640044e-10	-8.008009e+00	4.837475e+01
2.610000e-06	-1.248958e-06	8.652109e-11	-8.717169e+00	2.788090e+00
2.620000e-06	-1.350040e-06	-6.701459e-10	-9.422678e+00	-4.772950e+01
2.630000e-06	-1.450577e-06	-1.498974e-09	-1.012438e+01	-1.020920e+02
2.640000e-06	-1.550528e-06	-2.371151e-09	-1.082200e+01	-1.585521e+02
2.650000e-06	-1.649862e-06	-3.245485e-09	-1.151530e+01	-2.149621e+02
2.660000e-06	-1.748583e-06	-4.081838e-09	-1.220433e+01	-2.691386e+02
2.670000e-06	-1.846735e-06	-4.849100e-09	-1.288939e+01	-3.192349e+02
2.680000e-06	-1.944353e-06	-5.531896e-09	-1.357072e+01	-3.640285e+02
2.690000e-06	-2.041354e-06	-6.126937e-09	-1.424774e+01	-4.030526e+02
2.700000e-06	-2.137618e-06	-6.639980e-09	-1.491963e+01	-4.365508e+02
2.710000e-06	-2.233243e-06	-7.087045e-09	-1.558704e+01	-4.652834e+02
2.720000e-06	-2.328338e-06	-7.483005e-09	-1.625077e+01	-4.902532e+02
2.730000e-06	-2.422699e-06	-7.830778e-09	-1.690936e+01	-5.124357e+02
2.740000e-06	-2.515998e-06	-8.138996e-09	-1.756055e+01	-5.325856e+02
2.750000e-06	-2.608184e-06	-8.421653e-09	-1.820396e+01	-5.511576e+02
2.760000e-06	-2.699316e-06	-8.682692e-09	-1.884003e+01	-5.683403e+02
2.770000e-06	-2.789472e-06	-8.921775e-09	-1.946928e+01	-5.841642e+02
2.780000e-06	-2.878637e-06	-9.140332e-09	-2.009161e+01	-5.986299e+02
2.790000e-06	-2.966814e-06	-9.344952e-09	-2.070704e+01	-6.118038e+02
2.800000e-06	-3.054091e-06	-9.536768e-09	-2.131620e+01	-6.238521e+02
2.810000e-06	-3.140293e-06	-9.712448e-09	-2.191785e+01	-6.350119e+02
2.820000e-06	-3.225244e-06	-9.873415e-09	-2.251077e+01	-6.455248e+02
2.830000e-06	-3.308940e-06	-1.002548e-08	-2.309493e+01	-6.555671e+02
2.840000e-06	-3.391451e-06	-1.017356e-08	-2.367082e+01	-6.652099e+02
2.850000e-06	-3.472870e-06	-1.031383e-08	-2.423909e+01	-6.744252e+02
2.860000e-06	-3.553166e-06	-1.044166e-08	-2.479952e+01	-6.831300e+02
2.870000e-06	-3.632264e-06	-1.055926e-08	-2.535159e+01	-6.912488e+02
2.880000e-06	-3.709887e-06	-1.067474e-08	-2.589336e+01	-6.987645e+02
2.890000e-06	-3.785946e-06	-1.078761e-08	-2.642422e+01	-7.057391e+02
2.900000e-06	-3.860608e-06	-1.089067e-08	-2.694533e+01	-7.122957e+02
2.910000e-06	-3.933772e-06	-1.098462e-08	-2.745598e+01	-7.185746e+02
2.920000e-06	-4.005566e-06	-1.107711e-08	-2.795707e+01	-7.246832e+02
2.930000e-06	-4.076087e-06	-1.117165e-08	-2.844927e+01	-7.306628e+02
2.940000e-06	-4.145037e-06	-1.126370e-08	-2.893052e+01	-7.364856e+02
