# Temperatura_=_26.44
# Concentracion g/m^3_=_13400.0
# C_Vs_to_Am_M_A/Vsm_=_65563218390.804596
# pendiente_HvsI_1/m_=_3716.3
# ordenada_HvsI_A/m_=_1297.0
# frecuencia_Hz_=_300808.5267588592

Tiempo_(s)	Campo_(V.s)	Magnetizacion_(V.s)	Campo_(kA/m)	Magnetizacion_(A/m)
0.000000e+00	-5.520713e-06	-1.202396e-08	-3.830693e+01	-7.879658e+02
1.000000e-08	-5.518815e-06	-1.202525e-08	-3.829376e+01	-7.879230e+02
2.000000e-08	-5.514951e-06	-1.202417e-08	-3.826695e+01	-7.877242e+02
3.000000e-08	-5.509372e-06	-1.201848e-08	-3.822824e+01	-7.873479e+02
4.000000e-08	-5.502196e-06	-1.200808e-08	-3.817844e+01	-7.868105e+02
5.000000e-08	-5.493344e-06	-1.199357e-08	-3.811702e+01	-7.861587e+02
6.000000e-08	-5.482487e-06	-1.197850e-08	-3.804169e+01	-7.854490e+02
7.000000e-08	-5.469515e-06	-1.196309e-08	-3.795168e+01	-7.847241e+02
8.000000e-08	-5.454490e-06	-1.196226e-08	-3.784742e+01	-7.839966e+02
9.000000e-08	-5.437143e-06	-1.198242e-08	-3.772706e+01	-7.832458e+02
1.000000e-07	-5.417510e-06	-1.198295e-08	-3.759083e+01	-7.824296e+02
1.100000e-07	-5.395856e-06	-1.196087e-08	-3.744058e+01	-7.815055e+02
1.200000e-07	-5.372399e-06	-1.191876e-08	-3.727782e+01	-7.804505e+02
1.300000e-07	-5.347505e-06	-1.184449e-08	-3.710508e+01	-7.792718e+02
1.400000e-07	-5.321155e-06	-1.184442e-08	-3.692225e+01	-7.780029e+02
1.500000e-07	-5.292959e-06	-1.186220e-08	-3.672660e+01	-7.766863e+02
1.600000e-07	-5.263033e-06	-1.181452e-08	-3.651895e+01	-7.753521e+02
1.700000e-07	-5.231457e-06	-1.183103e-08	-3.629985e+01	-7.740003e+02
1.800000e-07	-5.197845e-06	-1.181380e-08	-3.606663e+01	-7.725964e+02
1.900000e-07	-5.162295e-06	-1.174291e-08	-3.581996e+01	-7.710825e+02
2.000000e-07	-5.125186e-06	-1.173621e-08	-3.556246e+01	-7.693994e+02
2.100000e-07	-5.086356e-06	-1.168621e-08	-3.529303e+01	-7.675104e+02
2.200000e-07	-5.045689e-06	-1.163297e-08	-3.501085e+01	-7.654171e+02
2.300000e-07	-5.003049e-06	-1.165052e-08	-3.471498e+01	-7.631600e+02
2.400000e-07	-4.958443e-06	-1.163892e-08	-3.440547e+01	-7.608028e+02
2.500000e-07	-4.912115e-06	-1.160278e-08	-3.408401e+01	-7.584073e+02
2.600000e-07	-4.863900e-06	-1.153591e-08	-3.374946e+01	-7.560089e+02
2.700000e-07	-4.813629e-06	-1.145601e-08	-3.340064e+01	-7.536023e+02
2.800000e-07	-4.761276e-06	-1.143534e-08	-3.303738e+01	-7.511448e+02
2.900000e-07	-4.707032e-06	-1.142117e-08	-3.266099e+01	-7.485735e+02
3.000000e-07	-4.651169e-06	-1.137425e-08	-3.227337e+01	-7.458315e+02
3.100000e-07	-4.593625e-06	-1.132566e-08	-3.187408e+01	-7.428903e+02
3.200000e-07	-4.534244e-06	-1.129628e-08	-3.146205e+01	-7.397604e+02
3.300000e-07	-4.473253e-06	-1.124729e-08	-3.103885e+01	-7.364853e+02
3.400000e-07	-4.410821e-06	-1.117150e-08	-3.060565e+01	-7.331220e+02
3.500000e-07	-4.346902e-06	-1.110542e-08	-3.016213e+01	-7.297162e+02
3.600000e-07	-4.281413e-06	-1.105057e-08	-2.970772e+01	-7.262826e+02
3.700000e-07	-4.214202e-06	-1.102048e-08	-2.924136e+01	-7.227994e+02
3.800000e-07	-4.145378e-06	-1.098685e-08	-2.876381e+01	-7.192171e+02
3.900000e-07	-4.075139e-06	-1.091557e-08	-2.827644e+01	-7.154793e+02
4.000000e-07	-4.003599e-06	-1.084579e-08	-2.778003e+01	-7.115452e+02
4.100000e-07	-3.930731e-06	-1.078620e-08	-2.727442e+01	-7.074048e+02
4.200000e-07	-3.856345e-06	-1.071968e-08	-2.675827e+01	-7.030799e+02
4.300000e-07	-3.780279e-06	-1.063981e-08	-2.623047e+01	-6.986117e+02
4.400000e-07	-3.702543e-06	-1.056422e-08	-2.569108e+01	-6.940403e+02
4.500000e-07	-3.623299e-06	-1.050675e-08	-2.514122e+01	-6.893855e+02
4.600000e-07	-3.542601e-06	-1.044882e-08	-2.458128e+01	-6.846372e+02
4.700000e-07	-3.460578e-06	-1.037382e-08	-2.401213e+01	-6.797596e+02
4.800000e-07	-3.377416e-06	-1.027915e-08	-2.343510e+01	-6.747067e+02
4.900000e-07	-3.293153e-06	-1.018969e-08	-2.285041e+01	-6.694425e+02
5.000000e-07	-3.207887e-06	-1.011367e-08	-2.225877e+01	-6.639559e+02
5.100000e-07	-3.121712e-06	-1.003543e-08	-2.166083e+01	-6.582643e+02
5.200000e-07	-3.034579e-06	-9.946742e-09	-2.105623e+01	-6.524039e+02
5.300000e-07	-2.946418e-06	-9.852284e-09	-2.044450e+01	-6.464121e+02
5.400000e-07	-2.857227e-06	-9.760192e-09	-1.982563e+01	-6.403082e+02
5.500000e-07	-2.766963e-06	-9.664878e-09	-1.919931e+01	-6.340832e+02
5.600000e-07	-2.675537e-06	-9.557372e-09	-1.856493e+01	-6.277013e+02
5.700000e-07	-2.583047e-06	-9.447901e-09	-1.792316e+01	-6.211140e+02
5.800000e-07	-2.489710e-06	-9.348932e-09	-1.727551e+01	-6.142785e+02
5.900000e-07	-2.395603e-06	-9.252358e-09	-1.662253e+01	-6.071734e+02
6.000000e-07	-2.300759e-06	-9.143129e-09	-1.596443e+01	-5.998037e+02
6.100000e-07	-2.205182e-06	-9.020490e-09	-1.530124e+01	-5.921929e+02
6.200000e-07	-2.108758e-06	-8.895373e-09	-1.463217e+01	-5.843660e+02
6.300000e-07	-2.011485e-06	-8.773818e-09	-1.395722e+01	-5.763324e+02
6.400000e-07	-1.913437e-06	-8.650516e-09	-1.327689e+01	-5.680753e+02
6.500000e-07	-1.814585e-06	-8.517282e-09	-1.259098e+01	-5.595547e+02
6.600000e-07	-1.714952e-06	-8.379538e-09	-1.189965e+01	-5.507211e+02
6.700000e-07	-1.614637e-06	-8.242585e-09	-1.120359e+01	-5.415354e+02
6.800000e-07	-1.513791e-06	-8.098601e-09	-1.050384e+01	-5.319831e+02
6.900000e-07	-1.412526e-06	-7.941483e-09	-9.801189e+00	-5.220770e+02
7.000000e-07	-1.310849e-06	-7.780261e-09	-9.095670e+00	-5.118447e+02
7.100000e-07	-1.208717e-06	-7.623866e-09	-8.387004e+00	-5.013077e+02
7.200000e-07	-1.106103e-06	-7.466664e-09	-7.674988e+00	-4.904592e+02
7.300000e-07	-1.003097e-06	-7.296084e-09	-6.960255e+00	-4.792545e+02
7.400000e-07	-8.997879e-07	-7.110366e-09	-6.243417e+00	-4.676180e+02
7.500000e-07	-7.961434e-07	-6.918320e-09	-5.524252e+00	-4.554656e+02
7.600000e-07	-6.922141e-07	-6.723344e-09	-4.803111e+00	-4.427346e+02
7.700000e-07	-5.880877e-07	-6.519532e-09	-4.080603e+00	-4.294050e+02
7.800000e-07	-4.837475e-07	-6.305630e-09	-3.356610e+00	-4.155024e+02
7.900000e-07	-3.792205e-07	-6.090867e-09	-2.631322e+00	-4.010776e+02
8.000000e-07	-2.745518e-07	-5.876102e-09	-1.905050e+00	-3.861697e+02
8.100000e-07	-1.697826e-07	-5.648623e-09	-1.178081e+00	-3.707684e+02
8.200000e-07	-6.493206e-08	-5.400125e-09	-4.505483e-01	-3.547920e+02
8.300000e-07	3.997536e-08	-5.134207e-09	2.773797e-01	-3.380953e+02
8.400000e-07	1.448291e-07	-4.859123e-09	1.004935e+00	-3.205060e+02
8.500000e-07	2.495812e-07	-4.576137e-09	1.731785e+00	-3.018759e+02
8.600000e-07	3.542567e-07	-4.278773e-09	2.458104e+00	-2.821232e+02
8.700000e-07	4.588318e-07	-3.962657e-09	3.183726e+00	-2.612419e+02
8.800000e-07	5.632505e-07	-3.631498e-09	3.908263e+00	-2.392625e+02
8.900000e-07	6.674266e-07	-3.286834e-09	4.631116e+00	-2.161714e+02
9.000000e-07	7.713553e-07	-2.919040e-09	5.352254e+00	-1.918119e+02
9.100000e-07	8.750383e-07	-2.515835e-09	6.071685e+00	-1.658084e+02
9.200000e-07	9.784269e-07	-2.070623e-09	6.789074e+00	-1.375522e+02
9.300000e-07	1.081494e-06	-1.582655e-09	7.504233e+00	-1.062755e+02
9.400000e-07	1.184165e-06	-1.045096e-09	8.216646e+00	-7.121055e+01
9.500000e-07	1.286444e-06	-4.464730e-10	8.926335e+00	-3.180332e+01
9.600000e-07	1.388312e-06	2.205761e-10	9.633172e+00	1.207596e+01
9.700000e-07	1.489680e-06	9.503310e-10	1.033654e+01	5.998709e+01
9.800000e-07	1.590580e-06	1.726969e-09	1.103666e+01	1.108902e+02
9.900000e-07	1.690991e-06	2.529656e-09	1.173339e+01	1.632522e+02
1.000000e-06	1.790828e-06	3.329068e-09	1.242613e+01	2.152716e+02
1.010000e-06	1.889957e-06	4.091170e-09	1.311397e+01	2.651690e+02
1.020000e-06	1.988205e-06	4.789113e-09	1.379569e+01	3.114709e+02
1.030000e-06	2.085572e-06	5.412886e-09	1.447130e+01	3.532184e+02
1.040000e-06	2.182160e-06	5.965128e-09	1.514150e+01	3.900520e+02
1.050000e-06	2.278072e-06	6.449405e-09	1.580701e+01	4.221625e+02
1.060000e-06	2.373273e-06	6.871995e-09	1.646758e+01	4.501355e+02
1.070000e-06	2.467646e-06	7.246275e-09	1.712242e+01	4.747407e+02
1.080000e-06	2.561166e-06	7.582394e-09	1.777133e+01	4.967311e+02
1.090000e-06	2.653899e-06	7.887378e-09	1.841478e+01	5.167005e+02
1.100000e-06	2.745770e-06	8.164759e-09	1.905225e+01	5.350283e+02
1.110000e-06	2.836478e-06	8.417960e-09	1.968165e+01	5.519033e+02
1.120000e-06	2.926004e-06	8.651022e-09	2.030286e+01	5.674018e+02
1.130000e-06	3.014536e-06	8.864220e-09	2.091716e+01	5.815756e+02
1.140000e-06	3.102086e-06	9.058606e-09	2.152465e+01	5.945176e+02
1.150000e-06	3.188565e-06	9.238482e-09	2.212470e+01	6.063830e+02
1.160000e-06	3.273969e-06	9.405892e-09	2.271730e+01	6.173678e+02
1.170000e-06	3.358337e-06	9.561200e-09	2.330271e+01	6.276626e+02
1.180000e-06	3.441528e-06	9.708906e-09	2.387996e+01	6.374064e+02
1.190000e-06	3.523395e-06	9.853345e-09	2.444801e+01	6.466631e+02
1.200000e-06	3.603955e-06	9.991202e-09	2.500700e+01	6.554278e+02
1.210000e-06	3.683213e-06	1.011608e-08	2.555695e+01	6.636608e+02
1.220000e-06	3.761196e-06	1.022938e-08	2.609805e+01	6.713300e+02
1.230000e-06	3.837912e-06	1.033677e-08	2.663037e+01	6.784445e+02
1.240000e-06	3.913145e-06	1.043945e-08	2.715240e+01	6.850666e+02
1.250000e-06	3.986699e-06	1.053505e-08	2.766277e+01	6.912970e+02
1.260000e-06	4.058760e-06	1.062515e-08	2.816278e+01	6.972433e+02
1.270000e-06	4.129449e-06	1.071312e-08	2.865328e+01	7.029870e+02
1.280000e-06	4.198716e-06	1.079893e-08	2.913390e+01	7.085617e+02
1.290000e-06	4.266529e-06	1.088125e-08	2.960444e+01	7.139528e+02
1.300000e-06	4.332706e-06	1.095934e-08	3.006363e+01	7.191172e+02
1.310000e-06	4.397249e-06	1.103257e-08	3.051148e+01	7.240114e+02
1.320000e-06	4.460339e-06	1.110064e-08	3.094924e+01	7.286173e+02
1.330000e-06	4.521999e-06	1.116553e-08	3.137709e+01	7.329525e+02
1.340000e-06	4.582222e-06	1.122793e-08	3.179497e+01	7.370634e+02
1.350000e-06	4.640796e-06	1.128753e-08	3.220139e+01	7.410039e+02
1.360000e-06	4.697540e-06	1.134533e-08	3.259513e+01	7.448114e+02
1.370000e-06	4.752577e-06	1.140212e-08	3.297702e+01	7.484914e+02
1.380000e-06	4.805894e-06	1.145739e-08	3.334697e+01	7.520170e+02
1.390000e-06	4.857248e-06	1.150739e-08	3.370330e+01	7.553446e+02
1.400000e-06	4.906561e-06	1.155244e-08	3.404547e+01	7.584371e+02
1.410000e-06	4.954084e-06	1.159433e-08	3.437523e+01	7.612844e+02
1.420000e-06	4.999977e-06	1.163239e-08	3.469367e+01	7.639115e+02
1.430000e-06	5.044167e-06	1.166892e-08	3.500029e+01	7.663705e+02
1.440000e-06	5.086442e-06	1.170621e-08	3.529363e+01	7.687192e+02
1.450000e-06	5.126835e-06	1.174419e-08	3.557391e+01	7.709972e+02
1.460000e-06	5.165541e-06	1.178039e-08	3.584247e+01	7.732089e+02
1.470000e-06	5.202574e-06	1.181355e-08	3.609944e+01	7.753221e+02
1.480000e-06	5.237721e-06	1.184402e-08	3.634332e+01	7.772828e+02
1.490000e-06	5.270862e-06	1.187125e-08	3.657327e+01	7.790400e+02
1.500000e-06	5.302240e-06	1.189378e-08	3.679100e+01	7.805695e+02
1.510000e-06	5.331954e-06	1.191253e-08	3.699718e+01	7.818873e+02
1.520000e-06	5.359837e-06	1.193054e-08	3.719065e+01	7.830450e+02
1.530000e-06	5.385660e-06	1.194931e-08	3.736983e+01	7.841108e+02
1.540000e-06	5.409440e-06	1.196797e-08	3.753483e+01	7.851421e+02
1.550000e-06	5.431398e-06	1.198461e-08	3.768719e+01	7.861638e+02
1.560000e-06	5.451607e-06	1.199969e-08	3.782742e+01	7.871587e+02
1.570000e-06	5.469896e-06	1.201468e-08	3.795433e+01	7.880766e+02
1.580000e-06	5.486107e-06	1.202819e-08	3.806681e+01	7.888566e+02
1.590000e-06	5.500304e-06	1.203851e-08	3.816532e+01	7.894542e+02
1.600000e-06	5.512375e-06	1.204522e-08	3.824908e+01	7.898605e+02
1.610000e-06	5.522204e-06	1.204863e-08	3.831728e+01	7.901070e+02
1.620000e-06	5.530066e-06	1.205085e-08	3.837183e+01	7.902526e+02
1.630000e-06	5.536121e-06	1.205489e-08	3.841384e+01	7.903594e+02
1.640000e-06	5.540309e-06	1.206029e-08	3.844290e+01	7.904673e+02
1.650000e-06	5.542518e-06	1.206487e-08	3.845823e+01	7.905777e+02
1.660000e-06	5.542773e-06	1.206693e-08	3.846000e+01	7.906544e+02
1.670000e-06	5.541200e-06	1.206583e-08	3.844908e+01	7.906392e+02
1.680000e-06	5.537879e-06	1.206265e-08	3.842604e+01	7.904770e+02
1.690000e-06	5.532692e-06	1.205531e-08	3.839005e+01	7.901388e+02
1.700000e-06	5.525635e-06	1.204562e-08	3.834109e+01	7.896329e+02
1.710000e-06	5.516876e-06	1.203732e-08	3.828030e+01	7.890010e+02
1.720000e-06	5.506424e-06	1.203279e-08	3.820778e+01	7.882995e+02
1.730000e-06	5.494036e-06	1.203216e-08	3.812182e+01	7.875758e+02
1.740000e-06	5.479597e-06	1.200340e-08	3.802163e+01	7.868497e+02
1.750000e-06	5.463035e-06	1.196205e-08	3.790672e+01	7.861072e+02
1.760000e-06	5.443841e-06	1.194604e-08	3.777354e+01	7.853091e+02
1.770000e-06	5.421926e-06	1.194316e-08	3.762147e+01	7.844111e+02
1.780000e-06	5.398020e-06	1.198337e-08	3.745559e+01	7.833848e+02
1.790000e-06	5.373110e-06	1.198080e-08	3.728275e+01	7.822307e+02
1.800000e-06	5.347316e-06	1.190640e-08	3.710377e+01	7.809776e+02
1.810000e-06	5.319578e-06	1.190313e-08	3.691130e+01	7.796681e+02
1.820000e-06	5.289552e-06	1.187769e-08	3.670296e+01	7.783367e+02
1.830000e-06	5.257944e-06	1.183315e-08	3.648364e+01	7.769906e+02
1.840000e-06	5.224598e-06	1.186423e-08	3.625226e+01	7.756024e+02
1.850000e-06	5.189433e-06	1.181902e-08	3.600826e+01	7.741176e+02
1.860000e-06	5.152536e-06	1.177279e-08	3.575224e+01	7.724751e+02
1.870000e-06	5.113470e-06	1.179415e-08	3.548117e+01	7.706316e+02
1.880000e-06	5.072624e-06	1.172708e-08	3.519775e+01	7.685801e+02
1.890000e-06	5.030191e-06	1.165704e-08	3.490331e+01	7.663533e+02
1.900000e-06	4.985833e-06	1.161273e-08	3.459553e+01	7.640121e+02
1.910000e-06	4.939718e-06	1.159003e-08	3.427554e+01	7.616208e+02
1.920000e-06	4.891760e-06	1.162654e-08	3.394277e+01	7.592221e+02
1.930000e-06	4.842009e-06	1.157126e-08	3.359756e+01	7.568199e+02
1.940000e-06	4.790502e-06	1.149288e-08	3.324017e+01	7.543785e+02
1.950000e-06	4.736880e-06	1.146073e-08	3.286810e+01	7.518371e+02
1.960000e-06	4.681421e-06	1.141140e-08	3.248328e+01	7.491355e+02
1.970000e-06	4.624304e-06	1.136737e-08	3.208696e+01	7.462376e+02
1.980000e-06	4.565579e-06	1.130466e-08	3.167948e+01	7.431456e+02
1.990000e-06	4.505305e-06	1.127686e-08	3.126125e+01	7.398970e+02
2.000000e-06	4.443261e-06	1.126093e-08	3.083074e+01	7.365482e+02
2.010000e-06	4.379617e-06	1.120286e-08	3.038914e+01	7.331492e+02
2.020000e-06	4.314470e-06	1.114104e-08	2.993709e+01	7.297224e+02
2.030000e-06	4.247837e-06	1.105786e-08	2.947474e+01	7.262535e+02
2.040000e-06	4.179656e-06	1.100742e-08	2.900165e+01	7.226974e+02
2.050000e-06	4.109727e-06	1.096012e-08	2.851643e+01	7.189974e+02
2.060000e-06	4.038288e-06	1.088860e-08	2.802073e+01	7.151075e+02
2.070000e-06	3.965558e-06	1.083957e-08	2.751608e+01	7.110106e+02
2.080000e-06	3.891427e-06	1.078479e-08	2.700170e+01	7.067223e+02
2.090000e-06	3.815692e-06	1.073516e-08	2.647619e+01	7.022812e+02
2.100000e-06	3.738287e-06	1.065917e-08	2.593909e+01	6.977296e+02
2.110000e-06	3.659376e-06	1.056476e-08	2.539155e+01	6.930926e+02
2.120000e-06	3.579196e-06	1.048326e-08	2.483520e+01	6.883668e+02
2.130000e-06	3.497884e-06	1.041011e-08	2.427100e+01	6.835209e+02
2.140000e-06	3.415415e-06	1.035571e-08	2.369876e+01	6.785094e+02
2.150000e-06	3.331806e-06	1.028064e-08	2.311862e+01	6.732926e+02
2.160000e-06	3.246910e-06	1.019419e-08	2.252955e+01	6.678533e+02
2.170000e-06	3.160627e-06	1.010450e-08	2.193085e+01	6.622031e+02
2.180000e-06	3.073223e-06	1.000847e-08	2.132437e+01	6.563756e+02
2.190000e-06	2.984875e-06	9.914457e-09	2.071135e+01	6.504097e+02
2.200000e-06	2.895568e-06	9.816346e-09	2.009166e+01	6.443297e+02
2.210000e-06	2.805298e-06	9.733778e-09	1.946531e+01	6.381330e+02
2.220000e-06	2.714162e-06	9.653550e-09	1.883293e+01	6.317888e+02
2.230000e-06	2.622017e-06	9.553927e-09	1.819356e+01	6.252498e+02
2.240000e-06	2.528792e-06	9.435206e-09	1.754669e+01	6.184703e+02
2.250000e-06	2.434605e-06	9.313846e-09	1.689315e+01	6.114236e+02
2.260000e-06	2.339485e-06	9.205775e-09	1.623314e+01	6.041093e+02
2.270000e-06	2.243550e-06	9.101674e-09	1.556746e+01	5.965479e+02
2.280000e-06	2.146854e-06	8.991092e-09	1.489652e+01	5.887659e+02
2.290000e-06	2.049461e-06	8.871550e-09	1.422073e+01	5.807772e+02
2.300000e-06	1.951442e-06	8.746835e-09	1.354059e+01	5.725710e+02
2.310000e-06	1.852800e-06	8.615505e-09	1.285614e+01	5.641111e+02
2.320000e-06	1.753585e-06	8.474190e-09	1.216771e+01	5.553487e+02
2.330000e-06	1.653841e-06	8.327513e-09	1.147562e+01	5.462408e+02
2.340000e-06	1.553589e-06	8.186861e-09	1.077999e+01	5.367670e+02
2.350000e-06	1.452721e-06	8.047553e-09	1.008009e+01	5.269347e+02
2.360000e-06	1.351208e-06	7.898397e-09	9.375715e+00	5.167701e+02
2.370000e-06	1.249068e-06	7.735687e-09	8.666987e+00	5.062979e+02
2.380000e-06	1.146345e-06	7.566577e-09	7.954216e+00	4.955188e+02
2.390000e-06	1.043199e-06	7.398633e-09	7.238515e+00	4.843962e+02
2.400000e-06	9.396734e-07	7.225277e-09	6.520173e+00	4.728596e+02
2.410000e-06	8.357948e-07	7.042878e-09	5.799384e+00	4.608243e+02
2.420000e-06	7.316539e-07	6.847089e-09	5.076775e+00	4.482208e+02
2.430000e-06	6.273224e-07	6.641681e-09	4.352843e+00	4.350189e+02
2.440000e-06	5.228590e-07	6.432767e-09	3.627996e+00	4.212354e+02
2.450000e-06	4.182168e-07	6.217750e-09	2.901908e+00	4.069183e+02
2.460000e-06	3.134413e-07	5.992888e-09	2.174896e+00	3.921128e+02
2.470000e-06	2.086197e-07	5.759856e-09	1.447563e+00	3.768217e+02
2.480000e-06	1.036772e-07	5.520779e-09	7.193915e-01	3.609791e+02
2.490000e-06	-1.325446e-09	5.268060e-09	-9.196959e-03	3.444513e+02
2.500000e-06	-1.062694e-07	4.994945e-09	-7.373784e-01	3.270676e+02
2.510000e-06	-2.111244e-07	4.705647e-09	-1.464943e+00	3.086702e+02
2.520000e-06	-3.159145e-07	4.407425e-09	-2.192057e+00	2.891611e+02
2.530000e-06	-4.206004e-07	4.099182e-09	-2.918447e+00	2.685194e+02
2.540000e-06	-5.251831e-07	3.775018e-09	-3.644122e+00	2.467736e+02
2.550000e-06	-6.296021e-07	3.429993e-09	-4.368661e+00	2.239278e+02
2.560000e-06	-7.337669e-07	3.062674e-09	-5.091437e+00	1.998637e+02
2.570000e-06	-8.376657e-07	2.669550e-09	-5.812366e+00	1.742565e+02
2.580000e-06	-9.412871e-07	2.242586e-09	-6.531370e+00	1.465443e+02
2.590000e-06	-1.044614e-06	1.772801e-09	-7.248331e+00	1.159826e+02
2.600000e-06	-1.147480e-06	1.252725e-09	-7.962098e+00	8.178698e+01
2.610000e-06	-1.249816e-06	6.776311e-10	-8.672182e+00	4.333864e+01
2.620000e-06	-1.351607e-06	3.899865e-11	-9.378482e+00	4.015307e-01
2.630000e-06	-1.452781e-06	-6.690091e-10	-1.008051e+01	-4.671328e+01
2.640000e-06	-1.553348e-06	-1.437748e-09	-1.077832e+01	-9.709007e+01
2.650000e-06	-1.653371e-06	-2.242820e-09	-1.147235e+01	-1.492860e+02
2.660000e-06	-1.752822e-06	-3.050155e-09	-1.216242e+01	-2.015338e+02
2.670000e-06	-1.851633e-06	-3.826584e-09	-1.284805e+01	-2.520241e+02
2.680000e-06	-1.949782e-06	-4.549506e-09	-1.352908e+01	-2.991967e+02
2.690000e-06	-2.047251e-06	-5.203489e-09	-1.420539e+01	-3.419709e+02
2.700000e-06	-2.144059e-06	-5.781079e-09	-1.487712e+01	-3.798581e+02
2.710000e-06	-2.240234e-06	-6.286343e-09	-1.554446e+01	-4.129417e+02
2.720000e-06	-2.335815e-06	-6.730932e-09	-1.620767e+01	-4.417393e+02
2.730000e-06	-2.430657e-06	-7.125301e-09	-1.686576e+01	-4.669994e+02
2.740000e-06	-2.524554e-06	-7.476007e-09	-1.751729e+01	-4.894930e+02
2.750000e-06	-2.617409e-06	-7.790717e-09	-1.816159e+01	-5.098560e+02
2.760000e-06	-2.709183e-06	-8.077372e-09	-1.879839e+01	-5.285139e+02
2.770000e-06	-2.799955e-06	-8.339941e-09	-1.942823e+01	-5.456913e+02
2.780000e-06	-2.889749e-06	-8.578830e-09	-2.005129e+01	-5.614806e+02
2.790000e-06	-2.978490e-06	-8.797527e-09	-2.066704e+01	-5.759323e+02
2.800000e-06	-3.066235e-06	-8.999630e-09	-2.127589e+01	-5.891271e+02
2.810000e-06	-3.153018e-06	-9.186711e-09	-2.187805e+01	-6.012073e+02
2.820000e-06	-3.238572e-06	-9.361307e-09	-2.247169e+01	-6.123636e+02
2.830000e-06	-3.322793e-06	-9.525464e-09	-2.305608e+01	-6.227921e+02
2.840000e-06	-3.405839e-06	-9.679578e-09	-2.363232e+01	-6.326458e+02
2.850000e-06	-3.487759e-06	-9.822227e-09	-2.420074e+01	-6.420051e+02
2.860000e-06	-3.568513e-06	-9.954529e-09	-2.476107e+01	-6.508779e+02
2.870000e-06	-3.648084e-06	-1.007792e-08	-2.531320e+01	-6.592283e+02
2.880000e-06	-3.726346e-06	-1.019386e-08	-2.585624e+01	-6.670190e+02
2.890000e-06	-3.803055e-06	-1.030346e-08	-2.638851e+01	-6.742488e+02
2.900000e-06	-3.878239e-06	-1.040605e-08	-2.691019e+01	-6.809687e+02
2.910000e-06	-3.951991e-06	-1.050338e-08	-2.742194e+01	-6.872734e+02
2.920000e-06	-4.024349e-06	-1.059892e-08	-2.792401e+01	-6.932723e+02
2.930000e-06	-4.095323e-06	-1.069221e-08	-2.841648e+01	-6.990547e+02
2.940000e-06	-4.164747e-06	-1.077859e-08	-2.889820e+01	-7.046651e+02
