# Temperatura_=_31.02
# Concentracion g/m^3_=_13400.0
# C_Vs_to_Am_M_A/Vsm_=_65563218390.804596
# pendiente_HvsI_1/m_=_3716.3
# ordenada_HvsI_A/m_=_1297.0
# frecuencia_Hz_=_300808.3332315741

Tiempo_(s)	Campo_(V.s)	Magnetizacion_(V.s)	Campo_(kA/m)	Magnetizacion_(A/m)
0.000000e+00	-5.515609e-06	-1.205268e-08	-3.830944e+01	-7.897219e+02
1.000000e-08	-5.513948e-06	-1.205739e-08	-3.829790e+01	-7.896168e+02
2.000000e-08	-5.510300e-06	-1.205712e-08	-3.827257e+01	-7.893834e+02
3.000000e-08	-5.504891e-06	-1.204859e-08	-3.823499e+01	-7.890040e+02
4.000000e-08	-5.497899e-06	-1.203579e-08	-3.818643e+01	-7.884894e+02
5.000000e-08	-5.489258e-06	-1.202151e-08	-3.812641e+01	-7.878730e+02
6.000000e-08	-5.478644e-06	-1.200861e-08	-3.805269e+01	-7.871963e+02
7.000000e-08	-5.465970e-06	-1.199469e-08	-3.796466e+01	-7.864905e+02
8.000000e-08	-5.451340e-06	-1.197849e-08	-3.786305e+01	-7.857640e+02
9.000000e-08	-5.434361e-06	-1.200108e-08	-3.774512e+01	-7.849996e+02
1.000000e-07	-5.414973e-06	-1.202429e-08	-3.761046e+01	-7.841637e+02
1.100000e-07	-5.393594e-06	-1.199797e-08	-3.746196e+01	-7.832226e+02
1.200000e-07	-5.370415e-06	-1.196232e-08	-3.730097e+01	-7.821580e+02
1.300000e-07	-5.345672e-06	-1.188757e-08	-3.712912e+01	-7.809748e+02
1.400000e-07	-5.319419e-06	-1.182952e-08	-3.694677e+01	-7.796981e+02
1.500000e-07	-5.291394e-06	-1.190719e-08	-3.675212e+01	-7.783600e+02
1.600000e-07	-5.261665e-06	-1.186603e-08	-3.654564e+01	-7.769825e+02
1.700000e-07	-5.230359e-06	-1.181572e-08	-3.632820e+01	-7.755652e+02
1.800000e-07	-5.197078e-06	-1.187511e-08	-3.609704e+01	-7.740822e+02
1.900000e-07	-5.161753e-06	-1.178787e-08	-3.585168e+01	-7.724915e+02
2.000000e-07	-5.124864e-06	-1.175211e-08	-3.559547e+01	-7.707520e+02
2.100000e-07	-5.086347e-06	-1.175365e-08	-3.532794e+01	-7.688406e+02
2.200000e-07	-5.045993e-06	-1.165488e-08	-3.504766e+01	-7.667632e+02
2.300000e-07	-5.003657e-06	-1.166039e-08	-3.475360e+01	-7.645530e+02
2.400000e-07	-4.959309e-06	-1.168704e-08	-3.444558e+01	-7.622569e+02
2.500000e-07	-4.913227e-06	-1.163654e-08	-3.412551e+01	-7.599166e+02
2.600000e-07	-4.865294e-06	-1.158710e-08	-3.379258e+01	-7.575509e+02
2.700000e-07	-4.815326e-06	-1.149278e-08	-3.344552e+01	-7.551485e+02
2.800000e-07	-4.763302e-06	-1.146515e-08	-3.308419e+01	-7.526725e+02
2.900000e-07	-4.709328e-06	-1.145674e-08	-3.270930e+01	-7.500760e+02
3.000000e-07	-4.653673e-06	-1.141014e-08	-3.232274e+01	-7.473218e+02
3.100000e-07	-4.596404e-06	-1.136827e-08	-3.192497e+01	-7.443973e+02
3.200000e-07	-4.537360e-06	-1.132613e-08	-3.151487e+01	-7.413177e+02
3.300000e-07	-4.476652e-06	-1.130148e-08	-3.109321e+01	-7.381182e+02
3.400000e-07	-4.414462e-06	-1.122595e-08	-3.066126e+01	-7.348363e+02
3.500000e-07	-4.350762e-06	-1.114526e-08	-3.021883e+01	-7.314939e+02
3.600000e-07	-4.285553e-06	-1.109677e-08	-2.976591e+01	-7.280863e+02
3.700000e-07	-4.218707e-06	-1.105888e-08	-2.930162e+01	-7.245836e+02
3.800000e-07	-4.150186e-06	-1.103362e-08	-2.882570e+01	-7.209431e+02
3.900000e-07	-4.080195e-06	-1.096546e-08	-2.833957e+01	-7.171276e+02
4.000000e-07	-4.008839e-06	-1.088815e-08	-2.784395e+01	-7.131218e+02
4.100000e-07	-3.936140e-06	-1.083062e-08	-2.733902e+01	-7.089382e+02
4.200000e-07	-3.862009e-06	-1.076477e-08	-2.682412e+01	-7.046110e+02
4.300000e-07	-3.786190e-06	-1.069026e-08	-2.629751e+01	-7.001796e+02
4.400000e-07	-3.708698e-06	-1.060570e-08	-2.575928e+01	-6.956695e+02
4.500000e-07	-3.629774e-06	-1.054761e-08	-2.521111e+01	-6.910795e+02
4.600000e-07	-3.549445e-06	-1.049337e-08	-2.465317e+01	-6.863795e+02
4.700000e-07	-3.467727e-06	-1.042011e-08	-2.408558e+01	-6.815222e+02
4.800000e-07	-3.384866e-06	-1.033204e-08	-2.351006e+01	-6.764623e+02
4.900000e-07	-3.300909e-06	-1.023570e-08	-2.292693e+01	-6.711746e+02
5.000000e-07	-3.215905e-06	-1.015957e-08	-2.233652e+01	-6.656640e+02
5.100000e-07	-3.129926e-06	-1.008094e-08	-2.173934e+01	-6.599615e+02
5.200000e-07	-3.042930e-06	-9.991279e-09	-2.113510e+01	-6.541094e+02
5.300000e-07	-2.954896e-06	-9.892950e-09	-2.052364e+01	-6.481403e+02
5.400000e-07	-2.865868e-06	-9.800433e-09	-1.990529e+01	-6.420608e+02
5.500000e-07	-2.775903e-06	-9.712687e-09	-1.928042e+01	-6.358466e+02
5.600000e-07	-2.684764e-06	-9.608403e-09	-1.864740e+01	-6.294513e+02
5.700000e-07	-2.592418e-06	-9.498049e-09	-1.800600e+01	-6.228250e+02
5.800000e-07	-2.499205e-06	-9.388594e-09	-1.735858e+01	-6.159343e+02
5.900000e-07	-2.405289e-06	-9.288121e-09	-1.670627e+01	-6.087747e+02
6.000000e-07	-2.310616e-06	-9.182367e-09	-1.604871e+01	-6.013685e+02
6.100000e-07	-2.215102e-06	-9.063539e-09	-1.538530e+01	-5.937504e+02
6.200000e-07	-2.118741e-06	-8.939131e-09	-1.471602e+01	-5.859460e+02
6.300000e-07	-2.021648e-06	-8.814211e-09	-1.404164e+01	-5.779535e+02
6.400000e-07	-1.923861e-06	-8.688211e-09	-1.336244e+01	-5.697381e+02
6.500000e-07	-1.825232e-06	-8.552114e-09	-1.267741e+01	-5.612416e+02
6.600000e-07	-1.725708e-06	-8.411944e-09	-1.198615e+01	-5.524040e+02
6.700000e-07	-1.625473e-06	-8.274768e-09	-1.128995e+01	-5.431869e+02
6.800000e-07	-1.524749e-06	-8.136960e-09	-1.059036e+01	-5.335882e+02
6.900000e-07	-1.423600e-06	-7.985421e-09	-9.887816e+00	-5.236398e+02
7.000000e-07	-1.321996e-06	-7.823460e-09	-9.182106e+00	-5.133877e+02
7.100000e-07	-1.219927e-06	-7.660227e-09	-8.473171e+00	-5.028631e+02
7.200000e-07	-1.117462e-06	-7.494084e-09	-7.761489e+00	-4.920575e+02
7.300000e-07	-1.014619e-06	-7.319095e-09	-7.047180e+00	-4.809131e+02
7.400000e-07	-9.113907e-07	-7.136102e-09	-6.330192e+00	-4.693354e+02
7.500000e-07	-8.078677e-07	-6.950938e-09	-5.611158e+00	-4.572242e+02
7.600000e-07	-7.041090e-07	-6.761208e-09	-4.890488e+00	-4.445092e+02
7.700000e-07	-6.000524e-07	-6.560019e-09	-4.167748e+00	-4.311754e+02
7.800000e-07	-4.957163e-07	-6.345310e-09	-3.443067e+00	-4.172632e+02
7.900000e-07	-3.912012e-07	-6.124401e-09	-2.717143e+00	-4.028420e+02
8.000000e-07	-2.865528e-07	-5.899490e-09	-1.990293e+00	-3.879646e+02
8.100000e-07	-1.818267e-07	-5.665722e-09	-1.262903e+00	-3.726227e+02
8.200000e-07	-7.705765e-08	-5.419830e-09	-5.352147e-01	-3.567233e+02
8.300000e-07	2.776270e-08	-5.161948e-09	1.928297e-01	-3.400994e+02
8.400000e-07	1.325788e-07	-4.892058e-09	9.208450e-01	-3.225548e+02
8.500000e-07	2.373080e-07	-4.607419e-09	1.648256e+00	-3.039240e+02
8.600000e-07	3.419861e-07	-4.306414e-09	2.375312e+00	-2.841218e+02
8.700000e-07	4.465454e-07	-3.988433e-09	3.101544e+00	-2.631519e+02
8.800000e-07	5.509079e-07	-3.654364e-09	3.826409e+00	-2.410625e+02
8.900000e-07	6.550562e-07	-3.302309e-09	4.549785e+00	-2.178542e+02
9.000000e-07	7.589584e-07	-2.926005e-09	5.271452e+00	-1.933697e+02
9.100000e-07	8.625872e-07	-2.519125e-09	5.991221e+00	-1.672109e+02
9.200000e-07	9.658871e-07	-2.077529e-09	6.708704e+00	-1.387255e+02
9.300000e-07	1.068847e-06	-1.592632e-09	7.423829e+00	-1.070914e+02
9.400000e-07	1.171488e-06	-1.050105e-09	8.136731e+00	-7.149318e+01
9.500000e-07	1.273713e-06	-4.378449e-10	8.846750e+00	-3.135400e+01
9.600000e-07	1.375423e-06	2.452067e-10	9.553193e+00	1.343881e+01
9.700000e-07	1.476645e-06	9.926607e-10	1.025624e+01	6.238410e+01
9.800000e-07	1.577447e-06	1.794201e-09	1.095638e+01	1.143454e+02
9.900000e-07	1.677870e-06	2.619102e-09	1.165388e+01	1.676765e+02
1.000000e-06	1.777738e-06	3.427253e-09	1.234753e+01	2.204718e+02
1.010000e-06	1.876793e-06	4.185218e-09	1.303553e+01	2.708803e+02
1.020000e-06	1.974962e-06	4.876190e-09	1.371738e+01	3.174059e+02
1.030000e-06	2.072309e-06	5.498468e-09	1.439352e+01	3.591180e+02
1.040000e-06	2.168855e-06	6.051176e-09	1.506409e+01	3.957265e+02
1.050000e-06	2.264619e-06	6.532874e-09	1.572923e+01	4.275121e+02
1.060000e-06	2.359713e-06	6.951631e-09	1.638972e+01	4.551464e+02
1.070000e-06	2.454055e-06	7.325172e-09	1.704498e+01	4.794612e+02
1.080000e-06	2.547550e-06	7.661129e-09	1.769437e+01	5.012365e+02
1.090000e-06	2.640301e-06	7.960949e-09	1.833858e+01	5.210586e+02
1.100000e-06	2.732192e-06	8.228469e-09	1.897682e+01	5.392758e+02
1.110000e-06	2.822912e-06	8.473776e-09	1.960693e+01	5.560388e+02
1.120000e-06	2.912440e-06	8.704141e-09	2.022876e+01	5.713948e+02
1.130000e-06	3.000908e-06	8.918975e-09	2.084323e+01	5.853864e+02
1.140000e-06	3.088381e-06	9.116636e-09	2.145078e+01	5.981188e+02
1.150000e-06	3.174841e-06	9.297500e-09	2.205130e+01	6.097747e+02
1.160000e-06	3.260272e-06	9.464131e-09	2.264468e+01	6.205810e+02
1.170000e-06	3.344714e-06	9.615718e-09	2.323118e+01	6.307504e+02
1.180000e-06	3.427975e-06	9.756555e-09	2.380949e+01	6.404270e+02
1.190000e-06	3.509905e-06	9.893459e-09	2.437854e+01	6.496613e+02
1.200000e-06	3.590548e-06	1.002820e-08	2.493866e+01	6.584223e+02
1.210000e-06	3.669919e-06	1.015578e-08	2.548993e+01	6.666410e+02
1.220000e-06	3.748000e-06	1.027515e-08	2.603226e+01	6.742637e+02
1.230000e-06	3.824792e-06	1.038780e-08	2.656563e+01	6.812931e+02
1.240000e-06	3.900078e-06	1.049120e-08	2.708854e+01	6.878014e+02
1.250000e-06	3.973725e-06	1.058242e-08	2.760007e+01	6.939111e+02
1.260000e-06	4.045886e-06	1.066409e-08	2.810127e+01	6.997552e+02
1.270000e-06	4.116610e-06	1.074385e-08	2.859250e+01	7.054339e+02
1.280000e-06	4.185952e-06	1.082602e-08	2.907412e+01	7.109870e+02
1.290000e-06	4.253898e-06	1.091004e-08	2.954605e+01	7.163914e+02
1.300000e-06	4.320177e-06	1.099300e-08	3.000640e+01	7.215844e+02
1.310000e-06	4.384810e-06	1.107300e-08	3.045531e+01	7.265000e+02
1.320000e-06	4.448010e-06	1.114643e-08	3.089428e+01	7.311028e+02
1.330000e-06	4.509790e-06	1.121109e-08	3.132338e+01	7.354050e+02
1.340000e-06	4.570145e-06	1.126755e-08	3.174259e+01	7.394607e+02
1.350000e-06	4.628855e-06	1.131968e-08	3.215036e+01	7.433416e+02
1.360000e-06	4.685756e-06	1.137222e-08	3.254558e+01	7.471060e+02
1.370000e-06	4.740977e-06	1.142714e-08	3.292912e+01	7.507744e+02
1.380000e-06	4.794478e-06	1.148427e-08	3.330072e+01	7.543241e+02
1.390000e-06	4.846008e-06	1.154041e-08	3.365863e+01	7.577019e+02
1.400000e-06	4.895460e-06	1.159251e-08	3.400210e+01	7.608511e+02
1.410000e-06	4.943102e-06	1.163694e-08	3.433301e+01	7.637383e+02
1.420000e-06	4.989158e-06	1.167308e-08	3.465290e+01	7.663704e+02
1.430000e-06	5.033570e-06	1.170634e-08	3.496137e+01	7.687926e+02
1.440000e-06	5.076091e-06	1.173923e-08	3.525670e+01	7.710701e+02
1.450000e-06	5.116725e-06	1.177028e-08	3.553893e+01	7.732618e+02
1.460000e-06	5.155638e-06	1.180157e-08	3.580921e+01	7.753967e+02
1.470000e-06	5.192839e-06	1.183638e-08	3.606759e+01	7.774644e+02
1.480000e-06	5.228230e-06	1.187120e-08	3.631341e+01	7.794220e+02
1.490000e-06	5.261606e-06	1.190125e-08	3.654523e+01	7.812155e+02
1.500000e-06	5.293121e-06	1.192407e-08	3.676412e+01	7.828045e+02
1.510000e-06	5.322982e-06	1.194248e-08	3.697152e+01	7.841814e+02
1.520000e-06	5.351119e-06	1.196007e-08	3.716695e+01	7.853745e+02
1.530000e-06	5.377186e-06	1.197701e-08	3.734800e+01	7.864367e+02
1.540000e-06	5.401149e-06	1.199377e-08	3.751444e+01	7.874234e+02
1.550000e-06	5.423297e-06	1.201005e-08	3.766827e+01	7.883703e+02
1.560000e-06	5.443739e-06	1.202574e-08	3.781026e+01	7.892799e+02
1.570000e-06	5.462220e-06	1.203994e-08	3.793862e+01	7.901237e+02
1.580000e-06	5.478613e-06	1.204997e-08	3.805247e+01	7.908564e+02
1.590000e-06	5.493067e-06	1.205694e-08	3.815287e+01	7.914381e+02
1.600000e-06	5.505459e-06	1.206379e-08	3.823894e+01	7.918528e+02
1.610000e-06	5.515640e-06	1.206960e-08	3.830965e+01	7.921158e+02
1.620000e-06	5.523785e-06	1.207381e-08	3.836623e+01	7.922674e+02
1.630000e-06	5.530046e-06	1.207622e-08	3.840971e+01	7.923555e+02
1.640000e-06	5.534427e-06	1.207540e-08	3.844014e+01	7.924154e+02
1.650000e-06	5.536849e-06	1.207500e-08	3.845696e+01	7.924554e+02
1.660000e-06	5.537286e-06	1.207978e-08	3.846000e+01	7.924544e+02
1.670000e-06	5.535948e-06	1.208046e-08	3.845070e+01	7.923723e+02
1.680000e-06	5.532899e-06	1.207140e-08	3.842953e+01	7.921686e+02
1.690000e-06	5.527929e-06	1.205997e-08	3.839501e+01	7.918205e+02
1.700000e-06	5.521018e-06	1.205296e-08	3.834701e+01	7.913325e+02
1.710000e-06	5.512437e-06	1.205002e-08	3.828740e+01	7.907343e+02
1.720000e-06	5.502191e-06	1.204349e-08	3.821624e+01	7.900672e+02
1.730000e-06	5.490037e-06	1.203792e-08	3.813182e+01	7.893660e+02
1.740000e-06	5.475846e-06	1.203329e-08	3.803326e+01	7.886444e+02
1.750000e-06	5.459575e-06	1.197195e-08	3.792024e+01	7.878905e+02
1.760000e-06	5.440775e-06	1.194448e-08	3.778967e+01	7.870729e+02
1.770000e-06	5.419199e-06	1.194667e-08	3.763980e+01	7.861566e+02
1.780000e-06	5.395535e-06	1.195882e-08	3.747545e+01	7.851187e+02
1.790000e-06	5.370722e-06	1.202869e-08	3.730310e+01	7.839593e+02
1.800000e-06	5.345076e-06	1.192770e-08	3.712498e+01	7.826998e+02
1.810000e-06	5.317707e-06	1.186876e-08	3.693488e+01	7.813723e+02
1.820000e-06	5.287980e-06	1.192953e-08	3.672840e+01	7.800023e+02
1.830000e-06	5.256580e-06	1.181919e-08	3.651031e+01	7.785948e+02
1.840000e-06	5.223477e-06	1.183553e-08	3.628040e+01	7.771290e+02
1.850000e-06	5.188535e-06	1.188151e-08	3.603770e+01	7.755651e+02
1.860000e-06	5.151913e-06	1.175630e-08	3.578334e+01	7.738601e+02
1.870000e-06	5.113202e-06	1.181009e-08	3.551446e+01	7.719860e+02
1.880000e-06	5.072719e-06	1.178909e-08	3.523328e+01	7.699421e+02
1.890000e-06	5.030613e-06	1.164325e-08	3.494083e+01	7.677565e+02
1.900000e-06	4.986519e-06	1.163980e-08	3.463457e+01	7.654747e+02
1.910000e-06	4.940622e-06	1.157961e-08	3.431579e+01	7.631412e+02
1.920000e-06	4.892877e-06	1.162126e-08	3.398417e+01	7.607808e+02
1.930000e-06	4.843395e-06	1.163323e-08	3.364048e+01	7.583886e+02
1.940000e-06	4.792211e-06	1.150075e-08	3.328497e+01	7.559321e+02
1.950000e-06	4.738851e-06	1.149849e-08	3.291435e+01	7.533651e+02
1.960000e-06	4.683600e-06	1.142952e-08	3.253061e+01	7.506467e+02
1.970000e-06	4.626764e-06	1.137625e-08	3.213584e+01	7.477581e+02
1.980000e-06	4.568315e-06	1.132411e-08	3.172988e+01	7.447092e+02
1.990000e-06	4.508305e-06	1.125528e-08	3.131307e+01	7.415319e+02
2.000000e-06	4.446499e-06	1.129382e-08	3.088379e+01	7.382649e+02
2.010000e-06	4.383050e-06	1.122040e-08	3.044309e+01	7.349348e+02
2.020000e-06	4.318151e-06	1.117521e-08	2.999232e+01	7.315429e+02
2.030000e-06	4.251800e-06	1.109789e-08	2.953147e+01	7.280639e+02
2.040000e-06	4.183961e-06	1.100743e-08	2.906029e+01	7.244564e+02
2.050000e-06	4.114338e-06	1.099102e-08	2.857671e+01	7.206806e+02
2.060000e-06	4.043142e-06	1.089069e-08	2.808221e+01	7.167153e+02
2.070000e-06	3.970615e-06	1.085576e-08	2.757846e+01	7.125674e+02
2.080000e-06	3.896692e-06	1.079830e-08	2.706503e+01	7.082674e+02
2.090000e-06	3.821263e-06	1.075092e-08	2.654112e+01	7.038553e+02
2.100000e-06	3.744183e-06	1.069916e-08	2.600575e+01	6.993611e+02
2.110000e-06	3.665551e-06	1.058555e-08	2.545960e+01	6.947898e+02
2.120000e-06	3.585601e-06	1.051727e-08	2.490430e+01	6.901168e+02
2.130000e-06	3.504520e-06	1.042273e-08	2.434114e+01	6.852974e+02
2.140000e-06	3.422283e-06	1.037412e-08	2.376995e+01	6.802839e+02
2.150000e-06	3.338846e-06	1.029937e-08	2.319043e+01	6.750456e+02
2.160000e-06	3.254193e-06	1.020866e-08	2.260245e+01	6.695807e+02
2.170000e-06	3.168214e-06	1.013460e-08	2.200528e+01	6.639157e+02
2.180000e-06	3.081020e-06	1.003706e-08	2.139966e+01	6.580922e+02
2.190000e-06	2.992832e-06	9.953985e-09	2.078714e+01	6.521464e+02
2.200000e-06	2.903727e-06	9.841031e-09	2.016824e+01	6.460915e+02
2.210000e-06	2.813654e-06	9.754072e-09	1.954263e+01	6.399095e+02
2.220000e-06	2.722608e-06	9.671915e-09	1.891025e+01	6.335573e+02
2.230000e-06	2.630694e-06	9.577155e-09	1.827185e+01	6.269840e+02
2.240000e-06	2.537896e-06	9.466806e-09	1.762731e+01	6.201514e+02
2.250000e-06	2.444011e-06	9.343009e-09	1.697522e+01	6.130482e+02
2.260000e-06	2.349036e-06	9.239963e-09	1.631556e+01	6.056919e+02
2.270000e-06	2.253297e-06	9.130423e-09	1.565059e+01	5.981163e+02
2.280000e-06	2.156879e-06	9.015739e-09	1.498090e+01	5.903507e+02
2.290000e-06	2.059726e-06	8.891135e-09	1.430611e+01	5.824003e+02
2.300000e-06	1.961928e-06	8.769599e-09	1.362685e+01	5.742369e+02
2.310000e-06	1.863492e-06	8.645331e-09	1.294315e+01	5.658060e+02
2.320000e-06	1.764399e-06	8.507240e-09	1.225488e+01	5.570457e+02
2.330000e-06	1.664782e-06	8.360216e-09	1.156298e+01	5.479113e+02
2.340000e-06	1.564737e-06	8.215180e-09	1.086810e+01	5.383926e+02
2.350000e-06	1.464189e-06	8.075457e-09	1.016973e+01	5.285152e+02
2.360000e-06	1.362991e-06	7.924249e-09	9.466847e+00	5.183244e+02
2.370000e-06	1.261046e-06	7.762293e-09	8.758769e+00	5.078572e+02
2.380000e-06	1.158441e-06	7.597349e-09	8.046116e+00	4.971149e+02
2.390000e-06	1.055392e-06	7.435610e-09	7.330373e+00	4.860501e+02
2.400000e-06	9.519976e-07	7.263386e-09	6.612233e+00	4.745740e+02
2.410000e-06	8.483244e-07	7.075148e-09	5.892157e+00	4.625845e+02
2.420000e-06	7.444006e-07	6.878283e-09	5.170339e+00	4.500022e+02
2.430000e-06	6.402235e-07	6.679588e-09	4.446762e+00	4.367991e+02
2.440000e-06	5.358664e-07	6.477262e-09	3.721935e+00	4.230053e+02
2.450000e-06	4.313625e-07	6.262527e-09	2.996089e+00	4.086872e+02
2.460000e-06	3.266854e-07	6.036004e-09	2.269039e+00	3.939056e+02
2.470000e-06	2.218514e-07	5.802463e-09	1.540900e+00	3.786680e+02
2.480000e-06	1.169435e-07	5.563578e-09	8.122476e-01	3.629000e+02
2.490000e-06	1.201973e-08	5.310364e-09	8.348472e-02	3.464477e+02
2.500000e-06	-9.287912e-08	5.039638e-09	-6.451050e-01	3.291161e+02
2.510000e-06	-1.977380e-07	4.756852e-09	-1.373417e+00	3.107284e+02
2.520000e-06	-3.025181e-07	4.464938e-09	-2.101182e+00	2.911795e+02
2.530000e-06	-4.071834e-07	4.158017e-09	-2.828149e+00	2.704560e+02
2.540000e-06	-5.116886e-07	3.828247e-09	-3.554005e+00	2.486031e+02
2.550000e-06	-6.160155e-07	3.477026e-09	-4.278622e+00	2.256407e+02
2.560000e-06	-7.201376e-07	3.106767e-09	-5.001817e+00	2.014541e+02
2.570000e-06	-8.239727e-07	2.711361e-09	-5.723018e+00	1.757008e+02
2.580000e-06	-9.275065e-07	2.280865e-09	-6.442127e+00	1.477794e+02
2.590000e-06	-1.030765e-06	1.807877e-09	-7.159322e+00	1.168922e+02
2.600000e-06	-1.133635e-06	1.285637e-09	-7.873818e+00	8.220366e+01
2.610000e-06	-1.235932e-06	7.030586e-10	-8.584342e+00	4.306572e+01
2.620000e-06	-1.337598e-06	4.806548e-11	-9.290473e+00	-7.499438e-01
2.630000e-06	-1.438600e-06	-6.808658e-10	-9.991999e+00	-4.888048e+01
2.640000e-06	-1.539033e-06	-1.467969e-09	-1.068957e+01	-1.003199e+02
2.650000e-06	-1.639009e-06	-2.285010e-09	-1.138397e+01	-1.535137e+02
2.660000e-06	-1.738530e-06	-3.102031e-09	-1.207520e+01	-2.065865e+02
2.670000e-06	-1.837422e-06	-3.888825e-09	-1.276207e+01	-2.576487e+02
2.680000e-06	-1.935595e-06	-4.617450e-09	-1.344394e+01	-3.051062e+02
2.690000e-06	-2.033114e-06	-5.271029e-09	-1.412128e+01	-3.478959e+02
2.700000e-06	-2.129957e-06	-5.845137e-09	-1.479391e+01	-3.855918e+02
2.710000e-06	-2.226114e-06	-6.347644e-09	-1.546179e+01	-4.183644e+02
2.720000e-06	-2.321676e-06	-6.791733e-09	-1.612553e+01	-4.468202e+02
2.730000e-06	-2.416601e-06	-7.183646e-09	-1.678484e+01	-4.717763e+02
2.740000e-06	-2.510512e-06	-7.528029e-09	-1.743712e+01	-4.940385e+02
2.750000e-06	-2.603307e-06	-7.836881e-09	-1.808163e+01	-5.142420e+02
2.760000e-06	-2.695151e-06	-8.123021e-09	-1.871955e+01	-5.327850e+02
2.770000e-06	-2.786012e-06	-8.386089e-09	-1.935064e+01	-5.498538e+02
2.780000e-06	-2.875791e-06	-8.621978e-09	-1.997421e+01	-5.655090e+02
2.790000e-06	-2.964500e-06	-8.837337e-09	-2.059035e+01	-5.797869e+02
2.800000e-06	-3.052303e-06	-9.038860e-09	-2.120020e+01	-5.927763e+02
2.810000e-06	-3.139179e-06	-9.225184e-09	-2.180361e+01	-6.046446e+02
2.820000e-06	-3.224832e-06	-9.394190e-09	-2.239852e+01	-6.156137e+02
2.830000e-06	-3.309169e-06	-9.550935e-09	-2.298430e+01	-6.259046e+02
2.840000e-06	-3.392276e-06	-9.702679e-09	-2.356153e+01	-6.356794e+02
2.850000e-06	-3.474252e-06	-9.846962e-09	-2.413091e+01	-6.450089e+02
2.860000e-06	-3.555124e-06	-9.979884e-09	-2.469261e+01	-6.538767e+02
2.870000e-06	-3.634864e-06	-1.010103e-08	-2.524646e+01	-6.622175e+02
2.880000e-06	-3.713270e-06	-1.021523e-08	-2.579104e+01	-6.699702e+02
2.890000e-06	-3.790077e-06	-1.032581e-08	-2.632451e+01	-6.771230e+02
2.900000e-06	-3.865326e-06	-1.042991e-08	-2.684716e+01	-6.837340e+02
2.910000e-06	-3.939176e-06	-1.052437e-08	-2.736010e+01	-6.899176e+02
2.920000e-06	-4.011686e-06	-1.061465e-08	-2.786373e+01	-6.958086e+02
2.930000e-06	-4.082847e-06	-1.070662e-08	-2.835799e+01	-7.015172e+02
2.940000e-06	-4.152459e-06	-1.079625e-08	-2.884149e+01	-7.070973e+02
