# Temperatura_=_53.69
# Concentracion g/m^3_=_13400.0
# C_Vs_to_Am_M_A/Vsm_=_65563218390.804596
# pendiente_HvsI_1/m_=_3716.3
# ordenada_HvsI_A/m_=_1297.0
# frecuencia_Hz_=_300797.8764095165

Tiempo_(s)	Campo_(V.s)	Magnetizacion_(V.s)	Campo_(kA/m)	Magnetizacion_(A/m)
0.000000e+00	-5.519786e-06	-1.251241e-08	-3.830473e+01	-8.202891e+02
1.000000e-08	-5.517622e-06	-1.251514e-08	-3.828972e+01	-8.200737e+02
2.000000e-08	-5.513515e-06	-1.251171e-08	-3.826121e+01	-8.196294e+02
3.000000e-08	-5.507655e-06	-1.250381e-08	-3.822055e+01	-8.190032e+02
4.000000e-08	-5.500181e-06	-1.248959e-08	-3.816868e+01	-8.182791e+02
5.000000e-08	-5.491107e-06	-1.247158e-08	-3.810572e+01	-8.175432e+02
6.000000e-08	-5.480028e-06	-1.245417e-08	-3.802883e+01	-8.168465e+02
7.000000e-08	-5.466825e-06	-1.242289e-08	-3.793721e+01	-8.161839e+02
8.000000e-08	-5.451620e-06	-1.242310e-08	-3.783169e+01	-8.154961e+02
9.000000e-08	-5.434012e-06	-1.250126e-08	-3.770950e+01	-8.146958e+02
1.000000e-07	-5.414060e-06	-1.249473e-08	-3.757104e+01	-8.137063e+02
1.100000e-07	-5.392142e-06	-1.243891e-08	-3.741894e+01	-8.124959e+02
1.200000e-07	-5.368470e-06	-1.241355e-08	-3.725467e+01	-8.110937e+02
1.300000e-07	-5.343436e-06	-1.225459e-08	-3.708094e+01	-8.095792e+02
1.400000e-07	-5.316858e-06	-1.229033e-08	-3.689651e+01	-8.080504e+02
1.500000e-07	-5.288349e-06	-1.240165e-08	-3.669867e+01	-8.065817e+02
1.600000e-07	-5.258119e-06	-1.218077e-08	-3.648888e+01	-8.051918e+02
1.700000e-07	-5.226296e-06	-1.225974e-08	-3.626805e+01	-8.038322e+02
1.800000e-07	-5.192439e-06	-1.235070e-08	-3.603310e+01	-8.024037e+02
1.900000e-07	-5.156637e-06	-1.215172e-08	-3.578465e+01	-8.007927e+02
2.000000e-07	-5.119290e-06	-1.222682e-08	-3.552548e+01	-7.989141e+02
2.100000e-07	-5.080156e-06	-1.216194e-08	-3.525390e+01	-7.967422e+02
2.200000e-07	-5.039248e-06	-1.200999e-08	-3.497002e+01	-7.943179e+02
2.300000e-07	-4.996359e-06	-1.208627e-08	-3.467239e+01	-7.917306e+02
2.400000e-07	-4.951425e-06	-1.204885e-08	-3.436057e+01	-7.890802e+02
2.500000e-07	-4.904740e-06	-1.202284e-08	-3.403660e+01	-7.864385e+02
2.600000e-07	-4.856252e-06	-1.197949e-08	-3.370012e+01	-7.838224e+02
2.700000e-07	-4.805765e-06	-1.187477e-08	-3.334976e+01	-7.811912e+02
2.800000e-07	-4.753222e-06	-1.187701e-08	-3.298514e+01	-7.784676e+02
2.900000e-07	-4.698821e-06	-1.182026e-08	-3.260762e+01	-7.755718e+02
3.000000e-07	-4.642780e-06	-1.175768e-08	-3.221872e+01	-7.724552e+02
3.100000e-07	-4.585008e-06	-1.170704e-08	-3.181781e+01	-7.691187e+02
3.200000e-07	-4.525391e-06	-1.168935e-08	-3.140410e+01	-7.656084e+02
3.300000e-07	-4.464184e-06	-1.166668e-08	-3.097934e+01	-7.619922e+02
3.400000e-07	-4.401533e-06	-1.155926e-08	-3.054458e+01	-7.583280e+02
3.500000e-07	-4.337431e-06	-1.150323e-08	-3.009974e+01	-7.546375e+02
3.600000e-07	-4.271754e-06	-1.142560e-08	-2.964398e+01	-7.508968e+02
3.700000e-07	-4.204396e-06	-1.137796e-08	-2.917654e+01	-7.470484e+02
3.800000e-07	-4.135403e-06	-1.135280e-08	-2.869776e+01	-7.430273e+02
3.900000e-07	-4.064891e-06	-1.125623e-08	-2.820844e+01	-7.387897e+02
4.000000e-07	-3.993126e-06	-1.119555e-08	-2.771042e+01	-7.343323e+02
4.100000e-07	-3.920139e-06	-1.113149e-08	-2.720393e+01	-7.296918e+02
4.200000e-07	-3.845583e-06	-1.106867e-08	-2.668654e+01	-7.249264e+02
4.300000e-07	-3.769290e-06	-1.097902e-08	-2.615711e+01	-7.200878e+02
4.400000e-07	-3.691452e-06	-1.088351e-08	-2.561695e+01	-7.151951e+02
4.500000e-07	-3.612192e-06	-1.082295e-08	-2.506692e+01	-7.102240e+02
4.600000e-07	-3.531437e-06	-1.075247e-08	-2.450652e+01	-7.051159e+02
4.700000e-07	-3.449325e-06	-1.067950e-08	-2.393670e+01	-6.998015e+02
4.800000e-07	-3.366032e-06	-1.057924e-08	-2.335869e+01	-6.942305e+02
4.900000e-07	-3.281660e-06	-1.048873e-08	-2.277318e+01	-6.883927e+02
5.000000e-07	-3.196304e-06	-1.040998e-08	-2.218086e+01	-6.823216e+02
5.100000e-07	-3.109967e-06	-1.031770e-08	-2.158172e+01	-6.760779e+02
5.200000e-07	-3.022602e-06	-1.021227e-08	-2.097544e+01	-6.697219e+02
5.300000e-07	-2.934257e-06	-1.009890e-08	-2.036237e+01	-6.632850e+02
5.400000e-07	-2.844906e-06	-1.000441e-08	-1.974232e+01	-6.567547e+02
5.500000e-07	-2.754416e-06	-9.912995e-09	-1.911435e+01	-6.500782e+02
5.600000e-07	-2.662809e-06	-9.805102e-09	-1.847865e+01	-6.431848e+02
5.700000e-07	-2.570180e-06	-9.684729e-09	-1.783584e+01	-6.360151e+02
5.800000e-07	-2.476695e-06	-9.567170e-09	-1.718711e+01	-6.285449e+02
5.900000e-07	-2.382498e-06	-9.460582e-09	-1.653342e+01	-6.207923e+02
6.000000e-07	-2.287516e-06	-9.343460e-09	-1.587429e+01	-6.128052e+02
6.100000e-07	-2.191730e-06	-9.213143e-09	-1.520958e+01	-6.046338e+02
6.200000e-07	-2.095183e-06	-9.079618e-09	-1.453959e+01	-5.963027e+02
6.300000e-07	-1.997857e-06	-8.948644e-09	-1.386419e+01	-5.877931e+02
6.400000e-07	-1.899673e-06	-8.817125e-09	-1.318284e+01	-5.790465e+02
6.500000e-07	-1.800601e-06	-8.671440e-09	-1.249533e+01	-5.699867e+02
6.600000e-07	-1.700830e-06	-8.520875e-09	-1.180297e+01	-5.605510e+02
6.700000e-07	-1.600481e-06	-8.372736e-09	-1.110659e+01	-5.507159e+02
6.800000e-07	-1.499610e-06	-8.225383e-09	-1.040659e+01	-5.405042e+02
6.900000e-07	-1.398247e-06	-8.068371e-09	-9.703178e+00	-5.299698e+02
7.000000e-07	-1.296370e-06	-7.899996e-09	-8.996200e+00	-5.191647e+02
7.100000e-07	-1.194057e-06	-7.727391e-09	-8.286197e+00	-5.081048e+02
7.200000e-07	-1.091383e-06	-7.551137e-09	-7.573688e+00	-4.967491e+02
7.300000e-07	-9.883502e-07	-7.368035e-09	-6.858688e+00	-4.850050e+02
7.400000e-07	-8.849240e-07	-7.173747e-09	-6.140959e+00	-4.727584e+02
7.500000e-07	-7.811725e-07	-6.975961e-09	-5.420971e+00	-4.599162e+02
7.600000e-07	-6.772495e-07	-6.775855e-09	-4.699795e+00	-4.464419e+02
7.700000e-07	-5.731690e-07	-6.568406e-09	-3.977525e+00	-4.323663e+02
7.800000e-07	-4.688858e-07	-6.347520e-09	-3.253848e+00	-4.177650e+02
7.900000e-07	-3.644494e-07	-6.115921e-09	-2.529109e+00	-4.027091e+02
8.000000e-07	-2.599206e-07	-5.878850e-09	-1.803728e+00	-3.872107e+02
8.100000e-07	-1.553309e-07	-5.632067e-09	-1.077924e+00	-3.711865e+02
8.200000e-07	-5.065710e-08	-5.373557e-09	-3.515366e-01	-3.544608e+02
8.300000e-07	5.407145e-08	-5.100726e-09	3.752305e-01	-3.368098e+02
8.400000e-07	1.587789e-07	-4.814564e-09	1.101851e+00	-3.180316e+02
8.500000e-07	2.634164e-07	-4.513355e-09	1.827987e+00	-2.980100e+02
8.600000e-07	3.679651e-07	-4.193768e-09	2.553505e+00	-2.767376e+02
8.700000e-07	4.723824e-07	-3.852308e-09	3.278113e+00	-2.542764e+02
8.800000e-07	5.766021e-07	-3.490637e-09	4.001349e+00	-2.306581e+02
8.900000e-07	6.806685e-07	-3.108894e-09	4.723521e+00	-2.057544e+02
9.000000e-07	7.845683e-07	-2.698014e-09	5.444537e+00	-1.791688e+02
9.100000e-07	8.882072e-07	-2.246823e-09	6.163742e+00	-1.502033e+02
9.200000e-07	9.915656e-07	-1.745475e-09	6.881001e+00	-1.179360e+02
9.300000e-07	1.094595e-06	-1.187413e-09	7.595979e+00	-8.141234e+01
9.400000e-07	1.197201e-06	-5.610120e-10	8.308018e+00	-3.991056e+01
9.500000e-07	1.299370e-06	1.456139e-10	9.017020e+00	6.789485e+00
9.600000e-07	1.401144e-06	9.339489e-10	9.723285e+00	5.821525e+01
9.700000e-07	1.502475e-06	1.783099e-09	1.042648e+01	1.131559e+02
9.800000e-07	1.603295e-06	2.657322e-09	1.112612e+01	1.697900e+02
9.900000e-07	1.703573e-06	3.517941e-09	1.182200e+01	2.259652e+02
1.000000e-06	1.803269e-06	4.329564e-09	1.251384e+01	2.795627e+02
1.010000e-06	1.902308e-06	5.064769e-09	1.320113e+01	3.288534e+02
1.020000e-06	2.000492e-06	5.712957e-09	1.388248e+01	3.727559e+02
1.030000e-06	2.097714e-06	6.280155e-09	1.455715e+01	4.109352e+02
1.040000e-06	2.194104e-06	6.775118e-09	1.522605e+01	4.437301e+02
1.050000e-06	2.289832e-06	7.208660e-09	1.589036e+01	4.719444e+02
1.060000e-06	2.384902e-06	7.589091e-09	1.655011e+01	4.965734e+02
1.070000e-06	2.479166e-06	7.926580e-09	1.720425e+01	5.185481e+02
1.080000e-06	2.572576e-06	8.228085e-09	1.785247e+01	5.385623e+02
1.090000e-06	2.665158e-06	8.500877e-09	1.849495e+01	5.570147e+02
1.100000e-06	2.756866e-06	8.751572e-09	1.913136e+01	5.740573e+02
1.110000e-06	2.847515e-06	8.982470e-09	1.976042e+01	5.897087e+02
1.120000e-06	2.936929e-06	9.195601e-09	2.038091e+01	6.039776e+02
1.130000e-06	3.025233e-06	9.393691e-09	2.099370e+01	6.169489e+02
1.140000e-06	3.112544e-06	9.581575e-09	2.159960e+01	6.288065e+02
1.150000e-06	3.198840e-06	9.755891e-09	2.219845e+01	6.397974e+02
1.160000e-06	3.284107e-06	9.914015e-09	2.279017e+01	6.501622e+02
1.170000e-06	3.368362e-06	1.005810e-08	2.337485e+01	6.600689e+02
1.180000e-06	3.451415e-06	1.019538e-08	2.395120e+01	6.695788e+02
1.190000e-06	3.533090e-06	1.033144e-08	2.451799e+01	6.786568e+02
1.200000e-06	3.613489e-06	1.046381e-08	2.507592e+01	6.872185e+02
1.210000e-06	3.692648e-06	1.058709e-08	2.562525e+01	6.951914e+02
1.220000e-06	3.770515e-06	1.070124e-08	2.616561e+01	7.025630e+02
1.230000e-06	3.847036e-06	1.080912e-08	2.669663e+01	7.093970e+02
1.240000e-06	3.922008e-06	1.091037e-08	2.721690e+01	7.158141e+02
1.250000e-06	3.995298e-06	1.100341e-08	2.772550e+01	7.219491e+02
1.260000e-06	4.067128e-06	1.108861e-08	2.822396e+01	7.279039e+02
1.270000e-06	4.137602e-06	1.117091e-08	2.871302e+01	7.337181e+02
1.280000e-06	4.206695e-06	1.125448e-08	2.919249e+01	7.393683e+02
1.290000e-06	4.274366e-06	1.133880e-08	2.966210e+01	7.447933e+02
1.300000e-06	4.340359e-06	1.142166e-08	3.012006e+01	7.499333e+02
1.310000e-06	4.404706e-06	1.149921e-08	3.056660e+01	7.547633e+02
1.320000e-06	4.467563e-06	1.156798e-08	3.100279e+01	7.593079e+02
1.330000e-06	4.528972e-06	1.163066e-08	3.142895e+01	7.636301e+02
1.340000e-06	4.589018e-06	1.169203e-08	3.184564e+01	7.678023e+02
1.350000e-06	4.647358e-06	1.175243e-08	3.225049e+01	7.718739e+02
1.360000e-06	4.703879e-06	1.181057e-08	3.264272e+01	7.758498e+02
1.370000e-06	4.758729e-06	1.186795e-08	3.302335e+01	7.796903e+02
1.380000e-06	4.811750e-06	1.192444e-08	3.339129e+01	7.833318e+02
1.390000e-06	4.862755e-06	1.197604e-08	3.374524e+01	7.867188e+02
1.400000e-06	4.911794e-06	1.202308e-08	3.408555e+01	7.898313e+02
1.410000e-06	4.959091e-06	1.206668e-08	3.441377e+01	7.926960e+02
1.420000e-06	5.004765e-06	1.210871e-08	3.473072e+01	7.953756e+02
1.430000e-06	5.048797e-06	1.215009e-08	3.503629e+01	7.979417e+02
1.440000e-06	5.090922e-06	1.218838e-08	3.532862e+01	8.004432e+02
1.450000e-06	5.131159e-06	1.222479e-08	3.560784e+01	8.028850e+02
1.460000e-06	5.169706e-06	1.225958e-08	3.587534e+01	8.052268e+02
1.470000e-06	5.206555e-06	1.229261e-08	3.613105e+01	8.074027e+02
1.480000e-06	5.241500e-06	1.232256e-08	3.637356e+01	8.093526e+02
1.490000e-06	5.274451e-06	1.234950e-08	3.660222e+01	8.110520e+02
1.500000e-06	5.305591e-06	1.237453e-08	3.681832e+01	8.125259e+02
1.510000e-06	5.335042e-06	1.239722e-08	3.702270e+01	8.138410e+02
1.520000e-06	5.362668e-06	1.241767e-08	3.721441e+01	8.150788e+02
1.530000e-06	5.388150e-06	1.243748e-08	3.739124e+01	8.163016e+02
1.540000e-06	5.411622e-06	1.245695e-08	3.755412e+01	8.175261e+02
1.550000e-06	5.433356e-06	1.247444e-08	3.770494e+01	8.187163e+02
1.560000e-06	5.453348e-06	1.249019e-08	3.784368e+01	8.197998e+02
1.570000e-06	5.471329e-06	1.250317e-08	3.796846e+01	8.206993e+02
1.580000e-06	5.487260e-06	1.251245e-08	3.807902e+01	8.213679e+02
1.590000e-06	5.501269e-06	1.251997e-08	3.817623e+01	8.218107e+02
1.600000e-06	5.513102e-06	1.252810e-08	3.825835e+01	8.220843e+02
1.610000e-06	5.522731e-06	1.253601e-08	3.832517e+01	8.222744e+02
1.620000e-06	5.530402e-06	1.254215e-08	3.837840e+01	8.224596e+02
1.630000e-06	5.536283e-06	1.254626e-08	3.841921e+01	8.226784e+02
1.640000e-06	5.540285e-06	1.254927e-08	3.844699e+01	8.229127e+02
1.650000e-06	5.542160e-06	1.255392e-08	3.846000e+01	8.230953e+02
1.660000e-06	5.542059e-06	1.255543e-08	3.845929e+01	8.231388e+02
1.670000e-06	5.540251e-06	1.254543e-08	3.844675e+01	8.229730e+02
1.680000e-06	5.536746e-06	1.253883e-08	3.842243e+01	8.225755e+02
1.690000e-06	5.531253e-06	1.253326e-08	3.838431e+01	8.219818e+02
1.700000e-06	5.523844e-06	1.252687e-08	3.833289e+01	8.212707e+02
1.710000e-06	5.514827e-06	1.252121e-08	3.827032e+01	8.205312e+02
1.720000e-06	5.504130e-06	1.251929e-08	3.819608e+01	8.198244e+02
1.730000e-06	5.491410e-06	1.254218e-08	3.810782e+01	8.191577e+02
1.740000e-06	5.476645e-06	1.247303e-08	3.800535e+01	8.184821e+02
1.750000e-06	5.459811e-06	1.237611e-08	3.788853e+01	8.177131e+02
1.760000e-06	5.440299e-06	1.239229e-08	3.775313e+01	8.167686e+02
1.770000e-06	5.418089e-06	1.238212e-08	3.759900e+01	8.156050e+02
1.780000e-06	5.394010e-06	1.248959e-08	3.743191e+01	8.142384e+02
1.790000e-06	5.369059e-06	1.248137e-08	3.725876e+01	8.127396e+02
1.800000e-06	5.343211e-06	1.225019e-08	3.707938e+01	8.112060e+02
1.810000e-06	5.315142e-06	1.241900e-08	3.688460e+01	8.097205e+02
1.820000e-06	5.284820e-06	1.239076e-08	3.667418e+01	8.083154e+02
1.830000e-06	5.253075e-06	1.216240e-08	3.645388e+01	8.069562e+02
1.840000e-06	5.219483e-06	1.235909e-08	3.622077e+01	8.055521e+02
1.850000e-06	5.184126e-06	1.223711e-08	3.597541e+01	8.039888e+02
1.860000e-06	5.146935e-06	1.211956e-08	3.571732e+01	8.021718e+02
1.870000e-06	5.107585e-06	1.232715e-08	3.544425e+01	8.000613e+02
1.880000e-06	5.066670e-06	1.215610e-08	3.516032e+01	7.976846e+02
1.890000e-06	5.024064e-06	1.211256e-08	3.486466e+01	7.951233e+02
1.900000e-06	4.979514e-06	1.208074e-08	3.455550e+01	7.924787e+02
1.910000e-06	4.933273e-06	1.192518e-08	3.423461e+01	7.898315e+02
1.920000e-06	4.885097e-06	1.207814e-08	3.390029e+01	7.872114e+02
1.930000e-06	4.835142e-06	1.194926e-08	3.355363e+01	7.845891e+02
1.940000e-06	4.783339e-06	1.189355e-08	3.319413e+01	7.818923e+02
1.950000e-06	4.729364e-06	1.193112e-08	3.281958e+01	7.790388e+02
1.960000e-06	4.673731e-06	1.180466e-08	3.243351e+01	7.759710e+02
1.970000e-06	4.616483e-06	1.180644e-08	3.203623e+01	7.726789e+02
1.980000e-06	4.557622e-06	1.165351e-08	3.162776e+01	7.692002e+02
1.990000e-06	4.497130e-06	1.165409e-08	3.120798e+01	7.656009e+02
2.000000e-06	4.434867e-06	1.164080e-08	3.077590e+01	7.619435e+02
2.010000e-06	4.371046e-06	1.153650e-08	3.033302e+01	7.582590e+02
2.020000e-06	4.305679e-06	1.156058e-08	2.987940e+01	7.545329e+02
2.030000e-06	4.238926e-06	1.140052e-08	2.941616e+01	7.507131e+02
2.040000e-06	4.170518e-06	1.139031e-08	2.894144e+01	7.467336e+02
2.050000e-06	4.100268e-06	1.132233e-08	2.845394e+01	7.425440e+02
2.060000e-06	4.028659e-06	1.121174e-08	2.795701e+01	7.381317e+02
2.070000e-06	3.955716e-06	1.119057e-08	2.745082e+01	7.335257e+02
2.080000e-06	3.881323e-06	1.107907e-08	2.693456e+01	7.287819e+02
2.090000e-06	3.805260e-06	1.107906e-08	2.640672e+01	7.239558e+02
2.100000e-06	3.727534e-06	1.096645e-08	2.586734e+01	7.190751e+02
2.110000e-06	3.648491e-06	1.088642e-08	2.531882e+01	7.141247e+02
2.120000e-06	3.568248e-06	1.080809e-08	2.476197e+01	7.090518e+02
2.130000e-06	3.486854e-06	1.070660e-08	2.419714e+01	7.037867e+02
2.140000e-06	3.404330e-06	1.066168e-08	2.362446e+01	6.982729e+02
2.150000e-06	3.320599e-06	1.053520e-08	2.304340e+01	6.924907e+02
2.160000e-06	3.235469e-06	1.047086e-08	2.245264e+01	6.864648e+02
2.170000e-06	3.149044e-06	1.036795e-08	2.185289e+01	6.802524e+02
2.180000e-06	3.061580e-06	1.028381e-08	2.124593e+01	6.739163e+02
2.190000e-06	2.973156e-06	1.018826e-08	2.063231e+01	6.674961e+02
2.200000e-06	2.883803e-06	1.006774e-08	2.001225e+01	6.609889e+02
2.210000e-06	2.793512e-06	9.982789e-09	1.938567e+01	6.543494e+02
2.220000e-06	2.702245e-06	9.871789e-09	1.875232e+01	6.475081e+02
2.230000e-06	2.609880e-06	9.777560e-09	1.811135e+01	6.404010e+02
2.240000e-06	2.516488e-06	9.646575e-09	1.746325e+01	6.329948e+02
2.250000e-06	2.422178e-06	9.529537e-09	1.680878e+01	6.252993e+02
2.260000e-06	2.326974e-06	9.419218e-09	1.614811e+01	6.173576e+02
2.270000e-06	2.230978e-06	9.301821e-09	1.548194e+01	6.092223e+02
2.280000e-06	2.134220e-06	9.180831e-09	1.481049e+01	6.009252e+02
2.290000e-06	2.036752e-06	9.041234e-09	1.413411e+01	5.924575e+02
2.300000e-06	1.938682e-06	8.910875e-09	1.345355e+01	5.837678e+02
2.310000e-06	1.840107e-06	8.773289e-09	1.276948e+01	5.747812e+02
2.320000e-06	1.740932e-06	8.632761e-09	1.208125e+01	5.654294e+02
2.330000e-06	1.641104e-06	8.480891e-09	1.138849e+01	5.556793e+02
2.340000e-06	1.540651e-06	8.329739e-09	1.069140e+01	5.455443e+02
2.350000e-06	1.439514e-06	8.176693e-09	9.989550e+00	5.350738e+02
2.360000e-06	1.337723e-06	8.014074e-09	9.283169e+00	5.243236e+02
2.370000e-06	1.235416e-06	7.842916e-09	8.573208e+00	5.133195e+02
2.380000e-06	1.132721e-06	7.668263e-09	7.860556e+00	5.020333e+02
2.390000e-06	1.029621e-06	7.494743e-09	7.145091e+00	4.903818e+02
2.400000e-06	9.261174e-07	7.311528e-09	6.426821e+00	4.782520e+02
2.410000e-06	8.222745e-07	7.117106e-09	5.706200e+00	4.655426e+02
2.420000e-06	7.181639e-07	6.913116e-09	4.983721e+00	4.522032e+02
2.430000e-06	6.138642e-07	6.703247e-09	4.259930e+00	4.382508e+02
2.440000e-06	5.094082e-07	6.485427e-09	3.535054e+00	4.237550e+02
2.450000e-06	4.047758e-07	6.259093e-09	2.808955e+00	4.087926e+02
2.460000e-06	3.000111e-07	6.023290e-09	2.081937e+00	3.933923e+02
2.470000e-06	1.951611e-07	5.781362e-09	1.354327e+00	3.774927e+02
2.480000e-06	9.025391e-08	5.526840e-09	6.263199e-01	3.609353e+02
2.490000e-06	-1.469085e-08	5.252223e-09	-1.019476e-01	3.435013e+02
2.500000e-06	-1.196371e-07	4.962600e-09	-8.302257e-01	3.249779e+02
2.510000e-06	-2.245462e-07	4.662607e-09	-1.558246e+00	3.052268e+02
2.520000e-06	-3.293875e-07	4.353703e-09	-2.285795e+00	2.842183e+02
2.530000e-06	-4.341108e-07	4.026241e-09	-3.012525e+00	2.620061e+02
2.540000e-06	-5.386863e-07	3.672216e-09	-3.738231e+00	2.386389e+02
2.550000e-06	-6.430363e-07	3.293437e-09	-4.462371e+00	2.140335e+02
2.560000e-06	-7.471399e-07	2.890815e-09	-5.184801e+00	1.878571e+02
2.570000e-06	-8.510243e-07	2.452823e-09	-5.905710e+00	1.594735e+02
2.580000e-06	-9.546288e-07	1.966753e-09	-6.624677e+00	1.279966e+02
2.590000e-06	-1.057827e-06	1.427922e-09	-7.340825e+00	9.245788e+01
2.600000e-06	-1.160595e-06	8.288171e-10	-8.053986e+00	5.206199e+01
2.610000e-06	-1.262923e-06	1.550906e-10	-8.764093e+00	6.461351e+00
2.620000e-06	-1.364742e-06	-6.031821e-10	-9.470673e+00	-4.402947e+01
2.630000e-06	-1.466013e-06	-1.434948e-09	-1.017344e+01	-9.835299e+01
2.640000e-06	-1.566675e-06	-2.308779e-09	-1.087199e+01	-1.547995e+02
2.650000e-06	-1.666683e-06	-3.186763e-09	-1.156600e+01	-2.112585e+02
2.660000e-06	-1.765929e-06	-4.027957e-09	-1.225472e+01	-2.655722e+02
2.670000e-06	-1.864517e-06	-4.797415e-09	-1.293888e+01	-3.159018e+02
2.680000e-06	-1.962619e-06	-5.481482e-09	-1.361965e+01	-3.610126e+02
2.690000e-06	-2.060092e-06	-6.079504e-09	-1.429607e+01	-4.004105e+02
2.700000e-06	-2.156809e-06	-6.598915e-09	-1.496724e+01	-4.343036e+02
2.710000e-06	-2.252865e-06	-7.052577e-09	-1.563383e+01	-4.634181e+02
2.720000e-06	-2.348279e-06	-7.452429e-09	-1.629596e+01	-4.887316e+02
2.730000e-06	-2.442962e-06	-7.806374e-09	-1.695301e+01	-5.112071e+02
2.740000e-06	-2.536815e-06	-8.122328e-09	-1.760431e+01	-5.315980e+02
2.750000e-06	-2.629606e-06	-8.409986e-09	-1.824824e+01	-5.503655e+02
2.760000e-06	-2.721214e-06	-8.673492e-09	-1.888395e+01	-5.677062e+02
2.770000e-06	-2.811761e-06	-8.913263e-09	-1.951231e+01	-5.836565e+02
2.780000e-06	-2.901342e-06	-9.131135e-09	-2.013395e+01	-5.982181e+02
2.790000e-06	-2.989946e-06	-9.331938e-09	-2.074883e+01	-6.114553e+02
2.800000e-06	-3.077582e-06	-9.521387e-09	-2.135698e+01	-6.235322e+02
2.810000e-06	-3.164190e-06	-9.699901e-09	-2.195800e+01	-6.346873e+02
2.820000e-06	-3.249592e-06	-9.865335e-09	-2.255065e+01	-6.451690e+02
2.830000e-06	-3.333701e-06	-1.001999e-08	-2.313432e+01	-6.551651e+02
2.840000e-06	-3.416626e-06	-1.016752e-08	-2.370979e+01	-6.647604e+02
2.850000e-06	-3.498420e-06	-1.030482e-08	-2.427740e+01	-6.739374e+02
2.860000e-06	-3.579064e-06	-1.043104e-08	-2.483703e+01	-6.826173e+02
2.870000e-06	-3.658509e-06	-1.054792e-08	-2.538834e+01	-6.907201e+02
2.880000e-06	-3.736666e-06	-1.066045e-08	-2.593071e+01	-6.982179e+02
2.890000e-06	-3.813285e-06	-1.077014e-08	-2.646242e+01	-7.051585e+02
2.900000e-06	-3.888315e-06	-1.087380e-08	-2.698308e+01	-7.116535e+02
2.910000e-06	-3.961896e-06	-1.097230e-08	-2.749370e+01	-7.178388e+02
2.920000e-06	-4.034047e-06	-1.106803e-08	-2.799440e+01	-7.238267e+02
2.930000e-06	-4.104855e-06	-1.116017e-08	-2.848578e+01	-7.296712e+02
2.940000e-06	-4.174157e-06	-1.124488e-08	-2.896670e+01	-7.353611e+02
