# Temperatura_=_58.46
# Concentracion g/m^3_=_13400.0
# C_Vs_to_Am_M_A/Vsm_=_65563218390.804596
# pendiente_HvsI_1/m_=_3716.3
# ordenada_HvsI_A/m_=_1297.0
# frecuencia_Hz_=_300795.9491225264

Tiempo_(s)	Campo_(V.s)	Magnetizacion_(V.s)	Campo_(kA/m)	Magnetizacion_(A/m)
0.000000e+00	-5.498357e-06	-1.265499e-08	-3.830535e+01	-8.289736e+02
1.000000e-08	-5.495981e-06	-1.265956e-08	-3.828880e+01	-8.287749e+02
2.000000e-08	-5.491656e-06	-1.265560e-08	-3.825867e+01	-8.283477e+02
3.000000e-08	-5.485669e-06	-1.264714e-08	-3.821696e+01	-8.277222e+02
4.000000e-08	-5.478077e-06	-1.263508e-08	-3.816407e+01	-8.269719e+02
5.000000e-08	-5.468851e-06	-1.261844e-08	-3.809979e+01	-8.261819e+02
6.000000e-08	-5.457634e-06	-1.259732e-08	-3.802165e+01	-8.254108e+02
7.000000e-08	-5.444257e-06	-1.256132e-08	-3.792846e+01	-8.246666e+02
8.000000e-08	-5.428788e-06	-1.256871e-08	-3.782069e+01	-8.239044e+02
9.000000e-08	-5.410934e-06	-1.264256e-08	-3.769630e+01	-8.230481e+02
1.000000e-07	-5.390815e-06	-1.262963e-08	-3.755614e+01	-8.220269e+02
1.100000e-07	-5.368756e-06	-1.258181e-08	-3.740246e+01	-8.208096e+02
1.200000e-07	-5.345018e-06	-1.254195e-08	-3.723709e+01	-8.194223e+02
1.300000e-07	-5.319970e-06	-1.239202e-08	-3.706258e+01	-8.179402e+02
1.400000e-07	-5.293331e-06	-1.246269e-08	-3.687700e+01	-8.164570e+02
1.500000e-07	-5.264694e-06	-1.252237e-08	-3.667750e+01	-8.150443e+02
1.600000e-07	-5.234386e-06	-1.231816e-08	-3.646635e+01	-8.137180e+02
1.700000e-07	-5.202462e-06	-1.243556e-08	-3.624395e+01	-8.124258e+02
1.800000e-07	-5.168503e-06	-1.246416e-08	-3.600736e+01	-8.110623e+02
1.900000e-07	-5.132657e-06	-1.228774e-08	-3.575764e+01	-8.095054e+02
2.000000e-07	-5.095263e-06	-1.237023e-08	-3.549712e+01	-8.076602e+02
2.100000e-07	-5.056143e-06	-1.227239e-08	-3.522458e+01	-8.054923e+02
2.200000e-07	-5.015195e-06	-1.216433e-08	-3.493932e+01	-8.030373e+02
2.300000e-07	-4.972268e-06	-1.224831e-08	-3.464025e+01	-8.003839e+02
2.400000e-07	-4.927384e-06	-1.218895e-08	-3.432756e+01	-7.976370e+02
2.500000e-07	-4.880759e-06	-1.216207e-08	-3.400274e+01	-7.948772e+02
2.600000e-07	-4.832295e-06	-1.209616e-08	-3.366510e+01	-7.921318e+02
2.700000e-07	-4.781799e-06	-1.199291e-08	-3.331332e+01	-7.893696e+02
2.800000e-07	-4.729222e-06	-1.199718e-08	-3.294703e+01	-7.865197e+02
2.900000e-07	-4.674835e-06	-1.194679e-08	-3.256813e+01	-7.835049e+02
3.000000e-07	-4.618851e-06	-1.188699e-08	-3.217811e+01	-7.802753e+02
3.100000e-07	-4.561151e-06	-1.183740e-08	-3.177613e+01	-7.768284e+02
3.200000e-07	-4.501599e-06	-1.182103e-08	-3.136125e+01	-7.732064e+02
3.300000e-07	-4.440425e-06	-1.177068e-08	-3.093507e+01	-7.694744e+02
3.400000e-07	-4.377817e-06	-1.166141e-08	-3.049890e+01	-7.656894e+02
3.500000e-07	-4.313776e-06	-1.160596e-08	-3.005274e+01	-7.618738e+02
3.600000e-07	-4.248203e-06	-1.152524e-08	-2.959592e+01	-7.580056e+02
3.700000e-07	-4.180891e-06	-1.149197e-08	-2.912697e+01	-7.540291e+02
3.800000e-07	-4.111942e-06	-1.146596e-08	-2.864663e+01	-7.498799e+02
3.900000e-07	-4.041570e-06	-1.136524e-08	-2.815637e+01	-7.455134e+02
4.000000e-07	-3.969909e-06	-1.130006e-08	-2.765713e+01	-7.409235e+02
4.100000e-07	-3.896993e-06	-1.122612e-08	-2.714915e+01	-7.361430e+02
4.200000e-07	-3.822573e-06	-1.115250e-08	-2.663068e+01	-7.312261e+02
4.300000e-07	-3.746425e-06	-1.105844e-08	-2.610019e+01	-7.262212e+02
4.400000e-07	-3.668756e-06	-1.097441e-08	-2.555909e+01	-7.211459e+02
4.500000e-07	-3.589666e-06	-1.091802e-08	-2.500810e+01	-7.159773e+02
4.600000e-07	-3.509030e-06	-1.084785e-08	-2.444633e+01	-7.106601e+02
4.700000e-07	-3.427062e-06	-1.076853e-08	-2.387528e+01	-7.051306e+02
4.800000e-07	-3.343944e-06	-1.065561e-08	-2.329623e+01	-6.993448e+02
4.900000e-07	-3.259708e-06	-1.055961e-08	-2.270938e+01	-6.932980e+02
5.000000e-07	-3.174482e-06	-1.047708e-08	-2.211563e+01	-6.870267e+02
5.100000e-07	-3.088308e-06	-1.038665e-08	-2.151529e+01	-6.805914e+02
5.200000e-07	-3.001162e-06	-1.028453e-08	-2.090817e+01	-6.740488e+02
5.300000e-07	-2.913052e-06	-1.017365e-08	-2.029433e+01	-6.674245e+02
5.400000e-07	-2.824035e-06	-1.007515e-08	-1.967418e+01	-6.606993e+02
5.500000e-07	-2.733953e-06	-9.971852e-09	-1.904660e+01	-6.538159e+02
5.600000e-07	-2.642635e-06	-9.853876e-09	-1.841042e+01	-6.467020e+02
5.700000e-07	-2.550233e-06	-9.730801e-09	-1.776668e+01	-6.393008e+02
5.800000e-07	-2.457001e-06	-9.617501e-09	-1.711716e+01	-6.315942e+02
5.900000e-07	-2.363036e-06	-9.510597e-09	-1.646254e+01	-6.236075e+02
6.000000e-07	-2.268281e-06	-9.388669e-09	-1.580241e+01	-6.153942e+02
6.100000e-07	-2.172768e-06	-9.251263e-09	-1.513700e+01	-6.070073e+02
6.200000e-07	-2.076547e-06	-9.110152e-09	-1.446666e+01	-5.984693e+02
6.300000e-07	-1.979567e-06	-8.975079e-09	-1.379103e+01	-5.897560e+02
6.400000e-07	-1.881792e-06	-8.841896e-09	-1.310986e+01	-5.808017e+02
6.500000e-07	-1.783214e-06	-8.695900e-09	-1.242310e+01	-5.715244e+02
6.600000e-07	-1.683838e-06	-8.546295e-09	-1.173078e+01	-5.618589e+02
6.700000e-07	-1.583781e-06	-8.399769e-09	-1.103371e+01	-5.517840e+02
6.800000e-07	-1.483222e-06	-8.246149e-09	-1.033315e+01	-5.413279e+02
6.900000e-07	-1.382203e-06	-8.077003e-09	-9.629382e+00	-5.305511e+02
7.000000e-07	-1.280705e-06	-7.899886e-09	-8.922275e+00	-5.195106e+02
7.100000e-07	-1.178791e-06	-7.727344e-09	-8.212272e+00	-5.082235e+02
7.200000e-07	-1.076416e-06	-7.554249e-09	-7.499057e+00	-4.966458e+02
7.300000e-07	-9.736010e-07	-7.370110e-09	-6.782777e+00	-4.846799e+02
7.400000e-07	-8.704564e-07	-7.171267e-09	-6.064201e+00	-4.722064e+02
7.500000e-07	-7.669950e-07	-6.968582e-09	-5.343417e+00	-4.591303e+02
7.600000e-07	-6.633200e-07	-6.763088e-09	-4.621145e+00	-4.454174e+02
7.700000e-07	-5.595061e-07	-6.546173e-09	-3.897906e+00	-4.311049e+02
7.800000e-07	-4.555329e-07	-6.316823e-09	-3.173557e+00	-4.162760e+02
7.900000e-07	-3.514136e-07	-6.085038e-09	-2.448190e+00	-4.010070e+02
8.000000e-07	-2.472006e-07	-5.853091e-09	-1.722170e+00	-3.853097e+02
8.100000e-07	-1.429215e-07	-5.604977e-09	-9.956901e-01	-3.690944e+02
8.200000e-07	-3.859280e-08	-5.336993e-09	-2.688641e-01	-3.521744e+02
8.300000e-07	6.575734e-08	-5.056212e-09	4.581111e-01	-3.343135e+02
8.400000e-07	1.701041e-07	-4.768728e-09	1.185063e+00	-3.153004e+02
8.500000e-07	2.743810e-07	-4.465651e-09	1.911528e+00	-2.950144e+02
8.600000e-07	3.785710e-07	-4.137872e-09	2.637387e+00	-2.734473e+02
8.700000e-07	4.826591e-07	-3.788240e-09	3.362537e+00	-2.506602e+02
8.800000e-07	5.865951e-07	-3.422714e-09	4.086627e+00	-2.266787e+02
8.900000e-07	6.903801e-07	-3.036651e-09	4.809665e+00	-2.013584e+02
9.000000e-07	7.939453e-07	-2.614969e-09	5.531171e+00	-1.742774e+02
9.100000e-07	8.972085e-07	-2.150249e-09	6.250574e+00	-1.447083e+02
9.200000e-07	1.000157e-06	-1.639346e-09	6.967785e+00	-1.117077e+02
9.300000e-07	1.102775e-06	-1.074562e-09	7.682689e+00	-7.432077e+01
9.400000e-07	1.204996e-06	-4.364735e-10	8.394834e+00	-3.185759e+01
9.500000e-07	1.306793e-06	2.899308e-10	9.104023e+00	1.583356e+01
9.600000e-07	1.408176e-06	1.096967e-09	9.810328e+00	6.818224e+01
9.700000e-07	1.509098e-06	1.956916e-09	1.051342e+01	1.238673e+02
9.800000e-07	1.609571e-06	2.836486e-09	1.121339e+01	1.809691e+02
9.900000e-07	1.709530e-06	3.700196e-09	1.190977e+01	2.372732e+02
1.000000e-06	1.808746e-06	4.508758e-09	1.260097e+01	2.906531e+02
1.010000e-06	1.907091e-06	5.232794e-09	1.328611e+01	3.394303e+02
1.020000e-06	2.004545e-06	5.867107e-09	1.396504e+01	3.826227e+02
1.030000e-06	2.101225e-06	6.423228e-09	1.463859e+01	4.200197e+02
1.040000e-06	2.197257e-06	6.911556e-09	1.530761e+01	4.520800e+02
1.050000e-06	2.292609e-06	7.340073e-09	1.597190e+01	4.796963e+02
1.060000e-06	2.387194e-06	7.714765e-09	1.663085e+01	5.039042e+02
1.070000e-06	2.480987e-06	8.047134e-09	1.728427e+01	5.256246e+02
1.080000e-06	2.574007e-06	8.346639e-09	1.793231e+01	5.455032e+02
1.090000e-06	2.666232e-06	8.618907e-09	1.857481e+01	5.638747e+02
1.100000e-06	2.757453e-06	8.867360e-09	1.921032e+01	5.808349e+02
1.110000e-06	2.847417e-06	9.094880e-09	1.983708e+01	5.963728e+02
1.120000e-06	2.936206e-06	9.308239e-09	2.045564e+01	6.105001e+02
1.130000e-06	3.024047e-06	9.509473e-09	2.106760e+01	6.233309e+02
1.140000e-06	3.110979e-06	9.695320e-09	2.167323e+01	6.350896e+02
1.150000e-06	3.196859e-06	9.864064e-09	2.227153e+01	6.460560e+02
1.160000e-06	3.281718e-06	1.002168e-08	2.286271e+01	6.564819e+02
1.170000e-06	3.365562e-06	1.017215e-08	2.344683e+01	6.665197e+02
1.180000e-06	3.448079e-06	1.031693e-08	2.402170e+01	6.761938e+02
1.190000e-06	3.529224e-06	1.045545e-08	2.458701e+01	6.854254e+02
1.200000e-06	3.609138e-06	1.058614e-08	2.514375e+01	6.940954e+02
1.210000e-06	3.687809e-06	1.070960e-08	2.569183e+01	7.021176e+02
1.220000e-06	3.765234e-06	1.082623e-08	2.623122e+01	7.094907e+02
1.230000e-06	3.841242e-06	1.093332e-08	2.676075e+01	7.163086e+02
1.240000e-06	3.915581e-06	1.103032e-08	2.727864e+01	7.227286e+02
1.250000e-06	3.988377e-06	1.112300e-08	2.778579e+01	7.289132e+02
1.260000e-06	4.059838e-06	1.121550e-08	2.828364e+01	7.349730e+02
1.270000e-06	4.129929e-06	1.130627e-08	2.877194e+01	7.409346e+02
1.280000e-06	4.198689e-06	1.139228e-08	2.925097e+01	7.467450e+02
1.290000e-06	4.265943e-06	1.147377e-08	2.971951e+01	7.523098e+02
1.300000e-06	4.331454e-06	1.155391e-08	3.017590e+01	7.575451e+02
1.310000e-06	4.395377e-06	1.163247e-08	3.062123e+01	7.624209e+02
1.320000e-06	4.457888e-06	1.170487e-08	3.105673e+01	7.669765e+02
1.330000e-06	4.519039e-06	1.176980e-08	3.148275e+01	7.713042e+02
1.340000e-06	4.578691e-06	1.183151e-08	3.189832e+01	7.755079e+02
1.350000e-06	4.636514e-06	1.189303e-08	3.230116e+01	7.796583e+02
1.360000e-06	4.692558e-06	1.195354e-08	3.269160e+01	7.837631e+02
1.370000e-06	4.747018e-06	1.201260e-08	3.307101e+01	7.877660e+02
1.380000e-06	4.799709e-06	1.206876e-08	3.343809e+01	7.915739e+02
1.390000e-06	4.850302e-06	1.212355e-08	3.379055e+01	7.951004e+02
1.400000e-06	4.898909e-06	1.217706e-08	3.412919e+01	7.983047e+02
1.410000e-06	4.945824e-06	1.222292e-08	3.445603e+01	8.012103e+02
1.420000e-06	4.991117e-06	1.226031e-08	3.477157e+01	8.038954e+02
1.430000e-06	5.034690e-06	1.229698e-08	3.507513e+01	8.064587e+02
1.440000e-06	5.076334e-06	1.233713e-08	3.536525e+01	8.089777e+02
1.450000e-06	5.116189e-06	1.237714e-08	3.564290e+01	8.114761e+02
1.460000e-06	5.154391e-06	1.241269e-08	3.590905e+01	8.139158e+02
1.470000e-06	5.190861e-06	1.244536e-08	3.616313e+01	8.162163e+02
1.480000e-06	5.225345e-06	1.247898e-08	3.640336e+01	8.182920e+02
1.490000e-06	5.257887e-06	1.251175e-08	3.663007e+01	8.200918e+02
1.500000e-06	5.288716e-06	1.253742e-08	3.684485e+01	8.216228e+02
1.510000e-06	5.317838e-06	1.255561e-08	3.704774e+01	8.229487e+02
1.520000e-06	5.345030e-06	1.257376e-08	3.723717e+01	8.241630e+02
1.530000e-06	5.370135e-06	1.259485e-08	3.741207e+01	8.253495e+02
1.540000e-06	5.393352e-06	1.261499e-08	3.757381e+01	8.265467e+02
1.550000e-06	5.414816e-06	1.263080e-08	3.772335e+01	8.277330e+02
1.560000e-06	5.434450e-06	1.264529e-08	3.786013e+01	8.288369e+02
1.570000e-06	5.452090e-06	1.266132e-08	3.798303e+01	8.297696e+02
1.580000e-06	5.467723e-06	1.267546e-08	3.809193e+01	8.304652e+02
1.590000e-06	5.481379e-06	1.268387e-08	3.818707e+01	8.309101e+02
1.600000e-06	5.492890e-06	1.268823e-08	3.826727e+01	8.311506e+02
1.610000e-06	5.502231e-06	1.269265e-08	3.833234e+01	8.312739e+02
1.620000e-06	5.509649e-06	1.269740e-08	3.838402e+01	8.313719e+02
1.630000e-06	5.515260e-06	1.269975e-08	3.842311e+01	8.315030e+02
1.640000e-06	5.518939e-06	1.269891e-08	3.844874e+01	8.316683e+02
1.650000e-06	5.520555e-06	1.270229e-08	3.846000e+01	8.318126e+02
1.660000e-06	5.520286e-06	1.270678e-08	3.845813e+01	8.318491e+02
1.670000e-06	5.518344e-06	1.270150e-08	3.844460e+01	8.316976e+02
1.680000e-06	5.514660e-06	1.269469e-08	3.841893e+01	8.313186e+02
1.690000e-06	5.509009e-06	1.268554e-08	3.837956e+01	8.307303e+02
1.700000e-06	5.501527e-06	1.267764e-08	3.832744e+01	8.299993e+02
1.710000e-06	5.492421e-06	1.267098e-08	3.826400e+01	8.292113e+02
1.720000e-06	5.481508e-06	1.266742e-08	3.818797e+01	8.284334e+02
1.730000e-06	5.468538e-06	1.268293e-08	3.809761e+01	8.276855e+02
1.740000e-06	5.453595e-06	1.260773e-08	3.799351e+01	8.269329e+02
1.750000e-06	5.436526e-06	1.253413e-08	3.787460e+01	8.261033e+02
1.760000e-06	5.416764e-06	1.254897e-08	3.773692e+01	8.251217e+02
1.770000e-06	5.394374e-06	1.253825e-08	3.758093e+01	8.239462e+02
1.780000e-06	5.370219e-06	1.265189e-08	3.741266e+01	8.225902e+02
1.790000e-06	5.345255e-06	1.259762e-08	3.723874e+01	8.211204e+02
1.800000e-06	5.319302e-06	1.240759e-08	3.705793e+01	8.196298e+02
1.810000e-06	5.291090e-06	1.257710e-08	3.686139e+01	8.181983e+02
1.820000e-06	5.260726e-06	1.247685e-08	3.664985e+01	8.168555e+02
1.830000e-06	5.228927e-06	1.231058e-08	3.642832e+01	8.155634e+02
1.840000e-06	5.195270e-06	1.249943e-08	3.619384e+01	8.142254e+02
1.850000e-06	5.159884e-06	1.233501e-08	3.594731e+01	8.127193e+02
1.860000e-06	5.122651e-06	1.227837e-08	3.568792e+01	8.109411e+02
1.870000e-06	5.083259e-06	1.243839e-08	3.541349e+01	8.088416e+02
1.880000e-06	5.042287e-06	1.224337e-08	3.512806e+01	8.064418e+02
1.890000e-06	4.999634e-06	1.223509e-08	3.483090e+01	8.038219e+02
1.900000e-06	4.955076e-06	1.217797e-08	3.452048e+01	8.010867e+02
1.910000e-06	4.908807e-06	1.206823e-08	3.419814e+01	7.983251e+02
1.920000e-06	4.860593e-06	1.221722e-08	3.386225e+01	7.955772e+02
1.930000e-06	4.810590e-06	1.205690e-08	3.351389e+01	7.928236e+02
1.940000e-06	4.758707e-06	1.201126e-08	3.315244e+01	7.899993e+02
1.950000e-06	4.704731e-06	1.202625e-08	3.277640e+01	7.870252e+02
1.960000e-06	4.649086e-06	1.191420e-08	3.238874e+01	7.838434e+02
1.970000e-06	4.591763e-06	1.189778e-08	3.198939e+01	7.804407e+02
1.980000e-06	4.532909e-06	1.175347e-08	3.157937e+01	7.768509e+02
1.990000e-06	4.472422e-06	1.178041e-08	3.115798e+01	7.731368e+02
2.000000e-06	4.410175e-06	1.174766e-08	3.072432e+01	7.693597e+02
2.010000e-06	4.346434e-06	1.166116e-08	3.028026e+01	7.655509e+02
2.020000e-06	4.281151e-06	1.165253e-08	2.982545e+01	7.616977e+02
2.030000e-06	4.214494e-06	1.148351e-08	2.936107e+01	7.577499e+02
2.040000e-06	4.146236e-06	1.148163e-08	2.888554e+01	7.536424e+02
2.050000e-06	4.076192e-06	1.140027e-08	2.839757e+01	7.493242e+02
2.060000e-06	4.004751e-06	1.131362e-08	2.789986e+01	7.447805e+02
2.070000e-06	3.931972e-06	1.128539e-08	2.739283e+01	7.400364e+02
2.080000e-06	3.857749e-06	1.118306e-08	2.687574e+01	7.351440e+02
2.090000e-06	3.781799e-06	1.117464e-08	2.634662e+01	7.301549e+02
2.100000e-06	3.704149e-06	1.104776e-08	2.580566e+01	7.250952e+02
2.110000e-06	3.625169e-06	1.095930e-08	2.525543e+01	7.199502e+02
2.120000e-06	3.545017e-06	1.086163e-08	2.469704e+01	7.146703e+02
2.130000e-06	3.463720e-06	1.077156e-08	2.413067e+01	7.091909e+02
2.140000e-06	3.381295e-06	1.072672e-08	2.355643e+01	7.034618e+02
2.150000e-06	3.297708e-06	1.060967e-08	2.297411e+01	6.974690e+02
2.160000e-06	3.212741e-06	1.054293e-08	2.238218e+01	6.912410e+02
2.170000e-06	3.126495e-06	1.042987e-08	2.178133e+01	6.848353e+02
2.180000e-06	3.039243e-06	1.033918e-08	2.117347e+01	6.783121e+02
2.190000e-06	2.951022e-06	1.022995e-08	2.055886e+01	6.717052e+02
2.200000e-06	2.861831e-06	1.010679e-08	1.993749e+01	6.650053e+02
2.210000e-06	2.771713e-06	1.001920e-08	1.930967e+01	6.581616e+02
2.220000e-06	2.680706e-06	9.915092e-09	1.867565e+01	6.511027e+02
2.230000e-06	2.588685e-06	9.818616e-09	1.803457e+01	6.437661e+02
2.240000e-06	2.495564e-06	9.681737e-09	1.738582e+01	6.361241e+02
2.250000e-06	2.401447e-06	9.561211e-09	1.673014e+01	6.281932e+02
2.260000e-06	2.306516e-06	9.447054e-09	1.606878e+01	6.200234e+02
2.270000e-06	2.210862e-06	9.331556e-09	1.540239e+01	6.116703e+02
2.280000e-06	2.114479e-06	9.204338e-09	1.473092e+01	6.031650e+02
2.290000e-06	2.017365e-06	9.056542e-09	1.405436e+01	5.944934e+02
2.300000e-06	1.919562e-06	8.919073e-09	1.337299e+01	5.855975e+02
2.310000e-06	1.821207e-06	8.779917e-09	1.268779e+01	5.763958e+02
2.320000e-06	1.722340e-06	8.639270e-09	1.199901e+01	5.668169e+02
2.330000e-06	1.623011e-06	8.484425e-09	1.130702e+01	5.568288e+02
2.340000e-06	1.523123e-06	8.332205e-09	1.061113e+01	5.464498e+02
2.350000e-06	1.422459e-06	8.178588e-09	9.909831e+00	5.357361e+02
2.360000e-06	1.321102e-06	8.013911e-09	9.203712e+00	5.247487e+02
2.370000e-06	1.219209e-06	7.832455e-09	8.493855e+00	5.135158e+02
2.380000e-06	1.116857e-06	7.645180e-09	7.780800e+00	5.020070e+02
2.390000e-06	1.014092e-06	7.466654e-09	7.064863e+00	4.901341e+02
2.400000e-06	9.109231e-07	7.287066e-09	6.346119e+00	4.777788e+02
2.410000e-06	8.074246e-07	7.097023e-09	5.625078e+00	4.648370e+02
2.420000e-06	7.036836e-07	6.890335e-09	4.902346e+00	4.512595e+02
2.430000e-06	5.997675e-07	6.674698e-09	4.178395e+00	4.370694e+02
2.440000e-06	4.956670e-07	6.452694e-09	3.453158e+00	4.223434e+02
2.450000e-06	3.913742e-07	6.222587e-09	2.726583e+00	4.071646e+02
2.460000e-06	2.869873e-07	5.978893e-09	1.999352e+00	3.915628e+02
2.470000e-06	1.825200e-07	5.728316e-09	1.271560e+00	3.754712e+02
2.480000e-06	7.797355e-08	5.474264e-09	5.432176e-01	3.587213e+02
2.490000e-06	-2.663143e-08	5.207639e-09	-1.855330e-01	3.410817e+02
2.500000e-06	-1.311985e-07	4.921203e-09	-9.140195e-01	3.223294e+02
2.510000e-06	-2.356223e-07	4.614403e-09	-1.641508e+00	3.023203e+02
2.520000e-06	-3.399537e-07	4.296457e-09	-2.368352e+00	2.810235e+02
2.530000e-06	-4.442061e-07	3.963854e-09	-3.094646e+00	2.584924e+02
2.540000e-06	-5.483492e-07	3.605203e-09	-3.820180e+00	2.347711e+02
2.550000e-06	-6.523588e-07	3.218663e-09	-4.544782e+00	2.097625e+02
2.560000e-06	-7.561377e-07	2.806001e-09	-5.267778e+00	1.831100e+02
2.570000e-06	-8.595900e-07	2.362738e-09	-5.988498e+00	1.541484e+02
2.580000e-06	-9.627142e-07	1.874596e-09	-6.706932e+00	1.219669e+02
2.590000e-06	-1.065484e-06	1.325228e-09	-7.422900e+00	8.559132e+01
2.600000e-06	-1.167872e-06	7.067732e-10	-8.136204e+00	4.425053e+01
2.610000e-06	-1.269759e-06	1.518575e-11	-8.846020e+00	-2.342260e+00
2.620000e-06	-1.371017e-06	-7.561251e-10	-9.551449e+00	-5.377977e+01
2.630000e-06	-1.471664e-06	-1.602195e-09	-1.025263e+01	-1.088950e+02
2.640000e-06	-1.571705e-06	-2.490783e-09	-1.094958e+01	-1.658753e+02
2.650000e-06	-1.671095e-06	-3.371405e-09	-1.164200e+01	-2.225385e+02
2.660000e-06	-1.769849e-06	-4.201143e-09	-1.232999e+01	-2.767064e+02
2.670000e-06	-1.868062e-06	-4.957196e-09	-1.301421e+01	-3.265789e+02
2.680000e-06	-1.965736e-06	-5.634198e-09	-1.369468e+01	-3.710117e+02
2.690000e-06	-2.062771e-06	-6.227449e-09	-1.437069e+01	-4.096320e+02
2.700000e-06	-2.159086e-06	-6.737704e-09	-1.504169e+01	-4.427714e+02
2.710000e-06	-2.254687e-06	-7.182650e-09	-1.570771e+01	-4.712534e+02
2.720000e-06	-2.349641e-06	-7.577666e-09	-1.636923e+01	-4.961071e+02
2.730000e-06	-2.443917e-06	-7.926992e-09	-1.702601e+01	-5.182956e+02
2.740000e-06	-2.537311e-06	-8.235311e-09	-1.767666e+01	-5.385307e+02
2.750000e-06	-2.629570e-06	-8.511920e-09	-1.831940e+01	-5.572108e+02
2.760000e-06	-2.720708e-06	-8.767996e-09	-1.895433e+01	-5.744730e+02
2.770000e-06	-2.810890e-06	-9.010401e-09	-1.958260e+01	-5.903173e+02
2.780000e-06	-2.900047e-06	-9.235817e-09	-2.020373e+01	-6.047415e+02
2.790000e-06	-2.988155e-06	-9.441308e-09	-2.081755e+01	-6.178346e+02
2.800000e-06	-3.075351e-06	-9.629218e-09	-2.142502e+01	-6.298003e+02
2.810000e-06	-3.161574e-06	-9.802102e-09	-2.202571e+01	-6.409132e+02
2.820000e-06	-3.246534e-06	-9.963793e-09	-2.261760e+01	-6.514381e+02
2.830000e-06	-3.330129e-06	-1.011777e-08	-2.319998e+01	-6.615527e+02
2.840000e-06	-3.412567e-06	-1.026454e-08	-2.377430e+01	-6.713088e+02
2.850000e-06	-3.493918e-06	-1.040334e-08	-2.434104e+01	-6.806452e+02
2.860000e-06	-3.574121e-06	-1.053524e-08	-2.489980e+01	-6.894451e+02
2.870000e-06	-3.653171e-06	-1.065976e-08	-2.545052e+01	-6.976097e+02
2.880000e-06	-3.730842e-06	-1.077567e-08	-2.599162e+01	-7.051171e+02
2.890000e-06	-3.806886e-06	-1.088084e-08	-2.652140e+01	-7.120423e+02
2.900000e-06	-3.881367e-06	-1.098020e-08	-2.704028e+01	-7.185332e+02
2.910000e-06	-3.954446e-06	-1.108073e-08	-2.754940e+01	-7.247565e+02
2.920000e-06	-4.026188e-06	-1.117974e-08	-2.804921e+01	-7.308380e+02
2.930000e-06	-4.096578e-06	-1.127023e-08	-2.853959e+01	-7.368229e+02
2.940000e-06	-4.165364e-06	-1.135289e-08	-2.901880e+01	-7.426731e+02
