# Temperatura_=_37.49
# Concentracion g/m^3_=_13400.0
# C_Vs_to_Am_M_A/Vsm_=_65563218390.804596
# pendiente_HvsI_1/m_=_3716.3
# ordenada_HvsI_A/m_=_1297.0
# frecuencia_Hz_=_301434.53187106585

Tiempo_(s)	Campo_(V.s)	Magnetizacion_(V.s)	Campo_(kA/m)	Magnetizacion_(A/m)
0.000000e+00	-8.340471e-06	-1.782512e-08	-5.691861e+01	-1.168655e+03
1.000000e-08	-8.337839e-06	-1.782575e-08	-5.690065e+01	-1.168218e+03
2.000000e-08	-8.332488e-06	-1.782388e-08	-5.686413e+01	-1.168037e+03
3.000000e-08	-8.324520e-06	-1.781674e-08	-5.680975e+01	-1.168037e+03
4.000000e-08	-8.313629e-06	-1.780575e-08	-5.673543e+01	-1.168015e+03
5.000000e-08	-8.299690e-06	-1.779519e-08	-5.664030e+01	-1.167736e+03
6.000000e-08	-8.282772e-06	-1.778399e-08	-5.652485e+01	-1.167026e+03
7.000000e-08	-8.263249e-06	-1.776690e-08	-5.639161e+01	-1.165853e+03
8.000000e-08	-8.241288e-06	-1.775422e-08	-5.624175e+01	-1.164332e+03
9.000000e-08	-8.216351e-06	-1.778032e-08	-5.607156e+01	-1.162680e+03
1.000000e-07	-8.188040e-06	-1.778349e-08	-5.587836e+01	-1.161120e+03
1.100000e-07	-8.156544e-06	-1.774054e-08	-5.566342e+01	-1.159792e+03
1.200000e-07	-8.122031e-06	-1.768756e-08	-5.542789e+01	-1.158697e+03
1.300000e-07	-8.084713e-06	-1.763546e-08	-5.517321e+01	-1.157709e+03
1.400000e-07	-8.045036e-06	-1.759610e-08	-5.490245e+01	-1.156637e+03
1.500000e-07	-8.002925e-06	-1.756688e-08	-5.461506e+01	-1.155308e+03
1.600000e-07	-7.958093e-06	-1.756735e-08	-5.430911e+01	-1.153643e+03
1.700000e-07	-7.910486e-06	-1.755616e-08	-5.398423e+01	-1.151681e+03
1.800000e-07	-7.859900e-06	-1.754027e-08	-5.363900e+01	-1.149544e+03
1.900000e-07	-7.806202e-06	-1.753468e-08	-5.327255e+01	-1.147372e+03
2.000000e-07	-7.749654e-06	-1.745159e-08	-5.288664e+01	-1.145241e+03
2.100000e-07	-7.690318e-06	-1.737231e-08	-5.248171e+01	-1.143123e+03
2.200000e-07	-7.628274e-06	-1.731990e-08	-5.205830e+01	-1.140891e+03
2.300000e-07	-7.563571e-06	-1.729248e-08	-5.161674e+01	-1.138381e+03
2.400000e-07	-7.495978e-06	-1.728858e-08	-5.115546e+01	-1.135468e+03
2.500000e-07	-7.425569e-06	-1.723237e-08	-5.067496e+01	-1.132133e+03
2.600000e-07	-7.352318e-06	-1.720354e-08	-5.017507e+01	-1.128483e+03
2.700000e-07	-7.276239e-06	-1.715885e-08	-4.965588e+01	-1.124705e+03
2.800000e-07	-7.197436e-06	-1.708690e-08	-4.911809e+01	-1.120988e+03
2.900000e-07	-7.115803e-06	-1.699900e-08	-4.856100e+01	-1.117437e+03
3.000000e-07	-7.031642e-06	-1.693728e-08	-4.798665e+01	-1.114017e+03
3.100000e-07	-6.945192e-06	-1.690823e-08	-4.739668e+01	-1.110563e+03
3.200000e-07	-6.856316e-06	-1.685067e-08	-4.679016e+01	-1.106846e+03
3.300000e-07	-6.764916e-06	-1.679321e-08	-4.616641e+01	-1.102673e+03
3.400000e-07	-6.671103e-06	-1.670975e-08	-4.552620e+01	-1.097968e+03
3.500000e-07	-6.574951e-06	-1.663735e-08	-4.487001e+01	-1.092813e+03
3.600000e-07	-6.476369e-06	-1.656949e-08	-4.419725e+01	-1.087409e+03
3.700000e-07	-6.375419e-06	-1.648759e-08	-4.350833e+01	-1.081992e+03
3.800000e-07	-6.272211e-06	-1.640161e-08	-4.280400e+01	-1.076726e+03
3.900000e-07	-6.166714e-06	-1.632219e-08	-4.208405e+01	-1.071622e+03
4.000000e-07	-6.058938e-06	-1.624882e-08	-4.134854e+01	-1.066532e+03
4.100000e-07	-5.949061e-06	-1.615151e-08	-4.059870e+01	-1.061205e+03
4.200000e-07	-5.837057e-06	-1.604878e-08	-3.983434e+01	-1.055395e+03
4.300000e-07	-5.722779e-06	-1.595176e-08	-3.905446e+01	-1.048971e+03
4.400000e-07	-5.606210e-06	-1.586957e-08	-3.825895e+01	-1.041972e+03
4.500000e-07	-5.487591e-06	-1.577924e-08	-3.744945e+01	-1.034596e+03
4.600000e-07	-5.366993e-06	-1.567415e-08	-3.662644e+01	-1.027108e+03
4.700000e-07	-5.244394e-06	-1.555410e-08	-3.578978e+01	-1.019723e+03
4.800000e-07	-5.119873e-06	-1.543117e-08	-3.494000e+01	-1.012501e+03
4.900000e-07	-4.993580e-06	-1.531052e-08	-3.407813e+01	-1.005314e+03
5.000000e-07	-4.865563e-06	-1.518455e-08	-3.320449e+01	-9.978907e+02
5.100000e-07	-4.735709e-06	-1.505575e-08	-3.231831e+01	-9.899314e+02
5.200000e-07	-4.604101e-06	-1.493051e-08	-3.142017e+01	-9.812377e+02
5.300000e-07	-4.470738e-06	-1.481149e-08	-3.051005e+01	-9.718004e+02
5.400000e-07	-4.335899e-06	-1.467540e-08	-2.958985e+01	-9.618044e+02
5.500000e-07	-4.199492e-06	-1.451901e-08	-2.865896e+01	-9.515460e+02
5.600000e-07	-4.061408e-06	-1.435244e-08	-2.771662e+01	-9.412954e+02
5.700000e-07	-3.921859e-06	-1.418978e-08	-2.676429e+01	-9.311660e+02
5.800000e-07	-3.780616e-06	-1.402634e-08	-2.580039e+01	-9.210487e+02
5.900000e-07	-3.637753e-06	-1.385374e-08	-2.482544e+01	-9.106454e+02
6.000000e-07	-3.493583e-06	-1.367606e-08	-2.384156e+01	-8.995901e+02
6.100000e-07	-3.348182e-06	-1.350133e-08	-2.284929e+01	-8.876067e+02
6.200000e-07	-3.201627e-06	-1.332509e-08	-2.184914e+01	-8.746337e+02
6.300000e-07	-3.053973e-06	-1.312985e-08	-2.084150e+01	-8.608561e+02
6.400000e-07	-2.905268e-06	-1.291324e-08	-1.982668e+01	-8.466246e+02
6.500000e-07	-2.755592e-06	-1.268966e-08	-1.880523e+01	-8.322923e+02
6.600000e-07	-2.605023e-06	-1.246726e-08	-1.777769e+01	-8.180386e+02
6.700000e-07	-2.453534e-06	-1.223616e-08	-1.674387e+01	-8.037593e+02
6.800000e-07	-2.301020e-06	-1.199389e-08	-1.570305e+01	-7.890794e+02
6.900000e-07	-2.147610e-06	-1.174592e-08	-1.465612e+01	-7.734894e+02
7.000000e-07	-1.993489e-06	-1.149381e-08	-1.360434e+01	-7.565532e+02
7.100000e-07	-1.838664e-06	-1.122939e-08	-1.254776e+01	-7.380971e+02
7.200000e-07	-1.683196e-06	-1.094444e-08	-1.148678e+01	-7.182896e+02
7.300000e-07	-1.527166e-06	-1.064327e-08	-1.042197e+01	-6.975670e+02
7.400000e-07	-1.370553e-06	-1.032961e-08	-9.353184e+00	-6.764232e+02
7.500000e-07	-1.213393e-06	-1.000130e-08	-8.280667e+00	-6.551474e+02
7.600000e-07	-1.055794e-06	-9.652440e-09	-7.205150e+00	-6.336254e+02
7.700000e-07	-8.978257e-07	-9.282853e-09	-6.127111e+00	-6.113020e+02
7.800000e-07	-7.395626e-07	-8.897202e-09	-5.047062e+00	-5.873421e+02
7.900000e-07	-5.810934e-07	-8.494988e-09	-3.965607e+00	-5.609378e+02
8.000000e-07	-4.224188e-07	-8.067461e-09	-2.882750e+00	-5.316382e+02
8.100000e-07	-2.635766e-07	-7.606087e-09	-1.798749e+00	-4.995503e+02
8.200000e-07	-1.046294e-07	-7.112744e-09	-7.140313e-01	-4.652920e+02
8.300000e-07	5.436306e-08	-6.587250e-09	3.709946e-01	-4.296727e+02
8.400000e-07	2.132790e-07	-6.021134e-09	1.455499e+00	-3.931877e+02
8.500000e-07	3.721022e-07	-5.406098e-09	2.539370e+00	-3.555097e+02
8.600000e-07	5.308217e-07	-4.737348e-09	3.622533e+00	-3.151917e+02
8.700000e-07	6.893233e-07	-4.007047e-09	4.704210e+00	-2.697494e+02
8.800000e-07	8.475490e-07	-3.193896e-09	5.784003e+00	-2.161703e+02
8.900000e-07	1.005510e-06	-2.265103e-09	6.861991e+00	-1.517465e+02
9.000000e-07	1.163149e-06	-1.174586e-09	7.937778e+00	-7.499937e+01
9.100000e-07	1.320364e-06	1.294492e-10	9.010675e+00	1.359772e+01
9.200000e-07	1.477066e-06	1.655015e-09	1.008007e+01	1.113508e+02
9.300000e-07	1.633239e-06	3.317549e-09	1.114585e+01	2.136561e+02
9.400000e-07	1.788846e-06	4.948996e-09	1.220778e+01	3.148371e+02
9.500000e-07	1.943835e-06	6.391160e-09	1.326548e+01	4.092892e+02
9.600000e-07	2.098141e-06	7.584933e-09	1.431853e+01	4.926114e+02
9.700000e-07	2.251690e-06	8.556480e-09	1.536640e+01	5.624095e+02
9.800000e-07	2.404447e-06	9.355376e-09	1.640888e+01	6.185600e+02
9.900000e-07	2.556288e-06	1.002331e-08	1.744510e+01	6.628921e+02
1.000000e-06	2.707106e-06	1.059629e-08	1.847434e+01	6.984247e+02
1.010000e-06	2.856901e-06	1.109954e-08	1.949660e+01	7.284192e+02
1.020000e-06	3.005708e-06	1.154525e-08	2.051212e+01	7.555419e+02
1.030000e-06	3.153473e-06	1.194130e-08	2.152053e+01	7.813668e+02
1.040000e-06	3.300162e-06	1.229714e-08	2.252158e+01	8.063139e+02
1.050000e-06	3.445735e-06	1.262307e-08	2.351503e+01	8.299670e+02
1.060000e-06	3.590046e-06	1.292446e-08	2.449986e+01	8.515964e+02
1.070000e-06	3.732933e-06	1.320130e-08	2.547498e+01	8.706668e+02
1.080000e-06	3.874347e-06	1.345533e-08	2.644005e+01	8.871506e+02
1.090000e-06	4.014307e-06	1.369391e-08	2.739519e+01	9.015615e+02
1.100000e-06	4.152809e-06	1.391951e-08	2.834038e+01	9.147422e+02
1.110000e-06	4.289821e-06	1.412856e-08	2.927540e+01	9.275287e+02
1.120000e-06	4.425200e-06	1.432444e-08	3.019928e+01	9.404460e+02
1.130000e-06	4.558896e-06	1.451115e-08	3.111167e+01	9.535593e+02
1.140000e-06	4.690926e-06	1.468954e-08	3.201270e+01	9.665275e+02
1.150000e-06	4.821327e-06	1.486151e-08	3.290260e+01	9.788167e+02
1.160000e-06	4.950084e-06	1.502637e-08	3.378129e+01	9.899713e+02
1.170000e-06	5.077073e-06	1.518042e-08	3.464791e+01	9.998237e+02
1.180000e-06	5.202220e-06	1.532364e-08	3.550197e+01	1.008561e+03
1.190000e-06	5.325508e-06	1.546178e-08	3.634333e+01	1.016629e+03
1.200000e-06	5.446950e-06	1.559653e-08	3.717210e+01	1.024536e+03
1.210000e-06	5.566404e-06	1.572464e-08	3.798730e+01	1.032635e+03
1.220000e-06	5.683713e-06	1.584615e-08	3.878786e+01	1.040989e+03
1.230000e-06	5.798883e-06	1.596546e-08	3.957382e+01	1.049372e+03
1.240000e-06	5.911904e-06	1.607993e-08	4.034512e+01	1.057386e+03
1.250000e-06	6.022725e-06	1.618528e-08	4.110141e+01	1.064660e+03
1.260000e-06	6.131374e-06	1.628166e-08	4.184287e+01	1.071010e+03
1.270000e-06	6.237891e-06	1.637217e-08	4.256979e+01	1.076524e+03
1.280000e-06	6.342181e-06	1.646019e-08	4.328151e+01	1.081519e+03
1.290000e-06	6.444170e-06	1.654600e-08	4.397752e+01	1.086401e+03
1.300000e-06	6.543855e-06	1.662541e-08	4.465781e+01	1.091494e+03
1.310000e-06	6.641168e-06	1.669853e-08	4.532190e+01	1.096913e+03
1.320000e-06	6.736060e-06	1.677312e-08	4.596948e+01	1.102525e+03
1.330000e-06	6.828569e-06	1.685224e-08	4.660080e+01	1.108028e+03
1.340000e-06	6.918701e-06	1.692736e-08	4.721590e+01	1.113088e+03
1.350000e-06	7.006424e-06	1.699046e-08	4.781455e+01	1.117492e+03
1.360000e-06	7.091726e-06	1.704641e-08	4.839669e+01	1.121236e+03
1.370000e-06	7.174559e-06	1.710347e-08	4.896197e+01	1.124520e+03
1.380000e-06	7.254809e-06	1.716264e-08	4.950963e+01	1.127654e+03
1.390000e-06	7.332354e-06	1.722022e-08	5.003883e+01	1.130921e+03
1.400000e-06	7.407154e-06	1.727525e-08	5.054929e+01	1.134451e+03
1.410000e-06	7.479281e-06	1.732939e-08	5.104151e+01	1.138175e+03
1.420000e-06	7.548746e-06	1.738134e-08	5.151557e+01	1.141861e+03
1.430000e-06	7.615482e-06	1.742802e-08	5.197100e+01	1.145222e+03
1.440000e-06	7.679498e-06	1.746602e-08	5.240787e+01	1.148049e+03
1.450000e-06	7.740875e-06	1.750009e-08	5.282673e+01	1.150299e+03
1.460000e-06	7.799568e-06	1.753928e-08	5.322728e+01	1.152115e+03
1.470000e-06	7.855467e-06	1.758050e-08	5.360875e+01	1.153761e+03
1.480000e-06	7.908382e-06	1.761736e-08	5.396986e+01	1.155500e+03
1.490000e-06	7.958082e-06	1.764981e-08	5.430904e+01	1.157486e+03
1.500000e-06	8.004761e-06	1.768088e-08	5.462759e+01	1.159695e+03
1.510000e-06	8.048639e-06	1.770909e-08	5.492703e+01	1.161940e+03
1.520000e-06	8.089646e-06	1.773109e-08	5.520688e+01	1.163957e+03
1.530000e-06	8.127815e-06	1.774994e-08	5.546736e+01	1.165523e+03
1.540000e-06	8.163150e-06	1.776913e-08	5.570850e+01	1.166554e+03
1.550000e-06	8.195618e-06	1.778933e-08	5.593008e+01	1.167139e+03
1.560000e-06	8.225283e-06	1.780715e-08	5.613252e+01	1.167499e+03
1.570000e-06	8.252074e-06	1.782120e-08	5.631535e+01	1.167893e+03
1.580000e-06	8.275859e-06	1.783464e-08	5.647767e+01	1.168503e+03
1.590000e-06	8.296758e-06	1.784586e-08	5.662029e+01	1.169357e+03
1.600000e-06	8.314767e-06	1.785441e-08	5.674319e+01	1.170326e+03
1.610000e-06	8.329723e-06	1.785919e-08	5.684526e+01	1.171179e+03
1.620000e-06	8.341464e-06	1.786159e-08	5.692539e+01	1.171692e+03
1.630000e-06	8.350033e-06	1.786430e-08	5.698386e+01	1.171747e+03
1.640000e-06	8.355708e-06	1.786670e-08	5.702259e+01	1.171383e+03
1.650000e-06	8.358479e-06	1.786692e-08	5.704150e+01	1.170780e+03
1.660000e-06	8.358365e-06	1.786428e-08	5.704072e+01	1.170175e+03
1.670000e-06	8.355504e-06	1.785926e-08	5.702120e+01	1.169763e+03
1.680000e-06	8.349791e-06	1.785648e-08	5.698221e+01	1.169607e+03
1.690000e-06	8.341297e-06	1.785136e-08	5.692424e+01	1.169615e+03
1.700000e-06	8.329906e-06	1.783971e-08	5.684651e+01	1.169576e+03
1.710000e-06	8.315510e-06	1.782712e-08	5.674827e+01	1.169256e+03
1.720000e-06	8.298554e-06	1.781906e-08	5.663255e+01	1.168495e+03
1.730000e-06	8.279234e-06	1.781036e-08	5.650071e+01	1.167275e+03
1.740000e-06	8.257114e-06	1.775648e-08	5.634975e+01	1.165728e+03
1.750000e-06	8.231476e-06	1.770361e-08	5.617478e+01	1.164075e+03
1.760000e-06	8.201899e-06	1.770089e-08	5.597294e+01	1.162535e+03
1.770000e-06	8.168927e-06	1.770303e-08	5.574792e+01	1.161234e+03
1.780000e-06	8.133471e-06	1.771179e-08	5.550596e+01	1.160157e+03
1.790000e-06	8.095624e-06	1.771490e-08	5.524768e+01	1.159169e+03
1.800000e-06	8.055609e-06	1.768972e-08	5.497460e+01	1.158076e+03
1.810000e-06	8.013495e-06	1.762331e-08	5.468720e+01	1.156711e+03
1.820000e-06	7.968561e-06	1.760907e-08	5.438055e+01	1.155010e+03
1.830000e-06	7.920741e-06	1.757916e-08	5.405421e+01	1.153021e+03
1.840000e-06	7.869853e-06	1.756191e-08	5.370693e+01	1.150874e+03
1.850000e-06	7.815621e-06	1.757735e-08	5.333683e+01	1.148704e+03
1.860000e-06	7.758625e-06	1.753281e-08	5.294786e+01	1.146577e+03
1.870000e-06	7.698879e-06	1.755925e-08	5.254014e+01	1.144453e+03
1.880000e-06	7.636358e-06	1.747411e-08	5.211347e+01	1.142198e+03
1.890000e-06	7.571148e-06	1.737683e-08	5.166845e+01	1.139648e+03
1.900000e-06	7.503061e-06	1.734995e-08	5.120380e+01	1.136688e+03
1.910000e-06	7.432104e-06	1.726403e-08	5.071956e+01	1.133312e+03
1.920000e-06	7.358192e-06	1.725250e-08	5.021515e+01	1.129637e+03
1.930000e-06	7.281407e-06	1.721999e-08	4.969115e+01	1.125857e+03
1.940000e-06	7.201893e-06	1.720027e-08	4.914851e+01	1.122154e+03
1.950000e-06	7.119941e-06	1.713510e-08	4.858924e+01	1.118621e+03
1.960000e-06	7.035503e-06	1.704187e-08	4.801300e+01	1.115206e+03
1.970000e-06	6.948355e-06	1.697228e-08	4.741827e+01	1.111734e+03
1.980000e-06	6.858797e-06	1.686779e-08	4.680709e+01	1.107975e+03
1.990000e-06	6.766856e-06	1.683841e-08	4.617965e+01	1.103745e+03
2.000000e-06	6.672478e-06	1.678900e-08	4.553558e+01	1.098984e+03
2.010000e-06	6.575751e-06	1.673538e-08	4.487547e+01	1.093790e+03
2.020000e-06	6.476802e-06	1.665404e-08	4.420021e+01	1.088373e+03
2.030000e-06	6.375462e-06	1.656159e-08	4.350863e+01	1.082967e+03
2.040000e-06	6.271681e-06	1.647241e-08	4.280038e+01	1.077719e+03
2.050000e-06	6.165765e-06	1.638076e-08	4.207757e+01	1.072626e+03
2.060000e-06	6.057660e-06	1.629769e-08	4.133982e+01	1.067522e+03
2.070000e-06	5.947371e-06	1.621234e-08	4.058717e+01	1.062153e+03
2.080000e-06	5.834885e-06	1.613194e-08	3.981952e+01	1.056281e+03
2.090000e-06	5.720147e-06	1.603214e-08	3.903650e+01	1.049789e+03
2.100000e-06	5.603064e-06	1.593373e-08	3.823748e+01	1.042737e+03
2.110000e-06	5.483761e-06	1.580951e-08	3.742331e+01	1.035335e+03
2.120000e-06	5.362546e-06	1.570410e-08	3.659609e+01	1.027849e+03
2.130000e-06	5.239503e-06	1.558972e-08	3.575640e+01	1.020481e+03
2.140000e-06	5.114580e-06	1.548326e-08	3.490388e+01	1.013272e+03
2.150000e-06	4.987774e-06	1.536801e-08	3.403850e+01	1.006073e+03
2.160000e-06	4.859203e-06	1.524285e-08	3.316108e+01	9.986051e+02
2.170000e-06	4.728978e-06	1.511632e-08	3.227238e+01	9.905729e+02
2.180000e-06	4.597009e-06	1.497325e-08	3.137177e+01	9.817954e+02
2.190000e-06	4.463348e-06	1.483566e-08	3.045962e+01	9.722857e+02
2.200000e-06	4.328177e-06	1.469368e-08	2.953716e+01	9.622458e+02
2.210000e-06	4.191389e-06	1.455356e-08	2.860366e+01	9.519762e+02
2.220000e-06	4.052946e-06	1.440566e-08	2.765888e+01	9.417361e+02
2.230000e-06	3.912912e-06	1.424594e-08	2.670323e+01	9.316163e+02
2.240000e-06	3.771467e-06	1.407601e-08	2.573796e+01	9.214843e+02
2.250000e-06	3.628652e-06	1.390494e-08	2.476333e+01	9.110276e+02
2.260000e-06	3.484450e-06	1.372575e-08	2.377923e+01	8.998822e+02
2.270000e-06	3.339105e-06	1.354014e-08	2.278735e+01	8.877904e+02
2.280000e-06	3.192671e-06	1.334571e-08	2.178802e+01	8.747175e+02
2.290000e-06	3.044947e-06	1.315292e-08	2.077990e+01	8.608721e+02
2.300000e-06	2.896079e-06	1.295266e-08	1.976397e+01	8.466138e+02
2.310000e-06	2.746300e-06	1.274129e-08	1.874182e+01	8.322850e+02
2.320000e-06	2.595621e-06	1.252043e-08	1.771352e+01	8.180381e+02
2.330000e-06	2.443975e-06	1.229042e-08	1.667863e+01	8.037369e+02
2.340000e-06	2.291352e-06	1.205094e-08	1.563708e+01	7.889835e+02
2.350000e-06	2.137967e-06	1.179535e-08	1.459031e+01	7.732660e+02
2.360000e-06	1.983902e-06	1.152712e-08	1.353892e+01	7.561686e+02
2.370000e-06	1.829069e-06	1.125134e-08	1.248228e+01	7.375529e+02
2.380000e-06	1.673409e-06	1.096830e-08	1.141999e+01	7.176225e+02
2.390000e-06	1.517069e-06	1.067345e-08	1.035307e+01	6.968317e+02
2.400000e-06	1.360305e-06	1.036131e-08	9.283248e+00	6.756650e+02
2.410000e-06	1.203089e-06	1.003038e-08	8.210344e+00	6.543757e+02
2.420000e-06	1.045340e-06	9.683123e-09	7.133805e+00	6.328005e+02
2.430000e-06	8.872118e-07	9.314017e-09	6.054677e+00	6.103433e+02
2.440000e-06	7.288237e-07	8.922073e-09	4.973775e+00	5.861556e+02
2.450000e-06	5.702060e-07	8.509237e-09	3.891307e+00	5.594529e+02
2.460000e-06	4.113986e-07	8.078816e-09	2.807543e+00	5.298383e+02
2.470000e-06	2.524762e-07	7.623855e-09	1.722996e+00	4.974805e+02
2.480000e-06	9.349829e-08	7.133152e-09	6.380686e-01	4.630378e+02
2.490000e-06	-6.552414e-08	6.602459e-09	-4.471621e-01	4.273119e+02
2.500000e-06	-2.245393e-07	6.029478e-09	-1.532343e+00	3.907323e+02
2.510000e-06	-3.834493e-07	5.412357e-09	-2.616807e+00	3.528603e+02
2.520000e-06	-5.421701e-07	4.742091e-09	-3.699979e+00	3.121263e+02
2.530000e-06	-7.006707e-07	4.004530e-09	-4.781649e+00	2.659578e+02
2.540000e-06	-8.589147e-07	3.183135e-09	-5.861567e+00	2.113313e+02
2.550000e-06	-1.016816e-06	2.246589e-09	-6.939148e+00	1.456274e+02
2.560000e-06	-1.174366e-06	1.148185e-09	-8.014329e+00	6.754826e+01
2.570000e-06	-1.331528e-06	-1.639895e-10	-9.086864e+00	-2.219792e+01
2.580000e-06	-1.488189e-06	-1.701238e-09	-1.015598e+01	-1.206873e+02
2.590000e-06	-1.644319e-06	-3.374873e-09	-1.122147e+01	-2.231532e+02
2.600000e-06	-1.799837e-06	-5.012104e-09	-1.228278e+01	-3.238698e+02
2.610000e-06	-1.954659e-06	-6.455227e-09	-1.333935e+01	-4.173103e+02
2.620000e-06	-2.108616e-06	-7.647060e-09	-1.439001e+01	-4.992589e+02
2.630000e-06	-2.261720e-06	-8.616848e-09	-1.543485e+01	-5.675624e+02
2.640000e-06	-2.414104e-06	-9.418154e-09	-1.647479e+01	-6.223315e+02
2.650000e-06	-2.565628e-06	-1.009335e-08	-1.750884e+01	-6.655649e+02
2.660000e-06	-2.716172e-06	-1.067198e-08	-1.853621e+01	-7.003533e+02
2.670000e-06	-2.865747e-06	-1.117644e-08	-1.955697e+01	-7.299301e+02
2.680000e-06	-3.014380e-06	-1.162430e-08	-2.057130e+01	-7.568607e+02
2.690000e-06	-3.161992e-06	-1.202807e-08	-2.157866e+01	-7.825907e+02
2.700000e-06	-3.308381e-06	-1.238916e-08	-2.257767e+01	-8.074301e+02
2.710000e-06	-3.453495e-06	-1.271140e-08	-2.356799e+01	-8.309025e+02
2.720000e-06	-3.597441e-06	-1.300656e-08	-2.455033e+01	-8.522769e+02
2.730000e-06	-3.740087e-06	-1.328069e-08	-2.552381e+01	-8.710620e+02
2.740000e-06	-3.881330e-06	-1.353631e-08	-2.648770e+01	-8.872917e+02
2.750000e-06	-4.021168e-06	-1.377693e-08	-2.744201e+01	-9.015285e+02
2.760000e-06	-4.159451e-06	-1.400687e-08	-2.838570e+01	-9.146311e+02
2.770000e-06	-4.296150e-06	-1.422794e-08	-2.931859e+01	-9.274149e+02
2.780000e-06	-4.431303e-06	-1.443413e-08	-3.024093e+01	-9.403592e+02
2.790000e-06	-4.564847e-06	-1.461887e-08	-3.115229e+01	-9.534797e+02
2.800000e-06	-4.696782e-06	-1.478894e-08	-3.205266e+01	-9.664024e+02
2.810000e-06	-4.827036e-06	-1.495184e-08	-3.294156e+01	-9.785889e+02
2.820000e-06	-4.955528e-06	-1.510994e-08	-3.381844e+01	-9.896065e+02
2.830000e-06	-5.082272e-06	-1.526367e-08	-3.468339e+01	-9.993254e+02
2.840000e-06	-5.207240e-06	-1.541275e-08	-3.553623e+01	-1.007967e+03
2.850000e-06	-5.330371e-06	-1.555708e-08	-3.637652e+01	-1.015996e+03
2.860000e-06	-5.451534e-06	-1.569212e-08	-3.720338e+01	-1.023912e+03
2.870000e-06	-5.570657e-06	-1.581445e-08	-3.801632e+01	-1.032042e+03
2.880000e-06	-5.687730e-06	-1.592722e-08	-3.881528e+01	-1.040415e+03
2.890000e-06	-5.802561e-06	-1.603504e-08	-3.959892e+01	-1.048779e+03
2.900000e-06	-5.914993e-06	-1.614094e-08	-4.036620e+01	-1.056731e+03
2.910000e-06	-6.025150e-06	-1.624243e-08	-4.111796e+01	-1.063910e+03
2.920000e-06	-6.133184e-06	-1.633911e-08	-4.185523e+01	-1.070163e+03
2.930000e-06	-6.239122e-06	-1.643381e-08	-4.257819e+01	-1.075604e+03
2.940000e-06	-6.342827e-06	-1.652534e-08	-4.328591e+01	-1.080568e+03
