# Temperatura_=_56.3
# Concentracion g/m^3_=_13400.0
# C_Vs_to_Am_M_A/Vsm_=_65563218390.804596
# pendiente_HvsI_1/m_=_3716.3
# ordenada_HvsI_A/m_=_1297.0
# frecuencia_Hz_=_301439.8765632653

Tiempo_(s)	Campo_(V.s)	Magnetizacion_(V.s)	Campo_(kA/m)	Magnetizacion_(A/m)
0.000000e+00	-8.304958e-06	-1.836819e-08	-5.691113e+01	-1.203616e+03
1.000000e-08	-8.301592e-06	-1.836485e-08	-5.688806e+01	-1.203295e+03
2.000000e-08	-8.295542e-06	-1.835541e-08	-5.684660e+01	-1.203210e+03
3.000000e-08	-8.286837e-06	-1.834636e-08	-5.678695e+01	-1.203196e+03
4.000000e-08	-8.275258e-06	-1.833530e-08	-5.670761e+01	-1.203007e+03
5.000000e-08	-8.260717e-06	-1.832206e-08	-5.660796e+01	-1.202422e+03
6.000000e-08	-8.243199e-06	-1.830313e-08	-5.648791e+01	-1.201343e+03
7.000000e-08	-8.223029e-06	-1.827012e-08	-5.634970e+01	-1.199832e+03
8.000000e-08	-8.200370e-06	-1.830013e-08	-5.619442e+01	-1.198088e+03
9.000000e-08	-8.174675e-06	-1.834405e-08	-5.601834e+01	-1.196355e+03
1.000000e-07	-8.145600e-06	-1.829667e-08	-5.581910e+01	-1.194824e+03
1.100000e-07	-8.113379e-06	-1.824705e-08	-5.559830e+01	-1.193556e+03
1.200000e-07	-8.078244e-06	-1.821559e-08	-5.535753e+01	-1.192465e+03
1.300000e-07	-8.040444e-06	-1.815680e-08	-5.509850e+01	-1.191365e+03
1.400000e-07	-8.000325e-06	-1.805053e-08	-5.482358e+01	-1.190062e+03
1.500000e-07	-7.957762e-06	-1.808526e-08	-5.453191e+01	-1.188434e+03
1.600000e-07	-7.912423e-06	-1.812639e-08	-5.422122e+01	-1.186486e+03
1.700000e-07	-7.864278e-06	-1.801289e-08	-5.389130e+01	-1.184327e+03
1.800000e-07	-7.813177e-06	-1.808282e-08	-5.354111e+01	-1.182108e+03
1.900000e-07	-7.759011e-06	-1.802195e-08	-5.316994e+01	-1.179934e+03
2.000000e-07	-7.702030e-06	-1.789612e-08	-5.277946e+01	-1.177800e+03
2.100000e-07	-7.642287e-06	-1.785603e-08	-5.237006e+01	-1.175580e+03
2.200000e-07	-7.579788e-06	-1.777913e-08	-5.194178e+01	-1.173078e+03
2.300000e-07	-7.514588e-06	-1.781472e-08	-5.149499e+01	-1.170117e+03
2.400000e-07	-7.446544e-06	-1.776063e-08	-5.102870e+01	-1.166625e+03
2.500000e-07	-7.375711e-06	-1.771884e-08	-5.054331e+01	-1.162680e+03
2.600000e-07	-7.302125e-06	-1.765809e-08	-5.003905e+01	-1.158483e+03
2.700000e-07	-7.225672e-06	-1.758154e-08	-4.951514e+01	-1.154276e+03
2.800000e-07	-7.146377e-06	-1.750674e-08	-4.897175e+01	-1.150241e+03
2.900000e-07	-7.064289e-06	-1.740706e-08	-4.840923e+01	-1.146411e+03
3.000000e-07	-6.979733e-06	-1.739847e-08	-4.782980e+01	-1.142655e+03
3.100000e-07	-6.892953e-06	-1.734016e-08	-4.723512e+01	-1.138725e+03
3.200000e-07	-6.803814e-06	-1.728698e-08	-4.662428e+01	-1.134364e+03
3.300000e-07	-6.712210e-06	-1.720245e-08	-4.599655e+01	-1.129419e+03
3.400000e-07	-6.618222e-06	-1.708855e-08	-4.535248e+01	-1.123912e+03
3.500000e-07	-6.521882e-06	-1.701246e-08	-4.469230e+01	-1.118031e+03
3.600000e-07	-6.423083e-06	-1.693145e-08	-4.401526e+01	-1.112057e+03
3.700000e-07	-6.321919e-06	-1.685846e-08	-4.332202e+01	-1.106236e+03
3.800000e-07	-6.218566e-06	-1.676864e-08	-4.261378e+01	-1.100666e+03
3.900000e-07	-6.112970e-06	-1.670094e-08	-4.189016e+01	-1.095253e+03
4.000000e-07	-6.005158e-06	-1.660802e-08	-4.115136e+01	-1.089740e+03
4.100000e-07	-5.895248e-06	-1.649885e-08	-4.039818e+01	-1.083812e+03
4.200000e-07	-5.783220e-06	-1.638572e-08	-3.963049e+01	-1.077235e+03
4.300000e-07	-5.668923e-06	-1.627508e-08	-3.884725e+01	-1.069951e+03
4.400000e-07	-5.552253e-06	-1.617904e-08	-3.804775e+01	-1.062113e+03
4.500000e-07	-5.433453e-06	-1.607781e-08	-3.723366e+01	-1.054007e+03
4.600000e-07	-5.312773e-06	-1.596431e-08	-3.640667e+01	-1.045937e+03
4.700000e-07	-5.190203e-06	-1.583428e-08	-3.556674e+01	-1.038076e+03
4.800000e-07	-5.065718e-06	-1.570511e-08	-3.471369e+01	-1.030392e+03
4.900000e-07	-4.939434e-06	-1.557502e-08	-3.384831e+01	-1.022647e+03
5.000000e-07	-4.811409e-06	-1.544035e-08	-3.297099e+01	-1.014502e+03
5.100000e-07	-4.681593e-06	-1.529805e-08	-3.208141e+01	-1.005659e+03
5.200000e-07	-4.550081e-06	-1.516328e-08	-3.118020e+01	-9.959945e+02
5.300000e-07	-4.416937e-06	-1.502922e-08	-3.026780e+01	-9.856143e+02
5.400000e-07	-4.282220e-06	-1.488113e-08	-2.934464e+01	-9.748077e+02
5.500000e-07	-4.145946e-06	-1.471073e-08	-2.841080e+01	-9.639153e+02
5.600000e-07	-4.008118e-06	-1.453774e-08	-2.746631e+01	-9.531693e+02
5.700000e-07	-3.868776e-06	-1.436659e-08	-2.651144e+01	-9.425758e+02
5.800000e-07	-3.727851e-06	-1.419035e-08	-2.554573e+01	-9.318967e+02
5.900000e-07	-3.585406e-06	-1.400665e-08	-2.456960e+01	-9.207412e+02
6.000000e-07	-3.441531e-06	-1.382066e-08	-2.358367e+01	-9.087321e+02
6.100000e-07	-3.296314e-06	-1.363598e-08	-2.258855e+01	-8.956730e+02
6.200000e-07	-3.149892e-06	-1.343952e-08	-2.158516e+01	-8.816408e+02
6.300000e-07	-3.002410e-06	-1.322593e-08	-2.057452e+01	-8.669575e+02
6.400000e-07	-2.854005e-06	-1.299634e-08	-1.955755e+01	-8.520456e+02
6.500000e-07	-2.704681e-06	-1.276737e-08	-1.853428e+01	-8.372282e+02
6.600000e-07	-2.554441e-06	-1.253723e-08	-1.750474e+01	-8.225600e+02
6.700000e-07	-2.403350e-06	-1.229931e-08	-1.646936e+01	-8.077706e+02
6.800000e-07	-2.251416e-06	-1.204895e-08	-1.542821e+01	-7.923507e+02
6.900000e-07	-2.098583e-06	-1.178945e-08	-1.438089e+01	-7.757541e+02
7.000000e-07	-1.944938e-06	-1.152016e-08	-1.332801e+01	-7.576297e+02
7.100000e-07	-1.790642e-06	-1.123237e-08	-1.227068e+01	-7.379795e+02
7.200000e-07	-1.635802e-06	-1.092925e-08	-1.120961e+01	-7.171621e+02
7.300000e-07	-1.480365e-06	-1.061565e-08	-1.014445e+01	-6.957289e+02
7.400000e-07	-1.324199e-06	-1.029430e-08	-9.074296e+00	-6.741497e+02
7.500000e-07	-1.167445e-06	-9.956819e-09	-8.000111e+00	-6.525451e+02
7.600000e-07	-1.010264e-06	-9.597545e-09	-6.923006e+00	-6.305498e+02
7.700000e-07	-8.527058e-07	-9.215314e-09	-5.843310e+00	-6.073819e+02
7.800000e-07	-6.948395e-07	-8.811902e-09	-4.761505e+00	-5.821115e+02
7.900000e-07	-5.367535e-07	-8.386968e-09	-3.678194e+00	-5.540264e+02
8.000000e-07	-3.785033e-07	-7.936648e-09	-2.593758e+00	-5.229366e+02
8.100000e-07	-2.201230e-07	-7.456568e-09	-1.508430e+00	-4.892640e+02
8.200000e-07	-6.163437e-08	-6.945048e-09	-4.223599e-01	-4.538350e+02
8.300000e-07	9.688340e-08	-6.400297e-09	6.639099e-01	-4.174139e+02
8.400000e-07	2.553219e-07	-5.809473e-09	1.749637e+00	-3.801296e+02
8.500000e-07	4.136837e-07	-5.160078e-09	2.834837e+00	-3.410236e+02
8.600000e-07	5.719186e-07	-4.442760e-09	3.919169e+00	-2.979316e+02
8.700000e-07	7.299284e-07	-3.650417e-09	5.001958e+00	-2.478197e+02
8.800000e-07	8.876376e-07	-2.760013e-09	6.082687e+00	-1.875384e+02
8.900000e-07	1.045025e-06	-1.724845e-09	7.161209e+00	-1.148018e+02
9.000000e-07	1.202051e-06	-4.866815e-10	8.237255e+00	-2.909506e+01
9.100000e-07	1.358567e-06	9.882484e-10	9.309810e+00	6.779392e+01
9.200000e-07	1.514510e-06	2.655574e-09	1.037844e+01	1.718244e+02
9.300000e-07	1.669839e-06	4.372074e-09	1.144285e+01	2.773656e+02
9.400000e-07	1.824559e-06	5.953580e-09	1.250310e+01	3.783100e+02
9.500000e-07	1.978677e-06	7.288225e-09	1.355922e+01	4.693308e+02
9.600000e-07	2.132051e-06	8.367335e-09	1.461024e+01	5.469277e+02
9.700000e-07	2.284635e-06	9.243387e-09	1.565585e+01	6.099728e+02
9.800000e-07	2.436351e-06	9.970999e-09	1.669551e+01	6.596302e+02
9.900000e-07	2.587168e-06	1.058823e-08	1.772901e+01	6.987147e+02
1.000000e-06	2.737138e-06	1.112227e-08	1.875670e+01	7.307224e+02
1.010000e-06	2.886130e-06	1.158726e-08	1.977770e+01	7.588489e+02
1.020000e-06	3.034073e-06	1.199934e-08	2.079150e+01	7.852825e+02
1.030000e-06	3.180964e-06	1.237308e-08	2.179809e+01	8.109419e+02
1.040000e-06	3.326684e-06	1.271707e-08	2.279667e+01	8.356667e+02
1.050000e-06	3.471230e-06	1.303479e-08	2.378719e+01	8.587170e+02
1.060000e-06	3.614538e-06	1.333090e-08	2.476923e+01	8.793552e+02
1.070000e-06	3.756461e-06	1.360379e-08	2.574178e+01	8.972881e+02
1.080000e-06	3.896858e-06	1.385246e-08	2.670388e+01	9.128291e+02
1.090000e-06	4.035729e-06	1.408631e-08	2.765551e+01	9.267660e+02
1.100000e-06	4.173185e-06	1.431041e-08	2.859745e+01	9.400321e+02
1.110000e-06	4.309106e-06	1.452212e-08	2.952887e+01	9.533442e+02
1.120000e-06	4.443496e-06	1.471843e-08	3.044980e+01	9.669619e+02
1.130000e-06	4.576321e-06	1.490515e-08	3.136002e+01	9.806579e+02
1.140000e-06	4.707417e-06	1.508818e-08	3.225837e+01	9.938911e+02
1.150000e-06	4.836846e-06	1.526590e-08	3.314531e+01	1.006093e+03
1.160000e-06	4.964575e-06	1.543114e-08	3.402059e+01	1.016937e+03
1.170000e-06	5.090596e-06	1.558459e-08	3.488417e+01	1.026478e+03
1.180000e-06	5.214862e-06	1.573258e-08	3.573573e+01	1.035119e+03
1.190000e-06	5.337242e-06	1.587716e-08	3.657435e+01	1.043426e+03
1.200000e-06	5.457743e-06	1.601484e-08	3.740010e+01	1.051881e+03
1.210000e-06	5.576201e-06	1.614389e-08	3.821186e+01	1.060691e+03
1.220000e-06	5.692407e-06	1.627005e-08	3.900818e+01	1.069723e+03
1.230000e-06	5.806374e-06	1.639501e-08	3.978916e+01	1.078585e+03
1.240000e-06	5.918192e-06	1.651487e-08	4.055541e+01	1.086819e+03
1.250000e-06	6.027937e-06	1.662466e-08	4.130746e+01	1.094108e+03
1.260000e-06	6.135576e-06	1.672553e-08	4.204507e+01	1.100412e+03
1.270000e-06	6.241006e-06	1.682368e-08	4.276755e+01	1.105980e+03
1.280000e-06	6.344274e-06	1.691839e-08	4.347521e+01	1.111236e+03
1.290000e-06	6.445316e-06	1.700602e-08	4.416761e+01	1.116595e+03
1.300000e-06	6.544015e-06	1.708608e-08	4.484397e+01	1.122292e+03
1.310000e-06	6.640262e-06	1.716398e-08	4.550352e+01	1.128295e+03
1.320000e-06	6.734174e-06	1.724437e-08	4.614707e+01	1.134340e+03
1.330000e-06	6.825781e-06	1.732540e-08	4.677482e+01	1.140056e+03
1.340000e-06	6.914928e-06	1.740254e-08	4.738571e+01	1.145143e+03
1.350000e-06	7.001679e-06	1.747376e-08	4.798019e+01	1.149494e+03
1.360000e-06	7.086008e-06	1.754008e-08	4.855807e+01	1.153242e+03
1.370000e-06	7.167800e-06	1.760152e-08	4.911856e+01	1.156694e+03
1.380000e-06	7.246970e-06	1.765784e-08	4.966109e+01	1.160190e+03
1.390000e-06	7.323388e-06	1.771276e-08	5.018475e+01	1.163953e+03
1.400000e-06	7.397038e-06	1.776971e-08	5.068945e+01	1.168000e+03
1.410000e-06	7.468062e-06	1.782871e-08	5.117616e+01	1.172142e+03
1.420000e-06	7.536442e-06	1.788434e-08	5.164475e+01	1.176069e+03
1.430000e-06	7.602090e-06	1.793382e-08	5.209461e+01	1.179499e+03
1.440000e-06	7.665094e-06	1.798003e-08	5.252635e+01	1.182297e+03
1.450000e-06	7.725488e-06	1.802250e-08	5.294021e+01	1.184533e+03
1.460000e-06	7.783150e-06	1.806070e-08	5.333535e+01	1.186446e+03
1.470000e-06	7.837963e-06	1.809598e-08	5.371097e+01	1.188338e+03
1.480000e-06	7.889637e-06	1.813154e-08	5.406507e+01	1.190437e+03
1.490000e-06	7.938168e-06	1.816949e-08	5.439764e+01	1.192803e+03
1.500000e-06	7.983908e-06	1.820719e-08	5.471108e+01	1.195302e+03
1.510000e-06	8.026834e-06	1.823885e-08	5.500523e+01	1.197675e+03
1.520000e-06	8.066872e-06	1.826237e-08	5.527960e+01	1.199650e+03
1.530000e-06	8.104141e-06	1.828266e-08	5.553500e+01	1.201066e+03
1.540000e-06	8.138594e-06	1.830259e-08	5.577109e+01	1.201943e+03
1.550000e-06	8.170163e-06	1.832014e-08	5.598742e+01	1.202470e+03
1.560000e-06	8.198882e-06	1.833487e-08	5.618422e+01	1.202924e+03
1.570000e-06	8.224661e-06	1.834905e-08	5.636088e+01	1.203543e+03
1.580000e-06	8.247545e-06	1.836459e-08	5.651770e+01	1.204430e+03
1.590000e-06	8.267625e-06	1.837893e-08	5.665529e+01	1.205510e+03
1.600000e-06	8.284751e-06	1.838842e-08	5.677266e+01	1.206564e+03
1.610000e-06	8.298791e-06	1.839337e-08	5.686887e+01	1.207336e+03
1.620000e-06	8.309592e-06	1.839654e-08	5.694289e+01	1.207641e+03
1.630000e-06	8.317280e-06	1.839902e-08	5.699556e+01	1.207452e+03
1.640000e-06	8.322095e-06	1.839923e-08	5.702856e+01	1.206906e+03
1.650000e-06	8.323983e-06	1.839833e-08	5.704150e+01	1.206245e+03
1.660000e-06	8.323035e-06	1.839191e-08	5.703500e+01	1.205707e+03
1.670000e-06	8.319380e-06	1.838811e-08	5.700996e+01	1.205423e+03
1.680000e-06	8.312912e-06	1.838648e-08	5.696563e+01	1.205360e+03
1.690000e-06	8.303616e-06	1.837552e-08	5.690193e+01	1.205336e+03
1.700000e-06	8.291435e-06	1.836003e-08	5.681846e+01	1.205101e+03
1.710000e-06	8.276420e-06	1.835274e-08	5.671557e+01	1.204447e+03
1.720000e-06	8.258923e-06	1.836108e-08	5.659567e+01	1.203298e+03
1.730000e-06	8.238945e-06	1.832378e-08	5.645876e+01	1.201738e+03
1.740000e-06	8.215988e-06	1.821452e-08	5.630144e+01	1.199980e+03
1.750000e-06	8.189341e-06	1.820375e-08	5.611885e+01	1.198265e+03
1.760000e-06	8.158848e-06	1.821012e-08	5.590988e+01	1.196771e+03
1.770000e-06	8.125260e-06	1.818374e-08	5.567972e+01	1.195536e+03
1.780000e-06	8.089210e-06	1.821159e-08	5.543268e+01	1.194455e+03
1.790000e-06	8.050847e-06	1.828207e-08	5.516979e+01	1.193336e+03
1.800000e-06	8.010430e-06	1.813320e-08	5.489282e+01	1.191990e+03
1.810000e-06	7.967761e-06	1.811151e-08	5.460043e+01	1.190313e+03
1.820000e-06	7.922195e-06	1.814766e-08	5.428818e+01	1.188325e+03
1.830000e-06	7.873793e-06	1.802444e-08	5.395649e+01	1.186147e+03
1.840000e-06	7.822250e-06	1.814249e-08	5.360329e+01	1.183930e+03
1.850000e-06	7.767451e-06	1.806850e-08	5.322777e+01	1.181764e+03
1.860000e-06	7.709950e-06	1.809591e-08	5.283374e+01	1.179627e+03
1.870000e-06	7.649659e-06	1.808399e-08	5.242058e+01	1.177378e+03
1.880000e-06	7.586675e-06	1.790600e-08	5.198897e+01	1.174818e+03
1.890000e-06	7.520929e-06	1.790520e-08	5.153844e+01	1.171781e+03
1.900000e-06	7.452260e-06	1.777414e-08	5.106787e+01	1.168216e+03
1.910000e-06	7.380732e-06	1.779586e-08	5.057771e+01	1.164220e+03
1.920000e-06	7.306316e-06	1.776040e-08	5.006776e+01	1.160005e+03
1.930000e-06	7.229112e-06	1.771783e-08	4.953871e+01	1.155814e+03
1.940000e-06	7.149288e-06	1.769728e-08	4.899170e+01	1.151809e+03
1.950000e-06	7.067060e-06	1.752638e-08	4.842823e+01	1.148001e+03
1.960000e-06	6.982218e-06	1.749948e-08	4.784683e+01	1.144235e+03
1.970000e-06	6.894738e-06	1.735237e-08	4.724735e+01	1.140257e+03
1.980000e-06	6.804915e-06	1.732320e-08	4.663183e+01	1.135817e+03
1.990000e-06	6.712692e-06	1.729171e-08	4.599986e+01	1.130786e+03
2.000000e-06	6.618019e-06	1.722462e-08	4.535109e+01	1.125209e+03
2.010000e-06	6.521018e-06	1.716388e-08	4.468638e+01	1.119297e+03
2.020000e-06	6.421809e-06	1.702270e-08	4.400653e+01	1.113331e+03
2.030000e-06	6.320210e-06	1.694906e-08	4.331031e+01	1.107542e+03
2.040000e-06	6.216262e-06	1.681495e-08	4.259798e+01	1.102005e+03
2.050000e-06	6.110189e-06	1.674732e-08	4.187110e+01	1.096595e+03
2.060000e-06	6.001981e-06	1.664783e-08	4.112959e+01	1.091040e+03
2.070000e-06	5.891546e-06	1.657165e-08	4.037281e+01	1.085030e+03
2.080000e-06	5.778879e-06	1.648250e-08	3.960075e+01	1.078349e+03
2.090000e-06	5.664001e-06	1.637104e-08	3.881352e+01	1.070972e+03
2.100000e-06	5.546845e-06	1.625505e-08	3.801069e+01	1.063074e+03
2.110000e-06	5.427559e-06	1.612000e-08	3.719326e+01	1.054956e+03
2.120000e-06	5.306347e-06	1.599909e-08	3.636264e+01	1.046908e+03
2.130000e-06	5.183299e-06	1.586651e-08	3.551943e+01	1.039079e+03
2.140000e-06	5.058399e-06	1.575024e-08	3.466354e+01	1.031404e+03
2.150000e-06	4.931603e-06	1.562458e-08	3.379464e+01	1.023622e+03
2.160000e-06	4.803023e-06	1.550839e-08	3.291353e+01	1.015392e+03
2.170000e-06	4.672799e-06	1.536887e-08	3.202114e+01	1.006433e+03
2.180000e-06	4.540910e-06	1.521939e-08	3.111736e+01	9.966534e+02
2.190000e-06	4.407459e-06	1.505558e-08	3.020286e+01	9.861907e+02
2.200000e-06	4.272369e-06	1.489815e-08	2.927713e+01	9.753509e+02
2.210000e-06	4.135645e-06	1.473662e-08	2.834020e+01	9.644686e+02
2.220000e-06	3.997435e-06	1.457678e-08	2.739310e+01	9.537490e+02
2.230000e-06	3.857675e-06	1.441109e-08	2.643537e+01	9.431619e+02
2.240000e-06	3.716426e-06	1.423882e-08	2.546744e+01	9.324394e+02
2.250000e-06	3.573692e-06	1.406030e-08	2.448933e+01	9.211816e+02
2.260000e-06	3.429624e-06	1.386917e-08	2.350208e+01	9.090276e+02
2.270000e-06	3.284432e-06	1.366950e-08	2.250712e+01	8.958172e+02
2.280000e-06	3.138169e-06	1.346097e-08	2.150483e+01	8.816670e+02
2.290000e-06	2.990795e-06	1.325255e-08	2.049493e+01	8.669243e+02
2.300000e-06	2.842314e-06	1.303798e-08	1.947744e+01	8.520099e+02
2.310000e-06	2.692930e-06	1.281604e-08	1.845376e+01	8.372171e+02
2.320000e-06	2.542632e-06	1.258076e-08	1.742381e+01	8.225544e+02
2.330000e-06	2.391259e-06	1.233842e-08	1.638651e+01	8.077086e+02
2.340000e-06	2.238941e-06	1.208425e-08	1.534272e+01	7.921508e+02
2.350000e-06	2.085898e-06	1.181955e-08	1.429397e+01	7.753494e+02
2.360000e-06	1.932204e-06	1.154393e-08	1.324076e+01	7.569969e+02
2.370000e-06	1.777860e-06	1.126035e-08	1.218308e+01	7.371500e+02
2.380000e-06	1.622824e-06	1.096487e-08	1.112067e+01	7.162086e+02
2.390000e-06	1.467133e-06	1.065375e-08	1.005377e+01	6.947304e+02
2.400000e-06	1.310908e-06	1.032436e-08	8.983217e+00	6.731499e+02
2.410000e-06	1.154246e-06	9.978093e-09	7.909663e+00	6.515225e+02
2.420000e-06	9.972377e-07	9.616519e-09	6.833740e+00	6.294137e+02
2.430000e-06	8.399252e-07	9.236945e-09	5.755729e+00	6.060004e+02
2.440000e-06	6.823451e-07	8.835191e-09	4.675885e+00	5.803609e+02
2.450000e-06	5.245299e-07	8.410089e-09	3.594429e+00	5.518426e+02
2.460000e-06	3.665099e-07	7.961574e-09	2.511571e+00	5.203440e+02
2.470000e-06	2.083055e-07	7.482949e-09	1.427448e+00	4.863643e+02
2.480000e-06	5.005327e-08	6.965667e-09	3.429985e-01	4.507545e+02
2.490000e-06	-1.081488e-07	6.405730e-09	-7.411082e-01	4.142228e+02
2.500000e-06	-2.663253e-07	5.803101e-09	-1.825039e+00	3.767648e+02
2.510000e-06	-4.243768e-07	5.150754e-09	-2.908114e+00	3.372470e+02
2.520000e-06	-5.822574e-07	4.434662e-09	-3.990017e+00	2.933495e+02
2.530000e-06	-7.399583e-07	3.639761e-09	-5.070690e+00	2.419675e+02
2.540000e-06	-8.974007e-07	2.745361e-09	-6.149590e+00	1.800132e+02
2.550000e-06	-1.054492e-06	1.706752e-09	-7.226085e+00	1.054040e+02
2.560000e-06	-1.211195e-06	4.644955e-10	-8.299917e+00	1.793330e+01
2.570000e-06	-1.367408e-06	-1.019991e-09	-9.370397e+00	-8.027115e+01
2.580000e-06	-1.523080e-06	-2.703630e-09	-1.043716e+01	-1.848878e+02
2.590000e-06	-1.678231e-06	-4.434073e-09	-1.150036e+01	-2.901423e+02
2.600000e-06	-1.832811e-06	-6.024554e-09	-1.255965e+01	-3.899631e+02
2.610000e-06	-1.986744e-06	-7.362089e-09	-1.361450e+01	-4.792293e+02
2.620000e-06	-2.139933e-06	-8.439448e-09	-1.466426e+01	-5.547601e+02
2.630000e-06	-2.292349e-06	-9.308614e-09	-1.570871e+01	-6.157747e+02
2.640000e-06	-2.443956e-06	-1.002849e-08	-1.674762e+01	-6.637232e+02
2.650000e-06	-2.594609e-06	-1.064460e-08	-1.778000e+01	-7.015807e+02
2.660000e-06	-2.744294e-06	-1.118608e-08	-1.880574e+01	-7.328569e+02
2.670000e-06	-2.892995e-06	-1.166593e-08	-1.982474e+01	-7.606377e+02
2.680000e-06	-3.040662e-06	-1.209143e-08	-2.083665e+01	-7.869345e+02
2.690000e-06	-3.187295e-06	-1.247150e-08	-2.184148e+01	-8.124909e+02
2.700000e-06	-3.332785e-06	-1.281411e-08	-2.283847e+01	-8.370288e+02
2.710000e-06	-3.477030e-06	-1.312462e-08	-2.382694e+01	-8.597740e+02
2.720000e-06	-3.620010e-06	-1.340801e-08	-2.480673e+01	-8.800308e+02
2.730000e-06	-3.761574e-06	-1.367145e-08	-2.577682e+01	-8.975901e+02
2.740000e-06	-3.901728e-06	-1.392433e-08	-2.673725e+01	-9.128472e+02
2.750000e-06	-4.040512e-06	-1.416980e-08	-2.768829e+01	-9.266334e+02
2.760000e-06	-4.177785e-06	-1.440367e-08	-2.862898e+01	-9.398721e+02
2.770000e-06	-4.313551e-06	-1.462133e-08	-2.955934e+01	-9.532250e+02
2.780000e-06	-4.447725e-06	-1.482095e-08	-3.047879e+01	-9.668787e+02
2.790000e-06	-4.580239e-06	-1.500625e-08	-3.138686e+01	-9.805467e+02
2.800000e-06	-4.711137e-06	-1.518287e-08	-3.228386e+01	-9.936653e+02
2.810000e-06	-4.840433e-06	-1.535235e-08	-3.316988e+01	-1.005686e+03
2.820000e-06	-4.968047e-06	-1.551466e-08	-3.404438e+01	-1.016332e+03
2.830000e-06	-5.093838e-06	-1.567134e-08	-3.490639e+01	-1.025714e+03
2.840000e-06	-5.217800e-06	-1.582262e-08	-3.575586e+01	-1.034273e+03
2.850000e-06	-5.339932e-06	-1.596574e-08	-3.659278e+01	-1.042577e+03
2.860000e-06	-5.460177e-06	-1.609814e-08	-3.741678e+01	-1.051079e+03
2.870000e-06	-5.578392e-06	-1.622411e-08	-3.822687e+01	-1.059938e+03
2.880000e-06	-5.694405e-06	-1.634712e-08	-3.902187e+01	-1.068975e+03
2.890000e-06	-5.808087e-06	-1.646553e-08	-3.980089e+01	-1.077775e+03
2.900000e-06	-5.919380e-06	-1.657995e-08	-4.056355e+01	-1.085889e+03
2.910000e-06	-6.028505e-06	-1.668578e-08	-4.131135e+01	-1.093033e+03
2.920000e-06	-6.135563e-06	-1.678249e-08	-4.204498e+01	-1.099212e+03
2.930000e-06	-6.240517e-06	-1.687676e-08	-4.276420e+01	-1.104708e+03
2.940000e-06	-6.343217e-06	-1.697139e-08	-4.346797e+01	-1.109957e+03
