# Temperatura_=_73.5
# Concentracion g/m^3_=_13400.0
# C_Vs_to_Am_M_A/Vsm_=_65563218390.804596
# pendiente_HvsI_1/m_=_3716.3
# ordenada_HvsI_A/m_=_1297.0
# frecuencia_Hz_=_301437.1343877373

Tiempo_(s)	Campo_(V.s)	Magnetizacion_(V.s)	Campo_(kA/m)	Magnetizacion_(A/m)
0.000000e+00	-8.344422e-06	-1.916249e-08	-5.691260e+01	-1.256677e+03
1.000000e-08	-8.341190e-06	-1.915779e-08	-5.689056e+01	-1.256429e+03
2.000000e-08	-8.335218e-06	-1.915191e-08	-5.684982e+01	-1.256418e+03
3.000000e-08	-8.326596e-06	-1.914624e-08	-5.679102e+01	-1.256424e+03
4.000000e-08	-8.315049e-06	-1.913484e-08	-5.671226e+01	-1.256165e+03
5.000000e-08	-8.300446e-06	-1.912133e-08	-5.661266e+01	-1.255417e+03
6.000000e-08	-8.282956e-06	-1.910151e-08	-5.649337e+01	-1.254110e+03
7.000000e-08	-8.262898e-06	-1.906180e-08	-5.635657e+01	-1.252357e+03
8.000000e-08	-8.240324e-06	-1.908570e-08	-5.620260e+01	-1.250401e+03
9.000000e-08	-8.214629e-06	-1.914356e-08	-5.602735e+01	-1.248516e+03
1.000000e-07	-8.185484e-06	-1.908664e-08	-5.582857e+01	-1.246885e+03
1.100000e-07	-8.153215e-06	-1.902440e-08	-5.560848e+01	-1.245535e+03
1.200000e-07	-8.118032e-06	-1.899924e-08	-5.536852e+01	-1.244335e+03
1.300000e-07	-8.080155e-06	-1.894753e-08	-5.511018e+01	-1.243062e+03
1.400000e-07	-8.039919e-06	-1.882780e-08	-5.483575e+01	-1.241508e+03
1.500000e-07	-7.997257e-06	-1.881908e-08	-5.454478e+01	-1.239568e+03
1.600000e-07	-7.951826e-06	-1.889774e-08	-5.423492e+01	-1.237275e+03
1.700000e-07	-7.903591e-06	-1.875396e-08	-5.390594e+01	-1.234772e+03
1.800000e-07	-7.852376e-06	-1.881209e-08	-5.355663e+01	-1.232227e+03
1.900000e-07	-7.798065e-06	-1.878846e-08	-5.318620e+01	-1.229733e+03
2.000000e-07	-7.740892e-06	-1.863666e-08	-5.279626e+01	-1.227255e+03
2.100000e-07	-7.680873e-06	-1.859887e-08	-5.238690e+01	-1.224630e+03
2.200000e-07	-7.618123e-06	-1.848977e-08	-5.195892e+01	-1.221635e+03
2.300000e-07	-7.552587e-06	-1.852024e-08	-5.151193e+01	-1.218093e+03
2.400000e-07	-7.484228e-06	-1.845211e-08	-5.104570e+01	-1.213958e+03
2.500000e-07	-7.413198e-06	-1.840606e-08	-5.056125e+01	-1.209353e+03
2.600000e-07	-7.339269e-06	-1.836566e-08	-5.005701e+01	-1.204520e+03
2.700000e-07	-7.262522e-06	-1.827818e-08	-4.953357e+01	-1.199730e+03
2.800000e-07	-7.182985e-06	-1.820101e-08	-4.899109e+01	-1.195158e+03
2.900000e-07	-7.100628e-06	-1.807287e-08	-4.842938e+01	-1.190809e+03
3.000000e-07	-7.015870e-06	-1.804113e-08	-4.785129e+01	-1.186510e+03
3.100000e-07	-6.928871e-06	-1.796502e-08	-4.725792e+01	-1.181981e+03
3.200000e-07	-6.839421e-06	-1.790630e-08	-4.664783e+01	-1.176954e+03
3.300000e-07	-6.747472e-06	-1.783818e-08	-4.602070e+01	-1.171293e+03
3.400000e-07	-6.653198e-06	-1.772186e-08	-4.537772e+01	-1.165052e+03
3.500000e-07	-6.556527e-06	-1.764578e-08	-4.471838e+01	-1.158458e+03
3.600000e-07	-6.457361e-06	-1.754960e-08	-4.404202e+01	-1.151804e+03
3.700000e-07	-6.355869e-06	-1.745110e-08	-4.334980e+01	-1.145325e+03
3.800000e-07	-6.252136e-06	-1.732749e-08	-4.264230e+01	-1.139088e+03
3.900000e-07	-6.146101e-06	-1.723834e-08	-4.191909e+01	-1.132956e+03
4.000000e-07	-6.037837e-06	-1.714687e-08	-4.118068e+01	-1.126646e+03
4.100000e-07	-5.927509e-06	-1.703633e-08	-4.042820e+01	-1.119848e+03
4.200000e-07	-5.815039e-06	-1.692125e-08	-3.966110e+01	-1.112367e+03
4.300000e-07	-5.700174e-06	-1.680420e-08	-3.887767e+01	-1.104203e+03
4.400000e-07	-5.582979e-06	-1.670203e-08	-3.807835e+01	-1.095562e+03
4.500000e-07	-5.463818e-06	-1.658220e-08	-3.726562e+01	-1.086759e+03
4.600000e-07	-5.342637e-06	-1.644275e-08	-3.643912e+01	-1.078077e+03
4.700000e-07	-5.219427e-06	-1.629041e-08	-3.559877e+01	-1.069635e+03
4.800000e-07	-5.094379e-06	-1.615326e-08	-3.474588e+01	-1.061327e+03
4.900000e-07	-4.967619e-06	-1.602461e-08	-3.388133e+01	-1.052855e+03
5.000000e-07	-4.839159e-06	-1.588588e-08	-3.300517e+01	-1.043859e+03
5.100000e-07	-4.708819e-06	-1.573149e-08	-3.211620e+01	-1.034071e+03
5.200000e-07	-4.576678e-06	-1.558024e-08	-3.121494e+01	-1.023435e+03
5.300000e-07	-4.442916e-06	-1.543095e-08	-3.030262e+01	-1.012135e+03
5.400000e-07	-4.307730e-06	-1.526592e-08	-2.938060e+01	-1.000513e+03
5.500000e-07	-4.170955e-06	-1.507867e-08	-2.844773e+01	-9.889127e+02
5.600000e-07	-4.032503e-06	-1.489301e-08	-2.750343e+01	-9.775172e+02
5.700000e-07	-3.892536e-06	-1.471538e-08	-2.654879e+01	-9.662502e+02
5.800000e-07	-3.750955e-06	-1.453198e-08	-2.558315e+01	-9.547958e+02
5.900000e-07	-3.607789e-06	-1.433063e-08	-2.460670e+01	-9.427262e+02
6.000000e-07	-3.463243e-06	-1.412383e-08	-2.362083e+01	-9.296885e+02
6.100000e-07	-3.317452e-06	-1.392701e-08	-2.262647e+01	-9.155651e+02
6.200000e-07	-3.170479e-06	-1.372843e-08	-2.162405e+01	-9.005337e+02
6.300000e-07	-3.022447e-06	-1.350985e-08	-2.061440e+01	-8.849932e+02
6.400000e-07	-2.873441e-06	-1.326576e-08	-1.959812e+01	-8.693809e+02
6.500000e-07	-2.723494e-06	-1.301863e-08	-1.857541e+01	-8.539593e+02
6.600000e-07	-2.572690e-06	-1.277110e-08	-1.754687e+01	-8.386676e+02
6.700000e-07	-2.420991e-06	-1.251692e-08	-1.651221e+01	-8.231117e+02
6.800000e-07	-2.268306e-06	-1.224802e-08	-1.547084e+01	-8.067075e+02
6.900000e-07	-2.114760e-06	-1.197482e-08	-1.442359e+01	-7.889218e+02
7.000000e-07	-1.960410e-06	-1.169883e-08	-1.337085e+01	-7.695095e+02
7.100000e-07	-1.805300e-06	-1.140762e-08	-1.231294e+01	-7.486338e+02
7.200000e-07	-1.649608e-06	-1.109422e-08	-1.125105e+01	-7.268050e+02
7.300000e-07	-1.493373e-06	-1.076042e-08	-1.018545e+01	-7.046479e+02
7.400000e-07	-1.336509e-06	-1.041916e-08	-9.115577e+00	-6.825859e+02
7.500000e-07	-1.179060e-06	-1.006596e-08	-8.041706e+00	-6.605804e+02
7.600000e-07	-1.021208e-06	-9.693789e-09	-6.965083e+00	-6.380501e+02
7.700000e-07	-8.630433e-07	-9.300152e-09	-5.886332e+00	-6.140280e+02
7.800000e-07	-7.046220e-07	-8.889575e-09	-4.805829e+00	-5.875124e+02
7.900000e-07	-5.459682e-07	-8.456313e-09	-3.723741e+00	-5.578739e+02
8.000000e-07	-3.871126e-07	-7.990015e-09	-2.640277e+00	-5.251371e+02
8.100000e-07	-2.281634e-07	-7.484841e-09	-1.556174e+00	-4.899820e+02
8.200000e-07	-6.916723e-08	-6.946201e-09	-4.717507e-01	-4.534151e+02
8.300000e-07	8.988955e-08	-6.379724e-09	6.130860e-01	-4.161901e+02
8.400000e-07	2.489287e-07	-5.768198e-09	1.697802e+00	-3.781824e+02
8.500000e-07	4.078701e-07	-5.092962e-09	2.781852e+00	-3.379734e+02
8.600000e-07	5.666403e-07	-4.343719e-09	3.864734e+00	-2.928590e+02
8.700000e-07	7.251827e-07	-3.513051e-09	4.946062e+00	-2.393655e+02
8.800000e-07	8.834924e-07	-2.568841e-09	6.025803e+00	-1.741816e+02
8.900000e-07	1.041566e-06	-1.457082e-09	7.103933e+00	-9.524715e+01
9.000000e-07	1.199339e-06	-1.147726e-10	8.180016e+00	-2.659645e+00
9.100000e-07	1.356676e-06	1.483999e-09	9.253123e+00	1.009159e+02
9.200000e-07	1.513482e-06	3.268865e-09	1.032260e+01	2.105083e+02
9.300000e-07	1.669660e-06	5.056078e-09	1.138781e+01	3.197421e+02
9.400000e-07	1.825257e-06	6.640098e-09	1.244905e+01	4.221429e+02
9.500000e-07	1.980231e-06	7.932179e-09	1.350604e+01	5.124817e+02
9.600000e-07	2.134347e-06	8.956429e-09	1.455718e+01	5.877761e+02
9.700000e-07	2.287635e-06	9.786488e-09	1.560267e+01	6.476778e+02
9.800000e-07	2.440152e-06	1.048133e-08	1.664290e+01	6.941722e+02
9.900000e-07	2.591764e-06	1.107590e-08	1.767696e+01	7.307253e+02
1.000000e-06	2.742419e-06	1.159258e-08	1.870450e+01	7.611756e+02
1.010000e-06	2.892110e-06	1.204684e-08	1.972545e+01	7.887209e+02
1.020000e-06	3.040810e-06	1.245907e-08	2.073965e+01	8.152853e+02
1.030000e-06	3.188472e-06	1.283624e-08	2.174677e+01	8.414011e+02
1.040000e-06	3.334939e-06	1.317954e-08	2.274574e+01	8.665549e+02
1.050000e-06	3.480224e-06	1.349337e-08	2.373665e+01	8.898028e+02
1.060000e-06	3.624282e-06	1.378656e-08	2.471918e+01	9.103932e+02
1.070000e-06	3.766991e-06	1.406092e-08	2.569252e+01	9.281709e+02
1.080000e-06	3.908271e-06	1.431705e-08	2.665611e+01	9.436502e+02
1.090000e-06	4.048019e-06	1.456008e-08	2.760925e+01	9.577823e+02
1.100000e-06	4.186193e-06	1.479413e-08	2.855167e+01	9.715558e+02
1.110000e-06	4.322792e-06	1.501676e-08	2.948332e+01	9.856188e+02
1.120000e-06	4.457815e-06	1.522369e-08	3.040424e+01	1.000076e+03
1.130000e-06	4.591260e-06	1.541786e-08	3.131439e+01	1.014532e+03
1.140000e-06	4.723079e-06	1.560308e-08	3.221346e+01	1.028332e+03
1.150000e-06	4.853153e-06	1.578314e-08	3.310062e+01	1.040896e+03
1.160000e-06	4.981516e-06	1.595401e-08	3.397611e+01	1.051980e+03
1.170000e-06	5.108169e-06	1.611712e-08	3.483994e+01	1.061777e+03
1.180000e-06	5.233089e-06	1.627684e-08	3.569195e+01	1.070816e+03
1.190000e-06	5.356127e-06	1.643276e-08	3.653112e+01	1.079725e+03
1.200000e-06	5.477201e-06	1.658215e-08	3.735690e+01	1.088965e+03
1.210000e-06	5.596300e-06	1.672180e-08	3.816921e+01	1.098646e+03
1.220000e-06	5.713250e-06	1.685519e-08	3.896686e+01	1.108509e+03
1.230000e-06	5.827956e-06	1.698556e-08	3.974920e+01	1.118063e+03
1.240000e-06	5.940451e-06	1.711266e-08	4.051647e+01	1.126816e+03
1.250000e-06	6.050873e-06	1.723471e-08	4.126959e+01	1.134491e+03
1.260000e-06	6.159175e-06	1.734962e-08	4.200826e+01	1.141141e+03
1.270000e-06	6.265254e-06	1.745732e-08	4.273176e+01	1.147116e+03
1.280000e-06	6.369083e-06	1.756179e-08	4.343992e+01	1.152903e+03
1.290000e-06	6.470662e-06	1.766163e-08	4.413274e+01	1.158917e+03
1.300000e-06	6.569884e-06	1.775367e-08	4.480947e+01	1.165331e+03
1.310000e-06	6.666658e-06	1.783899e-08	4.546952e+01	1.172018e+03
1.320000e-06	6.761093e-06	1.792419e-08	4.611360e+01	1.178630e+03
1.330000e-06	6.853180e-06	1.801189e-08	4.674168e+01	1.184757e+03
1.340000e-06	6.942806e-06	1.809541e-08	4.735297e+01	1.190119e+03
1.350000e-06	7.030014e-06	1.817189e-08	4.794776e+01	1.194685e+03
1.360000e-06	7.114821e-06	1.824264e-08	4.852618e+01	1.198678e+03
1.370000e-06	7.197114e-06	1.831104e-08	4.908746e+01	1.202475e+03
1.380000e-06	7.276787e-06	1.837614e-08	4.963086e+01	1.206435e+03
1.390000e-06	7.353752e-06	1.843852e-08	5.015579e+01	1.210746e+03
1.400000e-06	7.427943e-06	1.850007e-08	5.066181e+01	1.215352e+03
1.410000e-06	7.499430e-06	1.856097e-08	5.114939e+01	1.219982e+03
1.420000e-06	7.568299e-06	1.862092e-08	5.161910e+01	1.224281e+03
1.430000e-06	7.634430e-06	1.867805e-08	5.207014e+01	1.227970e+03
1.440000e-06	7.697845e-06	1.873112e-08	5.250266e+01	1.230963e+03
1.450000e-06	7.758736e-06	1.878030e-08	5.291797e+01	1.233408e+03
1.460000e-06	7.816927e-06	1.882559e-08	5.331485e+01	1.235610e+03
1.470000e-06	7.872233e-06	1.886707e-08	5.369206e+01	1.237901e+03
1.480000e-06	7.924477e-06	1.890651e-08	5.404839e+01	1.240486e+03
1.490000e-06	7.973490e-06	1.894787e-08	5.438268e+01	1.243363e+03
1.500000e-06	8.019614e-06	1.898949e-08	5.469727e+01	1.246320e+03
1.510000e-06	8.062962e-06	1.902528e-08	5.499292e+01	1.249039e+03
1.520000e-06	8.103356e-06	1.905430e-08	5.526842e+01	1.251232e+03
1.530000e-06	8.140940e-06	1.908293e-08	5.552476e+01	1.252770e+03
1.540000e-06	8.175698e-06	1.911125e-08	5.576183e+01	1.253737e+03
1.550000e-06	8.207539e-06	1.913295e-08	5.597900e+01	1.254390e+03
1.560000e-06	8.236594e-06	1.914928e-08	5.617717e+01	1.255049e+03
1.570000e-06	8.262648e-06	1.916538e-08	5.635486e+01	1.255954e+03
1.580000e-06	8.285692e-06	1.918479e-08	5.651203e+01	1.257164e+03
1.590000e-06	8.305965e-06	1.920409e-08	5.665030e+01	1.258537e+03
1.600000e-06	8.323223e-06	1.921625e-08	5.676801e+01	1.259798e+03
1.610000e-06	8.337405e-06	1.922284e-08	5.686474e+01	1.260657e+03
1.620000e-06	8.348413e-06	1.922974e-08	5.693982e+01	1.260944e+03
1.630000e-06	8.356255e-06	1.923532e-08	5.699330e+01	1.260677e+03
1.640000e-06	8.361260e-06	1.923626e-08	5.702744e+01	1.260054e+03
1.650000e-06	8.363321e-06	1.923515e-08	5.704150e+01	1.259364e+03
1.660000e-06	8.362467e-06	1.922852e-08	5.703568e+01	1.258862e+03
1.670000e-06	8.358912e-06	1.921875e-08	5.701142e+01	1.258655e+03
1.680000e-06	8.352583e-06	1.921489e-08	5.696826e+01	1.258661e+03
1.690000e-06	8.343454e-06	1.920828e-08	5.690600e+01	1.258646e+03
1.700000e-06	8.331384e-06	1.919570e-08	5.682367e+01	1.258328e+03
1.710000e-06	8.316426e-06	1.918690e-08	5.672165e+01	1.257499e+03
1.720000e-06	8.298962e-06	1.919250e-08	5.660254e+01	1.256116e+03
1.730000e-06	8.279051e-06	1.916745e-08	5.646674e+01	1.254316e+03
1.740000e-06	8.256181e-06	1.902850e-08	5.631075e+01	1.252354e+03
1.750000e-06	8.229603e-06	1.901247e-08	5.612948e+01	1.250496e+03
1.760000e-06	8.199132e-06	1.902745e-08	5.592165e+01	1.248907e+03
1.770000e-06	8.165508e-06	1.899026e-08	5.569232e+01	1.247588e+03
1.780000e-06	8.129363e-06	1.900343e-08	5.544580e+01	1.246391e+03
1.790000e-06	8.090892e-06	1.910717e-08	5.518341e+01	1.245089e+03
1.800000e-06	8.050468e-06	1.898029e-08	5.490770e+01	1.243482e+03
1.810000e-06	8.007740e-06	1.892742e-08	5.461628e+01	1.241485e+03
1.820000e-06	7.962032e-06	1.899256e-08	5.430453e+01	1.239151e+03
1.830000e-06	7.913568e-06	1.880290e-08	5.397399e+01	1.236632e+03
1.840000e-06	7.861935e-06	1.891800e-08	5.362183e+01	1.234089e+03
1.850000e-06	7.807029e-06	1.883692e-08	5.324734e+01	1.231603e+03
1.860000e-06	7.749490e-06	1.883054e-08	5.285490e+01	1.229116e+03
1.870000e-06	7.689093e-06	1.885557e-08	5.244297e+01	1.226450e+03
1.880000e-06	7.625924e-06	1.863763e-08	5.201213e+01	1.223385e+03
1.890000e-06	7.560061e-06	1.867129e-08	5.156291e+01	1.219756e+03
1.900000e-06	7.491247e-06	1.849932e-08	5.109357e+01	1.215542e+03
1.910000e-06	7.419501e-06	1.848229e-08	5.060423e+01	1.210886e+03
1.920000e-06	7.344859e-06	1.845101e-08	5.009514e+01	1.206044e+03
1.930000e-06	7.267438e-06	1.837712e-08	4.956710e+01	1.201276e+03
1.940000e-06	7.187365e-06	1.839694e-08	4.902096e+01	1.196739e+03
1.950000e-06	7.104925e-06	1.820404e-08	4.845869e+01	1.192411e+03
1.960000e-06	7.019898e-06	1.819550e-08	4.787876e+01	1.188097e+03
1.970000e-06	6.932127e-06	1.801874e-08	4.728013e+01	1.183510e+03
1.980000e-06	6.842037e-06	1.795289e-08	4.666567e+01	1.178395e+03
1.990000e-06	6.749483e-06	1.790904e-08	4.603442e+01	1.172642e+03
2.000000e-06	6.654469e-06	1.781255e-08	4.538638e+01	1.166334e+03
2.010000e-06	6.557233e-06	1.777398e-08	4.472319e+01	1.159712e+03
2.020000e-06	6.457732e-06	1.761678e-08	4.404455e+01	1.153071e+03
2.030000e-06	6.355719e-06	1.755934e-08	4.334878e+01	1.146626e+03
2.040000e-06	6.251302e-06	1.740702e-08	4.263660e+01	1.140416e+03
2.050000e-06	6.144810e-06	1.733070e-08	4.191029e+01	1.134277e+03
2.060000e-06	6.036260e-06	1.720723e-08	4.116993e+01	1.127914e+03
2.070000e-06	5.925505e-06	1.710005e-08	4.041453e+01	1.121026e+03
2.080000e-06	5.812481e-06	1.699117e-08	3.964365e+01	1.113441e+03
2.090000e-06	5.697076e-06	1.686809e-08	3.885654e+01	1.105192e+03
2.100000e-06	5.579346e-06	1.676125e-08	3.805357e+01	1.096507e+03
2.110000e-06	5.459567e-06	1.662013e-08	3.723663e+01	1.087705e+03
2.120000e-06	5.337868e-06	1.649750e-08	3.640659e+01	1.079054e+03
2.130000e-06	5.214315e-06	1.634907e-08	3.556390e+01	1.070642e+03
2.140000e-06	5.088863e-06	1.622055e-08	3.470827e+01	1.062331e+03
2.150000e-06	4.961545e-06	1.606731e-08	3.383990e+01	1.053805e+03
2.160000e-06	4.832480e-06	1.593083e-08	3.295962e+01	1.044707e+03
2.170000e-06	4.701766e-06	1.577505e-08	3.206810e+01	1.034795e+03
2.180000e-06	4.569316e-06	1.562948e-08	3.116473e+01	1.024047e+03
2.190000e-06	4.435200e-06	1.546321e-08	3.025000e+01	1.012677e+03
2.200000e-06	4.299544e-06	1.529729e-08	2.932477e+01	1.001038e+03
2.210000e-06	4.162346e-06	1.511875e-08	2.838902e+01	9.894608e+02
2.220000e-06	4.023534e-06	1.494127e-08	2.744226e+01	9.780938e+02
2.230000e-06	3.883072e-06	1.476323e-08	2.648424e+01	9.668229e+02
2.240000e-06	3.741200e-06	1.457491e-08	2.551661e+01	9.553063e+02
2.250000e-06	3.597976e-06	1.438271e-08	2.453976e+01	9.431150e+02
2.260000e-06	3.453459e-06	1.417308e-08	2.355410e+01	9.299217e+02
2.270000e-06	3.307789e-06	1.396266e-08	2.256056e+01	9.156502e+02
2.280000e-06	3.160959e-06	1.374115e-08	2.155912e+01	9.005175e+02
2.290000e-06	3.012908e-06	1.352088e-08	2.054935e+01	8.849409e+02
2.300000e-06	2.863718e-06	1.329283e-08	1.953181e+01	8.693454e+02
2.310000e-06	2.713576e-06	1.306343e-08	1.850777e+01	8.539536e+02
2.320000e-06	2.562506e-06	1.282080e-08	1.747741e+01	8.386540e+02
2.330000e-06	2.410476e-06	1.256488e-08	1.644050e+01	8.230134e+02
2.340000e-06	2.257577e-06	1.228834e-08	1.539766e+01	8.064391e+02
2.350000e-06	2.103948e-06	1.200069e-08	1.434984e+01	7.884263e+02
2.360000e-06	1.949579e-06	1.170788e-08	1.329698e+01	7.687843e+02
2.370000e-06	1.794405e-06	1.141293e-08	1.223862e+01	7.477345e+02
2.380000e-06	1.638596e-06	1.110912e-08	1.117594e+01	7.258209e+02
2.390000e-06	1.482268e-06	1.078950e-08	1.010971e+01	7.036591e+02
2.400000e-06	1.325351e-06	1.045186e-08	9.039473e+00	6.816194e+02
2.410000e-06	1.167863e-06	1.009402e-08	7.965334e+00	6.595854e+02
2.420000e-06	1.009920e-06	9.715827e-09	6.888096e+00	6.369056e+02
2.430000e-06	8.516787e-07	9.311992e-09	5.808820e+00	6.125833e+02
2.440000e-06	6.931863e-07	8.887345e-09	4.727833e+00	5.856459e+02
2.450000e-06	5.344349e-07	8.446059e-09	3.645079e+00	5.555456e+02
2.460000e-06	3.754765e-07	7.986532e-09	2.560913e+00	5.224081e+02
2.470000e-06	2.164061e-07	7.496439e-09	1.475984e+00	4.869877e+02
2.480000e-06	5.729785e-08	6.962899e-09	3.907963e-01	4.502939e+02
2.490000e-06	-1.017747e-07	6.382228e-09	-6.941478e-01	4.129910e+02
2.500000e-06	-2.607491e-07	5.752403e-09	-1.778423e+00	3.747872e+02
2.510000e-06	-4.196371e-07	5.068634e-09	-2.862108e+00	3.340680e+02
2.520000e-06	-5.783943e-07	4.317615e-09	-3.944901e+00	2.879761e+02
2.530000e-06	-7.369815e-07	3.480050e-09	-5.026535e+00	2.329970e+02
2.540000e-06	-8.953254e-07	2.529427e-09	-6.106510e+00	1.659317e+02
2.550000e-06	-1.053295e-06	1.414518e-09	-7.183933e+00	8.498156e+01
2.560000e-06	-1.210843e-06	6.969710e-11	-8.258477e+00	-9.399589e+00
2.570000e-06	-1.367875e-06	-1.542618e-09	-9.329501e+00	-1.141850e+02
2.580000e-06	-1.524325e-06	-3.349526e-09	-1.039656e+01	-2.241350e+02
2.590000e-06	-1.680228e-06	-5.150850e-09	-1.145989e+01	-3.327746e+02
2.600000e-06	-1.835640e-06	-6.738703e-09	-1.251987e+01	-4.337293e+02
2.610000e-06	-1.990361e-06	-8.026861e-09	-1.357513e+01	-5.220420e+02
2.620000e-06	-2.144198e-06	-9.048616e-09	-1.462436e+01	-5.950988e+02
2.630000e-06	-2.297256e-06	-9.873605e-09	-1.566829e+01	-6.529189e+02
2.640000e-06	-2.449541e-06	-1.056285e-08	-1.670694e+01	-6.977607e+02
2.650000e-06	-2.600957e-06	-1.115913e-08	-1.773966e+01	-7.332131e+02
2.660000e-06	-2.751460e-06	-1.168854e-08	-1.876616e+01	-7.630786e+02
2.670000e-06	-2.900941e-06	-1.216140e-08	-1.978568e+01	-7.904005e+02
2.680000e-06	-3.049360e-06	-1.258190e-08	-2.079797e+01	-8.168991e+02
2.690000e-06	-3.196730e-06	-1.295830e-08	-2.180309e+01	-8.429271e+02
2.700000e-06	-3.342871e-06	-1.329842e-08	-2.279984e+01	-8.678690e+02
2.710000e-06	-3.487826e-06	-1.360977e-08	-2.378849e+01	-8.907733e+02
2.720000e-06	-3.631650e-06	-1.389824e-08	-2.476944e+01	-9.109558e+02
2.730000e-06	-3.774143e-06	-1.416699e-08	-2.574130e+01	-9.283606e+02
2.740000e-06	-3.915150e-06	-1.442408e-08	-2.670303e+01	-9.435846e+02
2.750000e-06	-4.054599e-06	-1.467546e-08	-2.765413e+01	-9.576102e+02
2.760000e-06	-4.192483e-06	-1.491796e-08	-2.859457e+01	-9.713979e+02
2.770000e-06	-4.328830e-06	-1.514505e-08	-2.952451e+01	-9.855250e+02
2.780000e-06	-4.463659e-06	-1.535316e-08	-3.044410e+01	-1.000017e+03
2.790000e-06	-4.596857e-06	-1.554436e-08	-3.135257e+01	-1.014421e+03
2.800000e-06	-4.728404e-06	-1.572577e-08	-3.224978e+01	-1.028076e+03
2.810000e-06	-4.858307e-06	-1.589872e-08	-3.313577e+01	-1.040434e+03
2.820000e-06	-4.986516e-06	-1.606383e-08	-3.401022e+01	-1.051314e+03
2.830000e-06	-5.112925e-06	-1.622865e-08	-3.487238e+01	-1.060966e+03
2.840000e-06	-5.237508e-06	-1.639420e-08	-3.572209e+01	-1.069950e+03
2.850000e-06	-5.360266e-06	-1.655322e-08	-3.655935e+01	-1.078886e+03
2.860000e-06	-5.481136e-06	-1.669818e-08	-3.738374e+01	-1.088192e+03
2.870000e-06	-5.599959e-06	-1.683107e-08	-3.819416e+01	-1.097923e+03
2.880000e-06	-5.716565e-06	-1.695963e-08	-3.898947e+01	-1.107775e+03
2.890000e-06	-5.830887e-06	-1.708337e-08	-3.976919e+01	-1.117243e+03
2.900000e-06	-5.942871e-06	-1.720015e-08	-4.053297e+01	-1.125853e+03
2.910000e-06	-6.052616e-06	-1.731112e-08	-4.128148e+01	-1.133371e+03
2.920000e-06	-6.160264e-06	-1.742003e-08	-4.201569e+01	-1.139899e+03
2.930000e-06	-6.265857e-06	-1.752767e-08	-4.273588e+01	-1.145818e+03
2.940000e-06	-6.369214e-06	-1.763093e-08	-4.344082e+01	-1.151617e+03
