# Temperatura_=_29.43
# Concentracion g/m^3_=_13400.0
# C_Vs_to_Am_M_A/Vsm_=_65563218390.804596
# pendiente_HvsI_1/m_=_3716.3
# ordenada_HvsI_A/m_=_1297.0
# frecuencia_Hz_=_301429.51480329136

Tiempo_(s)	Campo_(V.s)	Magnetizacion_(V.s)	Campo_(kA/m)	Magnetizacion_(A/m)
0.000000e+00	-8.323217e-06	-1.783790e-08	-5.691466e+01	-1.169471e+03
1.000000e-08	-8.319706e-06	-1.783310e-08	-5.689065e+01	-1.168989e+03
2.000000e-08	-8.313456e-06	-1.782547e-08	-5.684792e+01	-1.168752e+03
3.000000e-08	-8.304558e-06	-1.782315e-08	-5.678707e+01	-1.168683e+03
4.000000e-08	-8.292758e-06	-1.781559e-08	-5.670638e+01	-1.168582e+03
5.000000e-08	-8.277881e-06	-1.779941e-08	-5.660465e+01	-1.168222e+03
6.000000e-08	-8.260074e-06	-1.777458e-08	-5.648289e+01	-1.167447e+03
7.000000e-08	-8.239774e-06	-1.774010e-08	-5.634407e+01	-1.166239e+03
8.000000e-08	-8.216958e-06	-1.777894e-08	-5.618805e+01	-1.164724e+03
9.000000e-08	-8.190956e-06	-1.782762e-08	-5.601025e+01	-1.163117e+03
1.000000e-07	-8.161577e-06	-1.777083e-08	-5.580936e+01	-1.161628e+03
1.100000e-07	-8.129137e-06	-1.772516e-08	-5.558753e+01	-1.160374e+03
1.200000e-07	-8.093746e-06	-1.770593e-08	-5.534553e+01	-1.159330e+03
1.300000e-07	-8.055703e-06	-1.765247e-08	-5.508539e+01	-1.158348e+03
1.400000e-07	-8.015361e-06	-1.753862e-08	-5.480953e+01	-1.157223e+03
1.500000e-07	-7.972581e-06	-1.757605e-08	-5.451699e+01	-1.155789e+03
1.600000e-07	-7.927009e-06	-1.763703e-08	-5.420537e+01	-1.153985e+03
1.700000e-07	-7.878588e-06	-1.750101e-08	-5.387426e+01	-1.151878e+03
1.800000e-07	-7.827152e-06	-1.759423e-08	-5.352254e+01	-1.149619e+03
1.900000e-07	-7.772664e-06	-1.753749e-08	-5.314995e+01	-1.147368e+03
2.000000e-07	-7.715387e-06	-1.741445e-08	-5.275829e+01	-1.145212e+03
2.100000e-07	-7.655264e-06	-1.739695e-08	-5.234716e+01	-1.143114e+03
2.200000e-07	-7.592393e-06	-1.730111e-08	-5.191724e+01	-1.140930e+03
2.300000e-07	-7.526865e-06	-1.734792e-08	-5.146916e+01	-1.138468e+03
2.400000e-07	-7.458499e-06	-1.728158e-08	-5.100167e+01	-1.135580e+03
2.500000e-07	-7.387335e-06	-1.724693e-08	-5.051504e+01	-1.132235e+03
2.600000e-07	-7.313328e-06	-1.719640e-08	-5.000898e+01	-1.128533e+03
2.700000e-07	-7.236472e-06	-1.713348e-08	-4.948343e+01	-1.124672e+03
2.800000e-07	-7.156794e-06	-1.707185e-08	-4.893859e+01	-1.120859e+03
2.900000e-07	-7.074414e-06	-1.697603e-08	-4.837527e+01	-1.117215e+03
3.000000e-07	-6.989634e-06	-1.698360e-08	-4.779554e+01	-1.113720e+03
3.100000e-07	-6.902494e-06	-1.691055e-08	-4.719967e+01	-1.110213e+03
3.200000e-07	-6.812995e-06	-1.685690e-08	-4.658767e+01	-1.106460e+03
3.300000e-07	-6.721028e-06	-1.678639e-08	-4.595880e+01	-1.102254e+03
3.400000e-07	-6.626643e-06	-1.668594e-08	-4.531338e+01	-1.097505e+03
3.500000e-07	-6.529912e-06	-1.662599e-08	-4.465193e+01	-1.092287e+03
3.600000e-07	-6.430727e-06	-1.655880e-08	-4.397370e+01	-1.086800e+03
3.700000e-07	-6.329189e-06	-1.649260e-08	-4.327938e+01	-1.081288e+03
3.800000e-07	-6.225409e-06	-1.639732e-08	-4.256972e+01	-1.075929e+03
3.900000e-07	-6.119420e-06	-1.632969e-08	-4.184497e+01	-1.070749e+03
4.000000e-07	-6.011220e-06	-1.623621e-08	-4.110509e+01	-1.065608e+03
4.100000e-07	-5.900873e-06	-1.613300e-08	-4.035053e+01	-1.060254e+03
4.200000e-07	-5.788326e-06	-1.603630e-08	-3.958092e+01	-1.054430e+03
4.300000e-07	-5.673509e-06	-1.594680e-08	-3.879580e+01	-1.047985e+03
4.400000e-07	-5.556493e-06	-1.586568e-08	-3.799564e+01	-1.040938e+03
4.500000e-07	-5.437360e-06	-1.576682e-08	-3.718099e+01	-1.033473e+03
4.600000e-07	-5.316248e-06	-1.565167e-08	-3.635282e+01	-1.025854e+03
4.700000e-07	-5.193295e-06	-1.552662e-08	-3.551206e+01	-1.018308e+03
4.800000e-07	-5.068478e-06	-1.540678e-08	-3.465856e+01	-1.010916e+03
4.900000e-07	-4.941815e-06	-1.528348e-08	-3.379243e+01	-1.003571e+03
5.000000e-07	-4.813400e-06	-1.515978e-08	-3.291432e+01	-9.960172e+02
5.100000e-07	-4.683262e-06	-1.503231e-08	-3.202443e+01	-9.879584e+02
5.200000e-07	-4.551372e-06	-1.490866e-08	-3.112256e+01	-9.791845e+02
5.300000e-07	-4.417832e-06	-1.477859e-08	-3.020940e+01	-9.696652e+02
5.400000e-07	-4.282766e-06	-1.463610e-08	-2.928581e+01	-9.595624e+02
5.500000e-07	-4.146099e-06	-1.447343e-08	-2.835128e+01	-9.491575e+02
5.600000e-07	-4.007891e-06	-1.430775e-08	-2.740620e+01	-9.387204e+02
5.700000e-07	-3.868159e-06	-1.414406e-08	-2.645071e+01	-9.283795e+02
5.800000e-07	-3.726754e-06	-1.397746e-08	-2.548377e+01	-9.180505e+02
5.900000e-07	-3.583863e-06	-1.380244e-08	-2.450667e+01	-9.074598e+02
6.000000e-07	-3.439717e-06	-1.362263e-08	-2.352099e+01	-8.962547e+02
6.100000e-07	-3.294308e-06	-1.344727e-08	-2.252668e+01	-8.841540e+02
6.200000e-07	-3.147603e-06	-1.326531e-08	-2.152350e+01	-8.710729e+02
6.300000e-07	-2.999708e-06	-1.306582e-08	-2.051219e+01	-8.571622e+02
6.400000e-07	-2.850885e-06	-1.284478e-08	-1.949452e+01	-8.427409e+02
6.500000e-07	-2.701180e-06	-1.262108e-08	-1.847083e+01	-8.281464e+02
6.600000e-07	-2.550586e-06	-1.239282e-08	-1.744106e+01	-8.135659e+02
6.700000e-07	-2.399062e-06	-1.215757e-08	-1.640493e+01	-7.989267e+02
6.800000e-07	-2.246620e-06	-1.191318e-08	-1.536252e+01	-7.838975e+02
6.900000e-07	-2.093387e-06	-1.166398e-08	-1.431470e+01	-7.680084e+02
7.000000e-07	-1.939360e-06	-1.140693e-08	-1.326146e+01	-7.508426e+02
7.100000e-07	-1.784586e-06	-1.113141e-08	-1.220310e+01	-7.322148e+02
7.200000e-07	-1.629255e-06	-1.083965e-08	-1.114094e+01	-7.122536e+02
7.300000e-07	-1.473402e-06	-1.053491e-08	-1.007521e+01	-6.913401e+02
7.400000e-07	-1.316948e-06	-1.022102e-08	-9.005371e+00	-6.699194e+02
7.500000e-07	-1.159940e-06	-9.887704e-09	-7.931737e+00	-6.482582e+02
7.600000e-07	-1.002433e-06	-9.532751e-09	-6.854694e+00	-6.262582e+02
7.700000e-07	-8.445825e-07	-9.157685e-09	-5.775306e+00	-6.034160e+02
7.800000e-07	-6.864876e-07	-8.765853e-09	-4.694244e+00	-5.789658e+02
7.900000e-07	-5.281126e-07	-8.354433e-09	-3.611266e+00	-5.521608e+02
8.000000e-07	-3.695931e-07	-7.917256e-09	-2.527300e+00	-5.225781e+02
8.100000e-07	-2.109684e-07	-7.450404e-09	-1.442615e+00	-4.903062e+02
8.200000e-07	-5.226062e-08	-6.953217e-09	-3.573613e-01	-4.559058e+02
8.300000e-07	1.064363e-07	-6.425635e-09	7.278178e-01	-4.201157e+02
8.400000e-07	2.650754e-07	-5.856718e-09	1.812602e+00	-3.833853e+02
8.500000e-07	4.236305e-07	-5.239389e-09	2.896811e+00	-3.454029e+02
8.600000e-07	5.819954e-07	-4.567321e-09	3.979719e+00	-3.048171e+02
8.700000e-07	7.401125e-07	-3.836989e-09	5.060934e+00	-2.593114e+02
8.800000e-07	8.980157e-07	-3.028333e-09	6.140686e+00	-2.060754e+02
8.900000e-07	1.055610e-06	-2.106513e-09	7.218322e+00	-1.425794e+02
9.000000e-07	1.212828e-06	-1.024549e-09	8.293388e+00	-6.743610e+01
9.100000e-07	1.369637e-06	2.584101e-10	9.365659e+00	1.892259e+01
9.200000e-07	1.525926e-06	1.739385e-09	1.043437e+01	1.139896e+02
9.300000e-07	1.681556e-06	3.342601e-09	1.149858e+01	2.134655e+02
9.400000e-07	1.836558e-06	4.919350e-09	1.255850e+01	3.120326e+02
9.500000e-07	1.990982e-06	6.331295e-09	1.361445e+01	4.044163e+02
9.600000e-07	2.144737e-06	7.513378e-09	1.466584e+01	4.864402e+02
9.700000e-07	2.297663e-06	8.482336e-09	1.571156e+01	5.557786e+02
9.800000e-07	2.449746e-06	9.286874e-09	1.675151e+01	6.122120e+02
9.900000e-07	2.600987e-06	9.967314e-09	1.778570e+01	6.573447e+02
1.000000e-06	2.751250e-06	1.055056e-08	1.881322e+01	6.939093e+02
1.010000e-06	2.900537e-06	1.105387e-08	1.983405e+01	7.248978e+02
1.020000e-06	3.048765e-06	1.149761e-08	2.084764e+01	7.527896e+02
1.030000e-06	3.195833e-06	1.189966e-08	2.185330e+01	7.790891e+02
1.040000e-06	3.341834e-06	1.226761e-08	2.285166e+01	8.042597e+02
1.050000e-06	3.486748e-06	1.260143e-08	2.384260e+01	8.280044e+02
1.060000e-06	3.630349e-06	1.290724e-08	2.482455e+01	8.497322e+02
1.070000e-06	3.772499e-06	1.318834e-08	2.579658e+01	8.690132e+02
1.080000e-06	3.913208e-06	1.344932e-08	2.675875e+01	8.858577e+02
1.090000e-06	4.052412e-06	1.369060e-08	2.771064e+01	9.007447e+02
1.100000e-06	4.190075e-06	1.391238e-08	2.865199e+01	9.144318e+02
1.110000e-06	4.326193e-06	1.412423e-08	2.958277e+01	9.276578e+02
1.120000e-06	4.460685e-06	1.433086e-08	3.050243e+01	9.408776e+02
1.130000e-06	4.593580e-06	1.452792e-08	3.141118e+01	9.541381e+02
1.140000e-06	4.724861e-06	1.470858e-08	3.230889e+01	9.671343e+02
1.150000e-06	4.854461e-06	1.487906e-08	3.319510e+01	9.794049e+02
1.160000e-06	4.982347e-06	1.504330e-08	3.406959e+01	9.905720e+02
1.170000e-06	5.108449e-06	1.520038e-08	3.493189e+01	1.000521e+03
1.180000e-06	5.232796e-06	1.534730e-08	3.578218e+01	1.009447e+03
1.190000e-06	5.355360e-06	1.548607e-08	3.662028e+01	1.017763e+03
1.200000e-06	5.475924e-06	1.562121e-08	3.744470e+01	1.025914e+03
1.210000e-06	5.594353e-06	1.575331e-08	3.825452e+01	1.034194e+03
1.220000e-06	5.710681e-06	1.588089e-08	3.904998e+01	1.042629e+03
1.230000e-06	5.824858e-06	1.599938e-08	3.983073e+01	1.050996e+03
1.240000e-06	5.936851e-06	1.610980e-08	4.059655e+01	1.058940e+03
1.250000e-06	6.046737e-06	1.621534e-08	4.134796e+01	1.066147e+03
1.260000e-06	6.154536e-06	1.631660e-08	4.208509e+01	1.072489e+03
1.270000e-06	6.260122e-06	1.640903e-08	4.280710e+01	1.078084e+03
1.280000e-06	6.363461e-06	1.649480e-08	4.351373e+01	1.083242e+03
1.290000e-06	6.464510e-06	1.657864e-08	4.420471e+01	1.088328e+03
1.300000e-06	6.563195e-06	1.665985e-08	4.487953e+01	1.093612e+03
1.310000e-06	6.659433e-06	1.673980e-08	4.553761e+01	1.099157e+03
1.320000e-06	6.753286e-06	1.681822e-08	4.617938e+01	1.104804e+03
1.330000e-06	6.844855e-06	1.689550e-08	4.680553e+01	1.110257e+03
1.340000e-06	6.934028e-06	1.696888e-08	4.741530e+01	1.115220e+03
1.350000e-06	7.020771e-06	1.703378e-08	4.800846e+01	1.119527e+03
1.360000e-06	7.105096e-06	1.709158e-08	4.858507e+01	1.123218e+03
1.370000e-06	7.186934e-06	1.714677e-08	4.914469e+01	1.126517e+03
1.380000e-06	7.266161e-06	1.720237e-08	4.968645e+01	1.129726e+03
1.390000e-06	7.342639e-06	1.726002e-08	5.020941e+01	1.133097e+03
1.400000e-06	7.416329e-06	1.731693e-08	5.071331e+01	1.136723e+03
1.410000e-06	7.487382e-06	1.737161e-08	5.119917e+01	1.140500e+03
1.420000e-06	7.555806e-06	1.742382e-08	5.166706e+01	1.144180e+03
1.430000e-06	7.621415e-06	1.747068e-08	5.211570e+01	1.147483e+03
1.440000e-06	7.684333e-06	1.751050e-08	5.254594e+01	1.150224e+03
1.450000e-06	7.744692e-06	1.754475e-08	5.295867e+01	1.152392e+03
1.460000e-06	7.802307e-06	1.757866e-08	5.335265e+01	1.154154e+03
1.470000e-06	7.857105e-06	1.761265e-08	5.372736e+01	1.155780e+03
1.480000e-06	7.908830e-06	1.764633e-08	5.408106e+01	1.157524e+03
1.490000e-06	7.957374e-06	1.768013e-08	5.441300e+01	1.159516e+03
1.500000e-06	8.003087e-06	1.771522e-08	5.472559e+01	1.161706e+03
1.510000e-06	8.045961e-06	1.774720e-08	5.501877e+01	1.163893e+03
1.520000e-06	8.085927e-06	1.776894e-08	5.529206e+01	1.165814e+03
1.530000e-06	8.123137e-06	1.778365e-08	5.554650e+01	1.167261e+03
1.540000e-06	8.157506e-06	1.779765e-08	5.578152e+01	1.168175e+03
1.550000e-06	8.188997e-06	1.781597e-08	5.599686e+01	1.168669e+03
1.560000e-06	8.217684e-06	1.783304e-08	5.619302e+01	1.168981e+03
1.570000e-06	8.243347e-06	1.784433e-08	5.636851e+01	1.169369e+03
1.580000e-06	8.266040e-06	1.785671e-08	5.652368e+01	1.170000e+03
1.590000e-06	8.286037e-06	1.787193e-08	5.666042e+01	1.170882e+03
1.600000e-06	8.303110e-06	1.788365e-08	5.677717e+01	1.171865e+03
1.610000e-06	8.317030e-06	1.788764e-08	5.687235e+01	1.172709e+03
1.620000e-06	8.327730e-06	1.788920e-08	5.694552e+01	1.173190e+03
1.630000e-06	8.335327e-06	1.789327e-08	5.699747e+01	1.173199e+03
1.640000e-06	8.340024e-06	1.789728e-08	5.702959e+01	1.172787e+03
1.650000e-06	8.341766e-06	1.789824e-08	5.704150e+01	1.172141e+03
1.660000e-06	8.340677e-06	1.788998e-08	5.703405e+01	1.171499e+03
1.670000e-06	8.336849e-06	1.788125e-08	5.700788e+01	1.171049e+03
1.680000e-06	8.330242e-06	1.787881e-08	5.696270e+01	1.170844e+03
1.690000e-06	8.320891e-06	1.787186e-08	5.689876e+01	1.170783e+03
1.700000e-06	8.308578e-06	1.785991e-08	5.681456e+01	1.170657e+03
1.710000e-06	8.293372e-06	1.785549e-08	5.671058e+01	1.170244e+03
1.720000e-06	8.275680e-06	1.786895e-08	5.658960e+01	1.169403e+03
1.730000e-06	8.255501e-06	1.784079e-08	5.645162e+01	1.168139e+03
1.740000e-06	8.232309e-06	1.772164e-08	5.629303e+01	1.166596e+03
1.750000e-06	8.205368e-06	1.771825e-08	5.610880e+01	1.164993e+03
1.760000e-06	8.174594e-06	1.773305e-08	5.589836e+01	1.163533e+03
1.770000e-06	8.140790e-06	1.770995e-08	5.566721e+01	1.162313e+03
1.780000e-06	8.104493e-06	1.773766e-08	5.541901e+01	1.161288e+03
1.790000e-06	8.065860e-06	1.782261e-08	5.515484e+01	1.160296e+03
1.800000e-06	8.025278e-06	1.767139e-08	5.487734e+01	1.159135e+03
1.810000e-06	7.982418e-06	1.765328e-08	5.458425e+01	1.157647e+03
1.820000e-06	7.936617e-06	1.769273e-08	5.427107e+01	1.155792e+03
1.830000e-06	7.887979e-06	1.749873e-08	5.393848e+01	1.153651e+03
1.840000e-06	7.836137e-06	1.762646e-08	5.358398e+01	1.151383e+03
1.850000e-06	7.781106e-06	1.754740e-08	5.320767e+01	1.149142e+03
1.860000e-06	7.723306e-06	1.756600e-08	5.281244e+01	1.146999e+03
1.870000e-06	7.662664e-06	1.756289e-08	5.239776e+01	1.144898e+03
1.880000e-06	7.599381e-06	1.737252e-08	5.196502e+01	1.142684e+03
1.890000e-06	7.533268e-06	1.740922e-08	5.151294e+01	1.140168e+03
1.900000e-06	7.464277e-06	1.727170e-08	5.104118e+01	1.137213e+03
1.910000e-06	7.392407e-06	1.730440e-08	5.054973e+01	1.133806e+03
1.920000e-06	7.317631e-06	1.726626e-08	5.003841e+01	1.130066e+03
1.930000e-06	7.240166e-06	1.722482e-08	4.950869e+01	1.126200e+03
1.940000e-06	7.160072e-06	1.722303e-08	4.896101e+01	1.122405e+03
1.950000e-06	7.077518e-06	1.704338e-08	4.839650e+01	1.118786e+03
1.960000e-06	6.992336e-06	1.704598e-08	4.781401e+01	1.115301e+03
1.970000e-06	6.904570e-06	1.690172e-08	4.721387e+01	1.111773e+03
1.980000e-06	6.814428e-06	1.688161e-08	4.659747e+01	1.107964e+03
1.990000e-06	6.721849e-06	1.684990e-08	4.596441e+01	1.103681e+03
2.000000e-06	6.626933e-06	1.677929e-08	4.531537e+01	1.098856e+03
2.010000e-06	6.529715e-06	1.673034e-08	4.465059e+01	1.093584e+03
2.020000e-06	6.430193e-06	1.659559e-08	4.397005e+01	1.088078e+03
2.030000e-06	6.328244e-06	1.654423e-08	4.327292e+01	1.082579e+03
2.040000e-06	6.223964e-06	1.642118e-08	4.255985e+01	1.077246e+03
2.050000e-06	6.117504e-06	1.636947e-08	4.183186e+01	1.072082e+03
2.060000e-06	6.008981e-06	1.627147e-08	4.108978e+01	1.066927e+03
2.070000e-06	5.898320e-06	1.619513e-08	4.033307e+01	1.061519e+03
2.080000e-06	5.785343e-06	1.610095e-08	3.956052e+01	1.055611e+03
2.090000e-06	5.670071e-06	1.599323e-08	3.877229e+01	1.049073e+03
2.100000e-06	5.552506e-06	1.589301e-08	3.796837e+01	1.041951e+03
2.110000e-06	5.432852e-06	1.577897e-08	3.715017e+01	1.034446e+03
2.120000e-06	5.311223e-06	1.567843e-08	3.631846e+01	1.026825e+03
2.130000e-06	5.187713e-06	1.555808e-08	3.547390e+01	1.019300e+03
2.140000e-06	5.062384e-06	1.544980e-08	3.461689e+01	1.011924e+03
2.150000e-06	4.935270e-06	1.531967e-08	3.374767e+01	1.004566e+03
2.160000e-06	4.806358e-06	1.520447e-08	3.286617e+01	9.969560e+02
2.170000e-06	4.675679e-06	1.506774e-08	3.197258e+01	9.888032e+02
2.180000e-06	4.543366e-06	1.493590e-08	3.106781e+01	9.799189e+02
2.190000e-06	4.409510e-06	1.479104e-08	3.015249e+01	9.703011e+02
2.200000e-06	4.274058e-06	1.465295e-08	2.922627e+01	9.601355e+02
2.210000e-06	4.136939e-06	1.450166e-08	2.828864e+01	9.497104e+02
2.220000e-06	3.998250e-06	1.434531e-08	2.734027e+01	9.392826e+02
2.230000e-06	3.858065e-06	1.418507e-08	2.638168e+01	9.289525e+02
2.240000e-06	3.716516e-06	1.401952e-08	2.541376e+01	9.186051e+02
2.250000e-06	3.573620e-06	1.385175e-08	2.443663e+01	9.079470e+02
2.260000e-06	3.429386e-06	1.366834e-08	2.345035e+01	8.966265e+02
2.270000e-06	3.283862e-06	1.347983e-08	2.245524e+01	8.843843e+02
2.280000e-06	3.137151e-06	1.328024e-08	2.145203e+01	8.711691e+02
2.290000e-06	2.989380e-06	1.308108e-08	2.044156e+01	8.571625e+02
2.300000e-06	2.840552e-06	1.287340e-08	1.942386e+01	8.426964e+02
2.310000e-06	2.690772e-06	1.266226e-08	1.839966e+01	8.280965e+02
2.320000e-06	2.540116e-06	1.243983e-08	1.736947e+01	8.135176e+02
2.330000e-06	2.388509e-06	1.220776e-08	1.633277e+01	7.988469e+02
2.340000e-06	2.235943e-06	1.195747e-08	1.528951e+01	7.837233e+02
2.350000e-06	2.082534e-06	1.169367e-08	1.424049e+01	7.676725e+02
2.360000e-06	1.928371e-06	1.142391e-08	1.318632e+01	7.503010e+02
2.370000e-06	1.773494e-06	1.115060e-08	1.212726e+01	7.314664e+02
2.380000e-06	1.618044e-06	1.086837e-08	1.106428e+01	7.113407e+02
2.390000e-06	1.462028e-06	1.056618e-08	9.997434e+00	6.903279e+02
2.400000e-06	1.305384e-06	1.024575e-08	8.926298e+00	6.688623e+02
2.410000e-06	1.148261e-06	9.908425e-09	7.851877e+00	6.471675e+02
2.420000e-06	9.907769e-07	9.555625e-09	6.774993e+00	6.250853e+02
2.430000e-06	8.329624e-07	9.180393e-09	5.695847e+00	6.020621e+02
2.440000e-06	6.748485e-07	8.783062e-09	4.614655e+00	5.773156e+02
2.450000e-06	5.165501e-07	8.368006e-09	3.532201e+00	5.501277e+02
2.460000e-06	3.581033e-07	7.933086e-09	2.448732e+00	5.201416e+02
2.470000e-06	1.995031e-07	7.469829e-09	1.364214e+00	4.875218e+02
2.480000e-06	4.083196e-08	6.970273e-09	2.792114e-01	4.528777e+02
2.490000e-06	-1.178371e-07	6.432586e-09	-8.057771e-01	4.169376e+02
2.500000e-06	-2.764455e-07	5.855595e-09	-1.890351e+00	3.800690e+02
2.510000e-06	-4.349184e-07	5.236922e-09	-2.973998e+00	3.418214e+02
2.520000e-06	-5.932218e-07	4.567311e-09	-4.056487e+00	3.006918e+02
2.530000e-06	-7.513076e-07	3.834425e-09	-5.137487e+00	2.542555e+02
2.540000e-06	-9.090792e-07	3.019371e-09	-6.216338e+00	1.996900e+02
2.550000e-06	-1.066517e-06	2.090247e-09	-7.292907e+00	1.345772e+02
2.560000e-06	-1.223553e-06	1.004368e-09	-8.366732e+00	5.775606e+01
2.570000e-06	-1.380092e-06	-2.851860e-10	-9.437150e+00	-3.004874e+01
2.580000e-06	-1.536054e-06	-1.781269e-09	-1.050363e+01	-1.260440e+02
2.590000e-06	-1.691467e-06	-3.399830e-09	-1.156635e+01	-2.257280e+02
2.600000e-06	-1.846407e-06	-4.984806e-09	-1.262584e+01	-3.237208e+02
2.610000e-06	-2.000749e-06	-6.395275e-09	-1.368125e+01	-4.148445e+02
2.620000e-06	-2.154254e-06	-7.575545e-09	-1.473092e+01	-4.951508e+02
2.630000e-06	-2.306878e-06	-8.543076e-09	-1.577457e+01	-5.626122e+02
2.640000e-06	-2.458671e-06	-9.345015e-09	-1.681254e+01	-6.172989e+02
2.650000e-06	-2.609585e-06	-1.002629e-08	-1.784450e+01	-6.610258e+02
2.660000e-06	-2.759523e-06	-1.061969e-08	-1.886979e+01	-6.966165e+02
2.670000e-06	-2.908470e-06	-1.114052e-08	-1.988829e+01	-7.270315e+02
2.680000e-06	-3.056447e-06	-1.159735e-08	-2.090017e+01	-7.546303e+02
2.690000e-06	-3.203372e-06	-1.200195e-08	-2.190485e+01	-7.807634e+02
2.700000e-06	-3.349131e-06	-1.236379e-08	-2.290156e+01	-8.057620e+02
2.710000e-06	-3.493650e-06	-1.268975e-08	-2.388979e+01	-8.292565e+02
2.720000e-06	-3.636855e-06	-1.298918e-08	-2.486904e+01	-8.506539e+02
2.730000e-06	-3.778647e-06	-1.326748e-08	-2.583861e+01	-8.695756e+02
2.740000e-06	-3.919059e-06	-1.352719e-08	-2.679876e+01	-8.861029e+02
2.750000e-06	-4.058031e-06	-1.377453e-08	-2.774906e+01	-9.007702e+02
2.760000e-06	-4.195401e-06	-1.401234e-08	-2.868841e+01	-9.143516e+02
2.770000e-06	-4.331221e-06	-1.423510e-08	-2.961715e+01	-9.275591e+02
2.780000e-06	-4.465530e-06	-1.443918e-08	-3.053557e+01	-9.407926e+02
2.790000e-06	-4.598260e-06	-1.462533e-08	-3.144318e+01	-9.540414e+02
2.800000e-06	-4.729342e-06	-1.479941e-08	-3.233953e+01	-9.669639e+02
2.810000e-06	-4.858756e-06	-1.496661e-08	-3.322447e+01	-9.790965e+02
2.820000e-06	-4.986429e-06	-1.512841e-08	-3.409750e+01	-9.900903e+02
2.830000e-06	-5.112292e-06	-1.528449e-08	-3.495816e+01	-9.998755e+02
2.840000e-06	-5.236323e-06	-1.543177e-08	-3.580629e+01	-1.008687e+03
2.850000e-06	-5.358565e-06	-1.557170e-08	-3.664219e+01	-1.016955e+03
2.860000e-06	-5.478932e-06	-1.570519e-08	-3.746527e+01	-1.025114e+03
2.870000e-06	-5.597167e-06	-1.583201e-08	-3.827377e+01	-1.033422e+03
2.880000e-06	-5.713198e-06	-1.595115e-08	-3.906719e+01	-1.041867e+03
2.890000e-06	-5.826914e-06	-1.606245e-08	-3.984479e+01	-1.050198e+03
2.900000e-06	-5.938263e-06	-1.616937e-08	-4.060620e+01	-1.058054e+03
2.910000e-06	-6.047353e-06	-1.626976e-08	-4.135217e+01	-1.065140e+03
2.920000e-06	-6.154389e-06	-1.636348e-08	-4.208409e+01	-1.071364e+03
2.930000e-06	-6.259432e-06	-1.645470e-08	-4.280237e+01	-1.076876e+03
2.940000e-06	-6.362265e-06	-1.654756e-08	-4.350555e+01	-1.082002e+03
