# Temperatura_=_61.37
# Concentracion g/m^3_=_13400.0
# C_Vs_to_Am_M_A/Vsm_=_65563218390.804596
# pendiente_HvsI_1/m_=_3716.3
# ordenada_HvsI_A/m_=_1297.0
# frecuencia_Hz_=_301435.36981519026

Tiempo_(s)	Campo_(V.s)	Magnetizacion_(V.s)	Campo_(kA/m)	Magnetizacion_(A/m)
0.000000e+00	-8.359028e-06	-1.854338e-08	-5.691510e+01	-1.216130e+03
1.000000e-08	-8.356153e-06	-1.853904e-08	-5.689553e+01	-1.215821e+03
2.000000e-08	-8.350518e-06	-1.852988e-08	-5.685716e+01	-1.215744e+03
3.000000e-08	-8.342273e-06	-1.851939e-08	-5.680102e+01	-1.215739e+03
4.000000e-08	-8.331204e-06	-1.850954e-08	-5.672565e+01	-1.215563e+03
5.000000e-08	-8.317098e-06	-1.849936e-08	-5.662961e+01	-1.214993e+03
6.000000e-08	-8.299962e-06	-1.848799e-08	-5.651293e+01	-1.213929e+03
7.000000e-08	-8.280166e-06	-1.847272e-08	-5.637814e+01	-1.212428e+03
8.000000e-08	-8.257928e-06	-1.847015e-08	-5.622673e+01	-1.210687e+03
9.000000e-08	-8.232656e-06	-1.849502e-08	-5.605465e+01	-1.208949e+03
1.000000e-07	-8.203940e-06	-1.848174e-08	-5.585913e+01	-1.207405e+03
1.100000e-07	-8.172039e-06	-1.843463e-08	-5.564193e+01	-1.206119e+03
1.200000e-07	-8.137223e-06	-1.838571e-08	-5.540487e+01	-1.205005e+03
1.300000e-07	-8.099689e-06	-1.833297e-08	-5.514931e+01	-1.203880e+03
1.400000e-07	-8.059766e-06	-1.828176e-08	-5.487748e+01	-1.202546e+03
1.500000e-07	-8.017386e-06	-1.824965e-08	-5.458892e+01	-1.200880e+03
1.600000e-07	-7.972212e-06	-1.826268e-08	-5.428134e+01	-1.198881e+03
1.700000e-07	-7.924272e-06	-1.822428e-08	-5.395493e+01	-1.196660e+03
1.800000e-07	-7.873396e-06	-1.819942e-08	-5.360852e+01	-1.194367e+03
1.900000e-07	-7.819380e-06	-1.819862e-08	-5.324073e+01	-1.192113e+03
2.000000e-07	-7.762462e-06	-1.810223e-08	-5.285319e+01	-1.189895e+03
2.100000e-07	-7.702759e-06	-1.802715e-08	-5.244669e+01	-1.187594e+03
2.200000e-07	-7.640338e-06	-1.798102e-08	-5.202167e+01	-1.185014e+03
2.300000e-07	-7.575209e-06	-1.795372e-08	-5.157822e+01	-1.181976e+03
2.400000e-07	-7.507235e-06	-1.792065e-08	-5.111540e+01	-1.178406e+03
2.500000e-07	-7.436473e-06	-1.785858e-08	-5.063359e+01	-1.174373e+03
2.600000e-07	-7.362853e-06	-1.781903e-08	-5.013232e+01	-1.170075e+03
2.700000e-07	-7.286377e-06	-1.775666e-08	-4.961162e+01	-1.165757e+03
2.800000e-07	-7.207075e-06	-1.769656e-08	-4.907166e+01	-1.161604e+03
2.900000e-07	-7.124989e-06	-1.760947e-08	-4.851275e+01	-1.157659e+03
3.000000e-07	-7.040502e-06	-1.753736e-08	-4.793750e+01	-1.153798e+03
3.100000e-07	-6.953733e-06	-1.749349e-08	-4.734670e+01	-1.149780e+03
3.200000e-07	-6.864505e-06	-1.742643e-08	-4.673916e+01	-1.145346e+03
3.300000e-07	-6.772728e-06	-1.735108e-08	-4.611427e+01	-1.140336e+03
3.400000e-07	-6.678597e-06	-1.725730e-08	-4.547335e+01	-1.134759e+03
3.500000e-07	-6.582140e-06	-1.718591e-08	-4.481659e+01	-1.128790e+03
3.600000e-07	-6.483194e-06	-1.711213e-08	-4.414289e+01	-1.122698e+03
3.700000e-07	-6.381870e-06	-1.702468e-08	-4.345299e+01	-1.116725e+03
3.800000e-07	-6.278275e-06	-1.692453e-08	-4.274763e+01	-1.110977e+03
3.900000e-07	-6.172348e-06	-1.682640e-08	-4.202639e+01	-1.105374e+03
4.000000e-07	-6.064179e-06	-1.673873e-08	-4.128989e+01	-1.099676e+03
4.100000e-07	-5.953929e-06	-1.663519e-08	-4.053922e+01	-1.093588e+03
4.200000e-07	-5.841498e-06	-1.653000e-08	-3.977370e+01	-1.086885e+03
4.300000e-07	-5.726725e-06	-1.642802e-08	-3.899223e+01	-1.079512e+03
4.400000e-07	-5.609689e-06	-1.633605e-08	-3.819535e+01	-1.071610e+03
4.500000e-07	-5.490540e-06	-1.623317e-08	-3.738409e+01	-1.063451e+03
4.600000e-07	-5.369387e-06	-1.610887e-08	-3.655918e+01	-1.055320e+03
4.700000e-07	-5.246334e-06	-1.596769e-08	-3.572134e+01	-1.047376e+03
4.800000e-07	-5.121444e-06	-1.583441e-08	-3.487098e+01	-1.039580e+03
4.900000e-07	-4.994737e-06	-1.571237e-08	-3.400825e+01	-1.031698e+03
5.000000e-07	-4.866197e-06	-1.558344e-08	-3.313305e+01	-1.023402e+03
5.100000e-07	-4.735849e-06	-1.544382e-08	-3.224554e+01	-1.014409e+03
5.200000e-07	-4.603806e-06	-1.530246e-08	-3.134648e+01	-1.004608e+03
5.300000e-07	-4.470125e-06	-1.516247e-08	-3.043627e+01	-9.941142e+02
5.400000e-07	-4.334859e-06	-1.500706e-08	-2.951527e+01	-9.832152e+02
5.500000e-07	-4.198012e-06	-1.483753e-08	-2.858350e+01	-9.722446e+02
5.600000e-07	-4.059518e-06	-1.466453e-08	-2.764052e+01	-9.614222e+02
5.700000e-07	-3.919412e-06	-1.449857e-08	-2.668656e+01	-9.507423e+02
5.800000e-07	-3.777761e-06	-1.432828e-08	-2.572209e+01	-9.399587e+02
5.900000e-07	-3.634609e-06	-1.414145e-08	-2.474739e+01	-9.286799e+02
6.000000e-07	-3.490006e-06	-1.394342e-08	-2.376282e+01	-9.165345e+02
6.100000e-07	-3.344145e-06	-1.374800e-08	-2.276968e+01	-9.033365e+02
6.200000e-07	-3.197194e-06	-1.355635e-08	-2.176911e+01	-8.891741e+02
6.300000e-07	-3.049063e-06	-1.335167e-08	-2.076052e+01	-8.743763e+02
6.400000e-07	-2.899880e-06	-1.312921e-08	-1.974475e+01	-8.593661e+02
6.500000e-07	-2.749837e-06	-1.289596e-08	-1.872314e+01	-8.444597e+02
6.600000e-07	-2.598830e-06	-1.265835e-08	-1.769496e+01	-8.297002e+02
6.700000e-07	-2.446834e-06	-1.241236e-08	-1.666005e+01	-8.148045e+02
6.800000e-07	-2.293973e-06	-1.215484e-08	-1.561924e+01	-7.992550e+02
6.900000e-07	-2.140281e-06	-1.189226e-08	-1.457278e+01	-7.825056e+02
7.000000e-07	-1.985768e-06	-1.162709e-08	-1.352073e+01	-7.642151e+02
7.100000e-07	-1.830551e-06	-1.135037e-08	-1.246389e+01	-7.444025e+02
7.200000e-07	-1.674679e-06	-1.105203e-08	-1.140259e+01	-7.234466e+02
7.300000e-07	-1.518181e-06	-1.073361e-08	-1.033702e+01	-7.019140e+02
7.400000e-07	-1.361190e-06	-1.040215e-08	-9.268092e+00	-6.802795e+02
7.500000e-07	-1.203764e-06	-1.005855e-08	-8.196208e+00	-6.586550e+02
7.600000e-07	-1.045877e-06	-9.696939e-09	-7.121189e+00	-6.366534e+02
7.700000e-07	-8.875853e-07	-9.316603e-09	-6.043407e+00	-6.134649e+02
7.800000e-07	-7.289587e-07	-8.918310e-09	-4.963347e+00	-5.881343e+02
7.900000e-07	-5.700215e-07	-8.498505e-09	-3.881173e+00	-5.599365e+02
8.000000e-07	-4.108447e-07	-8.049940e-09	-2.797367e+00	-5.286882e+02
8.100000e-07	-2.515155e-07	-7.563929e-09	-1.712523e+00	-4.948372e+02
8.200000e-07	-9.206336e-08	-7.043210e-09	-6.268427e-01	-4.592484e+02
8.300000e-07	6.742925e-08	-6.492963e-09	4.591135e-01	-4.227231e+02
8.400000e-07	2.268317e-07	-5.903257e-09	1.544456e+00	-3.854097e+02
8.500000e-07	3.860896e-07	-5.257196e-09	2.628814e+00	-3.463367e+02
8.600000e-07	5.452446e-07	-4.543906e-09	3.712472e+00	-3.032883e+02
8.700000e-07	7.042094e-07	-3.752541e-09	4.794834e+00	-2.531448e+02
8.800000e-07	8.628149e-07	-2.860634e-09	5.874749e+00	-1.926536e+02
8.900000e-07	1.021049e-06	-1.825584e-09	6.952135e+00	-1.194334e+02
9.000000e-07	1.178877e-06	-5.875696e-10	8.026758e+00	-3.290894e+01
9.100000e-07	1.336293e-06	8.972239e-10	9.098578e+00	6.513526e+01
9.200000e-07	1.493314e-06	2.593654e-09	1.016771e+01	1.705960e+02
9.300000e-07	1.649833e-06	4.349372e-09	1.123341e+01	2.777211e+02
9.400000e-07	1.805749e-06	5.966598e-09	1.229502e+01	3.802465e+02
9.500000e-07	1.961005e-06	7.324777e-09	1.335213e+01	4.726860e+02
9.600000e-07	2.115564e-06	8.418133e-09	1.440449e+01	5.514122e+02
9.700000e-07	2.269310e-06	9.301515e-09	1.545132e+01	6.152294e+02
9.800000e-07	2.422207e-06	1.003406e-08	1.649237e+01	6.653046e+02
9.900000e-07	2.574337e-06	1.065673e-08	1.752819e+01	7.045195e+02
1.000000e-06	2.725510e-06	1.119459e-08	1.855750e+01	7.364794e+02
1.010000e-06	2.875571e-06	1.166401e-08	1.957924e+01	7.645002e+02
1.020000e-06	3.024599e-06	1.208168e-08	2.059394e+01	7.908704e+02
1.030000e-06	3.172552e-06	1.246183e-08	2.160133e+01	8.165677e+02
1.040000e-06	3.319408e-06	1.280785e-08	2.260125e+01	8.414417e+02
1.050000e-06	3.465133e-06	1.312236e-08	2.359346e+01	8.647211e+02
1.060000e-06	3.609637e-06	1.341409e-08	2.457736e+01	8.856143e+02
1.070000e-06	3.752794e-06	1.368926e-08	2.555209e+01	9.037736e+02
1.080000e-06	3.894485e-06	1.394734e-08	2.651684e+01	9.194769e+02
1.090000e-06	4.034661e-06	1.418793e-08	2.747127e+01	9.335047e+02
1.100000e-06	4.173339e-06	1.441328e-08	2.841550e+01	9.468101e+02
1.110000e-06	4.310547e-06	1.462646e-08	2.934973e+01	9.601452e+02
1.120000e-06	4.446132e-06	1.483097e-08	3.027290e+01	9.738064e+02
1.130000e-06	4.580021e-06	1.502144e-08	3.118453e+01	9.875908e+02
1.140000e-06	4.712280e-06	1.519741e-08	3.208506e+01	1.000962e+03
1.150000e-06	4.842910e-06	1.536741e-08	3.297449e+01	1.013339e+03
1.160000e-06	4.971843e-06	1.553519e-08	3.385237e+01	1.024372e+03
1.170000e-06	5.098977e-06	1.569878e-08	3.471801e+01	1.034091e+03
1.180000e-06	5.224284e-06	1.585323e-08	3.557120e+01	1.042886e+03
1.190000e-06	5.347786e-06	1.600115e-08	3.641210e+01	1.051319e+03
1.200000e-06	5.469444e-06	1.614288e-08	3.724045e+01	1.059886e+03
1.210000e-06	5.589040e-06	1.627658e-08	3.805476e+01	1.068807e+03
1.220000e-06	5.706475e-06	1.640227e-08	3.885435e+01	1.077962e+03
1.230000e-06	5.821749e-06	1.652320e-08	3.963923e+01	1.086964e+03
1.240000e-06	5.934782e-06	1.664172e-08	4.040885e+01	1.095349e+03
1.250000e-06	6.045667e-06	1.675855e-08	4.116385e+01	1.102788e+03
1.260000e-06	6.154475e-06	1.687106e-08	4.190470e+01	1.109226e+03
1.270000e-06	6.261092e-06	1.697293e-08	4.263064e+01	1.114906e+03
1.280000e-06	6.365434e-06	1.706605e-08	4.334108e+01	1.120252e+03
1.290000e-06	6.467482e-06	1.715530e-08	4.403591e+01	1.125687e+03
1.300000e-06	6.567197e-06	1.724058e-08	4.471485e+01	1.131460e+03
1.310000e-06	6.664504e-06	1.732125e-08	4.537740e+01	1.137551e+03
1.320000e-06	6.759401e-06	1.740142e-08	4.602353e+01	1.143699e+03
1.330000e-06	6.851943e-06	1.748320e-08	4.665363e+01	1.149530e+03
1.340000e-06	6.942052e-06	1.756358e-08	4.726717e+01	1.154730e+03
1.350000e-06	7.029714e-06	1.763678e-08	4.786404e+01	1.159181e+03
1.360000e-06	7.115053e-06	1.770222e-08	4.844510e+01	1.163006e+03
1.370000e-06	7.197929e-06	1.776485e-08	4.900939e+01	1.166510e+03
1.380000e-06	7.278126e-06	1.782553e-08	4.955543e+01	1.170042e+03
1.390000e-06	7.355622e-06	1.788429e-08	5.008309e+01	1.173839e+03
1.400000e-06	7.430367e-06	1.794144e-08	5.059201e+01	1.177935e+03
1.410000e-06	7.502358e-06	1.799876e-08	5.108219e+01	1.182147e+03
1.420000e-06	7.571687e-06	1.805541e-08	5.155424e+01	1.186171e+03
1.430000e-06	7.638298e-06	1.810841e-08	5.200778e+01	1.189715e+03
1.440000e-06	7.702237e-06	1.815605e-08	5.244313e+01	1.192633e+03
1.450000e-06	7.763559e-06	1.819993e-08	5.286066e+01	1.194982e+03
1.460000e-06	7.822148e-06	1.824318e-08	5.325958e+01	1.196995e+03
1.470000e-06	7.877933e-06	1.828292e-08	5.363941e+01	1.198975e+03
1.480000e-06	7.930688e-06	1.831843e-08	5.399861e+01	1.201157e+03
1.490000e-06	7.980185e-06	1.835355e-08	5.433563e+01	1.203611e+03
1.500000e-06	8.026711e-06	1.839128e-08	5.465241e+01	1.206210e+03
1.510000e-06	8.070475e-06	1.842686e-08	5.495040e+01	1.208696e+03
1.520000e-06	8.111321e-06	1.845419e-08	5.522851e+01	1.210791e+03
1.530000e-06	8.149385e-06	1.847764e-08	5.548768e+01	1.212324e+03
1.540000e-06	8.184649e-06	1.850201e-08	5.572779e+01	1.213303e+03
1.550000e-06	8.216971e-06	1.852414e-08	5.594786e+01	1.213910e+03
1.560000e-06	8.246446e-06	1.853987e-08	5.614855e+01	1.214421e+03
1.570000e-06	8.272946e-06	1.855187e-08	5.632898e+01	1.215083e+03
1.580000e-06	8.296438e-06	1.856608e-08	5.648894e+01	1.216010e+03
1.590000e-06	8.317165e-06	1.858179e-08	5.663006e+01	1.217137e+03
1.600000e-06	8.335009e-06	1.859310e-08	5.675156e+01	1.218254e+03
1.610000e-06	8.349730e-06	1.860008e-08	5.685179e+01	1.219100e+03
1.620000e-06	8.361250e-06	1.860555e-08	5.693023e+01	1.219484e+03
1.630000e-06	8.369604e-06	1.861003e-08	5.698711e+01	1.219365e+03
1.640000e-06	8.375062e-06	1.861213e-08	5.702427e+01	1.218871e+03
1.650000e-06	8.377592e-06	1.861133e-08	5.704150e+01	1.218240e+03
1.660000e-06	8.377190e-06	1.860666e-08	5.703876e+01	1.217714e+03
1.670000e-06	8.374062e-06	1.859812e-08	5.701746e+01	1.217432e+03
1.680000e-06	8.368116e-06	1.859229e-08	5.697698e+01	1.217372e+03
1.690000e-06	8.359345e-06	1.858589e-08	5.691726e+01	1.217361e+03
1.700000e-06	8.347694e-06	1.857548e-08	5.683793e+01	1.217151e+03
1.710000e-06	8.333087e-06	1.856291e-08	5.673847e+01	1.216529e+03
1.720000e-06	8.315881e-06	1.855405e-08	5.662132e+01	1.215412e+03
1.730000e-06	8.296289e-06	1.853655e-08	5.648792e+01	1.213874e+03
1.740000e-06	8.273857e-06	1.847099e-08	5.633519e+01	1.212121e+03
1.750000e-06	8.247836e-06	1.842002e-08	5.615802e+01	1.210395e+03
1.760000e-06	8.217902e-06	1.840704e-08	5.595420e+01	1.208878e+03
1.770000e-06	8.184650e-06	1.840035e-08	5.572780e+01	1.207616e+03
1.780000e-06	8.148887e-06	1.841056e-08	5.548429e+01	1.206510e+03
1.790000e-06	8.110719e-06	1.842816e-08	5.522441e+01	1.205371e+03
1.800000e-06	8.070459e-06	1.839409e-08	5.495029e+01	1.204004e+03
1.810000e-06	8.028108e-06	1.832736e-08	5.466193e+01	1.202299e+03
1.820000e-06	7.982867e-06	1.833298e-08	5.435389e+01	1.200270e+03
1.830000e-06	7.934714e-06	1.829943e-08	5.402602e+01	1.198033e+03
1.840000e-06	7.883442e-06	1.827762e-08	5.367692e+01	1.195740e+03
1.850000e-06	7.828842e-06	1.826590e-08	5.330516e+01	1.193491e+03
1.860000e-06	7.771529e-06	1.823461e-08	5.291493e+01	1.191272e+03
1.870000e-06	7.711417e-06	1.823521e-08	5.250564e+01	1.188949e+03
1.880000e-06	7.648517e-06	1.814168e-08	5.207736e+01	1.186327e+03
1.890000e-06	7.582890e-06	1.808590e-08	5.163052e+01	1.183233e+03
1.900000e-06	7.514315e-06	1.801277e-08	5.116360e+01	1.179606e+03
1.910000e-06	7.442869e-06	1.794642e-08	5.067714e+01	1.175533e+03
1.920000e-06	7.368487e-06	1.792847e-08	5.017069e+01	1.171221e+03
1.930000e-06	7.291282e-06	1.785489e-08	4.964501e+01	1.166913e+03
1.940000e-06	7.211408e-06	1.782342e-08	4.910117e+01	1.162782e+03
1.950000e-06	7.129129e-06	1.773683e-08	4.854094e+01	1.158854e+03
1.960000e-06	7.044296e-06	1.766084e-08	4.796333e+01	1.154989e+03
1.970000e-06	6.956727e-06	1.756991e-08	4.736709e+01	1.150936e+03
1.980000e-06	6.866776e-06	1.747986e-08	4.675463e+01	1.146445e+03
1.990000e-06	6.774404e-06	1.743800e-08	4.612569e+01	1.141371e+03
2.000000e-06	6.679609e-06	1.735897e-08	4.548024e+01	1.135740e+03
2.010000e-06	6.582519e-06	1.728911e-08	4.481917e+01	1.129744e+03
2.020000e-06	6.483164e-06	1.717746e-08	4.414268e+01	1.123653e+03
2.030000e-06	6.381363e-06	1.709077e-08	4.344954e+01	1.117702e+03
2.040000e-06	6.277162e-06	1.699792e-08	4.274006e+01	1.111976e+03
2.050000e-06	6.170837e-06	1.690693e-08	4.201611e+01	1.106375e+03
2.060000e-06	6.062382e-06	1.681311e-08	4.127766e+01	1.100649e+03
2.070000e-06	5.951737e-06	1.670510e-08	4.052429e+01	1.094502e+03
2.080000e-06	5.838777e-06	1.660323e-08	3.975517e+01	1.087726e+03
2.090000e-06	5.723458e-06	1.648703e-08	3.896998e+01	1.080286e+03
2.100000e-06	5.605797e-06	1.637510e-08	3.816885e+01	1.072341e+03
2.110000e-06	5.486049e-06	1.625558e-08	3.735351e+01	1.064172e+03
2.120000e-06	5.364395e-06	1.614623e-08	3.652519e+01	1.056056e+03
2.130000e-06	5.240875e-06	1.602083e-08	3.568417e+01	1.048133e+03
2.140000e-06	5.115495e-06	1.588764e-08	3.483047e+01	1.040341e+03
2.150000e-06	4.988267e-06	1.574567e-08	3.396420e+01	1.032430e+03
2.160000e-06	4.859279e-06	1.561026e-08	3.308595e+01	1.024070e+03
2.170000e-06	4.728535e-06	1.547299e-08	3.219573e+01	1.014991e+03
2.180000e-06	4.596112e-06	1.533249e-08	3.129409e+01	1.005106e+03
2.190000e-06	4.462037e-06	1.518418e-08	3.038120e+01	9.945519e+02
2.200000e-06	4.326399e-06	1.502904e-08	2.945767e+01	9.836293e+02
2.210000e-06	4.189126e-06	1.486469e-08	2.852300e+01	9.726667e+02
2.220000e-06	4.050191e-06	1.469091e-08	2.757701e+01	9.618636e+02
2.230000e-06	3.909758e-06	1.451905e-08	2.662083e+01	9.511873e+02
2.240000e-06	3.767892e-06	1.434487e-08	2.565489e+01	9.403699e+02
2.250000e-06	3.624618e-06	1.416686e-08	2.467937e+01	9.290132e+02
2.260000e-06	3.480058e-06	1.397492e-08	2.369508e+01	9.167588e+02
2.270000e-06	3.334272e-06	1.377469e-08	2.270245e+01	9.034476e+02
2.280000e-06	3.187231e-06	1.356463e-08	2.170128e+01	8.891974e+02
2.290000e-06	3.039073e-06	1.335123e-08	2.069250e+01	8.743561e+02
2.300000e-06	2.889877e-06	1.313232e-08	1.967664e+01	8.593449e+02
2.310000e-06	2.739615e-06	1.291058e-08	1.865354e+01	8.444573e+02
2.320000e-06	2.588394e-06	1.268074e-08	1.762391e+01	8.297014e+02
2.330000e-06	2.436357e-06	1.243885e-08	1.658871e+01	8.147622e+02
2.340000e-06	2.283447e-06	1.218076e-08	1.554758e+01	7.991077e+02
2.350000e-06	2.129601e-06	1.190796e-08	1.450006e+01	7.822034e+02
2.360000e-06	1.974981e-06	1.162741e-08	1.344729e+01	7.637412e+02
2.370000e-06	1.819682e-06	1.134007e-08	1.238988e+01	7.437820e+02
2.380000e-06	1.663723e-06	1.104389e-08	1.132799e+01	7.227356e+02
2.390000e-06	1.507157e-06	1.073543e-08	1.026196e+01	7.011731e+02
2.400000e-06	1.350034e-06	1.041062e-08	9.192134e+00	6.795419e+02
2.410000e-06	1.192423e-06	1.006477e-08	8.118991e+00	6.579037e+02
2.420000e-06	1.034354e-06	9.700566e-09	7.042730e+00	6.358184e+02
2.430000e-06	8.759189e-07	9.316352e-09	5.963973e+00	6.124445e+02
2.440000e-06	7.171760e-07	8.910562e-09	4.883121e+00	5.868332e+02
2.450000e-06	5.581501e-07	8.482781e-09	3.800342e+00	5.583052e+02
2.460000e-06	3.989424e-07	8.034324e-09	2.716326e+00	5.267457e+02
2.470000e-06	2.396075e-07	7.558800e-09	1.631444e+00	4.926627e+02
2.480000e-06	8.021492e-08	7.044970e-09	5.461688e-01	4.569411e+02
2.490000e-06	-7.915021e-08	6.487244e-09	-5.389194e-01	4.203404e+02
2.500000e-06	-2.384844e-07	5.883708e-09	-1.623797e+00	3.829067e+02
2.510000e-06	-3.977206e-07	5.230532e-09	-2.708007e+00	3.435335e+02
2.520000e-06	-5.568056e-07	4.513975e-09	-3.791188e+00	2.998835e+02
2.530000e-06	-7.156774e-07	3.716755e-09	-4.872917e+00	2.487795e+02
2.540000e-06	-8.742234e-07	2.817325e-09	-5.952428e+00	1.870127e+02
2.550000e-06	-1.032435e-06	1.775468e-09	-7.029662e+00	1.123550e+02
2.560000e-06	-1.190297e-06	5.325885e-10	-8.104515e+00	2.446664e+01
2.570000e-06	-1.347695e-06	-9.578482e-10	-9.176209e+00	-7.460593e+01
2.580000e-06	-1.504610e-06	-2.664622e-09	-1.024462e+01	-1.805405e+02
2.590000e-06	-1.660953e-06	-4.433207e-09	-1.130913e+01	-2.874701e+02
2.600000e-06	-1.816685e-06	-6.057823e-09	-1.236948e+01	-3.891528e+02
2.610000e-06	-1.971824e-06	-7.416081e-09	-1.342579e+01	-4.802569e+02
2.620000e-06	-2.126174e-06	-8.508631e-09	-1.447673e+01	-5.573990e+02
2.630000e-06	-2.279621e-06	-9.392637e-09	-1.552153e+01	-6.196514e+02
2.640000e-06	-2.432212e-06	-1.012368e-08	-1.656049e+01	-6.684041e+02
2.650000e-06	-2.583964e-06	-1.074401e-08	-1.759374e+01	-7.066671e+02
2.660000e-06	-2.734785e-06	-1.128518e-08	-1.862066e+01	-7.380605e+02
2.670000e-06	-2.884604e-06	-1.176457e-08	-1.964074e+01	-7.658182e+02
2.680000e-06	-3.033447e-06	-1.219118e-08	-2.065419e+01	-7.920932e+02
2.690000e-06	-3.181253e-06	-1.257308e-08	-2.166057e+01	-8.177261e+02
2.700000e-06	-3.327894e-06	-1.291661e-08	-2.265902e+01	-8.424722e+02
2.710000e-06	-3.473303e-06	-1.323082e-08	-2.364909e+01	-8.655297e+02
2.720000e-06	-3.617447e-06	-1.352214e-08	-2.463054e+01	-8.861366e+02
2.730000e-06	-3.760272e-06	-1.379254e-08	-2.560301e+01	-9.040093e+02
2.740000e-06	-3.901701e-06	-1.404516e-08	-2.656597e+01	-9.194902e+02
2.750000e-06	-4.041687e-06	-1.428567e-08	-2.751911e+01	-9.333964e+02
2.760000e-06	-4.180128e-06	-1.451821e-08	-2.846173e+01	-9.466762e+02
2.770000e-06	-4.316915e-06	-1.474043e-08	-2.939309e+01	-9.600421e+02
2.780000e-06	-4.452128e-06	-1.494554e-08	-3.031373e+01	-9.737348e+02
2.790000e-06	-4.585773e-06	-1.513119e-08	-3.122369e+01	-9.875047e+02
2.800000e-06	-4.717766e-06	-1.530547e-08	-3.212241e+01	-1.000796e+03
2.810000e-06	-4.848079e-06	-1.547411e-08	-3.300969e+01	-1.013041e+03
2.820000e-06	-4.976690e-06	-1.563695e-08	-3.388538e+01	-1.023924e+03
2.830000e-06	-5.103588e-06	-1.579695e-08	-3.474940e+01	-1.033521e+03
2.840000e-06	-5.228728e-06	-1.595371e-08	-3.560146e+01	-1.042250e+03
2.850000e-06	-5.351981e-06	-1.610336e-08	-3.644066e+01	-1.050679e+03
2.860000e-06	-5.473253e-06	-1.624122e-08	-3.726639e+01	-1.059279e+03
2.870000e-06	-5.592509e-06	-1.636571e-08	-3.807838e+01	-1.068238e+03
2.880000e-06	-5.709670e-06	-1.648280e-08	-3.887610e+01	-1.077399e+03
2.890000e-06	-5.824563e-06	-1.659820e-08	-3.965839e+01	-1.086358e+03
2.900000e-06	-5.937067e-06	-1.671345e-08	-4.042441e+01	-1.094654e+03
2.910000e-06	-6.047306e-06	-1.682403e-08	-4.117501e+01	-1.101982e+03
2.920000e-06	-6.155395e-06	-1.692802e-08	-4.191096e+01	-1.108324e+03
2.930000e-06	-6.261374e-06	-1.702612e-08	-4.263256e+01	-1.113947e+03
2.940000e-06	-6.365144e-06	-1.711925e-08	-4.333911e+01	-1.119285e+03
