# Temperatura_=_71.12
# Concentracion g/m^3_=_13400.0
# C_Vs_to_Am_M_A/Vsm_=_65563218390.804596
# pendiente_HvsI_1/m_=_3716.3
# ordenada_HvsI_A/m_=_1297.0
# frecuencia_Hz_=_301440.95996281

Tiempo_(s)	Campo_(V.s)	Magnetizacion_(V.s)	Campo_(kA/m)	Magnetizacion_(A/m)
0.000000e+00	-8.347771e-06	-1.907088e-08	-5.691074e+01	-1.251686e+03
1.000000e-08	-8.345055e-06	-1.906666e-08	-5.689223e+01	-1.251404e+03
2.000000e-08	-8.339548e-06	-1.905884e-08	-5.685468e+01	-1.251386e+03
3.000000e-08	-8.331480e-06	-1.905433e-08	-5.679967e+01	-1.251435e+03
4.000000e-08	-8.320519e-06	-1.904945e-08	-5.672495e+01	-1.251267e+03
5.000000e-08	-8.306538e-06	-1.903737e-08	-5.662963e+01	-1.250640e+03
6.000000e-08	-8.289590e-06	-1.901860e-08	-5.651409e+01	-1.249455e+03
7.000000e-08	-8.269947e-06	-1.898991e-08	-5.638018e+01	-1.247797e+03
8.000000e-08	-8.247836e-06	-1.898036e-08	-5.622943e+01	-1.245901e+03
9.000000e-08	-8.222721e-06	-1.903420e-08	-5.605821e+01	-1.244043e+03
1.000000e-07	-8.194194e-06	-1.901420e-08	-5.586373e+01	-1.242428e+03
1.100000e-07	-8.162493e-06	-1.895158e-08	-5.564761e+01	-1.241106e+03
1.200000e-07	-8.127785e-06	-1.891409e-08	-5.541099e+01	-1.239957e+03
1.300000e-07	-8.090308e-06	-1.886707e-08	-5.515549e+01	-1.238751e+03
1.400000e-07	-8.050556e-06	-1.879015e-08	-5.488448e+01	-1.237253e+03
1.500000e-07	-8.008381e-06	-1.872358e-08	-5.459696e+01	-1.235324e+03
1.600000e-07	-7.963421e-06	-1.879389e-08	-5.429044e+01	-1.232973e+03
1.700000e-07	-7.915739e-06	-1.871621e-08	-5.396537e+01	-1.230338e+03
1.800000e-07	-7.865155e-06	-1.870105e-08	-5.362051e+01	-1.227608e+03
1.900000e-07	-7.811341e-06	-1.872250e-08	-5.325364e+01	-1.224922e+03
2.000000e-07	-7.754610e-06	-1.857292e-08	-5.286687e+01	-1.222297e+03
2.100000e-07	-7.695169e-06	-1.852351e-08	-5.246164e+01	-1.219611e+03
2.200000e-07	-7.632924e-06	-1.844176e-08	-5.203729e+01	-1.216657e+03
2.300000e-07	-7.567902e-06	-1.842531e-08	-5.159400e+01	-1.213245e+03
2.400000e-07	-7.500036e-06	-1.840900e-08	-5.113132e+01	-1.209292e+03
2.500000e-07	-7.429465e-06	-1.833146e-08	-5.065021e+01	-1.204872e+03
2.600000e-07	-7.356089e-06	-1.829694e-08	-5.014997e+01	-1.200195e+03
2.700000e-07	-7.279811e-06	-1.821719e-08	-4.962995e+01	-1.195515e+03
2.800000e-07	-7.200741e-06	-1.814523e-08	-4.909088e+01	-1.191018e+03
2.900000e-07	-7.118868e-06	-1.802599e-08	-4.853272e+01	-1.186736e+03
3.000000e-07	-7.034534e-06	-1.796602e-08	-4.795778e+01	-1.182525e+03
3.100000e-07	-6.947944e-06	-1.793478e-08	-4.736745e+01	-1.178118e+03
3.200000e-07	-6.858958e-06	-1.785530e-08	-4.676079e+01	-1.173246e+03
3.300000e-07	-6.767450e-06	-1.779211e-08	-4.613693e+01	-1.167750e+03
3.400000e-07	-6.673528e-06	-1.767524e-08	-4.549663e+01	-1.161659e+03
3.500000e-07	-6.577272e-06	-1.758550e-08	-4.484040e+01	-1.155178e+03
3.600000e-07	-6.478553e-06	-1.749300e-08	-4.416739e+01	-1.148602e+03
3.700000e-07	-6.377417e-06	-1.740019e-08	-4.347789e+01	-1.142188e+03
3.800000e-07	-6.274027e-06	-1.730145e-08	-4.277304e+01	-1.136033e+03
3.900000e-07	-6.168324e-06	-1.720861e-08	-4.205241e+01	-1.130030e+03
4.000000e-07	-6.060367e-06	-1.712641e-08	-4.131642e+01	-1.123906e+03
4.100000e-07	-5.950349e-06	-1.700596e-08	-4.056637e+01	-1.117336e+03
4.200000e-07	-5.838171e-06	-1.688689e-08	-3.980160e+01	-1.110087e+03
4.300000e-07	-5.723648e-06	-1.676267e-08	-3.902084e+01	-1.102118e+03
4.400000e-07	-5.606838e-06	-1.666044e-08	-3.822449e+01	-1.093601e+03
4.500000e-07	-5.488011e-06	-1.655047e-08	-3.741439e+01	-1.084846e+03
4.600000e-07	-5.367192e-06	-1.643068e-08	-3.659071e+01	-1.076160e+03
4.700000e-07	-5.244339e-06	-1.628995e-08	-3.575316e+01	-1.067707e+03
4.800000e-07	-5.119623e-06	-1.614457e-08	-3.490291e+01	-1.059427e+03
4.900000e-07	-4.993156e-06	-1.600625e-08	-3.404073e+01	-1.051053e+03
5.000000e-07	-4.864866e-06	-1.585751e-08	-3.316611e+01	-1.042220e+03
5.100000e-07	-4.734748e-06	-1.570638e-08	-3.227904e+01	-1.032631e+03
5.200000e-07	-4.602880e-06	-1.555845e-08	-3.138003e+01	-1.022183e+03
5.300000e-07	-4.469382e-06	-1.542326e-08	-3.046991e+01	-1.011020e+03
5.400000e-07	-4.334356e-06	-1.526983e-08	-2.954938e+01	-9.994720e+02
5.500000e-07	-4.197802e-06	-1.508941e-08	-2.861842e+01	-9.879031e+02
5.600000e-07	-4.059640e-06	-1.489702e-08	-2.767651e+01	-9.765430e+02
5.700000e-07	-3.919856e-06	-1.471303e-08	-2.672353e+01	-9.653681e+02
5.800000e-07	-3.778498e-06	-1.453336e-08	-2.575982e+01	-9.540948e+02
5.900000e-07	-3.635570e-06	-1.434246e-08	-2.478541e+01	-9.422905e+02
6.000000e-07	-3.491189e-06	-1.414386e-08	-2.380110e+01	-9.295586e+02
6.100000e-07	-3.345550e-06	-1.394483e-08	-2.280821e+01	-9.157154e+02
6.200000e-07	-3.198805e-06	-1.374600e-08	-2.180778e+01	-9.008795e+02
6.300000e-07	-3.050957e-06	-1.352935e-08	-2.079983e+01	-8.854256e+02
6.400000e-07	-2.902046e-06	-1.328973e-08	-1.978463e+01	-8.698168e+02
6.500000e-07	-2.752227e-06	-1.304188e-08	-1.876325e+01	-8.543852e+02
6.600000e-07	-2.601493e-06	-1.279632e-08	-1.773562e+01	-8.391565e+02
6.700000e-07	-2.449763e-06	-1.254662e-08	-1.670120e+01	-8.238027e+02
6.800000e-07	-2.297133e-06	-1.228433e-08	-1.566065e+01	-8.077528e+02
6.900000e-07	-2.143641e-06	-1.201304e-08	-1.461422e+01	-7.904236e+02
7.000000e-07	-1.989309e-06	-1.173622e-08	-1.356207e+01	-7.714710e+02
7.100000e-07	-1.834264e-06	-1.145034e-08	-1.250505e+01	-7.509504e+02
7.200000e-07	-1.678554e-06	-1.114479e-08	-1.144350e+01	-7.293028e+02
7.300000e-07	-1.522215e-06	-1.081882e-08	-1.037766e+01	-7.071562e+02
7.400000e-07	-1.365315e-06	-1.047723e-08	-9.308007e+00	-6.850184e+02
7.500000e-07	-1.207953e-06	-1.012331e-08	-8.235192e+00	-6.629879e+02
7.600000e-07	-1.050244e-06	-9.752106e-09	-7.160012e+00	-6.406199e+02
7.700000e-07	-8.921926e-07	-9.362429e-09	-6.082503e+00	-6.170248e+02
7.800000e-07	-7.338282e-07	-8.957626e-09	-5.002857e+00	-5.911796e+02
7.900000e-07	-5.752050e-07	-8.531788e-09	-3.921447e+00	-5.623352e+02
8.000000e-07	-4.163558e-07	-8.077834e-09	-2.838496e+00	-5.303418e+02
8.100000e-07	-2.573456e-07	-7.586508e-09	-1.754447e+00	-4.957256e+02
8.200000e-07	-9.822209e-08	-7.057563e-09	-6.696268e-01	-4.594378e+02
8.300000e-07	6.096230e-08	-6.492614e-09	4.156091e-01	-4.223250e+02
8.400000e-07	2.201198e-07	-5.886556e-09	1.500662e+00	-3.844997e+02
8.500000e-07	3.791360e-07	-5.226262e-09	2.584751e+00	-3.448605e+02
8.600000e-07	5.379709e-07	-4.498524e-09	3.667604e+00	-3.009934e+02
8.700000e-07	6.966168e-07	-3.691483e-09	4.749169e+00	-2.495717e+02
8.800000e-07	8.549940e-07	-2.778450e-09	5.828902e+00	-1.872035e+02
8.900000e-07	1.013033e-06	-1.715313e-09	6.906332e+00	-1.115029e+02
9.000000e-07	1.170708e-06	-4.379633e-10	7.981275e+00	-2.205659e+01
9.100000e-07	1.328025e-06	1.098388e-09	9.053777e+00	7.904165e+01
9.200000e-07	1.484948e-06	2.852063e-09	1.012360e+01	1.872999e+02
9.300000e-07	1.641340e-06	4.652155e-09	1.118980e+01	2.965969e+02
9.400000e-07	1.797142e-06	6.284858e-09	1.225198e+01	4.004176e+02
9.500000e-07	1.952294e-06	7.636014e-09	1.330972e+01	4.932110e+02
9.600000e-07	2.106646e-06	8.714993e-09	1.436201e+01	5.714849e+02
9.700000e-07	2.260225e-06	9.585496e-09	1.540903e+01	6.343361e+02
9.800000e-07	2.413039e-06	1.030426e-08	1.645084e+01	6.832939e+02
9.900000e-07	2.564932e-06	1.091411e-08	1.748636e+01	7.215712e+02
1.000000e-06	2.715806e-06	1.144548e-08	1.851495e+01	7.529896e+02
1.010000e-06	2.865667e-06	1.191465e-08	1.953662e+01	7.809247e+02
1.020000e-06	3.014558e-06	1.233638e-08	2.055168e+01	8.075804e+02
1.030000e-06	3.162464e-06	1.271994e-08	2.156002e+01	8.337601e+02
1.040000e-06	3.309244e-06	1.307024e-08	2.256069e+01	8.591252e+02
1.050000e-06	3.454811e-06	1.339127e-08	2.355309e+01	8.827717e+02
1.060000e-06	3.599108e-06	1.368885e-08	2.453684e+01	9.038690e+02
1.070000e-06	3.742069e-06	1.396545e-08	2.551147e+01	9.221229e+02
1.080000e-06	3.883676e-06	1.422303e-08	2.647687e+01	9.379206e+02
1.090000e-06	4.023790e-06	1.446754e-08	2.743209e+01	9.521545e+02
1.100000e-06	4.162343e-06	1.470126e-08	2.837668e+01	9.658434e+02
1.110000e-06	4.299360e-06	1.492278e-08	2.931079e+01	9.797353e+02
1.120000e-06	4.434722e-06	1.513426e-08	3.023362e+01	9.940577e+02
1.130000e-06	4.568496e-06	1.533462e-08	3.114562e+01	1.008507e+03
1.140000e-06	4.700712e-06	1.552293e-08	3.204700e+01	1.022457e+03
1.150000e-06	4.831243e-06	1.570365e-08	3.293689e+01	1.035281e+03
1.160000e-06	4.960010e-06	1.587616e-08	3.381476e+01	1.046642e+03
1.170000e-06	5.086982e-06	1.604124e-08	3.468039e+01	1.056637e+03
1.180000e-06	5.212223e-06	1.619853e-08	3.553421e+01	1.065735e+03
1.190000e-06	5.335633e-06	1.635102e-08	3.637556e+01	1.074564e+03
1.200000e-06	5.457124e-06	1.649935e-08	3.720382e+01	1.083640e+03
1.210000e-06	5.576623e-06	1.664290e-08	3.801850e+01	1.093159e+03
1.220000e-06	5.693996e-06	1.678090e-08	3.881869e+01	1.102940e+03
1.230000e-06	5.809207e-06	1.691373e-08	3.960413e+01	1.112528e+03
1.240000e-06	5.922182e-06	1.703985e-08	4.037434e+01	1.121415e+03
1.250000e-06	6.032981e-06	1.715828e-08	4.112971e+01	1.129264e+03
1.260000e-06	6.141701e-06	1.727113e-08	4.187091e+01	1.136054e+03
1.270000e-06	6.248249e-06	1.738046e-08	4.259730e+01	1.142077e+03
1.280000e-06	6.352539e-06	1.748533e-08	4.330829e+01	1.147806e+03
1.290000e-06	6.454578e-06	1.758341e-08	4.400394e+01	1.153687e+03
1.300000e-06	6.554304e-06	1.767713e-08	4.468381e+01	1.159954e+03
1.310000e-06	6.651590e-06	1.776724e-08	4.534706e+01	1.166545e+03
1.320000e-06	6.746529e-06	1.785470e-08	4.599431e+01	1.173149e+03
1.330000e-06	6.839146e-06	1.793892e-08	4.662572e+01	1.179356e+03
1.340000e-06	6.929309e-06	1.801888e-08	4.724041e+01	1.184847e+03
1.350000e-06	7.016989e-06	1.809523e-08	4.783816e+01	1.189531e+03
1.360000e-06	7.102241e-06	1.816845e-08	4.841936e+01	1.193581e+03
1.370000e-06	7.185080e-06	1.823720e-08	4.898412e+01	1.197351e+03
1.380000e-06	7.265325e-06	1.830105e-08	4.953119e+01	1.201215e+03
1.390000e-06	7.342831e-06	1.836644e-08	5.005958e+01	1.205408e+03
1.400000e-06	7.417579e-06	1.843307e-08	5.056918e+01	1.209925e+03
1.410000e-06	7.489633e-06	1.849453e-08	5.106040e+01	1.214535e+03
1.420000e-06	7.559054e-06	1.855000e-08	5.153368e+01	1.218889e+03
1.430000e-06	7.625771e-06	1.860404e-08	5.198852e+01	1.222678e+03
1.440000e-06	7.689751e-06	1.865633e-08	5.242470e+01	1.225768e+03
1.450000e-06	7.751093e-06	1.870481e-08	5.284290e+01	1.228257e+03
1.460000e-06	7.809702e-06	1.875065e-08	5.324247e+01	1.230428e+03
1.470000e-06	7.865457e-06	1.879446e-08	5.362257e+01	1.232618e+03
1.480000e-06	7.918231e-06	1.883826e-08	5.398236e+01	1.235069e+03
1.490000e-06	7.967789e-06	1.888133e-08	5.432022e+01	1.237828e+03
1.500000e-06	8.014365e-06	1.892121e-08	5.463775e+01	1.240725e+03
1.510000e-06	8.058208e-06	1.895333e-08	5.493665e+01	1.243456e+03
1.520000e-06	8.099170e-06	1.897825e-08	5.521591e+01	1.245716e+03
1.530000e-06	8.137298e-06	1.900376e-08	5.547584e+01	1.247335e+03
1.540000e-06	8.172617e-06	1.903334e-08	5.571663e+01	1.248352e+03
1.550000e-06	8.205011e-06	1.906037e-08	5.593748e+01	1.248993e+03
1.560000e-06	8.234587e-06	1.908015e-08	5.613911e+01	1.249575e+03
1.570000e-06	8.261258e-06	1.909654e-08	5.632094e+01	1.250363e+03
1.580000e-06	8.284921e-06	1.911367e-08	5.648226e+01	1.251461e+03
1.590000e-06	8.305769e-06	1.913026e-08	5.662439e+01	1.252769e+03
1.600000e-06	8.323750e-06	1.914025e-08	5.674698e+01	1.254030e+03
1.610000e-06	8.338658e-06	1.914534e-08	5.684861e+01	1.254951e+03
1.620000e-06	8.350326e-06	1.915202e-08	5.692816e+01	1.255330e+03
1.630000e-06	8.358759e-06	1.916070e-08	5.698565e+01	1.255145e+03
1.640000e-06	8.364307e-06	1.916545e-08	5.702347e+01	1.254563e+03
1.650000e-06	8.366951e-06	1.916393e-08	5.704150e+01	1.253864e+03
1.660000e-06	8.366633e-06	1.916081e-08	5.703933e+01	1.253318e+03
1.670000e-06	8.363617e-06	1.915294e-08	5.701877e+01	1.253069e+03
1.680000e-06	8.357752e-06	1.914880e-08	5.697878e+01	1.253069e+03
1.690000e-06	8.349038e-06	1.913846e-08	5.691938e+01	1.253108e+03
1.700000e-06	8.337497e-06	1.912318e-08	5.684070e+01	1.252900e+03
1.710000e-06	8.323007e-06	1.911410e-08	5.674191e+01	1.252214e+03
1.720000e-06	8.305939e-06	1.911314e-08	5.662555e+01	1.250970e+03
1.730000e-06	8.286489e-06	1.910913e-08	5.649295e+01	1.249273e+03
1.740000e-06	8.264212e-06	1.900084e-08	5.634108e+01	1.247367e+03
1.750000e-06	8.238416e-06	1.894743e-08	5.616521e+01	1.245527e+03
1.760000e-06	8.208666e-06	1.896287e-08	5.596239e+01	1.243944e+03
1.770000e-06	8.175524e-06	1.894641e-08	5.573645e+01	1.242648e+03
1.780000e-06	8.139867e-06	1.893959e-08	5.549336e+01	1.241504e+03
1.790000e-06	8.101844e-06	1.899119e-08	5.523414e+01	1.240276e+03
1.800000e-06	8.061751e-06	1.894877e-08	5.496080e+01	1.238736e+03
1.810000e-06	8.019561e-06	1.883330e-08	5.467317e+01	1.236758e+03
1.820000e-06	7.974413e-06	1.889199e-08	5.436538e+01	1.234367e+03
1.830000e-06	7.926378e-06	1.878847e-08	5.403790e+01	1.231712e+03
1.840000e-06	7.875283e-06	1.879977e-08	5.368956e+01	1.228981e+03
1.850000e-06	7.820820e-06	1.879815e-08	5.331826e+01	1.226303e+03
1.860000e-06	7.763664e-06	1.870173e-08	5.292860e+01	1.223678e+03
1.870000e-06	7.703701e-06	1.877140e-08	5.251981e+01	1.220973e+03
1.880000e-06	7.640985e-06	1.859933e-08	5.209224e+01	1.217978e+03
1.890000e-06	7.575565e-06	1.855002e-08	5.164624e+01	1.214508e+03
1.900000e-06	7.507201e-06	1.848254e-08	5.118017e+01	1.210498e+03
1.910000e-06	7.436019e-06	1.837560e-08	5.069489e+01	1.206038e+03
1.920000e-06	7.361931e-06	1.839069e-08	5.018980e+01	1.201348e+03
1.930000e-06	7.285029e-06	1.830056e-08	4.966552e+01	1.196680e+03
1.940000e-06	7.205410e-06	1.831011e-08	4.912271e+01	1.192208e+03
1.950000e-06	7.123318e-06	1.818080e-08	4.856306e+01	1.187942e+03
1.960000e-06	7.038684e-06	1.809748e-08	4.798607e+01	1.183723e+03
1.970000e-06	6.951321e-06	1.799786e-08	4.739047e+01	1.179278e+03
1.980000e-06	6.861564e-06	1.787022e-08	4.677855e+01	1.174343e+03
1.990000e-06	6.769362e-06	1.784877e-08	4.614997e+01	1.168777e+03
2.000000e-06	6.674757e-06	1.775547e-08	4.550501e+01	1.162631e+03
2.010000e-06	6.577884e-06	1.771194e-08	4.484457e+01	1.156124e+03
2.020000e-06	6.478759e-06	1.758644e-08	4.416879e+01	1.149555e+03
2.030000e-06	6.377166e-06	1.749837e-08	4.347618e+01	1.143166e+03
2.040000e-06	6.273145e-06	1.737193e-08	4.276702e+01	1.137036e+03
2.050000e-06	6.167064e-06	1.726690e-08	4.204382e+01	1.131035e+03
2.060000e-06	6.058798e-06	1.716243e-08	4.130572e+01	1.124877e+03
2.070000e-06	5.948339e-06	1.705366e-08	4.055266e+01	1.118242e+03
2.080000e-06	5.835676e-06	1.696201e-08	3.978459e+01	1.110913e+03
2.090000e-06	5.720690e-06	1.683797e-08	3.900067e+01	1.102873e+03
2.100000e-06	5.603284e-06	1.673061e-08	3.820026e+01	1.094314e+03
2.110000e-06	5.483773e-06	1.657857e-08	3.738550e+01	1.085552e+03
2.120000e-06	5.362414e-06	1.645951e-08	3.655813e+01	1.076886e+03
2.130000e-06	5.239172e-06	1.631313e-08	3.571794e+01	1.068458e+03
2.140000e-06	5.113992e-06	1.618909e-08	3.486452e+01	1.060183e+03
2.150000e-06	4.986933e-06	1.604816e-08	3.399830e+01	1.051776e+03
2.160000e-06	4.858201e-06	1.590609e-08	3.312067e+01	1.042874e+03
2.170000e-06	4.727801e-06	1.575923e-08	3.223167e+01	1.033193e+03
2.180000e-06	4.595690e-06	1.559730e-08	3.133101e+01	1.022656e+03
2.190000e-06	4.461843e-06	1.543559e-08	3.041851e+01	1.011434e+03
2.200000e-06	4.326382e-06	1.526649e-08	2.949501e+01	9.998659e+02
2.210000e-06	4.189363e-06	1.510134e-08	2.856089e+01	9.883114e+02
2.220000e-06	4.050749e-06	1.493026e-08	2.761589e+01	9.769765e+02
2.230000e-06	3.910500e-06	1.475156e-08	2.665974e+01	9.658078e+02
2.240000e-06	3.768767e-06	1.455808e-08	2.569348e+01	9.544986e+02
2.250000e-06	3.625666e-06	1.436315e-08	2.471789e+01	9.426107e+02
2.260000e-06	3.481306e-06	1.416113e-08	2.373372e+01	9.297627e+02
2.270000e-06	3.335750e-06	1.395683e-08	2.274140e+01	9.158014e+02
2.280000e-06	3.189016e-06	1.373953e-08	2.174105e+01	9.008773e+02
2.290000e-06	3.041192e-06	1.352269e-08	2.073326e+01	8.853843e+02
2.300000e-06	2.892248e-06	1.329687e-08	1.971784e+01	8.697822e+02
2.310000e-06	2.742229e-06	1.306409e-08	1.869509e+01	8.543768e+02
2.320000e-06	2.591204e-06	1.282029e-08	1.766547e+01	8.391554e+02
2.330000e-06	2.439268e-06	1.256840e-08	1.662965e+01	8.237560e+02
2.340000e-06	2.286555e-06	1.230686e-08	1.558854e+01	8.075940e+02
2.350000e-06	2.133057e-06	1.202843e-08	1.454207e+01	7.901003e+02
2.360000e-06	1.978702e-06	1.173684e-08	1.348975e+01	7.709687e+02
2.370000e-06	1.823582e-06	1.143880e-08	1.243223e+01	7.503000e+02
2.380000e-06	1.667835e-06	1.113354e-08	1.137042e+01	7.285675e+02
2.390000e-06	1.511552e-06	1.081602e-08	1.030497e+01	7.064020e+02
2.400000e-06	1.354740e-06	1.048228e-08	9.235907e+00	6.842794e+02
2.410000e-06	1.197363e-06	1.013109e-08	8.162993e+00	6.622428e+02
2.420000e-06	1.039512e-06	9.761939e-09	7.086851e+00	6.397908e+02
2.430000e-06	8.813223e-07	9.368833e-09	6.008395e+00	6.160014e+02
2.440000e-06	7.227786e-07	8.952843e-09	4.927527e+00	5.898614e+02
2.450000e-06	5.639086e-07	8.515455e-09	3.844434e+00	5.606737e+02
2.460000e-06	4.048143e-07	8.059076e-09	2.759812e+00	5.283626e+02
2.470000e-06	2.456084e-07	7.574464e-09	1.674430e+00	4.935177e+02
2.480000e-06	8.635449e-08	7.050445e-09	5.887198e-01	4.571081e+02
2.490000e-06	-7.291424e-08	6.482350e-09	-4.970912e-01	4.199313e+02
2.500000e-06	-2.321085e-07	5.867990e-09	-1.582394e+00	3.819876e+02
2.510000e-06	-3.912004e-07	5.201802e-09	-2.667000e+00	3.420314e+02
2.520000e-06	-5.501703e-07	4.469837e-09	-3.750774e+00	2.975227e+02
2.530000e-06	-7.089096e-07	3.654366e-09	-4.832975e+00	2.450811e+02
2.540000e-06	-8.673180e-07	2.734024e-09	-5.912921e+00	1.813701e+02
2.550000e-06	-1.025388e-06	1.662878e-09	-6.990560e+00	1.041739e+02
2.560000e-06	-1.183050e-06	3.780846e-10	-8.065416e+00	1.333262e+01
2.570000e-06	-1.340185e-06	-1.167974e-09	-9.136681e+00	-8.878566e+01
2.580000e-06	-1.496779e-06	-2.934131e-09	-1.020426e+01	-1.974671e+02
2.590000e-06	-1.652892e-06	-4.745162e-09	-1.126855e+01	-3.064838e+02
2.600000e-06	-1.808516e-06	-6.384147e-09	-1.232952e+01	-4.093604e+02
2.610000e-06	-1.963475e-06	-7.732855e-09	-1.338595e+01	-5.007223e+02
2.620000e-06	-2.117580e-06	-8.807229e-09	-1.443655e+01	-5.773411e+02
2.630000e-06	-2.270826e-06	-9.675470e-09	-1.548130e+01	-6.385936e+02
2.640000e-06	-2.423250e-06	-1.039698e-08	-1.652045e+01	-6.862339e+02
2.650000e-06	-2.574881e-06	-1.101157e-08	-1.755419e+01	-7.235940e+02
2.660000e-06	-2.725629e-06	-1.154758e-08	-1.858192e+01	-7.544946e+02
2.670000e-06	-2.875318e-06	-1.202562e-08	-1.960241e+01	-7.822127e+02
2.680000e-06	-3.023945e-06	-1.245509e-08	-2.061567e+01	-8.088035e+02
2.690000e-06	-3.171559e-06	-1.284098e-08	-2.162203e+01	-8.349283e+02
2.700000e-06	-3.318009e-06	-1.318844e-08	-2.262045e+01	-8.601571e+02
2.710000e-06	-3.463184e-06	-1.350720e-08	-2.361018e+01	-8.835644e+02
2.720000e-06	-3.607170e-06	-1.380398e-08	-2.459180e+01	-9.043598e+02
2.730000e-06	-3.749891e-06	-1.407805e-08	-2.556480e+01	-9.223213e+02
2.740000e-06	-3.891177e-06	-1.433460e-08	-2.652801e+01	-9.379037e+02
2.750000e-06	-4.031021e-06	-1.458027e-08	-2.748139e+01	-9.520329e+02
2.760000e-06	-4.169264e-06	-1.481658e-08	-2.842386e+01	-9.657165e+02
2.770000e-06	-4.305906e-06	-1.504334e-08	-2.935541e+01	-9.796545e+02
2.780000e-06	-4.441069e-06	-1.525706e-08	-3.027688e+01	-9.940138e+02
2.790000e-06	-4.574595e-06	-1.545339e-08	-3.118720e+01	-1.008443e+03
2.800000e-06	-4.706455e-06	-1.563723e-08	-3.208615e+01	-1.022300e+03
2.810000e-06	-4.836654e-06	-1.581256e-08	-3.297378e+01	-1.034977e+03
2.820000e-06	-4.965173e-06	-1.598091e-08	-3.384996e+01	-1.046180e+03
2.830000e-06	-5.091981e-06	-1.614531e-08	-3.471446e+01	-1.056053e+03
2.840000e-06	-5.216974e-06	-1.630401e-08	-3.556660e+01	-1.065092e+03
2.850000e-06	-5.340095e-06	-1.645820e-08	-3.640597e+01	-1.073928e+03
2.860000e-06	-5.461297e-06	-1.660633e-08	-3.723227e+01	-1.083049e+03
2.870000e-06	-5.580549e-06	-1.674544e-08	-3.804527e+01	-1.092612e+03
2.880000e-06	-5.697670e-06	-1.687467e-08	-3.884373e+01	-1.102398e+03
2.890000e-06	-5.812445e-06	-1.699542e-08	-3.962621e+01	-1.111935e+03
2.900000e-06	-5.924864e-06	-1.711472e-08	-4.039262e+01	-1.120723e+03
2.910000e-06	-6.035026e-06	-1.723134e-08	-4.114365e+01	-1.128454e+03
2.920000e-06	-6.143044e-06	-1.733954e-08	-4.188006e+01	-1.135143e+03
2.930000e-06	-6.248984e-06	-1.744076e-08	-4.260231e+01	-1.141112e+03
2.940000e-06	-6.352728e-06	-1.754081e-08	-4.330957e+01	-1.146839e+03
