# Temperatura_=_62.99
# Concentracion g/m^3_=_13400.0
# C_Vs_to_Am_M_A/Vsm_=_65563218390.804596
# pendiente_HvsI_1/m_=_3716.3
# ordenada_HvsI_A/m_=_1297.0
# frecuencia_Hz_=_301430.1062420127

Tiempo_(s)	Campo_(V.s)	Magnetizacion_(V.s)	Campo_(kA/m)	Magnetizacion_(A/m)
0.000000e+00	-8.264432e-06	-1.854130e-08	-5.691510e+01	-1.215386e+03
1.000000e-08	-8.261208e-06	-1.853964e-08	-5.689290e+01	-1.215110e+03
2.000000e-08	-8.255326e-06	-1.853087e-08	-5.685239e+01	-1.215034e+03
3.000000e-08	-8.246851e-06	-1.852365e-08	-5.679402e+01	-1.214985e+03
4.000000e-08	-8.235470e-06	-1.851401e-08	-5.671565e+01	-1.214724e+03
5.000000e-08	-8.221107e-06	-1.849894e-08	-5.661674e+01	-1.214049e+03
6.000000e-08	-8.203818e-06	-1.847368e-08	-5.649767e+01	-1.212887e+03
7.000000e-08	-8.183945e-06	-1.843481e-08	-5.636081e+01	-1.211323e+03
8.000000e-08	-8.161627e-06	-1.844022e-08	-5.620711e+01	-1.209564e+03
9.000000e-08	-8.136282e-06	-1.850711e-08	-5.603257e+01	-1.207851e+03
1.000000e-07	-8.107546e-06	-1.847889e-08	-5.583466e+01	-1.206357e+03
1.100000e-07	-8.075682e-06	-1.841658e-08	-5.561522e+01	-1.205116e+03
1.200000e-07	-8.040867e-06	-1.838534e-08	-5.537546e+01	-1.204014e+03
1.300000e-07	-8.003319e-06	-1.833646e-08	-5.511688e+01	-1.202842e+03
1.400000e-07	-7.963508e-06	-1.823380e-08	-5.484271e+01	-1.201396e+03
1.500000e-07	-7.921315e-06	-1.820657e-08	-5.455214e+01	-1.199559e+03
1.600000e-07	-7.876339e-06	-1.828489e-08	-5.424240e+01	-1.197349e+03
1.700000e-07	-7.828631e-06	-1.815448e-08	-5.391385e+01	-1.194899e+03
1.800000e-07	-7.778026e-06	-1.820123e-08	-5.356535e+01	-1.192383e+03
1.900000e-07	-7.724240e-06	-1.820175e-08	-5.319494e+01	-1.189928e+03
2.000000e-07	-7.667659e-06	-1.805338e-08	-5.280528e+01	-1.187543e+03
2.100000e-07	-7.608376e-06	-1.802771e-08	-5.239701e+01	-1.185109e+03
2.200000e-07	-7.546331e-06	-1.792269e-08	-5.196971e+01	-1.182429e+03
2.300000e-07	-7.481596e-06	-1.793302e-08	-5.152390e+01	-1.179319e+03
2.400000e-07	-7.414036e-06	-1.787978e-08	-5.105864e+01	-1.175695e+03
2.500000e-07	-7.343766e-06	-1.781596e-08	-5.057470e+01	-1.171624e+03
2.600000e-07	-7.270719e-06	-1.778847e-08	-5.007165e+01	-1.167295e+03
2.700000e-07	-7.194777e-06	-1.771664e-08	-4.954865e+01	-1.162948e+03
2.800000e-07	-7.116046e-06	-1.766205e-08	-4.900645e+01	-1.158765e+03
2.900000e-07	-7.034506e-06	-1.755372e-08	-4.844491e+01	-1.154789e+03
3.000000e-07	-6.950488e-06	-1.751601e-08	-4.786629e+01	-1.150896e+03
3.100000e-07	-6.864283e-06	-1.745245e-08	-4.727262e+01	-1.146849e+03
3.200000e-07	-6.775748e-06	-1.737489e-08	-4.666290e+01	-1.142392e+03
3.300000e-07	-6.684689e-06	-1.731354e-08	-4.603580e+01	-1.137368e+03
3.400000e-07	-6.591215e-06	-1.720136e-08	-4.539207e+01	-1.131782e+03
3.500000e-07	-6.495489e-06	-1.714012e-08	-4.473283e+01	-1.125804e+03
3.600000e-07	-6.397355e-06	-1.706774e-08	-4.405700e+01	-1.119693e+03
3.700000e-07	-6.296826e-06	-1.698594e-08	-4.336469e+01	-1.113682e+03
3.800000e-07	-6.194082e-06	-1.687999e-08	-4.265711e+01	-1.107876e+03
3.900000e-07	-6.089115e-06	-1.678432e-08	-4.193423e+01	-1.102193e+03
4.000000e-07	-5.981875e-06	-1.669125e-08	-4.119569e+01	-1.096405e+03
4.100000e-07	-5.872520e-06	-1.657628e-08	-4.044259e+01	-1.090227e+03
4.200000e-07	-5.761170e-06	-1.647531e-08	-3.967576e+01	-1.083449e+03
4.300000e-07	-5.647637e-06	-1.636939e-08	-3.889388e+01	-1.076022e+03
4.400000e-07	-5.531701e-06	-1.628317e-08	-3.809546e+01	-1.068086e+03
4.500000e-07	-5.413595e-06	-1.618078e-08	-3.728209e+01	-1.059906e+03
4.600000e-07	-5.293654e-06	-1.605579e-08	-3.645608e+01	-1.051749e+03
4.700000e-07	-5.171820e-06	-1.591189e-08	-3.561705e+01	-1.043763e+03
4.800000e-07	-5.047996e-06	-1.577397e-08	-3.476430e+01	-1.035901e+03
4.900000e-07	-4.922335e-06	-1.564703e-08	-3.389890e+01	-1.027932e+03
5.000000e-07	-4.795017e-06	-1.551183e-08	-3.302210e+01	-1.019538e+03
5.100000e-07	-4.665991e-06	-1.537156e-08	-3.213353e+01	-1.010450e+03
5.200000e-07	-4.535184e-06	-1.523254e-08	-3.123269e+01	-1.000573e+03
5.300000e-07	-4.402749e-06	-1.509694e-08	-3.032064e+01	-9.900257e+02
5.400000e-07	-4.268798e-06	-1.494287e-08	-2.939815e+01	-9.790912e+02
5.500000e-07	-4.133333e-06	-1.476897e-08	-2.846524e+01	-9.680900e+02
5.600000e-07	-3.996382e-06	-1.459348e-08	-2.752209e+01	-9.572263e+02
5.700000e-07	-3.857909e-06	-1.442337e-08	-2.656846e+01	-9.464832e+02
5.800000e-07	-3.717873e-06	-1.424634e-08	-2.560408e+01	-9.356138e+02
5.900000e-07	-3.576303e-06	-1.405185e-08	-2.462912e+01	-9.242370e+02
6.000000e-07	-3.433324e-06	-1.385522e-08	-2.364445e+01	-9.119995e+02
6.100000e-07	-3.289008e-06	-1.366816e-08	-2.265058e+01	-8.987336e+02
6.200000e-07	-3.143378e-06	-1.348279e-08	-2.164767e+01	-8.845375e+02
6.300000e-07	-2.996568e-06	-1.327684e-08	-2.063662e+01	-8.697370e+02
6.400000e-07	-2.848799e-06	-1.304778e-08	-1.961897e+01	-8.547387e+02
6.500000e-07	-2.700179e-06	-1.281385e-08	-1.859547e+01	-8.398348e+02
6.600000e-07	-2.550724e-06	-1.257611e-08	-1.756621e+01	-8.250469e+02
6.700000e-07	-2.400423e-06	-1.232735e-08	-1.653112e+01	-8.100819e+02
6.800000e-07	-2.249242e-06	-1.206520e-08	-1.548997e+01	-7.944294e+02
6.900000e-07	-2.097256e-06	-1.180285e-08	-1.444328e+01	-7.775656e+02
7.000000e-07	-1.944529e-06	-1.154092e-08	-1.339149e+01	-7.591796e+02
7.100000e-07	-1.791016e-06	-1.126638e-08	-1.233429e+01	-7.393162e+02
7.200000e-07	-1.636786e-06	-1.096625e-08	-1.127214e+01	-7.183656e+02
7.300000e-07	-1.482049e-06	-1.064496e-08	-1.020650e+01	-6.968858e+02
7.400000e-07	-1.326783e-06	-1.031282e-08	-9.137224e+00	-6.753256e+02
7.500000e-07	-1.170934e-06	-9.968561e-09	-8.063934e+00	-6.537638e+02
7.600000e-07	-1.014564e-06	-9.607019e-09	-6.987053e+00	-6.317864e+02
7.700000e-07	-8.577542e-07	-9.226458e-09	-5.907141e+00	-6.085743e+02
7.800000e-07	-7.006406e-07	-8.830036e-09	-4.825139e+00	-5.831851e+02
7.900000e-07	-5.433222e-07	-8.411631e-09	-3.741726e+00	-5.549250e+02
8.000000e-07	-3.858553e-07	-7.963576e-09	-2.657290e+00	-5.236472e+02
8.100000e-07	-2.282449e-07	-7.477813e-09	-1.571866e+00	-4.898266e+02
8.200000e-07	-7.049215e-08	-6.958606e-09	-4.854620e-01	-4.543333e+02
8.300000e-07	8.725936e-08	-6.408386e-09	6.009336e-01	-4.179481e+02
8.400000e-07	2.449543e-07	-5.818035e-09	1.686940e+00	-3.807794e+02
8.500000e-07	4.026333e-07	-5.172954e-09	2.772836e+00	-3.418123e+02
8.600000e-07	5.601530e-07	-4.460466e-09	3.857636e+00	-2.988029e+02
8.700000e-07	7.174392e-07	-3.672072e-09	4.940826e+00	-2.486333e+02
8.800000e-07	8.744651e-07	-2.780987e-09	6.022225e+00	-1.880877e+02
8.900000e-07	1.031177e-06	-1.743751e-09	7.101465e+00	-1.148487e+02
9.000000e-07	1.187461e-06	-5.029621e-10	8.177753e+00	-2.841397e+01
9.100000e-07	1.343167e-06	9.786895e-10	9.250061e+00	6.937350e+01
9.200000e-07	1.498308e-06	2.665314e-09	1.031848e+01	1.743858e+02
9.300000e-07	1.652899e-06	4.408895e-09	1.138311e+01	2.808896e+02
9.400000e-07	1.806938e-06	6.012046e-09	1.244394e+01	3.826794e+02
9.500000e-07	1.960385e-06	7.357126e-09	1.350068e+01	4.743512e+02
9.600000e-07	2.113093e-06	8.439299e-09	1.455235e+01	5.523612e+02
9.700000e-07	2.264945e-06	9.316053e-09	1.559812e+01	6.155770e+02
9.800000e-07	2.415921e-06	1.004312e-08	1.663785e+01	6.651955e+02
9.900000e-07	2.566068e-06	1.066031e-08	1.767188e+01	7.040932e+02
1.000000e-06	2.715392e-06	1.119324e-08	1.870023e+01	7.358440e+02
1.010000e-06	2.863751e-06	1.165773e-08	1.972195e+01	7.637222e+02
1.020000e-06	3.011039e-06	1.207261e-08	2.073629e+01	7.899806e+02
1.030000e-06	3.157298e-06	1.244975e-08	2.174353e+01	8.155769e+02
1.040000e-06	3.302437e-06	1.279562e-08	2.274307e+01	8.403586e+02
1.050000e-06	3.446332e-06	1.311344e-08	2.373404e+01	8.635640e+02
1.060000e-06	3.588950e-06	1.340927e-08	2.471621e+01	8.844123e+02
1.070000e-06	3.730195e-06	1.368326e-08	2.568893e+01	9.025590e+02
1.080000e-06	3.869918e-06	1.393511e-08	2.665117e+01	9.182734e+02
1.090000e-06	4.008153e-06	1.417098e-08	2.760316e+01	9.323187e+02
1.100000e-06	4.144934e-06	1.439581e-08	2.854513e+01	9.456287e+02
1.110000e-06	4.280151e-06	1.460884e-08	2.947635e+01	9.589446e+02
1.120000e-06	4.413912e-06	1.481021e-08	3.039752e+01	9.725644e+02
1.130000e-06	4.546104e-06	1.500218e-08	3.130789e+01	9.863003e+02
1.140000e-06	4.676633e-06	1.518432e-08	3.220682e+01	9.996378e+02
1.150000e-06	4.805544e-06	1.535879e-08	3.309459e+01	1.012014e+03
1.160000e-06	4.932752e-06	1.552469e-08	3.397064e+01	1.023085e+03
1.170000e-06	5.058306e-06	1.568379e-08	3.483530e+01	1.032873e+03
1.180000e-06	5.182041e-06	1.583654e-08	3.568743e+01	1.041746e+03
1.190000e-06	5.303857e-06	1.598397e-08	3.652635e+01	1.050241e+03
1.200000e-06	5.423755e-06	1.612392e-08	3.735206e+01	1.058831e+03
1.210000e-06	5.541619e-06	1.625712e-08	3.816376e+01	1.067737e+03
1.220000e-06	5.657319e-06	1.638588e-08	3.896056e+01	1.076849e+03
1.230000e-06	5.770787e-06	1.651070e-08	3.974199e+01	1.085809e+03
1.240000e-06	5.882171e-06	1.662974e-08	4.050906e+01	1.094182e+03
1.250000e-06	5.991601e-06	1.674234e-08	4.126268e+01	1.101658e+03
1.260000e-06	6.098971e-06	1.684972e-08	4.200211e+01	1.108186e+03
1.270000e-06	6.204100e-06	1.695197e-08	4.272611e+01	1.113991e+03
1.280000e-06	6.306986e-06	1.704940e-08	4.343466e+01	1.119466e+03
1.290000e-06	6.407591e-06	1.714075e-08	4.412749e+01	1.125006e+03
1.300000e-06	6.505825e-06	1.722638e-08	4.480401e+01	1.130836e+03
1.310000e-06	6.601666e-06	1.730760e-08	4.546404e+01	1.136935e+03
1.320000e-06	6.695219e-06	1.738947e-08	4.610832e+01	1.143059e+03
1.330000e-06	6.786438e-06	1.747109e-08	4.673652e+01	1.148864e+03
1.340000e-06	6.875194e-06	1.754780e-08	4.734776e+01	1.154065e+03
1.350000e-06	6.961606e-06	1.761718e-08	4.794286e+01	1.158561e+03
1.360000e-06	7.045641e-06	1.768128e-08	4.852159e+01	1.162473e+03
1.370000e-06	7.127156e-06	1.774501e-08	4.908297e+01	1.166088e+03
1.380000e-06	7.206096e-06	1.780809e-08	4.962660e+01	1.169724e+03
1.390000e-06	7.282345e-06	1.786977e-08	5.015171e+01	1.173592e+03
1.400000e-06	7.355825e-06	1.792930e-08	5.065775e+01	1.177706e+03
1.410000e-06	7.426688e-06	1.798675e-08	5.114577e+01	1.181888e+03
1.420000e-06	7.494949e-06	1.804205e-08	5.161586e+01	1.185852e+03
1.430000e-06	7.560467e-06	1.809311e-08	5.206707e+01	1.189334e+03
1.440000e-06	7.623360e-06	1.813889e-08	5.250020e+01	1.192212e+03
1.450000e-06	7.683636e-06	1.818228e-08	5.291531e+01	1.194557e+03
1.460000e-06	7.741156e-06	1.822573e-08	5.331143e+01	1.196598e+03
1.470000e-06	7.795854e-06	1.826778e-08	5.368812e+01	1.198619e+03
1.480000e-06	7.847473e-06	1.830693e-08	5.404361e+01	1.200833e+03
1.490000e-06	7.895951e-06	1.834342e-08	5.437747e+01	1.203290e+03
1.500000e-06	7.941593e-06	1.837830e-08	5.469179e+01	1.205857e+03
1.510000e-06	7.984443e-06	1.840933e-08	5.498689e+01	1.208283e+03
1.520000e-06	8.024443e-06	1.843445e-08	5.526235e+01	1.210312e+03
1.530000e-06	8.061702e-06	1.845683e-08	5.551895e+01	1.211792e+03
1.540000e-06	8.096150e-06	1.847995e-08	5.575618e+01	1.212749e+03
1.550000e-06	8.127738e-06	1.850270e-08	5.597372e+01	1.213364e+03
1.560000e-06	8.156571e-06	1.852073e-08	5.617229e+01	1.213901e+03
1.570000e-06	8.182426e-06	1.853391e-08	5.635035e+01	1.214587e+03
1.580000e-06	8.205310e-06	1.854604e-08	5.650794e+01	1.215512e+03
1.590000e-06	8.225416e-06	1.855810e-08	5.664640e+01	1.216602e+03
1.600000e-06	8.242624e-06	1.856827e-08	5.676491e+01	1.217648e+03
1.610000e-06	8.256806e-06	1.857605e-08	5.686259e+01	1.218408e+03
1.620000e-06	8.267761e-06	1.858038e-08	5.693803e+01	1.218716e+03
1.630000e-06	8.275613e-06	1.858214e-08	5.699210e+01	1.218551e+03
1.640000e-06	8.280658e-06	1.858402e-08	5.702684e+01	1.218052e+03
1.650000e-06	8.282786e-06	1.858588e-08	5.704150e+01	1.217451e+03
1.660000e-06	8.282057e-06	1.858363e-08	5.703648e+01	1.216968e+03
1.670000e-06	8.278646e-06	1.857279e-08	5.701299e+01	1.216718e+03
1.680000e-06	8.272434e-06	1.856676e-08	5.697021e+01	1.216654e+03
1.690000e-06	8.263428e-06	1.855967e-08	5.690819e+01	1.216593e+03
1.700000e-06	8.251497e-06	1.854837e-08	5.682602e+01	1.216295e+03
1.710000e-06	8.236645e-06	1.854045e-08	5.672374e+01	1.215568e+03
1.720000e-06	8.219315e-06	1.854698e-08	5.660439e+01	1.214356e+03
1.730000e-06	8.199620e-06	1.854400e-08	5.646876e+01	1.212759e+03
1.740000e-06	8.177054e-06	1.841978e-08	5.631335e+01	1.210992e+03
1.750000e-06	8.150846e-06	1.837875e-08	5.613287e+01	1.209296e+03
1.760000e-06	8.120735e-06	1.839349e-08	5.592550e+01	1.207830e+03
1.770000e-06	8.087397e-06	1.837062e-08	5.569590e+01	1.206611e+03
1.780000e-06	8.051597e-06	1.838309e-08	5.544936e+01	1.205511e+03
1.790000e-06	8.013493e-06	1.846459e-08	5.518695e+01	1.204319e+03
1.800000e-06	7.973409e-06	1.835550e-08	5.491090e+01	1.202833e+03
1.810000e-06	7.931189e-06	1.828054e-08	5.462014e+01	1.200953e+03
1.820000e-06	7.886011e-06	1.836265e-08	5.430901e+01	1.198709e+03
1.830000e-06	7.838026e-06	1.819615e-08	5.397855e+01	1.196242e+03
1.840000e-06	7.786927e-06	1.826445e-08	5.362664e+01	1.193728e+03
1.850000e-06	7.732472e-06	1.820866e-08	5.325162e+01	1.191282e+03
1.860000e-06	7.675368e-06	1.817018e-08	5.285836e+01	1.188899e+03
1.870000e-06	7.615575e-06	1.824527e-08	5.244659e+01	1.186448e+03
1.880000e-06	7.553101e-06	1.805019e-08	5.201634e+01	1.183728e+03
1.890000e-06	7.487868e-06	1.806200e-08	5.156710e+01	1.180564e+03
1.900000e-06	7.419780e-06	1.793659e-08	5.109819e+01	1.176886e+03
1.910000e-06	7.348827e-06	1.789217e-08	5.060955e+01	1.172775e+03
1.920000e-06	7.274976e-06	1.789211e-08	5.010097e+01	1.168433e+03
1.930000e-06	7.198403e-06	1.779455e-08	4.957362e+01	1.164096e+03
1.940000e-06	7.119103e-06	1.781841e-08	4.902750e+01	1.159936e+03
1.950000e-06	7.037367e-06	1.764974e-08	4.846461e+01	1.155976e+03
1.960000e-06	6.953140e-06	1.763502e-08	4.788456e+01	1.152079e+03
1.970000e-06	6.866220e-06	1.751145e-08	4.728596e+01	1.147998e+03
1.980000e-06	6.776925e-06	1.741750e-08	4.667101e+01	1.143486e+03
1.990000e-06	6.685346e-06	1.740416e-08	4.604033e+01	1.138397e+03
2.000000e-06	6.591372e-06	1.729729e-08	4.539315e+01	1.132758e+03
2.010000e-06	6.495010e-06	1.726656e-08	4.472953e+01	1.126752e+03
2.020000e-06	6.396441e-06	1.711524e-08	4.405071e+01	1.120641e+03
2.030000e-06	6.295482e-06	1.705213e-08	4.335543e+01	1.114650e+03
2.040000e-06	6.192107e-06	1.693445e-08	4.264351e+01	1.108863e+03
2.050000e-06	6.086606e-06	1.685938e-08	4.191695e+01	1.103181e+03
2.060000e-06	5.979027e-06	1.676267e-08	4.117608e+01	1.097364e+03
2.070000e-06	5.869287e-06	1.664846e-08	4.042033e+01	1.091129e+03
2.080000e-06	5.757341e-06	1.655836e-08	3.964938e+01	1.084280e+03
2.090000e-06	5.643262e-06	1.642960e-08	3.886375e+01	1.076788e+03
2.100000e-06	5.526877e-06	1.632644e-08	3.806223e+01	1.068812e+03
2.110000e-06	5.408288e-06	1.619389e-08	3.724554e+01	1.060621e+03
2.120000e-06	5.287736e-06	1.609051e-08	3.641533e+01	1.052478e+03
2.130000e-06	5.165412e-06	1.596333e-08	3.557292e+01	1.044511e+03
2.140000e-06	5.041279e-06	1.584399e-08	3.471804e+01	1.036650e+03
2.150000e-06	4.915218e-06	1.569756e-08	3.384989e+01	1.028650e+03
2.160000e-06	4.787327e-06	1.556171e-08	3.296914e+01	1.020192e+03
2.170000e-06	4.657757e-06	1.541758e-08	3.207682e+01	1.011020e+03
2.180000e-06	4.526614e-06	1.527425e-08	3.117367e+01	1.001061e+03
2.190000e-06	4.393864e-06	1.512246e-08	3.025946e+01	9.904560e+02
2.200000e-06	4.259533e-06	1.496512e-08	2.933435e+01	9.794993e+02
2.210000e-06	4.123615e-06	1.480681e-08	2.839832e+01	9.685057e+02
2.220000e-06	3.986188e-06	1.463870e-08	2.745189e+01	9.576595e+02
2.230000e-06	3.847283e-06	1.447250e-08	2.649529e+01	9.469175e+02
2.240000e-06	3.706914e-06	1.429247e-08	2.552860e+01	9.360123e+02
2.250000e-06	3.565087e-06	1.411339e-08	2.455187e+01	9.245574e+02
2.260000e-06	3.421887e-06	1.391717e-08	2.356569e+01	9.122127e+02
2.270000e-06	3.277478e-06	1.371219e-08	2.257118e+01	8.988370e+02
2.280000e-06	3.131951e-06	1.349704e-08	2.156897e+01	8.845569e+02
2.290000e-06	2.985367e-06	1.328457e-08	2.055948e+01	8.697155e+02
2.300000e-06	2.837703e-06	1.307051e-08	1.954256e+01	8.547164e+02
2.310000e-06	2.689016e-06	1.285370e-08	1.851859e+01	8.398290e+02
2.320000e-06	2.539455e-06	1.262480e-08	1.748860e+01	8.250407e+02
2.330000e-06	2.388918e-06	1.238094e-08	1.645189e+01	8.100280e+02
2.340000e-06	2.237370e-06	1.211860e-08	1.540822e+01	7.942680e+02
2.350000e-06	2.085035e-06	1.184000e-08	1.435912e+01	7.772499e+02
2.360000e-06	1.932064e-06	1.155487e-08	1.330565e+01	7.586959e+02
2.370000e-06	1.778483e-06	1.126724e-08	1.224797e+01	7.386919e+02
2.380000e-06	1.624309e-06	1.097569e-08	1.118622e+01	7.176567e+02
2.390000e-06	1.469581e-06	1.067234e-08	1.012064e+01	6.961507e+02
2.400000e-06	1.314248e-06	1.035115e-08	9.050899e+00	6.745943e+02
2.410000e-06	1.158354e-06	1.000738e-08	7.977296e+00	6.530158e+02
2.420000e-06	1.002042e-06	9.641541e-09	6.900814e+00	6.309498e+02
2.430000e-06	8.453988e-07	9.252472e-09	5.822053e+00	6.075475e+02
2.440000e-06	6.884957e-07	8.840842e-09	4.741500e+00	5.818756e+02
2.450000e-06	5.313395e-07	8.411666e-09	3.659204e+00	5.532871e+02
2.460000e-06	3.740288e-07	7.966358e-09	2.575844e+00	5.217036e+02
2.470000e-06	2.166509e-07	7.495249e-09	1.492021e+00	4.876583e+02
2.480000e-06	5.925870e-08	6.983695e-09	4.081000e-01	4.520386e+02
2.490000e-06	-9.811377e-08	6.425850e-09	-6.756853e-01	4.155805e+02
2.500000e-06	-2.554941e-07	5.824001e-09	-1.759525e+00	3.782894e+02
2.510000e-06	-4.128213e-07	5.171858e-09	-2.842998e+00	3.390159e+02
2.520000e-06	-5.700212e-07	4.455683e-09	-3.925595e+00	2.953972e+02
2.530000e-06	-7.270262e-07	3.658512e-09	-5.006850e+00	2.442618e+02
2.540000e-06	-8.838102e-07	2.758779e-09	-6.086583e+00	1.824411e+02
2.550000e-06	-1.040290e-06	1.716725e-09	-7.164221e+00	1.077729e+02
2.560000e-06	-1.196303e-06	4.746297e-10	-8.238643e+00	1.998989e+01
2.570000e-06	-1.351781e-06	-1.013316e-09	-9.309381e+00	-7.880578e+01
2.580000e-06	-1.506701e-06	-2.712544e-09	-1.037628e+01	-1.842716e+02
2.590000e-06	-1.661023e-06	-4.468335e-09	-1.143905e+01	-2.905642e+02
2.600000e-06	-1.814757e-06	-6.079868e-09	-1.249778e+01	-3.915037e+02
2.610000e-06	-1.967897e-06	-7.426330e-09	-1.355242e+01	-4.818418e+02
2.620000e-06	-2.120430e-06	-8.509847e-09	-1.460288e+01	-5.582774e+02
2.630000e-06	-2.272228e-06	-9.387930e-09	-1.564827e+01	-6.199430e+02
2.640000e-06	-2.423112e-06	-1.011536e-08	-1.668738e+01	-6.682548e+02
2.650000e-06	-2.573000e-06	-1.073304e-08	-1.771961e+01	-7.062140e+02
2.660000e-06	-2.721967e-06	-1.126995e-08	-1.874552e+01	-7.374073e+02
2.670000e-06	-2.870026e-06	-1.174483e-08	-1.976516e+01	-7.650271e+02
2.680000e-06	-3.017073e-06	-1.216833e-08	-2.077784e+01	-7.911920e+02
2.690000e-06	-3.163043e-06	-1.254886e-08	-2.178310e+01	-8.167246e+02
2.700000e-06	-3.307951e-06	-1.289261e-08	-2.278104e+01	-8.413797e+02
2.710000e-06	-3.451752e-06	-1.320706e-08	-2.377136e+01	-8.643658e+02
2.720000e-06	-3.594186e-06	-1.349772e-08	-2.475227e+01	-8.849313e+02
2.730000e-06	-3.735224e-06	-1.376768e-08	-2.572356e+01	-9.027945e+02
2.740000e-06	-3.874848e-06	-1.402267e-08	-2.668512e+01	-9.182881e+02
2.750000e-06	-4.012939e-06	-1.426646e-08	-2.763612e+01	-9.322111e+02
2.760000e-06	-4.149611e-06	-1.449993e-08	-2.857734e+01	-9.454933e+02
2.770000e-06	-4.284750e-06	-1.471894e-08	-2.950802e+01	-9.588372e+02
2.780000e-06	-4.418265e-06	-1.491948e-08	-3.042750e+01	-9.724868e+02
2.790000e-06	-4.550243e-06	-1.510473e-08	-3.133640e+01	-9.862085e+02
2.800000e-06	-4.680629e-06	-1.528312e-08	-3.223434e+01	-9.994688e+02
2.810000e-06	-4.809441e-06	-1.545545e-08	-3.312143e+01	-1.011716e+03
2.820000e-06	-4.936491e-06	-1.561877e-08	-3.399640e+01	-1.022642e+03
2.830000e-06	-5.061705e-06	-1.577674e-08	-3.485871e+01	-1.032311e+03
2.840000e-06	-5.185168e-06	-1.593229e-08	-3.570897e+01	-1.041118e+03
2.850000e-06	-5.306819e-06	-1.608191e-08	-3.654675e+01	-1.049604e+03
2.860000e-06	-5.426528e-06	-1.621928e-08	-3.737116e+01	-1.058224e+03
2.870000e-06	-5.544212e-06	-1.634561e-08	-3.818162e+01	-1.067163e+03
2.880000e-06	-5.659722e-06	-1.646815e-08	-3.897711e+01	-1.076280e+03
2.890000e-06	-5.772851e-06	-1.658886e-08	-3.975620e+01	-1.085198e+03
2.900000e-06	-5.883666e-06	-1.670458e-08	-4.051936e+01	-1.093486e+03
2.910000e-06	-5.992357e-06	-1.681062e-08	-4.126788e+01	-1.100858e+03
2.920000e-06	-6.099010e-06	-1.691026e-08	-4.200238e+01	-1.107295e+03
2.930000e-06	-6.203656e-06	-1.701007e-08	-4.272305e+01	-1.113044e+03
2.940000e-06	-6.306063e-06	-1.710950e-08	-4.342830e+01	-1.118510e+03
