# Temperatura_=_74.28
# Concentracion g/m^3_=_13400.0
# C_Vs_to_Am_M_A/Vsm_=_65563218390.804596
# pendiente_HvsI_1/m_=_3716.3
# ordenada_HvsI_A/m_=_1297.0
# frecuencia_Hz_=_301439.15331842896

Tiempo_(s)	Campo_(V.s)	Magnetizacion_(V.s)	Campo_(kA/m)	Magnetizacion_(A/m)
0.000000e+00	-8.330136e-06	-1.921376e-08	-5.691477e+01	-1.260486e+03
1.000000e-08	-8.327272e-06	-1.921029e-08	-5.689520e+01	-1.260193e+03
2.000000e-08	-8.321629e-06	-1.920420e-08	-5.685664e+01	-1.260121e+03
3.000000e-08	-8.313419e-06	-1.919574e-08	-5.680055e+01	-1.260057e+03
4.000000e-08	-8.302357e-06	-1.918207e-08	-5.672497e+01	-1.259725e+03
5.000000e-08	-8.288212e-06	-1.916529e-08	-5.662832e+01	-1.258907e+03
6.000000e-08	-8.271093e-06	-1.914684e-08	-5.651136e+01	-1.257539e+03
7.000000e-08	-8.251386e-06	-1.912234e-08	-5.637671e+01	-1.255741e+03
8.000000e-08	-8.229207e-06	-1.911649e-08	-5.622518e+01	-1.253761e+03
9.000000e-08	-8.203961e-06	-1.914515e-08	-5.605269e+01	-1.251871e+03
1.000000e-07	-8.175326e-06	-1.912892e-08	-5.585704e+01	-1.250250e+03
1.100000e-07	-8.143569e-06	-1.908410e-08	-5.564007e+01	-1.248910e+03
1.200000e-07	-8.108880e-06	-1.903908e-08	-5.540306e+01	-1.247698e+03
1.300000e-07	-8.071447e-06	-1.898373e-08	-5.514730e+01	-1.246369e+03
1.400000e-07	-8.031638e-06	-1.891513e-08	-5.487531e+01	-1.244699e+03
1.500000e-07	-7.989456e-06	-1.887560e-08	-5.458710e+01	-1.242577e+03
1.600000e-07	-7.944506e-06	-1.890282e-08	-5.427999e+01	-1.240053e+03
1.700000e-07	-7.896709e-06	-1.882761e-08	-5.395342e+01	-1.237298e+03
1.800000e-07	-7.846058e-06	-1.881526e-08	-5.360736e+01	-1.234522e+03
1.900000e-07	-7.792290e-06	-1.880639e-08	-5.323999e+01	-1.231858e+03
2.000000e-07	-7.735596e-06	-1.868842e-08	-5.285264e+01	-1.229298e+03
2.100000e-07	-7.676170e-06	-1.862623e-08	-5.244661e+01	-1.226683e+03
2.200000e-07	-7.614022e-06	-1.856046e-08	-5.202199e+01	-1.223774e+03
2.300000e-07	-7.549173e-06	-1.854401e-08	-5.157892e+01	-1.220360e+03
2.400000e-07	-7.481457e-06	-1.850344e-08	-5.111626e+01	-1.216357e+03
2.500000e-07	-7.410948e-06	-1.844144e-08	-5.063452e+01	-1.211854e+03
2.600000e-07	-7.337666e-06	-1.838692e-08	-5.013382e+01	-1.207083e+03
2.700000e-07	-7.261519e-06	-1.830650e-08	-4.961356e+01	-1.202317e+03
2.800000e-07	-7.182559e-06	-1.823764e-08	-4.907407e+01	-1.197752e+03
2.900000e-07	-7.100853e-06	-1.813722e-08	-4.851582e+01	-1.193413e+03
3.000000e-07	-7.016666e-06	-1.807285e-08	-4.794062e+01	-1.189144e+03
3.100000e-07	-6.930191e-06	-1.802317e-08	-4.734979e+01	-1.184663e+03
3.200000e-07	-6.841359e-06	-1.795440e-08	-4.674285e+01	-1.179694e+03
3.300000e-07	-6.750012e-06	-1.787585e-08	-4.611874e+01	-1.174081e+03
3.400000e-07	-6.656236e-06	-1.776490e-08	-4.547802e+01	-1.167867e+03
3.500000e-07	-6.560134e-06	-1.767183e-08	-4.482142e+01	-1.161273e+03
3.600000e-07	-6.461519e-06	-1.757803e-08	-4.414764e+01	-1.154609e+03
3.700000e-07	-6.360465e-06	-1.748555e-08	-4.345720e+01	-1.148132e+03
3.800000e-07	-6.257198e-06	-1.738915e-08	-4.275164e+01	-1.141929e+03
3.900000e-07	-6.151699e-06	-1.729705e-08	-4.203083e+01	-1.135875e+03
4.000000e-07	-6.043935e-06	-1.720524e-08	-4.129454e+01	-1.129675e+03
4.100000e-07	-5.934077e-06	-1.709104e-08	-4.054395e+01	-1.122996e+03
4.200000e-07	-5.822070e-06	-1.697327e-08	-3.977867e+01	-1.115605e+03
4.300000e-07	-5.707774e-06	-1.685050e-08	-3.899776e+01	-1.107479e+03
4.400000e-07	-5.591191e-06	-1.673581e-08	-3.820121e+01	-1.098814e+03
4.500000e-07	-5.472487e-06	-1.661903e-08	-3.739018e+01	-1.089940e+03
4.600000e-07	-5.351870e-06	-1.649415e-08	-3.656608e+01	-1.081174e+03
4.700000e-07	-5.229304e-06	-1.635604e-08	-3.572867e+01	-1.072674e+03
4.800000e-07	-5.104826e-06	-1.621612e-08	-3.487818e+01	-1.064358e+03
4.900000e-07	-4.978511e-06	-1.608089e-08	-3.401514e+01	-1.055933e+03
5.000000e-07	-4.850379e-06	-1.593606e-08	-3.313970e+01	-1.047011e+03
5.100000e-07	-4.720508e-06	-1.578255e-08	-3.225237e+01	-1.037281e+03
5.200000e-07	-4.588945e-06	-1.562969e-08	-3.135348e+01	-1.026646e+03
5.300000e-07	-4.455684e-06	-1.548028e-08	-3.044298e+01	-1.015267e+03
5.400000e-07	-4.320846e-06	-1.531561e-08	-2.952172e+01	-1.003495e+03
5.500000e-07	-4.184492e-06	-1.513112e-08	-2.859010e+01	-9.917164e+02
5.600000e-07	-4.046613e-06	-1.494402e-08	-2.764805e+01	-9.801690e+02
5.700000e-07	-3.907152e-06	-1.476554e-08	-2.669520e+01	-9.688261e+02
5.800000e-07	-3.766014e-06	-1.458454e-08	-2.573089e+01	-9.573914e+02
5.900000e-07	-3.623327e-06	-1.438645e-08	-2.475600e+01	-9.454171e+02
6.000000e-07	-3.479266e-06	-1.418072e-08	-2.377171e+01	-9.324958e+02
6.100000e-07	-3.333928e-06	-1.397821e-08	-2.277871e+01	-9.184424e+02
6.200000e-07	-3.187347e-06	-1.377354e-08	-2.177721e+01	-9.033825e+02
6.300000e-07	-3.039670e-06	-1.355049e-08	-2.076822e+01	-8.877027e+02
6.400000e-07	-2.891037e-06	-1.330810e-08	-1.975270e+01	-8.718766e+02
6.500000e-07	-2.741455e-06	-1.306348e-08	-1.873070e+01	-8.562405e+02
6.600000e-07	-2.590958e-06	-1.281986e-08	-1.770245e+01	-8.408163e+02
6.700000e-07	-2.439568e-06	-1.256931e-08	-1.666809e+01	-8.252675e+02
6.800000e-07	-2.287256e-06	-1.230370e-08	-1.562743e+01	-8.090151e+02
6.900000e-07	-2.134095e-06	-1.202839e-08	-1.458098e+01	-7.914723e+02
7.000000e-07	-1.980144e-06	-1.174684e-08	-1.352912e+01	-7.722988e+02
7.100000e-07	-1.825414e-06	-1.145464e-08	-1.247195e+01	-7.515582e+02
7.200000e-07	-1.670092e-06	-1.114391e-08	-1.141073e+01	-7.296982e+02
7.300000e-07	-1.514235e-06	-1.081314e-08	-1.034585e+01	-7.073478e+02
7.400000e-07	-1.357717e-06	-1.047010e-08	-9.276454e+00	-6.850061e+02
7.500000e-07	-1.200553e-06	-1.011576e-08	-8.202648e+00	-6.627571e+02
7.600000e-07	-1.042876e-06	-9.744354e-09	-7.125337e+00	-6.401426e+02
7.700000e-07	-8.848811e-07	-9.351441e-09	-6.045856e+00	-6.162697e+02
7.800000e-07	-7.266920e-07	-8.940576e-09	-4.965046e+00	-5.901285e+02
7.900000e-07	-5.683097e-07	-8.509797e-09	-3.882916e+00	-5.609976e+02
8.000000e-07	-4.098103e-07	-8.050945e-09	-2.799985e+00	-5.287596e+02
8.100000e-07	-2.512218e-07	-7.553832e-09	-1.716446e+00	-4.939613e+02
8.200000e-07	-9.251074e-08	-7.020939e-09	-6.320698e-01	-4.575460e+02
8.300000e-07	6.624420e-08	-6.456751e-09	4.526065e-01	-4.203147e+02
8.400000e-07	2.249907e-07	-5.851171e-09	1.537225e+00	-3.823004e+02
8.500000e-07	3.836794e-07	-5.187034e-09	2.621449e+00	-3.423076e+02
8.600000e-07	5.422043e-07	-4.450628e-09	3.704553e+00	-2.978428e+02
8.700000e-07	7.005421e-07	-3.632308e-09	4.786379e+00	-2.455468e+02
8.800000e-07	8.586914e-07	-2.705706e-09	5.866917e+00	-1.820647e+02
8.900000e-07	1.016636e-06	-1.622113e-09	6.946058e+00	-1.051211e+02
9.000000e-07	1.174289e-06	-3.182613e-10	8.023205e+00	-1.446824e+01
9.100000e-07	1.331465e-06	1.242302e-09	9.097093e+00	8.761687e+01
9.200000e-07	1.488017e-06	3.005421e-09	1.016672e+01	1.964878e+02
9.300000e-07	1.643922e-06	4.798281e-09	1.123192e+01	3.059382e+02
9.400000e-07	1.799267e-06	6.416000e-09	1.229330e+01	4.094607e+02
9.500000e-07	1.954044e-06	7.752466e-09	1.335080e+01	5.016021e+02
9.600000e-07	2.108096e-06	8.820533e-09	1.440334e+01	5.790307e+02
9.700000e-07	2.261365e-06	9.683810e-09	1.545053e+01	6.410223e+02
9.800000e-07	2.413760e-06	1.039878e-08	1.649176e+01	6.892584e+02
9.900000e-07	2.565190e-06	1.100575e-08	1.752639e+01	7.270418e+02
1.000000e-06	2.715713e-06	1.153255e-08	1.855482e+01	7.582081e+02
1.010000e-06	2.865318e-06	1.199642e-08	1.957698e+01	7.860822e+02
1.020000e-06	3.013871e-06	1.241413e-08	2.059195e+01	8.127794e+02
1.030000e-06	3.161374e-06	1.279666e-08	2.159975e+01	8.390132e+02
1.040000e-06	3.307820e-06	1.314712e-08	2.260033e+01	8.643832e+02
1.050000e-06	3.453079e-06	1.346846e-08	2.359280e+01	8.879669e+02
1.060000e-06	3.597094e-06	1.376855e-08	2.457676e+01	9.089562e+02
1.070000e-06	3.739773e-06	1.404856e-08	2.555160e+01	9.271030e+02
1.080000e-06	3.881008e-06	1.430675e-08	2.651657e+01	9.428407e+02
1.090000e-06	4.020711e-06	1.454857e-08	2.747108e+01	9.570879e+02
1.100000e-06	4.158884e-06	1.478006e-08	2.841513e+01	9.708601e+02
1.110000e-06	4.295491e-06	1.500151e-08	2.934849e+01	9.848762e+02
1.120000e-06	4.430504e-06	1.521088e-08	3.027095e+01	9.993226e+02
1.130000e-06	4.563967e-06	1.540820e-08	3.118282e+01	1.013860e+03
1.140000e-06	4.695800e-06	1.559668e-08	3.208356e+01	1.027845e+03
1.150000e-06	4.825994e-06	1.578126e-08	3.297309e+01	1.040659e+03
1.160000e-06	4.954446e-06	1.595867e-08	3.385072e+01	1.051992e+03
1.170000e-06	5.081158e-06	1.612590e-08	3.471647e+01	1.061973e+03
1.180000e-06	5.206155e-06	1.628348e-08	3.557050e+01	1.071096e+03
1.190000e-06	5.329257e-06	1.643571e-08	3.641158e+01	1.080000e+03
1.200000e-06	5.450394e-06	1.658289e-08	3.723923e+01	1.089193e+03
1.210000e-06	5.569510e-06	1.672334e-08	3.805308e+01	1.098851e+03
1.220000e-06	5.686499e-06	1.685917e-08	3.885240e+01	1.108769e+03
1.230000e-06	5.801307e-06	1.699372e-08	3.963681e+01	1.118481e+03
1.240000e-06	5.913923e-06	1.712684e-08	4.040625e+01	1.127475e+03
1.250000e-06	6.024466e-06	1.725373e-08	4.116152e+01	1.135424e+03
1.260000e-06	6.132941e-06	1.737092e-08	4.190267e+01	1.142323e+03
1.270000e-06	6.239202e-06	1.747903e-08	4.262868e+01	1.148476e+03
1.280000e-06	6.343167e-06	1.758269e-08	4.333901e+01	1.154357e+03
1.290000e-06	6.444841e-06	1.768246e-08	4.403369e+01	1.160404e+03
1.300000e-06	6.544177e-06	1.777622e-08	4.471239e+01	1.166837e+03
1.310000e-06	6.641049e-06	1.786571e-08	4.537426e+01	1.173578e+03
1.320000e-06	6.735623e-06	1.795444e-08	4.602043e+01	1.180310e+03
1.330000e-06	6.827940e-06	1.804416e-08	4.665118e+01	1.186626e+03
1.340000e-06	6.917807e-06	1.813410e-08	4.726518e+01	1.192219e+03
1.350000e-06	7.005221e-06	1.821599e-08	4.786243e+01	1.197013e+03
1.360000e-06	7.090237e-06	1.828638e-08	4.844329e+01	1.201191e+03
1.370000e-06	7.172752e-06	1.835125e-08	4.900706e+01	1.205108e+03
1.380000e-06	7.252697e-06	1.841701e-08	4.955328e+01	1.209128e+03
1.390000e-06	7.329980e-06	1.848535e-08	5.008131e+01	1.213470e+03
1.400000e-06	7.404414e-06	1.855004e-08	5.058987e+01	1.218113e+03
1.410000e-06	7.476128e-06	1.861054e-08	5.107984e+01	1.222819e+03
1.420000e-06	7.545225e-06	1.867183e-08	5.155194e+01	1.227242e+03
1.430000e-06	7.611562e-06	1.873286e-08	5.200519e+01	1.231088e+03
1.440000e-06	7.675256e-06	1.878693e-08	5.244037e+01	1.234241e+03
1.450000e-06	7.736391e-06	1.883292e-08	5.285806e+01	1.236813e+03
1.460000e-06	7.794791e-06	1.887724e-08	5.325708e+01	1.239087e+03
1.470000e-06	7.850395e-06	1.892298e-08	5.363699e+01	1.241390e+03
1.480000e-06	7.902988e-06	1.896767e-08	5.399632e+01	1.243949e+03
1.490000e-06	7.952326e-06	1.900874e-08	5.433342e+01	1.246791e+03
1.500000e-06	7.998725e-06	1.904707e-08	5.465043e+01	1.249736e+03
1.510000e-06	8.042393e-06	1.908370e-08	5.494879e+01	1.252480e+03
1.520000e-06	8.083146e-06	1.911568e-08	5.522723e+01	1.254734e+03
1.530000e-06	8.121040e-06	1.914461e-08	5.548614e+01	1.256348e+03
1.540000e-06	8.156121e-06	1.917135e-08	5.572583e+01	1.257377e+03
1.550000e-06	8.188338e-06	1.919422e-08	5.594595e+01	1.258054e+03
1.560000e-06	8.217794e-06	1.921401e-08	5.614720e+01	1.258688e+03
1.570000e-06	8.244301e-06	1.923176e-08	5.632831e+01	1.259524e+03
1.580000e-06	8.267770e-06	1.924729e-08	5.648866e+01	1.260645e+03
1.590000e-06	8.288419e-06	1.926057e-08	5.662974e+01	1.261933e+03
1.600000e-06	8.306204e-06	1.927167e-08	5.675125e+01	1.263133e+03
1.610000e-06	8.320930e-06	1.927996e-08	5.685187e+01	1.263964e+03
1.620000e-06	8.332422e-06	1.928532e-08	5.693038e+01	1.264250e+03
1.630000e-06	8.340734e-06	1.928865e-08	5.698718e+01	1.263993e+03
1.640000e-06	8.346173e-06	1.929227e-08	5.702434e+01	1.263374e+03
1.650000e-06	8.348685e-06	1.929407e-08	5.704150e+01	1.262669e+03
1.660000e-06	8.348277e-06	1.929001e-08	5.703872e+01	1.262129e+03
1.670000e-06	8.345143e-06	1.927892e-08	5.701730e+01	1.261865e+03
1.680000e-06	8.339212e-06	1.926939e-08	5.697678e+01	1.261805e+03
1.690000e-06	8.330511e-06	1.925901e-08	5.691733e+01	1.261725e+03
1.700000e-06	8.318889e-06	1.924715e-08	5.683792e+01	1.261349e+03
1.710000e-06	8.304319e-06	1.923681e-08	5.673838e+01	1.260470e+03
1.720000e-06	8.287197e-06	1.922886e-08	5.662139e+01	1.259047e+03
1.730000e-06	8.267615e-06	1.921261e-08	5.648760e+01	1.257215e+03
1.740000e-06	8.245179e-06	1.913110e-08	5.633431e+01	1.255232e+03
1.750000e-06	8.219238e-06	1.908390e-08	5.615707e+01	1.253364e+03
1.760000e-06	8.189408e-06	1.907034e-08	5.595326e+01	1.251775e+03
1.770000e-06	8.156269e-06	1.905140e-08	5.572684e+01	1.250458e+03
1.780000e-06	8.120627e-06	1.905295e-08	5.548332e+01	1.249245e+03
1.790000e-06	8.082586e-06	1.908870e-08	5.522341e+01	1.247889e+03
1.800000e-06	8.042446e-06	1.902898e-08	5.494916e+01	1.246172e+03
1.810000e-06	8.000205e-06	1.895827e-08	5.466055e+01	1.244001e+03
1.820000e-06	7.955073e-06	1.898428e-08	5.435219e+01	1.241441e+03
1.830000e-06	7.907108e-06	1.890121e-08	5.402447e+01	1.238674e+03
1.840000e-06	7.856068e-06	1.891461e-08	5.367575e+01	1.235905e+03
1.850000e-06	7.801685e-06	1.887809e-08	5.330418e+01	1.233255e+03
1.860000e-06	7.744556e-06	1.883183e-08	5.291386e+01	1.230698e+03
1.870000e-06	7.684650e-06	1.884027e-08	5.250455e+01	1.228063e+03
1.880000e-06	7.622018e-06	1.871143e-08	5.207663e+01	1.225108e+03
1.890000e-06	7.556655e-06	1.867438e-08	5.163004e+01	1.221631e+03
1.900000e-06	7.488406e-06	1.857589e-08	5.116373e+01	1.217566e+03
1.910000e-06	7.417297e-06	1.852302e-08	5.067789e+01	1.213021e+03
1.920000e-06	7.343271e-06	1.850425e-08	5.017212e+01	1.208237e+03
1.930000e-06	7.266476e-06	1.842264e-08	4.964742e+01	1.203485e+03
1.940000e-06	7.186977e-06	1.839824e-08	4.910425e+01	1.198945e+03
1.950000e-06	7.104995e-06	1.827027e-08	4.854412e+01	1.194624e+03
1.960000e-06	7.020472e-06	1.820015e-08	4.796662e+01	1.190346e+03
1.970000e-06	6.933269e-06	1.808941e-08	4.737082e+01	1.185824e+03
1.980000e-06	6.843602e-06	1.799562e-08	4.675818e+01	1.180790e+03
1.990000e-06	6.751512e-06	1.795420e-08	4.612898e+01	1.175106e+03
2.000000e-06	6.657068e-06	1.787129e-08	4.548371e+01	1.168837e+03
2.010000e-06	6.560318e-06	1.781373e-08	4.482268e+01	1.162220e+03
2.020000e-06	6.461319e-06	1.768226e-08	4.414628e+01	1.155565e+03
2.030000e-06	6.359918e-06	1.758038e-08	4.345346e+01	1.149116e+03
2.040000e-06	6.256115e-06	1.745592e-08	4.274424e+01	1.142938e+03
2.050000e-06	6.150128e-06	1.735704e-08	4.202009e+01	1.136884e+03
2.060000e-06	6.042041e-06	1.725697e-08	4.128160e+01	1.130647e+03
2.070000e-06	5.931793e-06	1.714803e-08	4.052835e+01	1.123899e+03
2.080000e-06	5.819260e-06	1.705121e-08	3.975947e+01	1.116426e+03
2.090000e-06	5.704440e-06	1.693274e-08	3.897498e+01	1.108229e+03
2.100000e-06	5.587303e-06	1.681101e-08	3.817465e+01	1.099523e+03
2.110000e-06	5.468024e-06	1.666537e-08	3.735969e+01	1.090646e+03
2.120000e-06	5.346826e-06	1.653273e-08	3.653162e+01	1.081905e+03
2.130000e-06	5.223768e-06	1.639373e-08	3.569084e+01	1.073432e+03
2.140000e-06	5.098807e-06	1.626359e-08	3.483706e+01	1.065121e+03
2.150000e-06	4.971950e-06	1.612285e-08	3.397032e+01	1.056660e+03
2.160000e-06	4.843315e-06	1.598190e-08	3.309144e+01	1.047663e+03
2.170000e-06	4.713003e-06	1.583186e-08	3.220109e+01	1.037836e+03
2.180000e-06	4.581034e-06	1.567885e-08	3.129942e+01	1.027108e+03
2.190000e-06	4.447436e-06	1.551168e-08	3.038663e+01	1.015667e+03
2.200000e-06	4.312242e-06	1.533611e-08	2.946293e+01	1.003877e+03
2.210000e-06	4.175426e-06	1.515802e-08	2.852815e+01	9.921145e+02
2.220000e-06	4.037065e-06	1.498202e-08	2.758282e+01	9.805947e+02
2.230000e-06	3.897139e-06	1.480615e-08	2.662678e+01	9.692595e+02
2.240000e-06	3.755679e-06	1.461832e-08	2.566028e+01	9.577887e+02
2.250000e-06	3.612793e-06	1.442415e-08	2.468402e+01	9.457291e+02
2.260000e-06	3.468619e-06	1.421996e-08	2.369897e+01	9.326894e+02
2.270000e-06	3.323283e-06	1.401223e-08	2.270597e+01	9.185159e+02
2.280000e-06	3.176773e-06	1.379061e-08	2.170497e+01	9.033671e+02
2.290000e-06	3.029141e-06	1.356235e-08	2.069628e+01	8.876488e+02
2.300000e-06	2.880444e-06	1.332603e-08	1.968032e+01	8.718307e+02
2.310000e-06	2.730737e-06	1.309242e-08	1.865747e+01	8.562220e+02
2.320000e-06	2.580060e-06	1.285399e-08	1.762798e+01	8.408056e+02
2.330000e-06	2.428432e-06	1.260164e-08	1.659200e+01	8.252108e+02
2.340000e-06	2.275945e-06	1.233031e-08	1.555015e+01	8.088451e+02
2.350000e-06	2.122712e-06	1.204659e-08	1.450320e+01	7.911368e+02
2.360000e-06	1.968686e-06	1.175515e-08	1.345084e+01	7.717840e+02
2.370000e-06	1.813848e-06	1.145349e-08	1.239292e+01	7.508958e+02
2.380000e-06	1.658358e-06	1.114175e-08	1.133055e+01	7.289520e+02
2.390000e-06	1.502319e-06	1.081961e-08	1.026443e+01	7.065832e+02
2.400000e-06	1.345706e-06	1.048637e-08	9.194392e+00	6.842560e+02
2.410000e-06	1.188531e-06	1.013390e-08	8.120513e+00	6.619984e+02
2.420000e-06	1.030945e-06	9.758634e-09	7.043822e+00	6.392964e+02
2.430000e-06	8.731046e-07	9.359739e-09	5.965394e+00	6.152263e+02
2.440000e-06	7.149942e-07	8.941058e-09	4.885122e+00	5.887899e+02
2.450000e-06	5.566118e-07	8.501804e-09	3.802991e+00	5.593187e+02
2.460000e-06	3.980468e-07	8.041010e-09	2.719612e+00	5.267691e+02
2.470000e-06	2.394057e-07	7.550747e-09	1.635714e+00	4.917490e+02
2.480000e-06	8.072924e-08	7.023729e-09	5.515739e-01	4.552157e+02
2.490000e-06	-7.801167e-08	6.453734e-09	-5.330065e-01	4.179171e+02
2.500000e-06	-2.367266e-07	5.833940e-09	-1.617409e+00	3.797713e+02
2.510000e-06	-3.953267e-07	5.159164e-09	-2.701027e+00	3.394386e+02
2.520000e-06	-5.537630e-07	4.419549e-09	-3.783527e+00	2.943030e+02
2.530000e-06	-7.119870e-07	3.596681e-09	-4.864576e+00	2.409584e+02
2.540000e-06	-8.700104e-07	2.662147e-09	-5.944253e+00	1.761131e+02
2.550000e-06	-1.027835e-06	1.571485e-09	-7.022573e+00	9.766930e+01
2.560000e-06	-1.185266e-06	2.626823e-10	-8.098202e+00	5.636358e+00
2.570000e-06	-1.342111e-06	-1.305690e-09	-9.169828e+00	-9.743515e+01
2.580000e-06	-1.498389e-06	-3.083953e-09	-1.023758e+01	-2.066826e+02
2.590000e-06	-1.654152e-06	-4.892153e-09	-1.130182e+01	-3.158022e+02
2.600000e-06	-1.809389e-06	-6.516348e-09	-1.236245e+01	-4.183367e+02
2.610000e-06	-1.963899e-06	-7.849536e-09	-1.341813e+01	-5.090174e+02
2.620000e-06	-2.117551e-06	-8.911776e-09	-1.446794e+01	-5.847808e+02
2.630000e-06	-2.270500e-06	-9.772323e-09	-1.551295e+01	-6.451821e+02
2.640000e-06	-2.422738e-06	-1.048894e-08	-1.655310e+01	-6.921221e+02
2.650000e-06	-2.574052e-06	-1.110026e-08	-1.758693e+01	-7.290148e+02
2.660000e-06	-2.724393e-06	-1.163162e-08	-1.861413e+01	-7.596873e+02
2.670000e-06	-2.873725e-06	-1.210335e-08	-1.963442e+01	-7.873598e+02
2.680000e-06	-3.022040e-06	-1.253015e-08	-2.064776e+01	-8.139975e+02
2.690000e-06	-3.169303e-06	-1.291640e-08	-2.165393e+01	-8.401734e+02
2.700000e-06	-3.315384e-06	-1.326405e-08	-2.265201e+01	-8.653998e+02
2.710000e-06	-3.460364e-06	-1.358016e-08	-2.364257e+01	-8.887378e+02
2.720000e-06	-3.604111e-06	-1.387449e-08	-2.462471e+01	-9.094228e+02
2.730000e-06	-3.746472e-06	-1.415014e-08	-2.559737e+01	-9.272803e+02
2.740000e-06	-3.887495e-06	-1.440927e-08	-2.656089e+01	-9.428098e+02
2.750000e-06	-4.026995e-06	-1.465531e-08	-2.751401e+01	-9.569605e+02
2.760000e-06	-4.164890e-06	-1.489287e-08	-2.845617e+01	-9.707335e+02
2.770000e-06	-4.301296e-06	-1.512245e-08	-2.938815e+01	-9.847977e+02
2.780000e-06	-4.436123e-06	-1.533690e-08	-3.030934e+01	-9.992786e+02
2.790000e-06	-4.569327e-06	-1.553347e-08	-3.121944e+01	-1.013791e+03
2.800000e-06	-4.700891e-06	-1.571938e-08	-3.211834e+01	-1.027677e+03
2.810000e-06	-4.830766e-06	-1.589815e-08	-3.300569e+01	-1.040341e+03
2.820000e-06	-4.958976e-06	-1.606515e-08	-3.388167e+01	-1.051516e+03
2.830000e-06	-5.085423e-06	-1.622557e-08	-3.474561e+01	-1.061377e+03
2.840000e-06	-5.210079e-06	-1.638606e-08	-3.559731e+01	-1.070447e+03
2.850000e-06	-5.332919e-06	-1.654586e-08	-3.643660e+01	-1.079363e+03
2.860000e-06	-5.453936e-06	-1.669640e-08	-3.726344e+01	-1.088605e+03
2.870000e-06	-5.572962e-06	-1.683220e-08	-3.807667e+01	-1.098307e+03
2.880000e-06	-5.689781e-06	-1.696223e-08	-3.887483e+01	-1.108229e+03
2.890000e-06	-5.804257e-06	-1.709081e-08	-3.965697e+01	-1.117888e+03
2.900000e-06	-5.916313e-06	-1.721314e-08	-4.042258e+01	-1.126781e+03
2.910000e-06	-6.026045e-06	-1.732597e-08	-4.117231e+01	-1.134613e+03
2.920000e-06	-6.133654e-06	-1.743480e-08	-4.190754e+01	-1.141413e+03
2.930000e-06	-6.239291e-06	-1.754353e-08	-4.262929e+01	-1.147514e+03
2.940000e-06	-6.342787e-06	-1.764809e-08	-4.333641e+01	-1.153395e+03
