# Temperatura_=_37.75
# Concentracion g/m^3_=_13400.0
# C_Vs_to_Am_M_A/Vsm_=_65563218390.804596
# pendiente_HvsI_1/m_=_3716.3
# ordenada_HvsI_A/m_=_1297.0
# frecuencia_Hz_=_301440.9789021114

Tiempo_(s)	Campo_(V.s)	Magnetizacion_(V.s)	Campo_(kA/m)	Magnetizacion_(A/m)
0.000000e+00	-8.349486e-06	-1.790031e-08	-5.691171e+01	-1.173062e+03
1.000000e-08	-8.346363e-06	-1.790088e-08	-5.689041e+01	-1.172565e+03
2.000000e-08	-8.340543e-06	-1.789351e-08	-5.685075e+01	-1.172332e+03
3.000000e-08	-8.332123e-06	-1.788511e-08	-5.679335e+01	-1.172278e+03
4.000000e-08	-8.320771e-06	-1.787306e-08	-5.671598e+01	-1.172197e+03
5.000000e-08	-8.306323e-06	-1.785876e-08	-5.661749e+01	-1.171854e+03
6.000000e-08	-8.288888e-06	-1.784038e-08	-5.649866e+01	-1.171085e+03
7.000000e-08	-8.268911e-06	-1.781317e-08	-5.636249e+01	-1.169869e+03
8.000000e-08	-8.246462e-06	-1.784003e-08	-5.620947e+01	-1.168329e+03
9.000000e-08	-8.220898e-06	-1.788322e-08	-5.603522e+01	-1.166682e+03
1.000000e-07	-8.191986e-06	-1.783714e-08	-5.583816e+01	-1.165144e+03
1.100000e-07	-8.159989e-06	-1.779028e-08	-5.562006e+01	-1.163837e+03
1.200000e-07	-8.124960e-06	-1.776126e-08	-5.538129e+01	-1.162752e+03
1.300000e-07	-8.087200e-06	-1.770679e-08	-5.512391e+01	-1.161753e+03
1.400000e-07	-8.047160e-06	-1.761580e-08	-5.485099e+01	-1.160649e+03
1.500000e-07	-8.004644e-06	-1.762686e-08	-5.456119e+01	-1.159277e+03
1.600000e-07	-7.959300e-06	-1.767600e-08	-5.425212e+01	-1.157568e+03
1.700000e-07	-7.911140e-06	-1.758047e-08	-5.392385e+01	-1.155563e+03
1.800000e-07	-7.859984e-06	-1.764311e-08	-5.357517e+01	-1.153379e+03
1.900000e-07	-7.805728e-06	-1.760099e-08	-5.320535e+01	-1.151141e+03
2.000000e-07	-7.748668e-06	-1.748397e-08	-5.281641e+01	-1.148908e+03
2.100000e-07	-7.688857e-06	-1.744940e-08	-5.240873e+01	-1.146640e+03
2.200000e-07	-7.626300e-06	-1.735451e-08	-5.198233e+01	-1.144214e+03
2.300000e-07	-7.560986e-06	-1.737471e-08	-5.153714e+01	-1.141485e+03
2.400000e-07	-7.492841e-06	-1.732839e-08	-5.107264e+01	-1.138360e+03
2.500000e-07	-7.421919e-06	-1.729298e-08	-5.058923e+01	-1.134852e+03
2.600000e-07	-7.348123e-06	-1.725840e-08	-5.008622e+01	-1.131087e+03
2.700000e-07	-7.271437e-06	-1.720173e-08	-4.956351e+01	-1.127253e+03
2.800000e-07	-7.191938e-06	-1.713356e-08	-4.902164e+01	-1.123518e+03
2.900000e-07	-7.109684e-06	-1.702407e-08	-4.846097e+01	-1.119948e+03
3.000000e-07	-7.024990e-06	-1.700214e-08	-4.788368e+01	-1.116471e+03
3.100000e-07	-6.938041e-06	-1.694469e-08	-4.729102e+01	-1.112901e+03
3.200000e-07	-6.848742e-06	-1.689629e-08	-4.668234e+01	-1.109012e+03
3.300000e-07	-6.756929e-06	-1.683772e-08	-4.605653e+01	-1.104637e+03
3.400000e-07	-6.662700e-06	-1.674520e-08	-4.541425e+01	-1.099743e+03
3.500000e-07	-6.566125e-06	-1.667849e-08	-4.475597e+01	-1.094452e+03
3.600000e-07	-6.467086e-06	-1.659989e-08	-4.408091e+01	-1.088991e+03
3.700000e-07	-6.365682e-06	-1.652110e-08	-4.338972e+01	-1.083589e+03
3.800000e-07	-6.262013e-06	-1.642356e-08	-4.268309e+01	-1.078379e+03
3.900000e-07	-6.156061e-06	-1.635703e-08	-4.196090e+01	-1.073329e+03
4.000000e-07	-6.047861e-06	-1.628186e-08	-4.122338e+01	-1.068246e+03
4.100000e-07	-5.937521e-06	-1.618876e-08	-4.047129e+01	-1.062860e+03
4.200000e-07	-5.824978e-06	-1.608804e-08	-3.970417e+01	-1.056931e+03
4.300000e-07	-5.710150e-06	-1.598915e-08	-3.892148e+01	-1.050358e+03
4.400000e-07	-5.593053e-06	-1.590339e-08	-3.812333e+01	-1.043222e+03
4.500000e-07	-5.473848e-06	-1.580623e-08	-3.731080e+01	-1.035756e+03
4.600000e-07	-5.352740e-06	-1.569715e-08	-3.648530e+01	-1.028238e+03
4.700000e-07	-5.229662e-06	-1.557249e-08	-3.564638e+01	-1.020865e+03
4.800000e-07	-5.104660e-06	-1.545219e-08	-3.479434e+01	-1.013663e+03
4.900000e-07	-4.977860e-06	-1.533267e-08	-3.393005e+01	-1.006460e+03
5.000000e-07	-4.849275e-06	-1.520859e-08	-3.305359e+01	-9.989555e+02
5.100000e-07	-4.718953e-06	-1.507799e-08	-3.216529e+01	-9.908477e+02
5.200000e-07	-4.586885e-06	-1.495203e-08	-3.126509e+01	-9.819620e+02
5.300000e-07	-4.453203e-06	-1.482724e-08	-3.035389e+01	-9.723305e+02
5.400000e-07	-4.317941e-06	-1.468719e-08	-2.943192e+01	-9.621788e+02
5.500000e-07	-4.181052e-06	-1.452381e-08	-2.849886e+01	-9.518256e+02
5.600000e-07	-4.042644e-06	-1.435646e-08	-2.755544e+01	-9.415359e+02
5.700000e-07	-3.902595e-06	-1.419366e-08	-2.660084e+01	-9.313923e+02
5.800000e-07	-3.760891e-06	-1.402982e-08	-2.563495e+01	-9.212433e+02
5.900000e-07	-3.617771e-06	-1.385706e-08	-2.465942e+01	-9.107557e+02
6.000000e-07	-3.473281e-06	-1.367982e-08	-2.367455e+01	-8.995512e+02
6.100000e-07	-3.327479e-06	-1.350649e-08	-2.268074e+01	-8.873697e+02
6.200000e-07	-3.180500e-06	-1.332891e-08	-2.167890e+01	-8.741860e+02
6.300000e-07	-3.032428e-06	-1.313194e-08	-2.066961e+01	-8.602241e+02
6.400000e-07	-2.883399e-06	-1.290888e-08	-1.965380e+01	-8.458576e+02
6.500000e-07	-2.733435e-06	-1.268110e-08	-1.863162e+01	-8.314336e+02
6.600000e-07	-2.582511e-06	-1.245261e-08	-1.760289e+01	-8.170976e+02
6.700000e-07	-2.430642e-06	-1.221997e-08	-1.656773e+01	-8.026983e+02
6.800000e-07	-2.277845e-06	-1.197888e-08	-1.552623e+01	-7.878220e+02
6.900000e-07	-2.124239e-06	-1.173155e-08	-1.447922e+01	-7.719485e+02
7.000000e-07	-1.969905e-06	-1.147611e-08	-1.342725e+01	-7.546673e+02
7.100000e-07	-1.814829e-06	-1.120377e-08	-1.237023e+01	-7.358573e+02
7.200000e-07	-1.659075e-06	-1.091234e-08	-1.130858e+01	-7.157448e+02
7.300000e-07	-1.502706e-06	-1.060370e-08	-1.024273e+01	-6.948013e+02
7.400000e-07	-1.345796e-06	-1.028343e-08	-9.173201e+00	-6.735137e+02
7.500000e-07	-1.188386e-06	-9.949301e-09	-8.100264e+00	-6.521197e+02
7.600000e-07	-1.030452e-06	-9.599499e-09	-7.023758e+00	-6.304275e+02
7.700000e-07	-8.721377e-07	-9.230771e-09	-5.944658e+00	-6.078103e+02
7.800000e-07	-7.135528e-07	-8.844401e-09	-4.863713e+00	-5.834007e+02
7.900000e-07	-5.546995e-07	-8.436469e-09	-3.780938e+00	-5.564169e+02
8.000000e-07	-3.956543e-07	-7.997593e-09	-2.696856e+00	-5.264866e+02
8.100000e-07	-2.365098e-07	-7.522690e-09	-1.612097e+00	-4.938148e+02
8.200000e-07	-7.731292e-08	-7.016073e-09	-5.269797e-01	-4.590900e+02
8.300000e-07	8.187538e-08	-6.480257e-09	5.580784e-01	-4.231193e+02
8.400000e-07	2.410453e-07	-5.905402e-09	1.643011e+00	-3.863019e+02
8.500000e-07	4.001535e-07	-5.282459e-09	2.727523e+00	-3.481354e+02
8.600000e-07	5.591257e-07	-4.601394e-09	3.811108e+00	-3.069720e+02
8.700000e-07	7.178837e-07	-3.852864e-09	4.893233e+00	-2.601751e+02
8.800000e-07	8.763274e-07	-3.015521e-09	5.973216e+00	-2.047012e+02
8.900000e-07	1.034533e-06	-2.054109e-09	7.051579e+00	-1.379762e+02
9.000000e-07	1.192403e-06	-9.182466e-10	8.127646e+00	-5.881296e+01
9.100000e-07	1.349730e-06	4.374929e-10	9.200019e+00	3.192412e+01
9.200000e-07	1.506515e-06	2.002744e-09	1.026870e+01	1.311473e+02
9.300000e-07	1.662791e-06	3.672251e-09	1.133391e+01	2.339625e+02
9.400000e-07	1.818524e-06	5.273756e-09	1.239541e+01	3.345885e+02
9.500000e-07	1.973613e-06	6.672659e-09	1.345252e+01	4.275332e+02
9.600000e-07	2.127975e-06	7.824955e-09	1.450469e+01	5.086952e+02
9.700000e-07	2.281569e-06	8.761963e-09	1.555162e+01	5.760857e+02
9.800000e-07	2.434222e-06	9.534933e-09	1.659213e+01	6.299836e+02
9.900000e-07	2.585925e-06	1.018613e-08	1.762616e+01	6.725184e+02
1.000000e-06	2.736782e-06	1.074672e-08	1.865443e+01	7.068442e+02
1.010000e-06	2.886625e-06	1.123399e-08	1.967579e+01	7.361847e+02
1.020000e-06	3.035393e-06	1.166440e-08	2.068982e+01	7.630392e+02
1.030000e-06	3.183133e-06	1.205153e-08	2.169685e+01	7.887618e+02
1.040000e-06	3.329794e-06	1.240470e-08	2.269652e+01	8.135801e+02
1.050000e-06	3.475281e-06	1.272700e-08	2.368818e+01	8.369711e+02
1.060000e-06	3.619534e-06	1.302430e-08	2.467144e+01	8.582018e+02
1.070000e-06	3.762413e-06	1.329864e-08	2.564533e+01	8.768150e+02
1.080000e-06	3.903797e-06	1.355180e-08	2.660903e+01	8.928937e+02
1.090000e-06	4.043735e-06	1.378751e-08	2.756288e+01	9.070407e+02
1.100000e-06	4.182190e-06	1.400826e-08	2.850661e+01	9.201289e+02
1.110000e-06	4.319027e-06	1.421669e-08	2.943932e+01	9.329568e+02
1.120000e-06	4.454213e-06	1.441438e-08	3.036077e+01	9.459647e+02
1.130000e-06	4.587780e-06	1.460169e-08	3.127119e+01	9.591250e+02
1.140000e-06	4.719720e-06	1.477536e-08	3.217052e+01	9.720332e+02
1.150000e-06	4.849985e-06	1.494122e-08	3.305843e+01	9.841460e+02
1.160000e-06	4.978559e-06	1.510239e-08	3.393482e+01	9.950505e+02
1.170000e-06	5.105401e-06	1.525832e-08	3.479939e+01	1.004652e+03
1.180000e-06	5.230457e-06	1.540529e-08	3.565180e+01	1.013208e+03
1.190000e-06	5.353683e-06	1.554284e-08	3.649173e+01	1.021202e+03
1.200000e-06	5.474987e-06	1.567494e-08	3.731856e+01	1.029132e+03
1.210000e-06	5.594234e-06	1.580375e-08	3.813137e+01	1.037301e+03
1.220000e-06	5.711344e-06	1.592587e-08	3.892962e+01	1.045709e+03
1.230000e-06	5.826292e-06	1.603727e-08	3.971313e+01	1.054077e+03
1.240000e-06	5.939014e-06	1.614390e-08	4.048146e+01	1.061992e+03
1.250000e-06	6.049559e-06	1.625024e-08	4.123496e+01	1.069105e+03
1.260000e-06	6.158048e-06	1.635348e-08	4.197444e+01	1.075287e+03
1.270000e-06	6.264396e-06	1.644720e-08	4.269933e+01	1.080685e+03
1.280000e-06	6.368446e-06	1.653253e-08	4.340856e+01	1.085652e+03
1.290000e-06	6.470175e-06	1.661594e-08	4.410196e+01	1.090599e+03
1.300000e-06	6.569554e-06	1.669643e-08	4.477934e+01	1.095815e+03
1.310000e-06	6.666507e-06	1.677065e-08	4.544019e+01	1.101358e+03
1.320000e-06	6.761057e-06	1.684139e-08	4.608467e+01	1.107044e+03
1.330000e-06	6.853299e-06	1.691445e-08	4.671341e+01	1.112542e+03
1.340000e-06	6.943130e-06	1.698911e-08	4.732571e+01	1.117524e+03
1.350000e-06	7.030484e-06	1.705854e-08	4.792113e+01	1.121816e+03
1.360000e-06	7.115415e-06	1.711844e-08	4.850004e+01	1.125465e+03
1.370000e-06	7.197833e-06	1.717382e-08	4.906181e+01	1.128715e+03
1.380000e-06	7.277662e-06	1.723150e-08	4.960595e+01	1.131893e+03
1.390000e-06	7.354835e-06	1.729017e-08	5.013197e+01	1.135266e+03
1.400000e-06	7.429250e-06	1.734419e-08	5.063920e+01	1.138927e+03
1.410000e-06	7.500932e-06	1.739386e-08	5.112780e+01	1.142759e+03
1.420000e-06	7.569980e-06	1.744506e-08	5.159844e+01	1.146499e+03
1.430000e-06	7.636260e-06	1.749526e-08	5.205022e+01	1.149852e+03
1.440000e-06	7.699797e-06	1.753760e-08	5.248330e+01	1.152630e+03
1.450000e-06	7.760781e-06	1.757487e-08	5.289898e+01	1.154831e+03
1.460000e-06	7.819073e-06	1.761420e-08	5.329631e+01	1.156636e+03
1.470000e-06	7.874539e-06	1.765312e-08	5.367437e+01	1.158330e+03
1.480000e-06	7.926958e-06	1.768602e-08	5.403167e+01	1.160175e+03
1.490000e-06	7.976149e-06	1.771583e-08	5.436697e+01	1.162295e+03
1.500000e-06	8.022358e-06	1.774844e-08	5.468193e+01	1.164625e+03
1.510000e-06	8.065762e-06	1.778124e-08	5.497779e+01	1.166946e+03
1.520000e-06	8.106269e-06	1.780728e-08	5.525389e+01	1.168977e+03
1.530000e-06	8.143983e-06	1.782829e-08	5.551096e+01	1.170506e+03
1.540000e-06	8.178884e-06	1.785002e-08	5.574885e+01	1.171478e+03
1.550000e-06	8.210857e-06	1.787137e-08	5.596678e+01	1.172019e+03
1.560000e-06	8.240014e-06	1.788658e-08	5.616552e+01	1.172380e+03
1.570000e-06	8.266239e-06	1.789611e-08	5.634428e+01	1.172827e+03
1.580000e-06	8.289502e-06	1.790746e-08	5.650284e+01	1.173530e+03
1.590000e-06	8.309954e-06	1.792175e-08	5.664225e+01	1.174486e+03
1.600000e-06	8.327459e-06	1.793367e-08	5.676156e+01	1.175532e+03
1.610000e-06	8.341858e-06	1.794006e-08	5.685971e+01	1.176415e+03
1.620000e-06	8.353017e-06	1.794445e-08	5.693577e+01	1.176905e+03
1.630000e-06	8.361073e-06	1.794968e-08	5.699068e+01	1.176896e+03
1.640000e-06	8.366275e-06	1.795284e-08	5.702614e+01	1.176450e+03
1.650000e-06	8.368528e-06	1.795138e-08	5.704150e+01	1.175766e+03
1.660000e-06	8.367886e-06	1.794135e-08	5.703712e+01	1.175097e+03
1.670000e-06	8.364447e-06	1.793106e-08	5.701368e+01	1.174636e+03
1.680000e-06	8.358169e-06	1.792737e-08	5.697089e+01	1.174436e+03
1.690000e-06	8.349139e-06	1.792106e-08	5.690934e+01	1.174391e+03
1.700000e-06	8.337196e-06	1.791134e-08	5.682793e+01	1.174285e+03
1.710000e-06	8.322302e-06	1.790657e-08	5.672641e+01	1.173887e+03
1.720000e-06	8.304914e-06	1.791226e-08	5.660790e+01	1.173051e+03
1.730000e-06	8.285126e-06	1.788845e-08	5.647301e+01	1.171777e+03
1.740000e-06	8.262436e-06	1.778282e-08	5.631836e+01	1.170206e+03
1.750000e-06	8.236084e-06	1.777224e-08	5.613873e+01	1.168562e+03
1.760000e-06	8.205785e-06	1.778173e-08	5.593221e+01	1.167051e+03
1.770000e-06	8.172278e-06	1.776027e-08	5.570382e+01	1.165779e+03
1.780000e-06	8.136265e-06	1.778276e-08	5.545835e+01	1.164714e+03
1.790000e-06	8.097857e-06	1.784565e-08	5.519655e+01	1.163711e+03
1.800000e-06	8.057421e-06	1.773041e-08	5.492094e+01	1.162577e+03
1.810000e-06	8.014828e-06	1.770769e-08	5.463061e+01	1.161157e+03
1.820000e-06	7.969354e-06	1.774948e-08	5.432065e+01	1.159399e+03
1.830000e-06	7.921030e-06	1.759316e-08	5.399126e+01	1.157359e+03
1.840000e-06	7.869509e-06	1.767913e-08	5.364009e+01	1.155160e+03
1.850000e-06	7.814709e-06	1.761550e-08	5.326656e+01	1.152919e+03
1.860000e-06	7.757249e-06	1.762256e-08	5.287490e+01	1.150685e+03
1.870000e-06	7.696944e-06	1.764917e-08	5.246385e+01	1.148402e+03
1.880000e-06	7.633854e-06	1.747085e-08	5.203382e+01	1.145941e+03
1.890000e-06	7.568018e-06	1.747452e-08	5.158507e+01	1.143157e+03
1.900000e-06	7.499281e-06	1.735476e-08	5.111655e+01	1.139972e+03
1.910000e-06	7.427668e-06	1.732630e-08	5.062842e+01	1.136417e+03
1.920000e-06	7.353162e-06	1.729869e-08	5.012056e+01	1.132629e+03
1.930000e-06	7.275866e-06	1.726299e-08	4.959370e+01	1.128799e+03
1.940000e-06	7.195881e-06	1.727190e-08	4.904851e+01	1.125085e+03
1.950000e-06	7.113467e-06	1.713547e-08	4.848676e+01	1.121535e+03
1.960000e-06	7.028447e-06	1.711083e-08	4.790725e+01	1.118057e+03
1.970000e-06	6.940731e-06	1.696566e-08	4.730936e+01	1.114454e+03
1.980000e-06	6.850623e-06	1.690620e-08	4.669517e+01	1.110502e+03
1.990000e-06	6.758167e-06	1.687108e-08	4.606497e+01	1.106049e+03
2.000000e-06	6.663305e-06	1.681542e-08	4.541837e+01	1.101087e+03
2.010000e-06	6.566033e-06	1.677608e-08	4.475535e+01	1.095756e+03
2.020000e-06	6.466578e-06	1.666398e-08	4.407744e+01	1.090288e+03
2.030000e-06	6.364733e-06	1.660266e-08	4.338325e+01	1.084908e+03
2.040000e-06	6.260462e-06	1.647781e-08	4.267251e+01	1.079726e+03
2.050000e-06	6.153985e-06	1.641261e-08	4.194674e+01	1.074684e+03
2.060000e-06	6.045366e-06	1.630636e-08	4.120638e+01	1.069575e+03
2.070000e-06	5.934600e-06	1.623593e-08	4.045138e+01	1.064122e+03
2.080000e-06	5.821540e-06	1.614674e-08	3.968074e+01	1.058102e+03
2.090000e-06	5.706243e-06	1.604894e-08	3.889485e+01	1.051438e+03
2.100000e-06	5.588611e-06	1.594801e-08	3.809305e+01	1.044237e+03
2.110000e-06	5.468822e-06	1.582185e-08	3.727655e+01	1.036746e+03
2.120000e-06	5.347141e-06	1.572309e-08	3.644714e+01	1.029238e+03
2.130000e-06	5.223604e-06	1.560016e-08	3.560509e+01	1.021892e+03
2.140000e-06	5.098226e-06	1.549898e-08	3.475049e+01	1.014703e+03
2.150000e-06	4.970970e-06	1.537234e-08	3.388309e+01	1.007476e+03
2.160000e-06	4.841896e-06	1.525716e-08	3.300329e+01	9.999008e+02
2.170000e-06	4.711067e-06	1.512366e-08	3.211154e+01	9.916869e+02
2.180000e-06	4.578582e-06	1.498494e-08	3.120850e+01	9.826864e+02
2.190000e-06	4.444530e-06	1.484152e-08	3.029477e+01	9.729620e+02
2.200000e-06	4.308855e-06	1.470333e-08	2.936998e+01	9.627604e+02
2.210000e-06	4.171530e-06	1.455821e-08	2.843395e+01	9.524019e+02
2.220000e-06	4.032663e-06	1.440578e-08	2.748741e+01	9.421322e+02
2.230000e-06	3.892320e-06	1.424267e-08	2.653080e+01	9.320012e+02
2.240000e-06	3.750498e-06	1.407509e-08	2.556411e+01	9.218258e+02
2.250000e-06	3.607242e-06	1.390414e-08	2.458765e+01	9.112567e+02
2.260000e-06	3.462713e-06	1.372013e-08	2.360252e+01	8.999228e+02
2.270000e-06	3.316960e-06	1.353147e-08	2.260903e+01	8.875922e+02
2.280000e-06	3.169982e-06	1.333432e-08	2.160721e+01	8.742773e+02
2.290000e-06	3.021880e-06	1.314097e-08	2.059772e+01	8.602321e+02
2.300000e-06	2.872794e-06	1.293607e-08	1.958152e+01	8.458379e+02
2.310000e-06	2.722767e-06	1.272290e-08	1.855891e+01	8.314228e+02
2.320000e-06	2.571725e-06	1.249673e-08	1.752937e+01	8.170929e+02
2.330000e-06	2.419722e-06	1.226290e-08	1.649329e+01	8.026543e+02
2.340000e-06	2.266812e-06	1.201801e-08	1.545103e+01	7.876660e+02
2.350000e-06	2.113043e-06	1.176070e-08	1.440290e+01	7.716101e+02
2.360000e-06	1.958555e-06	1.149233e-08	1.334989e+01	7.541085e+02
2.370000e-06	1.803378e-06	1.121745e-08	1.229217e+01	7.350899e+02
2.380000e-06	1.647538e-06	1.093281e-08	1.122993e+01	7.148253e+02
2.390000e-06	1.491121e-06	1.063238e-08	1.016377e+01	6.938046e+02
2.400000e-06	1.334172e-06	1.031323e-08	9.093976e+00	6.724948e+02
2.410000e-06	1.176727e-06	9.975096e-09	8.020800e+00	6.510798e+02
2.420000e-06	1.018839e-06	9.620631e-09	6.944602e+00	6.293012e+02
2.430000e-06	8.605662e-07	9.244568e-09	5.865785e+00	6.064817e+02
2.440000e-06	7.019615e-07	8.848391e-09	4.784705e+00	5.817446e+02
2.450000e-06	5.431398e-07	8.431774e-09	3.702146e+00	5.543487e+02
2.460000e-06	3.841322e-07	7.995443e-09	2.618319e+00	5.239993e+02
2.470000e-06	2.249855e-07	7.534537e-09	1.533544e+00	4.909831e+02
2.480000e-06	6.576354e-08	7.036008e-09	4.482570e-01	4.560332e+02
2.490000e-06	-9.349351e-08	6.494237e-09	-6.372697e-01	4.199323e+02
2.500000e-06	-2.526752e-07	5.905336e-09	-1.722283e+00	3.829773e+02
2.510000e-06	-4.117361e-07	5.271421e-09	-2.806473e+00	3.445092e+02
2.520000e-06	-5.706542e-07	4.585302e-09	-3.889689e+00	3.027188e+02
2.530000e-06	-7.293479e-07	3.832676e-09	-4.971375e+00	2.548669e+02
2.540000e-06	-8.877831e-07	2.994252e-09	-6.051301e+00	1.979192e+02
2.550000e-06	-1.045840e-06	2.032582e-09	-7.128647e+00	1.294462e+02
2.560000e-06	-1.203424e-06	8.959797e-10	-8.202772e+00	4.852274e+01
2.570000e-06	-1.360552e-06	-4.684103e-10	-9.273782e+00	-4.366626e+01
2.580000e-06	-1.517165e-06	-2.051669e-09	-1.034129e+01	-1.437359e+02
2.590000e-06	-1.673234e-06	-3.740108e-09	-1.140508e+01	-2.465999e+02
2.600000e-06	-1.828735e-06	-5.353390e-09	-1.246501e+01	-3.464444e+02
2.610000e-06	-1.983598e-06	-6.751729e-09	-1.352059e+01	-4.379144e+02
2.620000e-06	-2.137686e-06	-7.898824e-09	-1.457088e+01	-5.171780e+02
2.630000e-06	-2.290940e-06	-8.827972e-09	-1.561549e+01	-5.825749e+02
2.640000e-06	-2.443330e-06	-9.593379e-09	-1.665421e+01	-6.346863e+02
2.650000e-06	-2.594845e-06	-1.024259e-08	-1.768696e+01	-6.758447e+02
2.660000e-06	-2.745450e-06	-1.080827e-08	-1.871351e+01	-7.092718e+02
2.670000e-06	-2.895076e-06	-1.130805e-08	-1.973340e+01	-7.381296e+02
2.680000e-06	-3.043658e-06	-1.175030e-08	-2.074616e+01	-7.647691e+02
2.690000e-06	-3.191150e-06	-1.214419e-08	-2.175149e+01	-7.903726e+02
2.700000e-06	-3.337565e-06	-1.249777e-08	-2.274949e+01	-8.150312e+02
2.710000e-06	-3.482710e-06	-1.281555e-08	-2.373883e+01	-8.381578e+02
2.720000e-06	-3.626547e-06	-1.310333e-08	-2.471924e+01	-8.590327e+02
2.730000e-06	-3.769143e-06	-1.336870e-08	-2.569120e+01	-8.772664e+02
2.740000e-06	-3.910340e-06	-1.362049e-08	-2.665363e+01	-8.930236e+02
2.750000e-06	-4.049997e-06	-1.386233e-08	-2.760556e+01	-9.069651e+02
2.760000e-06	-4.188100e-06	-1.409265e-08	-2.854690e+01	-9.199743e+02
2.770000e-06	-4.324580e-06	-1.430896e-08	-2.947717e+01	-9.328128e+02
2.780000e-06	-4.459485e-06	-1.451162e-08	-3.039671e+01	-9.458561e+02
2.790000e-06	-4.592875e-06	-1.469760e-08	-3.130592e+01	-9.590125e+02
2.800000e-06	-4.724639e-06	-1.486630e-08	-3.220405e+01	-9.718414e+02
2.810000e-06	-4.854715e-06	-1.502599e-08	-3.309067e+01	-9.838020e+02
2.820000e-06	-4.983047e-06	-1.518197e-08	-3.396541e+01	-9.945188e+02
2.830000e-06	-5.109671e-06	-1.533409e-08	-3.482850e+01	-1.003950e+03
2.840000e-06	-5.234523e-06	-1.548026e-08	-3.567952e+01	-1.012394e+03
2.850000e-06	-5.357473e-06	-1.562042e-08	-3.651757e+01	-1.020352e+03
2.860000e-06	-5.478468e-06	-1.575406e-08	-3.734229e+01	-1.028305e+03
2.870000e-06	-5.597470e-06	-1.587756e-08	-3.815343e+01	-1.036517e+03
2.880000e-06	-5.714275e-06	-1.599051e-08	-3.894960e+01	-1.044943e+03
2.890000e-06	-5.828758e-06	-1.609673e-08	-3.972994e+01	-1.053273e+03
2.900000e-06	-5.940915e-06	-1.620086e-08	-4.049442e+01	-1.061092e+03
2.910000e-06	-6.050733e-06	-1.630147e-08	-4.124296e+01	-1.068075e+03
2.920000e-06	-6.158440e-06	-1.639708e-08	-4.197712e+01	-1.074131e+03
2.930000e-06	-6.264095e-06	-1.648925e-08	-4.269727e+01	-1.079443e+03
2.940000e-06	-6.367591e-06	-1.657899e-08	-4.340272e+01	-1.084385e+03
