# Temperatura_=_70.72
# Concentracion g/m^3_=_13400.0
# C_Vs_to_Am_M_A/Vsm_=_65563218390.804596
# pendiente_HvsI_1/m_=_3716.3
# ordenada_HvsI_A/m_=_1297.0
# frecuencia_Hz_=_301441.27993637475

Tiempo_(s)	Campo_(V.s)	Magnetizacion_(V.s)	Campo_(kA/m)	Magnetizacion_(A/m)
0.000000e+00	-8.328299e-06	-1.898884e-08	-5.691331e+01	-1.246391e+03
1.000000e-08	-8.325160e-06	-1.898766e-08	-5.689186e+01	-1.246135e+03
2.000000e-08	-8.319341e-06	-1.898075e-08	-5.685209e+01	-1.246094e+03
3.000000e-08	-8.310885e-06	-1.897383e-08	-5.679431e+01	-1.246069e+03
4.000000e-08	-8.299545e-06	-1.896181e-08	-5.671681e+01	-1.245794e+03
5.000000e-08	-8.285169e-06	-1.894404e-08	-5.661857e+01	-1.245053e+03
6.000000e-08	-8.267796e-06	-1.892074e-08	-5.649985e+01	-1.243776e+03
7.000000e-08	-8.247862e-06	-1.888615e-08	-5.636363e+01	-1.242064e+03
8.000000e-08	-8.225432e-06	-1.890874e-08	-5.621035e+01	-1.240149e+03
9.000000e-08	-8.199849e-06	-1.896590e-08	-5.603552e+01	-1.238294e+03
1.000000e-07	-8.170883e-06	-1.891742e-08	-5.583757e+01	-1.236680e+03
1.100000e-07	-8.138805e-06	-1.885812e-08	-5.561836e+01	-1.235340e+03
1.200000e-07	-8.103752e-06	-1.882977e-08	-5.537882e+01	-1.234148e+03
1.300000e-07	-8.065980e-06	-1.877469e-08	-5.512069e+01	-1.232880e+03
1.400000e-07	-8.025889e-06	-1.865954e-08	-5.484672e+01	-1.231315e+03
1.500000e-07	-7.983432e-06	-1.864705e-08	-5.455659e+01	-1.229327e+03
1.600000e-07	-7.938196e-06	-1.873193e-08	-5.424745e+01	-1.226929e+03
1.700000e-07	-7.890077e-06	-1.859855e-08	-5.391862e+01	-1.224249e+03
1.800000e-07	-7.839028e-06	-1.865157e-08	-5.356976e+01	-1.221462e+03
1.900000e-07	-7.784914e-06	-1.862946e-08	-5.319997e+01	-1.218691e+03
2.000000e-07	-7.727957e-06	-1.847254e-08	-5.281074e+01	-1.215948e+03
2.100000e-07	-7.668206e-06	-1.844023e-08	-5.240242e+01	-1.213120e+03
2.200000e-07	-7.605717e-06	-1.832830e-08	-5.197538e+01	-1.210030e+03
2.300000e-07	-7.540514e-06	-1.834324e-08	-5.152980e+01	-1.206519e+03
2.400000e-07	-7.472432e-06	-1.829039e-08	-5.106455e+01	-1.202531e+03
2.500000e-07	-7.401561e-06	-1.824958e-08	-5.058023e+01	-1.198153e+03
2.600000e-07	-7.327937e-06	-1.821296e-08	-5.007711e+01	-1.193581e+03
2.700000e-07	-7.251497e-06	-1.813109e-08	-4.955474e+01	-1.189040e+03
2.800000e-07	-7.172250e-06	-1.805599e-08	-4.901319e+01	-1.184676e+03
2.900000e-07	-7.090233e-06	-1.792872e-08	-4.845271e+01	-1.180490e+03
3.000000e-07	-7.005729e-06	-1.789367e-08	-4.787523e+01	-1.176324e+03
3.100000e-07	-6.918938e-06	-1.783078e-08	-4.728212e+01	-1.171924e+03
3.200000e-07	-6.829801e-06	-1.776837e-08	-4.667299e+01	-1.167046e+03
3.300000e-07	-6.738169e-06	-1.770239e-08	-4.604680e+01	-1.161564e+03
3.400000e-07	-6.644087e-06	-1.759150e-08	-4.540387e+01	-1.155528e+03
3.500000e-07	-6.547669e-06	-1.751153e-08	-4.474497e+01	-1.149147e+03
3.600000e-07	-6.448830e-06	-1.741764e-08	-4.406953e+01	-1.142694e+03
3.700000e-07	-6.347666e-06	-1.732510e-08	-4.337821e+01	-1.136392e+03
3.800000e-07	-6.244151e-06	-1.721439e-08	-4.267082e+01	-1.130309e+03
3.900000e-07	-6.138324e-06	-1.712768e-08	-4.194762e+01	-1.124321e+03
4.000000e-07	-6.030332e-06	-1.703479e-08	-4.120963e+01	-1.118165e+03
4.100000e-07	-5.920231e-06	-1.691974e-08	-4.045723e+01	-1.111550e+03
4.200000e-07	-5.807997e-06	-1.680488e-08	-3.969026e+01	-1.104282e+03
4.300000e-07	-5.693527e-06	-1.669104e-08	-3.890800e+01	-1.096354e+03
4.400000e-07	-5.576792e-06	-1.659098e-08	-3.811027e+01	-1.087949e+03
4.500000e-07	-5.457891e-06	-1.647975e-08	-3.729773e+01	-1.079358e+03
4.600000e-07	-5.337010e-06	-1.635607e-08	-3.647166e+01	-1.070849e+03
4.700000e-07	-5.214245e-06	-1.621241e-08	-3.563272e+01	-1.062538e+03
4.800000e-07	-5.089603e-06	-1.606975e-08	-3.478095e+01	-1.054330e+03
4.900000e-07	-4.963103e-06	-1.593173e-08	-3.391648e+01	-1.045949e+03
5.000000e-07	-4.834854e-06	-1.578930e-08	-3.304007e+01	-1.037055e+03
5.100000e-07	-4.704880e-06	-1.564162e-08	-3.215186e+01	-1.027393e+03
5.200000e-07	-4.573173e-06	-1.549558e-08	-3.125181e+01	-1.016909e+03
5.300000e-07	-4.439825e-06	-1.535127e-08	-3.034055e+01	-1.005778e+03
5.400000e-07	-4.304882e-06	-1.519338e-08	-2.941839e+01	-9.943304e+02
5.500000e-07	-4.168353e-06	-1.501225e-08	-2.848538e+01	-9.829021e+02
5.600000e-07	-4.030354e-06	-1.482481e-08	-2.754233e+01	-9.716761e+02
5.700000e-07	-3.890773e-06	-1.464065e-08	-2.658847e+01	-9.605848e+02
5.800000e-07	-3.749509e-06	-1.445844e-08	-2.562312e+01	-9.493220e+02
5.900000e-07	-3.606757e-06	-1.426725e-08	-2.464759e+01	-9.374639e+02
6.000000e-07	-3.462687e-06	-1.406981e-08	-2.366305e+01	-9.246504e+02
6.100000e-07	-3.317345e-06	-1.387483e-08	-2.266983e+01	-9.107463e+02
6.200000e-07	-3.170736e-06	-1.367600e-08	-2.166794e+01	-8.959080e+02
6.300000e-07	-3.022973e-06	-1.345941e-08	-2.065817e+01	-8.805201e+02
6.400000e-07	-2.874192e-06	-1.321850e-08	-1.964144e+01	-8.650227e+02
6.500000e-07	-2.724480e-06	-1.297218e-08	-1.861835e+01	-8.497010e+02
6.600000e-07	-2.573866e-06	-1.272530e-08	-1.758909e+01	-8.345308e+02
6.700000e-07	-2.422335e-06	-1.247502e-08	-1.655357e+01	-8.191549e+02
6.800000e-07	-2.269921e-06	-1.221260e-08	-1.551201e+01	-8.030092e+02
6.900000e-07	-2.116691e-06	-1.194380e-08	-1.446488e+01	-7.855529e+02
7.000000e-07	-1.962659e-06	-1.166935e-08	-1.341227e+01	-7.665036e+02
7.100000e-07	-1.807971e-06	-1.138070e-08	-1.235518e+01	-7.459699e+02
7.200000e-07	-1.652657e-06	-1.107280e-08	-1.129380e+01	-7.244115e+02
7.300000e-07	-1.496639e-06	-1.074514e-08	-1.022762e+01	-7.024285e+02
7.400000e-07	-1.340052e-06	-1.040512e-08	-9.157545e+00	-6.804595e+02
7.500000e-07	-1.182994e-06	-1.005117e-08	-8.084254e+00	-6.585189e+02
7.600000e-07	-1.025488e-06	-9.681699e-09	-7.007907e+00	-6.360977e+02
7.700000e-07	-8.676078e-07	-9.293568e-09	-5.928994e+00	-6.122914e+02
7.800000e-07	-7.094220e-07	-8.886702e-09	-4.847995e+00	-5.861233e+02
7.900000e-07	-5.509813e-07	-8.455189e-09	-3.765255e+00	-5.569374e+02
8.000000e-07	-3.923492e-07	-7.994585e-09	-2.681207e+00	-5.246876e+02
8.100000e-07	-2.335929e-07	-7.498911e-09	-1.596310e+00	-4.899689e+02
8.200000e-07	-7.476347e-08	-6.967030e-09	-5.109130e-01	-4.537296e+02
8.300000e-07	8.409807e-08	-6.401316e-09	5.747031e-01	-4.167295e+02
8.400000e-07	2.429524e-07	-5.793951e-09	1.660270e+00	-3.789316e+02
8.500000e-07	4.017107e-07	-5.130921e-09	2.745181e+00	-3.390716e+02
8.600000e-07	5.603104e-07	-4.394104e-09	3.829007e+00	-2.946219e+02
8.700000e-07	7.187072e-07	-3.573463e-09	4.911447e+00	-2.422441e+02
8.800000e-07	8.768136e-07	-2.643439e-09	5.991903e+00	-1.786607e+02
8.900000e-07	1.034651e-06	-1.559291e-09	7.070524e+00	-1.017087e+02
9.000000e-07	1.192188e-06	-2.558634e-10	8.147087e+00	-1.125221e+01
9.100000e-07	1.349277e-06	1.303178e-09	9.220588e+00	9.035911e+01
9.200000e-07	1.505847e-06	3.057633e-09	1.029055e+01	1.984723e+02
9.300000e-07	1.661794e-06	4.831770e-09	1.135624e+01	3.069463e+02
9.400000e-07	1.817004e-06	6.423769e-09	1.241691e+01	4.093925e+02
9.500000e-07	1.971506e-06	7.740620e-09	1.347273e+01	5.004953e+02
9.600000e-07	2.125302e-06	8.795094e-09	1.452373e+01	5.770392e+02
9.700000e-07	2.278348e-06	9.646613e-09	1.556961e+01	6.383645e+02
9.800000e-07	2.430590e-06	1.034931e-08	1.660998e+01	6.861529e+02
9.900000e-07	2.581946e-06	1.094705e-08	1.764431e+01	7.236538e+02
1.000000e-06	2.732377e-06	1.147110e-08	1.867232e+01	7.546217e+02
1.010000e-06	2.881886e-06	1.193416e-08	1.969402e+01	7.823046e+02
1.020000e-06	3.030380e-06	1.234986e-08	2.070879e+01	8.087711e+02
1.030000e-06	3.177759e-06	1.272777e-08	2.171593e+01	8.347284e+02
1.040000e-06	3.323985e-06	1.307355e-08	2.271520e+01	8.598037e+02
1.050000e-06	3.469014e-06	1.339065e-08	2.370629e+01	8.831165e+02
1.060000e-06	3.612777e-06	1.368471e-08	2.468873e+01	9.038921e+02
1.070000e-06	3.755228e-06	1.395818e-08	2.566220e+01	9.218908e+02
1.080000e-06	3.896285e-06	1.421503e-08	2.662614e+01	9.375249e+02
1.090000e-06	4.035790e-06	1.445910e-08	2.757948e+01	9.516724e+02
1.100000e-06	4.173756e-06	1.469104e-08	2.852230e+01	9.653069e+02
1.110000e-06	4.310186e-06	1.490994e-08	2.945463e+01	9.791219e+02
1.120000e-06	4.445033e-06	1.511675e-08	3.037614e+01	9.933065e+02
1.130000e-06	4.578296e-06	1.531209e-08	3.128682e+01	1.007550e+03
1.140000e-06	4.709896e-06	1.549746e-08	3.218613e+01	1.021253e+03
1.150000e-06	4.839813e-06	1.567774e-08	3.307396e+01	1.033833e+03
1.160000e-06	4.968054e-06	1.584926e-08	3.395032e+01	1.045001e+03
1.170000e-06	5.094568e-06	1.601298e-08	3.481488e+01	1.054872e+03
1.180000e-06	5.219287e-06	1.617137e-08	3.566717e+01	1.063910e+03
1.190000e-06	5.342089e-06	1.632497e-08	3.650637e+01	1.072709e+03
1.200000e-06	5.462979e-06	1.647007e-08	3.733250e+01	1.081738e+03
1.210000e-06	5.581926e-06	1.660728e-08	3.814535e+01	1.091159e+03
1.220000e-06	5.698707e-06	1.674244e-08	3.894340e+01	1.100780e+03
1.230000e-06	5.813229e-06	1.687361e-08	3.972601e+01	1.110162e+03
1.240000e-06	5.925535e-06	1.699810e-08	4.049348e+01	1.118837e+03
1.250000e-06	6.035809e-06	1.711644e-08	4.124706e+01	1.126508e+03
1.260000e-06	6.144080e-06	1.722800e-08	4.198696e+01	1.133183e+03
1.270000e-06	6.250120e-06	1.733404e-08	4.271160e+01	1.139157e+03
1.280000e-06	6.353849e-06	1.743782e-08	4.342046e+01	1.144883e+03
1.290000e-06	6.455303e-06	1.753806e-08	4.411377e+01	1.150768e+03
1.300000e-06	6.554397e-06	1.763161e-08	4.479095e+01	1.157011e+03
1.310000e-06	6.651079e-06	1.771848e-08	4.545165e+01	1.163534e+03
1.320000e-06	6.745435e-06	1.780221e-08	4.609645e+01	1.170026e+03
1.330000e-06	6.837409e-06	1.788370e-08	4.672498e+01	1.176104e+03
1.340000e-06	6.926912e-06	1.796297e-08	4.733661e+01	1.181477e+03
1.350000e-06	7.013991e-06	1.804129e-08	4.793169e+01	1.186078e+03
1.360000e-06	7.098692e-06	1.811512e-08	4.851051e+01	1.190086e+03
1.370000e-06	7.180881e-06	1.818254e-08	4.907217e+01	1.193840e+03
1.380000e-06	7.260465e-06	1.824653e-08	4.961602e+01	1.197688e+03
1.390000e-06	7.337418e-06	1.831120e-08	5.014190e+01	1.201838e+03
1.400000e-06	7.411559e-06	1.837439e-08	5.064856e+01	1.206273e+03
1.410000e-06	7.482977e-06	1.843237e-08	5.113661e+01	1.210768e+03
1.420000e-06	7.551789e-06	1.848816e-08	5.160685e+01	1.215000e+03
1.430000e-06	7.617852e-06	1.854406e-08	5.205831e+01	1.218688e+03
1.440000e-06	7.681230e-06	1.859736e-08	5.249142e+01	1.221725e+03
1.450000e-06	7.742014e-06	1.864609e-08	5.290680e+01	1.224211e+03
1.460000e-06	7.800030e-06	1.869086e-08	5.330327e+01	1.226412e+03
1.470000e-06	7.855259e-06	1.873268e-08	5.368069e+01	1.228632e+03
1.480000e-06	7.907464e-06	1.877305e-08	5.403744e+01	1.231082e+03
1.490000e-06	7.956436e-06	1.881354e-08	5.437210e+01	1.233788e+03
1.500000e-06	8.002568e-06	1.885436e-08	5.468735e+01	1.236584e+03
1.510000e-06	8.045898e-06	1.889088e-08	5.498346e+01	1.239189e+03
1.520000e-06	8.086286e-06	1.891954e-08	5.525946e+01	1.241334e+03
1.530000e-06	8.123867e-06	1.894465e-08	5.551627e+01	1.242884e+03
1.540000e-06	8.158586e-06	1.896898e-08	5.575354e+01	1.243891e+03
1.550000e-06	8.190414e-06	1.899049e-08	5.597104e+01	1.244572e+03
1.560000e-06	8.219493e-06	1.900717e-08	5.616976e+01	1.245212e+03
1.570000e-06	8.245637e-06	1.902453e-08	5.634842e+01	1.246036e+03
1.580000e-06	8.268772e-06	1.904685e-08	5.650652e+01	1.247118e+03
1.590000e-06	8.289132e-06	1.906717e-08	5.664565e+01	1.248344e+03
1.600000e-06	8.306543e-06	1.907649e-08	5.676463e+01	1.249475e+03
1.610000e-06	8.320827e-06	1.907845e-08	5.686225e+01	1.250253e+03
1.620000e-06	8.331885e-06	1.908205e-08	5.693782e+01	1.250515e+03
1.630000e-06	8.339821e-06	1.908723e-08	5.699205e+01	1.250270e+03
1.640000e-06	8.344908e-06	1.908956e-08	5.702681e+01	1.249692e+03
1.650000e-06	8.347057e-06	1.909012e-08	5.704150e+01	1.249043e+03
1.660000e-06	8.346374e-06	1.908771e-08	5.703683e+01	1.248557e+03
1.670000e-06	8.342973e-06	1.908196e-08	5.701358e+01	1.248338e+03
1.680000e-06	8.336698e-06	1.907743e-08	5.697071e+01	1.248313e+03
1.690000e-06	8.327628e-06	1.906470e-08	5.690873e+01	1.248268e+03
1.700000e-06	8.315631e-06	1.904779e-08	5.682674e+01	1.247935e+03
1.710000e-06	8.300710e-06	1.903964e-08	5.672478e+01	1.247118e+03
1.720000e-06	8.283352e-06	1.904522e-08	5.660616e+01	1.245767e+03
1.730000e-06	8.263547e-06	1.902183e-08	5.647082e+01	1.244010e+03
1.740000e-06	8.240801e-06	1.889307e-08	5.631537e+01	1.242087e+03
1.750000e-06	8.214428e-06	1.887420e-08	5.613515e+01	1.240257e+03
1.760000e-06	8.184141e-06	1.888831e-08	5.592817e+01	1.238684e+03
1.770000e-06	8.150685e-06	1.885405e-08	5.569955e+01	1.237375e+03
1.780000e-06	8.114714e-06	1.886304e-08	5.545373e+01	1.236186e+03
1.790000e-06	8.076348e-06	1.895479e-08	5.519154e+01	1.234886e+03
1.800000e-06	8.035989e-06	1.882723e-08	5.491574e+01	1.233265e+03
1.810000e-06	7.993443e-06	1.876983e-08	5.462500e+01	1.231214e+03
1.820000e-06	7.947932e-06	1.885115e-08	5.431399e+01	1.228764e+03
1.830000e-06	7.899613e-06	1.865850e-08	5.398379e+01	1.226058e+03
1.840000e-06	7.848174e-06	1.874657e-08	5.363227e+01	1.223267e+03
1.850000e-06	7.793428e-06	1.867181e-08	5.325815e+01	1.220502e+03
1.860000e-06	7.736002e-06	1.863910e-08	5.286571e+01	1.217754e+03
1.870000e-06	7.675765e-06	1.869191e-08	5.245407e+01	1.214900e+03
1.880000e-06	7.612765e-06	1.848281e-08	5.202355e+01	1.211757e+03
1.890000e-06	7.546994e-06	1.849397e-08	5.157409e+01	1.208177e+03
1.900000e-06	7.478352e-06	1.834714e-08	5.110500e+01	1.204124e+03
1.910000e-06	7.406843e-06	1.829646e-08	5.061633e+01	1.199704e+03
1.920000e-06	7.332464e-06	1.827415e-08	5.010805e+01	1.195122e+03
1.930000e-06	7.255386e-06	1.820723e-08	4.958131e+01	1.190599e+03
1.940000e-06	7.175593e-06	1.823345e-08	4.903603e+01	1.186264e+03
1.950000e-06	7.093324e-06	1.806833e-08	4.847383e+01	1.182093e+03
1.960000e-06	7.008504e-06	1.803601e-08	4.789419e+01	1.177909e+03
1.970000e-06	6.921018e-06	1.788404e-08	4.729634e+01	1.173453e+03
1.980000e-06	6.831168e-06	1.779505e-08	4.668232e+01	1.168492e+03
1.990000e-06	6.738929e-06	1.775389e-08	4.605199e+01	1.162922e+03
2.000000e-06	6.644284e-06	1.766912e-08	4.540522e+01	1.156821e+03
2.010000e-06	6.547304e-06	1.762552e-08	4.474248e+01	1.150411e+03
2.020000e-06	6.448020e-06	1.749129e-08	4.406400e+01	1.143968e+03
2.030000e-06	6.346296e-06	1.741900e-08	4.336884e+01	1.137697e+03
2.040000e-06	6.242248e-06	1.727627e-08	4.265781e+01	1.131638e+03
2.050000e-06	6.136013e-06	1.718972e-08	4.193183e+01	1.125644e+03
2.060000e-06	6.027650e-06	1.707033e-08	4.119130e+01	1.119439e+03
2.070000e-06	5.917167e-06	1.697771e-08	4.043630e+01	1.112737e+03
2.080000e-06	5.804358e-06	1.687425e-08	3.966539e+01	1.105370e+03
2.090000e-06	5.689218e-06	1.675649e-08	3.887856e+01	1.097358e+03
2.100000e-06	5.571782e-06	1.663841e-08	3.807603e+01	1.088906e+03
2.110000e-06	5.452279e-06	1.649143e-08	3.725938e+01	1.080313e+03
2.120000e-06	5.330877e-06	1.637498e-08	3.642975e+01	1.071829e+03
2.130000e-06	5.207638e-06	1.623239e-08	3.558757e+01	1.063543e+03
2.140000e-06	5.082523e-06	1.611254e-08	3.473257e+01	1.055329e+03
2.150000e-06	4.955477e-06	1.596357e-08	3.386437e+01	1.046894e+03
2.160000e-06	4.826655e-06	1.582574e-08	3.298404e+01	1.037901e+03
2.170000e-06	4.696193e-06	1.567141e-08	3.209250e+01	1.028119e+03
2.180000e-06	4.564129e-06	1.551244e-08	3.119000e+01	1.017526e+03
2.190000e-06	4.430443e-06	1.534715e-08	3.027643e+01	1.006327e+03
2.200000e-06	4.295106e-06	1.518598e-08	2.935158e+01	9.948621e+02
2.210000e-06	4.158103e-06	1.502171e-08	2.841533e+01	9.834559e+02
2.220000e-06	4.019573e-06	1.485507e-08	2.746866e+01	9.722587e+02
2.230000e-06	3.879548e-06	1.467841e-08	2.651177e+01	9.611653e+02
2.240000e-06	3.738106e-06	1.449098e-08	2.554519e+01	9.498430e+02
2.250000e-06	3.595229e-06	1.429488e-08	2.456881e+01	9.378659e+02
2.260000e-06	3.450977e-06	1.408604e-08	2.358303e+01	9.248974e+02
2.270000e-06	3.305496e-06	1.387347e-08	2.258885e+01	9.108427e+02
2.280000e-06	3.158855e-06	1.365229e-08	2.158675e+01	8.958979e+02
2.290000e-06	3.011162e-06	1.343906e-08	2.057745e+01	8.804679e+02
2.300000e-06	2.862483e-06	1.321960e-08	1.956142e+01	8.649834e+02
2.310000e-06	2.712845e-06	1.299459e-08	1.853884e+01	8.496922e+02
2.320000e-06	2.562124e-06	1.275136e-08	1.750885e+01	8.345204e+02
2.330000e-06	2.410395e-06	1.249596e-08	1.647198e+01	8.190704e+02
2.340000e-06	2.257864e-06	1.222674e-08	1.542962e+01	8.027660e+02
2.350000e-06	2.104536e-06	1.194405e-08	1.438182e+01	7.850902e+02
2.360000e-06	1.950379e-06	1.165009e-08	1.332836e+01	7.658118e+02
2.370000e-06	1.795498e-06	1.135223e-08	1.226994e+01	7.450964e+02
2.380000e-06	1.640016e-06	1.105244e-08	1.120742e+01	7.234402e+02
2.390000e-06	1.483988e-06	1.074273e-08	1.014116e+01	7.014390e+02
2.400000e-06	1.327441e-06	1.041314e-08	9.071370e+00	6.794844e+02
2.410000e-06	1.170405e-06	1.005930e-08	7.998226e+00	6.575172e+02
2.420000e-06	1.012981e-06	9.682713e-09	6.922434e+00	6.349585e+02
2.430000e-06	8.552698e-07	9.282156e-09	5.844679e+00	6.108704e+02
2.440000e-06	6.972692e-07	8.860675e-09	4.764947e+00	5.842985e+02
2.450000e-06	5.390024e-07	8.421143e-09	3.683395e+00	5.546608e+02
2.460000e-06	3.804723e-07	7.965068e-09	2.600043e+00	5.220082e+02
2.470000e-06	2.217692e-07	7.481073e-09	1.515510e+00	4.870110e+02
2.480000e-06	6.301150e-08	6.955587e-09	4.306033e-01	4.506279e+02
2.490000e-06	-9.576873e-08	6.384154e-09	-6.544572e-01	4.135406e+02
2.500000e-06	-2.544754e-07	5.764025e-09	-1.739015e+00	3.755559e+02
2.510000e-06	-4.130161e-07	5.090470e-09	-2.822439e+00	3.352203e+02
2.520000e-06	-5.713697e-07	4.348185e-09	-3.904584e+00	2.898510e+02
2.530000e-06	-7.294575e-07	3.520377e-09	-4.984912e+00	2.360578e+02
2.540000e-06	-8.872549e-07	2.585473e-09	-6.063256e+00	1.706572e+02
2.550000e-06	-1.044785e-06	1.494787e-09	-7.139777e+00	9.172767e+01
2.560000e-06	-1.201947e-06	1.843416e-10	-8.213773e+00	-5.259195e-01
2.570000e-06	-1.358654e-06	-1.387151e-09	-9.284667e+00	-1.033980e+02
2.580000e-06	-1.514846e-06	-3.158239e-09	-1.035204e+01	-2.119600e+02
2.590000e-06	-1.670541e-06	-4.943594e-09	-1.141602e+01	-3.199536e+02
2.600000e-06	-1.825725e-06	-6.538730e-09	-1.247650e+01	-4.210656e+02
2.610000e-06	-1.980149e-06	-7.848483e-09	-1.353179e+01	-5.102285e+02
2.620000e-06	-2.133716e-06	-8.897008e-09	-1.458123e+01	-5.845796e+02
2.630000e-06	-2.286571e-06	-9.746431e-09	-1.562580e+01	-6.438219e+02
2.640000e-06	-2.438687e-06	-1.045199e-08	-1.666532e+01	-6.899189e+02
2.650000e-06	-2.589922e-06	-1.105462e-08	-1.769882e+01	-7.262594e+02
2.660000e-06	-2.740142e-06	-1.158315e-08	-1.872538e+01	-7.565823e+02
2.670000e-06	-2.889271e-06	-1.205547e-08	-1.974448e+01	-7.839978e+02
2.680000e-06	-3.037376e-06	-1.247662e-08	-2.075659e+01	-8.103792e+02
2.690000e-06	-3.184476e-06	-1.285208e-08	-2.176183e+01	-8.362530e+02
2.700000e-06	-3.330450e-06	-1.319277e-08	-2.275938e+01	-8.611350e+02
2.710000e-06	-3.475274e-06	-1.350811e-08	-2.374907e+01	-8.841246e+02
2.720000e-06	-3.618900e-06	-1.380079e-08	-2.473057e+01	-9.045035e+02
2.730000e-06	-3.761125e-06	-1.407100e-08	-2.570250e+01	-9.221259e+02
2.740000e-06	-3.901832e-06	-1.432608e-08	-2.666405e+01	-9.374881e+02
2.750000e-06	-4.041051e-06	-1.457166e-08	-2.761543e+01	-9.515065e+02
2.760000e-06	-4.178769e-06	-1.480804e-08	-2.855656e+01	-9.651355e+02
2.770000e-06	-4.314988e-06	-1.503178e-08	-2.948744e+01	-9.790054e+02
2.780000e-06	-4.449611e-06	-1.523843e-08	-3.040742e+01	-9.932281e+02
2.790000e-06	-4.582567e-06	-1.542832e-08	-3.131601e+01	-1.007435e+03
2.800000e-06	-4.713952e-06	-1.560908e-08	-3.221386e+01	-1.021009e+03
2.810000e-06	-4.843710e-06	-1.578367e-08	-3.310059e+01	-1.033398e+03
2.820000e-06	-4.971784e-06	-1.594943e-08	-3.397581e+01	-1.044364e+03
2.830000e-06	-5.098094e-06	-1.611107e-08	-3.483897e+01	-1.054084e+03
2.840000e-06	-5.222541e-06	-1.627142e-08	-3.568941e+01	-1.063052e+03
2.850000e-06	-5.345091e-06	-1.642662e-08	-3.652688e+01	-1.071861e+03
2.860000e-06	-5.465796e-06	-1.657081e-08	-3.735175e+01	-1.080946e+03
2.870000e-06	-5.584491e-06	-1.670214e-08	-3.816288e+01	-1.090416e+03
2.880000e-06	-5.700940e-06	-1.682667e-08	-3.895866e+01	-1.100033e+03
2.890000e-06	-5.815067e-06	-1.694894e-08	-3.973857e+01	-1.109342e+03
2.900000e-06	-5.926795e-06	-1.706749e-08	-4.050209e+01	-1.117886e+03
2.910000e-06	-6.036303e-06	-1.717963e-08	-4.125044e+01	-1.125408e+03
2.920000e-06	-6.143792e-06	-1.728736e-08	-4.198499e+01	-1.131960e+03
2.930000e-06	-6.249223e-06	-1.739214e-08	-4.270548e+01	-1.137871e+03
2.940000e-06	-6.352478e-06	-1.749220e-08	-4.341109e+01	-1.143598e+03
