# Temperatura_=_57.5
# Concentracion g/m^3_=_13400.0
# C_Vs_to_Am_M_A/Vsm_=_65563218390.804596
# pendiente_HvsI_1/m_=_3716.3
# ordenada_HvsI_A/m_=_1297.0
# frecuencia_Hz_=_301433.8216493323

Tiempo_(s)	Campo_(V.s)	Magnetizacion_(V.s)	Campo_(kA/m)	Magnetizacion_(A/m)
0.000000e+00	-8.328348e-06	-1.836322e-08	-5.691689e+01	-1.204641e+03
1.000000e-08	-8.325234e-06	-1.835873e-08	-5.689561e+01	-1.204332e+03
2.000000e-08	-8.319340e-06	-1.834871e-08	-5.685534e+01	-1.204286e+03
3.000000e-08	-8.310902e-06	-1.834416e-08	-5.679767e+01	-1.204305e+03
4.000000e-08	-8.299583e-06	-1.833867e-08	-5.672031e+01	-1.204115e+03
5.000000e-08	-8.285227e-06	-1.832312e-08	-5.662220e+01	-1.203479e+03
6.000000e-08	-8.267913e-06	-1.829605e-08	-5.650387e+01	-1.202307e+03
7.000000e-08	-8.247979e-06	-1.825974e-08	-5.636764e+01	-1.200692e+03
8.000000e-08	-8.225549e-06	-1.827961e-08	-5.621435e+01	-1.198869e+03
9.000000e-08	-8.199988e-06	-1.834728e-08	-5.603967e+01	-1.197118e+03
1.000000e-07	-8.171022e-06	-1.829884e-08	-5.584171e+01	-1.195642e+03
1.100000e-07	-8.138992e-06	-1.823289e-08	-5.562281e+01	-1.194486e+03
1.200000e-07	-8.104032e-06	-1.820645e-08	-5.538390e+01	-1.193523e+03
1.300000e-07	-8.066346e-06	-1.815820e-08	-5.512634e+01	-1.192516e+03
1.400000e-07	-8.026358e-06	-1.805776e-08	-5.485306e+01	-1.191221e+03
1.500000e-07	-7.983929e-06	-1.804692e-08	-5.456309e+01	-1.189495e+03
1.600000e-07	-7.938678e-06	-1.813921e-08	-5.425385e+01	-1.187348e+03
1.700000e-07	-7.890615e-06	-1.800262e-08	-5.392538e+01	-1.184924e+03
1.800000e-07	-7.839572e-06	-1.805357e-08	-5.357654e+01	-1.182430e+03
1.900000e-07	-7.785422e-06	-1.803614e-08	-5.320647e+01	-1.180023e+03
2.000000e-07	-7.728469e-06	-1.787426e-08	-5.281725e+01	-1.177737e+03
2.100000e-07	-7.668741e-06	-1.785445e-08	-5.240906e+01	-1.175458e+03
2.200000e-07	-7.606233e-06	-1.776734e-08	-5.198188e+01	-1.172979e+03
2.300000e-07	-7.541030e-06	-1.781088e-08	-5.153627e+01	-1.170090e+03
2.400000e-07	-7.473020e-06	-1.775582e-08	-5.107148e+01	-1.166684e+03
2.500000e-07	-7.402234e-06	-1.769622e-08	-5.058773e+01	-1.162808e+03
2.600000e-07	-7.328636e-06	-1.765532e-08	-5.008475e+01	-1.158651e+03
2.700000e-07	-7.252176e-06	-1.756253e-08	-4.956221e+01	-1.154460e+03
2.800000e-07	-7.172921e-06	-1.750446e-08	-4.902057e+01	-1.150433e+03
2.900000e-07	-7.090896e-06	-1.740588e-08	-4.846000e+01	-1.146621e+03
3.000000e-07	-7.006380e-06	-1.739466e-08	-4.788241e+01	-1.142905e+03
3.100000e-07	-6.919585e-06	-1.734224e-08	-4.728925e+01	-1.139039e+03
3.200000e-07	-6.830462e-06	-1.727676e-08	-4.668017e+01	-1.134758e+03
3.300000e-07	-6.738817e-06	-1.720419e-08	-4.605386e+01	-1.129895e+03
3.400000e-07	-6.644725e-06	-1.707986e-08	-4.541082e+01	-1.124454e+03
3.500000e-07	-6.548395e-06	-1.701131e-08	-4.475249e+01	-1.118620e+03
3.600000e-07	-6.449650e-06	-1.693133e-08	-4.407766e+01	-1.112670e+03
3.700000e-07	-6.348461e-06	-1.685839e-08	-4.338612e+01	-1.106858e+03
3.800000e-07	-6.244933e-06	-1.676878e-08	-4.267859e+01	-1.101295e+03
3.900000e-07	-6.139165e-06	-1.669593e-08	-4.195577e+01	-1.095894e+03
4.000000e-07	-6.031203e-06	-1.661343e-08	-4.121794e+01	-1.090403e+03
4.100000e-07	-5.921068e-06	-1.650152e-08	-4.046526e+01	-1.084509e+03
4.200000e-07	-5.808757e-06	-1.639383e-08	-3.969772e+01	-1.077974e+03
4.300000e-07	-5.694218e-06	-1.628209e-08	-3.891495e+01	-1.070740e+03
4.400000e-07	-5.577463e-06	-1.619097e-08	-3.811703e+01	-1.062952e+03
4.500000e-07	-5.458582e-06	-1.608766e-08	-3.730458e+01	-1.054902e+03
4.600000e-07	-5.337792e-06	-1.597174e-08	-3.647909e+01	-1.046889e+03
4.700000e-07	-5.215106e-06	-1.584249e-08	-3.564064e+01	-1.039088e+03
4.800000e-07	-5.090471e-06	-1.571599e-08	-3.478887e+01	-1.031460e+03
4.900000e-07	-4.963946e-06	-1.559197e-08	-3.392418e+01	-1.023763e+03
5.000000e-07	-4.835632e-06	-1.545789e-08	-3.304727e+01	-1.015653e+03
5.100000e-07	-4.705682e-06	-1.531801e-08	-3.215917e+01	-1.006829e+03
5.200000e-07	-4.573977e-06	-1.518175e-08	-3.125909e+01	-9.971715e+02
5.300000e-07	-4.440589e-06	-1.504671e-08	-3.034750e+01	-9.867971e+02
5.400000e-07	-4.305628e-06	-1.489549e-08	-2.942516e+01	-9.760066e+02
5.500000e-07	-4.169052e-06	-1.472554e-08	-2.849178e+01	-9.651507e+02
5.600000e-07	-4.031021e-06	-1.455390e-08	-2.754846e+01	-9.544639e+02
5.700000e-07	-3.891369e-06	-1.438857e-08	-2.659407e+01	-9.439463e+02
5.800000e-07	-3.750036e-06	-1.421824e-08	-2.562818e+01	-9.333452e+02
5.900000e-07	-3.607272e-06	-1.403296e-08	-2.465251e+01	-9.222526e+02
6.000000e-07	-3.463225e-06	-1.384348e-08	-2.366808e+01	-9.102774e+02
6.100000e-07	-3.317877e-06	-1.365881e-08	-2.267476e+01	-8.972188e+02
6.200000e-07	-3.171201e-06	-1.346908e-08	-2.167236e+01	-8.831610e+02
6.300000e-07	-3.023385e-06	-1.325784e-08	-2.066216e+01	-8.684418e+02
6.400000e-07	-2.874590e-06	-1.302676e-08	-1.964528e+01	-8.535024e+02
6.500000e-07	-2.724904e-06	-1.279615e-08	-1.862231e+01	-8.386790e+02
6.600000e-07	-2.574388e-06	-1.256526e-08	-1.759366e+01	-8.240289e+02
6.700000e-07	-2.422994e-06	-1.232689e-08	-1.655902e+01	-8.092716e+02
6.800000e-07	-2.270705e-06	-1.207566e-08	-1.551826e+01	-7.938803e+02
6.900000e-07	-2.117582e-06	-1.181836e-08	-1.447180e+01	-7.772916e+02
7.000000e-07	-1.963733e-06	-1.155245e-08	-1.342038e+01	-7.591468e+02
7.100000e-07	-1.809177e-06	-1.127115e-08	-1.236413e+01	-7.394539e+02
7.200000e-07	-1.653934e-06	-1.096993e-08	-1.130317e+01	-7.185920e+02
7.300000e-07	-1.498090e-06	-1.065207e-08	-1.023812e+01	-6.971388e+02
7.400000e-07	-1.341622e-06	-1.032726e-08	-9.168799e+00	-6.755856e+02
7.500000e-07	-1.184577e-06	-9.992881e-09	-8.095534e+00	-6.540597e+02
7.600000e-07	-1.027047e-06	-9.639213e-09	-7.018959e+00	-6.321819e+02
7.700000e-07	-8.690911e-07	-9.258077e-09	-5.939469e+00	-6.091390e+02
7.800000e-07	-7.108034e-07	-8.856300e-09	-4.857713e+00	-5.839636e+02
7.900000e-07	-5.522732e-07	-8.433706e-09	-3.774299e+00	-5.559144e+02
8.000000e-07	-3.935660e-07	-7.985844e-09	-2.689676e+00	-5.247950e+02
8.100000e-07	-2.347581e-07	-7.504095e-09	-1.604364e+00	-4.910493e+02
8.200000e-07	-7.586141e-08	-6.990344e-09	-5.184457e-01	-4.555511e+02
8.300000e-07	8.310638e-08	-6.446961e-09	5.679586e-01	-4.191218e+02
8.400000e-07	2.420272e-07	-5.860933e-09	1.654042e+00	-3.819380e+02
8.500000e-07	4.008273e-07	-5.216688e-09	2.739300e+00	-3.430589e+02
8.600000e-07	5.594736e-07	-4.502439e-09	3.823507e+00	-3.002972e+02
8.700000e-07	7.179900e-07	-3.714452e-09	4.906827e+00	-2.505557e+02
8.800000e-07	8.762696e-07	-2.829121e-09	5.988528e+00	-1.905964e+02
8.900000e-07	1.034235e-06	-1.802391e-09	7.068080e+00	-1.180420e+02
9.000000e-07	1.191797e-06	-5.745180e-10	8.144876e+00	-3.230940e+01
9.100000e-07	1.348772e-06	8.952249e-10	9.217667e+00	6.483982e+01
9.200000e-07	1.505166e-06	2.571651e-09	1.028648e+01	1.693416e+02
9.300000e-07	1.660922e-06	4.308866e-09	1.135094e+01	2.754984e+02
9.400000e-07	1.816063e-06	5.910965e-09	1.241118e+01	3.771109e+02
9.500000e-07	1.970639e-06	7.258933e-09	1.346758e+01	4.687581e+02
9.600000e-07	2.124472e-06	8.345313e-09	1.451889e+01	5.468644e+02
9.700000e-07	2.277501e-06	9.226424e-09	1.556471e+01	6.102608e+02
9.800000e-07	2.429757e-06	9.957093e-09	1.660524e+01	6.601066e+02
9.900000e-07	2.581178e-06	1.057762e-08	1.764007e+01	6.992421e+02
1.000000e-06	2.731742e-06	1.111442e-08	1.866904e+01	7.312069e+02
1.010000e-06	2.881333e-06	1.158142e-08	1.969136e+01	7.592433e+02
1.020000e-06	3.029806e-06	1.199654e-08	2.070604e+01	7.855785e+02
1.030000e-06	3.177173e-06	1.237141e-08	2.171317e+01	8.111565e+02
1.040000e-06	3.323358e-06	1.271408e-08	2.271222e+01	8.358283e+02
1.050000e-06	3.468315e-06	1.302979e-08	2.370287e+01	8.588546e+02
1.060000e-06	3.612095e-06	1.332476e-08	2.468547e+01	8.794916e+02
1.070000e-06	3.754565e-06	1.359801e-08	2.565913e+01	8.974367e+02
1.080000e-06	3.895468e-06	1.385038e-08	2.662208e+01	9.129931e+02
1.090000e-06	4.034805e-06	1.408790e-08	2.757433e+01	9.269380e+02
1.100000e-06	4.172707e-06	1.431194e-08	2.851676e+01	9.401951e+02
1.110000e-06	4.309133e-06	1.452133e-08	2.944912e+01	9.534741e+02
1.120000e-06	4.444047e-06	1.471944e-08	3.037113e+01	9.670332e+02
1.130000e-06	4.577330e-06	1.490900e-08	3.128201e+01	9.806507e+02
1.140000e-06	4.708866e-06	1.508842e-08	3.218093e+01	9.937989e+02
1.150000e-06	4.838732e-06	1.525966e-08	3.306846e+01	1.005927e+03
1.160000e-06	4.966982e-06	1.542201e-08	3.394493e+01	1.016725e+03
1.170000e-06	5.093562e-06	1.558023e-08	3.481000e+01	1.026258e+03
1.180000e-06	5.218280e-06	1.573314e-08	3.566233e+01	1.034929e+03
1.190000e-06	5.341069e-06	1.587799e-08	3.650148e+01	1.043285e+03
1.200000e-06	5.462015e-06	1.601445e-08	3.732804e+01	1.051788e+03
1.210000e-06	5.580962e-06	1.614616e-08	3.814094e+01	1.060621e+03
1.220000e-06	5.697720e-06	1.627526e-08	3.893888e+01	1.069633e+03
1.230000e-06	5.812249e-06	1.639803e-08	3.972158e+01	1.078435e+03
1.240000e-06	5.924647e-06	1.651173e-08	4.048973e+01	1.086586e+03
1.250000e-06	6.035009e-06	1.661878e-08	4.124395e+01	1.093796e+03
1.260000e-06	6.143191e-06	1.672335e-08	4.198328e+01	1.100058e+03
1.270000e-06	6.249134e-06	1.682557e-08	4.270730e+01	1.105641e+03
1.280000e-06	6.352856e-06	1.692355e-08	4.341615e+01	1.110970e+03
1.290000e-06	6.454282e-06	1.701358e-08	4.410931e+01	1.116441e+03
1.300000e-06	6.553323e-06	1.709581e-08	4.478617e+01	1.122259e+03
1.310000e-06	6.649964e-06	1.717494e-08	4.544662e+01	1.128357e+03
1.320000e-06	6.744316e-06	1.725546e-08	4.609144e+01	1.134446e+03
1.330000e-06	6.836345e-06	1.733536e-08	4.672038e+01	1.140155e+03
1.340000e-06	6.925919e-06	1.741038e-08	4.733253e+01	1.145198e+03
1.350000e-06	7.013050e-06	1.748035e-08	4.792800e+01	1.149503e+03
1.360000e-06	7.097758e-06	1.754823e-08	4.850690e+01	1.153237e+03
1.370000e-06	7.179973e-06	1.761463e-08	4.906876e+01	1.156726e+03
1.380000e-06	7.259588e-06	1.767577e-08	4.961287e+01	1.160313e+03
1.390000e-06	7.336471e-06	1.773373e-08	5.013829e+01	1.164200e+03
1.400000e-06	7.410596e-06	1.779160e-08	5.064487e+01	1.168370e+03
1.410000e-06	7.482055e-06	1.784947e-08	5.113323e+01	1.172595e+03
1.420000e-06	7.550833e-06	1.790496e-08	5.160327e+01	1.176549e+03
1.430000e-06	7.616867e-06	1.795499e-08	5.205455e+01	1.179947e+03
1.440000e-06	7.680254e-06	1.799911e-08	5.248775e+01	1.182680e+03
1.450000e-06	7.741018e-06	1.804021e-08	5.290301e+01	1.184855e+03
1.460000e-06	7.799046e-06	1.808239e-08	5.329958e+01	1.186747e+03
1.470000e-06	7.854279e-06	1.812337e-08	5.367706e+01	1.188679e+03
1.480000e-06	7.906465e-06	1.816150e-08	5.403370e+01	1.190876e+03
1.490000e-06	7.955465e-06	1.819844e-08	5.436857e+01	1.193372e+03
1.500000e-06	8.001615e-06	1.823476e-08	5.468397e+01	1.195995e+03
1.510000e-06	8.044938e-06	1.826652e-08	5.498003e+01	1.198447e+03
1.520000e-06	8.085314e-06	1.829089e-08	5.525597e+01	1.200436e+03
1.530000e-06	8.122912e-06	1.831223e-08	5.551292e+01	1.201804e+03
1.540000e-06	8.157661e-06	1.833357e-08	5.575040e+01	1.202598e+03
1.550000e-06	8.189496e-06	1.835452e-08	5.596796e+01	1.203044e+03
1.560000e-06	8.218545e-06	1.837224e-08	5.616649e+01	1.203452e+03
1.570000e-06	8.244662e-06	1.838660e-08	5.634497e+01	1.204080e+03
1.580000e-06	8.267813e-06	1.840026e-08	5.650319e+01	1.205025e+03
1.590000e-06	8.288188e-06	1.841291e-08	5.664244e+01	1.206186e+03
1.600000e-06	8.305679e-06	1.842325e-08	5.676197e+01	1.207313e+03
1.610000e-06	8.320068e-06	1.843113e-08	5.686031e+01	1.208117e+03
1.620000e-06	8.331201e-06	1.843605e-08	5.693639e+01	1.208402e+03
1.630000e-06	8.339220e-06	1.843884e-08	5.699120e+01	1.208148e+03
1.640000e-06	8.344392e-06	1.844089e-08	5.702654e+01	1.207518e+03
1.650000e-06	8.346581e-06	1.844146e-08	5.704150e+01	1.206786e+03
1.660000e-06	8.345850e-06	1.843681e-08	5.703650e+01	1.206213e+03
1.670000e-06	8.342450e-06	1.842545e-08	5.701327e+01	1.205936e+03
1.680000e-06	8.336220e-06	1.841911e-08	5.697069e+01	1.205908e+03
1.690000e-06	8.327180e-06	1.840979e-08	5.690891e+01	1.205918e+03
1.700000e-06	8.315207e-06	1.839760e-08	5.682709e+01	1.205688e+03
1.710000e-06	8.300352e-06	1.839283e-08	5.672557e+01	1.204995e+03
1.720000e-06	8.283029e-06	1.840080e-08	5.660718e+01	1.203767e+03
1.730000e-06	8.263236e-06	1.838916e-08	5.647191e+01	1.202116e+03
1.740000e-06	8.240557e-06	1.825319e-08	5.631692e+01	1.200287e+03
1.750000e-06	8.214287e-06	1.822856e-08	5.613739e+01	1.198558e+03
1.760000e-06	8.184095e-06	1.825236e-08	5.593105e+01	1.197116e+03
1.770000e-06	8.150665e-06	1.822596e-08	5.570259e+01	1.195989e+03
1.780000e-06	8.114714e-06	1.823651e-08	5.545690e+01	1.195033e+03
1.790000e-06	8.076400e-06	1.832732e-08	5.519505e+01	1.194004e+03
1.800000e-06	8.036141e-06	1.820594e-08	5.491992e+01	1.192667e+03
1.810000e-06	7.993698e-06	1.812779e-08	5.462986e+01	1.190892e+03
1.820000e-06	7.948246e-06	1.821432e-08	5.431923e+01	1.188705e+03
1.830000e-06	7.899984e-06	1.803894e-08	5.398941e+01	1.186264e+03
1.840000e-06	7.848581e-06	1.813722e-08	5.363811e+01	1.183772e+03
1.850000e-06	7.793887e-06	1.808315e-08	5.326432e+01	1.181378e+03
1.860000e-06	7.736540e-06	1.805413e-08	5.287241e+01	1.179100e+03
1.870000e-06	7.676337e-06	1.809842e-08	5.246097e+01	1.176810e+03
1.880000e-06	7.613391e-06	1.787765e-08	5.203079e+01	1.174295e+03
1.890000e-06	7.547682e-06	1.791180e-08	5.158174e+01	1.171353e+03
1.900000e-06	7.479105e-06	1.778028e-08	5.111307e+01	1.167890e+03
1.910000e-06	7.407685e-06	1.777903e-08	5.062498e+01	1.163973e+03
1.920000e-06	7.333351e-06	1.779048e-08	5.011697e+01	1.159799e+03
1.930000e-06	7.256310e-06	1.769386e-08	4.959046e+01	1.155618e+03
1.940000e-06	7.176556e-06	1.770829e-08	4.904541e+01	1.151613e+03
1.950000e-06	7.094279e-06	1.751177e-08	4.848312e+01	1.147819e+03
1.960000e-06	7.009428e-06	1.749991e-08	4.790324e+01	1.144100e+03
1.970000e-06	6.921915e-06	1.736722e-08	4.730517e+01	1.140201e+03
1.980000e-06	6.832039e-06	1.731319e-08	4.669095e+01	1.135862e+03
1.990000e-06	6.739790e-06	1.730928e-08	4.606051e+01	1.130932e+03
2.000000e-06	6.645155e-06	1.721101e-08	4.541376e+01	1.125437e+03
2.010000e-06	6.548138e-06	1.717910e-08	4.475073e+01	1.119576e+03
2.020000e-06	6.448797e-06	1.701649e-08	4.407182e+01	1.113629e+03
2.030000e-06	6.347027e-06	1.695824e-08	4.337631e+01	1.107841e+03
2.040000e-06	6.242925e-06	1.682600e-08	4.266487e+01	1.102302e+03
2.050000e-06	6.136647e-06	1.675898e-08	4.193856e+01	1.096905e+03
2.060000e-06	6.028319e-06	1.666416e-08	4.119823e+01	1.091385e+03
2.070000e-06	5.917854e-06	1.656703e-08	4.044330e+01	1.085431e+03
2.080000e-06	5.805007e-06	1.647999e-08	3.967209e+01	1.078819e+03
2.090000e-06	5.689953e-06	1.635831e-08	3.888580e+01	1.071514e+03
2.100000e-06	5.572620e-06	1.625882e-08	3.808393e+01	1.063683e+03
2.110000e-06	5.453167e-06	1.612536e-08	3.726757e+01	1.055623e+03
2.120000e-06	5.331735e-06	1.601827e-08	3.643770e+01	1.047627e+03
2.130000e-06	5.208446e-06	1.588381e-08	3.559512e+01	1.039849e+03
2.140000e-06	5.083365e-06	1.577041e-08	3.474031e+01	1.032227e+03
2.150000e-06	4.956350e-06	1.563058e-08	3.387227e+01	1.024503e+03
2.160000e-06	4.827534e-06	1.550470e-08	3.299192e+01	1.016327e+03
2.170000e-06	4.697015e-06	1.536109e-08	3.209994e+01	1.007414e+03
2.180000e-06	4.564942e-06	1.522321e-08	3.119735e+01	9.976700e+02
2.190000e-06	4.431300e-06	1.507090e-08	3.028402e+01	9.872336e+02
2.200000e-06	4.295918e-06	1.491819e-08	2.935880e+01	9.764193e+02
2.210000e-06	4.158852e-06	1.475957e-08	2.842208e+01	9.655729e+02
2.220000e-06	4.020308e-06	1.459216e-08	2.747525e+01	9.549082e+02
2.230000e-06	3.880365e-06	1.442596e-08	2.651886e+01	9.443969e+02
2.240000e-06	3.738933e-06	1.424777e-08	2.555230e+01	9.337632e+02
2.250000e-06	3.595996e-06	1.407250e-08	2.457545e+01	9.225918e+02
2.260000e-06	3.451771e-06	1.387966e-08	2.358980e+01	9.105047e+02
2.270000e-06	3.306324e-06	1.368420e-08	2.259580e+01	8.973291e+02
2.280000e-06	3.159648e-06	1.347328e-08	2.159340e+01	8.831801e+02
2.290000e-06	3.011944e-06	1.326391e-08	2.058398e+01	8.684155e+02
2.300000e-06	2.863273e-06	1.304804e-08	1.956794e+01	8.534755e+02
2.310000e-06	2.713581e-06	1.282924e-08	1.854493e+01	8.386731e+02
2.320000e-06	2.562851e-06	1.259733e-08	1.751482e+01	8.240298e+02
2.330000e-06	2.411125e-06	1.235385e-08	1.647791e+01	8.092317e+02
2.340000e-06	2.258508e-06	1.209692e-08	1.543491e+01	7.937365e+02
2.350000e-06	2.105078e-06	1.182816e-08	1.438635e+01	7.769920e+02
2.360000e-06	1.950871e-06	1.155089e-08	1.333248e+01	7.586729e+02
2.370000e-06	1.795950e-06	1.126542e-08	1.227373e+01	7.388304e+02
2.380000e-06	1.640455e-06	1.097173e-08	1.121106e+01	7.178757e+02
2.390000e-06	1.484482e-06	1.066317e-08	1.014512e+01	6.963918e+02
2.400000e-06	1.327994e-06	1.033849e-08	9.075662e+00	6.748431e+02
2.410000e-06	1.171022e-06	9.992656e-09	8.002902e+00	6.533060e+02
2.420000e-06	1.013686e-06	9.627743e-09	6.927650e+00	6.313471e+02
2.430000e-06	8.560229e-07	9.244193e-09	5.850160e+00	6.081206e+02
2.440000e-06	6.980578e-07	8.843704e-09	4.770608e+00	5.826644e+02
2.450000e-06	5.398475e-07	8.421737e-09	3.689380e+00	5.542834e+02
2.460000e-06	3.814214e-07	7.975325e-09	2.606678e+00	5.228501e+02
2.470000e-06	2.228543e-07	7.498717e-09	1.523012e+00	4.888702e+02
2.480000e-06	6.418064e-08	6.983320e-09	4.386179e-01	4.532386e+02
2.490000e-06	-9.451757e-08	6.424580e-09	-6.459440e-01	4.167360e+02
2.500000e-06	-2.531480e-07	5.821681e-09	-1.730043e+00	3.794373e+02
2.510000e-06	-4.116310e-07	5.171337e-09	-2.813134e+00	3.402666e+02
2.520000e-06	-5.699030e-07	4.461094e-09	-3.894783e+00	2.969145e+02
2.530000e-06	-7.279318e-07	3.674888e-09	-4.974770e+00	2.462259e+02
2.540000e-06	-8.856909e-07	2.787936e-09	-6.052914e+00	1.850053e+02
2.550000e-06	-1.043163e-06	1.756437e-09	-7.129100e+00	1.110275e+02
2.560000e-06	-1.200274e-06	5.237651e-10	-8.202815e+00	2.394334e+01
2.570000e-06	-1.356946e-06	-9.556529e-10	-9.273526e+00	-7.422528e+01
2.580000e-06	-1.513086e-06	-2.649067e-09	-1.034060e+01	-1.791971e+02
2.590000e-06	-1.668709e-06	-4.402485e-09	-1.140415e+01	-2.851611e+02
2.600000e-06	-1.823843e-06	-6.012768e-09	-1.246435e+01	-3.859410e+02
2.610000e-06	-1.978333e-06	-7.358510e-09	-1.352015e+01	-4.762691e+02
2.620000e-06	-2.132086e-06	-8.441590e-09	-1.457092e+01	-5.528121e+02
2.630000e-06	-2.285150e-06	-9.318532e-09	-1.561698e+01	-6.146651e+02
2.640000e-06	-2.437382e-06	-1.004594e-08	-1.665735e+01	-6.632072e+02
2.650000e-06	-2.588576e-06	-1.066584e-08	-1.769063e+01	-7.014034e+02
2.660000e-06	-2.738749e-06	-1.120678e-08	-1.871693e+01	-7.328063e+02
2.670000e-06	-2.887899e-06	-1.168668e-08	-1.973623e+01	-7.605768e+02
2.680000e-06	-3.036024e-06	-1.211443e-08	-2.074854e+01	-7.868088e+02
2.690000e-06	-3.183143e-06	-1.249569e-08	-2.175397e+01	-8.123129e+02
2.700000e-06	-3.329157e-06	-1.283681e-08	-2.275185e+01	-8.368494e+02
2.710000e-06	-3.474022e-06	-1.314589e-08	-2.374187e+01	-8.596511e+02
2.720000e-06	-3.617624e-06	-1.343042e-08	-2.472326e+01	-8.800045e+02
2.730000e-06	-3.759752e-06	-1.369487e-08	-2.569458e+01	-8.976696e+02
2.740000e-06	-3.900411e-06	-1.394527e-08	-2.665586e+01	-9.130112e+02
2.750000e-06	-4.039681e-06	-1.418669e-08	-2.760765e+01	-9.268399e+02
2.760000e-06	-4.177478e-06	-1.441980e-08	-2.854936e+01	-9.400728e+02
2.770000e-06	-4.313711e-06	-1.464037e-08	-2.948040e+01	-9.533793e+02
2.780000e-06	-4.448305e-06	-1.484262e-08	-3.040023e+01	-9.669635e+02
2.790000e-06	-4.581263e-06	-1.502802e-08	-3.130888e+01	-9.805597e+02
2.800000e-06	-4.712652e-06	-1.520246e-08	-3.220681e+01	-9.936233e+02
2.810000e-06	-4.842456e-06	-1.536676e-08	-3.309391e+01	-1.005618e+03
2.820000e-06	-4.970537e-06	-1.552225e-08	-3.396923e+01	-1.016271e+03
2.830000e-06	-5.096765e-06	-1.567620e-08	-3.483188e+01	-1.025690e+03
2.840000e-06	-5.221190e-06	-1.583022e-08	-3.568222e+01	-1.034300e+03
2.850000e-06	-5.343852e-06	-1.597881e-08	-3.652050e+01	-1.042655e+03
2.860000e-06	-5.464615e-06	-1.611471e-08	-3.734581e+01	-1.051191e+03
2.870000e-06	-5.583256e-06	-1.623994e-08	-3.815662e+01	-1.060057e+03
2.880000e-06	-5.699730e-06	-1.636187e-08	-3.895261e+01	-1.069069e+03
2.890000e-06	-5.813941e-06	-1.647877e-08	-3.973314e+01	-1.077822e+03
2.900000e-06	-5.925763e-06	-1.658789e-08	-4.049735e+01	-1.085882e+03
2.910000e-06	-6.035412e-06	-1.668899e-08	-4.124670e+01	-1.092986e+03
2.920000e-06	-6.142991e-06	-1.678579e-08	-4.198191e+01	-1.099159e+03
2.930000e-06	-6.248454e-06	-1.688325e-08	-4.270266e+01	-1.104694e+03
2.940000e-06	-6.351680e-06	-1.697991e-08	-4.340812e+01	-1.110022e+03
