# Temperatura_=_65.67
# Concentracion g/m^3_=_13400.0
# C_Vs_to_Am_M_A/Vsm_=_65563218390.804596
# pendiente_HvsI_1/m_=_3716.3
# ordenada_HvsI_A/m_=_1297.0
# frecuencia_Hz_=_301434.3087046083

Tiempo_(s)	Campo_(V.s)	Magnetizacion_(V.s)	Campo_(kA/m)	Magnetizacion_(A/m)
0.000000e+00	-8.341472e-06	-1.872632e-08	-5.691169e+01	-1.228402e+03
1.000000e-08	-8.338033e-06	-1.871984e-08	-5.688823e+01	-1.228095e+03
2.000000e-08	-8.331894e-06	-1.870843e-08	-5.684634e+01	-1.228050e+03
3.000000e-08	-8.323069e-06	-1.870365e-08	-5.678614e+01	-1.228063e+03
4.000000e-08	-8.311306e-06	-1.869643e-08	-5.670588e+01	-1.227852e+03
5.000000e-08	-8.296513e-06	-1.868052e-08	-5.660495e+01	-1.227179e+03
6.000000e-08	-8.278781e-06	-1.865589e-08	-5.648397e+01	-1.225955e+03
7.000000e-08	-8.258520e-06	-1.861937e-08	-5.634574e+01	-1.224278e+03
8.000000e-08	-8.235724e-06	-1.865537e-08	-5.619020e+01	-1.222386e+03
9.000000e-08	-8.209782e-06	-1.871126e-08	-5.601321e+01	-1.220559e+03
1.000000e-07	-8.180449e-06	-1.864691e-08	-5.581307e+01	-1.219000e+03
1.100000e-07	-8.147957e-06	-1.858585e-08	-5.559139e+01	-1.217758e+03
1.200000e-07	-8.112540e-06	-1.856367e-08	-5.534975e+01	-1.216709e+03
1.300000e-07	-8.074514e-06	-1.851370e-08	-5.509031e+01	-1.215624e+03
1.400000e-07	-8.034197e-06	-1.839389e-08	-5.481523e+01	-1.214269e+03
1.500000e-07	-7.991392e-06	-1.840892e-08	-5.452319e+01	-1.212503e+03
1.600000e-07	-7.945782e-06	-1.848737e-08	-5.421200e+01	-1.210327e+03
1.700000e-07	-7.897327e-06	-1.833947e-08	-5.388141e+01	-1.207871e+03
1.800000e-07	-7.845906e-06	-1.840725e-08	-5.353058e+01	-1.205311e+03
1.900000e-07	-7.791421e-06	-1.836733e-08	-5.315884e+01	-1.202780e+03
2.000000e-07	-7.734101e-06	-1.822012e-08	-5.276776e+01	-1.200290e+03
2.100000e-07	-7.673971e-06	-1.819602e-08	-5.235751e+01	-1.197727e+03
2.200000e-07	-7.611121e-06	-1.810474e-08	-5.192870e+01	-1.194897e+03
2.300000e-07	-7.545531e-06	-1.814161e-08	-5.148119e+01	-1.191627e+03
2.400000e-07	-7.477015e-06	-1.806307e-08	-5.101373e+01	-1.187845e+03
2.500000e-07	-7.405795e-06	-1.801689e-08	-5.052782e+01	-1.183631e+03
2.600000e-07	-7.331749e-06	-1.796983e-08	-5.002261e+01	-1.179186e+03
2.700000e-07	-7.254817e-06	-1.788668e-08	-4.949773e+01	-1.174750e+03
2.800000e-07	-7.175084e-06	-1.782117e-08	-4.895373e+01	-1.170492e+03
2.900000e-07	-7.092620e-06	-1.771021e-08	-4.839110e+01	-1.166433e+03
3.000000e-07	-7.007779e-06	-1.769511e-08	-4.781225e+01	-1.162426e+03
3.100000e-07	-6.920657e-06	-1.762491e-08	-4.721784e+01	-1.158219e+03
3.200000e-07	-6.831106e-06	-1.756461e-08	-4.660686e+01	-1.153556e+03
3.300000e-07	-6.739021e-06	-1.748345e-08	-4.597859e+01	-1.148296e+03
3.400000e-07	-6.644494e-06	-1.736823e-08	-4.533365e+01	-1.142472e+03
3.500000e-07	-6.547604e-06	-1.730278e-08	-4.467260e+01	-1.136285e+03
3.600000e-07	-6.448313e-06	-1.722032e-08	-4.399516e+01	-1.130012e+03
3.700000e-07	-6.346646e-06	-1.713751e-08	-4.330151e+01	-1.123886e+03
3.800000e-07	-6.242730e-06	-1.702800e-08	-4.259252e+01	-1.117989e+03
3.900000e-07	-6.136588e-06	-1.694613e-08	-4.186835e+01	-1.112208e+03
4.000000e-07	-6.028212e-06	-1.684958e-08	-4.112892e+01	-1.106283e+03
4.100000e-07	-5.917734e-06	-1.673522e-08	-4.037516e+01	-1.099914e+03
4.200000e-07	-5.805084e-06	-1.662415e-08	-3.960658e+01	-1.092895e+03
4.300000e-07	-5.690078e-06	-1.651722e-08	-3.882192e+01	-1.085201e+03
4.400000e-07	-5.572812e-06	-1.642468e-08	-3.802185e+01	-1.077007e+03
4.500000e-07	-5.453516e-06	-1.631416e-08	-3.720792e+01	-1.068603e+03
4.600000e-07	-5.332243e-06	-1.618257e-08	-3.638051e+01	-1.060269e+03
4.700000e-07	-5.209000e-06	-1.603785e-08	-3.553965e+01	-1.052139e+03
4.800000e-07	-5.083880e-06	-1.590652e-08	-3.468599e+01	-1.044138e+03
4.900000e-07	-4.956988e-06	-1.577980e-08	-3.382024e+01	-1.036001e+03
5.000000e-07	-4.828327e-06	-1.564356e-08	-3.294242e+01	-1.027391e+03
5.100000e-07	-4.697865e-06	-1.549687e-08	-3.205231e+01	-1.018038e+03
5.200000e-07	-4.565693e-06	-1.535552e-08	-3.115054e+01	-1.007869e+03
5.300000e-07	-4.431931e-06	-1.521337e-08	-3.023791e+01	-9.970357e+02
5.400000e-07	-4.296575e-06	-1.505453e-08	-2.931441e+01	-9.858526e+02
5.500000e-07	-4.159628e-06	-1.487500e-08	-2.838006e+01	-9.746510e+02
5.600000e-07	-4.021168e-06	-1.469710e-08	-2.743538e+01	-9.636219e+02
5.700000e-07	-3.881163e-06	-1.452499e-08	-2.648016e+01	-9.527149e+02
5.800000e-07	-3.739584e-06	-1.434670e-08	-2.551421e+01	-9.416446e+02
5.900000e-07	-3.596480e-06	-1.415127e-08	-2.453785e+01	-9.300038e+02
6.000000e-07	-3.451912e-06	-1.395155e-08	-2.355150e+01	-9.174392e+02
6.100000e-07	-3.306061e-06	-1.376080e-08	-2.255640e+01	-9.038111e+02
6.200000e-07	-3.159112e-06	-1.356669e-08	-2.155380e+01	-8.892622e+02
6.300000e-07	-3.011118e-06	-1.335435e-08	-2.054408e+01	-8.741599e+02
6.400000e-07	-2.862109e-06	-1.312122e-08	-1.952742e+01	-8.589295e+02
6.500000e-07	-2.712104e-06	-1.288520e-08	-1.850398e+01	-8.438489e+02
6.600000e-07	-2.561165e-06	-1.264406e-08	-1.747416e+01	-8.288962e+02
6.700000e-07	-2.409370e-06	-1.239181e-08	-1.643851e+01	-8.137239e+02
6.800000e-07	-2.256695e-06	-1.212628e-08	-1.539685e+01	-7.977812e+02
6.900000e-07	-2.103155e-06	-1.185906e-08	-1.434928e+01	-7.805381e+02
7.000000e-07	-1.948846e-06	-1.158984e-08	-1.329647e+01	-7.617164e+02
7.100000e-07	-1.793844e-06	-1.130718e-08	-1.223893e+01	-7.414206e+02
7.200000e-07	-1.638147e-06	-1.100528e-08	-1.117665e+01	-7.200997e+02
7.300000e-07	-1.481831e-06	-1.068407e-08	-1.011015e+01	-6.983399e+02
7.400000e-07	-1.324959e-06	-1.034966e-08	-9.039854e+00	-6.765691e+02
7.500000e-07	-1.167583e-06	-9.997077e-09	-7.966116e+00	-6.547980e+02
7.600000e-07	-1.009815e-06	-9.623286e-09	-6.889704e+00	-6.325231e+02
7.700000e-07	-8.516996e-07	-9.231400e-09	-5.810925e+00	-6.088525e+02
7.800000e-07	-6.932619e-07	-8.825820e-09	-4.729945e+00	-5.828250e+02
7.900000e-07	-5.345611e-07	-8.400929e-09	-3.647171e+00	-5.537963e+02
8.000000e-07	-3.756658e-07	-7.947847e-09	-2.563070e+00	-5.217220e+02
8.100000e-07	-2.166014e-07	-7.457588e-09	-1.477815e+00	-4.871864e+02
8.200000e-07	-5.747176e-08	-6.929678e-09	-3.921149e-01	-4.511159e+02
8.300000e-07	1.016165e-07	-6.365941e-09	6.933031e-01	-4.142434e+02
8.400000e-07	2.606583e-07	-5.754763e-09	1.778404e+00	-3.765104e+02
8.500000e-07	4.195913e-07	-5.085699e-09	2.862762e+00	-3.366477e+02
8.600000e-07	5.783497e-07	-4.347658e-09	3.945930e+00	-2.921469e+02
8.700000e-07	7.368974e-07	-3.532422e-09	5.027659e+00	-2.397167e+02
8.800000e-07	8.951737e-07	-2.610341e-09	6.107537e+00	-1.761486e+02
8.900000e-07	1.053157e-06	-1.528426e-09	7.185414e+00	-9.935815e+01
9.000000e-07	1.210757e-06	-2.233868e-10	8.260683e+00	-9.278965e+00
9.100000e-07	1.367915e-06	1.333390e-09	9.332930e+00	9.169817e+01
9.200000e-07	1.524606e-06	3.075136e-09	1.040199e+01	1.989218e+02
9.300000e-07	1.680689e-06	4.828992e-09	1.146691e+01	3.063007e+02
9.400000e-07	1.836130e-06	6.399081e-09	1.252744e+01	4.075377e+02
9.500000e-07	1.990917e-06	7.692557e-09	1.358351e+01	4.974331e+02
9.600000e-07	2.144960e-06	8.726814e-09	1.463451e+01	5.728865e+02
9.700000e-07	2.298211e-06	9.567143e-09	1.568010e+01	6.333273e+02
9.800000e-07	2.450627e-06	1.026701e-08	1.671999e+01	6.804812e+02
9.900000e-07	2.602233e-06	1.086320e-08	1.775436e+01	7.175880e+02
1.000000e-06	2.752905e-06	1.138139e-08	1.878236e+01	7.483460e+02
1.010000e-06	2.902513e-06	1.183800e-08	1.980309e+01	7.759185e+02
1.020000e-06	3.051059e-06	1.224999e-08	2.081658e+01	8.022857e+02
1.030000e-06	3.198547e-06	1.262390e-08	2.182285e+01	8.280861e+02
1.040000e-06	3.344882e-06	1.296369e-08	2.282126e+01	8.529148e+02
1.050000e-06	3.490003e-06	1.327612e-08	2.381138e+01	8.758986e+02
1.060000e-06	3.633869e-06	1.356914e-08	2.479294e+01	8.963005e+02
1.070000e-06	3.776346e-06	1.384140e-08	2.576503e+01	9.139316e+02
1.080000e-06	3.917401e-06	1.409294e-08	2.672741e+01	9.292479e+02
1.090000e-06	4.056993e-06	1.433012e-08	2.767981e+01	9.431482e+02
1.100000e-06	4.195038e-06	1.455623e-08	2.862165e+01	9.565984e+02
1.110000e-06	4.331510e-06	1.477122e-08	2.955276e+01	9.702613e+02
1.120000e-06	4.466349e-06	1.497388e-08	3.047274e+01	9.842852e+02
1.130000e-06	4.599583e-06	1.516686e-08	3.138176e+01	9.983256e+02
1.140000e-06	4.731196e-06	1.535159e-08	3.227972e+01	1.011768e+03
1.150000e-06	4.861118e-06	1.552861e-08	3.316614e+01	1.024040e+03
1.160000e-06	4.989343e-06	1.569669e-08	3.404099e+01	1.034879e+03
1.170000e-06	5.115841e-06	1.585684e-08	3.490405e+01	1.044439e+03
1.180000e-06	5.240578e-06	1.600864e-08	3.575510e+01	1.053208e+03
1.190000e-06	5.363381e-06	1.615460e-08	3.659295e+01	1.061789e+03
1.200000e-06	5.484229e-06	1.629645e-08	3.741747e+01	1.070641e+03
1.210000e-06	5.603128e-06	1.643285e-08	3.822869e+01	1.079893e+03
1.220000e-06	5.719868e-06	1.656512e-08	3.902517e+01	1.089321e+03
1.230000e-06	5.834355e-06	1.669270e-08	3.980628e+01	1.098462e+03
1.240000e-06	5.946644e-06	1.681428e-08	4.057240e+01	1.106841e+03
1.250000e-06	6.056896e-06	1.692824e-08	4.132462e+01	1.114179e+03
1.260000e-06	6.165039e-06	1.703415e-08	4.206246e+01	1.120513e+03
1.270000e-06	6.270937e-06	1.713576e-08	4.278497e+01	1.126173e+03
1.280000e-06	6.374597e-06	1.723439e-08	4.349221e+01	1.131634e+03
1.290000e-06	6.475953e-06	1.732830e-08	4.418374e+01	1.137310e+03
1.300000e-06	6.574923e-06	1.741672e-08	4.485899e+01	1.143386e+03
1.310000e-06	6.671435e-06	1.750134e-08	4.551747e+01	1.149755e+03
1.320000e-06	6.765643e-06	1.758485e-08	4.616022e+01	1.156081e+03
1.330000e-06	6.857539e-06	1.766749e-08	4.678721e+01	1.161961e+03
1.340000e-06	6.946975e-06	1.774658e-08	4.739740e+01	1.167106e+03
1.350000e-06	7.033979e-06	1.782093e-08	4.799101e+01	1.171465e+03
1.360000e-06	7.118566e-06	1.788924e-08	4.856813e+01	1.175242e+03
1.370000e-06	7.200642e-06	1.795164e-08	4.912811e+01	1.178802e+03
1.380000e-06	7.280088e-06	1.801075e-08	4.967015e+01	1.182503e+03
1.390000e-06	7.356814e-06	1.807027e-08	5.019363e+01	1.186546e+03
1.400000e-06	7.430771e-06	1.813032e-08	5.069821e+01	1.190890e+03
1.410000e-06	7.502069e-06	1.818917e-08	5.118467e+01	1.195281e+03
1.420000e-06	7.570738e-06	1.824708e-08	5.165317e+01	1.199369e+03
1.430000e-06	7.636683e-06	1.830200e-08	5.210310e+01	1.202867e+03
1.440000e-06	7.700009e-06	1.835072e-08	5.253516e+01	1.205674e+03
1.450000e-06	7.760696e-06	1.839385e-08	5.294921e+01	1.207921e+03
1.460000e-06	7.818557e-06	1.843414e-08	5.334398e+01	1.209903e+03
1.470000e-06	7.873561e-06	1.847308e-08	5.371926e+01	1.211952e+03
1.480000e-06	7.925476e-06	1.851129e-08	5.407346e+01	1.214286e+03
1.490000e-06	7.974227e-06	1.854936e-08	5.440608e+01	1.216918e+03
1.500000e-06	8.020126e-06	1.858879e-08	5.471923e+01	1.219655e+03
1.510000e-06	8.063205e-06	1.862437e-08	5.501315e+01	1.222183e+03
1.520000e-06	8.103359e-06	1.865156e-08	5.528711e+01	1.224211e+03
1.530000e-06	8.140710e-06	1.867464e-08	5.554195e+01	1.225596e+03
1.540000e-06	8.175192e-06	1.869685e-08	5.577721e+01	1.226407e+03
1.550000e-06	8.206732e-06	1.871589e-08	5.599240e+01	1.226894e+03
1.560000e-06	8.235476e-06	1.873051e-08	5.618851e+01	1.227379e+03
1.570000e-06	8.261317e-06	1.874502e-08	5.636482e+01	1.228114e+03
1.580000e-06	8.284231e-06	1.876342e-08	5.652115e+01	1.229180e+03
1.590000e-06	8.304328e-06	1.878051e-08	5.665827e+01	1.230449e+03
1.600000e-06	8.321480e-06	1.878929e-08	5.677529e+01	1.231651e+03
1.610000e-06	8.335504e-06	1.879430e-08	5.687097e+01	1.232489e+03
1.620000e-06	8.346251e-06	1.880093e-08	5.694430e+01	1.232773e+03
1.630000e-06	8.353881e-06	1.880675e-08	5.699636e+01	1.232499e+03
1.640000e-06	8.358665e-06	1.880750e-08	5.702900e+01	1.231847e+03
1.650000e-06	8.360498e-06	1.880550e-08	5.704150e+01	1.231106e+03
1.660000e-06	8.359474e-06	1.879748e-08	5.703451e+01	1.230539e+03
1.670000e-06	8.355747e-06	1.878899e-08	5.700909e+01	1.230275e+03
1.680000e-06	8.349199e-06	1.878523e-08	5.696441e+01	1.230253e+03
1.690000e-06	8.339812e-06	1.877485e-08	5.690037e+01	1.230250e+03
1.700000e-06	8.327461e-06	1.876108e-08	5.681610e+01	1.229984e+03
1.710000e-06	8.312262e-06	1.875595e-08	5.671240e+01	1.229233e+03
1.720000e-06	8.294623e-06	1.876729e-08	5.659206e+01	1.227933e+03
1.730000e-06	8.274486e-06	1.873269e-08	5.645466e+01	1.226207e+03
1.740000e-06	8.251362e-06	1.859640e-08	5.629690e+01	1.224307e+03
1.750000e-06	8.224554e-06	1.858974e-08	5.611399e+01	1.222508e+03
1.760000e-06	8.193869e-06	1.860893e-08	5.590464e+01	1.220995e+03
1.770000e-06	8.160130e-06	1.857474e-08	5.567444e+01	1.219790e+03
1.780000e-06	8.123917e-06	1.859205e-08	5.542737e+01	1.218750e+03
1.790000e-06	8.085364e-06	1.868951e-08	5.516434e+01	1.217639e+03
1.800000e-06	8.044816e-06	1.853862e-08	5.488768e+01	1.216230e+03
1.810000e-06	8.001985e-06	1.848481e-08	5.459546e+01	1.214400e+03
1.820000e-06	7.956156e-06	1.855808e-08	5.428278e+01	1.212173e+03
1.830000e-06	7.907461e-06	1.839536e-08	5.395055e+01	1.209690e+03
1.840000e-06	7.855573e-06	1.851052e-08	5.359653e+01	1.207128e+03
1.850000e-06	7.800444e-06	1.841897e-08	5.322040e+01	1.204604e+03
1.860000e-06	7.742641e-06	1.842192e-08	5.282602e+01	1.202112e+03
1.870000e-06	7.681932e-06	1.843161e-08	5.241182e+01	1.199522e+03
1.880000e-06	7.618501e-06	1.822697e-08	5.197905e+01	1.196638e+03
1.890000e-06	7.552360e-06	1.826729e-08	5.152779e+01	1.193294e+03
1.900000e-06	7.483313e-06	1.810772e-08	5.105669e+01	1.189442e+03
1.910000e-06	7.411425e-06	1.811882e-08	5.056623e+01	1.185179e+03
1.920000e-06	7.336653e-06	1.808546e-08	5.005607e+01	1.180720e+03
1.930000e-06	7.259094e-06	1.801150e-08	4.952691e+01	1.176301e+03
1.940000e-06	7.178953e-06	1.801553e-08	4.898013e+01	1.172073e+03
1.950000e-06	7.096401e-06	1.782614e-08	4.841689e+01	1.168033e+03
1.960000e-06	7.011155e-06	1.782191e-08	4.783529e+01	1.164014e+03
1.970000e-06	6.923235e-06	1.766403e-08	4.723543e+01	1.159754e+03
1.980000e-06	6.832959e-06	1.762077e-08	4.661950e+01	1.155010e+03
1.990000e-06	6.740255e-06	1.757603e-08	4.598701e+01	1.149662e+03
2.000000e-06	6.645171e-06	1.748564e-08	4.533827e+01	1.143770e+03
2.010000e-06	6.547746e-06	1.743514e-08	4.467357e+01	1.137552e+03
2.020000e-06	6.447981e-06	1.728172e-08	4.399290e+01	1.131288e+03
2.030000e-06	6.345799e-06	1.722217e-08	4.329574e+01	1.125193e+03
2.040000e-06	6.241347e-06	1.708470e-08	4.258309e+01	1.119322e+03
2.050000e-06	6.134768e-06	1.702193e-08	4.185592e+01	1.113538e+03
2.060000e-06	6.026011e-06	1.690666e-08	4.111391e+01	1.107566e+03
2.070000e-06	5.915013e-06	1.680833e-08	4.035660e+01	1.101113e+03
2.080000e-06	5.801742e-06	1.670325e-08	3.958378e+01	1.093992e+03
2.090000e-06	5.686225e-06	1.658436e-08	3.879564e+01	1.086212e+03
2.100000e-06	5.568473e-06	1.647194e-08	3.799225e+01	1.077968e+03
2.110000e-06	5.448684e-06	1.633841e-08	3.717495e+01	1.069558e+03
2.120000e-06	5.326945e-06	1.622347e-08	3.634436e+01	1.061248e+03
2.130000e-06	5.203321e-06	1.608582e-08	3.550090e+01	1.053145e+03
2.140000e-06	5.077791e-06	1.596144e-08	3.464445e+01	1.045143e+03
2.150000e-06	4.950421e-06	1.581643e-08	3.377543e+01	1.036958e+03
2.160000e-06	4.821286e-06	1.568439e-08	3.289438e+01	1.028254e+03
2.170000e-06	4.690415e-06	1.553210e-08	3.200148e+01	1.018783e+03
2.180000e-06	4.557882e-06	1.538728e-08	3.109725e+01	1.008503e+03
2.190000e-06	4.423750e-06	1.522891e-08	3.018210e+01	9.975976e+02
2.200000e-06	4.288031e-06	1.507160e-08	2.925612e+01	9.863922e+02
2.210000e-06	4.150687e-06	1.490167e-08	2.831906e+01	9.752076e+02
2.220000e-06	4.011820e-06	1.473008e-08	2.737160e+01	9.642040e+02
2.230000e-06	3.871395e-06	1.455372e-08	2.641352e+01	9.532947e+02
2.240000e-06	3.729495e-06	1.437191e-08	2.544538e+01	9.421676e+02
2.250000e-06	3.586251e-06	1.418692e-08	2.446805e+01	9.304119e+02
2.260000e-06	3.441732e-06	1.399052e-08	2.348204e+01	9.176965e+02
2.270000e-06	3.295960e-06	1.378522e-08	2.248747e+01	9.039206e+02
2.280000e-06	3.149034e-06	1.356735e-08	2.148504e+01	8.892656e+02
2.290000e-06	3.001033e-06	1.334812e-08	2.047526e+01	8.741192e+02
2.300000e-06	2.851949e-06	1.312354e-08	1.945811e+01	8.588980e+02
2.310000e-06	2.701862e-06	1.289953e-08	1.843410e+01	8.438441e+02
2.320000e-06	2.550778e-06	1.266536e-08	1.740329e+01	8.288869e+02
2.330000e-06	2.398790e-06	1.241992e-08	1.636632e+01	8.136395e+02
2.340000e-06	2.245915e-06	1.215455e-08	1.532329e+01	7.975388e+02
2.350000e-06	2.092210e-06	1.187405e-08	1.427460e+01	7.800780e+02
2.360000e-06	1.937748e-06	1.158501e-08	1.322075e+01	7.610290e+02
2.370000e-06	1.782582e-06	1.129392e-08	1.216209e+01	7.405522e+02
2.380000e-06	1.626823e-06	1.099417e-08	1.109939e+01	7.191320e+02
2.390000e-06	1.470516e-06	1.068122e-08	1.003295e+01	6.973509e+02
2.400000e-06	1.313642e-06	1.035193e-08	8.962639e+00	6.755903e+02
2.410000e-06	1.156282e-06	1.000336e-08	7.889013e+00	6.537886e+02
2.420000e-06	9.984926e-07	9.630987e-09	6.812455e+00	6.313736e+02
2.430000e-06	8.402858e-07	9.234586e-09	5.733052e+00	6.074208e+02
2.440000e-06	6.818050e-07	8.819084e-09	4.651778e+00	5.809912e+02
2.450000e-06	5.231217e-07	8.385683e-09	3.569123e+00	5.515133e+02
2.460000e-06	3.642485e-07	7.930577e-09	2.485173e+00	5.190381e+02
2.470000e-06	2.052339e-07	7.445450e-09	1.400257e+00	4.842234e+02
2.480000e-06	4.617220e-08	6.919672e-09	3.150209e-01	4.480047e+02
2.490000e-06	-1.128797e-07	6.347881e-09	-7.701487e-01	4.110369e+02
2.500000e-06	-2.718716e-07	5.728417e-09	-1.854909e+00	3.731072e+02
2.510000e-06	-4.307654e-07	5.055313e-09	-2.939000e+00	3.327599e+02
2.520000e-06	-5.895173e-07	4.315392e-09	-4.022123e+00	2.873357e+02
2.530000e-06	-7.480471e-07	3.492860e-09	-5.103731e+00	2.334950e+02
2.540000e-06	-9.062699e-07	2.562954e-09	-6.183243e+00	1.681256e+02
2.550000e-06	-1.064142e-06	1.474014e-09	-7.260367e+00	8.938462e+01
2.560000e-06	-1.221593e-06	1.630120e-10	-8.334611e+00	-2.456802e+00
2.570000e-06	-1.378521e-06	-1.403832e-09	-9.405293e+00	-1.046571e+02
2.580000e-06	-1.534880e-06	-3.160354e-09	-1.047209e+01	-2.122962e+02
2.590000e-06	-1.690702e-06	-4.926551e-09	-1.153522e+01	-3.191721e+02
2.600000e-06	-1.845991e-06	-6.503675e-09	-1.259472e+01	-4.190680e+02
2.610000e-06	-2.000600e-06	-7.796978e-09	-1.364958e+01	-5.070336e+02
2.620000e-06	-2.154405e-06	-8.827432e-09	-1.469895e+01	-5.803192e+02
2.630000e-06	-2.307399e-06	-9.661016e-09	-1.574278e+01	-6.387115e+02
2.640000e-06	-2.459621e-06	-1.035891e-08	-1.678135e+01	-6.842102e+02
2.650000e-06	-2.610962e-06	-1.096010e-08	-1.781391e+01	-7.201874e+02
2.660000e-06	-2.761300e-06	-1.148690e-08	-1.883963e+01	-7.503204e+02
2.670000e-06	-2.910636e-06	-1.195472e-08	-1.985851e+01	-7.776324e+02
2.680000e-06	-3.058953e-06	-1.237427e-08	-2.087044e+01	-8.039099e+02
2.690000e-06	-3.206226e-06	-1.275116e-08	-2.187524e+01	-8.296152e+02
2.700000e-06	-3.352331e-06	-1.308916e-08	-2.287208e+01	-8.542377e+02
2.710000e-06	-3.497273e-06	-1.339668e-08	-2.386098e+01	-8.768891e+02
2.720000e-06	-3.641009e-06	-1.368110e-08	-2.484166e+01	-8.968922e+02
2.730000e-06	-3.783272e-06	-1.394557e-08	-2.581228e+01	-9.141520e+02
2.740000e-06	-3.923996e-06	-1.419784e-08	-2.677240e+01	-9.292060e+02
2.750000e-06	-4.063275e-06	-1.444326e-08	-2.772267e+01	-9.429874e+02
2.760000e-06	-4.201034e-06	-1.468048e-08	-2.866256e+01	-9.564392e+02
2.770000e-06	-4.337233e-06	-1.490191e-08	-2.959181e+01	-9.701584e+02
2.780000e-06	-4.471867e-06	-1.510384e-08	-3.051039e+01	-9.842162e+02
2.790000e-06	-4.604880e-06	-1.529012e-08	-3.141790e+01	-9.982122e+02
2.800000e-06	-4.736294e-06	-1.546625e-08	-3.231450e+01	-1.011518e+03
2.810000e-06	-4.866049e-06	-1.563388e-08	-3.319979e+01	-1.023594e+03
2.820000e-06	-4.994124e-06	-1.579515e-08	-3.407361e+01	-1.034232e+03
2.830000e-06	-5.120388e-06	-1.595510e-08	-3.493507e+01	-1.043645e+03
2.840000e-06	-5.244768e-06	-1.611282e-08	-3.578369e+01	-1.052352e+03
2.850000e-06	-5.367338e-06	-1.626389e-08	-3.661995e+01	-1.060951e+03
2.860000e-06	-5.488044e-06	-1.640375e-08	-3.744350e+01	-1.069861e+03
2.870000e-06	-5.606622e-06	-1.653277e-08	-3.825252e+01	-1.079161e+03
2.880000e-06	-5.722989e-06	-1.665629e-08	-3.904647e+01	-1.088580e+03
2.890000e-06	-5.837090e-06	-1.677448e-08	-3.982495e+01	-1.097640e+03
2.900000e-06	-5.948830e-06	-1.688657e-08	-4.058732e+01	-1.105881e+03
2.910000e-06	-6.058370e-06	-1.699312e-08	-4.133468e+01	-1.113067e+03
2.920000e-06	-6.165780e-06	-1.709509e-08	-4.206751e+01	-1.119280e+03
2.930000e-06	-6.271090e-06	-1.719446e-08	-4.278602e+01	-1.124883e+03
2.940000e-06	-6.374177e-06	-1.729195e-08	-4.348935e+01	-1.130354e+03
