# Temperatura_=_75.17
# Concentracion g/m^3_=_13400.0
# C_Vs_to_Am_M_A/Vsm_=_65563218390.804596
# pendiente_HvsI_1/m_=_3716.3
# ordenada_HvsI_A/m_=_1297.0
# frecuencia_Hz_=_301440.24085035454

Tiempo_(s)	Campo_(V.s)	Magnetizacion_(V.s)	Campo_(kA/m)	Magnetizacion_(A/m)
0.000000e+00	-8.310690e-06	-1.921341e-08	-5.691494e+01	-1.259840e+03
1.000000e-08	-8.308033e-06	-1.920850e-08	-5.689674e+01	-1.259566e+03
2.000000e-08	-8.302568e-06	-1.919768e-08	-5.685931e+01	-1.259484e+03
3.000000e-08	-8.294483e-06	-1.918644e-08	-5.680394e+01	-1.259400e+03
4.000000e-08	-8.283602e-06	-1.917548e-08	-5.672942e+01	-1.259060e+03
5.000000e-08	-8.269713e-06	-1.916373e-08	-5.663431e+01	-1.258266e+03
6.000000e-08	-8.252801e-06	-1.914856e-08	-5.651849e+01	-1.256958e+03
7.000000e-08	-8.233239e-06	-1.912420e-08	-5.638452e+01	-1.255246e+03
8.000000e-08	-8.211249e-06	-1.911154e-08	-5.623392e+01	-1.253356e+03
9.000000e-08	-8.186268e-06	-1.914170e-08	-5.606284e+01	-1.251535e+03
1.000000e-07	-8.157913e-06	-1.913912e-08	-5.586865e+01	-1.249941e+03
1.100000e-07	-8.126412e-06	-1.909142e-08	-5.565293e+01	-1.248584e+03
1.200000e-07	-8.091972e-06	-1.903934e-08	-5.541707e+01	-1.247326e+03
1.300000e-07	-8.054754e-06	-1.898763e-08	-5.516218e+01	-1.245951e+03
1.400000e-07	-8.015140e-06	-1.892525e-08	-5.489089e+01	-1.244264e+03
1.500000e-07	-7.973142e-06	-1.887497e-08	-5.460327e+01	-1.242180e+03
1.600000e-07	-7.928412e-06	-1.889745e-08	-5.429694e+01	-1.239758e+03
1.700000e-07	-7.880844e-06	-1.884348e-08	-5.397118e+01	-1.237160e+03
1.800000e-07	-7.830375e-06	-1.881762e-08	-5.362555e+01	-1.234565e+03
1.900000e-07	-7.776802e-06	-1.882360e-08	-5.325866e+01	-1.232076e+03
2.000000e-07	-7.720366e-06	-1.870943e-08	-5.287216e+01	-1.229652e+03
2.100000e-07	-7.661211e-06	-1.863425e-08	-5.246704e+01	-1.227118e+03
2.200000e-07	-7.599242e-06	-1.857563e-08	-5.204265e+01	-1.224235e+03
2.300000e-07	-7.534561e-06	-1.854673e-08	-5.159969e+01	-1.220807e+03
2.400000e-07	-7.467104e-06	-1.852083e-08	-5.113772e+01	-1.216775e+03
2.500000e-07	-7.396875e-06	-1.845256e-08	-5.065676e+01	-1.212253e+03
2.600000e-07	-7.323870e-06	-1.840107e-08	-5.015680e+01	-1.207486e+03
2.700000e-07	-7.247991e-06	-1.832438e-08	-4.963715e+01	-1.202753e+03
2.800000e-07	-7.169304e-06	-1.825053e-08	-4.909827e+01	-1.198238e+03
2.900000e-07	-7.087852e-06	-1.815339e-08	-4.854045e+01	-1.193952e+03
3.000000e-07	-7.003876e-06	-1.808173e-08	-4.796535e+01	-1.189719e+03
3.100000e-07	-6.917637e-06	-1.804057e-08	-4.737475e+01	-1.185248e+03
3.200000e-07	-6.829060e-06	-1.796523e-08	-4.676814e+01	-1.180259e+03
3.300000e-07	-6.738007e-06	-1.788350e-08	-4.614457e+01	-1.174602e+03
3.400000e-07	-6.644513e-06	-1.777260e-08	-4.550429e+01	-1.168334e+03
3.500000e-07	-6.548686e-06	-1.768134e-08	-4.484802e+01	-1.161690e+03
3.600000e-07	-6.450417e-06	-1.759527e-08	-4.417504e+01	-1.154989e+03
3.700000e-07	-6.349676e-06	-1.749907e-08	-4.348512e+01	-1.148493e+03
3.800000e-07	-6.246642e-06	-1.739939e-08	-4.277951e+01	-1.142288e+03
3.900000e-07	-6.141407e-06	-1.730318e-08	-4.205881e+01	-1.136242e+03
4.000000e-07	-6.033967e-06	-1.721366e-08	-4.132303e+01	-1.130052e+03
4.100000e-07	-5.924398e-06	-1.709691e-08	-4.057265e+01	-1.123379e+03
4.200000e-07	-5.812702e-06	-1.697750e-08	-3.980771e+01	-1.115988e+03
4.300000e-07	-5.698805e-06	-1.685787e-08	-3.902770e+01	-1.107854e+03
4.400000e-07	-5.582653e-06	-1.674888e-08	-3.823225e+01	-1.099176e+03
4.500000e-07	-5.464315e-06	-1.663648e-08	-3.742182e+01	-1.090286e+03
4.600000e-07	-5.344020e-06	-1.650877e-08	-3.659799e+01	-1.081503e+03
4.700000e-07	-5.221816e-06	-1.636779e-08	-3.576109e+01	-1.072987e+03
4.800000e-07	-5.097639e-06	-1.622638e-08	-3.491068e+01	-1.064655e+03
4.900000e-07	-4.971618e-06	-1.608927e-08	-3.404763e+01	-1.056211e+03
5.000000e-07	-4.843886e-06	-1.594018e-08	-3.317287e+01	-1.047267e+03
5.100000e-07	-4.714432e-06	-1.578532e-08	-3.228632e+01	-1.037512e+03
5.200000e-07	-4.583259e-06	-1.563407e-08	-3.138800e+01	-1.026848e+03
5.300000e-07	-4.450403e-06	-1.548708e-08	-3.047815e+01	-1.015438e+03
5.400000e-07	-4.315949e-06	-1.532516e-08	-2.955735e+01	-1.003637e+03
5.500000e-07	-4.179924e-06	-1.514401e-08	-2.862580e+01	-9.918316e+02
5.600000e-07	-4.042347e-06	-1.495623e-08	-2.768362e+01	-9.802633e+02
5.700000e-07	-3.903251e-06	-1.477282e-08	-2.673103e+01	-9.689063e+02
5.800000e-07	-3.762570e-06	-1.458703e-08	-2.576759e+01	-9.574638e+02
5.900000e-07	-3.620407e-06	-1.438743e-08	-2.479400e+01	-9.454855e+02
6.000000e-07	-3.476925e-06	-1.418185e-08	-2.381138e+01	-9.325607e+02
6.100000e-07	-3.332182e-06	-1.398051e-08	-2.282011e+01	-9.185005e+02
6.200000e-07	-3.186132e-06	-1.377843e-08	-2.181991e+01	-9.034280e+02
6.300000e-07	-3.038813e-06	-1.355708e-08	-2.081101e+01	-8.877296e+02
6.400000e-07	-2.890460e-06	-1.331389e-08	-1.979503e+01	-8.718823e+02
6.500000e-07	-2.741121e-06	-1.306602e-08	-1.877230e+01	-8.562284e+02
6.600000e-07	-2.590843e-06	-1.282112e-08	-1.774313e+01	-8.407973e+02
6.700000e-07	-2.439742e-06	-1.256892e-08	-1.670833e+01	-8.252592e+02
6.800000e-07	-2.287805e-06	-1.230159e-08	-1.566781e+01	-8.090381e+02
6.900000e-07	-2.135076e-06	-1.202659e-08	-1.462186e+01	-7.915463e+02
7.000000e-07	-1.981599e-06	-1.174691e-08	-1.357078e+01	-7.724380e+02
7.100000e-07	-1.827414e-06	-1.145724e-08	-1.251486e+01	-7.517698e+02
7.200000e-07	-1.672563e-06	-1.114655e-08	-1.145438e+01	-7.299838e+02
7.300000e-07	-1.517170e-06	-1.081634e-08	-1.039019e+01	-7.077073e+02
7.400000e-07	-1.361225e-06	-1.047567e-08	-9.322213e+00	-6.854432e+02
7.500000e-07	-1.204657e-06	-1.012326e-08	-8.249972e+00	-6.632825e+02
7.600000e-07	-1.047489e-06	-9.753264e-09	-7.173624e+00	-6.407741e+02
7.700000e-07	-8.898160e-07	-9.362902e-09	-6.093816e+00	-6.170273e+02
7.800000e-07	-7.318121e-07	-8.953166e-09	-5.011742e+00	-5.910262e+02
7.900000e-07	-5.735471e-07	-8.519623e-09	-3.927881e+00	-5.620361e+02
8.000000e-07	-4.151175e-07	-8.058715e-09	-2.842891e+00	-5.299229e+02
8.100000e-07	-2.566143e-07	-7.564796e-09	-1.757397e+00	-4.952222e+02
8.200000e-07	-9.805834e-08	-7.036233e-09	-6.715428e-01	-4.588799e+02
8.300000e-07	6.051064e-08	-6.473464e-09	4.144011e-01	-4.217193e+02
8.400000e-07	2.191042e-07	-5.868192e-09	1.500513e+00	-3.838144e+02
8.500000e-07	3.777005e-07	-5.207826e-09	2.586644e+00	-3.440202e+02
8.600000e-07	5.361511e-07	-4.478471e-09	3.671777e+00	-2.998881e+02
8.700000e-07	6.943508e-07	-3.664444e-09	4.755192e+00	-2.480799e+02
8.800000e-07	8.522861e-07	-2.741834e-09	5.836797e+00	-1.852232e+02
8.900000e-07	1.009945e-06	-1.667740e-09	6.916505e+00	-1.089821e+02
9.000000e-07	1.167139e-06	-3.805349e-10	7.993038e+00	-1.901225e+01
9.100000e-07	1.323717e-06	1.163470e-09	9.065343e+00	8.252161e+01
9.200000e-07	1.479723e-06	2.919203e-09	1.013374e+01	1.910738e+02
9.300000e-07	1.635199e-06	4.716348e-09	1.119850e+01	3.005006e+02
9.400000e-07	1.790127e-06	6.345205e-09	1.225951e+01	4.043000e+02
9.500000e-07	1.944403e-06	7.693095e-09	1.331605e+01	4.969644e+02
9.600000e-07	2.097970e-06	8.770589e-09	1.436774e+01	5.750601e+02
9.700000e-07	2.250830e-06	9.641255e-09	1.541459e+01	6.377405e+02
9.800000e-07	2.402885e-06	1.036309e-08	1.645592e+01	6.865745e+02
9.900000e-07	2.554108e-06	1.097350e-08	1.749156e+01	7.247905e+02
1.000000e-06	2.704533e-06	1.150105e-08	1.852173e+01	7.562028e+02
1.010000e-06	2.853972e-06	1.196823e-08	1.954515e+01	7.841664e+02
1.020000e-06	3.002288e-06	1.239088e-08	2.056087e+01	8.108625e+02
1.030000e-06	3.149492e-06	1.277773e-08	2.156899e+01	8.370803e+02
1.040000e-06	3.295554e-06	1.312975e-08	2.256928e+01	8.624800e+02
1.050000e-06	3.440402e-06	1.345145e-08	2.356125e+01	8.861670e+02
1.060000e-06	3.584033e-06	1.375027e-08	2.454489e+01	9.073242e+02
1.070000e-06	3.726395e-06	1.402993e-08	2.551985e+01	9.256666e+02
1.080000e-06	3.867251e-06	1.428938e-08	2.648449e+01	9.415813e+02
1.090000e-06	4.006541e-06	1.453288e-08	2.743840e+01	9.559499e+02
1.100000e-06	4.144396e-06	1.476597e-08	2.838248e+01	9.697747e+02
1.110000e-06	4.280788e-06	1.498921e-08	2.931655e+01	9.837881e+02
1.120000e-06	4.415651e-06	1.520305e-08	3.024015e+01	9.982103e+02
1.130000e-06	4.548933e-06	1.540550e-08	3.115292e+01	1.012741e+03
1.140000e-06	4.680488e-06	1.559664e-08	3.205386e+01	1.026766e+03
1.150000e-06	4.810355e-06	1.577958e-08	3.294324e+01	1.039674e+03
1.160000e-06	4.938564e-06	1.595318e-08	3.382127e+01	1.051143e+03
1.170000e-06	5.065054e-06	1.611798e-08	3.468752e+01	1.061270e+03
1.180000e-06	5.189777e-06	1.627678e-08	3.554168e+01	1.070521e+03
1.190000e-06	5.312663e-06	1.643100e-08	3.638325e+01	1.079510e+03
1.200000e-06	5.433641e-06	1.658069e-08	3.721175e+01	1.088741e+03
1.210000e-06	5.552596e-06	1.672474e-08	3.802641e+01	1.098403e+03
1.220000e-06	5.669373e-06	1.686426e-08	3.882614e+01	1.108316e+03
1.230000e-06	5.783967e-06	1.700077e-08	3.961093e+01	1.118035e+03
1.240000e-06	5.896455e-06	1.713151e-08	4.038129e+01	1.127063e+03
1.250000e-06	6.006851e-06	1.725314e-08	4.113732e+01	1.135070e+03
1.260000e-06	6.115084e-06	1.736568e-08	4.187855e+01	1.142033e+03
1.270000e-06	6.221125e-06	1.747323e-08	4.260475e+01	1.148236e+03
1.280000e-06	6.324984e-06	1.757982e-08	4.331603e+01	1.154134e+03
1.290000e-06	6.426543e-06	1.768322e-08	4.401155e+01	1.160160e+03
1.300000e-06	6.525735e-06	1.777832e-08	4.469085e+01	1.166539e+03
1.310000e-06	6.622515e-06	1.786601e-08	4.535364e+01	1.173214e+03
1.320000e-06	6.717004e-06	1.795458e-08	4.600074e+01	1.179890e+03
1.330000e-06	6.809138e-06	1.804554e-08	4.663170e+01	1.186174e+03
1.340000e-06	6.898804e-06	1.813066e-08	4.724577e+01	1.191762e+03
1.350000e-06	6.986106e-06	1.820558e-08	4.784366e+01	1.196568e+03
1.360000e-06	7.071036e-06	1.827609e-08	4.842529e+01	1.200757e+03
1.370000e-06	7.153453e-06	1.834746e-08	4.898971e+01	1.204666e+03
1.380000e-06	7.233296e-06	1.841759e-08	4.953651e+01	1.208650e+03
1.390000e-06	7.310507e-06	1.848352e-08	5.006529e+01	1.212930e+03
1.400000e-06	7.384953e-06	1.854489e-08	5.057512e+01	1.217502e+03
1.410000e-06	7.456660e-06	1.860435e-08	5.106620e+01	1.222145e+03
1.420000e-06	7.525700e-06	1.866440e-08	5.153901e+01	1.226532e+03
1.430000e-06	7.592050e-06	1.872314e-08	5.199340e+01	1.230372e+03
1.440000e-06	7.655736e-06	1.877634e-08	5.242955e+01	1.233542e+03
1.450000e-06	7.716794e-06	1.882517e-08	5.284770e+01	1.236134e+03
1.460000e-06	7.775151e-06	1.887256e-08	5.324735e+01	1.238413e+03
1.470000e-06	7.830703e-06	1.891846e-08	5.362780e+01	1.240692e+03
1.480000e-06	7.883205e-06	1.895894e-08	5.398735e+01	1.243196e+03
1.490000e-06	7.932536e-06	1.899461e-08	5.432518e+01	1.245964e+03
1.500000e-06	7.978938e-06	1.903133e-08	5.464297e+01	1.248840e+03
1.510000e-06	8.022527e-06	1.906912e-08	5.494148e+01	1.251543e+03
1.520000e-06	8.063202e-06	1.910257e-08	5.522004e+01	1.253795e+03
1.530000e-06	8.101126e-06	1.913081e-08	5.547976e+01	1.255445e+03
1.540000e-06	8.136298e-06	1.915669e-08	5.572063e+01	1.256533e+03
1.550000e-06	8.168552e-06	1.918057e-08	5.594152e+01	1.257268e+03
1.560000e-06	8.197978e-06	1.920128e-08	5.614304e+01	1.257934e+03
1.570000e-06	8.224492e-06	1.921709e-08	5.632462e+01	1.258765e+03
1.580000e-06	8.247996e-06	1.922945e-08	5.648558e+01	1.259845e+03
1.590000e-06	8.268619e-06	1.924245e-08	5.662682e+01	1.261075e+03
1.600000e-06	8.286370e-06	1.925388e-08	5.674838e+01	1.262225e+03
1.610000e-06	8.301108e-06	1.926230e-08	5.684931e+01	1.263036e+03
1.620000e-06	8.312684e-06	1.926764e-08	5.692859e+01	1.263343e+03
1.630000e-06	8.321112e-06	1.927140e-08	5.698631e+01	1.263145e+03
1.640000e-06	8.326607e-06	1.927572e-08	5.702394e+01	1.262604e+03
1.650000e-06	8.329171e-06	1.927640e-08	5.704150e+01	1.261973e+03
1.660000e-06	8.328815e-06	1.927185e-08	5.703907e+01	1.261481e+03
1.670000e-06	8.325789e-06	1.926288e-08	5.701834e+01	1.261232e+03
1.680000e-06	8.320022e-06	1.925602e-08	5.697884e+01	1.261160e+03
1.690000e-06	8.311449e-06	1.924572e-08	5.692013e+01	1.261060e+03
1.700000e-06	8.299983e-06	1.923085e-08	5.684161e+01	1.260679e+03
1.710000e-06	8.285575e-06	1.921859e-08	5.674294e+01	1.259828e+03
1.720000e-06	8.268583e-06	1.921281e-08	5.662657e+01	1.258469e+03
1.730000e-06	8.249182e-06	1.920170e-08	5.649370e+01	1.256725e+03
1.740000e-06	8.226977e-06	1.912911e-08	5.634164e+01	1.254831e+03
1.750000e-06	8.201225e-06	1.906391e-08	5.616527e+01	1.253028e+03
1.760000e-06	8.171545e-06	1.904813e-08	5.596202e+01	1.251461e+03
1.770000e-06	8.138565e-06	1.903951e-08	5.573615e+01	1.250123e+03
1.780000e-06	8.103095e-06	1.904123e-08	5.549324e+01	1.248862e+03
1.790000e-06	8.065211e-06	1.907024e-08	5.523380e+01	1.247461e+03
1.800000e-06	8.025218e-06	1.902338e-08	5.495991e+01	1.245732e+03
1.810000e-06	7.983141e-06	1.894413e-08	5.467175e+01	1.243607e+03
1.820000e-06	7.938214e-06	1.896169e-08	5.436407e+01	1.241156e+03
1.830000e-06	7.890419e-06	1.889485e-08	5.403675e+01	1.238549e+03
1.840000e-06	7.839600e-06	1.888776e-08	5.368872e+01	1.235963e+03
1.850000e-06	7.785426e-06	1.888471e-08	5.331772e+01	1.233484e+03
1.860000e-06	7.728470e-06	1.883058e-08	5.292766e+01	1.231058e+03
1.870000e-06	7.668812e-06	1.884058e-08	5.251910e+01	1.228498e+03
1.880000e-06	7.606435e-06	1.872896e-08	5.209192e+01	1.225564e+03
1.890000e-06	7.541320e-06	1.866069e-08	5.164598e+01	1.222070e+03
1.900000e-06	7.473334e-06	1.858340e-08	5.118039e+01	1.217977e+03
1.910000e-06	7.402550e-06	1.851316e-08	5.069563e+01	1.213414e+03
1.920000e-06	7.328804e-06	1.850282e-08	5.019059e+01	1.208638e+03
1.930000e-06	7.252300e-06	1.842263e-08	4.966666e+01	1.203921e+03
1.940000e-06	7.173126e-06	1.839374e-08	4.912444e+01	1.199433e+03
1.950000e-06	7.091381e-06	1.828820e-08	4.856462e+01	1.195163e+03
1.960000e-06	7.007134e-06	1.819531e-08	4.798766e+01	1.190919e+03
1.970000e-06	6.920207e-06	1.810373e-08	4.739235e+01	1.186404e+03
1.980000e-06	6.830832e-06	1.799830e-08	4.678028e+01	1.181346e+03
1.990000e-06	6.739106e-06	1.796049e-08	4.615210e+01	1.175617e+03
2.000000e-06	6.644997e-06	1.787371e-08	4.550760e+01	1.169294e+03
2.010000e-06	6.548514e-06	1.780545e-08	4.484685e+01	1.162628e+03
2.020000e-06	6.449721e-06	1.768677e-08	4.417028e+01	1.155938e+03
2.030000e-06	6.348569e-06	1.757856e-08	4.347754e+01	1.149473e+03
2.040000e-06	6.245007e-06	1.746620e-08	4.276831e+01	1.143294e+03
2.050000e-06	6.139261e-06	1.735838e-08	4.204412e+01	1.137248e+03
2.060000e-06	6.031424e-06	1.726604e-08	4.130561e+01	1.131021e+03
2.070000e-06	5.921448e-06	1.715239e-08	4.055245e+01	1.124279e+03
2.080000e-06	5.809234e-06	1.705310e-08	3.978396e+01	1.116804e+03
2.090000e-06	5.694803e-06	1.693041e-08	3.900029e+01	1.108599e+03
2.100000e-06	5.578145e-06	1.680582e-08	3.820137e+01	1.099880e+03
2.110000e-06	5.459316e-06	1.666589e-08	3.738759e+01	1.090987e+03
2.120000e-06	5.338459e-06	1.653279e-08	3.655991e+01	1.082229e+03
2.130000e-06	5.215684e-06	1.639494e-08	3.571909e+01	1.073740e+03
2.140000e-06	5.091102e-06	1.625998e-08	3.486591e+01	1.065413e+03
2.150000e-06	4.964692e-06	1.612490e-08	3.400020e+01	1.056933e+03
2.160000e-06	4.836437e-06	1.598525e-08	3.312186e+01	1.047914e+03
2.170000e-06	4.706440e-06	1.583709e-08	3.223158e+01	1.038061e+03
2.180000e-06	4.574824e-06	1.567467e-08	3.133023e+01	1.027304e+03
2.190000e-06	4.441670e-06	1.550411e-08	3.041833e+01	1.015832e+03
2.200000e-06	4.306908e-06	1.532956e-08	2.949543e+01	1.004012e+03
2.210000e-06	4.170427e-06	1.515647e-08	2.856075e+01	9.922245e+02
2.220000e-06	4.032362e-06	1.498152e-08	2.761523e+01	9.806847e+02
2.230000e-06	3.892833e-06	1.480284e-08	2.665968e+01	9.693361e+02
2.240000e-06	3.751859e-06	1.461544e-08	2.569423e+01	9.578581e+02
2.250000e-06	3.609527e-06	1.442252e-08	2.471949e+01	9.457948e+02
2.260000e-06	3.465874e-06	1.422041e-08	2.373570e+01	9.327515e+02
2.270000e-06	3.320896e-06	1.400715e-08	2.274283e+01	9.185707e+02
2.280000e-06	3.174699e-06	1.378301e-08	2.174161e+01	9.034086e+02
2.290000e-06	3.027396e-06	1.355715e-08	2.073282e+01	8.876713e+02
2.300000e-06	2.879038e-06	1.332988e-08	1.971681e+01	8.718321e+02
2.310000e-06	2.729710e-06	1.309665e-08	1.869415e+01	8.562065e+02
2.320000e-06	2.579498e-06	1.285152e-08	1.766544e+01	8.407849e+02
2.330000e-06	2.428339e-06	1.259700e-08	1.663024e+01	8.252029e+02
2.340000e-06	2.276142e-06	1.232986e-08	1.558794e+01	8.088709e+02
2.350000e-06	2.123050e-06	1.205010e-08	1.453950e+01	7.912154e+02
2.360000e-06	1.969243e-06	1.175811e-08	1.348617e+01	7.719290e+02
2.370000e-06	1.814763e-06	1.145955e-08	1.242822e+01	7.511137e+02
2.380000e-06	1.659668e-06	1.115213e-08	1.136607e+01	7.292440e+02
2.390000e-06	1.504038e-06	1.083121e-08	1.030025e+01	7.069493e+02
2.400000e-06	1.347859e-06	1.049426e-08	9.230677e+00	6.847005e+02
2.410000e-06	1.191187e-06	1.013898e-08	8.157726e+00	6.625329e+02
2.420000e-06	1.034113e-06	9.766571e-09	7.082022e+00	6.399392e+02
2.430000e-06	8.766692e-07	9.374849e-09	6.003782e+00	6.159972e+02
2.440000e-06	7.189359e-07	8.961107e-09	4.923561e+00	5.897018e+02
2.450000e-06	5.609718e-07	8.523405e-09	3.841759e+00	5.603705e+02
2.460000e-06	4.028602e-07	8.063800e-09	2.758948e+00	5.279432e+02
2.470000e-06	2.446775e-07	7.576216e-09	1.675649e+00	4.930177e+02
2.480000e-06	8.639930e-08	7.050791e-09	5.916971e-01	4.565558e+02
2.490000e-06	-7.192669e-08	6.480122e-09	-4.925828e-01	4.193299e+02
2.500000e-06	-2.301851e-07	5.864644e-09	-1.576400e+00	3.813007e+02
2.510000e-06	-3.883309e-07	5.198160e-09	-2.659446e+00	3.411791e+02
2.520000e-06	-5.463547e-07	4.463626e-09	-3.741656e+00	2.963925e+02
2.530000e-06	-7.042442e-07	3.641466e-09	-4.822946e+00	2.435520e+02
2.540000e-06	-8.618938e-07	2.712522e-09	-5.902594e+00	1.793442e+02
2.550000e-06	-1.019221e-06	1.633034e-09	-6.980031e+00	1.016059e+02
2.560000e-06	-1.176142e-06	3.369371e-10	-8.054689e+00	1.024733e+01
2.570000e-06	-1.332601e-06	-1.219665e-09	-9.126186e+00	-9.229342e+01
2.580000e-06	-1.488634e-06	-2.988594e-09	-1.019476e+01	-2.012516e+02
2.590000e-06	-1.644113e-06	-4.795580e-09	-1.125954e+01	-3.103805e+02
2.600000e-06	-1.798972e-06	-6.430610e-09	-1.232008e+01	-4.132218e+02
2.610000e-06	-1.953209e-06	-7.780480e-09	-1.337636e+01	-5.044464e+02
2.620000e-06	-2.106772e-06	-8.856621e-09	-1.442802e+01	-5.808852e+02
2.630000e-06	-2.259601e-06	-9.723755e-09	-1.547466e+01	-6.419703e+02
2.640000e-06	-2.411491e-06	-1.044312e-08	-1.651486e+01	-6.894931e+02
2.650000e-06	-2.562367e-06	-1.105670e-08	-1.754812e+01	-7.267985e+02
2.660000e-06	-2.712316e-06	-1.159081e-08	-1.857503e+01	-7.576978e+02
2.670000e-06	-2.861317e-06	-1.206502e-08	-1.959545e+01	-7.854465e+02
2.680000e-06	-3.009346e-06	-1.249374e-08	-2.060921e+01	-8.120779e+02
2.690000e-06	-3.156355e-06	-1.288160e-08	-2.161598e+01	-8.382402e+02
2.700000e-06	-3.302271e-06	-1.323196e-08	-2.261528e+01	-8.635035e+02
2.710000e-06	-3.446990e-06	-1.355069e-08	-2.360637e+01	-8.869526e+02
2.720000e-06	-3.590380e-06	-1.384605e-08	-2.458836e+01	-9.078106e+02
2.730000e-06	-3.732373e-06	-1.412180e-08	-2.556078e+01	-9.258639e+02
2.740000e-06	-3.872983e-06	-1.438045e-08	-2.652374e+01	-9.415658e+02
2.750000e-06	-4.012211e-06	-1.462904e-08	-2.747723e+01	-9.558306e+02
2.760000e-06	-4.149941e-06	-1.487051e-08	-2.842046e+01	-9.696490e+02
2.770000e-06	-4.286039e-06	-1.510163e-08	-2.935251e+01	-9.837063e+02
2.780000e-06	-4.420511e-06	-1.531470e-08	-3.027343e+01	-9.981630e+02
2.790000e-06	-4.553442e-06	-1.550819e-08	-3.118380e+01	-1.012672e+03
2.800000e-06	-4.684817e-06	-1.569230e-08	-3.208351e+01	-1.026604e+03
2.810000e-06	-4.814580e-06	-1.587103e-08	-3.297217e+01	-1.039368e+03
2.820000e-06	-4.942633e-06	-1.604188e-08	-3.384913e+01	-1.050681e+03
2.830000e-06	-5.068868e-06	-1.620644e-08	-3.471364e+01	-1.060688e+03
2.840000e-06	-5.193340e-06	-1.637017e-08	-3.556607e+01	-1.069881e+03
2.850000e-06	-5.316067e-06	-1.653249e-08	-3.640656e+01	-1.078877e+03
2.860000e-06	-5.436833e-06	-1.668362e-08	-3.723361e+01	-1.088152e+03
2.870000e-06	-5.555456e-06	-1.682003e-08	-3.804599e+01	-1.097857e+03
2.880000e-06	-5.671964e-06	-1.694845e-08	-3.884388e+01	-1.107774e+03
2.890000e-06	-5.786214e-06	-1.707497e-08	-3.962631e+01	-1.117443e+03
2.900000e-06	-5.898122e-06	-1.719897e-08	-4.039270e+01	-1.126373e+03
2.910000e-06	-6.007882e-06	-1.731430e-08	-4.114439e+01	-1.134263e+03
2.920000e-06	-6.115515e-06	-1.742312e-08	-4.188150e+01	-1.141128e+03
2.930000e-06	-6.221062e-06	-1.753268e-08	-4.260432e+01	-1.147276e+03
2.940000e-06	-6.324386e-06	-1.764137e-08	-4.331193e+01	-1.153170e+03
