# Temperatura_=_26.74
# Concentracion g/m^3_=_13400.0
# C_Vs_to_Am_M_A/Vsm_=_65563218390.804596
# pendiente_HvsI_1/m_=_3716.3
# ordenada_HvsI_A/m_=_1297.0
# frecuencia_Hz_=_301432.7038928755

Tiempo_(s)	Campo_(V.s)	Magnetizacion_(V.s)	Campo_(kA/m)	Magnetizacion_(A/m)
0.000000e+00	-8.374035e-06	-1.824383e-08	-5.690872e+01	-1.196209e+03
1.000000e-08	-8.370383e-06	-1.824502e-08	-5.688390e+01	-1.195797e+03
2.000000e-08	-8.364039e-06	-1.823892e-08	-5.684079e+01	-1.195607e+03
3.000000e-08	-8.355039e-06	-1.823489e-08	-5.677963e+01	-1.195545e+03
4.000000e-08	-8.343090e-06	-1.822599e-08	-5.669842e+01	-1.195415e+03
5.000000e-08	-8.327970e-06	-1.821119e-08	-5.659567e+01	-1.195000e+03
6.000000e-08	-8.309932e-06	-1.818612e-08	-5.647309e+01	-1.194163e+03
7.000000e-08	-8.289473e-06	-1.814146e-08	-5.633405e+01	-1.192907e+03
8.000000e-08	-8.266431e-06	-1.820043e-08	-5.617746e+01	-1.191374e+03
9.000000e-08	-8.240144e-06	-1.826813e-08	-5.599882e+01	-1.189786e+03
1.000000e-07	-8.210455e-06	-1.817524e-08	-5.579705e+01	-1.188348e+03
1.100000e-07	-8.177648e-06	-1.811709e-08	-5.557410e+01	-1.187161e+03
1.200000e-07	-8.141921e-06	-1.811795e-08	-5.533131e+01	-1.186187e+03
1.300000e-07	-8.103594e-06	-1.807123e-08	-5.507084e+01	-1.185263e+03
1.400000e-07	-8.062945e-06	-1.792054e-08	-5.479460e+01	-1.184180e+03
1.500000e-07	-8.019791e-06	-1.797107e-08	-5.450133e+01	-1.182771e+03
1.600000e-07	-7.973783e-06	-1.808493e-08	-5.418867e+01	-1.180980e+03
1.700000e-07	-7.924922e-06	-1.787640e-08	-5.385661e+01	-1.178877e+03
1.800000e-07	-7.873022e-06	-1.800711e-08	-5.350391e+01	-1.176613e+03
1.900000e-07	-7.817946e-06	-1.794333e-08	-5.312962e+01	-1.174345e+03
2.000000e-07	-7.760086e-06	-1.778224e-08	-5.273642e+01	-1.172149e+03
2.100000e-07	-7.699503e-06	-1.780760e-08	-5.232470e+01	-1.169982e+03
2.200000e-07	-7.636188e-06	-1.769457e-08	-5.189442e+01	-1.167698e+03
2.300000e-07	-7.570135e-06	-1.777439e-08	-5.144553e+01	-1.165112e+03
2.400000e-07	-7.501244e-06	-1.767873e-08	-5.097736e+01	-1.162090e+03
2.500000e-07	-7.429585e-06	-1.765016e-08	-5.049038e+01	-1.158617e+03
2.600000e-07	-7.355067e-06	-1.759389e-08	-4.998397e+01	-1.154806e+03
2.700000e-07	-7.277630e-06	-1.751401e-08	-4.945772e+01	-1.150860e+03
2.800000e-07	-7.197329e-06	-1.746333e-08	-4.891200e+01	-1.146975e+03
2.900000e-07	-7.114359e-06	-1.735379e-08	-4.834815e+01	-1.143257e+03
3.000000e-07	-7.029008e-06	-1.738678e-08	-4.776811e+01	-1.139662e+03
3.100000e-07	-6.941339e-06	-1.730612e-08	-4.717233e+01	-1.136014e+03
3.200000e-07	-6.851237e-06	-1.725392e-08	-4.656001e+01	-1.132075e+03
3.300000e-07	-6.758668e-06	-1.717297e-08	-4.593093e+01	-1.127648e+03
3.400000e-07	-6.663705e-06	-1.705445e-08	-4.528557e+01	-1.122669e+03
3.500000e-07	-6.566368e-06	-1.699306e-08	-4.462408e+01	-1.117234e+03
3.600000e-07	-6.466580e-06	-1.691834e-08	-4.394593e+01	-1.111565e+03
3.700000e-07	-6.364376e-06	-1.685953e-08	-4.325137e+01	-1.105911e+03
3.800000e-07	-6.259860e-06	-1.676310e-08	-4.254110e+01	-1.100439e+03
3.900000e-07	-6.153061e-06	-1.670652e-08	-4.181531e+01	-1.095152e+03
4.000000e-07	-6.044095e-06	-1.661471e-08	-4.107479e+01	-1.089881e+03
4.100000e-07	-5.933001e-06	-1.650561e-08	-4.031981e+01	-1.084354e+03
4.200000e-07	-5.819667e-06	-1.639543e-08	-3.954961e+01	-1.078309e+03
4.300000e-07	-5.704015e-06	-1.629124e-08	-3.876366e+01	-1.071610e+03
4.400000e-07	-5.586139e-06	-1.620797e-08	-3.796258e+01	-1.064305e+03
4.500000e-07	-5.466193e-06	-1.611200e-08	-3.714745e+01	-1.056610e+03
4.600000e-07	-5.344317e-06	-1.599967e-08	-3.631920e+01	-1.048813e+03
4.700000e-07	-5.220509e-06	-1.587286e-08	-3.547782e+01	-1.041144e+03
4.800000e-07	-5.094802e-06	-1.575538e-08	-3.462353e+01	-1.033666e+03
4.900000e-07	-4.967321e-06	-1.563313e-08	-3.375719e+01	-1.026238e+03
5.000000e-07	-4.838044e-06	-1.550224e-08	-3.287864e+01	-1.018567e+03
5.100000e-07	-4.707002e-06	-1.536572e-08	-3.198810e+01	-1.010325e+03
5.200000e-07	-4.574220e-06	-1.524053e-08	-3.108573e+01	-1.001295e+03
5.300000e-07	-4.439807e-06	-1.510952e-08	-3.017228e+01	-9.914600e+02
5.400000e-07	-4.303781e-06	-1.496183e-08	-2.924787e+01	-9.810154e+02
5.500000e-07	-4.166179e-06	-1.478932e-08	-2.831275e+01	-9.702808e+02
5.600000e-07	-4.027015e-06	-1.462036e-08	-2.736701e+01	-9.595555e+02
5.700000e-07	-3.886190e-06	-1.445708e-08	-2.640998e+01	-9.489767e+02
5.800000e-07	-3.743758e-06	-1.429156e-08	-2.544204e+01	-9.384455e+02
5.900000e-07	-3.599914e-06	-1.411367e-08	-2.446449e+01	-9.276550e+02
6.000000e-07	-3.454784e-06	-1.393027e-08	-2.347821e+01	-9.162143e+02
6.100000e-07	-3.308333e-06	-1.375086e-08	-2.248295e+01	-9.038133e+02
6.200000e-07	-3.160683e-06	-1.356083e-08	-2.147954e+01	-8.903597e+02
6.300000e-07	-3.011992e-06	-1.334999e-08	-2.046906e+01	-8.760208e+02
6.400000e-07	-2.862312e-06	-1.311661e-08	-1.945185e+01	-8.611500e+02
6.500000e-07	-2.711685e-06	-1.288866e-08	-1.842821e+01	-8.461229e+02
6.600000e-07	-2.560126e-06	-1.266106e-08	-1.739824e+01	-8.311540e+02
6.700000e-07	-2.407570e-06	-1.242747e-08	-1.636149e+01	-8.161746e+02
6.800000e-07	-2.254121e-06	-1.217827e-08	-1.531868e+01	-8.008320e+02
6.900000e-07	-2.099953e-06	-1.191987e-08	-1.427097e+01	-7.846170e+02
7.000000e-07	-1.945025e-06	-1.165220e-08	-1.321811e+01	-7.670701e+02
7.100000e-07	-1.789358e-06	-1.136837e-08	-1.216022e+01	-7.479765e+02
7.200000e-07	-1.633068e-06	-1.106768e-08	-1.109809e+01	-7.274603e+02
7.300000e-07	-1.476175e-06	-1.075092e-08	-1.003187e+01	-7.059258e+02
7.400000e-07	-1.318679e-06	-1.042861e-08	-8.961552e+00	-6.838598e+02
7.500000e-07	-1.160666e-06	-1.009081e-08	-7.887718e+00	-6.615740e+02
7.600000e-07	-1.002211e-06	-9.731629e-09	-6.810883e+00	-6.389992e+02
7.700000e-07	-8.434189e-07	-9.347836e-09	-5.731752e+00	-6.156330e+02
7.800000e-07	-6.843952e-07	-8.945816e-09	-4.651050e+00	-5.906804e+02
7.900000e-07	-5.251481e-07	-8.523922e-09	-3.568830e+00	-5.633440e+02
8.000000e-07	-3.657184e-07	-8.076244e-09	-2.485369e+00	-5.331485e+02
8.100000e-07	-2.061225e-07	-7.597529e-09	-1.400778e+00	-5.001498e+02
8.200000e-07	-4.642717e-08	-7.087988e-09	-3.155123e-01	-4.649108e+02
8.300000e-07	1.132185e-07	-6.549790e-09	7.694161e-01	-4.282133e+02
8.400000e-07	2.727290e-07	-5.970599e-09	1.853426e+00	-3.905801e+02
8.500000e-07	4.321360e-07	-5.343177e-09	2.936733e+00	-3.517817e+02
8.600000e-07	5.914454e-07	-4.660656e-09	4.019377e+00	-3.105318e+02
8.700000e-07	7.505713e-07	-3.922225e-09	5.100773e+00	-2.645375e+02
8.800000e-07	9.094048e-07	-3.106644e-09	6.180183e+00	-2.109579e+02
8.900000e-07	1.067986e-06	-2.179189e-09	7.257874e+00	-1.471816e+02
9.000000e-07	1.226291e-06	-1.093603e-09	8.333696e+00	-7.170549e+01
9.100000e-07	1.384080e-06	1.940307e-10	9.406007e+00	1.516076e+01
9.200000e-07	1.541296e-06	1.684626e-09	1.047442e+01	1.110091e+02
9.300000e-07	1.697934e-06	3.306153e-09	1.153892e+01	2.115923e+02
9.400000e-07	1.853907e-06	4.907104e-09	1.259888e+01	3.115865e+02
9.500000e-07	2.009178e-06	6.345273e-09	1.365408e+01	4.056563e+02
9.600000e-07	2.163755e-06	7.552135e-09	1.470456e+01	4.895251e+02
9.700000e-07	2.317559e-06	8.547311e-09	1.574979e+01	5.607516e+02
9.800000e-07	2.470587e-06	9.378499e-09	1.678975e+01	6.190090e+02
9.900000e-07	2.622748e-06	1.008447e-08	1.782382e+01	6.658210e+02
1.000000e-06	2.773895e-06	1.069154e-08	1.885098e+01	7.038758e+02
1.010000e-06	2.923989e-06	1.121655e-08	1.987100e+01	7.361564e+02
1.020000e-06	3.073010e-06	1.168128e-08	2.088373e+01	7.651607e+02
1.030000e-06	3.220929e-06	1.209925e-08	2.188897e+01	7.924265e+02
1.040000e-06	3.367767e-06	1.247842e-08	2.288686e+01	8.184541e+02
1.050000e-06	3.513459e-06	1.281959e-08	2.387696e+01	8.429780e+02
1.060000e-06	3.657807e-06	1.313207e-08	2.485792e+01	8.654290e+02
1.070000e-06	3.800821e-06	1.342128e-08	2.582982e+01	8.853898e+02
1.080000e-06	3.942385e-06	1.369158e-08	2.679187e+01	9.028761e+02
1.090000e-06	4.082385e-06	1.394481e-08	2.774330e+01	9.183687e+02
1.100000e-06	4.220889e-06	1.418082e-08	2.868455e+01	9.326256e+02
1.110000e-06	4.357857e-06	1.440610e-08	2.961536e+01	9.463859e+02
1.120000e-06	4.493160e-06	1.462093e-08	3.053486e+01	9.601041e+02
1.130000e-06	4.626803e-06	1.482128e-08	3.144308e+01	9.738266e+02
1.140000e-06	4.758798e-06	1.500610e-08	3.234010e+01	9.872472e+02
1.150000e-06	4.889139e-06	1.518080e-08	3.322588e+01	9.999040e+02
1.160000e-06	5.017742e-06	1.534701e-08	3.409984e+01	1.011421e+03
1.170000e-06	5.144532e-06	1.550679e-08	3.496149e+01	1.021686e+03
1.180000e-06	5.269523e-06	1.565944e-08	3.581091e+01	1.030905e+03
1.190000e-06	5.392701e-06	1.580734e-08	3.664801e+01	1.039500e+03
1.200000e-06	5.513993e-06	1.595042e-08	3.747229e+01	1.047928e+03
1.210000e-06	5.633258e-06	1.608711e-08	3.828280e+01	1.056489e+03
1.220000e-06	5.750393e-06	1.621637e-08	3.907883e+01	1.065213e+03
1.230000e-06	5.865292e-06	1.633661e-08	3.985967e+01	1.073872e+03
1.240000e-06	5.977857e-06	1.645169e-08	4.062464e+01	1.082102e+03
1.250000e-06	6.088279e-06	1.656086e-08	4.137506e+01	1.089576e+03
1.260000e-06	6.196651e-06	1.666529e-08	4.211153e+01	1.096154e+03
1.270000e-06	6.302858e-06	1.676358e-08	4.283331e+01	1.101947e+03
1.280000e-06	6.406792e-06	1.685594e-08	4.353963e+01	1.107265e+03
1.290000e-06	6.508367e-06	1.694372e-08	4.422991e+01	1.112481e+03
1.300000e-06	6.607570e-06	1.702598e-08	4.490408e+01	1.117877e+03
1.310000e-06	6.704273e-06	1.710518e-08	4.556126e+01	1.123530e+03
1.320000e-06	6.798637e-06	1.718373e-08	4.620255e+01	1.129294e+03
1.330000e-06	6.890717e-06	1.726190e-08	4.682831e+01	1.134877e+03
1.340000e-06	6.980339e-06	1.733519e-08	4.743736e+01	1.139979e+03
1.350000e-06	7.067502e-06	1.740248e-08	4.802972e+01	1.144425e+03
1.360000e-06	7.152262e-06	1.746488e-08	4.860573e+01	1.148242e+03
1.370000e-06	7.234542e-06	1.752413e-08	4.916489e+01	1.151640e+03
1.380000e-06	7.314155e-06	1.758168e-08	4.970593e+01	1.154917e+03
1.390000e-06	7.391039e-06	1.763740e-08	5.022842e+01	1.158329e+03
1.400000e-06	7.465113e-06	1.769317e-08	5.073182e+01	1.161979e+03
1.410000e-06	7.536469e-06	1.774856e-08	5.121674e+01	1.165782e+03
1.420000e-06	7.605244e-06	1.780150e-08	5.168413e+01	1.169507e+03
1.430000e-06	7.671261e-06	1.784869e-08	5.213277e+01	1.172887e+03
1.440000e-06	7.734541e-06	1.788806e-08	5.256281e+01	1.175740e+03
1.450000e-06	7.795210e-06	1.792637e-08	5.297511e+01	1.178046e+03
1.460000e-06	7.853121e-06	1.796735e-08	5.336867e+01	1.179953e+03
1.470000e-06	7.908196e-06	1.800572e-08	5.374295e+01	1.181711e+03
1.480000e-06	7.960098e-06	1.803976e-08	5.409566e+01	1.183556e+03
1.490000e-06	8.008767e-06	1.807414e-08	5.442641e+01	1.185609e+03
1.500000e-06	8.054648e-06	1.811062e-08	5.473821e+01	1.187823e+03
1.510000e-06	8.097692e-06	1.814181e-08	5.503073e+01	1.190012e+03
1.520000e-06	8.137808e-06	1.816125e-08	5.530336e+01	1.191929e+03
1.530000e-06	8.175177e-06	1.817706e-08	5.555731e+01	1.193389e+03
1.540000e-06	8.209647e-06	1.819651e-08	5.579157e+01	1.194342e+03
1.550000e-06	8.241163e-06	1.821627e-08	5.600574e+01	1.194903e+03
1.560000e-06	8.269904e-06	1.823097e-08	5.620106e+01	1.195300e+03
1.570000e-06	8.295662e-06	1.824249e-08	5.637611e+01	1.195773e+03
1.580000e-06	8.318457e-06	1.825822e-08	5.653102e+01	1.196474e+03
1.590000e-06	8.338494e-06	1.827566e-08	5.666719e+01	1.197403e+03
1.600000e-06	8.355542e-06	1.828522e-08	5.678305e+01	1.198409e+03
1.610000e-06	8.369393e-06	1.828692e-08	5.687718e+01	1.199260e+03
1.620000e-06	8.379970e-06	1.829018e-08	5.694905e+01	1.199750e+03
1.630000e-06	8.387370e-06	1.829739e-08	5.699934e+01	1.199783e+03
1.640000e-06	8.391907e-06	1.830255e-08	5.703018e+01	1.199420e+03
1.650000e-06	8.393573e-06	1.830512e-08	5.704150e+01	1.198844e+03
1.660000e-06	8.392402e-06	1.829569e-08	5.703354e+01	1.198282e+03
1.670000e-06	8.388474e-06	1.828459e-08	5.700685e+01	1.197901e+03
1.680000e-06	8.381681e-06	1.828352e-08	5.696068e+01	1.197737e+03
1.690000e-06	8.372049e-06	1.827669e-08	5.689522e+01	1.197678e+03
1.700000e-06	8.359398e-06	1.826517e-08	5.680925e+01	1.197519e+03
1.710000e-06	8.343863e-06	1.826421e-08	5.670368e+01	1.197048e+03
1.720000e-06	8.325959e-06	1.828441e-08	5.658200e+01	1.196146e+03
1.730000e-06	8.305567e-06	1.824793e-08	5.644342e+01	1.194838e+03
1.740000e-06	8.282123e-06	1.808700e-08	5.628410e+01	1.193282e+03
1.750000e-06	8.254958e-06	1.811748e-08	5.609949e+01	1.191704e+03
1.760000e-06	8.223924e-06	1.815570e-08	5.588859e+01	1.190297e+03
1.770000e-06	8.189824e-06	1.810652e-08	5.565685e+01	1.189146e+03
1.780000e-06	8.153239e-06	1.813026e-08	5.540822e+01	1.188190e+03
1.790000e-06	8.114329e-06	1.827908e-08	5.514380e+01	1.187255e+03
1.800000e-06	8.073487e-06	1.806711e-08	5.486624e+01	1.186132e+03
1.810000e-06	8.030357e-06	1.803259e-08	5.457313e+01	1.184668e+03
1.820000e-06	7.984204e-06	1.814761e-08	5.425949e+01	1.182824e+03
1.830000e-06	7.935167e-06	1.788332e-08	5.392624e+01	1.180687e+03
1.840000e-06	7.882811e-06	1.807821e-08	5.357044e+01	1.178414e+03
1.850000e-06	7.827250e-06	1.795414e-08	5.319285e+01	1.176152e+03
1.860000e-06	7.769088e-06	1.798360e-08	5.279759e+01	1.173965e+03
1.870000e-06	7.708018e-06	1.801666e-08	5.238257e+01	1.171791e+03
1.880000e-06	7.644228e-06	1.775952e-08	5.194906e+01	1.169474e+03
1.890000e-06	7.577624e-06	1.786389e-08	5.149643e+01	1.166830e+03
1.900000e-06	7.508098e-06	1.767382e-08	5.102394e+01	1.163741e+03
1.910000e-06	7.435692e-06	1.773649e-08	5.053188e+01	1.160208e+03
1.920000e-06	7.360359e-06	1.769343e-08	5.001993e+01	1.156364e+03
1.930000e-06	7.282284e-06	1.762909e-08	4.948934e+01	1.152415e+03
1.940000e-06	7.201570e-06	1.765641e-08	4.894082e+01	1.148550e+03
1.950000e-06	7.118408e-06	1.742161e-08	4.837566e+01	1.144854e+03
1.960000e-06	7.032595e-06	1.747437e-08	4.779249e+01	1.141264e+03
1.970000e-06	6.944204e-06	1.729350e-08	4.719180e+01	1.137588e+03
1.980000e-06	6.853395e-06	1.729175e-08	4.657468e+01	1.133588e+03
1.990000e-06	6.760052e-06	1.726310e-08	4.594033e+01	1.129082e+03
2.000000e-06	6.664397e-06	1.718116e-08	4.529027e+01	1.124027e+03
2.010000e-06	6.566416e-06	1.714296e-08	4.462441e+01	1.118541e+03
2.020000e-06	6.466140e-06	1.697537e-08	4.394294e+01	1.112859e+03
2.030000e-06	6.363398e-06	1.694343e-08	4.324473e+01	1.107224e+03
2.040000e-06	6.258338e-06	1.679110e-08	4.253075e+01	1.101781e+03
2.050000e-06	6.151177e-06	1.675395e-08	4.180250e+01	1.096509e+03
2.060000e-06	6.041855e-06	1.664473e-08	4.105957e+01	1.091218e+03
2.070000e-06	5.930291e-06	1.657730e-08	4.030139e+01	1.085630e+03
2.080000e-06	5.816392e-06	1.649028e-08	3.952735e+01	1.079495e+03
2.090000e-06	5.700239e-06	1.637874e-08	3.873799e+01	1.072701e+03
2.100000e-06	5.581847e-06	1.627135e-08	3.793342e+01	1.065323e+03
2.110000e-06	5.461406e-06	1.613843e-08	3.711492e+01	1.057595e+03
2.120000e-06	5.338959e-06	1.603447e-08	3.628279e+01	1.049804e+03
2.130000e-06	5.214669e-06	1.590750e-08	3.543813e+01	1.042162e+03
2.140000e-06	5.088508e-06	1.580676e-08	3.458076e+01	1.034704e+03
2.150000e-06	4.960491e-06	1.567799e-08	3.371077e+01	1.027260e+03
2.160000e-06	4.830722e-06	1.556580e-08	3.282888e+01	1.019525e+03
2.170000e-06	4.699200e-06	1.542235e-08	3.193508e+01	1.011179e+03
2.180000e-06	4.566084e-06	1.528687e-08	3.103044e+01	1.002029e+03
2.190000e-06	4.431325e-06	1.512974e-08	3.011464e+01	9.920896e+02
2.200000e-06	4.294891e-06	1.498330e-08	2.918745e+01	9.815818e+02
2.210000e-06	4.156808e-06	1.482572e-08	2.824906e+01	9.708316e+02
2.220000e-06	4.017134e-06	1.467028e-08	2.729986e+01	9.601229e+02
2.230000e-06	3.875994e-06	1.450817e-08	2.634069e+01	9.495617e+02
2.240000e-06	3.733399e-06	1.433780e-08	2.537164e+01	9.390148e+02
2.250000e-06	3.589427e-06	1.416408e-08	2.439322e+01	9.281543e+02
2.260000e-06	3.444245e-06	1.397620e-08	2.340659e+01	9.165904e+02
2.270000e-06	3.297835e-06	1.378381e-08	2.241161e+01	9.040376e+02
2.280000e-06	3.150160e-06	1.357732e-08	2.140803e+01	8.904406e+02
2.290000e-06	3.001382e-06	1.337036e-08	2.039695e+01	8.760005e+02
2.300000e-06	2.851667e-06	1.315656e-08	1.937951e+01	8.610852e+02
2.310000e-06	2.700962e-06	1.294224e-08	1.835535e+01	8.460580e+02
2.320000e-06	2.549248e-06	1.271514e-08	1.732432e+01	8.310981e+02
2.330000e-06	2.396604e-06	1.247621e-08	1.628697e+01	8.160929e+02
2.340000e-06	2.243076e-06	1.221900e-08	1.524362e+01	8.006571e+02
2.350000e-06	2.088696e-06	1.195068e-08	1.419448e+01	7.842751e+02
2.360000e-06	1.933526e-06	1.167433e-08	1.313996e+01	7.665118e+02
2.370000e-06	1.777607e-06	1.139299e-08	1.208036e+01	7.471984e+02
2.380000e-06	1.621090e-06	1.110028e-08	1.101669e+01	7.265064e+02
2.390000e-06	1.464123e-06	1.079197e-08	9.949966e+00	7.048664e+02
2.400000e-06	1.306664e-06	1.046646e-08	8.879898e+00	6.827561e+02
2.410000e-06	1.148682e-06	1.012139e-08	7.806273e+00	6.604426e+02
2.420000e-06	9.902779e-07	9.755148e-09	6.729784e+00	6.377938e+02
2.430000e-06	8.315424e-07	9.369279e-09	5.651041e+00	6.142523e+02
2.440000e-06	6.725311e-07	8.963982e-09	4.570423e+00	5.890027e+02
2.450000e-06	5.132767e-07	8.538716e-09	3.488153e+00	5.612749e+02
2.460000e-06	3.538159e-07	8.091955e-09	2.404481e+00	5.306612e+02
2.470000e-06	1.942745e-07	7.619621e-09	1.320261e+00	4.972976e+02
2.480000e-06	3.468893e-08	7.110521e-09	2.357409e-01	4.618017e+02
2.490000e-06	-1.249489e-07	6.559264e-09	-8.491345e-01	4.249501e+02
2.500000e-06	-2.845061e-07	5.968214e-09	-1.933462e+00	3.871862e+02
2.510000e-06	-4.439309e-07	5.337299e-09	-3.016890e+00	3.481413e+02
2.520000e-06	-6.032013e-07	4.657068e-09	-4.099268e+00	3.063726e+02
2.530000e-06	-7.621912e-07	3.912579e-09	-5.179740e+00	2.594716e+02
2.540000e-06	-9.208889e-07	3.087070e-09	-6.258227e+00	2.045777e+02
2.550000e-06	-1.079270e-06	2.150915e-09	-7.334564e+00	1.391849e+02
2.560000e-06	-1.237268e-06	1.062182e-09	-8.408290e+00	6.201340e+01
2.570000e-06	-1.394782e-06	-2.296040e-10	-9.478738e+00	-2.633276e+01
2.580000e-06	-1.551782e-06	-1.734172e-09	-1.054568e+01	-1.231539e+02
2.590000e-06	-1.708255e-06	-3.369835e-09	-1.160905e+01	-2.239925e+02
2.600000e-06	-1.864125e-06	-4.979171e-09	-1.266832e+01	-3.234541e+02
2.610000e-06	-2.019319e-06	-6.419246e-09	-1.372300e+01	-4.162931e+02
2.620000e-06	-2.173690e-06	-7.631113e-09	-1.477208e+01	-4.984575e+02
2.630000e-06	-2.327215e-06	-8.629963e-09	-1.581541e+01	-5.678039e+02
2.640000e-06	-2.479932e-06	-9.458534e-09	-1.685326e+01	-6.242979e+02
2.650000e-06	-2.631725e-06	-1.016242e-08	-1.788482e+01	-6.696788e+02
2.660000e-06	-2.782504e-06	-1.077476e-08	-1.890949e+01	-7.067310e+02
2.670000e-06	-2.932287e-06	-1.131184e-08	-1.992739e+01	-7.384107e+02
2.680000e-06	-3.081098e-06	-1.178459e-08	-2.093870e+01	-7.670987e+02
2.690000e-06	-3.228878e-06	-1.220701e-08	-2.194298e+01	-7.941802e+02
2.700000e-06	-3.375410e-06	-1.258812e-08	-2.293879e+01	-8.200228e+02
2.710000e-06	-3.520711e-06	-1.292857e-08	-2.392624e+01	-8.442873e+02
2.720000e-06	-3.664815e-06	-1.323660e-08	-2.490555e+01	-8.664010e+02
2.730000e-06	-3.807550e-06	-1.352269e-08	-2.587556e+01	-8.859966e+02
2.740000e-06	-3.948883e-06	-1.379263e-08	-2.683604e+01	-9.031604e+02
2.750000e-06	-4.088688e-06	-1.404976e-08	-2.778613e+01	-9.184281e+02
2.760000e-06	-4.226853e-06	-1.429314e-08	-2.872508e+01	-9.325741e+02
2.770000e-06	-4.363518e-06	-1.452127e-08	-2.965383e+01	-9.463105e+02
2.780000e-06	-4.498616e-06	-1.473308e-08	-3.057194e+01	-9.600372e+02
2.790000e-06	-4.632040e-06	-1.492934e-08	-3.147867e+01	-9.737425e+02
2.800000e-06	-4.763819e-06	-1.511383e-08	-3.237422e+01	-9.870839e+02
2.810000e-06	-4.893897e-06	-1.528636e-08	-3.325821e+01	-9.995971e+02
2.820000e-06	-5.022303e-06	-1.544856e-08	-3.413084e+01	-1.010935e+03
2.830000e-06	-5.148955e-06	-1.560654e-08	-3.499155e+01	-1.021033e+03
2.840000e-06	-5.273741e-06	-1.576198e-08	-3.583958e+01	-1.030135e+03
2.850000e-06	-5.396606e-06	-1.591076e-08	-3.667455e+01	-1.038681e+03
2.860000e-06	-5.517576e-06	-1.604815e-08	-3.749664e+01	-1.047116e+03
2.870000e-06	-5.636531e-06	-1.617692e-08	-3.830504e+01	-1.055706e+03
2.880000e-06	-5.753285e-06	-1.630044e-08	-3.909849e+01	-1.064441e+03
2.890000e-06	-5.867762e-06	-1.641631e-08	-3.987646e+01	-1.073063e+03
2.900000e-06	-5.979821e-06	-1.652544e-08	-4.063800e+01	-1.081203e+03
2.910000e-06	-6.089513e-06	-1.662778e-08	-4.138345e+01	-1.088553e+03
2.920000e-06	-6.197099e-06	-1.672673e-08	-4.211458e+01	-1.095007e+03
2.930000e-06	-6.302738e-06	-1.682359e-08	-4.283249e+01	-1.100712e+03
2.940000e-06	-6.406226e-06	-1.691642e-08	-4.353578e+01	-1.105993e+03
