# Temperatura_=_37.96
# Concentracion g/m^3_=_13400.0
# C_Vs_to_Am_M_A/Vsm_=_65563218390.804596
# pendiente_HvsI_1/m_=_3716.3
# ordenada_HvsI_A/m_=_1297.0
# frecuencia_Hz_=_301441.94977968704

Tiempo_(s)	Campo_(V.s)	Magnetizacion_(V.s)	Campo_(kA/m)	Magnetizacion_(A/m)
0.000000e+00	-8.351462e-06	-1.790225e-08	-5.691252e+01	-1.173902e+03
1.000000e-08	-8.348444e-06	-1.789998e-08	-5.689195e+01	-1.173524e+03
2.000000e-08	-8.342750e-06	-1.789493e-08	-5.685315e+01	-1.173369e+03
3.000000e-08	-8.334464e-06	-1.788983e-08	-5.679668e+01	-1.173343e+03
4.000000e-08	-8.323226e-06	-1.788066e-08	-5.672010e+01	-1.173249e+03
5.000000e-08	-8.308921e-06	-1.786827e-08	-5.662261e+01	-1.172874e+03
6.000000e-08	-8.291666e-06	-1.785215e-08	-5.650502e+01	-1.172078e+03
7.000000e-08	-8.271799e-06	-1.782837e-08	-5.636964e+01	-1.170858e+03
8.000000e-08	-8.249449e-06	-1.784481e-08	-5.621733e+01	-1.169346e+03
9.000000e-08	-8.223994e-06	-1.788188e-08	-5.604386e+01	-1.167750e+03
1.000000e-07	-8.195127e-06	-1.784210e-08	-5.584714e+01	-1.166270e+03
1.100000e-07	-8.163128e-06	-1.779856e-08	-5.562908e+01	-1.165010e+03
1.200000e-07	-8.128148e-06	-1.777082e-08	-5.539070e+01	-1.163947e+03
1.300000e-07	-8.090440e-06	-1.771763e-08	-5.513374e+01	-1.162945e+03
1.400000e-07	-8.050458e-06	-1.763581e-08	-5.486127e+01	-1.161822e+03
1.500000e-07	-8.008090e-06	-1.764008e-08	-5.457255e+01	-1.160432e+03
1.600000e-07	-7.962900e-06	-1.768329e-08	-5.426459e+01	-1.158722e+03
1.700000e-07	-7.914856e-06	-1.758751e-08	-5.393719e+01	-1.156745e+03
1.800000e-07	-7.863859e-06	-1.763452e-08	-5.358966e+01	-1.154622e+03
1.900000e-07	-7.809742e-06	-1.760277e-08	-5.322087e+01	-1.152470e+03
2.000000e-07	-7.752759e-06	-1.748842e-08	-5.283255e+01	-1.150335e+03
2.100000e-07	-7.693019e-06	-1.745529e-08	-5.242544e+01	-1.148164e+03
2.200000e-07	-7.630570e-06	-1.737306e-08	-5.199987e+01	-1.145822e+03
2.300000e-07	-7.565421e-06	-1.738883e-08	-5.155590e+01	-1.143159e+03
2.400000e-07	-7.497389e-06	-1.734300e-08	-5.109228e+01	-1.140079e+03
2.500000e-07	-7.426562e-06	-1.729624e-08	-5.060962e+01	-1.136599e+03
2.600000e-07	-7.352863e-06	-1.725968e-08	-5.010739e+01	-1.132846e+03
2.700000e-07	-7.276248e-06	-1.720566e-08	-4.958528e+01	-1.129010e+03
2.800000e-07	-7.196864e-06	-1.714406e-08	-4.904430e+01	-1.125258e+03
2.900000e-07	-7.114766e-06	-1.704094e-08	-4.848483e+01	-1.121660e+03
3.000000e-07	-7.030275e-06	-1.701557e-08	-4.790905e+01	-1.118146e+03
3.100000e-07	-6.943508e-06	-1.696026e-08	-4.731776e+01	-1.114537e+03
3.200000e-07	-6.854252e-06	-1.690168e-08	-4.670951e+01	-1.110613e+03
3.300000e-07	-6.762468e-06	-1.683984e-08	-4.608404e+01	-1.106213e+03
3.400000e-07	-6.668306e-06	-1.674665e-08	-4.544235e+01	-1.101304e+03
3.500000e-07	-6.571766e-06	-1.668178e-08	-4.478446e+01	-1.096005e+03
3.600000e-07	-6.472774e-06	-1.660956e-08	-4.410987e+01	-1.090529e+03
3.700000e-07	-6.371441e-06	-1.653488e-08	-4.341931e+01	-1.085099e+03
3.800000e-07	-6.267770e-06	-1.644172e-08	-4.271283e+01	-1.079837e+03
3.900000e-07	-6.161793e-06	-1.636860e-08	-4.199063e+01	-1.074713e+03
4.000000e-07	-6.053626e-06	-1.628640e-08	-4.125350e+01	-1.069543e+03
4.100000e-07	-5.943361e-06	-1.618521e-08	-4.050209e+01	-1.064071e+03
4.200000e-07	-5.830905e-06	-1.608380e-08	-3.973573e+01	-1.058073e+03
4.300000e-07	-5.716125e-06	-1.598766e-08	-3.895355e+01	-1.051459e+03
4.400000e-07	-5.599108e-06	-1.590871e-08	-3.815612e+01	-1.044312e+03
4.500000e-07	-5.480003e-06	-1.581844e-08	-3.734445e+01	-1.036856e+03
4.600000e-07	-5.358934e-06	-1.570826e-08	-3.651940e+01	-1.029354e+03
4.700000e-07	-5.235951e-06	-1.558016e-08	-3.568131e+01	-1.021991e+03
4.800000e-07	-5.111050e-06	-1.545538e-08	-3.483015e+01	-1.014781e+03
4.900000e-07	-4.984321e-06	-1.533273e-08	-3.396653e+01	-1.007555e+03
5.000000e-07	-4.855851e-06	-1.520907e-08	-3.309106e+01	-1.000024e+03
5.100000e-07	-4.725584e-06	-1.508466e-08	-3.220333e+01	-9.919000e+02
5.200000e-07	-4.593558e-06	-1.496371e-08	-3.130362e+01	-9.830222e+02
5.300000e-07	-4.459904e-06	-1.483976e-08	-3.039280e+01	-9.734275e+02
5.400000e-07	-4.324648e-06	-1.469821e-08	-2.947108e+01	-9.633348e+02
5.500000e-07	-4.187787e-06	-1.453552e-08	-2.853841e+01	-9.530469e+02
5.600000e-07	-4.049315e-06	-1.436731e-08	-2.759477e+01	-9.428094e+02
5.700000e-07	-3.909281e-06	-1.420507e-08	-2.664049e+01	-9.326899e+02
5.800000e-07	-3.767671e-06	-1.404259e-08	-2.567546e+01	-9.225329e+02
5.900000e-07	-3.624493e-06	-1.386993e-08	-2.469975e+01	-9.120139e+02
6.000000e-07	-3.479937e-06	-1.369173e-08	-2.371464e+01	-9.007727e+02
6.100000e-07	-3.334185e-06	-1.351712e-08	-2.272139e+01	-8.885692e+02
6.200000e-07	-3.187311e-06	-1.333824e-08	-2.172050e+01	-8.753921e+02
6.300000e-07	-3.039261e-06	-1.313867e-08	-2.071158e+01	-8.614671e+02
6.400000e-07	-2.890153e-06	-1.291664e-08	-1.969546e+01	-8.471564e+02
6.500000e-07	-2.740148e-06	-1.269219e-08	-1.867323e+01	-8.327884e+02
6.600000e-07	-2.589218e-06	-1.246830e-08	-1.764468e+01	-8.184903e+02
6.700000e-07	-2.437311e-06	-1.223684e-08	-1.660948e+01	-8.041016e+02
6.800000e-07	-2.284526e-06	-1.199222e-08	-1.556831e+01	-7.892133e+02
6.900000e-07	-2.130886e-06	-1.174190e-08	-1.452130e+01	-7.733228e+02
7.000000e-07	-1.976388e-06	-1.148931e-08	-1.346844e+01	-7.560428e+02
7.100000e-07	-1.821164e-06	-1.122321e-08	-1.241065e+01	-7.372707e+02
7.200000e-07	-1.665345e-06	-1.093463e-08	-1.134879e+01	-7.172386e+02
7.300000e-07	-1.509048e-06	-1.062693e-08	-1.028367e+01	-6.964069e+02
7.400000e-07	-1.352242e-06	-1.030892e-08	-9.215095e+00	-6.752384e+02
7.500000e-07	-1.194926e-06	-9.977551e-09	-8.143033e+00	-6.539428e+02
7.600000e-07	-1.037171e-06	-9.626531e-09	-7.067985e+00	-6.323074e+02
7.700000e-07	-8.790219e-07	-9.254952e-09	-5.990250e+00	-6.097014e+02
7.800000e-07	-7.205727e-07	-8.867626e-09	-4.910470e+00	-5.852724e+02
7.900000e-07	-5.618692e-07	-8.461647e-09	-3.828957e+00	-5.582671e+02
8.000000e-07	-4.029180e-07	-8.027933e-09	-2.745756e+00	-5.283434e+02
8.100000e-07	-2.437702e-07	-7.557477e-09	-1.661215e+00	-4.957255e+02
8.200000e-07	-8.448794e-08	-7.053692e-09	-5.757580e-01	-4.610998e+02
8.300000e-07	7.479209e-08	-6.520602e-09	5.096839e-01	-4.252481e+02
8.400000e-07	2.339952e-07	-5.948495e-09	1.594602e+00	-3.885290e+02
8.500000e-07	3.930984e-07	-5.325781e-09	2.678839e+00	-3.503975e+02
8.600000e-07	5.520389e-07	-4.643287e-09	3.761967e+00	-3.091766e+02
8.700000e-07	7.107479e-07	-3.894620e-09	4.843517e+00	-2.622255e+02
8.800000e-07	8.690991e-07	-3.059428e-09	5.922629e+00	-2.065233e+02
8.900000e-07	1.027104e-06	-2.100431e-09	6.999382e+00	-1.395382e+02
9.000000e-07	1.184758e-06	-9.659168e-10	8.073741e+00	-6.013115e+01
9.100000e-07	1.342011e-06	3.884369e-10	9.145368e+00	3.079600e+01
9.200000e-07	1.498834e-06	1.952439e-09	1.021407e+01	1.301402e+02
9.300000e-07	1.655147e-06	3.624675e-09	1.127929e+01	2.330172e+02
9.400000e-07	1.810931e-06	5.233563e-09	1.234091e+01	3.336745e+02
9.500000e-07	1.966179e-06	6.639634e-09	1.339887e+01	4.266543e+02
9.600000e-07	2.120690e-06	7.797756e-09	1.445182e+01	5.078807e+02
9.700000e-07	2.274334e-06	8.737537e-09	1.549885e+01	5.753715e+02
9.800000e-07	2.427173e-06	9.513044e-09	1.654040e+01	6.293916e+02
9.900000e-07	2.579158e-06	1.016675e-08	1.757613e+01	6.720420e+02
1.000000e-06	2.730123e-06	1.072818e-08	1.860491e+01	7.064471e+02
1.010000e-06	2.880011e-06	1.121583e-08	1.962634e+01	7.358124e+02
1.020000e-06	3.028886e-06	1.164688e-08	2.064088e+01	7.626384e+02
1.030000e-06	3.176723e-06	1.203529e-08	2.164834e+01	7.883003e+02
1.040000e-06	3.323493e-06	1.238885e-08	2.264853e+01	8.130588e+02
1.050000e-06	3.469116e-06	1.271212e-08	2.364091e+01	8.364234e+02
1.060000e-06	3.613438e-06	1.301054e-08	2.462441e+01	8.576805e+02
1.070000e-06	3.756336e-06	1.328423e-08	2.559822e+01	8.763728e+02
1.080000e-06	3.897757e-06	1.353601e-08	2.656196e+01	8.925642e+02
1.090000e-06	4.037740e-06	1.377410e-08	2.751590e+01	9.068274e+02
1.100000e-06	4.176264e-06	1.399837e-08	2.845989e+01	9.200063e+02
1.110000e-06	4.313225e-06	1.420667e-08	2.939324e+01	9.328819e+02
1.120000e-06	4.448540e-06	1.440275e-08	3.031536e+01	9.458951e+02
1.130000e-06	4.582198e-06	1.459030e-08	3.122620e+01	9.590344e+02
1.140000e-06	4.714289e-06	1.476825e-08	3.212636e+01	9.719201e+02
1.150000e-06	4.844741e-06	1.493716e-08	3.301535e+01	9.840313e+02
1.160000e-06	4.973405e-06	1.509703e-08	3.389215e+01	9.949669e+02
1.170000e-06	5.100247e-06	1.524970e-08	3.475654e+01	1.004629e+03
1.180000e-06	5.225304e-06	1.539571e-08	3.560876e+01	1.013259e+03
1.190000e-06	5.348635e-06	1.553499e-08	3.644922e+01	1.021321e+03
1.200000e-06	5.470060e-06	1.566802e-08	3.727669e+01	1.029295e+03
1.210000e-06	5.589343e-06	1.579531e-08	3.808957e+01	1.037480e+03
1.220000e-06	5.706542e-06	1.591727e-08	3.888824e+01	1.045880e+03
1.230000e-06	5.821661e-06	1.603372e-08	3.967274e+01	1.054230e+03
1.240000e-06	5.934554e-06	1.614425e-08	4.044207e+01	1.062133e+03
1.250000e-06	6.045221e-06	1.624907e-08	4.119622e+01	1.069249e+03
1.260000e-06	6.153798e-06	1.634764e-08	4.193614e+01	1.075450e+03
1.270000e-06	6.260239e-06	1.644085e-08	4.266151e+01	1.080874e+03
1.280000e-06	6.364419e-06	1.652952e-08	4.337146e+01	1.085862e+03
1.290000e-06	6.466277e-06	1.661289e-08	4.406559e+01	1.090814e+03
1.300000e-06	6.565786e-06	1.669069e-08	4.474371e+01	1.096018e+03
1.310000e-06	6.662878e-06	1.676530e-08	4.540536e+01	1.101537e+03
1.320000e-06	6.757545e-06	1.684072e-08	4.605048e+01	1.107201e+03
1.330000e-06	6.849928e-06	1.691628e-08	4.668005e+01	1.112689e+03
1.340000e-06	6.939938e-06	1.698855e-08	4.729344e+01	1.117679e+03
1.350000e-06	7.027489e-06	1.705526e-08	4.789007e+01	1.121992e+03
1.360000e-06	7.112630e-06	1.711726e-08	4.847027e+01	1.125660e+03
1.370000e-06	7.195291e-06	1.717644e-08	4.903359e+01	1.128910e+03
1.380000e-06	7.275318e-06	1.723212e-08	4.957894e+01	1.132059e+03
1.390000e-06	7.352676e-06	1.728677e-08	5.010611e+01	1.135372e+03
1.400000e-06	7.427276e-06	1.734070e-08	5.061449e+01	1.138955e+03
1.410000e-06	7.499092e-06	1.739254e-08	5.110389e+01	1.142714e+03
1.420000e-06	7.568235e-06	1.744221e-08	5.157508e+01	1.146407e+03
1.430000e-06	7.634657e-06	1.748831e-08	5.202772e+01	1.149756e+03
1.440000e-06	7.698373e-06	1.753138e-08	5.246193e+01	1.152573e+03
1.450000e-06	7.759485e-06	1.757332e-08	5.287839e+01	1.154841e+03
1.460000e-06	7.817869e-06	1.761333e-08	5.327625e+01	1.156714e+03
1.470000e-06	7.873425e-06	1.765028e-08	5.365485e+01	1.158451e+03
1.480000e-06	7.925976e-06	1.768632e-08	5.401297e+01	1.160295e+03
1.490000e-06	7.975307e-06	1.772016e-08	5.434914e+01	1.162367e+03
1.500000e-06	8.021705e-06	1.775020e-08	5.466533e+01	1.164618e+03
1.510000e-06	8.065370e-06	1.777620e-08	5.496289e+01	1.166852e+03
1.520000e-06	8.106117e-06	1.779925e-08	5.524057e+01	1.168817e+03
1.530000e-06	8.143985e-06	1.782212e-08	5.549863e+01	1.170319e+03
1.540000e-06	8.179013e-06	1.784595e-08	5.573733e+01	1.171305e+03
1.550000e-06	8.211151e-06	1.786724e-08	5.595634e+01	1.171889e+03
1.560000e-06	8.240482e-06	1.788316e-08	5.615622e+01	1.172299e+03
1.570000e-06	8.266861e-06	1.789504e-08	5.633599e+01	1.172779e+03
1.580000e-06	8.290229e-06	1.790709e-08	5.649523e+01	1.173483e+03
1.590000e-06	8.310821e-06	1.791928e-08	5.663556e+01	1.174414e+03
1.600000e-06	8.328536e-06	1.792911e-08	5.675628e+01	1.175424e+03
1.610000e-06	8.343138e-06	1.793702e-08	5.685579e+01	1.176285e+03
1.620000e-06	8.354510e-06	1.794376e-08	5.693328e+01	1.176791e+03
1.630000e-06	8.362722e-06	1.794870e-08	5.698925e+01	1.176847e+03
1.640000e-06	8.368041e-06	1.795227e-08	5.702550e+01	1.176510e+03
1.650000e-06	8.370390e-06	1.795473e-08	5.704150e+01	1.175962e+03
1.660000e-06	8.369823e-06	1.794959e-08	5.703764e+01	1.175428e+03
1.670000e-06	8.366541e-06	1.793931e-08	5.701527e+01	1.175074e+03
1.680000e-06	8.360440e-06	1.793569e-08	5.697370e+01	1.174938e+03
1.690000e-06	8.351534e-06	1.793225e-08	5.691300e+01	1.174915e+03
1.700000e-06	8.339721e-06	1.792271e-08	5.683250e+01	1.174800e+03
1.710000e-06	8.324934e-06	1.791447e-08	5.673174e+01	1.174383e+03
1.720000e-06	8.307586e-06	1.791612e-08	5.661352e+01	1.173539e+03
1.730000e-06	8.287845e-06	1.789909e-08	5.647899e+01	1.172278e+03
1.740000e-06	8.265246e-06	1.780503e-08	5.632498e+01	1.170746e+03
1.750000e-06	8.239064e-06	1.778629e-08	5.614656e+01	1.169153e+03
1.760000e-06	8.208946e-06	1.778956e-08	5.594131e+01	1.167693e+03
1.770000e-06	8.175549e-06	1.776819e-08	5.571373e+01	1.166457e+03
1.780000e-06	8.139674e-06	1.778884e-08	5.546925e+01	1.165408e+03
1.790000e-06	8.101453e-06	1.784515e-08	5.520878e+01	1.164401e+03
1.800000e-06	8.061186e-06	1.774081e-08	5.493438e+01	1.163255e+03
1.810000e-06	8.018758e-06	1.770078e-08	5.464525e+01	1.161830e+03
1.820000e-06	7.973378e-06	1.774287e-08	5.433599e+01	1.160086e+03
1.830000e-06	7.925112e-06	1.761690e-08	5.400708e+01	1.158087e+03
1.840000e-06	7.873785e-06	1.768894e-08	5.365730e+01	1.155955e+03
1.850000e-06	7.819150e-06	1.763403e-08	5.328498e+01	1.153804e+03
1.860000e-06	7.761762e-06	1.762567e-08	5.289390e+01	1.151668e+03
1.870000e-06	7.701610e-06	1.765655e-08	5.248398e+01	1.149486e+03
1.880000e-06	7.638717e-06	1.750515e-08	5.205539e+01	1.147116e+03
1.890000e-06	7.573047e-06	1.750416e-08	5.160787e+01	1.144409e+03
1.900000e-06	7.504470e-06	1.739419e-08	5.114054e+01	1.141283e+03
1.910000e-06	7.433043e-06	1.736632e-08	5.065379e+01	1.137765e+03
1.920000e-06	7.358657e-06	1.733469e-08	5.014687e+01	1.133993e+03
1.930000e-06	7.281450e-06	1.728197e-08	4.962073e+01	1.130159e+03
1.940000e-06	7.201575e-06	1.729079e-08	4.907641e+01	1.126422e+03
1.950000e-06	7.119228e-06	1.716049e-08	4.851524e+01	1.122837e+03
1.960000e-06	7.034318e-06	1.713988e-08	4.793660e+01	1.119323e+03
1.970000e-06	6.946744e-06	1.701727e-08	4.733982e+01	1.115690e+03
1.980000e-06	6.856767e-06	1.694557e-08	4.672665e+01	1.111720e+03
1.990000e-06	6.764400e-06	1.690896e-08	4.609720e+01	1.107263e+03
2.000000e-06	6.669630e-06	1.684044e-08	4.545138e+01	1.102304e+03
2.010000e-06	6.572532e-06	1.680060e-08	4.478968e+01	1.096973e+03
2.020000e-06	6.473120e-06	1.668469e-08	4.411222e+01	1.091493e+03
2.030000e-06	6.371306e-06	1.662183e-08	4.341839e+01	1.086076e+03
2.040000e-06	6.267127e-06	1.651138e-08	4.270845e+01	1.080833e+03
2.050000e-06	6.160744e-06	1.644469e-08	4.198348e+01	1.075714e+03
2.060000e-06	6.052244e-06	1.634785e-08	4.124409e+01	1.070524e+03
2.070000e-06	5.941561e-06	1.626206e-08	4.048982e+01	1.065004e+03
2.080000e-06	5.828645e-06	1.617263e-08	3.972033e+01	1.058940e+03
2.090000e-06	5.713461e-06	1.606753e-08	3.893539e+01	1.052261e+03
2.100000e-06	5.595914e-06	1.596734e-08	3.813435e+01	1.045068e+03
2.110000e-06	5.476267e-06	1.584509e-08	3.731899e+01	1.037594e+03
2.120000e-06	5.354688e-06	1.574614e-08	3.649047e+01	1.030100e+03
2.130000e-06	5.231191e-06	1.562980e-08	3.564888e+01	1.022755e+03
2.140000e-06	5.105797e-06	1.552801e-08	3.479436e+01	1.015554e+03
2.150000e-06	4.978553e-06	1.539870e-08	3.392723e+01	1.008310e+03
2.160000e-06	4.849547e-06	1.527574e-08	3.304810e+01	1.000727e+03
2.170000e-06	4.718822e-06	1.513996e-08	3.215725e+01	9.925256e+02
2.180000e-06	4.586425e-06	1.500624e-08	3.125501e+01	9.835648e+02
2.190000e-06	4.452392e-06	1.486704e-08	3.034162e+01	9.739029e+02
2.200000e-06	4.316798e-06	1.472568e-08	2.941759e+01	9.637740e+02
2.210000e-06	4.179562e-06	1.458008e-08	2.848237e+01	9.534813e+02
2.220000e-06	4.040672e-06	1.442786e-08	2.753587e+01	9.432564e+02
2.230000e-06	3.900233e-06	1.426864e-08	2.657883e+01	9.331433e+02
2.240000e-06	3.758385e-06	1.409747e-08	2.561218e+01	9.229643e+02
2.250000e-06	3.615215e-06	1.392579e-08	2.463652e+01	9.123835e+02
2.260000e-06	3.470809e-06	1.374544e-08	2.365244e+01	9.010465e+02
2.270000e-06	3.325144e-06	1.356313e-08	2.265978e+01	8.887341e+02
2.280000e-06	3.178192e-06	1.336622e-08	2.165835e+01	8.754617e+02
2.290000e-06	3.030121e-06	1.316565e-08	2.064930e+01	8.614763e+02
2.300000e-06	2.880965e-06	1.295587e-08	1.963285e+01	8.471455e+02
2.310000e-06	2.730747e-06	1.274720e-08	1.860916e+01	8.327829e+02
2.320000e-06	2.579587e-06	1.252945e-08	1.757905e+01	8.184871e+02
2.330000e-06	2.427609e-06	1.229670e-08	1.654337e+01	8.040670e+02
2.340000e-06	2.274808e-06	1.204962e-08	1.550208e+01	7.890944e+02
2.350000e-06	2.121079e-06	1.179025e-08	1.445447e+01	7.730690e+02
2.360000e-06	1.966487e-06	1.152225e-08	1.340098e+01	7.556272e+02
2.370000e-06	1.811210e-06	1.124200e-08	1.234281e+01	7.367029e+02
2.380000e-06	1.655414e-06	1.095095e-08	1.128111e+01	7.165600e+02
2.390000e-06	1.499063e-06	1.065085e-08	1.021563e+01	6.956718e+02
2.400000e-06	1.342080e-06	1.034122e-08	9.145843e+00	6.744855e+02
2.410000e-06	1.184536e-06	1.001235e-08	8.072229e+00	6.531711e+02
2.420000e-06	1.026501e-06	9.659394e-09	6.995269e+00	6.314673e+02
2.430000e-06	8.681157e-07	9.281366e-09	5.915928e+00	6.087072e+02
2.440000e-06	7.094707e-07	8.885111e-09	4.834814e+00	5.840325e+02
2.450000e-06	5.505781e-07	8.470513e-09	3.752012e+00	5.567207e+02
2.460000e-06	3.914798e-07	8.031892e-09	2.667808e+00	5.264868e+02
2.470000e-06	2.322440e-07	7.563614e-09	1.582668e+00	4.936147e+02
2.480000e-06	7.293238e-08	7.063164e-09	4.970106e-01	4.588224e+02
2.490000e-06	-8.641828e-08	6.528067e-09	-5.889127e-01	4.228724e+02
2.500000e-06	-2.457367e-07	5.949250e-09	-1.674616e+00	3.860465e+02
2.510000e-06	-4.048952e-07	5.321763e-09	-2.759230e+00	3.476835e+02
2.520000e-06	-5.638678e-07	4.636621e-09	-3.842577e+00	3.059872e+02
2.530000e-06	-7.226588e-07	3.882842e-09	-4.924686e+00	2.582415e+02
2.540000e-06	-8.811807e-07	3.040607e-09	-6.004962e+00	2.014333e+02
2.550000e-06	-1.039362e-06	2.070809e-09	-7.082919e+00	1.331390e+02
2.560000e-06	-1.197175e-06	9.245662e-10	-8.158360e+00	5.241427e+01
2.570000e-06	-1.354482e-06	-4.398043e-10	-9.230355e+00	-3.960083e+01
2.580000e-06	-1.511176e-06	-2.014737e-09	-1.029818e+01	-1.395822e+02
2.590000e-06	-1.667255e-06	-3.697311e-09	-1.136181e+01	-2.425021e+02
2.600000e-06	-1.822838e-06	-5.313171e-09	-1.242205e+01	-3.425824e+02
2.610000e-06	-1.977874e-06	-6.718192e-09	-1.347857e+01	-4.344658e+02
2.620000e-06	-2.132022e-06	-7.871281e-09	-1.452904e+01	-5.142756e+02
2.630000e-06	-2.285254e-06	-8.810023e-09	-1.557327e+01	-5.802735e+02
2.640000e-06	-2.437655e-06	-9.587952e-09	-1.661183e+01	-6.329498e+02
2.650000e-06	-2.589220e-06	-1.024530e-08	-1.764470e+01	-6.745589e+02
2.660000e-06	-2.739906e-06	-1.081018e-08	-1.867157e+01	-7.082783e+02
2.670000e-06	-2.889622e-06	-1.130435e-08	-1.969184e+01	-7.372705e+02
2.680000e-06	-3.038299e-06	-1.174331e-08	-2.070503e+01	-7.639280e+02
2.690000e-06	-3.185911e-06	-1.213576e-08	-2.171095e+01	-7.894986e+02
2.700000e-06	-3.332393e-06	-1.248762e-08	-2.270918e+01	-8.141405e+02
2.710000e-06	-3.477567e-06	-1.280832e-08	-2.369849e+01	-8.373131e+02
2.720000e-06	-3.621477e-06	-1.310524e-08	-2.467920e+01	-8.583101e+02
2.730000e-06	-3.764141e-06	-1.337751e-08	-2.565140e+01	-8.767221e+02
2.740000e-06	-3.905367e-06	-1.362848e-08	-2.661382e+01	-8.926728e+02
2.750000e-06	-4.045087e-06	-1.386710e-08	-2.756596e+01	-9.067785e+02
2.760000e-06	-4.183285e-06	-1.409735e-08	-2.850774e+01	-9.198923e+02
2.770000e-06	-4.319889e-06	-1.431620e-08	-2.943865e+01	-9.327701e+02
2.780000e-06	-4.454916e-06	-1.451782e-08	-3.035881e+01	-9.458059e+02
2.790000e-06	-4.588390e-06	-1.470032e-08	-3.126839e+01	-9.589417e+02
2.800000e-06	-4.720193e-06	-1.487087e-08	-3.216659e+01	-9.717700e+02
2.810000e-06	-4.850311e-06	-1.503464e-08	-3.305331e+01	-9.837710e+02
2.820000e-06	-4.978725e-06	-1.519135e-08	-3.392840e+01	-9.945693e+02
2.830000e-06	-5.105426e-06	-1.534326e-08	-3.479183e+01	-1.004105e+03
2.840000e-06	-5.230377e-06	-1.549156e-08	-3.564333e+01	-1.012650e+03
2.850000e-06	-5.353398e-06	-1.563558e-08	-3.648168e+01	-1.020682e+03
2.860000e-06	-5.474457e-06	-1.577002e-08	-3.730665e+01	-1.028670e+03
2.870000e-06	-5.593513e-06	-1.589094e-08	-3.811798e+01	-1.036884e+03
2.880000e-06	-5.710419e-06	-1.600289e-08	-3.891466e+01	-1.045296e+03
2.890000e-06	-5.825024e-06	-1.611044e-08	-3.969566e+01	-1.053618e+03
2.900000e-06	-5.937276e-06	-1.621569e-08	-4.046062e+01	-1.061451e+03
2.910000e-06	-6.047258e-06	-1.631575e-08	-4.121011e+01	-1.068472e+03
2.920000e-06	-6.155072e-06	-1.641108e-08	-4.194483e+01	-1.074579e+03
2.930000e-06	-6.260820e-06	-1.650534e-08	-4.266546e+01	-1.079938e+03
2.940000e-06	-6.364434e-06	-1.659796e-08	-4.337156e+01	-1.084905e+03
