# Temperatura_=_63.42
# Concentracion g/m^3_=_13400.0
# C_Vs_to_Am_M_A/Vsm_=_65563218390.804596
# pendiente_HvsI_1/m_=_3716.3
# ordenada_HvsI_A/m_=_1297.0
# frecuencia_Hz_=_301439.2083664532

Tiempo_(s)	Campo_(V.s)	Magnetizacion_(V.s)	Campo_(kA/m)	Magnetizacion_(A/m)
0.000000e+00	-8.346506e-06	-1.856841e-08	-5.691172e+01	-1.218447e+03
1.000000e-08	-8.343580e-06	-1.856650e-08	-5.689177e+01	-1.218137e+03
2.000000e-08	-8.337897e-06	-1.855830e-08	-5.685302e+01	-1.218066e+03
3.000000e-08	-8.329657e-06	-1.855089e-08	-5.679683e+01	-1.218063e+03
4.000000e-08	-8.318548e-06	-1.854365e-08	-5.672108e+01	-1.217875e+03
5.000000e-08	-8.304437e-06	-1.853136e-08	-5.662487e+01	-1.217275e+03
6.000000e-08	-8.287326e-06	-1.851037e-08	-5.650819e+01	-1.216163e+03
7.000000e-08	-8.267511e-06	-1.847902e-08	-5.637308e+01	-1.214608e+03
8.000000e-08	-8.245236e-06	-1.848370e-08	-5.622120e+01	-1.212816e+03
9.000000e-08	-8.219947e-06	-1.853365e-08	-5.604876e+01	-1.211043e+03
1.000000e-07	-8.191241e-06	-1.850795e-08	-5.585303e+01	-1.209485e+03
1.100000e-07	-8.159342e-06	-1.845231e-08	-5.563552e+01	-1.208199e+03
1.200000e-07	-8.124466e-06	-1.841395e-08	-5.539771e+01	-1.207087e+03
1.300000e-07	-8.086873e-06	-1.836536e-08	-5.514138e+01	-1.205943e+03
1.400000e-07	-8.046924e-06	-1.828470e-08	-5.486898e+01	-1.204550e+03
1.500000e-07	-8.004587e-06	-1.824554e-08	-5.458030e+01	-1.202774e+03
1.600000e-07	-7.959507e-06	-1.831061e-08	-5.427292e+01	-1.200610e+03
1.700000e-07	-7.911562e-06	-1.821734e-08	-5.394600e+01	-1.198177e+03
1.800000e-07	-7.860726e-06	-1.822735e-08	-5.359936e+01	-1.195647e+03
1.900000e-07	-7.806771e-06	-1.823381e-08	-5.323147e+01	-1.193154e+03
2.000000e-07	-7.749895e-06	-1.809768e-08	-5.284365e+01	-1.190723e+03
2.100000e-07	-7.690288e-06	-1.805190e-08	-5.243722e+01	-1.188253e+03
2.200000e-07	-7.627939e-06	-1.797405e-08	-5.201208e+01	-1.185559e+03
2.300000e-07	-7.562872e-06	-1.797955e-08	-5.156841e+01	-1.182465e+03
2.400000e-07	-7.494941e-06	-1.793822e-08	-5.110521e+01	-1.178885e+03
2.500000e-07	-7.424212e-06	-1.787102e-08	-5.062294e+01	-1.174875e+03
2.600000e-07	-7.350662e-06	-1.783571e-08	-5.012143e+01	-1.170616e+03
2.700000e-07	-7.274198e-06	-1.776520e-08	-4.960005e+01	-1.166336e+03
2.800000e-07	-7.194946e-06	-1.770439e-08	-4.905966e+01	-1.162209e+03
2.900000e-07	-7.112994e-06	-1.760387e-08	-4.850086e+01	-1.158271e+03
3.000000e-07	-7.028549e-06	-1.755948e-08	-4.792506e+01	-1.154397e+03
3.100000e-07	-6.941784e-06	-1.751037e-08	-4.733345e+01	-1.150349e+03
3.200000e-07	-6.852657e-06	-1.743886e-08	-4.672572e+01	-1.145878e+03
3.300000e-07	-6.761021e-06	-1.736911e-08	-4.610089e+01	-1.140833e+03
3.400000e-07	-6.666929e-06	-1.725950e-08	-4.545931e+01	-1.135228e+03
3.500000e-07	-6.570483e-06	-1.718913e-08	-4.480168e+01	-1.129246e+03
3.600000e-07	-6.471615e-06	-1.711793e-08	-4.412753e+01	-1.123155e+03
3.700000e-07	-6.370371e-06	-1.703464e-08	-4.343719e+01	-1.117196e+03
3.800000e-07	-6.266844e-06	-1.693032e-08	-4.273127e+01	-1.111469e+03
3.900000e-07	-6.161052e-06	-1.683686e-08	-4.200992e+01	-1.105885e+03
4.000000e-07	-6.053044e-06	-1.675215e-08	-4.127345e+01	-1.100198e+03
4.100000e-07	-5.942876e-06	-1.664544e-08	-4.052226e+01	-1.094106e+03
4.200000e-07	-5.830503e-06	-1.654211e-08	-3.975603e+01	-1.087385e+03
4.300000e-07	-5.715864e-06	-1.643658e-08	-3.897435e+01	-1.079983e+03
4.400000e-07	-5.598943e-06	-1.634525e-08	-3.817711e+01	-1.072045e+03
4.500000e-07	-5.479902e-06	-1.623990e-08	-3.736541e+01	-1.063852e+03
4.600000e-07	-5.358931e-06	-1.611395e-08	-3.654055e+01	-1.055691e+03
4.700000e-07	-5.236046e-06	-1.597283e-08	-3.570265e+01	-1.047726e+03
4.800000e-07	-5.111253e-06	-1.583856e-08	-3.485173e+01	-1.039914e+03
4.900000e-07	-4.984627e-06	-1.571606e-08	-3.398832e+01	-1.032020e+03
5.000000e-07	-4.856238e-06	-1.558622e-08	-3.311288e+01	-1.023710e+03
5.100000e-07	-4.726088e-06	-1.544710e-08	-3.222544e+01	-1.014695e+03
5.200000e-07	-4.594195e-06	-1.530707e-08	-3.132611e+01	-1.004863e+03
5.300000e-07	-4.460683e-06	-1.516956e-08	-3.041574e+01	-9.943279e+02
5.400000e-07	-4.325547e-06	-1.501482e-08	-2.949430e+01	-9.833819e+02
5.500000e-07	-4.188736e-06	-1.484050e-08	-2.856143e+01	-9.723616e+02
5.600000e-07	-4.050408e-06	-1.466451e-08	-2.761822e+01	-9.614910e+02
5.700000e-07	-3.910556e-06	-1.449759e-08	-2.666463e+01	-9.507674e+02
5.800000e-07	-3.769077e-06	-1.432675e-08	-2.569993e+01	-9.399463e+02
5.900000e-07	-3.626074e-06	-1.413777e-08	-2.472485e+01	-9.286356e+02
6.000000e-07	-3.481766e-06	-1.394226e-08	-2.374087e+01	-9.164625e+02
6.100000e-07	-3.336246e-06	-1.375267e-08	-2.274862e+01	-9.032386e+02
6.200000e-07	-3.189465e-06	-1.356258e-08	-2.174778e+01	-8.890488e+02
6.300000e-07	-3.041501e-06	-1.335118e-08	-2.073886e+01	-8.742194e+02
6.400000e-07	-2.892537e-06	-1.311965e-08	-1.972313e+01	-8.591704e+02
6.500000e-07	-2.742634e-06	-1.288624e-08	-1.870100e+01	-8.442165e+02
6.600000e-07	-2.591753e-06	-1.265238e-08	-1.767220e+01	-8.294004e+02
6.700000e-07	-2.439900e-06	-1.240924e-08	-1.663677e+01	-8.144407e+02
6.800000e-07	-2.287190e-06	-1.215214e-08	-1.559550e+01	-7.988238e+02
6.900000e-07	-2.133706e-06	-1.189170e-08	-1.454895e+01	-7.820088e+02
7.000000e-07	-1.979463e-06	-1.162590e-08	-1.349722e+01	-7.636595e+02
7.100000e-07	-1.824473e-06	-1.134286e-08	-1.244040e+01	-7.437977e+02
7.200000e-07	-1.668831e-06	-1.103669e-08	-1.137914e+01	-7.228011e+02
7.300000e-07	-1.512639e-06	-1.071675e-08	-1.031412e+01	-7.012306e+02
7.400000e-07	-1.355921e-06	-1.038955e-08	-9.245518e+00	-6.795522e+02
7.500000e-07	-1.198677e-06	-1.004765e-08	-8.173330e+00	-6.578688e+02
7.600000e-07	-1.040943e-06	-9.685850e-09	-7.097801e+00	-6.357879e+02
7.700000e-07	-8.827967e-07	-9.305091e-09	-6.019463e+00	-6.125009e+02
7.800000e-07	-7.243261e-07	-8.905241e-09	-4.938911e+00	-5.870619e+02
7.900000e-07	-5.655867e-07	-8.479333e-09	-3.856525e+00	-5.587609e+02
8.000000e-07	-4.066155e-07	-8.024892e-09	-2.772560e+00	-5.274297e+02
8.100000e-07	-2.474579e-07	-7.538843e-09	-1.687323e+00	-4.935243e+02
8.200000e-07	-8.820947e-08	-7.022974e-09	-6.014676e-01	-4.579044e+02
8.300000e-07	7.104326e-08	-6.474723e-09	4.844176e-01	-4.213490e+02
8.400000e-07	2.302759e-07	-5.882834e-09	1.570166e+00	-3.839696e+02
8.500000e-07	3.893747e-07	-5.234079e-09	2.655001e+00	-3.447519e+02
8.600000e-07	5.482601e-07	-4.516872e-09	3.738382e+00	-3.014440e+02
8.700000e-07	7.069311e-07	-3.721386e-09	4.820300e+00	-2.509103e+02
8.800000e-07	8.653423e-07	-2.823234e-09	5.900447e+00	-1.899126e+02
8.900000e-07	1.023473e-06	-1.778503e-09	6.978685e+00	-1.161175e+02
9.000000e-07	1.181221e-06	-5.279634e-10	8.054305e+00	-2.902408e+01
9.100000e-07	1.338444e-06	9.653580e-10	9.126350e+00	6.949659e+01
9.200000e-07	1.495165e-06	2.663576e-09	1.019497e+01	1.752624e+02
9.300000e-07	1.651364e-06	4.419185e-09	1.126003e+01	2.824691e+02
9.400000e-07	1.807032e-06	6.033435e-09	1.232148e+01	3.848399e+02
9.500000e-07	1.962107e-06	7.385546e-09	1.337888e+01	4.769193e+02
9.600000e-07	2.116393e-06	8.472108e-09	1.443090e+01	5.551453e+02
9.700000e-07	2.269871e-06	9.350918e-09	1.547741e+01	6.184067e+02
9.800000e-07	2.422564e-06	1.007861e-08	1.651856e+01	6.679532e+02
9.900000e-07	2.574436e-06	1.069506e-08	1.755412e+01	7.067293e+02
1.000000e-06	2.725345e-06	1.122414e-08	1.858311e+01	7.383716e+02
1.010000e-06	2.875187e-06	1.168355e-08	1.960483e+01	7.661937e+02
1.020000e-06	3.024001e-06	1.209669e-08	2.061954e+01	7.924555e+02
1.030000e-06	3.171775e-06	1.247647e-08	2.162715e+01	8.180936e+02
1.040000e-06	3.318425e-06	1.282454e-08	2.262711e+01	8.429183e+02
1.050000e-06	3.463930e-06	1.314221e-08	2.361925e+01	8.661329e+02
1.060000e-06	3.608235e-06	1.343786e-08	2.460321e+01	8.869385e+02
1.070000e-06	3.751126e-06	1.371459e-08	2.557753e+01	9.049977e+02
1.080000e-06	3.892486e-06	1.396833e-08	2.654142e+01	9.206076e+02
1.090000e-06	4.032376e-06	1.420136e-08	2.749527e+01	9.345687e+02
1.100000e-06	4.170800e-06	1.442097e-08	2.843913e+01	9.478459e+02
1.110000e-06	4.307673e-06	1.463320e-08	2.937242e+01	9.611918e+02
1.120000e-06	4.442959e-06	1.483935e-08	3.029488e+01	9.748922e+02
1.130000e-06	4.576640e-06	1.503457e-08	3.120641e+01	9.887271e+02
1.140000e-06	4.708700e-06	1.521762e-08	3.210687e+01	1.002143e+03
1.150000e-06	4.839090e-06	1.539376e-08	3.299596e+01	1.014547e+03
1.160000e-06	4.967785e-06	1.556175e-08	3.387348e+01	1.025582e+03
1.170000e-06	5.094747e-06	1.571816e-08	3.473918e+01	1.035284e+03
1.180000e-06	5.219879e-06	1.586553e-08	3.559241e+01	1.044048e+03
1.190000e-06	5.343156e-06	1.601009e-08	3.643299e+01	1.052449e+03
1.200000e-06	5.464498e-06	1.615324e-08	3.726038e+01	1.060986e+03
1.210000e-06	5.583799e-06	1.629137e-08	3.807385e+01	1.069889e+03
1.220000e-06	5.701015e-06	1.642161e-08	3.887310e+01	1.079039e+03
1.230000e-06	5.816081e-06	1.654730e-08	3.965769e+01	1.088052e+03
1.240000e-06	5.928909e-06	1.666870e-08	4.042702e+01	1.096465e+03
1.250000e-06	6.039582e-06	1.678251e-08	4.118166e+01	1.103949e+03
1.260000e-06	6.148206e-06	1.688751e-08	4.192233e+01	1.110449e+03
1.270000e-06	6.254666e-06	1.698664e-08	4.264824e+01	1.116204e+03
1.280000e-06	6.358802e-06	1.708455e-08	4.335831e+01	1.121629e+03
1.290000e-06	6.460601e-06	1.717916e-08	4.405243e+01	1.127140e+03
1.300000e-06	6.560073e-06	1.726745e-08	4.473070e+01	1.132975e+03
1.310000e-06	6.657118e-06	1.734817e-08	4.539241e+01	1.139107e+03
1.320000e-06	6.751797e-06	1.742832e-08	4.603799e+01	1.145276e+03
1.330000e-06	6.844183e-06	1.750981e-08	4.666794e+01	1.151115e+03
1.340000e-06	6.934163e-06	1.758744e-08	4.728148e+01	1.156321e+03
1.350000e-06	7.021663e-06	1.766048e-08	4.787811e+01	1.160792e+03
1.360000e-06	7.106718e-06	1.772849e-08	4.845807e+01	1.164661e+03
1.370000e-06	7.189280e-06	1.779183e-08	4.902102e+01	1.168237e+03
1.380000e-06	7.269256e-06	1.785156e-08	4.956635e+01	1.171866e+03
1.390000e-06	7.346603e-06	1.791192e-08	5.009375e+01	1.175773e+03
1.400000e-06	7.421212e-06	1.797408e-08	5.060249e+01	1.179975e+03
1.410000e-06	7.493093e-06	1.803442e-08	5.109261e+01	1.184277e+03
1.420000e-06	7.562354e-06	1.809027e-08	5.156488e+01	1.188365e+03
1.430000e-06	7.628842e-06	1.814318e-08	5.201824e+01	1.191947e+03
1.440000e-06	7.692565e-06	1.819300e-08	5.245274e+01	1.194883e+03
1.450000e-06	7.753743e-06	1.823753e-08	5.286989e+01	1.197243e+03
1.460000e-06	7.812227e-06	1.827574e-08	5.326867e+01	1.199270e+03
1.470000e-06	7.867873e-06	1.831205e-08	5.364810e+01	1.201270e+03
1.480000e-06	7.920494e-06	1.835247e-08	5.400690e+01	1.203480e+03
1.490000e-06	7.969878e-06	1.839486e-08	5.434363e+01	1.205962e+03
1.500000e-06	8.016305e-06	1.843318e-08	5.466020e+01	1.208583e+03
1.510000e-06	8.059942e-06	1.846437e-08	5.495774e+01	1.211075e+03
1.520000e-06	8.100670e-06	1.849068e-08	5.523545e+01	1.213162e+03
1.530000e-06	8.138574e-06	1.851541e-08	5.549391e+01	1.214677e+03
1.540000e-06	8.173652e-06	1.853760e-08	5.573309e+01	1.215638e+03
1.550000e-06	8.205813e-06	1.855555e-08	5.595239e+01	1.216237e+03
1.560000e-06	8.235175e-06	1.857106e-08	5.615259e+01	1.216756e+03
1.570000e-06	8.261630e-06	1.858890e-08	5.633298e+01	1.217444e+03
1.580000e-06	8.285102e-06	1.860869e-08	5.649303e+01	1.218406e+03
1.590000e-06	8.305760e-06	1.862459e-08	5.663389e+01	1.219567e+03
1.600000e-06	8.323524e-06	1.863436e-08	5.675501e+01	1.220705e+03
1.610000e-06	8.338199e-06	1.864109e-08	5.685508e+01	1.221551e+03
1.620000e-06	8.349566e-06	1.864725e-08	5.693259e+01	1.221915e+03
1.630000e-06	8.357759e-06	1.865037e-08	5.698845e+01	1.221763e+03
1.640000e-06	8.363128e-06	1.865024e-08	5.702506e+01	1.221233e+03
1.650000e-06	8.365539e-06	1.864920e-08	5.704150e+01	1.220575e+03
1.660000e-06	8.365029e-06	1.864690e-08	5.703802e+01	1.220035e+03
1.670000e-06	8.361851e-06	1.864063e-08	5.701635e+01	1.219753e+03
1.680000e-06	8.355902e-06	1.863724e-08	5.697578e+01	1.219699e+03
1.690000e-06	8.347121e-06	1.862894e-08	5.691592e+01	1.219689e+03
1.700000e-06	8.335392e-06	1.861521e-08	5.683594e+01	1.219465e+03
1.710000e-06	8.320798e-06	1.860440e-08	5.673642e+01	1.218811e+03
1.720000e-06	8.303662e-06	1.860277e-08	5.661958e+01	1.217645e+03
1.730000e-06	8.284017e-06	1.859077e-08	5.648563e+01	1.216052e+03
1.740000e-06	8.261498e-06	1.849035e-08	5.633208e+01	1.214249e+03
1.750000e-06	8.235388e-06	1.845209e-08	5.615405e+01	1.212491e+03
1.760000e-06	8.205357e-06	1.845875e-08	5.594928e+01	1.210962e+03
1.770000e-06	8.172057e-06	1.844102e-08	5.572222e+01	1.209701e+03
1.780000e-06	8.136223e-06	1.844310e-08	5.547788e+01	1.208595e+03
1.790000e-06	8.097998e-06	1.850104e-08	5.521723e+01	1.207434e+03
1.800000e-06	8.057760e-06	1.842521e-08	5.494287e+01	1.206004e+03
1.810000e-06	8.015387e-06	1.834270e-08	5.465394e+01	1.204182e+03
1.820000e-06	7.970033e-06	1.840211e-08	5.434469e+01	1.201982e+03
1.830000e-06	7.921835e-06	1.827865e-08	5.401604e+01	1.199529e+03
1.840000e-06	7.870603e-06	1.831608e-08	5.366671e+01	1.196998e+03
1.850000e-06	7.816060e-06	1.828649e-08	5.329480e+01	1.194512e+03
1.860000e-06	7.758781e-06	1.824130e-08	5.290424e+01	1.192083e+03
1.870000e-06	7.698714e-06	1.827883e-08	5.249467e+01	1.189597e+03
1.880000e-06	7.635904e-06	1.810636e-08	5.206639e+01	1.186868e+03
1.890000e-06	7.570337e-06	1.809123e-08	5.161931e+01	1.183722e+03
1.900000e-06	7.501816e-06	1.799334e-08	5.115209e+01	1.180090e+03
1.910000e-06	7.430398e-06	1.794541e-08	5.066512e+01	1.176043e+03
1.920000e-06	7.356039e-06	1.793999e-08	5.015809e+01	1.171770e+03
1.930000e-06	7.278956e-06	1.786221e-08	4.963249e+01	1.167500e+03
1.940000e-06	7.199221e-06	1.786541e-08	4.908881e+01	1.163393e+03
1.950000e-06	7.116942e-06	1.772083e-08	4.852778e+01	1.159469e+03
1.960000e-06	7.032148e-06	1.767538e-08	4.794960e+01	1.155589e+03
1.970000e-06	6.944724e-06	1.756044e-08	4.735349e+01	1.151506e+03
1.980000e-06	6.854827e-06	1.747209e-08	4.674051e+01	1.146978e+03
1.990000e-06	6.762512e-06	1.744885e-08	4.611105e+01	1.141867e+03
2.000000e-06	6.667823e-06	1.735799e-08	4.546540e+01	1.136210e+03
2.010000e-06	6.570773e-06	1.731013e-08	4.480366e+01	1.130202e+03
2.020000e-06	6.471429e-06	1.717853e-08	4.412626e+01	1.124115e+03
2.030000e-06	6.369704e-06	1.710680e-08	4.343264e+01	1.118179e+03
2.040000e-06	6.265646e-06	1.699573e-08	4.272311e+01	1.112474e+03
2.050000e-06	6.159356e-06	1.691192e-08	4.199836e+01	1.106892e+03
2.060000e-06	6.050888e-06	1.681417e-08	4.125875e+01	1.101175e+03
2.070000e-06	5.940281e-06	1.670602e-08	4.050457e+01	1.095023e+03
2.080000e-06	5.827395e-06	1.660854e-08	3.973484e+01	1.088227e+03
2.090000e-06	5.712234e-06	1.648870e-08	3.894960e+01	1.080757e+03
2.100000e-06	5.594820e-06	1.638295e-08	3.814900e+01	1.072776e+03
2.110000e-06	5.475331e-06	1.625923e-08	3.733424e+01	1.064573e+03
2.120000e-06	5.353850e-06	1.615112e-08	3.650591e+01	1.056428e+03
2.130000e-06	5.230436e-06	1.602323e-08	3.566440e+01	1.048484e+03
2.140000e-06	5.105220e-06	1.589592e-08	3.481060e+01	1.040677e+03
2.150000e-06	4.978176e-06	1.575047e-08	3.394433e+01	1.032755e+03
2.160000e-06	4.849317e-06	1.561661e-08	3.306569e+01	1.024379e+03
2.170000e-06	4.718666e-06	1.547523e-08	3.217483e+01	1.015277e+03
2.180000e-06	4.586305e-06	1.533331e-08	3.127231e+01	1.005360e+03
2.190000e-06	4.452378e-06	1.518046e-08	3.035911e+01	9.947643e+02
2.200000e-06	4.316895e-06	1.502650e-08	2.943530e+01	9.837942e+02
2.210000e-06	4.179747e-06	1.486609e-08	2.850014e+01	9.727818e+02
2.220000e-06	4.040980e-06	1.469591e-08	2.755394e+01	9.619309e+02
2.230000e-06	3.900729e-06	1.452229e-08	2.659762e+01	9.512116e+02
2.240000e-06	3.759064e-06	1.434271e-08	2.563166e+01	9.403572e+02
2.250000e-06	3.615989e-06	1.416273e-08	2.465608e+01	9.289693e+02
2.260000e-06	3.471636e-06	1.396918e-08	2.367179e+01	9.166874e+02
2.270000e-06	3.326029e-06	1.376799e-08	2.267895e+01	9.033502e+02
2.280000e-06	3.179133e-06	1.355809e-08	2.167732e+01	8.890724e+02
2.290000e-06	3.031133e-06	1.334949e-08	2.066817e+01	8.741987e+02
2.300000e-06	2.882105e-06	1.313465e-08	1.965200e+01	8.591479e+02
2.310000e-06	2.732093e-06	1.291192e-08	1.862913e+01	8.442117e+02
2.320000e-06	2.581185e-06	1.267370e-08	1.760014e+01	8.293983e+02
2.330000e-06	2.429362e-06	1.242681e-08	1.656491e+01	8.143945e+02
2.340000e-06	2.276614e-06	1.216765e-08	1.552338e+01	7.986726e+02
2.350000e-06	2.122927e-06	1.189528e-08	1.447545e+01	7.817031e+02
2.360000e-06	1.968358e-06	1.161317e-08	1.342150e+01	7.631830e+02
2.370000e-06	1.813115e-06	1.132838e-08	1.236295e+01	7.431757e+02
2.380000e-06	1.657357e-06	1.103766e-08	1.130090e+01	7.220891e+02
2.390000e-06	1.501102e-06	1.072993e-08	1.023546e+01	7.004885e+02
2.400000e-06	1.344262e-06	1.040037e-08	9.166019e+00	6.788123e+02
2.410000e-06	1.186841e-06	1.005032e-08	8.092630e+00	6.571131e+02
2.420000e-06	1.028945e-06	9.683871e-09	7.015991e+00	6.349463e+02
2.430000e-06	8.707131e-07	9.298071e-09	5.937069e+00	6.114722e+02
2.440000e-06	7.122485e-07	8.891946e-09	4.856557e+00	5.857522e+02
2.450000e-06	5.535704e-07	8.464914e-09	3.774591e+00	5.571225e+02
2.460000e-06	3.947155e-07	8.017275e-09	2.691418e+00	5.254829e+02
2.470000e-06	2.357190e-07	7.541727e-09	1.607280e+00	4.913487e+02
2.480000e-06	7.662238e-08	7.027097e-09	5.224595e-01	4.555975e+02
2.490000e-06	-8.248431e-08	6.465798e-09	-5.624298e-01	4.189646e+02
2.500000e-06	-2.415500e-07	5.858733e-09	-1.647040e+00	3.814585e+02
2.510000e-06	-4.005115e-07	5.202445e-09	-2.730939e+00	3.419299e+02
2.520000e-06	-5.593150e-07	4.481382e-09	-3.813761e+00	2.980065e+02
2.530000e-06	-7.179265e-07	3.678258e-09	-4.895274e+00	2.464986e+02
2.540000e-06	-8.763058e-07	2.773762e-09	-5.975203e+00	1.842152e+02
2.550000e-06	-1.034431e-06	1.727570e-09	-7.053398e+00	1.089792e+02
2.560000e-06	-1.192166e-06	4.769823e-10	-8.128935e+00	2.052765e+01
2.570000e-06	-1.349357e-06	-1.026297e-09	-9.200762e+00	-7.900650e+01
2.580000e-06	-1.505995e-06	-2.744067e-09	-1.026882e+01	-1.852241e+02
2.590000e-06	-1.662083e-06	-4.514681e-09	-1.133313e+01	-2.922098e+02
2.600000e-06	-1.817602e-06	-6.132581e-09	-1.239355e+01	-3.937137e+02
2.610000e-06	-1.972462e-06	-7.481249e-09	-1.344948e+01	-4.844391e+02
2.620000e-06	-2.126574e-06	-8.565349e-09	-1.450032e+01	-5.610709e+02
2.630000e-06	-2.279882e-06	-9.441052e-09	-1.554567e+01	-6.227666e+02
2.640000e-06	-2.432315e-06	-1.016502e-08	-1.658505e+01	-6.709979e+02
2.650000e-06	-2.583794e-06	-1.078207e-08	-1.761793e+01	-7.088342e+02
2.660000e-06	-2.734302e-06	-1.132129e-08	-1.864419e+01	-7.399234e+02
2.670000e-06	-2.883887e-06	-1.179661e-08	-1.966415e+01	-7.674938e+02
2.680000e-06	-3.032465e-06	-1.221891e-08	-2.067725e+01	-7.936677e+02
2.690000e-06	-3.179948e-06	-1.259889e-08	-2.168288e+01	-8.192442e+02
2.700000e-06	-3.326341e-06	-1.294348e-08	-2.268108e+01	-8.439402e+02
2.710000e-06	-3.471548e-06	-1.325743e-08	-2.367119e+01	-8.669305e+02
2.720000e-06	-3.615468e-06	-1.354410e-08	-2.465253e+01	-8.874479e+02
2.730000e-06	-3.758093e-06	-1.380979e-08	-2.562504e+01	-9.052201e+02
2.740000e-06	-3.899303e-06	-1.406333e-08	-2.658790e+01	-9.206097e+02
2.750000e-06	-4.039032e-06	-1.430783e-08	-2.754065e+01	-9.344529e+02
2.760000e-06	-4.177216e-06	-1.454071e-08	-2.848288e+01	-9.477089e+02
2.770000e-06	-4.313738e-06	-1.475893e-08	-2.941378e+01	-9.610893e+02
2.780000e-06	-4.448709e-06	-1.496207e-08	-3.033409e+01	-9.748233e+02
2.790000e-06	-4.582151e-06	-1.515152e-08	-3.124398e+01	-9.886439e+02
2.800000e-06	-4.713938e-06	-1.532876e-08	-3.214259e+01	-1.001979e+03
2.810000e-06	-4.844040e-06	-1.549549e-08	-3.302971e+01	-1.014247e+03
2.820000e-06	-4.972481e-06	-1.565615e-08	-3.390550e+01	-1.025131e+03
2.830000e-06	-5.099196e-06	-1.581599e-08	-3.476952e+01	-1.034709e+03
2.840000e-06	-5.224092e-06	-1.597264e-08	-3.562114e+01	-1.043407e+03
2.850000e-06	-5.347134e-06	-1.612030e-08	-3.646012e+01	-1.051802e+03
2.860000e-06	-5.468262e-06	-1.625646e-08	-3.728604e+01	-1.060375e+03
2.870000e-06	-5.587405e-06	-1.638308e-08	-3.809844e+01	-1.069316e+03
2.880000e-06	-5.704409e-06	-1.650346e-08	-3.889625e+01	-1.078474e+03
2.890000e-06	-5.819017e-06	-1.661896e-08	-3.967771e+01	-1.087445e+03
2.900000e-06	-5.931204e-06	-1.673018e-08	-4.044268e+01	-1.095771e+03
2.910000e-06	-6.041157e-06	-1.683745e-08	-4.119240e+01	-1.103147e+03
2.920000e-06	-6.148987e-06	-1.694196e-08	-4.192765e+01	-1.109552e+03
2.930000e-06	-6.254799e-06	-1.704374e-08	-4.264915e+01	-1.115251e+03
2.940000e-06	-6.358460e-06	-1.713992e-08	-4.335597e+01	-1.120668e+03
