# Temperatura_=_21.55
# Concentracion g/m^3_=_13400.0
# C_Vs_to_Am_M_A/Vsm_=_65563218390.804596
# pendiente_HvsI_1/m_=_3716.3
# ordenada_HvsI_A/m_=_1297.0
# frecuencia_Hz_=_301434.0454724935

Tiempo_(s)	Campo_(V.s)	Magnetizacion_(V.s)	Campo_(kA/m)	Magnetizacion_(A/m)
0.000000e+00	-8.356031e-06	-1.942722e-08	-5.691010e+01	-1.274137e+03
1.000000e-08	-8.352953e-06	-1.942538e-08	-5.688914e+01	-1.273530e+03
2.000000e-08	-8.347140e-06	-1.941640e-08	-5.684955e+01	-1.273086e+03
3.000000e-08	-8.338752e-06	-1.940758e-08	-5.679242e+01	-1.272815e+03
4.000000e-08	-8.327491e-06	-1.940075e-08	-5.671572e+01	-1.272598e+03
5.000000e-08	-8.313134e-06	-1.939066e-08	-5.661795e+01	-1.272244e+03
6.000000e-08	-8.295751e-06	-1.937438e-08	-5.649955e+01	-1.271570e+03
7.000000e-08	-8.275803e-06	-1.934924e-08	-5.636369e+01	-1.270483e+03
8.000000e-08	-8.253388e-06	-1.935261e-08	-5.621104e+01	-1.269020e+03
9.000000e-08	-8.227859e-06	-1.938227e-08	-5.603717e+01	-1.267334e+03
1.000000e-07	-8.198918e-06	-1.934743e-08	-5.584005e+01	-1.265627e+03
1.100000e-07	-8.166804e-06	-1.929820e-08	-5.562134e+01	-1.264064e+03
1.200000e-07	-8.131737e-06	-1.927503e-08	-5.538251e+01	-1.262714e+03
1.300000e-07	-8.093995e-06	-1.924118e-08	-5.512546e+01	-1.261519e+03
1.400000e-07	-8.053873e-06	-1.916464e-08	-5.485221e+01	-1.260327e+03
1.500000e-07	-8.011324e-06	-1.912453e-08	-5.456242e+01	-1.258959e+03
1.600000e-07	-7.966005e-06	-1.918036e-08	-5.425376e+01	-1.257283e+03
1.700000e-07	-7.917768e-06	-1.909498e-08	-5.392524e+01	-1.255263e+03
1.800000e-07	-7.866628e-06	-1.909521e-08	-5.357695e+01	-1.252955e+03
1.900000e-07	-7.812461e-06	-1.910015e-08	-5.320803e+01	-1.250473e+03
2.000000e-07	-7.755377e-06	-1.898440e-08	-5.281925e+01	-1.247918e+03
2.100000e-07	-7.695484e-06	-1.895329e-08	-5.241134e+01	-1.245328e+03
2.200000e-07	-7.632881e-06	-1.888370e-08	-5.198497e+01	-1.242656e+03
2.300000e-07	-7.567578e-06	-1.886140e-08	-5.154022e+01	-1.239792e+03
2.400000e-07	-7.499394e-06	-1.881115e-08	-5.107583e+01	-1.236624e+03
2.500000e-07	-7.428374e-06	-1.876374e-08	-5.059214e+01	-1.233094e+03
2.600000e-07	-7.354536e-06	-1.873012e-08	-5.008926e+01	-1.229234e+03
2.700000e-07	-7.277873e-06	-1.865678e-08	-4.956713e+01	-1.225160e+03
2.800000e-07	-7.198398e-06	-1.860383e-08	-4.902585e+01	-1.221018e+03
2.900000e-07	-7.116230e-06	-1.851742e-08	-4.846624e+01	-1.216920e+03
3.000000e-07	-7.031569e-06	-1.846556e-08	-4.788964e+01	-1.212881e+03
3.100000e-07	-6.944559e-06	-1.840822e-08	-4.729705e+01	-1.208811e+03
3.200000e-07	-6.855151e-06	-1.833707e-08	-4.668811e+01	-1.204540e+03
3.300000e-07	-6.763215e-06	-1.827252e-08	-4.606197e+01	-1.199897e+03
3.400000e-07	-6.668907e-06	-1.818390e-08	-4.541967e+01	-1.194782e+03
3.500000e-07	-6.572228e-06	-1.811306e-08	-4.476122e+01	-1.189212e+03
3.600000e-07	-6.473160e-06	-1.803175e-08	-4.408651e+01	-1.183322e+03
3.700000e-07	-6.371734e-06	-1.794453e-08	-4.339573e+01	-1.177303e+03
3.800000e-07	-6.267910e-06	-1.784604e-08	-4.268862e+01	-1.171317e+03
3.900000e-07	-6.161810e-06	-1.775368e-08	-4.196600e+01	-1.165425e+03
4.000000e-07	-6.053561e-06	-1.766396e-08	-4.122875e+01	-1.159547e+03
4.100000e-07	-5.943143e-06	-1.755948e-08	-4.047673e+01	-1.153496e+03
4.200000e-07	-5.830442e-06	-1.745985e-08	-3.970917e+01	-1.147052e+03
4.300000e-07	-5.715485e-06	-1.735756e-08	-3.892623e+01	-1.140058e+03
4.400000e-07	-5.598371e-06	-1.725844e-08	-3.812861e+01	-1.132489e+03
4.500000e-07	-5.479207e-06	-1.714730e-08	-3.731703e+01	-1.124464e+03
4.600000e-07	-5.358013e-06	-1.702206e-08	-3.649161e+01	-1.116197e+03
4.700000e-07	-5.234883e-06	-1.688707e-08	-3.565302e+01	-1.107893e+03
4.800000e-07	-5.109935e-06	-1.675496e-08	-3.480204e+01	-1.099655e+03
4.900000e-07	-4.983135e-06	-1.662766e-08	-3.393845e+01	-1.091428e+03
5.000000e-07	-4.854544e-06	-1.649458e-08	-3.306266e+01	-1.083010e+03
5.100000e-07	-4.724178e-06	-1.635598e-08	-3.217478e+01	-1.074132e+03
5.200000e-07	-4.592073e-06	-1.621334e-08	-3.127505e+01	-1.064578e+03
5.300000e-07	-4.458302e-06	-1.606637e-08	-3.036399e+01	-1.054270e+03
5.400000e-07	-4.322915e-06	-1.590599e-08	-2.944191e+01	-1.043315e+03
5.500000e-07	-4.185940e-06	-1.573245e-08	-2.850902e+01	-1.031952e+03
5.600000e-07	-4.047290e-06	-1.555570e-08	-2.756472e+01	-1.020446e+03
5.700000e-07	-3.907039e-06	-1.538058e-08	-2.660952e+01	-1.008967e+03
5.800000e-07	-3.765327e-06	-1.520284e-08	-2.564437e+01	-9.974942e+02
5.900000e-07	-3.622099e-06	-1.501343e-08	-2.466889e+01	-9.858157e+02
6.000000e-07	-3.477429e-06	-1.481801e-08	-2.368359e+01	-9.736037e+02
6.100000e-07	-3.331597e-06	-1.462175e-08	-2.269038e+01	-9.605506e+02
6.200000e-07	-3.184656e-06	-1.441911e-08	-2.168962e+01	-9.465012e+02
6.300000e-07	-3.036569e-06	-1.419989e-08	-2.068105e+01	-9.315222e+02
6.400000e-07	-2.887409e-06	-1.396502e-08	-1.966516e+01	-9.158735e+02
6.500000e-07	-2.737246e-06	-1.372437e-08	-1.864246e+01	-8.998889e+02
6.600000e-07	-2.586095e-06	-1.347836e-08	-1.761302e+01	-8.838141e+02
6.700000e-07	-2.434055e-06	-1.322349e-08	-1.657753e+01	-8.676738e+02
6.800000e-07	-2.281213e-06	-1.295693e-08	-1.553657e+01	-8.512298e+02
6.900000e-07	-2.127536e-06	-1.268491e-08	-1.448993e+01	-8.340556e+02
7.000000e-07	-1.972982e-06	-1.240499e-08	-1.343731e+01	-8.157013e+02
7.100000e-07	-1.817620e-06	-1.211233e-08	-1.237919e+01	-7.958801e+02
7.200000e-07	-1.661667e-06	-1.179881e-08	-1.131705e+01	-7.745911e+02
7.300000e-07	-1.505288e-06	-1.146756e-08	-1.025201e+01	-7.521180e+02
7.400000e-07	-1.348464e-06	-1.112353e-08	-9.183934e+00	-7.288896e+02
7.500000e-07	-1.191107e-06	-1.076300e-08	-8.112227e+00	-7.052569e+02
7.600000e-07	-1.033199e-06	-1.038576e-08	-7.036770e+00	-6.812773e+02
7.700000e-07	-8.747742e-07	-9.990327e-09	-5.957791e+00	-6.566094e+02
7.800000e-07	-7.160007e-07	-9.575204e-09	-4.876438e+00	-6.305781e+02
7.900000e-07	-5.569509e-07	-9.135910e-09	-3.793204e+00	-6.024011e+02
8.000000e-07	-3.977031e-07	-8.670997e-09	-2.708621e+00	-5.714917e+02
8.100000e-07	-2.383919e-07	-8.174241e-09	-1.623607e+00	-5.377068e+02
8.200000e-07	-7.902006e-08	-7.645115e-09	-5.381789e-01	-5.014129e+02
8.300000e-07	8.038738e-08	-7.085076e-09	5.474913e-01	-4.633041e+02
8.400000e-07	2.397646e-07	-6.490911e-09	1.632956e+00	-4.240042e+02
8.500000e-07	3.990903e-07	-5.854850e-09	2.718069e+00	-3.835820e+02
8.600000e-07	5.583198e-07	-5.167704e-09	3.802527e+00	-3.411687e+02
8.700000e-07	7.173566e-07	-4.420740e-09	4.885673e+00	-2.948597e+02
8.800000e-07	8.760552e-07	-3.598394e-09	5.966516e+00	-2.420003e+02
8.900000e-07	1.034378e-06	-2.676782e-09	7.044801e+00	-1.798295e+02
9.000000e-07	1.192327e-06	-1.614456e-09	8.120535e+00	-1.063200e+02
9.100000e-07	1.349751e-06	-3.662576e-10	9.192697e+00	-2.096745e+01
9.200000e-07	1.506587e-06	1.089544e-09	1.026086e+01	7.473237e+01
9.300000e-07	1.662923e-06	2.713187e-09	1.132560e+01	1.772960e+02
9.400000e-07	1.818757e-06	4.387848e-09	1.238694e+01	2.817907e+02
9.500000e-07	1.973944e-06	5.967255e-09	1.344386e+01	3.827712e+02
9.600000e-07	2.128421e-06	7.348385e-09	1.449595e+01	4.753608e+02
9.700000e-07	2.282084e-06	8.505500e-09	1.554250e+01	5.561773e+02
9.800000e-07	2.434828e-06	9.467606e-09	1.658279e+01	6.238546e+02
9.900000e-07	2.586690e-06	1.027933e-08	1.761707e+01	6.790366e+02
1.000000e-06	2.737694e-06	1.097447e-08	1.864551e+01	7.238866e+02
1.010000e-06	2.887741e-06	1.157747e-08	1.966743e+01	7.612949e+02
1.020000e-06	3.036665e-06	1.210612e-08	2.068170e+01	7.940428e+02
1.030000e-06	3.184469e-06	1.257689e-08	2.168834e+01	8.241700e+02
1.040000e-06	3.331159e-06	1.300429e-08	2.268740e+01	8.526989e+02
1.050000e-06	3.476712e-06	1.339406e-08	2.367871e+01	8.797371e+02
1.060000e-06	3.621056e-06	1.374852e-08	2.466179e+01	9.048531e+02
1.070000e-06	3.764031e-06	1.407292e-08	2.563554e+01	9.275446e+02
1.080000e-06	3.905529e-06	1.437469e-08	2.659923e+01	9.476140e+02
1.090000e-06	4.045480e-06	1.465584e-08	2.755240e+01	9.653277e+02
1.100000e-06	4.183892e-06	1.491586e-08	2.849507e+01	9.813361e+02
1.110000e-06	4.320743e-06	1.516131e-08	2.942712e+01	9.964235e+02
1.120000e-06	4.456044e-06	1.539672e-08	3.034861e+01	1.011218e+03
1.130000e-06	4.589794e-06	1.561967e-08	3.125953e+01	1.025989e+03
1.140000e-06	4.721897e-06	1.582948e-08	3.215924e+01	1.040605e+03
1.150000e-06	4.852349e-06	1.602792e-08	3.304771e+01	1.054665e+03
1.160000e-06	4.981061e-06	1.621540e-08	3.392432e+01	1.067725e+03
1.170000e-06	5.107982e-06	1.639154e-08	3.478874e+01	1.079516e+03
1.180000e-06	5.233115e-06	1.655780e-08	3.564097e+01	1.090074e+03
1.190000e-06	5.356430e-06	1.671579e-08	3.648084e+01	1.099719e+03
1.200000e-06	5.477852e-06	1.686785e-08	3.730780e+01	1.108918e+03
1.210000e-06	5.597228e-06	1.701449e-08	3.812083e+01	1.118084e+03
1.220000e-06	5.714457e-06	1.715784e-08	3.891923e+01	1.127416e+03
1.230000e-06	5.829439e-06	1.729868e-08	3.970234e+01	1.136834e+03
1.240000e-06	5.942209e-06	1.743254e-08	4.047037e+01	1.146036e+03
1.250000e-06	6.052895e-06	1.755741e-08	4.122422e+01	1.154652e+03
1.260000e-06	6.161487e-06	1.767457e-08	4.196380e+01	1.162408e+03
1.270000e-06	6.267885e-06	1.778474e-08	4.268844e+01	1.169253e+03
1.280000e-06	6.371973e-06	1.788789e-08	4.339735e+01	1.175372e+03
1.290000e-06	6.473732e-06	1.798447e-08	4.409040e+01	1.181105e+03
1.300000e-06	6.573147e-06	1.807669e-08	4.476748e+01	1.186803e+03
1.310000e-06	6.670131e-06	1.816702e-08	4.542801e+01	1.192680e+03
1.320000e-06	6.764815e-06	1.825673e-08	4.607287e+01	1.198740e+03
1.330000e-06	6.857203e-06	1.834233e-08	4.670209e+01	1.204791e+03
1.340000e-06	6.947121e-06	1.842093e-08	4.731450e+01	1.210540e+03
1.350000e-06	7.034572e-06	1.849432e-08	4.791009e+01	1.215738e+03
1.360000e-06	7.119622e-06	1.856389e-08	4.848934e+01	1.220282e+03
1.370000e-06	7.202242e-06	1.862932e-08	4.905203e+01	1.224266e+03
1.380000e-06	7.282278e-06	1.869152e-08	4.959713e+01	1.227928e+03
1.390000e-06	7.359571e-06	1.875463e-08	5.012355e+01	1.231548e+03
1.400000e-06	7.434028e-06	1.881709e-08	5.063065e+01	1.235325e+03
1.410000e-06	7.505760e-06	1.887655e-08	5.111919e+01	1.239292e+03
1.420000e-06	7.574895e-06	1.893305e-08	5.159005e+01	1.243309e+03
1.430000e-06	7.641288e-06	1.898557e-08	5.204223e+01	1.247135e+03
1.440000e-06	7.704951e-06	1.903333e-08	5.247581e+01	1.250530e+03
1.450000e-06	7.766028e-06	1.907803e-08	5.289179e+01	1.253371e+03
1.460000e-06	7.824366e-06	1.912176e-08	5.328911e+01	1.255695e+03
1.470000e-06	7.879871e-06	1.916313e-08	5.366714e+01	1.257687e+03
1.480000e-06	7.932390e-06	1.920194e-08	5.402483e+01	1.259592e+03
1.490000e-06	7.981685e-06	1.923887e-08	5.436056e+01	1.261608e+03
1.500000e-06	8.027977e-06	1.927446e-08	5.467584e+01	1.263803e+03
1.510000e-06	8.071414e-06	1.930642e-08	5.497167e+01	1.266087e+03
1.520000e-06	8.111943e-06	1.933157e-08	5.524770e+01	1.268258e+03
1.530000e-06	8.149694e-06	1.935272e-08	5.550481e+01	1.270091e+03
1.540000e-06	8.184607e-06	1.937369e-08	5.574259e+01	1.271442e+03
1.550000e-06	8.216652e-06	1.939473e-08	5.596084e+01	1.272309e+03
1.560000e-06	8.245983e-06	1.941314e-08	5.616060e+01	1.272837e+03
1.570000e-06	8.272344e-06	1.942835e-08	5.634014e+01	1.273248e+03
1.580000e-06	8.295664e-06	1.944116e-08	5.649896e+01	1.273751e+03
1.590000e-06	8.316208e-06	1.945330e-08	5.663888e+01	1.274452e+03
1.600000e-06	8.333843e-06	1.946270e-08	5.675898e+01	1.275312e+03
1.610000e-06	8.348371e-06	1.946736e-08	5.685793e+01	1.276169e+03
1.620000e-06	8.359672e-06	1.946827e-08	5.693490e+01	1.276812e+03
1.630000e-06	8.367841e-06	1.946976e-08	5.699053e+01	1.277079e+03
1.640000e-06	8.373093e-06	1.947552e-08	5.702630e+01	1.276921e+03
1.650000e-06	8.375324e-06	1.948036e-08	5.704150e+01	1.276428e+03
1.660000e-06	8.374638e-06	1.947861e-08	5.703683e+01	1.275786e+03
1.670000e-06	8.371257e-06	1.946931e-08	5.701380e+01	1.275191e+03
1.680000e-06	8.365051e-06	1.946410e-08	5.697154e+01	1.274767e+03
1.690000e-06	8.356035e-06	1.945694e-08	5.691013e+01	1.274508e+03
1.700000e-06	8.344124e-06	1.944391e-08	5.682901e+01	1.274286e+03
1.710000e-06	8.329291e-06	1.943297e-08	5.672798e+01	1.273904e+03
1.720000e-06	8.311927e-06	1.942958e-08	5.660972e+01	1.273187e+03
1.730000e-06	8.292077e-06	1.941316e-08	5.647453e+01	1.272054e+03
1.740000e-06	8.269339e-06	1.933698e-08	5.631967e+01	1.270558e+03
1.750000e-06	8.243014e-06	1.931384e-08	5.614038e+01	1.268859e+03
1.760000e-06	8.212727e-06	1.932016e-08	5.593411e+01	1.267160e+03
1.770000e-06	8.179210e-06	1.929779e-08	5.570583e+01	1.265618e+03
1.780000e-06	8.143178e-06	1.928909e-08	5.546043e+01	1.264289e+03
1.790000e-06	8.104756e-06	1.933028e-08	5.519875e+01	1.263101e+03
1.800000e-06	8.064320e-06	1.927189e-08	5.492335e+01	1.261897e+03
1.810000e-06	8.021700e-06	1.919280e-08	5.463309e+01	1.260501e+03
1.820000e-06	7.976128e-06	1.924332e-08	5.432271e+01	1.258787e+03
1.830000e-06	7.927709e-06	1.915616e-08	5.399295e+01	1.256731e+03
1.840000e-06	7.876237e-06	1.916575e-08	5.364238e+01	1.254398e+03
1.850000e-06	7.821450e-06	1.914578e-08	5.326925e+01	1.251903e+03
1.860000e-06	7.763876e-06	1.909771e-08	5.287713e+01	1.249343e+03
1.870000e-06	7.703531e-06	1.912009e-08	5.246614e+01	1.246747e+03
1.880000e-06	7.640491e-06	1.899889e-08	5.203680e+01	1.244059e+03
1.890000e-06	7.574619e-06	1.897151e-08	5.158817e+01	1.241167e+03
1.900000e-06	7.505810e-06	1.888214e-08	5.111954e+01	1.237961e+03
1.910000e-06	7.434219e-06	1.883072e-08	5.063195e+01	1.234391e+03
1.920000e-06	7.359637e-06	1.881344e-08	5.012400e+01	1.230501e+03
1.930000e-06	7.282277e-06	1.874317e-08	4.959713e+01	1.226412e+03
1.940000e-06	7.202306e-06	1.872777e-08	4.905247e+01	1.222270e+03
1.950000e-06	7.119768e-06	1.861821e-08	4.849033e+01	1.218178e+03
1.960000e-06	7.034664e-06	1.856927e-08	4.791072e+01	1.214141e+03
1.970000e-06	6.946951e-06	1.847353e-08	4.731333e+01	1.210057e+03
1.980000e-06	6.856832e-06	1.838760e-08	4.669956e+01	1.205753e+03
1.990000e-06	6.764255e-06	1.833935e-08	4.606905e+01	1.201062e+03
2.000000e-06	6.669305e-06	1.825497e-08	4.542238e+01	1.195894e+03
2.010000e-06	6.572060e-06	1.819473e-08	4.476008e+01	1.190281e+03
2.020000e-06	6.472441e-06	1.808483e-08	4.408161e+01	1.184367e+03
2.030000e-06	6.370431e-06	1.800998e-08	4.338685e+01	1.178344e+03
2.040000e-06	6.266135e-06	1.791149e-08	4.267653e+01	1.172367e+03
2.050000e-06	6.159641e-06	1.782898e-08	4.195123e+01	1.166481e+03
2.060000e-06	6.050930e-06	1.773290e-08	4.121084e+01	1.160595e+03
2.070000e-06	5.940073e-06	1.762544e-08	4.045583e+01	1.154511e+03
2.080000e-06	5.826945e-06	1.751966e-08	3.968535e+01	1.148013e+03
2.090000e-06	5.711518e-06	1.740396e-08	3.889922e+01	1.140954e+03
2.100000e-06	5.593891e-06	1.729532e-08	3.809810e+01	1.133327e+03
2.110000e-06	5.474169e-06	1.718008e-08	3.728271e+01	1.125265e+03
2.120000e-06	5.352445e-06	1.706774e-08	3.645370e+01	1.116984e+03
2.130000e-06	5.228808e-06	1.694261e-08	3.561164e+01	1.108684e+03
2.140000e-06	5.103309e-06	1.681603e-08	3.475691e+01	1.100452e+03
2.150000e-06	4.976015e-06	1.667845e-08	3.388996e+01	1.092215e+03
2.160000e-06	4.846946e-06	1.654072e-08	3.301091e+01	1.083760e+03
2.170000e-06	4.716112e-06	1.639435e-08	3.211984e+01	1.074818e+03
2.180000e-06	4.583536e-06	1.624918e-08	3.121691e+01	1.065182e+03
2.190000e-06	4.449363e-06	1.609361e-08	3.030311e+01	1.054796e+03
2.200000e-06	4.313702e-06	1.593652e-08	2.937917e+01	1.043783e+03
2.210000e-06	4.176329e-06	1.577126e-08	2.844357e+01	1.032392e+03
2.220000e-06	4.037317e-06	1.560122e-08	2.749680e+01	1.020883e+03
2.230000e-06	3.896807e-06	1.542425e-08	2.653983e+01	1.009408e+03
2.240000e-06	3.754857e-06	1.524312e-08	2.557306e+01	9.979256e+02
2.250000e-06	3.611547e-06	1.505871e-08	2.459702e+01	9.862057e+02
2.260000e-06	3.466939e-06	1.486287e-08	2.361215e+01	9.739157e+02
2.270000e-06	3.321073e-06	1.465454e-08	2.261871e+01	9.607587e+02
2.280000e-06	3.174050e-06	1.443442e-08	2.161738e+01	9.466016e+02
2.290000e-06	3.025882e-06	1.421155e-08	2.060826e+01	9.315350e+02
2.300000e-06	2.876529e-06	1.398632e-08	1.959107e+01	9.158337e+02
2.310000e-06	2.726187e-06	1.375876e-08	1.856714e+01	8.998298e+02
2.320000e-06	2.575013e-06	1.352054e-08	1.753754e+01	8.837506e+02
2.330000e-06	2.423010e-06	1.327056e-08	1.650230e+01	8.675926e+02
2.340000e-06	2.270068e-06	1.300151e-08	1.546066e+01	8.510919e+02
2.350000e-06	2.116178e-06	1.271842e-08	1.441257e+01	8.338105e+02
2.360000e-06	1.961504e-06	1.242458e-08	1.335914e+01	8.153075e+02
2.370000e-06	1.806188e-06	1.212300e-08	1.230134e+01	7.953227e+02
2.380000e-06	1.650263e-06	1.181069e-08	1.123938e+01	7.738883e+02
2.390000e-06	1.493732e-06	1.148745e-08	1.017330e+01	7.513121e+02
2.400000e-06	1.336615e-06	1.115028e-08	9.103231e+00	7.280264e+02
2.410000e-06	1.178944e-06	1.079327e-08	8.029387e+00	7.043596e+02
2.420000e-06	1.020814e-06	1.041556e-08	6.952422e+00	6.803288e+02
2.430000e-06	8.623635e-07	1.001583e-08	5.873266e+00	6.555505e+02
2.440000e-06	7.036435e-07	9.592544e-09	4.792278e+00	6.293250e+02
2.450000e-06	5.446960e-07	9.145487e-09	3.709740e+00	6.008762e+02
2.460000e-06	3.856123e-07	8.678297e-09	2.626275e+00	5.696554e+02
2.470000e-06	2.264158e-07	8.185281e-09	1.542042e+00	5.355751e+02
2.480000e-06	6.714491e-08	7.659368e-09	4.573013e-01	4.990499e+02
2.490000e-06	-9.212705e-08	7.096532e-09	-6.274462e-01	4.607886e+02
2.500000e-06	-2.513571e-07	6.495518e-09	-1.711908e+00	4.213784e+02
2.510000e-06	-4.105060e-07	5.854232e-09	-2.795817e+00	3.808023e+02
2.520000e-06	-5.695144e-07	5.162620e-09	-3.878770e+00	3.380789e+02
2.530000e-06	-7.283300e-07	4.409071e-09	-4.960410e+00	2.912024e+02
2.540000e-06	-8.869065e-07	3.579792e-09	-6.040420e+00	2.374709e+02
2.550000e-06	-1.045145e-06	2.648220e-09	-7.118128e+00	1.741603e+02
2.560000e-06	-1.202991e-06	1.578308e-09	-8.193167e+00	9.937238e+01
2.570000e-06	-1.360351e-06	3.250403e-10	-9.264893e+00	1.280166e+01
2.580000e-06	-1.517103e-06	-1.139125e-09	-1.033248e+01	-8.383288e+01
2.590000e-06	-1.673223e-06	-2.776094e-09	-1.139576e+01	-1.868581e+02
2.600000e-06	-1.828750e-06	-4.461092e-09	-1.245500e+01	-2.912366e+02
2.610000e-06	-1.983725e-06	-6.041776e-09	-1.351048e+01	-3.915325e+02
2.620000e-06	-2.138006e-06	-7.420406e-09	-1.456123e+01	-4.829903e+02
2.630000e-06	-2.291389e-06	-8.576725e-09	-1.560588e+01	-5.624279e+02
2.640000e-06	-2.443837e-06	-9.542817e-09	-1.664415e+01	-6.287041e+02
2.650000e-06	-2.595385e-06	-1.035828e-08	-1.767629e+01	-6.826564e+02
2.660000e-06	-2.746040e-06	-1.105819e-08	-1.870235e+01	-7.265670e+02
2.670000e-06	-2.895753e-06	-1.166917e-08	-1.972199e+01	-7.633527e+02
2.680000e-06	-3.044407e-06	-1.220675e-08	-2.073443e+01	-7.957402e+02
2.690000e-06	-3.191979e-06	-1.268218e-08	-2.173949e+01	-8.256663e+02
2.700000e-06	-3.338460e-06	-1.310653e-08	-2.273712e+01	-8.540446e+02
2.710000e-06	-3.483807e-06	-1.348999e-08	-2.372703e+01	-8.809034e+02
2.720000e-06	-3.627858e-06	-1.384098e-08	-2.470812e+01	-9.057817e+02
2.730000e-06	-3.770503e-06	-1.416831e-08	-2.567962e+01	-9.281948e+02
2.740000e-06	-3.911749e-06	-1.447547e-08	-2.664160e+01	-9.479917e+02
2.750000e-06	-4.051519e-06	-1.475875e-08	-2.759353e+01	-9.654877e+02
2.760000e-06	-4.189791e-06	-1.502079e-08	-2.853525e+01	-9.813611e+02
2.770000e-06	-4.326510e-06	-1.526840e-08	-2.946640e+01	-9.963932e+02
2.780000e-06	-4.461605e-06	-1.550379e-08	-3.038648e+01	-1.011181e+03
2.790000e-06	-4.595104e-06	-1.572414e-08	-3.129570e+01	-1.025948e+03
2.800000e-06	-4.726978e-06	-1.593020e-08	-3.219385e+01	-1.040528e+03
2.810000e-06	-4.857118e-06	-1.612577e-08	-3.308019e+01	-1.054502e+03
2.820000e-06	-4.985508e-06	-1.631128e-08	-3.395461e+01	-1.067434e+03
2.830000e-06	-5.112127e-06	-1.648864e-08	-3.481697e+01	-1.079086e+03
2.840000e-06	-5.237020e-06	-1.665867e-08	-3.566757e+01	-1.089528e+03
2.850000e-06	-5.360073e-06	-1.682204e-08	-3.650565e+01	-1.099103e+03
2.860000e-06	-5.481192e-06	-1.697620e-08	-3.733055e+01	-1.108282e+03
2.870000e-06	-5.600300e-06	-1.711944e-08	-3.814175e+01	-1.117462e+03
2.880000e-06	-5.717258e-06	-1.725494e-08	-3.893831e+01	-1.126813e+03
2.890000e-06	-5.831924e-06	-1.738379e-08	-3.971926e+01	-1.136226e+03
2.900000e-06	-5.944176e-06	-1.750781e-08	-4.048378e+01	-1.145384e+03
2.910000e-06	-6.054121e-06	-1.762651e-08	-4.123257e+01	-1.153918e+03
2.920000e-06	-6.161901e-06	-1.773968e-08	-4.196662e+01	-1.161576e+03
2.930000e-06	-6.267660e-06	-1.784783e-08	-4.268691e+01	-1.168331e+03
2.940000e-06	-6.371255e-06	-1.794947e-08	-4.339246e+01	-1.174392e+03
