# Temperatura_=_63.93
# Concentracion g/m^3_=_13400.0
# C_Vs_to_Am_M_A/Vsm_=_65563218390.804596
# pendiente_HvsI_1/m_=_3716.3
# ordenada_HvsI_A/m_=_1297.0
# frecuencia_Hz_=_301437.36223354493

Tiempo_(s)	Campo_(V.s)	Magnetizacion_(V.s)	Campo_(kA/m)	Magnetizacion_(A/m)
0.000000e+00	-8.311863e-06	-1.862070e-08	-5.691578e+01	-1.221207e+03
1.000000e-08	-8.309199e-06	-1.861793e-08	-5.689755e+01	-1.220868e+03
2.000000e-08	-8.303793e-06	-1.861317e-08	-5.686053e+01	-1.220778e+03
3.000000e-08	-8.295763e-06	-1.860346e-08	-5.680554e+01	-1.220766e+03
4.000000e-08	-8.284885e-06	-1.858948e-08	-5.673105e+01	-1.220569e+03
5.000000e-08	-8.270992e-06	-1.857555e-08	-5.663592e+01	-1.219953e+03
6.000000e-08	-8.254120e-06	-1.856186e-08	-5.652039e+01	-1.218808e+03
7.000000e-08	-8.234610e-06	-1.854175e-08	-5.638679e+01	-1.217205e+03
8.000000e-08	-8.212612e-06	-1.853031e-08	-5.623617e+01	-1.215359e+03
9.000000e-08	-8.187626e-06	-1.854783e-08	-5.606507e+01	-1.213538e+03
1.000000e-07	-8.159312e-06	-1.855110e-08	-5.587119e+01	-1.211952e+03
1.100000e-07	-8.127831e-06	-1.851563e-08	-5.565562e+01	-1.210660e+03
1.200000e-07	-8.093332e-06	-1.845894e-08	-5.541939e+01	-1.209556e+03
1.300000e-07	-8.056060e-06	-1.839939e-08	-5.516417e+01	-1.208414e+03
1.400000e-07	-8.016438e-06	-1.835528e-08	-5.489286e+01	-1.206999e+03
1.500000e-07	-7.974434e-06	-1.833346e-08	-5.460523e+01	-1.205162e+03
1.600000e-07	-7.929707e-06	-1.831381e-08	-5.429896e+01	-1.202905e+03
1.700000e-07	-7.882152e-06	-1.828403e-08	-5.397333e+01	-1.200369e+03
1.800000e-07	-7.831643e-06	-1.826113e-08	-5.362746e+01	-1.197762e+03
1.900000e-07	-7.778027e-06	-1.823788e-08	-5.326033e+01	-1.195248e+03
2.000000e-07	-7.721581e-06	-1.815417e-08	-5.287381e+01	-1.192869e+03
2.100000e-07	-7.662395e-06	-1.807671e-08	-5.246853e+01	-1.190513e+03
2.200000e-07	-7.600468e-06	-1.803969e-08	-5.204448e+01	-1.187960e+03
2.300000e-07	-7.535872e-06	-1.800875e-08	-5.160216e+01	-1.184982e+03
2.400000e-07	-7.468432e-06	-1.798036e-08	-5.114036e+01	-1.181444e+03
2.500000e-07	-7.398252e-06	-1.791459e-08	-5.065980e+01	-1.177377e+03
2.600000e-07	-7.325349e-06	-1.785636e-08	-5.016060e+01	-1.172967e+03
2.700000e-07	-7.249565e-06	-1.780127e-08	-4.964167e+01	-1.168480e+03
2.800000e-07	-7.170882e-06	-1.773531e-08	-4.910288e+01	-1.164150e+03
2.900000e-07	-7.089388e-06	-1.764739e-08	-4.854484e+01	-1.160069e+03
3.000000e-07	-7.005408e-06	-1.757811e-08	-4.796979e+01	-1.156148e+03
3.100000e-07	-6.919121e-06	-1.754005e-08	-4.737893e+01	-1.152145e+03
3.200000e-07	-6.830483e-06	-1.747392e-08	-4.677198e+01	-1.147775e+03
3.300000e-07	-6.739388e-06	-1.738753e-08	-4.614821e+01	-1.142825e+03
3.400000e-07	-6.645879e-06	-1.729245e-08	-4.550790e+01	-1.137254e+03
3.500000e-07	-6.550067e-06	-1.721449e-08	-4.485183e+01	-1.131210e+03
3.600000e-07	-6.451866e-06	-1.714327e-08	-4.417939e+01	-1.124968e+03
3.700000e-07	-6.351218e-06	-1.705787e-08	-4.349020e+01	-1.118804e+03
3.800000e-07	-6.248260e-06	-1.695937e-08	-4.278519e+01	-1.112881e+03
3.900000e-07	-6.143101e-06	-1.686120e-08	-4.206511e+01	-1.107163e+03
4.000000e-07	-6.035706e-06	-1.677005e-08	-4.132972e+01	-1.101434e+03
4.100000e-07	-5.926161e-06	-1.666721e-08	-4.057961e+01	-1.095385e+03
4.200000e-07	-5.814528e-06	-1.655811e-08	-3.981519e+01	-1.088749e+03
4.300000e-07	-5.700663e-06	-1.645324e-08	-3.903550e+01	-1.081418e+03
4.400000e-07	-5.584524e-06	-1.635623e-08	-3.824023e+01	-1.073488e+03
4.500000e-07	-5.466222e-06	-1.625428e-08	-3.743016e+01	-1.065218e+03
4.600000e-07	-5.345885e-06	-1.613041e-08	-3.660614e+01	-1.056915e+03
4.700000e-07	-5.223620e-06	-1.599053e-08	-3.576893e+01	-1.048788e+03
4.800000e-07	-5.099456e-06	-1.585632e-08	-3.491871e+01	-1.040853e+03
4.900000e-07	-4.973469e-06	-1.573006e-08	-3.405601e+01	-1.032917e+03
5.000000e-07	-4.845734e-06	-1.559778e-08	-3.318134e+01	-1.024658e+03
5.100000e-07	-4.716217e-06	-1.545768e-08	-3.229447e+01	-1.015761e+03
5.200000e-07	-4.585012e-06	-1.531898e-08	-3.139604e+01	-1.006059e+03
5.300000e-07	-4.452143e-06	-1.518063e-08	-3.048622e+01	-9.956088e+02
5.400000e-07	-4.317678e-06	-1.502793e-08	-2.956546e+01	-9.846616e+02
5.500000e-07	-4.181632e-06	-1.485677e-08	-2.863388e+01	-9.735504e+02
5.600000e-07	-4.044045e-06	-1.467885e-08	-2.769175e+01	-9.625322e+02
5.700000e-07	-3.905044e-06	-1.450771e-08	-2.673993e+01	-9.516605e+02
5.800000e-07	-3.764373e-06	-1.433354e-08	-2.577668e+01	-9.407466e+02
5.900000e-07	-3.622086e-06	-1.414427e-08	-2.480237e+01	-9.294303e+02
6.000000e-07	-3.478484e-06	-1.394755e-08	-2.381905e+01	-9.173333e+02
6.100000e-07	-3.333633e-06	-1.375701e-08	-2.282717e+01	-9.042274e+02
6.200000e-07	-3.187528e-06	-1.356776e-08	-2.182671e+01	-8.901405e+02
6.300000e-07	-3.040238e-06	-1.336042e-08	-2.081814e+01	-8.753493e+02
6.400000e-07	-2.891942e-06	-1.313278e-08	-1.980268e+01	-8.602541e+02
6.500000e-07	-2.742662e-06	-1.289956e-08	-1.878048e+01	-8.451879e+02
6.600000e-07	-2.592472e-06	-1.266536e-08	-1.775205e+01	-8.302431e+02
6.700000e-07	-2.441460e-06	-1.241962e-08	-1.671799e+01	-8.151979e+02
6.800000e-07	-2.289523e-06	-1.215903e-08	-1.567760e+01	-7.995822e+02
6.900000e-07	-2.136716e-06	-1.189265e-08	-1.463124e+01	-7.828641e+02
7.000000e-07	-1.983173e-06	-1.162572e-08	-1.357985e+01	-7.646768e+02
7.100000e-07	-1.828951e-06	-1.134870e-08	-1.252381e+01	-7.449862e+02
7.200000e-07	-1.674106e-06	-1.105210e-08	-1.146350e+01	-7.241133e+02
7.300000e-07	-1.518693e-06	-1.073676e-08	-1.039930e+01	-7.025883e+02
7.400000e-07	-1.362690e-06	-1.040879e-08	-9.331067e+00	-6.808876e+02
7.500000e-07	-1.206060e-06	-1.006671e-08	-8.258537e+00	-6.591627e+02
7.600000e-07	-1.048867e-06	-9.703704e-09	-7.182152e+00	-6.370880e+02
7.700000e-07	-8.912330e-07	-9.320358e-09	-6.102751e+00	-6.139093e+02
7.800000e-07	-7.332844e-07	-8.920172e-09	-5.021192e+00	-5.886962e+02
7.900000e-07	-5.751081e-07	-8.502567e-09	-3.938074e+00	-5.607046e+02
8.000000e-07	-4.167608e-07	-8.058144e-09	-2.853785e+00	-5.296946e+02
8.100000e-07	-2.582720e-07	-7.576391e-09	-1.768527e+00	-4.960455e+02
8.200000e-07	-9.970567e-08	-7.059255e-09	-6.827382e-01	-4.605746e+02
8.300000e-07	5.883290e-08	-6.512706e-09	4.028604e-01	-4.240844e+02
8.400000e-07	2.173188e-07	-5.926619e-09	1.488098e+00	-3.867827e+02
8.500000e-07	3.757699e-07	-5.282874e-09	2.573098e+00	-3.478014e+02
8.600000e-07	5.341200e-07	-4.571328e-09	3.657406e+00	-3.050358e+02
8.700000e-07	6.922678e-07	-3.784664e-09	4.740329e+00	-2.554402e+02
8.800000e-07	8.501662e-07	-2.901593e-09	5.821544e+00	-1.957604e+02
8.900000e-07	1.007781e-06	-1.877377e-09	6.900818e+00	-1.235230e+02
9.000000e-07	1.165021e-06	-6.536072e-10	7.977526e+00	-3.798498e+01
9.100000e-07	1.321762e-06	8.111329e-10	9.050817e+00	5.927091e+01
9.200000e-07	1.477936e-06	2.488318e-09	1.012022e+01	1.643205e+02
9.300000e-07	1.633503e-06	4.242815e-09	1.118547e+01	2.715162e+02
9.400000e-07	1.788437e-06	5.879602e-09	1.224639e+01	3.745924e+02
9.500000e-07	1.942782e-06	7.263522e-09	1.330327e+01	4.679569e+02
9.600000e-07	2.096475e-06	8.378391e-09	1.435569e+01	5.478030e+02
9.700000e-07	2.249381e-06	9.277893e-09	1.540272e+01	6.127349e+02
9.800000e-07	2.401449e-06	1.002119e-08	1.644401e+01	6.637525e+02
9.900000e-07	2.552656e-06	1.064805e-08	1.747941e+01	7.036436e+02
1.000000e-06	2.702985e-06	1.118701e-08	1.850879e+01	7.360061e+02
1.010000e-06	2.852348e-06	1.165775e-08	1.953156e+01	7.642210e+02
1.020000e-06	3.000615e-06	1.207877e-08	2.054682e+01	7.906791e+02
1.030000e-06	3.147799e-06	1.246339e-08	2.155467e+01	8.164575e+02
1.040000e-06	3.293938e-06	1.281401e-08	2.255536e+01	8.414693e+02
1.050000e-06	3.438882e-06	1.313387e-08	2.354787e+01	8.649569e+02
1.060000e-06	3.582574e-06	1.342911e-08	2.453181e+01	8.860992e+02
1.070000e-06	3.724951e-06	1.370500e-08	2.550674e+01	9.044978e+02
1.080000e-06	3.865867e-06	1.396262e-08	2.647166e+01	9.203852e+02
1.090000e-06	4.005262e-06	1.420472e-08	2.742618e+01	9.345217e+02
1.100000e-06	4.143124e-06	1.443209e-08	2.837020e+01	9.478717e+02
1.110000e-06	4.279534e-06	1.464449e-08	2.930427e+01	9.612231e+02
1.120000e-06	4.414457e-06	1.484806e-08	3.022816e+01	9.749143e+02
1.130000e-06	4.547732e-06	1.504296e-08	3.114076e+01	9.887724e+02
1.140000e-06	4.679280e-06	1.522566e-08	3.204154e+01	1.002268e+03
1.150000e-06	4.809179e-06	1.539894e-08	3.293103e+01	1.014801e+03
1.160000e-06	4.937488e-06	1.556602e-08	3.380963e+01	1.025989e+03
1.170000e-06	5.064080e-06	1.572715e-08	3.467647e+01	1.035833e+03
1.180000e-06	5.188863e-06	1.588050e-08	3.553093e+01	1.044706e+03
1.190000e-06	5.311792e-06	1.602689e-08	3.637269e+01	1.053176e+03
1.200000e-06	5.432803e-06	1.616837e-08	3.720132e+01	1.061762e+03
1.210000e-06	5.551804e-06	1.630532e-08	3.801618e+01	1.070718e+03
1.220000e-06	5.668652e-06	1.643796e-08	3.881630e+01	1.079947e+03
1.230000e-06	5.783311e-06	1.656571e-08	3.960143e+01	1.089071e+03
1.240000e-06	5.895834e-06	1.668754e-08	4.037194e+01	1.097618e+03
1.250000e-06	6.006243e-06	1.680239e-08	4.112797e+01	1.105232e+03
1.260000e-06	6.114454e-06	1.690859e-08	4.186895e+01	1.111833e+03
1.270000e-06	6.220491e-06	1.700780e-08	4.259504e+01	1.117642e+03
1.280000e-06	6.324373e-06	1.710427e-08	4.330637e+01	1.123078e+03
1.290000e-06	6.425999e-06	1.719934e-08	4.400226e+01	1.128577e+03
1.300000e-06	6.525235e-06	1.728945e-08	4.468178e+01	1.134404e+03
1.310000e-06	6.622043e-06	1.737290e-08	4.534468e+01	1.140561e+03
1.320000e-06	6.716523e-06	1.745340e-08	4.599164e+01	1.146798e+03
1.330000e-06	6.808629e-06	1.753364e-08	4.662234e+01	1.152742e+03
1.340000e-06	6.898362e-06	1.761161e-08	4.723679e+01	1.158068e+03
1.350000e-06	6.985697e-06	1.768297e-08	4.783481e+01	1.162645e+03
1.360000e-06	7.070581e-06	1.774880e-08	4.841606e+01	1.166586e+03
1.370000e-06	7.152991e-06	1.781388e-08	4.898037e+01	1.170193e+03
1.380000e-06	7.232849e-06	1.787852e-08	4.952720e+01	1.173822e+03
1.390000e-06	7.310084e-06	1.794105e-08	5.005607e+01	1.177723e+03
1.400000e-06	7.384568e-06	1.800008e-08	5.056610e+01	1.181936e+03
1.410000e-06	7.456324e-06	1.805693e-08	5.105745e+01	1.186282e+03
1.420000e-06	7.525428e-06	1.811402e-08	5.153064e+01	1.190449e+03
1.430000e-06	7.591812e-06	1.816977e-08	5.198521e+01	1.194132e+03
1.440000e-06	7.655495e-06	1.821949e-08	5.242128e+01	1.197171e+03
1.450000e-06	7.716546e-06	1.826254e-08	5.283933e+01	1.199615e+03
1.460000e-06	7.774909e-06	1.830460e-08	5.323897e+01	1.201697e+03
1.470000e-06	7.830488e-06	1.834641e-08	5.361956e+01	1.203727e+03
1.480000e-06	7.883037e-06	1.838683e-08	5.397938e+01	1.205954e+03
1.490000e-06	7.932407e-06	1.842472e-08	5.431745e+01	1.208459e+03
1.500000e-06	7.978849e-06	1.846141e-08	5.463546e+01	1.211121e+03
1.510000e-06	8.022511e-06	1.849629e-08	5.493444e+01	1.213674e+03
1.520000e-06	8.063283e-06	1.852526e-08	5.521363e+01	1.215831e+03
1.530000e-06	8.101240e-06	1.854889e-08	5.547354e+01	1.217411e+03
1.540000e-06	8.136426e-06	1.856920e-08	5.571447e+01	1.218416e+03
1.550000e-06	8.168714e-06	1.859025e-08	5.593557e+01	1.219031e+03
1.560000e-06	8.198170e-06	1.861014e-08	5.613727e+01	1.219541e+03
1.570000e-06	8.224752e-06	1.862574e-08	5.631929e+01	1.220206e+03
1.580000e-06	8.248369e-06	1.863969e-08	5.648101e+01	1.221149e+03
1.590000e-06	8.269156e-06	1.865461e-08	5.662335e+01	1.222306e+03
1.600000e-06	8.287073e-06	1.866745e-08	5.674603e+01	1.223458e+03
1.610000e-06	8.301937e-06	1.867381e-08	5.684782e+01	1.224331e+03
1.620000e-06	8.313576e-06	1.867764e-08	5.692752e+01	1.224721e+03
1.630000e-06	8.322042e-06	1.868200e-08	5.698549e+01	1.224583e+03
1.640000e-06	8.327603e-06	1.868519e-08	5.702357e+01	1.224048e+03
1.650000e-06	8.330222e-06	1.868478e-08	5.704150e+01	1.223368e+03
1.660000e-06	8.329945e-06	1.867899e-08	5.703960e+01	1.222798e+03
1.670000e-06	8.326998e-06	1.867236e-08	5.701943e+01	1.222489e+03
1.680000e-06	8.321291e-06	1.866723e-08	5.698034e+01	1.222417e+03
1.690000e-06	8.312763e-06	1.865931e-08	5.692195e+01	1.222397e+03
1.700000e-06	8.301379e-06	1.864732e-08	5.684400e+01	1.222165e+03
1.710000e-06	8.287066e-06	1.863597e-08	5.674599e+01	1.221493e+03
1.720000e-06	8.270095e-06	1.862887e-08	5.662978e+01	1.220292e+03
1.730000e-06	8.250709e-06	1.861358e-08	5.649703e+01	1.218650e+03
1.740000e-06	8.228499e-06	1.855640e-08	5.634495e+01	1.216793e+03
1.750000e-06	8.202792e-06	1.849361e-08	5.616892e+01	1.214989e+03
1.760000e-06	8.173245e-06	1.847118e-08	5.596659e+01	1.213434e+03
1.770000e-06	8.140312e-06	1.847098e-08	5.574109e+01	1.212169e+03
1.780000e-06	8.104824e-06	1.848455e-08	5.549808e+01	1.211072e+03
1.790000e-06	8.066991e-06	1.848988e-08	5.523902e+01	1.209911e+03
1.800000e-06	8.027059e-06	1.844784e-08	5.496558e+01	1.208454e+03
1.810000e-06	7.985006e-06	1.840028e-08	5.467762e+01	1.206568e+03
1.820000e-06	7.940070e-06	1.837654e-08	5.436992e+01	1.204272e+03
1.830000e-06	7.892304e-06	1.834290e-08	5.404284e+01	1.201718e+03
1.840000e-06	7.841567e-06	1.833375e-08	5.369542e+01	1.199113e+03
1.850000e-06	7.787476e-06	1.831928e-08	5.332503e+01	1.196614e+03
1.860000e-06	7.730576e-06	1.828404e-08	5.293540e+01	1.194244e+03
1.870000e-06	7.670950e-06	1.825901e-08	5.252711e+01	1.191878e+03
1.880000e-06	7.608532e-06	1.817956e-08	5.209970e+01	1.189289e+03
1.890000e-06	7.543319e-06	1.810963e-08	5.165316e+01	1.186254e+03
1.900000e-06	7.475263e-06	1.804913e-08	5.118714e+01	1.182655e+03
1.910000e-06	7.404383e-06	1.799746e-08	5.070179e+01	1.178539e+03
1.920000e-06	7.330621e-06	1.796763e-08	5.019670e+01	1.174106e+03
1.930000e-06	7.254097e-06	1.790213e-08	4.967270e+01	1.169626e+03
1.940000e-06	7.174856e-06	1.785679e-08	4.913009e+01	1.165320e+03
1.950000e-06	7.093133e-06	1.776888e-08	4.857049e+01	1.161263e+03
1.960000e-06	7.008881e-06	1.768071e-08	4.799357e+01	1.157346e+03
1.970000e-06	6.921913e-06	1.760032e-08	4.739806e+01	1.153317e+03
1.980000e-06	6.832534e-06	1.752036e-08	4.678603e+01	1.148891e+03
1.990000e-06	6.740823e-06	1.747543e-08	4.615803e+01	1.143872e+03
2.000000e-06	6.646729e-06	1.740302e-08	4.551372e+01	1.138240e+03
2.010000e-06	6.550261e-06	1.732533e-08	4.485315e+01	1.132160e+03
2.020000e-06	6.451512e-06	1.721734e-08	4.417697e+01	1.125913e+03
2.030000e-06	6.350424e-06	1.711653e-08	4.348476e+01	1.119770e+03
2.040000e-06	6.246921e-06	1.702051e-08	4.277602e+01	1.113873e+03
2.050000e-06	6.141205e-06	1.692512e-08	4.205212e+01	1.108166e+03
2.060000e-06	6.033350e-06	1.683396e-08	4.131359e+01	1.102417e+03
2.070000e-06	5.923357e-06	1.673297e-08	4.056041e+01	1.096315e+03
2.080000e-06	5.811164e-06	1.663797e-08	3.979216e+01	1.089606e+03
2.090000e-06	5.696722e-06	1.652560e-08	3.900851e+01	1.082201e+03
2.100000e-06	5.580029e-06	1.640740e-08	3.820945e+01	1.074220e+03
2.110000e-06	5.461182e-06	1.628278e-08	3.739564e+01	1.065932e+03
2.120000e-06	5.340379e-06	1.616361e-08	3.656844e+01	1.057640e+03
2.130000e-06	5.217703e-06	1.603655e-08	3.572841e+01	1.049535e+03
2.140000e-06	5.093131e-06	1.590796e-08	3.487540e+01	1.041612e+03
2.150000e-06	4.966683e-06	1.577570e-08	3.400955e+01	1.033658e+03
2.160000e-06	4.838413e-06	1.564100e-08	3.313121e+01	1.025342e+03
2.170000e-06	4.708382e-06	1.550222e-08	3.224082e+01	1.016363e+03
2.180000e-06	4.576695e-06	1.535452e-08	3.133908e+01	1.006573e+03
2.190000e-06	4.443486e-06	1.520394e-08	3.042693e+01	9.960544e+02
2.200000e-06	4.308760e-06	1.504735e-08	2.950439e+01	9.850729e+02
2.210000e-06	4.172317e-06	1.488547e-08	2.857009e+01	9.739614e+02
2.220000e-06	4.034286e-06	1.471315e-08	2.762492e+01	9.629599e+02
2.230000e-06	3.894786e-06	1.454042e-08	2.666969e+01	9.520959e+02
2.240000e-06	3.753846e-06	1.436572e-08	2.570460e+01	9.411571e+02
2.250000e-06	3.611559e-06	1.418700e-08	2.473029e+01	9.297732e+02
2.260000e-06	3.467879e-06	1.399565e-08	2.374643e+01	9.175743e+02
2.270000e-06	3.322885e-06	1.379316e-08	2.275358e+01	9.043562e+02
2.280000e-06	3.176702e-06	1.358316e-08	2.175258e+01	8.901763e+02
2.290000e-06	3.029395e-06	1.336966e-08	2.074389e+01	8.753321e+02
2.300000e-06	2.881016e-06	1.315026e-08	1.972786e+01	8.602263e+02
2.310000e-06	2.731652e-06	1.292269e-08	1.870509e+01	8.451733e+02
2.320000e-06	2.581422e-06	1.268923e-08	1.767638e+01	8.302331e+02
2.330000e-06	2.430242e-06	1.244874e-08	1.664117e+01	8.151514e+02
2.340000e-06	2.278013e-06	1.219635e-08	1.559878e+01	7.994413e+02
2.350000e-06	2.124930e-06	1.192494e-08	1.455053e+01	7.825776e+02
2.360000e-06	1.971190e-06	1.164053e-08	1.349780e+01	7.642234e+02
2.370000e-06	1.816758e-06	1.135015e-08	1.244032e+01	7.443845e+02
2.380000e-06	1.661625e-06	1.105488e-08	1.137804e+01	7.234142e+02
2.390000e-06	1.505910e-06	1.074733e-08	1.031178e+01	7.018505e+02
2.400000e-06	1.349680e-06	1.042278e-08	9.241983e+00	6.801469e+02
2.410000e-06	1.192966e-06	1.008027e-08	8.168880e+00	6.584081e+02
2.420000e-06	1.035775e-06	9.718121e-09	7.092507e+00	6.362562e+02
2.430000e-06	8.782677e-07	9.332568e-09	6.013970e+00	6.129032e+02
2.440000e-06	7.205651e-07	8.922806e-09	4.934096e+00	5.874205e+02
2.450000e-06	5.626535e-07	8.495307e-09	3.852791e+00	5.591052e+02
2.460000e-06	4.045853e-07	8.050592e-09	2.770412e+00	5.277832e+02
2.470000e-06	2.463688e-07	7.578124e-09	1.687020e+00	4.938948e+02
2.480000e-06	8.805653e-08	7.065629e-09	6.029703e-01	4.582812e+02
2.490000e-06	-7.025920e-08	6.510569e-09	-4.811025e-01	4.217090e+02
2.500000e-06	-2.285836e-07	5.911366e-09	-1.565235e+00	3.842901e+02
2.510000e-06	-3.868046e-07	5.260771e-09	-2.648659e+00	3.450240e+02
2.520000e-06	-5.448142e-07	4.546285e-09	-3.730635e+00	3.016827e+02
2.530000e-06	-7.026063e-07	3.754634e-09	-4.811123e+00	2.511564e+02
2.540000e-06	-8.601382e-07	2.866887e-09	-5.889828e+00	1.902253e+02
2.550000e-06	-1.017447e-06	1.839077e-09	-6.967004e+00	1.165598e+02
2.560000e-06	-1.174465e-06	6.093675e-10	-8.042190e+00	2.964631e+01
2.570000e-06	-1.331067e-06	-8.674153e-10	-9.114528e+00	-6.867078e+01
2.580000e-06	-1.487116e-06	-2.560674e-09	-1.018308e+01	-1.742427e+02
2.590000e-06	-1.642585e-06	-4.326067e-09	-1.124766e+01	-2.812963e+02
2.600000e-06	-1.797530e-06	-5.965970e-09	-1.230865e+01	-3.835767e+02
2.610000e-06	-1.951824e-06	-7.348967e-09	-1.336519e+01	-4.756362e+02
2.620000e-06	-2.105352e-06	-8.459872e-09	-1.441648e+01	-5.539072e+02
2.630000e-06	-2.258120e-06	-9.352621e-09	-1.546256e+01	-6.172628e+02
2.640000e-06	-2.410043e-06	-1.009183e-08	-1.650286e+01	-6.669324e+02
2.650000e-06	-2.560990e-06	-1.072425e-08	-1.753647e+01	-7.058412e+02
2.660000e-06	-2.711000e-06	-1.127395e-08	-1.856367e+01	-7.376108e+02
2.670000e-06	-2.860029e-06	-1.175495e-08	-1.958415e+01	-7.655461e+02
2.680000e-06	-3.008049e-06	-1.218275e-08	-2.059772e+01	-7.919040e+02
2.690000e-06	-3.155064e-06	-1.256909e-08	-2.160442e+01	-8.176220e+02
2.700000e-06	-3.300964e-06	-1.291819e-08	-2.260347e+01	-8.425136e+02
2.710000e-06	-3.445670e-06	-1.323491e-08	-2.359435e+01	-8.657858e+02
2.720000e-06	-3.589071e-06	-1.352706e-08	-2.457629e+01	-8.866434e+02
2.730000e-06	-3.731091e-06	-1.379941e-08	-2.554878e+01	-9.047514e+02
2.740000e-06	-3.871734e-06	-1.405579e-08	-2.651184e+01	-9.204088e+02
2.750000e-06	-4.010976e-06	-1.429879e-08	-2.746530e+01	-9.344157e+02
2.760000e-06	-4.148752e-06	-1.452983e-08	-2.840873e+01	-9.477352e+02
2.770000e-06	-4.284973e-06	-1.475009e-08	-2.934151e+01	-9.611170e+02
2.780000e-06	-4.419546e-06	-1.495617e-08	-3.026301e+01	-9.748433e+02
2.790000e-06	-4.552505e-06	-1.514611e-08	-3.117345e+01	-9.886925e+02
2.800000e-06	-4.683928e-06	-1.532463e-08	-3.207337e+01	-1.002113e+03
2.810000e-06	-4.813707e-06	-1.549682e-08	-3.296204e+01	-1.014515e+03
2.820000e-06	-4.941748e-06	-1.566247e-08	-3.383880e+01	-1.025552e+03
2.830000e-06	-5.068047e-06	-1.582225e-08	-3.470364e+01	-1.035270e+03
2.840000e-06	-5.192570e-06	-1.597662e-08	-3.555632e+01	-1.044072e+03
2.850000e-06	-5.315260e-06	-1.612446e-08	-3.639644e+01	-1.052534e+03
2.860000e-06	-5.436033e-06	-1.626340e-08	-3.722343e+01	-1.061154e+03
2.870000e-06	-5.554729e-06	-1.639268e-08	-3.803621e+01	-1.070150e+03
2.880000e-06	-5.671257e-06	-1.651595e-08	-3.883414e+01	-1.079390e+03
2.890000e-06	-5.785573e-06	-1.663393e-08	-3.961692e+01	-1.088476e+03
2.900000e-06	-5.897526e-06	-1.674718e-08	-4.038353e+01	-1.096936e+03
2.910000e-06	-6.007238e-06	-1.685645e-08	-4.113478e+01	-1.104441e+03
2.920000e-06	-6.114876e-06	-1.696122e-08	-4.187184e+01	-1.110942e+03
2.930000e-06	-6.220436e-06	-1.706339e-08	-4.259467e+01	-1.116690e+03
2.940000e-06	-6.323786e-06	-1.716146e-08	-4.330236e+01	-1.122115e+03
