# Temperatura_=_72.43
# Concentracion g/m^3_=_13400.0
# C_Vs_to_Am_M_A/Vsm_=_65563218390.804596
# pendiente_HvsI_1/m_=_3716.3
# ordenada_HvsI_A/m_=_1297.0
# frecuencia_Hz_=_301435.4979218482

Tiempo_(s)	Campo_(V.s)	Magnetizacion_(V.s)	Campo_(kA/m)	Magnetizacion_(A/m)
0.000000e+00	-8.361298e-06	-1.904155e-08	-5.691147e+01	-1.249414e+03
1.000000e-08	-8.357867e-06	-1.903528e-08	-5.688812e+01	-1.249127e+03
2.000000e-08	-8.351680e-06	-1.902553e-08	-5.684601e+01	-1.249030e+03
3.000000e-08	-8.342782e-06	-1.901857e-08	-5.678544e+01	-1.248918e+03
4.000000e-08	-8.331000e-06	-1.900696e-08	-5.670525e+01	-1.248538e+03
5.000000e-08	-8.316185e-06	-1.899007e-08	-5.660441e+01	-1.247699e+03
6.000000e-08	-8.298441e-06	-1.896738e-08	-5.648363e+01	-1.246359e+03
7.000000e-08	-8.278143e-06	-1.893373e-08	-5.634547e+01	-1.244639e+03
8.000000e-08	-8.255276e-06	-1.896994e-08	-5.618983e+01	-1.242767e+03
9.000000e-08	-8.229255e-06	-1.900629e-08	-5.601272e+01	-1.240981e+03
1.000000e-07	-8.199849e-06	-1.895241e-08	-5.581256e+01	-1.239426e+03
1.100000e-07	-8.167288e-06	-1.890579e-08	-5.559093e+01	-1.238099e+03
1.200000e-07	-8.131796e-06	-1.887414e-08	-5.534935e+01	-1.236857e+03
1.300000e-07	-8.093684e-06	-1.881377e-08	-5.508994e+01	-1.235491e+03
1.400000e-07	-8.053240e-06	-1.869923e-08	-5.481466e+01	-1.233823e+03
1.500000e-07	-8.010274e-06	-1.871840e-08	-5.452221e+01	-1.231781e+03
1.600000e-07	-7.964517e-06	-1.875557e-08	-5.421076e+01	-1.229423e+03
1.700000e-07	-7.915983e-06	-1.864653e-08	-5.388041e+01	-1.226899e+03
1.800000e-07	-7.864439e-06	-1.870589e-08	-5.352958e+01	-1.224365e+03
1.900000e-07	-7.809763e-06	-1.864795e-08	-5.315743e+01	-1.221894e+03
2.000000e-07	-7.752227e-06	-1.853089e-08	-5.276580e+01	-1.219431e+03
2.100000e-07	-7.691920e-06	-1.848026e-08	-5.235533e+01	-1.216806e+03
2.200000e-07	-7.628922e-06	-1.839630e-08	-5.192653e+01	-1.213810e+03
2.300000e-07	-7.563223e-06	-1.841538e-08	-5.147934e+01	-1.210293e+03
2.400000e-07	-7.494658e-06	-1.833823e-08	-5.101265e+01	-1.206238e+03
2.500000e-07	-7.423265e-06	-1.830832e-08	-5.052671e+01	-1.201784e+03
2.600000e-07	-7.349000e-06	-1.825665e-08	-5.002122e+01	-1.197173e+03
2.700000e-07	-7.271888e-06	-1.817865e-08	-4.949636e+01	-1.192646e+03
2.800000e-07	-7.191985e-06	-1.809810e-08	-4.895250e+01	-1.188339e+03
2.900000e-07	-7.109350e-06	-1.798872e-08	-4.839004e+01	-1.184213e+03
3.000000e-07	-7.024273e-06	-1.795889e-08	-4.781096e+01	-1.180069e+03
3.100000e-07	-6.936866e-06	-1.788237e-08	-4.721602e+01	-1.175626e+03
3.200000e-07	-6.847030e-06	-1.782982e-08	-4.660455e+01	-1.170640e+03
3.300000e-07	-6.754730e-06	-1.774256e-08	-4.597631e+01	-1.165016e+03
3.400000e-07	-6.660071e-06	-1.763824e-08	-4.533201e+01	-1.158851e+03
3.500000e-07	-6.563041e-06	-1.755857e-08	-4.467157e+01	-1.152393e+03
3.600000e-07	-6.463533e-06	-1.746578e-08	-4.399426e+01	-1.145936e+03
3.700000e-07	-6.361642e-06	-1.737548e-08	-4.330074e+01	-1.139690e+03
3.800000e-07	-6.257431e-06	-1.726622e-08	-4.259142e+01	-1.133682e+03
3.900000e-07	-6.150929e-06	-1.718670e-08	-4.186651e+01	-1.127738e+03
4.000000e-07	-6.042260e-06	-1.708514e-08	-4.112685e+01	-1.121555e+03
4.100000e-07	-5.931500e-06	-1.697203e-08	-4.037296e+01	-1.114828e+03
4.200000e-07	-5.818580e-06	-1.685073e-08	-3.960437e+01	-1.107386e+03
4.300000e-07	-5.703290e-06	-1.674296e-08	-3.881965e+01	-1.099267e+03
4.400000e-07	-5.585716e-06	-1.663900e-08	-3.801937e+01	-1.090703e+03
4.500000e-07	-5.466113e-06	-1.652232e-08	-3.720529e+01	-1.082019e+03
4.600000e-07	-5.344550e-06	-1.639462e-08	-3.637786e+01	-1.073485e+03
4.700000e-07	-5.221049e-06	-1.625139e-08	-3.553725e+01	-1.065191e+03
4.800000e-07	-5.095705e-06	-1.611282e-08	-3.468410e+01	-1.056993e+03
4.900000e-07	-4.968625e-06	-1.597291e-08	-3.381912e+01	-1.048574e+03
5.000000e-07	-4.839751e-06	-1.583002e-08	-3.294194e+01	-1.039570e+03
5.100000e-07	-4.709066e-06	-1.567914e-08	-3.205243e+01	-1.029735e+03
5.200000e-07	-4.576607e-06	-1.553485e-08	-3.115084e+01	-1.019049e+03
5.300000e-07	-4.442502e-06	-1.538606e-08	-3.023805e+01	-1.007733e+03
5.400000e-07	-4.306838e-06	-1.522294e-08	-2.931464e+01	-9.961521e+02
5.500000e-07	-4.169566e-06	-1.503611e-08	-2.838030e+01	-9.846491e+02
5.600000e-07	-4.030759e-06	-1.484892e-08	-2.743550e+01	-9.733841e+02
5.700000e-07	-3.890374e-06	-1.466960e-08	-2.647997e+01	-9.622466e+02
5.800000e-07	-3.748384e-06	-1.448826e-08	-2.551350e+01	-9.508875e+02
5.900000e-07	-3.604883e-06	-1.429339e-08	-2.453676e+01	-9.388611e+02
6.000000e-07	-3.460049e-06	-1.409118e-08	-2.355094e+01	-9.258172e+02
6.100000e-07	-3.313987e-06	-1.389606e-08	-2.255677e+01	-9.116593e+02
6.200000e-07	-3.166729e-06	-1.369331e-08	-2.155445e+01	-8.965939e+02
6.300000e-07	-3.018394e-06	-1.346962e-08	-2.054481e+01	-8.810440e+02
6.400000e-07	-2.869070e-06	-1.322228e-08	-1.952842e+01	-8.654566e+02
6.500000e-07	-2.718756e-06	-1.297705e-08	-1.850531e+01	-8.500873e+02
6.600000e-07	-2.567465e-06	-1.273307e-08	-1.747554e+01	-8.348572e+02
6.700000e-07	-2.415232e-06	-1.247949e-08	-1.643936e+01	-8.193531e+02
6.800000e-07	-2.262060e-06	-1.220980e-08	-1.539679e+01	-8.029806e+02
6.900000e-07	-2.108095e-06	-1.193223e-08	-1.434882e+01	-7.852106e+02
7.000000e-07	-1.953431e-06	-1.165362e-08	-1.329610e+01	-7.658120e+02
7.100000e-07	-1.798028e-06	-1.136511e-08	-1.223834e+01	-7.449643e+02
7.200000e-07	-1.641933e-06	-1.105736e-08	-1.117587e+01	-7.231853e+02
7.300000e-07	-1.485266e-06	-1.072527e-08	-1.010952e+01	-7.010914e+02
7.400000e-07	-1.328103e-06	-1.038176e-08	-9.039780e+00	-6.790842e+02
7.500000e-07	-1.170466e-06	-1.002528e-08	-7.966818e+00	-6.570992e+02
7.600000e-07	-1.012404e-06	-9.649648e-09	-6.890961e+00	-6.345390e+02
7.700000e-07	-8.538604e-07	-9.252352e-09	-5.811830e+00	-6.104416e+02
7.800000e-07	-6.949872e-07	-8.838872e-09	-4.730455e+00	-5.838340e+02
7.900000e-07	-5.359454e-07	-8.406605e-09	-3.647931e+00	-5.541301e+02
8.000000e-07	-3.766859e-07	-7.943323e-09	-2.563926e+00	-5.213922e+02
8.100000e-07	-2.172822e-07	-7.441683e-09	-1.478939e+00	-4.863117e+02
8.200000e-07	-5.784801e-08	-6.902167e-09	-3.937445e-01	-4.498654e+02
8.300000e-07	1.015779e-07	-6.330136e-09	6.913938e-01	-4.127371e+02
8.400000e-07	2.610096e-07	-5.714038e-09	1.776571e+00	-3.747106e+02
8.500000e-07	4.204048e-07	-5.037743e-09	2.861500e+00	-3.342863e+02
8.600000e-07	5.796676e-07	-4.286664e-09	3.945528e+00	-2.887251e+02
8.700000e-07	7.386852e-07	-3.448082e-09	5.027887e+00	-2.345895e+02
8.800000e-07	8.973719e-07	-2.494175e-09	6.107993e+00	-1.686789e+02
8.900000e-07	1.055699e-06	-1.372559e-09	7.185650e+00	-8.909788e+01
9.000000e-07	1.213601e-06	-1.829154e-11	8.260417e+00	3.879613e+00
9.100000e-07	1.371052e-06	1.592469e-09	9.332115e+00	1.074500e+02
9.200000e-07	1.528060e-06	3.373867e-09	1.040079e+01	2.165835e+02
9.300000e-07	1.684551e-06	5.136692e-09	1.146595e+01	3.249444e+02
9.400000e-07	1.840471e-06	6.690984e-09	1.252723e+01	4.261878e+02
9.500000e-07	1.995699e-06	7.963102e-09	1.358379e+01	5.152668e+02
9.600000e-07	2.150140e-06	8.979853e-09	1.463500e+01	5.893831e+02
9.700000e-07	2.303808e-06	9.803757e-09	1.568095e+01	6.483265e+02
9.800000e-07	2.456564e-06	1.048976e-08	1.672069e+01	6.941420e+02
9.900000e-07	2.608352e-06	1.107539e-08	1.775384e+01	7.302730e+02
1.000000e-06	2.759247e-06	1.158653e-08	1.878091e+01	7.604740e+02
1.010000e-06	2.909161e-06	1.203697e-08	1.980131e+01	7.878352e+02
1.020000e-06	3.058019e-06	1.244145e-08	2.081451e+01	8.141897e+02
1.030000e-06	3.205783e-06	1.281165e-08	2.182027e+01	8.400235e+02
1.040000e-06	3.352411e-06	1.315345e-08	2.281831e+01	8.648296e+02
1.050000e-06	3.497803e-06	1.346825e-08	2.380792e+01	8.877100e+02
1.060000e-06	3.641959e-06	1.375969e-08	2.478912e+01	9.079715e+02
1.070000e-06	3.784855e-06	1.402891e-08	2.576175e+01	9.255021e+02
1.080000e-06	3.926297e-06	1.428117e-08	2.672448e+01	9.408256e+02
1.090000e-06	4.066270e-06	1.452279e-08	2.767721e+01	9.548668e+02
1.100000e-06	4.204710e-06	1.475106e-08	2.861951e+01	9.685652e+02
1.110000e-06	4.341531e-06	1.496637e-08	2.955079e+01	9.825196e+02
1.120000e-06	4.476807e-06	1.517154e-08	3.047154e+01	9.968069e+02
1.130000e-06	4.610473e-06	1.536763e-08	3.138135e+01	1.011035e+03
1.140000e-06	4.742447e-06	1.555360e-08	3.227963e+01	1.024585e+03
1.150000e-06	4.872702e-06	1.573106e-08	3.316622e+01	1.036921e+03
1.160000e-06	5.001211e-06	1.590021e-08	3.404092e+01	1.047841e+03
1.170000e-06	5.128021e-06	1.606135e-08	3.490406e+01	1.057554e+03
1.180000e-06	5.253032e-06	1.621672e-08	3.575495e+01	1.066576e+03
1.190000e-06	5.376139e-06	1.636892e-08	3.659288e+01	1.075498e+03
1.200000e-06	5.497333e-06	1.651699e-08	3.741779e+01	1.084734e+03
1.210000e-06	5.616485e-06	1.665813e-08	3.822880e+01	1.094361e+03
1.220000e-06	5.733430e-06	1.679526e-08	3.902479e+01	1.104110e+03
1.230000e-06	5.848153e-06	1.692589e-08	3.980566e+01	1.113511e+03
1.240000e-06	5.960707e-06	1.704827e-08	4.057176e+01	1.122106e+03
1.250000e-06	6.071199e-06	1.716526e-08	4.132383e+01	1.129658e+03
1.260000e-06	6.179607e-06	1.727823e-08	4.206171e+01	1.136247e+03
1.270000e-06	6.285776e-06	1.738607e-08	4.278436e+01	1.142223e+03
1.280000e-06	6.389692e-06	1.748898e-08	4.349166e+01	1.148051e+03
1.290000e-06	6.491346e-06	1.758866e-08	4.418357e+01	1.154109e+03
1.300000e-06	6.590609e-06	1.768396e-08	4.485921e+01	1.160538e+03
1.310000e-06	6.687381e-06	1.777359e-08	4.551790e+01	1.167193e+03
1.320000e-06	6.781814e-06	1.785905e-08	4.616066e+01	1.173726e+03
1.330000e-06	6.873924e-06	1.794362e-08	4.678761e+01	1.179754e+03
1.340000e-06	6.963531e-06	1.802445e-08	4.739752e+01	1.185027e+03
1.350000e-06	7.050707e-06	1.809960e-08	4.799089e+01	1.189538e+03
1.360000e-06	7.135491e-06	1.817093e-08	4.856797e+01	1.193520e+03
1.370000e-06	7.217717e-06	1.824015e-08	4.912764e+01	1.197337e+03
1.380000e-06	7.297346e-06	1.830691e-08	4.966964e+01	1.201323e+03
1.390000e-06	7.374321e-06	1.837035e-08	5.019357e+01	1.205638e+03
1.400000e-06	7.448495e-06	1.843172e-08	5.069844e+01	1.210207e+03
1.410000e-06	7.519976e-06	1.849220e-08	5.118498e+01	1.214757e+03
1.420000e-06	7.588779e-06	1.855070e-08	5.165329e+01	1.218948e+03
1.430000e-06	7.654808e-06	1.860463e-08	5.210272e+01	1.222522e+03
1.440000e-06	7.718199e-06	1.865388e-08	5.253419e+01	1.225419e+03
1.450000e-06	7.778930e-06	1.870114e-08	5.294756e+01	1.227794e+03
1.460000e-06	7.836871e-06	1.874700e-08	5.334193e+01	1.229947e+03
1.470000e-06	7.892015e-06	1.879000e-08	5.371728e+01	1.232191e+03
1.480000e-06	7.944076e-06	1.883110e-08	5.407163e+01	1.234710e+03
1.490000e-06	7.992950e-06	1.887194e-08	5.440429e+01	1.237484e+03
1.500000e-06	8.038967e-06	1.891126e-08	5.471751e+01	1.240304e+03
1.510000e-06	8.082108e-06	1.894491e-08	5.501115e+01	1.242863e+03
1.520000e-06	8.122299e-06	1.897124e-08	5.528471e+01	1.244897e+03
1.530000e-06	8.159723e-06	1.899463e-08	5.553944e+01	1.246299e+03
1.540000e-06	8.194330e-06	1.901801e-08	5.577500e+01	1.247166e+03
1.550000e-06	8.226070e-06	1.904149e-08	5.599103e+01	1.247752e+03
1.560000e-06	8.254988e-06	1.906396e-08	5.618786e+01	1.248359e+03
1.570000e-06	8.280892e-06	1.908252e-08	5.636418e+01	1.249205e+03
1.580000e-06	8.303803e-06	1.909809e-08	5.652013e+01	1.250334e+03
1.590000e-06	8.323896e-06	1.910964e-08	5.665689e+01	1.251603e+03
1.600000e-06	8.341037e-06	1.911741e-08	5.677356e+01	1.252745e+03
1.610000e-06	8.355103e-06	1.912304e-08	5.686930e+01	1.253497e+03
1.620000e-06	8.365990e-06	1.912863e-08	5.694341e+01	1.253706e+03
1.630000e-06	8.373749e-06	1.913344e-08	5.699621e+01	1.253402e+03
1.640000e-06	8.378560e-06	1.913730e-08	5.702896e+01	1.252776e+03
1.650000e-06	8.380402e-06	1.914144e-08	5.704150e+01	1.252095e+03
1.660000e-06	8.379418e-06	1.913458e-08	5.703480e+01	1.251584e+03
1.670000e-06	8.375730e-06	1.912537e-08	5.700970e+01	1.251331e+03
1.680000e-06	8.369199e-06	1.911527e-08	5.696524e+01	1.251246e+03
1.690000e-06	8.359870e-06	1.909936e-08	5.690175e+01	1.251110e+03
1.700000e-06	8.347606e-06	1.908293e-08	5.681827e+01	1.250672e+03
1.710000e-06	8.332407e-06	1.907631e-08	5.671482e+01	1.249760e+03
1.720000e-06	8.314721e-06	1.908519e-08	5.659444e+01	1.248354e+03
1.730000e-06	8.294521e-06	1.904467e-08	5.645695e+01	1.246596e+03
1.740000e-06	8.271285e-06	1.893553e-08	5.629879e+01	1.244722e+03
1.750000e-06	8.244349e-06	1.892638e-08	5.611545e+01	1.242962e+03
1.760000e-06	8.213563e-06	1.892216e-08	5.590590e+01	1.241443e+03
1.770000e-06	8.179733e-06	1.888814e-08	5.567564e+01	1.240138e+03
1.780000e-06	8.143462e-06	1.890593e-08	5.542876e+01	1.238890e+03
1.790000e-06	8.104882e-06	1.897922e-08	5.516616e+01	1.237490e+03
1.800000e-06	8.064274e-06	1.884384e-08	5.488976e+01	1.235769e+03
1.810000e-06	8.021299e-06	1.884023e-08	5.459725e+01	1.233674e+03
1.820000e-06	7.975313e-06	1.885840e-08	5.428425e+01	1.231281e+03
1.830000e-06	7.926468e-06	1.870091e-08	5.395178e+01	1.228747e+03
1.840000e-06	7.874429e-06	1.880092e-08	5.359758e+01	1.226219e+03
1.850000e-06	7.819216e-06	1.869987e-08	5.322177e+01	1.223755e+03
1.860000e-06	7.761298e-06	1.872094e-08	5.282755e+01	1.221280e+03
1.870000e-06	7.700446e-06	1.869169e-08	5.241335e+01	1.218614e+03
1.880000e-06	7.636920e-06	1.852659e-08	5.198096e+01	1.215549e+03
1.890000e-06	7.570649e-06	1.855191e-08	5.152989e+01	1.211951e+03
1.900000e-06	7.501506e-06	1.839206e-08	5.105927e+01	1.207827e+03
1.910000e-06	7.429456e-06	1.837489e-08	5.056885e+01	1.203334e+03
1.920000e-06	7.354381e-06	1.831845e-08	5.005785e+01	1.198720e+03
1.930000e-06	7.276560e-06	1.827877e-08	4.952816e+01	1.194219e+03
1.940000e-06	7.196152e-06	1.826095e-08	4.898086e+01	1.189943e+03
1.950000e-06	7.113328e-06	1.811404e-08	4.841712e+01	1.185830e+03
1.960000e-06	7.027856e-06	1.808486e-08	4.783535e+01	1.181660e+03
1.970000e-06	6.939712e-06	1.791786e-08	4.723539e+01	1.177150e+03
1.980000e-06	6.849187e-06	1.787037e-08	4.661923e+01	1.172074e+03
1.990000e-06	6.756194e-06	1.779744e-08	4.598628e+01	1.166361e+03
2.000000e-06	6.660856e-06	1.772754e-08	4.533735e+01	1.160136e+03
2.010000e-06	6.563239e-06	1.765777e-08	4.467292e+01	1.153659e+03
2.020000e-06	6.463269e-06	1.753414e-08	4.399247e+01	1.147223e+03
2.030000e-06	6.360869e-06	1.745676e-08	4.329548e+01	1.141013e+03
2.040000e-06	6.256151e-06	1.731573e-08	4.258271e+01	1.135028e+03
2.050000e-06	6.149268e-06	1.724245e-08	4.185521e+01	1.129069e+03
2.060000e-06	6.040261e-06	1.711879e-08	4.111325e+01	1.122825e+03
2.070000e-06	5.929013e-06	1.703116e-08	4.035604e+01	1.116001e+03
2.080000e-06	5.815438e-06	1.690622e-08	3.958298e+01	1.108454e+03
2.090000e-06	5.699578e-06	1.679215e-08	3.879438e+01	1.100252e+03
2.100000e-06	5.581433e-06	1.666531e-08	3.799022e+01	1.091649e+03
2.110000e-06	5.461300e-06	1.652833e-08	3.717253e+01	1.082972e+03
2.120000e-06	5.339246e-06	1.640920e-08	3.634177e+01	1.074472e+03
2.130000e-06	5.215268e-06	1.627119e-08	3.549790e+01	1.066204e+03
2.140000e-06	5.089436e-06	1.614785e-08	3.464143e+01	1.057997e+03
2.150000e-06	4.961828e-06	1.599909e-08	3.377286e+01	1.049514e+03
2.160000e-06	4.832492e-06	1.585871e-08	3.289253e+01	1.040401e+03
2.170000e-06	4.701346e-06	1.569635e-08	3.199987e+01	1.030439e+03
2.180000e-06	4.568520e-06	1.553943e-08	3.109579e+01	1.019644e+03
2.190000e-06	4.434096e-06	1.537363e-08	3.018083e+01	1.008265e+03
2.200000e-06	4.297995e-06	1.521545e-08	2.925445e+01	9.966761e+02
2.210000e-06	4.160248e-06	1.504673e-08	2.831688e+01	9.852022e+02
2.220000e-06	4.020926e-06	1.487670e-08	2.736857e+01	9.739679e+02
2.230000e-06	3.880110e-06	1.469194e-08	2.641010e+01	9.628233e+02
2.240000e-06	3.737857e-06	1.450087e-08	2.544186e+01	9.513952e+02
2.250000e-06	3.594271e-06	1.430208e-08	2.446453e+01	9.392394e+02
2.260000e-06	3.449496e-06	1.409698e-08	2.347911e+01	9.260342e+02
2.270000e-06	3.303434e-06	1.388754e-08	2.248494e+01	9.117265e+02
2.280000e-06	3.156139e-06	1.366666e-08	2.148237e+01	8.965621e+02
2.290000e-06	3.007765e-06	1.344649e-08	2.047246e+01	8.809808e+02
2.300000e-06	2.858346e-06	1.321881e-08	1.945543e+01	8.654149e+02
2.310000e-06	2.707898e-06	1.299003e-08	1.843141e+01	8.500780e+02
2.320000e-06	2.556462e-06	1.274789e-08	1.740065e+01	8.348396e+02
2.330000e-06	2.404149e-06	1.249343e-08	1.636393e+01	8.192482e+02
2.340000e-06	2.250917e-06	1.222018e-08	1.532095e+01	8.027029e+02
2.350000e-06	2.096826e-06	1.193508e-08	1.427212e+01	7.847043e+02
2.360000e-06	1.942020e-06	1.164182e-08	1.321843e+01	7.650772e+02
2.370000e-06	1.786526e-06	1.134423e-08	1.216005e+01	7.440584e+02
2.380000e-06	1.630378e-06	1.103775e-08	1.109722e+01	7.221973e+02
2.390000e-06	1.473644e-06	1.071916e-08	1.003041e+01	7.000991e+02
2.400000e-06	1.316353e-06	1.038531e-08	8.959801e+00	6.781109e+02
2.410000e-06	1.158585e-06	1.003105e-08	7.885948e+00	6.560908e+02
2.420000e-06	1.000414e-06	9.652923e-09	6.809351e+00	6.333736e+02
2.430000e-06	8.418728e-07	9.249396e-09	5.730237e+00	6.089714e+02
2.440000e-06	6.830209e-07	8.825787e-09	4.649006e+00	5.819431e+02
2.450000e-06	5.239198e-07	8.383887e-09	3.566078e+00	5.517846e+02
2.460000e-06	3.646482e-07	7.922910e-09	2.481990e+00	5.186570e+02
2.470000e-06	2.052659e-07	7.432638e-09	1.397150e+00	4.833206e+02
2.480000e-06	4.586031e-08	6.900633e-09	3.121498e-01	4.467490e+02
2.490000e-06	-1.135104e-07	6.321200e-09	-7.726125e-01	4.095321e+02
2.500000e-06	-2.728471e-07	5.690892e-09	-1.857143e+00	3.712856e+02
2.510000e-06	-4.320993e-07	5.004990e-09	-2.941099e+00	3.303188e+02
2.520000e-06	-5.911503e-07	4.248640e-09	-4.023685e+00	2.837481e+02
2.530000e-06	-7.500066e-07	3.404037e-09	-5.104946e+00	2.281064e+02
2.540000e-06	-9.086390e-07	2.446959e-09	-6.184684e+00	1.603150e+02
2.550000e-06	-1.066879e-06	1.324074e-09	-7.261751e+00	7.874446e+01
2.560000e-06	-1.224635e-06	-3.166113e-11	-8.335520e+00	-1.597725e+01
2.570000e-06	-1.381866e-06	-1.651424e-09	-9.405718e+00	-1.206941e+02
2.580000e-06	-1.538586e-06	-3.452264e-09	-1.047244e+01	-2.301212e+02
2.590000e-06	-1.694831e-06	-5.231659e-09	-1.153593e+01	-3.378377e+02
2.600000e-06	-1.850509e-06	-6.790496e-09	-1.259555e+01	-4.376085e+02
2.610000e-06	-2.005453e-06	-8.054773e-09	-1.365019e+01	-5.246624e+02
2.620000e-06	-2.159590e-06	-9.062150e-09	-1.469932e+01	-5.965658e+02
2.630000e-06	-2.312939e-06	-9.880681e-09	-1.574310e+01	-6.534657e+02
2.640000e-06	-2.465423e-06	-1.056640e-08	-1.678099e+01	-6.976686e+02
2.650000e-06	-2.617022e-06	-1.115702e-08	-1.781285e+01	-7.327297e+02
2.660000e-06	-2.767735e-06	-1.167696e-08	-1.883869e+01	-7.623619e+02
2.670000e-06	-2.917417e-06	-1.214021e-08	-1.985750e+01	-7.895007e+02
2.680000e-06	-3.066029e-06	-1.255451e-08	-2.086904e+01	-8.157807e+02
2.690000e-06	-3.213597e-06	-1.292662e-08	-2.187346e+01	-8.415158e+02
2.700000e-06	-3.360015e-06	-1.326220e-08	-2.287006e+01	-8.661037e+02
2.710000e-06	-3.505248e-06	-1.356853e-08	-2.385859e+01	-8.886425e+02
2.720000e-06	-3.649203e-06	-1.385287e-08	-2.483843e+01	-9.085058e+02
2.730000e-06	-3.791776e-06	-1.412109e-08	-2.580886e+01	-9.256769e+02
2.740000e-06	-3.932954e-06	-1.437829e-08	-2.676979e+01	-9.407568e+02
2.750000e-06	-4.072588e-06	-1.462277e-08	-2.772021e+01	-9.546970e+02
2.760000e-06	-4.210607e-06	-1.485778e-08	-2.865964e+01	-9.684075e+02
2.770000e-06	-4.347084e-06	-1.508290e-08	-2.958858e+01	-9.824182e+02
2.780000e-06	-4.482014e-06	-1.529202e-08	-3.050698e+01	-9.967306e+02
2.790000e-06	-4.615330e-06	-1.548270e-08	-3.141441e+01	-1.010902e+03
2.800000e-06	-4.747059e-06	-1.566093e-08	-3.231102e+01	-1.024306e+03
2.810000e-06	-4.877130e-06	-1.583171e-08	-3.319636e+01	-1.036444e+03
2.820000e-06	-5.005453e-06	-1.599502e-08	-3.406979e+01	-1.047171e+03
2.830000e-06	-5.131997e-06	-1.615529e-08	-3.493112e+01	-1.056750e+03
2.840000e-06	-5.256737e-06	-1.631480e-08	-3.578017e+01	-1.065724e+03
2.850000e-06	-5.379638e-06	-1.647187e-08	-3.661670e+01	-1.074673e+03
2.860000e-06	-5.500633e-06	-1.662046e-08	-3.744025e+01	-1.083969e+03
2.870000e-06	-5.619630e-06	-1.675761e-08	-3.825021e+01	-1.093638e+03
2.880000e-06	-5.736463e-06	-1.688447e-08	-3.904543e+01	-1.103369e+03
2.890000e-06	-5.850941e-06	-1.700453e-08	-3.982463e+01	-1.112680e+03
2.900000e-06	-5.962977e-06	-1.712021e-08	-4.058722e+01	-1.121135e+03
2.910000e-06	-6.072721e-06	-1.722961e-08	-4.133419e+01	-1.128539e+03
2.920000e-06	-6.180329e-06	-1.733477e-08	-4.206662e+01	-1.135014e+03
2.930000e-06	-6.285875e-06	-1.743933e-08	-4.278503e+01	-1.140941e+03
2.940000e-06	-6.389227e-06	-1.754424e-08	-4.348850e+01	-1.146784e+03
