# Temperatura_=_67.8
# Concentracion g/m^3_=_13400.0
# C_Vs_to_Am_M_A/Vsm_=_65563218390.804596
# pendiente_HvsI_1/m_=_3716.3
# ordenada_HvsI_A/m_=_1297.0
# frecuencia_Hz_=_301441.79001278995

Tiempo_(s)	Campo_(V.s)	Magnetizacion_(V.s)	Campo_(kA/m)	Magnetizacion_(A/m)
0.000000e+00	-8.318322e-06	-1.881631e-08	-5.691463e+01	-1.234892e+03
1.000000e-08	-8.315604e-06	-1.881040e-08	-5.689603e+01	-1.234544e+03
2.000000e-08	-8.310117e-06	-1.880092e-08	-5.685849e+01	-1.234417e+03
3.000000e-08	-8.302050e-06	-1.879160e-08	-5.680329e+01	-1.234341e+03
4.000000e-08	-8.291151e-06	-1.877977e-08	-5.672872e+01	-1.234064e+03
5.000000e-08	-8.277262e-06	-1.876650e-08	-5.663369e+01	-1.233365e+03
6.000000e-08	-8.260351e-06	-1.875200e-08	-5.651799e+01	-1.232156e+03
7.000000e-08	-8.240750e-06	-1.873046e-08	-5.638387e+01	-1.230516e+03
8.000000e-08	-8.218713e-06	-1.872615e-08	-5.623309e+01	-1.228660e+03
9.000000e-08	-8.193695e-06	-1.874744e-08	-5.606192e+01	-1.226846e+03
1.000000e-07	-8.165268e-06	-1.873196e-08	-5.586742e+01	-1.225265e+03
1.100000e-07	-8.133674e-06	-1.869366e-08	-5.565125e+01	-1.223967e+03
1.200000e-07	-8.099141e-06	-1.864661e-08	-5.541497e+01	-1.222840e+03
1.300000e-07	-8.061852e-06	-1.858708e-08	-5.515984e+01	-1.221668e+03
1.400000e-07	-8.022218e-06	-1.852719e-08	-5.488866e+01	-1.220227e+03
1.500000e-07	-7.980192e-06	-1.851259e-08	-5.460112e+01	-1.218382e+03
1.600000e-07	-7.935429e-06	-1.851345e-08	-5.429484e+01	-1.216131e+03
1.700000e-07	-7.887872e-06	-1.844530e-08	-5.396945e+01	-1.213600e+03
1.800000e-07	-7.837381e-06	-1.846414e-08	-5.362399e+01	-1.210964e+03
1.900000e-07	-7.783782e-06	-1.843120e-08	-5.325726e+01	-1.208355e+03
2.000000e-07	-7.727285e-06	-1.832945e-08	-5.287071e+01	-1.205792e+03
2.100000e-07	-7.667978e-06	-1.826936e-08	-5.246492e+01	-1.203167e+03
2.200000e-07	-7.605914e-06	-1.819376e-08	-5.204028e+01	-1.200292e+03
2.300000e-07	-7.541206e-06	-1.817892e-08	-5.159754e+01	-1.196990e+03
2.400000e-07	-7.473696e-06	-1.813942e-08	-5.113563e+01	-1.193187e+03
2.500000e-07	-7.403416e-06	-1.809240e-08	-5.065476e+01	-1.188955e+03
2.600000e-07	-7.330329e-06	-1.804239e-08	-5.015470e+01	-1.184494e+03
2.700000e-07	-7.254370e-06	-1.798221e-08	-4.963498e+01	-1.180045e+03
2.800000e-07	-7.175649e-06	-1.791477e-08	-4.909637e+01	-1.175784e+03
2.900000e-07	-7.094121e-06	-1.780732e-08	-4.853855e+01	-1.171741e+03
3.000000e-07	-7.010034e-06	-1.774579e-08	-4.796322e+01	-1.167770e+03
3.100000e-07	-6.923658e-06	-1.769514e-08	-4.737223e+01	-1.163612e+03
3.200000e-07	-6.834942e-06	-1.763649e-08	-4.676522e+01	-1.158998e+03
3.300000e-07	-6.743739e-06	-1.756469e-08	-4.614121e+01	-1.153768e+03
3.400000e-07	-6.650123e-06	-1.747075e-08	-4.550068e+01	-1.147945e+03
3.500000e-07	-6.554191e-06	-1.739055e-08	-4.484430e+01	-1.141723e+03
3.600000e-07	-6.455788e-06	-1.730220e-08	-4.417102e+01	-1.135393e+03
3.700000e-07	-6.354998e-06	-1.720702e-08	-4.348141e+01	-1.129209e+03
3.800000e-07	-6.251964e-06	-1.710200e-08	-4.277644e+01	-1.123276e+03
3.900000e-07	-6.146711e-06	-1.701431e-08	-4.205629e+01	-1.117497e+03
4.000000e-07	-6.039247e-06	-1.692820e-08	-4.132101e+01	-1.111612e+03
4.100000e-07	-5.929589e-06	-1.682377e-08	-4.057072e+01	-1.105300e+03
4.200000e-07	-5.817774e-06	-1.671186e-08	-3.980568e+01	-1.098326e+03
4.300000e-07	-5.703706e-06	-1.659980e-08	-3.902522e+01	-1.090640e+03
4.400000e-07	-5.587301e-06	-1.649832e-08	-3.822876e+01	-1.082401e+03
4.500000e-07	-5.468782e-06	-1.639059e-08	-3.741785e+01	-1.073912e+03
4.600000e-07	-5.348345e-06	-1.626615e-08	-3.659381e+01	-1.065481e+03
4.700000e-07	-5.226019e-06	-1.612690e-08	-3.575684e+01	-1.057282e+03
4.800000e-07	-5.101769e-06	-1.599355e-08	-3.490671e+01	-1.049267e+03
4.900000e-07	-4.975657e-06	-1.586506e-08	-3.404384e+01	-1.041180e+03
5.000000e-07	-4.847836e-06	-1.572735e-08	-3.316928e+01	-1.032661e+03
5.100000e-07	-4.718310e-06	-1.558108e-08	-3.228306e+01	-1.023398e+03
5.200000e-07	-4.587004e-06	-1.543631e-08	-3.138465e+01	-1.013267e+03
5.300000e-07	-4.454031e-06	-1.529381e-08	-3.047484e+01	-1.002385e+03
5.400000e-07	-4.319504e-06	-1.513727e-08	-2.955440e+01	-9.910668e+02
5.500000e-07	-4.183386e-06	-1.496082e-08	-2.862307e+01	-9.796772e+02
5.600000e-07	-4.045744e-06	-1.477917e-08	-2.768131e+01	-9.684662e+02
5.700000e-07	-3.906561e-06	-1.460313e-08	-2.672900e+01	-9.574438e+02
5.800000e-07	-3.765752e-06	-1.442728e-08	-2.576558e+01	-9.463609e+02
5.900000e-07	-3.623421e-06	-1.423693e-08	-2.479174e+01	-9.348055e+02
6.000000e-07	-3.479725e-06	-1.403540e-08	-2.380856e+01	-9.223782e+02
6.100000e-07	-3.334722e-06	-1.383725e-08	-2.281644e+01	-9.088683e+02
6.200000e-07	-3.188430e-06	-1.364192e-08	-2.181550e+01	-8.943526e+02
6.300000e-07	-3.040974e-06	-1.343333e-08	-2.080659e+01	-8.791660e+02
6.400000e-07	-2.892553e-06	-1.320308e-08	-1.979108e+01	-8.637514e+02
6.500000e-07	-2.743195e-06	-1.296454e-08	-1.876916e+01	-8.484501e+02
6.600000e-07	-2.592874e-06	-1.272185e-08	-1.774066e+01	-8.333253e+02
6.700000e-07	-2.441704e-06	-1.246966e-08	-1.670634e+01	-8.181013e+02
6.800000e-07	-2.289729e-06	-1.220523e-08	-1.566651e+01	-8.022537e+02
6.900000e-07	-2.136907e-06	-1.193460e-08	-1.462089e+01	-7.852196e+02
7.000000e-07	-1.983241e-06	-1.166255e-08	-1.356949e+01	-7.666398e+02
7.100000e-07	-1.828798e-06	-1.138326e-08	-1.251278e+01	-7.465228e+02
7.200000e-07	-1.673691e-06	-1.108734e-08	-1.145153e+01	-7.252492e+02
7.300000e-07	-1.518049e-06	-1.076925e-08	-1.038662e+01	-7.033989e+02
7.400000e-07	-1.361874e-06	-1.043161e-08	-9.318053e+00	-6.814641e+02
7.500000e-07	-1.205069e-06	-1.007802e-08	-8.245182e+00	-6.595705e+02
7.600000e-07	-1.047702e-06	-9.710230e-09	-7.168464e+00	-6.373341e+02
7.700000e-07	-8.899065e-07	-9.325788e-09	-6.088812e+00	-6.139357e+02
7.800000e-07	-7.317985e-07	-8.923632e-09	-5.007024e+00	-5.884029e+02
7.900000e-07	-5.734751e-07	-8.501658e-09	-3.923763e+00	-5.599950e+02
8.000000e-07	-4.149678e-07	-8.054478e-09	-2.839243e+00	-5.285217e+02
8.100000e-07	-2.562893e-07	-7.571245e-09	-1.753552e+00	-4.944369e+02
8.200000e-07	-9.752824e-08	-7.049029e-09	-6.672960e-01	-4.586207e+02
8.300000e-07	6.119510e-08	-6.491983e-09	4.187018e-01	-4.218879e+02
8.400000e-07	2.198611e-07	-5.894546e-09	1.504307e+00	-3.843858e+02
8.500000e-07	3.784228e-07	-5.242624e-09	2.589199e+00	-3.451171e+02
8.600000e-07	5.368509e-07	-4.522240e-09	3.673177e+00	-3.018151e+02
8.700000e-07	6.951513e-07	-3.724962e-09	4.756281e+00	-2.512948e+02
8.800000e-07	8.532278e-07	-2.829278e-09	5.837853e+00	-1.902437e+02
8.900000e-07	1.011023e-06	-1.790327e-09	6.917498e+00	-1.162496e+02
9.000000e-07	1.168458e-06	-5.430144e-10	7.994684e+00	-2.875432e+01
9.100000e-07	1.325394e-06	9.579399e-10	9.068452e+00	7.038781e+01
9.200000e-07	1.481752e-06	2.674846e-09	1.013826e+01	1.769609e+02
9.300000e-07	1.637485e-06	4.454197e-09	1.120381e+01	2.850829e+02
9.400000e-07	1.792603e-06	6.088992e-09	1.226514e+01	3.883753e+02
9.500000e-07	1.947146e-06	7.453551e-09	1.332253e+01	4.812828e+02
9.600000e-07	2.100967e-06	8.545746e-09	1.437498e+01	5.601722e+02
9.700000e-07	2.253938e-06	9.426259e-09	1.542162e+01	6.239046e+02
9.800000e-07	2.406057e-06	1.015399e-08	1.646244e+01	6.737486e+02
9.900000e-07	2.557317e-06	1.077134e-08	1.749737e+01	7.127019e+02
1.000000e-06	2.707747e-06	1.130748e-08	1.852662e+01	7.444687e+02
1.010000e-06	2.857325e-06	1.177850e-08	1.955005e+01	7.724226e+02
1.020000e-06	3.005788e-06	1.219944e-08	2.056584e+01	7.988606e+02
1.030000e-06	3.153086e-06	1.258059e-08	2.157367e+01	8.247272e+02
1.040000e-06	3.299288e-06	1.293039e-08	2.257399e+01	8.498176e+02
1.050000e-06	3.444286e-06	1.325325e-08	2.356608e+01	8.733080e+02
1.060000e-06	3.588088e-06	1.355246e-08	2.454998e+01	8.943762e+02
1.070000e-06	3.730604e-06	1.382708e-08	2.552509e+01	9.126730e+02
1.080000e-06	3.871592e-06	1.407811e-08	2.648975e+01	9.284995e+02
1.090000e-06	4.011008e-06	1.431620e-08	2.744364e+01	9.426700e+02
1.100000e-06	4.148972e-06	1.454812e-08	2.838760e+01	9.561652e+02
1.110000e-06	4.285440e-06	1.477052e-08	2.932132e+01	9.697463e+02
1.120000e-06	4.420411e-06	1.497860e-08	3.024481e+01	9.836968e+02
1.130000e-06	4.553824e-06	1.517303e-08	3.115763e+01	9.977853e+02
1.140000e-06	4.685492e-06	1.535826e-08	3.205851e+01	1.011445e+03
1.150000e-06	4.815467e-06	1.553747e-08	3.294781e+01	1.024073e+03
1.160000e-06	4.943757e-06	1.570557e-08	3.382558e+01	1.035319e+03
1.170000e-06	5.070335e-06	1.586376e-08	3.469164e+01	1.045233e+03
1.180000e-06	5.195128e-06	1.601898e-08	3.554548e+01	1.054235e+03
1.190000e-06	5.318059e-06	1.617442e-08	3.638659e+01	1.062916e+03
1.200000e-06	5.439110e-06	1.632354e-08	3.721482e+01	1.071787e+03
1.210000e-06	5.558175e-06	1.646080e-08	3.802948e+01	1.081068e+03
1.220000e-06	5.675096e-06	1.659203e-08	3.882946e+01	1.090618e+03
1.230000e-06	5.789780e-06	1.672392e-08	3.961414e+01	1.100018e+03
1.240000e-06	5.902333e-06	1.685220e-08	4.038424e+01	1.108777e+03
1.250000e-06	6.012862e-06	1.696929e-08	4.114048e+01	1.116547e+03
1.260000e-06	6.121221e-06	1.707719e-08	4.188189e+01	1.123277e+03
1.270000e-06	6.227292e-06	1.718328e-08	4.260763e+01	1.129222e+03
1.280000e-06	6.331178e-06	1.728886e-08	4.331843e+01	1.134827e+03
1.290000e-06	6.432848e-06	1.738764e-08	4.401406e+01	1.140536e+03
1.300000e-06	6.532136e-06	1.747546e-08	4.469340e+01	1.146604e+03
1.310000e-06	6.628971e-06	1.755921e-08	4.535595e+01	1.153007e+03
1.320000e-06	6.723533e-06	1.764563e-08	4.600295e+01	1.159470e+03
1.330000e-06	6.815781e-06	1.773352e-08	4.663412e+01	1.165599e+03
1.340000e-06	6.905530e-06	1.781690e-08	4.724819e+01	1.171070e+03
1.350000e-06	6.992878e-06	1.789189e-08	4.784584e+01	1.175758e+03
1.360000e-06	7.077857e-06	1.796158e-08	4.842727e+01	1.179796e+03
1.370000e-06	7.160341e-06	1.802834e-08	4.899163e+01	1.183503e+03
1.380000e-06	7.240235e-06	1.809150e-08	4.953827e+01	1.187238e+03
1.390000e-06	7.317405e-06	1.815205e-08	5.006627e+01	1.191248e+03
1.400000e-06	7.391819e-06	1.821290e-08	5.057542e+01	1.195562e+03
1.410000e-06	7.463578e-06	1.827534e-08	5.106640e+01	1.199987e+03
1.420000e-06	7.532649e-06	1.833551e-08	5.153899e+01	1.204204e+03
1.430000e-06	7.598974e-06	1.838905e-08	5.199279e+01	1.207911e+03
1.440000e-06	7.662664e-06	1.843653e-08	5.242856e+01	1.210956e+03
1.450000e-06	7.723784e-06	1.848262e-08	5.284675e+01	1.213402e+03
1.460000e-06	7.782205e-06	1.852760e-08	5.324647e+01	1.215494e+03
1.470000e-06	7.837842e-06	1.856839e-08	5.362714e+01	1.217546e+03
1.480000e-06	7.890422e-06	1.860667e-08	5.398690e+01	1.219805e+03
1.490000e-06	7.939789e-06	1.864564e-08	5.432467e+01	1.222340e+03
1.500000e-06	7.986267e-06	1.868648e-08	5.464268e+01	1.225023e+03
1.510000e-06	8.029900e-06	1.872178e-08	5.494122e+01	1.227583e+03
1.520000e-06	8.070611e-06	1.874600e-08	5.521977e+01	1.229737e+03
1.530000e-06	8.108545e-06	1.876747e-08	5.547932e+01	1.231308e+03
1.540000e-06	8.143706e-06	1.879243e-08	5.571989e+01	1.232308e+03
1.550000e-06	8.175994e-06	1.881752e-08	5.594081e+01	1.232924e+03
1.560000e-06	8.205425e-06	1.883690e-08	5.614218e+01	1.233440e+03
1.570000e-06	8.231916e-06	1.885137e-08	5.632343e+01	1.234109e+03
1.580000e-06	8.255472e-06	1.886588e-08	5.648460e+01	1.235044e+03
1.590000e-06	8.276235e-06	1.888046e-08	5.662667e+01	1.236176e+03
1.600000e-06	8.294060e-06	1.889226e-08	5.674863e+01	1.237285e+03
1.610000e-06	8.308794e-06	1.889915e-08	5.684944e+01	1.238109e+03
1.620000e-06	8.320336e-06	1.890365e-08	5.692841e+01	1.238455e+03
1.630000e-06	8.328721e-06	1.890765e-08	5.698578e+01	1.238287e+03
1.640000e-06	8.334238e-06	1.891055e-08	5.702353e+01	1.237743e+03
1.650000e-06	8.336865e-06	1.891047e-08	5.704150e+01	1.237067e+03
1.660000e-06	8.336552e-06	1.890465e-08	5.703936e+01	1.236501e+03
1.670000e-06	8.333478e-06	1.889603e-08	5.701832e+01	1.236179e+03
1.680000e-06	8.327591e-06	1.889045e-08	5.697805e+01	1.236068e+03
1.690000e-06	8.318937e-06	1.888286e-08	5.691883e+01	1.235982e+03
1.700000e-06	8.307429e-06	1.886945e-08	5.684009e+01	1.235667e+03
1.710000e-06	8.293008e-06	1.885622e-08	5.674143e+01	1.234915e+03
1.720000e-06	8.276024e-06	1.884835e-08	5.662522e+01	1.233652e+03
1.730000e-06	8.256595e-06	1.883109e-08	5.649229e+01	1.231976e+03
1.740000e-06	8.234363e-06	1.875512e-08	5.634017e+01	1.230111e+03
1.750000e-06	8.208636e-06	1.871412e-08	5.616414e+01	1.228314e+03
1.760000e-06	8.179003e-06	1.870107e-08	5.596140e+01	1.226764e+03
1.770000e-06	8.146002e-06	1.868600e-08	5.573560e+01	1.225491e+03
1.780000e-06	8.110472e-06	1.869755e-08	5.549250e+01	1.224370e+03
1.790000e-06	8.072601e-06	1.872676e-08	5.523338e+01	1.223178e+03
1.800000e-06	8.032632e-06	1.865322e-08	5.495992e+01	1.221698e+03
1.810000e-06	7.990544e-06	1.862398e-08	5.467195e+01	1.219805e+03
1.820000e-06	7.945594e-06	1.863325e-08	5.436439e+01	1.217517e+03
1.830000e-06	7.897808e-06	1.853034e-08	5.403744e+01	1.214965e+03
1.840000e-06	7.846932e-06	1.855889e-08	5.368934e+01	1.212326e+03
1.850000e-06	7.792664e-06	1.850992e-08	5.331803e+01	1.209723e+03
1.860000e-06	7.735664e-06	1.848688e-08	5.292803e+01	1.207160e+03
1.870000e-06	7.675942e-06	1.849292e-08	5.251941e+01	1.204517e+03
1.880000e-06	7.613440e-06	1.836977e-08	5.209177e+01	1.201602e+03
1.890000e-06	7.548195e-06	1.833407e-08	5.164536e+01	1.198247e+03
1.900000e-06	7.480098e-06	1.822759e-08	5.117943e+01	1.194391e+03
1.910000e-06	7.409163e-06	1.816987e-08	5.069409e+01	1.190123e+03
1.920000e-06	7.335308e-06	1.812693e-08	5.018877e+01	1.185651e+03
1.930000e-06	7.258654e-06	1.806290e-08	4.966429e+01	1.181215e+03
1.940000e-06	7.179281e-06	1.806324e-08	4.912122e+01	1.176979e+03
1.950000e-06	7.097458e-06	1.795413e-08	4.856138e+01	1.172952e+03
1.960000e-06	7.013121e-06	1.789304e-08	4.798434e+01	1.168974e+03
1.970000e-06	6.926039e-06	1.777819e-08	4.738851e+01	1.164778e+03
1.980000e-06	6.836595e-06	1.768095e-08	4.677653e+01	1.160102e+03
1.990000e-06	6.744840e-06	1.762516e-08	4.614873e+01	1.154804e+03
2.000000e-06	6.650643e-06	1.754560e-08	4.550424e+01	1.148925e+03
2.010000e-06	6.554081e-06	1.749047e-08	4.484355e+01	1.142677e+03
2.020000e-06	6.455256e-06	1.738258e-08	4.416738e+01	1.136351e+03
2.030000e-06	6.353996e-06	1.729718e-08	4.347455e+01	1.130191e+03
2.040000e-06	6.250340e-06	1.717862e-08	4.276533e+01	1.124282e+03
2.050000e-06	6.144573e-06	1.708565e-08	4.204166e+01	1.118506e+03
2.060000e-06	6.036697e-06	1.697758e-08	4.130357e+01	1.112589e+03
2.070000e-06	5.926646e-06	1.687632e-08	4.055059e+01	1.106214e+03
2.080000e-06	5.814360e-06	1.677597e-08	3.978232e+01	1.099161e+03
2.090000e-06	5.699803e-06	1.666105e-08	3.899851e+01	1.091404e+03
2.100000e-06	5.582964e-06	1.654746e-08	3.819909e+01	1.083123e+03
2.110000e-06	5.463940e-06	1.641020e-08	3.738472e+01	1.074626e+03
2.120000e-06	5.342918e-06	1.628974e-08	3.655667e+01	1.066214e+03
2.130000e-06	5.220057e-06	1.615081e-08	3.571605e+01	1.058039e+03
2.140000e-06	5.095375e-06	1.603030e-08	3.486296e+01	1.050031e+03
2.150000e-06	4.968800e-06	1.589172e-08	3.399693e+01	1.041916e+03
2.160000e-06	4.840417e-06	1.575450e-08	3.311852e+01	1.033329e+03
2.170000e-06	4.710334e-06	1.560956e-08	3.222849e+01	1.023974e+03
2.180000e-06	4.578598e-06	1.545513e-08	3.132714e+01	1.013751e+03
2.190000e-06	4.445280e-06	1.529841e-08	3.041496e+01	1.002805e+03
2.200000e-06	4.310298e-06	1.513333e-08	2.949140e+01	9.914611e+02
2.210000e-06	4.173648e-06	1.496897e-08	2.855644e+01	9.800814e+02
2.220000e-06	4.035529e-06	1.479623e-08	2.761141e+01	9.688942e+02
2.230000e-06	3.895889e-06	1.462111e-08	2.665598e+01	9.578806e+02
2.240000e-06	3.754718e-06	1.444142e-08	2.569009e+01	9.467674e+02
2.250000e-06	3.612135e-06	1.425823e-08	2.471452e+01	9.351349e+02
2.260000e-06	3.468259e-06	1.406009e-08	2.373011e+01	9.225962e+02
2.270000e-06	3.323175e-06	1.384957e-08	2.273743e+01	9.089688e+02
2.280000e-06	3.176927e-06	1.363000e-08	2.173679e+01	8.943610e+02
2.290000e-06	3.029531e-06	1.341404e-08	2.072830e+01	8.791280e+02
2.300000e-06	2.881025e-06	1.319297e-08	1.971220e+01	8.637121e+02
2.310000e-06	2.731601e-06	1.296670e-08	1.868983e+01	8.484320e+02
2.320000e-06	2.581233e-06	1.273142e-08	1.766100e+01	8.333147e+02
2.330000e-06	2.429803e-06	1.248532e-08	1.662491e+01	8.180509e+02
2.340000e-06	2.277434e-06	1.222480e-08	1.558239e+01	8.021007e+02
2.350000e-06	2.124249e-06	1.194519e-08	1.453429e+01	7.849118e+02
2.360000e-06	1.970369e-06	1.165519e-08	1.348142e+01	7.661589e+02
2.370000e-06	1.815882e-06	1.135982e-08	1.242441e+01	7.458935e+02
2.380000e-06	1.660754e-06	1.106270e-08	1.136301e+01	7.245286e+02
2.390000e-06	1.505019e-06	1.075547e-08	1.029746e+01	7.026493e+02
2.400000e-06	1.348704e-06	1.042824e-08	9.227942e+00	6.807206e+02
2.410000e-06	1.191872e-06	1.007760e-08	8.154887e+00	6.588171e+02
2.420000e-06	1.034623e-06	9.706700e-09	7.078975e+00	6.365003e+02
2.430000e-06	8.770847e-07	9.315493e-09	6.001084e+00	6.129181e+02
2.440000e-06	7.193043e-07	8.903677e-09	4.921538e+00	5.871044e+02
2.450000e-06	5.612561e-07	8.472573e-09	3.840160e+00	5.583647e+02
2.460000e-06	4.030064e-07	8.022739e-09	2.757402e+00	5.265786e+02
2.470000e-06	2.446424e-07	7.547240e-09	1.673863e+00	4.922618e+02
2.480000e-06	8.616838e-08	7.032267e-09	5.895710e-01	4.563144e+02
2.490000e-06	-7.233311e-08	6.470467e-09	-4.949090e-01	4.195085e+02
2.500000e-06	-2.307602e-07	5.861150e-09	-1.578880e+00	3.818870e+02
2.510000e-06	-3.890865e-07	5.202312e-09	-2.662161e+00	3.423147e+02
2.520000e-06	-5.472500e-07	4.481783e-09	-3.744329e+00	2.984011e+02
2.530000e-06	-7.052259e-07	3.681274e-09	-4.825212e+00	2.469032e+02
2.540000e-06	-8.629605e-07	2.775841e-09	-5.904445e+00	1.845543e+02
2.550000e-06	-1.020428e-06	1.722174e-09	-6.981850e+00	1.090998e+02
2.560000e-06	-1.177571e-06	4.627588e-10	-8.057037e+00	2.022264e+01
2.570000e-06	-1.334217e-06	-1.048085e-09	-9.128819e+00	-7.995539e+01
2.580000e-06	-1.490306e-06	-2.776971e-09	-1.019679e+01	-1.869962e+02
2.590000e-06	-1.645854e-06	-4.564406e-09	-1.126106e+01	-2.949030e+02
2.600000e-06	-1.800807e-06	-6.200203e-09	-1.232127e+01	-3.973230e+02
2.610000e-06	-1.955083e-06	-7.560628e-09	-1.337683e+01	-4.888617e+02
2.620000e-06	-2.108670e-06	-8.649394e-09	-1.442769e+01	-5.661367e+02
2.630000e-06	-2.261630e-06	-9.529118e-09	-1.547426e+01	-6.282833e+02
2.640000e-06	-2.413799e-06	-1.025988e-08	-1.651541e+01	-6.767961e+02
2.650000e-06	-2.564931e-06	-1.088133e-08	-1.754947e+01	-7.148008e+02
2.660000e-06	-2.715024e-06	-1.141967e-08	-1.857641e+01	-7.460127e+02
2.670000e-06	-2.864181e-06	-1.189415e-08	-1.959696e+01	-7.737184e+02
2.680000e-06	-3.012386e-06	-1.232018e-08	-2.061099e+01	-8.000743e+02
2.690000e-06	-3.159542e-06	-1.270374e-08	-2.161784e+01	-8.258844e+02
2.700000e-06	-3.305601e-06	-1.304841e-08	-2.261719e+01	-8.508485e+02
2.710000e-06	-3.450517e-06	-1.336370e-08	-2.360871e+01	-8.741142e+02
2.720000e-06	-3.594110e-06	-1.365682e-08	-2.459119e+01	-8.948917e+02
2.730000e-06	-3.736296e-06	-1.393003e-08	-2.556404e+01	-9.128990e+02
2.740000e-06	-3.877108e-06	-1.418667e-08	-2.652748e+01	-9.285036e+02
2.750000e-06	-4.016422e-06	-1.443200e-08	-2.748068e+01	-9.425565e+02
2.760000e-06	-4.154226e-06	-1.466775e-08	-2.842355e+01	-9.560322e+02
2.770000e-06	-4.290581e-06	-1.489277e-08	-2.935650e+01	-9.696497e+02
2.780000e-06	-4.425296e-06	-1.510106e-08	-3.027823e+01	-9.836349e+02
2.790000e-06	-4.558347e-06	-1.529010e-08	-3.118858e+01	-9.977086e+02
2.800000e-06	-4.689810e-06	-1.546812e-08	-3.208805e+01	-1.011285e+03
2.810000e-06	-4.819698e-06	-1.563945e-08	-3.297676e+01	-1.023776e+03
2.820000e-06	-4.947929e-06	-1.580386e-08	-3.385413e+01	-1.034870e+03
2.830000e-06	-5.074305e-06	-1.596549e-08	-3.471880e+01	-1.044662e+03
2.840000e-06	-5.198856e-06	-1.612603e-08	-3.557099e+01	-1.053601e+03
2.850000e-06	-5.321608e-06	-1.628281e-08	-3.641087e+01	-1.062283e+03
2.860000e-06	-5.442512e-06	-1.642792e-08	-3.723811e+01	-1.071195e+03
2.870000e-06	-5.561391e-06	-1.655887e-08	-3.805148e+01	-1.080518e+03
2.880000e-06	-5.678080e-06	-1.668249e-08	-3.884988e+01	-1.090076e+03
2.890000e-06	-5.792467e-06	-1.680320e-08	-3.963253e+01	-1.099431e+03
2.900000e-06	-5.904524e-06	-1.692066e-08	-4.039923e+01	-1.108097e+03
2.910000e-06	-6.014334e-06	-1.703124e-08	-4.115056e+01	-1.115753e+03
2.920000e-06	-6.122020e-06	-1.713715e-08	-4.188735e+01	-1.122383e+03
2.930000e-06	-6.227652e-06	-1.724271e-08	-4.261009e+01	-1.128269e+03
2.940000e-06	-6.331013e-06	-1.734629e-08	-4.331730e+01	-1.133867e+03
