# Temperatura_=_27.25
# Concentracion g/m^3_=_13400.0
# C_Vs_to_Am_M_A/Vsm_=_65563218390.804596
# pendiente_HvsI_1/m_=_3716.3
# ordenada_HvsI_A/m_=_1297.0
# frecuencia_Hz_=_301430.71766042267

Tiempo_(s)	Campo_(V.s)	Magnetizacion_(V.s)	Campo_(kA/m)	Magnetizacion_(A/m)
0.000000e+00	-8.340262e-06	-1.802026e-08	-5.691477e+01	-1.181348e+03
1.000000e-08	-8.337110e-06	-1.802162e-08	-5.689326e+01	-1.180937e+03
2.000000e-08	-8.331234e-06	-1.801858e-08	-5.685316e+01	-1.180739e+03
3.000000e-08	-8.322720e-06	-1.801214e-08	-5.679506e+01	-1.180668e+03
4.000000e-08	-8.311281e-06	-1.800014e-08	-5.671700e+01	-1.180531e+03
5.000000e-08	-8.296770e-06	-1.798545e-08	-5.661797e+01	-1.180113e+03
6.000000e-08	-8.279316e-06	-1.796781e-08	-5.649886e+01	-1.179272e+03
7.000000e-08	-8.259324e-06	-1.793960e-08	-5.636244e+01	-1.178005e+03
8.000000e-08	-8.236840e-06	-1.795751e-08	-5.620900e+01	-1.176450e+03
9.000000e-08	-8.211226e-06	-1.800329e-08	-5.603421e+01	-1.174832e+03
1.000000e-07	-8.182214e-06	-1.796036e-08	-5.583623e+01	-1.173371e+03
1.100000e-07	-8.150052e-06	-1.791062e-08	-5.561676e+01	-1.172187e+03
1.200000e-07	-8.114924e-06	-1.788474e-08	-5.537704e+01	-1.171259e+03
1.300000e-07	-8.077120e-06	-1.783633e-08	-5.511906e+01	-1.170435e+03
1.400000e-07	-8.036957e-06	-1.774602e-08	-5.484498e+01	-1.169502e+03
1.500000e-07	-7.994332e-06	-1.775235e-08	-5.455411e+01	-1.168275e+03
1.600000e-07	-7.948930e-06	-1.782881e-08	-5.424428e+01	-1.166673e+03
1.700000e-07	-7.900695e-06	-1.770468e-08	-5.391512e+01	-1.164741e+03
1.800000e-07	-7.849536e-06	-1.774993e-08	-5.356600e+01	-1.162618e+03
1.900000e-07	-7.795287e-06	-1.772514e-08	-5.319581e+01	-1.160457e+03
2.000000e-07	-7.738186e-06	-1.758908e-08	-5.280614e+01	-1.158348e+03
2.100000e-07	-7.678355e-06	-1.757034e-08	-5.239785e+01	-1.156265e+03
2.200000e-07	-7.615805e-06	-1.749663e-08	-5.197100e+01	-1.154077e+03
2.300000e-07	-7.550528e-06	-1.753495e-08	-5.152555e+01	-1.151604e+03
2.400000e-07	-7.482400e-06	-1.748607e-08	-5.106063e+01	-1.148706e+03
2.500000e-07	-7.411509e-06	-1.743718e-08	-5.057686e+01	-1.145351e+03
2.600000e-07	-7.337776e-06	-1.739099e-08	-5.007371e+01	-1.141641e+03
2.700000e-07	-7.261143e-06	-1.731311e-08	-4.955076e+01	-1.137772e+03
2.800000e-07	-7.181695e-06	-1.725398e-08	-4.900859e+01	-1.133951e+03
2.900000e-07	-7.099528e-06	-1.716393e-08	-4.844788e+01	-1.130303e+03
3.000000e-07	-7.014936e-06	-1.715722e-08	-4.787061e+01	-1.126810e+03
3.100000e-07	-6.928035e-06	-1.711158e-08	-4.727759e+01	-1.123312e+03
3.200000e-07	-6.838745e-06	-1.705932e-08	-4.666827e+01	-1.119574e+03
3.300000e-07	-6.746923e-06	-1.698926e-08	-4.604166e+01	-1.115383e+03
3.400000e-07	-6.652680e-06	-1.687600e-08	-4.539854e+01	-1.110643e+03
3.500000e-07	-6.556125e-06	-1.680685e-08	-4.473964e+01	-1.105422e+03
3.600000e-07	-6.457127e-06	-1.673573e-08	-4.406407e+01	-1.099925e+03
3.700000e-07	-6.355745e-06	-1.667010e-08	-4.337223e+01	-1.094403e+03
3.800000e-07	-6.252076e-06	-1.658584e-08	-4.266478e+01	-1.089046e+03
3.900000e-07	-6.146145e-06	-1.652069e-08	-4.194190e+01	-1.083889e+03
4.000000e-07	-6.037984e-06	-1.644556e-08	-4.120380e+01	-1.078796e+03
4.100000e-07	-5.927700e-06	-1.634576e-08	-4.045121e+01	-1.073505e+03
4.200000e-07	-5.815295e-06	-1.624184e-08	-3.968415e+01	-1.067741e+03
4.300000e-07	-5.700620e-06	-1.613503e-08	-3.890159e+01	-1.061331e+03
4.400000e-07	-5.583639e-06	-1.604613e-08	-3.810330e+01	-1.054279e+03
4.500000e-07	-5.464564e-06	-1.595218e-08	-3.729072e+01	-1.046766e+03
4.600000e-07	-5.343615e-06	-1.584784e-08	-3.646535e+01	-1.039068e+03
4.700000e-07	-5.220760e-06	-1.572736e-08	-3.562698e+01	-1.031436e+03
4.800000e-07	-5.095941e-06	-1.560773e-08	-3.477520e+01	-1.023980e+03
4.900000e-07	-4.969275e-06	-1.549093e-08	-3.391082e+01	-1.016612e+03
5.000000e-07	-4.840879e-06	-1.536259e-08	-3.303463e+01	-1.009080e+03
5.100000e-07	-4.710762e-06	-1.522535e-08	-3.214670e+01	-1.001071e+03
5.200000e-07	-4.578908e-06	-1.509845e-08	-3.124692e+01	-9.923457e+02
5.300000e-07	-4.445383e-06	-1.497696e-08	-3.033573e+01	-9.828426e+02
5.400000e-07	-4.310269e-06	-1.483754e-08	-2.941370e+01	-9.727048e+02
5.500000e-07	-4.173580e-06	-1.467259e-08	-2.848092e+01	-9.622153e+02
5.600000e-07	-4.035333e-06	-1.450619e-08	-2.753751e+01	-9.516670e+02
5.700000e-07	-3.895469e-06	-1.434673e-08	-2.658306e+01	-9.412228e+02
5.800000e-07	-3.754014e-06	-1.418329e-08	-2.561776e+01	-9.308305e+02
5.900000e-07	-3.611070e-06	-1.400493e-08	-2.464229e+01	-9.202301e+02
6.000000e-07	-3.466739e-06	-1.382333e-08	-2.365737e+01	-9.090574e+02
6.100000e-07	-3.321108e-06	-1.364892e-08	-2.266357e+01	-8.969970e+02
6.200000e-07	-3.174232e-06	-1.347014e-08	-2.166127e+01	-8.839214e+02
6.300000e-07	-3.026290e-06	-1.326627e-08	-2.065170e+01	-8.699488e+02
6.400000e-07	-2.877380e-06	-1.303638e-08	-1.963553e+01	-8.553911e+02
6.500000e-07	-2.727509e-06	-1.280773e-08	-1.861279e+01	-8.406099e+02
6.600000e-07	-2.576702e-06	-1.258547e-08	-1.758367e+01	-8.258397e+02
6.700000e-07	-2.425018e-06	-1.235829e-08	-1.654856e+01	-8.110581e+02
6.800000e-07	-2.272533e-06	-1.211281e-08	-1.550799e+01	-7.959643e+02
6.900000e-07	-2.119207e-06	-1.185933e-08	-1.446168e+01	-7.800830e+02
7.000000e-07	-1.965001e-06	-1.160078e-08	-1.340936e+01	-7.629541e+02
7.100000e-07	-1.810021e-06	-1.132774e-08	-1.235176e+01	-7.443268e+02
7.200000e-07	-1.654457e-06	-1.103052e-08	-1.129018e+01	-7.242700e+02
7.300000e-07	-1.498349e-06	-1.071554e-08	-1.022488e+01	-7.031395e+02
7.400000e-07	-1.341535e-06	-1.039650e-08	-9.154768e+00	-6.814062e+02
7.500000e-07	-1.184099e-06	-1.006731e-08	-8.080408e+00	-6.594108e+02
7.600000e-07	-1.026202e-06	-9.717567e-09	-7.002905e+00	-6.371510e+02
7.700000e-07	-8.679749e-07	-9.342640e-09	-5.923146e+00	-6.142025e+02
7.800000e-07	-7.095389e-07	-8.948819e-09	-4.841963e+00	-5.898257e+02
7.900000e-07	-5.508746e-07	-8.535205e-09	-3.759222e+00	-5.632282e+02
8.000000e-07	-3.920538e-07	-8.097735e-09	-2.675414e+00	-5.338815e+02
8.100000e-07	-2.330922e-07	-7.628373e-09	-1.590644e+00	-5.017493e+02
8.200000e-07	-7.400911e-08	-7.130159e-09	-5.050455e-01	-4.673051e+02
8.300000e-07	8.506147e-08	-6.606049e-09	5.804678e-01	-4.312910e+02
8.400000e-07	2.440453e-07	-6.044283e-09	1.665389e+00	-3.942754e+02
8.500000e-07	4.029209e-07	-5.433630e-09	2.749572e+00	-3.561633e+02
8.600000e-07	5.616866e-07	-4.767432e-09	3.833005e+00	-3.158580e+02
8.700000e-07	7.202805e-07	-4.046772e-09	4.915265e+00	-2.712472e+02
8.800000e-07	8.786446e-07	-3.253804e-09	5.995957e+00	-2.195873e+02
8.900000e-07	1.036778e-06	-2.355269e-09	7.075074e+00	-1.582222e+02
9.000000e-07	1.194608e-06	-1.309422e-09	8.152121e+00	-8.544394e+01
9.100000e-07	1.351947e-06	-7.464978e-11	9.225822e+00	-1.229454e+00
9.200000e-07	1.508688e-06	1.363787e-09	1.029544e+01	9.239608e+01
9.300000e-07	1.664804e-06	2.953641e-09	1.136079e+01	1.915180e+02
9.400000e-07	1.820266e-06	4.556525e-09	1.242168e+01	2.910024e+02
9.500000e-07	1.975159e-06	6.020724e-09	1.347868e+01	3.855077e+02
9.600000e-07	2.129353e-06	7.262884e-09	1.453092e+01	4.705567e+02
9.700000e-07	2.282633e-06	8.287579e-09	1.557691e+01	5.433709e+02
9.800000e-07	2.434984e-06	9.137942e-09	1.661657e+01	6.032446e+02
9.900000e-07	2.586461e-06	9.854224e-09	1.765026e+01	6.513820e+02
1.000000e-06	2.737091e-06	1.046732e-08	1.867818e+01	6.902873e+02
1.010000e-06	2.886813e-06	1.100094e-08	1.969990e+01	7.229230e+02
1.020000e-06	3.035525e-06	1.147497e-08	2.071472e+01	7.519068e+02
1.030000e-06	3.183133e-06	1.189860e-08	2.172201e+01	7.789721e+02
1.040000e-06	3.329631e-06	1.227682e-08	2.272173e+01	8.048123e+02
1.050000e-06	3.474927e-06	1.261737e-08	2.371324e+01	8.292859e+02
1.060000e-06	3.618898e-06	1.293209e-08	2.469572e+01	8.518486e+02
1.070000e-06	3.761552e-06	1.322276e-08	2.566920e+01	8.720172e+02
1.080000e-06	3.902796e-06	1.349025e-08	2.663306e+01	8.896941e+02
1.090000e-06	4.042472e-06	1.374116e-08	2.758623e+01	9.052541e+02
1.100000e-06	4.180565e-06	1.397920e-08	2.852859e+01	9.194024e+02
1.110000e-06	4.317113e-06	1.420504e-08	2.946040e+01	9.328978e+02
1.120000e-06	4.452103e-06	1.441595e-08	3.038159e+01	9.462751e+02
1.130000e-06	4.585567e-06	1.461071e-08	3.129236e+01	9.596852e+02
1.140000e-06	4.717409e-06	1.479446e-08	3.219206e+01	9.729080e+02
1.150000e-06	4.847416e-06	1.496911e-08	3.307924e+01	9.855156e+02
1.160000e-06	4.975678e-06	1.513241e-08	3.395452e+01	9.971042e+02
1.170000e-06	5.102316e-06	1.528824e-08	3.481870e+01	1.007490e+03
1.180000e-06	5.227205e-06	1.544115e-08	3.567096e+01	1.016792e+03
1.190000e-06	5.350198e-06	1.559437e-08	3.651028e+01	1.025371e+03
1.200000e-06	5.471218e-06	1.573972e-08	3.733613e+01	1.033668e+03
1.210000e-06	5.590298e-06	1.587318e-08	3.814874e+01	1.042020e+03
1.220000e-06	5.707300e-06	1.599935e-08	3.894718e+01	1.050524e+03
1.230000e-06	5.821995e-06	1.611916e-08	3.972986e+01	1.059024e+03
1.240000e-06	5.934435e-06	1.623149e-08	4.049717e+01	1.067198e+03
1.250000e-06	6.044791e-06	1.633599e-08	4.125025e+01	1.074717e+03
1.260000e-06	6.153112e-06	1.643667e-08	4.198944e+01	1.081401e+03
1.270000e-06	6.259227e-06	1.653498e-08	4.271358e+01	1.087296e+03
1.280000e-06	6.363055e-06	1.663115e-08	4.342211e+01	1.092651e+03
1.290000e-06	6.464666e-06	1.672387e-08	4.411551e+01	1.097812e+03
1.300000e-06	6.563925e-06	1.680846e-08	4.479287e+01	1.103072e+03
1.310000e-06	6.660696e-06	1.688551e-08	4.545324e+01	1.108551e+03
1.320000e-06	6.755098e-06	1.695991e-08	4.609746e+01	1.114163e+03
1.330000e-06	6.847175e-06	1.703251e-08	4.672579e+01	1.119666e+03
1.340000e-06	6.936826e-06	1.710246e-08	4.733759e+01	1.124777e+03
1.350000e-06	7.024028e-06	1.716897e-08	4.793266e+01	1.129306e+03
1.360000e-06	7.108826e-06	1.723290e-08	4.851133e+01	1.133234e+03
1.370000e-06	7.191187e-06	1.729598e-08	4.907337e+01	1.136721e+03
1.380000e-06	7.270920e-06	1.735692e-08	4.961747e+01	1.140028e+03
1.390000e-06	7.347959e-06	1.741543e-08	5.014320e+01	1.143399e+03
1.400000e-06	7.422193e-06	1.746988e-08	5.064977e+01	1.146958e+03
1.410000e-06	7.493690e-06	1.751992e-08	5.113767e+01	1.150656e+03
1.420000e-06	7.562614e-06	1.756850e-08	5.160802e+01	1.154304e+03
1.430000e-06	7.628775e-06	1.761592e-08	5.205951e+01	1.157659e+03
1.440000e-06	7.692207e-06	1.765879e-08	5.249238e+01	1.160539e+03
1.450000e-06	7.753082e-06	1.769705e-08	5.290779e+01	1.162902e+03
1.460000e-06	7.811232e-06	1.773434e-08	5.330462e+01	1.164865e+03
1.470000e-06	7.866551e-06	1.777271e-08	5.368212e+01	1.166650e+03
1.480000e-06	7.918786e-06	1.781030e-08	5.403857e+01	1.168483e+03
1.490000e-06	7.967798e-06	1.784346e-08	5.437304e+01	1.170493e+03
1.500000e-06	8.013967e-06	1.787297e-08	5.468810e+01	1.172659e+03
1.510000e-06	8.057325e-06	1.790009e-08	5.498398e+01	1.174820e+03
1.520000e-06	8.097764e-06	1.792389e-08	5.525994e+01	1.176749e+03
1.530000e-06	8.135415e-06	1.794588e-08	5.551687e+01	1.178257e+03
1.540000e-06	8.170200e-06	1.796442e-08	5.575425e+01	1.179277e+03
1.550000e-06	8.202054e-06	1.797928e-08	5.597162e+01	1.179894e+03
1.560000e-06	8.231146e-06	1.799330e-08	5.617015e+01	1.180307e+03
1.570000e-06	8.257295e-06	1.800756e-08	5.634859e+01	1.180746e+03
1.580000e-06	8.280414e-06	1.802148e-08	5.650636e+01	1.181366e+03
1.590000e-06	8.300752e-06	1.803475e-08	5.664515e+01	1.182188e+03
1.600000e-06	8.318169e-06	1.804515e-08	5.676400e+01	1.183091e+03
1.610000e-06	8.332473e-06	1.805089e-08	5.686162e+01	1.183866e+03
1.620000e-06	8.343578e-06	1.805363e-08	5.693740e+01	1.184318e+03
1.630000e-06	8.351544e-06	1.805421e-08	5.699176e+01	1.184348e+03
1.640000e-06	8.356643e-06	1.805423e-08	5.702656e+01	1.184000e+03
1.650000e-06	8.358833e-06	1.805525e-08	5.704150e+01	1.183441e+03
1.660000e-06	8.358130e-06	1.805282e-08	5.703670e+01	1.182883e+03
1.670000e-06	8.354674e-06	1.804739e-08	5.701312e+01	1.182494e+03
1.680000e-06	8.348354e-06	1.804550e-08	5.696999e+01	1.182316e+03
1.690000e-06	8.339243e-06	1.803802e-08	5.690782e+01	1.182247e+03
1.700000e-06	8.327247e-06	1.802535e-08	5.682595e+01	1.182089e+03
1.710000e-06	8.312354e-06	1.801660e-08	5.672432e+01	1.181629e+03
1.720000e-06	8.294964e-06	1.802069e-08	5.660565e+01	1.180739e+03
1.730000e-06	8.275086e-06	1.800507e-08	5.647000e+01	1.179432e+03
1.740000e-06	8.252270e-06	1.789627e-08	5.631430e+01	1.177858e+03
1.750000e-06	8.225807e-06	1.788049e-08	5.613371e+01	1.176247e+03
1.760000e-06	8.195446e-06	1.789676e-08	5.592653e+01	1.174811e+03
1.770000e-06	8.161970e-06	1.787858e-08	5.569809e+01	1.173658e+03
1.780000e-06	8.125999e-06	1.789534e-08	5.545261e+01	1.172749e+03
1.790000e-06	8.087607e-06	1.797153e-08	5.519063e+01	1.171923e+03
1.800000e-06	8.047217e-06	1.785948e-08	5.491500e+01	1.170965e+03
1.810000e-06	8.004627e-06	1.779922e-08	5.462436e+01	1.169699e+03
1.820000e-06	7.959089e-06	1.786945e-08	5.431361e+01	1.168056e+03
1.830000e-06	7.910718e-06	1.772180e-08	5.398351e+01	1.166096e+03
1.840000e-06	7.859170e-06	1.781552e-08	5.363175e+01	1.163961e+03
1.850000e-06	7.804382e-06	1.777817e-08	5.325787e+01	1.161802e+03
1.860000e-06	7.746938e-06	1.776653e-08	5.286586e+01	1.159699e+03
1.870000e-06	7.686608e-06	1.779918e-08	5.245417e+01	1.157611e+03
1.880000e-06	7.623506e-06	1.760694e-08	5.202355e+01	1.155401e+03
1.890000e-06	7.557614e-06	1.761270e-08	5.157390e+01	1.152887e+03
1.900000e-06	7.488866e-06	1.750422e-08	5.110476e+01	1.149938e+03
1.910000e-06	7.417280e-06	1.750596e-08	5.061625e+01	1.146538e+03
1.920000e-06	7.342716e-06	1.750492e-08	5.010742e+01	1.142799e+03
1.930000e-06	7.265426e-06	1.744214e-08	4.957998e+01	1.138926e+03
1.940000e-06	7.185486e-06	1.744125e-08	4.903446e+01	1.135119e+03
1.950000e-06	7.103046e-06	1.726979e-08	4.847188e+01	1.131490e+03
1.960000e-06	7.018018e-06	1.724858e-08	4.789165e+01	1.128005e+03
1.970000e-06	6.930339e-06	1.712725e-08	4.729331e+01	1.124493e+03
1.980000e-06	6.840286e-06	1.707949e-08	4.667878e+01	1.120714e+03
1.990000e-06	6.747881e-06	1.707197e-08	4.604820e+01	1.116465e+03
2.000000e-06	6.653072e-06	1.700286e-08	4.540122e+01	1.111667e+03
2.010000e-06	6.555886e-06	1.696455e-08	4.473801e+01	1.106405e+03
2.020000e-06	6.456437e-06	1.682390e-08	4.405936e+01	1.100892e+03
2.030000e-06	6.354567e-06	1.675547e-08	4.336419e+01	1.095380e+03
2.040000e-06	6.250370e-06	1.663116e-08	4.265314e+01	1.090045e+03
2.050000e-06	6.144023e-06	1.656852e-08	4.192742e+01	1.084904e+03
2.060000e-06	6.035511e-06	1.648403e-08	4.118692e+01	1.079802e+03
2.070000e-06	5.924827e-06	1.640702e-08	4.043160e+01	1.074472e+03
2.080000e-06	5.811835e-06	1.633199e-08	3.966053e+01	1.068644e+03
2.090000e-06	5.696573e-06	1.622902e-08	3.887398e+01	1.062161e+03
2.100000e-06	5.579004e-06	1.612467e-08	3.807167e+01	1.055047e+03
2.110000e-06	5.459308e-06	1.599190e-08	3.725485e+01	1.047499e+03
2.120000e-06	5.337712e-06	1.588007e-08	3.642507e+01	1.039798e+03
2.130000e-06	5.214264e-06	1.576076e-08	3.558265e+01	1.032182e+03
2.140000e-06	5.088942e-06	1.565685e-08	3.472744e+01	1.024742e+03
2.150000e-06	4.961717e-06	1.553839e-08	3.385925e+01	1.017370e+03
2.160000e-06	4.832679e-06	1.542588e-08	3.297868e+01	1.009801e+03
2.170000e-06	4.701981e-06	1.529145e-08	3.208678e+01	1.001723e+03
2.180000e-06	4.569686e-06	1.515224e-08	3.118399e+01	9.929132e+02
2.190000e-06	4.435761e-06	1.499996e-08	3.027007e+01	9.833312e+02
2.200000e-06	4.300158e-06	1.485356e-08	2.934470e+01	9.731400e+02
2.210000e-06	4.162925e-06	1.470276e-08	2.840821e+01	9.626306e+02
2.220000e-06	4.024234e-06	1.455443e-08	2.746177e+01	9.520883e+02
2.230000e-06	3.884040e-06	1.439793e-08	2.650507e+01	9.416555e+02
2.240000e-06	3.742362e-06	1.423142e-08	2.553825e+01	9.312556e+02
2.250000e-06	3.599230e-06	1.405770e-08	2.456150e+01	9.206111e+02
2.260000e-06	3.454737e-06	1.387360e-08	2.357546e+01	9.093552e+02
2.270000e-06	3.309029e-06	1.368275e-08	2.258114e+01	8.971872e+02
2.280000e-06	3.162222e-06	1.348146e-08	2.157931e+01	8.840048e+02
2.290000e-06	3.014340e-06	1.328057e-08	2.057015e+01	8.699514e+02
2.300000e-06	2.865351e-06	1.307441e-08	1.955343e+01	8.553525e+02
2.310000e-06	2.715385e-06	1.286580e-08	1.853005e+01	8.405643e+02
2.320000e-06	2.564488e-06	1.264083e-08	1.750032e+01	8.257984e+02
2.330000e-06	2.412564e-06	1.240327e-08	1.646358e+01	8.110014e+02
2.340000e-06	2.259701e-06	1.215113e-08	1.542042e+01	7.958467e+02
2.350000e-06	2.106082e-06	1.189180e-08	1.437211e+01	7.798507e+02
2.360000e-06	1.951744e-06	1.162092e-08	1.331889e+01	7.625673e+02
2.370000e-06	1.796783e-06	1.134129e-08	1.226142e+01	7.437770e+02
2.380000e-06	1.641291e-06	1.105042e-08	1.120033e+01	7.235835e+02
2.390000e-06	1.485163e-06	1.074866e-08	1.013490e+01	7.023653e+02
2.400000e-06	1.328390e-06	1.042967e-08	9.065063e+00	6.805914e+02
2.410000e-06	1.171091e-06	1.009164e-08	7.991642e+00	6.585745e+02
2.420000e-06	1.013382e-06	9.735574e-09	6.915418e+00	6.362675e+02
2.430000e-06	8.553823e-07	9.359625e-09	5.837213e+00	6.132041e+02
2.440000e-06	6.971101e-07	8.964553e-09	4.757148e+00	5.886244e+02
2.450000e-06	5.386008e-07	8.547541e-09	3.675465e+00	5.617495e+02
2.460000e-06	3.799117e-07	8.109587e-09	2.592555e+00	5.320956e+02
2.470000e-06	2.210492e-07	7.645236e-09	1.508462e+00	4.996847e+02
2.480000e-06	6.211964e-08	7.148053e-09	4.239105e-01	4.650349e+02
2.490000e-06	-9.673625e-08	6.611702e-09	-6.601377e-01	4.288934e+02
2.500000e-06	-2.555687e-07	6.038264e-09	-1.744026e+00	3.917799e+02
2.510000e-06	-4.143178e-07	5.426745e-09	-2.827345e+00	3.535037e+02
2.520000e-06	-5.728426e-07	4.765875e-09	-3.909134e+00	3.128531e+02
2.530000e-06	-7.311510e-07	4.040526e-09	-4.989446e+00	2.676228e+02
2.540000e-06	-8.892342e-07	3.236293e-09	-6.068222e+00	2.150399e+02
2.550000e-06	-1.047021e-06	2.328740e-09	-7.144973e+00	1.525084e+02
2.560000e-06	-1.204460e-06	1.280263e-09	-8.219356e+00	7.847031e+01
2.570000e-06	-1.361410e-06	4.343798e-11	-9.290395e+00	-6.886762e+00
2.580000e-06	-1.517773e-06	-1.403812e-09	-1.035743e+01	-1.013179e+02
2.590000e-06	-1.673510e-06	-3.003679e-09	-1.142020e+01	-2.007378e+02
2.600000e-06	-1.828636e-06	-4.612964e-09	-1.247879e+01	-2.999384e+02
2.610000e-06	-1.983169e-06	-6.079714e-09	-1.353334e+01	-3.936211e+02
2.620000e-06	-2.137041e-06	-7.326096e-09	-1.458337e+01	-4.774575e+02
2.630000e-06	-2.290197e-06	-8.355836e-09	-1.562853e+01	-5.488828e+02
2.640000e-06	-2.442585e-06	-9.208666e-09	-1.666844e+01	-6.074129e+02
2.650000e-06	-2.594034e-06	-9.925580e-09	-1.770195e+01	-6.544267e+02
2.660000e-06	-2.744463e-06	-1.054279e-08	-1.872849e+01	-6.925192e+02
2.670000e-06	-2.893906e-06	-1.108406e-08	-1.974830e+01	-7.246516e+02
2.680000e-06	-3.042243e-06	-1.156281e-08	-2.076056e+01	-7.533661e+02
2.690000e-06	-3.189506e-06	-1.199005e-08	-2.176550e+01	-7.802854e+02
2.700000e-06	-3.335680e-06	-1.237253e-08	-2.276301e+01	-8.059978e+02
2.710000e-06	-3.480710e-06	-1.271521e-08	-2.375271e+01	-8.302961e+02
2.720000e-06	-3.624530e-06	-1.302667e-08	-2.473415e+01	-8.526212e+02
2.730000e-06	-3.766961e-06	-1.331463e-08	-2.570611e+01	-8.725198e+02
2.740000e-06	-3.907847e-06	-1.358302e-08	-2.666753e+01	-8.899450e+02
2.750000e-06	-4.047190e-06	-1.383581e-08	-2.761842e+01	-9.053172e+02
2.760000e-06	-4.185107e-06	-1.407635e-08	-2.855959e+01	-9.193620e+02
2.770000e-06	-4.321555e-06	-1.430450e-08	-2.949072e+01	-9.328259e+02
2.780000e-06	-4.456374e-06	-1.451676e-08	-3.041073e+01	-9.462075e+02
2.790000e-06	-4.589520e-06	-1.471160e-08	-3.131934e+01	-9.596143e+02
2.800000e-06	-4.721071e-06	-1.489326e-08	-3.221705e+01	-9.727940e+02
2.810000e-06	-4.851004e-06	-1.506409e-08	-3.310373e+01	-9.853099e+02
2.820000e-06	-4.979239e-06	-1.522654e-08	-3.397882e+01	-9.967741e+02
2.830000e-06	-5.105670e-06	-1.538579e-08	-3.484159e+01	-1.007034e+03
2.840000e-06	-5.230228e-06	-1.554145e-08	-3.569159e+01	-1.016239e+03
2.850000e-06	-5.352949e-06	-1.568931e-08	-3.652905e+01	-1.024768e+03
2.860000e-06	-5.473840e-06	-1.582393e-08	-3.735402e+01	-1.033059e+03
2.870000e-06	-5.592686e-06	-1.594816e-08	-3.816504e+01	-1.041427e+03
2.880000e-06	-5.709287e-06	-1.606866e-08	-3.896073e+01	-1.049944e+03
2.890000e-06	-5.823615e-06	-1.618495e-08	-3.974092e+01	-1.058426e+03
2.900000e-06	-5.935566e-06	-1.629609e-08	-4.050489e+01	-1.066544e+03
2.910000e-06	-6.045248e-06	-1.640051e-08	-4.125337e+01	-1.073980e+03
2.920000e-06	-6.152875e-06	-1.650040e-08	-4.198782e+01	-1.080574e+03
2.930000e-06	-6.258444e-06	-1.659755e-08	-4.270824e+01	-1.086397e+03
2.940000e-06	-6.361829e-06	-1.669158e-08	-4.341374e+01	-1.091716e+03
