# Temperatura_=_45.24
# Concentracion g/m^3_=_13400.0
# C_Vs_to_Am_M_A/Vsm_=_65563218390.804596
# pendiente_HvsI_1/m_=_3716.3
# ordenada_HvsI_A/m_=_1297.0
# frecuencia_Hz_=_301444.46907211695

Tiempo_(s)	Campo_(V.s)	Magnetizacion_(V.s)	Campo_(kA/m)	Magnetizacion_(A/m)
0.000000e+00	-8.377771e-06	-1.809722e-08	-5.691532e+01	-1.187284e+03
1.000000e-08	-8.375120e-06	-1.809560e-08	-5.689731e+01	-1.186886e+03
2.000000e-08	-8.369668e-06	-1.808940e-08	-5.686027e+01	-1.186762e+03
3.000000e-08	-8.361613e-06	-1.808194e-08	-5.680555e+01	-1.186787e+03
4.000000e-08	-8.350682e-06	-1.807301e-08	-5.673129e+01	-1.186723e+03
5.000000e-08	-8.336696e-06	-1.806187e-08	-5.663627e+01	-1.186324e+03
6.000000e-08	-8.319665e-06	-1.804756e-08	-5.652057e+01	-1.185441e+03
7.000000e-08	-8.299959e-06	-1.802772e-08	-5.638669e+01	-1.184090e+03
8.000000e-08	-8.277786e-06	-1.802972e-08	-5.623606e+01	-1.182442e+03
9.000000e-08	-8.252559e-06	-1.806334e-08	-5.606468e+01	-1.180748e+03
1.000000e-07	-8.223963e-06	-1.803816e-08	-5.587041e+01	-1.179237e+03
1.100000e-07	-8.192187e-06	-1.799168e-08	-5.565453e+01	-1.178016e+03
1.200000e-07	-8.157384e-06	-1.795673e-08	-5.541809e+01	-1.177033e+03
1.300000e-07	-8.119863e-06	-1.790961e-08	-5.516320e+01	-1.176105e+03
1.400000e-07	-8.079964e-06	-1.784528e-08	-5.489214e+01	-1.174997e+03
1.500000e-07	-8.037639e-06	-1.781037e-08	-5.460459e+01	-1.173529e+03
1.600000e-07	-7.992590e-06	-1.786474e-08	-5.429855e+01	-1.171642e+03
1.700000e-07	-7.944593e-06	-1.779709e-08	-5.397248e+01	-1.169416e+03
1.800000e-07	-7.893595e-06	-1.779219e-08	-5.362601e+01	-1.167020e+03
1.900000e-07	-7.839567e-06	-1.779522e-08	-5.325897e+01	-1.164622e+03
2.000000e-07	-7.782679e-06	-1.766965e-08	-5.287250e+01	-1.162311e+03
2.100000e-07	-7.722997e-06	-1.761910e-08	-5.246704e+01	-1.160047e+03
2.200000e-07	-7.660579e-06	-1.755810e-08	-5.204299e+01	-1.157679e+03
2.300000e-07	-7.595445e-06	-1.755777e-08	-5.160050e+01	-1.155021e+03
2.400000e-07	-7.527443e-06	-1.753827e-08	-5.113853e+01	-1.151937e+03
2.500000e-07	-7.456603e-06	-1.748627e-08	-5.065726e+01	-1.148411e+03
2.600000e-07	-7.382943e-06	-1.744525e-08	-5.015685e+01	-1.144558e+03
2.700000e-07	-7.306446e-06	-1.737478e-08	-4.963715e+01	-1.140579e+03
2.800000e-07	-7.227090e-06	-1.731350e-08	-4.909804e+01	-1.136668e+03
2.900000e-07	-7.144959e-06	-1.721293e-08	-4.854008e+01	-1.132921e+03
3.000000e-07	-7.060399e-06	-1.716670e-08	-4.796560e+01	-1.129289e+03
3.100000e-07	-6.973534e-06	-1.713795e-08	-4.737548e+01	-1.125595e+03
3.200000e-07	-6.884268e-06	-1.708379e-08	-4.676904e+01	-1.121607e+03
3.300000e-07	-6.792502e-06	-1.702606e-08	-4.614562e+01	-1.117138e+03
3.400000e-07	-6.698274e-06	-1.692735e-08	-4.550547e+01	-1.112135e+03
3.500000e-07	-6.601687e-06	-1.684726e-08	-4.484930e+01	-1.106701e+03
3.600000e-07	-6.502665e-06	-1.676907e-08	-4.417658e+01	-1.101056e+03
3.700000e-07	-6.401206e-06	-1.669073e-08	-4.348730e+01	-1.095435e+03
3.800000e-07	-6.297411e-06	-1.660157e-08	-4.278216e+01	-1.089984e+03
3.900000e-07	-6.191348e-06	-1.652386e-08	-4.206161e+01	-1.084690e+03
4.000000e-07	-6.083065e-06	-1.645309e-08	-4.132598e+01	-1.079381e+03
4.100000e-07	-5.972657e-06	-1.635479e-08	-4.057591e+01	-1.073795e+03
4.200000e-07	-5.860071e-06	-1.625209e-08	-3.981105e+01	-1.067695e+03
4.300000e-07	-5.745162e-06	-1.614629e-08	-3.903040e+01	-1.060967e+03
4.400000e-07	-5.627935e-06	-1.605507e-08	-3.823400e+01	-1.053679e+03
4.500000e-07	-5.508624e-06	-1.595963e-08	-3.742345e+01	-1.046042e+03
4.600000e-07	-5.387382e-06	-1.584977e-08	-3.659978e+01	-1.038320e+03
4.700000e-07	-5.264188e-06	-1.572302e-08	-3.576285e+01	-1.030705e+03
4.800000e-07	-5.139084e-06	-1.559700e-08	-3.491294e+01	-1.023227e+03
4.900000e-07	-5.012160e-06	-1.547783e-08	-3.405067e+01	-1.015731e+03
5.000000e-07	-4.883477e-06	-1.535189e-08	-3.317644e+01	-1.007940e+03
5.100000e-07	-4.753006e-06	-1.521737e-08	-3.229008e+01	-9.995733e+02
5.200000e-07	-4.620751e-06	-1.508398e-08	-3.139159e+01	-9.904716e+02
5.300000e-07	-4.486781e-06	-1.495678e-08	-3.048144e+01	-9.806685e+02
5.400000e-07	-4.351228e-06	-1.481485e-08	-2.956055e+01	-9.703768e+02
5.500000e-07	-4.214052e-06	-1.465172e-08	-2.862863e+01	-9.598911e+02
5.600000e-07	-4.075254e-06	-1.448213e-08	-2.768569e+01	-9.494486e+02
5.700000e-07	-3.934893e-06	-1.431933e-08	-2.673214e+01	-9.391103e+02
5.800000e-07	-3.792924e-06	-1.415544e-08	-2.576765e+01	-9.287171e+02
5.900000e-07	-3.649465e-06	-1.397818e-08	-2.479304e+01	-9.179461e+02
6.000000e-07	-3.504709e-06	-1.379405e-08	-2.380963e+01	-9.064445e+02
6.100000e-07	-3.358738e-06	-1.361159e-08	-2.281796e+01	-8.939841e+02
6.200000e-07	-3.211513e-06	-1.342888e-08	-2.181777e+01	-8.805665e+02
6.300000e-07	-3.063143e-06	-1.322947e-08	-2.080980e+01	-8.664265e+02
6.400000e-07	-2.913749e-06	-1.300824e-08	-1.979488e+01	-8.519278e+02
6.500000e-07	-2.763381e-06	-1.277930e-08	-1.877333e+01	-8.373898e+02
6.600000e-07	-2.612096e-06	-1.255043e-08	-1.774557e+01	-8.229231e+02
6.700000e-07	-2.459850e-06	-1.231580e-08	-1.671126e+01	-8.083488e+02
6.800000e-07	-2.306687e-06	-1.206699e-08	-1.567073e+01	-7.932454e+02
6.900000e-07	-2.152651e-06	-1.181220e-08	-1.462427e+01	-7.771108e+02
7.000000e-07	-1.997744e-06	-1.155386e-08	-1.357190e+01	-7.595726e+02
7.100000e-07	-1.842206e-06	-1.128501e-08	-1.251523e+01	-7.405547e+02
7.200000e-07	-1.686158e-06	-1.099548e-08	-1.145510e+01	-7.203158e+02
7.300000e-07	-1.529459e-06	-1.068614e-08	-1.039055e+01	-6.993320e+02
7.400000e-07	-1.372011e-06	-1.036389e-08	-9.320910e+00	-6.780613e+02
7.500000e-07	-1.213994e-06	-1.002931e-08	-8.247404e+00	-6.566865e+02
7.600000e-07	-1.055594e-06	-9.676709e-09	-7.171293e+00	-6.349541e+02
7.700000e-07	-8.968096e-07	-9.303273e-09	-6.092576e+00	-6.121942e+02
7.800000e-07	-7.376929e-07	-8.912184e-09	-5.011599e+00	-5.875340e+02
7.900000e-07	-5.783399e-07	-8.499942e-09	-3.929016e+00	-5.602311e+02
8.000000e-07	-4.188325e-07	-8.061765e-09	-2.845385e+00	-5.299843e+02
8.100000e-07	-2.592063e-07	-7.589687e-09	-1.760947e+00	-4.970738e+02
8.200000e-07	-9.949701e-08	-7.084948e-09	-6.759440e-01	-4.622306e+02
8.300000e-07	6.023184e-08	-6.548747e-09	4.091917e-01	-4.262422e+02
8.400000e-07	2.198923e-07	-5.972918e-09	1.493863e+00	-3.894139e+02
8.500000e-07	3.794685e-07	-5.344485e-09	2.577961e+00	-3.510895e+02
8.600000e-07	5.389407e-07	-4.651847e-09	3.661354e+00	-3.094458e+02
8.700000e-07	6.982536e-07	-3.890496e-09	4.743663e+00	-2.617022e+02
8.800000e-07	8.573215e-07	-3.040197e-09	5.824309e+00	-2.047539e+02
8.900000e-07	1.016127e-06	-2.060958e-09	6.903173e+00	-1.360805e+02
9.000000e-07	1.174601e-06	-8.989509e-10	7.979780e+00	-5.466489e+01
9.100000e-07	1.332601e-06	4.890145e-10	9.053176e+00	3.837435e+01
9.200000e-07	1.490031e-06	2.090674e-09	1.012269e+01	1.396691e+02
9.300000e-07	1.646835e-06	3.794363e-09	1.118796e+01	2.440853e+02
9.400000e-07	1.803019e-06	5.419550e-09	1.224901e+01	3.456980e+02
9.500000e-07	1.958617e-06	6.825312e-09	1.330609e+01	4.389968e+02
9.600000e-07	2.113558e-06	7.972732e-09	1.435869e+01	5.199811e+02
9.700000e-07	2.267705e-06	8.901628e-09	1.540591e+01	5.868457e+02
9.800000e-07	2.421038e-06	9.667022e-09	1.644759e+01	6.400799e+02
9.900000e-07	2.573439e-06	1.031200e-08	1.748294e+01	6.819945e+02
1.000000e-06	2.724884e-06	1.086590e-08	1.851180e+01	7.158563e+02
1.010000e-06	2.875404e-06	1.135046e-08	1.953438e+01	7.449201e+02
1.020000e-06	3.024868e-06	1.178314e-08	2.054978e+01	7.716484e+02
1.030000e-06	3.173232e-06	1.217423e-08	2.155771e+01	7.973232e+02
1.040000e-06	3.320515e-06	1.252868e-08	2.255829e+01	8.221027e+02
1.050000e-06	3.466614e-06	1.284936e-08	2.355083e+01	8.454250e+02
1.060000e-06	3.611459e-06	1.314215e-08	2.453485e+01	8.665598e+02
1.070000e-06	3.755014e-06	1.341264e-08	2.551010e+01	8.850863e+02
1.080000e-06	3.897120e-06	1.366537e-08	2.647552e+01	9.011354e+02
1.090000e-06	4.037639e-06	1.390409e-08	2.743015e+01	9.153452e+02
1.100000e-06	4.176650e-06	1.413169e-08	2.837454e+01	9.285945e+02
1.110000e-06	4.314191e-06	1.434699e-08	2.930894e+01	9.416553e+02
1.120000e-06	4.450090e-06	1.454905e-08	3.023218e+01	9.549203e+02
1.130000e-06	4.584331e-06	1.473868e-08	3.114416e+01	9.683127e+02
1.140000e-06	4.716938e-06	1.491606e-08	3.204504e+01	9.813970e+02
1.150000e-06	4.847845e-06	1.508475e-08	3.293438e+01	9.936279e+02
1.160000e-06	4.977053e-06	1.524550e-08	3.381216e+01	1.004618e+03
1.170000e-06	5.104519e-06	1.539839e-08	3.467812e+01	1.014316e+03
1.180000e-06	5.230207e-06	1.554511e-08	3.553199e+01	1.023013e+03
1.190000e-06	5.354035e-06	1.568960e-08	3.637323e+01	1.031215e+03
1.200000e-06	5.475933e-06	1.583129e-08	3.720136e+01	1.039410e+03
1.210000e-06	5.595849e-06	1.596484e-08	3.801603e+01	1.047873e+03
1.220000e-06	5.713703e-06	1.608893e-08	3.881668e+01	1.056560e+03
1.230000e-06	5.829331e-06	1.620716e-08	3.960221e+01	1.065160e+03
1.240000e-06	5.942680e-06	1.631953e-08	4.037226e+01	1.073246e+03
1.250000e-06	6.053878e-06	1.642521e-08	4.112769e+01	1.080480e+03
1.260000e-06	6.163005e-06	1.652399e-08	4.186906e+01	1.086759e+03
1.270000e-06	6.269970e-06	1.661825e-08	4.259574e+01	1.092264e+03
1.280000e-06	6.374622e-06	1.671137e-08	4.330670e+01	1.097373e+03
1.290000e-06	6.477029e-06	1.680187e-08	4.400242e+01	1.102499e+03
1.300000e-06	6.577125e-06	1.688573e-08	4.468243e+01	1.107917e+03
1.310000e-06	6.674730e-06	1.696161e-08	4.534552e+01	1.113654e+03
1.320000e-06	6.769927e-06	1.703653e-08	4.599225e+01	1.119499e+03
1.330000e-06	6.862791e-06	1.711257e-08	4.662313e+01	1.125102e+03
1.340000e-06	6.953219e-06	1.718615e-08	4.723746e+01	1.130141e+03
1.350000e-06	7.041174e-06	1.725492e-08	4.783500e+01	1.134463e+03
1.360000e-06	7.126749e-06	1.731774e-08	4.841636e+01	1.138144e+03
1.370000e-06	7.209896e-06	1.737813e-08	4.898123e+01	1.141456e+03
1.380000e-06	7.290424e-06	1.743747e-08	4.952830e+01	1.144738e+03
1.390000e-06	7.368257e-06	1.749517e-08	5.005708e+01	1.148252e+03
1.400000e-06	7.443287e-06	1.755102e-08	5.056680e+01	1.152068e+03
1.410000e-06	7.515535e-06	1.760523e-08	5.105762e+01	1.156042e+03
1.420000e-06	7.585205e-06	1.765830e-08	5.153093e+01	1.159888e+03
1.430000e-06	7.652196e-06	1.770870e-08	5.198605e+01	1.163306e+03
1.440000e-06	7.716388e-06	1.775320e-08	5.242214e+01	1.166114e+03
1.450000e-06	7.777926e-06	1.779209e-08	5.284021e+01	1.168333e+03
1.460000e-06	7.836771e-06	1.782998e-08	5.323997e+01	1.170166e+03
1.470000e-06	7.892818e-06	1.786784e-08	5.362073e+01	1.171911e+03
1.480000e-06	7.945883e-06	1.790404e-08	5.398124e+01	1.173830e+03
1.490000e-06	7.995660e-06	1.793836e-08	5.431940e+01	1.176030e+03
1.500000e-06	8.042397e-06	1.797279e-08	5.463692e+01	1.178426e+03
1.510000e-06	8.086388e-06	1.800576e-08	5.493578e+01	1.180775e+03
1.520000e-06	8.127471e-06	1.803065e-08	5.521488e+01	1.182791e+03
1.530000e-06	8.165712e-06	1.804870e-08	5.547467e+01	1.184271e+03
1.540000e-06	8.201184e-06	1.806635e-08	5.571566e+01	1.185180e+03
1.550000e-06	8.233718e-06	1.808470e-08	5.593668e+01	1.185670e+03
1.560000e-06	8.263430e-06	1.810159e-08	5.613853e+01	1.186013e+03
1.570000e-06	8.290239e-06	1.811596e-08	5.632066e+01	1.186479e+03
1.580000e-06	8.313980e-06	1.812990e-08	5.648195e+01	1.187226e+03
1.590000e-06	8.334894e-06	1.814454e-08	5.662403e+01	1.188230e+03
1.600000e-06	8.352936e-06	1.815692e-08	5.674660e+01	1.189304e+03
1.610000e-06	8.367875e-06	1.816390e-08	5.684809e+01	1.190184e+03
1.620000e-06	8.379574e-06	1.816575e-08	5.692757e+01	1.190641e+03
1.630000e-06	8.388067e-06	1.816498e-08	5.698527e+01	1.190588e+03
1.640000e-06	8.393668e-06	1.816562e-08	5.702332e+01	1.190114e+03
1.650000e-06	8.396344e-06	1.816826e-08	5.704150e+01	1.189442e+03
1.660000e-06	8.396061e-06	1.816758e-08	5.703958e+01	1.188830e+03
1.670000e-06	8.393016e-06	1.816058e-08	5.701889e+01	1.188462e+03
1.680000e-06	8.387112e-06	1.815586e-08	5.697878e+01	1.188362e+03
1.690000e-06	8.378431e-06	1.814838e-08	5.691980e+01	1.188390e+03
1.700000e-06	8.366939e-06	1.813725e-08	5.684173e+01	1.188300e+03
1.710000e-06	8.352503e-06	1.812660e-08	5.674366e+01	1.187852e+03
1.720000e-06	8.335409e-06	1.812035e-08	5.662753e+01	1.186914e+03
1.730000e-06	8.315842e-06	1.810801e-08	5.649460e+01	1.185520e+03
1.740000e-06	8.293466e-06	1.802966e-08	5.634258e+01	1.183854e+03
1.750000e-06	8.267536e-06	1.799780e-08	5.616642e+01	1.182169e+03
1.760000e-06	8.237683e-06	1.799884e-08	5.596362e+01	1.180686e+03
1.770000e-06	8.204482e-06	1.798275e-08	5.573806e+01	1.179495e+03
1.780000e-06	8.168717e-06	1.798769e-08	5.549509e+01	1.178528e+03
1.790000e-06	8.130561e-06	1.803362e-08	5.523587e+01	1.177590e+03
1.800000e-06	8.090305e-06	1.798160e-08	5.496239e+01	1.176450e+03
1.810000e-06	8.047937e-06	1.789524e-08	5.467456e+01	1.174937e+03
1.820000e-06	8.002702e-06	1.793755e-08	5.436725e+01	1.173007e+03
1.830000e-06	7.954580e-06	1.784649e-08	5.404032e+01	1.170753e+03
1.840000e-06	7.903376e-06	1.785826e-08	5.369246e+01	1.168348e+03
1.850000e-06	7.848844e-06	1.785052e-08	5.332200e+01	1.165957e+03
1.860000e-06	7.791539e-06	1.780700e-08	5.293269e+01	1.163654e+03
1.870000e-06	7.731387e-06	1.784372e-08	5.252404e+01	1.161386e+03
1.880000e-06	7.668423e-06	1.770652e-08	5.209628e+01	1.158995e+03
1.890000e-06	7.602741e-06	1.765802e-08	5.165007e+01	1.156296e+03
1.900000e-06	7.534113e-06	1.757378e-08	5.118384e+01	1.153162e+03
1.910000e-06	7.462627e-06	1.752666e-08	5.069819e+01	1.149592e+03
1.920000e-06	7.388225e-06	1.752606e-08	5.019273e+01	1.145715e+03
1.930000e-06	7.311024e-06	1.746727e-08	4.966826e+01	1.141734e+03
1.940000e-06	7.231142e-06	1.747259e-08	4.912557e+01	1.137837e+03
1.950000e-06	7.148752e-06	1.735422e-08	4.856584e+01	1.134107e+03
1.960000e-06	7.063816e-06	1.729055e-08	4.798882e+01	1.130478e+03
1.970000e-06	6.976210e-06	1.718517e-08	4.739366e+01	1.126763e+03
1.980000e-06	6.886164e-06	1.708769e-08	4.678192e+01	1.122729e+03
1.990000e-06	6.793642e-06	1.706340e-08	4.615336e+01	1.118202e+03
2.000000e-06	6.698736e-06	1.700132e-08	4.550861e+01	1.113144e+03
2.010000e-06	6.601498e-06	1.696457e-08	4.484801e+01	1.107676e+03
2.020000e-06	6.501962e-06	1.685461e-08	4.417180e+01	1.102022e+03
2.030000e-06	6.400054e-06	1.677389e-08	4.347948e+01	1.096413e+03
2.040000e-06	6.295747e-06	1.666374e-08	4.277086e+01	1.090982e+03
2.050000e-06	6.189251e-06	1.657579e-08	4.204737e+01	1.085696e+03
2.060000e-06	6.080601e-06	1.648451e-08	4.130924e+01	1.080370e+03
2.070000e-06	5.969772e-06	1.638859e-08	4.055631e+01	1.074738e+03
2.080000e-06	5.856612e-06	1.630706e-08	3.978755e+01	1.068572e+03
2.090000e-06	5.741202e-06	1.620877e-08	3.900350e+01	1.061777e+03
2.100000e-06	5.623568e-06	1.610883e-08	3.820434e+01	1.054439e+03
2.110000e-06	5.503768e-06	1.598435e-08	3.739046e+01	1.046779e+03
2.120000e-06	5.381966e-06	1.587009e-08	3.656298e+01	1.039061e+03
2.130000e-06	5.258310e-06	1.574783e-08	3.572292e+01	1.031462e+03
2.140000e-06	5.132812e-06	1.563451e-08	3.487033e+01	1.023991e+03
2.150000e-06	5.005402e-06	1.550918e-08	3.400475e+01	1.016477e+03
2.160000e-06	4.876203e-06	1.538571e-08	3.312703e+01	1.008636e+03
2.170000e-06	4.745295e-06	1.525080e-08	3.223769e+01	1.000194e+03
2.180000e-06	4.612692e-06	1.511230e-08	3.133683e+01	9.910116e+02
2.190000e-06	4.478415e-06	1.496618e-08	3.042461e+01	9.811427e+02
2.200000e-06	4.342474e-06	1.481833e-08	2.950108e+01	9.708151e+02
2.210000e-06	4.204879e-06	1.466686e-08	2.856631e+01	9.603241e+02
2.220000e-06	4.065713e-06	1.451361e-08	2.762087e+01	9.498929e+02
2.230000e-06	3.924969e-06	1.435490e-08	2.666472e+01	9.395592e+02
2.240000e-06	3.782819e-06	1.418410e-08	2.569900e+01	9.291420e+02
2.250000e-06	3.639303e-06	1.400442e-08	2.472401e+01	9.183078e+02
2.260000e-06	3.494396e-06	1.381581e-08	2.373957e+01	9.067101e+02
2.270000e-06	3.348210e-06	1.362417e-08	2.274644e+01	8.941417e+02
2.280000e-06	3.200914e-06	1.342530e-08	2.174577e+01	8.806311e+02
2.290000e-06	3.052524e-06	1.322435e-08	2.073766e+01	8.664337e+02
2.300000e-06	2.902983e-06	1.301862e-08	1.972173e+01	8.519172e+02
2.310000e-06	2.752458e-06	1.280983e-08	1.869913e+01	8.373856e+02
2.320000e-06	2.601031e-06	1.258603e-08	1.767040e+01	8.229202e+02
2.330000e-06	2.448617e-06	1.234824e-08	1.663495e+01	8.083117e+02
2.340000e-06	2.295220e-06	1.209519e-08	1.559283e+01	7.931205e+02
2.350000e-06	2.140997e-06	1.183134e-08	1.454510e+01	7.768482e+02
2.360000e-06	1.986044e-06	1.155729e-08	1.349241e+01	7.591482e+02
2.370000e-06	1.830396e-06	1.127727e-08	1.243500e+01	7.399809e+02
2.380000e-06	1.674081e-06	1.099091e-08	1.137306e+01	7.196366e+02
2.390000e-06	1.517138e-06	1.069420e-08	1.030684e+01	6.986022e+02
2.400000e-06	1.359627e-06	1.038022e-08	9.236774e+00	6.773177e+02
2.410000e-06	1.201588e-06	1.004240e-08	8.163125e+00	6.559242e+02
2.420000e-06	1.043167e-06	9.683069e-09	7.086870e+00	6.341188e+02
2.430000e-06	8.845003e-07	9.304796e-09	6.008951e+00	6.111969e+02
2.440000e-06	7.255744e-07	8.907967e-09	4.929270e+00	5.862827e+02
2.450000e-06	5.663631e-07	8.489489e-09	3.847651e+00	5.586680e+02
2.460000e-06	4.069607e-07	8.047736e-09	2.764733e+00	5.281115e+02
2.470000e-06	2.474110e-07	7.579570e-09	1.680814e+00	4.949530e+02
2.480000e-06	8.769934e-08	7.079239e-09	5.957952e-01	4.599525e+02
2.490000e-06	-7.200377e-08	6.537821e-09	-4.891656e-01	4.238722e+02
2.500000e-06	-2.316064e-07	5.951077e-09	-1.573444e+00	3.869344e+02
2.510000e-06	-3.910997e-07	5.316950e-09	-2.656979e+00	3.483610e+02
2.520000e-06	-5.504335e-07	4.626198e-09	-3.739431e+00	3.062082e+02
2.530000e-06	-7.095669e-07	3.863380e-09	-4.820522e+00	2.576239e+02
2.540000e-06	-8.684126e-07	3.004966e-09	-5.899657e+00	1.995197e+02
2.550000e-06	-1.026957e-06	2.013195e-09	-6.976749e+00	1.294949e+02
2.560000e-06	-1.185168e-06	8.401602e-10	-8.051568e+00	4.673874e+01
2.570000e-06	-1.342902e-06	-5.582458e-10	-9.123155e+00	-4.738421e+01
2.580000e-06	-1.500107e-06	-2.172528e-09	-1.019114e+01	-1.492833e+02
2.590000e-06	-1.656767e-06	-3.886256e-09	-1.125543e+01	-2.536862e+02
2.600000e-06	-1.812866e-06	-5.513311e-09	-1.231591e+01	-3.546541e+02
2.610000e-06	-1.968309e-06	-6.913579e-09	-1.337192e+01	-4.467907e+02
2.620000e-06	-2.122949e-06	-8.056212e-09	-1.442249e+01	-5.263076e+02
2.630000e-06	-2.276832e-06	-8.984285e-09	-1.546791e+01	-5.916513e+02
2.640000e-06	-2.429916e-06	-9.753080e-09	-1.650790e+01	-6.435380e+02
2.650000e-06	-2.582055e-06	-1.040265e-08	-1.754147e+01	-6.844266e+02
2.660000e-06	-2.733238e-06	-1.096027e-08	-1.856856e+01	-7.176281e+02
2.670000e-06	-2.883454e-06	-1.144893e-08	-1.958906e+01	-7.463439e+02
2.680000e-06	-3.032626e-06	-1.188518e-08	-2.060248e+01	-7.729207e+02
2.690000e-06	-3.180703e-06	-1.227653e-08	-2.160846e+01	-7.985098e+02
2.700000e-06	-3.327710e-06	-1.262690e-08	-2.260717e+01	-8.231685e+02
2.710000e-06	-3.473573e-06	-1.294350e-08	-2.359811e+01	-8.462901e+02
2.720000e-06	-3.618169e-06	-1.323564e-08	-2.458043e+01	-8.671577e+02
2.730000e-06	-3.761417e-06	-1.350695e-08	-2.555361e+01	-8.854031e+02
2.740000e-06	-3.903270e-06	-1.376060e-08	-2.651730e+01	-9.012183e+02
2.750000e-06	-4.043609e-06	-1.399882e-08	-2.747071e+01	-9.152831e+02
2.760000e-06	-4.182345e-06	-1.422669e-08	-2.841322e+01	-9.284810e+02
2.770000e-06	-4.319494e-06	-1.444656e-08	-2.934496e+01	-9.415540e+02
2.780000e-06	-4.455051e-06	-1.465091e-08	-3.026588e+01	-9.548451e+02
2.790000e-06	-4.589012e-06	-1.483541e-08	-3.117597e+01	-9.682304e+02
2.800000e-06	-4.721371e-06	-1.500742e-08	-3.207516e+01	-9.812495e+02
2.810000e-06	-4.852101e-06	-1.517476e-08	-3.296329e+01	-9.933619e+02
2.820000e-06	-4.981136e-06	-1.533606e-08	-3.383990e+01	-1.004211e+03
2.830000e-06	-5.108391e-06	-1.549047e-08	-3.470442e+01	-1.013782e+03
2.840000e-06	-5.233810e-06	-1.563878e-08	-3.555647e+01	-1.022402e+03
2.850000e-06	-5.357370e-06	-1.578220e-08	-3.639589e+01	-1.030583e+03
2.860000e-06	-5.479050e-06	-1.591766e-08	-3.722254e+01	-1.038799e+03
2.870000e-06	-5.598743e-06	-1.604145e-08	-3.803569e+01	-1.047294e+03
2.880000e-06	-5.716308e-06	-1.615729e-08	-3.883438e+01	-1.055992e+03
2.890000e-06	-5.831568e-06	-1.626908e-08	-3.961741e+01	-1.064558e+03
2.900000e-06	-5.944433e-06	-1.637667e-08	-4.038417e+01	-1.072567e+03
2.910000e-06	-6.054983e-06	-1.647978e-08	-4.113520e+01	-1.079698e+03
2.920000e-06	-6.163388e-06	-1.657919e-08	-4.187166e+01	-1.085882e+03
2.930000e-06	-6.269746e-06	-1.667493e-08	-4.259422e+01	-1.091326e+03
2.940000e-06	-6.373971e-06	-1.676558e-08	-4.330228e+01	-1.096419e+03
