# Temperatura_=_54.14
# Concentracion g/m^3_=_13400.0
# C_Vs_to_Am_M_A/Vsm_=_65563218390.804596
# pendiente_HvsI_1/m_=_3716.3
# ordenada_HvsI_A/m_=_1297.0
# frecuencia_Hz_=_301440.89413902606

Tiempo_(s)	Campo_(V.s)	Magnetizacion_(V.s)	Campo_(kA/m)	Magnetizacion_(A/m)
0.000000e+00	-8.335333e-06	-1.835348e-08	-5.691240e+01	-1.204163e+03
1.000000e-08	-8.332175e-06	-1.835062e-08	-5.689084e+01	-1.203817e+03
2.000000e-08	-8.326297e-06	-1.834651e-08	-5.685071e+01	-1.203713e+03
3.000000e-08	-8.317848e-06	-1.834204e-08	-5.679302e+01	-1.203697e+03
4.000000e-08	-8.306546e-06	-1.833186e-08	-5.671585e+01	-1.203528e+03
5.000000e-08	-8.292206e-06	-1.831696e-08	-5.661794e+01	-1.202982e+03
6.000000e-08	-8.274895e-06	-1.829353e-08	-5.649974e+01	-1.201954e+03
7.000000e-08	-8.254975e-06	-1.825607e-08	-5.636373e+01	-1.200499e+03
8.000000e-08	-8.232518e-06	-1.828002e-08	-5.621040e+01	-1.198808e+03
9.000000e-08	-8.206934e-06	-1.834563e-08	-5.603572e+01	-1.197125e+03
1.000000e-07	-8.178023e-06	-1.829450e-08	-5.583831e+01	-1.195641e+03
1.100000e-07	-8.146029e-06	-1.823004e-08	-5.561987e+01	-1.194414e+03
1.200000e-07	-8.111041e-06	-1.820419e-08	-5.538097e+01	-1.193348e+03
1.300000e-07	-8.073299e-06	-1.815452e-08	-5.512328e+01	-1.192240e+03
1.400000e-07	-8.033251e-06	-1.804343e-08	-5.484984e+01	-1.190875e+03
1.500000e-07	-7.990790e-06	-1.803758e-08	-5.455992e+01	-1.189118e+03
1.600000e-07	-7.945493e-06	-1.813005e-08	-5.425064e+01	-1.186968e+03
1.700000e-07	-7.897333e-06	-1.799270e-08	-5.392181e+01	-1.184553e+03
1.800000e-07	-7.846244e-06	-1.805542e-08	-5.357298e+01	-1.182057e+03
1.900000e-07	-7.792153e-06	-1.804107e-08	-5.320365e+01	-1.179629e+03
2.000000e-07	-7.735226e-06	-1.788713e-08	-5.281496e+01	-1.177304e+03
2.100000e-07	-7.675462e-06	-1.786505e-08	-5.240691e+01	-1.174983e+03
2.200000e-07	-7.612979e-06	-1.776322e-08	-5.198028e+01	-1.172473e+03
2.300000e-07	-7.547791e-06	-1.778973e-08	-5.153519e+01	-1.169573e+03
2.400000e-07	-7.479720e-06	-1.773363e-08	-5.107041e+01	-1.166172e+03
2.500000e-07	-7.408923e-06	-1.769516e-08	-5.058702e+01	-1.162306e+03
2.600000e-07	-7.335327e-06	-1.766482e-08	-5.008452e+01	-1.158148e+03
2.700000e-07	-7.258787e-06	-1.758659e-08	-4.956191e+01	-1.153936e+03
2.800000e-07	-7.179422e-06	-1.752618e-08	-4.902002e+01	-1.149869e+03
2.900000e-07	-7.097309e-06	-1.740888e-08	-4.845936e+01	-1.146016e+03
3.000000e-07	-7.012739e-06	-1.738291e-08	-4.788193e+01	-1.142279e+03
3.100000e-07	-6.925919e-06	-1.732199e-08	-4.728914e+01	-1.138431e+03
3.200000e-07	-6.836710e-06	-1.726123e-08	-4.668003e+01	-1.134210e+03
3.300000e-07	-6.744967e-06	-1.720304e-08	-4.605362e+01	-1.129435e+03
3.400000e-07	-6.650810e-06	-1.710187e-08	-4.541073e+01	-1.124085e+03
3.500000e-07	-6.554292e-06	-1.703911e-08	-4.475172e+01	-1.118308e+03
3.600000e-07	-6.455344e-06	-1.695559e-08	-4.407612e+01	-1.112360e+03
3.700000e-07	-6.354032e-06	-1.687294e-08	-4.338438e+01	-1.106491e+03
3.800000e-07	-6.250419e-06	-1.676948e-08	-4.267693e+01	-1.100829e+03
3.900000e-07	-6.144519e-06	-1.668671e-08	-4.195386e+01	-1.095322e+03
4.000000e-07	-6.036414e-06	-1.659530e-08	-4.121573e+01	-1.089755e+03
4.100000e-07	-5.926254e-06	-1.648583e-08	-4.046358e+01	-1.083839e+03
4.200000e-07	-5.813915e-06	-1.638940e-08	-3.969654e+01	-1.077339e+03
4.300000e-07	-5.699291e-06	-1.629160e-08	-3.891390e+01	-1.070178e+03
4.400000e-07	-5.582442e-06	-1.620325e-08	-3.811608e+01	-1.062470e+03
4.500000e-07	-5.463472e-06	-1.609845e-08	-3.730377e+01	-1.054472e+03
4.600000e-07	-5.342500e-06	-1.597781e-08	-3.647779e+01	-1.046466e+03
4.700000e-07	-5.219643e-06	-1.584043e-08	-3.563894e+01	-1.038631e+03
4.800000e-07	-5.094918e-06	-1.570656e-08	-3.478733e+01	-1.030952e+03
4.900000e-07	-4.968386e-06	-1.557789e-08	-3.392339e+01	-1.023218e+03
5.000000e-07	-4.840023e-06	-1.544682e-08	-3.304695e+01	-1.015110e+03
5.100000e-07	-4.709816e-06	-1.531396e-08	-3.215792e+01	-1.006334e+03
5.200000e-07	-4.577936e-06	-1.518227e-08	-3.125746e+01	-9.967558e+02
5.300000e-07	-4.444446e-06	-1.504602e-08	-3.034601e+01	-9.864574e+02
5.400000e-07	-4.309445e-06	-1.489479e-08	-2.942424e+01	-9.757066e+02
5.500000e-07	-4.172854e-06	-1.472547e-08	-2.849162e+01	-9.648348e+02
5.600000e-07	-4.034619e-06	-1.455140e-08	-2.754778e+01	-9.540822e+02
5.700000e-07	-3.894836e-06	-1.437869e-08	-2.659336e+01	-9.434789e+02
5.800000e-07	-3.753390e-06	-1.420438e-08	-2.562758e+01	-9.328161e+02
5.900000e-07	-3.610361e-06	-1.402083e-08	-2.465100e+01	-9.217251e+02
6.000000e-07	-3.466026e-06	-1.383406e-08	-2.366551e+01	-9.098326e+02
6.100000e-07	-3.320484e-06	-1.364988e-08	-2.267177e+01	-8.969252e+02
6.200000e-07	-3.173765e-06	-1.346251e-08	-2.167000e+01	-8.830485e+02
6.300000e-07	-3.025939e-06	-1.326023e-08	-2.066065e+01	-8.684900e+02
6.400000e-07	-2.877135e-06	-1.303646e-08	-1.964465e+01	-8.536503e+02
6.500000e-07	-2.727413e-06	-1.280281e-08	-1.862237e+01	-8.388509e+02
6.600000e-07	-2.576729e-06	-1.256060e-08	-1.759352e+01	-8.241674e+02
6.700000e-07	-2.425118e-06	-1.231474e-08	-1.655834e+01	-8.093626e+02
6.800000e-07	-2.272637e-06	-1.206357e-08	-1.551723e+01	-7.939598e+02
6.900000e-07	-2.119283e-06	-1.180905e-08	-1.447015e+01	-7.774306e+02
7.000000e-07	-1.965079e-06	-1.154598e-08	-1.341726e+01	-7.594201e+02
7.100000e-07	-1.810147e-06	-1.126947e-08	-1.235941e+01	-7.399070e+02
7.200000e-07	-1.654625e-06	-1.097573e-08	-1.129753e+01	-7.192193e+02
7.300000e-07	-1.498552e-06	-1.066260e-08	-1.023189e+01	-6.978839e+02
7.400000e-07	-1.341924e-06	-1.033298e-08	-9.162459e+00	-6.763649e+02
7.500000e-07	-1.184746e-06	-9.986661e-09	-8.089267e+00	-6.547983e+02
7.600000e-07	-1.027120e-06	-9.626336e-09	-7.013024e+00	-6.328470e+02
7.700000e-07	-8.691288e-07	-9.248674e-09	-5.934282e+00	-6.097565e+02
7.800000e-07	-7.107794e-07	-8.854961e-09	-4.853095e+00	-5.846080e+02
7.900000e-07	-5.521982e-07	-8.437812e-09	-3.770327e+00	-5.566765e+02
8.000000e-07	-3.934937e-07	-7.990529e-09	-2.686716e+00	-5.257401e+02
8.100000e-07	-2.346502e-07	-7.507843e-09	-1.602157e+00	-4.921860e+02
8.200000e-07	-7.572519e-08	-6.992597e-09	-5.170402e-01	-4.568252e+02
8.300000e-07	8.324297e-08	-6.446062e-09	5.683705e-01	-4.204433e+02
8.400000e-07	2.421666e-07	-5.856390e-09	1.653477e+00	-3.832328e+02
8.500000e-07	4.009965e-07	-5.213547e-09	2.737944e+00	-3.443254e+02
8.600000e-07	5.597137e-07	-4.504860e-09	3.821641e+00	-3.016448e+02
8.700000e-07	7.181861e-07	-3.721157e-09	4.903667e+00	-2.522043e+02
8.800000e-07	8.763605e-07	-2.838942e-09	5.983658e+00	-1.928304e+02
8.900000e-07	1.034249e-06	-1.819207e-09	7.061699e+00	-1.211307e+02
9.000000e-07	1.191762e-06	-6.048951e-10	8.137170e+00	-3.641627e+01
9.100000e-07	1.348811e-06	8.480734e-10	9.209480e+00	5.972686e+01
9.200000e-07	1.505344e-06	2.509390e-09	1.027827e+01	1.634340e+02
9.300000e-07	1.661312e-06	4.239436e-09	1.134319e+01	2.691737e+02
9.400000e-07	1.816749e-06	5.842462e-09	1.240449e+01	3.708303e+02
9.500000e-07	1.971610e-06	7.196706e-09	1.346185e+01	4.629603e+02
9.600000e-07	2.125726e-06	8.292812e-09	1.451414e+01	5.418682e+02
9.700000e-07	2.279006e-06	9.185625e-09	1.556071e+01	6.062055e+02
9.800000e-07	2.431426e-06	9.926496e-09	1.660141e+01	6.569481e+02
9.900000e-07	2.582957e-06	1.055194e-08	1.763604e+01	6.967997e+02
1.000000e-06	2.733529e-06	1.109059e-08	1.866413e+01	7.292426e+02
1.010000e-06	2.883104e-06	1.156165e-08	1.968540e+01	7.575442e+02
1.020000e-06	3.031626e-06	1.198311e-08	2.069949e+01	7.840144e+02
1.030000e-06	3.179141e-06	1.236158e-08	2.170670e+01	8.096978e+02
1.040000e-06	3.325593e-06	1.270261e-08	2.270665e+01	8.345229e+02
1.050000e-06	3.470735e-06	1.301761e-08	2.369766e+01	8.577790e+02
1.060000e-06	3.614584e-06	1.331745e-08	2.467984e+01	8.786998e+02
1.070000e-06	3.757085e-06	1.359621e-08	2.565281e+01	8.969272e+02
1.080000e-06	3.898138e-06	1.384787e-08	2.661590e+01	9.127054e+02
1.090000e-06	4.037724e-06	1.408057e-08	2.756897e+01	9.267776e+02
1.100000e-06	4.175817e-06	1.430488e-08	2.851185e+01	9.400729e+02
1.110000e-06	4.312390e-06	1.451940e-08	2.944435e+01	9.533419e+02
1.120000e-06	4.447383e-06	1.471897e-08	3.036606e+01	9.668989e+02
1.130000e-06	4.580746e-06	1.490654e-08	3.127665e+01	9.805689e+02
1.140000e-06	4.712477e-06	1.508800e-08	3.217609e+01	9.938398e+02
1.150000e-06	4.842545e-06	1.526736e-08	3.306417e+01	1.006140e+03
1.160000e-06	4.970838e-06	1.543492e-08	3.394013e+01	1.017113e+03
1.170000e-06	5.097419e-06	1.558976e-08	3.480441e+01	1.026771e+03
1.180000e-06	5.222274e-06	1.573719e-08	3.565690e+01	1.035484e+03
1.190000e-06	5.345252e-06	1.588232e-08	3.649658e+01	1.043801e+03
1.200000e-06	5.466247e-06	1.602357e-08	3.732271e+01	1.052218e+03
1.210000e-06	5.585248e-06	1.615414e-08	3.813523e+01	1.060970e+03
1.220000e-06	5.702204e-06	1.627715e-08	3.893380e+01	1.069958e+03
1.230000e-06	5.816917e-06	1.639911e-08	3.971704e+01	1.078814e+03
1.240000e-06	5.929386e-06	1.651907e-08	4.048496e+01	1.087086e+03
1.250000e-06	6.039775e-06	1.663276e-08	4.123868e+01	1.094440e+03
1.260000e-06	6.148103e-06	1.673838e-08	4.197833e+01	1.100810e+03
1.270000e-06	6.254206e-06	1.683679e-08	4.270278e+01	1.106421e+03
1.280000e-06	6.358016e-06	1.692997e-08	4.341158e+01	1.111681e+03
1.290000e-06	6.459541e-06	1.701841e-08	4.410478e+01	1.117011e+03
1.300000e-06	6.558696e-06	1.710163e-08	4.478180e+01	1.122664e+03
1.310000e-06	6.655409e-06	1.718061e-08	4.544213e+01	1.128632e+03
1.320000e-06	6.749740e-06	1.726081e-08	4.608621e+01	1.134669e+03
1.330000e-06	6.841778e-06	1.734242e-08	4.671464e+01	1.140410e+03
1.340000e-06	6.931412e-06	1.742085e-08	4.732664e+01	1.145540e+03
1.350000e-06	7.018590e-06	1.749243e-08	4.792188e+01	1.149933e+03
1.360000e-06	7.103365e-06	1.755675e-08	4.850071e+01	1.153699e+03
1.370000e-06	7.185644e-06	1.761791e-08	4.906250e+01	1.157132e+03
1.380000e-06	7.265346e-06	1.767861e-08	4.960670e+01	1.160574e+03
1.390000e-06	7.342350e-06	1.773864e-08	5.013246e+01	1.164266e+03
1.400000e-06	7.416580e-06	1.779423e-08	5.063929e+01	1.168249e+03
1.410000e-06	7.488137e-06	1.784657e-08	5.112788e+01	1.172352e+03
1.420000e-06	7.557082e-06	1.789915e-08	5.159862e+01	1.176278e+03
1.430000e-06	7.623271e-06	1.795246e-08	5.205055e+01	1.179738e+03
1.440000e-06	7.686721e-06	1.800151e-08	5.248378e+01	1.182580e+03
1.450000e-06	7.747554e-06	1.804417e-08	5.289914e+01	1.184852e+03
1.460000e-06	7.805639e-06	1.808470e-08	5.329573e+01	1.186780e+03
1.470000e-06	7.860949e-06	1.812293e-08	5.367338e+01	1.188660e+03
1.480000e-06	7.913240e-06	1.815963e-08	5.403042e+01	1.190729e+03
1.490000e-06	7.962303e-06	1.819340e-08	5.436541e+01	1.193063e+03
1.500000e-06	8.008465e-06	1.822504e-08	5.468060e+01	1.195548e+03
1.510000e-06	8.051848e-06	1.825548e-08	5.497681e+01	1.197932e+03
1.520000e-06	8.092346e-06	1.828255e-08	5.525333e+01	1.199945e+03
1.530000e-06	8.130064e-06	1.830676e-08	5.551086e+01	1.201415e+03
1.540000e-06	8.164955e-06	1.832801e-08	5.574909e+01	1.202344e+03
1.550000e-06	8.196922e-06	1.834748e-08	5.596735e+01	1.202907e+03
1.560000e-06	8.226078e-06	1.836642e-08	5.616642e+01	1.203375e+03
1.570000e-06	8.252252e-06	1.838032e-08	5.634514e+01	1.203991e+03
1.580000e-06	8.275416e-06	1.839244e-08	5.650330e+01	1.204869e+03
1.590000e-06	8.295804e-06	1.840667e-08	5.664251e+01	1.205946e+03
1.600000e-06	8.313325e-06	1.841864e-08	5.676214e+01	1.207015e+03
1.610000e-06	8.327788e-06	1.842632e-08	5.686089e+01	1.207817e+03
1.620000e-06	8.338964e-06	1.842928e-08	5.693720e+01	1.208161e+03
1.630000e-06	8.346932e-06	1.842923e-08	5.699160e+01	1.208006e+03
1.640000e-06	8.352049e-06	1.842892e-08	5.702654e+01	1.207477e+03
1.650000e-06	8.354240e-06	1.843107e-08	5.704150e+01	1.206813e+03
1.660000e-06	8.353532e-06	1.842935e-08	5.703667e+01	1.206255e+03
1.670000e-06	8.350154e-06	1.842189e-08	5.701360e+01	1.205946e+03
1.680000e-06	8.343950e-06	1.841910e-08	5.697124e+01	1.205865e+03
1.690000e-06	8.334904e-06	1.841117e-08	5.690947e+01	1.205842e+03
1.700000e-06	8.322944e-06	1.839700e-08	5.682781e+01	1.205630e+03
1.710000e-06	8.308111e-06	1.838722e-08	5.672654e+01	1.205018e+03
1.720000e-06	8.290746e-06	1.839231e-08	5.660797e+01	1.203921e+03
1.730000e-06	8.270840e-06	1.837582e-08	5.647205e+01	1.202417e+03
1.740000e-06	8.248033e-06	1.824895e-08	5.631633e+01	1.200711e+03
1.750000e-06	8.221709e-06	1.823879e-08	5.613660e+01	1.199046e+03
1.760000e-06	8.191525e-06	1.826275e-08	5.593051e+01	1.197599e+03
1.770000e-06	8.158045e-06	1.823009e-08	5.570191e+01	1.196403e+03
1.780000e-06	8.122021e-06	1.823929e-08	5.545595e+01	1.195343e+03
1.790000e-06	8.083691e-06	1.834030e-08	5.519423e+01	1.194210e+03
1.800000e-06	8.043331e-06	1.821218e-08	5.491866e+01	1.192793e+03
1.810000e-06	8.000796e-06	1.814371e-08	5.462824e+01	1.190975e+03
1.820000e-06	7.955366e-06	1.822208e-08	5.431805e+01	1.188777e+03
1.830000e-06	7.907067e-06	1.802503e-08	5.398827e+01	1.186338e+03
1.840000e-06	7.855616e-06	1.812164e-08	5.363697e+01	1.183843e+03
1.850000e-06	7.800871e-06	1.805521e-08	5.326318e+01	1.181429e+03
1.860000e-06	7.743417e-06	1.803910e-08	5.287089e+01	1.179113e+03
1.870000e-06	7.683141e-06	1.809159e-08	5.245934e+01	1.176778e+03
1.880000e-06	7.620202e-06	1.788908e-08	5.202959e+01	1.174222e+03
1.890000e-06	7.554502e-06	1.792396e-08	5.158101e+01	1.171253e+03
1.900000e-06	7.485853e-06	1.776814e-08	5.111228e+01	1.167779e+03
1.910000e-06	7.414380e-06	1.774139e-08	5.062428e+01	1.163857e+03
1.920000e-06	7.339988e-06	1.772639e-08	5.011634e+01	1.159675e+03
1.930000e-06	7.262817e-06	1.765508e-08	4.958943e+01	1.155473e+03
1.940000e-06	7.182936e-06	1.769366e-08	4.904401e+01	1.151435e+03
1.950000e-06	7.100600e-06	1.751841e-08	4.848183e+01	1.147607e+03
1.960000e-06	7.015715e-06	1.751287e-08	4.790225e+01	1.143870e+03
1.970000e-06	6.928133e-06	1.736546e-08	4.730425e+01	1.139982e+03
1.980000e-06	6.838173e-06	1.729340e-08	4.669002e+01	1.135690e+03
1.990000e-06	6.745796e-06	1.726385e-08	4.605928e+01	1.130829e+03
2.000000e-06	6.650982e-06	1.716941e-08	4.541191e+01	1.125404e+03
2.010000e-06	6.553894e-06	1.714278e-08	4.474900e+01	1.119584e+03
2.020000e-06	6.454586e-06	1.700296e-08	4.407094e+01	1.113633e+03
2.030000e-06	6.352806e-06	1.695319e-08	4.337601e+01	1.107789e+03
2.040000e-06	6.248621e-06	1.682175e-08	4.266465e+01	1.102156e+03
2.050000e-06	6.142299e-06	1.675323e-08	4.193869e+01	1.096655e+03
2.060000e-06	6.033854e-06	1.664936e-08	4.119825e+01	1.091055e+03
2.070000e-06	5.923316e-06	1.654975e-08	4.044352e+01	1.085066e+03
2.080000e-06	5.810571e-06	1.645560e-08	3.967371e+01	1.078471e+03
2.090000e-06	5.695454e-06	1.633683e-08	3.888770e+01	1.071220e+03
2.100000e-06	5.578017e-06	1.623586e-08	3.808586e+01	1.063452e+03
2.110000e-06	5.458526e-06	1.610842e-08	3.727000e+01	1.055435e+03
2.120000e-06	5.337119e-06	1.600366e-08	3.644105e+01	1.047446e+03
2.130000e-06	5.213840e-06	1.587332e-08	3.559932e+01	1.039638e+03
2.140000e-06	5.088664e-06	1.576053e-08	3.474464e+01	1.031966e+03
2.150000e-06	4.961622e-06	1.562186e-08	3.387721e+01	1.024199e+03
2.160000e-06	4.832826e-06	1.549278e-08	3.299781e+01	1.016010e+03
2.170000e-06	4.702326e-06	1.534695e-08	3.210678e+01	1.007122e+03
2.180000e-06	4.570093e-06	1.520822e-08	3.120391e+01	9.974293e+02
2.190000e-06	4.436229e-06	1.505757e-08	3.028990e+01	9.870458e+02
2.200000e-06	4.300784e-06	1.490531e-08	2.936511e+01	9.762570e+02
2.210000e-06	4.163744e-06	1.474573e-08	2.842942e+01	9.653904e+02
2.220000e-06	4.025169e-06	1.458355e-08	2.748325e+01	9.546620e+02
2.230000e-06	3.884978e-06	1.441819e-08	2.652605e+01	9.440670e+02
2.240000e-06	3.743332e-06	1.424030e-08	2.555891e+01	9.333667e+02
2.250000e-06	3.600357e-06	1.406050e-08	2.458269e+01	9.221809e+02
2.260000e-06	3.456064e-06	1.387041e-08	2.359749e+01	9.101500e+02
2.270000e-06	3.310572e-06	1.367551e-08	2.260409e+01	8.970940e+02
2.280000e-06	3.163932e-06	1.346646e-08	2.160285e+01	8.830968e+02
2.290000e-06	3.016073e-06	1.325637e-08	2.059329e+01	8.684723e+02
2.300000e-06	2.867091e-06	1.304176e-08	1.957607e+01	8.536219e+02
2.310000e-06	2.717192e-06	1.282748e-08	1.855258e+01	8.388406e+02
2.320000e-06	2.566426e-06	1.260035e-08	1.752317e+01	8.241603e+02
2.330000e-06	2.414754e-06	1.235930e-08	1.648758e+01	8.093019e+02
2.340000e-06	2.262146e-06	1.209851e-08	1.544559e+01	7.937679e+02
2.350000e-06	2.108722e-06	1.182805e-08	1.439804e+01	7.770412e+02
2.360000e-06	1.954571e-06	1.155114e-08	1.334551e+01	7.588076e+02
2.370000e-06	1.799679e-06	1.126845e-08	1.228794e+01	7.390986e+02
2.380000e-06	1.644151e-06	1.097548e-08	1.122602e+01	7.182834e+02
2.390000e-06	1.487985e-06	1.067078e-08	1.015974e+01	6.968975e+02
2.400000e-06	1.331169e-06	1.035093e-08	9.089022e+00	6.753727e+02
2.410000e-06	1.173831e-06	1.000856e-08	8.014741e+00	6.537820e+02
2.420000e-06	1.016036e-06	9.643587e-09	6.937343e+00	6.317205e+02
2.430000e-06	8.579284e-07	9.255232e-09	5.857807e+00	6.083908e+02
2.440000e-06	6.995789e-07	8.848153e-09	4.776620e+00	5.828791e+02
2.450000e-06	5.410185e-07	8.424461e-09	3.693993e+00	5.545166e+02
2.460000e-06	3.822947e-07	7.981295e-09	2.610251e+00	5.231683e+02
2.470000e-06	2.234710e-07	7.509033e-09	1.525826e+00	4.893002e+02
2.480000e-06	6.457294e-08	6.998176e-09	4.408943e-01	4.537520e+02
2.490000e-06	-9.435026e-08	6.444489e-09	-6.442094e-01	4.172597e+02
2.500000e-06	-2.532108e-07	5.843894e-09	-1.728886e+00	3.798874e+02
2.510000e-06	-4.119567e-07	5.190142e-09	-2.812778e+00	3.405938e+02
2.520000e-06	-5.705560e-07	4.475643e-09	-3.895671e+00	2.971432e+02
2.530000e-06	-7.289508e-07	3.686652e-09	-4.977167e+00	2.464697e+02
2.540000e-06	-8.870929e-07	2.801536e-09	-6.056937e+00	1.854497e+02
2.550000e-06	-1.044978e-06	1.776655e-09	-7.134951e+00	1.118828e+02
2.560000e-06	-1.202473e-06	5.554442e-10	-8.210304e+00	2.538147e+01
2.570000e-06	-1.359461e-06	-9.064273e-10	-9.282195e+00	-7.212804e+01
2.580000e-06	-1.515864e-06	-2.581103e-09	-1.035009e+01	-1.764921e+02
2.590000e-06	-1.671579e-06	-4.323197e-09	-1.141329e+01	-2.820218e+02
2.600000e-06	-1.826691e-06	-5.934063e-09	-1.247237e+01	-3.826210e+02
2.610000e-06	-1.981218e-06	-7.290821e-09	-1.352746e+01	-4.730384e+02
2.620000e-06	-2.135041e-06	-8.387429e-09	-1.457774e+01	-5.498909e+02
2.630000e-06	-2.288067e-06	-9.275416e-09	-1.562258e+01	-6.121783e+02
2.640000e-06	-2.440177e-06	-1.000878e-08	-1.666117e+01	-6.611712e+02
2.650000e-06	-2.591356e-06	-1.063176e-08	-1.769339e+01	-6.997470e+02
2.660000e-06	-2.741676e-06	-1.117598e-08	-1.871975e+01	-7.314153e+02
2.670000e-06	-2.891110e-06	-1.165847e-08	-1.974007e+01	-7.593432e+02
2.680000e-06	-3.039486e-06	-1.208794e-08	-2.075315e+01	-7.856677e+02
2.690000e-06	-3.186734e-06	-1.247249e-08	-2.175854e+01	-8.112550e+02
2.700000e-06	-3.332864e-06	-1.281982e-08	-2.275629e+01	-8.359080e+02
2.710000e-06	-3.477783e-06	-1.313515e-08	-2.374578e+01	-8.588728e+02
2.720000e-06	-3.621391e-06	-1.342377e-08	-2.472631e+01	-8.794184e+02
2.730000e-06	-3.763687e-06	-1.369021e-08	-2.569789e+01	-8.972679e+02
2.740000e-06	-3.904577e-06	-1.394148e-08	-2.665987e+01	-9.127495e+02
2.750000e-06	-4.043939e-06	-1.418342e-08	-2.761141e+01	-9.266553e+02
2.760000e-06	-4.181820e-06	-1.441745e-08	-2.855284e+01	-9.399101e+02
2.770000e-06	-4.318166e-06	-1.463891e-08	-2.948379e+01	-9.532139e+02
2.780000e-06	-4.452901e-06	-1.484205e-08	-3.040374e+01	-9.668091e+02
2.790000e-06	-4.586028e-06	-1.502781e-08	-3.131271e+01	-9.804591e+02
2.800000e-06	-4.717475e-06	-1.520366e-08	-3.221022e+01	-9.936250e+02
2.810000e-06	-4.847286e-06	-1.537113e-08	-3.309654e+01	-1.005751e+03
2.820000e-06	-4.975437e-06	-1.552938e-08	-3.397154e+01	-1.016527e+03
2.830000e-06	-5.101826e-06	-1.568342e-08	-3.483451e+01	-1.026022e+03
2.840000e-06	-5.226409e-06	-1.583470e-08	-3.568514e+01	-1.034644e+03
2.850000e-06	-5.349135e-06	-1.598077e-08	-3.652309e+01	-1.042950e+03
2.860000e-06	-5.469942e-06	-1.611871e-08	-3.734794e+01	-1.051409e+03
2.870000e-06	-5.588730e-06	-1.624703e-08	-3.815901e+01	-1.060209e+03
2.880000e-06	-5.705332e-06	-1.636745e-08	-3.895515e+01	-1.069206e+03
2.890000e-06	-5.819588e-06	-1.648295e-08	-3.973527e+01	-1.078008e+03
2.900000e-06	-5.931467e-06	-1.659398e-08	-4.049917e+01	-1.086164e+03
2.910000e-06	-6.041082e-06	-1.669771e-08	-4.124760e+01	-1.093376e+03
2.920000e-06	-6.148629e-06	-1.679547e-08	-4.198191e+01	-1.099619e+03
2.930000e-06	-6.254170e-06	-1.689040e-08	-4.270253e+01	-1.105153e+03
2.940000e-06	-6.357474e-06	-1.698435e-08	-4.340788e+01	-1.110401e+03
