# Temperatura_=_28.97
# Concentracion g/m^3_=_13400.0
# C_Vs_to_Am_M_A/Vsm_=_65563218390.804596
# pendiente_HvsI_1/m_=_3716.3
# ordenada_HvsI_A/m_=_1297.0
# frecuencia_Hz_=_301432.4911402648

Tiempo_(s)	Campo_(V.s)	Magnetizacion_(V.s)	Campo_(kA/m)	Magnetizacion_(A/m)
0.000000e+00	-8.360683e-06	-1.786782e-08	-5.691814e+01	-1.171462e+03
1.000000e-08	-8.357727e-06	-1.786404e-08	-5.689802e+01	-1.170968e+03
2.000000e-08	-8.352004e-06	-1.785614e-08	-5.685906e+01	-1.170707e+03
3.000000e-08	-8.343667e-06	-1.784846e-08	-5.680230e+01	-1.170622e+03
4.000000e-08	-8.332430e-06	-1.783954e-08	-5.672580e+01	-1.170535e+03
5.000000e-08	-8.318108e-06	-1.782929e-08	-5.662830e+01	-1.170225e+03
6.000000e-08	-8.300813e-06	-1.781660e-08	-5.651056e+01	-1.169524e+03
7.000000e-08	-8.280911e-06	-1.779964e-08	-5.637507e+01	-1.168392e+03
8.000000e-08	-8.258525e-06	-1.780652e-08	-5.622267e+01	-1.166932e+03
9.000000e-08	-8.233040e-06	-1.784312e-08	-5.604917e+01	-1.165348e+03
1.000000e-07	-8.204149e-06	-1.781441e-08	-5.585249e+01	-1.163855e+03
1.100000e-07	-8.172125e-06	-1.776358e-08	-5.563447e+01	-1.162588e+03
1.200000e-07	-8.137163e-06	-1.772780e-08	-5.539645e+01	-1.161547e+03
1.300000e-07	-8.099473e-06	-1.768135e-08	-5.513987e+01	-1.160601e+03
1.400000e-07	-8.059439e-06	-1.761428e-08	-5.486732e+01	-1.159548e+03
1.500000e-07	-8.016978e-06	-1.759362e-08	-5.457826e+01	-1.158197e+03
1.600000e-07	-7.971678e-06	-1.765891e-08	-5.426986e+01	-1.156452e+03
1.700000e-07	-7.923484e-06	-1.757881e-08	-5.394177e+01	-1.154342e+03
1.800000e-07	-7.872349e-06	-1.759017e-08	-5.359365e+01	-1.152001e+03
1.900000e-07	-7.818158e-06	-1.758160e-08	-5.322472e+01	-1.149597e+03
2.000000e-07	-7.761078e-06	-1.745201e-08	-5.283613e+01	-1.147250e+03
2.100000e-07	-7.701211e-06	-1.741643e-08	-5.242857e+01	-1.144978e+03
2.200000e-07	-7.638625e-06	-1.735135e-08	-5.200249e+01	-1.142687e+03
2.300000e-07	-7.573325e-06	-1.735869e-08	-5.155794e+01	-1.140219e+03
2.400000e-07	-7.505152e-06	-1.732922e-08	-5.109383e+01	-1.137422e+03
2.500000e-07	-7.434222e-06	-1.727995e-08	-5.061095e+01	-1.134229e+03
2.600000e-07	-7.360448e-06	-1.724466e-08	-5.010871e+01	-1.130687e+03
2.700000e-07	-7.283751e-06	-1.717484e-08	-4.958657e+01	-1.126939e+03
2.800000e-07	-7.204251e-06	-1.711693e-08	-4.904535e+01	-1.123158e+03
2.900000e-07	-7.122027e-06	-1.702677e-08	-4.848558e+01	-1.119467e+03
3.000000e-07	-7.037345e-06	-1.699442e-08	-4.790908e+01	-1.115876e+03
3.100000e-07	-6.950359e-06	-1.695493e-08	-4.731689e+01	-1.112280e+03
3.200000e-07	-6.860976e-06	-1.689258e-08	-4.670838e+01	-1.108494e+03
3.300000e-07	-6.769064e-06	-1.683232e-08	-4.608267e+01	-1.104340e+03
3.400000e-07	-6.674767e-06	-1.673598e-08	-4.544071e+01	-1.099726e+03
3.500000e-07	-6.578166e-06	-1.666936e-08	-4.478306e+01	-1.094688e+03
3.600000e-07	-6.479095e-06	-1.660080e-08	-4.410861e+01	-1.089376e+03
3.700000e-07	-6.377595e-06	-1.652903e-08	-4.341761e+01	-1.083983e+03
3.800000e-07	-6.273843e-06	-1.644255e-08	-4.271128e+01	-1.078660e+03
3.900000e-07	-6.167841e-06	-1.636460e-08	-4.198964e+01	-1.073441e+03
4.000000e-07	-6.059586e-06	-1.628977e-08	-4.125265e+01	-1.068221e+03
4.100000e-07	-5.949185e-06	-1.619251e-08	-4.050107e+01	-1.062797e+03
4.200000e-07	-5.836604e-06	-1.609391e-08	-3.973463e+01	-1.056957e+03
4.300000e-07	-5.721740e-06	-1.598930e-08	-3.895266e+01	-1.050570e+03
4.400000e-07	-5.604568e-06	-1.590113e-08	-3.815497e+01	-1.043652e+03
4.500000e-07	-5.485279e-06	-1.580682e-08	-3.734287e+01	-1.036354e+03
4.600000e-07	-5.364048e-06	-1.569924e-08	-3.651755e+01	-1.028895e+03
4.700000e-07	-5.240886e-06	-1.558059e-08	-3.567908e+01	-1.021466e+03
4.800000e-07	-5.115828e-06	-1.546481e-08	-3.482771e+01	-1.014129e+03
4.900000e-07	-4.988976e-06	-1.535269e-08	-3.396412e+01	-1.006787e+03
5.000000e-07	-4.860337e-06	-1.522745e-08	-3.308837e+01	-9.992109e+02
5.100000e-07	-4.729871e-06	-1.509220e-08	-3.220018e+01	-9.911411e+02
5.200000e-07	-4.597670e-06	-1.495835e-08	-3.130018e+01	-9.823965e+02
5.300000e-07	-4.463839e-06	-1.483146e-08	-3.038908e+01	-9.729581e+02
5.400000e-07	-4.328453e-06	-1.469073e-08	-2.946739e+01	-9.629797e+02
5.500000e-07	-4.191426e-06	-1.453124e-08	-2.853453e+01	-9.527205e+02
5.600000e-07	-4.052780e-06	-1.437069e-08	-2.759065e+01	-9.424248e+02
5.700000e-07	-3.912634e-06	-1.421779e-08	-2.663656e+01	-9.322029e+02
5.800000e-07	-3.770933e-06	-1.405735e-08	-2.567188e+01	-9.219662e+02
5.900000e-07	-3.627723e-06	-1.387713e-08	-2.469693e+01	-9.114499e+02
6.000000e-07	-3.483162e-06	-1.369338e-08	-2.371279e+01	-9.003165e+02
6.100000e-07	-3.337303e-06	-1.351768e-08	-2.271981e+01	-8.882989e+02
6.200000e-07	-3.190198e-06	-1.334023e-08	-2.171834e+01	-8.753179e+02
6.300000e-07	-3.041972e-06	-1.314050e-08	-2.070924e+01	-8.615202e+02
6.400000e-07	-2.892725e-06	-1.292033e-08	-1.969320e+01	-8.472144e+02
6.500000e-07	-2.742466e-06	-1.269770e-08	-1.867026e+01	-8.327269e+02
6.600000e-07	-2.591269e-06	-1.247520e-08	-1.764093e+01	-8.182396e+02
6.700000e-07	-2.439249e-06	-1.224484e-08	-1.660601e+01	-8.036815e+02
6.800000e-07	-2.286363e-06	-1.200057e-08	-1.556518e+01	-7.887279e+02
6.900000e-07	-2.132596e-06	-1.174963e-08	-1.451836e+01	-7.729154e+02
7.000000e-07	-1.978006e-06	-1.149253e-08	-1.346594e+01	-7.558281e+02
7.100000e-07	-1.822742e-06	-1.122198e-08	-1.240893e+01	-7.372757e+02
7.200000e-07	-1.666956e-06	-1.092890e-08	-1.134836e+01	-7.173793e+02
7.300000e-07	-1.510570e-06	-1.061883e-08	-1.028371e+01	-6.965166e+02
7.400000e-07	-1.353545e-06	-1.030123e-08	-9.214709e+00	-6.751400e+02
7.500000e-07	-1.195911e-06	-9.973819e-09	-8.141567e+00	-6.535355e+02
7.600000e-07	-1.037698e-06	-9.629068e-09	-7.064476e+00	-6.316300e+02
7.700000e-07	-8.790835e-07	-9.261291e-09	-5.984655e+00	-6.089401e+02
7.800000e-07	-7.201991e-07	-8.872202e-09	-4.902996e+00	-5.847024e+02
7.900000e-07	-5.611557e-07	-8.460531e-09	-3.820255e+00	-5.581480e+02
8.000000e-07	-4.019685e-07	-8.022749e-09	-2.736535e+00	-5.288119e+02
8.100000e-07	-2.426082e-07	-7.552017e-09	-1.651636e+00	-4.967373e+02
8.200000e-07	-8.317915e-08	-7.054126e-09	-5.662699e-01	-4.624601e+02
8.300000e-07	7.624978e-08	-6.532203e-09	5.190959e-01	-4.267373e+02
8.400000e-07	2.356504e-07	-5.975941e-09	1.604269e+00	-3.900899e+02
8.500000e-07	3.949814e-07	-5.370447e-09	2.688968e+00	-3.523191e+02
8.600000e-07	5.541974e-07	-4.707868e-09	3.772884e+00	-3.121968e+02
8.700000e-07	7.132398e-07	-3.985969e-09	4.855618e+00	-2.674940e+02
8.800000e-07	8.720226e-07	-3.187169e-09	5.936586e+00	-2.154079e+02
8.900000e-07	1.030527e-06	-2.280653e-09	7.015657e+00	-1.533099e+02
9.000000e-07	1.188674e-06	-1.222397e-09	8.092298e+00	-7.961103e+01
9.100000e-07	1.346330e-06	2.952697e-11	9.165589e+00	5.523213e+00
9.200000e-07	1.503381e-06	1.486252e-09	1.023477e+01	9.985309e+01
9.300000e-07	1.659812e-06	3.083603e-09	1.129972e+01	1.992761e+02
9.400000e-07	1.815643e-06	4.679096e-09	1.236060e+01	2.985441e+02
9.500000e-07	1.970872e-06	6.124154e-09	1.341737e+01	3.923012e+02
9.600000e-07	2.125461e-06	7.343578e-09	1.446979e+01	4.761567e+02
9.700000e-07	2.279239e-06	8.346826e-09	1.551668e+01	5.474935e+02
9.800000e-07	2.432083e-06	9.177574e-09	1.655722e+01	6.057992e+02
9.900000e-07	2.584023e-06	9.878034e-09	1.759160e+01	6.524564e+02
1.000000e-06	2.735184e-06	1.047749e-08	1.862068e+01	6.900939e+02
1.010000e-06	2.885388e-06	1.099681e-08	1.964324e+01	7.217271e+02
1.020000e-06	3.034396e-06	1.145372e-08	2.065767e+01	7.499566e+02
1.030000e-06	3.182310e-06	1.186202e-08	2.166464e+01	7.764507e+02
1.040000e-06	3.329201e-06	1.223322e-08	2.266465e+01	8.018193e+02
1.050000e-06	3.474907e-06	1.256991e-08	2.365659e+01	8.258498e+02
1.060000e-06	3.619363e-06	1.287782e-08	2.464002e+01	8.479573e+02
1.070000e-06	3.762480e-06	1.316210e-08	2.561434e+01	8.676548e+02
1.080000e-06	3.904116e-06	1.342642e-08	2.657857e+01	8.848681e+02
1.090000e-06	4.044262e-06	1.367488e-08	2.753266e+01	9.000060e+02
1.100000e-06	4.182871e-06	1.390759e-08	2.847629e+01	9.138010e+02
1.110000e-06	4.319884e-06	1.412490e-08	2.940905e+01	9.270194e+02
1.120000e-06	4.455310e-06	1.432946e-08	3.033101e+01	9.401817e+02
1.130000e-06	4.589189e-06	1.452224e-08	3.124244e+01	9.534092e+02
1.140000e-06	4.721376e-06	1.470215e-08	3.214235e+01	9.664493e+02
1.150000e-06	4.851786e-06	1.487309e-08	3.303015e+01	9.788513e+02
1.160000e-06	4.980470e-06	1.503689e-08	3.390621e+01	9.902066e+02
1.170000e-06	5.107424e-06	1.519417e-08	3.477050e+01	1.000345e+03
1.180000e-06	5.232726e-06	1.534465e-08	3.562353e+01	1.009409e+03
1.190000e-06	5.356208e-06	1.548988e-08	3.646418e+01	1.017784e+03
1.200000e-06	5.477676e-06	1.562920e-08	3.729111e+01	1.025927e+03
1.210000e-06	5.597130e-06	1.575970e-08	3.810433e+01	1.034170e+03
1.220000e-06	5.714493e-06	1.588383e-08	3.890332e+01	1.042593e+03
1.230000e-06	5.829624e-06	1.600326e-08	3.968711e+01	1.051013e+03
1.240000e-06	5.942502e-06	1.611566e-08	4.045557e+01	1.059081e+03
1.250000e-06	6.053275e-06	1.622107e-08	4.120969e+01	1.066456e+03
1.260000e-06	6.161940e-06	1.632090e-08	4.194946e+01	1.072960e+03
1.270000e-06	6.268390e-06	1.641666e-08	4.267416e+01	1.078659e+03
1.280000e-06	6.372602e-06	1.650845e-08	4.338362e+01	1.083831e+03
1.290000e-06	6.474557e-06	1.659443e-08	4.407771e+01	1.088850e+03
1.300000e-06	6.574142e-06	1.667325e-08	4.475567e+01	1.094022e+03
1.310000e-06	6.671275e-06	1.674772e-08	4.541693e+01	1.099468e+03
1.320000e-06	6.766041e-06	1.682346e-08	4.606208e+01	1.105084e+03
1.330000e-06	6.858486e-06	1.689939e-08	4.669143e+01	1.110597e+03
1.340000e-06	6.948450e-06	1.697179e-08	4.730389e+01	1.115697e+03
1.350000e-06	7.035950e-06	1.703923e-08	4.789958e+01	1.120176e+03
1.360000e-06	7.121116e-06	1.710277e-08	4.847938e+01	1.124016e+03
1.370000e-06	7.203779e-06	1.716222e-08	4.904213e+01	1.127389e+03
1.380000e-06	7.283817e-06	1.721796e-08	4.958702e+01	1.130584e+03
1.390000e-06	7.361209e-06	1.727220e-08	5.011389e+01	1.133869e+03
1.400000e-06	7.435757e-06	1.732525e-08	5.062140e+01	1.137385e+03
1.410000e-06	7.507565e-06	1.737825e-08	5.111025e+01	1.141082e+03
1.420000e-06	7.576836e-06	1.742889e-08	5.158184e+01	1.144754e+03
1.430000e-06	7.643359e-06	1.747619e-08	5.203472e+01	1.148131e+03
1.440000e-06	7.707072e-06	1.751897e-08	5.246847e+01	1.151005e+03
1.450000e-06	7.768224e-06	1.755862e-08	5.288478e+01	1.153318e+03
1.460000e-06	7.826684e-06	1.759597e-08	5.328276e+01	1.155186e+03
1.470000e-06	7.882297e-06	1.762904e-08	5.366137e+01	1.156848e+03
1.480000e-06	7.934884e-06	1.766166e-08	5.401938e+01	1.158556e+03
1.490000e-06	7.984256e-06	1.769587e-08	5.435549e+01	1.160469e+03
1.500000e-06	8.030694e-06	1.773004e-08	5.467163e+01	1.162585e+03
1.510000e-06	8.074278e-06	1.775933e-08	5.496835e+01	1.164745e+03
1.520000e-06	8.114954e-06	1.777947e-08	5.524526e+01	1.166711e+03
1.530000e-06	8.152829e-06	1.779701e-08	5.550311e+01	1.168269e+03
1.540000e-06	8.187853e-06	1.781796e-08	5.574154e+01	1.169327e+03
1.550000e-06	8.219989e-06	1.783924e-08	5.596032e+01	1.169955e+03
1.560000e-06	8.249338e-06	1.785305e-08	5.616013e+01	1.170351e+03
1.570000e-06	8.275717e-06	1.786174e-08	5.633971e+01	1.170757e+03
1.580000e-06	8.299068e-06	1.787488e-08	5.649868e+01	1.171351e+03
1.590000e-06	8.319643e-06	1.789096e-08	5.663875e+01	1.172172e+03
1.600000e-06	8.337316e-06	1.790256e-08	5.675906e+01	1.173107e+03
1.610000e-06	8.351860e-06	1.790693e-08	5.685808e+01	1.173944e+03
1.620000e-06	8.363146e-06	1.790876e-08	5.693491e+01	1.174465e+03
1.630000e-06	8.371274e-06	1.791221e-08	5.699025e+01	1.174547e+03
1.640000e-06	8.376525e-06	1.791442e-08	5.702600e+01	1.174210e+03
1.650000e-06	8.378803e-06	1.791139e-08	5.704150e+01	1.173614e+03
1.660000e-06	8.378186e-06	1.790429e-08	5.703730e+01	1.172984e+03
1.670000e-06	8.374869e-06	1.789744e-08	5.701472e+01	1.172512e+03
1.680000e-06	8.368700e-06	1.789928e-08	5.697272e+01	1.172274e+03
1.690000e-06	8.359687e-06	1.789499e-08	5.691136e+01	1.172198e+03
1.700000e-06	8.347804e-06	1.788119e-08	5.683046e+01	1.172097e+03
1.710000e-06	8.333053e-06	1.787027e-08	5.673004e+01	1.171750e+03
1.720000e-06	8.315775e-06	1.786960e-08	5.661242e+01	1.171002e+03
1.730000e-06	8.296066e-06	1.786073e-08	5.647824e+01	1.169826e+03
1.740000e-06	8.273476e-06	1.777255e-08	5.632445e+01	1.168342e+03
1.750000e-06	8.247276e-06	1.773810e-08	5.614609e+01	1.166757e+03
1.760000e-06	8.217115e-06	1.774743e-08	5.594076e+01	1.165283e+03
1.770000e-06	8.183631e-06	1.773983e-08	5.571280e+01	1.164042e+03
1.780000e-06	8.147612e-06	1.774858e-08	5.546759e+01	1.163018e+03
1.790000e-06	8.109241e-06	1.779689e-08	5.520637e+01	1.162071e+03
1.800000e-06	8.068845e-06	1.773170e-08	5.493136e+01	1.160992e+03
1.810000e-06	8.026271e-06	1.765363e-08	5.464152e+01	1.159601e+03
1.820000e-06	7.980779e-06	1.769881e-08	5.433182e+01	1.157812e+03
1.830000e-06	7.932470e-06	1.757763e-08	5.400294e+01	1.155669e+03
1.840000e-06	7.881078e-06	1.759951e-08	5.365307e+01	1.153313e+03
1.850000e-06	7.826359e-06	1.759550e-08	5.328055e+01	1.150909e+03
1.860000e-06	7.768874e-06	1.755996e-08	5.288921e+01	1.148571e+03
1.870000e-06	7.708532e-06	1.759942e-08	5.247841e+01	1.146302e+03
1.880000e-06	7.645460e-06	1.745217e-08	5.204902e+01	1.144000e+03
1.890000e-06	7.579656e-06	1.742084e-08	5.160104e+01	1.141501e+03
1.900000e-06	7.510969e-06	1.733749e-08	5.113343e+01	1.138663e+03
1.910000e-06	7.439445e-06	1.730102e-08	5.064650e+01	1.135427e+03
1.920000e-06	7.364952e-06	1.730597e-08	5.013937e+01	1.131854e+03
1.930000e-06	7.287701e-06	1.724359e-08	4.961346e+01	1.128094e+03
1.940000e-06	7.207727e-06	1.724581e-08	4.906901e+01	1.124317e+03
1.950000e-06	7.125216e-06	1.711456e-08	4.850729e+01	1.120637e+03
1.960000e-06	7.040167e-06	1.706214e-08	4.792829e+01	1.117053e+03
1.970000e-06	6.952471e-06	1.696720e-08	4.733127e+01	1.113445e+03
1.980000e-06	6.862417e-06	1.689215e-08	4.671819e+01	1.109626e+03
1.990000e-06	6.769927e-06	1.687971e-08	4.608854e+01	1.105424e+03
2.000000e-06	6.674970e-06	1.680949e-08	4.544209e+01	1.100760e+03
2.010000e-06	6.577653e-06	1.676804e-08	4.477957e+01	1.095683e+03
2.020000e-06	6.478075e-06	1.665128e-08	4.410166e+01	1.090352e+03
2.030000e-06	6.376143e-06	1.657935e-08	4.340772e+01	1.084960e+03
2.040000e-06	6.271854e-06	1.647631e-08	4.269774e+01	1.079648e+03
2.050000e-06	6.165376e-06	1.639575e-08	4.197286e+01	1.074436e+03
2.060000e-06	6.056747e-06	1.631149e-08	4.123333e+01	1.069204e+03
2.070000e-06	5.945923e-06	1.622358e-08	4.047886e+01	1.063744e+03
2.080000e-06	5.832789e-06	1.614782e-08	3.970866e+01	1.057848e+03
2.090000e-06	5.717388e-06	1.604834e-08	3.892303e+01	1.051400e+03
2.100000e-06	5.599756e-06	1.595234e-08	3.812221e+01	1.044431e+03
2.110000e-06	5.479978e-06	1.583247e-08	3.730678e+01	1.037104e+03
2.120000e-06	5.358202e-06	1.572283e-08	3.647775e+01	1.029640e+03
2.130000e-06	5.234582e-06	1.559963e-08	3.563617e+01	1.022220e+03
2.140000e-06	5.109151e-06	1.548767e-08	3.478225e+01	1.014889e+03
2.150000e-06	4.981825e-06	1.536834e-08	3.391543e+01	1.007533e+03
2.160000e-06	4.852632e-06	1.525837e-08	3.303591e+01	9.999155e+02
2.170000e-06	4.721704e-06	1.513349e-08	3.214458e+01	9.917789e+02
2.180000e-06	4.589121e-06	1.499742e-08	3.124197e+01	9.829568e+02
2.190000e-06	4.454987e-06	1.484810e-08	3.032882e+01	9.734496e+02
2.200000e-06	4.319238e-06	1.469751e-08	2.940466e+01	9.634270e+02
2.210000e-06	4.181761e-06	1.455081e-08	2.846874e+01	9.531528e+02
2.220000e-06	4.042743e-06	1.440244e-08	2.752233e+01	9.428621e+02
2.230000e-06	3.902222e-06	1.425346e-08	2.656568e+01	9.326457e+02
2.240000e-06	3.760236e-06	1.409140e-08	2.559906e+01	9.223932e+02
2.250000e-06	3.616863e-06	1.392292e-08	2.462300e+01	9.118260e+02
2.260000e-06	3.472172e-06	1.373847e-08	2.363797e+01	9.006073e+02
2.270000e-06	3.326227e-06	1.354528e-08	2.264440e+01	8.884854e+02
2.280000e-06	3.179103e-06	1.334368e-08	2.164281e+01	8.754053e+02
2.290000e-06	3.030856e-06	1.314542e-08	2.063357e+01	8.615358e+02
2.300000e-06	2.881516e-06	1.294680e-08	1.961689e+01	8.471953e+02
2.310000e-06	2.731212e-06	1.274370e-08	1.859364e+01	8.327021e+02
2.320000e-06	2.579968e-06	1.252486e-08	1.756399e+01	8.182147e+02
2.330000e-06	2.427757e-06	1.228805e-08	1.652777e+01	8.036327e+02
2.340000e-06	2.274592e-06	1.203732e-08	1.548505e+01	7.886092e+02
2.350000e-06	2.120595e-06	1.177639e-08	1.443666e+01	7.726764e+02
2.360000e-06	1.965879e-06	1.150816e-08	1.338338e+01	7.554352e+02
2.370000e-06	1.810519e-06	1.123305e-08	1.232571e+01	7.367267e+02
2.380000e-06	1.654579e-06	1.095199e-08	1.126410e+01	7.167046e+02
2.390000e-06	1.498005e-06	1.065577e-08	1.019817e+01	6.957653e+02
2.400000e-06	1.340828e-06	1.033817e-08	9.128136e+00	6.743548e+02
2.410000e-06	1.183179e-06	9.999925e-09	8.054888e+00	6.527281e+02
2.420000e-06	1.025123e-06	9.644655e-09	6.978866e+00	6.307675e+02
2.430000e-06	8.667349e-07	9.272083e-09	5.900587e+00	6.079501e+02
2.440000e-06	7.080593e-07	8.881280e-09	4.820350e+00	5.834973e+02
2.450000e-06	5.491462e-07	8.472053e-09	3.738497e+00	5.566583e+02
2.460000e-06	3.900752e-07	8.041097e-09	2.655567e+00	5.270161e+02
2.470000e-06	2.309122e-07	7.579850e-09	1.572012e+00	4.946720e+02
2.480000e-06	7.168964e-08	7.080176e-09	4.880512e-01	4.602028e+02
2.490000e-06	-8.758581e-08	6.543209e-09	-5.962697e-01	4.243641e+02
2.500000e-06	-2.468296e-07	5.971527e-09	-1.680375e+00	3.876216e+02
2.510000e-06	-4.058943e-07	5.362938e-09	-2.763261e+00	3.496760e+02
2.520000e-06	-5.648209e-07	4.706104e-09	-3.845207e+00	3.091837e+02
2.530000e-06	-7.235868e-07	3.986216e-09	-4.926059e+00	2.638271e+02
2.540000e-06	-8.821010e-07	3.183455e-09	-6.005197e+00	2.107820e+02
2.550000e-06	-1.040347e-06	2.267761e-09	-7.082513e+00	1.474902e+02
2.560000e-06	-1.198251e-06	1.201746e-09	-8.157494e+00	7.252158e+01
2.570000e-06	-1.355733e-06	-5.808627e-11	-9.229609e+00	-1.374250e+01
2.580000e-06	-1.512619e-06	-1.523586e-09	-1.029766e+01	-1.088429e+02
2.590000e-06	-1.668826e-06	-3.130469e-09	-1.136109e+01	-2.085125e+02
2.600000e-06	-1.824433e-06	-4.731836e-09	-1.242044e+01	-3.074385e+02
2.610000e-06	-1.979476e-06	-6.178806e-09	-1.347595e+01	-4.003196e+02
2.620000e-06	-2.133829e-06	-7.400912e-09	-1.452676e+01	-4.829235e+02
2.630000e-06	-2.287406e-06	-8.404696e-09	-1.557228e+01	-5.528525e+02
2.640000e-06	-2.440110e-06	-9.235267e-09	-1.661186e+01	-6.098163e+02
2.650000e-06	-2.591798e-06	-9.935518e-09	-1.764453e+01	-6.553679e+02
2.660000e-06	-2.742546e-06	-1.053833e-08	-1.867080e+01	-6.922200e+02
2.670000e-06	-2.892406e-06	-1.106483e-08	-1.969102e+01	-7.233784e+02
2.680000e-06	-3.041208e-06	-1.152928e-08	-2.070404e+01	-7.513621e+02
2.690000e-06	-3.188907e-06	-1.194441e-08	-2.170955e+01	-7.777248e+02
2.700000e-06	-3.335540e-06	-1.231683e-08	-2.270780e+01	-8.029719e+02
2.710000e-06	-3.481000e-06	-1.265125e-08	-2.369807e+01	-8.268271e+02
2.720000e-06	-3.625174e-06	-1.295625e-08	-2.467958e+01	-8.486951e+02
2.730000e-06	-3.767987e-06	-1.323809e-08	-2.565183e+01	-8.681220e+02
2.740000e-06	-3.909382e-06	-1.350146e-08	-2.661442e+01	-8.850865e+02
2.750000e-06	-4.049265e-06	-1.375045e-08	-2.756672e+01	-9.000431e+02
2.760000e-06	-4.187578e-06	-1.398632e-08	-2.850834e+01	-9.137428e+02
2.770000e-06	-4.324380e-06	-1.420820e-08	-2.943966e+01	-9.269375e+02
2.780000e-06	-4.459591e-06	-1.441380e-08	-3.036016e+01	-9.401093e+02
2.790000e-06	-4.593121e-06	-1.460286e-08	-3.126921e+01	-9.533351e+02
2.800000e-06	-4.725019e-06	-1.478025e-08	-3.216715e+01	-9.663305e+02
2.810000e-06	-4.855284e-06	-1.494969e-08	-3.305397e+01	-9.786378e+02
2.820000e-06	-4.983895e-06	-1.511198e-08	-3.392953e+01	-9.898663e+02
2.830000e-06	-5.110724e-06	-1.526987e-08	-3.479296e+01	-9.998783e+02
2.840000e-06	-5.235709e-06	-1.542158e-08	-3.564384e+01	-1.008848e+03
2.850000e-06	-5.358875e-06	-1.556456e-08	-3.648233e+01	-1.017178e+03
2.860000e-06	-5.480123e-06	-1.569695e-08	-3.730777e+01	-1.025320e+03
2.870000e-06	-5.599333e-06	-1.581933e-08	-3.811933e+01	-1.033584e+03
2.880000e-06	-5.716403e-06	-1.593664e-08	-3.891632e+01	-1.042021e+03
2.890000e-06	-5.831149e-06	-1.605056e-08	-3.969750e+01	-1.050422e+03
2.900000e-06	-5.943510e-06	-1.616153e-08	-4.046243e+01	-1.058431e+03
2.910000e-06	-6.053565e-06	-1.626603e-08	-4.121167e+01	-1.065719e+03
2.920000e-06	-6.161513e-06	-1.636378e-08	-4.194656e+01	-1.072130e+03
2.930000e-06	-6.267474e-06	-1.645796e-08	-4.266792e+01	-1.077756e+03
2.940000e-06	-6.371239e-06	-1.654893e-08	-4.337434e+01	-1.082895e+03
