# Temperatura_=_32.4
# Concentracion g/m^3_=_13400.0
# C_Vs_to_Am_M_A/Vsm_=_65563218390.804596
# pendiente_HvsI_1/m_=_3716.3
# ordenada_HvsI_A/m_=_1297.0
# frecuencia_Hz_=_301428.09440935944

Tiempo_(s)	Campo_(V.s)	Magnetizacion_(V.s)	Campo_(kA/m)	Magnetizacion_(A/m)
0.000000e+00	-8.345779e-06	-1.775450e-08	-5.691482e+01	-1.163894e+03
1.000000e-08	-8.342757e-06	-1.775403e-08	-5.689421e+01	-1.163455e+03
2.000000e-08	-8.337015e-06	-1.774796e-08	-5.685505e+01	-1.163280e+03
3.000000e-08	-8.328669e-06	-1.774251e-08	-5.679814e+01	-1.163284e+03
4.000000e-08	-8.317389e-06	-1.773578e-08	-5.672121e+01	-1.163252e+03
5.000000e-08	-8.303086e-06	-1.772407e-08	-5.662367e+01	-1.162937e+03
6.000000e-08	-8.285819e-06	-1.770707e-08	-5.650592e+01	-1.162164e+03
7.000000e-08	-8.265940e-06	-1.768053e-08	-5.637035e+01	-1.160906e+03
8.000000e-08	-8.243554e-06	-1.767946e-08	-5.621769e+01	-1.159299e+03
9.000000e-08	-8.218100e-06	-1.773143e-08	-5.604410e+01	-1.157583e+03
1.000000e-07	-8.189335e-06	-1.770676e-08	-5.584793e+01	-1.156004e+03
1.100000e-07	-8.157434e-06	-1.764764e-08	-5.563038e+01	-1.154716e+03
1.200000e-07	-8.122495e-06	-1.761757e-08	-5.539211e+01	-1.153720e+03
1.300000e-07	-8.084794e-06	-1.757897e-08	-5.513501e+01	-1.152875e+03
1.400000e-07	-8.044773e-06	-1.750914e-08	-5.486208e+01	-1.151966e+03
1.500000e-07	-8.002318e-06	-1.746975e-08	-5.457255e+01	-1.150795e+03
1.600000e-07	-7.957114e-06	-1.754681e-08	-5.426428e+01	-1.149266e+03
1.700000e-07	-7.909051e-06	-1.746541e-08	-5.393651e+01	-1.147413e+03
1.800000e-07	-7.857976e-06	-1.746888e-08	-5.358820e+01	-1.145367e+03
1.900000e-07	-7.803856e-06	-1.748791e-08	-5.321913e+01	-1.143283e+03
2.000000e-07	-7.746904e-06	-1.734635e-08	-5.283074e+01	-1.141253e+03
2.100000e-07	-7.687183e-06	-1.730837e-08	-5.242346e+01	-1.139254e+03
2.200000e-07	-7.624761e-06	-1.724890e-08	-5.199777e+01	-1.137151e+03
2.300000e-07	-7.559626e-06	-1.725653e-08	-5.155357e+01	-1.134756e+03
2.400000e-07	-7.491582e-06	-1.723337e-08	-5.108954e+01	-1.131918e+03
2.500000e-07	-7.420756e-06	-1.717344e-08	-5.060654e+01	-1.128598e+03
2.600000e-07	-7.347097e-06	-1.714490e-08	-5.010422e+01	-1.124895e+03
2.700000e-07	-7.270597e-06	-1.706921e-08	-4.958251e+01	-1.121013e+03
2.800000e-07	-7.191312e-06	-1.701579e-08	-4.904183e+01	-1.117173e+03
2.900000e-07	-7.109223e-06	-1.692120e-08	-4.848201e+01	-1.113519e+03
3.000000e-07	-7.024696e-06	-1.688267e-08	-4.790557e+01	-1.110050e+03
3.100000e-07	-6.937897e-06	-1.685818e-08	-4.731364e+01	-1.106615e+03
3.200000e-07	-6.848678e-06	-1.679631e-08	-4.670520e+01	-1.102976e+03
3.300000e-07	-6.756974e-06	-1.673870e-08	-4.607982e+01	-1.098908e+03
3.400000e-07	-6.662923e-06	-1.663543e-08	-4.543843e+01	-1.094298e+03
3.500000e-07	-6.566495e-06	-1.657278e-08	-4.478083e+01	-1.089193e+03
3.600000e-07	-6.467605e-06	-1.650714e-08	-4.410644e+01	-1.083784e+03
3.700000e-07	-6.366350e-06	-1.643398e-08	-4.341592e+01	-1.078318e+03
3.800000e-07	-6.262785e-06	-1.634600e-08	-4.270965e+01	-1.072992e+03
3.900000e-07	-6.156899e-06	-1.626562e-08	-4.198755e+01	-1.067859e+03
4.000000e-07	-6.048804e-06	-1.619667e-08	-4.125039e+01	-1.062806e+03
4.100000e-07	-5.938665e-06	-1.609864e-08	-4.049928e+01	-1.057594e+03
4.200000e-07	-5.826297e-06	-1.600416e-08	-3.973297e+01	-1.051964e+03
4.300000e-07	-5.711570e-06	-1.590616e-08	-3.895058e+01	-1.045746e+03
4.400000e-07	-5.594593e-06	-1.582678e-08	-3.815285e+01	-1.038934e+03
4.500000e-07	-5.475557e-06	-1.573588e-08	-3.734107e+01	-1.031688e+03
4.600000e-07	-5.354552e-06	-1.562803e-08	-3.651587e+01	-1.024258e+03
4.700000e-07	-5.231598e-06	-1.550399e-08	-3.567737e+01	-1.016869e+03
4.800000e-07	-5.106737e-06	-1.538489e-08	-3.482587e+01	-1.009615e+03
4.900000e-07	-4.980081e-06	-1.527384e-08	-3.396213e+01	-1.002408e+03
5.000000e-07	-4.851665e-06	-1.515036e-08	-3.308638e+01	-9.950096e+02
5.100000e-07	-4.721448e-06	-1.501964e-08	-3.219835e+01	-9.871327e+02
5.200000e-07	-4.589528e-06	-1.489119e-08	-3.129872e+01	-9.785653e+02
5.300000e-07	-4.455975e-06	-1.477160e-08	-3.038794e+01	-9.692664e+02
5.400000e-07	-4.320866e-06	-1.463739e-08	-2.946655e+01	-9.593845e+02
5.500000e-07	-4.184159e-06	-1.448258e-08	-2.853427e+01	-9.491903e+02
5.600000e-07	-4.045781e-06	-1.431880e-08	-2.759058e+01	-9.389505e+02
5.700000e-07	-3.905878e-06	-1.416140e-08	-2.663650e+01	-9.287974e+02
5.800000e-07	-3.764463e-06	-1.400120e-08	-2.567211e+01	-9.186559e+02
5.900000e-07	-3.621426e-06	-1.382482e-08	-2.469665e+01	-9.082611e+02
6.000000e-07	-3.476942e-06	-1.364379e-08	-2.371133e+01	-8.972649e+02
6.100000e-07	-3.331307e-06	-1.346965e-08	-2.271816e+01	-8.853856e+02
6.200000e-07	-3.184537e-06	-1.329751e-08	-2.171725e+01	-8.725336e+02
6.300000e-07	-3.036595e-06	-1.310444e-08	-2.070834e+01	-8.588550e+02
6.400000e-07	-2.887651e-06	-1.288723e-08	-1.969261e+01	-8.446668e+02
6.500000e-07	-2.737811e-06	-1.266261e-08	-1.867076e+01	-8.303083e+02
6.600000e-07	-2.587031e-06	-1.243950e-08	-1.764250e+01	-8.159710e+02
6.700000e-07	-2.435348e-06	-1.221056e-08	-1.660809e+01	-8.015843e+02
6.800000e-07	-2.282775e-06	-1.196945e-08	-1.556760e+01	-7.868136e+02
6.900000e-07	-2.129267e-06	-1.172336e-08	-1.452074e+01	-7.711796e+02
7.000000e-07	-1.974924e-06	-1.147123e-08	-1.346818e+01	-7.542525e+02
7.100000e-07	-1.819908e-06	-1.120551e-08	-1.241103e+01	-7.358368e+02
7.200000e-07	-1.664303e-06	-1.091587e-08	-1.134987e+01	-7.160604e+02
7.300000e-07	-1.508096e-06	-1.060850e-08	-1.028460e+01	-6.953167e+02
7.400000e-07	-1.351324e-06	-1.029211e-08	-9.215481e+00	-6.740741e+02
7.500000e-07	-1.194061e-06	-9.965393e-09	-8.143011e+00	-6.526261e+02
7.600000e-07	-1.036337e-06	-9.620926e-09	-7.067400e+00	-6.308925e+02
7.700000e-07	-8.781813e-07	-9.253642e-09	-5.988839e+00	-6.083698e+02
7.800000e-07	-7.196995e-07	-8.866427e-09	-4.908058e+00	-5.842699e+02
7.900000e-07	-5.610229e-07	-8.456475e-09	-3.825948e+00	-5.578071e+02
8.000000e-07	-4.020966e-07	-8.020990e-09	-2.742135e+00	-5.285174e+02
8.100000e-07	-2.429594e-07	-7.555169e-09	-1.656884e+00	-4.964644e+02
8.200000e-07	-8.378772e-08	-7.061737e-09	-5.713982e-01	-4.622138e+02
8.300000e-07	7.540250e-08	-6.539098e-09	5.142144e-01	-4.265438e+02
8.400000e-07	2.345687e-07	-5.979077e-09	1.599663e+00	-3.899669e+02
8.500000e-07	3.936228e-07	-5.370846e-09	2.684347e+00	-3.522333e+02
8.600000e-07	5.525222e-07	-4.706408e-09	3.767977e+00	-3.120243e+02
8.700000e-07	7.112496e-07	-3.980322e-09	4.850433e+00	-2.670018e+02
8.800000e-07	8.696398e-07	-3.173269e-09	5.930590e+00	-2.142716e+02
8.900000e-07	1.027643e-06	-2.254791e-09	7.008110e+00	-1.511712e+02
9.000000e-07	1.185329e-06	-1.181006e-09	8.083464e+00	-7.616490e+01
9.100000e-07	1.342569e-06	9.251113e-11	9.155775e+00	1.043510e+01
9.200000e-07	1.499290e-06	1.577687e-09	1.022455e+01	1.061710e+02
9.300000e-07	1.655408e-06	3.201292e-09	1.128921e+01	2.066982e+02
9.400000e-07	1.810939e-06	4.806869e-09	1.234987e+01	3.065621e+02
9.500000e-07	1.965995e-06	6.243173e-09	1.340729e+01	4.002910e+02
9.600000e-07	2.120443e-06	7.444456e-09	1.446056e+01	4.834998e+02
9.700000e-07	2.274041e-06	8.428147e-09	1.550803e+01	5.536981e+02
9.800000e-07	2.426657e-06	9.239010e-09	1.654881e+01	6.105859e+02
9.900000e-07	2.578412e-06	9.917328e-09	1.758372e+01	6.557866e+02
1.000000e-06	2.729269e-06	1.049873e-08	1.861250e+01	6.921371e+02
1.010000e-06	2.879068e-06	1.100807e-08	1.963407e+01	7.227790e+02
1.020000e-06	3.027767e-06	1.145835e-08	2.064814e+01	7.503377e+02
1.030000e-06	3.175395e-06	1.185942e-08	2.165491e+01	7.764165e+02
1.040000e-06	3.321992e-06	1.222140e-08	2.265464e+01	8.015074e+02
1.050000e-06	3.467386e-06	1.255270e-08	2.364616e+01	8.252747e+02
1.060000e-06	3.611525e-06	1.285762e-08	2.462913e+01	8.470475e+02
1.070000e-06	3.754315e-06	1.313573e-08	2.560290e+01	8.663125e+02
1.080000e-06	3.895659e-06	1.339189e-08	2.656681e+01	8.830275e+02
1.090000e-06	4.035584e-06	1.363425e-08	2.752104e+01	8.976691e+02
1.100000e-06	4.173976e-06	1.386366e-08	2.846482e+01	9.110404e+02
1.110000e-06	4.310785e-06	1.407648e-08	2.939780e+01	9.239524e+02
1.120000e-06	4.446029e-06	1.427512e-08	3.032011e+01	9.369283e+02
1.130000e-06	4.579639e-06	1.446336e-08	3.123127e+01	9.500527e+02
1.140000e-06	4.711597e-06	1.464273e-08	3.213118e+01	9.630140e+02
1.150000e-06	4.841897e-06	1.481359e-08	3.301977e+01	9.753050e+02
1.160000e-06	4.970454e-06	1.497444e-08	3.389648e+01	9.864829e+02
1.170000e-06	5.097234e-06	1.512903e-08	3.476106e+01	9.963759e+02
1.180000e-06	5.222216e-06	1.527847e-08	3.561339e+01	1.005153e+03
1.190000e-06	5.345413e-06	1.541866e-08	3.645354e+01	1.013239e+03
1.200000e-06	5.466761e-06	1.554969e-08	3.728108e+01	1.021125e+03
1.210000e-06	5.586056e-06	1.567671e-08	3.809463e+01	1.029162e+03
1.220000e-06	5.703197e-06	1.580059e-08	3.889348e+01	1.037425e+03
1.230000e-06	5.818179e-06	1.591805e-08	3.967761e+01	1.045708e+03
1.240000e-06	5.930933e-06	1.602617e-08	4.044655e+01	1.053638e+03
1.250000e-06	6.041540e-06	1.612846e-08	4.120085e+01	1.060857e+03
1.260000e-06	6.150101e-06	1.622827e-08	4.194119e+01	1.067185e+03
1.270000e-06	6.256503e-06	1.632462e-08	4.266681e+01	1.072702e+03
1.280000e-06	6.360596e-06	1.641406e-08	4.337668e+01	1.077708e+03
1.290000e-06	6.462360e-06	1.649582e-08	4.407066e+01	1.082592e+03
1.300000e-06	6.561757e-06	1.657346e-08	4.474851e+01	1.087667e+03
1.310000e-06	6.658730e-06	1.664703e-08	4.540983e+01	1.093042e+03
1.320000e-06	6.753321e-06	1.671944e-08	4.605491e+01	1.098591e+03
1.330000e-06	6.845578e-06	1.679208e-08	4.668406e+01	1.104022e+03
1.340000e-06	6.935471e-06	1.686304e-08	4.729709e+01	1.109012e+03
1.350000e-06	7.022941e-06	1.693068e-08	4.789360e+01	1.113356e+03
1.360000e-06	7.107987e-06	1.699418e-08	4.847358e+01	1.117050e+03
1.370000e-06	7.190521e-06	1.705437e-08	4.903643e+01	1.120292e+03
1.380000e-06	7.270406e-06	1.710952e-08	4.958121e+01	1.123386e+03
1.390000e-06	7.347612e-06	1.716109e-08	5.010773e+01	1.126608e+03
1.400000e-06	7.422081e-06	1.721027e-08	5.061558e+01	1.130089e+03
1.410000e-06	7.493816e-06	1.726076e-08	5.110478e+01	1.133761e+03
1.420000e-06	7.562911e-06	1.731238e-08	5.157598e+01	1.137398e+03
1.430000e-06	7.629295e-06	1.736182e-08	5.202869e+01	1.140721e+03
1.440000e-06	7.693005e-06	1.740595e-08	5.246316e+01	1.143523e+03
1.450000e-06	7.754092e-06	1.744399e-08	5.287975e+01	1.145763e+03
1.460000e-06	7.812380e-06	1.747955e-08	5.327726e+01	1.147580e+03
1.470000e-06	7.867848e-06	1.751352e-08	5.365553e+01	1.149229e+03
1.480000e-06	7.920352e-06	1.754582e-08	5.401358e+01	1.150966e+03
1.490000e-06	7.969640e-06	1.757702e-08	5.434971e+01	1.152937e+03
1.500000e-06	8.015990e-06	1.760935e-08	5.466579e+01	1.155112e+03
1.510000e-06	8.059588e-06	1.764021e-08	5.496312e+01	1.157306e+03
1.520000e-06	8.100239e-06	1.766315e-08	5.524034e+01	1.159261e+03
1.530000e-06	8.138035e-06	1.768075e-08	5.549809e+01	1.160762e+03
1.540000e-06	8.173068e-06	1.769986e-08	5.573700e+01	1.161736e+03
1.550000e-06	8.205192e-06	1.771888e-08	5.595607e+01	1.162280e+03
1.560000e-06	8.234527e-06	1.773338e-08	5.615612e+01	1.162624e+03
1.570000e-06	8.260957e-06	1.774384e-08	5.633637e+01	1.163027e+03
1.580000e-06	8.284355e-06	1.775586e-08	5.649593e+01	1.163665e+03
1.590000e-06	8.304919e-06	1.777017e-08	5.663617e+01	1.164559e+03
1.600000e-06	8.322528e-06	1.778207e-08	5.675626e+01	1.165567e+03
1.610000e-06	8.337102e-06	1.778789e-08	5.685564e+01	1.166449e+03
1.620000e-06	8.348502e-06	1.779081e-08	5.693339e+01	1.166974e+03
1.630000e-06	8.356693e-06	1.779449e-08	5.698925e+01	1.167024e+03
1.640000e-06	8.361991e-06	1.779727e-08	5.702538e+01	1.166645e+03
1.650000e-06	8.364355e-06	1.779549e-08	5.704150e+01	1.166024e+03
1.660000e-06	8.363787e-06	1.778897e-08	5.703763e+01	1.165409e+03
1.670000e-06	8.360546e-06	1.777881e-08	5.701553e+01	1.164996e+03
1.680000e-06	8.354491e-06	1.777919e-08	5.697423e+01	1.164846e+03
1.690000e-06	8.345600e-06	1.777659e-08	5.691360e+01	1.164857e+03
1.700000e-06	8.333794e-06	1.776468e-08	5.683309e+01	1.164806e+03
1.710000e-06	8.319061e-06	1.775515e-08	5.673262e+01	1.164447e+03
1.720000e-06	8.301763e-06	1.775682e-08	5.661465e+01	1.163619e+03
1.730000e-06	8.282007e-06	1.775352e-08	5.647992e+01	1.162314e+03
1.740000e-06	8.259435e-06	1.765261e-08	5.632599e+01	1.160682e+03
1.750000e-06	8.233293e-06	1.760906e-08	5.614771e+01	1.158969e+03
1.760000e-06	8.203216e-06	1.762809e-08	5.594260e+01	1.157416e+03
1.770000e-06	8.169878e-06	1.761773e-08	5.571525e+01	1.156161e+03
1.780000e-06	8.134049e-06	1.761730e-08	5.547091e+01	1.155189e+03
1.790000e-06	8.095823e-06	1.766867e-08	5.521022e+01	1.154347e+03
1.800000e-06	8.055546e-06	1.762226e-08	5.493555e+01	1.153417e+03
1.810000e-06	8.013148e-06	1.752255e-08	5.464641e+01	1.152209e+03
1.820000e-06	7.967769e-06	1.758600e-08	5.433695e+01	1.150641e+03
1.830000e-06	7.919517e-06	1.749295e-08	5.400789e+01	1.148759e+03
1.840000e-06	7.868211e-06	1.751302e-08	5.365800e+01	1.146701e+03
1.850000e-06	7.813516e-06	1.752662e-08	5.328500e+01	1.144619e+03
1.860000e-06	7.756088e-06	1.747473e-08	5.289337e+01	1.142595e+03
1.870000e-06	7.695869e-06	1.753252e-08	5.248270e+01	1.140592e+03
1.880000e-06	7.632905e-06	1.737805e-08	5.205331e+01	1.138466e+03
1.890000e-06	7.567235e-06	1.735128e-08	5.160547e+01	1.136029e+03
1.900000e-06	7.498647e-06	1.727748e-08	5.113772e+01	1.133138e+03
1.910000e-06	7.427220e-06	1.721889e-08	5.065062e+01	1.129769e+03
1.920000e-06	7.352861e-06	1.724228e-08	5.014352e+01	1.126035e+03
1.930000e-06	7.275719e-06	1.716030e-08	4.961745e+01	1.122146e+03
1.940000e-06	7.195874e-06	1.717414e-08	4.907294e+01	1.118321e+03
1.950000e-06	7.113597e-06	1.704433e-08	4.851184e+01	1.114689e+03
1.960000e-06	7.028786e-06	1.698620e-08	4.793346e+01	1.111232e+03
1.970000e-06	6.941197e-06	1.690023e-08	4.733615e+01	1.107786e+03
1.980000e-06	6.851221e-06	1.681307e-08	4.672254e+01	1.104110e+03
1.990000e-06	6.758829e-06	1.681356e-08	4.609247e+01	1.099986e+03
2.000000e-06	6.664013e-06	1.673052e-08	4.544586e+01	1.095316e+03
2.010000e-06	6.566930e-06	1.669689e-08	4.478379e+01	1.090167e+03
2.020000e-06	6.467568e-06	1.657796e-08	4.410618e+01	1.084740e+03
2.030000e-06	6.365779e-06	1.650826e-08	4.341203e+01	1.079280e+03
2.040000e-06	6.261617e-06	1.640708e-08	4.270168e+01	1.073974e+03
2.050000e-06	6.155297e-06	1.632389e-08	4.197662e+01	1.068858e+03
2.060000e-06	6.046803e-06	1.624609e-08	4.123674e+01	1.063800e+03
2.070000e-06	5.936152e-06	1.615174e-08	4.048215e+01	1.058554e+03
2.080000e-06	5.823293e-06	1.607694e-08	3.971249e+01	1.052865e+03
2.090000e-06	5.708155e-06	1.597248e-08	3.892730e+01	1.046580e+03
2.100000e-06	5.590727e-06	1.588260e-08	3.812649e+01	1.039711e+03
2.110000e-06	5.471179e-06	1.576924e-08	3.731122e+01	1.032431e+03
2.120000e-06	5.349690e-06	1.566856e-08	3.648271e+01	1.024996e+03
2.130000e-06	5.226318e-06	1.554554e-08	3.564136e+01	1.017619e+03
2.140000e-06	5.101028e-06	1.542972e-08	3.478694e+01	1.010376e+03
2.150000e-06	4.973874e-06	1.530500e-08	3.391980e+01	1.003161e+03
2.160000e-06	4.844948e-06	1.519368e-08	3.304058e+01	9.957244e+02
2.170000e-06	4.714331e-06	1.507359e-08	3.214982e+01	9.877804e+02
2.180000e-06	4.582074e-06	1.494605e-08	3.124788e+01	9.791322e+02
2.190000e-06	4.448163e-06	1.480564e-08	3.033467e+01	9.697599e+02
2.200000e-06	4.312692e-06	1.465634e-08	2.941081e+01	9.598296e+02
2.210000e-06	4.175560e-06	1.450450e-08	2.847562e+01	9.496184e+02
2.220000e-06	4.036783e-06	1.434678e-08	2.752922e+01	9.393840e+02
2.230000e-06	3.896429e-06	1.419248e-08	2.657206e+01	9.292388e+02
2.240000e-06	3.754635e-06	1.403457e-08	2.560508e+01	9.190846e+02
2.250000e-06	3.611543e-06	1.387597e-08	2.462925e+01	9.086413e+02
2.260000e-06	3.467163e-06	1.369867e-08	2.364464e+01	8.975606e+02
2.270000e-06	3.321534e-06	1.350809e-08	2.265151e+01	8.855763e+02
2.280000e-06	3.174765e-06	1.330665e-08	2.165061e+01	8.726240e+02
2.290000e-06	3.026795e-06	1.310780e-08	2.064151e+01	8.588729e+02
2.300000e-06	2.877641e-06	1.290518e-08	1.962434e+01	8.446507e+02
2.310000e-06	2.727550e-06	1.269941e-08	1.860078e+01	8.302885e+02
2.320000e-06	2.576603e-06	1.248300e-08	1.757138e+01	8.159535e+02
2.330000e-06	2.424772e-06	1.225583e-08	1.653596e+01	8.015448e+02
2.340000e-06	2.272020e-06	1.201280e-08	1.549425e+01	7.867045e+02
2.350000e-06	2.118420e-06	1.175346e-08	1.444676e+01	7.709489e+02
2.360000e-06	1.964072e-06	1.148242e-08	1.339417e+01	7.538654e+02
2.370000e-06	1.809016e-06	1.120645e-08	1.233676e+01	7.352912e+02
2.380000e-06	1.653308e-06	1.092447e-08	1.127489e+01	7.153882e+02
2.390000e-06	1.496956e-06	1.062850e-08	1.020863e+01	6.945688e+02
2.400000e-06	1.339985e-06	1.031478e-08	9.138154e+00	6.732946e+02
2.410000e-06	1.182500e-06	9.982815e-09	8.064167e+00	6.518267e+02
2.420000e-06	1.024604e-06	9.633065e-09	6.987381e+00	6.300387e+02
2.430000e-06	8.663934e-07	9.262234e-09	5.908451e+00	6.073865e+02
2.440000e-06	7.078922e-07	8.871405e-09	4.827537e+00	5.830670e+02
2.450000e-06	5.491609e-07	8.460554e-09	3.745054e+00	5.563145e+02
2.460000e-06	3.901921e-07	8.029114e-09	2.660952e+00	5.267148e+02
2.470000e-06	2.310875e-07	7.569877e-09	1.575922e+00	4.943914e+02
2.480000e-06	7.195131e-08	7.074649e-09	4.906787e-01	4.599509e+02
2.490000e-06	-8.716682e-08	6.539628e-09	-5.944422e-01	4.241680e+02
2.500000e-06	-2.461996e-07	5.966524e-09	-1.678981e+00	3.874956e+02
2.510000e-06	-4.051491e-07	5.354903e-09	-2.762952e+00	3.495789e+02
2.520000e-06	-5.639331e-07	4.693537e-09	-3.845795e+00	3.089803e+02
2.530000e-06	-7.225104e-07	3.964794e-09	-4.927227e+00	2.632729e+02
2.540000e-06	-8.808635e-07	3.152623e-09	-6.007131e+00	2.095456e+02
2.550000e-06	-1.038961e-06	2.229973e-09	-7.085295e+00	1.452145e+02
2.560000e-06	-1.196729e-06	1.152889e-09	-8.161203e+00	6.891293e+01
2.570000e-06	-1.353997e-06	-1.286130e-10	-9.233711e+00	-1.882181e+01
2.580000e-06	-1.510616e-06	-1.625731e-09	-1.030179e+01	-1.153073e+02
2.590000e-06	-1.666549e-06	-3.259919e-09	-1.136519e+01	-2.160352e+02
2.600000e-06	-1.821873e-06	-4.871485e-09	-1.242444e+01	-3.154939e+02
2.610000e-06	-1.976641e-06	-6.308730e-09	-1.347989e+01	-4.082779e+02
2.620000e-06	-2.130720e-06	-7.510054e-09	-1.453064e+01	-4.901745e+02
2.630000e-06	-2.283940e-06	-8.493320e-09	-1.557554e+01	-5.589238e+02
2.640000e-06	-2.436270e-06	-9.306057e-09	-1.661437e+01	-6.144541e+02
2.650000e-06	-2.587670e-06	-9.991425e-09	-1.764686e+01	-6.585586e+02
2.660000e-06	-2.738167e-06	-1.057956e-08	-1.867318e+01	-6.941511e+02
2.670000e-06	-2.887812e-06	-1.109119e-08	-1.969370e+01	-7.243531e+02
2.680000e-06	-3.036431e-06	-1.154364e-08	-2.070722e+01	-7.516978e+02
2.690000e-06	-3.183852e-06	-1.195042e-08	-2.171257e+01	-7.776661e+02
2.700000e-06	-3.330121e-06	-1.231577e-08	-2.271007e+01	-8.026425e+02
2.710000e-06	-3.475213e-06	-1.264289e-08	-2.369954e+01	-8.262299e+02
2.720000e-06	-3.619047e-06	-1.294133e-08	-2.468043e+01	-8.477529e+02
2.730000e-06	-3.761598e-06	-1.321939e-08	-2.565257e+01	-8.667378e+02
2.740000e-06	-3.902700e-06	-1.347916e-08	-2.661482e+01	-8.832006e+02
2.750000e-06	-4.042289e-06	-1.372013e-08	-2.756677e+01	-8.976656e+02
2.760000e-06	-4.180382e-06	-1.394698e-08	-2.850851e+01	-9.109527e+02
2.770000e-06	-4.316865e-06	-1.416525e-08	-2.943926e+01	-9.238544e+02
2.780000e-06	-4.451761e-06	-1.437130e-08	-3.035920e+01	-9.368511e+02
2.790000e-06	-4.585130e-06	-1.455936e-08	-3.126873e+01	-9.499793e+02
2.800000e-06	-4.716888e-06	-1.473274e-08	-3.216726e+01	-9.628949e+02
2.810000e-06	-4.846955e-06	-1.489787e-08	-3.305426e+01	-9.750852e+02
2.820000e-06	-4.975313e-06	-1.505710e-08	-3.392961e+01	-9.861286e+02
2.830000e-06	-5.101960e-06	-1.521097e-08	-3.479329e+01	-9.958890e+02
2.840000e-06	-5.226776e-06	-1.535835e-08	-3.564449e+01	-1.004569e+03
2.850000e-06	-5.349750e-06	-1.549837e-08	-3.648312e+01	-1.012612e+03
2.860000e-06	-5.470825e-06	-1.562927e-08	-3.730880e+01	-1.020503e+03
2.870000e-06	-5.589817e-06	-1.575074e-08	-3.812028e+01	-1.028567e+03
2.880000e-06	-5.706641e-06	-1.586616e-08	-3.891697e+01	-1.036847e+03
2.890000e-06	-5.821107e-06	-1.597615e-08	-3.969759e+01	-1.045112e+03
2.900000e-06	-5.933176e-06	-1.608146e-08	-4.046185e+01	-1.052982e+03
2.910000e-06	-6.043002e-06	-1.618167e-08	-4.121082e+01	-1.060110e+03
2.920000e-06	-6.150767e-06	-1.627657e-08	-4.194573e+01	-1.066344e+03
2.930000e-06	-6.256537e-06	-1.636814e-08	-4.266704e+01	-1.071790e+03
2.940000e-06	-6.360104e-06	-1.645750e-08	-4.337333e+01	-1.076765e+03
