# Temperatura_=_60.7
# Concentracion g/m^3_=_13400.0
# C_Vs_to_Am_M_A/Vsm_=_65563218390.804596
# pendiente_HvsI_1/m_=_3716.3
# ordenada_HvsI_A/m_=_1297.0
# frecuencia_Hz_=_301433.2222795525

Tiempo_(s)	Campo_(V.s)	Magnetizacion_(V.s)	Campo_(kA/m)	Magnetizacion_(A/m)
0.000000e+00	-8.328624e-06	-1.847812e-08	-5.691301e+01	-1.211940e+03
1.000000e-08	-8.325343e-06	-1.847760e-08	-5.689060e+01	-1.211656e+03
2.000000e-08	-8.319315e-06	-1.846882e-08	-5.684940e+01	-1.211544e+03
3.000000e-08	-8.310690e-06	-1.846059e-08	-5.679046e+01	-1.211429e+03
4.000000e-08	-8.299164e-06	-1.844944e-08	-5.671170e+01	-1.211083e+03
5.000000e-08	-8.284593e-06	-1.843312e-08	-5.661213e+01	-1.210326e+03
6.000000e-08	-8.267075e-06	-1.840839e-08	-5.649242e+01	-1.209105e+03
7.000000e-08	-8.246955e-06	-1.836954e-08	-5.635493e+01	-1.207523e+03
8.000000e-08	-8.224266e-06	-1.840016e-08	-5.619989e+01	-1.205791e+03
9.000000e-08	-8.198471e-06	-1.846827e-08	-5.602362e+01	-1.204137e+03
1.000000e-07	-8.169329e-06	-1.841172e-08	-5.582448e+01	-1.202715e+03
1.100000e-07	-8.137062e-06	-1.834736e-08	-5.560399e+01	-1.201537e+03
1.200000e-07	-8.101875e-06	-1.832357e-08	-5.536354e+01	-1.200479e+03
1.300000e-07	-8.063959e-06	-1.827417e-08	-5.510444e+01	-1.199338e+03
1.400000e-07	-8.023681e-06	-1.815509e-08	-5.482921e+01	-1.197925e+03
1.500000e-07	-7.980999e-06	-1.815369e-08	-5.453755e+01	-1.196142e+03
1.600000e-07	-7.935532e-06	-1.824491e-08	-5.422685e+01	-1.194021e+03
1.700000e-07	-7.887249e-06	-1.808884e-08	-5.389691e+01	-1.191694e+03
1.800000e-07	-7.835970e-06	-1.816637e-08	-5.354650e+01	-1.189319e+03
1.900000e-07	-7.781615e-06	-1.814270e-08	-5.317507e+01	-1.186994e+03
2.000000e-07	-7.724505e-06	-1.798670e-08	-5.278481e+01	-1.184701e+03
2.100000e-07	-7.664596e-06	-1.797522e-08	-5.237543e+01	-1.182307e+03
2.200000e-07	-7.601931e-06	-1.786821e-08	-5.194721e+01	-1.179621e+03
2.300000e-07	-7.536547e-06	-1.790610e-08	-5.150041e+01	-1.176484e+03
2.400000e-07	-7.468310e-06	-1.783506e-08	-5.103412e+01	-1.172849e+03
2.500000e-07	-7.397291e-06	-1.778704e-08	-5.054882e+01	-1.168812e+03
2.600000e-07	-7.323471e-06	-1.775180e-08	-5.004438e+01	-1.164578e+03
2.700000e-07	-7.246861e-06	-1.767588e-08	-4.952087e+01	-1.160374e+03
2.800000e-07	-7.167472e-06	-1.761597e-08	-4.897837e+01	-1.156350e+03
2.900000e-07	-7.085285e-06	-1.750233e-08	-4.841675e+01	-1.152507e+03
3.000000e-07	-7.000641e-06	-1.748990e-08	-4.783834e+01	-1.148689e+03
3.100000e-07	-6.913742e-06	-1.741900e-08	-4.724453e+01	-1.144645e+03
3.200000e-07	-6.824424e-06	-1.735242e-08	-4.663417e+01	-1.140140e+03
3.300000e-07	-6.732584e-06	-1.728326e-08	-4.600660e+01	-1.135051e+03
3.400000e-07	-6.638358e-06	-1.716997e-08	-4.536271e+01	-1.129430e+03
3.500000e-07	-6.541821e-06	-1.710962e-08	-4.470303e+01	-1.123481e+03
3.600000e-07	-6.442804e-06	-1.703357e-08	-4.402640e+01	-1.117474e+03
3.700000e-07	-6.341376e-06	-1.695342e-08	-4.333331e+01	-1.111623e+03
3.800000e-07	-6.237690e-06	-1.684508e-08	-4.262477e+01	-1.105989e+03
3.900000e-07	-6.131778e-06	-1.676166e-08	-4.190103e+01	-1.100451e+03
4.000000e-07	-6.023645e-06	-1.666912e-08	-4.116211e+01	-1.094745e+03
4.100000e-07	-5.913372e-06	-1.655761e-08	-4.040857e+01	-1.088587e+03
4.200000e-07	-5.800950e-06	-1.645355e-08	-3.964035e+01	-1.081787e+03
4.300000e-07	-5.686259e-06	-1.634999e-08	-3.885661e+01	-1.074341e+03
4.400000e-07	-5.569366e-06	-1.626202e-08	-3.805783e+01	-1.066429e+03
4.500000e-07	-5.450417e-06	-1.615613e-08	-3.724501e+01	-1.058336e+03
4.600000e-07	-5.329474e-06	-1.603122e-08	-3.641855e+01	-1.050326e+03
4.700000e-07	-5.206573e-06	-1.589397e-08	-3.557872e+01	-1.042510e+03
4.800000e-07	-5.081758e-06	-1.576472e-08	-3.472580e+01	-1.034794e+03
4.900000e-07	-4.955140e-06	-1.563902e-08	-3.386057e+01	-1.026905e+03
5.000000e-07	-4.826776e-06	-1.550408e-08	-3.298340e+01	-1.018509e+03
5.100000e-07	-4.696674e-06	-1.536052e-08	-3.209436e+01	-1.009353e+03
5.200000e-07	-4.564870e-06	-1.522161e-08	-3.119369e+01	-9.993814e+02
5.300000e-07	-4.431385e-06	-1.508268e-08	-3.028153e+01	-9.887632e+02
5.400000e-07	-4.296320e-06	-1.492871e-08	-2.935857e+01	-9.778217e+02
5.500000e-07	-4.159643e-06	-1.475579e-08	-2.842460e+01	-9.668878e+02
5.600000e-07	-4.021357e-06	-1.458486e-08	-2.747963e+01	-9.561438e+02
5.700000e-07	-3.881608e-06	-1.441826e-08	-2.652467e+01	-9.455279e+02
5.800000e-07	-3.740247e-06	-1.424298e-08	-2.555869e+01	-9.347437e+02
5.900000e-07	-3.597312e-06	-1.405000e-08	-2.458196e+01	-9.233781e+02
6.000000e-07	-3.453087e-06	-1.385294e-08	-2.359640e+01	-9.110771e+02
6.100000e-07	-3.307706e-06	-1.366405e-08	-2.260295e+01	-8.977044e+02
6.200000e-07	-3.161133e-06	-1.347358e-08	-2.160136e+01	-8.834083e+02
6.300000e-07	-3.013325e-06	-1.326571e-08	-2.059132e+01	-8.685618e+02
6.400000e-07	-2.864487e-06	-1.303689e-08	-1.957425e+01	-8.535949e+02
6.500000e-07	-2.714747e-06	-1.280529e-08	-1.855101e+01	-8.387888e+02
6.600000e-07	-2.564050e-06	-1.256784e-08	-1.752124e+01	-8.241230e+02
6.700000e-07	-2.412383e-06	-1.232133e-08	-1.648483e+01	-8.092499e+02
6.800000e-07	-2.259890e-06	-1.206327e-08	-1.544278e+01	-7.936149e+02
6.900000e-07	-2.106657e-06	-1.180175e-08	-1.439568e+01	-7.766813e+02
7.000000e-07	-1.952641e-06	-1.153440e-08	-1.334322e+01	-7.581616e+02
7.100000e-07	-1.797824e-06	-1.125235e-08	-1.228529e+01	-7.381520e+02
7.200000e-07	-1.642384e-06	-1.095188e-08	-1.122311e+01	-7.170983e+02
7.300000e-07	-1.486465e-06	-1.063374e-08	-1.015764e+01	-6.955932e+02
7.400000e-07	-1.330056e-06	-1.030431e-08	-9.088838e+00	-6.740816e+02
7.500000e-07	-1.173149e-06	-9.959766e-09	-8.016622e+00	-6.525986e+02
7.600000e-07	-1.015716e-06	-9.598126e-09	-6.940820e+00	-6.306636e+02
7.700000e-07	-8.578456e-07	-9.216657e-09	-5.862022e+00	-6.073964e+02
7.800000e-07	-6.996610e-07	-8.816356e-09	-4.781080e+00	-5.818272e+02
7.900000e-07	-5.412207e-07	-8.391334e-09	-3.698390e+00	-5.532827e+02
8.000000e-07	-3.825703e-07	-7.938180e-09	-2.614265e+00	-5.216777e+02
8.100000e-07	-2.237349e-07	-7.451864e-09	-1.528875e+00	-4.875627e+02
8.200000e-07	-6.486909e-08	-6.931866e-09	-4.432779e-01	-4.518593e+02
8.300000e-07	9.394510e-08	-6.378689e-09	6.419666e-01	-4.153435e+02
8.400000e-07	2.527678e-07	-5.781885e-09	1.727269e+00	-3.780504e+02
8.500000e-07	4.115037e-07	-5.130358e-09	2.811979e+00	-3.388395e+02
8.600000e-07	5.700296e-07	-4.411270e-09	3.895253e+00	-2.953320e+02
8.700000e-07	7.283472e-07	-3.613266e-09	4.977105e+00	-2.443211e+02
8.800000e-07	8.863440e-07	-2.709389e-09	6.056763e+00	-1.825960e+02
8.900000e-07	1.043968e-06	-1.656274e-09	7.133876e+00	-1.079592e+02
9.000000e-07	1.201245e-06	-3.925838e-10	8.208613e+00	-2.012726e+01
9.100000e-07	1.358077e-06	1.117330e-09	9.280313e+00	7.879115e+01
9.200000e-07	1.514415e-06	2.823858e-09	1.034864e+01	1.844284e+02
9.300000e-07	1.670246e-06	4.566499e-09	1.141350e+01	2.909075e+02
9.400000e-07	1.825531e-06	6.147703e-09	1.247463e+01	3.920197e+02
9.500000e-07	1.980216e-06	7.465635e-09	1.353165e+01	4.825015e+02
9.600000e-07	2.134188e-06	8.526624e-09	1.458381e+01	5.590529e+02
9.700000e-07	2.287307e-06	9.388810e-09	1.563014e+01	6.208203e+02
9.800000e-07	2.439536e-06	1.010467e-08	1.667038e+01	6.692367e+02
9.900000e-07	2.590920e-06	1.071292e-08	1.770486e+01	7.073129e+02
1.000000e-06	2.741393e-06	1.124049e-08	1.873310e+01	7.386315e+02
1.010000e-06	2.890794e-06	1.170140e-08	1.975402e+01	7.663669e+02
1.020000e-06	3.039166e-06	1.211321e-08	2.076791e+01	7.926115e+02
1.030000e-06	3.186544e-06	1.248665e-08	2.177500e+01	8.181652e+02
1.040000e-06	3.332772e-06	1.282703e-08	2.277424e+01	8.427721e+02
1.050000e-06	3.477769e-06	1.313857e-08	2.376507e+01	8.656486e+02
1.060000e-06	3.621531e-06	1.342981e-08	2.474745e+01	8.860681e+02
1.070000e-06	3.763904e-06	1.370082e-08	2.572035e+01	9.037836e+02
1.080000e-06	3.904784e-06	1.395095e-08	2.668304e+01	9.191600e+02
1.090000e-06	4.044189e-06	1.418583e-08	2.763566e+01	9.330157e+02
1.100000e-06	4.182032e-06	1.440933e-08	2.857759e+01	9.462812e+02
1.110000e-06	4.318336e-06	1.462151e-08	2.950902e+01	9.596410e+02
1.120000e-06	4.453098e-06	1.482084e-08	3.042991e+01	9.733107e+02
1.130000e-06	4.586234e-06	1.500943e-08	3.133968e+01	9.870283e+02
1.140000e-06	4.717761e-06	1.518920e-08	3.223846e+01	1.000242e+03
1.150000e-06	4.847607e-06	1.536319e-08	3.312575e+01	1.012401e+03
1.160000e-06	4.975732e-06	1.552919e-08	3.400128e+01	1.023210e+03
1.170000e-06	5.102120e-06	1.568683e-08	3.486494e+01	1.032759e+03
1.180000e-06	5.226706e-06	1.583723e-08	3.571630e+01	1.041466e+03
1.190000e-06	5.349457e-06	1.598305e-08	3.655510e+01	1.049891e+03
1.200000e-06	5.470256e-06	1.612207e-08	3.738058e+01	1.058487e+03
1.210000e-06	5.589001e-06	1.625377e-08	3.819201e+01	1.067426e+03
1.220000e-06	5.705616e-06	1.638193e-08	3.898889e+01	1.076544e+03
1.230000e-06	5.820044e-06	1.650764e-08	3.977082e+01	1.085444e+03
1.240000e-06	5.932309e-06	1.662665e-08	4.053798e+01	1.093681e+03
1.250000e-06	6.042450e-06	1.673738e-08	4.129062e+01	1.100969e+03
1.260000e-06	6.150501e-06	1.684296e-08	4.202897e+01	1.107301e+03
1.270000e-06	6.256348e-06	1.694315e-08	4.275227e+01	1.112946e+03
1.280000e-06	6.359921e-06	1.703815e-08	4.346003e+01	1.118327e+03
1.290000e-06	6.461199e-06	1.712749e-08	4.415210e+01	1.123838e+03
1.300000e-06	6.560065e-06	1.721271e-08	4.482770e+01	1.129681e+03
1.310000e-06	6.656547e-06	1.729527e-08	4.548701e+01	1.135795e+03
1.320000e-06	6.750741e-06	1.737655e-08	4.613067e+01	1.141900e+03
1.330000e-06	6.842625e-06	1.745608e-08	4.675855e+01	1.147633e+03
1.340000e-06	6.932035e-06	1.753227e-08	4.736953e+01	1.152711e+03
1.350000e-06	7.018976e-06	1.760380e-08	4.796363e+01	1.157055e+03
1.360000e-06	7.103555e-06	1.766929e-08	4.854160e+01	1.160819e+03
1.370000e-06	7.185621e-06	1.773161e-08	4.910239e+01	1.164314e+03
1.380000e-06	7.265063e-06	1.779161e-08	4.964525e+01	1.167870e+03
1.390000e-06	7.341820e-06	1.784996e-08	5.016976e+01	1.171691e+03
1.400000e-06	7.415811e-06	1.790700e-08	5.067537e+01	1.175775e+03
1.410000e-06	7.487107e-06	1.796287e-08	5.116257e+01	1.179921e+03
1.420000e-06	7.555757e-06	1.801855e-08	5.163168e+01	1.183827e+03
1.430000e-06	7.621696e-06	1.807160e-08	5.208228e+01	1.187227e+03
1.440000e-06	7.684950e-06	1.811804e-08	5.251452e+01	1.190007e+03
1.450000e-06	7.745619e-06	1.815905e-08	5.292909e+01	1.192252e+03
1.460000e-06	7.803534e-06	1.819821e-08	5.332485e+01	1.194203e+03
1.470000e-06	7.858590e-06	1.823643e-08	5.370107e+01	1.196152e+03
1.480000e-06	7.910575e-06	1.827325e-08	5.405630e+01	1.198305e+03
1.490000e-06	7.959351e-06	1.830833e-08	5.438961e+01	1.200704e+03
1.500000e-06	8.005306e-06	1.834284e-08	5.470364e+01	1.203205e+03
1.510000e-06	8.048505e-06	1.837508e-08	5.499884e+01	1.205555e+03
1.520000e-06	8.088754e-06	1.840186e-08	5.527388e+01	1.207498e+03
1.530000e-06	8.126159e-06	1.842443e-08	5.552948e+01	1.208895e+03
1.540000e-06	8.160715e-06	1.844266e-08	5.576562e+01	1.209779e+03
1.550000e-06	8.192405e-06	1.845866e-08	5.598217e+01	1.210342e+03
1.560000e-06	8.221332e-06	1.847541e-08	5.617984e+01	1.210843e+03
1.570000e-06	8.247296e-06	1.849240e-08	5.635726e+01	1.211498e+03
1.580000e-06	8.270260e-06	1.850764e-08	5.651419e+01	1.212388e+03
1.590000e-06	8.290365e-06	1.851917e-08	5.665157e+01	1.213427e+03
1.600000e-06	8.307517e-06	1.852708e-08	5.676878e+01	1.214407e+03
1.610000e-06	8.321672e-06	1.853348e-08	5.686551e+01	1.215094e+03
1.620000e-06	8.332634e-06	1.853888e-08	5.694041e+01	1.215334e+03
1.630000e-06	8.340460e-06	1.854110e-08	5.699390e+01	1.215122e+03
1.640000e-06	8.345429e-06	1.854135e-08	5.702784e+01	1.214601e+03
1.650000e-06	8.347427e-06	1.854250e-08	5.704150e+01	1.213998e+03
1.660000e-06	8.346557e-06	1.853890e-08	5.703555e+01	1.213518e+03
1.670000e-06	8.343005e-06	1.852847e-08	5.701128e+01	1.213256e+03
1.680000e-06	8.336613e-06	1.852178e-08	5.696761e+01	1.213153e+03
1.690000e-06	8.327362e-06	1.851213e-08	5.690439e+01	1.213024e+03
1.700000e-06	8.315201e-06	1.850004e-08	5.682129e+01	1.212640e+03
1.710000e-06	8.300171e-06	1.849452e-08	5.671858e+01	1.211832e+03
1.720000e-06	8.282635e-06	1.850205e-08	5.659875e+01	1.210565e+03
1.730000e-06	8.262577e-06	1.847882e-08	5.646169e+01	1.208955e+03
1.740000e-06	8.239592e-06	1.833917e-08	5.630462e+01	1.207219e+03
1.750000e-06	8.213023e-06	1.832817e-08	5.612306e+01	1.205585e+03
1.760000e-06	8.182564e-06	1.834970e-08	5.591492e+01	1.204190e+03
1.770000e-06	8.148972e-06	1.831476e-08	5.568537e+01	1.203033e+03
1.780000e-06	8.112903e-06	1.833149e-08	5.543890e+01	1.201976e+03
1.790000e-06	8.074457e-06	1.844191e-08	5.517618e+01	1.200813e+03
1.800000e-06	8.034014e-06	1.829469e-08	5.489982e+01	1.199362e+03
1.810000e-06	7.991312e-06	1.823698e-08	5.460802e+01	1.197538e+03
1.820000e-06	7.945605e-06	1.832824e-08	5.429568e+01	1.195387e+03
1.830000e-06	7.897088e-06	1.812463e-08	5.396415e+01	1.193047e+03
1.840000e-06	7.845418e-06	1.824515e-08	5.361106e+01	1.190674e+03
1.850000e-06	7.790494e-06	1.816189e-08	5.323574e+01	1.188355e+03
1.860000e-06	7.732934e-06	1.815612e-08	5.284241e+01	1.186058e+03
1.870000e-06	7.672568e-06	1.820517e-08	5.242990e+01	1.183642e+03
1.880000e-06	7.609437e-06	1.798521e-08	5.199850e+01	1.180913e+03
1.890000e-06	7.543488e-06	1.803265e-08	5.154784e+01	1.177722e+03
1.900000e-06	7.474686e-06	1.786884e-08	5.107770e+01	1.174036e+03
1.910000e-06	7.403057e-06	1.786317e-08	5.058822e+01	1.169966e+03
1.920000e-06	7.328494e-06	1.784387e-08	5.007870e+01	1.165724e+03
1.930000e-06	7.251143e-06	1.776774e-08	4.955013e+01	1.161534e+03
1.940000e-06	7.171142e-06	1.779242e-08	4.900345e+01	1.157532e+03
1.950000e-06	7.088756e-06	1.759664e-08	4.844047e+01	1.153701e+03
1.960000e-06	7.003762e-06	1.760743e-08	4.785967e+01	1.149870e+03
1.970000e-06	6.916125e-06	1.745239e-08	4.726081e+01	1.145787e+03
1.980000e-06	6.826129e-06	1.739151e-08	4.664583e+01	1.141221e+03
1.990000e-06	6.733629e-06	1.736527e-08	4.601373e+01	1.136069e+03
2.000000e-06	6.638747e-06	1.726715e-08	4.536537e+01	1.130400e+03
2.010000e-06	6.541637e-06	1.722961e-08	4.470177e+01	1.124432e+03
2.020000e-06	6.442213e-06	1.707291e-08	4.402237e+01	1.118432e+03
2.030000e-06	6.340305e-06	1.702493e-08	4.332599e+01	1.112604e+03
2.040000e-06	6.236102e-06	1.689306e-08	4.261392e+01	1.106990e+03
2.050000e-06	6.129756e-06	1.683158e-08	4.188722e+01	1.101446e+03
2.060000e-06	6.021222e-06	1.672658e-08	4.114556e+01	1.095705e+03
2.070000e-06	5.910505e-06	1.662725e-08	4.038898e+01	1.089483e+03
2.080000e-06	5.797582e-06	1.652939e-08	3.961733e+01	1.082610e+03
2.090000e-06	5.682416e-06	1.640606e-08	3.883035e+01	1.075102e+03
2.100000e-06	5.565002e-06	1.630091e-08	3.802802e+01	1.067155e+03
2.110000e-06	5.445487e-06	1.616947e-08	3.721132e+01	1.059060e+03
2.120000e-06	5.324010e-06	1.606298e-08	3.638122e+01	1.051068e+03
2.130000e-06	5.200684e-06	1.593317e-08	3.553847e+01	1.043271e+03
2.140000e-06	5.075479e-06	1.581704e-08	3.468290e+01	1.035551e+03
2.150000e-06	4.948413e-06	1.567297e-08	3.381460e+01	1.027623e+03
2.160000e-06	4.819587e-06	1.554468e-08	3.293428e+01	1.019154e+03
2.170000e-06	4.689030e-06	1.539819e-08	3.204213e+01	1.009909e+03
2.180000e-06	4.556777e-06	1.525572e-08	3.113838e+01	9.998550e+02
2.190000e-06	4.423014e-06	1.509516e-08	3.022432e+01	9.891846e+02
2.200000e-06	4.287686e-06	1.493967e-08	2.929957e+01	9.782289e+02
2.210000e-06	4.150627e-06	1.477709e-08	2.836299e+01	9.673098e+02
2.220000e-06	4.011961e-06	1.461130e-08	2.741542e+01	9.565865e+02
2.230000e-06	3.871784e-06	1.444423e-08	2.645754e+01	9.459694e+02
2.240000e-06	3.730209e-06	1.426849e-08	2.549009e+01	9.351426e+02
2.250000e-06	3.587258e-06	1.408978e-08	2.451325e+01	9.236903e+02
2.260000e-06	3.443019e-06	1.389277e-08	2.352761e+01	9.112755e+02
2.270000e-06	3.297599e-06	1.368964e-08	2.253389e+01	8.977912e+02
2.280000e-06	3.150949e-06	1.347413e-08	2.153177e+01	8.834149e+02
2.290000e-06	3.003096e-06	1.326122e-08	2.052143e+01	8.685353e+02
2.300000e-06	2.854181e-06	1.304376e-08	1.950382e+01	8.535760e+02
2.310000e-06	2.704332e-06	1.282647e-08	1.847985e+01	8.387913e+02
2.320000e-06	2.553594e-06	1.259601e-08	1.744979e+01	8.241244e+02
2.330000e-06	2.401972e-06	1.235554e-08	1.641369e+01	8.091973e+02
2.340000e-06	2.249455e-06	1.209763e-08	1.537148e+01	7.934456e+02
2.350000e-06	2.096039e-06	1.182402e-08	1.432312e+01	7.763490e+02
2.360000e-06	1.941811e-06	1.153599e-08	1.326921e+01	7.576574e+02
2.370000e-06	1.786938e-06	1.124275e-08	1.221091e+01	7.375091e+02
2.380000e-06	1.631483e-06	1.094802e-08	1.114862e+01	7.163781e+02
2.390000e-06	1.475396e-06	1.064297e-08	1.008200e+01	6.948558e+02
2.400000e-06	1.318642e-06	1.031979e-08	9.010840e+00	6.733539e+02
2.410000e-06	1.161361e-06	9.975455e-09	7.936073e+00	6.518536e+02
2.420000e-06	1.003713e-06	9.612653e-09	6.858798e+00	6.298220e+02
2.430000e-06	8.457842e-07	9.226784e-09	5.779601e+00	6.063519e+02
2.440000e-06	6.876086e-07	8.817540e-09	4.698720e+00	5.804869e+02
2.450000e-06	5.292258e-07	8.385492e-09	3.616424e+00	5.516060e+02
2.460000e-06	3.706765e-07	7.931991e-09	2.532990e+00	5.196953e+02
2.470000e-06	2.119762e-07	7.451402e-09	1.448523e+00	4.853629e+02
2.480000e-06	5.324441e-08	6.935765e-09	3.638416e-01	4.495430e+02
2.490000e-06	-1.054354e-07	6.377388e-09	-7.204846e-01	4.129597e+02
2.500000e-06	-2.640695e-07	5.771637e-09	-1.804499e+00	3.755380e+02
2.510000e-06	-4.226095e-07	5.112813e-09	-2.887869e+00	3.359996e+02
2.520000e-06	-5.810049e-07	4.390224e-09	-3.970253e+00	2.918490e+02
2.530000e-06	-7.392302e-07	3.585581e-09	-5.051473e+00	2.398339e+02
2.540000e-06	-8.972055e-07	2.673534e-09	-6.130985e+00	1.768026e+02
2.550000e-06	-1.054890e-06	1.611681e-09	-7.208511e+00	1.007248e+02
2.560000e-06	-1.212185e-06	3.429402e-10	-8.283371e+00	1.156017e+01
2.570000e-06	-1.368962e-06	-1.170665e-09	-9.354695e+00	-8.832254e+01
2.580000e-06	-1.525210e-06	-2.886481e-09	-1.042241e+01	-1.943484e+02
2.590000e-06	-1.680847e-06	-4.640445e-09	-1.148594e+01	-3.005438e+02
2.600000e-06	-1.835811e-06	-6.231173e-09	-1.254487e+01	-4.007417e+02
2.610000e-06	-1.990131e-06	-7.548083e-09	-1.359941e+01	-4.898480e+02
2.620000e-06	-2.143798e-06	-8.604106e-09	-1.464948e+01	-5.648130e+02
2.630000e-06	-2.296687e-06	-9.464801e-09	-1.569423e+01	-6.250467e+02
2.640000e-06	-2.448682e-06	-1.018159e-08	-1.673288e+01	-6.721929e+02
2.650000e-06	-2.599695e-06	-1.079036e-08	-1.776482e+01	-7.093740e+02
2.660000e-06	-2.749771e-06	-1.131928e-08	-1.879035e+01	-7.401725e+02
2.670000e-06	-2.898925e-06	-1.178913e-08	-1.980958e+01	-7.676715e+02
2.680000e-06	-3.047065e-06	-1.221094e-08	-2.082188e+01	-7.938265e+02
2.690000e-06	-3.194137e-06	-1.258930e-08	-2.182689e+01	-8.193059e+02
2.700000e-06	-3.340041e-06	-1.292720e-08	-2.282392e+01	-8.437691e+02
2.710000e-06	-3.484711e-06	-1.323423e-08	-2.381251e+01	-8.664120e+02
2.720000e-06	-3.628095e-06	-1.352132e-08	-2.479231e+01	-8.865435e+02
2.730000e-06	-3.770181e-06	-1.379039e-08	-2.576324e+01	-9.039812e+02
2.740000e-06	-3.910863e-06	-1.404331e-08	-2.672458e+01	-9.191510e+02
2.750000e-06	-4.050021e-06	-1.428204e-08	-2.767551e+01	-9.329013e+02
2.760000e-06	-4.187662e-06	-1.451027e-08	-2.861607e+01	-9.461519e+02
2.770000e-06	-4.323745e-06	-1.472838e-08	-2.954598e+01	-9.595443e+02
2.780000e-06	-4.458232e-06	-1.493055e-08	-3.046498e+01	-9.732396e+02
2.790000e-06	-4.591143e-06	-1.511467e-08	-3.137323e+01	-9.869328e+02
2.800000e-06	-4.722445e-06	-1.528860e-08	-3.227046e+01	-1.000058e+03
2.810000e-06	-4.852063e-06	-1.545784e-08	-3.315620e+01	-1.012080e+03
2.820000e-06	-4.979946e-06	-1.562088e-08	-3.403008e+01	-1.022744e+03
2.830000e-06	-5.106100e-06	-1.577790e-08	-3.489214e+01	-1.032179e+03
2.840000e-06	-5.230436e-06	-1.592942e-08	-3.574178e+01	-1.040830e+03
2.850000e-06	-5.352927e-06	-1.607542e-08	-3.657882e+01	-1.049256e+03
2.860000e-06	-5.473532e-06	-1.621288e-08	-3.740296e+01	-1.057887e+03
2.870000e-06	-5.592080e-06	-1.633928e-08	-3.821305e+01	-1.066859e+03
2.880000e-06	-5.708401e-06	-1.645849e-08	-3.900792e+01	-1.075976e+03
2.890000e-06	-5.822371e-06	-1.657458e-08	-3.978672e+01	-1.084825e+03
2.900000e-06	-5.934046e-06	-1.668819e-08	-4.054985e+01	-1.092971e+03
2.910000e-06	-6.043477e-06	-1.679482e-08	-4.129763e+01	-1.100152e+03
2.920000e-06	-6.150763e-06	-1.689516e-08	-4.203076e+01	-1.106394e+03
2.930000e-06	-6.256027e-06	-1.699367e-08	-4.275008e+01	-1.111990e+03
2.940000e-06	-6.359135e-06	-1.708998e-08	-4.345466e+01	-1.117369e+03
