# Temperatura_=_23.5
# Concentracion g/m^3_=_13400.0
# C_Vs_to_Am_M_A/Vsm_=_65563218390.804596
# pendiente_HvsI_1/m_=_3716.3
# ordenada_HvsI_A/m_=_1297.0
# frecuencia_Hz_=_301435.905179801

Tiempo_(s)	Campo_(V.s)	Magnetizacion_(V.s)	Campo_(kA/m)	Magnetizacion_(A/m)
0.000000e+00	-8.382301e-06	-1.913976e-08	-5.691305e+01	-1.254276e+03
1.000000e-08	-8.378787e-06	-1.913839e-08	-5.688919e+01	-1.253695e+03
2.000000e-08	-8.372584e-06	-1.912721e-08	-5.684707e+01	-1.253319e+03
3.000000e-08	-8.363728e-06	-1.911691e-08	-5.678694e+01	-1.253133e+03
4.000000e-08	-8.351925e-06	-1.910662e-08	-5.670680e+01	-1.252986e+03
5.000000e-08	-8.337096e-06	-1.909440e-08	-5.660612e+01	-1.252665e+03
6.000000e-08	-8.319338e-06	-1.907480e-08	-5.648555e+01	-1.251981e+03
7.000000e-08	-8.299004e-06	-1.904192e-08	-5.634748e+01	-1.250858e+03
8.000000e-08	-8.276100e-06	-1.908449e-08	-5.619198e+01	-1.249360e+03
9.000000e-08	-8.249997e-06	-1.913577e-08	-5.601475e+01	-1.247666e+03
1.000000e-07	-8.220481e-06	-1.905749e-08	-5.581434e+01	-1.245995e+03
1.100000e-07	-8.187844e-06	-1.899662e-08	-5.559275e+01	-1.244512e+03
1.200000e-07	-8.152290e-06	-1.898869e-08	-5.535135e+01	-1.243264e+03
1.300000e-07	-8.114118e-06	-1.894746e-08	-5.509217e+01	-1.242168e+03
1.400000e-07	-8.073586e-06	-1.882572e-08	-5.481697e+01	-1.241048e+03
1.500000e-07	-8.030521e-06	-1.884411e-08	-5.452457e+01	-1.239719e+03
1.600000e-07	-7.984628e-06	-1.892798e-08	-5.421297e+01	-1.238061e+03
1.700000e-07	-7.935891e-06	-1.877685e-08	-5.388207e+01	-1.236060e+03
1.800000e-07	-7.884139e-06	-1.885388e-08	-5.353069e+01	-1.233800e+03
1.900000e-07	-7.829290e-06	-1.882006e-08	-5.315829e+01	-1.231410e+03
2.000000e-07	-7.771621e-06	-1.869406e-08	-5.276673e+01	-1.228990e+03
2.100000e-07	-7.711162e-06	-1.868348e-08	-5.235623e+01	-1.226552e+03
2.200000e-07	-7.647975e-06	-1.857862e-08	-5.192722e+01	-1.224015e+03
2.300000e-07	-7.582075e-06	-1.860949e-08	-5.147978e+01	-1.221236e+03
2.400000e-07	-7.513344e-06	-1.852287e-08	-5.101312e+01	-1.218084e+03
2.500000e-07	-7.441832e-06	-1.848979e-08	-5.052757e+01	-1.214505e+03
2.600000e-07	-7.367420e-06	-1.845602e-08	-5.002234e+01	-1.210562e+03
2.700000e-07	-7.290120e-06	-1.838572e-08	-4.949750e+01	-1.206408e+03
2.800000e-07	-7.209971e-06	-1.833101e-08	-4.895332e+01	-1.202228e+03
2.900000e-07	-7.127127e-06	-1.822882e-08	-4.839083e+01	-1.198154e+03
3.000000e-07	-7.041963e-06	-1.821142e-08	-4.781259e+01	-1.194205e+03
3.100000e-07	-6.954460e-06	-1.811514e-08	-4.721848e+01	-1.190266e+03
3.200000e-07	-6.864367e-06	-1.805634e-08	-4.660678e+01	-1.186138e+03
3.300000e-07	-6.771774e-06	-1.799295e-08	-4.597810e+01	-1.181623e+03
3.400000e-07	-6.676889e-06	-1.789546e-08	-4.533387e+01	-1.176604e+03
3.500000e-07	-6.579616e-06	-1.783998e-08	-4.467341e+01	-1.171106e+03
3.600000e-07	-6.479903e-06	-1.776437e-08	-4.399639e+01	-1.165282e+03
3.700000e-07	-6.377864e-06	-1.768987e-08	-4.330358e+01	-1.159350e+03
3.800000e-07	-6.273503e-06	-1.757897e-08	-4.259501e+01	-1.153490e+03
3.900000e-07	-6.166787e-06	-1.749194e-08	-4.187044e+01	-1.147767e+03
4.000000e-07	-6.057898e-06	-1.738995e-08	-4.113112e+01	-1.142089e+03
4.100000e-07	-5.946939e-06	-1.728463e-08	-4.037774e+01	-1.136244e+03
4.200000e-07	-5.833721e-06	-1.718583e-08	-3.960903e+01	-1.129984e+03
4.300000e-07	-5.718100e-06	-1.709023e-08	-3.882400e+01	-1.123137e+03
4.400000e-07	-5.600271e-06	-1.700555e-08	-3.802399e+01	-1.115676e+03
4.500000e-07	-5.480417e-06	-1.689941e-08	-3.721022e+01	-1.107735e+03
4.600000e-07	-5.358546e-06	-1.677472e-08	-3.638275e+01	-1.099547e+03
4.700000e-07	-5.234751e-06	-1.663515e-08	-3.554222e+01	-1.091340e+03
4.800000e-07	-5.109124e-06	-1.650193e-08	-3.468926e+01	-1.083232e+03
4.900000e-07	-4.981651e-06	-1.637366e-08	-3.382376e+01	-1.075168e+03
5.000000e-07	-4.852361e-06	-1.624566e-08	-3.294593e+01	-1.066939e+03
5.100000e-07	-4.721285e-06	-1.610776e-08	-3.205596e+01	-1.058267e+03
5.200000e-07	-4.588456e-06	-1.596920e-08	-3.115410e+01	-1.048922e+03
5.300000e-07	-4.454022e-06	-1.582570e-08	-3.024133e+01	-1.038826e+03
5.400000e-07	-4.318059e-06	-1.567169e-08	-2.931819e+01	-1.028085e+03
5.500000e-07	-4.180497e-06	-1.550126e-08	-2.838419e+01	-1.016943e+03
5.600000e-07	-4.041253e-06	-1.533006e-08	-2.743877e+01	-1.005664e+03
5.700000e-07	-3.900419e-06	-1.515691e-08	-2.648255e+01	-9.944125e+02
5.800000e-07	-3.758043e-06	-1.497599e-08	-2.551587e+01	-9.831588e+02
5.900000e-07	-3.614128e-06	-1.478332e-08	-2.453873e+01	-9.716814e+02
6.000000e-07	-3.468820e-06	-1.458652e-08	-2.355214e+01	-9.596500e+02
6.100000e-07	-3.322328e-06	-1.439722e-08	-2.255750e+01	-9.467648e+02
6.200000e-07	-3.174762e-06	-1.420401e-08	-2.155558e+01	-9.328874e+02
6.300000e-07	-3.026135e-06	-1.399554e-08	-2.054645e+01	-9.181030e+02
6.400000e-07	-2.876508e-06	-1.376402e-08	-1.953054e+01	-9.026834e+02
6.500000e-07	-2.725893e-06	-1.352381e-08	-1.850791e+01	-8.869591e+02
6.600000e-07	-2.574264e-06	-1.327414e-08	-1.747840e+01	-8.711566e+02
6.700000e-07	-2.421649e-06	-1.301789e-08	-1.644219e+01	-8.552712e+02
6.800000e-07	-2.268119e-06	-1.275356e-08	-1.539978e+01	-8.390372e+02
6.900000e-07	-2.113791e-06	-1.248542e-08	-1.435194e+01	-8.220161e+02
7.000000e-07	-1.958668e-06	-1.221045e-08	-1.329870e+01	-8.037688e+02
7.100000e-07	-1.802803e-06	-1.192147e-08	-1.224043e+01	-7.840401e+02
7.200000e-07	-1.646359e-06	-1.161507e-08	-1.117823e+01	-7.628690e+02
7.300000e-07	-1.489316e-06	-1.128506e-08	-1.011196e+01	-7.405681e+02
7.400000e-07	-1.331719e-06	-1.093879e-08	-9.041932e+00	-7.175679e+02
7.500000e-07	-1.173681e-06	-1.057757e-08	-7.968907e+00	-6.941869e+02
7.600000e-07	-1.015191e-06	-1.020151e-08	-6.892808e+00	-6.704252e+02
7.700000e-07	-8.563293e-07	-9.806098e-09	-5.814192e+00	-6.458819e+02
7.800000e-07	-6.971842e-07	-9.392518e-09	-4.733649e+00	-6.198479e+02
7.900000e-07	-5.377680e-07	-8.957668e-09	-3.651266e+00	-5.915539e+02
8.000000e-07	-3.781839e-07	-8.492329e-09	-2.567743e+00	-5.604758e+02
8.100000e-07	-2.185413e-07	-7.992431e-09	-1.483823e+00	-5.265619e+02
8.200000e-07	-5.882490e-08	-7.460660e-09	-3.994016e-01	-4.902592e+02
8.300000e-07	1.008902e-07	-6.902213e-09	6.850113e-01	-4.522858e+02
8.400000e-07	2.605642e-07	-6.307498e-09	1.769144e+00	-4.131999e+02
8.500000e-07	4.201850e-07	-5.667461e-09	2.852917e+00	-3.729119e+02
8.600000e-07	5.796438e-07	-4.974114e-09	3.935590e+00	-3.303376e+02
8.700000e-07	7.388606e-07	-4.216964e-09	5.016618e+00	-2.833658e+02
8.800000e-07	8.977941e-07	-3.378641e-09	6.095724e+00	-2.292253e+02
8.900000e-07	1.056421e-06	-2.432100e-09	7.172749e+00	-1.651948e+02
9.000000e-07	1.214676e-06	-1.336263e-09	8.247251e+00	-8.947274e+01
9.100000e-07	1.372473e-06	-4.796389e-11	9.318634e+00	-1.938920e+00
9.200000e-07	1.529815e-06	1.446497e-09	1.038694e+01	9.544549e+01
9.300000e-07	1.686677e-06	3.092603e-09	1.145198e+01	1.987624e+02
9.400000e-07	1.842951e-06	4.756359e-09	1.251303e+01	3.027878e+02
9.500000e-07	1.998631e-06	6.291831e-09	1.357004e+01	4.020085e+02
9.600000e-07	2.153707e-06	7.609232e-09	1.462296e+01	4.917249e+02
9.700000e-07	2.307999e-06	8.703762e-09	1.567055e+01	5.689342e+02
9.800000e-07	2.461272e-06	9.613655e-09	1.671122e+01	6.327544e+02
9.900000e-07	2.613505e-06	1.037895e-08	1.774483e+01	6.842995e+02
1.000000e-06	2.764722e-06	1.103131e-08	1.877154e+01	7.260809e+02
1.010000e-06	2.914941e-06	1.159449e-08	1.979148e+01	7.611498e+02
1.020000e-06	3.064148e-06	1.209195e-08	2.080455e+01	7.922547e+02
1.030000e-06	3.212261e-06	1.253986e-08	2.181019e+01	8.212569e+02
1.040000e-06	3.359312e-06	1.294834e-08	2.280861e+01	8.489368e+02
1.050000e-06	3.505284e-06	1.332084e-08	2.379972e+01	8.751829e+02
1.060000e-06	3.649938e-06	1.366548e-08	2.478187e+01	8.994304e+02
1.070000e-06	3.793148e-06	1.398240e-08	2.575422e+01	9.211513e+02
1.080000e-06	3.934905e-06	1.427100e-08	2.671670e+01	9.402102e+02
1.090000e-06	4.075199e-06	1.453468e-08	2.766925e+01	9.569758e+02
1.100000e-06	4.213901e-06	1.478043e-08	2.861099e+01	9.721864e+02
1.110000e-06	4.350923e-06	1.501574e-08	2.954133e+01	9.866610e+02
1.120000e-06	4.486383e-06	1.523971e-08	3.046106e+01	1.000998e+03
1.130000e-06	4.620289e-06	1.545325e-08	3.137023e+01	1.015389e+03
1.140000e-06	4.752605e-06	1.565766e-08	3.226861e+01	1.029617e+03
1.150000e-06	4.883289e-06	1.585396e-08	3.315592e+01	1.043221e+03
1.160000e-06	5.012168e-06	1.603449e-08	3.403096e+01	1.055743e+03
1.170000e-06	5.139230e-06	1.619894e-08	3.489367e+01	1.066952e+03
1.180000e-06	5.264557e-06	1.635449e-08	3.574460e+01	1.076950e+03
1.190000e-06	5.388111e-06	1.650714e-08	3.658349e+01	1.086118e+03
1.200000e-06	5.509699e-06	1.665554e-08	3.740903e+01	1.094950e+03
1.210000e-06	5.629170e-06	1.679835e-08	3.822020e+01	1.103847e+03
1.220000e-06	5.746578e-06	1.693812e-08	3.901736e+01	1.112954e+03
1.230000e-06	5.861795e-06	1.707320e-08	3.979965e+01	1.122125e+03
1.240000e-06	5.974665e-06	1.720029e-08	4.056600e+01	1.131010e+03
1.250000e-06	6.085319e-06	1.731447e-08	4.131730e+01	1.139222e+03
1.260000e-06	6.193947e-06	1.741896e-08	4.205485e+01	1.146517e+03
1.270000e-06	6.300387e-06	1.751979e-08	4.277754e+01	1.152901e+03
1.280000e-06	6.404468e-06	1.761995e-08	4.348422e+01	1.158621e+03
1.290000e-06	6.506276e-06	1.771690e-08	4.417545e+01	1.164063e+03
1.300000e-06	6.605822e-06	1.780711e-08	4.485134e+01	1.169581e+03
1.310000e-06	6.702902e-06	1.789389e-08	4.551049e+01	1.175360e+03
1.320000e-06	6.797543e-06	1.797983e-08	4.615306e+01	1.181350e+03
1.330000e-06	6.889907e-06	1.806297e-08	4.678018e+01	1.187303e+03
1.340000e-06	6.979818e-06	1.813752e-08	4.739065e+01	1.192896e+03
1.350000e-06	7.067237e-06	1.820355e-08	4.798420e+01	1.197880e+03
1.360000e-06	7.152242e-06	1.826777e-08	4.856135e+01	1.202184e+03
1.370000e-06	7.234762e-06	1.833403e-08	4.912164e+01	1.205947e+03
1.380000e-06	7.314668e-06	1.839923e-08	4.966417e+01	1.209449e+03
1.390000e-06	7.391871e-06	1.845958e-08	5.018835e+01	1.212986e+03
1.400000e-06	7.466285e-06	1.851646e-08	5.069360e+01	1.216743e+03
1.410000e-06	7.537954e-06	1.857431e-08	5.118021e+01	1.220716e+03
1.420000e-06	7.607011e-06	1.863310e-08	5.164908e+01	1.224726e+03
1.430000e-06	7.673298e-06	1.868477e-08	5.209915e+01	1.228496e+03
1.440000e-06	7.736798e-06	1.872625e-08	5.253030e+01	1.231785e+03
1.450000e-06	7.797724e-06	1.876567e-08	5.294396e+01	1.234486e+03
1.460000e-06	7.855906e-06	1.880944e-08	5.333900e+01	1.236673e+03
1.470000e-06	7.911201e-06	1.885384e-08	5.371443e+01	1.238565e+03
1.480000e-06	7.963387e-06	1.889239e-08	5.406876e+01	1.240426e+03
1.490000e-06	8.012346e-06	1.892687e-08	5.440117e+01	1.242453e+03
1.500000e-06	8.058485e-06	1.896169e-08	5.471444e+01	1.244686e+03
1.510000e-06	8.101820e-06	1.899341e-08	5.500867e+01	1.247004e+03
1.520000e-06	8.142184e-06	1.901642e-08	5.528273e+01	1.249175e+03
1.530000e-06	8.179768e-06	1.903452e-08	5.553791e+01	1.250968e+03
1.540000e-06	8.214503e-06	1.905453e-08	5.577375e+01	1.252253e+03
1.550000e-06	8.246289e-06	1.907747e-08	5.598957e+01	1.253057e+03
1.560000e-06	8.275275e-06	1.909833e-08	5.618637e+01	1.253553e+03
1.570000e-06	8.301279e-06	1.911358e-08	5.636293e+01	1.253981e+03
1.580000e-06	8.324266e-06	1.912594e-08	5.651901e+01	1.254546e+03
1.590000e-06	8.344430e-06	1.913829e-08	5.665592e+01	1.255329e+03
1.600000e-06	8.361654e-06	1.914843e-08	5.677286e+01	1.256255e+03
1.610000e-06	8.375770e-06	1.915482e-08	5.686870e+01	1.257132e+03
1.620000e-06	8.386679e-06	1.915892e-08	5.694277e+01	1.257739e+03
1.630000e-06	8.394457e-06	1.916344e-08	5.699558e+01	1.257924e+03
1.640000e-06	8.399339e-06	1.916799e-08	5.702873e+01	1.257671e+03
1.650000e-06	8.401220e-06	1.916958e-08	5.704150e+01	1.257106e+03
1.660000e-06	8.400183e-06	1.916162e-08	5.703446e+01	1.256444e+03
1.670000e-06	8.396435e-06	1.915239e-08	5.700901e+01	1.255887e+03
1.680000e-06	8.389858e-06	1.915287e-08	5.696435e+01	1.255541e+03
1.690000e-06	8.380464e-06	1.914843e-08	5.690057e+01	1.255371e+03
1.700000e-06	8.368140e-06	1.913444e-08	5.681690e+01	1.255212e+03
1.710000e-06	8.352961e-06	1.912661e-08	5.671383e+01	1.254847e+03
1.720000e-06	8.335295e-06	1.913625e-08	5.659389e+01	1.254101e+03
1.730000e-06	8.315059e-06	1.910344e-08	5.645649e+01	1.252916e+03
1.740000e-06	8.291815e-06	1.897610e-08	5.629868e+01	1.251376e+03
1.750000e-06	8.264914e-06	1.899393e-08	5.611603e+01	1.249671e+03
1.760000e-06	8.234121e-06	1.902564e-08	5.590695e+01	1.248018e+03
1.770000e-06	8.200260e-06	1.898195e-08	5.567704e+01	1.246567e+03
1.780000e-06	8.163921e-06	1.898348e-08	5.543031e+01	1.245348e+03
1.790000e-06	8.125183e-06	1.907968e-08	5.516730e+01	1.244258e+03
1.800000e-06	8.084410e-06	1.893839e-08	5.489046e+01	1.243118e+03
1.810000e-06	8.041352e-06	1.890022e-08	5.459812e+01	1.241747e+03
1.820000e-06	7.995289e-06	1.898367e-08	5.428536e+01	1.240036e+03
1.830000e-06	7.946351e-06	1.880715e-08	5.395309e+01	1.237990e+03
1.840000e-06	7.894216e-06	1.892117e-08	5.359911e+01	1.235702e+03
1.850000e-06	7.838883e-06	1.882507e-08	5.322341e+01	1.233302e+03
1.860000e-06	7.780878e-06	1.883438e-08	5.282958e+01	1.230880e+03
1.870000e-06	7.719935e-06	1.885269e-08	5.241580e+01	1.228434e+03
1.880000e-06	7.656288e-06	1.866659e-08	5.198366e+01	1.225870e+03
1.890000e-06	7.589859e-06	1.873550e-08	5.153263e+01	1.223043e+03
1.900000e-06	7.520472e-06	1.857385e-08	5.106151e+01	1.219830e+03
1.910000e-06	7.448231e-06	1.857381e-08	5.057102e+01	1.216192e+03
1.920000e-06	7.373070e-06	1.852602e-08	5.006070e+01	1.212206e+03
1.930000e-06	7.295154e-06	1.845285e-08	4.953168e+01	1.208036e+03
1.940000e-06	7.214590e-06	1.845955e-08	4.898467e+01	1.203864e+03
1.950000e-06	7.131574e-06	1.829875e-08	4.842102e+01	1.199809e+03
1.960000e-06	7.045925e-06	1.832329e-08	4.783950e+01	1.195870e+03
1.970000e-06	6.957619e-06	1.816834e-08	4.723993e+01	1.191916e+03
1.980000e-06	6.866960e-06	1.813507e-08	4.662438e+01	1.187743e+03
1.990000e-06	6.773829e-06	1.808215e-08	4.599206e+01	1.183158e+03
2.000000e-06	6.678315e-06	1.798627e-08	4.534355e+01	1.178065e+03
2.010000e-06	6.580518e-06	1.793264e-08	4.467954e+01	1.172508e+03
2.020000e-06	6.480404e-06	1.779336e-08	4.399980e+01	1.166653e+03
2.030000e-06	6.377786e-06	1.775905e-08	4.330305e+01	1.160721e+03
2.040000e-06	6.272832e-06	1.763421e-08	4.259045e+01	1.154880e+03
2.050000e-06	6.165761e-06	1.758204e-08	4.186347e+01	1.149171e+03
2.060000e-06	6.056498e-06	1.747158e-08	4.112161e+01	1.143483e+03
2.070000e-06	5.945001e-06	1.738303e-08	4.036459e+01	1.137591e+03
2.080000e-06	5.831234e-06	1.727308e-08	3.959215e+01	1.131254e+03
2.090000e-06	5.715170e-06	1.715476e-08	3.880411e+01	1.124316e+03
2.100000e-06	5.596764e-06	1.705014e-08	3.800017e+01	1.116774e+03
2.110000e-06	5.476310e-06	1.693059e-08	3.718233e+01	1.108780e+03
2.120000e-06	5.353979e-06	1.682809e-08	3.635174e+01	1.100576e+03
2.130000e-06	5.229791e-06	1.669824e-08	3.550854e+01	1.092379e+03
2.140000e-06	5.103660e-06	1.657778e-08	3.465216e+01	1.084283e+03
2.150000e-06	4.975652e-06	1.643102e-08	3.378303e+01	1.076210e+03
2.160000e-06	4.845948e-06	1.630516e-08	3.290238e+01	1.067934e+03
2.170000e-06	4.714556e-06	1.615879e-08	3.201027e+01	1.059176e+03
2.180000e-06	4.581495e-06	1.602501e-08	3.110683e+01	1.049723e+03
2.190000e-06	4.446795e-06	1.586811e-08	3.019226e+01	1.039523e+03
2.200000e-06	4.310442e-06	1.571814e-08	2.926647e+01	1.028707e+03
2.210000e-06	4.172441e-06	1.555031e-08	2.832949e+01	1.017529e+03
2.220000e-06	4.032814e-06	1.538092e-08	2.738147e+01	1.006247e+03
2.230000e-06	3.891616e-06	1.520824e-08	2.642278e+01	9.950001e+02
2.240000e-06	3.748994e-06	1.503229e-08	2.545442e+01	9.837306e+02
2.250000e-06	3.605012e-06	1.485478e-08	2.447684e+01	9.721939e+02
2.260000e-06	3.459827e-06	1.465866e-08	2.349108e+01	9.600552e+02
2.270000e-06	3.313466e-06	1.445633e-08	2.249733e+01	9.470306e+02
2.280000e-06	3.165884e-06	1.423921e-08	2.149530e+01	9.330119e+02
2.290000e-06	3.017084e-06	1.402296e-08	2.048500e+01	9.181159e+02
2.300000e-06	2.867161e-06	1.379742e-08	1.946707e+01	9.026320e+02
2.310000e-06	2.716305e-06	1.357200e-08	1.844281e+01	8.868858e+02
2.320000e-06	2.564516e-06	1.333568e-08	1.741221e+01	8.710769e+02
2.330000e-06	2.411801e-06	1.308988e-08	1.637533e+01	8.551622e+02
2.340000e-06	2.258230e-06	1.282088e-08	1.533263e+01	8.388436e+02
2.350000e-06	2.103886e-06	1.253748e-08	1.428469e+01	8.216705e+02
2.360000e-06	1.948798e-06	1.224625e-08	1.323169e+01	8.032198e+02
2.370000e-06	1.792954e-06	1.195386e-08	1.217356e+01	7.832742e+02
2.380000e-06	1.636432e-06	1.165133e-08	1.111083e+01	7.619164e+02
2.390000e-06	1.479251e-06	1.132865e-08	1.004362e+01	7.394880e+02
2.400000e-06	1.321509e-06	1.098809e-08	8.972608e+00	7.164183e+02
2.410000e-06	1.163296e-06	1.062950e-08	7.898396e+00	6.929909e+02
2.420000e-06	1.004685e-06	1.025298e-08	6.821477e+00	6.691499e+02
2.430000e-06	8.457451e-07	9.850994e-09	5.742329e+00	6.444405e+02
2.440000e-06	6.864922e-07	9.426535e-09	4.661054e+00	6.181271e+02
2.450000e-06	5.269717e-07	8.983352e-09	3.577963e+00	5.894570e+02
2.460000e-06	3.672733e-07	8.523522e-09	2.493664e+00	5.579632e+02
2.470000e-06	2.074831e-07	8.035128e-09	1.408741e+00	5.236696e+02
2.480000e-06	4.763833e-08	7.505422e-09	3.234485e-01	4.870815e+02
2.490000e-06	-1.122021e-07	6.934716e-09	-7.618148e-01	4.489238e+02
2.500000e-06	-2.719614e-07	6.328285e-09	-1.846528e+00	4.096910e+02
2.510000e-06	-4.316491e-07	5.682020e-09	-2.930754e+00	3.691670e+02
2.520000e-06	-5.912284e-07	4.981740e-09	-4.014245e+00	3.261137e+02
2.530000e-06	-7.505315e-07	4.217178e-09	-5.095860e+00	2.782941e+02
2.540000e-06	-9.095292e-07	3.377371e-09	-6.175402e+00	2.228941e+02
2.550000e-06	-1.068210e-06	2.433508e-09	-7.252791e+00	1.572705e+02
2.560000e-06	-1.226536e-06	1.338102e-09	-8.327772e+00	7.982069e+01
2.570000e-06	-1.384411e-06	3.964495e-11	-9.399689e+00	-9.291224e+00
2.580000e-06	-1.541769e-06	-1.477277e-09	-1.046810e+01	-1.078039e+02
2.590000e-06	-1.698527e-06	-3.146842e-09	-1.153244e+01	-2.115619e+02
2.600000e-06	-1.854534e-06	-4.823828e-09	-1.259167e+01	-3.152323e+02
2.610000e-06	-2.009800e-06	-6.357805e-09	-1.364587e+01	-4.133524e+02
2.620000e-06	-2.164267e-06	-7.668809e-09	-1.469466e+01	-5.014198e+02
2.630000e-06	-2.317909e-06	-8.755307e-09	-1.573783e+01	-5.767211e+02
2.640000e-06	-2.470757e-06	-9.657490e-09	-1.677562e+01	-6.386798e+02
2.650000e-06	-2.622726e-06	-1.042245e-08	-1.780744e+01	-6.886552e+02
2.660000e-06	-2.773796e-06	-1.108791e-08	-1.883316e+01	-7.292907e+02
2.670000e-06	-2.923965e-06	-1.167339e-08	-1.985275e+01	-7.636423e+02
2.680000e-06	-3.073054e-06	-1.218687e-08	-2.086502e+01	-7.943591e+02
2.690000e-06	-3.220930e-06	-1.263871e-08	-2.186905e+01	-8.231502e+02
2.700000e-06	-3.367649e-06	-1.304367e-08	-2.286522e+01	-8.506494e+02
2.710000e-06	-3.513194e-06	-1.341040e-08	-2.385342e+01	-8.766499e+02
2.720000e-06	-3.657510e-06	-1.374347e-08	-2.483328e+01	-9.005637e+02
2.730000e-06	-3.800542e-06	-1.405291e-08	-2.580442e+01	-9.219020e+02
2.740000e-06	-3.942200e-06	-1.434702e-08	-2.676623e+01	-9.406008e+02
2.750000e-06	-4.082303e-06	-1.462502e-08	-2.771748e+01	-9.570949e+02
2.760000e-06	-4.220753e-06	-1.488421e-08	-2.865752e+01	-9.721536e+02
2.770000e-06	-4.357608e-06	-1.512339e-08	-2.958671e+01	-9.865813e+02
2.780000e-06	-4.492942e-06	-1.534568e-08	-3.050559e+01	-1.000926e+03
2.790000e-06	-4.626708e-06	-1.555476e-08	-3.141381e+01	-1.015316e+03
2.800000e-06	-4.758756e-06	-1.575332e-08	-3.231037e+01	-1.029488e+03
2.810000e-06	-4.889049e-06	-1.594060e-08	-3.319503e+01	-1.042963e+03
2.820000e-06	-5.017666e-06	-1.611763e-08	-3.406829e+01	-1.055305e+03
2.830000e-06	-5.144598e-06	-1.629034e-08	-3.493012e+01	-1.066329e+03
2.840000e-06	-5.269663e-06	-1.645843e-08	-3.577926e+01	-1.076181e+03
2.850000e-06	-5.392797e-06	-1.661638e-08	-3.661530e+01	-1.085271e+03
2.860000e-06	-5.514051e-06	-1.676118e-08	-3.743858e+01	-1.094095e+03
2.870000e-06	-5.633400e-06	-1.689560e-08	-3.824892e+01	-1.103020e+03
2.880000e-06	-5.750578e-06	-1.702592e-08	-3.904452e+01	-1.112153e+03
2.890000e-06	-5.865338e-06	-1.715244e-08	-3.982370e+01	-1.121309e+03
2.900000e-06	-5.977725e-06	-1.727375e-08	-4.058677e+01	-1.130121e+03
2.910000e-06	-6.087727e-06	-1.738909e-08	-4.133365e+01	-1.138213e+03
2.920000e-06	-6.195573e-06	-1.749776e-08	-4.206589e+01	-1.145373e+03
2.930000e-06	-6.301440e-06	-1.760110e-08	-4.278469e+01	-1.151643e+03
2.940000e-06	-6.405123e-06	-1.769882e-08	-4.348866e+01	-1.157300e+03
