# Temperatura_=_73.88
# Concentracion g/m^3_=_13400.0
# C_Vs_to_Am_M_A/Vsm_=_65563218390.804596
# pendiente_HvsI_1/m_=_3716.3
# ordenada_HvsI_A/m_=_1297.0
# frecuencia_Hz_=_301439.07682408544

Tiempo_(s)	Campo_(V.s)	Magnetizacion_(V.s)	Campo_(kA/m)	Magnetizacion_(A/m)
0.000000e+00	-8.318645e-06	-1.914817e-08	-5.690910e+01	-1.255954e+03
1.000000e-08	-8.315368e-06	-1.914839e-08	-5.688668e+01	-1.255803e+03
2.000000e-08	-8.309389e-06	-1.914027e-08	-5.684578e+01	-1.255866e+03
3.000000e-08	-8.300688e-06	-1.913151e-08	-5.678626e+01	-1.255893e+03
4.000000e-08	-8.289031e-06	-1.911951e-08	-5.670651e+01	-1.255589e+03
5.000000e-08	-8.274390e-06	-1.910387e-08	-5.660634e+01	-1.254746e+03
6.000000e-08	-8.256845e-06	-1.907856e-08	-5.648632e+01	-1.253335e+03
7.000000e-08	-8.236751e-06	-1.903525e-08	-5.634886e+01	-1.251514e+03
8.000000e-08	-8.214140e-06	-1.906184e-08	-5.619417e+01	-1.249561e+03
9.000000e-08	-8.188392e-06	-1.913442e-08	-5.601802e+01	-1.247754e+03
1.000000e-07	-8.159273e-06	-1.908263e-08	-5.581882e+01	-1.246253e+03
1.100000e-07	-8.127060e-06	-1.901452e-08	-5.559844e+01	-1.245036e+03
1.200000e-07	-8.091923e-06	-1.899047e-08	-5.535806e+01	-1.243917e+03
1.300000e-07	-8.054105e-06	-1.894346e-08	-5.509934e+01	-1.242634e+03
1.400000e-07	-8.013947e-06	-1.881293e-08	-5.482462e+01	-1.240967e+03
1.500000e-07	-7.971397e-06	-1.879955e-08	-5.453352e+01	-1.238832e+03
1.600000e-07	-7.926092e-06	-1.890319e-08	-5.422359e+01	-1.236310e+03
1.700000e-07	-7.877963e-06	-1.873140e-08	-5.389433e+01	-1.233599e+03
1.800000e-07	-7.826893e-06	-1.879565e-08	-5.354495e+01	-1.230910e+03
1.900000e-07	-7.772666e-06	-1.878497e-08	-5.317398e+01	-1.228357e+03
2.000000e-07	-7.715605e-06	-1.861367e-08	-5.278361e+01	-1.225893e+03
2.100000e-07	-7.655803e-06	-1.859595e-08	-5.237450e+01	-1.223323e+03
2.200000e-07	-7.593237e-06	-1.848435e-08	-5.194648e+01	-1.220386e+03
2.300000e-07	-7.527983e-06	-1.851469e-08	-5.150006e+01	-1.216875e+03
2.400000e-07	-7.459874e-06	-1.844288e-08	-5.103412e+01	-1.212736e+03
2.500000e-07	-7.388956e-06	-1.838962e-08	-5.054896e+01	-1.208100e+03
2.600000e-07	-7.315290e-06	-1.834550e-08	-5.004500e+01	-1.203235e+03
2.700000e-07	-7.238787e-06	-1.825506e-08	-4.952163e+01	-1.198435e+03
2.800000e-07	-7.159469e-06	-1.818928e-08	-4.897901e+01	-1.193886e+03
2.900000e-07	-7.077422e-06	-1.806362e-08	-4.841771e+01	-1.189588e+03
3.000000e-07	-6.992920e-06	-1.803882e-08	-4.783962e+01	-1.185345e+03
3.100000e-07	-6.906090e-06	-1.796819e-08	-4.724560e+01	-1.180847e+03
3.200000e-07	-6.816886e-06	-1.789563e-08	-4.663535e+01	-1.175805e+03
3.300000e-07	-6.725196e-06	-1.782063e-08	-4.600808e+01	-1.170078e+03
3.400000e-07	-6.631061e-06	-1.769611e-08	-4.536409e+01	-1.163738e+03
3.500000e-07	-6.534638e-06	-1.761742e-08	-4.470444e+01	-1.157040e+03
3.600000e-07	-6.435770e-06	-1.752680e-08	-4.402807e+01	-1.150314e+03
3.700000e-07	-6.334480e-06	-1.743832e-08	-4.333513e+01	-1.143817e+03
3.800000e-07	-6.230897e-06	-1.732826e-08	-4.262651e+01	-1.137620e+03
3.900000e-07	-6.125102e-06	-1.724134e-08	-4.190274e+01	-1.131568e+03
4.000000e-07	-6.017163e-06	-1.714422e-08	-4.116432e+01	-1.125347e+03
4.100000e-07	-5.907082e-06	-1.702207e-08	-4.041124e+01	-1.118614e+03
4.200000e-07	-5.794809e-06	-1.690393e-08	-3.964316e+01	-1.111147e+03
4.300000e-07	-5.680306e-06	-1.678463e-08	-3.885983e+01	-1.102947e+03
4.400000e-07	-5.563555e-06	-1.668289e-08	-3.806111e+01	-1.094234e+03
4.500000e-07	-5.444606e-06	-1.656954e-08	-3.724737e+01	-1.085350e+03
4.600000e-07	-5.323689e-06	-1.643752e-08	-3.642016e+01	-1.076610e+03
4.700000e-07	-5.200924e-06	-1.629041e-08	-3.558030e+01	-1.068149e+03
4.800000e-07	-5.076265e-06	-1.614973e-08	-3.472749e+01	-1.059861e+03
4.900000e-07	-4.949763e-06	-1.601237e-08	-3.386208e+01	-1.051432e+03
5.000000e-07	-4.821479e-06	-1.586627e-08	-3.298447e+01	-1.042477e+03
5.100000e-07	-4.691485e-06	-1.571607e-08	-3.209515e+01	-1.032705e+03
5.200000e-07	-4.559813e-06	-1.557073e-08	-3.119437e+01	-1.022051e+03
5.300000e-07	-4.426482e-06	-1.542310e-08	-3.028223e+01	-1.010704e+03
5.400000e-07	-4.291568e-06	-1.525824e-08	-2.935926e+01	-9.990262e+02
5.500000e-07	-4.155070e-06	-1.507194e-08	-2.842546e+01	-9.873849e+02
5.600000e-07	-4.017096e-06	-1.488481e-08	-2.748156e+01	-9.759807e+02
5.700000e-07	-3.877559e-06	-1.470341e-08	-2.652696e+01	-9.647424e+02
5.800000e-07	-3.736337e-06	-1.451970e-08	-2.556085e+01	-9.533426e+02
5.900000e-07	-3.593672e-06	-1.432227e-08	-2.458485e+01	-9.413315e+02
6.000000e-07	-3.449743e-06	-1.412124e-08	-2.360021e+01	-9.283316e+02
6.100000e-07	-3.304481e-06	-1.392422e-08	-2.260645e+01	-9.142088e+02
6.200000e-07	-3.157924e-06	-1.372194e-08	-2.160384e+01	-8.991385e+02
6.300000e-07	-3.010245e-06	-1.350053e-08	-2.059354e+01	-8.835329e+02
6.400000e-07	-2.861533e-06	-1.325706e-08	-1.957617e+01	-8.678525e+02
6.500000e-07	-2.711929e-06	-1.301166e-08	-1.855271e+01	-8.523838e+02
6.600000e-07	-2.561462e-06	-1.276443e-08	-1.752335e+01	-8.370818e+02
6.700000e-07	-2.410041e-06	-1.251040e-08	-1.648745e+01	-8.215542e+02
6.800000e-07	-2.257678e-06	-1.224154e-08	-1.544512e+01	-8.052038e+02
6.900000e-07	-2.104548e-06	-1.196814e-08	-1.439753e+01	-7.874757e+02
7.000000e-07	-1.950800e-06	-1.169193e-08	-1.334571e+01	-7.681013e+02
7.100000e-07	-1.796431e-06	-1.140176e-08	-1.228966e+01	-7.472277e+02
7.200000e-07	-1.641336e-06	-1.108804e-08	-1.122863e+01	-7.253620e+02
7.300000e-07	-1.485476e-06	-1.075386e-08	-1.016237e+01	-7.031383e+02
7.400000e-07	-1.329009e-06	-1.041304e-08	-9.091948e+00	-6.809989e+02
7.500000e-07	-1.172095e-06	-1.006000e-08	-8.018477e+00	-6.589272e+02
7.600000e-07	-1.014745e-06	-9.686598e-09	-6.942025e+00	-6.363598e+02
7.700000e-07	-8.570023e-07	-9.289314e-09	-5.862881e+00	-6.123393e+02
7.800000e-07	-6.989882e-07	-8.876895e-09	-4.781883e+00	-5.858631e+02
7.900000e-07	-5.407485e-07	-8.445162e-09	-3.699342e+00	-5.562920e+02
8.000000e-07	-3.823446e-07	-7.983154e-09	-2.615677e+00	-5.236346e+02
8.100000e-07	-2.238229e-07	-7.482717e-09	-1.531206e+00	-4.885535e+02
8.200000e-07	-6.516281e-08	-6.944676e-09	-4.457886e-01	-4.520400e+02
8.300000e-07	9.352678e-08	-6.373235e-09	6.398308e-01	-4.148391e+02
8.400000e-07	2.521436e-07	-5.757202e-09	1.724952e+00	-3.768267e+02
8.500000e-07	4.106362e-07	-5.082899e-09	2.809224e+00	-3.365954e+02
8.600000e-07	5.689553e-07	-4.336003e-09	3.892309e+00	-2.914631e+02
8.700000e-07	7.271063e-07	-3.505587e-09	4.974244e+00	-2.379862e+02
8.800000e-07	8.850348e-07	-2.561653e-09	6.054656e+00	-1.728854e+02
8.900000e-07	1.042722e-06	-1.452375e-09	7.133415e+00	-9.412669e+01
9.000000e-07	1.200099e-06	-1.129904e-10	8.210055e+00	-1.818026e+00
9.100000e-07	1.356988e-06	1.483730e-09	9.283362e+00	1.013878e+02
9.200000e-07	1.513343e-06	3.262659e-09	1.035301e+01	2.105571e+02
9.300000e-07	1.669025e-06	5.039264e-09	1.141805e+01	3.193712e+02
9.400000e-07	1.823981e-06	6.614112e-09	1.247813e+01	4.214207e+02
9.500000e-07	1.978246e-06	7.903448e-09	1.353348e+01	5.115327e+02
9.600000e-07	2.131787e-06	8.931773e-09	1.458387e+01	5.867554e+02
9.700000e-07	2.284651e-06	9.765600e-09	1.562964e+01	6.467360e+02
9.800000e-07	2.436726e-06	1.046149e-08	1.667001e+01	6.934191e+02
9.900000e-07	2.587883e-06	1.105785e-08	1.770409e+01	7.302050e+02
1.000000e-06	2.738115e-06	1.157967e-08	1.873186e+01	7.608607e+02
1.010000e-06	2.887459e-06	1.203946e-08	1.975354e+01	7.885279e+02
1.020000e-06	3.035773e-06	1.245303e-08	2.076818e+01	8.151067e+02
1.030000e-06	3.182898e-06	1.282867e-08	2.177469e+01	8.411434e+02
1.040000e-06	3.328897e-06	1.316914e-08	2.277349e+01	8.661695e+02
1.050000e-06	3.473701e-06	1.348005e-08	2.376411e+01	8.892992e+02
1.060000e-06	3.617200e-06	1.377299e-08	2.474581e+01	9.098302e+02
1.070000e-06	3.759430e-06	1.405100e-08	2.571883e+01	9.276295e+02
1.080000e-06	3.900246e-06	1.431316e-08	2.668217e+01	9.432000e+02
1.090000e-06	4.039447e-06	1.456130e-08	2.763447e+01	9.574523e+02
1.100000e-06	4.177108e-06	1.479485e-08	2.857622e+01	9.713232e+02
1.110000e-06	4.313251e-06	1.501372e-08	2.950760e+01	9.854176e+02
1.120000e-06	4.447833e-06	1.522063e-08	3.042829e+01	9.998244e+02
1.130000e-06	4.580902e-06	1.541666e-08	3.133864e+01	1.014164e+03
1.140000e-06	4.712284e-06	1.560266e-08	3.223745e+01	1.027827e+03
1.150000e-06	4.841909e-06	1.578162e-08	3.312423e+01	1.040284e+03
1.160000e-06	4.969836e-06	1.595334e-08	3.399939e+01	1.051332e+03
1.170000e-06	5.096066e-06	1.611997e-08	3.486296e+01	1.061172e+03
1.180000e-06	5.220603e-06	1.627908e-08	3.571493e+01	1.070313e+03
1.190000e-06	5.343259e-06	1.643264e-08	3.655404e+01	1.079336e+03
1.200000e-06	5.463915e-06	1.658152e-08	3.737946e+01	1.088646e+03
1.210000e-06	5.582610e-06	1.672357e-08	3.819148e+01	1.098316e+03
1.220000e-06	5.699151e-06	1.685990e-08	3.898875e+01	1.108082e+03
1.230000e-06	5.813378e-06	1.698898e-08	3.977019e+01	1.117480e+03
1.240000e-06	5.925440e-06	1.711134e-08	4.053682e+01	1.126072e+03
1.250000e-06	6.035495e-06	1.722930e-08	4.128973e+01	1.133637e+03
1.260000e-06	6.143479e-06	1.734160e-08	4.202846e+01	1.140267e+03
1.270000e-06	6.249205e-06	1.744846e-08	4.275175e+01	1.146318e+03
1.280000e-06	6.352658e-06	1.755505e-08	4.345949e+01	1.152246e+03
1.290000e-06	6.453881e-06	1.766006e-08	4.415197e+01	1.158411e+03
1.300000e-06	6.552705e-06	1.775770e-08	4.482804e+01	1.164929e+03
1.310000e-06	6.649047e-06	1.784707e-08	4.548713e+01	1.171637e+03
1.320000e-06	6.743095e-06	1.793308e-08	4.613053e+01	1.178179e+03
1.330000e-06	6.834842e-06	1.801696e-08	4.675818e+01	1.184178e+03
1.340000e-06	6.924171e-06	1.809523e-08	4.736929e+01	1.189408e+03
1.350000e-06	7.011068e-06	1.816737e-08	4.796377e+01	1.193892e+03
1.360000e-06	7.095571e-06	1.823760e-08	4.854187e+01	1.197887e+03
1.370000e-06	7.177534e-06	1.830951e-08	4.910259e+01	1.201770e+03
1.380000e-06	7.256864e-06	1.837943e-08	4.964530e+01	1.205868e+03
1.390000e-06	7.333516e-06	1.844464e-08	5.016969e+01	1.210317e+03
1.400000e-06	7.407344e-06	1.850606e-08	5.067475e+01	1.215008e+03
1.410000e-06	7.478540e-06	1.856687e-08	5.116182e+01	1.219643e+03
1.420000e-06	7.547155e-06	1.862657e-08	5.163122e+01	1.223870e+03
1.430000e-06	7.612996e-06	1.868028e-08	5.208165e+01	1.227442e+03
1.440000e-06	7.676153e-06	1.872779e-08	5.251372e+01	1.230322e+03
1.450000e-06	7.736745e-06	1.877487e-08	5.292823e+01	1.232705e+03
1.460000e-06	7.794561e-06	1.882373e-08	5.332376e+01	1.234918e+03
1.470000e-06	7.849556e-06	1.886977e-08	5.370000e+01	1.237286e+03
1.480000e-06	7.901475e-06	1.891172e-08	5.405518e+01	1.239981e+03
1.490000e-06	7.950166e-06	1.895206e-08	5.438828e+01	1.242954e+03
1.500000e-06	7.996051e-06	1.899303e-08	5.470219e+01	1.245955e+03
1.510000e-06	8.039143e-06	1.903012e-08	5.499699e+01	1.248649e+03
1.520000e-06	8.079315e-06	1.905836e-08	5.527181e+01	1.250760e+03
1.530000e-06	8.116733e-06	1.908296e-08	5.552779e+01	1.252193e+03
1.540000e-06	8.151329e-06	1.910807e-08	5.576447e+01	1.253072e+03
1.550000e-06	8.182997e-06	1.913259e-08	5.598111e+01	1.253688e+03
1.560000e-06	8.211880e-06	1.915235e-08	5.617870e+01	1.254365e+03
1.570000e-06	8.237835e-06	1.916778e-08	5.635627e+01	1.255326e+03
1.580000e-06	8.260806e-06	1.918403e-08	5.651342e+01	1.256597e+03
1.590000e-06	8.280967e-06	1.920221e-08	5.665134e+01	1.258000e+03
1.600000e-06	8.298231e-06	1.921615e-08	5.676945e+01	1.259237e+03
1.610000e-06	8.312398e-06	1.922220e-08	5.686637e+01	1.260024e+03
1.620000e-06	8.323304e-06	1.922556e-08	5.694097e+01	1.260217e+03
1.630000e-06	8.331099e-06	1.923055e-08	5.699430e+01	1.259871e+03
1.640000e-06	8.336027e-06	1.923689e-08	5.702801e+01	1.259218e+03
1.650000e-06	8.337998e-06	1.924028e-08	5.704150e+01	1.258560e+03
1.660000e-06	8.337059e-06	1.923299e-08	5.703508e+01	1.258139e+03
1.670000e-06	8.333363e-06	1.922109e-08	5.700979e+01	1.258028e+03
1.680000e-06	8.326915e-06	1.921751e-08	5.696568e+01	1.258103e+03
1.690000e-06	8.317708e-06	1.920884e-08	5.690270e+01	1.258099e+03
1.700000e-06	8.305593e-06	1.919214e-08	5.681981e+01	1.257727e+03
1.710000e-06	8.290620e-06	1.918238e-08	5.671738e+01	1.256799e+03
1.720000e-06	8.273120e-06	1.919464e-08	5.659766e+01	1.255315e+03
1.730000e-06	8.253122e-06	1.917645e-08	5.646085e+01	1.253456e+03
1.740000e-06	8.230262e-06	1.903051e-08	5.630446e+01	1.251508e+03
1.750000e-06	8.203726e-06	1.900870e-08	5.612292e+01	1.249738e+03
1.760000e-06	8.173224e-06	1.902691e-08	5.591425e+01	1.248282e+03
1.770000e-06	8.139614e-06	1.898514e-08	5.568433e+01	1.247093e+03
1.780000e-06	8.103530e-06	1.899021e-08	5.543747e+01	1.245966e+03
1.790000e-06	8.065099e-06	1.911232e-08	5.517456e+01	1.244639e+03
1.800000e-06	8.024736e-06	1.896935e-08	5.489843e+01	1.242905e+03
1.810000e-06	7.982182e-06	1.890718e-08	5.460731e+01	1.240705e+03
1.820000e-06	7.936605e-06	1.901156e-08	5.429551e+01	1.238142e+03
1.830000e-06	7.888166e-06	1.879253e-08	5.396413e+01	1.235422e+03
1.840000e-06	7.836602e-06	1.890908e-08	5.361138e+01	1.232748e+03
1.850000e-06	7.781781e-06	1.882544e-08	5.323634e+01	1.230214e+03
1.860000e-06	7.724273e-06	1.879607e-08	5.284291e+01	1.227748e+03
1.870000e-06	7.663931e-06	1.884198e-08	5.243011e+01	1.225141e+03
1.880000e-06	7.600856e-06	1.861498e-08	5.199860e+01	1.222132e+03
1.890000e-06	7.534999e-06	1.866507e-08	5.154806e+01	1.218530e+03
1.900000e-06	7.466284e-06	1.849649e-08	5.107797e+01	1.214307e+03
1.910000e-06	7.394726e-06	1.847631e-08	5.058843e+01	1.209619e+03
1.920000e-06	7.320249e-06	1.845540e-08	5.007892e+01	1.204746e+03
1.930000e-06	7.243098e-06	1.836512e-08	4.955112e+01	1.199972e+03
1.940000e-06	7.163296e-06	1.838336e-08	4.900518e+01	1.195464e+03
1.950000e-06	7.080968e-06	1.817791e-08	4.844197e+01	1.191189e+03
1.960000e-06	6.996084e-06	1.817223e-08	4.786126e+01	1.186929e+03
1.970000e-06	6.908565e-06	1.801266e-08	4.726253e+01	1.182367e+03
1.980000e-06	6.818563e-06	1.794394e-08	4.664682e+01	1.177231e+03
1.990000e-06	6.726163e-06	1.791366e-08	4.601469e+01	1.171407e+03
2.000000e-06	6.631443e-06	1.780714e-08	4.536670e+01	1.164996e+03
2.010000e-06	6.534388e-06	1.776446e-08	4.470273e+01	1.158273e+03
2.020000e-06	6.435075e-06	1.759855e-08	4.402332e+01	1.151566e+03
2.030000e-06	6.333331e-06	1.752795e-08	4.332727e+01	1.145112e+03
2.040000e-06	6.229237e-06	1.737611e-08	4.261515e+01	1.138949e+03
2.050000e-06	6.122969e-06	1.729715e-08	4.188816e+01	1.132895e+03
2.060000e-06	6.014576e-06	1.718835e-08	4.114662e+01	1.126619e+03
2.070000e-06	5.904091e-06	1.708548e-08	4.039078e+01	1.119789e+03
2.080000e-06	5.791303e-06	1.698711e-08	3.961918e+01	1.112211e+03
2.090000e-06	5.676276e-06	1.685553e-08	3.883226e+01	1.103920e+03
2.100000e-06	5.558994e-06	1.673446e-08	3.802992e+01	1.095159e+03
2.110000e-06	5.439550e-06	1.658546e-08	3.721278e+01	1.086279e+03
2.120000e-06	5.318149e-06	1.646260e-08	3.638226e+01	1.077575e+03
2.130000e-06	5.194900e-06	1.632215e-08	3.553909e+01	1.069151e+03
2.140000e-06	5.069797e-06	1.619581e-08	3.468325e+01	1.060864e+03
2.150000e-06	4.942830e-06	1.604470e-08	3.381464e+01	1.052382e+03
2.160000e-06	4.814046e-06	1.590724e-08	3.293361e+01	1.043323e+03
2.170000e-06	4.683538e-06	1.575290e-08	3.204079e+01	1.033423e+03
2.180000e-06	4.551499e-06	1.560091e-08	3.113749e+01	1.022652e+03
2.190000e-06	4.417872e-06	1.543301e-08	3.022333e+01	1.011233e+03
2.200000e-06	4.282590e-06	1.526846e-08	2.929785e+01	9.995388e+02
2.210000e-06	4.145703e-06	1.509553e-08	2.836138e+01	9.879241e+02
2.220000e-06	4.007245e-06	1.491554e-08	2.741416e+01	9.765539e+02
2.230000e-06	3.867296e-06	1.473301e-08	2.645675e+01	9.653166e+02
2.240000e-06	3.725937e-06	1.454230e-08	2.548970e+01	9.538569e+02
2.250000e-06	3.583169e-06	1.435326e-08	2.451300e+01	9.417227e+02
2.260000e-06	3.439109e-06	1.415008e-08	2.352746e+01	9.285627e+02
2.270000e-06	3.293779e-06	1.394098e-08	2.253324e+01	9.142860e+02
2.280000e-06	3.147200e-06	1.371800e-08	2.153047e+01	8.991098e+02
2.290000e-06	2.999520e-06	1.349452e-08	2.052017e+01	8.834663e+02
2.300000e-06	2.850853e-06	1.326379e-08	1.950311e+01	8.678044e+02
2.310000e-06	2.701193e-06	1.302861e-08	1.847927e+01	8.523702e+02
2.320000e-06	2.550511e-06	1.278344e-08	1.744843e+01	8.370663e+02
2.330000e-06	2.398932e-06	1.252944e-08	1.641145e+01	8.214588e+02
2.340000e-06	2.246530e-06	1.225848e-08	1.536885e+01	8.049406e+02
2.350000e-06	2.093278e-06	1.197312e-08	1.432043e+01	7.869839e+02
2.360000e-06	1.939192e-06	1.167974e-08	1.326631e+01	7.673756e+02
2.370000e-06	1.784382e-06	1.138308e-08	1.220723e+01	7.463224e+02
2.380000e-06	1.628975e-06	1.107687e-08	1.114406e+01	7.243669e+02
2.390000e-06	1.473051e-06	1.075303e-08	1.007736e+01	7.021358e+02
2.400000e-06	1.316634e-06	1.041233e-08	9.007290e+00	6.800192e+02
2.410000e-06	1.159776e-06	1.005457e-08	7.934203e+00	6.579224e+02
2.420000e-06	1.002567e-06	9.679564e-09	6.858714e+00	6.352107e+02
2.430000e-06	8.450275e-07	9.281316e-09	5.780961e+00	6.108959e+02
2.440000e-06	6.871667e-07	8.859663e-09	4.701011e+00	5.840029e+02
2.450000e-06	5.290164e-07	8.418255e-09	3.619081e+00	5.539729e+02
2.460000e-06	3.705609e-07	7.956253e-09	2.535063e+00	5.209153e+02
2.470000e-06	2.118957e-07	7.463328e-09	1.449610e+00	4.855668e+02
2.480000e-06	5.321209e-08	6.927638e-09	3.640319e-01	4.489227e+02
2.490000e-06	-1.054326e-07	6.347815e-09	-7.212800e-01	4.116398e+02
2.500000e-06	-2.639897e-07	5.723219e-09	-1.805994e+00	3.734280e+02
2.510000e-06	-4.223814e-07	5.043752e-09	-2.889575e+00	3.326856e+02
2.520000e-06	-5.805764e-07	4.293665e-09	-3.971811e+00	2.865789e+02
2.530000e-06	-7.384606e-07	3.457024e-09	-5.051920e+00	2.316240e+02
2.540000e-06	-8.960606e-07	2.508102e-09	-6.130085e+00	1.646540e+02
2.550000e-06	-1.053377e-06	1.393653e-09	-7.206312e+00	8.389431e+01
2.560000e-06	-1.210302e-06	4.888133e-11	-8.279859e+00	-1.019354e+01
2.570000e-06	-1.366782e-06	-1.557834e-09	-9.350365e+00	-1.145987e+02
2.580000e-06	-1.522811e-06	-3.353181e-09	-1.041778e+01	-2.241220e+02
2.590000e-06	-1.678386e-06	-5.144132e-09	-1.148209e+01	-3.323476e+02
2.600000e-06	-1.833386e-06	-6.727238e-09	-1.254247e+01	-4.329657e+02
2.610000e-06	-1.987597e-06	-8.013575e-09	-1.359745e+01	-5.210723e+02
2.620000e-06	-2.140911e-06	-9.035245e-09	-1.464630e+01	-5.940801e+02
2.630000e-06	-2.293490e-06	-9.864358e-09	-1.569011e+01	-6.519978e+02
2.640000e-06	-2.445384e-06	-1.055994e-08	-1.672924e+01	-6.970389e+02
2.650000e-06	-2.596384e-06	-1.116002e-08	-1.776226e+01	-7.327243e+02
2.660000e-06	-2.746361e-06	-1.168715e-08	-1.878827e+01	-7.627860e+02
2.670000e-06	-2.895304e-06	-1.215790e-08	-1.980721e+01	-7.902148e+02
2.680000e-06	-3.043304e-06	-1.258144e-08	-2.081970e+01	-8.167125e+02
2.690000e-06	-3.190262e-06	-1.295884e-08	-2.182506e+01	-8.426510e+02
2.700000e-06	-3.335996e-06	-1.329380e-08	-2.282205e+01	-8.674629e+02
2.710000e-06	-3.480588e-06	-1.359997e-08	-2.381123e+01	-8.902546e+02
2.720000e-06	-3.623958e-06	-1.388866e-08	-2.479204e+01	-9.103885e+02
2.730000e-06	-3.765932e-06	-1.416061e-08	-2.576331e+01	-9.278264e+02
2.740000e-06	-3.906479e-06	-1.441825e-08	-2.672481e+01	-9.431485e+02
2.750000e-06	-4.045494e-06	-1.466682e-08	-2.767583e+01	-9.572942e+02
2.760000e-06	-4.182955e-06	-1.490858e-08	-2.861622e+01	-9.711717e+02
2.770000e-06	-4.318920e-06	-1.513711e-08	-2.954638e+01	-9.853186e+02
2.780000e-06	-4.453302e-06	-1.534401e-08	-3.046571e+01	-9.997484e+02
2.790000e-06	-4.586063e-06	-1.553138e-08	-3.137394e+01	-1.014031e+03
2.800000e-06	-4.717203e-06	-1.570995e-08	-3.227109e+01	-1.027550e+03
2.810000e-06	-4.846653e-06	-1.588499e-08	-3.315668e+01	-1.039809e+03
2.820000e-06	-4.974473e-06	-1.605390e-08	-3.403112e+01	-1.050663e+03
2.830000e-06	-5.100519e-06	-1.621866e-08	-3.489342e+01	-1.060369e+03
2.840000e-06	-5.224677e-06	-1.638044e-08	-3.574280e+01	-1.069460e+03
2.850000e-06	-5.347031e-06	-1.653721e-08	-3.657984e+01	-1.078506e+03
2.860000e-06	-5.467535e-06	-1.668297e-08	-3.740423e+01	-1.087872e+03
2.870000e-06	-5.585965e-06	-1.681679e-08	-3.821443e+01	-1.097580e+03
2.880000e-06	-5.702167e-06	-1.694433e-08	-3.900938e+01	-1.107324e+03
2.890000e-06	-5.816109e-06	-1.706687e-08	-3.978888e+01	-1.116631e+03
2.900000e-06	-5.927659e-06	-1.718446e-08	-4.055201e+01	-1.125084e+03
2.910000e-06	-6.036901e-06	-1.729454e-08	-4.129935e+01	-1.132503e+03
2.920000e-06	-6.144101e-06	-1.740079e-08	-4.203272e+01	-1.139025e+03
2.930000e-06	-6.249309e-06	-1.750732e-08	-4.275246e+01	-1.145032e+03
2.940000e-06	-6.352267e-06	-1.761206e-08	-4.345682e+01	-1.150977e+03
