# Temperatura_=_66.42
# Concentracion g/m^3_=_13400.0
# C_Vs_to_Am_M_A/Vsm_=_65563218390.804596
# pendiente_HvsI_1/m_=_3716.3
# ordenada_HvsI_A/m_=_1297.0
# frecuencia_Hz_=_301432.72215120244

Tiempo_(s)	Campo_(V.s)	Magnetizacion_(V.s)	Campo_(kA/m)	Magnetizacion_(A/m)
0.000000e+00	-8.318571e-06	-1.876107e-08	-5.691581e+01	-1.230004e+03
1.000000e-08	-8.315201e-06	-1.875564e-08	-5.689275e+01	-1.229730e+03
2.000000e-08	-8.309143e-06	-1.874442e-08	-5.685130e+01	-1.229660e+03
3.000000e-08	-8.300513e-06	-1.873883e-08	-5.679226e+01	-1.229599e+03
4.000000e-08	-8.288996e-06	-1.873058e-08	-5.671346e+01	-1.229291e+03
5.000000e-08	-8.274432e-06	-1.871299e-08	-5.661381e+01	-1.228532e+03
6.000000e-08	-8.256899e-06	-1.868702e-08	-5.649385e+01	-1.227257e+03
7.000000e-08	-8.236764e-06	-1.865097e-08	-5.635608e+01	-1.225573e+03
8.000000e-08	-8.214080e-06	-1.867810e-08	-5.620088e+01	-1.223708e+03
9.000000e-08	-8.188281e-06	-1.872728e-08	-5.602436e+01	-1.221912e+03
1.000000e-07	-8.159147e-06	-1.867921e-08	-5.582503e+01	-1.220357e+03
1.100000e-07	-8.126898e-06	-1.862468e-08	-5.560438e+01	-1.219065e+03
1.200000e-07	-8.091737e-06	-1.859384e-08	-5.536381e+01	-1.217909e+03
1.300000e-07	-8.053921e-06	-1.853959e-08	-5.510506e+01	-1.216678e+03
1.400000e-07	-8.013729e-06	-1.843054e-08	-5.483007e+01	-1.215177e+03
1.500000e-07	-7.971087e-06	-1.843180e-08	-5.453831e+01	-1.213307e+03
1.600000e-07	-7.925661e-06	-1.848934e-08	-5.422751e+01	-1.211106e+03
1.700000e-07	-7.877415e-06	-1.836752e-08	-5.389741e+01	-1.208714e+03
1.800000e-07	-7.826218e-06	-1.841945e-08	-5.354712e+01	-1.206292e+03
1.900000e-07	-7.771908e-06	-1.838040e-08	-5.317553e+01	-1.203931e+03
2.000000e-07	-7.714772e-06	-1.824254e-08	-5.278460e+01	-1.201595e+03
2.100000e-07	-7.654887e-06	-1.820854e-08	-5.237487e+01	-1.199124e+03
2.200000e-07	-7.592232e-06	-1.812095e-08	-5.194618e+01	-1.196301e+03
2.300000e-07	-7.526864e-06	-1.813806e-08	-5.149893e+01	-1.192955e+03
2.400000e-07	-7.458732e-06	-1.807293e-08	-5.103277e+01	-1.189046e+03
2.500000e-07	-7.387875e-06	-1.802724e-08	-5.054797e+01	-1.184696e+03
2.600000e-07	-7.314183e-06	-1.797904e-08	-5.004377e+01	-1.180150e+03
2.700000e-07	-7.237575e-06	-1.789787e-08	-4.951961e+01	-1.175671e+03
2.800000e-07	-7.158105e-06	-1.782397e-08	-4.897588e+01	-1.171431e+03
2.900000e-07	-7.075934e-06	-1.771804e-08	-4.841367e+01	-1.167427e+03
3.000000e-07	-6.991397e-06	-1.769706e-08	-4.783526e+01	-1.163476e+03
3.100000e-07	-6.904588e-06	-1.763433e-08	-4.724131e+01	-1.159290e+03
3.200000e-07	-6.815367e-06	-1.757120e-08	-4.663086e+01	-1.154594e+03
3.300000e-07	-6.723635e-06	-1.748948e-08	-4.600323e+01	-1.149249e+03
3.400000e-07	-6.629472e-06	-1.737620e-08	-4.535896e+01	-1.143315e+03
3.500000e-07	-6.532952e-06	-1.730033e-08	-4.469857e+01	-1.137027e+03
3.600000e-07	-6.434014e-06	-1.721344e-08	-4.402164e+01	-1.130696e+03
3.700000e-07	-6.332704e-06	-1.712759e-08	-4.332847e+01	-1.124573e+03
3.800000e-07	-6.229125e-06	-1.702592e-08	-4.261978e+01	-1.118737e+03
3.900000e-07	-6.123246e-06	-1.694853e-08	-4.189535e+01	-1.113049e+03
4.000000e-07	-6.015151e-06	-1.685751e-08	-4.115576e+01	-1.107213e+03
4.100000e-07	-5.904975e-06	-1.674577e-08	-4.040194e+01	-1.100895e+03
4.200000e-07	-5.792689e-06	-1.663263e-08	-3.963368e+01	-1.093871e+03
4.300000e-07	-5.678153e-06	-1.651992e-08	-3.885002e+01	-1.086123e+03
4.400000e-07	-5.561274e-06	-1.641774e-08	-3.805033e+01	-1.077849e+03
4.500000e-07	-5.442282e-06	-1.630470e-08	-3.723619e+01	-1.069377e+03
4.600000e-07	-5.321396e-06	-1.618087e-08	-3.640908e+01	-1.061017e+03
4.700000e-07	-5.198636e-06	-1.604835e-08	-3.556916e+01	-1.052920e+03
4.800000e-07	-5.073992e-06	-1.592047e-08	-3.471634e+01	-1.045002e+03
4.900000e-07	-4.947516e-06	-1.579089e-08	-3.385099e+01	-1.036973e+03
5.000000e-07	-4.819284e-06	-1.565025e-08	-3.297363e+01	-1.028455e+03
5.100000e-07	-4.689307e-06	-1.549968e-08	-3.208432e+01	-1.019147e+03
5.200000e-07	-4.557573e-06	-1.535522e-08	-3.118299e+01	-1.008959e+03
5.300000e-07	-4.424166e-06	-1.521242e-08	-3.027022e+01	-9.980506e+02
5.400000e-07	-4.289204e-06	-1.505713e-08	-2.934681e+01	-9.867645e+02
5.500000e-07	-4.152768e-06	-1.488238e-08	-2.841331e+01	-9.754705e+02
5.600000e-07	-4.014840e-06	-1.470641e-08	-2.746960e+01	-9.643937e+02
5.700000e-07	-3.875248e-06	-1.453506e-08	-2.651451e+01	-9.535006e+02
5.800000e-07	-3.734036e-06	-1.435496e-08	-2.554834e+01	-9.424986e+02
5.900000e-07	-3.591367e-06	-1.415645e-08	-2.457219e+01	-9.309523e+02
6.000000e-07	-3.447377e-06	-1.395616e-08	-2.358701e+01	-9.184699e+02
6.100000e-07	-3.302122e-06	-1.376801e-08	-2.259317e+01	-9.048776e+02
6.200000e-07	-3.155554e-06	-1.357624e-08	-2.159036e+01	-8.903015e+02
6.300000e-07	-3.007869e-06	-1.336124e-08	-2.057989e+01	-8.751164e+02
6.400000e-07	-2.859210e-06	-1.312262e-08	-1.956276e+01	-8.597760e+02
6.500000e-07	-2.709583e-06	-1.288273e-08	-1.853901e+01	-8.445967e+02
6.600000e-07	-2.559075e-06	-1.264133e-08	-1.750923e+01	-8.295903e+02
6.700000e-07	-2.407722e-06	-1.239233e-08	-1.647368e+01	-8.144250e+02
6.800000e-07	-2.255558e-06	-1.213144e-08	-1.543257e+01	-7.985410e+02
6.900000e-07	-2.102565e-06	-1.186696e-08	-1.438579e+01	-7.813786e+02
7.000000e-07	-1.948722e-06	-1.159745e-08	-1.333319e+01	-7.626199e+02
7.100000e-07	-1.794145e-06	-1.131194e-08	-1.227557e+01	-7.423360e+02
7.200000e-07	-1.639005e-06	-1.100466e-08	-1.121410e+01	-7.209618e+02
7.300000e-07	-1.483279e-06	-1.067793e-08	-1.014862e+01	-6.990956e+02
7.400000e-07	-1.326890e-06	-1.034139e-08	-9.078607e+00	-6.771994e+02
7.500000e-07	-1.169915e-06	-9.992340e-09	-8.004582e+00	-6.553279e+02
7.600000e-07	-1.012427e-06	-9.628124e-09	-6.927045e+00	-6.330143e+02
7.700000e-07	-8.545437e-07	-9.244217e-09	-5.846803e+00	-6.093823e+02
7.800000e-07	-6.963746e-07	-8.838743e-09	-4.764607e+00	-5.834577e+02
7.900000e-07	-5.380060e-07	-8.406977e-09	-3.681046e+00	-5.545593e+02
8.000000e-07	-3.795194e-07	-7.946414e-09	-2.596678e+00	-5.225955e+02
8.100000e-07	-2.209156e-07	-7.454532e-09	-1.511509e+00	-4.881120e+02
8.200000e-07	-6.225665e-08	-6.930688e-09	-4.259610e-01	-4.520215e+02
8.300000e-07	9.638216e-08	-6.373701e-09	6.594484e-01	-4.150769e+02
8.400000e-07	2.549740e-07	-5.769330e-09	1.744536e+00	-3.772689e+02
8.500000e-07	4.134993e-07	-5.106795e-09	2.829170e+00	-3.373919e+02
8.600000e-07	5.719029e-07	-4.373191e-09	3.912970e+00	-2.929934e+02
8.700000e-07	7.300928e-07	-3.556704e-09	4.995307e+00	-2.408097e+02
8.800000e-07	8.880537e-07	-2.633191e-09	6.076079e+00	-1.776185e+02
8.900000e-07	1.045802e-06	-1.556739e-09	7.155397e+00	-1.012805e+02
9.000000e-07	1.203253e-06	-2.670218e-10	8.232677e+00	-1.164631e+01
9.100000e-07	1.360162e-06	1.272232e-09	9.306254e+00	8.898125e+01
9.200000e-07	1.516405e-06	3.003161e-09	1.037527e+01	1.960196e+02
9.300000e-07	1.671957e-06	4.757134e-09	1.143956e+01	3.034083e+02
9.400000e-07	1.826892e-06	6.338778e-09	1.249963e+01	4.048359e+02
9.500000e-07	1.981270e-06	7.649569e-09	1.355588e+01	4.950496e+02
9.600000e-07	2.134908e-06	8.699856e-09	1.460708e+01	5.708744e+02
9.700000e-07	2.287710e-06	9.548812e-09	1.565255e+01	6.316658e+02
9.800000e-07	2.439632e-06	1.025143e-08	1.669200e+01	6.790956e+02
9.900000e-07	2.590648e-06	1.084734e-08	1.772526e+01	7.163815e+02
1.000000e-06	2.740876e-06	1.136552e-08	1.875312e+01	7.472318e+02
1.010000e-06	2.890158e-06	1.182378e-08	1.977451e+01	7.748412e+02
1.020000e-06	3.038370e-06	1.223650e-08	2.078858e+01	8.012285e+02
1.030000e-06	3.185543e-06	1.261405e-08	2.179554e+01	8.270623e+02
1.040000e-06	3.331526e-06	1.296068e-08	2.279436e+01	8.519500e+02
1.050000e-06	3.476265e-06	1.327744e-08	2.378467e+01	8.750118e+02
1.060000e-06	3.619734e-06	1.356983e-08	2.476628e+01	8.954921e+02
1.070000e-06	3.761909e-06	1.383956e-08	2.573905e+01	9.131806e+02
1.080000e-06	3.902620e-06	1.408907e-08	2.670180e+01	9.285208e+02
1.090000e-06	4.041709e-06	1.432395e-08	2.765345e+01	9.424122e+02
1.100000e-06	4.179308e-06	1.454762e-08	2.859490e+01	9.558348e+02
1.110000e-06	4.315413e-06	1.476190e-08	2.952613e+01	9.694714e+02
1.120000e-06	4.449988e-06	1.496807e-08	3.044690e+01	9.834887e+02
1.130000e-06	4.583016e-06	1.516436e-08	3.135708e+01	9.975502e+02
1.140000e-06	4.714317e-06	1.534869e-08	3.225544e+01	1.011037e+03
1.150000e-06	4.843889e-06	1.552421e-08	3.314197e+01	1.023361e+03
1.160000e-06	4.971802e-06	1.569063e-08	3.401716e+01	1.034243e+03
1.170000e-06	5.098045e-06	1.584781e-08	3.488091e+01	1.043823e+03
1.180000e-06	5.222491e-06	1.599714e-08	3.573237e+01	1.052588e+03
1.190000e-06	5.345033e-06	1.614196e-08	3.657081e+01	1.061151e+03
1.200000e-06	5.465666e-06	1.628478e-08	3.739618e+01	1.069991e+03
1.210000e-06	5.584315e-06	1.642345e-08	3.820798e+01	1.079257e+03
1.220000e-06	5.700799e-06	1.655897e-08	3.900496e+01	1.088737e+03
1.230000e-06	5.815009e-06	1.668846e-08	3.978639e+01	1.097969e+03
1.240000e-06	5.926997e-06	1.680885e-08	4.055262e+01	1.106461e+03
1.250000e-06	6.036913e-06	1.692226e-08	4.130466e+01	1.113914e+03
1.260000e-06	6.144707e-06	1.702886e-08	4.204219e+01	1.120343e+03
1.270000e-06	6.250272e-06	1.713005e-08	4.276447e+01	1.126064e+03
1.280000e-06	6.353643e-06	1.722789e-08	4.347174e+01	1.131550e+03
1.290000e-06	6.454790e-06	1.732267e-08	4.416378e+01	1.137230e+03
1.300000e-06	6.553578e-06	1.741304e-08	4.483969e+01	1.143309e+03
1.310000e-06	6.649886e-06	1.749861e-08	4.549864e+01	1.149700e+03
1.320000e-06	6.743877e-06	1.758267e-08	4.614172e+01	1.156076e+03
1.330000e-06	6.835587e-06	1.766506e-08	4.676920e+01	1.162034e+03
1.340000e-06	6.924849e-06	1.774237e-08	4.737994e+01	1.167270e+03
1.350000e-06	7.011679e-06	1.781305e-08	4.797403e+01	1.171714e+03
1.360000e-06	7.096106e-06	1.787979e-08	4.855168e+01	1.175553e+03
1.370000e-06	7.178019e-06	1.794687e-08	4.911213e+01	1.179144e+03
1.380000e-06	7.257333e-06	1.801229e-08	4.965480e+01	1.182852e+03
1.390000e-06	7.333963e-06	1.807464e-08	5.017910e+01	1.186893e+03
1.400000e-06	7.407799e-06	1.813508e-08	5.068429e+01	1.191250e+03
1.410000e-06	7.478964e-06	1.819402e-08	5.117120e+01	1.195683e+03
1.420000e-06	7.547519e-06	1.825040e-08	5.164026e+01	1.199846e+03
1.430000e-06	7.613301e-06	1.830261e-08	5.209034e+01	1.203442e+03
1.440000e-06	7.676418e-06	1.835171e-08	5.252218e+01	1.206348e+03
1.450000e-06	7.736937e-06	1.839861e-08	5.293625e+01	1.208670e+03
1.460000e-06	7.794646e-06	1.844220e-08	5.333110e+01	1.210685e+03
1.470000e-06	7.849527e-06	1.848096e-08	5.370660e+01	1.212721e+03
1.480000e-06	7.901385e-06	1.851808e-08	5.406141e+01	1.215009e+03
1.490000e-06	7.950082e-06	1.855765e-08	5.439460e+01	1.217590e+03
1.500000e-06	7.995956e-06	1.859638e-08	5.470847e+01	1.220301e+03
1.510000e-06	8.038988e-06	1.862879e-08	5.500290e+01	1.222850e+03
1.520000e-06	8.079113e-06	1.865338e-08	5.527743e+01	1.224953e+03
1.530000e-06	8.116499e-06	1.867631e-08	5.553322e+01	1.226455e+03
1.540000e-06	8.151034e-06	1.870250e-08	5.576952e+01	1.227394e+03
1.550000e-06	8.182635e-06	1.872766e-08	5.598573e+01	1.227985e+03
1.560000e-06	8.211438e-06	1.874545e-08	5.618280e+01	1.228520e+03
1.570000e-06	8.237295e-06	1.875850e-08	5.635972e+01	1.229239e+03
1.580000e-06	8.260192e-06	1.877379e-08	5.651638e+01	1.230228e+03
1.590000e-06	8.280321e-06	1.878982e-08	5.665410e+01	1.231389e+03
1.600000e-06	8.297514e-06	1.880041e-08	5.677173e+01	1.232488e+03
1.610000e-06	8.311581e-06	1.880406e-08	5.686798e+01	1.233262e+03
1.620000e-06	8.322428e-06	1.880656e-08	5.694219e+01	1.233540e+03
1.630000e-06	8.330184e-06	1.881266e-08	5.699526e+01	1.233317e+03
1.640000e-06	8.335031e-06	1.881837e-08	5.702843e+01	1.232755e+03
1.650000e-06	8.336942e-06	1.881956e-08	5.704150e+01	1.232107e+03
1.660000e-06	8.336068e-06	1.881188e-08	5.703552e+01	1.231606e+03
1.670000e-06	8.332502e-06	1.880366e-08	5.701112e+01	1.231359e+03
1.680000e-06	8.326103e-06	1.880019e-08	5.696734e+01	1.231300e+03
1.690000e-06	8.316893e-06	1.878930e-08	5.690432e+01	1.231225e+03
1.700000e-06	8.304740e-06	1.877332e-08	5.682117e+01	1.230876e+03
1.710000e-06	8.289723e-06	1.876594e-08	5.671843e+01	1.230060e+03
1.720000e-06	8.272241e-06	1.877493e-08	5.659882e+01	1.228734e+03
1.730000e-06	8.252280e-06	1.874626e-08	5.646224e+01	1.227017e+03
1.740000e-06	8.229347e-06	1.863001e-08	5.630533e+01	1.225147e+03
1.750000e-06	8.202730e-06	1.860672e-08	5.612322e+01	1.223371e+03
1.760000e-06	8.172231e-06	1.861083e-08	5.591455e+01	1.221845e+03
1.770000e-06	8.138634e-06	1.858544e-08	5.568467e+01	1.220575e+03
1.780000e-06	8.102566e-06	1.860499e-08	5.543790e+01	1.219421e+03
1.790000e-06	8.064145e-06	1.867994e-08	5.517502e+01	1.218169e+03
1.800000e-06	8.023716e-06	1.854944e-08	5.489841e+01	1.216630e+03
1.810000e-06	7.981022e-06	1.850385e-08	5.460629e+01	1.214720e+03
1.820000e-06	7.935371e-06	1.855411e-08	5.429395e+01	1.212490e+03
1.830000e-06	7.886904e-06	1.841769e-08	5.396234e+01	1.210086e+03
1.840000e-06	7.835287e-06	1.851242e-08	5.360917e+01	1.207668e+03
1.850000e-06	7.780414e-06	1.843643e-08	5.323373e+01	1.205313e+03
1.860000e-06	7.722873e-06	1.843882e-08	5.284003e+01	1.202971e+03
1.870000e-06	7.662481e-06	1.844873e-08	5.242683e+01	1.200472e+03
1.880000e-06	7.599343e-06	1.827073e-08	5.199484e+01	1.197599e+03
1.890000e-06	7.533499e-06	1.827459e-08	5.154433e+01	1.194191e+03
1.900000e-06	7.464757e-06	1.812882e-08	5.107400e+01	1.190225e+03
1.910000e-06	7.393137e-06	1.812272e-08	5.058397e+01	1.185841e+03
1.920000e-06	7.318645e-06	1.808812e-08	5.007429e+01	1.181290e+03
1.930000e-06	7.241420e-06	1.803287e-08	4.954592e+01	1.176830e+03
1.940000e-06	7.161531e-06	1.802912e-08	4.899932e+01	1.172618e+03
1.950000e-06	7.079177e-06	1.785857e-08	4.843585e+01	1.168630e+03
1.960000e-06	6.994225e-06	1.782862e-08	4.785461e+01	1.164668e+03
1.970000e-06	6.906615e-06	1.767707e-08	4.725518e+01	1.160438e+03
1.980000e-06	6.816619e-06	1.762057e-08	4.663942e+01	1.155676e+03
1.990000e-06	6.724225e-06	1.758086e-08	4.600726e+01	1.150261e+03
2.000000e-06	6.629459e-06	1.750518e-08	4.535887e+01	1.144274e+03
2.010000e-06	6.532367e-06	1.745319e-08	4.469457e+01	1.137966e+03
2.020000e-06	6.433010e-06	1.731184e-08	4.401477e+01	1.131647e+03
2.030000e-06	6.331234e-06	1.723774e-08	4.331841e+01	1.125555e+03
2.040000e-06	6.227131e-06	1.709975e-08	4.260614e+01	1.119743e+03
2.050000e-06	6.120868e-06	1.701992e-08	4.187908e+01	1.114055e+03
2.060000e-06	6.012452e-06	1.691079e-08	4.113730e+01	1.108182e+03
2.070000e-06	5.901887e-06	1.681889e-08	4.038081e+01	1.101795e+03
2.080000e-06	5.789068e-06	1.672276e-08	3.960890e+01	1.094690e+03
2.090000e-06	5.674022e-06	1.661003e-08	3.882176e+01	1.086872e+03
2.100000e-06	5.556698e-06	1.649634e-08	3.801902e+01	1.078560e+03
2.110000e-06	5.437200e-06	1.636002e-08	3.720142e+01	1.070086e+03
2.120000e-06	5.315750e-06	1.623279e-08	3.637045e+01	1.061750e+03
2.130000e-06	5.192487e-06	1.609279e-08	3.552709e+01	1.053680e+03
2.140000e-06	5.067369e-06	1.596728e-08	3.467102e+01	1.045766e+03
2.150000e-06	4.940362e-06	1.583110e-08	3.380204e+01	1.037702e+03
2.160000e-06	4.811576e-06	1.570752e-08	3.292088e+01	1.029110e+03
2.170000e-06	4.681147e-06	1.556296e-08	3.202849e+01	1.019707e+03
2.180000e-06	4.549107e-06	1.541581e-08	3.112507e+01	1.009429e+03
2.190000e-06	4.415427e-06	1.524933e-08	3.021043e+01	9.984614e+02
2.200000e-06	4.280077e-06	1.508439e-08	2.928436e+01	9.871573e+02
2.210000e-06	4.143080e-06	1.490973e-08	2.834702e+01	9.758791e+02
2.220000e-06	4.004621e-06	1.474088e-08	2.739969e+01	9.648279e+02
2.230000e-06	3.864639e-06	1.457319e-08	2.644193e+01	9.539403e+02
2.240000e-06	3.723167e-06	1.439833e-08	2.547397e+01	9.429010e+02
2.250000e-06	3.580285e-06	1.421249e-08	2.449637e+01	9.312699e+02
2.260000e-06	3.436068e-06	1.401086e-08	2.350963e+01	9.186712e+02
2.270000e-06	3.290632e-06	1.380342e-08	2.251456e+01	9.049615e+02
2.280000e-06	3.144074e-06	1.358673e-08	2.151181e+01	8.902984e+02
2.290000e-06	2.996418e-06	1.337063e-08	2.050154e+01	8.750749e+02
2.300000e-06	2.847706e-06	1.314970e-08	1.948405e+01	8.597403e+02
2.310000e-06	2.698083e-06	1.292759e-08	1.846033e+01	8.445846e+02
2.320000e-06	2.547488e-06	1.269088e-08	1.742996e+01	8.295819e+02
2.330000e-06	2.395834e-06	1.244093e-08	1.639234e+01	8.143678e+02
2.340000e-06	2.243246e-06	1.217271e-08	1.534832e+01	7.983706e+02
2.350000e-06	2.089948e-06	1.189513e-08	1.429946e+01	7.810455e+02
2.360000e-06	1.935958e-06	1.161142e-08	1.324586e+01	7.621120e+02
2.370000e-06	1.781283e-06	1.132356e-08	1.218757e+01	7.416847e+02
2.380000e-06	1.626022e-06	1.102374e-08	1.112527e+01	7.202282e+02
2.390000e-06	1.470186e-06	1.070821e-08	1.005904e+01	6.983413e+02
2.400000e-06	1.313743e-06	1.037454e-08	8.988651e+00	6.764535e+02
2.410000e-06	1.156764e-06	1.001958e-08	7.914598e+00	6.545652e+02
2.420000e-06	9.994450e-07	9.646221e-09	6.838220e+00	6.321566e+02
2.430000e-06	8.418336e-07	9.255075e-09	5.759840e+00	6.083229e+02
2.440000e-06	6.839544e-07	8.846388e-09	4.679628e+00	5.821030e+02
2.450000e-06	5.259262e-07	8.417081e-09	3.598396e+00	5.528679e+02
2.460000e-06	3.677231e-07	7.962368e-09	2.515968e+00	5.205975e+02
2.470000e-06	2.093565e-07	7.472251e-09	1.432421e+00	4.858953e+02
2.480000e-06	5.093161e-08	6.942612e-09	3.484750e-01	4.496852e+02
2.490000e-06	-1.075233e-07	6.369051e-09	-7.356760e-01	4.126664e+02
2.500000e-06	-2.658757e-07	5.751472e-09	-1.819126e+00	3.747170e+02
2.510000e-06	-4.241014e-07	5.084277e-09	-2.901709e+00	3.344918e+02
2.520000e-06	-5.822393e-07	4.352036e-09	-3.983691e+00	2.894222e+02
2.530000e-06	-7.401680e-07	3.535841e-09	-5.064242e+00	2.362023e+02
2.540000e-06	-8.978338e-07	2.607757e-09	-6.142994e+00	1.716755e+02
2.550000e-06	-1.055230e-06	1.521762e-09	-7.219899e+00	9.387787e+01
2.560000e-06	-1.212212e-06	2.181967e-10	-8.293975e+00	2.910961e+00
2.570000e-06	-1.368702e-06	-1.336625e-09	-9.364682e+00	-9.865810e+01
2.580000e-06	-1.524649e-06	-3.083392e-09	-1.043168e+01	-2.060402e+02
2.590000e-06	-1.680000e-06	-4.845731e-09	-1.149459e+01	-3.130845e+02
2.600000e-06	-1.834763e-06	-6.426886e-09	-1.255348e+01	-4.135328e+02
2.610000e-06	-1.988873e-06	-7.731293e-09	-1.360790e+01	-5.023141e+02
2.620000e-06	-2.142319e-06	-8.776546e-09	-1.465778e+01	-5.765148e+02
2.630000e-06	-2.295055e-06	-9.626175e-09	-1.570280e+01	-6.357600e+02
2.640000e-06	-2.446968e-06	-1.033496e-08	-1.674220e+01	-6.819318e+02
2.650000e-06	-2.597906e-06	-1.093880e-08	-1.777492e+01	-7.183530e+02
2.660000e-06	-2.747796e-06	-1.146274e-08	-1.880047e+01	-7.487207e+02
2.670000e-06	-2.896689e-06	-1.192760e-08	-1.981919e+01	-7.761275e+02
2.680000e-06	-3.044612e-06	-1.234745e-08	-2.083129e+01	-8.024467e+02
2.690000e-06	-3.191467e-06	-1.272699e-08	-2.183607e+01	-8.282125e+02
2.700000e-06	-3.337174e-06	-1.306831e-08	-2.283300e+01	-8.529499e+02
2.710000e-06	-3.481738e-06	-1.337919e-08	-2.382211e+01	-8.757649e+02
2.720000e-06	-3.625030e-06	-1.366814e-08	-2.480252e+01	-8.959449e+02
2.730000e-06	-3.766869e-06	-1.393784e-08	-2.577298e+01	-9.133507e+02
2.740000e-06	-3.907263e-06	-1.419114e-08	-2.673356e+01	-9.284884e+02
2.750000e-06	-4.046229e-06	-1.443157e-08	-2.768437e+01	-9.422858e+02
2.760000e-06	-4.183727e-06	-1.466272e-08	-2.862513e+01	-9.557074e+02
2.770000e-06	-4.319725e-06	-1.488478e-08	-2.955563e+01	-9.693873e+02
2.780000e-06	-4.454094e-06	-1.509154e-08	-3.047499e+01	-9.834335e+02
2.790000e-06	-4.586828e-06	-1.528058e-08	-3.138316e+01	-9.974658e+02
2.800000e-06	-4.717915e-06	-1.545839e-08	-3.228006e+01	-1.010853e+03
2.810000e-06	-4.847328e-06	-1.562976e-08	-3.316550e+01	-1.023030e+03
2.820000e-06	-4.975115e-06	-1.579433e-08	-3.403983e+01	-1.033759e+03
2.830000e-06	-5.101113e-06	-1.595356e-08	-3.490190e+01	-1.043225e+03
2.840000e-06	-5.225226e-06	-1.610840e-08	-3.575109e+01	-1.051939e+03
2.850000e-06	-5.347563e-06	-1.625777e-08	-3.658812e+01	-1.060515e+03
2.860000e-06	-5.468076e-06	-1.639902e-08	-3.741267e+01	-1.069400e+03
2.870000e-06	-5.586467e-06	-1.653049e-08	-3.822270e+01	-1.078707e+03
2.880000e-06	-5.702616e-06	-1.665563e-08	-3.901740e+01	-1.088185e+03
2.890000e-06	-5.816487e-06	-1.677628e-08	-3.979651e+01	-1.097360e+03
2.900000e-06	-5.928022e-06	-1.689292e-08	-4.055963e+01	-1.105751e+03
2.910000e-06	-6.037340e-06	-1.700315e-08	-4.130758e+01	-1.113088e+03
2.920000e-06	-6.144578e-06	-1.710602e-08	-4.204131e+01	-1.119422e+03
2.930000e-06	-6.249777e-06	-1.720449e-08	-4.276108e+01	-1.125095e+03
2.940000e-06	-6.352747e-06	-1.730075e-08	-4.346561e+01	-1.130585e+03
