# Temperatura_=_47.71
# Concentracion g/m^3_=_13400.0
# C_Vs_to_Am_M_A/Vsm_=_65563218390.804596
# pendiente_HvsI_1/m_=_3716.3
# ordenada_HvsI_A/m_=_1297.0
# frecuencia_Hz_=_301438.4523644952

Tiempo_(s)	Campo_(V.s)	Magnetizacion_(V.s)	Campo_(kA/m)	Magnetizacion_(A/m)
0.000000e+00	-8.348486e-06	-1.808262e-08	-5.691334e+01	-1.185876e+03
1.000000e-08	-8.345650e-06	-1.807917e-08	-5.689401e+01	-1.185539e+03
2.000000e-08	-8.340050e-06	-1.806922e-08	-5.685584e+01	-1.185430e+03
3.000000e-08	-8.331809e-06	-1.806173e-08	-5.679965e+01	-1.185404e+03
4.000000e-08	-8.320649e-06	-1.805442e-08	-5.672357e+01	-1.185231e+03
5.000000e-08	-8.306448e-06	-1.804184e-08	-5.662676e+01	-1.184695e+03
6.000000e-08	-8.289276e-06	-1.802253e-08	-5.650970e+01	-1.183690e+03
7.000000e-08	-8.269474e-06	-1.799487e-08	-5.637471e+01	-1.182268e+03
8.000000e-08	-8.247186e-06	-1.800302e-08	-5.622276e+01	-1.180615e+03
9.000000e-08	-8.221863e-06	-1.804623e-08	-5.605013e+01	-1.178970e+03
1.000000e-07	-8.193170e-06	-1.801713e-08	-5.585452e+01	-1.177531e+03
1.100000e-07	-8.161297e-06	-1.796696e-08	-5.563724e+01	-1.176365e+03
1.200000e-07	-8.126431e-06	-1.793202e-08	-5.539955e+01	-1.175393e+03
1.300000e-07	-8.088852e-06	-1.788476e-08	-5.514337e+01	-1.174427e+03
1.400000e-07	-8.048948e-06	-1.780904e-08	-5.487133e+01	-1.173256e+03
1.500000e-07	-8.006615e-06	-1.778400e-08	-5.458274e+01	-1.171739e+03
1.600000e-07	-7.961487e-06	-1.784820e-08	-5.427509e+01	-1.169858e+03
1.700000e-07	-7.913473e-06	-1.776196e-08	-5.394777e+01	-1.167712e+03
1.800000e-07	-7.862511e-06	-1.778099e-08	-5.360035e+01	-1.165464e+03
1.900000e-07	-7.808450e-06	-1.778053e-08	-5.323181e+01	-1.163247e+03
2.000000e-07	-7.751498e-06	-1.764773e-08	-5.284355e+01	-1.161097e+03
2.100000e-07	-7.691850e-06	-1.759847e-08	-5.243692e+01	-1.158927e+03
2.200000e-07	-7.629504e-06	-1.752692e-08	-5.201189e+01	-1.156561e+03
2.300000e-07	-7.564404e-06	-1.754632e-08	-5.156810e+01	-1.153819e+03
2.400000e-07	-7.496429e-06	-1.751004e-08	-5.110470e+01	-1.150602e+03
2.500000e-07	-7.425679e-06	-1.745483e-08	-5.062238e+01	-1.146943e+03
2.600000e-07	-7.352095e-06	-1.742274e-08	-5.012074e+01	-1.143003e+03
2.700000e-07	-7.275637e-06	-1.734981e-08	-4.959951e+01	-1.139008e+03
2.800000e-07	-7.196372e-06	-1.728516e-08	-4.905915e+01	-1.135141e+03
2.900000e-07	-7.114373e-06	-1.718843e-08	-4.850014e+01	-1.131470e+03
3.000000e-07	-7.029929e-06	-1.715289e-08	-4.792447e+01	-1.127902e+03
3.100000e-07	-6.943128e-06	-1.711107e-08	-4.733273e+01	-1.124226e+03
3.200000e-07	-6.853896e-06	-1.705677e-08	-4.672441e+01	-1.120196e+03
3.300000e-07	-6.762205e-06	-1.699252e-08	-4.609934e+01	-1.115644e+03
3.400000e-07	-6.668115e-06	-1.688684e-08	-4.545791e+01	-1.110551e+03
3.500000e-07	-6.571630e-06	-1.681806e-08	-4.480015e+01	-1.105059e+03
3.600000e-07	-6.472714e-06	-1.674316e-08	-4.412582e+01	-1.099409e+03
3.700000e-07	-6.371458e-06	-1.666326e-08	-4.343554e+01	-1.093838e+03
3.800000e-07	-6.267910e-06	-1.657315e-08	-4.272963e+01	-1.088464e+03
3.900000e-07	-6.162054e-06	-1.650019e-08	-4.200799e+01	-1.083233e+03
4.000000e-07	-6.054002e-06	-1.642308e-08	-4.127138e+01	-1.077937e+03
4.100000e-07	-5.943831e-06	-1.631747e-08	-4.052031e+01	-1.072294e+03
4.200000e-07	-5.831485e-06	-1.621204e-08	-3.975443e+01	-1.066077e+03
4.300000e-07	-5.716837e-06	-1.610907e-08	-3.897285e+01	-1.059208e+03
4.400000e-07	-5.599873e-06	-1.602251e-08	-3.817548e+01	-1.051796e+03
4.500000e-07	-5.480827e-06	-1.592889e-08	-3.736392e+01	-1.044089e+03
4.600000e-07	-5.359813e-06	-1.582180e-08	-3.653894e+01	-1.036362e+03
4.700000e-07	-5.236873e-06	-1.569379e-08	-3.570084e+01	-1.028793e+03
4.800000e-07	-5.112052e-06	-1.556158e-08	-3.484991e+01	-1.021376e+03
4.900000e-07	-4.985391e-06	-1.543561e-08	-3.398643e+01	-1.013913e+03
5.000000e-07	-4.856945e-06	-1.530760e-08	-3.311080e+01	-1.006100e+03
5.100000e-07	-4.726740e-06	-1.517537e-08	-3.222316e+01	-9.976505e+02
5.200000e-07	-4.594842e-06	-1.504671e-08	-3.132399e+01	-9.884292e+02
5.300000e-07	-4.461291e-06	-1.492126e-08	-3.041353e+01	-9.785085e+02
5.400000e-07	-4.326168e-06	-1.477980e-08	-2.949238e+01	-9.681392e+02
5.500000e-07	-4.189446e-06	-1.461421e-08	-2.856032e+01	-9.576363e+02
5.600000e-07	-4.051040e-06	-1.444032e-08	-2.761677e+01	-9.472310e+02
5.700000e-07	-3.911058e-06	-1.427361e-08	-2.666248e+01	-9.369539e+02
5.800000e-07	-3.769575e-06	-1.410991e-08	-2.569797e+01	-9.266060e+02
5.900000e-07	-3.626555e-06	-1.393563e-08	-2.472297e+01	-9.158319e+02
6.000000e-07	-3.482153e-06	-1.375320e-08	-2.373855e+01	-9.042691e+02
6.100000e-07	-3.336526e-06	-1.357259e-08	-2.274579e+01	-8.917075e+02
6.200000e-07	-3.189726e-06	-1.339079e-08	-2.174501e+01	-8.781869e+02
6.300000e-07	-3.041832e-06	-1.318950e-08	-2.073680e+01	-8.639839e+02
6.400000e-07	-2.892886e-06	-1.296392e-08	-1.972140e+01	-8.494885e+02
6.500000e-07	-2.742931e-06	-1.273394e-08	-1.869912e+01	-8.350185e+02
6.600000e-07	-2.592006e-06	-1.250754e-08	-1.767024e+01	-8.206549e+02
6.700000e-07	-2.440233e-06	-1.227674e-08	-1.663557e+01	-8.061728e+02
6.800000e-07	-2.287597e-06	-1.203017e-08	-1.559502e+01	-7.911087e+02
6.900000e-07	-2.134066e-06	-1.177528e-08	-1.454837e+01	-7.749404e+02
7.000000e-07	-1.979756e-06	-1.151503e-08	-1.349641e+01	-7.573080e+02
7.100000e-07	-1.824772e-06	-1.124500e-08	-1.243984e+01	-7.381748e+02
7.200000e-07	-1.669102e-06	-1.095503e-08	-1.137861e+01	-7.178497e+02
7.300000e-07	-1.512775e-06	-1.064389e-08	-1.031290e+01	-6.968469e+02
7.400000e-07	-1.355923e-06	-1.032166e-08	-9.243605e+00	-6.756325e+02
7.500000e-07	-1.198600e-06	-9.989085e-09	-8.171102e+00	-6.543619e+02
7.600000e-07	-1.040784e-06	-9.639719e-09	-7.095239e+00	-6.327288e+02
7.700000e-07	-8.825327e-07	-9.266221e-09	-6.016407e+00	-6.100079e+02
7.800000e-07	-7.239545e-07	-8.871498e-09	-4.935347e+00	-5.852936e+02
7.900000e-07	-5.651367e-07	-8.456262e-09	-3.852653e+00	-5.578487e+02
8.000000e-07	-4.061098e-07	-8.018193e-09	-2.768534e+00	-5.274164e+02
8.100000e-07	-2.468998e-07	-7.546518e-09	-1.683167e+00	-4.943408e+02
8.200000e-07	-8.764750e-08	-7.039139e-09	-5.975110e-01	-4.594072e+02
8.300000e-07	7.160339e-08	-6.500139e-09	4.881350e-01	-4.234169e+02
8.400000e-07	2.308439e-07	-5.922255e-09	1.573710e+00	-3.866329e+02
8.500000e-07	3.900335e-07	-5.292195e-09	2.658938e+00	-3.483069e+02
8.600000e-07	5.490934e-07	-4.598454e-09	3.743282e+00	-3.065020e+02
8.700000e-07	7.079210e-07	-3.833265e-09	4.826043e+00	-2.583463e+02
8.800000e-07	8.664517e-07	-2.976223e-09	5.906780e+00	-2.007067e+02
8.900000e-07	1.024637e-06	-1.987427e-09	6.985158e+00	-1.311227e+02
9.000000e-07	1.182422e-06	-8.095513e-10	8.060814e+00	-4.872069e+01
9.100000e-07	1.339736e-06	5.994863e-10	9.133253e+00	4.518602e+01
9.200000e-07	1.496577e-06	2.218487e-09	1.020247e+01	1.470363e+02
9.300000e-07	1.652946e-06	3.924885e-09	1.126847e+01	2.515599e+02
9.400000e-07	1.808694e-06	5.535185e-09	1.233024e+01	3.527928e+02
9.500000e-07	1.963799e-06	6.917209e-09	1.338762e+01	4.452925e+02
9.600000e-07	2.118237e-06	8.042716e-09	1.444046e+01	5.252129e+02
9.700000e-07	2.271778e-06	8.957005e-09	1.548717e+01	5.909431e+02
9.800000e-07	2.424415e-06	9.714754e-09	1.652773e+01	6.431521e+02
9.900000e-07	2.576263e-06	1.035596e-08	1.756291e+01	6.842700e+02
1.000000e-06	2.727218e-06	1.090505e-08	1.859200e+01	7.176000e+02
1.010000e-06	2.877131e-06	1.137963e-08	1.961399e+01	7.463561e+02
1.020000e-06	3.025982e-06	1.180213e-08	2.062874e+01	7.729121e+02
1.030000e-06	3.173811e-06	1.218553e-08	2.163652e+01	7.984528e+02
1.040000e-06	3.320505e-06	1.253509e-08	2.263656e+01	8.230666e+02
1.050000e-06	3.465994e-06	1.285448e-08	2.362839e+01	8.461679e+02
1.060000e-06	3.610263e-06	1.314910e-08	2.461190e+01	8.670472e+02
1.070000e-06	3.753164e-06	1.342078e-08	2.558609e+01	8.853297e+02
1.080000e-06	3.894651e-06	1.367014e-08	2.655064e+01	9.011918e+02
1.090000e-06	4.034606e-06	1.390280e-08	2.750474e+01	9.152944e+02
1.100000e-06	4.172931e-06	1.412441e-08	2.844773e+01	9.285073e+02
1.110000e-06	4.309736e-06	1.433667e-08	2.938035e+01	9.415670e+02
1.120000e-06	4.445007e-06	1.453792e-08	3.030252e+01	9.548225e+02
1.130000e-06	4.578726e-06	1.472727e-08	3.121412e+01	9.681631e+02
1.140000e-06	4.710842e-06	1.490670e-08	3.211478e+01	9.811443e+02
1.150000e-06	4.841218e-06	1.507704e-08	3.300358e+01	9.932373e+02
1.160000e-06	4.969872e-06	1.523616e-08	3.388064e+01	1.004088e+03
1.170000e-06	5.096808e-06	1.538669e-08	3.474599e+01	1.013678e+03
1.180000e-06	5.221993e-06	1.553214e-08	3.559940e+01	1.022319e+03
1.190000e-06	5.345293e-06	1.567588e-08	3.643996e+01	1.030510e+03
1.200000e-06	5.466628e-06	1.581544e-08	3.726712e+01	1.038717e+03
1.210000e-06	5.585984e-06	1.594670e-08	3.808080e+01	1.047183e+03
1.220000e-06	5.703229e-06	1.607193e-08	3.888008e+01	1.055843e+03
1.230000e-06	5.818214e-06	1.619193e-08	3.966396e+01	1.064376e+03
1.240000e-06	5.930961e-06	1.630356e-08	4.043258e+01	1.072373e+03
1.250000e-06	6.041617e-06	1.640605e-08	4.118695e+01	1.079523e+03
1.260000e-06	6.150239e-06	1.650282e-08	4.192745e+01	1.085753e+03
1.270000e-06	6.256695e-06	1.659824e-08	4.265318e+01	1.091259e+03
1.280000e-06	6.360853e-06	1.669385e-08	4.336324e+01	1.096415e+03
1.290000e-06	6.462761e-06	1.678471e-08	4.405797e+01	1.101610e+03
1.300000e-06	6.562301e-06	1.686630e-08	4.473656e+01	1.107087e+03
1.310000e-06	6.659340e-06	1.694154e-08	4.539809e+01	1.112848e+03
1.320000e-06	6.754018e-06	1.701823e-08	4.604353e+01	1.118670e+03
1.330000e-06	6.846350e-06	1.709579e-08	4.667297e+01	1.124214e+03
1.340000e-06	6.936244e-06	1.716669e-08	4.728580e+01	1.129182e+03
1.350000e-06	7.023735e-06	1.722909e-08	4.788224e+01	1.133449e+03
1.360000e-06	7.108864e-06	1.728987e-08	4.846259e+01	1.137113e+03
1.370000e-06	7.191489e-06	1.735389e-08	4.902586e+01	1.140444e+03
1.380000e-06	7.271482e-06	1.741680e-08	4.957119e+01	1.143767e+03
1.390000e-06	7.348821e-06	1.747467e-08	5.009842e+01	1.147314e+03
1.400000e-06	7.423371e-06	1.752827e-08	5.060664e+01	1.151132e+03
1.410000e-06	7.495172e-06	1.758156e-08	5.109613e+01	1.155065e+03
1.420000e-06	7.564399e-06	1.763417e-08	5.156806e+01	1.158834e+03
1.430000e-06	7.630923e-06	1.768197e-08	5.202157e+01	1.162162e+03
1.440000e-06	7.694667e-06	1.772359e-08	5.245613e+01	1.164898e+03
1.450000e-06	7.755812e-06	1.776294e-08	5.287296e+01	1.167081e+03
1.460000e-06	7.814240e-06	1.780428e-08	5.327128e+01	1.168920e+03
1.470000e-06	7.869854e-06	1.784483e-08	5.365041e+01	1.170697e+03
1.480000e-06	7.922447e-06	1.788111e-08	5.400895e+01	1.172646e+03
1.490000e-06	7.971764e-06	1.791368e-08	5.434516e+01	1.174847e+03
1.500000e-06	8.018157e-06	1.794552e-08	5.466143e+01	1.177202e+03
1.510000e-06	8.061780e-06	1.797574e-08	5.495881e+01	1.179474e+03
1.520000e-06	8.102445e-06	1.799906e-08	5.523603e+01	1.181403e+03
1.530000e-06	8.140310e-06	1.801788e-08	5.549416e+01	1.182817e+03
1.540000e-06	8.175423e-06	1.803842e-08	5.573354e+01	1.183708e+03
1.550000e-06	8.207637e-06	1.806046e-08	5.595315e+01	1.184236e+03
1.560000e-06	8.237020e-06	1.807892e-08	5.615345e+01	1.184658e+03
1.570000e-06	8.263446e-06	1.809180e-08	5.633361e+01	1.185211e+03
1.580000e-06	8.286836e-06	1.810429e-08	5.649306e+01	1.186015e+03
1.590000e-06	8.307462e-06	1.811839e-08	5.663367e+01	1.187022e+03
1.600000e-06	8.325204e-06	1.812895e-08	5.675463e+01	1.188040e+03
1.610000e-06	8.339826e-06	1.813322e-08	5.685431e+01	1.188824e+03
1.620000e-06	8.351227e-06	1.813451e-08	5.693203e+01	1.189184e+03
1.630000e-06	8.359477e-06	1.813707e-08	5.698827e+01	1.189069e+03
1.640000e-06	8.364859e-06	1.814128e-08	5.702496e+01	1.188587e+03
1.650000e-06	8.367285e-06	1.814361e-08	5.704150e+01	1.187960e+03
1.660000e-06	8.366810e-06	1.814027e-08	5.703826e+01	1.187420e+03
1.670000e-06	8.363608e-06	1.813209e-08	5.701643e+01	1.187109e+03
1.680000e-06	8.357575e-06	1.812856e-08	5.697531e+01	1.187018e+03
1.690000e-06	8.348752e-06	1.812154e-08	5.691516e+01	1.186987e+03
1.700000e-06	8.336986e-06	1.810891e-08	5.683495e+01	1.186783e+03
1.710000e-06	8.322301e-06	1.809983e-08	5.673484e+01	1.186198e+03
1.720000e-06	8.305133e-06	1.809944e-08	5.661780e+01	1.185143e+03
1.730000e-06	8.285487e-06	1.808660e-08	5.648387e+01	1.183685e+03
1.740000e-06	8.262921e-06	1.799273e-08	5.633003e+01	1.182020e+03
1.750000e-06	8.236769e-06	1.796289e-08	5.615175e+01	1.180390e+03
1.760000e-06	8.206688e-06	1.796786e-08	5.594668e+01	1.178978e+03
1.770000e-06	8.173339e-06	1.795020e-08	5.571933e+01	1.177838e+03
1.780000e-06	8.137507e-06	1.796048e-08	5.547506e+01	1.176876e+03
1.790000e-06	8.099285e-06	1.802267e-08	5.521449e+01	1.175897e+03
1.800000e-06	8.059014e-06	1.794891e-08	5.493995e+01	1.174694e+03
1.810000e-06	8.016607e-06	1.786582e-08	5.465086e+01	1.173136e+03
1.820000e-06	7.971222e-06	1.791403e-08	5.434146e+01	1.171218e+03
1.830000e-06	7.922995e-06	1.779939e-08	5.401268e+01	1.169053e+03
1.840000e-06	7.871703e-06	1.784474e-08	5.366302e+01	1.166802e+03
1.850000e-06	7.817104e-06	1.782308e-08	5.329081e+01	1.164592e+03
1.860000e-06	7.759814e-06	1.779556e-08	5.290024e+01	1.162446e+03
1.870000e-06	7.699668e-06	1.783432e-08	5.249022e+01	1.160263e+03
1.880000e-06	7.636764e-06	1.767263e-08	5.206139e+01	1.157864e+03
1.890000e-06	7.571147e-06	1.765204e-08	5.161407e+01	1.155073e+03
1.900000e-06	7.502583e-06	1.755130e-08	5.114665e+01	1.151804e+03
1.910000e-06	7.431154e-06	1.751226e-08	5.065970e+01	1.148104e+03
1.920000e-06	7.356806e-06	1.751117e-08	5.015286e+01	1.144147e+03
1.930000e-06	7.279681e-06	1.745284e-08	4.962708e+01	1.140157e+03
1.940000e-06	7.199891e-06	1.745541e-08	4.908313e+01	1.136311e+03
1.950000e-06	7.117657e-06	1.731425e-08	4.852253e+01	1.132657e+03
1.960000e-06	7.032864e-06	1.726917e-08	4.794448e+01	1.129088e+03
1.970000e-06	6.945374e-06	1.715390e-08	4.734804e+01	1.125385e+03
1.980000e-06	6.855490e-06	1.708019e-08	4.673529e+01	1.121304e+03
1.990000e-06	6.763148e-06	1.706189e-08	4.610577e+01	1.116692e+03
2.000000e-06	6.668418e-06	1.699003e-08	4.545997e+01	1.111545e+03
2.010000e-06	6.571376e-06	1.694912e-08	4.479842e+01	1.106023e+03
2.020000e-06	6.472026e-06	1.682413e-08	4.412113e+01	1.100371e+03
2.030000e-06	6.370272e-06	1.675109e-08	4.342745e+01	1.094817e+03
2.040000e-06	6.266118e-06	1.663659e-08	4.271741e+01	1.089463e+03
2.050000e-06	6.159759e-06	1.656123e-08	4.199234e+01	1.084238e+03
2.060000e-06	6.051288e-06	1.647202e-08	4.125288e+01	1.078917e+03
2.070000e-06	5.940699e-06	1.638234e-08	4.049896e+01	1.073221e+03
2.080000e-06	5.827852e-06	1.629562e-08	3.972966e+01	1.066934e+03
2.090000e-06	5.712723e-06	1.618785e-08	3.894481e+01	1.059997e+03
2.100000e-06	5.595270e-06	1.608132e-08	3.814411e+01	1.052539e+03
2.110000e-06	5.475693e-06	1.595182e-08	3.732892e+01	1.044817e+03
2.120000e-06	5.354164e-06	1.584237e-08	3.650043e+01	1.037101e+03
2.130000e-06	5.230767e-06	1.572515e-08	3.565921e+01	1.029552e+03
2.140000e-06	5.105509e-06	1.561839e-08	3.480531e+01	1.022141e+03
2.150000e-06	4.978355e-06	1.549074e-08	3.393847e+01	1.014655e+03
2.160000e-06	4.849440e-06	1.536661e-08	3.305963e+01	1.006785e+03
2.170000e-06	4.718835e-06	1.522606e-08	3.216927e+01	9.982550e+02
2.180000e-06	4.586554e-06	1.508583e-08	3.126748e+01	9.889509e+02
2.190000e-06	4.452604e-06	1.493757e-08	3.035431e+01	9.789671e+02
2.200000e-06	4.317047e-06	1.479237e-08	2.943020e+01	9.685679e+02
2.210000e-06	4.179889e-06	1.464368e-08	2.849516e+01	9.580665e+02
2.220000e-06	4.041112e-06	1.449097e-08	2.754909e+01	9.476768e+02
2.230000e-06	3.900783e-06	1.432865e-08	2.659244e+01	9.374047e+02
2.240000e-06	3.759054e-06	1.415435e-08	2.562624e+01	9.270289e+02
2.250000e-06	3.615960e-06	1.397546e-08	2.465074e+01	9.161854e+02
2.260000e-06	3.471532e-06	1.378829e-08	2.366614e+01	9.045210e+02
2.270000e-06	3.325885e-06	1.359769e-08	2.267324e+01	8.918494e+02
2.280000e-06	3.179082e-06	1.339751e-08	2.167245e+01	8.782383e+02
2.290000e-06	3.031126e-06	1.319644e-08	2.066381e+01	8.639843e+02
2.300000e-06	2.882055e-06	1.298964e-08	1.964756e+01	8.494786e+02
2.310000e-06	2.732014e-06	1.277936e-08	1.862470e+01	8.350207e+02
2.320000e-06	2.581008e-06	1.255182e-08	1.759526e+01	8.206597e+02
2.330000e-06	2.429060e-06	1.231300e-08	1.655940e+01	8.061396e+02
2.340000e-06	2.276244e-06	1.206213e-08	1.551762e+01	7.909803e+02
2.350000e-06	2.122519e-06	1.180413e-08	1.446965e+01	7.746669e+02
2.360000e-06	1.968044e-06	1.153387e-08	1.341656e+01	7.568682e+02
2.370000e-06	1.812944e-06	1.125105e-08	1.235921e+01	7.375865e+02
2.380000e-06	1.657180e-06	1.095851e-08	1.129734e+01	7.171620e+02
2.390000e-06	1.500776e-06	1.065696e-08	1.023110e+01	6.961170e+02
2.400000e-06	1.343825e-06	1.034219e-08	9.161131e+00	6.748959e+02
2.410000e-06	1.186374e-06	1.000772e-08	8.087754e+00	6.536088e+02
2.420000e-06	1.028499e-06	9.651851e-09	7.011489e+00	6.318989e+02
2.430000e-06	8.702990e-07	9.274034e-09	5.933007e+00	6.090071e+02
2.440000e-06	7.117873e-07	8.877966e-09	4.852400e+00	5.840284e+02
2.450000e-06	5.530679e-07	8.459828e-09	3.770377e+00	5.562646e+02
2.460000e-06	3.941526e-07	8.016459e-09	2.687019e+00	5.255216e+02
2.470000e-06	2.350552e-07	7.544534e-09	1.602420e+00	4.922041e+02
2.480000e-06	7.590530e-08	7.040853e-09	5.174620e-01	4.571230e+02
2.490000e-06	-8.325755e-08	6.497713e-09	-5.675838e-01	4.210489e+02
2.500000e-06	-2.424133e-07	5.910075e-09	-1.652582e+00	3.841557e+02
2.510000e-06	-4.014750e-07	5.274551e-09	-2.736938e+00	3.455691e+02
2.520000e-06	-5.603636e-07	4.581859e-09	-3.820114e+00	3.032320e+02
2.530000e-06	-7.190397e-07	3.813011e-09	-4.901841e+00	2.542056e+02
2.540000e-06	-8.773896e-07	2.945646e-09	-5.981345e+00	1.953822e+02
2.550000e-06	-1.035361e-06	1.945149e-09	-7.058266e+00	1.244307e+02
2.560000e-06	-1.193014e-06	7.591381e-10	-8.133019e+00	4.069119e+01
2.570000e-06	-1.350225e-06	-6.579478e-10	-9.204762e+00	-5.427438e+01
2.580000e-06	-1.506900e-06	-2.289755e-09	-1.027284e+01	-1.566859e+02
2.590000e-06	-1.662985e-06	-4.007019e-09	-1.133691e+01	-2.611440e+02
2.600000e-06	-1.818443e-06	-5.620026e-09	-1.239670e+01	-3.616819e+02
2.610000e-06	-1.973270e-06	-6.997870e-09	-1.345219e+01	-4.529824e+02
2.620000e-06	-2.127368e-06	-8.120642e-09	-1.450271e+01	-5.314182e+02
2.630000e-06	-2.280666e-06	-9.034042e-09	-1.554777e+01	-5.956312e+02
2.640000e-06	-2.433139e-06	-9.790357e-09	-1.658721e+01	-6.465128e+02
2.650000e-06	-2.584737e-06	-1.043220e-08	-1.762068e+01	-6.866328e+02
2.660000e-06	-2.735347e-06	-1.098824e-08	-1.864742e+01	-7.193295e+02
2.670000e-06	-2.884953e-06	-1.147609e-08	-1.966732e+01	-7.477568e+02
2.680000e-06	-3.033514e-06	-1.190769e-08	-2.068009e+01	-7.741696e+02
2.690000e-06	-3.181017e-06	-1.229252e-08	-2.168564e+01	-7.996238e+02
2.700000e-06	-3.327423e-06	-1.263765e-08	-2.268373e+01	-8.241111e+02
2.710000e-06	-3.472593e-06	-1.295103e-08	-2.367338e+01	-8.470063e+02
2.720000e-06	-3.616530e-06	-1.324042e-08	-2.465463e+01	-8.676170e+02
2.730000e-06	-3.759160e-06	-1.350941e-08	-2.562697e+01	-8.856224e+02
2.740000e-06	-3.900356e-06	-1.376388e-08	-2.658953e+01	-9.012586e+02
2.750000e-06	-4.040093e-06	-1.400652e-08	-2.754214e+01	-9.152246e+02
2.760000e-06	-4.178274e-06	-1.423697e-08	-2.848415e+01	-9.283918e+02
2.770000e-06	-4.314876e-06	-1.445414e-08	-2.941540e+01	-9.414648e+02
2.780000e-06	-4.449907e-06	-1.465339e-08	-3.033593e+01	-9.547430e+02
2.790000e-06	-4.583353e-06	-1.483479e-08	-3.124566e+01	-9.680709e+02
2.800000e-06	-4.715205e-06	-1.500545e-08	-3.214452e+01	-9.809819e+02
2.810000e-06	-4.845379e-06	-1.517031e-08	-3.303194e+01	-9.929543e+02
2.820000e-06	-4.973856e-06	-1.533077e-08	-3.390780e+01	-1.003666e+03
2.830000e-06	-5.100578e-06	-1.548642e-08	-3.477169e+01	-1.013134e+03
2.840000e-06	-5.225434e-06	-1.563560e-08	-3.562286e+01	-1.021702e+03
2.850000e-06	-5.348439e-06	-1.577802e-08	-3.646141e+01	-1.029876e+03
2.860000e-06	-5.469580e-06	-1.591095e-08	-3.728725e+01	-1.038106e+03
2.870000e-06	-5.588727e-06	-1.603350e-08	-3.809950e+01	-1.046602e+03
2.880000e-06	-5.705713e-06	-1.614897e-08	-3.889701e+01	-1.055267e+03
2.890000e-06	-5.820396e-06	-1.625950e-08	-3.967883e+01	-1.063763e+03
2.900000e-06	-5.932709e-06	-1.636766e-08	-4.044450e+01	-1.071682e+03
2.910000e-06	-6.042681e-06	-1.647166e-08	-4.119420e+01	-1.078732e+03
2.920000e-06	-6.150541e-06	-1.656990e-08	-4.192950e+01	-1.084872e+03
2.930000e-06	-6.256417e-06	-1.666474e-08	-4.265128e+01	-1.090321e+03
2.940000e-06	-6.360089e-06	-1.675739e-08	-4.335803e+01	-1.095464e+03
