# Temperatura_=_48.34
# Concentracion g/m^3_=_13400.0
# C_Vs_to_Am_M_A/Vsm_=_65563218390.804596
# pendiente_HvsI_1/m_=_3716.3
# ordenada_HvsI_A/m_=_1297.0
# frecuencia_Hz_=_301437.94148153294

Tiempo_(s)	Campo_(V.s)	Magnetizacion_(V.s)	Campo_(kA/m)	Magnetizacion_(A/m)
0.000000e+00	-8.365579e-06	-1.813705e-08	-5.691604e+01	-1.189661e+03
1.000000e-08	-8.362777e-06	-1.813274e-08	-5.689697e+01	-1.189323e+03
2.000000e-08	-8.357134e-06	-1.812702e-08	-5.685858e+01	-1.189223e+03
3.000000e-08	-8.348841e-06	-1.811990e-08	-5.680216e+01	-1.189219e+03
4.000000e-08	-8.337662e-06	-1.810846e-08	-5.672610e+01	-1.189077e+03
5.000000e-08	-8.323467e-06	-1.809468e-08	-5.662952e+01	-1.188572e+03
6.000000e-08	-8.306360e-06	-1.808032e-08	-5.651313e+01	-1.187587e+03
7.000000e-08	-8.286612e-06	-1.806080e-08	-5.637878e+01	-1.186164e+03
8.000000e-08	-8.264318e-06	-1.806637e-08	-5.622710e+01	-1.184483e+03
9.000000e-08	-8.238962e-06	-1.809762e-08	-5.605459e+01	-1.182787e+03
1.000000e-07	-8.210228e-06	-1.807670e-08	-5.585909e+01	-1.181282e+03
1.100000e-07	-8.178274e-06	-1.803134e-08	-5.564169e+01	-1.180055e+03
1.200000e-07	-8.143323e-06	-1.798747e-08	-5.540390e+01	-1.179044e+03
1.300000e-07	-8.105688e-06	-1.793636e-08	-5.514784e+01	-1.178076e+03
1.400000e-07	-8.065676e-06	-1.787158e-08	-5.487562e+01	-1.176943e+03
1.500000e-07	-8.023222e-06	-1.784403e-08	-5.458678e+01	-1.175496e+03
1.600000e-07	-7.978038e-06	-1.789542e-08	-5.427937e+01	-1.173697e+03
1.700000e-07	-7.929968e-06	-1.783279e-08	-5.395232e+01	-1.171624e+03
1.800000e-07	-7.878941e-06	-1.783361e-08	-5.360515e+01	-1.169416e+03
1.900000e-07	-7.824867e-06	-1.783352e-08	-5.323725e+01	-1.167192e+03
2.000000e-07	-7.767898e-06	-1.770885e-08	-5.284966e+01	-1.164988e+03
2.100000e-07	-7.708144e-06	-1.764572e-08	-5.244311e+01	-1.162727e+03
2.200000e-07	-7.645635e-06	-1.758484e-08	-5.201782e+01	-1.160257e+03
2.300000e-07	-7.580421e-06	-1.758822e-08	-5.157414e+01	-1.157423e+03
2.400000e-07	-7.512353e-06	-1.756255e-08	-5.111103e+01	-1.154145e+03
2.500000e-07	-7.441464e-06	-1.751383e-08	-5.062873e+01	-1.150467e+03
2.600000e-07	-7.367733e-06	-1.747647e-08	-5.012709e+01	-1.146547e+03
2.700000e-07	-7.291142e-06	-1.740805e-08	-4.960600e+01	-1.142592e+03
2.800000e-07	-7.211739e-06	-1.734359e-08	-4.906577e+01	-1.138769e+03
2.900000e-07	-7.129629e-06	-1.724658e-08	-4.850713e+01	-1.135120e+03
3.000000e-07	-7.045072e-06	-1.719550e-08	-4.793184e+01	-1.131544e+03
3.100000e-07	-6.958152e-06	-1.716040e-08	-4.734047e+01	-1.127827e+03
3.200000e-07	-6.868747e-06	-1.710954e-08	-4.673219e+01	-1.123734e+03
3.300000e-07	-6.776879e-06	-1.704589e-08	-4.610716e+01	-1.119116e+03
3.400000e-07	-6.682636e-06	-1.694908e-08	-4.546597e+01	-1.113970e+03
3.500000e-07	-6.585962e-06	-1.687358e-08	-4.480824e+01	-1.108451e+03
3.600000e-07	-6.486898e-06	-1.679736e-08	-4.413425e+01	-1.102805e+03
3.700000e-07	-6.385468e-06	-1.671733e-08	-4.344416e+01	-1.097257e+03
3.800000e-07	-6.281683e-06	-1.662775e-08	-4.273804e+01	-1.091912e+03
3.900000e-07	-6.175614e-06	-1.654789e-08	-4.201639e+01	-1.086700e+03
4.000000e-07	-6.067356e-06	-1.646969e-08	-4.127985e+01	-1.081400e+03
4.100000e-07	-5.956979e-06	-1.637030e-08	-4.052889e+01	-1.075729e+03
4.200000e-07	-5.844341e-06	-1.627007e-08	-3.976255e+01	-1.069467e+03
4.300000e-07	-5.729408e-06	-1.616944e-08	-3.898059e+01	-1.062549e+03
4.400000e-07	-5.612296e-06	-1.607650e-08	-3.818380e+01	-1.055103e+03
4.500000e-07	-5.493097e-06	-1.597855e-08	-3.737283e+01	-1.047387e+03
4.600000e-07	-5.371883e-06	-1.586747e-08	-3.654813e+01	-1.039680e+03
4.700000e-07	-5.248739e-06	-1.573936e-08	-3.571031e+01	-1.032152e+03
4.800000e-07	-5.123747e-06	-1.561121e-08	-3.485992e+01	-1.024783e+03
4.900000e-07	-4.996901e-06	-1.548936e-08	-3.399691e+01	-1.017358e+03
5.000000e-07	-4.868216e-06	-1.536365e-08	-3.312139e+01	-1.009557e+03
5.100000e-07	-4.737730e-06	-1.523371e-08	-3.223361e+01	-1.001090e+03
5.200000e-07	-4.605549e-06	-1.510687e-08	-3.133430e+01	-9.918240e+02
5.300000e-07	-4.471780e-06	-1.497768e-08	-3.042419e+01	-9.818420e+02
5.400000e-07	-4.336412e-06	-1.482915e-08	-2.950320e+01	-9.714103e+02
5.500000e-07	-4.199410e-06	-1.466173e-08	-2.857110e+01	-9.608568e+02
5.600000e-07	-4.060760e-06	-1.449118e-08	-2.762778e+01	-9.504194e+02
5.700000e-07	-3.920535e-06	-1.432758e-08	-2.667375e+01	-9.401274e+02
5.800000e-07	-3.778753e-06	-1.416362e-08	-2.570912e+01	-9.297731e+02
5.900000e-07	-3.635458e-06	-1.398889e-08	-2.473419e+01	-9.189894e+02
6.000000e-07	-3.490804e-06	-1.380943e-08	-2.375003e+01	-9.074032e+02
6.100000e-07	-3.344947e-06	-1.362933e-08	-2.275767e+01	-8.947992e+02
6.200000e-07	-3.197914e-06	-1.344267e-08	-2.175732e+01	-8.812182e+02
6.300000e-07	-3.049718e-06	-1.323477e-08	-2.074905e+01	-8.669440e+02
6.400000e-07	-2.900527e-06	-1.300729e-08	-1.973402e+01	-8.523754e+02
6.500000e-07	-2.750386e-06	-1.278028e-08	-1.871252e+01	-8.378374e+02
6.600000e-07	-2.599228e-06	-1.255465e-08	-1.768410e+01	-8.234127e+02
6.700000e-07	-2.447115e-06	-1.232167e-08	-1.664919e+01	-8.088721e+02
6.800000e-07	-2.294174e-06	-1.207590e-08	-1.560864e+01	-7.937430e+02
6.900000e-07	-2.140402e-06	-1.182358e-08	-1.456244e+01	-7.774935e+02
7.000000e-07	-1.985784e-06	-1.156226e-08	-1.351048e+01	-7.597571e+02
7.100000e-07	-1.830412e-06	-1.128514e-08	-1.245339e+01	-7.404968e+02
7.200000e-07	-1.674431e-06	-1.098777e-08	-1.139215e+01	-7.200283e+02
7.300000e-07	-1.517908e-06	-1.067583e-08	-1.032723e+01	-6.988776e+02
7.400000e-07	-1.360890e-06	-1.035654e-08	-9.258949e+00	-6.775240e+02
7.500000e-07	-1.203409e-06	-1.002402e-08	-8.187510e+00	-6.561327e+02
7.600000e-07	-1.045395e-06	-9.671203e-09	-7.112445e+00	-6.344009e+02
7.700000e-07	-8.868768e-07	-9.294263e-09	-6.033953e+00	-6.115990e+02
7.800000e-07	-7.280151e-07	-8.898290e-09	-4.953122e+00	-5.868110e+02
7.900000e-07	-5.689138e-07	-8.484058e-09	-3.870661e+00	-5.592870e+02
8.000000e-07	-4.095841e-07	-8.044019e-09	-2.786646e+00	-5.287584e+02
8.100000e-07	-2.500792e-07	-7.568539e-09	-1.701438e+00	-4.955622e+02
8.200000e-07	-9.048171e-08	-7.059624e-09	-6.156012e-01	-4.604816e+02
8.300000e-07	6.911752e-08	-6.520677e-09	4.702478e-01	-4.243196e+02
8.400000e-07	2.286677e-07	-5.940589e-09	1.555763e+00	-3.873426e+02
8.500000e-07	3.881297e-07	-5.304559e-09	2.640678e+00	-3.488036e+02
8.600000e-07	5.474246e-07	-4.605084e-09	3.724457e+00	-3.067646e+02
8.700000e-07	7.065343e-07	-3.837679e-09	4.806976e+00	-2.583503e+02
8.800000e-07	8.653266e-07	-2.979489e-09	5.887334e+00	-2.004255e+02
8.900000e-07	1.023756e-06	-1.984992e-09	6.965227e+00	-1.305320e+02
9.000000e-07	1.181784e-06	-7.983577e-10	8.040383e+00	-4.780712e+01
9.100000e-07	1.339324e-06	6.183790e-10	9.112220e+00	4.641648e+01
9.200000e-07	1.496423e-06	2.241703e-09	1.018106e+01	1.485518e+02
9.300000e-07	1.653054e-06	3.949084e-09	1.124671e+01	2.533018e+02
9.400000e-07	1.809160e-06	5.559798e-09	1.230880e+01	3.546815e+02
9.500000e-07	1.964618e-06	6.942910e-09	1.336647e+01	4.472397e+02
9.600000e-07	2.119306e-06	8.070222e-09	1.441891e+01	5.271369e+02
9.700000e-07	2.273190e-06	8.983592e-09	1.546587e+01	5.927837e+02
9.800000e-07	2.426269e-06	9.737946e-09	1.650736e+01	6.448804e+02
9.900000e-07	2.578536e-06	1.037599e-08	1.754332e+01	6.858905e+02
1.000000e-06	2.729856e-06	1.092475e-08	1.857284e+01	7.191446e+02
1.010000e-06	2.880072e-06	1.140276e-08	1.959485e+01	7.478715e+02
1.020000e-06	3.029174e-06	1.182611e-08	2.060928e+01	7.744449e+02
1.030000e-06	3.177247e-06	1.220892e-08	2.161671e+01	8.000371e+02
1.040000e-06	3.324184e-06	1.255932e-08	2.261641e+01	8.247160e+02
1.050000e-06	3.469942e-06	1.287888e-08	2.360809e+01	8.478757e+02
1.060000e-06	3.614539e-06	1.317105e-08	2.459187e+01	8.687923e+02
1.070000e-06	3.757773e-06	1.344085e-08	2.556638e+01	8.870868e+02
1.080000e-06	3.899564e-06	1.369290e-08	2.653106e+01	9.029410e+02
1.090000e-06	4.039870e-06	1.393075e-08	2.748565e+01	9.170280e+02
1.100000e-06	4.178647e-06	1.415464e-08	2.842983e+01	9.302307e+02
1.110000e-06	4.315887e-06	1.436575e-08	2.936356e+01	9.432962e+02
1.120000e-06	4.451515e-06	1.456648e-08	3.028632e+01	9.565767e+02
1.130000e-06	4.585511e-06	1.475547e-08	3.119797e+01	9.699587e+02
1.140000e-06	4.717859e-06	1.493264e-08	3.209842e+01	9.829900e+02
1.150000e-06	4.848453e-06	1.510134e-08	3.298693e+01	9.951340e+02
1.160000e-06	4.977292e-06	1.526363e-08	3.386349e+01	1.006032e+03
1.170000e-06	5.104435e-06	1.542002e-08	3.472853e+01	1.015665e+03
1.180000e-06	5.229802e-06	1.556961e-08	3.558147e+01	1.024349e+03
1.190000e-06	5.353341e-06	1.571286e-08	3.642198e+01	1.032592e+03
1.200000e-06	5.475038e-06	1.585104e-08	3.724996e+01	1.040863e+03
1.210000e-06	5.594733e-06	1.598242e-08	3.806431e+01	1.049405e+03
1.220000e-06	5.712294e-06	1.610634e-08	3.886415e+01	1.058148e+03
1.230000e-06	5.827618e-06	1.622493e-08	3.964877e+01	1.066763e+03
1.240000e-06	5.940661e-06	1.634008e-08	4.041787e+01	1.074828e+03
1.250000e-06	6.051564e-06	1.644996e-08	4.117241e+01	1.082024e+03
1.260000e-06	6.160392e-06	1.655122e-08	4.191283e+01	1.088275e+03
1.270000e-06	6.267038e-06	1.664449e-08	4.263841e+01	1.093783e+03
1.280000e-06	6.371407e-06	1.673634e-08	4.334849e+01	1.098934e+03
1.290000e-06	6.473498e-06	1.682782e-08	4.404308e+01	1.104131e+03
1.300000e-06	6.573277e-06	1.691248e-08	4.472193e+01	1.109631e+03
1.310000e-06	6.670604e-06	1.698852e-08	4.538411e+01	1.115442e+03
1.320000e-06	6.765542e-06	1.706431e-08	4.603003e+01	1.121341e+03
1.330000e-06	6.858169e-06	1.714343e-08	4.666022e+01	1.126982e+03
1.340000e-06	6.948366e-06	1.721801e-08	4.727389e+01	1.132055e+03
1.350000e-06	7.036109e-06	1.728297e-08	4.787086e+01	1.136421e+03
1.360000e-06	7.121446e-06	1.734568e-08	4.845146e+01	1.140169e+03
1.370000e-06	7.204321e-06	1.741122e-08	4.901531e+01	1.143564e+03
1.380000e-06	7.284602e-06	1.747369e-08	4.956150e+01	1.146934e+03
1.390000e-06	7.362183e-06	1.753056e-08	5.008933e+01	1.150518e+03
1.400000e-06	7.436969e-06	1.758377e-08	5.059814e+01	1.154369e+03
1.410000e-06	7.508999e-06	1.763823e-08	5.108821e+01	1.158341e+03
1.420000e-06	7.578426e-06	1.769213e-08	5.156057e+01	1.162156e+03
1.430000e-06	7.645109e-06	1.773983e-08	5.201425e+01	1.165538e+03
1.440000e-06	7.708989e-06	1.778148e-08	5.244886e+01	1.168330e+03
1.450000e-06	7.770261e-06	1.782287e-08	5.286573e+01	1.170566e+03
1.460000e-06	7.828817e-06	1.786629e-08	5.326412e+01	1.172450e+03
1.470000e-06	7.884577e-06	1.790672e-08	5.364349e+01	1.174264e+03
1.480000e-06	7.937335e-06	1.794213e-08	5.400243e+01	1.176240e+03
1.490000e-06	7.986836e-06	1.797482e-08	5.433922e+01	1.178465e+03
1.500000e-06	8.033375e-06	1.800683e-08	5.465586e+01	1.180840e+03
1.510000e-06	8.077136e-06	1.803685e-08	5.495358e+01	1.183133e+03
1.520000e-06	8.117954e-06	1.805995e-08	5.523130e+01	1.185084e+03
1.530000e-06	8.155944e-06	1.807939e-08	5.548977e+01	1.186519e+03
1.540000e-06	8.191155e-06	1.810199e-08	5.572932e+01	1.187429e+03
1.550000e-06	8.223438e-06	1.812531e-08	5.594897e+01	1.187973e+03
1.560000e-06	8.252905e-06	1.814334e-08	5.614945e+01	1.188405e+03
1.570000e-06	8.279479e-06	1.815510e-08	5.633025e+01	1.188966e+03
1.580000e-06	8.303031e-06	1.816675e-08	5.649048e+01	1.189779e+03
1.590000e-06	8.323770e-06	1.817958e-08	5.663159e+01	1.190795e+03
1.600000e-06	8.341595e-06	1.818938e-08	5.675286e+01	1.191825e+03
1.610000e-06	8.356305e-06	1.819496e-08	5.685294e+01	1.192621e+03
1.620000e-06	8.367799e-06	1.819802e-08	5.693114e+01	1.192989e+03
1.630000e-06	8.376109e-06	1.820180e-08	5.698767e+01	1.192877e+03
1.640000e-06	8.381532e-06	1.820633e-08	5.702457e+01	1.192392e+03
1.650000e-06	8.384020e-06	1.820702e-08	5.704150e+01	1.191757e+03
1.660000e-06	8.383541e-06	1.820060e-08	5.703824e+01	1.191210e+03
1.670000e-06	8.380331e-06	1.819042e-08	5.701640e+01	1.190899e+03
1.680000e-06	8.374324e-06	1.818564e-08	5.697553e+01	1.190818e+03
1.690000e-06	8.365491e-06	1.818040e-08	5.691544e+01	1.190811e+03
1.700000e-06	8.353774e-06	1.817010e-08	5.683572e+01	1.190638e+03
1.710000e-06	8.339111e-06	1.816011e-08	5.673596e+01	1.190084e+03
1.720000e-06	8.321898e-06	1.815479e-08	5.661885e+01	1.189047e+03
1.730000e-06	8.302242e-06	1.813773e-08	5.648512e+01	1.187585e+03
1.740000e-06	8.279716e-06	1.806340e-08	5.633186e+01	1.185890e+03
1.750000e-06	8.253652e-06	1.802606e-08	5.615453e+01	1.184205e+03
1.760000e-06	8.223675e-06	1.801595e-08	5.595058e+01	1.182728e+03
1.770000e-06	8.190377e-06	1.800181e-08	5.572403e+01	1.181529e+03
1.780000e-06	8.154472e-06	1.801297e-08	5.547975e+01	1.180532e+03
1.790000e-06	8.116171e-06	1.806171e-08	5.521916e+01	1.179554e+03
1.800000e-06	8.075867e-06	1.801212e-08	5.494495e+01	1.178392e+03
1.810000e-06	8.033460e-06	1.793614e-08	5.465643e+01	1.176906e+03
1.820000e-06	7.988082e-06	1.795941e-08	5.434770e+01	1.175072e+03
1.830000e-06	7.939782e-06	1.787377e-08	5.401908e+01	1.172977e+03
1.840000e-06	7.888429e-06	1.789724e-08	5.366970e+01	1.170762e+03
1.850000e-06	7.833760e-06	1.789306e-08	5.329775e+01	1.168540e+03
1.860000e-06	7.776380e-06	1.786198e-08	5.290736e+01	1.166334e+03
1.870000e-06	7.716211e-06	1.787747e-08	5.249799e+01	1.164058e+03
1.880000e-06	7.653291e-06	1.774916e-08	5.206991e+01	1.161555e+03
1.890000e-06	7.587615e-06	1.770440e-08	5.162308e+01	1.158674e+03
1.900000e-06	7.518957e-06	1.761478e-08	5.115596e+01	1.155348e+03
1.910000e-06	7.447453e-06	1.756341e-08	5.066948e+01	1.151634e+03
1.920000e-06	7.373049e-06	1.755631e-08	5.016326e+01	1.147700e+03
1.930000e-06	7.295839e-06	1.750963e-08	4.963795e+01	1.143752e+03
1.940000e-06	7.215977e-06	1.749875e-08	4.909461e+01	1.139947e+03
1.950000e-06	7.133635e-06	1.738545e-08	4.853438e+01	1.136313e+03
1.960000e-06	7.048707e-06	1.731999e-08	4.795657e+01	1.132733e+03
1.970000e-06	6.961093e-06	1.721630e-08	4.736048e+01	1.128985e+03
1.980000e-06	6.871047e-06	1.713767e-08	4.674784e+01	1.124840e+03
1.990000e-06	6.778543e-06	1.710576e-08	4.611848e+01	1.120161e+03
2.000000e-06	6.683638e-06	1.703941e-08	4.547278e+01	1.114965e+03
2.010000e-06	6.586447e-06	1.698767e-08	4.481154e+01	1.109420e+03
2.020000e-06	6.486983e-06	1.688175e-08	4.413482e+01	1.103774e+03
2.030000e-06	6.385120e-06	1.680007e-08	4.344179e+01	1.098245e+03
2.040000e-06	6.280880e-06	1.669286e-08	4.273258e+01	1.092920e+03
2.050000e-06	6.174445e-06	1.661005e-08	4.200844e+01	1.087711e+03
2.060000e-06	6.065814e-06	1.652349e-08	4.126936e+01	1.082384e+03
2.070000e-06	5.954992e-06	1.643257e-08	4.051537e+01	1.076657e+03
2.080000e-06	5.841903e-06	1.634145e-08	3.974596e+01	1.070323e+03
2.090000e-06	5.726479e-06	1.623806e-08	3.896066e+01	1.063339e+03
2.100000e-06	5.608758e-06	1.612827e-08	3.815974e+01	1.055849e+03
2.110000e-06	5.489005e-06	1.600491e-08	3.734499e+01	1.048121e+03
2.120000e-06	5.367336e-06	1.589446e-08	3.651720e+01	1.040427e+03
2.130000e-06	5.243706e-06	1.577943e-08	3.567607e+01	1.032921e+03
2.140000e-06	5.118191e-06	1.566542e-08	3.482212e+01	1.025558e+03
2.150000e-06	4.990879e-06	1.553985e-08	3.395594e+01	1.018108e+03
2.160000e-06	4.861798e-06	1.541403e-08	3.307772e+01	1.010247e+03
2.170000e-06	4.730926e-06	1.527652e-08	3.218732e+01	1.001697e+03
2.180000e-06	4.598316e-06	1.513485e-08	3.128509e+01	9.923448e+02
2.190000e-06	4.464086e-06	1.498615e-08	3.037185e+01	9.822988e+02
2.200000e-06	4.328302e-06	1.483949e-08	2.944803e+01	9.718380e+02
2.210000e-06	4.190873e-06	1.468753e-08	2.851301e+01	9.612878e+02
2.220000e-06	4.051819e-06	1.453304e-08	2.756695e+01	9.508681e+02
2.230000e-06	3.911200e-06	1.436888e-08	2.661023e+01	9.405825e+02
2.240000e-06	3.769134e-06	1.419769e-08	2.564367e+01	9.302006e+02
2.250000e-06	3.625796e-06	1.401824e-08	2.466846e+01	9.193464e+02
2.260000e-06	3.481209e-06	1.383157e-08	2.368475e+01	9.076567e+02
2.270000e-06	3.335316e-06	1.363846e-08	2.269215e+01	8.949404e+02
2.280000e-06	3.188153e-06	1.343944e-08	2.169091e+01	8.812675e+02
2.290000e-06	3.039819e-06	1.323812e-08	2.068171e+01	8.669415e+02
2.300000e-06	2.890392e-06	1.302866e-08	1.966507e+01	8.523630e+02
2.310000e-06	2.740005e-06	1.281339e-08	1.864189e+01	8.378379e+02
2.320000e-06	2.588757e-06	1.258651e-08	1.761286e+01	8.234163e+02
2.330000e-06	2.436617e-06	1.235206e-08	1.657777e+01	8.088374e+02
2.340000e-06	2.283573e-06	1.210104e-08	1.553651e+01	7.936119e+02
2.350000e-06	2.129643e-06	1.183592e-08	1.448923e+01	7.772150e+02
2.360000e-06	1.974904e-06	1.156058e-08	1.343645e+01	7.593098e+02
2.370000e-06	1.819484e-06	1.127979e-08	1.237904e+01	7.398987e+02
2.380000e-06	1.663416e-06	1.098784e-08	1.131721e+01	7.193296e+02
2.390000e-06	1.506755e-06	1.068207e-08	1.025135e+01	6.981371e+02
2.400000e-06	1.349528e-06	1.036189e-08	9.181644e+00	6.767784e+02
2.410000e-06	1.191753e-06	1.002769e-08	8.108206e+00	6.553729e+02
2.420000e-06	1.033527e-06	9.674299e-09	7.031699e+00	6.335665e+02
2.430000e-06	8.749263e-07	9.296450e-09	5.952647e+00	6.105951e+02
2.440000e-06	7.160256e-07	8.895838e-09	4.871550e+00	5.855429e+02
2.450000e-06	5.569047e-07	8.473910e-09	3.788955e+00	5.576985e+02
2.460000e-06	3.975999e-07	8.029988e-09	2.705110e+00	5.268569e+02
2.470000e-06	2.381853e-07	7.556999e-09	1.620517e+00	4.934159e+02
2.480000e-06	7.872666e-08	7.049467e-09	5.356245e-01	4.581850e+02
2.490000e-06	-8.076220e-08	6.503620e-09	-5.494735e-01	4.219368e+02
2.500000e-06	-2.402279e-07	5.916167e-09	-1.634414e+00	3.848484e+02
2.510000e-06	-3.996072e-07	5.278354e-09	-2.718767e+00	3.460466e+02
2.520000e-06	-5.588596e-07	4.578574e-09	-3.802256e+00	3.034729e+02
2.530000e-06	-7.179401e-07	3.804262e-09	-4.884576e+00	2.541851e+02
2.540000e-06	-8.767527e-07	2.935710e-09	-5.965073e+00	1.950737e+02
2.550000e-06	-1.035210e-06	1.931774e-09	-7.043150e+00	1.238106e+02
2.560000e-06	-1.193240e-06	7.391397e-10	-8.118327e+00	3.974777e+01
2.570000e-06	-1.350728e-06	-6.839686e-10	-9.189807e+00	-5.553259e+01
2.580000e-06	-1.507604e-06	-2.316277e-09	-1.025713e+01	-1.582241e+02
2.590000e-06	-1.663965e-06	-4.033126e-09	-1.132095e+01	-2.629009e+02
2.600000e-06	-1.819844e-06	-5.649575e-09	-1.238149e+01	-3.635764e+02
2.610000e-06	-1.975081e-06	-7.030646e-09	-1.343766e+01	-4.549260e+02
2.620000e-06	-2.129548e-06	-8.154234e-09	-1.448859e+01	-5.333309e+02
2.630000e-06	-2.283147e-06	-9.066688e-09	-1.553361e+01	-5.974558e+02
2.640000e-06	-2.435856e-06	-9.822319e-09	-1.657259e+01	-6.482241e+02
2.650000e-06	-2.587717e-06	-1.046153e-08	-1.760579e+01	-6.882386e+02
2.660000e-06	-2.738686e-06	-1.101299e-08	-1.863292e+01	-7.208640e+02
2.670000e-06	-2.888612e-06	-1.149781e-08	-1.965295e+01	-7.492672e+02
2.680000e-06	-3.037442e-06	-1.193038e-08	-2.066554e+01	-7.757020e+02
2.690000e-06	-3.185293e-06	-1.231950e-08	-2.167146e+01	-8.012102e+02
2.700000e-06	-3.332023e-06	-1.266783e-08	-2.266974e+01	-8.257627e+02
2.710000e-06	-3.477511e-06	-1.298152e-08	-2.365959e+01	-8.487145e+02
2.720000e-06	-3.621789e-06	-1.327094e-08	-2.464119e+01	-8.693599e+02
2.730000e-06	-3.764750e-06	-1.354047e-08	-2.561384e+01	-8.873748e+02
2.740000e-06	-3.906305e-06	-1.379271e-08	-2.657693e+01	-9.030017e+02
2.750000e-06	-4.046401e-06	-1.403146e-08	-2.753008e+01	-9.169520e+02
2.760000e-06	-4.184924e-06	-1.426090e-08	-2.847254e+01	-9.301104e+02
2.770000e-06	-4.321864e-06	-1.447999e-08	-2.940422e+01	-9.431912e+02
2.780000e-06	-4.457216e-06	-1.468167e-08	-3.032510e+01	-9.564964e+02
2.790000e-06	-4.590911e-06	-1.486392e-08	-3.123471e+01	-9.698670e+02
2.800000e-06	-4.722957e-06	-1.503551e-08	-3.213310e+01	-9.828285e+02
2.810000e-06	-4.853333e-06	-1.520167e-08	-3.302012e+01	-9.948517e+02
2.820000e-06	-4.982051e-06	-1.535973e-08	-3.389587e+01	-1.005609e+03
2.830000e-06	-5.109028e-06	-1.551216e-08	-3.475977e+01	-1.015121e+03
2.840000e-06	-5.234184e-06	-1.566317e-08	-3.561129e+01	-1.023733e+03
2.850000e-06	-5.357456e-06	-1.581055e-08	-3.644998e+01	-1.031960e+03
2.860000e-06	-5.478838e-06	-1.594568e-08	-3.727581e+01	-1.040254e+03
2.870000e-06	-5.598228e-06	-1.606603e-08	-3.808809e+01	-1.048828e+03
2.880000e-06	-5.715475e-06	-1.618083e-08	-3.888580e+01	-1.057577e+03
2.890000e-06	-5.830443e-06	-1.629494e-08	-3.966799e+01	-1.066154e+03
2.900000e-06	-5.942998e-06	-1.640598e-08	-4.043377e+01	-1.074138e+03
2.910000e-06	-6.053211e-06	-1.650857e-08	-4.118362e+01	-1.081232e+03
2.920000e-06	-6.161277e-06	-1.660329e-08	-4.191885e+01	-1.087390e+03
2.930000e-06	-6.267356e-06	-1.669662e-08	-4.264057e+01	-1.092841e+03
2.940000e-06	-6.371230e-06	-1.678966e-08	-4.334729e+01	-1.097979e+03
