# Temperatura_=_27.73
# Concentracion g/m^3_=_13400.0
# C_Vs_to_Am_M_A/Vsm_=_65563218390.804596
# pendiente_HvsI_1/m_=_3716.3
# ordenada_HvsI_A/m_=_1297.0
# frecuencia_Hz_=_301431.9473516688

Tiempo_(s)	Campo_(V.s)	Magnetizacion_(V.s)	Campo_(kA/m)	Magnetizacion_(A/m)
0.000000e+00	-8.359148e-06	-1.796938e-08	-5.691169e+01	-1.178281e+03
1.000000e-08	-8.355487e-06	-1.796842e-08	-5.688676e+01	-1.177724e+03
2.000000e-08	-8.349133e-06	-1.796069e-08	-5.684350e+01	-1.177419e+03
3.000000e-08	-8.340059e-06	-1.795589e-08	-5.678173e+01	-1.177303e+03
4.000000e-08	-8.328028e-06	-1.794619e-08	-5.669981e+01	-1.177189e+03
5.000000e-08	-8.312947e-06	-1.793301e-08	-5.659714e+01	-1.176841e+03
6.000000e-08	-8.294946e-06	-1.791066e-08	-5.647458e+01	-1.176085e+03
7.000000e-08	-8.274437e-06	-1.786601e-08	-5.633495e+01	-1.174881e+03
8.000000e-08	-8.251362e-06	-1.792517e-08	-5.617785e+01	-1.173339e+03
9.000000e-08	-8.225054e-06	-1.799650e-08	-5.599873e+01	-1.171674e+03
1.000000e-07	-8.195386e-06	-1.790290e-08	-5.579675e+01	-1.170112e+03
1.100000e-07	-8.162635e-06	-1.784161e-08	-5.557376e+01	-1.168801e+03
1.200000e-07	-8.126945e-06	-1.783985e-08	-5.533078e+01	-1.167747e+03
1.300000e-07	-8.088666e-06	-1.779085e-08	-5.507016e+01	-1.166826e+03
1.400000e-07	-8.048069e-06	-1.763685e-08	-5.479376e+01	-1.165836e+03
1.500000e-07	-8.004949e-06	-1.769338e-08	-5.450019e+01	-1.164587e+03
1.600000e-07	-7.958992e-06	-1.781134e-08	-5.418730e+01	-1.162978e+03
1.700000e-07	-7.910126e-06	-1.759848e-08	-5.385461e+01	-1.161030e+03
1.800000e-07	-7.858236e-06	-1.774656e-08	-5.350133e+01	-1.158859e+03
1.900000e-07	-7.803301e-06	-1.768527e-08	-5.312731e+01	-1.156610e+03
2.000000e-07	-7.745575e-06	-1.751803e-08	-5.273430e+01	-1.154380e+03
2.100000e-07	-7.685115e-06	-1.753789e-08	-5.232266e+01	-1.152165e+03
2.200000e-07	-7.621966e-06	-1.741263e-08	-5.189272e+01	-1.149859e+03
2.300000e-07	-7.556013e-06	-1.749207e-08	-5.144370e+01	-1.147306e+03
2.400000e-07	-7.487201e-06	-1.739926e-08	-5.097521e+01	-1.144373e+03
2.500000e-07	-7.415632e-06	-1.738718e-08	-5.048794e+01	-1.141025e+03
2.600000e-07	-7.341144e-06	-1.734437e-08	-4.998080e+01	-1.137343e+03
2.700000e-07	-7.263837e-06	-1.726654e-08	-4.945447e+01	-1.133501e+03
2.800000e-07	-7.183729e-06	-1.720774e-08	-4.890907e+01	-1.129684e+03
2.900000e-07	-7.100906e-06	-1.708615e-08	-4.834519e+01	-1.126012e+03
3.000000e-07	-7.015737e-06	-1.711645e-08	-4.776533e+01	-1.122472e+03
3.100000e-07	-6.928221e-06	-1.703490e-08	-4.716949e+01	-1.118926e+03
3.200000e-07	-6.838226e-06	-1.699400e-08	-4.655678e+01	-1.115159e+03
3.300000e-07	-6.745769e-06	-1.693087e-08	-4.592730e+01	-1.110972e+03
3.400000e-07	-6.650953e-06	-1.682446e-08	-4.528176e+01	-1.106272e+03
3.500000e-07	-6.553706e-06	-1.677071e-08	-4.461968e+01	-1.101110e+03
3.600000e-07	-6.453947e-06	-1.669132e-08	-4.394049e+01	-1.095661e+03
3.700000e-07	-6.351829e-06	-1.662154e-08	-4.324523e+01	-1.090150e+03
3.800000e-07	-6.247387e-06	-1.651620e-08	-4.253416e+01	-1.084748e+03
3.900000e-07	-6.140736e-06	-1.645931e-08	-4.180805e+01	-1.079492e+03
4.000000e-07	-6.031974e-06	-1.637338e-08	-4.106757e+01	-1.074267e+03
4.100000e-07	-5.921116e-06	-1.627490e-08	-4.031280e+01	-1.068849e+03
4.200000e-07	-5.808049e-06	-1.617824e-08	-3.954301e+01	-1.063000e+03
4.300000e-07	-5.692644e-06	-1.608402e-08	-3.875730e+01	-1.056572e+03
4.400000e-07	-5.574997e-06	-1.600176e-08	-3.795632e+01	-1.049573e+03
4.500000e-07	-5.455250e-06	-1.589950e-08	-3.714104e+01	-1.042161e+03
4.600000e-07	-5.333519e-06	-1.578475e-08	-3.631226e+01	-1.034572e+03
4.700000e-07	-5.209828e-06	-1.566176e-08	-3.547014e+01	-1.027013e+03
4.800000e-07	-5.084259e-06	-1.554770e-08	-3.461522e+01	-1.019564e+03
4.900000e-07	-4.957026e-06	-1.542831e-08	-3.374898e+01	-1.012129e+03
5.000000e-07	-4.827964e-06	-1.530102e-08	-3.287029e+01	-1.004475e+03
5.100000e-07	-4.697073e-06	-1.516517e-08	-3.197914e+01	-9.963253e+02
5.200000e-07	-4.564472e-06	-1.504051e-08	-3.107635e+01	-9.874818e+02
5.300000e-07	-4.430276e-06	-1.491183e-08	-3.016270e+01	-9.779103e+02
5.400000e-07	-4.294622e-06	-1.477093e-08	-2.923913e+01	-9.677572e+02
5.500000e-07	-4.157272e-06	-1.460751e-08	-2.830401e+01	-9.572842e+02
5.600000e-07	-4.018335e-06	-1.444584e-08	-2.735808e+01	-9.467465e+02
5.700000e-07	-3.877817e-06	-1.428365e-08	-2.640139e+01	-9.362705e+02
5.800000e-07	-3.735588e-06	-1.411080e-08	-2.543305e+01	-9.257844e+02
5.900000e-07	-3.591852e-06	-1.392576e-08	-2.445445e+01	-9.150359e+02
6.000000e-07	-3.446880e-06	-1.374653e-08	-2.346744e+01	-9.036936e+02
6.100000e-07	-3.300706e-06	-1.357885e-08	-2.247223e+01	-8.914876e+02
6.200000e-07	-3.153402e-06	-1.339831e-08	-2.146935e+01	-8.783283e+02
6.300000e-07	-3.005081e-06	-1.319489e-08	-2.045953e+01	-8.643468e+02
6.400000e-07	-2.855684e-06	-1.296877e-08	-1.944239e+01	-8.498347e+02
6.500000e-07	-2.705307e-06	-1.274287e-08	-1.841858e+01	-8.351050e+02
6.600000e-07	-2.554045e-06	-1.250711e-08	-1.738874e+01	-8.203337e+02
6.700000e-07	-2.401858e-06	-1.226609e-08	-1.635260e+01	-8.054545e+02
6.800000e-07	-2.248678e-06	-1.201909e-08	-1.530970e+01	-7.901572e+02
6.900000e-07	-2.094609e-06	-1.177145e-08	-1.426075e+01	-7.739997e+02
7.000000e-07	-1.939865e-06	-1.151485e-08	-1.320720e+01	-7.565871e+02
7.100000e-07	-1.784489e-06	-1.123624e-08	-1.214936e+01	-7.377416e+02
7.200000e-07	-1.628463e-06	-1.093812e-08	-1.108708e+01	-7.175817e+02
7.300000e-07	-1.471799e-06	-1.062229e-08	-1.002046e+01	-6.964652e+02
7.400000e-07	-1.314565e-06	-1.029908e-08	-8.949968e+00	-6.748110e+02
7.500000e-07	-1.156870e-06	-9.961190e-09	-7.876331e+00	-6.528680e+02
7.600000e-07	-9.987405e-07	-9.606284e-09	-6.799737e+00	-6.305367e+02
7.700000e-07	-8.402451e-07	-9.231238e-09	-5.720651e+00	-6.073294e+02
7.800000e-07	-6.815216e-07	-8.839309e-09	-4.640012e+00	-5.825072e+02
7.900000e-07	-5.226045e-07	-8.421003e-09	-3.558055e+00	-5.553501e+02
8.000000e-07	-3.635190e-07	-7.970923e-09	-2.474951e+00	-5.254510e+02
8.100000e-07	-2.043085e-07	-7.491685e-09	-1.390996e+00	-4.928981e+02
8.200000e-07	-4.502215e-08	-6.988047e-09	-3.065248e-01	-4.582366e+02
8.300000e-07	1.142574e-07	-6.459689e-09	7.779000e-01	-4.221843e+02
8.400000e-07	2.735022e-07	-5.890282e-09	1.862088e+00	-3.851759e+02
8.500000e-07	4.326243e-07	-5.272737e-09	2.945442e+00	-3.468996e+02
8.600000e-07	5.916383e-07	-4.598629e-09	4.028058e+00	-3.060222e+02
8.700000e-07	7.504951e-07	-3.865875e-09	5.109605e+00	-2.602565e+02
8.800000e-07	9.090990e-07	-3.050127e-09	6.189430e+00	-2.068191e+02
8.900000e-07	1.067431e-06	-2.120388e-09	7.267403e+00	-1.431911e+02
9.000000e-07	1.225384e-06	-1.035325e-09	8.342798e+00	-6.796892e+01
9.100000e-07	1.382863e-06	2.469393e-10	9.414965e+00	1.845903e+01
9.200000e-07	1.539777e-06	1.727795e-09	1.048328e+01	1.136461e+02
9.300000e-07	1.696103e-06	3.337063e-09	1.154760e+01	2.133519e+02
9.400000e-07	1.851802e-06	4.920229e-09	1.260765e+01	3.122965e+02
9.500000e-07	2.006856e-06	6.338115e-09	1.366330e+01	4.052081e+02
9.600000e-07	2.161349e-06	7.528330e-09	1.471514e+01	4.878747e+02
9.700000e-07	2.315072e-06	8.510304e-09	1.576173e+01	5.579067e+02
9.800000e-07	2.467735e-06	9.327309e-09	1.680111e+01	6.150114e+02
9.900000e-07	2.619374e-06	1.001554e-08	1.783352e+01	6.607327e+02
1.000000e-06	2.770134e-06	1.060582e-08	1.885993e+01	6.977719e+02
1.010000e-06	2.919970e-06	1.111883e-08	1.988007e+01	7.291252e+02
1.020000e-06	3.068709e-06	1.157292e-08	2.089273e+01	7.573057e+02
1.030000e-06	3.216338e-06	1.197732e-08	2.189783e+01	7.838651e+02
1.040000e-06	3.362926e-06	1.234364e-08	2.289585e+01	8.093084e+02
1.050000e-06	3.508315e-06	1.267798e-08	2.388570e+01	8.333598e+02
1.060000e-06	3.652377e-06	1.299061e-08	2.486652e+01	8.554229e+02
1.070000e-06	3.795136e-06	1.327952e-08	2.583847e+01	8.750408e+02
1.080000e-06	3.936464e-06	1.354337e-08	2.680067e+01	8.921876e+02
1.090000e-06	4.076272e-06	1.378898e-08	2.775253e+01	9.073129e+02
1.100000e-06	4.214541e-06	1.402057e-08	2.869391e+01	9.211627e+02
1.110000e-06	4.351126e-06	1.424013e-08	2.962382e+01	9.344861e+02
1.120000e-06	4.486055e-06	1.444382e-08	3.054246e+01	9.477649e+02
1.130000e-06	4.619456e-06	1.463281e-08	3.145070e+01	9.610785e+02
1.140000e-06	4.751255e-06	1.481120e-08	3.234803e+01	9.741474e+02
1.150000e-06	4.881319e-06	1.498558e-08	3.323354e+01	9.865204e+02
1.160000e-06	5.009619e-06	1.515090e-08	3.410705e+01	9.978133e+02
1.170000e-06	5.136155e-06	1.530743e-08	3.496855e+01	1.007894e+03
1.180000e-06	5.260954e-06	1.545722e-08	3.581822e+01	1.016938e+03
1.190000e-06	5.383963e-06	1.560167e-08	3.665570e+01	1.025347e+03
1.200000e-06	5.504944e-06	1.574027e-08	3.747938e+01	1.033569e+03
1.210000e-06	5.623852e-06	1.587035e-08	3.828894e+01	1.041908e+03
1.220000e-06	5.740676e-06	1.599486e-08	3.908431e+01	1.050410e+03
1.230000e-06	5.855218e-06	1.611458e-08	3.986415e+01	1.058862e+03
1.240000e-06	5.967489e-06	1.622865e-08	4.062853e+01	1.066913e+03
1.250000e-06	6.077706e-06	1.633560e-08	4.137892e+01	1.074239e+03
1.260000e-06	6.185898e-06	1.643597e-08	4.211552e+01	1.080696e+03
1.270000e-06	6.291852e-06	1.653103e-08	4.283689e+01	1.086383e+03
1.280000e-06	6.395490e-06	1.662262e-08	4.354249e+01	1.091601e+03
1.290000e-06	6.496925e-06	1.670897e-08	4.423310e+01	1.096718e+03
1.300000e-06	6.596026e-06	1.678833e-08	4.490781e+01	1.102018e+03
1.310000e-06	6.692612e-06	1.686356e-08	4.556539e+01	1.107584e+03
1.320000e-06	6.786846e-06	1.693978e-08	4.620697e+01	1.113273e+03
1.330000e-06	6.878793e-06	1.701799e-08	4.683297e+01	1.118795e+03
1.340000e-06	6.968234e-06	1.709184e-08	4.744191e+01	1.123846e+03
1.350000e-06	7.055179e-06	1.715918e-08	4.803386e+01	1.128242e+03
1.360000e-06	7.139783e-06	1.722162e-08	4.860987e+01	1.132005e+03
1.370000e-06	7.221870e-06	1.728204e-08	4.916875e+01	1.135341e+03
1.380000e-06	7.301321e-06	1.733981e-08	4.970968e+01	1.138554e+03
1.390000e-06	7.378070e-06	1.739221e-08	5.023221e+01	1.141907e+03
1.400000e-06	7.451986e-06	1.744193e-08	5.073545e+01	1.145514e+03
1.410000e-06	7.523229e-06	1.749447e-08	5.122050e+01	1.149291e+03
1.420000e-06	7.591895e-06	1.754968e-08	5.168799e+01	1.153003e+03
1.430000e-06	7.657737e-06	1.759972e-08	5.213627e+01	1.156370e+03
1.440000e-06	7.720808e-06	1.764229e-08	5.256567e+01	1.159192e+03
1.450000e-06	7.781349e-06	1.768202e-08	5.297786e+01	1.161438e+03
1.460000e-06	7.839165e-06	1.771984e-08	5.337149e+01	1.163253e+03
1.470000e-06	7.894192e-06	1.775303e-08	5.374613e+01	1.164900e+03
1.480000e-06	7.946033e-06	1.778130e-08	5.409908e+01	1.166633e+03
1.490000e-06	7.994581e-06	1.781009e-08	5.442961e+01	1.168598e+03
1.500000e-06	8.040356e-06	1.784390e-08	5.474125e+01	1.170762e+03
1.510000e-06	8.083292e-06	1.787667e-08	5.503357e+01	1.172939e+03
1.520000e-06	8.123294e-06	1.790139e-08	5.530592e+01	1.174870e+03
1.530000e-06	8.160556e-06	1.792025e-08	5.555962e+01	1.176342e+03
1.540000e-06	8.194970e-06	1.793791e-08	5.579391e+01	1.177280e+03
1.550000e-06	8.226426e-06	1.795475e-08	5.600808e+01	1.177782e+03
1.560000e-06	8.255103e-06	1.796802e-08	5.620332e+01	1.178077e+03
1.570000e-06	8.280783e-06	1.797687e-08	5.637815e+01	1.178424e+03
1.580000e-06	8.303436e-06	1.798720e-08	5.653239e+01	1.179002e+03
1.590000e-06	8.323327e-06	1.800188e-08	5.666781e+01	1.179837e+03
1.600000e-06	8.340258e-06	1.801397e-08	5.678308e+01	1.180791e+03
1.610000e-06	8.354050e-06	1.801949e-08	5.687698e+01	1.181629e+03
1.620000e-06	8.364627e-06	1.802139e-08	5.694899e+01	1.182118e+03
1.630000e-06	8.372085e-06	1.802402e-08	5.699977e+01	1.182134e+03
1.640000e-06	8.376635e-06	1.802774e-08	5.703075e+01	1.181711e+03
1.650000e-06	8.378214e-06	1.802989e-08	5.704150e+01	1.181027e+03
1.660000e-06	8.376963e-06	1.802053e-08	5.703298e+01	1.180323e+03
1.670000e-06	8.372990e-06	1.800901e-08	5.700593e+01	1.179798e+03
1.680000e-06	8.366153e-06	1.800786e-08	5.695938e+01	1.179527e+03
1.690000e-06	8.356533e-06	1.800138e-08	5.689389e+01	1.179424e+03
1.700000e-06	8.344038e-06	1.798746e-08	5.680882e+01	1.179288e+03
1.710000e-06	8.328712e-06	1.798446e-08	5.670447e+01	1.178889e+03
1.720000e-06	8.310866e-06	1.800657e-08	5.658297e+01	1.178067e+03
1.730000e-06	8.290461e-06	1.797277e-08	5.644405e+01	1.176804e+03
1.740000e-06	8.267036e-06	1.780518e-08	5.628457e+01	1.175228e+03
1.750000e-06	8.239835e-06	1.783483e-08	5.609937e+01	1.173564e+03
1.760000e-06	8.208754e-06	1.787322e-08	5.588776e+01	1.172030e+03
1.770000e-06	8.174712e-06	1.782041e-08	5.565599e+01	1.170757e+03
1.780000e-06	8.138172e-06	1.784472e-08	5.540721e+01	1.169732e+03
1.790000e-06	8.099259e-06	1.800151e-08	5.514228e+01	1.168813e+03
1.800000e-06	8.058467e-06	1.778646e-08	5.486456e+01	1.167795e+03
1.810000e-06	8.015355e-06	1.776074e-08	5.457104e+01	1.166496e+03
1.820000e-06	7.969155e-06	1.787774e-08	5.425649e+01	1.164834e+03
1.830000e-06	7.920121e-06	1.759839e-08	5.392265e+01	1.162843e+03
1.840000e-06	7.867848e-06	1.780051e-08	5.356676e+01	1.160651e+03
1.850000e-06	7.812355e-06	1.766862e-08	5.318895e+01	1.158400e+03
1.860000e-06	7.754219e-06	1.770979e-08	5.279315e+01	1.156174e+03
1.870000e-06	7.693223e-06	1.775570e-08	5.237786e+01	1.153953e+03
1.880000e-06	7.629534e-06	1.749984e-08	5.194425e+01	1.151621e+03
1.890000e-06	7.563029e-06	1.760552e-08	5.149146e+01	1.149018e+03
1.900000e-06	7.493628e-06	1.738790e-08	5.101896e+01	1.146024e+03
1.910000e-06	7.421345e-06	1.744397e-08	5.052683e+01	1.142619e+03
1.920000e-06	7.346147e-06	1.740417e-08	5.001487e+01	1.138902e+03
1.930000e-06	7.268217e-06	1.735112e-08	4.948429e+01	1.135051e+03
1.940000e-06	7.187626e-06	1.740070e-08	4.893560e+01	1.131249e+03
1.950000e-06	7.104602e-06	1.716939e-08	4.837035e+01	1.127598e+03
1.960000e-06	7.018984e-06	1.722570e-08	4.778743e+01	1.124068e+03
1.970000e-06	6.930735e-06	1.702840e-08	4.718661e+01	1.120503e+03
1.980000e-06	6.840075e-06	1.701640e-08	4.656937e+01	1.116685e+03
1.990000e-06	6.746969e-06	1.698403e-08	4.593547e+01	1.112426e+03
2.000000e-06	6.651489e-06	1.690444e-08	4.528541e+01	1.107652e+03
2.010000e-06	6.553721e-06	1.688566e-08	4.461978e+01	1.102435e+03
2.020000e-06	6.453644e-06	1.672852e-08	4.393842e+01	1.096962e+03
2.030000e-06	6.351089e-06	1.670912e-08	4.324019e+01	1.091458e+03
2.040000e-06	6.246241e-06	1.655726e-08	4.252636e+01	1.086076e+03
2.050000e-06	6.139234e-06	1.651895e-08	4.179783e+01	1.080834e+03
2.060000e-06	6.030096e-06	1.640298e-08	4.105477e+01	1.075595e+03
2.070000e-06	5.918729e-06	1.632549e-08	4.029656e+01	1.070127e+03
2.080000e-06	5.805044e-06	1.623554e-08	3.952255e+01	1.064200e+03
2.090000e-06	5.689034e-06	1.613463e-08	3.873272e+01	1.057686e+03
2.100000e-06	5.570791e-06	1.604465e-08	3.792768e+01	1.050614e+03
2.110000e-06	5.450588e-06	1.592131e-08	3.710930e+01	1.043160e+03
2.120000e-06	5.328434e-06	1.581696e-08	3.627764e+01	1.035563e+03
2.130000e-06	5.204381e-06	1.568624e-08	3.543305e+01	1.028018e+03
2.140000e-06	5.078391e-06	1.558099e-08	3.457527e+01	1.020579e+03
2.150000e-06	4.950571e-06	1.544624e-08	3.370503e+01	1.013128e+03
2.160000e-06	4.821087e-06	1.533857e-08	3.282346e+01	1.005418e+03
2.170000e-06	4.689903e-06	1.520488e-08	3.193032e+01	9.971776e+02
2.180000e-06	4.557006e-06	1.508104e-08	3.102552e+01	9.882265e+02
2.190000e-06	4.422518e-06	1.492410e-08	3.010988e+01	9.785579e+02
2.200000e-06	4.286436e-06	1.477558e-08	2.918340e+01	9.683406e+02
2.210000e-06	4.148727e-06	1.461347e-08	2.824583e+01	9.578432e+02
2.220000e-06	4.009398e-06	1.445957e-08	2.729724e+01	9.473096e+02
2.230000e-06	3.868503e-06	1.430341e-08	2.633797e+01	9.368401e+02
2.240000e-06	3.726223e-06	1.413985e-08	2.536929e+01	9.263339e+02
2.250000e-06	3.582559e-06	1.397167e-08	2.439118e+01	9.155198e+02
2.260000e-06	3.437594e-06	1.378544e-08	2.340421e+01	9.040661e+02
2.270000e-06	3.291516e-06	1.359335e-08	2.240967e+01	8.917230e+02
2.280000e-06	3.144223e-06	1.338442e-08	2.140685e+01	8.784320e+02
2.290000e-06	2.995610e-06	1.318015e-08	2.039505e+01	8.643534e+02
2.300000e-06	2.846020e-06	1.297244e-08	1.937659e+01	8.497913e+02
2.310000e-06	2.695592e-06	1.276834e-08	1.835243e+01	8.350486e+02
2.320000e-06	2.544191e-06	1.254659e-08	1.732164e+01	8.202709e+02
2.330000e-06	2.391819e-06	1.231127e-08	1.628425e+01	8.053544e+02
2.340000e-06	2.238571e-06	1.205377e-08	1.524089e+01	7.899610e+02
2.350000e-06	2.084610e-06	1.178529e-08	1.419267e+01	7.736436e+02
2.360000e-06	1.929918e-06	1.150975e-08	1.313948e+01	7.560293e+02
2.370000e-06	1.774405e-06	1.123147e-08	1.208070e+01	7.369807e+02
2.380000e-06	1.618154e-06	1.094553e-08	1.101690e+01	7.166571e+02
2.390000e-06	1.461277e-06	1.064426e-08	9.948833e+00	6.954384e+02
2.400000e-06	1.303905e-06	1.032487e-08	8.877395e+00	6.737330e+02
2.410000e-06	1.146112e-06	9.982736e-09	7.803086e+00	6.517489e+02
2.420000e-06	9.879529e-07	9.618878e-09	6.726292e+00	6.293291e+02
2.430000e-06	8.295006e-07	9.233031e-09	5.647499e+00	6.059380e+02
2.440000e-06	6.707312e-07	8.831208e-09	4.566548e+00	5.808207e+02
2.450000e-06	5.117126e-07	8.414305e-09	3.483899e+00	5.532851e+02
2.460000e-06	3.524972e-07	7.977286e-09	2.399911e+00	5.229880e+02
2.470000e-06	1.931814e-07	7.511707e-09	1.315240e+00	4.900910e+02
2.480000e-06	3.382564e-08	7.009290e-09	2.302955e-01	4.551868e+02
2.490000e-06	-1.255700e-07	6.466313e-09	-8.549198e-01	4.189829e+02
2.500000e-06	-2.848861e-07	5.883450e-09	-1.939594e+00	3.818333e+02
2.510000e-06	-4.440348e-07	5.258318e-09	-3.023128e+00	3.432906e+02
2.520000e-06	-6.029975e-07	4.584754e-09	-4.105395e+00	3.018720e+02
2.530000e-06	-7.617782e-07	3.849812e-09	-5.186423e+00	2.551824e+02
2.540000e-06	-9.202945e-07	3.031536e-09	-6.265652e+00	2.004252e+02
2.550000e-06	-1.078450e-06	2.098643e-09	-7.342422e+00	1.351896e+02
2.560000e-06	-1.236256e-06	1.010226e-09	-8.416814e+00	5.829407e+01
2.570000e-06	-1.393681e-06	-2.785507e-10	-9.488613e+00	-2.958347e+01
2.580000e-06	-1.550594e-06	-1.774027e-09	-1.055693e+01	-1.257113e+02
2.590000e-06	-1.706862e-06	-3.396063e-09	-1.162085e+01	-2.256448e+02
2.600000e-06	-1.862367e-06	-4.986206e-09	-1.267958e+01	-3.240374e+02
2.610000e-06	-2.017074e-06	-6.402201e-09	-1.373287e+01	-4.157084e+02
2.620000e-06	-2.171079e-06	-7.589708e-09	-1.478138e+01	-4.966692e+02
2.630000e-06	-2.324390e-06	-8.569120e-09	-1.582517e+01	-5.648256e+02
2.640000e-06	-2.476859e-06	-9.384187e-09	-1.686323e+01	-6.201751e+02
2.650000e-06	-2.628384e-06	-1.007371e-08	-1.789486e+01	-6.644755e+02
2.660000e-06	-2.778940e-06	-1.067164e-08	-1.891989e+01	-7.005241e+02
2.670000e-06	-2.928584e-06	-1.119606e-08	-1.993872e+01	-7.312906e+02
2.680000e-06	-3.077185e-06	-1.165608e-08	-2.095044e+01	-7.591712e+02
2.690000e-06	-3.224553e-06	-1.206410e-08	-2.195377e+01	-7.855638e+02
2.700000e-06	-3.370776e-06	-1.242994e-08	-2.294929e+01	-8.108394e+02
2.710000e-06	-3.515863e-06	-1.276086e-08	-2.393710e+01	-8.346458e+02
2.720000e-06	-3.659690e-06	-1.306614e-08	-2.491631e+01	-8.563809e+02
2.730000e-06	-3.802211e-06	-1.334991e-08	-2.588664e+01	-8.756368e+02
2.740000e-06	-3.943305e-06	-1.361497e-08	-2.684725e+01	-8.924589e+02
2.750000e-06	-4.082765e-06	-1.386561e-08	-2.779674e+01	-9.073541e+02
2.760000e-06	-4.220637e-06	-1.410400e-08	-2.873541e+01	-9.210878e+02
2.770000e-06	-4.356997e-06	-1.432809e-08	-2.966380e+01	-9.343854e+02
2.780000e-06	-4.491779e-06	-1.453298e-08	-3.058143e+01	-9.476752e+02
2.790000e-06	-4.624966e-06	-1.471934e-08	-3.148821e+01	-9.609787e+02
2.800000e-06	-4.756478e-06	-1.489537e-08	-3.238358e+01	-9.739781e+02
2.810000e-06	-4.886319e-06	-1.506420e-08	-3.326758e+01	-9.862173e+02
2.820000e-06	-5.014520e-06	-1.522650e-08	-3.414042e+01	-9.973391e+02
2.830000e-06	-5.140964e-06	-1.538517e-08	-3.500129e+01	-1.007255e+03
2.840000e-06	-5.265504e-06	-1.553920e-08	-3.584920e+01	-1.016182e+03
2.850000e-06	-5.388133e-06	-1.568486e-08	-3.668409e+01	-1.024540e+03
2.860000e-06	-5.508866e-06	-1.581728e-08	-3.750608e+01	-1.032767e+03
2.870000e-06	-5.627632e-06	-1.593871e-08	-3.831468e+01	-1.041134e+03
2.880000e-06	-5.744194e-06	-1.605580e-08	-3.910827e+01	-1.049647e+03
2.890000e-06	-5.858338e-06	-1.616933e-08	-3.988539e+01	-1.058067e+03
2.900000e-06	-5.970100e-06	-1.627882e-08	-4.064631e+01	-1.066033e+03
2.910000e-06	-6.079601e-06	-1.638186e-08	-4.139182e+01	-1.073239e+03
2.920000e-06	-6.187061e-06	-1.647988e-08	-4.212345e+01	-1.079575e+03
2.930000e-06	-6.292515e-06	-1.657571e-08	-4.284141e+01	-1.085175e+03
2.940000e-06	-6.395758e-06	-1.666932e-08	-4.354432e+01	-1.090357e+03
