# Temperatura_=_49.51
# Concentracion g/m^3_=_13400.0
# C_Vs_to_Am_M_A/Vsm_=_65563218390.804596
# pendiente_HvsI_1/m_=_3716.3
# ordenada_HvsI_A/m_=_1297.0
# frecuencia_Hz_=_301442.1945001319

Tiempo_(s)	Campo_(V.s)	Magnetizacion_(V.s)	Campo_(kA/m)	Magnetizacion_(A/m)
0.000000e+00	-8.368088e-06	-1.812032e-08	-5.691269e+01	-1.187866e+03
1.000000e-08	-8.365140e-06	-1.811977e-08	-5.689264e+01	-1.187434e+03
2.000000e-08	-8.359409e-06	-1.811108e-08	-5.685366e+01	-1.187243e+03
3.000000e-08	-8.350970e-06	-1.810242e-08	-5.679627e+01	-1.187178e+03
4.000000e-08	-8.339648e-06	-1.809370e-08	-5.671927e+01	-1.187021e+03
5.000000e-08	-8.325350e-06	-1.808145e-08	-5.662203e+01	-1.186545e+03
6.000000e-08	-8.308073e-06	-1.806356e-08	-5.650453e+01	-1.185615e+03
7.000000e-08	-8.288170e-06	-1.803928e-08	-5.636916e+01	-1.184242e+03
8.000000e-08	-8.265795e-06	-1.805391e-08	-5.621698e+01	-1.182580e+03
9.000000e-08	-8.240335e-06	-1.807935e-08	-5.604383e+01	-1.180859e+03
1.000000e-07	-8.211467e-06	-1.804928e-08	-5.584749e+01	-1.179286e+03
1.100000e-07	-8.179403e-06	-1.801175e-08	-5.562942e+01	-1.177962e+03
1.200000e-07	-8.144378e-06	-1.797212e-08	-5.539121e+01	-1.176843e+03
1.300000e-07	-8.106687e-06	-1.791668e-08	-5.513486e+01	-1.175770e+03
1.400000e-07	-8.066577e-06	-1.784627e-08	-5.486207e+01	-1.174542e+03
1.500000e-07	-8.023989e-06	-1.783743e-08	-5.457242e+01	-1.173005e+03
1.600000e-07	-7.978666e-06	-1.786566e-08	-5.426417e+01	-1.171113e+03
1.700000e-07	-7.930435e-06	-1.779817e-08	-5.393615e+01	-1.168940e+03
1.800000e-07	-7.879267e-06	-1.781871e-08	-5.358814e+01	-1.166628e+03
1.900000e-07	-7.825032e-06	-1.779710e-08	-5.321928e+01	-1.164312e+03
2.000000e-07	-7.767859e-06	-1.768972e-08	-5.283044e+01	-1.162048e+03
2.100000e-07	-7.707978e-06	-1.763140e-08	-5.242318e+01	-1.159775e+03
2.200000e-07	-7.645436e-06	-1.756761e-08	-5.199782e+01	-1.157347e+03
2.300000e-07	-7.580133e-06	-1.756761e-08	-5.155369e+01	-1.154593e+03
2.400000e-07	-7.511937e-06	-1.752530e-08	-5.108988e+01	-1.151409e+03
2.500000e-07	-7.440900e-06	-1.748515e-08	-5.060674e+01	-1.147806e+03
2.600000e-07	-7.367014e-06	-1.744102e-08	-5.010423e+01	-1.143917e+03
2.700000e-07	-7.290304e-06	-1.738321e-08	-4.958252e+01	-1.139943e+03
2.800000e-07	-7.210788e-06	-1.732197e-08	-4.904171e+01	-1.136062e+03
2.900000e-07	-7.128537e-06	-1.722301e-08	-4.848231e+01	-1.132348e+03
3.000000e-07	-7.043831e-06	-1.717675e-08	-4.790621e+01	-1.128732e+03
3.100000e-07	-6.956823e-06	-1.712957e-08	-4.731446e+01	-1.125023e+03
3.200000e-07	-6.867390e-06	-1.707905e-08	-4.670621e+01	-1.120991e+03
3.300000e-07	-6.775421e-06	-1.700722e-08	-4.608072e+01	-1.116466e+03
3.400000e-07	-6.681053e-06	-1.691826e-08	-4.543890e+01	-1.111411e+03
3.500000e-07	-6.584265e-06	-1.684824e-08	-4.478063e+01	-1.105943e+03
3.600000e-07	-6.485035e-06	-1.677322e-08	-4.410575e+01	-1.100285e+03
3.700000e-07	-6.383445e-06	-1.669111e-08	-4.341482e+01	-1.094664e+03
3.800000e-07	-6.279501e-06	-1.659278e-08	-4.270789e+01	-1.089213e+03
3.900000e-07	-6.173322e-06	-1.651313e-08	-4.198574e+01	-1.083905e+03
4.000000e-07	-6.065017e-06	-1.643173e-08	-4.124914e+01	-1.078562e+03
4.100000e-07	-5.954552e-06	-1.633763e-08	-4.049785e+01	-1.072927e+03
4.200000e-07	-5.841769e-06	-1.623840e-08	-3.973080e+01	-1.066779e+03
4.300000e-07	-5.726711e-06	-1.614274e-08	-3.894827e+01	-1.060022e+03
4.400000e-07	-5.609454e-06	-1.605530e-08	-3.815079e+01	-1.052736e+03
4.500000e-07	-5.490089e-06	-1.595995e-08	-3.733897e+01	-1.045131e+03
4.600000e-07	-5.368746e-06	-1.584414e-08	-3.651370e+01	-1.037459e+03
4.700000e-07	-5.245515e-06	-1.571085e-08	-3.567558e+01	-1.029890e+03
4.800000e-07	-5.120428e-06	-1.558401e-08	-3.482484e+01	-1.022431e+03
4.900000e-07	-4.993489e-06	-1.546299e-08	-3.396151e+01	-1.014915e+03
5.000000e-07	-4.864684e-06	-1.533733e-08	-3.308549e+01	-1.007067e+03
5.100000e-07	-4.734072e-06	-1.520393e-08	-3.219718e+01	-9.986240e+02
5.200000e-07	-4.601781e-06	-1.507524e-08	-3.129744e+01	-9.894501e+02
5.300000e-07	-4.467824e-06	-1.494789e-08	-3.038638e+01	-9.796006e+02
5.400000e-07	-4.332329e-06	-1.480576e-08	-2.946485e+01	-9.692970e+02
5.500000e-07	-4.195179e-06	-1.464067e-08	-2.853208e+01	-9.588257e+02
5.600000e-07	-4.056396e-06	-1.446968e-08	-2.758819e+01	-9.484019e+02
5.700000e-07	-3.916071e-06	-1.430422e-08	-2.663382e+01	-9.380598e+02
5.800000e-07	-3.774123e-06	-1.413643e-08	-2.566841e+01	-9.276214e+02
5.900000e-07	-3.630653e-06	-1.395678e-08	-2.469265e+01	-9.167615e+02
6.000000e-07	-3.485863e-06	-1.377327e-08	-2.370791e+01	-9.051440e+02
6.100000e-07	-3.339886e-06	-1.359414e-08	-2.271509e+01	-8.925708e+02
6.200000e-07	-3.192724e-06	-1.341258e-08	-2.171423e+01	-8.790738e+02
6.300000e-07	-3.044438e-06	-1.321374e-08	-2.070571e+01	-8.649054e+02
6.400000e-07	-2.895099e-06	-1.299082e-08	-1.969003e+01	-8.504246e+02
6.500000e-07	-2.744779e-06	-1.275969e-08	-1.866768e+01	-8.359243e+02
6.600000e-07	-2.593522e-06	-1.252623e-08	-1.763896e+01	-8.214762e+02
6.700000e-07	-2.441316e-06	-1.228836e-08	-1.660378e+01	-8.068662e+02
6.800000e-07	-2.288182e-06	-1.204110e-08	-1.556229e+01	-7.916565e+02
6.900000e-07	-2.134151e-06	-1.178763e-08	-1.451470e+01	-7.753557e+02
7.000000e-07	-1.979371e-06	-1.152754e-08	-1.346202e+01	-7.576271e+02
7.100000e-07	-1.823977e-06	-1.125432e-08	-1.240516e+01	-7.384407e+02
7.200000e-07	-1.668001e-06	-1.096219e-08	-1.134434e+01	-7.180925e+02
7.300000e-07	-1.511445e-06	-1.065088e-08	-1.027958e+01	-6.970698e+02
7.400000e-07	-1.354327e-06	-1.032849e-08	-9.210990e+00	-6.758084e+02
7.500000e-07	-1.196706e-06	-9.992591e-09	-8.138984e+00	-6.544421e+02
7.600000e-07	-1.038542e-06	-9.637423e-09	-7.063291e+00	-6.326604e+02
7.700000e-07	-8.798942e-07	-9.260347e-09	-5.984300e+00	-6.097532e+02
7.800000e-07	-7.209511e-07	-8.863350e-09	-4.903303e+00	-5.848432e+02
7.900000e-07	-5.618281e-07	-8.445525e-09	-3.821082e+00	-5.572236e+02
8.000000e-07	-4.025252e-07	-8.002070e-09	-2.737638e+00	-5.266567e+02
8.100000e-07	-2.430501e-07	-7.526358e-09	-1.653022e+00	-4.934849e+02
8.200000e-07	-8.350409e-08	-7.017284e-09	-5.679246e-01	-4.584665e+02
8.300000e-07	7.602130e-08	-6.476651e-09	5.170329e-01	-4.223561e+02
8.400000e-07	2.355063e-07	-5.894778e-09	1.601715e+00	-3.853601e+02
8.500000e-07	3.949125e-07	-5.257113e-09	2.685862e+00	-3.466786e+02
8.600000e-07	5.542103e-07	-4.551761e-09	3.769272e+00	-3.043426e+02
8.700000e-07	7.133099e-07	-3.771405e-09	4.851334e+00	-2.554778e+02
8.800000e-07	8.721475e-07	-2.899338e-09	5.931614e+00	-1.969840e+02
8.900000e-07	1.030748e-06	-1.895703e-09	7.010279e+00	-1.264653e+02
9.000000e-07	1.188997e-06	-7.003007e-10	8.086558e+00	-4.313742e+01
9.100000e-07	1.346770e-06	7.295467e-10	9.159599e+00	5.158676e+01
9.200000e-07	1.503993e-06	2.363319e-09	1.022889e+01	1.540520e+02
9.300000e-07	1.660590e-06	4.070360e-09	1.129394e+01	2.589161e+02
9.400000e-07	1.816587e-06	5.670622e-09	1.235490e+01	3.601787e+02
9.500000e-07	1.972025e-06	7.041151e-09	1.341205e+01	4.524056e+02
9.600000e-07	2.126763e-06	8.158272e-09	1.446445e+01	5.318042e+02
9.700000e-07	2.280674e-06	9.062461e-09	1.551123e+01	5.968538e+02
9.800000e-07	2.433721e-06	9.806908e-09	1.655212e+01	6.483340e+02
9.900000e-07	2.585836e-06	1.043402e-08	1.758668e+01	6.887839e+02
1.000000e-06	2.737067e-06	1.097515e-08	1.861523e+01	7.215916e+02
1.010000e-06	2.887343e-06	1.144929e-08	1.963728e+01	7.500141e+02
1.020000e-06	3.036517e-06	1.186999e-08	2.065184e+01	7.764198e+02
1.030000e-06	3.184561e-06	1.225014e-08	2.165871e+01	8.019447e+02
1.040000e-06	3.331511e-06	1.259736e-08	2.265814e+01	8.266020e+02
1.050000e-06	3.477332e-06	1.291525e-08	2.364989e+01	8.497283e+02
1.060000e-06	3.621890e-06	1.320825e-08	2.463305e+01	8.705569e+02
1.070000e-06	3.765137e-06	1.347670e-08	2.560729e+01	8.886923e+02
1.080000e-06	3.906971e-06	1.372379e-08	2.657193e+01	9.043294e+02
1.090000e-06	4.047252e-06	1.395627e-08	2.752601e+01	9.181772e+02
1.100000e-06	4.185977e-06	1.417779e-08	2.846949e+01	9.311630e+02
1.110000e-06	4.323125e-06	1.438816e-08	2.940226e+01	9.440696e+02
1.120000e-06	4.458640e-06	1.458610e-08	3.032392e+01	9.572629e+02
1.130000e-06	4.592607e-06	1.477287e-08	3.123505e+01	9.706163e+02
1.140000e-06	4.724889e-06	1.495021e-08	3.213472e+01	9.836429e+02
1.150000e-06	4.855455e-06	1.511946e-08	3.302272e+01	9.957631e+02
1.160000e-06	4.984361e-06	1.527963e-08	3.389943e+01	1.006584e+03
1.170000e-06	5.111539e-06	1.543114e-08	3.476439e+01	1.016072e+03
1.180000e-06	5.236959e-06	1.557591e-08	3.561739e+01	1.024560e+03
1.190000e-06	5.360497e-06	1.571692e-08	3.645759e+01	1.032586e+03
1.200000e-06	5.482119e-06	1.585535e-08	3.728476e+01	1.040666e+03
1.210000e-06	5.601714e-06	1.598605e-08	3.809815e+01	1.049074e+03
1.220000e-06	5.719135e-06	1.610800e-08	3.889675e+01	1.057752e+03
1.230000e-06	5.834329e-06	1.622535e-08	3.968020e+01	1.066359e+03
1.240000e-06	5.947298e-06	1.633763e-08	4.044852e+01	1.074439e+03
1.250000e-06	6.058181e-06	1.644245e-08	4.120265e+01	1.081635e+03
1.260000e-06	6.166972e-06	1.654130e-08	4.194256e+01	1.087841e+03
1.270000e-06	6.273575e-06	1.663727e-08	4.266758e+01	1.093251e+03
1.280000e-06	6.377958e-06	1.673087e-08	4.337751e+01	1.098264e+03
1.290000e-06	6.480054e-06	1.681873e-08	4.407188e+01	1.103317e+03
1.300000e-06	6.579805e-06	1.689819e-08	4.475030e+01	1.108703e+03
1.310000e-06	6.677072e-06	1.697262e-08	4.541183e+01	1.114454e+03
1.320000e-06	6.771936e-06	1.704809e-08	4.605701e+01	1.120350e+03
1.330000e-06	6.864520e-06	1.712395e-08	4.668669e+01	1.126026e+03
1.340000e-06	6.954690e-06	1.719722e-08	4.729995e+01	1.131136e+03
1.350000e-06	7.042366e-06	1.726782e-08	4.789625e+01	1.135509e+03
1.360000e-06	7.127624e-06	1.733449e-08	4.847610e+01	1.139212e+03
1.370000e-06	7.210420e-06	1.739728e-08	4.903921e+01	1.142514e+03
1.380000e-06	7.290572e-06	1.745413e-08	4.958434e+01	1.145766e+03
1.390000e-06	7.367988e-06	1.750685e-08	5.011086e+01	1.149244e+03
1.400000e-06	7.442649e-06	1.756003e-08	5.061864e+01	1.153037e+03
1.410000e-06	7.514595e-06	1.761463e-08	5.110795e+01	1.157015e+03
1.420000e-06	7.583874e-06	1.766961e-08	5.157913e+01	1.160897e+03
1.430000e-06	7.650424e-06	1.772047e-08	5.203175e+01	1.164377e+03
1.440000e-06	7.714261e-06	1.776497e-08	5.246591e+01	1.167263e+03
1.450000e-06	7.775500e-06	1.780835e-08	5.288241e+01	1.169553e+03
1.460000e-06	7.834005e-06	1.785057e-08	5.328031e+01	1.171434e+03
1.470000e-06	7.889694e-06	1.788700e-08	5.365906e+01	1.173193e+03
1.480000e-06	7.942413e-06	1.791735e-08	5.401761e+01	1.175089e+03
1.490000e-06	7.991845e-06	1.794795e-08	5.435381e+01	1.177243e+03
1.500000e-06	8.038243e-06	1.798162e-08	5.466937e+01	1.179587e+03
1.510000e-06	8.081865e-06	1.801330e-08	5.496605e+01	1.181903e+03
1.520000e-06	8.122581e-06	1.803918e-08	5.524297e+01	1.183919e+03
1.530000e-06	8.160443e-06	1.806043e-08	5.550047e+01	1.185438e+03
1.540000e-06	8.195505e-06	1.808165e-08	5.573893e+01	1.186416e+03
1.550000e-06	8.227661e-06	1.810202e-08	5.595763e+01	1.186986e+03
1.560000e-06	8.256991e-06	1.811868e-08	5.615710e+01	1.187393e+03
1.570000e-06	8.283453e-06	1.813083e-08	5.633708e+01	1.187888e+03
1.580000e-06	8.306901e-06	1.814263e-08	5.649655e+01	1.188617e+03
1.590000e-06	8.327485e-06	1.815668e-08	5.663655e+01	1.189563e+03
1.600000e-06	8.345174e-06	1.816680e-08	5.675686e+01	1.190556e+03
1.610000e-06	8.359754e-06	1.817026e-08	5.685601e+01	1.191355e+03
1.620000e-06	8.371135e-06	1.817271e-08	5.693342e+01	1.191753e+03
1.630000e-06	8.379383e-06	1.817793e-08	5.698951e+01	1.191673e+03
1.640000e-06	8.384689e-06	1.818189e-08	5.702560e+01	1.191199e+03
1.650000e-06	8.387027e-06	1.818198e-08	5.704150e+01	1.190538e+03
1.660000e-06	8.386470e-06	1.817590e-08	5.703771e+01	1.189927e+03
1.670000e-06	8.383222e-06	1.816735e-08	5.701562e+01	1.189530e+03
1.680000e-06	8.377148e-06	1.815982e-08	5.697431e+01	1.189365e+03
1.690000e-06	8.368262e-06	1.814969e-08	5.691388e+01	1.189301e+03
1.700000e-06	8.356463e-06	1.813924e-08	5.683363e+01	1.189110e+03
1.710000e-06	8.341698e-06	1.813070e-08	5.673321e+01	1.188574e+03
1.720000e-06	8.324354e-06	1.812431e-08	5.661525e+01	1.187575e+03
1.730000e-06	8.304567e-06	1.809454e-08	5.648068e+01	1.186147e+03
1.740000e-06	8.281914e-06	1.802358e-08	5.632661e+01	1.184461e+03
1.750000e-06	8.255650e-06	1.800455e-08	5.614798e+01	1.182749e+03
1.760000e-06	8.225462e-06	1.799037e-08	5.594267e+01	1.181208e+03
1.770000e-06	8.192008e-06	1.796930e-08	5.571514e+01	1.179918e+03
1.780000e-06	8.156007e-06	1.798630e-08	5.547030e+01	1.178816e+03
1.790000e-06	8.117637e-06	1.803124e-08	5.520934e+01	1.177732e+03
1.800000e-06	8.077205e-06	1.795511e-08	5.493436e+01	1.176466e+03
1.810000e-06	8.034627e-06	1.791297e-08	5.464478e+01	1.174877e+03
1.820000e-06	7.989127e-06	1.792778e-08	5.433532e+01	1.172937e+03
1.830000e-06	7.940690e-06	1.783283e-08	5.400589e+01	1.170733e+03
1.840000e-06	7.889186e-06	1.787169e-08	5.365560e+01	1.168413e+03
1.850000e-06	7.834404e-06	1.784050e-08	5.328303e+01	1.166103e+03
1.860000e-06	7.776872e-06	1.783607e-08	5.289174e+01	1.163842e+03
1.870000e-06	7.716539e-06	1.781905e-08	5.248141e+01	1.161556e+03
1.880000e-06	7.653411e-06	1.769615e-08	5.205207e+01	1.159090e+03
1.890000e-06	7.587444e-06	1.766832e-08	5.160341e+01	1.156278e+03
1.900000e-06	7.518563e-06	1.755760e-08	5.113494e+01	1.153029e+03
1.910000e-06	7.446889e-06	1.753257e-08	5.064748e+01	1.149373e+03
1.920000e-06	7.372297e-06	1.750237e-08	5.014016e+01	1.145459e+03
1.930000e-06	7.294972e-06	1.747231e-08	4.961426e+01	1.141488e+03
1.940000e-06	7.215032e-06	1.745785e-08	4.907058e+01	1.137628e+03
1.950000e-06	7.132570e-06	1.733962e-08	4.850974e+01	1.133935e+03
1.960000e-06	7.047550e-06	1.728268e-08	4.793151e+01	1.130317e+03
1.970000e-06	6.959820e-06	1.715777e-08	4.733484e+01	1.126575e+03
1.980000e-06	6.869587e-06	1.710068e-08	4.672115e+01	1.122480e+03
1.990000e-06	6.776884e-06	1.705467e-08	4.609067e+01	1.117876e+03
2.000000e-06	6.681821e-06	1.700195e-08	4.544412e+01	1.112751e+03
2.010000e-06	6.584534e-06	1.694822e-08	4.478246e+01	1.107240e+03
2.020000e-06	6.484860e-06	1.684640e-08	4.410456e+01	1.101573e+03
2.030000e-06	6.382773e-06	1.677055e-08	4.341026e+01	1.095970e+03
2.040000e-06	6.278460e-06	1.665391e-08	4.270080e+01	1.090544e+03
2.050000e-06	6.171914e-06	1.657177e-08	4.197616e+01	1.085244e+03
2.060000e-06	6.063121e-06	1.647107e-08	4.123625e+01	1.079874e+03
2.070000e-06	5.952161e-06	1.638822e-08	4.048159e+01	1.074177e+03
2.080000e-06	5.838917e-06	1.629693e-08	3.971140e+01	1.067942e+03
2.090000e-06	5.723312e-06	1.620201e-08	3.892515e+01	1.061100e+03
2.100000e-06	5.605479e-06	1.609460e-08	3.812376e+01	1.053752e+03
2.110000e-06	5.485580e-06	1.597484e-08	3.730830e+01	1.046122e+03
2.120000e-06	5.363690e-06	1.586112e-08	3.647931e+01	1.038456e+03
2.130000e-06	5.239917e-06	1.573964e-08	3.563750e+01	1.030905e+03
2.140000e-06	5.114292e-06	1.562275e-08	3.478311e+01	1.023451e+03
2.150000e-06	4.986821e-06	1.549594e-08	3.391616e+01	1.015905e+03
2.160000e-06	4.857579e-06	1.537523e-08	3.303716e+01	1.007985e+03
2.170000e-06	4.726585e-06	1.524099e-08	3.214625e+01	9.994404e+02
2.180000e-06	4.593854e-06	1.510472e-08	3.124353e+01	9.901610e+02
2.190000e-06	4.459536e-06	1.495659e-08	3.033001e+01	9.802291e+02
2.200000e-06	4.323724e-06	1.481114e-08	2.940634e+01	9.698831e+02
2.210000e-06	4.186240e-06	1.465669e-08	2.847128e+01	9.594076e+02
2.220000e-06	4.047037e-06	1.449922e-08	2.752454e+01	9.489973e+02
2.230000e-06	3.906273e-06	1.433260e-08	2.656718e+01	9.386558e+02
2.240000e-06	3.764133e-06	1.416226e-08	2.560046e+01	9.281780e+02
2.250000e-06	3.620702e-06	1.398704e-08	2.462497e+01	9.172275e+02
2.260000e-06	3.475906e-06	1.380402e-08	2.364019e+01	9.054798e+02
2.270000e-06	3.329817e-06	1.361191e-08	2.264662e+01	8.927658e+02
2.280000e-06	3.182589e-06	1.341067e-08	2.164529e+01	8.791521e+02
2.290000e-06	3.034166e-06	1.320785e-08	2.063584e+01	8.649156e+02
2.300000e-06	2.884624e-06	1.299872e-08	1.961878e+01	8.504168e+02
2.310000e-06	2.734174e-06	1.278438e-08	1.859555e+01	8.359249e+02
2.320000e-06	2.582823e-06	1.255925e-08	1.756619e+01	8.214723e+02
2.330000e-06	2.430547e-06	1.232479e-08	1.653054e+01	8.068058e+02
2.340000e-06	2.277328e-06	1.207259e-08	1.548847e+01	7.914677e+02
2.350000e-06	2.123230e-06	1.180641e-08	1.444042e+01	7.749765e+02
2.360000e-06	1.968402e-06	1.153081e-08	1.338741e+01	7.570323e+02
2.370000e-06	1.812897e-06	1.125154e-08	1.232980e+01	7.376541e+02
2.380000e-06	1.656675e-06	1.096459e-08	1.126731e+01	7.171769e+02
2.390000e-06	1.499797e-06	1.066417e-08	1.020036e+01	6.960969e+02
2.400000e-06	1.342404e-06	1.034603e-08	9.129899e+00	6.748208e+02
2.410000e-06	1.184540e-06	1.000678e-08	8.056247e+00	6.534237e+02
2.420000e-06	1.026250e-06	9.645526e-09	6.979686e+00	6.315309e+02
2.430000e-06	8.676122e-07	9.260949e-09	5.900768e+00	6.083900e+02
2.440000e-06	7.086792e-07	8.858395e-09	4.819840e+00	5.831268e+02
2.450000e-06	5.495287e-07	8.441569e-09	3.737432e+00	5.550861e+02
2.460000e-06	3.902076e-07	8.005461e-09	2.653864e+00	5.241122e+02
2.470000e-06	2.307595e-07	7.538289e-09	1.569432e+00	4.906236e+02
2.480000e-06	7.128055e-08	7.029843e-09	4.847903e-01	4.554087e+02
2.490000e-06	-8.819890e-08	6.478282e-09	-5.998547e-01	4.191775e+02
2.500000e-06	-2.476296e-07	5.880139e-09	-1.684168e+00	3.820159e+02
2.510000e-06	-4.069354e-07	5.230896e-09	-2.767633e+00	3.429579e+02
2.520000e-06	-5.661194e-07	4.523733e-09	-3.850268e+00	2.998783e+02
2.530000e-06	-7.251187e-07	3.745279e-09	-4.931647e+00	2.498209e+02
2.540000e-06	-8.837952e-07	2.875132e-09	-6.010832e+00	1.897262e+02
2.550000e-06	-1.042211e-06	1.867809e-09	-7.088242e+00	1.173775e+02
2.560000e-06	-1.200286e-06	6.630918e-10	-8.163336e+00	3.227932e+01
2.570000e-06	-1.357857e-06	-7.798743e-10	-9.234998e+00	-6.382365e+01
2.580000e-06	-1.514897e-06	-2.431506e-09	-1.030306e+01	-1.669879e+02
2.590000e-06	-1.671343e-06	-4.154895e-09	-1.136707e+01	-2.717061e+02
2.600000e-06	-1.827220e-06	-5.762980e-09	-1.242722e+01	-3.719835e+02
2.610000e-06	-1.982474e-06	-7.127374e-09	-1.348312e+01	-4.625623e+02
2.620000e-06	-2.136955e-06	-8.231928e-09	-1.453377e+01	-5.399490e+02
2.630000e-06	-2.290619e-06	-9.125827e-09	-1.557886e+01	-6.029643e+02
2.640000e-06	-2.443423e-06	-9.865977e-09	-1.661811e+01	-6.526837e+02
2.650000e-06	-2.595288e-06	-1.049753e-08	-1.765096e+01	-6.918284e+02
2.660000e-06	-2.746177e-06	-1.104763e-08	-1.867719e+01	-7.238255e+02
2.670000e-06	-2.896056e-06	-1.153346e-08	-1.969654e+01	-7.518432e+02
2.680000e-06	-3.044920e-06	-1.196404e-08	-2.070899e+01	-7.780839e+02
2.690000e-06	-3.192740e-06	-1.234796e-08	-2.171433e+01	-8.035069e+02
2.700000e-06	-3.339430e-06	-1.269040e-08	-2.271200e+01	-8.279958e+02
2.710000e-06	-3.484982e-06	-1.299952e-08	-2.370191e+01	-8.508375e+02
2.720000e-06	-3.629296e-06	-1.328492e-08	-2.468342e+01	-8.712939e+02
2.730000e-06	-3.772202e-06	-1.355052e-08	-2.565534e+01	-8.890474e+02
2.740000e-06	-3.913731e-06	-1.380098e-08	-2.661791e+01	-9.043776e+02
2.750000e-06	-4.053811e-06	-1.403944e-08	-2.757061e+01	-9.180461e+02
2.760000e-06	-4.192281e-06	-1.426961e-08	-2.851237e+01	-9.309814e+02
2.770000e-06	-4.329175e-06	-1.448872e-08	-2.944341e+01	-9.439193e+02
2.780000e-06	-4.464489e-06	-1.468944e-08	-3.036370e+01	-9.571550e+02
2.790000e-06	-4.598219e-06	-1.486834e-08	-3.127322e+01	-9.704981e+02
2.800000e-06	-4.730287e-06	-1.503472e-08	-3.217143e+01	-9.834302e+02
2.810000e-06	-4.860631e-06	-1.519699e-08	-3.305792e+01	-9.953826e+02
2.820000e-06	-4.989304e-06	-1.535443e-08	-3.393305e+01	-1.006007e+03
2.830000e-06	-5.116216e-06	-1.550743e-08	-3.479619e+01	-1.015326e+03
2.840000e-06	-5.241304e-06	-1.565776e-08	-3.564694e+01	-1.023714e+03
2.850000e-06	-5.364519e-06	-1.580467e-08	-3.648494e+01	-1.031721e+03
2.860000e-06	-5.485827e-06	-1.593882e-08	-3.730998e+01	-1.039839e+03
2.870000e-06	-5.605130e-06	-1.605694e-08	-3.812138e+01	-1.048298e+03
2.880000e-06	-5.722251e-06	-1.616817e-08	-3.891794e+01	-1.056993e+03
2.890000e-06	-5.837123e-06	-1.627863e-08	-3.969920e+01	-1.065554e+03
2.900000e-06	-5.949624e-06	-1.638750e-08	-4.046434e+01	-1.073526e+03
2.910000e-06	-6.059776e-06	-1.649022e-08	-4.121350e+01	-1.080581e+03
2.920000e-06	-6.167802e-06	-1.658671e-08	-4.194820e+01	-1.086656e+03
2.930000e-06	-6.273820e-06	-1.668113e-08	-4.266924e+01	-1.091983e+03
2.940000e-06	-6.377642e-06	-1.677530e-08	-4.337535e+01	-1.096978e+03
