# Temperatura_=_36.59
# Concentracion g/m^3_=_13400.0
# C_Vs_to_Am_M_A/Vsm_=_65563218390.804596
# pendiente_HvsI_1/m_=_3716.3
# ordenada_HvsI_A/m_=_1297.0
# frecuencia_Hz_=_301436.0694727198

Tiempo_(s)	Campo_(V.s)	Magnetizacion_(V.s)	Campo_(kA/m)	Magnetizacion_(A/m)
0.000000e+00	-8.397969e-06	-1.784380e-08	-5.691332e+01	-1.170155e+03
1.000000e-08	-8.394882e-06	-1.784104e-08	-5.689241e+01	-1.169823e+03
2.000000e-08	-8.389022e-06	-1.783750e-08	-5.685269e+01	-1.169795e+03
3.000000e-08	-8.380492e-06	-1.783297e-08	-5.679488e+01	-1.169910e+03
4.000000e-08	-8.369051e-06	-1.782399e-08	-5.671735e+01	-1.169902e+03
5.000000e-08	-8.354542e-06	-1.781215e-08	-5.661902e+01	-1.169510e+03
6.000000e-08	-8.337076e-06	-1.779740e-08	-5.650065e+01	-1.168593e+03
7.000000e-08	-8.316997e-06	-1.777470e-08	-5.636458e+01	-1.167191e+03
8.000000e-08	-8.294400e-06	-1.779538e-08	-5.621143e+01	-1.165510e+03
9.000000e-08	-8.268753e-06	-1.781749e-08	-5.603763e+01	-1.163832e+03
1.000000e-07	-8.239739e-06	-1.777808e-08	-5.584099e+01	-1.162397e+03
1.100000e-07	-8.207532e-06	-1.774332e-08	-5.562273e+01	-1.161308e+03
1.200000e-07	-8.172300e-06	-1.771019e-08	-5.538396e+01	-1.160487e+03
1.300000e-07	-8.134375e-06	-1.765833e-08	-5.512694e+01	-1.159714e+03
1.400000e-07	-8.094093e-06	-1.758718e-08	-5.485395e+01	-1.158730e+03
1.500000e-07	-8.051306e-06	-1.759692e-08	-5.456398e+01	-1.157342e+03
1.600000e-07	-8.005691e-06	-1.762405e-08	-5.425484e+01	-1.155501e+03
1.700000e-07	-7.957173e-06	-1.754726e-08	-5.392604e+01	-1.153319e+03
1.800000e-07	-7.905652e-06	-1.758228e-08	-5.357688e+01	-1.151000e+03
1.900000e-07	-7.851098e-06	-1.753196e-08	-5.320716e+01	-1.148745e+03
2.000000e-07	-7.793756e-06	-1.742571e-08	-5.281856e+01	-1.146653e+03
2.100000e-07	-7.733629e-06	-1.738272e-08	-5.241107e+01	-1.144669e+03
2.200000e-07	-7.670685e-06	-1.732510e-08	-5.198450e+01	-1.142608e+03
2.300000e-07	-7.605013e-06	-1.735227e-08	-5.153943e+01	-1.140241e+03
2.400000e-07	-7.536558e-06	-1.731071e-08	-5.107551e+01	-1.137393e+03
2.500000e-07	-7.465242e-06	-1.727425e-08	-5.059220e+01	-1.134032e+03
2.600000e-07	-7.391017e-06	-1.721970e-08	-5.008918e+01	-1.130284e+03
2.700000e-07	-7.313873e-06	-1.715755e-08	-4.956637e+01	-1.126381e+03
2.800000e-07	-7.233888e-06	-1.708822e-08	-4.902431e+01	-1.122560e+03
2.900000e-07	-7.151264e-06	-1.699261e-08	-4.846437e+01	-1.118957e+03
3.000000e-07	-7.066212e-06	-1.697340e-08	-4.788796e+01	-1.115542e+03
3.100000e-07	-6.978789e-06	-1.693248e-08	-4.729549e+01	-1.112131e+03
3.200000e-07	-6.888904e-06	-1.689252e-08	-4.668634e+01	-1.108463e+03
3.300000e-07	-6.796519e-06	-1.681850e-08	-4.606024e+01	-1.104315e+03
3.400000e-07	-6.701749e-06	-1.672491e-08	-4.541798e+01	-1.099596e+03
3.500000e-07	-6.604604e-06	-1.665191e-08	-4.475963e+01	-1.094396e+03
3.600000e-07	-6.505054e-06	-1.657545e-08	-4.408498e+01	-1.088939e+03
3.700000e-07	-6.403110e-06	-1.650126e-08	-4.339410e+01	-1.083488e+03
3.800000e-07	-6.298823e-06	-1.641418e-08	-4.268734e+01	-1.078228e+03
3.900000e-07	-6.192260e-06	-1.635277e-08	-4.196516e+01	-1.073174e+03
4.000000e-07	-6.083504e-06	-1.627832e-08	-4.122812e+01	-1.068163e+03
4.100000e-07	-5.972624e-06	-1.618680e-08	-4.047668e+01	-1.062922e+03
4.200000e-07	-5.859452e-06	-1.608369e-08	-3.970971e+01	-1.057179e+03
4.300000e-07	-5.743941e-06	-1.598366e-08	-3.892689e+01	-1.050785e+03
4.400000e-07	-5.626203e-06	-1.589435e-08	-3.812897e+01	-1.043775e+03
4.500000e-07	-5.506379e-06	-1.579854e-08	-3.731692e+01	-1.036355e+03
4.600000e-07	-5.384591e-06	-1.568872e-08	-3.649156e+01	-1.028804e+03
4.700000e-07	-5.260919e-06	-1.556934e-08	-3.565343e+01	-1.021349e+03
4.800000e-07	-5.135342e-06	-1.545667e-08	-3.480239e+01	-1.014060e+03
4.900000e-07	-5.007871e-06	-1.534204e-08	-3.393851e+01	-1.006810e+03
5.000000e-07	-4.878635e-06	-1.521468e-08	-3.306268e+01	-9.993264e+02
5.100000e-07	-4.747600e-06	-1.507673e-08	-3.217465e+01	-9.913105e+02
5.200000e-07	-4.614819e-06	-1.495124e-08	-3.127479e+01	-9.825653e+02
5.300000e-07	-4.480387e-06	-1.482962e-08	-3.036374e+01	-9.730848e+02
5.400000e-07	-4.344328e-06	-1.469253e-08	-2.944166e+01	-9.630552e+02
5.500000e-07	-4.206653e-06	-1.453069e-08	-2.850863e+01	-9.527691e+02
5.600000e-07	-4.067309e-06	-1.436613e-08	-2.756429e+01	-9.424865e+02
5.700000e-07	-3.926378e-06	-1.420821e-08	-2.660920e+01	-9.323076e+02
5.800000e-07	-3.783858e-06	-1.404674e-08	-2.564334e+01	-9.221126e+02
5.900000e-07	-3.639810e-06	-1.387242e-08	-2.466712e+01	-9.116016e+02
6.000000e-07	-3.494489e-06	-1.369310e-08	-2.368228e+01	-9.004184e+02
6.100000e-07	-3.348016e-06	-1.351938e-08	-2.268962e+01	-8.883057e+02
6.200000e-07	-3.200352e-06	-1.333909e-08	-2.168889e+01	-8.752206e+02
6.300000e-07	-3.051522e-06	-1.313774e-08	-2.068027e+01	-8.613563e+02
6.400000e-07	-2.901682e-06	-1.291456e-08	-1.966480e+01	-8.470539e+02
6.500000e-07	-2.750864e-06	-1.269088e-08	-1.864270e+01	-8.326394e+02
6.600000e-07	-2.599015e-06	-1.246951e-08	-1.761361e+01	-8.182567e+02
6.700000e-07	-2.446218e-06	-1.224123e-08	-1.657810e+01	-8.037740e+02
6.800000e-07	-2.292561e-06	-1.199907e-08	-1.553676e+01	-7.888117e+02
6.900000e-07	-2.138035e-06	-1.174933e-08	-1.448953e+01	-7.728868e+02
7.000000e-07	-1.982699e-06	-1.149235e-08	-1.343682e+01	-7.556150e+02
7.100000e-07	-1.826705e-06	-1.122018e-08	-1.237964e+01	-7.368806e+02
7.200000e-07	-1.670153e-06	-1.092817e-08	-1.131868e+01	-7.168908e+02
7.300000e-07	-1.513037e-06	-1.062001e-08	-1.025390e+01	-6.960799e+02
7.400000e-07	-1.355380e-06	-1.030526e-08	-9.185454e+00	-6.748906e+02
7.500000e-07	-1.197233e-06	-9.978028e-09	-8.113690e+00	-6.535251e+02
7.600000e-07	-1.038623e-06	-9.629938e-09	-7.038782e+00	-6.317771e+02
7.700000e-07	-8.795468e-07	-9.257277e-09	-5.960719e+00	-6.090326e+02
7.800000e-07	-7.201114e-07	-8.863792e-09	-4.880220e+00	-5.844602e+02
7.900000e-07	-5.604113e-07	-8.449369e-09	-3.797927e+00	-5.573257e+02
8.000000e-07	-4.004668e-07	-8.009204e-09	-2.713977e+00	-5.272989e+02
8.100000e-07	-2.403301e-07	-7.538030e-09	-1.628725e+00	-4.946061e+02
8.200000e-07	-8.010159e-08	-7.036182e-09	-5.428512e-01	-4.599268e+02
8.300000e-07	8.014103e-08	-6.503896e-09	5.431185e-01	-4.240306e+02
8.400000e-07	2.403395e-07	-5.932096e-09	1.628789e+00	-3.872624e+02
8.500000e-07	4.004066e-07	-5.309734e-09	2.713569e+00	-3.490690e+02
8.600000e-07	5.603160e-07	-4.627247e-09	3.797281e+00	-3.077735e+02
8.700000e-07	7.199525e-07	-3.877618e-09	4.879143e+00	-2.607468e+02
8.800000e-07	8.792313e-07	-3.040731e-09	5.958581e+00	-2.049910e+02
8.900000e-07	1.038211e-06	-2.079535e-09	7.035989e+00	-1.380047e+02
9.000000e-07	1.196844e-06	-9.426249e-10	8.111056e+00	-5.867934e+01
9.100000e-07	1.354987e-06	4.116562e-10	9.182791e+00	3.206093e+01
9.200000e-07	1.512600e-06	1.971305e-09	1.025094e+01	1.311077e+02
9.300000e-07	1.669668e-06	3.635043e-09	1.131539e+01	2.335936e+02
9.400000e-07	1.826159e-06	5.234108e-09	1.237594e+01	3.338053e+02
9.500000e-07	1.982078e-06	6.631163e-09	1.343261e+01	4.263395e+02
9.600000e-07	2.137326e-06	7.781678e-09	1.448473e+01	5.071785e+02
9.700000e-07	2.291758e-06	8.718245e-09	1.553132e+01	5.743867e+02
9.800000e-07	2.445373e-06	9.492395e-09	1.657237e+01	6.282519e+02
9.900000e-07	2.598207e-06	1.014591e-08	1.760814e+01	6.708675e+02
1.000000e-06	2.750074e-06	1.070828e-08	1.863734e+01	7.053221e+02
1.010000e-06	2.900789e-06	1.119736e-08	1.965875e+01	7.347684e+02
1.020000e-06	3.050415e-06	1.163007e-08	2.067277e+01	7.616536e+02
1.030000e-06	3.198982e-06	1.201917e-08	2.167961e+01	7.873153e+02
1.040000e-06	3.346408e-06	1.237251e-08	2.267872e+01	8.120035e+02
1.050000e-06	3.492664e-06	1.269339e-08	2.366990e+01	8.352445e+02
1.060000e-06	3.637750e-06	1.298693e-08	2.465316e+01	8.563613e+02
1.070000e-06	3.781500e-06	1.325808e-08	2.562735e+01	8.749373e+02
1.080000e-06	3.923752e-06	1.351120e-08	2.659140e+01	8.910647e+02
1.090000e-06	4.064505e-06	1.374999e-08	2.754529e+01	9.053224e+02
1.100000e-06	4.203780e-06	1.397409e-08	2.848916e+01	9.185361e+02
1.110000e-06	4.341553e-06	1.418256e-08	2.942285e+01	9.314529e+02
1.120000e-06	4.477611e-06	1.438046e-08	3.034493e+01	9.444787e+02
1.130000e-06	4.611938e-06	1.456933e-08	3.125526e+01	9.575808e+02
1.140000e-06	4.744668e-06	1.474416e-08	3.215478e+01	9.703812e+02
1.150000e-06	4.875747e-06	1.490816e-08	3.304311e+01	9.823827e+02
1.160000e-06	5.005112e-06	1.506632e-08	3.391982e+01	9.932199e+02
1.170000e-06	5.132671e-06	1.522023e-08	3.478429e+01	1.002827e+03
1.180000e-06	5.258380e-06	1.536787e-08	3.563622e+01	1.011460e+03
1.190000e-06	5.382280e-06	1.550804e-08	3.647590e+01	1.019572e+03
1.200000e-06	5.504301e-06	1.564199e-08	3.730283e+01	1.027614e+03
1.210000e-06	5.624249e-06	1.577091e-08	3.811573e+01	1.035844e+03
1.220000e-06	5.742072e-06	1.589431e-08	3.891422e+01	1.044237e+03
1.230000e-06	5.857753e-06	1.600968e-08	3.969820e+01	1.052520e+03
1.240000e-06	5.971158e-06	1.611772e-08	4.046674e+01	1.060317e+03
1.250000e-06	6.082333e-06	1.622161e-08	4.122018e+01	1.067326e+03
1.260000e-06	6.191415e-06	1.632101e-08	4.195943e+01	1.073464e+03
1.270000e-06	6.298353e-06	1.641282e-08	4.268415e+01	1.078895e+03
1.280000e-06	6.402973e-06	1.650002e-08	4.339317e+01	1.083963e+03
1.290000e-06	6.505239e-06	1.658609e-08	4.408623e+01	1.089033e+03
1.300000e-06	6.605182e-06	1.666810e-08	4.476354e+01	1.094345e+03
1.310000e-06	6.702694e-06	1.674375e-08	4.542439e+01	1.099909e+03
1.320000e-06	6.797796e-06	1.681633e-08	4.606890e+01	1.105524e+03
1.330000e-06	6.890563e-06	1.689031e-08	4.669758e+01	1.110874e+03
1.340000e-06	6.980934e-06	1.696283e-08	4.731003e+01	1.115677e+03
1.350000e-06	7.068836e-06	1.702766e-08	4.790575e+01	1.119811e+03
1.360000e-06	7.154300e-06	1.708533e-08	4.848494e+01	1.123371e+03
1.370000e-06	7.237312e-06	1.714201e-08	4.904751e+01	1.126616e+03
1.380000e-06	7.317731e-06	1.720149e-08	4.959251e+01	1.129856e+03
1.390000e-06	7.395454e-06	1.726320e-08	5.011925e+01	1.133315e+03
1.400000e-06	7.470357e-06	1.732109e-08	5.062687e+01	1.137031e+03
1.410000e-06	7.542458e-06	1.737135e-08	5.111550e+01	1.140849e+03
1.420000e-06	7.611934e-06	1.741743e-08	5.158634e+01	1.144490e+03
1.430000e-06	7.678706e-06	1.746307e-08	5.203886e+01	1.147685e+03
1.440000e-06	7.742725e-06	1.750516e-08	5.247271e+01	1.150290e+03
1.450000e-06	7.804101e-06	1.754141e-08	5.288866e+01	1.152353e+03
1.460000e-06	7.862786e-06	1.757676e-08	5.328637e+01	1.154095e+03
1.470000e-06	7.918626e-06	1.761579e-08	5.366480e+01	1.155803e+03
1.480000e-06	7.971438e-06	1.765585e-08	5.402271e+01	1.157710e+03
1.490000e-06	8.021055e-06	1.769102e-08	5.435897e+01	1.159891e+03
1.500000e-06	8.067659e-06	1.772125e-08	5.467481e+01	1.162228e+03
1.510000e-06	8.111430e-06	1.774747e-08	5.497144e+01	1.164468e+03
1.520000e-06	8.152279e-06	1.777019e-08	5.524827e+01	1.166332e+03
1.530000e-06	8.190324e-06	1.778919e-08	5.550611e+01	1.167644e+03
1.540000e-06	8.225486e-06	1.780589e-08	5.574440e+01	1.168404e+03
1.550000e-06	8.257671e-06	1.782252e-08	5.596252e+01	1.168795e+03
1.560000e-06	8.287057e-06	1.783805e-08	5.616167e+01	1.169101e+03
1.570000e-06	8.313522e-06	1.785204e-08	5.634103e+01	1.169585e+03
1.580000e-06	8.336970e-06	1.786561e-08	5.649993e+01	1.170377e+03
1.590000e-06	8.357604e-06	1.787767e-08	5.663977e+01	1.171420e+03
1.600000e-06	8.375347e-06	1.788698e-08	5.676001e+01	1.172498e+03
1.610000e-06	8.389961e-06	1.789388e-08	5.685905e+01	1.173332e+03
1.620000e-06	8.401308e-06	1.789881e-08	5.693596e+01	1.173702e+03
1.630000e-06	8.409447e-06	1.790248e-08	5.699111e+01	1.173546e+03
1.640000e-06	8.414646e-06	1.790376e-08	5.702635e+01	1.172986e+03
1.650000e-06	8.416882e-06	1.790151e-08	5.704150e+01	1.172274e+03
1.660000e-06	8.416211e-06	1.789456e-08	5.703695e+01	1.171682e+03
1.670000e-06	8.412803e-06	1.788994e-08	5.701386e+01	1.171385e+03
1.680000e-06	8.406608e-06	1.788803e-08	5.697187e+01	1.171381e+03
1.690000e-06	8.397599e-06	1.788185e-08	5.691082e+01	1.171496e+03
1.700000e-06	8.385671e-06	1.787213e-08	5.682998e+01	1.171457e+03
1.710000e-06	8.370862e-06	1.786555e-08	5.672962e+01	1.171012e+03
1.720000e-06	8.353450e-06	1.786363e-08	5.661162e+01	1.170037e+03
1.730000e-06	8.333501e-06	1.783007e-08	5.647642e+01	1.168592e+03
1.740000e-06	8.310652e-06	1.775100e-08	5.632158e+01	1.166897e+03
1.750000e-06	8.284164e-06	1.773991e-08	5.614206e+01	1.165234e+03
1.760000e-06	8.253732e-06	1.773468e-08	5.593583e+01	1.163834e+03
1.770000e-06	8.220083e-06	1.771962e-08	5.570778e+01	1.162780e+03
1.780000e-06	8.183939e-06	1.774069e-08	5.546283e+01	1.161975e+03
1.790000e-06	8.145415e-06	1.778755e-08	5.520176e+01	1.161191e+03
1.800000e-06	8.104826e-06	1.769364e-08	5.492669e+01	1.160170e+03
1.810000e-06	8.062073e-06	1.766375e-08	5.463694e+01	1.158731e+03
1.820000e-06	8.016398e-06	1.767770e-08	5.432741e+01	1.156846e+03
1.830000e-06	7.967771e-06	1.757544e-08	5.399786e+01	1.154637e+03
1.840000e-06	7.915981e-06	1.763639e-08	5.364688e+01	1.152316e+03
1.850000e-06	7.860942e-06	1.758876e-08	5.327388e+01	1.150076e+03
1.860000e-06	7.803148e-06	1.760394e-08	5.288221e+01	1.148000e+03
1.870000e-06	7.742524e-06	1.758857e-08	5.247135e+01	1.146017e+03
1.880000e-06	7.679159e-06	1.745849e-08	5.204193e+01	1.143934e+03
1.890000e-06	7.613002e-06	1.743799e-08	5.159357e+01	1.141520e+03
1.900000e-06	7.543888e-06	1.733134e-08	5.112519e+01	1.138616e+03
1.910000e-06	7.471861e-06	1.733636e-08	5.063706e+01	1.135204e+03
1.920000e-06	7.396886e-06	1.729939e-08	5.012895e+01	1.131426e+03
1.930000e-06	7.319113e-06	1.727422e-08	4.960188e+01	1.127521e+03
1.940000e-06	7.238680e-06	1.725643e-08	4.905678e+01	1.123718e+03
1.950000e-06	7.155781e-06	1.712422e-08	4.849498e+01	1.120139e+03
1.960000e-06	7.070287e-06	1.707978e-08	4.791558e+01	1.116734e+03
1.970000e-06	6.982132e-06	1.695036e-08	4.731815e+01	1.113308e+03
1.980000e-06	6.891585e-06	1.691018e-08	4.670451e+01	1.109597e+03
1.990000e-06	6.798599e-06	1.687276e-08	4.607434e+01	1.105388e+03
2.000000e-06	6.703230e-06	1.683291e-08	4.542802e+01	1.100610e+03
2.010000e-06	6.605523e-06	1.678383e-08	4.476585e+01	1.095368e+03
2.020000e-06	6.505473e-06	1.667439e-08	4.408782e+01	1.089899e+03
2.030000e-06	6.403047e-06	1.659942e-08	4.339367e+01	1.084462e+03
2.040000e-06	6.298241e-06	1.647641e-08	4.268339e+01	1.079226e+03
2.050000e-06	6.191228e-06	1.640206e-08	4.195816e+01	1.074186e+03
2.060000e-06	6.082046e-06	1.630558e-08	4.121823e+01	1.069164e+03
2.070000e-06	5.970664e-06	1.623644e-08	4.046340e+01	1.063880e+03
2.080000e-06	5.857010e-06	1.615708e-08	3.969316e+01	1.058070e+03
2.090000e-06	5.741063e-06	1.607018e-08	3.890738e+01	1.051604e+03
2.100000e-06	5.622853e-06	1.596912e-08	3.810627e+01	1.044538e+03
2.110000e-06	5.502518e-06	1.584819e-08	3.729075e+01	1.037089e+03
2.120000e-06	5.380178e-06	1.572989e-08	3.646165e+01	1.029539e+03
2.130000e-06	5.255942e-06	1.560538e-08	3.561970e+01	1.022101e+03
2.140000e-06	5.129838e-06	1.549436e-08	3.476509e+01	1.014825e+03
2.150000e-06	5.001939e-06	1.537742e-08	3.389831e+01	1.007563e+03
2.160000e-06	4.872255e-06	1.526835e-08	3.301944e+01	1.000036e+03
2.170000e-06	4.740747e-06	1.514230e-08	3.212821e+01	9.919474e+02
2.180000e-06	4.607534e-06	1.500902e-08	3.122541e+01	9.831192e+02
2.190000e-06	4.472722e-06	1.485899e-08	3.031179e+01	9.735673e+02
2.200000e-06	4.336354e-06	1.471344e-08	2.938762e+01	9.634948e+02
2.210000e-06	4.198272e-06	1.456412e-08	2.845184e+01	9.531976e+02
2.220000e-06	4.058544e-06	1.441617e-08	2.750489e+01	9.429243e+02
2.230000e-06	3.917278e-06	1.425598e-08	2.654753e+01	9.327524e+02
2.240000e-06	3.774587e-06	1.408970e-08	2.558050e+01	9.225394e+02
2.250000e-06	3.630618e-06	1.391830e-08	2.460482e+01	9.119721e+02
2.260000e-06	3.485373e-06	1.373891e-08	2.362050e+01	9.006978e+02
2.270000e-06	3.338843e-06	1.355155e-08	2.262745e+01	8.884777e+02
2.280000e-06	3.191088e-06	1.335390e-08	2.162611e+01	8.752954e+02
2.290000e-06	3.042122e-06	1.315715e-08	2.061657e+01	8.613658e+02
2.300000e-06	2.892041e-06	1.295590e-08	1.959946e+01	8.470370e+02
2.310000e-06	2.741080e-06	1.274532e-08	1.857640e+01	8.326227e+02
2.320000e-06	2.589243e-06	1.251769e-08	1.754739e+01	8.182398e+02
2.330000e-06	2.436470e-06	1.228157e-08	1.651204e+01	8.037265e+02
2.340000e-06	2.282742e-06	1.203541e-08	1.547022e+01	7.886833e+02
2.350000e-06	2.128060e-06	1.177829e-08	1.442194e+01	7.726281e+02
2.360000e-06	1.972547e-06	1.150712e-08	1.336802e+01	7.551986e+02
2.370000e-06	1.816400e-06	1.122872e-08	1.230980e+01	7.363135e+02
2.380000e-06	1.659626e-06	1.094403e-08	1.124734e+01	7.162120e+02
2.390000e-06	1.502205e-06	1.064729e-08	1.018050e+01	6.953408e+02
2.400000e-06	1.344235e-06	1.033175e-08	9.109924e+00	6.741284e+02
2.410000e-06	1.185758e-06	9.996832e-09	8.035923e+00	6.527389e+02
2.420000e-06	1.026897e-06	9.642313e-09	6.959319e+00	6.309188e+02
2.430000e-06	8.677536e-07	9.264968e-09	5.880796e+00	6.080185e+02
2.440000e-06	7.082954e-07	8.866962e-09	4.800142e+00	5.832010e+02
2.450000e-06	5.485597e-07	8.451190e-09	3.717608e+00	5.557623e+02
2.460000e-06	3.886329e-07	8.015584e-09	2.633779e+00	5.254284e+02
2.470000e-06	2.285979e-07	7.550242e-09	1.549216e+00	4.924840e+02
2.480000e-06	6.851706e-08	7.047155e-09	4.643425e-01	4.576397e+02
2.490000e-06	-9.157631e-08	6.505507e-09	-6.206158e-01	4.216451e+02
2.500000e-06	-2.516161e-07	5.923121e-09	-1.705211e+00	3.847692e+02
2.510000e-06	-4.115086e-07	5.294409e-09	-2.788808e+00	3.463425e+02
2.520000e-06	-5.712953e-07	4.609097e-09	-3.871688e+00	3.045706e+02
2.530000e-06	-7.309357e-07	3.855662e-09	-4.953577e+00	2.567503e+02
2.540000e-06	-8.902926e-07	3.015055e-09	-6.033544e+00	1.998926e+02
2.550000e-06	-1.049312e-06	2.046841e-09	-7.111225e+00	1.316045e+02
2.560000e-06	-1.207987e-06	9.017358e-10	-8.186570e+00	5.097180e+01
2.570000e-06	-1.366212e-06	-4.619629e-10	-9.258865e+00	-4.084455e+01
2.580000e-06	-1.523837e-06	-2.033772e-09	-1.032710e+01	-1.405173e+02
2.590000e-06	-1.680842e-06	-3.707482e-09	-1.139112e+01	-2.430381e+02
2.600000e-06	-1.837265e-06	-5.311396e-09	-1.245120e+01	-3.426701e+02
2.610000e-06	-1.993107e-06	-6.705873e-09	-1.350735e+01	-4.341115e+02
2.620000e-06	-2.148147e-06	-7.854929e-09	-1.455807e+01	-5.135433e+02
2.630000e-06	-2.302301e-06	-8.793579e-09	-1.560278e+01	-5.792718e+02
2.640000e-06	-2.455548e-06	-9.572451e-09	-1.664133e+01	-6.318071e+02
2.650000e-06	-2.607864e-06	-1.023262e-08	-1.767358e+01	-6.733926e+02
2.660000e-06	-2.759312e-06	-1.079980e-08	-1.869995e+01	-7.071677e+02
2.670000e-06	-2.909803e-06	-1.129253e-08	-1.971983e+01	-7.362410e+02
2.680000e-06	-3.059275e-06	-1.172667e-08	-2.073281e+01	-7.629528e+02
2.690000e-06	-3.207696e-06	-1.211771e-08	-2.173867e+01	-7.885157e+02
2.700000e-06	-3.354895e-06	-1.247115e-08	-2.273624e+01	-8.130804e+02
2.710000e-06	-3.500842e-06	-1.279041e-08	-2.372533e+01	-8.361258e+02
2.720000e-06	-3.645527e-06	-1.308278e-08	-2.470586e+01	-8.569832e+02
2.730000e-06	-3.788896e-06	-1.335526e-08	-2.567748e+01	-8.752835e+02
2.740000e-06	-3.930950e-06	-1.361251e-08	-2.664018e+01	-8.911768e+02
2.750000e-06	-4.071591e-06	-1.385359e-08	-2.759332e+01	-9.052826e+02
2.760000e-06	-4.210645e-06	-1.407873e-08	-2.853568e+01	-9.184338e+02
2.770000e-06	-4.348031e-06	-1.429148e-08	-2.946675e+01	-9.313513e+02
2.780000e-06	-4.483786e-06	-1.449192e-08	-3.038677e+01	-9.443952e+02
2.790000e-06	-4.617980e-06	-1.467652e-08	-3.129621e+01	-9.574881e+02
2.800000e-06	-4.750603e-06	-1.484689e-08	-3.219500e+01	-9.702272e+02
2.810000e-06	-4.881443e-06	-1.500897e-08	-3.308170e+01	-9.821179e+02
2.820000e-06	-5.010484e-06	-1.516698e-08	-3.395622e+01	-9.928211e+02
2.830000e-06	-5.137801e-06	-1.532199e-08	-3.481906e+01	-1.002308e+03
2.840000e-06	-5.263340e-06	-1.547070e-08	-3.566983e+01	-1.010862e+03
2.850000e-06	-5.386980e-06	-1.561111e-08	-3.650775e+01	-1.018948e+03
2.860000e-06	-5.508649e-06	-1.574109e-08	-3.733230e+01	-1.027003e+03
2.870000e-06	-5.628333e-06	-1.586012e-08	-3.814341e+01	-1.035258e+03
2.880000e-06	-5.745944e-06	-1.597214e-08	-3.894046e+01	-1.043656e+03
2.890000e-06	-5.861223e-06	-1.607998e-08	-3.972171e+01	-1.051906e+03
2.900000e-06	-5.974116e-06	-1.618578e-08	-4.048679e+01	-1.059630e+03
2.910000e-06	-6.084652e-06	-1.628673e-08	-4.123589e+01	-1.066547e+03
2.920000e-06	-6.192932e-06	-1.638329e-08	-4.196971e+01	-1.072598e+03
2.930000e-06	-6.299198e-06	-1.647716e-08	-4.268988e+01	-1.077973e+03
2.940000e-06	-6.403325e-06	-1.656731e-08	-4.339555e+01	-1.083025e+03
