# Temperatura_=_27.54
# Concentracion g/m^3_=_15500.0
# C_Vs_to_Am_M_A/Vsm_=_65563218390.804596
# pendiente_HvsI_1/m_=_3716.3
# ordenada_HvsI_A/m_=_1297.0
# frecuencia_Hz_=_300844.5343031148

Tiempo_(s)	Campo_(V.s)	Magnetizacion_(V.s)	Campo_(kA/m)	Magnetizacion_(A/m)
0.000000e+00	-2.852861e-06	-5.733482e-09	-1.980596e+01	-3.745050e+02
1.000000e-08	-2.852049e-06	-5.731543e-09	-1.980033e+01	-3.744481e+02
2.000000e-08	-2.850209e-06	-5.728219e-09	-1.978755e+01	-3.743172e+02
3.000000e-08	-2.847177e-06	-5.724123e-09	-1.976650e+01	-3.741102e+02
4.000000e-08	-2.843126e-06	-5.719839e-09	-1.973838e+01	-3.738267e+02
5.000000e-08	-2.838268e-06	-5.713629e-09	-1.970465e+01	-3.734680e+02
6.000000e-08	-2.832539e-06	-5.704087e-09	-1.966488e+01	-3.730375e+02
7.000000e-08	-2.825812e-06	-5.687484e-09	-1.961817e+01	-3.725401e+02
8.000000e-08	-2.818034e-06	-5.701711e-09	-1.956417e+01	-3.719821e+02
9.000000e-08	-2.809142e-06	-5.735742e-09	-1.950245e+01	-3.713703e+02
1.000000e-07	-2.798874e-06	-5.728052e-09	-1.943115e+01	-3.707111e+02
1.100000e-07	-2.787356e-06	-5.596845e-09	-1.935119e+01	-3.700102e+02
1.200000e-07	-2.775037e-06	-5.592707e-09	-1.926567e+01	-3.692718e+02
1.300000e-07	-2.761820e-06	-5.698371e-09	-1.917391e+01	-3.684978e+02
1.400000e-07	-2.747566e-06	-5.682722e-09	-1.907495e+01	-3.676881e+02
1.500000e-07	-2.732360e-06	-5.535060e-09	-1.896939e+01	-3.668404e+02
1.600000e-07	-2.715930e-06	-5.622148e-09	-1.885532e+01	-3.659504e+02
1.700000e-07	-2.698188e-06	-5.713450e-09	-1.873214e+01	-3.650124e+02
1.800000e-07	-2.679646e-06	-5.497820e-09	-1.860342e+01	-3.640202e+02
1.900000e-07	-2.660400e-06	-5.527787e-09	-1.846980e+01	-3.629674e+02
2.000000e-07	-2.640238e-06	-5.632744e-09	-1.832983e+01	-3.618483e+02
2.100000e-07	-2.619227e-06	-5.474812e-09	-1.818396e+01	-3.606587e+02
2.200000e-07	-2.597467e-06	-5.439831e-09	-1.803289e+01	-3.593959e+02
2.300000e-07	-2.574783e-06	-5.592953e-09	-1.787541e+01	-3.580592e+02
2.400000e-07	-2.551142e-06	-5.484290e-09	-1.771128e+01	-3.566498e+02
2.500000e-07	-2.526738e-06	-5.373860e-09	-1.754186e+01	-3.551704e+02
2.600000e-07	-2.501490e-06	-5.430238e-09	-1.736657e+01	-3.536248e+02
2.700000e-07	-2.475171e-06	-5.416533e-09	-1.718385e+01	-3.520176e+02
2.800000e-07	-2.447736e-06	-5.340932e-09	-1.699339e+01	-3.503532e+02
2.900000e-07	-2.419348e-06	-5.348112e-09	-1.679630e+01	-3.486353e+02
3.000000e-07	-2.390152e-06	-5.312356e-09	-1.659361e+01	-3.468670e+02
3.100000e-07	-2.360250e-06	-5.294452e-09	-1.638602e+01	-3.450497e+02
3.200000e-07	-2.329624e-06	-5.307682e-09	-1.617340e+01	-3.431836e+02
3.300000e-07	-2.298158e-06	-5.204680e-09	-1.595494e+01	-3.412677e+02
3.400000e-07	-2.265983e-06	-5.192012e-09	-1.573157e+01	-3.393000e+02
3.500000e-07	-2.233234e-06	-5.177419e-09	-1.550421e+01	-3.372778e+02
3.600000e-07	-2.199661e-06	-5.123735e-09	-1.527113e+01	-3.351984e+02
3.700000e-07	-2.164952e-06	-5.121136e-09	-1.503016e+01	-3.330595e+02
3.800000e-07	-2.129217e-06	-5.086342e-09	-1.478207e+01	-3.308592e+02
3.900000e-07	-2.092821e-06	-5.004220e-09	-1.452939e+01	-3.285969e+02
4.000000e-07	-2.055770e-06	-5.009102e-09	-1.427217e+01	-3.262725e+02
4.100000e-07	-2.017939e-06	-4.992731e-09	-1.400952e+01	-3.238873e+02
4.200000e-07	-1.979417e-06	-4.905589e-09	-1.374208e+01	-3.214428e+02
4.300000e-07	-1.940171e-06	-4.879074e-09	-1.346962e+01	-3.189410e+02
4.400000e-07	-1.900265e-06	-4.854238e-09	-1.319257e+01	-3.163837e+02
4.500000e-07	-1.859954e-06	-4.816429e-09	-1.291271e+01	-3.137720e+02
4.600000e-07	-1.819241e-06	-4.764211e-09	-1.263007e+01	-3.111062e+02
4.700000e-07	-1.777843e-06	-4.716379e-09	-1.234266e+01	-3.083853e+02
4.800000e-07	-1.735429e-06	-4.667077e-09	-1.204820e+01	-3.056073e+02
4.900000e-07	-1.692026e-06	-4.635822e-09	-1.174688e+01	-3.027689e+02
5.000000e-07	-1.647937e-06	-4.594365e-09	-1.144079e+01	-2.998660e+02
5.100000e-07	-1.603411e-06	-4.536277e-09	-1.113167e+01	-2.968938e+02
5.200000e-07	-1.558458e-06	-4.490691e-09	-1.081958e+01	-2.938478e+02
5.300000e-07	-1.512989e-06	-4.446599e-09	-1.050391e+01	-2.907236e+02
5.400000e-07	-1.466961e-06	-4.403233e-09	-1.018436e+01	-2.875177e+02
5.500000e-07	-1.420375e-06	-4.342146e-09	-9.860941e+00	-2.842278e+02
5.600000e-07	-1.373265e-06	-4.287516e-09	-9.533876e+00	-2.808526e+02
5.700000e-07	-1.325632e-06	-4.231079e-09	-9.203187e+00	-2.773920e+02
5.800000e-07	-1.277604e-06	-4.188778e-09	-8.869755e+00	-2.738472e+02
5.900000e-07	-1.229267e-06	-4.133941e-09	-8.534171e+00	-2.702196e+02
6.000000e-07	-1.180557e-06	-4.066676e-09	-8.196005e+00	-2.665111e+02
6.100000e-07	-1.131350e-06	-4.010279e-09	-7.854385e+00	-2.627233e+02
6.200000e-07	-1.081499e-06	-3.956168e-09	-7.508299e+00	-2.588572e+02
6.300000e-07	-1.030990e-06	-3.898241e-09	-7.157638e+00	-2.549129e+02
6.400000e-07	-9.798597e-07	-3.823924e-09	-6.802667e+00	-2.508895e+02
6.500000e-07	-9.282359e-07	-3.758329e-09	-6.444269e+00	-2.467847e+02
6.600000e-07	-8.762478e-07	-3.697713e-09	-6.083342e+00	-2.425957e+02
6.700000e-07	-8.239660e-07	-3.638009e-09	-5.720377e+00	-2.383188e+02
6.800000e-07	-7.714387e-07	-3.566763e-09	-5.355706e+00	-2.339501e+02
6.900000e-07	-7.186451e-07	-3.494696e-09	-4.989187e+00	-2.294858e+02
7.000000e-07	-6.655938e-07	-3.429198e-09	-4.620879e+00	-2.249225e+02
7.100000e-07	-6.122600e-07	-3.362705e-09	-4.250609e+00	-2.202576e+02
7.200000e-07	-5.587203e-07	-3.289081e-09	-3.878911e+00	-2.154893e+02
7.300000e-07	-5.049848e-07	-3.205631e-09	-3.505852e+00	-2.106161e+02
7.400000e-07	-4.510402e-07	-3.127834e-09	-3.131342e+00	-2.056373e+02
7.500000e-07	-3.969600e-07	-3.050309e-09	-2.755891e+00	-2.005519e+02
7.600000e-07	-3.427553e-07	-2.973122e-09	-2.379576e+00	-1.953583e+02
7.700000e-07	-2.884714e-07	-2.889443e-09	-2.002710e+00	-1.900539e+02
7.800000e-07	-2.341071e-07	-2.806746e-09	-1.625287e+00	-1.846345e+02
7.900000e-07	-1.796758e-07	-2.726607e-09	-1.247398e+00	-1.790941e+02
8.000000e-07	-1.252066e-07	-2.639461e-09	-8.692458e-01	-1.734248e+02
8.100000e-07	-7.068798e-08	-2.543349e-09	-4.907506e-01	-1.676167e+02
8.200000e-07	-1.617775e-08	-2.443896e-09	-1.123139e-01	-1.616587e+02
8.300000e-07	3.830468e-08	-2.351167e-09	2.659299e-01	-1.555389e+02
8.400000e-07	9.278563e-08	-2.257360e-09	6.441633e-01	-1.492452e+02
8.500000e-07	1.472722e-07	-2.159300e-09	1.022436e+00	-1.427659e+02
8.600000e-07	2.017258e-07	-2.054824e-09	1.400480e+00	-1.360907e+02
8.700000e-07	2.561076e-07	-1.950386e-09	1.778024e+00	-1.292104e+02
8.800000e-07	3.104332e-07	-1.842664e-09	2.155179e+00	-1.221177e+02
8.900000e-07	3.646593e-07	-1.727569e-09	2.531644e+00	-1.148064e+02
9.000000e-07	4.187553e-07	-1.607172e-09	2.907205e+00	-1.072706e+02
9.100000e-07	4.726891e-07	-1.486358e-09	3.281639e+00	-9.950404e+01
9.200000e-07	5.264313e-07	-1.370439e-09	3.654744e+00	-9.149875e+01
9.300000e-07	5.799494e-07	-1.248797e-09	4.026293e+00	-8.324351e+01
9.400000e-07	6.331859e-07	-1.117874e-09	4.395887e+00	-7.472281e+01
9.500000e-07	6.861450e-07	-9.776666e-10	4.763555e+00	-6.591589e+01
9.600000e-07	7.388808e-07	-8.350570e-10	5.129673e+00	-5.679640e+01
9.700000e-07	7.913864e-07	-6.887804e-10	5.494193e+00	-4.733265e+01
9.800000e-07	8.436623e-07	-5.367257e-10	5.857118e+00	-3.748875e+01
9.900000e-07	8.956722e-07	-3.762561e-10	6.218196e+00	-2.722652e+01
1.000000e-06	9.472557e-07	-2.080205e-10	6.576314e+00	-1.650812e+01
1.010000e-06	9.983181e-07	-3.871096e-11	6.930814e+00	-5.299443e+00
1.020000e-06	1.048826e-06	1.353380e-10	7.281466e+00	6.426253e+00
1.030000e-06	1.098617e-06	3.175645e-10	7.627136e+00	1.868449e+01
1.040000e-06	1.147745e-06	5.139142e-10	7.968211e+00	3.147599e+01
1.050000e-06	1.196491e-06	7.193405e-10	8.306629e+00	4.478367e+01
1.060000e-06	1.244960e-06	9.305276e-10	8.643121e+00	5.857054e+01
1.070000e-06	1.293153e-06	1.148187e-09	8.977701e+00	7.277870e+01
1.080000e-06	1.340953e-06	1.372150e-09	9.309556e+00	8.732971e+01
1.090000e-06	1.388271e-06	1.599488e-09	9.638055e+00	1.021264e+02
1.100000e-06	1.435060e-06	1.824391e-09	9.962894e+00	1.170560e+02
1.110000e-06	1.481324e-06	2.048202e-09	1.028408e+01	1.319943e+02
1.120000e-06	1.527075e-06	2.270371e-09	1.060170e+01	1.468112e+02
1.130000e-06	1.572253e-06	2.491543e-09	1.091535e+01	1.613759e+02
1.140000e-06	1.616974e-06	2.708993e-09	1.122583e+01	1.755633e+02
1.150000e-06	1.661363e-06	2.919151e-09	1.153400e+01	1.892594e+02
1.160000e-06	1.705350e-06	3.116014e-09	1.183937e+01	2.023662e+02
1.170000e-06	1.748711e-06	3.302536e-09	1.214041e+01	2.148051e+02
1.180000e-06	1.791178e-06	3.479459e-09	1.243524e+01	2.265202e+02
1.190000e-06	1.832689e-06	3.643179e-09	1.272343e+01	2.374784e+02
1.200000e-06	1.873453e-06	3.794745e-09	1.300643e+01	2.476697e+02
1.210000e-06	1.913663e-06	3.935210e-09	1.328558e+01	2.571049e+02
1.220000e-06	1.953310e-06	4.066272e-09	1.356083e+01	2.658128e+02
1.230000e-06	1.992370e-06	4.185799e-09	1.383201e+01	2.738365e+02
1.240000e-06	2.030745e-06	4.295581e-09	1.409843e+01	2.812289e+02
1.250000e-06	2.068332e-06	4.397672e-09	1.435937e+01	2.880483e+02
1.260000e-06	2.105236e-06	4.496137e-09	1.461558e+01	2.943542e+02
1.270000e-06	2.141660e-06	4.587168e-09	1.486846e+01	3.002040e+02
1.280000e-06	2.177455e-06	4.668225e-09	1.511696e+01	3.056497e+02
1.290000e-06	2.212278e-06	4.741295e-09	1.535872e+01	3.107364e+02
1.300000e-06	2.246028e-06	4.809350e-09	1.559303e+01	3.155012e+02
1.310000e-06	2.278883e-06	4.875652e-09	1.582113e+01	3.199733e+02
1.320000e-06	2.311052e-06	4.937899e-09	1.604446e+01	3.241747e+02
1.330000e-06	2.342499e-06	4.996057e-09	1.626278e+01	3.281217e+02
1.340000e-06	2.373192e-06	5.050748e-09	1.647586e+01	3.318263e+02
1.350000e-06	2.403088e-06	5.100603e-09	1.668342e+01	3.352981e+02
1.360000e-06	2.432167e-06	5.145670e-09	1.688530e+01	3.385460e+02
1.370000e-06	2.460575e-06	5.188627e-09	1.708252e+01	3.415793e+02
1.380000e-06	2.488224e-06	5.229032e-09	1.727447e+01	3.444087e+02
1.390000e-06	2.514737e-06	5.265809e-09	1.745854e+01	3.470466e+02
1.400000e-06	2.540049e-06	5.299428e-09	1.763426e+01	3.495067e+02
1.410000e-06	2.564420e-06	5.332655e-09	1.780346e+01	3.518039e+02
1.420000e-06	2.587908e-06	5.366694e-09	1.796652e+01	3.539533e+02
1.430000e-06	2.610531e-06	5.398285e-09	1.812359e+01	3.559693e+02
1.440000e-06	2.632296e-06	5.425200e-09	1.827469e+01	3.578647e+02
1.450000e-06	2.653243e-06	5.449464e-09	1.842011e+01	3.596500e+02
1.460000e-06	2.673464e-06	5.475416e-09	1.856050e+01	3.613329e+02
1.470000e-06	2.692754e-06	5.500795e-09	1.869442e+01	3.629183e+02
1.480000e-06	2.711049e-06	5.521367e-09	1.882144e+01	3.644085e+02
1.490000e-06	2.728427e-06	5.537096e-09	1.894208e+01	3.658035e+02
1.500000e-06	2.744731e-06	5.554186e-09	1.905527e+01	3.671022e+02
1.510000e-06	2.759908e-06	5.576364e-09	1.916064e+01	3.683026e+02
1.520000e-06	2.774074e-06	5.596409e-09	1.925898e+01	3.694032e+02
1.530000e-06	2.787306e-06	5.609131e-09	1.935084e+01	3.704034e+02
1.540000e-06	2.799566e-06	5.619168e-09	1.943596e+01	3.713040e+02
1.550000e-06	2.810529e-06	5.632133e-09	1.951207e+01	3.721079e+02
1.560000e-06	2.820144e-06	5.645392e-09	1.957882e+01	3.728190e+02
1.570000e-06	2.828756e-06	5.655170e-09	1.963861e+01	3.734432e+02
1.580000e-06	2.836454e-06	5.662556e-09	1.969206e+01	3.739866e+02
1.590000e-06	2.843205e-06	5.671702e-09	1.973892e+01	3.744557e+02
1.600000e-06	2.848976e-06	5.679958e-09	1.977899e+01	3.748564e+02
1.610000e-06	2.853860e-06	5.683082e-09	1.981290e+01	3.751932e+02
1.620000e-06	2.857984e-06	5.684673e-09	1.984153e+01	3.754691e+02
1.630000e-06	2.860994e-06	5.690468e-09	1.986243e+01	3.756851e+02
1.640000e-06	2.862674e-06	5.699516e-09	1.987409e+01	3.758405e+02
1.650000e-06	2.863310e-06	5.703584e-09	1.987850e+01	3.759329e+02
1.660000e-06	2.863072e-06	5.700825e-09	1.987685e+01	3.759589e+02
1.670000e-06	2.861956e-06	5.696152e-09	1.986910e+01	3.759149e+02
1.680000e-06	2.859958e-06	5.694445e-09	1.985523e+01	3.757974e+02
1.690000e-06	2.857105e-06	5.694572e-09	1.983543e+01	3.756041e+02
1.700000e-06	2.853496e-06	5.690621e-09	1.981037e+01	3.753341e+02
1.710000e-06	2.848957e-06	5.684861e-09	1.977886e+01	3.749886e+02
1.720000e-06	2.843229e-06	5.684362e-09	1.973909e+01	3.745706e+02
1.730000e-06	2.836462e-06	5.697186e-09	1.969211e+01	3.740847e+02
1.740000e-06	2.828774e-06	5.649020e-09	1.963874e+01	3.735370e+02
1.750000e-06	2.819814e-06	5.593509e-09	1.957653e+01	3.729343e+02
1.760000e-06	2.809250e-06	5.620005e-09	1.950319e+01	3.722830e+02
1.770000e-06	2.797684e-06	5.724219e-09	1.942289e+01	3.715892e+02
1.780000e-06	2.785928e-06	5.655177e-09	1.934128e+01	3.708573e+02
1.790000e-06	2.773556e-06	5.506620e-09	1.925539e+01	3.700895e+02
1.800000e-06	2.759595e-06	5.612983e-09	1.915846e+01	3.692863e+02
1.810000e-06	2.744343e-06	5.667331e-09	1.905258e+01	3.684456e+02
1.820000e-06	2.728506e-06	5.518053e-09	1.894263e+01	3.675635e+02
1.830000e-06	2.711637e-06	5.514889e-09	1.882551e+01	3.666345e+02
1.840000e-06	2.693427e-06	5.685334e-09	1.869909e+01	3.656524e+02
1.850000e-06	2.674444e-06	5.550175e-09	1.856730e+01	3.646109e+02
1.860000e-06	2.654780e-06	5.416159e-09	1.843079e+01	3.635040e+02
1.870000e-06	2.633963e-06	5.630986e-09	1.828627e+01	3.623272e+02
1.880000e-06	2.612097e-06	5.539103e-09	1.813446e+01	3.610775e+02
1.890000e-06	2.589304e-06	5.330535e-09	1.797622e+01	3.597540e+02
1.900000e-06	2.565393e-06	5.518875e-09	1.781022e+01	3.583573e+02
1.910000e-06	2.540710e-06	5.513430e-09	1.763885e+01	3.568901e+02
1.920000e-06	2.515331e-06	5.349631e-09	1.746266e+01	3.553560e+02
1.930000e-06	2.488956e-06	5.404991e-09	1.727956e+01	3.537595e+02
1.940000e-06	2.461813e-06	5.388368e-09	1.709111e+01	3.521049e+02
1.950000e-06	2.433961e-06	5.323247e-09	1.689775e+01	3.503963e+02
1.960000e-06	2.404980e-06	5.346935e-09	1.669655e+01	3.486368e+02
1.970000e-06	2.374900e-06	5.263357e-09	1.648772e+01	3.468281e+02
1.980000e-06	2.343968e-06	5.230550e-09	1.627298e+01	3.449708e+02
1.990000e-06	2.312301e-06	5.292496e-09	1.605313e+01	3.430639e+02
2.000000e-06	2.279949e-06	5.174980e-09	1.582852e+01	3.411056e+02
2.010000e-06	2.246729e-06	5.150467e-09	1.559790e+01	3.390933e+02
2.020000e-06	2.212689e-06	5.176947e-09	1.536157e+01	3.370243e+02
2.030000e-06	2.178095e-06	5.057446e-09	1.512140e+01	3.348961e+02
2.040000e-06	2.142932e-06	5.071383e-09	1.487729e+01	3.327069e+02
2.050000e-06	2.107091e-06	5.076479e-09	1.462846e+01	3.304556e+02
2.060000e-06	2.070421e-06	4.963564e-09	1.437388e+01	3.281422e+02
2.070000e-06	2.032624e-06	4.971218e-09	1.411147e+01	3.257677e+02
2.080000e-06	1.993852e-06	4.954897e-09	1.384230e+01	3.233336e+02
2.090000e-06	1.954481e-06	4.875748e-09	1.356897e+01	3.208419e+02
2.100000e-06	1.914527e-06	4.860935e-09	1.329158e+01	3.182943e+02
2.110000e-06	1.873960e-06	4.803538e-09	1.300995e+01	3.156923e+02
2.120000e-06	1.832748e-06	4.771068e-09	1.272383e+01	3.130361e+02
2.130000e-06	1.790911e-06	4.750070e-09	1.243338e+01	3.103252e+02
2.140000e-06	1.748524e-06	4.683571e-09	1.213911e+01	3.075576e+02
2.150000e-06	1.705580e-06	4.654609e-09	1.184097e+01	3.047302e+02
2.160000e-06	1.662192e-06	4.609523e-09	1.153975e+01	3.018391e+02
2.170000e-06	1.618339e-06	4.566949e-09	1.123530e+01	2.988796e+02
2.180000e-06	1.573874e-06	4.525085e-09	1.092660e+01	2.958471e+02
2.190000e-06	1.528783e-06	4.465402e-09	1.061356e+01	2.927371e+02
2.200000e-06	1.483077e-06	4.421062e-09	1.029625e+01	2.895460e+02
2.210000e-06	1.436902e-06	4.376671e-09	9.975681e+00	2.862712e+02
2.220000e-06	1.390307e-06	4.327023e-09	9.652190e+00	2.829112e+02
2.230000e-06	1.343245e-06	4.278856e-09	9.325467e+00	2.794658e+02
2.240000e-06	1.295686e-06	4.213278e-09	8.995287e+00	2.759359e+02
2.250000e-06	1.247445e-06	4.168637e-09	8.660375e+00	2.723229e+02
2.260000e-06	1.198608e-06	4.126208e-09	8.321324e+00	2.686287e+02
2.270000e-06	1.149401e-06	4.053840e-09	7.979708e+00	2.648549e+02
2.280000e-06	1.099842e-06	3.997709e-09	7.635640e+00	2.610027e+02
2.290000e-06	1.049883e-06	3.936801e-09	7.288803e+00	2.570724e+02
2.300000e-06	9.994725e-07	3.882364e-09	6.938828e+00	2.530632e+02
2.310000e-06	9.486523e-07	3.822481e-09	6.586010e+00	2.489732e+02
2.320000e-06	8.975311e-07	3.746906e-09	6.231101e+00	2.447994e+02
2.330000e-06	8.461695e-07	3.684097e-09	5.874524e+00	2.405385e+02
2.340000e-06	7.945456e-07	3.620132e-09	5.516126e+00	2.361864e+02
2.350000e-06	7.425159e-07	3.557453e-09	5.154909e+00	2.317394e+02
2.360000e-06	6.900827e-07	3.489040e-09	4.790893e+00	2.271940e+02
2.370000e-06	6.372832e-07	3.414978e-09	4.424333e+00	2.225474e+02
2.380000e-06	5.840383e-07	3.344970e-09	4.054681e+00	2.177975e+02
2.390000e-06	5.304475e-07	3.271421e-09	3.682627e+00	2.129431e+02
2.400000e-06	4.765347e-07	3.195235e-09	3.308338e+00	2.079832e+02
2.410000e-06	4.222823e-07	3.121372e-09	2.931691e+00	2.029169e+02
2.420000e-06	3.678420e-07	3.044652e-09	2.553740e+00	1.977428e+02
2.430000e-06	3.132809e-07	2.969914e-09	2.174949e+00	1.924584e+02
2.440000e-06	2.586275e-07	2.888238e-09	1.795519e+00	1.870599e+02
2.450000e-06	2.038592e-07	2.798141e-09	1.415291e+00	1.815416e+02
2.460000e-06	1.489717e-07	2.712877e-09	1.034234e+00	1.758959e+02
2.470000e-06	9.401571e-08	2.626853e-09	6.527032e-01	1.701133e+02
2.480000e-06	3.900005e-08	2.539036e-09	2.707575e-01	1.641830e+02
2.490000e-06	-1.599593e-08	2.444511e-09	-1.110516e-01	1.580929e+02
2.500000e-06	-7.095051e-08	2.350425e-09	-4.925732e-01	1.518311e+02
2.510000e-06	-1.259385e-07	2.258232e-09	-8.743271e-01	1.453858e+02
2.520000e-06	-1.809167e-07	2.157337e-09	-1.256012e+00	1.387462e+02
2.530000e-06	-2.358225e-07	2.048506e-09	-1.637196e+00	1.319031e+02
2.540000e-06	-2.906258e-07	1.938438e-09	-2.017667e+00	1.248488e+02
2.550000e-06	-3.452619e-07	1.831975e-09	-2.396977e+00	1.175769e+02
2.560000e-06	-3.997377e-07	1.722349e-09	-2.775175e+00	1.100815e+02
2.570000e-06	-4.540716e-07	1.605486e-09	-3.152388e+00	1.023567e+02
2.580000e-06	-5.081174e-07	1.484485e-09	-3.527601e+00	9.439474e+01
2.590000e-06	-5.617608e-07	1.363655e-09	-3.900019e+00	8.618510e+01
2.600000e-06	-6.149621e-07	1.235789e-09	-4.269369e+00	7.771314e+01
2.610000e-06	-6.677241e-07	1.098392e-09	-4.635669e+00	6.895907e+01
2.620000e-06	-7.201608e-07	9.552811e-10	-4.999710e+00	5.989754e+01
2.630000e-06	-7.722512e-07	8.093680e-10	-5.361347e+00	5.049777e+01
2.640000e-06	-8.239752e-07	6.640581e-10	-5.720440e+00	4.072449e+01
2.650000e-06	-8.754098e-07	5.127678e-10	-6.077525e+00	3.053975e+01
2.660000e-06	-9.265885e-07	3.524163e-10	-6.432832e+00	1.990544e+01
2.670000e-06	-9.774978e-07	1.832656e-10	-6.786269e+00	8.786504e+00
2.680000e-06	-1.028038e-06	9.290820e-12	-7.137146e+00	-2.845387e+00
2.690000e-06	-1.078112e-06	-1.728460e-10	-7.484783e+00	-1.500803e+01
2.700000e-06	-1.127731e-06	-3.671863e-10	-7.829265e+00	-2.770504e+01
2.710000e-06	-1.176932e-06	-5.710251e-10	-8.170840e+00	-4.092270e+01
2.720000e-06	-1.225674e-06	-7.816509e-10	-8.509234e+00	-5.462768e+01
2.730000e-06	-1.273737e-06	-9.981648e-10	-8.842905e+00	-6.876581e+01
2.740000e-06	-1.321039e-06	-1.220935e-09	-9.171304e+00	-8.326225e+01
2.750000e-06	-1.367735e-06	-1.446703e-09	-9.495489e+00	-9.802299e+01
2.760000e-06	-1.413916e-06	-1.672018e-09	-9.816100e+00	-1.129377e+02
2.770000e-06	-1.459700e-06	-1.896616e-09	-1.013395e+01	-1.278840e+02
2.780000e-06	-1.505150e-06	-2.125696e-09	-1.044949e+01	-1.427322e+02
2.790000e-06	-1.550180e-06	-2.357304e-09	-1.076211e+01	-1.573513e+02
2.800000e-06	-1.594647e-06	-2.582559e-09	-1.107082e+01	-1.716149e+02
2.810000e-06	-1.638575e-06	-2.795143e-09	-1.137579e+01	-1.854065e+02
2.820000e-06	-1.682080e-06	-2.997530e-09	-1.167782e+01	-1.986249e+02
2.830000e-06	-1.725167e-06	-3.189819e-09	-1.197696e+01	-2.111879e+02
2.840000e-06	-1.767715e-06	-3.368275e-09	-1.227235e+01	-2.230354e+02
2.850000e-06	-1.809667e-06	-3.532960e-09	-1.256359e+01	-2.341302e+02
2.860000e-06	-1.851042e-06	-3.687245e-09	-1.285084e+01	-2.444582e+02
2.870000e-06	-1.891757e-06	-3.837564e-09	-1.313351e+01	-2.540268e+02
2.880000e-06	-1.931814e-06	-3.981314e-09	-1.341160e+01	-2.628618e+02
2.890000e-06	-1.971360e-06	-4.112952e-09	-1.368615e+01	-2.710041e+02
2.900000e-06	-2.010365e-06	-4.231793e-09	-1.395694e+01	-2.785051e+02
2.910000e-06	-2.048588e-06	-4.339962e-09	-1.422230e+01	-2.854224e+02
2.920000e-06	-2.085771e-06	-4.437347e-09	-1.448045e+01	-2.918157e+02
2.930000e-06	-2.121971e-06	-4.525148e-09	-1.473176e+01	-2.977430e+02
2.940000e-06	-2.157473e-06	-4.608497e-09	-1.497823e+01	-3.032574e+02
