# Temperatura_=_25.0
# Concentracion g/m^3_=_15500.0
# C_Vs_to_Am_M_A/Vsm_=_65563218390.804596
# pendiente_HvsI_1/m_=_3716.3
# ordenada_HvsI_A/m_=_1297.0
# frecuencia_Hz_=_300844.21712490707

Tiempo_(s)	Campo_(V.s)	Magnetizacion_(V.s)	Campo_(kA/m)	Magnetizacion_(A/m)
0.000000e+00	-2.851178e-06	-5.686992e-09	-1.979921e+01	-3.710934e+02
1.000000e-08	-2.850214e-06	-5.687444e-09	-1.979252e+01	-3.710279e+02
2.000000e-08	-2.848308e-06	-5.686880e-09	-1.977928e+01	-3.708767e+02
3.000000e-08	-2.845187e-06	-5.684994e-09	-1.975761e+01	-3.706395e+02
4.000000e-08	-2.841019e-06	-5.683084e-09	-1.972866e+01	-3.703195e+02
5.000000e-08	-2.836073e-06	-5.678340e-09	-1.969432e+01	-3.699231e+02
6.000000e-08	-2.830259e-06	-5.666579e-09	-1.965395e+01	-3.694596e+02
7.000000e-08	-2.823497e-06	-5.651342e-09	-1.960699e+01	-3.689404e+02
8.000000e-08	-2.815721e-06	-5.671840e-09	-1.955299e+01	-3.683777e+02
9.000000e-08	-2.806709e-06	-5.699980e-09	-1.949041e+01	-3.677837e+02
1.000000e-07	-2.796275e-06	-5.667813e-09	-1.941795e+01	-3.671688e+02
1.100000e-07	-2.784719e-06	-5.553916e-09	-1.933771e+01	-3.665403e+02
1.200000e-07	-2.772385e-06	-5.571459e-09	-1.925206e+01	-3.659021e+02
1.300000e-07	-2.759094e-06	-5.671521e-09	-1.915976e+01	-3.652534e+02
1.400000e-07	-2.744811e-06	-5.613690e-09	-1.906057e+01	-3.645893e+02
1.500000e-07	-2.729638e-06	-5.502587e-09	-1.895521e+01	-3.639007e+02
1.600000e-07	-2.713147e-06	-5.591535e-09	-1.884069e+01	-3.631755e+02
1.700000e-07	-2.695297e-06	-5.629137e-09	-1.871674e+01	-3.623996e+02
1.800000e-07	-2.676683e-06	-5.461641e-09	-1.858748e+01	-3.615582e+02
1.900000e-07	-2.657378e-06	-5.494602e-09	-1.845342e+01	-3.606376e+02
2.000000e-07	-2.637179e-06	-5.556137e-09	-1.831315e+01	-3.596263e+02
2.100000e-07	-2.616155e-06	-5.417644e-09	-1.816716e+01	-3.585162e+02
2.200000e-07	-2.594348e-06	-5.409133e-09	-1.801573e+01	-3.573031e+02
2.300000e-07	-2.571612e-06	-5.507889e-09	-1.785784e+01	-3.559872e+02
2.400000e-07	-2.547894e-06	-5.408439e-09	-1.769314e+01	-3.545728e+02
2.500000e-07	-2.523402e-06	-5.345367e-09	-1.752306e+01	-3.530676e+02
2.600000e-07	-2.498145e-06	-5.381892e-09	-1.734767e+01	-3.514817e+02
2.700000e-07	-2.471840e-06	-5.351782e-09	-1.716500e+01	-3.498265e+02
2.800000e-07	-2.444414e-06	-5.303419e-09	-1.697455e+01	-3.481133e+02
2.900000e-07	-2.416023e-06	-5.276601e-09	-1.677740e+01	-3.463519e+02
3.000000e-07	-2.386810e-06	-5.244689e-09	-1.657453e+01	-3.445501e+02
3.100000e-07	-2.356863e-06	-5.262171e-09	-1.636658e+01	-3.427126e+02
3.200000e-07	-2.326183e-06	-5.230582e-09	-1.615353e+01	-3.408408e+02
3.300000e-07	-2.294660e-06	-5.132307e-09	-1.593463e+01	-3.389330e+02
3.400000e-07	-2.262401e-06	-5.156510e-09	-1.571061e+01	-3.369850e+02
3.500000e-07	-2.229585e-06	-5.123147e-09	-1.548273e+01	-3.349905e+02
3.600000e-07	-2.196075e-06	-5.047396e-09	-1.525003e+01	-3.329425e+02
3.700000e-07	-2.161458e-06	-5.073096e-09	-1.500964e+01	-3.308340e+02
3.800000e-07	-2.125689e-06	-5.029548e-09	-1.476125e+01	-3.286590e+02
3.900000e-07	-2.089209e-06	-4.937919e-09	-1.450793e+01	-3.264133e+02
4.000000e-07	-2.052115e-06	-4.959799e-09	-1.425034e+01	-3.240945e+02
4.100000e-07	-2.014309e-06	-4.939135e-09	-1.398781e+01	-3.217029e+02
4.200000e-07	-1.975813e-06	-4.842712e-09	-1.372048e+01	-3.192404e+02
4.300000e-07	-1.936560e-06	-4.823483e-09	-1.344791e+01	-3.167108e+02
4.400000e-07	-1.896598e-06	-4.805138e-09	-1.317040e+01	-3.141183e+02
4.500000e-07	-1.856204e-06	-4.757119e-09	-1.288989e+01	-3.114675e+02
4.600000e-07	-1.815463e-06	-4.712329e-09	-1.260698e+01	-3.087619e+02
4.700000e-07	-1.774067e-06	-4.669331e-09	-1.231952e+01	-3.060037e+02
4.800000e-07	-1.731675e-06	-4.626421e-09	-1.202514e+01	-3.031932e+02
4.900000e-07	-1.688261e-06	-4.588054e-09	-1.172366e+01	-3.003288e+02
5.000000e-07	-1.644117e-06	-4.533675e-09	-1.141711e+01	-2.974069e+02
5.100000e-07	-1.599515e-06	-4.480498e-09	-1.110739e+01	-2.944221e+02
5.200000e-07	-1.554481e-06	-4.443905e-09	-1.079466e+01	-2.913685e+02
5.300000e-07	-1.508900e-06	-4.393807e-09	-1.047814e+01	-2.882396e+02
5.400000e-07	-1.462779e-06	-4.351420e-09	-1.015786e+01	-2.850294e+02
5.500000e-07	-1.416132e-06	-4.303845e-09	-9.833934e+00	-2.817333e+02
5.600000e-07	-1.368908e-06	-4.237897e-09	-9.506000e+00	-2.783479e+02
5.700000e-07	-1.321188e-06	-4.177463e-09	-9.174621e+00	-2.748721e+02
5.800000e-07	-1.273092e-06	-4.137410e-09	-8.840634e+00	-2.713062e+02
5.900000e-07	-1.224688e-06	-4.079463e-09	-8.504502e+00	-2.676524e+02
6.000000e-07	-1.175981e-06	-4.012231e-09	-8.166273e+00	-2.639139e+02
6.100000e-07	-1.126831e-06	-3.963308e-09	-7.824965e+00	-2.600943e+02
6.200000e-07	-1.077102e-06	-3.909254e-09	-7.479634e+00	-2.561971e+02
6.300000e-07	-1.026748e-06	-3.847463e-09	-7.129963e+00	-2.522250e+02
6.400000e-07	-9.757103e-07	-3.776736e-09	-6.775549e+00	-2.481793e+02
6.500000e-07	-9.240926e-07	-3.707461e-09	-6.417104e+00	-2.440597e+02
6.600000e-07	-8.720810e-07	-3.642530e-09	-6.055924e+00	-2.398640e+02
6.700000e-07	-8.197764e-07	-3.581371e-09	-5.692709e+00	-2.355887e+02
6.800000e-07	-7.671841e-07	-3.515991e-09	-5.327496e+00	-2.312290e+02
6.900000e-07	-7.143410e-07	-3.447279e-09	-4.960542e+00	-2.267793e+02
7.000000e-07	-6.612836e-07	-3.377955e-09	-4.592100e+00	-2.222338e+02
7.100000e-07	-6.080297e-07	-3.305054e-09	-4.222293e+00	-2.175873e+02
7.200000e-07	-5.545846e-07	-3.232528e-09	-3.851158e+00	-2.128352e+02
7.300000e-07	-5.008790e-07	-3.154418e-09	-3.478215e+00	-2.079738e+02
7.400000e-07	-4.469592e-07	-3.076610e-09	-3.103784e+00	-2.030008e+02
7.500000e-07	-3.928329e-07	-3.001073e-09	-2.727919e+00	-1.979143e+02
7.600000e-07	-3.385680e-07	-2.925955e-09	-2.351091e+00	-1.927131e+02
7.700000e-07	-2.842508e-07	-2.843112e-09	-1.973900e+00	-1.873960e+02
7.800000e-07	-2.298505e-07	-2.756104e-09	-1.596133e+00	-1.819608e+02
7.900000e-07	-1.753929e-07	-2.671989e-09	-1.217967e+00	-1.764045e+02
8.000000e-07	-1.209069e-07	-2.584647e-09	-8.396040e-01	-1.707221e+02
8.100000e-07	-6.639260e-08	-2.491965e-09	-4.610449e-01	-1.649073e+02
8.200000e-07	-1.187709e-08	-2.398072e-09	-8.247716e-02	-1.589517e+02
8.300000e-07	4.265060e-08	-2.306649e-09	2.961752e-01	-1.528454e+02
8.400000e-07	9.718238e-08	-2.210207e-09	6.748560e-01	-1.465779e+02
8.500000e-07	1.516486e-07	-2.110307e-09	1.053081e+00	-1.401378e+02
8.600000e-07	2.060928e-07	-2.008245e-09	1.431154e+00	-1.335141e+02
8.700000e-07	2.605031e-07	-1.904142e-09	1.808991e+00	-1.266965e+02
8.800000e-07	3.148319e-07	-1.795107e-09	2.186262e+00	-1.196756e+02
8.900000e-07	3.690743e-07	-1.679993e-09	2.562934e+00	-1.124429e+02
9.000000e-07	4.231711e-07	-1.564140e-09	2.938594e+00	-1.049906e+02
9.100000e-07	4.770723e-07	-1.447134e-09	3.312896e+00	-9.731070e+01
9.200000e-07	5.307551e-07	-1.328759e-09	3.685681e+00	-8.939424e+01
9.300000e-07	5.842432e-07	-1.203670e-09	4.057114e+00	-8.123002e+01
9.400000e-07	6.375330e-07	-1.072971e-09	4.427170e+00	-7.280359e+01
9.500000e-07	6.905644e-07	-9.383122e-10	4.795432e+00	-6.409628e+01
9.600000e-07	7.433297e-07	-8.007411e-10	5.161846e+00	-5.508471e+01
9.700000e-07	7.958708e-07	-6.562760e-10	5.526703e+00	-4.574081e+01
9.800000e-07	8.481789e-07	-5.036437e-10	5.889942e+00	-3.603262e+01
9.900000e-07	9.001813e-07	-3.451754e-10	6.251058e+00	-2.592578e+01
1.000000e-06	9.517397e-07	-1.810415e-10	6.609091e+00	-1.538580e+01
1.010000e-06	1.002725e-06	-1.477988e-11	6.963146e+00	-4.381074e+00
1.020000e-06	1.053129e-06	1.571663e-10	7.313160e+00	7.113801e+00
1.030000e-06	1.102891e-06	3.371462e-10	7.658719e+00	1.911437e+01
1.040000e-06	1.152022e-06	5.291871e-10	7.999893e+00	3.162285e+01
1.050000e-06	1.200778e-06	7.314401e-10	8.338470e+00	4.462509e+01
1.060000e-06	1.249279e-06	9.404524e-10	8.675272e+00	5.808833e+01
1.070000e-06	1.297478e-06	1.153899e-09	9.009972e+00	7.195998e+01
1.080000e-06	1.345269e-06	1.370305e-09	9.341845e+00	8.616771e+01
1.090000e-06	1.392515e-06	1.591386e-09	9.669933e+00	1.006209e+02
1.100000e-06	1.439230e-06	1.812825e-09	9.994334e+00	1.152132e+02
1.110000e-06	1.485478e-06	2.031310e-09	1.031549e+01	1.298269e+02
1.120000e-06	1.531184e-06	2.245516e-09	1.063288e+01	1.443373e+02
1.130000e-06	1.576340e-06	2.460066e-09	1.094645e+01	1.586187e+02
1.140000e-06	1.621101e-06	2.674741e-09	1.125729e+01	1.725499e+02
1.150000e-06	1.665536e-06	2.882477e-09	1.156585e+01	1.860195e+02
1.160000e-06	1.709509e-06	3.076807e-09	1.187121e+01	1.989310e+02
1.170000e-06	1.752666e-06	3.259542e-09	1.217090e+01	2.112065e+02
1.180000e-06	1.794865e-06	3.434253e-09	1.246394e+01	2.227894e+02
1.190000e-06	1.836204e-06	3.598741e-09	1.275101e+01	2.336453e+02
1.200000e-06	1.876875e-06	3.750775e-09	1.303344e+01	2.437619e+02
1.210000e-06	1.917061e-06	3.890287e-09	1.331249e+01	2.531474e+02
1.220000e-06	1.956683e-06	4.020036e-09	1.358764e+01	2.618273e+02
1.230000e-06	1.995663e-06	4.142366e-09	1.385833e+01	2.698413e+02
1.240000e-06	2.033916e-06	4.255896e-09	1.412396e+01	2.772387e+02
1.250000e-06	2.071371e-06	4.356486e-09	1.438406e+01	2.840743e+02
1.260000e-06	2.108216e-06	4.449437e-09	1.463992e+01	2.904044e+02
1.270000e-06	2.144616e-06	4.537489e-09	1.489269e+01	2.962834e+02
1.280000e-06	2.180332e-06	4.619058e-09	1.514071e+01	3.017606e+02
1.290000e-06	2.215013e-06	4.693845e-09	1.538154e+01	3.068792e+02
1.300000e-06	2.248642e-06	4.764591e-09	1.561507e+01	3.116749e+02
1.310000e-06	2.281458e-06	4.833869e-09	1.584295e+01	3.161759e+02
1.320000e-06	2.313578e-06	4.898060e-09	1.606599e+01	3.204042e+02
1.330000e-06	2.344960e-06	4.956238e-09	1.628392e+01	3.243761e+02
1.340000e-06	2.375569e-06	5.009664e-09	1.649647e+01	3.281045e+02
1.350000e-06	2.405333e-06	5.058360e-09	1.670317e+01	3.316002e+02
1.360000e-06	2.434310e-06	5.103710e-09	1.690439e+01	3.348731e+02
1.370000e-06	2.462703e-06	5.149192e-09	1.710155e+01	3.379337e+02
1.380000e-06	2.490307e-06	5.192709e-09	1.729324e+01	3.407935e+02
1.390000e-06	2.516621e-06	5.230690e-09	1.747597e+01	3.434652e+02
1.400000e-06	2.541765e-06	5.263888e-09	1.765058e+01	3.459625e+02
1.410000e-06	2.566069e-06	5.295926e-09	1.781935e+01	3.482995e+02
1.420000e-06	2.589521e-06	5.328675e-09	1.798221e+01	3.504899e+02
1.430000e-06	2.612089e-06	5.360165e-09	1.813892e+01	3.525462e+02
1.440000e-06	2.633763e-06	5.388005e-09	1.828944e+01	3.544788e+02
1.450000e-06	2.654705e-06	5.413434e-09	1.843486e+01	3.562959e+02
1.460000e-06	2.674898e-06	5.439741e-09	1.857509e+01	3.580030e+02
1.470000e-06	2.694135e-06	5.464341e-09	1.870867e+01	3.596029e+02
1.480000e-06	2.712372e-06	5.485221e-09	1.883532e+01	3.610967e+02
1.490000e-06	2.729600e-06	5.503535e-09	1.895495e+01	3.624842e+02
1.500000e-06	2.745796e-06	5.521390e-09	1.906741e+01	3.637646e+02
1.510000e-06	2.760937e-06	5.540422e-09	1.917256e+01	3.649377e+02
1.520000e-06	2.775025e-06	5.557765e-09	1.927039e+01	3.660043e+02
1.530000e-06	2.788123e-06	5.570675e-09	1.936134e+01	3.669669e+02
1.540000e-06	2.800149e-06	5.582611e-09	1.944486e+01	3.678301e+02
1.550000e-06	2.810899e-06	5.596659e-09	1.951950e+01	3.686001e+02
1.560000e-06	2.820401e-06	5.609415e-09	1.958549e+01	3.692841e+02
1.570000e-06	2.828941e-06	5.617675e-09	1.964480e+01	3.698904e+02
1.580000e-06	2.836597e-06	5.623823e-09	1.969796e+01	3.704268e+02
1.590000e-06	2.843229e-06	5.632399e-09	1.974401e+01	3.708998e+02
1.600000e-06	2.848867e-06	5.641942e-09	1.978317e+01	3.713143e+02
1.610000e-06	2.853721e-06	5.647215e-09	1.981687e+01	3.716726e+02
1.620000e-06	2.857710e-06	5.649861e-09	1.984457e+01	3.719744e+02
1.630000e-06	2.860501e-06	5.654483e-09	1.986395e+01	3.722169e+02
1.640000e-06	2.862054e-06	5.660304e-09	1.987473e+01	3.723951e+02
1.650000e-06	2.862596e-06	5.662929e-09	1.987850e+01	3.725031e+02
1.660000e-06	2.862257e-06	5.661494e-09	1.987615e+01	3.725345e+02
1.670000e-06	2.861025e-06	5.659177e-09	1.986759e+01	3.724841e+02
1.680000e-06	2.858907e-06	5.658577e-09	1.985288e+01	3.723482e+02
1.690000e-06	2.856022e-06	5.656669e-09	1.983285e+01	3.721262e+02
1.700000e-06	2.852379e-06	5.651145e-09	1.980755e+01	3.718206e+02
1.710000e-06	2.847655e-06	5.645739e-09	1.977475e+01	3.714372e+02
1.720000e-06	2.841735e-06	5.646907e-09	1.973364e+01	3.709849e+02
1.730000e-06	2.834852e-06	5.649610e-09	1.968584e+01	3.704746e+02
1.740000e-06	2.827108e-06	5.593629e-09	1.963207e+01	3.699188e+02
1.750000e-06	2.818057e-06	5.547431e-09	1.956921e+01	3.693296e+02
1.760000e-06	2.807388e-06	5.598010e-09	1.949512e+01	3.687177e+02
1.770000e-06	2.795803e-06	5.669929e-09	1.941467e+01	3.680912e+02
1.780000e-06	2.784061e-06	5.588971e-09	1.933314e+01	3.674546e+02
1.790000e-06	2.771608e-06	5.473319e-09	1.924666e+01	3.668080e+02
1.800000e-06	2.757517e-06	5.590035e-09	1.914881e+01	3.661472e+02
1.810000e-06	2.742242e-06	5.623905e-09	1.904274e+01	3.654637e+02
1.820000e-06	2.726404e-06	5.473218e-09	1.893275e+01	3.647461e+02
1.830000e-06	2.709425e-06	5.496688e-09	1.881485e+01	3.639802e+02
1.840000e-06	2.691128e-06	5.614726e-09	1.868779e+01	3.631515e+02
1.850000e-06	2.672152e-06	5.481120e-09	1.855602e+01	3.622460e+02
1.860000e-06	2.652458e-06	5.411805e-09	1.841926e+01	3.612516e+02
1.870000e-06	2.631577e-06	5.574281e-09	1.827426e+01	3.601595e+02
1.880000e-06	2.609596e-06	5.463087e-09	1.812162e+01	3.589649e+02
1.890000e-06	2.586636e-06	5.318053e-09	1.796217e+01	3.576671e+02
1.900000e-06	2.562644e-06	5.453466e-09	1.779557e+01	3.562698e+02
1.910000e-06	2.537911e-06	5.421612e-09	1.762381e+01	3.547801e+02
1.920000e-06	2.512433e-06	5.313489e-09	1.744689e+01	3.532077e+02
1.930000e-06	2.486013e-06	5.358363e-09	1.726343e+01	3.515640e+02
1.940000e-06	2.458918e-06	5.320098e-09	1.707527e+01	3.498603e+02
1.950000e-06	2.431040e-06	5.295347e-09	1.688168e+01	3.481069e+02
1.960000e-06	2.401912e-06	5.284603e-09	1.667941e+01	3.463118e+02
1.970000e-06	2.371701e-06	5.174057e-09	1.646962e+01	3.444805e+02
1.980000e-06	2.340712e-06	5.200612e-09	1.625442e+01	3.426148e+02
1.990000e-06	2.309018e-06	5.229826e-09	1.603434e+01	3.407136e+02
2.000000e-06	2.276611e-06	5.094457e-09	1.580929e+01	3.387732e+02
2.010000e-06	2.243305e-06	5.121414e-09	1.557801e+01	3.367875e+02
2.020000e-06	2.209223e-06	5.130630e-09	1.534133e+01	3.347496e+02
2.030000e-06	2.174567e-06	4.989693e-09	1.510067e+01	3.326523e+02
2.040000e-06	2.139291e-06	5.030593e-09	1.485571e+01	3.304896e+02
2.050000e-06	2.103383e-06	5.026813e-09	1.460636e+01	3.282566e+02
2.060000e-06	2.066570e-06	4.900789e-09	1.435072e+01	3.259509e+02
2.070000e-06	2.028546e-06	4.918234e-09	1.408667e+01	3.235721e+02
2.080000e-06	1.989636e-06	4.905177e-09	1.381647e+01	3.211221e+02
2.090000e-06	1.950184e-06	4.826029e-09	1.354251e+01	3.186041e+02
2.100000e-06	1.910139e-06	4.805003e-09	1.326443e+01	3.160225e+02
2.110000e-06	1.869444e-06	4.756984e-09	1.298183e+01	3.133818e+02
2.120000e-06	1.828145e-06	4.723469e-09	1.269505e+01	3.106857e+02
2.130000e-06	1.786303e-06	4.687995e-09	1.240449e+01	3.079367e+02
2.140000e-06	1.743857e-06	4.621762e-09	1.210973e+01	3.051357e+02
2.150000e-06	1.700903e-06	4.600934e-09	1.181145e+01	3.022811e+02
2.160000e-06	1.657571e-06	4.557500e-09	1.151054e+01	2.993697e+02
2.170000e-06	1.613693e-06	4.504615e-09	1.120584e+01	2.963966e+02
2.180000e-06	1.569121e-06	4.466329e-09	1.089632e+01	2.933557e+02
2.190000e-06	1.523904e-06	4.415375e-09	1.058232e+01	2.902406e+02
2.200000e-06	1.478170e-06	4.358225e-09	1.026474e+01	2.870454e+02
2.210000e-06	1.432073e-06	4.307752e-09	9.944631e+00	2.837648e+02
2.220000e-06	1.385546e-06	4.274341e-09	9.621540e+00	2.803955e+02
2.230000e-06	1.338480e-06	4.223541e-09	9.294705e+00	2.769358e+02
2.240000e-06	1.290814e-06	4.153771e-09	8.963700e+00	2.733859e+02
2.250000e-06	1.242509e-06	4.110527e-09	8.628261e+00	2.697475e+02
2.260000e-06	1.193735e-06	4.058825e-09	8.289562e+00	2.660239e+02
2.270000e-06	1.144595e-06	3.985329e-09	7.948323e+00	2.622185e+02
2.280000e-06	1.095061e-06	3.930463e-09	7.604345e+00	2.583349e+02
2.290000e-06	1.045048e-06	3.875382e-09	7.257047e+00	2.543760e+02
2.300000e-06	9.945178e-07	3.825001e-09	6.906152e+00	2.503434e+02
2.310000e-06	9.436388e-07	3.762239e-09	6.552837e+00	2.462370e+02
2.320000e-06	8.925432e-07	3.688763e-09	6.198018e+00	2.420551e+02
2.330000e-06	8.411947e-07	3.629201e-09	5.841442e+00	2.377943e+02
2.340000e-06	7.895667e-07	3.561180e-09	5.482926e+00	2.334500e+02
2.350000e-06	7.375009e-07	3.492074e-09	5.121370e+00	2.290168e+02
2.360000e-06	6.849538e-07	3.423078e-09	4.756471e+00	2.244888e+02
2.370000e-06	6.320515e-07	3.352347e-09	4.389106e+00	2.198607e+02
2.380000e-06	5.787755e-07	3.287196e-09	4.019145e+00	2.151276e+02
2.390000e-06	5.250976e-07	3.217602e-09	3.646394e+00	2.102860e+02
2.400000e-06	4.710786e-07	3.140844e-09	3.271274e+00	2.053330e+02
2.410000e-06	4.168895e-07	3.059347e-09	2.894973e+00	2.002668e+02
2.420000e-06	3.625392e-07	2.978988e-09	2.517553e+00	1.950862e+02
2.430000e-06	3.079292e-07	2.905967e-09	2.138329e+00	1.897899e+02
2.440000e-06	2.531704e-07	2.824238e-09	1.758072e+00	1.843759e+02
2.450000e-06	1.983651e-07	2.732435e-09	1.377491e+00	1.788415e+02
2.460000e-06	1.435004e-07	2.645798e-09	9.964982e-01	1.731820e+02
2.470000e-06	8.858734e-08	2.562990e-09	6.151701e-01	1.673914e+02
2.480000e-06	3.364220e-08	2.478820e-09	2.336189e-01	1.614615e+02
2.490000e-06	-2.130445e-08	2.386043e-09	-1.479428e-01	1.553829e+02
2.500000e-06	-7.623239e-08	2.290687e-09	-5.293746e-01	1.491450e+02
2.510000e-06	-1.311486e-07	2.196866e-09	-9.107246e-01	1.427365e+02
2.520000e-06	-1.860471e-07	2.096303e-09	-1.291952e+00	1.361463e+02
2.530000e-06	-2.408785e-07	1.987899e-09	-1.672714e+00	1.293640e+02
2.540000e-06	-2.956051e-07	1.876941e-09	-2.052747e+00	1.223800e+02
2.550000e-06	-3.502088e-07	1.770449e-09	-2.431928e+00	1.151857e+02
2.560000e-06	-4.046339e-07	1.665747e-09	-2.809867e+00	1.077732e+02
2.570000e-06	-4.589016e-07	1.555188e-09	-3.186714e+00	1.001345e+02
2.580000e-06	-5.129369e-07	1.436847e-09	-3.561948e+00	9.226101e+01
2.590000e-06	-5.665960e-07	1.313671e-09	-3.934568e+00	8.414196e+01
2.600000e-06	-6.198965e-07	1.187633e-09	-4.304699e+00	7.576356e+01
2.610000e-06	-6.727894e-07	1.055086e-09	-4.671998e+00	6.710795e+01
2.620000e-06	-7.251972e-07	9.132450e-10	-5.035930e+00	5.815261e+01
2.630000e-06	-7.771826e-07	7.676764e-10	-5.396928e+00	4.887027e+01
2.640000e-06	-8.288361e-07	6.247916e-10	-5.755621e+00	3.922958e+01
2.650000e-06	-8.802127e-07	4.783862e-10	-6.112392e+00	2.919645e+01
2.660000e-06	-9.312991e-07	3.227120e-10	-6.467148e+00	1.873623e+01
2.670000e-06	-9.821072e-07	1.580336e-10	-6.819970e+00	7.816555e+00
2.680000e-06	-1.032568e-06	-1.308844e-11	-7.170380e+00	-3.589355e+00
2.690000e-06	-1.082608e-06	-1.935700e-10	-7.517867e+00	-1.549906e+01
2.700000e-06	-1.132255e-06	-3.860996e-10	-7.862631e+00	-2.791741e+01
2.710000e-06	-1.181510e-06	-5.855354e-10	-8.204666e+00	-4.083335e+01
2.720000e-06	-1.230278e-06	-7.883787e-10	-8.543322e+00	-5.421758e+01
2.730000e-06	-1.278395e-06	-9.960343e-10	-8.877460e+00	-6.802108e+01
2.740000e-06	-1.325767e-06	-1.210944e-09	-9.206419e+00	-8.217498e+01
2.750000e-06	-1.372385e-06	-1.431016e-09	-9.530142e+00	-9.659172e+01
2.760000e-06	-1.418412e-06	-1.652177e-09	-9.849771e+00	-1.111676e+02
2.770000e-06	-1.464068e-06	-1.874064e-09	-1.016681e+01	-1.257865e+02
2.780000e-06	-1.509397e-06	-2.100085e-09	-1.048158e+01	-1.403247e+02
2.790000e-06	-1.554371e-06	-2.327417e-09	-1.079389e+01	-1.546561e+02
2.800000e-06	-1.598820e-06	-2.546433e-09	-1.110256e+01	-1.686584e+02
2.810000e-06	-1.642619e-06	-2.751949e-09	-1.140671e+01	-1.822180e+02
2.820000e-06	-1.685965e-06	-2.949582e-09	-1.170771e+01	-1.952355e+02
2.830000e-06	-1.728944e-06	-3.141018e-09	-1.200617e+01	-2.076294e+02
2.840000e-06	-1.771418e-06	-3.320667e-09	-1.230112e+01	-2.193391e+02
2.850000e-06	-1.813287e-06	-3.486692e-09	-1.259187e+01	-2.303264e+02
2.860000e-06	-1.854561e-06	-3.642840e-09	-1.287848e+01	-2.405751e+02
2.870000e-06	-1.895213e-06	-3.792798e-09	-1.316078e+01	-2.500897e+02
2.880000e-06	-1.935149e-06	-3.932959e-09	-1.343810e+01	-2.588931e+02
2.890000e-06	-1.974501e-06	-4.059902e-09	-1.371138e+01	-2.670226e+02
2.900000e-06	-2.013387e-06	-4.175316e-09	-1.398140e+01	-2.745262e+02
2.910000e-06	-2.051545e-06	-4.282667e-09	-1.424638e+01	-2.814581e+02
2.920000e-06	-2.088646e-06	-4.381699e-09	-1.450402e+01	-2.878744e+02
2.930000e-06	-2.124703e-06	-4.472150e-09	-1.475441e+01	-2.938302e+02
2.940000e-06	-2.160068e-06	-4.558098e-09	-1.499999e+01	-2.993758e+02
