# Temperatura_=_21.78
# Concentracion g/m^3_=_15500.0
# C_Vs_to_Am_M_A/Vsm_=_65563218390.804596
# pendiente_HvsI_1/m_=_3716.3
# ordenada_HvsI_A/m_=_1297.0
# frecuencia_Hz_=_300833.35740494455

Tiempo_(s)	Campo_(V.s)	Magnetizacion_(V.s)	Campo_(kA/m)	Magnetizacion_(A/m)
0.000000e+00	-2.851642e-06	-5.721103e-09	-1.979967e+01	-3.732040e+02
1.000000e-08	-2.850590e-06	-5.725274e-09	-1.979237e+01	-3.731509e+02
2.000000e-08	-2.848493e-06	-5.724065e-09	-1.977781e+01	-3.730216e+02
3.000000e-08	-2.845013e-06	-5.721287e-09	-1.975365e+01	-3.728153e+02
4.000000e-08	-2.840523e-06	-5.718184e-09	-1.972247e+01	-3.725330e+02
5.000000e-08	-2.835383e-06	-5.707843e-09	-1.968678e+01	-3.721774e+02
6.000000e-08	-2.829437e-06	-5.679905e-09	-1.964550e+01	-3.717532e+02
7.000000e-08	-2.822502e-06	-5.654238e-09	-1.959735e+01	-3.712665e+02
8.000000e-08	-2.814493e-06	-5.724108e-09	-1.954174e+01	-3.707249e+02
9.000000e-08	-2.805285e-06	-5.818951e-09	-1.947781e+01	-3.701360e+02
1.000000e-07	-2.794582e-06	-5.740095e-09	-1.940349e+01	-3.695072e+02
1.100000e-07	-2.782699e-06	-5.474231e-09	-1.932098e+01	-3.688444e+02
1.200000e-07	-2.770190e-06	-5.561392e-09	-1.923414e+01	-3.681518e+02
1.300000e-07	-2.756730e-06	-5.821479e-09	-1.914068e+01	-3.674309e+02
1.400000e-07	-2.742184e-06	-5.656431e-09	-1.903968e+01	-3.666802e+02
1.500000e-07	-2.726754e-06	-5.412663e-09	-1.893255e+01	-3.658955e+02
1.600000e-07	-2.709953e-06	-5.676692e-09	-1.881589e+01	-3.650701e+02
1.700000e-07	-2.691779e-06	-5.766775e-09	-1.868971e+01	-3.641953e+02
1.800000e-07	-2.672999e-06	-5.384457e-09	-1.855931e+01	-3.632612e+02
1.900000e-07	-2.653589e-06	-5.519987e-09	-1.842454e+01	-3.622576e+02
2.000000e-07	-2.633203e-06	-5.680356e-09	-1.828300e+01	-3.611751e+02
2.100000e-07	-2.611976e-06	-5.361411e-09	-1.813561e+01	-3.600059e+02
2.200000e-07	-2.589993e-06	-5.414921e-09	-1.798298e+01	-3.587444e+02
2.300000e-07	-2.567010e-06	-5.668495e-09	-1.782340e+01	-3.573876e+02
2.400000e-07	-2.543038e-06	-5.424605e-09	-1.765696e+01	-3.559356e+02
2.500000e-07	-2.518363e-06	-5.312824e-09	-1.748563e+01	-3.543908e+02
2.600000e-07	-2.492869e-06	-5.442240e-09	-1.730862e+01	-3.527581e+02
2.700000e-07	-2.466238e-06	-5.383280e-09	-1.712372e+01	-3.510439e+02
2.800000e-07	-2.438487e-06	-5.313435e-09	-1.693103e+01	-3.492554e+02
2.900000e-07	-2.409813e-06	-5.327324e-09	-1.673194e+01	-3.473999e+02
3.000000e-07	-2.380355e-06	-5.281096e-09	-1.652741e+01	-3.454836e+02
3.100000e-07	-2.350181e-06	-5.307195e-09	-1.631790e+01	-3.435116e+02
3.200000e-07	-2.319300e-06	-5.278371e-09	-1.610349e+01	-3.414871e+02
3.300000e-07	-2.287595e-06	-5.112584e-09	-1.588336e+01	-3.394114e+02
3.400000e-07	-2.255171e-06	-5.166739e-09	-1.565823e+01	-3.372837e+02
3.500000e-07	-2.222218e-06	-5.144929e-09	-1.542942e+01	-3.351020e+02
3.600000e-07	-2.188447e-06	-5.043719e-09	-1.519495e+01	-3.328630e+02
3.700000e-07	-2.153514e-06	-5.105903e-09	-1.495240e+01	-3.305628e+02
3.800000e-07	-2.117528e-06	-5.048027e-09	-1.470254e+01	-3.281979e+02
3.900000e-07	-2.080913e-06	-4.914369e-09	-1.444831e+01	-3.257652e+02
4.000000e-07	-2.043717e-06	-4.967914e-09	-1.419005e+01	-3.232628e+02
4.100000e-07	-2.005749e-06	-4.948918e-09	-1.392643e+01	-3.206899e+02
4.200000e-07	-1.967061e-06	-4.807186e-09	-1.365781e+01	-3.180472e+02
4.300000e-07	-1.927635e-06	-4.799722e-09	-1.338406e+01	-3.153363e+02
4.400000e-07	-1.887530e-06	-4.793631e-09	-1.310560e+01	-3.125598e+02
4.500000e-07	-1.847041e-06	-4.742871e-09	-1.282448e+01	-3.097204e+02
4.600000e-07	-1.806189e-06	-4.691183e-09	-1.254083e+01	-3.068208e+02
4.700000e-07	-1.764632e-06	-4.640560e-09	-1.225229e+01	-3.038631e+02
4.800000e-07	-1.722018e-06	-4.590496e-09	-1.195641e+01	-3.008484e+02
4.900000e-07	-1.678362e-06	-4.559972e-09	-1.165329e+01	-2.977764e+02
5.000000e-07	-1.634042e-06	-4.509787e-09	-1.134557e+01	-2.946458e+02
5.100000e-07	-1.589323e-06	-4.437233e-09	-1.103507e+01	-2.914538e+02
5.200000e-07	-1.544223e-06	-4.395500e-09	-1.072193e+01	-2.881969e+02
5.300000e-07	-1.498591e-06	-4.349759e-09	-1.040510e+01	-2.848711e+02
5.400000e-07	-1.452359e-06	-4.306477e-09	-1.008410e+01	-2.814720e+02
5.500000e-07	-1.405641e-06	-4.244910e-09	-9.759722e+00	-2.779958e+02
5.600000e-07	-1.358390e-06	-4.177101e-09	-9.431645e+00	-2.744394e+02
5.700000e-07	-1.310580e-06	-4.123022e-09	-9.099693e+00	-2.708004e+02
5.800000e-07	-1.262374e-06	-4.088881e-09	-8.764986e+00	-2.670777e+02
5.900000e-07	-1.213883e-06	-4.022338e-09	-8.428297e+00	-2.632712e+02
6.000000e-07	-1.165034e-06	-3.940303e-09	-8.089130e+00	-2.593817e+02
6.100000e-07	-1.115690e-06	-3.890462e-09	-7.746521e+00	-2.554105e+02
6.200000e-07	-1.065717e-06	-3.836364e-09	-7.399546e+00	-2.513590e+02
6.300000e-07	-1.015111e-06	-3.770583e-09	-7.048172e+00	-2.472286e+02
6.400000e-07	-9.639085e-07	-3.692113e-09	-6.692662e+00	-2.430200e+02
6.500000e-07	-9.121876e-07	-3.627388e-09	-6.333550e+00	-2.387333e+02
6.600000e-07	-8.601196e-07	-3.568367e-09	-5.972029e+00	-2.343677e+02
6.700000e-07	-8.078402e-07	-3.504625e-09	-5.609040e+00	-2.299212e+02
6.800000e-07	-7.553215e-07	-3.426365e-09	-5.244390e+00	-2.253912e+02
6.900000e-07	-7.025075e-07	-3.346852e-09	-4.877688e+00	-2.207745e+02
7.000000e-07	-6.494937e-07	-3.279812e-09	-4.509600e+00	-2.160675e+02
7.100000e-07	-5.962344e-07	-3.210688e-09	-4.139807e+00	-2.112666e+02
7.200000e-07	-5.427180e-07	-3.135091e-09	-3.768229e+00	-2.063684e+02
7.300000e-07	-4.889638e-07	-3.052326e-09	-3.395000e+00	-2.013696e+02
7.400000e-07	-4.349680e-07	-2.979339e-09	-3.020093e+00	-1.962674e+02
7.500000e-07	-3.808556e-07	-2.905188e-09	-2.644378e+00	-1.910592e+02
7.600000e-07	-3.266542e-07	-2.823583e-09	-2.268043e+00	-1.857425e+02
7.700000e-07	-2.722963e-07	-2.728660e-09	-1.890622e+00	-1.803143e+02
7.800000e-07	-2.178422e-07	-2.637118e-09	-1.512534e+00	-1.747711e+02
7.900000e-07	-1.633271e-07	-2.559808e-09	-1.134021e+00	-1.691088e+02
8.000000e-07	-1.088037e-07	-2.476839e-09	-7.554517e-01	-1.633217e+02
8.100000e-07	-5.428687e-08	-2.382399e-09	-3.769275e-01	-1.574033e+02
8.200000e-07	2.770977e-10	-2.283403e-09	1.923960e-03	-1.513458e+02
8.300000e-07	5.483771e-08	-2.191019e-09	3.807522e-01	-1.451403e+02
8.400000e-07	1.093467e-07	-2.094154e-09	7.592216e-01	-1.387774e+02
8.500000e-07	1.638131e-07	-1.991305e-09	1.137396e+00	-1.322475e+02
8.600000e-07	2.182731e-07	-1.882453e-09	1.515526e+00	-1.255411e+02
8.700000e-07	2.726811e-07	-1.776320e-09	1.893294e+00	-1.186490e+02
8.800000e-07	3.269622e-07	-1.672225e-09	2.270182e+00	-1.115631e+02
8.900000e-07	3.811409e-07	-1.560857e-09	2.646358e+00	-1.042755e+02
9.000000e-07	4.352230e-07	-1.442602e-09	3.021864e+00	-9.677920e+01
9.100000e-07	4.891604e-07	-1.322307e-09	3.396365e+00	-8.906683e+01
9.200000e-07	5.428587e-07	-1.206353e-09	3.769206e+00	-8.113040e+01
9.300000e-07	5.963091e-07	-1.083478e-09	4.140326e+00	-7.296040e+01
9.400000e-07	6.495268e-07	-9.531143e-10	4.509830e+00	-6.454494e+01
9.500000e-07	7.024898e-07	-8.150223e-10	4.877566e+00	-5.586911e+01
9.600000e-07	7.552238e-07	-6.762140e-10	5.243711e+00	-4.691457e+01
9.700000e-07	8.077397e-07	-5.350003e-10	5.608342e+00	-3.765951e+01
9.800000e-07	8.599918e-07	-3.851035e-10	5.971142e+00	-2.807923e+01
9.900000e-07	9.118394e-07	-2.295620e-10	6.331133e+00	-1.814719e+01
1.000000e-06	9.632186e-07	-7.225807e-11	6.687871e+00	-7.836727e+00
1.010000e-06	1.014040e-06	8.553028e-11	7.040734e+00	2.876752e+00
1.020000e-06	1.064238e-06	2.525843e-10	7.389278e+00	1.401313e+01
1.030000e-06	1.113802e-06	4.302085e-10	7.733408e+00	2.558476e+01
1.040000e-06	1.162831e-06	6.187589e-10	8.073829e+00	3.759366e+01
1.050000e-06	1.211535e-06	8.124079e-10	8.411996e+00	5.002899e+01
1.060000e-06	1.260012e-06	1.011309e-09	8.748586e+00	6.286501e+01
1.070000e-06	1.308197e-06	1.215148e-09	9.083145e+00	7.605991e+01
1.080000e-06	1.355863e-06	1.420186e-09	9.414102e+00	8.955547e+01
1.090000e-06	1.402947e-06	1.626344e-09	9.741017e+00	1.032779e+02
1.100000e-06	1.449556e-06	1.831257e-09	1.006464e+01	1.171396e+02
1.110000e-06	1.495699e-06	2.041020e-09	1.038502e+01	1.310422e+02
1.120000e-06	1.541284e-06	2.254759e-09	1.070153e+01	1.448801e+02
1.130000e-06	1.586311e-06	2.468316e-09	1.101416e+01	1.585449e+02
1.140000e-06	1.630970e-06	2.674811e-09	1.132424e+01	1.719301e+02
1.150000e-06	1.675309e-06	2.872007e-09	1.163210e+01	1.849357e+02
1.160000e-06	1.719122e-06	3.059123e-09	1.193630e+01	1.974723e+02
1.170000e-06	1.762131e-06	3.237937e-09	1.223492e+01	2.094647e+02
1.180000e-06	1.804132e-06	3.407237e-09	1.252655e+01	2.208550e+02
1.190000e-06	1.845288e-06	3.567652e-09	1.281230e+01	2.316033e+02
1.200000e-06	1.885883e-06	3.724233e-09	1.309416e+01	2.416890e+02
1.210000e-06	1.925986e-06	3.872029e-09	1.337261e+01	2.511093e+02
1.220000e-06	1.965495e-06	4.006223e-09	1.364693e+01	2.598778e+02
1.230000e-06	2.004295e-06	4.125549e-09	1.391633e+01	2.680214e+02
1.240000e-06	2.042351e-06	4.237789e-09	1.418056e+01	2.755778e+02
1.250000e-06	2.079669e-06	4.342844e-09	1.443967e+01	2.825909e+02
1.260000e-06	2.116423e-06	4.439747e-09	1.469487e+01	2.891082e+02
1.270000e-06	2.152685e-06	4.528586e-09	1.494664e+01	2.951772e+02
1.280000e-06	2.188192e-06	4.614022e-09	1.519318e+01	3.008427e+02
1.290000e-06	2.222634e-06	4.698068e-09	1.543231e+01	3.061449e+02
1.300000e-06	2.255973e-06	4.776127e-09	1.566379e+01	3.111181e+02
1.310000e-06	2.288552e-06	4.845515e-09	1.589000e+01	3.157903e+02
1.320000e-06	2.320506e-06	4.906046e-09	1.611187e+01	3.201837e+02
1.330000e-06	2.351694e-06	4.964677e-09	1.632841e+01	3.243149e+02
1.340000e-06	2.382134e-06	5.021425e-09	1.653976e+01	3.281968e+02
1.350000e-06	2.411749e-06	5.072342e-09	1.674539e+01	3.318396e+02
1.360000e-06	2.440618e-06	5.118883e-09	1.694583e+01	3.352523e+02
1.370000e-06	2.468944e-06	5.167400e-09	1.714250e+01	3.384437e+02
1.380000e-06	2.496333e-06	5.216554e-09	1.733268e+01	3.414238e+02
1.390000e-06	2.522342e-06	5.259640e-09	1.751326e+01	3.442035e+02
1.400000e-06	2.547246e-06	5.294602e-09	1.768617e+01	3.467954e+02
1.410000e-06	2.571341e-06	5.325454e-09	1.785347e+01	3.492131e+02
1.420000e-06	2.594544e-06	5.357795e-09	1.801458e+01	3.514710e+02
1.430000e-06	2.616860e-06	5.389861e-09	1.816952e+01	3.535830e+02
1.440000e-06	2.638322e-06	5.416746e-09	1.831854e+01	3.555623e+02
1.450000e-06	2.659047e-06	5.439922e-09	1.846244e+01	3.574204e+02
1.460000e-06	2.679067e-06	5.466384e-09	1.860144e+01	3.591667e+02
1.470000e-06	2.698066e-06	5.494826e-09	1.873336e+01	3.608080e+02
1.480000e-06	2.716018e-06	5.518890e-09	1.885801e+01	3.623489e+02
1.490000e-06	2.733137e-06	5.537654e-09	1.897687e+01	3.637918e+02
1.500000e-06	2.749196e-06	5.555547e-09	1.908837e+01	3.651376e+02
1.510000e-06	2.764108e-06	5.573943e-09	1.919191e+01	3.663859e+02
1.520000e-06	2.778029e-06	5.588307e-09	1.928856e+01	3.675364e+02
1.530000e-06	2.790951e-06	5.598932e-09	1.937828e+01	3.685889e+02
1.540000e-06	2.802744e-06	5.612281e-09	1.946017e+01	3.695443e+02
1.550000e-06	2.813160e-06	5.630522e-09	1.953249e+01	3.704044e+02
1.560000e-06	2.822357e-06	5.647503e-09	1.959634e+01	3.711724e+02
1.570000e-06	2.830718e-06	5.658545e-09	1.965440e+01	3.718524e+02
1.580000e-06	2.838205e-06	5.665524e-09	1.970638e+01	3.724492e+02
1.590000e-06	2.844675e-06	5.672676e-09	1.975130e+01	3.729678e+02
1.600000e-06	2.850194e-06	5.678921e-09	1.978962e+01	3.734128e+02
1.610000e-06	2.854894e-06	5.681325e-09	1.982225e+01	3.737879e+02
1.620000e-06	2.858701e-06	5.684087e-09	1.984869e+01	3.740955e+02
1.630000e-06	2.861253e-06	5.691204e-09	1.986640e+01	3.743366e+02
1.640000e-06	2.862584e-06	5.698125e-09	1.987565e+01	3.745106e+02
1.650000e-06	2.862995e-06	5.701712e-09	1.987850e+01	3.746159e+02
1.660000e-06	2.862521e-06	5.702057e-09	1.987521e+01	3.746500e+02
1.670000e-06	2.861142e-06	5.697928e-09	1.986564e+01	3.746103e+02
1.680000e-06	2.858839e-06	5.694272e-09	1.984965e+01	3.744947e+02
1.690000e-06	2.855737e-06	5.691278e-09	1.982811e+01	3.743022e+02
1.700000e-06	2.851938e-06	5.685688e-09	1.980173e+01	3.740333e+02
1.710000e-06	2.847058e-06	5.684932e-09	1.976785e+01	3.736905e+02
1.720000e-06	2.840840e-06	5.706507e-09	1.972468e+01	3.732781e+02
1.730000e-06	2.833706e-06	5.720127e-09	1.967514e+01	3.728020e+02
1.740000e-06	2.825753e-06	5.594668e-09	1.961992e+01	3.722696e+02
1.750000e-06	2.816399e-06	5.502989e-09	1.955497e+01	3.716886e+02
1.760000e-06	2.805430e-06	5.652337e-09	1.947882e+01	3.710664e+02
1.770000e-06	2.793636e-06	5.831737e-09	1.939692e+01	3.704094e+02
1.780000e-06	2.781842e-06	5.626112e-09	1.931503e+01	3.697219e+02
1.790000e-06	2.769219e-06	5.391731e-09	1.922739e+01	3.690060e+02
1.800000e-06	2.754724e-06	5.702065e-09	1.912675e+01	3.682609e+02
1.810000e-06	2.739111e-06	5.734800e-09	1.901834e+01	3.674827e+02
1.820000e-06	2.723120e-06	5.365692e-09	1.890731e+01	3.666652e+02
1.830000e-06	2.705964e-06	5.483549e-09	1.878820e+01	3.657999e+02
1.840000e-06	2.687379e-06	5.772370e-09	1.865916e+01	3.648771e+02
1.850000e-06	2.668211e-06	5.457605e-09	1.852607e+01	3.638866e+02
1.860000e-06	2.648346e-06	5.342794e-09	1.838814e+01	3.628188e+02
1.870000e-06	2.627114e-06	5.729352e-09	1.824072e+01	3.616656e+02
1.880000e-06	2.604820e-06	5.468174e-09	1.808593e+01	3.604208e+02
1.890000e-06	2.581677e-06	5.204181e-09	1.792524e+01	3.590811e+02
1.900000e-06	2.557485e-06	5.573791e-09	1.775727e+01	3.576460e+02
1.910000e-06	2.532610e-06	5.497634e-09	1.758456e+01	3.561175e+02
1.920000e-06	2.507024e-06	5.274033e-09	1.740690e+01	3.545000e+02
1.930000e-06	2.480407e-06	5.419793e-09	1.722210e+01	3.527999e+02
1.940000e-06	2.453106e-06	5.332219e-09	1.703254e+01	3.510241e+02
1.950000e-06	2.425026e-06	5.273145e-09	1.683757e+01	3.491800e+02
1.960000e-06	2.395648e-06	5.324742e-09	1.663359e+01	3.472742e+02
1.970000e-06	2.365156e-06	5.153434e-09	1.642188e+01	3.453118e+02
1.980000e-06	2.333930e-06	5.204580e-09	1.620507e+01	3.432965e+02
1.990000e-06	2.302070e-06	5.301756e-09	1.598386e+01	3.412299e+02
2.000000e-06	2.269504e-06	5.067520e-09	1.575774e+01	3.391117e+02
2.010000e-06	2.236076e-06	5.110639e-09	1.552564e+01	3.369398e+02
2.020000e-06	2.201844e-06	5.154557e-09	1.528796e+01	3.347113e+02
2.030000e-06	2.166992e-06	4.936620e-09	1.504598e+01	3.324223e+02
2.040000e-06	2.131492e-06	5.033377e-09	1.479949e+01	3.300692e+02
2.050000e-06	2.095342e-06	5.047905e-09	1.454849e+01	3.276488e+02
2.060000e-06	2.058313e-06	4.854933e-09	1.429139e+01	3.251589e+02
2.070000e-06	2.020079e-06	4.909855e-09	1.402592e+01	3.225986e+02
2.080000e-06	1.981033e-06	4.904595e-09	1.375482e+01	3.199682e+02
2.090000e-06	1.941508e-06	4.791779e-09	1.348039e+01	3.172693e+02
2.100000e-06	1.901360e-06	4.776313e-09	1.320163e+01	3.145043e+02
2.110000e-06	1.860590e-06	4.712687e-09	1.291855e+01	3.116759e+02
2.120000e-06	1.819263e-06	4.693829e-09	1.263161e+01	3.087870e+02
2.130000e-06	1.777371e-06	4.668803e-09	1.234074e+01	3.058395e+02
2.140000e-06	1.734842e-06	4.577292e-09	1.204545e+01	3.028349e+02
2.150000e-06	1.691750e-06	4.555359e-09	1.174625e+01	2.997733e+02
2.160000e-06	1.648269e-06	4.510075e-09	1.144435e+01	2.966532e+02
2.170000e-06	1.604247e-06	4.463369e-09	1.113869e+01	2.934724e+02
2.180000e-06	1.559549e-06	4.413904e-09	1.082834e+01	2.902274e+02
2.190000e-06	1.514282e-06	4.349872e-09	1.051404e+01	2.869142e+02
2.200000e-06	1.468426e-06	4.308464e-09	1.019566e+01	2.835285e+02
2.210000e-06	1.422154e-06	4.256461e-09	9.874378e+00	2.800663e+02
2.220000e-06	1.375469e-06	4.210128e-09	9.550229e+00	2.765244e+02
2.230000e-06	1.328200e-06	4.151124e-09	9.222027e+00	2.729003e+02
2.240000e-06	1.280375e-06	4.075231e-09	8.889968e+00	2.691926e+02
2.250000e-06	1.231944e-06	4.044512e-09	8.553699e+00	2.654010e+02
2.260000e-06	1.183021e-06	3.993103e-09	8.214016e+00	2.615263e+02
2.270000e-06	1.133756e-06	3.907155e-09	7.871956e+00	2.575695e+02
2.280000e-06	1.084133e-06	3.857732e-09	7.527413e+00	2.535322e+02
2.290000e-06	1.034041e-06	3.799774e-09	7.179609e+00	2.494158e+02
2.300000e-06	9.834569e-07	3.745526e-09	6.828392e+00	2.452211e+02
2.310000e-06	9.325438e-07	3.677537e-09	6.474889e+00	2.409485e+02
2.320000e-06	8.814156e-07	3.594757e-09	6.119893e+00	2.365970e+02
2.330000e-06	8.299992e-07	3.536382e-09	5.762895e+00	2.321651e+02
2.340000e-06	7.781996e-07	3.469418e-09	5.403238e+00	2.276502e+02
2.350000e-06	7.259859e-07	3.401748e-09	5.040705e+00	2.230493e+02
2.360000e-06	6.733935e-07	3.329261e-09	4.675542e+00	2.183587e+02
2.370000e-06	6.204287e-07	3.255210e-09	4.307794e+00	2.135748e+02
2.380000e-06	5.670368e-07	3.190601e-09	3.937081e+00	2.086942e+02
2.390000e-06	5.133220e-07	3.114952e-09	3.564125e+00	2.037135e+02
2.400000e-06	4.592977e-07	3.032861e-09	3.189021e+00	1.986300e+02
2.410000e-06	4.050182e-07	2.952417e-09	2.812145e+00	1.934409e+02
2.420000e-06	3.505637e-07	2.873324e-09	2.434053e+00	1.881438e+02
2.430000e-06	2.959216e-07	2.799853e-09	2.054659e+00	1.827357e+02
2.440000e-06	2.411484e-07	2.715044e-09	1.674355e+00	1.772134e+02
2.450000e-06	1.862892e-07	2.621412e-09	1.293454e+00	1.715727e+02
2.460000e-06	1.313998e-07	2.535513e-09	9.123423e-01	1.658083e+02
2.470000e-06	7.650884e-08	2.449219e-09	5.312203e-01	1.599139e+02
2.480000e-06	2.158663e-08	2.363141e-09	1.498814e-01	1.538818e+02
2.490000e-06	-3.336165e-08	2.269480e-09	-2.316384e-01	1.477034e+02
2.500000e-06	-8.831122e-08	2.172952e-09	-6.131673e-01	1.413694e+02
2.510000e-06	-1.432564e-07	2.077925e-09	-9.946656e-01	1.348700e+02
2.520000e-06	-1.981125e-07	1.973946e-09	-1.375545e+00	1.281957e+02
2.530000e-06	-2.529106e-07	1.865321e-09	-1.756023e+00	1.213375e+02
2.540000e-06	-3.076322e-07	1.756357e-09	-2.135968e+00	1.142867e+02
2.550000e-06	-3.622093e-07	1.651603e-09	-2.514911e+00	1.070357e+02
2.560000e-06	-4.166202e-07	1.544889e-09	-2.892700e+00	9.957715e+01
2.570000e-06	-4.708164e-07	1.429354e-09	-3.268998e+00	9.190390e+01
2.580000e-06	-5.247445e-07	1.308589e-09	-3.643435e+00	8.400812e+01
2.590000e-06	-5.783070e-07	1.186156e-09	-4.015332e+00	7.588061e+01
2.600000e-06	-6.314863e-07	1.059816e-09	-4.384570e+00	6.750998e+01
2.610000e-06	-6.842925e-07	9.272555e-10	-4.751217e+00	5.888188e+01
2.620000e-06	-7.366572e-07	7.880737e-10	-5.114798e+00	4.997860e+01
2.630000e-06	-7.885941e-07	6.451323e-10	-5.475409e+00	4.077894e+01
2.640000e-06	-8.402089e-07	5.030761e-10	-5.833784e+00	3.125864e+01
2.650000e-06	-8.915503e-07	3.549671e-10	-6.190260e+00	2.139139e+01
2.660000e-06	-9.426179e-07	1.995417e-10	-6.544836e+00	1.115038e+01
2.670000e-06	-9.933581e-07	3.884384e-11	-6.897138e+00	5.104949e-01
2.680000e-06	-1.043714e-06	-1.255950e-10	-7.246773e+00	-1.054921e+01
2.690000e-06	-1.093625e-06	-2.990470e-10	-7.593313e+00	-2.204264e+01
2.700000e-06	-1.143104e-06	-4.831663e-10	-7.936859e+00	-3.397387e+01
2.710000e-06	-1.192228e-06	-6.733251e-10	-8.277942e+00	-4.633449e+01
2.720000e-06	-1.240833e-06	-8.681019e-10	-8.615420e+00	-5.910156e+01
2.730000e-06	-1.288697e-06	-1.066669e-09	-8.947751e+00	-7.223619e+01
2.740000e-06	-1.335792e-06	-1.272296e-09	-9.274742e+00	-8.568305e+01
2.750000e-06	-1.382236e-06	-1.482830e-09	-9.597217e+00	-9.937102e+01
2.760000e-06	-1.428184e-06	-1.692212e-09	-9.916243e+00	-1.132148e+02
2.770000e-06	-1.473761e-06	-1.900929e-09	-1.023270e+01	-1.271177e+02
2.780000e-06	-1.519026e-06	-2.116276e-09	-1.054698e+01	-1.409751e+02
2.790000e-06	-1.563899e-06	-2.334053e-09	-1.085855e+01	-1.546787e+02
2.800000e-06	-1.608225e-06	-2.542982e-09	-1.116632e+01	-1.681215e+02
2.810000e-06	-1.651939e-06	-2.740639e-09	-1.146983e+01	-1.812018e+02
2.820000e-06	-1.695225e-06	-2.931392e-09	-1.177038e+01	-1.938281e+02
2.830000e-06	-1.738171e-06	-3.117056e-09	-1.206857e+01	-2.059225e+02
2.840000e-06	-1.780547e-06	-3.291808e-09	-1.236279e+01	-2.174237e+02
2.850000e-06	-1.822257e-06	-3.453775e-09	-1.265240e+01	-2.282887e+02
2.860000e-06	-1.863419e-06	-3.608445e-09	-1.293819e+01	-2.384935e+02
2.870000e-06	-1.903993e-06	-3.760499e-09	-1.321991e+01	-2.480321e+02
2.880000e-06	-1.943856e-06	-3.904355e-09	-1.349669e+01	-2.569153e+02
2.890000e-06	-1.983144e-06	-4.033142e-09	-1.376948e+01	-2.651681e+02
2.900000e-06	-2.021937e-06	-4.148476e-09	-1.403882e+01	-2.728262e+02
2.910000e-06	-2.059977e-06	-4.255853e-09	-1.430295e+01	-2.799329e+02
2.920000e-06	-2.096947e-06	-4.356659e-09	-1.455964e+01	-2.865352e+02
2.930000e-06	-2.132870e-06	-4.450935e-09	-1.480906e+01	-2.926809e+02
2.940000e-06	-2.168102e-06	-4.540628e-09	-1.505369e+01	-2.984153e+02
