# Temperatura_=_24.9
# Concentracion g/m^3_=_15500.0
# C_Vs_to_Am_M_A/Vsm_=_65563218390.804596
# pendiente_HvsI_1/m_=_3716.3
# ordenada_HvsI_A/m_=_1297.0
# frecuencia_Hz_=_300844.3370097057

Tiempo_(s)	Campo_(V.s)	Magnetizacion_(V.s)	Campo_(kA/m)	Magnetizacion_(A/m)
0.000000e+00	-2.854287e-06	-5.710118e-09	-1.980679e+01	-3.714587e+02
1.000000e-08	-2.853972e-06	-5.707318e-09	-1.980460e+01	-3.714014e+02
2.000000e-08	-2.852900e-06	-5.703941e-09	-1.979716e+01	-3.712615e+02
3.000000e-08	-2.850693e-06	-5.699272e-09	-1.978185e+01	-3.710391e+02
4.000000e-08	-2.847263e-06	-5.695785e-09	-1.975804e+01	-3.707366e+02
5.000000e-08	-2.842955e-06	-5.690229e-09	-1.972815e+01	-3.703593e+02
6.000000e-08	-2.837858e-06	-5.677728e-09	-1.969278e+01	-3.699149e+02
7.000000e-08	-2.831869e-06	-5.651806e-09	-1.965122e+01	-3.694130e+02
8.000000e-08	-2.824894e-06	-5.652014e-09	-1.960282e+01	-3.688645e+02
9.000000e-08	-2.816839e-06	-5.717903e-09	-1.954692e+01	-3.682803e+02
1.000000e-07	-2.807476e-06	-5.759529e-09	-1.948195e+01	-3.676705e+02
1.100000e-07	-2.796653e-06	-5.608110e-09	-1.940684e+01	-3.670429e+02
1.200000e-07	-2.784781e-06	-5.490436e-09	-1.932446e+01	-3.664023e+02
1.300000e-07	-2.772157e-06	-5.615001e-09	-1.923686e+01	-3.657499e+02
1.400000e-07	-2.758605e-06	-5.744912e-09	-1.914282e+01	-3.650828e+02
1.500000e-07	-2.744052e-06	-5.512096e-09	-1.904183e+01	-3.643945e+02
1.600000e-07	-2.728467e-06	-5.465665e-09	-1.893368e+01	-3.636754e+02
1.700000e-07	-2.711556e-06	-5.690305e-09	-1.881633e+01	-3.629133e+02
1.800000e-07	-2.693482e-06	-5.529605e-09	-1.869091e+01	-3.620953e+02
1.900000e-07	-2.674731e-06	-5.396334e-09	-1.856079e+01	-3.612086e+02
2.000000e-07	-2.655204e-06	-5.542750e-09	-1.842528e+01	-3.602418e+02
2.100000e-07	-2.634723e-06	-5.486525e-09	-1.828317e+01	-3.591862e+02
2.200000e-07	-2.613459e-06	-5.314033e-09	-1.813561e+01	-3.580363e+02
2.300000e-07	-2.591410e-06	-5.460005e-09	-1.798260e+01	-3.567906e+02
2.400000e-07	-2.568376e-06	-5.507909e-09	-1.782276e+01	-3.554512e+02
2.500000e-07	-2.544448e-06	-5.336713e-09	-1.765672e+01	-3.540238e+02
2.600000e-07	-2.519791e-06	-5.332367e-09	-1.748561e+01	-3.525165e+02
2.700000e-07	-2.494257e-06	-5.379330e-09	-1.730843e+01	-3.509389e+02
2.800000e-07	-2.467575e-06	-5.280226e-09	-1.712327e+01	-3.493010e+02
2.900000e-07	-2.439775e-06	-5.275445e-09	-1.693036e+01	-3.476119e+02
3.000000e-07	-2.411044e-06	-5.250051e-09	-1.673099e+01	-3.458792e+02
3.100000e-07	-2.381532e-06	-5.213856e-09	-1.652619e+01	-3.441075e+02
3.200000e-07	-2.351326e-06	-5.272232e-09	-1.631658e+01	-3.422986e+02
3.300000e-07	-2.320376e-06	-5.177850e-09	-1.610181e+01	-3.404514e+02
3.400000e-07	-2.288644e-06	-5.102966e-09	-1.588162e+01	-3.385620e+02
3.500000e-07	-2.256237e-06	-5.122760e-09	-1.565673e+01	-3.366245e+02
3.600000e-07	-2.223262e-06	-5.071298e-09	-1.542791e+01	-3.346317e+02
3.700000e-07	-2.189428e-06	-5.026204e-09	-1.519312e+01	-3.325765e+02
3.800000e-07	-2.154390e-06	-5.058687e-09	-1.494998e+01	-3.304522e+02
3.900000e-07	-2.118361e-06	-4.982306e-09	-1.469997e+01	-3.282536e+02
4.000000e-07	-2.081714e-06	-4.928026e-09	-1.444566e+01	-3.259779e+02
4.100000e-07	-2.044442e-06	-4.953361e-09	-1.418702e+01	-3.236241e+02
4.200000e-07	-2.006446e-06	-4.890023e-09	-1.392336e+01	-3.211936e+02
4.300000e-07	-1.967754e-06	-4.813698e-09	-1.365486e+01	-3.186898e+02
4.400000e-07	-1.928321e-06	-4.797390e-09	-1.338122e+01	-3.161170e+02
4.500000e-07	-1.888224e-06	-4.780086e-09	-1.310297e+01	-3.134801e+02
4.600000e-07	-1.847740e-06	-4.725928e-09	-1.282204e+01	-3.107836e+02
4.700000e-07	-1.806846e-06	-4.687133e-09	-1.253827e+01	-3.080310e+02
4.800000e-07	-1.765120e-06	-4.635282e-09	-1.224871e+01	-3.052242e+02
4.900000e-07	-1.722278e-06	-4.597977e-09	-1.195142e+01	-3.023630e+02
5.000000e-07	-1.678534e-06	-4.562998e-09	-1.164787e+01	-2.994455e+02
5.100000e-07	-1.634240e-06	-4.505034e-09	-1.134050e+01	-2.964679e+02
5.200000e-07	-1.589540e-06	-4.448700e-09	-1.103031e+01	-2.934252e+02
5.300000e-07	-1.544412e-06	-4.408739e-09	-1.071715e+01	-2.903118e+02
5.400000e-07	-1.498737e-06	-4.365813e-09	-1.040020e+01	-2.871223e+02
5.500000e-07	-1.452467e-06	-4.309599e-09	-1.007912e+01	-2.838518e+02
5.600000e-07	-1.405687e-06	-4.262757e-09	-9.754497e+00	-2.804968e+02
5.700000e-07	-1.358397e-06	-4.198539e-09	-9.426342e+00	-2.770555e+02
5.800000e-07	-1.310623e-06	-4.151484e-09	-9.094821e+00	-2.735278e+02
5.900000e-07	-1.262446e-06	-4.108897e-09	-8.760509e+00	-2.699151e+02
6.000000e-07	-1.213894e-06	-4.045704e-09	-8.423591e+00	-2.662200e+02
6.100000e-07	-1.164936e-06	-3.977232e-09	-8.083851e+00	-2.624458e+02
6.200000e-07	-1.115450e-06	-3.921444e-09	-7.740456e+00	-2.585955e+02
6.300000e-07	-1.065362e-06	-3.867649e-09	-7.392881e+00	-2.546717e+02
6.400000e-07	-1.014671e-06	-3.798395e-09	-7.041115e+00	-2.506756e+02
6.500000e-07	-9.634443e-07	-3.731620e-09	-6.685639e+00	-2.466069e+02
6.600000e-07	-9.117507e-07	-3.668047e-09	-6.326922e+00	-2.424635e+02
6.700000e-07	-8.596782e-07	-3.613443e-09	-5.965574e+00	-2.382415e+02
6.800000e-07	-8.073233e-07	-3.549209e-09	-5.602267e+00	-2.339360e+02
6.900000e-07	-7.547326e-07	-3.475431e-09	-5.237325e+00	-2.295410e+02
7.000000e-07	-7.018715e-07	-3.402395e-09	-4.870505e+00	-2.250504e+02
7.100000e-07	-6.487249e-07	-3.335657e-09	-4.501704e+00	-2.204584e+02
7.200000e-07	-5.953656e-07	-3.267588e-09	-4.131427e+00	-2.157601e+02
7.300000e-07	-5.418139e-07	-3.190738e-09	-3.759815e+00	-2.109520e+02
7.400000e-07	-4.880581e-07	-3.114027e-09	-3.386787e+00	-2.060318e+02
7.500000e-07	-4.340997e-07	-3.035036e-09	-3.012353e+00	-2.009985e+02
7.600000e-07	-3.799792e-07	-2.959464e-09	-2.636794e+00	-1.958522e+02
7.700000e-07	-3.257229e-07	-2.877481e-09	-2.260292e+00	-1.905930e+02
7.800000e-07	-2.713571e-07	-2.789822e-09	-1.883031e+00	-1.852209e+02
7.900000e-07	-2.169239e-07	-2.705015e-09	-1.505303e+00	-1.797347e+02
8.000000e-07	-1.624563e-07	-2.626540e-09	-1.127335e+00	-1.741319e+02
8.100000e-07	-1.079604e-07	-2.542285e-09	-7.491709e-01	-1.684077e+02
8.200000e-07	-5.345285e-08	-2.446172e-09	-3.709259e-01	-1.625551e+02
8.300000e-07	1.085276e-09	-2.350446e-09	7.531064e-03	-1.565654e+02
8.400000e-07	5.566209e-08	-2.256364e-09	3.862565e-01	-1.504276e+02
8.500000e-07	1.101916e-07	-2.160960e-09	7.646540e-01	-1.441301e+02
8.600000e-07	1.646810e-07	-2.055557e-09	1.142773e+00	-1.376605e+02
8.700000e-07	2.191859e-07	-1.949665e-09	1.520999e+00	-1.310068e+02
8.800000e-07	2.736402e-07	-1.849082e-09	1.898875e+00	-1.241576e+02
8.900000e-07	3.279536e-07	-1.747906e-09	2.275772e+00	-1.171027e+02
9.000000e-07	3.821535e-07	-1.634537e-09	2.651882e+00	-1.098331e+02
9.100000e-07	4.362515e-07	-1.513135e-09	3.027285e+00	-1.023403e+02
9.200000e-07	4.901765e-07	-1.396204e-09	3.401487e+00	-9.461590e+01
9.300000e-07	5.438896e-07	-1.278714e-09	3.774219e+00	-8.665035e+01
9.400000e-07	5.973628e-07	-1.154121e-09	4.145286e+00	-7.843200e+01
9.500000e-07	6.506037e-07	-1.017635e-09	4.514741e+00	-6.994580e+01
9.600000e-07	7.036004e-07	-8.789358e-10	4.882502e+00	-6.117250e+01
9.700000e-07	7.563391e-07	-7.416427e-10	5.248472e+00	-5.208814e+01
9.800000e-07	8.088307e-07	-6.022962e-10	5.612728e+00	-4.266416e+01
9.900000e-07	8.610866e-07	-4.528492e-10	5.975348e+00	-3.286833e+01
1.000000e-06	9.130355e-07	-2.928453e-10	6.335837e+00	-2.266634e+01
1.010000e-06	9.645421e-07	-1.279644e-10	6.693258e+00	-1.202428e+01
1.020000e-06	1.015500e-06	4.129740e-11	7.046872e+00	-9.116161e-01
1.030000e-06	1.065816e-06	2.165660e-10	7.396028e+00	1.069523e+01
1.040000e-06	1.115453e-06	4.027276e-10	7.740476e+00	2.280933e+01
1.050000e-06	1.164514e-06	5.968028e-10	8.080923e+00	3.542975e+01
1.060000e-06	1.213222e-06	7.978806e-10	8.418925e+00	4.853861e+01
1.070000e-06	1.261666e-06	1.003470e-09	8.755094e+00	6.209905e+01
1.080000e-06	1.309776e-06	1.215179e-09	9.088942e+00	7.605417e+01
1.090000e-06	1.357415e-06	1.434028e-09	9.419527e+00	9.032744e+01
1.100000e-06	1.404537e-06	1.655039e-09	9.746518e+00	1.048243e+02
1.110000e-06	1.451177e-06	1.874796e-09	1.007017e+01	1.194354e+02
1.120000e-06	1.497308e-06	2.093040e-09	1.039028e+01	1.340405e+02
1.130000e-06	1.542929e-06	2.312538e-09	1.070686e+01	1.485138e+02
1.140000e-06	1.588075e-06	2.528851e-09	1.102015e+01	1.627295e+02
1.150000e-06	1.632780e-06	2.739841e-09	1.133037e+01	1.765676e+02
1.160000e-06	1.677085e-06	2.942192e-09	1.163782e+01	1.899193e+02
1.170000e-06	1.720900e-06	3.133826e-09	1.194186e+01	2.026915e+02
1.180000e-06	1.763895e-06	3.314938e-09	1.224022e+01	2.148108e+02
1.190000e-06	1.805861e-06	3.485834e-09	1.253143e+01	2.262255e+02
1.200000e-06	1.847033e-06	3.645559e-09	1.281713e+01	2.369067e+02
1.210000e-06	1.887670e-06	3.795753e-09	1.309913e+01	2.468473e+02
1.220000e-06	1.927788e-06	3.937264e-09	1.337752e+01	2.560604e+02
1.230000e-06	1.967257e-06	4.067932e-09	1.365141e+01	2.645760e+02
1.240000e-06	2.006071e-06	4.187351e-09	1.392075e+01	2.724373e+02
1.250000e-06	2.044192e-06	4.293467e-09	1.418528e+01	2.796962e+02
1.260000e-06	2.081558e-06	4.392148e-09	1.444458e+01	2.864090e+02
1.270000e-06	2.118331e-06	4.485848e-09	1.469976e+01	2.926325e+02
1.280000e-06	2.154568e-06	4.573063e-09	1.495121e+01	2.984204e+02
1.290000e-06	2.190022e-06	4.651544e-09	1.519724e+01	3.038209e+02
1.300000e-06	2.224429e-06	4.723830e-09	1.543600e+01	3.088747e+02
1.310000e-06	2.257816e-06	4.793469e-09	1.566768e+01	3.136150e+02
1.320000e-06	2.290429e-06	4.862062e-09	1.589400e+01	3.180670e+02
1.330000e-06	2.322396e-06	4.929181e-09	1.611583e+01	3.222497e+02
1.340000e-06	2.353637e-06	4.989243e-09	1.633262e+01	3.261764e+02
1.350000e-06	2.384088e-06	5.039789e-09	1.654393e+01	3.298575e+02
1.360000e-06	2.413686e-06	5.083851e-09	1.674932e+01	3.333014e+02
1.370000e-06	2.442539e-06	5.129508e-09	1.694954e+01	3.365164e+02
1.380000e-06	2.470766e-06	5.177302e-09	1.714542e+01	3.395119e+02
1.390000e-06	2.498031e-06	5.219827e-09	1.733461e+01	3.422992e+02
1.400000e-06	2.524038e-06	5.253566e-09	1.751508e+01	3.448910e+02
1.410000e-06	2.548957e-06	5.285730e-09	1.768800e+01	3.473022e+02
1.420000e-06	2.573015e-06	5.320474e-09	1.785495e+01	3.495481e+02
1.430000e-06	2.596235e-06	5.353119e-09	1.801608e+01	3.516445e+02
1.440000e-06	2.618542e-06	5.381209e-09	1.817088e+01	3.536060e+02
1.450000e-06	2.639983e-06	5.406526e-09	1.831966e+01	3.554457e+02
1.460000e-06	2.660739e-06	5.433626e-09	1.846370e+01	3.571741e+02
1.470000e-06	2.680734e-06	5.459179e-09	1.860245e+01	3.587992e+02
1.480000e-06	2.699715e-06	5.479665e-09	1.873416e+01	3.603261e+02
1.490000e-06	2.717722e-06	5.496816e-09	1.885912e+01	3.617574e+02
1.500000e-06	2.734826e-06	5.515642e-09	1.897781e+01	3.630941e+02
1.510000e-06	2.750923e-06	5.537628e-09	1.908951e+01	3.643357e+02
1.520000e-06	2.765935e-06	5.556387e-09	1.919369e+01	3.654819e+02
1.530000e-06	2.779857e-06	5.570210e-09	1.929030e+01	3.665323e+02
1.540000e-06	2.792765e-06	5.583136e-09	1.937987e+01	3.674879e+02
1.550000e-06	2.804582e-06	5.598685e-09	1.946186e+01	3.683506e+02
1.560000e-06	2.815067e-06	5.613757e-09	1.953463e+01	3.691238e+02
1.570000e-06	2.824378e-06	5.624710e-09	1.959924e+01	3.698119e+02
1.580000e-06	2.832792e-06	5.632901e-09	1.965763e+01	3.704197e+02
1.590000e-06	2.840237e-06	5.640826e-09	1.970929e+01	3.709521e+02
1.600000e-06	2.846610e-06	5.648879e-09	1.975351e+01	3.714134e+02
1.610000e-06	2.852034e-06	5.654388e-09	1.979115e+01	3.718065e+02
1.620000e-06	2.856681e-06	5.657663e-09	1.982340e+01	3.721326e+02
1.630000e-06	2.860418e-06	5.663042e-09	1.984933e+01	3.723913e+02
1.640000e-06	2.862921e-06	5.670359e-09	1.986670e+01	3.725806e+02
1.650000e-06	2.864242e-06	5.675041e-09	1.987586e+01	3.726971e+02
1.660000e-06	2.864622e-06	5.673925e-09	1.987850e+01	3.727372e+02
1.670000e-06	2.864096e-06	5.670185e-09	1.987485e+01	3.726973e+02
1.680000e-06	2.862685e-06	5.667497e-09	1.986506e+01	3.725752e+02
1.690000e-06	2.860414e-06	5.666179e-09	1.984930e+01	3.723704e+02
1.700000e-06	2.857391e-06	5.662233e-09	1.982832e+01	3.720847e+02
1.710000e-06	2.853553e-06	5.656477e-09	1.980169e+01	3.717229e+02
1.720000e-06	2.848566e-06	5.658707e-09	1.976709e+01	3.712921e+02
1.730000e-06	2.842409e-06	5.684044e-09	1.972436e+01	3.708016e+02
1.740000e-06	2.835345e-06	5.654859e-09	1.967534e+01	3.702622e+02
1.750000e-06	2.827338e-06	5.552377e-09	1.961977e+01	3.696848e+02
1.760000e-06	2.817898e-06	5.519252e-09	1.955427e+01	3.690797e+02
1.770000e-06	2.806910e-06	5.699402e-09	1.947802e+01	3.684554e+02
1.780000e-06	2.795214e-06	5.712707e-09	1.939686e+01	3.678174e+02
1.790000e-06	2.783383e-06	5.498803e-09	1.931476e+01	3.671676e+02
1.800000e-06	2.770538e-06	5.503145e-09	1.922562e+01	3.665041e+02
1.810000e-06	2.756034e-06	5.677477e-09	1.912498e+01	3.658211e+02
1.820000e-06	2.740595e-06	5.561951e-09	1.901784e+01	3.651095e+02
1.830000e-06	2.724494e-06	5.368047e-09	1.890611e+01	3.643577e+02
1.840000e-06	2.707143e-06	5.603903e-09	1.878570e+01	3.635528e+02
1.850000e-06	2.688630e-06	5.638998e-09	1.865724e+01	3.626819e+02
1.860000e-06	2.669533e-06	5.354852e-09	1.852472e+01	3.617331e+02
1.870000e-06	2.649534e-06	5.507180e-09	1.838594e+01	3.606970e+02
1.880000e-06	2.628270e-06	5.618510e-09	1.823838e+01	3.595676e+02
1.890000e-06	2.606019e-06	5.323092e-09	1.808398e+01	3.583424e+02
1.900000e-06	2.582789e-06	5.350882e-09	1.792278e+01	3.570227e+02
1.910000e-06	2.558591e-06	5.489075e-09	1.775486e+01	3.556136e+02
1.920000e-06	2.533738e-06	5.366067e-09	1.758240e+01	3.541226e+02
1.930000e-06	2.508028e-06	5.335235e-09	1.740399e+01	3.525592e+02
1.940000e-06	2.481378e-06	5.375063e-09	1.721906e+01	3.509334e+02
1.950000e-06	2.454130e-06	5.299175e-09	1.702997e+01	3.492546e+02
1.960000e-06	2.425934e-06	5.313188e-09	1.683431e+01	3.475308e+02
1.970000e-06	2.396510e-06	5.250772e-09	1.663013e+01	3.457671e+02
1.980000e-06	2.366090e-06	5.138491e-09	1.641904e+01	3.439662e+02
1.990000e-06	2.334874e-06	5.250798e-09	1.620242e+01	3.421275e+02
2.000000e-06	2.302999e-06	5.203643e-09	1.598123e+01	3.402476e+02
2.010000e-06	2.270398e-06	5.092697e-09	1.575500e+01	3.383209e+02
2.020000e-06	2.236940e-06	5.166743e-09	1.552282e+01	3.363407e+02
2.030000e-06	2.202725e-06	5.081530e-09	1.528539e+01	3.342994e+02
2.040000e-06	2.167882e-06	4.996774e-09	1.504360e+01	3.321904e+02
2.050000e-06	2.132359e-06	5.066517e-09	1.479710e+01	3.300081e+02
2.060000e-06	2.096159e-06	4.978078e-09	1.454590e+01	3.277490e+02
2.070000e-06	2.058993e-06	4.905860e-09	1.428800e+01	3.254119e+02
2.080000e-06	2.020673e-06	4.941226e-09	1.402208e+01	3.229977e+02
2.090000e-06	1.981627e-06	4.885594e-09	1.375113e+01	3.205092e+02
2.100000e-06	1.942081e-06	4.835931e-09	1.347670e+01	3.179508e+02
2.110000e-06	1.901901e-06	4.790396e-09	1.319789e+01	3.153272e+02
2.120000e-06	1.861064e-06	4.742180e-09	1.291450e+01	3.126432e+02
2.130000e-06	1.819639e-06	4.723859e-09	1.262704e+01	3.099024e+02
2.140000e-06	1.777625e-06	4.668736e-09	1.233549e+01	3.071071e+02
2.150000e-06	1.734985e-06	4.618039e-09	1.203960e+01	3.042577e+02
2.160000e-06	1.691870e-06	4.584422e-09	1.174041e+01	3.013525e+02
2.170000e-06	1.648335e-06	4.544820e-09	1.143831e+01	2.983882e+02
2.180000e-06	1.604220e-06	4.500333e-09	1.113218e+01	2.953599e+02
2.190000e-06	1.559462e-06	4.444925e-09	1.082159e+01	2.922622e+02
2.200000e-06	1.514061e-06	4.391273e-09	1.050654e+01	2.890894e+02
2.210000e-06	1.468160e-06	4.341081e-09	1.018802e+01	2.858366e+02
2.220000e-06	1.421891e-06	4.289187e-09	9.866947e+00	2.824999e+02
2.230000e-06	1.375228e-06	4.255050e-09	9.543134e+00	2.790772e+02
2.240000e-06	1.328062e-06	4.190922e-09	9.215832e+00	2.755680e+02
2.250000e-06	1.280205e-06	4.128939e-09	8.883742e+00	2.719733e+02
2.260000e-06	1.231762e-06	4.095234e-09	8.547581e+00	2.682956e+02
2.270000e-06	1.182871e-06	4.030867e-09	8.208311e+00	2.645380e+02
2.280000e-06	1.133541e-06	3.965497e-09	7.865995e+00	2.607038e+02
2.290000e-06	1.083837e-06	3.904082e-09	7.521080e+00	2.567956e+02
2.300000e-06	1.033695e-06	3.848711e-09	7.173134e+00	2.528150e+02
2.310000e-06	9.831379e-07	3.796326e-09	6.822299e+00	2.487619e+02
2.320000e-06	9.322530e-07	3.725543e-09	6.469194e+00	2.446348e+02
2.330000e-06	8.810777e-07	3.655059e-09	6.114073e+00	2.404301e+02
2.340000e-06	8.296469e-07	3.591208e-09	5.757178e+00	2.361430e+02
2.350000e-06	7.778744e-07	3.527573e-09	5.397912e+00	2.317677e+02
2.360000e-06	7.256469e-07	3.462968e-09	5.035489e+00	2.272980e+02
2.370000e-06	6.730256e-07	3.391603e-09	4.670334e+00	2.227282e+02
2.380000e-06	6.199865e-07	3.320049e-09	4.302279e+00	2.180530e+02
2.390000e-06	5.666099e-07	3.249758e-09	3.931882e+00	2.132687e+02
2.400000e-06	5.129251e-07	3.174242e-09	3.559347e+00	2.083726e+02
2.410000e-06	4.588635e-07	3.098613e-09	3.184196e+00	2.033636e+02
2.420000e-06	4.045660e-07	3.015945e-09	2.807409e+00	1.982415e+02
2.430000e-06	3.500746e-07	2.936678e-09	2.429277e+00	1.930065e+02
2.440000e-06	2.954000e-07	2.863919e-09	2.049873e+00	1.876586e+02
2.450000e-06	2.406037e-07	2.781376e-09	1.669624e+00	1.821971e+02
2.460000e-06	1.857394e-07	2.691581e-09	1.288903e+00	1.766196e+02
2.470000e-06	1.308523e-07	2.602048e-09	9.080251e-01	1.709219e+02
2.480000e-06	7.595376e-08	2.520080e-09	5.270668e-01	1.650975e+02
2.490000e-06	2.101214e-08	2.434280e-09	1.458097e-01	1.591380e+02
2.500000e-06	-3.399280e-08	2.336839e-09	-2.358866e-01	1.530329e+02
2.510000e-06	-8.898348e-08	2.238115e-09	-6.174841e-01	1.467707e+02
2.520000e-06	-1.439260e-07	2.143762e-09	-9.987474e-01	1.403390e+02
2.530000e-06	-1.988340e-07	2.047345e-09	-1.379771e+00	1.337257e+02
2.540000e-06	-2.536717e-07	1.943076e-09	-1.760307e+00	1.269193e+02
2.550000e-06	-3.084075e-07	1.834392e-09	-2.140136e+00	1.199093e+02
2.560000e-06	-3.629622e-07	1.725500e-09	-2.518708e+00	1.126865e+02
2.570000e-06	-4.173250e-07	1.616786e-09	-2.895948e+00	1.052422e+02
2.580000e-06	-4.715132e-07	1.500804e-09	-3.271977e+00	9.756816e+01
2.590000e-06	-5.254954e-07	1.378815e-09	-3.646576e+00	8.965518e+01
2.600000e-06	-5.791737e-07	1.253604e-09	-4.019066e+00	8.149214e+01
2.610000e-06	-6.323764e-07	1.127571e-09	-4.388256e+00	7.306480e+01
2.620000e-06	-6.851177e-07	9.965596e-10	-4.754245e+00	6.435488e+01
2.630000e-06	-7.374524e-07	8.563671e-10	-5.117412e+00	5.533944e+01
2.640000e-06	-7.893958e-07	7.112847e-10	-5.477863e+00	4.599085e+01
2.650000e-06	-8.410223e-07	5.645797e-10	-5.836115e+00	3.627755e+01
2.660000e-06	-8.923760e-07	4.147171e-10	-6.192475e+00	2.616551e+01
2.670000e-06	-9.434920e-07	2.553324e-10	-6.547185e+00	1.562049e+01
2.680000e-06	-9.943289e-07	8.870371e-11	-6.899957e+00	4.610950e+00
2.690000e-06	-1.044734e-06	-8.436571e-11	-7.249734e+00	-6.888485e+00
2.700000e-06	-1.094685e-06	-2.665570e-10	-7.596361e+00	-1.889344e+01
2.710000e-06	-1.144249e-06	-4.593581e-10	-7.940299e+00	-3.140624e+01
2.720000e-06	-1.193381e-06	-6.591860e-10	-8.281245e+00	-4.441287e+01
2.730000e-06	-1.241996e-06	-8.635010e-10	-8.618598e+00	-5.788064e+01
2.740000e-06	-1.289919e-06	-1.073085e-09	-8.951150e+00	-7.175697e+01
2.750000e-06	-1.337122e-06	-1.288226e-09	-9.278705e+00	-8.596945e+01
2.760000e-06	-1.383665e-06	-1.509408e-09	-9.601685e+00	-1.004272e+02
2.770000e-06	-1.429614e-06	-1.733455e-09	-9.920538e+00	-1.150236e+02
2.780000e-06	-1.475215e-06	-1.958731e-09	-1.023698e+01	-1.296404e+02
2.790000e-06	-1.520535e-06	-2.183258e-09	-1.055146e+01	-1.441527e+02
2.800000e-06	-1.565430e-06	-2.405980e-09	-1.086301e+01	-1.584339e+02
2.810000e-06	-1.609749e-06	-2.622912e-09	-1.117055e+01	-1.723626e+02
2.820000e-06	-1.653480e-06	-2.830636e-09	-1.147402e+01	-1.858269e+02
2.830000e-06	-1.696811e-06	-3.027987e-09	-1.177470e+01	-1.987302e+02
2.840000e-06	-1.739715e-06	-3.213101e-09	-1.207242e+01	-2.109945e+02
2.850000e-06	-1.782083e-06	-3.387913e-09	-1.236643e+01	-2.225634e+02
2.860000e-06	-1.823890e-06	-3.553792e-09	-1.265654e+01	-2.334031e+02
2.870000e-06	-1.865117e-06	-3.710212e-09	-1.294263e+01	-2.435019e+02
2.880000e-06	-1.905645e-06	-3.856206e-09	-1.322386e+01	-2.528689e+02
2.890000e-06	-1.945481e-06	-3.992800e-09	-1.350030e+01	-2.615308e+02
2.900000e-06	-1.984849e-06	-4.120607e-09	-1.377348e+01	-2.695281e+02
2.910000e-06	-2.023656e-06	-4.240155e-09	-1.404278e+01	-2.769114e+02
2.920000e-06	-2.061576e-06	-4.347231e-09	-1.430592e+01	-2.837365e+02
2.930000e-06	-2.098414e-06	-4.439806e-09	-1.456155e+01	-2.900601e+02
2.940000e-06	-2.134334e-06	-4.525376e-09	-1.481081e+01	-2.959371e+02
