# Temperatura_=_21.6
# Concentracion g/m^3_=_15500.0
# C_Vs_to_Am_M_A/Vsm_=_65563218390.804596
# pendiente_HvsI_1/m_=_3716.3
# ordenada_HvsI_A/m_=_1297.0
# frecuencia_Hz_=_300830.0490509013

Tiempo_(s)	Campo_(V.s)	Magnetizacion_(V.s)	Campo_(kA/m)	Magnetizacion_(A/m)
0.000000e+00	-2.857152e-06	-5.924260e-09	-1.980603e+01	-3.866095e+02
1.000000e-08	-2.856745e-06	-5.922186e-09	-1.980321e+01	-3.865371e+02
2.000000e-08	-2.855574e-06	-5.920171e-09	-1.979510e+01	-3.863795e+02
3.000000e-08	-2.853325e-06	-5.916378e-09	-1.977951e+01	-3.861363e+02
4.000000e-08	-2.849769e-06	-5.911179e-09	-1.975485e+01	-3.858089e+02
5.000000e-08	-2.845273e-06	-5.903676e-09	-1.972369e+01	-3.854014e+02
6.000000e-08	-2.840003e-06	-5.891878e-09	-1.968715e+01	-3.849200e+02
7.000000e-08	-2.833855e-06	-5.869043e-09	-1.964454e+01	-3.843732e+02
8.000000e-08	-2.826735e-06	-5.868500e-09	-1.959518e+01	-3.837705e+02
9.000000e-08	-2.818505e-06	-5.919780e-09	-1.953813e+01	-3.831223e+02
1.000000e-07	-2.809075e-06	-5.962983e-09	-1.947276e+01	-3.824383e+02
1.100000e-07	-2.798304e-06	-5.851195e-09	-1.939809e+01	-3.817267e+02
1.200000e-07	-2.786393e-06	-5.729492e-09	-1.931553e+01	-3.809932e+02
1.300000e-07	-2.773703e-06	-5.805901e-09	-1.922756e+01	-3.802406e+02
1.400000e-07	-2.760104e-06	-5.905025e-09	-1.913328e+01	-3.794680e+02
1.500000e-07	-2.745507e-06	-5.772977e-09	-1.903210e+01	-3.786709e+02
1.600000e-07	-2.729888e-06	-5.685418e-09	-1.892383e+01	-3.778420e+02
1.700000e-07	-2.712876e-06	-5.860905e-09	-1.880590e+01	-3.769709e+02
1.800000e-07	-2.694675e-06	-5.815496e-09	-1.867973e+01	-3.760463e+02
1.900000e-07	-2.675859e-06	-5.672808e-09	-1.854930e+01	-3.750562e+02
2.000000e-07	-2.656322e-06	-5.754535e-09	-1.841386e+01	-3.739892e+02
2.100000e-07	-2.635813e-06	-5.735236e-09	-1.827169e+01	-3.728361e+02
2.200000e-07	-2.614494e-06	-5.601563e-09	-1.812391e+01	-3.715901e+02
2.300000e-07	-2.592345e-06	-5.663463e-09	-1.797037e+01	-3.702478e+02
2.400000e-07	-2.569191e-06	-5.724298e-09	-1.780986e+01	-3.688093e+02
2.500000e-07	-2.545191e-06	-5.604433e-09	-1.764349e+01	-3.672778e+02
2.600000e-07	-2.520393e-06	-5.550066e-09	-1.747159e+01	-3.656592e+02
2.700000e-07	-2.494682e-06	-5.582204e-09	-1.729336e+01	-3.639614e+02
2.800000e-07	-2.467889e-06	-5.543573e-09	-1.710762e+01	-3.621930e+02
2.900000e-07	-2.440020e-06	-5.492673e-09	-1.691443e+01	-3.603626e+02
3.000000e-07	-2.411249e-06	-5.469308e-09	-1.671499e+01	-3.584774e+02
3.100000e-07	-2.381682e-06	-5.450597e-09	-1.651003e+01	-3.565431e+02
3.200000e-07	-2.351416e-06	-5.469814e-09	-1.630023e+01	-3.545623e+02
3.300000e-07	-2.320422e-06	-5.392825e-09	-1.608538e+01	-3.525353e+02
3.400000e-07	-2.288637e-06	-5.324267e-09	-1.586504e+01	-3.504599e+02
3.500000e-07	-2.256147e-06	-5.334099e-09	-1.563981e+01	-3.483313e+02
3.600000e-07	-2.223035e-06	-5.276135e-09	-1.541028e+01	-3.461438e+02
3.700000e-07	-2.189090e-06	-5.238431e-09	-1.517497e+01	-3.438906e+02
3.800000e-07	-2.154006e-06	-5.253635e-09	-1.493176e+01	-3.415654e+02
3.900000e-07	-2.117873e-06	-5.178194e-09	-1.468128e+01	-3.391629e+02
4.000000e-07	-2.081095e-06	-5.109960e-09	-1.442633e+01	-3.366793e+02
4.100000e-07	-2.043751e-06	-5.137494e-09	-1.416747e+01	-3.341129e+02
4.200000e-07	-2.005651e-06	-5.081002e-09	-1.390335e+01	-3.314640e+02
4.300000e-07	-1.966792e-06	-4.991905e-09	-1.363398e+01	-3.287350e+02
4.400000e-07	-1.927201e-06	-4.967778e-09	-1.335953e+01	-3.259294e+02
4.500000e-07	-1.886986e-06	-4.944150e-09	-1.308075e+01	-3.230520e+02
4.600000e-07	-1.846392e-06	-4.893595e-09	-1.279936e+01	-3.201074e+02
4.700000e-07	-1.805389e-06	-4.845374e-09	-1.251512e+01	-3.170996e+02
4.800000e-07	-1.763626e-06	-4.794042e-09	-1.222561e+01	-3.140315e+02
4.900000e-07	-1.720812e-06	-4.748039e-09	-1.192882e+01	-3.109043e+02
5.000000e-07	-1.677034e-06	-4.709048e-09	-1.162535e+01	-3.077171e+02
5.100000e-07	-1.632674e-06	-4.647184e-09	-1.131784e+01	-3.044676e+02
5.200000e-07	-1.587963e-06	-4.591770e-09	-1.100790e+01	-3.011514e+02
5.300000e-07	-1.542768e-06	-4.543355e-09	-1.069460e+01	-2.977633e+02
5.400000e-07	-1.496975e-06	-4.497989e-09	-1.037717e+01	-2.942976e+02
5.500000e-07	-1.450597e-06	-4.447119e-09	-1.005567e+01	-2.907486e+02
5.600000e-07	-1.403726e-06	-4.383730e-09	-9.730757e+00	-2.871112e+02
5.700000e-07	-1.356325e-06	-4.312527e-09	-9.402163e+00	-2.833818e+02
5.800000e-07	-1.308387e-06	-4.259735e-09	-9.069856e+00	-2.795581e+02
5.900000e-07	-1.260097e-06	-4.213586e-09	-8.735102e+00	-2.756393e+02
6.000000e-07	-1.211524e-06	-4.141794e-09	-8.398394e+00	-2.716262e+02
6.100000e-07	-1.162627e-06	-4.075303e-09	-8.059434e+00	-2.675205e+02
6.200000e-07	-1.113239e-06	-4.020857e-09	-7.717075e+00	-2.633249e+02
6.300000e-07	-1.063142e-06	-3.960789e-09	-7.369793e+00	-2.590417e+02
6.400000e-07	-1.012350e-06	-3.884234e-09	-7.017703e+00	-2.546733e+02
6.500000e-07	-9.610366e-07	-3.805583e-09	-6.661992e+00	-2.502210e+02
6.600000e-07	-9.092072e-07	-3.736107e-09	-6.302705e+00	-2.456851e+02
6.700000e-07	-8.569812e-07	-3.673326e-09	-5.940670e+00	-2.410646e+02
6.800000e-07	-8.045655e-07	-3.603421e-09	-5.577320e+00	-2.363572e+02
6.900000e-07	-7.519175e-07	-3.521914e-09	-5.212359e+00	-2.315601e+02
7.000000e-07	-6.989890e-07	-3.445039e-09	-4.845454e+00	-2.266696e+02
7.100000e-07	-6.457779e-07	-3.372894e-09	-4.476590e+00	-2.216819e+02
7.200000e-07	-5.923011e-07	-3.297835e-09	-4.105884e+00	-2.165935e+02
7.300000e-07	-5.386667e-07	-3.211633e-09	-3.734085e+00	-2.114014e+02
7.400000e-07	-4.848213e-07	-3.125474e-09	-3.360825e+00	-2.061036e+02
7.500000e-07	-4.307504e-07	-3.044681e-09	-2.986000e+00	-2.006985e+02
7.600000e-07	-3.765507e-07	-2.964806e-09	-2.610283e+00	-1.951853e+02
7.700000e-07	-3.222382e-07	-2.877365e-09	-2.233784e+00	-1.895631e+02
7.800000e-07	-2.678459e-07	-2.782269e-09	-1.856732e+00	-1.838311e+02
7.900000e-07	-2.134034e-07	-2.692514e-09	-1.479331e+00	-1.779874e+02
8.000000e-07	-1.589217e-07	-2.608063e-09	-1.101659e+00	-1.720292e+02
8.100000e-07	-1.043964e-07	-2.518179e-09	-7.236854e-01	-1.659517e+02
8.200000e-07	-4.982703e-08	-2.417261e-09	-3.454054e-01	-1.597488e+02
8.300000e-07	4.745950e-09	-2.317652e-09	3.289935e-02	-1.534121e+02
8.400000e-07	5.931649e-08	-2.219247e-09	4.111872e-01	-1.469322e+02
8.500000e-07	1.138660e-07	-2.114823e-09	7.893290e-01	-1.402981e+02
8.600000e-07	1.683562e-07	-2.005091e-09	1.167060e+00	-1.334988e+02
8.700000e-07	2.228213e-07	-1.896164e-09	1.544617e+00	-1.265228e+02
8.800000e-07	2.772435e-07	-1.790615e-09	1.921877e+00	-1.193596e+02
8.900000e-07	3.316109e-07	-1.682102e-09	2.298756e+00	-1.119995e+02
9.000000e-07	3.859001e-07	-1.566352e-09	2.675094e+00	-1.044339e+02
9.100000e-07	4.399800e-07	-1.441520e-09	3.049981e+00	-9.665531e+01
9.200000e-07	4.938864e-07	-1.315577e-09	3.423665e+00	-8.865660e+01
9.300000e-07	5.476945e-07	-1.191718e-09	3.796667e+00	-8.043049e+01
9.400000e-07	6.013037e-07	-1.064933e-09	4.168291e+00	-7.196853e+01
9.500000e-07	6.546649e-07	-9.290832e-10	4.538195e+00	-6.326024e+01
9.600000e-07	7.077433e-07	-7.868586e-10	4.906140e+00	-5.429213e+01
9.700000e-07	7.605360e-07	-6.462249e-10	5.272103e+00	-4.504721e+01
9.800000e-07	8.130725e-07	-5.035978e-10	5.636291e+00	-3.550474e+01
9.900000e-07	8.653359e-07	-3.524077e-10	5.998586e+00	-2.564068e+01
1.000000e-06	9.172451e-07	-1.920482e-10	6.358425e+00	-1.542866e+01
1.010000e-06	9.686943e-07	-2.751945e-11	6.715076e+00	-4.841705e+00
1.020000e-06	1.019624e-06	1.399191e-10	7.068125e+00	6.145564e+00
1.030000e-06	1.069949e-06	3.102861e-10	7.416983e+00	1.755416e+01
1.040000e-06	1.119601e-06	4.894778e-10	7.761176e+00	2.939779e+01
1.050000e-06	1.168702e-06	6.803590e-10	8.101549e+00	4.167986e+01
1.060000e-06	1.217458e-06	8.766561e-10	8.439527e+00	5.439079e+01
1.070000e-06	1.265930e-06	1.074363e-09	8.775541e+00	6.750585e+01
1.080000e-06	1.314128e-06	1.276967e-09	9.109654e+00	8.098383e+01
1.090000e-06	1.361927e-06	1.487952e-09	9.441002e+00	9.476667e+01
1.100000e-06	1.409183e-06	1.702458e-09	9.768581e+00	1.087803e+02
1.110000e-06	1.455874e-06	1.916910e-09	1.009225e+01	1.229364e+02
1.120000e-06	1.502050e-06	2.131157e-09	1.041234e+01	1.371355e+02
1.130000e-06	1.547680e-06	2.345694e-09	1.072866e+01	1.512709e+02
1.140000e-06	1.592733e-06	2.557475e-09	1.104096e+01	1.652329e+02
1.150000e-06	1.637407e-06	2.764100e-09	1.135065e+01	1.789136e+02
1.160000e-06	1.681758e-06	2.964016e-09	1.165809e+01	1.922119e+02
1.170000e-06	1.725546e-06	3.156817e-09	1.196164e+01	2.050376e+02
1.180000e-06	1.768477e-06	3.343808e-09	1.225924e+01	2.173150e+02
1.190000e-06	1.810412e-06	3.521523e-09	1.254994e+01	2.289856e+02
1.200000e-06	1.851568e-06	3.687111e-09	1.283523e+01	2.400096e+02
1.210000e-06	1.892218e-06	3.841834e-09	1.311703e+01	2.503661e+02
1.220000e-06	1.932368e-06	3.988472e-09	1.339535e+01	2.600525e+02
1.230000e-06	1.971870e-06	4.125948e-09	1.366918e+01	2.690822e+02
1.240000e-06	2.010693e-06	4.253199e-09	1.393830e+01	2.774820e+02
1.250000e-06	2.048795e-06	4.369691e-09	1.420243e+01	2.852891e+02
1.260000e-06	2.086147e-06	4.477665e-09	1.446136e+01	2.925469e+02
1.270000e-06	2.122954e-06	4.580348e-09	1.471651e+01	2.993025e+02
1.280000e-06	2.159250e-06	4.674820e-09	1.496811e+01	3.056024e+02
1.290000e-06	2.194748e-06	4.760431e-09	1.521419e+01	3.114910e+02
1.300000e-06	2.229117e-06	4.840520e-09	1.545244e+01	3.170080e+02
1.310000e-06	2.262427e-06	4.917908e-09	1.568335e+01	3.221876e+02
1.320000e-06	2.295001e-06	4.991963e-09	1.590915e+01	3.270578e+02
1.330000e-06	2.326912e-06	5.060445e-09	1.613036e+01	3.316414e+02
1.340000e-06	2.358102e-06	5.123394e-09	1.634657e+01	3.359558e+02
1.350000e-06	2.388512e-06	5.182704e-09	1.655738e+01	3.400151e+02
1.360000e-06	2.418098e-06	5.236708e-09	1.676247e+01	3.438305e+02
1.370000e-06	2.446984e-06	5.286720e-09	1.696271e+01	3.474123e+02
1.380000e-06	2.475192e-06	5.337470e-09	1.715825e+01	3.507702e+02
1.390000e-06	2.502371e-06	5.387759e-09	1.734666e+01	3.539146e+02
1.400000e-06	2.528328e-06	5.432581e-09	1.752659e+01	3.568567e+02
1.410000e-06	2.553241e-06	5.470507e-09	1.769929e+01	3.596084e+02
1.420000e-06	2.577264e-06	5.506492e-09	1.786582e+01	3.621821e+02
1.430000e-06	2.600464e-06	5.541675e-09	1.802665e+01	3.645902e+02
1.440000e-06	2.622789e-06	5.574621e-09	1.818140e+01	3.668447e+02
1.450000e-06	2.644272e-06	5.605232e-09	1.833033e+01	3.689560e+02
1.460000e-06	2.665022e-06	5.634019e-09	1.847417e+01	3.709333e+02
1.470000e-06	2.684935e-06	5.661760e-09	1.861221e+01	3.727835e+02
1.480000e-06	2.703888e-06	5.687900e-09	1.874359e+01	3.745117e+02
1.490000e-06	2.721894e-06	5.712448e-09	1.886841e+01	3.761214e+02
1.500000e-06	2.738908e-06	5.733997e-09	1.898636e+01	3.776145e+02
1.510000e-06	2.754841e-06	5.752638e-09	1.909681e+01	3.789923e+02
1.520000e-06	2.769709e-06	5.771335e-09	1.919987e+01	3.802561e+02
1.530000e-06	2.783538e-06	5.789522e-09	1.929573e+01	3.814073e+02
1.540000e-06	2.796356e-06	5.804796e-09	1.938459e+01	3.824485e+02
1.550000e-06	2.808063e-06	5.818095e-09	1.946574e+01	3.833830e+02
1.560000e-06	2.818483e-06	5.830129e-09	1.953798e+01	3.842154e+02
1.570000e-06	2.827726e-06	5.841513e-09	1.960205e+01	3.849511e+02
1.580000e-06	2.836014e-06	5.853042e-09	1.965950e+01	3.855961e+02
1.590000e-06	2.843366e-06	5.863746e-09	1.971046e+01	3.861561e+02
1.600000e-06	2.849770e-06	5.873410e-09	1.975486e+01	3.866361e+02
1.610000e-06	2.855240e-06	5.880123e-09	1.979278e+01	3.870402e+02
1.620000e-06	2.859840e-06	5.883212e-09	1.982467e+01	3.873706e+02
1.630000e-06	2.863485e-06	5.885803e-09	1.984994e+01	3.876281e+02
1.640000e-06	2.865907e-06	5.889298e-09	1.986672e+01	3.878116e+02
1.650000e-06	2.867212e-06	5.892788e-09	1.987577e+01	3.879189e+02
1.660000e-06	2.867606e-06	5.894263e-09	1.987850e+01	3.879469e+02
1.670000e-06	2.867061e-06	5.893704e-09	1.987472e+01	3.878924e+02
1.680000e-06	2.865567e-06	5.892211e-09	1.986437e+01	3.877531e+02
1.690000e-06	2.863205e-06	5.886812e-09	1.984800e+01	3.875281e+02
1.700000e-06	2.860099e-06	5.878408e-09	1.982646e+01	3.872185e+02
1.710000e-06	2.856142e-06	5.873136e-09	1.979903e+01	3.868277e+02
1.720000e-06	2.851059e-06	5.875620e-09	1.976379e+01	3.863615e+02
1.730000e-06	2.844833e-06	5.890523e-09	1.972064e+01	3.858278e+02
1.740000e-06	2.837686e-06	5.862605e-09	1.967109e+01	3.852362e+02
1.750000e-06	2.829586e-06	5.776654e-09	1.961494e+01	3.845969e+02
1.760000e-06	2.820052e-06	5.743555e-09	1.954886e+01	3.839197e+02
1.770000e-06	2.808982e-06	5.862561e-09	1.947211e+01	3.832134e+02
1.780000e-06	2.797235e-06	5.918944e-09	1.939068e+01	3.824842e+02
1.790000e-06	2.785322e-06	5.743664e-09	1.930810e+01	3.817356e+02
1.800000e-06	2.772394e-06	5.712416e-09	1.921849e+01	3.809675e+02
1.810000e-06	2.757803e-06	5.848726e-09	1.911733e+01	3.801762e+02
1.820000e-06	2.742250e-06	5.784542e-09	1.900952e+01	3.793548e+02
1.830000e-06	2.726105e-06	5.621183e-09	1.889760e+01	3.784937e+02
1.840000e-06	2.708743e-06	5.733286e-09	1.877725e+01	3.775815e+02
1.850000e-06	2.690152e-06	5.824723e-09	1.864837e+01	3.766063e+02
1.860000e-06	2.670947e-06	5.631388e-09	1.851524e+01	3.755566e+02
1.870000e-06	2.650896e-06	5.670375e-09	1.837625e+01	3.744226e+02
1.880000e-06	2.629616e-06	5.794981e-09	1.822873e+01	3.731969e+02
1.890000e-06	2.607254e-06	5.592725e-09	1.807372e+01	3.718753e+02
1.900000e-06	2.583883e-06	5.541184e-09	1.791170e+01	3.704573e+02
1.910000e-06	2.559620e-06	5.674421e-09	1.774352e+01	3.689452e+02
1.920000e-06	2.534638e-06	5.599422e-09	1.757033e+01	3.673446e+02
1.930000e-06	2.508851e-06	5.532169e-09	1.739158e+01	3.656630e+02
1.940000e-06	2.482192e-06	5.552351e-09	1.720678e+01	3.639089e+02
1.950000e-06	2.454846e-06	5.513064e-09	1.701721e+01	3.620911e+02
1.960000e-06	2.426558e-06	5.486211e-09	1.682112e+01	3.602171e+02
1.970000e-06	2.396958e-06	5.439848e-09	1.661592e+01	3.582929e+02
1.980000e-06	2.366363e-06	5.366498e-09	1.640384e+01	3.563219e+02
1.990000e-06	2.335042e-06	5.415366e-09	1.618672e+01	3.543050e+02
2.000000e-06	2.303003e-06	5.388412e-09	1.596462e+01	3.522401e+02
2.010000e-06	2.270214e-06	5.287525e-09	1.573733e+01	3.501234e+02
2.020000e-06	2.236641e-06	5.319713e-09	1.550460e+01	3.479490e+02
2.030000e-06	2.202400e-06	5.266280e-09	1.526724e+01	3.457104e+02
2.040000e-06	2.167500e-06	5.175686e-09	1.502531e+01	3.434011e+02
2.050000e-06	2.131900e-06	5.220238e-09	1.477852e+01	3.410155e+02
2.060000e-06	2.095597e-06	5.166654e-09	1.452686e+01	3.385494e+02
2.070000e-06	2.058329e-06	5.070314e-09	1.426852e+01	3.360008e+02
2.080000e-06	2.019975e-06	5.086871e-09	1.400264e+01	3.333694e+02
2.090000e-06	1.980881e-06	5.049301e-09	1.373165e+01	3.306572e+02
2.100000e-06	1.941244e-06	4.980269e-09	1.345688e+01	3.278677e+02
2.110000e-06	1.900976e-06	4.944802e-09	1.317774e+01	3.250052e+02
2.120000e-06	1.860066e-06	4.894495e-09	1.289414e+01	3.220746e+02
2.130000e-06	1.818589e-06	4.862443e-09	1.260662e+01	3.190800e+02
2.140000e-06	1.776536e-06	4.811559e-09	1.231510e+01	3.160246e+02
2.150000e-06	1.733862e-06	4.751622e-09	1.201929e+01	3.129100e+02
2.160000e-06	1.690701e-06	4.718389e-09	1.172009e+01	3.097358e+02
2.170000e-06	1.647167e-06	4.674620e-09	1.141831e+01	3.064999e+02
2.180000e-06	1.603038e-06	4.623794e-09	1.111240e+01	3.031983e+02
2.190000e-06	1.558183e-06	4.573425e-09	1.080147e+01	2.998261e+02
2.200000e-06	1.512770e-06	4.512377e-09	1.048666e+01	2.963775e+02
2.210000e-06	1.466905e-06	4.455227e-09	1.016871e+01	2.928467e+02
2.220000e-06	1.420655e-06	4.409004e-09	9.848111e+00	2.892286e+02
2.230000e-06	1.373924e-06	4.358444e-09	9.524165e+00	2.855191e+02
2.240000e-06	1.326578e-06	4.293455e-09	9.195958e+00	2.817157e+02
2.250000e-06	1.278608e-06	4.229679e-09	8.863425e+00	2.778172e+02
2.260000e-06	1.230064e-06	4.183626e-09	8.526916e+00	2.738241e+02
2.270000e-06	1.181095e-06	4.117230e-09	8.187459e+00	2.697381e+02
2.280000e-06	1.131666e-06	4.043575e-09	7.844812e+00	2.655614e+02
2.290000e-06	1.081848e-06	3.984041e-09	7.499467e+00	2.612968e+02
2.300000e-06	1.031689e-06	3.923332e-09	7.151762e+00	2.569465e+02
2.310000e-06	9.810529e-07	3.861466e-09	6.800747e+00	2.525121e+02
2.320000e-06	9.300646e-07	3.788888e-09	6.447291e+00	2.479941e+02
2.330000e-06	8.788643e-07	3.715665e-09	6.092366e+00	2.433917e+02
2.340000e-06	8.274255e-07	3.647078e-09	5.735787e+00	2.387032e+02
2.350000e-06	7.755640e-07	3.573218e-09	5.376279e+00	2.339256e+02
2.360000e-06	7.232523e-07	3.498523e-09	5.013650e+00	2.290553e+02
2.370000e-06	6.705185e-07	3.423652e-09	4.648094e+00	2.240887e+02
2.380000e-06	6.172684e-07	3.348493e-09	4.278960e+00	2.190221e+02
2.390000e-06	5.635876e-07	3.274836e-09	3.906840e+00	2.138525e+02
2.400000e-06	5.096501e-07	3.195152e-09	3.532940e+00	2.085774e+02
2.410000e-06	4.555258e-07	3.111939e-09	3.157745e+00	2.031954e+02
2.420000e-06	4.011778e-07	3.029093e-09	2.781001e+00	1.977053e+02
2.430000e-06	3.466513e-07	2.947463e-09	2.403018e+00	1.921065e+02
2.440000e-06	2.919470e-07	2.864815e-09	2.023803e+00	1.863981e+02
2.450000e-06	2.371138e-07	2.770080e-09	1.643694e+00	1.805785e+02
2.460000e-06	1.822143e-07	2.672063e-09	1.263126e+00	1.746451e+02
2.470000e-06	1.272549e-07	2.581427e-09	8.821423e-01	1.685936e+02
2.480000e-06	7.228784e-08	2.493943e-09	5.011057e-01	1.624181e+02
2.490000e-06	1.730081e-08	2.402334e-09	1.199307e-01	1.561109e+02
2.500000e-06	-3.766283e-08	2.304654e-09	-2.610821e-01	1.496624e+02
2.510000e-06	-9.259679e-08	2.207824e-09	-6.418892e-01	1.430623e+02
2.520000e-06	-1.475311e-07	2.108420e-09	-1.022699e+00	1.362993e+02
2.530000e-06	-2.024536e-07	1.999767e-09	-1.403427e+00	1.293620e+02
2.540000e-06	-2.573204e-07	1.883695e-09	-1.783768e+00	1.222398e+02
2.550000e-06	-3.120924e-07	1.770327e-09	-2.163453e+00	1.149226e+02
2.560000e-06	-3.667555e-07	1.663652e-09	-2.542382e+00	1.074016e+02
2.570000e-06	-4.212912e-07	1.554117e-09	-2.920428e+00	9.966926e+01
2.580000e-06	-4.756588e-07	1.433891e-09	-3.297310e+00	9.171828e+01
2.590000e-06	-5.297560e-07	1.307868e-09	-3.672316e+00	8.354151e+01
2.600000e-06	-5.835220e-07	1.182076e-09	-4.045027e+00	7.513085e+01
2.610000e-06	-6.368886e-07	1.053644e-09	-4.414968e+00	6.647632e+01
2.620000e-06	-6.898149e-07	9.162516e-10	-4.781859e+00	5.756515e+01
2.630000e-06	-7.422751e-07	7.687264e-10	-5.145517e+00	4.838112e+01
2.640000e-06	-7.942956e-07	6.209253e-10	-5.506128e+00	3.890429e+01
2.650000e-06	-8.459508e-07	4.774099e-10	-5.864206e+00	2.911126e+01
2.660000e-06	-8.973382e-07	3.284732e-10	-6.220428e+00	1.897605e+01
2.670000e-06	-9.484576e-07	1.675527e-10	-6.574793e+00	8.471621e+00
2.680000e-06	-9.992553e-07	1.349333e-12	-6.926927e+00	-2.427949e+00
2.690000e-06	-1.049695e-06	-1.666804e-10	-7.276577e+00	-1.374486e+01
2.700000e-06	-1.099702e-06	-3.428682e-10	-7.623235e+00	-2.549463e+01
2.710000e-06	-1.149322e-06	-5.309145e-10	-7.967205e+00	-3.768312e+01
2.720000e-06	-1.198505e-06	-7.269246e-10	-8.308145e+00	-5.030373e+01
2.730000e-06	-1.247160e-06	-9.248410e-10	-8.645423e+00	-6.333513e+01
2.740000e-06	-1.295131e-06	-1.126681e-09	-8.977965e+00	-7.673969e+01
2.750000e-06	-1.342276e-06	-1.336092e-09	-9.304775e+00	-9.046296e+01
2.760000e-06	-1.388747e-06	-1.551795e-09	-9.626918e+00	-1.044341e+02
2.770000e-06	-1.434758e-06	-1.766984e-09	-9.945868e+00	-1.185678e+02
2.780000e-06	-1.480395e-06	-1.980881e-09	-1.026223e+01	-1.327666e+02
2.790000e-06	-1.525700e-06	-2.199486e-09	-1.057629e+01	-1.469249e+02
2.800000e-06	-1.570613e-06	-2.420939e-09	-1.088763e+01	-1.609332e+02
2.810000e-06	-1.614957e-06	-2.636001e-09	-1.119503e+01	-1.746831e+02
2.820000e-06	-1.658680e-06	-2.839114e-09	-1.149812e+01	-1.880714e+02
2.830000e-06	-1.701962e-06	-3.035251e-09	-1.179815e+01	-2.010053e+02
2.840000e-06	-1.744870e-06	-3.224273e-09	-1.209559e+01	-2.134058e+02
2.850000e-06	-1.787256e-06	-3.402820e-09	-1.238942e+01	-2.252105e+02
2.860000e-06	-1.828992e-06	-3.569919e-09	-1.267874e+01	-2.363755e+02
2.870000e-06	-1.870095e-06	-3.730195e-09	-1.296367e+01	-2.468759e+02
2.880000e-06	-1.910579e-06	-3.887244e-09	-1.324431e+01	-2.567053e+02
2.890000e-06	-1.950406e-06	-4.035789e-09	-1.352039e+01	-2.658739e+02
2.900000e-06	-1.989668e-06	-4.170021e-09	-1.379256e+01	-2.744059e+02
2.910000e-06	-2.028419e-06	-4.291368e-09	-1.406118e+01	-2.823365e+02
2.920000e-06	-2.066424e-06	-4.403082e-09	-1.432464e+01	-2.897083e+02
2.930000e-06	-2.103384e-06	-4.506409e-09	-1.458084e+01	-2.965675e+02
2.940000e-06	-2.139348e-06	-4.603281e-09	-1.483015e+01	-3.029613e+02
