# Temperatura_=_25.93
# Concentracion g/m^3_=_15500.0
# C_Vs_to_Am_M_A/Vsm_=_65563218390.804596
# pendiente_HvsI_1/m_=_3716.3
# ordenada_HvsI_A/m_=_1297.0
# frecuencia_Hz_=_300843.02847636474

Tiempo_(s)	Campo_(V.s)	Magnetizacion_(V.s)	Campo_(kA/m)	Magnetizacion_(A/m)
0.000000e+00	-2.855493e-06	-5.761917e-09	-1.980237e+01	-3.755240e+02
1.000000e-08	-2.854565e-06	-5.762705e-09	-1.979593e+01	-3.754275e+02
2.000000e-08	-2.852626e-06	-5.759651e-09	-1.978249e+01	-3.752506e+02
3.000000e-08	-2.849377e-06	-5.756526e-09	-1.975995e+01	-3.749946e+02
4.000000e-08	-2.845103e-06	-5.754449e-09	-1.973031e+01	-3.746633e+02
5.000000e-08	-2.840099e-06	-5.746610e-09	-1.969561e+01	-3.742629e+02
6.000000e-08	-2.834244e-06	-5.727258e-09	-1.965501e+01	-3.738021e+02
7.000000e-08	-2.827410e-06	-5.696559e-09	-1.960762e+01	-3.732909e+02
8.000000e-08	-2.819571e-06	-5.736755e-09	-1.955325e+01	-3.727396e+02
9.000000e-08	-2.810553e-06	-5.827022e-09	-1.949071e+01	-3.721580e+02
1.000000e-07	-2.800047e-06	-5.799125e-09	-1.941786e+01	-3.715541e+02
1.100000e-07	-2.788301e-06	-5.551095e-09	-1.933640e+01	-3.709332e+02
1.200000e-07	-2.775841e-06	-5.551090e-09	-1.925000e+01	-3.702970e+02
1.300000e-07	-2.762493e-06	-5.817027e-09	-1.915742e+01	-3.696435e+02
1.400000e-07	-2.748087e-06	-5.765979e-09	-1.905753e+01	-3.689670e+02
1.500000e-07	-2.732749e-06	-5.451141e-09	-1.895116e+01	-3.682586e+02
1.600000e-07	-2.716102e-06	-5.635632e-09	-1.883571e+01	-3.675068e+02
1.700000e-07	-2.698106e-06	-5.822982e-09	-1.871092e+01	-3.666990e+02
1.800000e-07	-2.679423e-06	-5.466151e-09	-1.858135e+01	-3.658227e+02
1.900000e-07	-2.660141e-06	-5.494515e-09	-1.844764e+01	-3.648662e+02
2.000000e-07	-2.639922e-06	-5.709552e-09	-1.830742e+01	-3.638205e+02
2.100000e-07	-2.618792e-06	-5.459513e-09	-1.816089e+01	-3.626796e+02
2.200000e-07	-2.596955e-06	-5.388534e-09	-1.800945e+01	-3.614411e+02
2.300000e-07	-2.574213e-06	-5.668421e-09	-1.785174e+01	-3.601063e+02
2.400000e-07	-2.550467e-06	-5.523318e-09	-1.768706e+01	-3.586800e+02
2.500000e-07	-2.525992e-06	-5.343231e-09	-1.751733e+01	-3.571694e+02
2.600000e-07	-2.500682e-06	-5.453191e-09	-1.734181e+01	-3.555835e+02
2.700000e-07	-2.474232e-06	-5.442509e-09	-1.715839e+01	-3.539320e+02
2.800000e-07	-2.446615e-06	-5.342696e-09	-1.696687e+01	-3.522238e+02
2.900000e-07	-2.418037e-06	-5.351674e-09	-1.676868e+01	-3.504665e+02
3.000000e-07	-2.388709e-06	-5.306993e-09	-1.656530e+01	-3.486652e+02
3.100000e-07	-2.358732e-06	-5.330480e-09	-1.635742e+01	-3.468224e+02
3.200000e-07	-2.328037e-06	-5.330642e-09	-1.614455e+01	-3.449377e+02
3.300000e-07	-2.296436e-06	-5.168375e-09	-1.592540e+01	-3.430083e+02
3.400000e-07	-2.264096e-06	-5.208471e-09	-1.570113e+01	-3.410294e+02
3.500000e-07	-2.231240e-06	-5.204298e-09	-1.547328e+01	-3.389949e+02
3.600000e-07	-2.197593e-06	-5.092568e-09	-1.523994e+01	-3.368985e+02
3.700000e-07	-2.162779e-06	-5.140887e-09	-1.499851e+01	-3.347344e+02
3.800000e-07	-2.126868e-06	-5.118468e-09	-1.474947e+01	-3.324982e+02
3.900000e-07	-2.090335e-06	-4.967988e-09	-1.449612e+01	-3.301872e+02
4.000000e-07	-2.053260e-06	-5.010685e-09	-1.423902e+01	-3.278008e+02
4.100000e-07	-2.015401e-06	-5.020264e-09	-1.397647e+01	-3.253404e+02
4.200000e-07	-1.976782e-06	-4.883248e-09	-1.370865e+01	-3.228091e+02
4.300000e-07	-1.937421e-06	-4.866838e-09	-1.343569e+01	-3.202108e+02
4.400000e-07	-1.897405e-06	-4.869466e-09	-1.315819e+01	-3.175502e+02
4.500000e-07	-1.856968e-06	-4.816783e-09	-1.287776e+01	-3.148314e+02
4.600000e-07	-1.816151e-06	-4.761587e-09	-1.259470e+01	-3.120575e+02
4.700000e-07	-1.774665e-06	-4.716007e-09	-1.230701e+01	-3.092303e+02
4.800000e-07	-1.732099e-06	-4.660188e-09	-1.201182e+01	-3.063494e+02
4.900000e-07	-1.688490e-06	-4.630704e-09	-1.170939e+01	-3.034132e+02
5.000000e-07	-1.644269e-06	-4.586752e-09	-1.140273e+01	-3.004178e+02
5.100000e-07	-1.599693e-06	-4.523488e-09	-1.109360e+01	-2.973588e+02
5.200000e-07	-1.554679e-06	-4.479981e-09	-1.078144e+01	-2.942308e+02
5.300000e-07	-1.509098e-06	-4.437024e-09	-1.046534e+01	-2.910287e+02
5.400000e-07	-1.462975e-06	-4.395248e-09	-1.014549e+01	-2.877478e+02
5.500000e-07	-1.416294e-06	-4.333462e-09	-9.821765e+00	-2.843847e+02
5.600000e-07	-1.369017e-06	-4.263514e-09	-9.493906e+00	-2.809376e+02
5.700000e-07	-1.321243e-06	-4.202756e-09	-9.162601e+00	-2.774058e+02
5.800000e-07	-1.273098e-06	-4.173635e-09	-8.828725e+00	-2.737903e+02
5.900000e-07	-1.224642e-06	-4.115899e-09	-8.492685e+00	-2.700930e+02
6.000000e-07	-1.175835e-06	-4.040407e-09	-8.154219e+00	-2.663160e+02
6.100000e-07	-1.126488e-06	-3.991811e-09	-7.812008e+00	-2.624616e+02
6.200000e-07	-1.076449e-06	-3.941984e-09	-7.464995e+00	-2.585314e+02
6.300000e-07	-1.025712e-06	-3.878139e-09	-7.113140e+00	-2.545257e+02
6.400000e-07	-9.744153e-07	-3.799428e-09	-6.757407e+00	-2.504437e+02
6.500000e-07	-9.227006e-07	-3.730783e-09	-6.398775e+00	-2.462830e+02
6.600000e-07	-8.705563e-07	-3.670285e-09	-6.037163e+00	-2.420399e+02
6.700000e-07	-8.181182e-07	-3.612468e-09	-5.673513e+00	-2.377098e+02
6.800000e-07	-7.655103e-07	-3.538857e-09	-5.308686e+00	-2.332877e+02
6.900000e-07	-7.126596e-07	-3.461868e-09	-4.942175e+00	-2.287685e+02
7.000000e-07	-6.595344e-07	-3.393475e-09	-4.573761e+00	-2.241478e+02
7.100000e-07	-6.061345e-07	-3.326949e-09	-4.203441e+00	-2.194222e+02
7.200000e-07	-5.525099e-07	-3.253875e-09	-3.831564e+00	-2.145895e+02
7.300000e-07	-4.986676e-07	-3.172177e-09	-3.458176e+00	-2.096486e+02
7.400000e-07	-4.446334e-07	-3.097532e-09	-3.083458e+00	-2.045992e+02
7.500000e-07	-3.904423e-07	-3.022603e-09	-2.707652e+00	-1.994417e+02
7.600000e-07	-3.361210e-07	-2.943499e-09	-2.330943e+00	-1.941759e+02
7.700000e-07	-2.817300e-07	-2.852219e-09	-1.953751e+00	-1.888010e+02
7.800000e-07	-2.272774e-07	-2.761987e-09	-1.576131e+00	-1.833144e+02
7.900000e-07	-1.727777e-07	-2.680296e-09	-1.198185e+00	-1.777118e+02
8.000000e-07	-1.182375e-07	-2.597034e-09	-8.199570e-01	-1.719861e+02
8.100000e-07	-6.366028e-08	-2.508207e-09	-4.414734e-01	-1.661282e+02
8.200000e-07	-9.080416e-09	-2.414871e-09	-6.297117e-02	-1.601270e+02
8.300000e-07	4.550756e-08	-2.320941e-09	3.155873e-01	-1.539696e+02
8.400000e-07	1.001071e-07	-2.222096e-09	6.942262e-01	-1.476426e+02
8.500000e-07	1.546582e-07	-2.120366e-09	1.072529e+00	-1.411329e+02
8.600000e-07	2.091473e-07	-2.013046e-09	1.450402e+00	-1.344279e+02
8.700000e-07	2.635705e-07	-1.907269e-09	1.827818e+00	-1.275167e+02
8.800000e-07	3.179183e-07	-1.801060e-09	2.204710e+00	-1.203901e+02
8.900000e-07	3.721777e-07	-1.688300e-09	2.580990e+00	-1.130405e+02
9.000000e-07	4.263184e-07	-1.568037e-09	2.956447e+00	-1.054612e+02
9.100000e-07	4.802733e-07	-1.445837e-09	3.330615e+00	-9.764588e+01
9.200000e-07	5.340630e-07	-1.328245e-09	3.703638e+00	-8.958685e+01
9.300000e-07	5.876722e-07	-1.203713e-09	4.075408e+00	-8.127397e+01
9.400000e-07	6.410222e-07	-1.071453e-09	4.445382e+00	-7.269320e+01
9.500000e-07	6.941335e-07	-9.316663e-10	4.813700e+00	-6.382553e+01
9.600000e-07	7.469670e-07	-7.893176e-10	5.180091e+00	-5.464647e+01
9.700000e-07	7.995474e-07	-6.418872e-10	5.544728e+00	-4.512608e+01
9.800000e-07	8.519165e-07	-4.867947e-10	5.907898e+00	-3.523000e+01
9.900000e-07	9.039483e-07	-3.240962e-10	6.268731e+00	-2.492119e+01
1.000000e-06	9.556129e-07	-1.560363e-10	6.627016e+00	-1.416261e+01
1.010000e-06	1.006859e-06	1.182813e-11	6.982397e+00	-2.920528e+00
1.020000e-06	1.057431e-06	1.846948e-10	7.333108e+00	8.831703e+00
1.030000e-06	1.107243e-06	3.661108e-10	7.678547e+00	2.110969e+01
1.040000e-06	1.156440e-06	5.622240e-10	8.019722e+00	3.391428e+01
1.050000e-06	1.205230e-06	7.684798e-10	8.358068e+00	4.722843e+01
1.060000e-06	1.253746e-06	9.818543e-10	8.694518e+00	6.101492e+01
1.070000e-06	1.302005e-06	1.201717e-09	9.029191e+00	7.521537e+01
1.080000e-06	1.349895e-06	1.426185e-09	9.361300e+00	8.975060e+01
1.090000e-06	1.397194e-06	1.651522e-09	9.689309e+00	1.045224e+02
1.100000e-06	1.443916e-06	1.872650e-09	1.001332e+01	1.194169e+02
1.110000e-06	1.490123e-06	2.094028e-09	1.033375e+01	1.343088e+02
1.120000e-06	1.535748e-06	2.317837e-09	1.065016e+01	1.490672e+02
1.130000e-06	1.580884e-06	2.540793e-09	1.096317e+01	1.635611e+02
1.140000e-06	1.625637e-06	2.754867e-09	1.127352e+01	1.776658e+02
1.150000e-06	1.670060e-06	2.959133e-09	1.158159e+01	1.912683e+02
1.160000e-06	1.714054e-06	3.153576e-09	1.188668e+01	2.042723e+02
1.170000e-06	1.757263e-06	3.341419e-09	1.218633e+01	2.166024e+02
1.180000e-06	1.799493e-06	3.518667e-09	1.247919e+01	2.282055e+02
1.190000e-06	1.840824e-06	3.681359e-09	1.276580e+01	2.390526e+02
1.200000e-06	1.881509e-06	3.831865e-09	1.304795e+01	2.491374e+02
1.210000e-06	1.921745e-06	3.971194e-09	1.332698e+01	2.584745e+02
1.220000e-06	1.961392e-06	4.099757e-09	1.360193e+01	2.670958e+02
1.230000e-06	2.000341e-06	4.216671e-09	1.387203e+01	2.750471e+02
1.240000e-06	2.038587e-06	4.326334e-09	1.413726e+01	2.823825e+02
1.250000e-06	2.076062e-06	4.428420e-09	1.439714e+01	2.891609e+02
1.260000e-06	2.112884e-06	4.527093e-09	1.465250e+01	2.954411e+02
1.270000e-06	2.149253e-06	4.618195e-09	1.490471e+01	3.012789e+02
1.280000e-06	2.185010e-06	4.697796e-09	1.515268e+01	3.067238e+02
1.290000e-06	2.219756e-06	4.769874e-09	1.539364e+01	3.118180e+02
1.300000e-06	2.253339e-06	4.839054e-09	1.562653e+01	3.165952e+02
1.310000e-06	2.286031e-06	4.906103e-09	1.585324e+01	3.210815e+02
1.320000e-06	2.318111e-06	4.967656e-09	1.607572e+01	3.252963e+02
1.330000e-06	2.349473e-06	5.025031e-09	1.629321e+01	3.292537e+02
1.340000e-06	2.380050e-06	5.078461e-09	1.650525e+01	3.329643e+02
1.350000e-06	2.409823e-06	5.127472e-09	1.671172e+01	3.364373e+02
1.360000e-06	2.438786e-06	5.172243e-09	1.691258e+01	3.396820e+02
1.370000e-06	2.467138e-06	5.217416e-09	1.710919e+01	3.427084e+02
1.380000e-06	2.494708e-06	5.263317e-09	1.730038e+01	3.455289e+02
1.390000e-06	2.520996e-06	5.304394e-09	1.748269e+01	3.481571e+02
1.400000e-06	2.546072e-06	5.337400e-09	1.765658e+01	3.506086e+02
1.410000e-06	2.570284e-06	5.365787e-09	1.782449e+01	3.528995e+02
1.420000e-06	2.593659e-06	5.395491e-09	1.798659e+01	3.550457e+02
1.430000e-06	2.616207e-06	5.425475e-09	1.814296e+01	3.570618e+02
1.440000e-06	2.637872e-06	5.451291e-09	1.829320e+01	3.589603e+02
1.450000e-06	2.658714e-06	5.475839e-09	1.843774e+01	3.607510e+02
1.460000e-06	2.678870e-06	5.504616e-09	1.857751e+01	3.624405e+02
1.470000e-06	2.698112e-06	5.533085e-09	1.871095e+01	3.640324e+02
1.480000e-06	2.716289e-06	5.555469e-09	1.883701e+01	3.655278e+02
1.490000e-06	2.733561e-06	5.573550e-09	1.895679e+01	3.669258e+02
1.500000e-06	2.749836e-06	5.590988e-09	1.906965e+01	3.682247e+02
1.510000e-06	2.764965e-06	5.608664e-09	1.917457e+01	3.694225e+02
1.520000e-06	2.779067e-06	5.623857e-09	1.927237e+01	3.705182e+02
1.530000e-06	2.792176e-06	5.634326e-09	1.936327e+01	3.715120e+02
1.540000e-06	2.804240e-06	5.645254e-09	1.944694e+01	3.724061e+02
1.550000e-06	2.814986e-06	5.660228e-09	1.952146e+01	3.732042e+02
1.560000e-06	2.824392e-06	5.675014e-09	1.958669e+01	3.739117e+02
1.570000e-06	2.832886e-06	5.686212e-09	1.964559e+01	3.745347e+02
1.580000e-06	2.840518e-06	5.695142e-09	1.969852e+01	3.750798e+02
1.590000e-06	2.847140e-06	5.703107e-09	1.974444e+01	3.755528e+02
1.600000e-06	2.852764e-06	5.708139e-09	1.978344e+01	3.759583e+02
1.610000e-06	2.857575e-06	5.709673e-09	1.981681e+01	3.762990e+02
1.620000e-06	2.861596e-06	5.711641e-09	1.984469e+01	3.765758e+02
1.630000e-06	2.864406e-06	5.716951e-09	1.986417e+01	3.767874e+02
1.640000e-06	2.865895e-06	5.722186e-09	1.987450e+01	3.769310e+02
1.650000e-06	2.866471e-06	5.725235e-09	1.987850e+01	3.770029e+02
1.660000e-06	2.866201e-06	5.727422e-09	1.987662e+01	3.769992e+02
1.670000e-06	2.864984e-06	5.726780e-09	1.986818e+01	3.769168e+02
1.680000e-06	2.862854e-06	5.724299e-09	1.985342e+01	3.767541e+02
1.690000e-06	2.859874e-06	5.720027e-09	1.983275e+01	3.765119e+02
1.700000e-06	2.856166e-06	5.711677e-09	1.980703e+01	3.761934e+02
1.710000e-06	2.851445e-06	5.705812e-09	1.977430e+01	3.758047e+02
1.720000e-06	2.845407e-06	5.718581e-09	1.973242e+01	3.753538e+02
1.730000e-06	2.838376e-06	5.743211e-09	1.968366e+01	3.748506e+02
1.740000e-06	2.830614e-06	5.646669e-09	1.962984e+01	3.743056e+02
1.750000e-06	2.821585e-06	5.534174e-09	1.956722e+01	3.737286e+02
1.760000e-06	2.810796e-06	5.635071e-09	1.949240e+01	3.731281e+02
1.770000e-06	2.798979e-06	5.843614e-09	1.941045e+01	3.725098e+02
1.780000e-06	2.787197e-06	5.695249e-09	1.932875e+01	3.718762e+02
1.790000e-06	2.774866e-06	5.430453e-09	1.924324e+01	3.712259e+02
1.800000e-06	2.760713e-06	5.658347e-09	1.914509e+01	3.705539e+02
1.810000e-06	2.745186e-06	5.792326e-09	1.903741e+01	3.698518e+02
1.820000e-06	2.729288e-06	5.451802e-09	1.892716e+01	3.691085e+02
1.830000e-06	2.712385e-06	5.449198e-09	1.880994e+01	3.683116e+02
1.840000e-06	2.693953e-06	5.803634e-09	1.868211e+01	3.674482e+02
1.850000e-06	2.674814e-06	5.564913e-09	1.854939e+01	3.665066e+02
1.860000e-06	2.655143e-06	5.341679e-09	1.841297e+01	3.654772e+02
1.870000e-06	2.634232e-06	5.726939e-09	1.826796e+01	3.643534e+02
1.880000e-06	2.612163e-06	5.590812e-09	1.811492e+01	3.631321e+02
1.890000e-06	2.589200e-06	5.238213e-09	1.795567e+01	3.618141e+02
1.900000e-06	2.565172e-06	5.532856e-09	1.778904e+01	3.604035e+02
1.910000e-06	2.540367e-06	5.558189e-09	1.761702e+01	3.589072e+02
1.920000e-06	2.514870e-06	5.325685e-09	1.744021e+01	3.573339e+02
1.930000e-06	2.488364e-06	5.427576e-09	1.725639e+01	3.556933e+02
1.940000e-06	2.461144e-06	5.402083e-09	1.706762e+01	3.539945e+02
1.950000e-06	2.433235e-06	5.324946e-09	1.687408e+01	3.522453e+02
1.960000e-06	2.404107e-06	5.376912e-09	1.667208e+01	3.504514e+02
1.970000e-06	2.373847e-06	5.217602e-09	1.646223e+01	3.486158e+02
1.980000e-06	2.342776e-06	5.226074e-09	1.624676e+01	3.467386e+02
1.990000e-06	2.310980e-06	5.359044e-09	1.602626e+01	3.448173e+02
2.000000e-06	2.278458e-06	5.138998e-09	1.580072e+01	3.428475e+02
2.010000e-06	2.245066e-06	5.151438e-09	1.556916e+01	3.408232e+02
2.020000e-06	2.210891e-06	5.242722e-09	1.533216e+01	3.387381e+02
2.030000e-06	2.176162e-06	5.017052e-09	1.509132e+01	3.365863e+02
2.040000e-06	2.140803e-06	5.072174e-09	1.484611e+01	3.343631e+02
2.050000e-06	2.104744e-06	5.134208e-09	1.459605e+01	3.320654e+02
2.060000e-06	2.067858e-06	4.936866e-09	1.434025e+01	3.296923e+02
2.070000e-06	2.029769e-06	4.969800e-09	1.407611e+01	3.272448e+02
2.080000e-06	1.990716e-06	4.984655e-09	1.380528e+01	3.247256e+02
2.090000e-06	1.951197e-06	4.866302e-09	1.353123e+01	3.221388e+02
2.100000e-06	1.911122e-06	4.864952e-09	1.325331e+01	3.194889e+02
2.110000e-06	1.870383e-06	4.807099e-09	1.297080e+01	3.167800e+02
2.120000e-06	1.829018e-06	4.770392e-09	1.268393e+01	3.140157e+02
2.130000e-06	1.787095e-06	4.758333e-09	1.239320e+01	3.111977e+02
2.140000e-06	1.744596e-06	4.673503e-09	1.209848e+01	3.083264e+02
2.150000e-06	1.701542e-06	4.647293e-09	1.179991e+01	3.054001e+02
2.160000e-06	1.658071e-06	4.605915e-09	1.149845e+01	3.024154e+02
2.170000e-06	1.614047e-06	4.557068e-09	1.119314e+01	2.993680e+02
2.180000e-06	1.569351e-06	4.519725e-09	1.088319e+01	2.962526e+02
2.190000e-06	1.524048e-06	4.455967e-09	1.056902e+01	2.930638e+02
2.200000e-06	1.478228e-06	4.404128e-09	1.025126e+01	2.897971e+02
2.210000e-06	1.432075e-06	4.359358e-09	9.931201e+00	2.864488e+02
2.220000e-06	1.385480e-06	4.321035e-09	9.608070e+00	2.830166e+02
2.230000e-06	1.338302e-06	4.272817e-09	9.280902e+00	2.794997e+02
2.240000e-06	1.290515e-06	4.190323e-09	8.949506e+00	2.758989e+02
2.250000e-06	1.242116e-06	4.151596e-09	8.613871e+00	2.722158e+02
2.260000e-06	1.193257e-06	4.109238e-09	8.275037e+00	2.684527e+02
2.270000e-06	1.144011e-06	4.024236e-09	7.933522e+00	2.646119e+02
2.280000e-06	1.094388e-06	3.972111e-09	7.589398e+00	2.606950e+02
2.290000e-06	1.044333e-06	3.913877e-09	7.242273e+00	2.567027e+02
2.300000e-06	9.937830e-07	3.865568e-09	6.891719e+00	2.526343e+02
2.310000e-06	9.428336e-07	3.810487e-09	6.538394e+00	2.484877e+02
2.320000e-06	8.915976e-07	3.728980e-09	6.183081e+00	2.442595e+02
2.330000e-06	8.401111e-07	3.662731e-09	5.826031e+00	2.399451e+02
2.340000e-06	7.883577e-07	3.592065e-09	5.467129e+00	2.355396e+02
2.350000e-06	7.361949e-07	3.524787e-09	5.105389e+00	2.310379e+02
2.360000e-06	6.835645e-07	3.456801e-09	4.740405e+00	2.264354e+02
2.370000e-06	6.305540e-07	3.381862e-09	4.372787e+00	2.217286e+02
2.380000e-06	5.772017e-07	3.317319e-09	4.002797e+00	2.169150e+02
2.390000e-06	5.234797e-07	3.249882e-09	3.630245e+00	2.119933e+02
2.400000e-06	4.694121e-07	3.174508e-09	3.255294e+00	2.069631e+02
2.410000e-06	4.151233e-07	3.094825e-09	2.878811e+00	2.018247e+02
2.420000e-06	3.606672e-07	3.010125e-09	2.501167e+00	1.965781e+02
2.430000e-06	3.060114e-07	2.933038e-09	2.122138e+00	1.912227e+02
2.440000e-06	2.512533e-07	2.848357e-09	1.742399e+00	1.857562e+02
2.450000e-06	1.963971e-07	2.753621e-09	1.361981e+00	1.801745e+02
2.460000e-06	1.414607e-07	2.667946e-09	9.810067e-01	1.744712e+02
2.470000e-06	8.653856e-08	2.585665e-09	6.001305e-01	1.686376e+02
2.480000e-06	3.160663e-08	2.505341e-09	2.191867e-01	1.626627e+02
2.490000e-06	-2.338791e-08	2.412938e-09	-1.621912e-01	1.565339e+02
2.500000e-06	-7.840632e-08	2.312755e-09	-5.437347e-01	1.502381e+02
2.510000e-06	-1.333905e-07	2.216201e-09	-9.250410e-01	1.437618e+02
2.520000e-06	-1.883402e-07	2.114207e-09	-1.306108e+00	1.370924e+02
2.530000e-06	-2.432222e-07	2.003672e-09	-1.686705e+00	1.302186e+02
2.540000e-06	-2.980313e-07	1.889694e-09	-2.066797e+00	1.231309e+02
2.550000e-06	-3.527372e-07	1.782434e-09	-2.446174e+00	1.158214e+02
2.560000e-06	-4.072680e-07	1.678579e-09	-2.824336e+00	1.082834e+02
2.570000e-06	-4.616138e-07	1.567470e-09	-3.201215e+00	1.005106e+02
2.580000e-06	-5.157448e-07	1.446751e-09	-3.576604e+00	9.249559e+01
2.590000e-06	-5.695226e-07	1.322044e-09	-3.949544e+00	8.422878e+01
2.600000e-06	-6.228954e-07	1.191824e-09	-4.319676e+00	7.569692e+01
2.610000e-06	-6.758726e-07	1.054889e-09	-4.687064e+00	6.688196e+01
2.620000e-06	-7.284236e-07	9.114211e-10	-5.051496e+00	5.776038e+01
2.630000e-06	-7.805125e-07	7.643606e-10	-5.412724e+00	4.830319e+01
2.640000e-06	-8.322320e-07	6.172241e-10	-5.771390e+00	3.847671e+01
2.650000e-06	-8.836406e-07	4.650742e-10	-6.127900e+00	2.824419e+01
2.660000e-06	-9.347638e-07	3.047848e-10	-6.482431e+00	1.756838e+01
2.670000e-06	-9.856663e-07	1.373285e-10	-6.835431e+00	6.414686e+00
2.680000e-06	-1.036172e-06	-3.394036e-11	-7.185679e+00	-5.245097e+00
2.690000e-06	-1.086241e-06	-2.168935e-10	-7.532899e+00	-1.742883e+01
2.700000e-06	-1.135908e-06	-4.151646e-10	-7.877335e+00	-3.014025e+01
2.710000e-06	-1.185157e-06	-6.208492e-10	-8.218868e+00	-4.336569e+01
2.720000e-06	-1.233946e-06	-8.294408e-10	-8.557213e+00	-5.707166e+01
2.730000e-06	-1.282073e-06	-1.044985e-09	-8.890964e+00	-7.120359e+01
2.740000e-06	-1.329382e-06	-1.270163e-09	-9.219043e+00	-8.568588e+01
2.750000e-06	-1.375997e-06	-1.498002e-09	-9.542311e+00	-1.004236e+02
2.760000e-06	-1.422114e-06	-1.722105e-09	-9.862126e+00	-1.153052e+02
2.770000e-06	-1.467861e-06	-1.943858e-09	-1.017937e+01	-1.302073e+02
2.780000e-06	-1.513311e-06	-2.171154e-09	-1.049456e+01	-1.449994e+02
2.790000e-06	-1.558362e-06	-2.401345e-09	-1.080698e+01	-1.595501e+02
2.800000e-06	-1.602868e-06	-2.625502e-09	-1.111562e+01	-1.737331e+02
2.810000e-06	-1.646783e-06	-2.837122e-09	-1.142017e+01	-1.874330e+02
2.820000e-06	-1.690217e-06	-3.036866e-09	-1.172137e+01	-2.005503e+02
2.830000e-06	-1.733273e-06	-3.226848e-09	-1.201996e+01	-2.130054e+02
2.840000e-06	-1.775870e-06	-3.404947e-09	-1.231536e+01	-2.247413e+02
2.850000e-06	-1.817839e-06	-3.570877e-09	-1.260641e+01	-2.357247e+02
2.860000e-06	-1.859172e-06	-3.726062e-09	-1.289305e+01	-2.459453e+02
2.870000e-06	-1.899884e-06	-3.875084e-09	-1.317538e+01	-2.554141e+02
2.880000e-06	-1.939892e-06	-4.016548e-09	-1.345283e+01	-2.641605e+02
2.890000e-06	-1.979323e-06	-4.146886e-09	-1.372628e+01	-2.722277e+02
2.900000e-06	-2.018259e-06	-4.264824e-09	-1.399629e+01	-2.796690e+02
2.910000e-06	-2.056375e-06	-4.369240e-09	-1.426062e+01	-2.865427e+02
2.920000e-06	-2.093416e-06	-4.461577e-09	-1.451749e+01	-2.929079e+02
2.930000e-06	-2.129514e-06	-4.548714e-09	-1.476782e+01	-2.988210e+02
2.940000e-06	-2.164959e-06	-4.635407e-09	-1.501363e+01	-3.043329e+02
