# Temperatura_=_21.2
# Concentracion g/m^3_=_15500.0
# C_Vs_to_Am_M_A/Vsm_=_65563218390.804596
# pendiente_HvsI_1/m_=_3716.3
# ordenada_HvsI_A/m_=_1297.0
# frecuencia_Hz_=_300834.66657127376

Tiempo_(s)	Campo_(V.s)	Magnetizacion_(V.s)	Campo_(kA/m)	Magnetizacion_(A/m)
0.000000e+00	-2.848196e-06	-6.439904e-09	-1.980583e+01	-4.212245e+02
1.000000e-08	-2.847247e-06	-6.437161e-09	-1.979923e+01	-4.211105e+02
2.000000e-08	-2.845417e-06	-6.436067e-09	-1.978651e+01	-4.209110e+02
3.000000e-08	-2.842489e-06	-6.431772e-09	-1.976615e+01	-4.206275e+02
4.000000e-08	-2.838408e-06	-6.424587e-09	-1.973777e+01	-4.202622e+02
5.000000e-08	-2.833426e-06	-6.419643e-09	-1.970312e+01	-4.198186e+02
6.000000e-08	-2.827627e-06	-6.424075e-09	-1.966280e+01	-4.193012e+02
7.000000e-08	-2.820861e-06	-6.428766e-09	-1.961575e+01	-4.187154e+02
8.000000e-08	-2.813054e-06	-6.376268e-09	-1.956146e+01	-4.180668e+02
9.000000e-08	-2.804061e-06	-6.331204e-09	-1.949892e+01	-4.173614e+02
1.000000e-07	-2.793779e-06	-6.381321e-09	-1.942743e+01	-4.166043e+02
1.100000e-07	-2.782240e-06	-6.472637e-09	-1.934718e+01	-4.157997e+02
1.200000e-07	-2.769762e-06	-6.344463e-09	-1.926042e+01	-4.149502e+02
1.300000e-07	-2.756529e-06	-6.185731e-09	-1.916840e+01	-4.140567e+02
1.400000e-07	-2.742392e-06	-6.385327e-09	-1.907009e+01	-4.131177e+02
1.500000e-07	-2.727153e-06	-6.421730e-09	-1.896412e+01	-4.121299e+02
1.600000e-07	-2.710738e-06	-6.199535e-09	-1.884997e+01	-4.110885e+02
1.700000e-07	-2.693140e-06	-6.247245e-09	-1.872760e+01	-4.099871e+02
1.800000e-07	-2.674581e-06	-6.400067e-09	-1.859854e+01	-4.088186e+02
1.900000e-07	-2.655324e-06	-6.203018e-09	-1.846464e+01	-4.075758e+02
2.000000e-07	-2.635234e-06	-6.134760e-09	-1.832493e+01	-4.062523e+02
2.100000e-07	-2.614242e-06	-6.333383e-09	-1.817895e+01	-4.048426e+02
2.200000e-07	-2.592398e-06	-6.177161e-09	-1.802706e+01	-4.033429e+02
2.300000e-07	-2.569697e-06	-6.042463e-09	-1.786920e+01	-4.017513e+02
2.400000e-07	-2.546079e-06	-6.211304e-09	-1.770497e+01	-4.000678e+02
2.500000e-07	-2.521553e-06	-6.143895e-09	-1.753441e+01	-3.982943e+02
2.600000e-07	-2.496228e-06	-5.993508e-09	-1.735831e+01	-3.964341e+02
2.700000e-07	-2.469918e-06	-6.073330e-09	-1.717536e+01	-3.944917e+02
2.800000e-07	-2.442461e-06	-6.034219e-09	-1.698443e+01	-3.924720e+02
2.900000e-07	-2.414090e-06	-5.961068e-09	-1.678714e+01	-3.903798e+02
3.000000e-07	-2.384925e-06	-5.955283e-09	-1.658433e+01	-3.882194e+02
3.100000e-07	-2.354999e-06	-5.918438e-09	-1.637623e+01	-3.859940e+02
3.200000e-07	-2.324364e-06	-5.885612e-09	-1.616320e+01	-3.837057e+02
3.300000e-07	-2.292998e-06	-5.860014e-09	-1.594508e+01	-3.813552e+02
3.400000e-07	-2.260818e-06	-5.793420e-09	-1.572131e+01	-3.789418e+02
3.500000e-07	-2.228006e-06	-5.773622e-09	-1.549315e+01	-3.764641e+02
3.600000e-07	-2.194530e-06	-5.744863e-09	-1.526036e+01	-3.739197e+02
3.700000e-07	-2.159979e-06	-5.666190e-09	-1.502010e+01	-3.713060e+02
3.800000e-07	-2.124334e-06	-5.669791e-09	-1.477223e+01	-3.686205e+02
3.900000e-07	-2.087903e-06	-5.612762e-09	-1.451889e+01	-3.658611e+02
4.000000e-07	-2.050851e-06	-5.541932e-09	-1.426124e+01	-3.630264e+02
4.100000e-07	-2.013102e-06	-5.524586e-09	-1.399874e+01	-3.601157e+02
4.200000e-07	-1.974634e-06	-5.485058e-09	-1.373124e+01	-3.571291e+02
4.300000e-07	-1.935431e-06	-5.413026e-09	-1.345863e+01	-3.540673e+02
4.400000e-07	-1.895551e-06	-5.379181e-09	-1.318131e+01	-3.509313e+02
4.500000e-07	-1.855188e-06	-5.333189e-09	-1.290064e+01	-3.477224e+02
4.600000e-07	-1.814443e-06	-5.271765e-09	-1.261731e+01	-3.444413e+02
4.700000e-07	-1.773105e-06	-5.226586e-09	-1.232984e+01	-3.410884e+02
4.800000e-07	-1.730810e-06	-5.170104e-09	-1.203573e+01	-3.376633e+02
4.900000e-07	-1.687517e-06	-5.115609e-09	-1.173468e+01	-3.341649e+02
5.000000e-07	-1.643448e-06	-5.051354e-09	-1.142823e+01	-3.305913e+02
5.100000e-07	-1.598924e-06	-5.010268e-09	-1.111862e+01	-3.269398e+02
5.200000e-07	-1.554031e-06	-4.951469e-09	-1.080645e+01	-3.232076e+02
5.300000e-07	-1.508594e-06	-4.888464e-09	-1.049049e+01	-3.193917e+02
5.400000e-07	-1.462548e-06	-4.831040e-09	-1.017029e+01	-3.154894e+02
5.500000e-07	-1.415990e-06	-4.772329e-09	-9.846533e+00	-3.114983e+02
5.600000e-07	-1.368976e-06	-4.703973e-09	-9.519604e+00	-3.074170e+02
5.700000e-07	-1.321419e-06	-4.631984e-09	-9.188905e+00	-3.032445e+02
5.800000e-07	-1.273387e-06	-4.573019e-09	-8.854900e+00	-2.989809e+02
5.900000e-07	-1.225026e-06	-4.507270e-09	-8.518604e+00	-2.946267e+02
6.000000e-07	-1.176344e-06	-4.441378e-09	-8.180078e+00	-2.901828e+02
6.100000e-07	-1.127219e-06	-4.367943e-09	-7.838471e+00	-2.856501e+02
6.200000e-07	-1.077487e-06	-4.296812e-09	-7.492646e+00	-2.810293e+02
6.300000e-07	-1.027090e-06	-4.222253e-09	-7.142194e+00	-2.763204e+02
6.400000e-07	-9.760164e-07	-4.150076e-09	-6.787039e+00	-2.715227e+02
6.500000e-07	-9.244523e-07	-4.074722e-09	-6.428471e+00	-2.666345e+02
6.600000e-07	-8.725258e-07	-3.994833e-09	-6.067384e+00	-2.616533e+02
6.700000e-07	-8.202526e-07	-3.917397e-09	-5.703886e+00	-2.565759e+02
6.800000e-07	-7.677644e-07	-3.835349e-09	-5.338892e+00	-2.513984e+02
6.900000e-07	-7.151044e-07	-3.754522e-09	-4.972704e+00	-2.461169e+02
7.000000e-07	-6.622237e-07	-3.667379e-09	-4.604982e+00	-2.407274e+02
7.100000e-07	-6.090630e-07	-3.585289e-09	-4.235312e+00	-2.352264e+02
7.200000e-07	-5.556137e-07	-3.504069e-09	-3.863636e+00	-2.296112e+02
7.300000e-07	-5.019260e-07	-3.418265e-09	-3.490301e+00	-2.238796e+02
7.400000e-07	-4.480612e-07	-3.325025e-09	-3.115735e+00	-2.180302e+02
7.500000e-07	-3.940362e-07	-3.229761e-09	-2.740056e+00	-2.120620e+02
7.600000e-07	-3.399176e-07	-3.135353e-09	-2.363725e+00	-2.059742e+02
7.700000e-07	-2.857088e-07	-3.037423e-09	-1.986766e+00	-1.997659e+02
7.800000e-07	-2.313888e-07	-2.940268e-09	-1.609035e+00	-1.934352e+02
7.900000e-07	-1.770349e-07	-2.840779e-09	-1.231068e+00	-1.869795e+02
8.000000e-07	-1.226374e-07	-2.743932e-09	-8.527979e-01	-1.803945e+02
8.100000e-07	-6.818044e-08	-2.639817e-09	-4.741143e-01	-1.736745e+02
8.200000e-07	-1.371799e-08	-2.533085e-09	-9.539241e-02	-1.668122e+02
8.300000e-07	4.073409e-08	-2.423952e-09	2.832574e-01	-1.597986e+02
8.400000e-07	9.516260e-08	-2.311599e-09	6.617432e-01	-1.526240e+02
8.500000e-07	1.495773e-07	-2.198092e-09	1.040133e+00	-1.452776e+02
8.600000e-07	2.039811e-07	-2.081356e-09	1.418447e+00	-1.377488e+02
8.700000e-07	2.583154e-07	-1.961638e-09	1.796278e+00	-1.300269e+02
8.800000e-07	3.125419e-07	-1.836574e-09	2.173359e+00	-1.221019e+02
8.900000e-07	3.666511e-07	-1.713276e-09	2.549624e+00	-1.139643e+02
9.000000e-07	4.206660e-07	-1.585846e-09	2.925234e+00	-1.056055e+02
9.100000e-07	4.745316e-07	-1.454163e-09	3.299806e+00	-9.701678e+01
9.200000e-07	5.282462e-07	-1.317525e-09	3.673327e+00	-8.818952e+01
9.300000e-07	5.817216e-07	-1.179567e-09	4.045185e+00	-7.911397e+01
9.400000e-07	6.349198e-07	-1.036730e-09	4.415115e+00	-6.977869e+01
9.500000e-07	6.878911e-07	-8.871329e-10	4.783468e+00	-6.016983e+01
9.600000e-07	7.406020e-07	-7.353653e-10	5.150010e+00	-5.027067e+01
9.700000e-07	7.930952e-07	-5.791098e-10	5.515038e+00	-4.006142e+01
9.800000e-07	8.453013e-07	-4.171925e-10	5.878069e+00	-2.951956e+01
9.900000e-07	8.971204e-07	-2.466605e-10	6.238410e+00	-1.862060e+01
1.000000e-06	9.485016e-07	-7.106549e-11	6.595706e+00	-7.339533e+00
1.010000e-06	9.994081e-07	1.092947e-10	6.949700e+00	4.347348e+00
1.020000e-06	1.049720e-06	2.912897e-10	7.299558e+00	1.646007e+01
1.030000e-06	1.099385e-06	4.789996e-10	7.644923e+00	2.901241e+01
1.040000e-06	1.148540e-06	6.764335e-10	7.986736e+00	4.200918e+01
1.050000e-06	1.197280e-06	8.824613e-10	8.325668e+00	5.544376e+01
1.060000e-06	1.245682e-06	1.094367e-09	8.662245e+00	6.929590e+01
1.070000e-06	1.293764e-06	1.310841e-09	8.996597e+00	8.353026e+01
1.080000e-06	1.341444e-06	1.536242e-09	9.328152e+00	9.809568e+01
1.090000e-06	1.388646e-06	1.764956e-09	9.656387e+00	1.129255e+02
1.100000e-06	1.435307e-06	1.994432e-09	9.980864e+00	1.279387e+02
1.110000e-06	1.481451e-06	2.220533e-09	1.030174e+01	1.430422e+02
1.120000e-06	1.527106e-06	2.447307e-09	1.061921e+01	1.581341e+02
1.130000e-06	1.572279e-06	2.674698e-09	1.093334e+01	1.731073e+02
1.140000e-06	1.617037e-06	2.899667e-09	1.124457e+01	1.878539e+02
1.150000e-06	1.661399e-06	3.119050e-09	1.155306e+01	2.022695e+02
1.160000e-06	1.705209e-06	3.329204e-09	1.185771e+01	2.162575e+02
1.170000e-06	1.748284e-06	3.534696e-09	1.215724e+01	2.297329e+02
1.180000e-06	1.790480e-06	3.731126e-09	1.245067e+01	2.426252e+02
1.190000e-06	1.831810e-06	3.914818e-09	1.273807e+01	2.548809e+02
1.200000e-06	1.872513e-06	4.086421e-09	1.302111e+01	2.664644e+02
1.210000e-06	1.912684e-06	4.251150e-09	1.330045e+01	2.773578e+02
1.220000e-06	1.952276e-06	4.406703e-09	1.357577e+01	2.875605e+02
1.230000e-06	1.991253e-06	4.550912e-09	1.384681e+01	2.970868e+02
1.240000e-06	2.029504e-06	4.682329e-09	1.411280e+01	3.059633e+02
1.250000e-06	2.067061e-06	4.805398e-09	1.437396e+01	3.142265e+02
1.260000e-06	2.104025e-06	4.924283e-09	1.463101e+01	3.219186e+02
1.270000e-06	2.140326e-06	5.034952e-09	1.488343e+01	3.290852e+02
1.280000e-06	2.175896e-06	5.134914e-09	1.513078e+01	3.357719e+02
1.290000e-06	2.210557e-06	5.225962e-09	1.537181e+01	3.420223e+02
1.300000e-06	2.244174e-06	5.312303e-09	1.560557e+01	3.478761e+02
1.310000e-06	2.276900e-06	5.394167e-09	1.583315e+01	3.533677e+02
1.320000e-06	2.308918e-06	5.470843e-09	1.605579e+01	3.585265e+02
1.330000e-06	2.340259e-06	5.542935e-09	1.627373e+01	3.633763e+02
1.340000e-06	2.370810e-06	5.611663e-09	1.648618e+01	3.679365e+02
1.350000e-06	2.400573e-06	5.674831e-09	1.669314e+01	3.722227e+02
1.360000e-06	2.429612e-06	5.732546e-09	1.689507e+01	3.762479e+02
1.370000e-06	2.457887e-06	5.788881e-09	1.709169e+01	3.800239e+02
1.380000e-06	2.485268e-06	5.844028e-09	1.728209e+01	3.835614e+02
1.390000e-06	2.511625e-06	5.895628e-09	1.746538e+01	3.868717e+02
1.400000e-06	2.536858e-06	5.940478e-09	1.764084e+01	3.899664e+02
1.410000e-06	2.561091e-06	5.978334e-09	1.780935e+01	3.928580e+02
1.420000e-06	2.584485e-06	6.013925e-09	1.797203e+01	3.955594e+02
1.430000e-06	2.606984e-06	6.050303e-09	1.812849e+01	3.980837e+02
1.440000e-06	2.628673e-06	6.085113e-09	1.827931e+01	4.004436e+02
1.450000e-06	2.649571e-06	6.116357e-09	1.842463e+01	4.026512e+02
1.460000e-06	2.669644e-06	6.145615e-09	1.856421e+01	4.047171e+02
1.470000e-06	2.688839e-06	6.174414e-09	1.869769e+01	4.066502e+02
1.480000e-06	2.707100e-06	6.201918e-09	1.882467e+01	4.084579e+02
1.490000e-06	2.724372e-06	6.226920e-09	1.894478e+01	4.101455e+02
1.500000e-06	2.740634e-06	6.248933e-09	1.905786e+01	4.117169e+02
1.510000e-06	2.755863e-06	6.267150e-09	1.916376e+01	4.131746e+02
1.520000e-06	2.770020e-06	6.285430e-09	1.926221e+01	4.145205e+02
1.530000e-06	2.783165e-06	6.304123e-09	1.935361e+01	4.157556e+02
1.540000e-06	2.795184e-06	6.320469e-09	1.943720e+01	4.168815e+02
1.550000e-06	2.805961e-06	6.334911e-09	1.951214e+01	4.178996e+02
1.560000e-06	2.815577e-06	6.349305e-09	1.957900e+01	4.188119e+02
1.570000e-06	2.824174e-06	6.363505e-09	1.963878e+01	4.196211e+02
1.580000e-06	2.831883e-06	6.374758e-09	1.969239e+01	4.203299e+02
1.590000e-06	2.838665e-06	6.383846e-09	1.973955e+01	4.209415e+02
1.600000e-06	2.844482e-06	6.391791e-09	1.978001e+01	4.214590e+02
1.610000e-06	2.849384e-06	6.398668e-09	1.981409e+01	4.218851e+02
1.620000e-06	2.853360e-06	6.403652e-09	1.984174e+01	4.222221e+02
1.630000e-06	2.856300e-06	6.406764e-09	1.986218e+01	4.224715e+02
1.640000e-06	2.858043e-06	6.410244e-09	1.987431e+01	4.226342e+02
1.650000e-06	2.858646e-06	6.411232e-09	1.987850e+01	4.227107e+02
1.660000e-06	2.858364e-06	6.410235e-09	1.987653e+01	4.227010e+02
1.670000e-06	2.857228e-06	6.412112e-09	1.986864e+01	4.226052e+02
1.680000e-06	2.855171e-06	6.410451e-09	1.985433e+01	4.224238e+02
1.690000e-06	2.852326e-06	6.404518e-09	1.983455e+01	4.221579e+02
1.700000e-06	2.848683e-06	6.397219e-09	1.980922e+01	4.218098e+02
1.710000e-06	2.844071e-06	6.389445e-09	1.977714e+01	4.213824e+02
1.720000e-06	2.838348e-06	6.369522e-09	1.973735e+01	4.208802e+02
1.730000e-06	2.831553e-06	6.353967e-09	1.969010e+01	4.203084e+02
1.740000e-06	2.823776e-06	6.399881e-09	1.963602e+01	4.196726e+02
1.750000e-06	2.814798e-06	6.403296e-09	1.957359e+01	4.189787e+02
1.760000e-06	2.804409e-06	6.268544e-09	1.950134e+01	4.182321e+02
1.770000e-06	2.792992e-06	6.261086e-09	1.942195e+01	4.174372e+02
1.780000e-06	2.781087e-06	6.375551e-09	1.933917e+01	4.165971e+02
1.790000e-06	2.768502e-06	6.392336e-09	1.925165e+01	4.157128e+02
1.800000e-06	2.754685e-06	6.159839e-09	1.915557e+01	4.147836e+02
1.810000e-06	2.739602e-06	6.236485e-09	1.905069e+01	4.138065e+02
1.820000e-06	2.723576e-06	6.435425e-09	1.893925e+01	4.127769e+02
1.830000e-06	2.706647e-06	6.193835e-09	1.882153e+01	4.116887e+02
1.840000e-06	2.688608e-06	6.122337e-09	1.869608e+01	4.105350e+02
1.850000e-06	2.669565e-06	6.354584e-09	1.856367e+01	4.093085e+02
1.860000e-06	2.649732e-06	6.227894e-09	1.842575e+01	4.080027e+02
1.870000e-06	2.628998e-06	6.028564e-09	1.828157e+01	4.066116e+02
1.880000e-06	2.607114e-06	6.245135e-09	1.812939e+01	4.051313e+02
1.890000e-06	2.584196e-06	6.222375e-09	1.797002e+01	4.035592e+02
1.900000e-06	2.560437e-06	6.006238e-09	1.780480e+01	4.018951e+02
1.910000e-06	2.535805e-06	6.117210e-09	1.763352e+01	4.001405e+02
1.920000e-06	2.510354e-06	6.132981e-09	1.745654e+01	3.982984e+02
1.930000e-06	2.484119e-06	5.952659e-09	1.727410e+01	3.963730e+02
1.940000e-06	2.457055e-06	6.027806e-09	1.708591e+01	3.943693e+02
1.950000e-06	2.429173e-06	5.989972e-09	1.689202e+01	3.922920e+02
1.960000e-06	2.400266e-06	5.903840e-09	1.669101e+01	3.901457e+02
1.970000e-06	2.370166e-06	5.944082e-09	1.648170e+01	3.879339e+02
1.980000e-06	2.339175e-06	5.847334e-09	1.626620e+01	3.856588e+02
1.990000e-06	2.307523e-06	5.814338e-09	1.604609e+01	3.833214e+02
2.000000e-06	2.275147e-06	5.841333e-09	1.582095e+01	3.809215e+02
2.010000e-06	2.242011e-06	5.719565e-09	1.559053e+01	3.784575e+02
2.020000e-06	2.208060e-06	5.718815e-09	1.535444e+01	3.759274e+02
2.030000e-06	2.173398e-06	5.725484e-09	1.511341e+01	3.733286e+02
2.040000e-06	2.138171e-06	5.593436e-09	1.486845e+01	3.706585e+02
2.050000e-06	2.102254e-06	5.609775e-09	1.461869e+01	3.679149e+02
2.060000e-06	2.065422e-06	5.579527e-09	1.436257e+01	3.650962e+02
2.070000e-06	2.027536e-06	5.475928e-09	1.409911e+01	3.622016e+02
2.080000e-06	1.988760e-06	5.478639e-09	1.382947e+01	3.592311e+02
2.090000e-06	1.949361e-06	5.420449e-09	1.355550e+01	3.561851e+02
2.100000e-06	1.909400e-06	5.362020e-09	1.327762e+01	3.530648e+02
2.110000e-06	1.868773e-06	5.343703e-09	1.299511e+01	3.498713e+02
2.120000e-06	1.827560e-06	5.268027e-09	1.270852e+01	3.466054e+02
2.130000e-06	1.785816e-06	5.221434e-09	1.241823e+01	3.432677e+02
2.140000e-06	1.743462e-06	5.177871e-09	1.212371e+01	3.398580e+02
2.150000e-06	1.700578e-06	5.116911e-09	1.182550e+01	3.363753e+02
2.160000e-06	1.657237e-06	5.076707e-09	1.152412e+01	3.328177e+02
2.170000e-06	1.613432e-06	5.004900e-09	1.121951e+01	3.291830e+02
2.180000e-06	1.568964e-06	4.957868e-09	1.091029e+01	3.254682e+02
2.190000e-06	1.523788e-06	4.910806e-09	1.059614e+01	3.216703e+02
2.200000e-06	1.478138e-06	4.831902e-09	1.027870e+01	3.177865e+02
2.210000e-06	1.432033e-06	4.784740e-09	9.958095e+00	3.138144e+02
2.220000e-06	1.385540e-06	4.720452e-09	9.634790e+00	3.097523e+02
2.230000e-06	1.338603e-06	4.661199e-09	9.308396e+00	3.055992e+02
2.240000e-06	1.291061e-06	4.598523e-09	8.977799e+00	3.013550e+02
2.250000e-06	1.242897e-06	4.518826e-09	8.642874e+00	2.970199e+02
2.260000e-06	1.194172e-06	4.461958e-09	8.304055e+00	2.925950e+02
2.270000e-06	1.145055e-06	4.395760e-09	7.962502e+00	2.880811e+02
2.280000e-06	1.095557e-06	4.325265e-09	7.618300e+00	2.834789e+02
2.290000e-06	1.045640e-06	4.260704e-09	7.271186e+00	2.787887e+02
2.300000e-06	9.953016e-07	4.183693e-09	6.921144e+00	2.740100e+02
2.310000e-06	9.445516e-07	4.111392e-09	6.568238e+00	2.691412e+02
2.320000e-06	8.934964e-07	4.038253e-09	6.213209e+00	2.641800e+02
2.330000e-06	8.422222e-07	3.957397e-09	5.856658e+00	2.591234e+02
2.340000e-06	7.906690e-07	3.880889e-09	5.498167e+00	2.539675e+02
2.350000e-06	7.387283e-07	3.795943e-09	5.136981e+00	2.487084e+02
2.360000e-06	6.863707e-07	3.718091e-09	4.772895e+00	2.433421e+02
2.370000e-06	6.336502e-07	3.636115e-09	4.406287e+00	2.378651e+02
2.380000e-06	5.805110e-07	3.549959e-09	4.036767e+00	2.322744e+02
2.390000e-06	5.269773e-07	3.472543e-09	3.664503e+00	2.265677e+02
2.400000e-06	4.731720e-07	3.386173e-09	3.290351e+00	2.207435e+02
2.410000e-06	4.190306e-07	3.298555e-09	2.913862e+00	2.148006e+02
2.420000e-06	3.646628e-07	3.208286e-09	2.535798e+00	2.087384e+02
2.430000e-06	3.101821e-07	3.112067e-09	2.156949e+00	2.025558e+02
2.440000e-06	2.555789e-07	3.011931e-09	1.777249e+00	1.962514e+02
2.450000e-06	2.008925e-07	2.907282e-09	1.396969e+00	1.898226e+02
2.460000e-06	1.460702e-07	2.807443e-09	1.015746e+00	1.832656e+02
2.470000e-06	9.116517e-08	2.712141e-09	6.339458e-01	1.765749e+02
2.480000e-06	3.627173e-08	2.614390e-09	2.522269e-01	1.697435e+02
2.490000e-06	-1.863858e-08	2.515184e-09	-1.296092e-01	1.627630e+02
2.500000e-06	-7.361319e-08	2.411978e-09	-5.118926e-01	1.556235e+02
2.510000e-06	-1.285494e-07	2.300867e-09	-8.939086e-01	1.483147e+02
2.520000e-06	-1.834033e-07	2.184236e-09	-1.275353e+00	1.408258e+02
2.530000e-06	-2.381661e-07	2.061815e-09	-1.656163e+00	1.331459e+02
2.540000e-06	-2.928192e-07	1.940201e-09	-2.036211e+00	1.252651e+02
2.550000e-06	-3.473939e-07	1.817770e-09	-2.415713e+00	1.171736e+02
2.560000e-06	-4.017638e-07	1.695122e-09	-2.793791e+00	1.088627e+02
2.570000e-06	-4.558688e-07	1.572979e-09	-3.170028e+00	1.003238e+02
2.580000e-06	-5.096958e-07	1.444681e-09	-3.544331e+00	9.154825e+01
2.590000e-06	-5.631958e-07	1.309062e-09	-3.916360e+00	8.252662e+01
2.600000e-06	-6.163365e-07	1.165799e-09	-4.285891e+00	7.324789e+01
2.610000e-06	-6.690501e-07	1.017767e-09	-4.652451e+00	6.369878e+01
2.620000e-06	-7.213665e-07	8.632265e-10	-5.016250e+00	5.386321e+01
2.630000e-06	-7.733069e-07	7.056202e-10	-5.377434e+00	4.372204e+01
2.640000e-06	-8.249346e-07	5.480399e-10	-5.736444e+00	3.325328e+01
2.650000e-06	-8.763461e-07	3.883664e-10	-6.093950e+00	2.243278e+01
2.660000e-06	-9.274529e-07	2.234394e-10	-6.449337e+00	1.123548e+01
2.670000e-06	-9.782069e-07	5.139865e-11	-6.802271e+00	-3.627748e-01
2.680000e-06	-1.028628e-06	-1.298419e-10	-7.152892e+00	-1.238301e+01
2.690000e-06	-1.078613e-06	-3.207609e-10	-7.500475e+00	-2.484058e+01
2.700000e-06	-1.128133e-06	-5.201290e-10	-7.844829e+00	-3.774243e+01
2.710000e-06	-1.177214e-06	-7.287025e-10	-8.186127e+00	-5.108458e+01
2.720000e-06	-1.225815e-06	-9.413360e-10	-8.524092e+00	-6.484987e+01
2.730000e-06	-1.273801e-06	-1.156030e-09	-8.857775e+00	-7.900627e+01
2.740000e-06	-1.321047e-06	-1.373342e-09	-9.186318e+00	-9.350603e+01
2.750000e-06	-1.367657e-06	-1.595951e-09	-9.510436e+00	-1.082857e+02
2.760000e-06	-1.413714e-06	-1.823966e-09	-9.830710e+00	-1.232672e+02
2.770000e-06	-1.459339e-06	-2.054593e-09	-1.014797e+01	-1.383599e+02
2.780000e-06	-1.504652e-06	-2.287410e-09	-1.046307e+01	-1.534634e+02
2.790000e-06	-1.549564e-06	-2.521777e-09	-1.077538e+01	-1.684714e+02
2.800000e-06	-1.593993e-06	-2.752263e-09	-1.108433e+01	-1.832757e+02
2.810000e-06	-1.637869e-06	-2.972447e-09	-1.138944e+01	-1.977709e+02
2.820000e-06	-1.681232e-06	-3.186135e-09	-1.169098e+01	-2.118583e+02
2.830000e-06	-1.724208e-06	-3.393779e-09	-1.198983e+01	-2.254501e+02
2.840000e-06	-1.766714e-06	-3.592658e-09	-1.228541e+01	-2.384727e+02
2.850000e-06	-1.808639e-06	-3.782009e-09	-1.257695e+01	-2.508686e+02
2.860000e-06	-1.849928e-06	-3.961724e-09	-1.286406e+01	-2.625984e+02
2.870000e-06	-1.890564e-06	-4.131681e-09	-1.314664e+01	-2.736405e+02
2.880000e-06	-1.930581e-06	-4.291814e-09	-1.342491e+01	-2.839907e+02
2.890000e-06	-1.970001e-06	-4.443814e-09	-1.369903e+01	-2.936602e+02
2.900000e-06	-2.008823e-06	-4.587167e-09	-1.396899e+01	-3.026734e+02
2.910000e-06	-2.046908e-06	-4.717630e-09	-1.423382e+01	-3.110647e+02
2.920000e-06	-2.084020e-06	-4.834083e-09	-1.449189e+01	-3.188756e+02
2.930000e-06	-2.120195e-06	-4.943751e-09	-1.474345e+01	-3.261511e+02
2.940000e-06	-2.155626e-06	-5.051706e-09	-1.498983e+01	-3.329371e+02
