# Temperatura_=_31.44
# Concentracion g/m^3_=_15500.0
# C_Vs_to_Am_M_A/Vsm_=_65563218390.804596
# pendiente_HvsI_1/m_=_3716.3
# ordenada_HvsI_A/m_=_1297.0
# frecuencia_Hz_=_300849.7215464002

Tiempo_(s)	Campo_(V.s)	Magnetizacion_(V.s)	Campo_(kA/m)	Magnetizacion_(A/m)
0.000000e+00	-2.853300e-06	-5.782655e-09	-1.980083e+01	-3.772697e+02
1.000000e-08	-2.852187e-06	-5.783209e-09	-1.979311e+01	-3.771750e+02
2.000000e-08	-2.849972e-06	-5.783233e-09	-1.977774e+01	-3.770006e+02
3.000000e-08	-2.846513e-06	-5.782128e-09	-1.975373e+01	-3.767468e+02
4.000000e-08	-2.842121e-06	-5.777384e-09	-1.972326e+01	-3.764158e+02
5.000000e-08	-2.836973e-06	-5.765181e-09	-1.968753e+01	-3.760127e+02
6.000000e-08	-2.830922e-06	-5.740547e-09	-1.964554e+01	-3.755444e+02
7.000000e-08	-2.823861e-06	-5.731480e-09	-1.959654e+01	-3.750193e+02
8.000000e-08	-2.815790e-06	-5.787672e-09	-1.954053e+01	-3.744466e+02
9.000000e-08	-2.806439e-06	-5.854794e-09	-1.947564e+01	-3.738348e+02
1.000000e-07	-2.795637e-06	-5.745811e-09	-1.940067e+01	-3.731916e+02
1.100000e-07	-2.783792e-06	-5.566659e-09	-1.931847e+01	-3.725220e+02
1.200000e-07	-2.771216e-06	-5.647093e-09	-1.923120e+01	-3.718285e+02
1.300000e-07	-2.757706e-06	-5.824595e-09	-1.913745e+01	-3.711101e+02
1.400000e-07	-2.743166e-06	-5.691435e-09	-1.903654e+01	-3.703630e+02
1.500000e-07	-2.727684e-06	-5.520031e-09	-1.892911e+01	-3.695803e+02
1.600000e-07	-2.710918e-06	-5.732807e-09	-1.881275e+01	-3.687532e+02
1.700000e-07	-2.692883e-06	-5.727846e-09	-1.868760e+01	-3.678716e+02
1.800000e-07	-2.674164e-06	-5.478882e-09	-1.855770e+01	-3.669254e+02
1.900000e-07	-2.654731e-06	-5.585448e-09	-1.842284e+01	-3.659053e+02
2.000000e-07	-2.634340e-06	-5.647382e-09	-1.828133e+01	-3.648041e+02
2.100000e-07	-2.613127e-06	-5.438035e-09	-1.813412e+01	-3.636170e+02
2.200000e-07	-2.591119e-06	-5.492296e-09	-1.798140e+01	-3.623424e+02
2.300000e-07	-2.568123e-06	-5.651267e-09	-1.782181e+01	-3.609814e+02
2.400000e-07	-2.544179e-06	-5.481083e-09	-1.765565e+01	-3.595380e+02
2.500000e-07	-2.519480e-06	-5.382038e-09	-1.748425e+01	-3.580184e+02
2.600000e-07	-2.493922e-06	-5.472588e-09	-1.730688e+01	-3.564300e+02
2.700000e-07	-2.467266e-06	-5.429180e-09	-1.712190e+01	-3.547804e+02
2.800000e-07	-2.439458e-06	-5.354945e-09	-1.692893e+01	-3.530768e+02
2.900000e-07	-2.410729e-06	-5.365993e-09	-1.672955e+01	-3.513251e+02
3.000000e-07	-2.381293e-06	-5.326182e-09	-1.652528e+01	-3.495289e+02
3.100000e-07	-2.351163e-06	-5.339907e-09	-1.631619e+01	-3.476897e+02
3.200000e-07	-2.320289e-06	-5.304114e-09	-1.610194e+01	-3.458067e+02
3.300000e-07	-2.288599e-06	-5.202082e-09	-1.588202e+01	-3.438771e+02
3.400000e-07	-2.256217e-06	-5.211959e-09	-1.565730e+01	-3.418964e+02
3.500000e-07	-2.223272e-06	-5.194342e-09	-1.542867e+01	-3.398592e+02
3.600000e-07	-2.189522e-06	-5.141355e-09	-1.519446e+01	-3.377604e+02
3.700000e-07	-2.154549e-06	-5.147676e-09	-1.495176e+01	-3.355951e+02
3.800000e-07	-2.118490e-06	-5.090924e-09	-1.470152e+01	-3.333597e+02
3.900000e-07	-2.081830e-06	-5.004749e-09	-1.444712e+01	-3.310522e+02
4.000000e-07	-2.044613e-06	-5.033990e-09	-1.418885e+01	-3.286723e+02
4.100000e-07	-2.006679e-06	-5.001837e-09	-1.392560e+01	-3.262212e+02
4.200000e-07	-1.968031e-06	-4.907069e-09	-1.365740e+01	-3.237013e+02
4.300000e-07	-1.928631e-06	-4.885158e-09	-1.338398e+01	-3.211159e+02
4.400000e-07	-1.888566e-06	-4.874585e-09	-1.310594e+01	-3.184682e+02
4.500000e-07	-1.848095e-06	-4.823934e-09	-1.282509e+01	-3.157609e+02
4.600000e-07	-1.807222e-06	-4.771908e-09	-1.254144e+01	-3.129958e+02
4.700000e-07	-1.765596e-06	-4.725137e-09	-1.225258e+01	-3.101733e+02
4.800000e-07	-1.722888e-06	-4.676377e-09	-1.195620e+01	-3.072923e+02
4.900000e-07	-1.679206e-06	-4.647437e-09	-1.165306e+01	-3.043504e+02
5.000000e-07	-1.634922e-06	-4.598781e-09	-1.134575e+01	-3.013439e+02
5.100000e-07	-1.590211e-06	-4.536042e-09	-1.103547e+01	-2.982684e+02
5.200000e-07	-1.545013e-06	-4.487027e-09	-1.072181e+01	-2.951197e+02
5.300000e-07	-1.499239e-06	-4.455167e-09	-1.040416e+01	-2.918937e+02
5.400000e-07	-1.452949e-06	-4.409672e-09	-1.008292e+01	-2.885872e+02
5.500000e-07	-1.406234e-06	-4.345263e-09	-9.758739e+00	-2.851986e+02
5.600000e-07	-1.358972e-06	-4.281430e-09	-9.430756e+00	-2.817272e+02
5.700000e-07	-1.311168e-06	-4.229754e-09	-9.099015e+00	-2.781739e+02
5.800000e-07	-1.262976e-06	-4.188354e-09	-8.764580e+00	-2.745407e+02
5.900000e-07	-1.214485e-06	-4.123649e-09	-8.428073e+00	-2.708300e+02
6.000000e-07	-1.165641e-06	-4.057462e-09	-8.089110e+00	-2.670443e+02
6.100000e-07	-1.116249e-06	-4.005311e-09	-7.746351e+00	-2.631856e+02
6.200000e-07	-1.066205e-06	-3.954164e-09	-7.399062e+00	-2.592548e+02
6.300000e-07	-1.015526e-06	-3.888213e-09	-7.047369e+00	-2.552514e+02
6.400000e-07	-9.642943e-07	-3.815307e-09	-6.691841e+00	-2.511734e+02
6.500000e-07	-9.125627e-07	-3.748033e-09	-6.332843e+00	-2.470171e+02
6.600000e-07	-8.604275e-07	-3.687968e-09	-5.971044e+00	-2.427777e+02
6.700000e-07	-8.080232e-07	-3.628129e-09	-5.607378e+00	-2.384495e+02
6.800000e-07	-7.553714e-07	-3.554649e-09	-5.241994e+00	-2.340262e+02
6.900000e-07	-7.024827e-07	-3.480163e-09	-4.874967e+00	-2.295023e+02
7.000000e-07	-6.493464e-07	-3.411924e-09	-4.506221e+00	-2.248727e+02
7.100000e-07	-5.959897e-07	-3.345683e-09	-4.135945e+00	-2.201338e+02
7.200000e-07	-5.424446e-07	-3.268894e-09	-3.764363e+00	-2.152831e+02
7.300000e-07	-4.886573e-07	-3.187748e-09	-3.391099e+00	-2.103196e+02
7.400000e-07	-4.346484e-07	-3.110252e-09	-3.016297e+00	-2.052433e+02
7.500000e-07	-3.804860e-07	-3.034640e-09	-2.640430e+00	-2.000545e+02
7.600000e-07	-3.262422e-07	-2.953534e-09	-2.263999e+00	-1.947535e+02
7.700000e-07	-2.719639e-07	-2.863988e-09	-1.887328e+00	-1.893397e+02
7.800000e-07	-2.175995e-07	-2.778100e-09	-1.510059e+00	-1.838112e+02
7.900000e-07	-1.631439e-07	-2.695879e-09	-1.132157e+00	-1.781637e+02
8.000000e-07	-1.086247e-07	-2.610591e-09	-7.538148e-01	-1.723909e+02
8.100000e-07	-5.404169e-08	-2.516361e-09	-3.750291e-01	-1.664843e+02
8.200000e-07	5.177181e-10	-2.420527e-09	3.592769e-03	-1.604334e+02
8.300000e-07	5.502249e-08	-2.324790e-09	3.818355e-01	-1.542261e+02
8.400000e-07	1.095220e-07	-2.226761e-09	7.600413e-01	-1.478499e+02
8.500000e-07	1.639965e-07	-2.126442e-09	1.138074e+00	-1.412920e+02
8.600000e-07	2.184280e-07	-2.020968e-09	1.515808e+00	-1.345403e+02
8.700000e-07	2.728390e-07	-1.914119e-09	1.893401e+00	-1.275840e+02
8.800000e-07	3.272220e-07	-1.805300e-09	2.270798e+00	-1.204133e+02
8.900000e-07	3.814989e-07	-1.691066e-09	2.647459e+00	-1.130195e+02
9.000000e-07	4.356217e-07	-1.568004e-09	3.023051e+00	-1.053942e+02
9.100000e-07	4.895779e-07	-1.444867e-09	3.397487e+00	-9.752847e+01
9.200000e-07	5.433361e-07	-1.324790e-09	3.770549e+00	-8.941138e+01
9.300000e-07	5.968269e-07	-1.200633e-09	4.141755e+00	-8.102897e+01
9.400000e-07	6.500445e-07	-1.068182e-09	4.511065e+00	-7.236294e+01
9.500000e-07	7.030136e-07	-9.285229e-10	4.878651e+00	-6.338988e+01
9.600000e-07	7.557468e-07	-7.852794e-10	5.244600e+00	-5.408101e+01
9.700000e-07	8.082650e-07	-6.353842e-10	5.609056e+00	-4.440264e+01
9.800000e-07	8.605302e-07	-4.772142e-10	5.971757e+00	-3.431746e+01
9.900000e-07	9.124633e-07	-3.091133e-10	6.332154e+00	-2.378669e+01
1.000000e-06	9.639694e-07	-1.373908e-10	6.689586e+00	-1.277297e+01
1.010000e-06	1.014925e-06	3.425528e-11	7.043199e+00	-1.243956e+00
1.020000e-06	1.065211e-06	2.109405e-10	7.392167e+00	1.082385e+01
1.030000e-06	1.114840e-06	4.005861e-10	7.736570e+00	2.344118e+01
1.040000e-06	1.163930e-06	6.030599e-10	8.077239e+00	3.660237e+01
1.050000e-06	1.212655e-06	8.120366e-10	8.415369e+00	5.028250e+01
1.060000e-06	1.261120e-06	1.027857e-09	8.751698e+00	6.443552e+01
1.070000e-06	1.309259e-06	1.252842e-09	9.085768e+00	7.899366e+01
1.080000e-06	1.356964e-06	1.485934e-09	9.416822e+00	9.386826e+01
1.090000e-06	1.404147e-06	1.717754e-09	9.744255e+00	1.089522e+02
1.100000e-06	1.450774e-06	1.944107e-09	1.006783e+01	1.241234e+02
1.110000e-06	1.496861e-06	2.169429e-09	1.038766e+01	1.392501e+02
1.120000e-06	1.542439e-06	2.395935e-09	1.070395e+01	1.541963e+02
1.130000e-06	1.587540e-06	2.618243e-09	1.101693e+01	1.688281e+02
1.140000e-06	1.632232e-06	2.832374e-09	1.132708e+01	1.830197e+02
1.150000e-06	1.676565e-06	3.037965e-09	1.163473e+01	1.966593e+02
1.160000e-06	1.720358e-06	3.233686e-09	1.193864e+01	2.096535e+02
1.170000e-06	1.763346e-06	3.419651e-09	1.223696e+01	2.219314e+02
1.180000e-06	1.805370e-06	3.593115e-09	1.252859e+01	2.334458e+02
1.190000e-06	1.846519e-06	3.753727e-09	1.281415e+01	2.441743e+02
1.200000e-06	1.887087e-06	3.902499e-09	1.309567e+01	2.541178e+02
1.210000e-06	1.927179e-06	4.040645e-09	1.337390e+01	2.632980e+02
1.220000e-06	1.966679e-06	4.167393e-09	1.364801e+01	2.717537e+02
1.230000e-06	2.005529e-06	4.283712e-09	1.391762e+01	2.795367e+02
1.240000e-06	2.043690e-06	4.391404e-09	1.418245e+01	2.867064e+02
1.250000e-06	2.081090e-06	4.491055e-09	1.444198e+01	2.933258e+02
1.260000e-06	2.117857e-06	4.583704e-09	1.469714e+01	2.994568e+02
1.270000e-06	2.154127e-06	4.668173e-09	1.494884e+01	3.051567e+02
1.280000e-06	2.189680e-06	4.746508e-09	1.519556e+01	3.104758e+02
1.290000e-06	2.224156e-06	4.820538e-09	1.543481e+01	3.154561e+02
1.300000e-06	2.257593e-06	4.890919e-09	1.566685e+01	3.201305e+02
1.310000e-06	2.290249e-06	4.956818e-09	1.589347e+01	3.245234e+02
1.320000e-06	2.322176e-06	5.017832e-09	1.611503e+01	3.286523e+02
1.330000e-06	2.353345e-06	5.074374e-09	1.633134e+01	3.325293e+02
1.340000e-06	2.383719e-06	5.125675e-09	1.654211e+01	3.361633e+02
1.350000e-06	2.413292e-06	5.172288e-09	1.674734e+01	3.395615e+02
1.360000e-06	2.442145e-06	5.216370e-09	1.694757e+01	3.427317e+02
1.370000e-06	2.470307e-06	5.260261e-09	1.714300e+01	3.456832e+02
1.380000e-06	2.497556e-06	5.302893e-09	1.733210e+01	3.484273e+02
1.390000e-06	2.523617e-06	5.341331e-09	1.751296e+01	3.509776e+02
1.400000e-06	2.548578e-06	5.375117e-09	1.768618e+01	3.533499e+02
1.410000e-06	2.572653e-06	5.404766e-09	1.785325e+01	3.555605e+02
1.420000e-06	2.595843e-06	5.432369e-09	1.801418e+01	3.576263e+02
1.430000e-06	2.618143e-06	5.460408e-09	1.816893e+01	3.595627e+02
1.440000e-06	2.639592e-06	5.487514e-09	1.831778e+01	3.613833e+02
1.450000e-06	2.660311e-06	5.511877e-09	1.846156e+01	3.630988e+02
1.460000e-06	2.680285e-06	5.534660e-09	1.860018e+01	3.647168e+02
1.470000e-06	2.699279e-06	5.558534e-09	1.873199e+01	3.662418e+02
1.480000e-06	2.717275e-06	5.583099e-09	1.885687e+01	3.676755e+02
1.490000e-06	2.734319e-06	5.602660e-09	1.897515e+01	3.690175e+02
1.500000e-06	2.750346e-06	5.617236e-09	1.908637e+01	3.702661e+02
1.510000e-06	2.765292e-06	5.631761e-09	1.919009e+01	3.714194e+02
1.520000e-06	2.779180e-06	5.647708e-09	1.928647e+01	3.724761e+02
1.530000e-06	2.792080e-06	5.661911e-09	1.937599e+01	3.734361e+02
1.540000e-06	2.803942e-06	5.674185e-09	1.945831e+01	3.743008e+02
1.550000e-06	2.814546e-06	5.688707e-09	1.953189e+01	3.750736e+02
1.560000e-06	2.823892e-06	5.704309e-09	1.959675e+01	3.757591e+02
1.570000e-06	2.832256e-06	5.716533e-09	1.965480e+01	3.763630e+02
1.580000e-06	2.839728e-06	5.724144e-09	1.970665e+01	3.768914e+02
1.590000e-06	2.846253e-06	5.730232e-09	1.975193e+01	3.773497e+02
1.600000e-06	2.851809e-06	5.736392e-09	1.979048e+01	3.777425e+02
1.610000e-06	2.856502e-06	5.741046e-09	1.982305e+01	3.780725e+02
1.620000e-06	2.860276e-06	5.744686e-09	1.984924e+01	3.783406e+02
1.630000e-06	2.862823e-06	5.749706e-09	1.986692e+01	3.785457e+02
1.640000e-06	2.864138e-06	5.755610e-09	1.987604e+01	3.786850e+02
1.650000e-06	2.864492e-06	5.760031e-09	1.987850e+01	3.787549e+02
1.660000e-06	2.863987e-06	5.759765e-09	1.987499e+01	3.787512e+02
1.670000e-06	2.862588e-06	5.754681e-09	1.986529e+01	3.786703e+02
1.680000e-06	2.860293e-06	5.750217e-09	1.984936e+01	3.785101e+02
1.690000e-06	2.857173e-06	5.748351e-09	1.982771e+01	3.782702e+02
1.700000e-06	2.853272e-06	5.744958e-09	1.980064e+01	3.779526e+02
1.710000e-06	2.848365e-06	5.743860e-09	1.976659e+01	3.775617e+02
1.720000e-06	2.842281e-06	5.763776e-09	1.972436e+01	3.771043e+02
1.730000e-06	2.835222e-06	5.751469e-09	1.967538e+01	3.765886e+02
1.740000e-06	2.827255e-06	5.649299e-09	1.962009e+01	3.760235e+02
1.750000e-06	2.817893e-06	5.588210e-09	1.955512e+01	3.754179e+02
1.760000e-06	2.806965e-06	5.730214e-09	1.947928e+01	3.747797e+02
1.770000e-06	2.795267e-06	5.849176e-09	1.939811e+01	3.741144e+02
1.780000e-06	2.783460e-06	5.642957e-09	1.931617e+01	3.734249e+02
1.790000e-06	2.770756e-06	5.538332e-09	1.922801e+01	3.727111e+02
1.800000e-06	2.756297e-06	5.735771e-09	1.912767e+01	3.719694e+02
1.810000e-06	2.740791e-06	5.725450e-09	1.902006e+01	3.711935e+02
1.820000e-06	2.724763e-06	5.481608e-09	1.890884e+01	3.703749e+02
1.830000e-06	2.707554e-06	5.595362e-09	1.878941e+01	3.695036e+02
1.840000e-06	2.689036e-06	5.782277e-09	1.866090e+01	3.685695e+02
1.850000e-06	2.669857e-06	5.521120e-09	1.852781e+01	3.675630e+02
1.860000e-06	2.649879e-06	5.498985e-09	1.838916e+01	3.664766e+02
1.870000e-06	2.628647e-06	5.731715e-09	1.824183e+01	3.653049e+02
1.880000e-06	2.606382e-06	5.497007e-09	1.808731e+01	3.640457e+02
1.890000e-06	2.583195e-06	5.356448e-09	1.792641e+01	3.626997e+02
1.900000e-06	2.559031e-06	5.591707e-09	1.775871e+01	3.612705e+02
1.910000e-06	2.534163e-06	5.531186e-09	1.758614e+01	3.597639e+02
1.920000e-06	2.508529e-06	5.399810e-09	1.740825e+01	3.581870e+02
1.930000e-06	2.481914e-06	5.455500e-09	1.722355e+01	3.565476e+02
1.940000e-06	2.454617e-06	5.408634e-09	1.703412e+01	3.548531e+02
1.950000e-06	2.426486e-06	5.369100e-09	1.683891e+01	3.531094e+02
1.960000e-06	2.397077e-06	5.369899e-09	1.663482e+01	3.513208e+02
1.970000e-06	2.366602e-06	5.252961e-09	1.642333e+01	3.494891e+02
1.980000e-06	2.335392e-06	5.292041e-09	1.620675e+01	3.476140e+02
1.990000e-06	2.303504e-06	5.334624e-09	1.598545e+01	3.456928e+02
2.000000e-06	2.270895e-06	5.183406e-09	1.575916e+01	3.437214e+02
2.010000e-06	2.237448e-06	5.198456e-09	1.552705e+01	3.416946e+02
2.020000e-06	2.203199e-06	5.194423e-09	1.528938e+01	3.396070e+02
2.030000e-06	2.168334e-06	5.065905e-09	1.504743e+01	3.374537e+02
2.040000e-06	2.132838e-06	5.117120e-09	1.480110e+01	3.352308e+02
2.050000e-06	2.096676e-06	5.102530e-09	1.455015e+01	3.329361e+02
2.060000e-06	2.059588e-06	4.972885e-09	1.429277e+01	3.305690e+02
2.070000e-06	2.021308e-06	4.995003e-09	1.402712e+01	3.281303e+02
2.080000e-06	1.982224e-06	4.977669e-09	1.375589e+01	3.256223e+02
2.090000e-06	1.942616e-06	4.895241e-09	1.348102e+01	3.230482e+02
2.100000e-06	1.902390e-06	4.873105e-09	1.320187e+01	3.204112e+02
2.110000e-06	1.861544e-06	4.826178e-09	1.291842e+01	3.177142e+02
2.120000e-06	1.820118e-06	4.793160e-09	1.263094e+01	3.149592e+02
2.130000e-06	1.778086e-06	4.757086e-09	1.233925e+01	3.121468e+02
2.140000e-06	1.735457e-06	4.693689e-09	1.204342e+01	3.092763e+02
2.150000e-06	1.692344e-06	4.654317e-09	1.174423e+01	3.063453e+02
2.160000e-06	1.648832e-06	4.618822e-09	1.144227e+01	3.033505e+02
2.170000e-06	1.604787e-06	4.579419e-09	1.113662e+01	3.002876e+02
2.180000e-06	1.560044e-06	4.523979e-09	1.082612e+01	2.971521e+02
2.190000e-06	1.514630e-06	4.460807e-09	1.051097e+01	2.939399e+02
2.200000e-06	1.468687e-06	4.417505e-09	1.019213e+01	2.906479e+02
2.210000e-06	1.422400e-06	4.375281e-09	9.870923e+00	2.872738e+02
2.220000e-06	1.375719e-06	4.326853e-09	9.546973e+00	2.838170e+02
2.230000e-06	1.328469e-06	4.269155e-09	9.219077e+00	2.802781e+02
2.240000e-06	1.280576e-06	4.202702e-09	8.886719e+00	2.766588e+02
2.250000e-06	1.232066e-06	4.163406e-09	8.550077e+00	2.729616e+02
2.260000e-06	1.183119e-06	4.106259e-09	8.210400e+00	2.691889e+02
2.270000e-06	1.133831e-06	4.031920e-09	7.868363e+00	2.653430e+02
2.280000e-06	1.084197e-06	3.980491e-09	7.523919e+00	2.614249e+02
2.290000e-06	1.034101e-06	3.926855e-09	7.176276e+00	2.574344e+02
2.300000e-06	9.835052e-07	3.872701e-09	6.825158e+00	2.533698e+02
2.310000e-06	9.326100e-07	3.806568e-09	6.471964e+00	2.492277e+02
2.320000e-06	8.814716e-07	3.731339e-09	6.117083e+00	2.450034e+02
2.330000e-06	8.300497e-07	3.666291e-09	5.760234e+00	2.406913e+02
2.340000e-06	7.783257e-07	3.601924e-09	5.401289e+00	2.362853e+02
2.350000e-06	7.261829e-07	3.534418e-09	5.039437e+00	2.317796e+02
2.360000e-06	6.735587e-07	3.462747e-09	4.674245e+00	2.271690e+02
2.370000e-06	6.204951e-07	3.391643e-09	4.306003e+00	2.224497e+02
2.380000e-06	5.671039e-07	3.326963e-09	3.935488e+00	2.176189e+02
2.390000e-06	5.133953e-07	3.254228e-09	3.562771e+00	2.126754e+02
2.400000e-06	4.593198e-07	3.173661e-09	3.187507e+00	2.076190e+02
2.410000e-06	4.050007e-07	3.094647e-09	2.810553e+00	2.024501e+02
2.420000e-06	3.505633e-07	3.015824e-09	2.432778e+00	1.971690e+02
2.430000e-06	2.959644e-07	2.936616e-09	2.053882e+00	1.917753e+02
2.440000e-06	2.411906e-07	2.847744e-09	1.673772e+00	1.862673e+02
2.450000e-06	1.863055e-07	2.757247e-09	1.292891e+00	1.806413e+02
2.460000e-06	1.313421e-07	2.674188e-09	9.114652e-01	1.748913e+02
2.470000e-06	7.637234e-08	2.591216e-09	5.299954e-01	1.690092e+02
2.480000e-06	2.140097e-08	2.503260e-09	1.485147e-01	1.629847e+02
2.490000e-06	-3.360347e-08	2.407828e-09	-2.331955e-01	1.568062e+02
2.500000e-06	-8.859720e-08	2.312316e-09	-6.148314e-01	1.504609e+02
2.510000e-06	-1.435460e-07	2.217444e-09	-9.961553e-01	1.439362e+02
2.520000e-06	-1.984172e-07	2.114776e-09	-1.376941e+00	1.372198e+02
2.530000e-06	-2.532257e-07	2.003116e-09	-1.757291e+00	1.303006e+02
2.540000e-06	-3.079827e-07	1.892534e-09	-2.137285e+00	1.231687e+02
2.550000e-06	-3.626445e-07	1.786902e-09	-2.516617e+00	1.158152e+02
2.560000e-06	-4.171484e-07	1.678248e-09	-2.894854e+00	1.082317e+02
2.570000e-06	-4.713626e-07	1.560437e-09	-3.271080e+00	1.004094e+02
2.580000e-06	-5.253009e-07	1.439257e-09	-3.645391e+00	9.233800e+01
2.590000e-06	-5.789754e-07	1.318321e-09	-4.017872e+00	8.400401e+01
2.600000e-06	-6.321857e-07	1.188556e-09	-4.387132e+00	7.539003e+01
2.610000e-06	-6.848717e-07	1.047614e-09	-4.752753e+00	6.647359e+01
2.620000e-06	-7.371544e-07	9.000222e-10	-5.115576e+00	5.722687e+01
2.630000e-06	-7.891046e-07	7.519790e-10	-5.476090e+00	4.761698e+01
2.640000e-06	-8.407126e-07	6.019286e-10	-5.834231e+00	3.760712e+01
2.650000e-06	-8.920322e-07	4.446224e-10	-6.190369e+00	2.715858e+01
2.660000e-06	-9.431334e-07	2.805281e-10	-6.544993e+00	1.623351e+01
2.670000e-06	-9.939613e-07	1.105974e-10	-6.897719e+00	4.798384e+00
2.680000e-06	-1.044408e-06	-6.709842e-11	-7.247802e+00	-7.172168e+00
2.690000e-06	-1.094377e-06	-2.568467e-10	-7.594563e+00	-1.969143e+01
2.700000e-06	-1.143915e-06	-4.586386e-10	-7.938343e+00	-3.275690e+01
2.710000e-06	-1.193125e-06	-6.695038e-10	-8.279841e+00	-4.634727e+01
2.720000e-06	-1.241828e-06	-8.850493e-10	-8.617823e+00	-6.042036e+01
2.730000e-06	-1.289803e-06	-1.105438e-09	-8.950748e+00	-7.491223e+01
2.740000e-06	-1.337008e-06	-1.332410e-09	-9.278334e+00	-8.973785e+01
2.750000e-06	-1.383529e-06	-1.563276e-09	-9.601175e+00	-1.047931e+02
2.760000e-06	-1.429548e-06	-1.793160e-09	-9.920528e+00	-1.199584e+02
2.770000e-06	-1.475235e-06	-2.022119e-09	-1.023758e+01	-1.351031e+02
2.780000e-06	-1.520567e-06	-2.254195e-09	-1.055217e+01	-1.500917e+02
2.790000e-06	-1.565402e-06	-2.486315e-09	-1.086330e+01	-1.647893e+02
2.800000e-06	-1.609679e-06	-2.710083e-09	-1.117057e+01	-1.790684e+02
2.810000e-06	-1.653411e-06	-2.920384e-09	-1.147405e+01	-1.928141e+02
2.820000e-06	-1.696702e-06	-3.118884e-09	-1.177448e+01	-2.059296e+02
2.830000e-06	-1.739601e-06	-3.307853e-09	-1.207218e+01	-2.183397e+02
2.840000e-06	-1.782007e-06	-3.486130e-09	-1.236646e+01	-2.299930e+02
2.850000e-06	-1.823793e-06	-3.651423e-09	-1.265644e+01	-2.408626e+02
2.860000e-06	-1.864968e-06	-3.805327e-09	-1.294218e+01	-2.509454e+02
2.870000e-06	-1.905527e-06	-3.952202e-09	-1.322365e+01	-2.602596e+02
2.880000e-06	-1.945403e-06	-4.090162e-09	-1.350037e+01	-2.688414e+02
2.890000e-06	-1.984736e-06	-4.214805e-09	-1.377332e+01	-2.767404e+02
2.900000e-06	-2.023560e-06	-4.325265e-09	-1.404275e+01	-2.840153e+02
2.910000e-06	-2.061489e-06	-4.426453e-09	-1.430596e+01	-2.907285e+02
2.920000e-06	-2.098305e-06	-4.522036e-09	-1.456145e+01	-2.969425e+02
2.930000e-06	-2.134204e-06	-4.612959e-09	-1.481057e+01	-3.027156e+02
2.940000e-06	-2.169489e-06	-4.698534e-09	-1.505544e+01	-3.080995e+02
