# Temperatura_=_31.18
# Concentracion g/m^3_=_15500.0
# C_Vs_to_Am_M_A/Vsm_=_65563218390.804596
# pendiente_HvsI_1/m_=_3716.3
# ordenada_HvsI_A/m_=_1297.0
# frecuencia_Hz_=_300847.6852383771

Tiempo_(s)	Campo_(V.s)	Magnetizacion_(V.s)	Campo_(kA/m)	Magnetizacion_(A/m)
0.000000e+00	-2.853713e-06	-5.803014e-09	-1.980270e+01	-3.777391e+02
1.000000e-08	-2.852652e-06	-5.803212e-09	-1.979534e+01	-3.776351e+02
2.000000e-08	-2.850500e-06	-5.801912e-09	-1.978040e+01	-3.774528e+02
3.000000e-08	-2.847158e-06	-5.799118e-09	-1.975721e+01	-3.771932e+02
4.000000e-08	-2.842856e-06	-5.793473e-09	-1.972736e+01	-3.768593e+02
5.000000e-08	-2.837757e-06	-5.782717e-09	-1.969198e+01	-3.764564e+02
6.000000e-08	-2.831767e-06	-5.761617e-09	-1.965041e+01	-3.759913e+02
7.000000e-08	-2.824830e-06	-5.746345e-09	-1.960227e+01	-3.754722e+02
8.000000e-08	-2.816909e-06	-5.799693e-09	-1.954731e+01	-3.749075e+02
9.000000e-08	-2.807708e-06	-5.853591e-09	-1.948346e+01	-3.743051e+02
1.000000e-07	-2.797018e-06	-5.775640e-09	-1.940928e+01	-3.736716e+02
1.100000e-07	-2.785233e-06	-5.604222e-09	-1.932750e+01	-3.730113e+02
1.200000e-07	-2.772710e-06	-5.678918e-09	-1.924060e+01	-3.723260e+02
1.300000e-07	-2.759294e-06	-5.844779e-09	-1.914751e+01	-3.716143e+02
1.400000e-07	-2.744878e-06	-5.669032e-09	-1.904747e+01	-3.708720e+02
1.500000e-07	-2.729506e-06	-5.558894e-09	-1.894080e+01	-3.700923e+02
1.600000e-07	-2.712780e-06	-5.749612e-09	-1.882473e+01	-3.692667e+02
1.700000e-07	-2.694777e-06	-5.729772e-09	-1.869980e+01	-3.683856e+02
1.800000e-07	-2.676036e-06	-5.502750e-09	-1.856975e+01	-3.674395e+02
1.900000e-07	-2.656535e-06	-5.611523e-09	-1.843443e+01	-3.664200e+02
2.000000e-07	-2.636131e-06	-5.678587e-09	-1.829284e+01	-3.653203e+02
2.100000e-07	-2.614911e-06	-5.446155e-09	-1.814559e+01	-3.641363e+02
2.200000e-07	-2.592898e-06	-5.515379e-09	-1.799284e+01	-3.628665e+02
2.300000e-07	-2.569950e-06	-5.662523e-09	-1.783359e+01	-3.615123e+02
2.400000e-07	-2.546124e-06	-5.471552e-09	-1.766826e+01	-3.600776e+02
2.500000e-07	-2.521527e-06	-5.409480e-09	-1.749758e+01	-3.585680e+02
2.600000e-07	-2.496008e-06	-5.496659e-09	-1.732049e+01	-3.569905e+02
2.700000e-07	-2.469373e-06	-5.431392e-09	-1.713566e+01	-3.553520e+02
2.800000e-07	-2.441699e-06	-5.390184e-09	-1.694363e+01	-3.536590e+02
2.900000e-07	-2.413092e-06	-5.370392e-09	-1.674511e+01	-3.519167e+02
3.000000e-07	-2.383680e-06	-5.347362e-09	-1.654101e+01	-3.501282e+02
3.100000e-07	-2.353592e-06	-5.364889e-09	-1.633222e+01	-3.482946e+02
3.200000e-07	-2.322737e-06	-5.301935e-09	-1.611811e+01	-3.464148e+02
3.300000e-07	-2.291020e-06	-5.215703e-09	-1.589802e+01	-3.444860e+02
3.400000e-07	-2.258663e-06	-5.243201e-09	-1.567349e+01	-3.425041e+02
3.500000e-07	-2.225740e-06	-5.193523e-09	-1.544502e+01	-3.404641e+02
3.600000e-07	-2.191917e-06	-5.140075e-09	-1.521032e+01	-3.383614e+02
3.700000e-07	-2.156933e-06	-5.184938e-09	-1.496755e+01	-3.361919e+02
3.800000e-07	-2.120963e-06	-5.095661e-09	-1.471795e+01	-3.339528e+02
3.900000e-07	-2.084406e-06	-5.019787e-09	-1.446427e+01	-3.316429e+02
4.000000e-07	-2.047241e-06	-5.059082e-09	-1.420637e+01	-3.292628e+02
4.100000e-07	-2.009332e-06	-5.010754e-09	-1.394331e+01	-3.268142e+02
4.200000e-07	-1.970707e-06	-4.911475e-09	-1.367528e+01	-3.243002e+02
4.300000e-07	-1.931319e-06	-4.906720e-09	-1.340195e+01	-3.217243e+02
4.400000e-07	-1.891260e-06	-4.884402e-09	-1.312398e+01	-3.190901e+02
4.500000e-07	-1.850798e-06	-4.832878e-09	-1.284320e+01	-3.164002e+02
4.600000e-07	-1.809960e-06	-4.791671e-09	-1.255981e+01	-3.136563e+02
4.700000e-07	-1.768344e-06	-4.742124e-09	-1.227103e+01	-3.108582e+02
4.800000e-07	-1.725550e-06	-4.700339e-09	-1.197407e+01	-3.080041e+02
4.900000e-07	-1.681805e-06	-4.656430e-09	-1.167051e+01	-3.050907e+02
5.000000e-07	-1.637565e-06	-4.608415e-09	-1.136351e+01	-3.021132e+02
5.100000e-07	-1.592956e-06	-4.551964e-09	-1.105396e+01	-2.990659e+02
5.200000e-07	-1.547908e-06	-4.509223e-09	-1.074136e+01	-2.959431e+02
5.300000e-07	-1.502283e-06	-4.461862e-09	-1.042475e+01	-2.927394e+02
5.400000e-07	-1.456075e-06	-4.421281e-09	-1.010410e+01	-2.894501e+02
5.500000e-07	-1.409377e-06	-4.367387e-09	-9.780059e+00	-2.860723e+02
5.600000e-07	-1.362130e-06	-4.299589e-09	-9.452197e+00	-2.826044e+02
5.700000e-07	-1.314381e-06	-4.249060e-09	-9.120852e+00	-2.790468e+02
5.800000e-07	-1.266258e-06	-4.200959e-09	-8.786911e+00	-2.754010e+02
5.900000e-07	-1.217828e-06	-4.135512e-09	-8.450847e+00	-2.716699e+02
6.000000e-07	-1.169014e-06	-4.068697e-09	-8.112110e+00	-2.678568e+02
6.100000e-07	-1.119613e-06	-4.020148e-09	-7.769303e+00	-2.639651e+02
6.200000e-07	-1.069497e-06	-3.961006e-09	-7.421536e+00	-2.599975e+02
6.300000e-07	-1.018764e-06	-3.896168e-09	-7.069485e+00	-2.559559e+02
6.400000e-07	-9.675064e-07	-3.827375e-09	-6.713794e+00	-2.518405e+02
6.500000e-07	-9.157293e-07	-3.759868e-09	-6.354499e+00	-2.476504e+02
6.600000e-07	-8.636312e-07	-3.695112e-09	-5.992975e+00	-2.433830e+02
6.700000e-07	-8.113023e-07	-3.629465e-09	-5.629851e+00	-2.390347e+02
6.800000e-07	-7.587119e-07	-3.561584e-09	-5.264912e+00	-2.346010e+02
6.900000e-07	-7.058423e-07	-3.487610e-09	-4.898034e+00	-2.300771e+02
7.000000e-07	-6.526938e-07	-3.416788e-09	-4.529222e+00	-2.254585e+02
7.100000e-07	-5.992622e-07	-3.345660e-09	-4.158446e+00	-2.207408e+02
7.200000e-07	-5.456020e-07	-3.274959e-09	-3.786083e+00	-2.159204e+02
7.300000e-07	-4.917417e-07	-3.198614e-09	-3.412331e+00	-2.109946e+02
7.400000e-07	-4.377015e-07	-3.119979e-09	-3.037331e+00	-2.059608e+02
7.500000e-07	-3.835429e-07	-3.041109e-09	-2.661510e+00	-2.008170e+02
7.600000e-07	-3.293001e-07	-2.959396e-09	-2.285104e+00	-1.955609e+02
7.700000e-07	-2.749878e-07	-2.872296e-09	-1.908216e+00	-1.901895e+02
7.800000e-07	-2.206229e-07	-2.784478e-09	-1.530964e+00	-1.846986e+02
7.900000e-07	-1.662025e-07	-2.702474e-09	-1.153325e+00	-1.790827e+02
8.000000e-07	-1.117197e-07	-2.614914e-09	-7.752542e-01	-1.733345e+02
8.100000e-07	-5.720435e-08	-2.523577e-09	-3.969568e-01	-1.674454e+02
8.200000e-07	-2.663267e-09	-2.429578e-09	-1.848115e-02	-1.614055e+02
8.300000e-07	5.186172e-08	-2.333589e-09	3.598828e-01	-1.552038e+02
8.400000e-07	1.063811e-07	-2.232450e-09	7.382077e-01	-1.488292e+02
8.500000e-07	1.609119e-07	-2.128958e-09	1.116612e+00	-1.422709e+02
8.600000e-07	2.154048e-07	-2.025153e-09	1.494753e+00	-1.355187e+02
8.700000e-07	2.697898e-07	-1.918558e-09	1.872146e+00	-1.285633e+02
8.800000e-07	3.240980e-07	-1.812208e-09	2.249006e+00	-1.213964e+02
8.900000e-07	3.783298e-07	-1.700767e-09	2.625335e+00	-1.140104e+02
9.000000e-07	4.324186e-07	-1.582853e-09	3.000672e+00	-1.063974e+02
9.100000e-07	4.863375e-07	-1.459871e-09	3.374830e+00	-9.854839e+01
9.200000e-07	5.400674e-07	-1.337319e-09	3.747677e+00	-9.045230e+01
9.300000e-07	5.935769e-07	-1.210651e-09	4.118994e+00	-8.209445e+01
9.400000e-07	6.468385e-07	-1.076939e-09	4.488591e+00	-7.345575e+01
9.500000e-07	6.998580e-07	-9.367982e-10	4.856508e+00	-6.451202e+01
9.600000e-07	7.526222e-07	-7.933767e-10	5.222653e+00	-5.523384e+01
9.700000e-07	8.051409e-07	-6.468070e-10	5.587095e+00	-4.558714e+01
9.800000e-07	8.573953e-07	-4.916728e-10	5.949703e+00	-3.553455e+01
9.900000e-07	9.093415e-07	-3.290674e-10	6.310172e+00	-2.503756e+01
1.000000e-06	9.608619e-07	-1.589187e-10	6.667686e+00	-1.405937e+01
1.010000e-06	1.011826e-06	1.650218e-11	7.021342e+00	-2.568306e+00
1.020000e-06	1.062148e-06	1.983283e-10	7.370540e+00	9.458427e+00
1.030000e-06	1.111862e-06	3.870339e-10	7.715516e+00	2.203103e+01
1.040000e-06	1.161012e-06	5.867413e-10	8.056580e+00	3.514371e+01
1.050000e-06	1.209714e-06	7.964221e-10	8.394536e+00	4.877190e+01
1.060000e-06	1.258144e-06	1.010506e-09	8.730612e+00	6.287053e+01
1.070000e-06	1.306257e-06	1.228902e-09	9.064477e+00	7.737348e+01
1.080000e-06	1.353922e-06	1.454366e-09	9.395241e+00	9.219436e+01
1.090000e-06	1.401066e-06	1.686025e-09	9.722385e+00	1.072288e+02
1.100000e-06	1.447703e-06	1.916256e-09	1.004601e+01	1.223579e+02
1.110000e-06	1.493819e-06	2.144236e-09	1.036602e+01	1.374531e+02
1.120000e-06	1.539429e-06	2.370298e-09	1.068252e+01	1.523812e+02
1.130000e-06	1.584554e-06	2.593724e-09	1.099565e+01	1.670109e+02
1.140000e-06	1.629241e-06	2.810396e-09	1.130575e+01	1.812181e+02
1.150000e-06	1.673601e-06	3.015965e-09	1.161358e+01	1.948918e+02
1.160000e-06	1.717513e-06	3.207653e-09	1.191830e+01	2.079385e+02
1.170000e-06	1.760637e-06	3.388055e-09	1.221755e+01	2.202857e+02
1.180000e-06	1.802758e-06	3.563440e-09	1.250984e+01	2.318840e+02
1.190000e-06	1.843995e-06	3.730481e-09	1.279599e+01	2.427075e+02
1.200000e-06	1.884627e-06	3.883777e-09	1.307795e+01	2.527535e+02
1.210000e-06	1.924765e-06	4.021514e-09	1.335648e+01	2.620394e+02
1.220000e-06	1.964302e-06	4.148594e-09	1.363083e+01	2.706001e+02
1.230000e-06	2.003162e-06	4.267415e-09	1.390049e+01	2.784833e+02
1.240000e-06	2.041305e-06	4.375272e-09	1.416518e+01	2.857457e+02
1.250000e-06	2.078702e-06	4.472867e-09	1.442469e+01	2.924480e+02
1.260000e-06	2.115500e-06	4.565016e-09	1.468004e+01	2.986508e+02
1.270000e-06	2.151761e-06	4.652343e-09	1.493166e+01	3.044115e+02
1.280000e-06	2.187295e-06	4.732925e-09	1.517824e+01	3.097816e+02
1.290000e-06	2.221808e-06	4.808325e-09	1.541774e+01	3.148046e+02
1.300000e-06	2.255233e-06	4.879213e-09	1.564968e+01	3.195160e+02
1.310000e-06	2.287877e-06	4.945368e-09	1.587621e+01	3.239431e+02
1.320000e-06	2.319889e-06	5.004698e-09	1.609835e+01	3.281061e+02
1.330000e-06	2.351151e-06	5.059758e-09	1.631529e+01	3.320199e+02
1.340000e-06	2.381640e-06	5.113062e-09	1.652686e+01	3.356952e+02
1.350000e-06	2.411297e-06	5.163238e-09	1.673266e+01	3.391407e+02
1.360000e-06	2.440199e-06	5.208013e-09	1.693321e+01	3.423649e+02
1.370000e-06	2.468500e-06	5.249390e-09	1.712960e+01	3.453766e+02
1.380000e-06	2.495923e-06	5.291997e-09	1.731990e+01	3.481863e+02
1.390000e-06	2.522104e-06	5.333160e-09	1.750158e+01	3.508059e+02
1.400000e-06	2.547171e-06	5.367789e-09	1.767552e+01	3.532491e+02
1.410000e-06	2.571328e-06	5.395646e-09	1.784316e+01	3.555301e+02
1.420000e-06	2.594615e-06	5.422723e-09	1.800475e+01	3.576636e+02
1.430000e-06	2.617048e-06	5.452770e-09	1.816042e+01	3.596631e+02
1.440000e-06	2.638565e-06	5.481517e-09	1.830973e+01	3.615408e+02
1.450000e-06	2.659291e-06	5.507077e-09	1.845356e+01	3.633065e+02
1.460000e-06	2.679328e-06	5.531958e-09	1.859259e+01	3.649676e+02
1.470000e-06	2.698437e-06	5.556984e-09	1.872520e+01	3.665287e+02
1.480000e-06	2.716504e-06	5.578603e-09	1.885057e+01	3.679924e+02
1.490000e-06	2.733659e-06	5.595353e-09	1.896961e+01	3.693592e+02
1.500000e-06	2.749785e-06	5.610220e-09	1.908152e+01	3.706287e+02
1.510000e-06	2.764781e-06	5.626463e-09	1.918558e+01	3.718004e+02
1.520000e-06	2.778758e-06	5.643572e-09	1.928257e+01	3.728738e+02
1.530000e-06	2.791741e-06	5.658194e-09	1.937266e+01	3.738497e+02
1.540000e-06	2.803654e-06	5.671655e-09	1.945533e+01	3.747301e+02
1.550000e-06	2.814256e-06	5.686384e-09	1.952890e+01	3.755183e+02
1.560000e-06	2.823597e-06	5.700561e-09	1.959372e+01	3.762187e+02
1.570000e-06	2.831989e-06	5.710550e-09	1.965196e+01	3.768365e+02
1.580000e-06	2.839447e-06	5.717142e-09	1.970371e+01	3.773769e+02
1.590000e-06	2.845922e-06	5.723598e-09	1.974864e+01	3.778449e+02
1.600000e-06	2.851474e-06	5.730090e-09	1.978716e+01	3.782443e+02
1.610000e-06	2.856211e-06	5.734061e-09	1.982004e+01	3.785775e+02
1.620000e-06	2.860087e-06	5.736954e-09	1.984693e+01	3.788451e+02
1.630000e-06	2.862764e-06	5.741862e-09	1.986551e+01	3.790464e+02
1.640000e-06	2.864185e-06	5.746740e-09	1.987537e+01	3.791792e+02
1.650000e-06	2.864636e-06	5.749201e-09	1.987850e+01	3.792405e+02
1.660000e-06	2.864177e-06	5.747879e-09	1.987531e+01	3.792273e+02
1.670000e-06	2.862811e-06	5.742747e-09	1.986584e+01	3.791370e+02
1.680000e-06	2.860539e-06	5.739621e-09	1.985007e+01	3.789684e+02
1.690000e-06	2.857457e-06	5.737418e-09	1.982868e+01	3.787223e+02
1.700000e-06	2.853675e-06	5.733315e-09	1.980244e+01	3.784012e+02
1.710000e-06	2.848883e-06	5.731830e-09	1.976919e+01	3.780099e+02
1.720000e-06	2.842843e-06	5.746640e-09	1.972727e+01	3.775552e+02
1.730000e-06	2.835801e-06	5.742548e-09	1.967841e+01	3.770449e+02
1.740000e-06	2.827870e-06	5.641801e-09	1.962337e+01	3.764875e+02
1.750000e-06	2.818593e-06	5.589123e-09	1.955900e+01	3.758911e+02
1.760000e-06	2.807757e-06	5.726161e-09	1.948380e+01	3.752625e+02
1.770000e-06	2.796096e-06	5.796667e-09	1.940288e+01	3.746067e+02
1.780000e-06	2.784300e-06	5.642367e-09	1.932103e+01	3.739256e+02
1.790000e-06	2.771653e-06	5.522493e-09	1.923327e+01	3.732187e+02
1.800000e-06	2.757298e-06	5.729738e-09	1.913366e+01	3.724821e+02
1.810000e-06	2.741851e-06	5.702637e-09	1.902646e+01	3.717094e+02
1.820000e-06	2.725856e-06	5.468459e-09	1.891547e+01	3.708925e+02
1.830000e-06	2.708689e-06	5.638520e-09	1.879634e+01	3.700219e+02
1.840000e-06	2.690220e-06	5.763541e-09	1.866818e+01	3.690879e+02
1.850000e-06	2.671103e-06	5.513759e-09	1.853552e+01	3.680818e+02
1.860000e-06	2.651240e-06	5.530036e-09	1.839769e+01	3.669967e+02
1.870000e-06	2.630133e-06	5.729252e-09	1.825122e+01	3.658277e+02
1.880000e-06	2.607942e-06	5.485719e-09	1.809723e+01	3.645730e+02
1.890000e-06	2.584802e-06	5.377491e-09	1.793666e+01	3.632335e+02
1.900000e-06	2.560640e-06	5.601779e-09	1.776899e+01	3.618125e+02
1.910000e-06	2.535755e-06	5.518203e-09	1.759630e+01	3.603156e+02
1.920000e-06	2.510133e-06	5.391042e-09	1.741851e+01	3.587495e+02
1.930000e-06	2.483572e-06	5.481333e-09	1.723419e+01	3.571212e+02
1.940000e-06	2.456308e-06	5.404154e-09	1.704500e+01	3.554374e+02
1.950000e-06	2.428196e-06	5.385111e-09	1.684992e+01	3.537033e+02
1.960000e-06	2.398878e-06	5.378969e-09	1.664648e+01	3.519227e+02
1.970000e-06	2.368538e-06	5.259243e-09	1.643594e+01	3.500970e+02
1.980000e-06	2.337407e-06	5.326754e-09	1.621992e+01	3.482254e+02
1.990000e-06	2.305563e-06	5.325751e-09	1.599894e+01	3.463055e+02
2.000000e-06	2.272980e-06	5.178630e-09	1.577284e+01	3.443332e+02
2.010000e-06	2.239554e-06	5.238331e-09	1.554088e+01	3.423037e+02
2.020000e-06	2.205355e-06	5.200697e-09	1.530357e+01	3.402123e+02
2.030000e-06	2.170526e-06	5.071561e-09	1.506188e+01	3.380548e+02
2.040000e-06	2.135051e-06	5.160417e-09	1.481571e+01	3.358281e+02
2.050000e-06	2.098918e-06	5.106327e-09	1.456497e+01	3.335307e+02
2.060000e-06	2.061922e-06	4.988256e-09	1.430825e+01	3.311628e+02
2.070000e-06	2.023764e-06	5.028121e-09	1.404346e+01	3.287260e+02
2.080000e-06	1.984725e-06	4.981714e-09	1.377255e+01	3.262232e+02
2.090000e-06	1.945180e-06	4.912094e-09	1.349814e+01	3.236580e+02
2.100000e-06	1.905067e-06	4.893524e-09	1.321979e+01	3.210338e+02
2.110000e-06	1.864323e-06	4.839281e-09	1.293705e+01	3.183535e+02
2.120000e-06	1.822966e-06	4.816761e-09	1.265006e+01	3.156189e+02
2.130000e-06	1.780991e-06	4.772507e-09	1.235879e+01	3.128304e+02
2.140000e-06	1.738404e-06	4.709516e-09	1.206326e+01	3.099863e+02
2.150000e-06	1.695322e-06	4.687447e-09	1.176430e+01	3.070836e+02
2.160000e-06	1.651863e-06	4.635134e-09	1.146273e+01	3.041177e+02
2.170000e-06	1.607886e-06	4.591005e-09	1.115757e+01	3.010832e+02
2.180000e-06	1.563237e-06	4.547111e-09	1.084773e+01	2.979741e+02
2.190000e-06	1.517885e-06	4.488556e-09	1.053302e+01	2.947849e+02
2.200000e-06	1.472015e-06	4.445043e-09	1.021472e+01	2.915110e+02
2.210000e-06	1.425793e-06	4.396743e-09	9.893974e+00	2.881490e+02
2.220000e-06	1.379093e-06	4.355302e-09	9.569909e+00	2.846970e+02
2.230000e-06	1.331884e-06	4.290957e-09	9.242312e+00	2.811551e+02
2.240000e-06	1.284107e-06	4.226679e-09	8.910775e+00	2.775247e+02
2.250000e-06	1.235690e-06	4.191640e-09	8.574794e+00	2.738084e+02
2.260000e-06	1.186760e-06	4.128648e-09	8.235257e+00	2.700095e+02
2.270000e-06	1.137451e-06	4.058714e-09	7.893087e+00	2.661314e+02
2.280000e-06	1.087832e-06	4.008450e-09	7.548764e+00	2.621770e+02
2.290000e-06	1.037753e-06	3.950881e-09	7.201257e+00	2.581483e+02
2.300000e-06	9.871733e-07	3.894280e-09	6.850268e+00	2.540460e+02
2.310000e-06	9.362559e-07	3.826776e-09	6.496938e+00	2.498691e+02
2.320000e-06	8.850738e-07	3.754590e-09	6.141771e+00	2.456156e+02
2.330000e-06	8.336359e-07	3.691519e-09	5.784830e+00	2.412818e+02
2.340000e-06	7.819076e-07	3.619773e-09	5.425873e+00	2.368635e+02
2.350000e-06	7.298168e-07	3.555413e-09	5.064400e+00	2.323560e+02
2.360000e-06	6.772842e-07	3.488483e-09	4.699862e+00	2.277544e+02
2.370000e-06	6.242747e-07	3.418744e-09	4.332014e+00	2.230544e+02
2.380000e-06	5.708626e-07	3.352052e-09	3.961373e+00	2.182524e+02
2.390000e-06	5.171419e-07	3.276176e-09	3.588590e+00	2.133454e+02
2.400000e-06	4.631115e-07	3.199746e-09	3.213659e+00	2.083309e+02
2.410000e-06	4.088506e-07	3.119280e-09	2.837127e+00	2.032067e+02
2.420000e-06	3.543788e-07	3.039120e-09	2.459132e+00	1.979707e+02
2.430000e-06	2.997270e-07	2.962598e-09	2.079888e+00	1.926199e+02
2.440000e-06	2.449548e-07	2.879100e-09	1.699809e+00	1.871505e+02
2.450000e-06	1.900494e-07	2.791428e-09	1.318805e+00	1.815572e+02
2.460000e-06	1.351141e-07	2.705451e-09	9.375942e-01	1.758330e+02
2.470000e-06	8.017041e-08	2.620471e-09	5.563246e-01	1.699696e+02
2.480000e-06	2.519782e-08	2.533590e-09	1.748547e-01	1.639572e+02
2.490000e-06	-2.980947e-08	2.438760e-09	-2.068561e-01	1.577850e+02
2.500000e-06	-8.482113e-08	2.341254e-09	-5.885972e-01	1.514419e+02
2.510000e-06	-1.397793e-07	2.243604e-09	-9.699675e-01	1.449170e+02
2.520000e-06	-1.947126e-07	2.140509e-09	-1.351165e+00	1.381999e+02
2.530000e-06	-2.496125e-07	2.035244e-09	-1.732130e+00	1.312812e+02
2.540000e-06	-3.043928e-07	1.926326e-09	-2.112266e+00	1.241525e+02
2.550000e-06	-3.590279e-07	1.816342e-09	-2.491394e+00	1.168059e+02
2.560000e-06	-4.134896e-07	1.706131e-09	-2.869319e+00	1.092339e+02
2.570000e-06	-4.677508e-07	1.590321e-09	-3.245852e+00	1.014276e+02
2.580000e-06	-5.217456e-07	1.467951e-09	-3.620537e+00	9.337638e+01
2.590000e-06	-5.753529e-07	1.340993e-09	-3.992532e+00	8.506633e+01
2.600000e-06	-6.285607e-07	1.212201e-09	-4.361756e+00	7.647921e+01
2.610000e-06	-6.813017e-07	1.076410e-09	-4.727741e+00	6.759177e+01
2.620000e-06	-7.335944e-07	9.312424e-10	-5.090614e+00	5.837549e+01
2.630000e-06	-7.855598e-07	7.815695e-10	-5.451216e+00	4.879707e+01
2.640000e-06	-8.372618e-07	6.333875e-10	-5.809991e+00	3.881959e+01
2.650000e-06	-8.887268e-07	4.796404e-10	-6.167121e+00	2.840455e+01
2.660000e-06	-9.399026e-07	3.134605e-10	-6.522244e+00	1.751460e+01
2.670000e-06	-9.906928e-07	1.384037e-10	-6.874691e+00	6.116904e+00
2.680000e-06	-1.041075e-06	-4.007109e-11	-7.224305e+00	-5.813212e+00
2.690000e-06	-1.091095e-06	-2.248407e-10	-7.571406e+00	-1.828846e+01
2.700000e-06	-1.140724e-06	-4.235633e-10	-7.915801e+00	-3.130613e+01
2.710000e-06	-1.189925e-06	-6.343365e-10	-8.257218e+00	-4.484516e+01
2.720000e-06	-1.238646e-06	-8.515509e-10	-8.595308e+00	-5.886422e+01
2.730000e-06	-1.286705e-06	-1.071047e-09	-8.928804e+00	-7.330094e+01
2.740000e-06	-1.333910e-06	-1.295974e-09	-9.256369e+00	-8.807243e+01
2.750000e-06	-1.380409e-06	-1.527627e-09	-9.579038e+00	-1.030773e+02
2.760000e-06	-1.426466e-06	-1.760557e-09	-9.898638e+00	-1.181989e+02
2.770000e-06	-1.472181e-06	-1.989708e-09	-1.021587e+01	-1.333100e+02
2.780000e-06	-1.517579e-06	-2.217016e-09	-1.053090e+01	-1.482779e+02
2.790000e-06	-1.562552e-06	-2.445999e-09	-1.084298e+01	-1.629705e+02
2.800000e-06	-1.606953e-06	-2.671083e-09	-1.115109e+01	-1.772620e+02
2.810000e-06	-1.650795e-06	-2.885680e-09	-1.145532e+01	-1.910386e+02
2.820000e-06	-1.694178e-06	-3.086996e-09	-1.175637e+01	-2.042034e+02
2.830000e-06	-1.737120e-06	-3.276420e-09	-1.205436e+01	-2.166800e+02
2.840000e-06	-1.779542e-06	-3.455507e-09	-1.234874e+01	-2.284147e+02
2.850000e-06	-1.821377e-06	-3.622919e-09	-1.263904e+01	-2.393777e+02
2.860000e-06	-1.862633e-06	-3.777314e-09	-1.292532e+01	-2.495620e+02
2.870000e-06	-1.903229e-06	-3.922473e-09	-1.320703e+01	-2.589817e+02
2.880000e-06	-1.943128e-06	-4.062254e-09	-1.348391e+01	-2.676689e+02
2.890000e-06	-1.982477e-06	-4.193311e-09	-1.375695e+01	-2.756694e+02
2.900000e-06	-2.021264e-06	-4.310784e-09	-1.402611e+01	-2.830384e+02
2.910000e-06	-2.059165e-06	-4.413423e-09	-1.428912e+01	-2.898364e+02
2.920000e-06	-2.096048e-06	-4.506948e-09	-1.454506e+01	-2.961242e+02
2.930000e-06	-2.132088e-06	-4.597338e-09	-1.479515e+01	-3.019602e+02
2.940000e-06	-2.167451e-06	-4.684298e-09	-1.504054e+01	-3.073967e+02
