# Temperatura_=_30.31
# Concentracion g/m^3_=_15500.0
# C_Vs_to_Am_M_A/Vsm_=_65563218390.804596
# pendiente_HvsI_1/m_=_3716.3
# ordenada_HvsI_A/m_=_1297.0
# frecuencia_Hz_=_300847.1837814305

Tiempo_(s)	Campo_(V.s)	Magnetizacion_(V.s)	Campo_(kA/m)	Magnetizacion_(A/m)
0.000000e+00	-2.856466e-06	-5.795554e-09	-1.980185e+01	-3.783074e+02
1.000000e-08	-2.855480e-06	-5.796450e-09	-1.979502e+01	-3.781793e+02
2.000000e-08	-2.853471e-06	-5.792446e-09	-1.978110e+01	-3.779686e+02
3.000000e-08	-2.850201e-06	-5.788376e-09	-1.975842e+01	-3.776769e+02
4.000000e-08	-2.845939e-06	-5.784830e-09	-1.972888e+01	-3.773087e+02
5.000000e-08	-2.840840e-06	-5.776923e-09	-1.969353e+01	-3.768708e+02
6.000000e-08	-2.834887e-06	-5.756287e-09	-1.965227e+01	-3.763724e+02
7.000000e-08	-2.827973e-06	-5.745587e-09	-1.960434e+01	-3.758241e+02
8.000000e-08	-2.819981e-06	-5.796427e-09	-1.954893e+01	-3.752368e+02
9.000000e-08	-2.810720e-06	-5.838115e-09	-1.948473e+01	-3.746207e+02
1.000000e-07	-2.800021e-06	-5.742227e-09	-1.941056e+01	-3.739844e+02
1.100000e-07	-2.788282e-06	-5.611207e-09	-1.932918e+01	-3.733334e+02
1.200000e-07	-2.775790e-06	-5.696240e-09	-1.924258e+01	-3.726699e+02
1.300000e-07	-2.762368e-06	-5.831146e-09	-1.914954e+01	-3.719923e+02
1.400000e-07	-2.748005e-06	-5.651711e-09	-1.904997e+01	-3.712951e+02
1.500000e-07	-2.732654e-06	-5.584731e-09	-1.894355e+01	-3.705695e+02
1.600000e-07	-2.715925e-06	-5.766353e-09	-1.882759e+01	-3.698045e+02
1.700000e-07	-2.697949e-06	-5.691885e-09	-1.870297e+01	-3.689873e+02
1.800000e-07	-2.679275e-06	-5.531952e-09	-1.857352e+01	-3.681053e+02
1.900000e-07	-2.659830e-06	-5.642646e-09	-1.843872e+01	-3.671470e+02
2.000000e-07	-2.639463e-06	-5.649830e-09	-1.829753e+01	-3.661030e+02
2.100000e-07	-2.618300e-06	-5.465512e-09	-1.815082e+01	-3.649668e+02
2.200000e-07	-2.596337e-06	-5.558257e-09	-1.799856e+01	-3.637356e+02
2.300000e-07	-2.573385e-06	-5.634505e-09	-1.783946e+01	-3.624100e+02
2.400000e-07	-2.549498e-06	-5.459970e-09	-1.767386e+01	-3.609939e+02
2.500000e-07	-2.524883e-06	-5.441139e-09	-1.750322e+01	-3.594938e+02
2.600000e-07	-2.499399e-06	-5.507438e-09	-1.732656e+01	-3.579178e+02
2.700000e-07	-2.472867e-06	-5.431591e-09	-1.714263e+01	-3.562745e+02
2.800000e-07	-2.445256e-06	-5.414106e-09	-1.695123e+01	-3.545721e+02
2.900000e-07	-2.416698e-06	-5.383315e-09	-1.675326e+01	-3.528174e+02
3.000000e-07	-2.387321e-06	-5.342843e-09	-1.654960e+01	-3.510149e+02
3.100000e-07	-2.357227e-06	-5.378410e-09	-1.634099e+01	-3.491668e+02
3.200000e-07	-2.326409e-06	-5.307584e-09	-1.612735e+01	-3.472728e+02
3.300000e-07	-2.294726e-06	-5.221786e-09	-1.590771e+01	-3.453300e+02
3.400000e-07	-2.262359e-06	-5.252914e-09	-1.568333e+01	-3.433342e+02
3.500000e-07	-2.229426e-06	-5.218693e-09	-1.545503e+01	-3.412800e+02
3.600000e-07	-2.195611e-06	-5.157601e-09	-1.522062e+01	-3.391621e+02
3.700000e-07	-2.160571e-06	-5.188013e-09	-1.497771e+01	-3.369758e+02
3.800000e-07	-2.124526e-06	-5.114269e-09	-1.472784e+01	-3.347180e+02
3.900000e-07	-2.087920e-06	-5.041513e-09	-1.447407e+01	-3.323871e+02
4.000000e-07	-2.050700e-06	-5.067222e-09	-1.421605e+01	-3.299839e+02
4.100000e-07	-2.012742e-06	-5.019482e-09	-1.395292e+01	-3.275105e+02
4.200000e-07	-1.974083e-06	-4.928919e-09	-1.368492e+01	-3.249709e+02
4.300000e-07	-1.934691e-06	-4.917865e-09	-1.341184e+01	-3.223695e+02
4.400000e-07	-1.894643e-06	-4.905863e-09	-1.313422e+01	-3.197109e+02
4.500000e-07	-1.854155e-06	-4.851046e-09	-1.285354e+01	-3.169989e+02
4.600000e-07	-1.813278e-06	-4.804169e-09	-1.257017e+01	-3.142360e+02
4.700000e-07	-1.771606e-06	-4.753697e-09	-1.228129e+01	-3.114227e+02
4.800000e-07	-1.728865e-06	-4.717373e-09	-1.198500e+01	-3.085576e+02
4.900000e-07	-1.685238e-06	-4.678740e-09	-1.168256e+01	-3.056371e+02
5.000000e-07	-1.641005e-06	-4.624139e-09	-1.137593e+01	-3.026560e+02
5.100000e-07	-1.596357e-06	-4.565801e-09	-1.106641e+01	-2.996080e+02
5.200000e-07	-1.551279e-06	-4.527457e-09	-1.075392e+01	-2.964861e+02
5.300000e-07	-1.505631e-06	-4.482602e-09	-1.043747e+01	-2.932839e+02
5.400000e-07	-1.459364e-06	-4.432618e-09	-1.011673e+01	-2.899959e+02
5.500000e-07	-1.412610e-06	-4.383686e-09	-9.792623e+00	-2.866181e+02
5.600000e-07	-1.365382e-06	-4.317611e-09	-9.465227e+00	-2.831483e+02
5.700000e-07	-1.317630e-06	-4.266398e-09	-9.134197e+00	-2.795865e+02
5.800000e-07	-1.269441e-06	-4.221283e-09	-8.800135e+00	-2.759343e+02
5.900000e-07	-1.220910e-06	-4.156826e-09	-8.463704e+00	-2.721946e+02
6.000000e-07	-1.172052e-06	-4.086968e-09	-8.125009e+00	-2.683713e+02
6.100000e-07	-1.122703e-06	-4.036964e-09	-7.782905e+00	-2.644681e+02
6.200000e-07	-1.072614e-06	-3.982130e-09	-7.435671e+00	-2.604883e+02
6.300000e-07	-1.021843e-06	-3.913498e-09	-7.083713e+00	-2.564339e+02
6.400000e-07	-9.706170e-07	-3.842620e-09	-6.728601e+00	-2.523054e+02
6.500000e-07	-9.189274e-07	-3.776679e-09	-6.370274e+00	-2.481014e+02
6.600000e-07	-8.668220e-07	-3.717012e-09	-6.009064e+00	-2.438188e+02
6.700000e-07	-8.144286e-07	-3.649990e-09	-5.645857e+00	-2.394533e+02
6.800000e-07	-7.617907e-07	-3.578544e-09	-5.280956e+00	-2.349996e+02
6.900000e-07	-7.088716e-07	-3.506969e-09	-4.914105e+00	-2.304520e+02
7.000000e-07	-6.556537e-07	-3.439632e-09	-4.545183e+00	-2.258049e+02
7.100000e-07	-6.021781e-07	-3.365703e-09	-4.174475e+00	-2.210538e+02
7.200000e-07	-5.484813e-07	-3.286934e-09	-3.802232e+00	-2.161948e+02
7.300000e-07	-4.945811e-07	-3.209016e-09	-3.428580e+00	-2.112256e+02
7.400000e-07	-4.404921e-07	-3.132597e-09	-3.053620e+00	-2.061447e+02
7.500000e-07	-3.863008e-07	-3.056725e-09	-2.677950e+00	-2.009513e+02
7.600000e-07	-3.320206e-07	-2.974236e-09	-2.301664e+00	-1.956448e+02
7.700000e-07	-2.776629e-07	-2.887763e-09	-1.924841e+00	-1.902242e+02
7.800000e-07	-2.232409e-07	-2.801167e-09	-1.547571e+00	-1.846874e+02
7.900000e-07	-1.687402e-07	-2.717868e-09	-1.169756e+00	-1.790306e+02
8.000000e-07	-1.141999e-07	-2.627540e-09	-7.916673e-01	-1.732481e+02
8.100000e-07	-5.964237e-08	-2.531930e-09	-4.134584e-01	-1.673321e+02
8.200000e-07	-5.074483e-09	-2.438672e-09	-3.517780e-02	-1.612731e+02
8.300000e-07	4.948206e-08	-2.345756e-09	3.430241e-01	-1.550598e+02
8.400000e-07	1.040130e-07	-2.246268e-09	7.210488e-01	-1.486802e+02
8.500000e-07	1.585250e-07	-2.139910e-09	1.098941e+00	-1.421217e+02
8.600000e-07	2.130215e-07	-2.035946e-09	1.476727e+00	-1.353725e+02
8.700000e-07	2.675028e-07	-1.933748e-09	1.854408e+00	-1.284214e+02
8.800000e-07	3.219310e-07	-1.828254e-09	2.231720e+00	-1.212580e+02
8.900000e-07	3.762542e-07	-1.711230e-09	2.608304e+00	-1.138733e+02
9.000000e-07	4.304465e-07	-1.588964e-09	2.983981e+00	-1.062581e+02
9.100000e-07	4.844629e-07	-1.468842e-09	3.358438e+00	-9.840327e+01
9.200000e-07	5.382965e-07	-1.347968e-09	3.731629e+00	-9.029774e+01
9.300000e-07	5.918922e-07	-1.220536e-09	4.103170e+00	-8.192781e+01
9.400000e-07	6.451957e-07	-1.085857e-09	4.472685e+00	-7.327582e+01
9.500000e-07	6.982756e-07	-9.490093e-10	4.840650e+00	-6.431939e+01
9.600000e-07	7.511192e-07	-8.090716e-10	5.206978e+00	-5.503102e+01
9.700000e-07	8.036987e-07	-6.617491e-10	5.571474e+00	-4.537844e+01
9.800000e-07	8.560549e-07	-5.019790e-10	5.934423e+00	-3.532571e+01
9.900000e-07	9.080757e-07	-3.349428e-10	6.295046e+00	-2.483516e+01
1.000000e-06	9.596474e-07	-1.661788e-10	6.652557e+00	-1.387010e+01
1.010000e-06	1.010732e-06	5.798554e-12	7.006687e+00	-2.398170e+00
1.020000e-06	1.061195e-06	1.872845e-10	7.356514e+00	9.604897e+00
1.030000e-06	1.110963e-06	3.785897e-10	7.701517e+00	2.215145e+01
1.040000e-06	1.160179e-06	5.776930e-10	8.042698e+00	3.523829e+01
1.050000e-06	1.208990e-06	7.848179e-10	8.381072e+00	4.884373e+01
1.060000e-06	1.257483e-06	9.990565e-10	8.717238e+00	6.292549e+01
1.070000e-06	1.305683e-06	1.221981e-09	9.051378e+00	7.741993e+01
1.080000e-06	1.353471e-06	1.449286e-09	9.382654e+00	9.224257e+01
1.090000e-06	1.400719e-06	1.678192e-09	9.710193e+00	1.072902e+02
1.100000e-06	1.447456e-06	1.907585e-09	1.003419e+01	1.224441e+02
1.110000e-06	1.493724e-06	2.138726e-09	1.035493e+01	1.375751e+02
1.120000e-06	1.539434e-06	2.367481e-09	1.067180e+01	1.525486e+02
1.130000e-06	1.584602e-06	2.589570e-09	1.098492e+01	1.672309e+02
1.140000e-06	1.629380e-06	2.804888e-09	1.129534e+01	1.814955e+02
1.150000e-06	1.673811e-06	3.011124e-09	1.160335e+01	1.952284e+02
1.160000e-06	1.717769e-06	3.206130e-09	1.190808e+01	2.083331e+02
1.170000e-06	1.760990e-06	3.390460e-09	1.220770e+01	2.207347e+02
1.180000e-06	1.803207e-06	3.566394e-09	1.250036e+01	2.323817e+02
1.190000e-06	1.844511e-06	3.732946e-09	1.278669e+01	2.432470e+02
1.200000e-06	1.885218e-06	3.890415e-09	1.306888e+01	2.533269e+02
1.210000e-06	1.925411e-06	4.033798e-09	1.334751e+01	2.626391e+02
1.220000e-06	1.964976e-06	4.160633e-09	1.362179e+01	2.712190e+02
1.230000e-06	2.003885e-06	4.274750e-09	1.389152e+01	2.791156e+02
1.240000e-06	2.042079e-06	4.380203e-09	1.415629e+01	2.863869e+02
1.250000e-06	2.079532e-06	4.479275e-09	1.441593e+01	2.930952e+02
1.260000e-06	2.116398e-06	4.573814e-09	1.467149e+01	2.993026e+02
1.270000e-06	2.152767e-06	4.663284e-09	1.492361e+01	3.050678e+02
1.280000e-06	2.188492e-06	4.745184e-09	1.517127e+01	3.104430e+02
1.290000e-06	2.223219e-06	4.820624e-09	1.541200e+01	3.154721e+02
1.300000e-06	2.256819e-06	4.890439e-09	1.564493e+01	3.201908e+02
1.310000e-06	2.289546e-06	4.955345e-09	1.587180e+01	3.246258e+02
1.320000e-06	2.321560e-06	5.015232e-09	1.609373e+01	3.287971e+02
1.330000e-06	2.352815e-06	5.072173e-09	1.631040e+01	3.327184e+02
1.340000e-06	2.383288e-06	5.126143e-09	1.652165e+01	3.363999e+02
1.350000e-06	2.412965e-06	5.173606e-09	1.672738e+01	3.398499e+02
1.360000e-06	2.441920e-06	5.218341e-09	1.692811e+01	3.430763e+02
1.370000e-06	2.470230e-06	5.264883e-09	1.712436e+01	3.460879e+02
1.380000e-06	2.497631e-06	5.309970e-09	1.731431e+01	3.488954e+02
1.390000e-06	2.523832e-06	5.348042e-09	1.749594e+01	3.515113e+02
1.400000e-06	2.548948e-06	5.379681e-09	1.767005e+01	3.539497e+02
1.410000e-06	2.573160e-06	5.411122e-09	1.783789e+01	3.562259e+02
1.420000e-06	2.596472e-06	5.443791e-09	1.799951e+01	3.583549e+02
1.430000e-06	2.618906e-06	5.473848e-09	1.815502e+01	3.603512e+02
1.440000e-06	2.640492e-06	5.499383e-09	1.830466e+01	3.622271e+02
1.450000e-06	2.661331e-06	5.523698e-09	1.844912e+01	3.639927e+02
1.460000e-06	2.681416e-06	5.549790e-09	1.858836e+01	3.656551e+02
1.470000e-06	2.700517e-06	5.574163e-09	1.872078e+01	3.672186e+02
1.480000e-06	2.718602e-06	5.593103e-09	1.884614e+01	3.686851e+02
1.490000e-06	2.735796e-06	5.610727e-09	1.896534e+01	3.700547e+02
1.500000e-06	2.751974e-06	5.630039e-09	1.907749e+01	3.713263e+02
1.510000e-06	2.767035e-06	5.647999e-09	1.918189e+01	3.724987e+02
1.520000e-06	2.781064e-06	5.662020e-09	1.927915e+01	3.735712e+02
1.530000e-06	2.794087e-06	5.673985e-09	1.936943e+01	3.745445e+02
1.540000e-06	2.806065e-06	5.687983e-09	1.945246e+01	3.754206e+02
1.550000e-06	2.816763e-06	5.703814e-09	1.952663e+01	3.762031e+02
1.560000e-06	2.826207e-06	5.717297e-09	1.959209e+01	3.768969e+02
1.570000e-06	2.834678e-06	5.726898e-09	1.965082e+01	3.775077e+02
1.580000e-06	2.842177e-06	5.735203e-09	1.970280e+01	3.780410e+02
1.590000e-06	2.848677e-06	5.743655e-09	1.974786e+01	3.785021e+02
1.600000e-06	2.854286e-06	5.748928e-09	1.978675e+01	3.788947e+02
1.610000e-06	2.859097e-06	5.750414e-09	1.982009e+01	3.792209e+02
1.620000e-06	2.862971e-06	5.754636e-09	1.984696e+01	3.794809e+02
1.630000e-06	2.865587e-06	5.762368e-09	1.986509e+01	3.796730e+02
1.640000e-06	2.867020e-06	5.767994e-09	1.987502e+01	3.797942e+02
1.650000e-06	2.867522e-06	5.767944e-09	1.987850e+01	3.798406e+02
1.660000e-06	2.867107e-06	5.765351e-09	1.987563e+01	3.798084e+02
1.670000e-06	2.865844e-06	5.762432e-09	1.986687e+01	3.796947e+02
1.680000e-06	2.863701e-06	5.759732e-09	1.985201e+01	3.794984e+02
1.690000e-06	2.860720e-06	5.754068e-09	1.983135e+01	3.792207e+02
1.700000e-06	2.856923e-06	5.746329e-09	1.980503e+01	3.788655e+02
1.710000e-06	2.852033e-06	5.745417e-09	1.977113e+01	3.784391e+02
1.720000e-06	2.846007e-06	5.762489e-09	1.972935e+01	3.779505e+02
1.730000e-06	2.839059e-06	5.750218e-09	1.968119e+01	3.774100e+02
1.740000e-06	2.831173e-06	5.657473e-09	1.962652e+01	3.768286e+02
1.750000e-06	2.821895e-06	5.615297e-09	1.956220e+01	3.762167e+02
1.760000e-06	2.811026e-06	5.752167e-09	1.948686e+01	3.755832e+02
1.770000e-06	2.799356e-06	5.787008e-09	1.940595e+01	3.749343e+02
1.780000e-06	2.787571e-06	5.626099e-09	1.932426e+01	3.742728e+02
1.790000e-06	2.774922e-06	5.557581e-09	1.923657e+01	3.735977e+02
1.800000e-06	2.760605e-06	5.729550e-09	1.913732e+01	3.729043e+02
1.810000e-06	2.745218e-06	5.689382e-09	1.903065e+01	3.721843e+02
1.820000e-06	2.729244e-06	5.512014e-09	1.891992e+01	3.714268e+02
1.830000e-06	2.712087e-06	5.690621e-09	1.880098e+01	3.706196e+02
1.840000e-06	2.693681e-06	5.748397e-09	1.867339e+01	3.697499e+02
1.850000e-06	2.674636e-06	5.506901e-09	1.854136e+01	3.688057e+02
1.860000e-06	2.654795e-06	5.583205e-09	1.840381e+01	3.677772e+02
1.870000e-06	2.633725e-06	5.726048e-09	1.825775e+01	3.666575e+02
1.880000e-06	2.611571e-06	5.483798e-09	1.810418e+01	3.654431e+02
1.890000e-06	2.588415e-06	5.451129e-09	1.794365e+01	3.641338e+02
1.900000e-06	2.564237e-06	5.617926e-09	1.777604e+01	3.627332e+02
1.910000e-06	2.539389e-06	5.503605e-09	1.760379e+01	3.612473e+02
1.920000e-06	2.513768e-06	5.421925e-09	1.742618e+01	3.596839e+02
1.930000e-06	2.487164e-06	5.486394e-09	1.724175e+01	3.580518e+02
1.940000e-06	2.459876e-06	5.403732e-09	1.705258e+01	3.563591e+02
1.950000e-06	2.431739e-06	5.411760e-09	1.685752e+01	3.546130e+02
1.960000e-06	2.402423e-06	5.396475e-09	1.665430e+01	3.528186e+02
1.970000e-06	2.372089e-06	5.266486e-09	1.644402e+01	3.509783e+02
1.980000e-06	2.340952e-06	5.347106e-09	1.622816e+01	3.490923e+02
1.990000e-06	2.309087e-06	5.339974e-09	1.600727e+01	3.471583e+02
2.000000e-06	2.276480e-06	5.195569e-09	1.578123e+01	3.451720e+02
2.010000e-06	2.243038e-06	5.248959e-09	1.554939e+01	3.431284e+02
2.020000e-06	2.208843e-06	5.211656e-09	1.531234e+01	3.410219e+02
2.030000e-06	2.174053e-06	5.094716e-09	1.507117e+01	3.388479e+02
2.040000e-06	2.138668e-06	5.163248e-09	1.482587e+01	3.366027e+02
2.050000e-06	2.102632e-06	5.114833e-09	1.457606e+01	3.342846e+02
2.060000e-06	2.065643e-06	5.012627e-09	1.431964e+01	3.318939e+02
2.070000e-06	2.027450e-06	5.037125e-09	1.405488e+01	3.294325e+02
2.080000e-06	1.988398e-06	4.992454e-09	1.378416e+01	3.269041e+02
2.090000e-06	1.948808e-06	4.925337e-09	1.350971e+01	3.243131e+02
2.100000e-06	1.908670e-06	4.890822e-09	1.323146e+01	3.216642e+02
2.110000e-06	1.867884e-06	4.847859e-09	1.294871e+01	3.189612e+02
2.120000e-06	1.826479e-06	4.827116e-09	1.266169e+01	3.162070e+02
2.130000e-06	1.784520e-06	4.778074e-09	1.237081e+01	3.134025e+02
2.140000e-06	1.741937e-06	4.719331e-09	1.207561e+01	3.105466e+02
2.150000e-06	1.698865e-06	4.691508e-09	1.177703e+01	3.076360e+02
2.160000e-06	1.655398e-06	4.644814e-09	1.147570e+01	3.046659e+02
2.170000e-06	1.611338e-06	4.594222e-09	1.117027e+01	3.016300e+02
2.180000e-06	1.566625e-06	4.543637e-09	1.086030e+01	2.985216e+02
2.190000e-06	1.521308e-06	4.492521e-09	1.054615e+01	2.953339e+02
2.200000e-06	1.475429e-06	4.443368e-09	1.022811e+01	2.920613e+02
2.210000e-06	1.429155e-06	4.388507e-09	9.907320e+00	2.886994e+02
2.220000e-06	1.382467e-06	4.355447e-09	9.583663e+00	2.852459e+02
2.230000e-06	1.335187e-06	4.297710e-09	9.255909e+00	2.817001e+02
2.240000e-06	1.287304e-06	4.233544e-09	8.923971e+00	2.780636e+02
2.250000e-06	1.238913e-06	4.194236e-09	8.588505e+00	2.743390e+02
2.260000e-06	1.190045e-06	4.128908e-09	8.249739e+00	2.705300e+02
2.270000e-06	1.140713e-06	4.058938e-09	7.907758e+00	2.666406e+02
2.280000e-06	1.091007e-06	4.001646e-09	7.563182e+00	2.626740e+02
2.290000e-06	1.040908e-06	3.945733e-09	7.215876e+00	2.586326e+02
2.300000e-06	9.903054e-07	3.893410e-09	6.865086e+00	2.545171e+02
2.310000e-06	9.393308e-07	3.828199e-09	6.511716e+00	2.503264e+02
2.320000e-06	8.881116e-07	3.758992e-09	6.156649e+00	2.460579e+02
2.330000e-06	8.366684e-07	3.695004e-09	5.800030e+00	2.417073e+02
2.340000e-06	7.849402e-07	3.622287e-09	5.441435e+00	2.372695e+02
2.350000e-06	7.327390e-07	3.552440e-09	5.079561e+00	2.327387e+02
2.360000e-06	6.800819e-07	3.482618e-09	4.714526e+00	2.281095e+02
2.370000e-06	6.270159e-07	3.412805e-09	4.346658e+00	2.233770e+02
2.380000e-06	5.734989e-07	3.345035e-09	3.975662e+00	2.185372e+02
2.390000e-06	5.196165e-07	3.270461e-09	3.602133e+00	2.135876e+02
2.400000e-06	4.654900e-07	3.196571e-09	3.226913e+00	2.085264e+02
2.410000e-06	4.111979e-07	3.116756e-09	2.850544e+00	2.033528e+02
2.420000e-06	3.567031e-07	3.034880e-09	2.472770e+00	1.980663e+02
2.430000e-06	3.019885e-07	2.954798e-09	2.093472e+00	1.926659e+02
2.440000e-06	2.471433e-07	2.868964e-09	1.713270e+00	1.871498e+02
2.450000e-06	1.922101e-07	2.782576e-09	1.332456e+00	1.815145e+02
2.460000e-06	1.372336e-07	2.698732e-09	9.513437e-01	1.757547e+02
2.470000e-06	8.221946e-08	2.613888e-09	5.699694e-01	1.698629e+02
2.480000e-06	2.720925e-08	2.523204e-09	1.886225e-01	1.638300e+02
2.490000e-06	-2.777002e-08	2.427090e-09	-1.925099e-01	1.576448e+02
2.500000e-06	-8.277992e-08	2.331302e-09	-5.738546e-01	1.512955e+02
2.510000e-06	-1.377706e-07	2.234060e-09	-9.550662e-01	1.447696e+02
2.520000e-06	-1.927202e-07	2.128441e-09	-1.335993e+00	1.380551e+02
2.530000e-06	-2.476474e-07	2.020269e-09	-1.716764e+00	1.311405e+02
2.540000e-06	-3.024736e-07	1.915883e-09	-2.096835e+00	1.240154e+02
2.550000e-06	-3.571691e-07	1.812561e-09	-2.476001e+00	1.166706e+02
2.560000e-06	-4.116994e-07	1.701411e-09	-2.854020e+00	1.090970e+02
2.570000e-06	-4.659582e-07	1.580019e-09	-3.230159e+00	1.012854e+02
2.580000e-06	-5.199850e-07	1.456783e-09	-3.604688e+00	9.322525e+01
2.590000e-06	-5.737405e-07	1.332183e-09	-3.977337e+00	8.490342e+01
2.600000e-06	-6.270822e-07	1.202553e-09	-4.347117e+00	7.630302e+01
2.610000e-06	-6.800331e-07	1.063216e-09	-4.714188e+00	6.740254e+01
2.620000e-06	-7.325305e-07	9.174116e-10	-5.078115e+00	5.817541e+01
2.630000e-06	-7.846047e-07	7.712989e-10	-5.439109e+00	4.859013e+01
2.640000e-06	-8.363542e-07	6.247340e-10	-5.797852e+00	3.861133e+01
2.650000e-06	-8.877888e-07	4.699673e-10	-6.154411e+00	2.820144e+01
2.660000e-06	-9.389506e-07	3.032248e-10	-6.509080e+00	1.732338e+01
2.670000e-06	-9.898054e-07	1.315779e-10	-6.861620e+00	5.943750e+00
2.680000e-06	-1.040297e-06	-4.482050e-11	-7.211644e+00	-5.963450e+00
2.690000e-06	-1.090416e-06	-2.328261e-10	-7.559083e+00	-1.841297e+01
2.700000e-06	-1.140135e-06	-4.366756e-10	-7.903748e+00	-3.140464e+01
2.710000e-06	-1.189426e-06	-6.473104e-10	-8.245450e+00	-4.492023e+01
2.720000e-06	-1.238249e-06	-8.576621e-10	-8.583901e+00	-5.892127e+01
2.730000e-06	-1.286392e-06	-1.070674e-09	-8.917643e+00	-7.334791e+01
2.740000e-06	-1.333730e-06	-1.292429e-09	-9.245809e+00	-8.811929e+01
2.750000e-06	-1.380415e-06	-1.523760e-09	-9.569438e+00	-1.031353e+02
2.760000e-06	-1.426594e-06	-1.758308e-09	-9.889568e+00	-1.182798e+02
2.770000e-06	-1.472334e-06	-1.991437e-09	-1.020665e+01	-1.334249e+02
2.780000e-06	-1.517721e-06	-2.222853e-09	-1.052129e+01	-1.484367e+02
2.790000e-06	-1.562721e-06	-2.453896e-09	-1.083324e+01	-1.631809e+02
2.800000e-06	-1.607157e-06	-2.678432e-09	-1.114128e+01	-1.775292e+02
2.810000e-06	-1.651007e-06	-2.889304e-09	-1.144526e+01	-1.913649e+02
2.820000e-06	-1.694417e-06	-3.086425e-09	-1.174619e+01	-2.045882e+02
2.830000e-06	-1.737415e-06	-3.274392e-09	-1.204427e+01	-2.171201e+02
2.840000e-06	-1.779876e-06	-3.454968e-09	-1.233862e+01	-2.289049e+02
2.850000e-06	-1.821768e-06	-3.625268e-09	-1.262903e+01	-2.399109e+02
2.860000e-06	-1.863088e-06	-3.782780e-09	-1.291547e+01	-2.501307e+02
2.870000e-06	-1.903722e-06	-3.929681e-09	-1.319716e+01	-2.595781e+02
2.880000e-06	-1.943697e-06	-4.068918e-09	-1.347428e+01	-2.682858e+02
2.890000e-06	-1.983119e-06	-4.197672e-09	-1.374756e+01	-2.763006e+02
2.900000e-06	-2.021949e-06	-4.312550e-09	-1.401674e+01	-2.836793e+02
2.910000e-06	-2.059958e-06	-4.412541e-09	-1.428023e+01	-2.904838e+02
2.920000e-06	-2.096956e-06	-4.503862e-09	-1.453671e+01	-2.967765e+02
2.930000e-06	-2.133045e-06	-4.593729e-09	-1.478689e+01	-3.026170e+02
2.940000e-06	-2.168443e-06	-4.682557e-09	-1.503228e+01	-3.080585e+02
