# Temperatura_=_21.2
# Concentracion g/m^3_=_15500.0
# C_Vs_to_Am_M_A/Vsm_=_65563218390.804596
# pendiente_HvsI_1/m_=_3716.3
# ordenada_HvsI_A/m_=_1297.0
# frecuencia_Hz_=_300834.91947459424

Tiempo_(s)	Campo_(V.s)	Magnetizacion_(V.s)	Campo_(kA/m)	Magnetizacion_(A/m)
0.000000e+00	-2.851013e-06	-6.386674e-09	-1.980305e+01	-4.171370e+02
1.000000e-08	-2.850647e-06	-6.382555e-09	-1.980051e+01	-4.170770e+02
2.000000e-08	-2.849508e-06	-6.380446e-09	-1.979260e+01	-4.169314e+02
3.000000e-08	-2.847344e-06	-6.379313e-09	-1.977757e+01	-4.167012e+02
4.000000e-08	-2.844002e-06	-6.374359e-09	-1.975436e+01	-4.163886e+02
5.000000e-08	-2.839670e-06	-6.365357e-09	-1.972426e+01	-4.159973e+02
6.000000e-08	-2.834479e-06	-6.355427e-09	-1.968821e+01	-4.155319e+02
7.000000e-08	-2.828386e-06	-6.345993e-09	-1.964588e+01	-4.149983e+02
8.000000e-08	-2.821325e-06	-6.359100e-09	-1.959684e+01	-4.144030e+02
9.000000e-08	-2.813202e-06	-6.364776e-09	-1.954042e+01	-4.137523e+02
1.000000e-07	-2.803793e-06	-6.360562e-09	-1.947506e+01	-4.130522e+02
1.100000e-07	-2.793057e-06	-6.288497e-09	-1.940049e+01	-4.123074e+02
1.200000e-07	-2.781271e-06	-6.285404e-09	-1.931862e+01	-4.115208e+02
1.300000e-07	-2.768648e-06	-6.296728e-09	-1.923095e+01	-4.106932e+02
1.400000e-07	-2.755164e-06	-6.250404e-09	-1.913729e+01	-4.098231e+02
1.500000e-07	-2.740742e-06	-6.264432e-09	-1.903711e+01	-4.089068e+02
1.600000e-07	-2.725210e-06	-6.252685e-09	-1.892923e+01	-4.079385e+02
1.700000e-07	-2.708383e-06	-6.264845e-09	-1.881234e+01	-4.069109e+02
1.800000e-07	-2.690420e-06	-6.201540e-09	-1.868757e+01	-4.058160e+02
1.900000e-07	-2.671632e-06	-6.201536e-09	-1.855707e+01	-4.046457e+02
2.000000e-07	-2.652091e-06	-6.188165e-09	-1.842134e+01	-4.033927e+02
2.100000e-07	-2.631697e-06	-6.098337e-09	-1.827969e+01	-4.020511e+02
2.200000e-07	-2.610444e-06	-6.126828e-09	-1.813206e+01	-4.006169e+02
2.300000e-07	-2.588344e-06	-6.122481e-09	-1.797856e+01	-3.990883e+02
2.400000e-07	-2.565355e-06	-6.072628e-09	-1.781888e+01	-3.974660e+02
2.500000e-07	-2.541496e-06	-6.078763e-09	-1.765316e+01	-3.957528e+02
2.600000e-07	-2.516821e-06	-6.019664e-09	-1.748176e+01	-3.939532e+02
2.700000e-07	-2.491247e-06	-5.969176e-09	-1.730413e+01	-3.920727e+02
2.800000e-07	-2.464686e-06	-5.983621e-09	-1.711964e+01	-3.901175e+02
2.900000e-07	-2.437077e-06	-5.920960e-09	-1.692787e+01	-3.880934e+02
3.000000e-07	-2.408431e-06	-5.893867e-09	-1.672889e+01	-3.860054e+02
3.100000e-07	-2.378970e-06	-5.877045e-09	-1.652425e+01	-3.838570e+02
3.200000e-07	-2.348840e-06	-5.852447e-09	-1.631498e+01	-3.816501e+02
3.300000e-07	-2.317974e-06	-5.797543e-09	-1.610058e+01	-3.793848e+02
3.400000e-07	-2.286317e-06	-5.765001e-09	-1.588069e+01	-3.770595e+02
3.500000e-07	-2.253922e-06	-5.717588e-09	-1.565568e+01	-3.746713e+02
3.600000e-07	-2.220890e-06	-5.677465e-09	-1.542624e+01	-3.722165e+02
3.700000e-07	-2.187017e-06	-5.668867e-09	-1.519095e+01	-3.696912e+02
3.800000e-07	-2.152051e-06	-5.609178e-09	-1.494809e+01	-3.670917e+02
3.900000e-07	-2.116149e-06	-5.566176e-09	-1.469871e+01	-3.644151e+02
4.000000e-07	-2.079491e-06	-5.521780e-09	-1.444408e+01	-3.616596e+02
4.100000e-07	-2.042175e-06	-5.492151e-09	-1.418489e+01	-3.588249e+02
4.200000e-07	-2.004258e-06	-5.439610e-09	-1.392152e+01	-3.559118e+02
4.300000e-07	-1.965609e-06	-5.388547e-09	-1.365306e+01	-3.529222e+02
4.400000e-07	-1.926185e-06	-5.336555e-09	-1.337922e+01	-3.498589e+02
4.500000e-07	-1.886105e-06	-5.307188e-09	-1.310083e+01	-3.467249e+02
4.600000e-07	-1.845583e-06	-5.260152e-09	-1.281936e+01	-3.435229e+02
4.700000e-07	-1.804631e-06	-5.197038e-09	-1.253491e+01	-3.402550e+02
4.800000e-07	-1.762918e-06	-5.145629e-09	-1.224518e+01	-3.369221e+02
4.900000e-07	-1.720252e-06	-5.090234e-09	-1.194882e+01	-3.335240e+02
5.000000e-07	-1.676692e-06	-5.047833e-09	-1.164625e+01	-3.300590e+02
5.100000e-07	-1.632462e-06	-4.986533e-09	-1.133904e+01	-3.265242e+02
5.200000e-07	-1.587788e-06	-4.939268e-09	-1.102873e+01	-3.229156e+02
5.300000e-07	-1.542657e-06	-4.878651e-09	-1.071525e+01	-3.192288e+02
5.400000e-07	-1.496961e-06	-4.829321e-09	-1.039784e+01	-3.154592e+02
5.500000e-07	-1.450728e-06	-4.769627e-09	-1.007671e+01	-3.116025e+02
5.600000e-07	-1.403993e-06	-4.696448e-09	-9.752092e+00	-3.076550e+02
5.700000e-07	-1.356748e-06	-4.626422e-09	-9.423929e+00	-3.036143e+02
5.800000e-07	-1.309046e-06	-4.566982e-09	-9.092593e+00	-2.994788e+02
5.900000e-07	-1.260905e-06	-4.515245e-09	-8.758212e+00	-2.952482e+02
6.000000e-07	-1.212385e-06	-4.445342e-09	-8.421191e+00	-2.909231e+02
6.100000e-07	-1.163486e-06	-4.380988e-09	-8.081539e+00	-2.865045e+02
6.200000e-07	-1.114085e-06	-4.308838e-09	-7.738401e+00	-2.819940e+02
6.300000e-07	-1.064103e-06	-4.239058e-09	-7.391226e+00	-2.773927e+02
6.400000e-07	-1.013495e-06	-4.158865e-09	-7.039706e+00	-2.727013e+02
6.500000e-07	-9.623697e-07	-4.081975e-09	-6.684591e+00	-2.679196e+02
6.600000e-07	-9.107902e-07	-4.008297e-09	-6.326322e+00	-2.630466e+02
6.700000e-07	-8.587477e-07	-3.933631e-09	-5.964836e+00	-2.580803e+02
6.800000e-07	-8.064252e-07	-3.859761e-09	-5.601405e+00	-2.530176e+02
6.900000e-07	-7.538396e-07	-3.777522e-09	-5.236147e+00	-2.478552e+02
7.000000e-07	-7.009467e-07	-3.697383e-09	-4.868755e+00	-2.425894e+02
7.100000e-07	-6.478220e-07	-3.611376e-09	-4.499753e+00	-2.372164e+02
7.200000e-07	-5.944890e-07	-3.529504e-09	-4.129303e+00	-2.317331e+02
7.300000e-07	-5.409669e-07	-3.442298e-09	-3.757540e+00	-2.261368e+02
7.400000e-07	-4.872391e-07	-3.355676e-09	-3.384348e+00	-2.204253e+02
7.500000e-07	-4.333140e-07	-3.266870e-09	-3.009786e+00	-2.145973e+02
7.600000e-07	-3.792111e-07	-3.176140e-09	-2.633989e+00	-2.086515e+02
7.700000e-07	-3.249607e-07	-3.083024e-09	-2.257168e+00	-2.025867e+02
7.800000e-07	-2.706374e-07	-2.984616e-09	-1.879840e+00	-1.964013e+02
7.900000e-07	-2.162492e-07	-2.889804e-09	-1.502060e+00	-1.900929e+02
8.000000e-07	-1.617978e-07	-2.790846e-09	-1.123843e+00	-1.836577e+02
8.100000e-07	-1.073197e-07	-2.692768e-09	-7.454393e-01	-1.770905e+02
8.200000e-07	-5.283696e-08	-2.587992e-09	-3.670039e-01	-1.703845e+02
8.300000e-07	1.648735e-09	-2.482813e-09	1.145206e-02	-1.635313e+02
8.400000e-07	5.615963e-08	-2.372866e-09	3.900831e-01	-1.565214e+02
8.500000e-07	1.106628e-07	-2.257963e-09	7.686605e-01	-1.493444e+02
8.600000e-07	1.651398e-07	-2.142267e-09	1.147056e+00	-1.419896e+02
8.700000e-07	2.196059e-07	-2.027170e-09	1.525376e+00	-1.344466e+02
8.800000e-07	2.740271e-07	-1.912694e-09	1.903384e+00	-1.267053e+02
8.900000e-07	3.283550e-07	-1.788741e-09	2.280744e+00	-1.187568e+02
9.000000e-07	3.825539e-07	-1.661938e-09	2.657208e+00	-1.105928e+02
9.100000e-07	4.366099e-07	-1.530447e-09	3.032680e+00	-1.022059e+02
9.200000e-07	4.904225e-07	-1.399499e-09	3.406460e+00	-9.358883e+01
9.300000e-07	5.439821e-07	-1.264291e-09	3.778483e+00	-8.473382e+01
9.400000e-07	5.973511e-07	-1.125131e-09	4.149183e+00	-7.563173e+01
9.500000e-07	6.505261e-07	-9.804982e-10	4.518535e+00	-6.627125e+01
9.600000e-07	7.035139e-07	-8.310433e-10	4.886587e+00	-5.663816e+01
9.700000e-07	7.562560e-07	-6.795115e-10	5.252932e+00	-4.671485e+01
9.800000e-07	8.087193e-07	-5.212095e-10	5.617340e+00	-3.648037e+01
9.900000e-07	8.609200e-07	-3.575004e-10	5.979925e+00	-2.591081e+01
1.000000e-06	9.127543e-07	-1.863557e-10	6.339964e+00	-1.498044e+01
1.010000e-06	9.640849e-07	-1.160811e-11	6.696505e+00	-3.663337e+00
1.020000e-06	1.014851e-06	1.692928e-10	7.049126e+00	8.064444e+00
1.030000e-06	1.064971e-06	3.522749e-10	7.397258e+00	2.022229e+01
1.040000e-06	1.114470e-06	5.408149e-10	7.741078e+00	3.282225e+01
1.050000e-06	1.163511e-06	7.388301e-10	8.081714e+00	4.586628e+01
1.060000e-06	1.212236e-06	9.475540e-10	8.420155e+00	5.934370e+01
1.070000e-06	1.260693e-06	1.163323e-09	8.756734e+00	7.322927e+01
1.080000e-06	1.308776e-06	1.378936e-09	9.090721e+00	8.748187e+01
1.090000e-06	1.356350e-06	1.601656e-09	9.421165e+00	1.020443e+02
1.100000e-06	1.403419e-06	1.827503e-09	9.748103e+00	1.168436e+02
1.110000e-06	1.450007e-06	2.055463e-09	1.007170e+01	1.317935e+02
1.120000e-06	1.496082e-06	2.282116e-09	1.039174e+01	1.467964e+02
1.130000e-06	1.541596e-06	2.507715e-09	1.070788e+01	1.617470e+02
1.140000e-06	1.586623e-06	2.730880e-09	1.102064e+01	1.765371e+02
1.150000e-06	1.631269e-06	2.952320e-09	1.133075e+01	1.910590e+02
1.160000e-06	1.675548e-06	3.168416e-09	1.163831e+01	2.052109e+02
1.170000e-06	1.719274e-06	3.373326e-09	1.194202e+01	2.189003e+02
1.180000e-06	1.762119e-06	3.570448e-09	1.223963e+01	2.320481e+02
1.190000e-06	1.804005e-06	3.757688e-09	1.253056e+01	2.445909e+02
1.200000e-06	1.845113e-06	3.937860e-09	1.281610e+01	2.564827e+02
1.210000e-06	1.885681e-06	4.108848e-09	1.309788e+01	2.676959e+02
1.220000e-06	1.925750e-06	4.268588e-09	1.337620e+01	2.782202e+02
1.230000e-06	1.965227e-06	4.415735e-09	1.365041e+01	2.880618e+02
1.240000e-06	2.004016e-06	4.552943e-09	1.391984e+01	2.972407e+02
1.250000e-06	2.042061e-06	4.681246e-09	1.418410e+01	3.057878e+02
1.260000e-06	2.079407e-06	4.801538e-09	1.444350e+01	3.137424e+02
1.270000e-06	2.116183e-06	4.913185e-09	1.469894e+01	3.211480e+02
1.280000e-06	2.152439e-06	5.016812e-09	1.495078e+01	3.280502e+02
1.290000e-06	2.187924e-06	5.114051e-09	1.519725e+01	3.344938e+02
1.300000e-06	2.222326e-06	5.203674e-09	1.543621e+01	3.405203e+02
1.310000e-06	2.255679e-06	5.286719e-09	1.566788e+01	3.461675e+02
1.320000e-06	2.288223e-06	5.364720e-09	1.589393e+01	3.514675e+02
1.330000e-06	2.320096e-06	5.439122e-09	1.611532e+01	3.564479e+02
1.340000e-06	2.351250e-06	5.509624e-09	1.633171e+01	3.611311e+02
1.350000e-06	2.381555e-06	5.575218e-09	1.654221e+01	3.655357e+02
1.360000e-06	2.411103e-06	5.634783e-09	1.674745e+01	3.696769e+02
1.370000e-06	2.439999e-06	5.690283e-09	1.694816e+01	3.735682e+02
1.380000e-06	2.468194e-06	5.744756e-09	1.714400e+01	3.772218e+02
1.390000e-06	2.495433e-06	5.797658e-09	1.733320e+01	3.806494e+02
1.400000e-06	2.521470e-06	5.845938e-09	1.751405e+01	3.838628e+02
1.410000e-06	2.546425e-06	5.888660e-09	1.768739e+01	3.868740e+02
1.420000e-06	2.570469e-06	5.928035e-09	1.785440e+01	3.896953e+02
1.430000e-06	2.593653e-06	5.966551e-09	1.801543e+01	3.923388e+02
1.440000e-06	2.615958e-06	6.004922e-09	1.817037e+01	3.948163e+02
1.450000e-06	2.637423e-06	6.037615e-09	1.831946e+01	3.971384e+02
1.460000e-06	2.658178e-06	6.065530e-09	1.846362e+01	3.993149e+02
1.470000e-06	2.678139e-06	6.094987e-09	1.860228e+01	4.013537e+02
1.480000e-06	2.697097e-06	6.125488e-09	1.873395e+01	4.032613e+02
1.490000e-06	2.715125e-06	6.153797e-09	1.885918e+01	4.050423e+02
1.500000e-06	2.732242e-06	6.177392e-09	1.897807e+01	4.067003e+02
1.510000e-06	2.748282e-06	6.197755e-09	1.908949e+01	4.082377e+02
1.520000e-06	2.763196e-06	6.216814e-09	1.919307e+01	4.096565e+02
1.530000e-06	2.777071e-06	6.235050e-09	1.928945e+01	4.109583e+02
1.540000e-06	2.789970e-06	6.251051e-09	1.937905e+01	4.121451e+02
1.550000e-06	2.801716e-06	6.266170e-09	1.946064e+01	4.132194e+02
1.560000e-06	2.812216e-06	6.281879e-09	1.953357e+01	4.141841e+02
1.570000e-06	2.821565e-06	6.296354e-09	1.959851e+01	4.150428e+02
1.580000e-06	2.829926e-06	6.309497e-09	1.965658e+01	4.157995e+02
1.590000e-06	2.837384e-06	6.320972e-09	1.970839e+01	4.164584e+02
1.600000e-06	2.843831e-06	6.330832e-09	1.975316e+01	4.170232e+02
1.610000e-06	2.849324e-06	6.337516e-09	1.979132e+01	4.174975e+02
1.620000e-06	2.853996e-06	6.340717e-09	1.982377e+01	4.178838e+02
1.630000e-06	2.857695e-06	6.345190e-09	1.984946e+01	4.181839e+02
1.640000e-06	2.860184e-06	6.351882e-09	1.986675e+01	4.183987e+02
1.650000e-06	2.861506e-06	6.358136e-09	1.987594e+01	4.185283e+02
1.660000e-06	2.861875e-06	6.359329e-09	1.987850e+01	4.185724e+02
1.670000e-06	2.861344e-06	6.355518e-09	1.987481e+01	4.185308e+02
1.680000e-06	2.859935e-06	6.354329e-09	1.986502e+01	4.184035e+02
1.690000e-06	2.857673e-06	6.353132e-09	1.984931e+01	4.181912e+02
1.700000e-06	2.854597e-06	6.349874e-09	1.982795e+01	4.178961e+02
1.710000e-06	2.850673e-06	6.343215e-09	1.980069e+01	4.175213e+02
1.720000e-06	2.845701e-06	6.336960e-09	1.976616e+01	4.170713e+02
1.730000e-06	2.839606e-06	6.338231e-09	1.972382e+01	4.165518e+02
1.740000e-06	2.832535e-06	6.307085e-09	1.967470e+01	4.159692e+02
1.750000e-06	2.824486e-06	6.286203e-09	1.961880e+01	4.153298e+02
1.760000e-06	2.815061e-06	6.284229e-09	1.955333e+01	4.146399e+02
1.770000e-06	2.804196e-06	6.292892e-09	1.947786e+01	4.139043e+02
1.780000e-06	2.792621e-06	6.306562e-09	1.939747e+01	4.131265e+02
1.790000e-06	2.780720e-06	6.224246e-09	1.931480e+01	4.123078e+02
1.800000e-06	2.767844e-06	6.275778e-09	1.922536e+01	4.114471e+02
1.810000e-06	2.753519e-06	6.226984e-09	1.912586e+01	4.105411e+02
1.820000e-06	2.738158e-06	6.187452e-09	1.901917e+01	4.095845e+02
1.830000e-06	2.722000e-06	6.227157e-09	1.890693e+01	4.085703e+02
1.840000e-06	2.704713e-06	6.195681e-09	1.878685e+01	4.074905e+02
1.850000e-06	2.686293e-06	6.192906e-09	1.865891e+01	4.063370e+02
1.860000e-06	2.667106e-06	6.171069e-09	1.852564e+01	4.051023e+02
1.870000e-06	2.647034e-06	6.168720e-09	1.838622e+01	4.037801e+02
1.880000e-06	2.625897e-06	6.118619e-09	1.823940e+01	4.023659e+02
1.890000e-06	2.603737e-06	6.074618e-09	1.808548e+01	4.008576e+02
1.900000e-06	2.580497e-06	6.079773e-09	1.792406e+01	3.992553e+02
1.910000e-06	2.556373e-06	6.048774e-09	1.775649e+01	3.975612e+02
1.920000e-06	2.531496e-06	6.038189e-09	1.758370e+01	3.957796e+02
1.930000e-06	2.505770e-06	6.030688e-09	1.740500e+01	3.939160e+02
1.940000e-06	2.479224e-06	5.938026e-09	1.722062e+01	3.919763e+02
1.950000e-06	2.451927e-06	5.958787e-09	1.703101e+01	3.899665e+02
1.960000e-06	2.423639e-06	5.914471e-09	1.683453e+01	3.878919e+02
1.970000e-06	2.394184e-06	5.839173e-09	1.662993e+01	3.857562e+02
1.980000e-06	2.363782e-06	5.843496e-09	1.641876e+01	3.835618e+02
1.990000e-06	2.332590e-06	5.806998e-09	1.620210e+01	3.813091e+02
2.000000e-06	2.300676e-06	5.763823e-09	1.598043e+01	3.789968e+02
2.010000e-06	2.268019e-06	5.752969e-09	1.575359e+01	3.766224e+02
2.020000e-06	2.234594e-06	5.691176e-09	1.552142e+01	3.741822e+02
2.030000e-06	2.200421e-06	5.640429e-09	1.528406e+01	3.716723e+02
2.040000e-06	2.165583e-06	5.632834e-09	1.504207e+01	3.690890e+02
2.050000e-06	2.130141e-06	5.574259e-09	1.479590e+01	3.664291e+02
2.060000e-06	2.093965e-06	5.534516e-09	1.454462e+01	3.636906e+02
2.070000e-06	2.056842e-06	5.489280e-09	1.428676e+01	3.608729e+02
2.080000e-06	2.018665e-06	5.437641e-09	1.402158e+01	3.579764e+02
2.090000e-06	1.979680e-06	5.413210e-09	1.375080e+01	3.550030e+02
2.100000e-06	1.940140e-06	5.357133e-09	1.347616e+01	3.519553e+02
2.110000e-06	1.900028e-06	5.302594e-09	1.319754e+01	3.488362e+02
2.120000e-06	1.859236e-06	5.269006e-09	1.291420e+01	3.456486e+02
2.130000e-06	1.817797e-06	5.213989e-09	1.262636e+01	3.423947e+02
2.140000e-06	1.775815e-06	5.158903e-09	1.233475e+01	3.390757e+02
2.150000e-06	1.733259e-06	5.112048e-09	1.203916e+01	3.356917e+02
2.160000e-06	1.690195e-06	5.051671e-09	1.174005e+01	3.322412e+02
2.170000e-06	1.646695e-06	5.006113e-09	1.143789e+01	3.287217e+02
2.180000e-06	1.602634e-06	4.948627e-09	1.113185e+01	3.251293e+02
2.190000e-06	1.557911e-06	4.895960e-09	1.082121e+01	3.214596e+02
2.200000e-06	1.512500e-06	4.838881e-09	1.050578e+01	3.177081e+02
2.210000e-06	1.466605e-06	4.770527e-09	1.018700e+01	3.138704e+02
2.220000e-06	1.420404e-06	4.726349e-09	9.866083e+00	3.099426e+02
2.230000e-06	1.373740e-06	4.659904e-09	9.541956e+00	3.059221e+02
2.240000e-06	1.326558e-06	4.594414e-09	9.214234e+00	3.018070e+02
2.250000e-06	1.278805e-06	4.534431e-09	8.882540e+00	2.975967e+02
2.260000e-06	1.230394e-06	4.468724e-09	8.546284e+00	2.932918e+02
2.270000e-06	1.181501e-06	4.403409e-09	8.206669e+00	2.888931e+02
2.280000e-06	1.132220e-06	4.333956e-09	7.864369e+00	2.844022e+02
2.290000e-06	1.082561e-06	4.266343e-09	7.519434e+00	2.798203e+02
2.300000e-06	1.032446e-06	4.202775e-09	7.171341e+00	2.751482e+02
2.310000e-06	9.818789e-07	4.129818e-09	6.820102e+00	2.703859e+02
2.320000e-06	9.309707e-07	4.051645e-09	6.466495e+00	2.655326e+02
2.330000e-06	8.798087e-07	3.976427e-09	6.111125e+00	2.605865e+02
2.340000e-06	8.284252e-07	3.896917e-09	5.754216e+00	2.555447e+02
2.350000e-06	7.767171e-07	3.822695e-09	5.395054e+00	2.504040e+02
2.360000e-06	7.245900e-07	3.741723e-09	5.032980e+00	2.451607e+02
2.370000e-06	6.720314e-07	3.662286e-09	4.667910e+00	2.398110e+02
2.380000e-06	6.190129e-07	3.581870e-09	4.299646e+00	2.343516e+02
2.390000e-06	5.655929e-07	3.497580e-09	3.928591e+00	2.287797e+02
2.400000e-06	5.118765e-07	3.413850e-09	3.555479e+00	2.230930e+02
2.410000e-06	4.578541e-07	3.323177e-09	3.180241e+00	2.172901e+02
2.420000e-06	4.036056e-07	3.234803e-09	2.803433e+00	2.113696e+02
2.430000e-06	3.492076e-07	3.145731e-09	2.425586e+00	2.053304e+02
2.440000e-06	2.946283e-07	3.052476e-09	2.046479e+00	1.991711e+02
2.450000e-06	2.398627e-07	2.952328e-09	1.666079e+00	1.928893e+02
2.460000e-06	1.850083e-07	2.850183e-09	1.285062e+00	1.864817e+02
2.470000e-06	1.301188e-07	2.751839e-09	9.038011e-01	1.799433e+02
2.480000e-06	7.520291e-08	2.655940e-09	5.223572e-01	1.732676e+02
2.490000e-06	2.028480e-08	2.556747e-09	1.408976e-01	1.664467e+02
2.500000e-06	-3.466612e-08	2.453975e-09	-2.407898e-01	1.594713e+02
2.510000e-06	-8.960613e-08	2.350223e-09	-6.224015e-01	1.523310e+02
2.520000e-06	-1.444786e-07	2.239049e-09	-1.003544e+00	1.450153e+02
2.530000e-06	-1.993001e-07	2.121407e-09	-1.384333e+00	1.375134e+02
2.540000e-06	-2.540504e-07	1.997784e-09	-1.764626e+00	1.298154e+02
2.550000e-06	-3.087243e-07	1.877668e-09	-2.144390e+00	1.219120e+02
2.560000e-06	-3.632994e-07	1.758663e-09	-2.523467e+00	1.137948e+02
2.570000e-06	-4.176965e-07	1.636096e-09	-2.901308e+00	1.054563e+02
2.580000e-06	-4.718274e-07	1.510197e-09	-3.277299e+00	9.688923e+01
2.590000e-06	-5.256645e-07	1.378826e-09	-3.651250e+00	8.808592e+01
2.600000e-06	-5.791996e-07	1.242673e-09	-4.023103e+00	7.903765e+01
2.610000e-06	-6.323982e-07	1.098606e-09	-4.392619e+00	6.973363e+01
2.620000e-06	-6.851679e-07	9.496152e-10	-4.759156e+00	6.016032e+01
2.630000e-06	-7.375208e-07	7.967478e-10	-5.122798e+00	5.030086e+01
2.640000e-06	-7.894941e-07	6.434672e-10	-5.483802e+00	4.013499e+01
2.650000e-06	-8.410720e-07	4.868541e-10	-5.842061e+00	2.963936e+01
2.660000e-06	-8.923812e-07	3.224817e-10	-6.198453e+00	1.878852e+01
2.670000e-06	-9.434445e-07	1.520569e-10	-6.553138e+00	7.556409e+00
2.680000e-06	-9.941927e-07	-2.004456e-11	-6.905633e+00	-4.081536e+00
2.690000e-06	-1.044555e-06	-1.976064e-10	-7.255449e+00	-1.614591e+01
2.700000e-06	-1.094476e-06	-3.880973e-10	-7.602196e+00	-2.865058e+01
2.710000e-06	-1.143978e-06	-5.885510e-10	-7.946034e+00	-4.159988e+01
2.720000e-06	-1.193057e-06	-7.954935e-10	-8.286937e+00	-5.498603e+01
2.730000e-06	-1.241604e-06	-1.006307e-09	-8.624144e+00	-6.878704e+01
2.740000e-06	-1.289460e-06	-1.223502e-09	-8.956548e+00	-8.296527e+01
2.750000e-06	-1.336524e-06	-1.445972e-09	-9.283454e+00	-9.746688e+01
2.760000e-06	-1.382893e-06	-1.671032e-09	-9.605532e+00	-1.122223e+02
2.770000e-06	-1.428829e-06	-1.895545e-09	-9.924606e+00	-1.271478e+02
2.780000e-06	-1.474466e-06	-2.120941e-09	-1.024160e+01	-1.421480e+02
2.790000e-06	-1.519764e-06	-2.351060e-09	-1.055623e+01	-1.571189e+02
2.800000e-06	-1.564617e-06	-2.582517e-09	-1.086778e+01	-1.719525e+02
2.810000e-06	-1.608927e-06	-2.808954e-09	-1.117556e+01	-1.865407e+02
2.820000e-06	-1.652719e-06	-3.027030e-09	-1.147974e+01	-2.007800e+02
2.830000e-06	-1.696080e-06	-3.240456e-09	-1.178092e+01	-2.145757e+02
2.840000e-06	-1.738986e-06	-3.445700e-09	-1.207894e+01	-2.278455e+02
2.850000e-06	-1.781297e-06	-3.639853e-09	-1.237284e+01	-2.405224e+02
2.860000e-06	-1.822983e-06	-3.821333e-09	-1.266239e+01	-2.525567e+02
2.870000e-06	-1.864110e-06	-3.991838e-09	-1.294805e+01	-2.639167e+02
2.880000e-06	-1.904612e-06	-4.154963e-09	-1.322938e+01	-2.745887e+02
2.890000e-06	-1.944416e-06	-4.310667e-09	-1.350586e+01	-2.845753e+02
2.900000e-06	-1.983663e-06	-4.458458e-09	-1.377846e+01	-2.938939e+02
2.910000e-06	-2.022357e-06	-4.596330e-09	-1.404723e+01	-3.025733e+02
2.920000e-06	-2.060209e-06	-4.722228e-09	-1.431015e+01	-3.106513e+02
2.930000e-06	-2.097034e-06	-4.836052e-09	-1.456593e+01	-3.181707e+02
2.940000e-06	-2.132960e-06	-4.943315e-09	-1.481548e+01	-3.251770e+02
