# Temperatura_=_22.7
# Concentracion g/m^3_=_15500.0
# C_Vs_to_Am_M_A/Vsm_=_65563218390.804596
# pendiente_HvsI_1/m_=_3716.3
# ordenada_HvsI_A/m_=_1297.0
# frecuencia_Hz_=_300836.1825919537

Tiempo_(s)	Campo_(V.s)	Magnetizacion_(V.s)	Campo_(kA/m)	Magnetizacion_(A/m)
0.000000e+00	-2.850517e-06	-5.612540e-09	-1.980132e+01	-3.661232e+02
1.000000e-08	-2.849497e-06	-5.614179e-09	-1.979423e+01	-3.660439e+02
2.000000e-08	-2.847473e-06	-5.609870e-09	-1.978017e+01	-3.658954e+02
3.000000e-08	-2.844176e-06	-5.606216e-09	-1.975727e+01	-3.656779e+02
4.000000e-08	-2.839894e-06	-5.604768e-09	-1.972752e+01	-3.653932e+02
5.000000e-08	-2.834831e-06	-5.598527e-09	-1.969235e+01	-3.650449e+02
6.000000e-08	-2.828868e-06	-5.582295e-09	-1.965093e+01	-3.646380e+02
7.000000e-08	-2.821908e-06	-5.563076e-09	-1.960258e+01	-3.641791e+02
8.000000e-08	-2.813930e-06	-5.606650e-09	-1.954716e+01	-3.636752e+02
9.000000e-08	-2.804749e-06	-5.662748e-09	-1.948339e+01	-3.631334e+02
1.000000e-07	-2.794046e-06	-5.609493e-09	-1.940904e+01	-3.625598e+02
1.100000e-07	-2.782204e-06	-5.428150e-09	-1.932678e+01	-3.619587e+02
1.200000e-07	-2.769679e-06	-5.476555e-09	-1.923977e+01	-3.613322e+02
1.300000e-07	-2.756219e-06	-5.654318e-09	-1.914627e+01	-3.606798e+02
1.400000e-07	-2.741745e-06	-5.531819e-09	-1.904573e+01	-3.599979e+02
1.500000e-07	-2.726315e-06	-5.378176e-09	-1.893854e+01	-3.592805e+02
1.600000e-07	-2.709594e-06	-5.551687e-09	-1.882239e+01	-3.585193e+02
1.700000e-07	-2.691585e-06	-5.595123e-09	-1.869729e+01	-3.577046e+02
1.800000e-07	-2.672901e-06	-5.331394e-09	-1.856750e+01	-3.568264e+02
1.900000e-07	-2.653552e-06	-5.415010e-09	-1.843309e+01	-3.558748e+02
2.000000e-07	-2.633230e-06	-5.522201e-09	-1.829192e+01	-3.548417e+02
2.100000e-07	-2.612034e-06	-5.287217e-09	-1.814468e+01	-3.537210e+02
2.200000e-07	-2.590065e-06	-5.329665e-09	-1.799207e+01	-3.525092e+02
2.300000e-07	-2.567172e-06	-5.516211e-09	-1.783304e+01	-3.512057e+02
2.400000e-07	-2.543348e-06	-5.321295e-09	-1.766755e+01	-3.498129e+02
2.500000e-07	-2.518773e-06	-5.237711e-09	-1.749684e+01	-3.483356e+02
2.600000e-07	-2.493371e-06	-5.340331e-09	-1.732038e+01	-3.467801e+02
2.700000e-07	-2.466891e-06	-5.262618e-09	-1.713643e+01	-3.451539e+02
2.800000e-07	-2.439247e-06	-5.204508e-09	-1.694440e+01	-3.434646e+02
2.900000e-07	-2.410663e-06	-5.230587e-09	-1.674584e+01	-3.417189e+02
3.000000e-07	-2.381337e-06	-5.184105e-09	-1.654213e+01	-3.399222e+02
3.100000e-07	-2.351302e-06	-5.182352e-09	-1.633349e+01	-3.380778e+02
3.200000e-07	-2.320483e-06	-5.182525e-09	-1.611940e+01	-3.361870e+02
3.300000e-07	-2.288826e-06	-5.060772e-09	-1.589949e+01	-3.342489e+02
3.400000e-07	-2.256496e-06	-5.059953e-09	-1.567491e+01	-3.322610e+02
3.500000e-07	-2.223583e-06	-5.059894e-09	-1.544627e+01	-3.302192e+02
3.600000e-07	-2.189893e-06	-4.989332e-09	-1.521225e+01	-3.281191e+02
3.700000e-07	-2.155075e-06	-4.999110e-09	-1.497038e+01	-3.259563e+02
3.800000e-07	-2.119159e-06	-4.957166e-09	-1.472089e+01	-3.237271e+02
3.900000e-07	-2.082603e-06	-4.875881e-09	-1.446695e+01	-3.214288e+02
4.000000e-07	-2.045470e-06	-4.891621e-09	-1.420900e+01	-3.190605e+02
4.100000e-07	-2.007580e-06	-4.871572e-09	-1.394580e+01	-3.166224e+02
4.200000e-07	-1.968998e-06	-4.770408e-09	-1.367778e+01	-3.141163e+02
4.300000e-07	-1.929691e-06	-4.746136e-09	-1.340474e+01	-3.115449e+02
4.400000e-07	-1.889669e-06	-4.730610e-09	-1.312672e+01	-3.089110e+02
4.500000e-07	-1.849207e-06	-4.684970e-09	-1.284565e+01	-3.062176e+02
4.600000e-07	-1.808381e-06	-4.636949e-09	-1.256205e+01	-3.034668e+02
4.700000e-07	-1.766870e-06	-4.592037e-09	-1.227369e+01	-3.006595e+02
4.800000e-07	-1.724295e-06	-4.548657e-09	-1.197794e+01	-2.977953e+02
4.900000e-07	-1.680713e-06	-4.513922e-09	-1.167519e+01	-2.948719e+02
5.000000e-07	-1.636507e-06	-4.468407e-09	-1.136811e+01	-2.918860e+02
5.100000e-07	-1.591910e-06	-4.398267e-09	-1.105832e+01	-2.888331e+02
5.200000e-07	-1.546911e-06	-4.356551e-09	-1.074573e+01	-2.857081e+02
5.300000e-07	-1.501397e-06	-4.320078e-09	-1.042956e+01	-2.825061e+02
5.400000e-07	-1.455270e-06	-4.274649e-09	-1.010914e+01	-2.792225e+02
5.500000e-07	-1.408548e-06	-4.215055e-09	-9.784577e+00	-2.758541e+02
5.600000e-07	-1.361326e-06	-4.155103e-09	-9.456548e+00	-2.723991e+02
5.700000e-07	-1.313667e-06	-4.099957e-09	-9.125483e+00	-2.688571e+02
5.800000e-07	-1.265602e-06	-4.054475e-09	-8.791595e+00	-2.652295e+02
5.900000e-07	-1.217161e-06	-3.994859e-09	-8.455092e+00	-2.615187e+02
6.000000e-07	-1.168367e-06	-3.923126e-09	-8.116147e+00	-2.577283e+02
6.100000e-07	-1.119082e-06	-3.872467e-09	-7.773781e+00	-2.538618e+02
6.200000e-07	-1.069225e-06	-3.817340e-09	-7.427447e+00	-2.499224e+02
6.300000e-07	-1.018757e-06	-3.751307e-09	-7.076869e+00	-2.459126e+02
6.400000e-07	-9.676579e-07	-3.676796e-09	-6.721904e+00	-2.418334e+02
6.500000e-07	-9.160223e-07	-3.613338e-09	-6.363214e+00	-2.376842e+02
6.600000e-07	-8.639650e-07	-3.557774e-09	-6.001594e+00	-2.334628e+02
6.700000e-07	-8.116588e-07	-3.498695e-09	-5.638245e+00	-2.291656e+02
6.800000e-07	-7.591403e-07	-3.425588e-09	-5.273422e+00	-2.247877e+02
6.900000e-07	-7.063375e-07	-3.346630e-09	-4.906624e+00	-2.203236e+02
7.000000e-07	-6.532384e-07	-3.278881e-09	-4.537767e+00	-2.157677e+02
7.100000e-07	-5.999039e-07	-3.209940e-09	-4.167275e+00	-2.111146e+02
7.200000e-07	-5.463637e-07	-3.134531e-09	-3.795354e+00	-2.063597e+02
7.300000e-07	-4.926337e-07	-3.055228e-09	-3.422115e+00	-2.014996e+02
7.400000e-07	-4.386881e-07	-2.985538e-09	-3.047378e+00	-1.965315e+02
7.500000e-07	-3.845958e-07	-2.916664e-09	-2.671622e+00	-1.914538e+02
7.600000e-07	-3.304282e-07	-2.837967e-09	-2.295343e+00	-1.862654e+02
7.700000e-07	-2.761402e-07	-2.745892e-09	-1.918228e+00	-1.809649e+02
7.800000e-07	-2.217701e-07	-2.654268e-09	-1.540542e+00	-1.755509e+02
7.900000e-07	-1.673677e-07	-2.574461e-09	-1.162632e+00	-1.700205e+02
8.000000e-07	-1.129046e-07	-2.491459e-09	-7.842997e-01	-1.643696e+02
8.100000e-07	-5.836730e-08	-2.400242e-09	-4.054525e-01	-1.585921e+02
8.200000e-07	-3.847696e-09	-2.307108e-09	-2.672829e-02	-1.526805e+02
8.300000e-07	5.063176e-08	-2.219196e-09	3.517171e-01	-1.466255e+02
8.400000e-07	1.051126e-07	-2.125594e-09	7.301719e-01	-1.404165e+02
8.500000e-07	1.595909e-07	-2.023337e-09	1.108610e+00	-1.340424e+02
8.600000e-07	2.140548e-07	-1.916793e-09	1.486947e+00	-1.274919e+02
8.700000e-07	2.684545e-07	-1.812537e-09	1.864838e+00	-1.207539e+02
8.800000e-07	3.227448e-07	-1.710208e-09	2.241969e+00	-1.138184e+02
8.900000e-07	3.769052e-07	-1.599816e-09	2.618199e+00	-1.066760e+02
9.000000e-07	4.309403e-07	-1.481249e-09	2.993557e+00	-9.931806e+01
9.100000e-07	4.848078e-07	-1.361259e-09	3.367752e+00	-9.173637e+01
9.200000e-07	5.384954e-07	-1.246733e-09	3.740696e+00	-8.392217e+01
9.300000e-07	5.919866e-07	-1.127293e-09	4.112276e+00	-7.586542e+01
9.400000e-07	6.452128e-07	-9.989684e-10	4.482016e+00	-6.755381e+01
9.500000e-07	6.981467e-07	-8.646233e-10	4.849726e+00	-5.897197e+01
9.600000e-07	7.508108e-07	-7.294713e-10	5.215561e+00	-5.010089e+01
9.700000e-07	8.032811e-07	-5.896934e-10	5.580049e+00	-4.091781e+01
9.800000e-07	8.555224e-07	-4.390876e-10	5.942947e+00	-3.139673e+01
9.900000e-07	9.073964e-07	-2.814373e-10	6.303294e+00	-2.150950e+01
1.000000e-06	9.587888e-07	-1.193828e-10	6.660294e+00	-1.122763e+01
1.010000e-06	1.009608e-06	4.228890e-11	7.013313e+00	-5.246229e-01
1.020000e-06	1.059752e-06	2.080038e-10	7.361641e+00	1.062111e+01
1.030000e-06	1.109273e-06	3.816298e-10	7.705645e+00	2.222322e+01
1.040000e-06	1.158325e-06	5.662697e-10	8.046383e+00	3.428430e+01
1.050000e-06	1.207065e-06	7.591565e-10	8.384960e+00	4.679313e+01
1.060000e-06	1.255545e-06	9.579728e-10	8.721732e+00	5.972250e+01
1.070000e-06	1.303677e-06	1.163587e-09	9.056086e+00	7.302784e+01
1.080000e-06	1.351354e-06	1.374192e-09	9.387279e+00	8.664701e+01
1.090000e-06	1.398516e-06	1.588656e-09	9.714893e+00	1.005011e+02
1.100000e-06	1.445149e-06	1.800020e-09	1.003883e+01	1.144967e+02
1.110000e-06	1.491266e-06	2.009874e-09	1.035918e+01	1.285290e+02
1.120000e-06	1.536832e-06	2.219071e-09	1.067571e+01	1.424856e+02
1.130000e-06	1.581871e-06	2.427672e-09	1.098858e+01	1.562520e+02
1.140000e-06	1.626552e-06	2.631189e-09	1.129896e+01	1.697158e+02
1.150000e-06	1.670882e-06	2.827822e-09	1.160690e+01	1.827726e+02
1.160000e-06	1.714628e-06	3.017795e-09	1.191078e+01	1.953297e+02
1.170000e-06	1.757544e-06	3.201641e-09	1.220890e+01	2.073104e+02
1.180000e-06	1.799565e-06	3.376616e-09	1.250081e+01	2.186566e+02
1.190000e-06	1.840787e-06	3.539051e-09	1.278715e+01	2.293302e+02
1.200000e-06	1.881415e-06	3.691218e-09	1.306939e+01	2.393134e+02
1.210000e-06	1.921522e-06	3.831799e-09	1.334799e+01	2.486075e+02
1.220000e-06	1.961016e-06	3.960335e-09	1.362234e+01	2.572308e+02
1.230000e-06	1.999897e-06	4.075148e-09	1.389243e+01	2.652156e+02
1.240000e-06	2.038065e-06	4.182020e-09	1.415756e+01	2.726044e+02
1.250000e-06	2.075451e-06	4.285589e-09	1.441727e+01	2.794461e+02
1.260000e-06	2.112237e-06	4.385956e-09	1.467280e+01	2.857922e+02
1.270000e-06	2.148508e-06	4.476739e-09	1.492477e+01	2.916933e+02
1.280000e-06	2.184053e-06	4.557396e-09	1.517168e+01	2.971965e+02
1.290000e-06	2.218581e-06	4.632619e-09	1.541153e+01	3.023431e+02
1.300000e-06	2.252081e-06	4.703847e-09	1.564424e+01	3.071678e+02
1.310000e-06	2.284785e-06	4.770468e-09	1.587142e+01	3.116984e+02
1.320000e-06	2.316827e-06	4.830669e-09	1.609400e+01	3.159558e+02
1.330000e-06	2.348126e-06	4.887999e-09	1.631143e+01	3.199558e+02
1.340000e-06	2.378663e-06	4.944693e-09	1.652355e+01	3.237100e+02
1.350000e-06	2.408335e-06	4.996668e-09	1.672967e+01	3.272275e+02
1.360000e-06	2.437226e-06	5.041609e-09	1.693036e+01	3.305165e+02
1.370000e-06	2.465488e-06	5.085276e-09	1.712669e+01	3.335855e+02
1.380000e-06	2.492844e-06	5.131005e-09	1.731672e+01	3.364443e+02
1.390000e-06	2.519001e-06	5.174152e-09	1.749842e+01	3.391043e+02
1.400000e-06	2.544021e-06	5.208413e-09	1.767222e+01	3.415787e+02
1.410000e-06	2.568155e-06	5.235204e-09	1.783987e+01	3.438819e+02
1.420000e-06	2.591468e-06	5.263408e-09	1.800182e+01	3.460287e+02
1.430000e-06	2.613895e-06	5.294819e-09	1.815761e+01	3.480341e+02
1.440000e-06	2.635439e-06	5.321829e-09	1.830727e+01	3.499116e+02
1.450000e-06	2.656218e-06	5.343158e-09	1.845160e+01	3.516729e+02
1.460000e-06	2.676287e-06	5.366585e-09	1.859102e+01	3.533274e+02
1.470000e-06	2.695391e-06	5.393922e-09	1.872372e+01	3.548817e+02
1.480000e-06	2.713473e-06	5.417778e-09	1.884933e+01	3.563398e+02
1.490000e-06	2.730726e-06	5.435952e-09	1.896918e+01	3.577037e+02
1.500000e-06	2.746919e-06	5.452962e-09	1.908167e+01	3.589733e+02
1.510000e-06	2.761904e-06	5.470454e-09	1.918576e+01	3.601480e+02
1.520000e-06	2.775876e-06	5.485539e-09	1.928282e+01	3.612268e+02
1.530000e-06	2.788850e-06	5.497047e-09	1.937294e+01	3.622092e+02
1.540000e-06	2.800722e-06	5.507714e-09	1.945541e+01	3.630959e+02
1.550000e-06	2.811299e-06	5.520450e-09	1.952889e+01	3.638887e+02
1.560000e-06	2.820620e-06	5.534808e-09	1.959364e+01	3.645908e+02
1.570000e-06	2.829021e-06	5.546803e-09	1.965200e+01	3.652066e+02
1.580000e-06	2.836528e-06	5.554019e-09	1.970415e+01	3.657413e+02
1.590000e-06	2.843048e-06	5.559855e-09	1.974944e+01	3.662001e+02
1.600000e-06	2.848626e-06	5.566480e-09	1.978818e+01	3.665879e+02
1.610000e-06	2.853365e-06	5.571484e-09	1.982110e+01	3.669088e+02
1.620000e-06	2.857172e-06	5.574965e-09	1.984755e+01	3.671655e+02
1.630000e-06	2.859782e-06	5.578388e-09	1.986568e+01	3.673592e+02
1.640000e-06	2.861199e-06	5.581846e-09	1.987552e+01	3.674899e+02
1.650000e-06	2.861628e-06	5.583649e-09	1.987850e+01	3.675565e+02
1.660000e-06	2.861168e-06	5.581913e-09	1.987531e+01	3.675571e+02
1.670000e-06	2.859838e-06	5.577322e-09	1.986606e+01	3.674899e+02
1.680000e-06	2.857628e-06	5.576281e-09	1.985072e+01	3.673537e+02
1.690000e-06	2.854618e-06	5.576826e-09	1.982981e+01	3.671483e+02
1.700000e-06	2.850808e-06	5.573101e-09	1.980334e+01	3.668753e+02
1.710000e-06	2.845948e-06	5.570143e-09	1.976958e+01	3.665378e+02
1.720000e-06	2.839906e-06	5.579577e-09	1.972761e+01	3.661408e+02
1.730000e-06	2.832895e-06	5.586992e-09	1.967890e+01	3.656906e+02
1.740000e-06	2.825003e-06	5.495978e-09	1.962408e+01	3.651941e+02
1.750000e-06	2.815755e-06	5.424755e-09	1.955984e+01	3.646585e+02
1.760000e-06	2.804908e-06	5.523435e-09	1.948449e+01	3.640900e+02
1.770000e-06	2.793216e-06	5.635643e-09	1.940327e+01	3.634934e+02
1.780000e-06	2.781402e-06	5.519561e-09	1.932121e+01	3.628714e+02
1.790000e-06	2.768779e-06	5.353811e-09	1.923352e+01	3.622236e+02
1.800000e-06	2.754426e-06	5.550509e-09	1.913382e+01	3.615473e+02
1.810000e-06	2.738921e-06	5.585570e-09	1.902611e+01	3.608366e+02
1.820000e-06	2.722911e-06	5.341789e-09	1.891490e+01	3.600838e+02
1.830000e-06	2.705745e-06	5.431641e-09	1.879565e+01	3.592793e+02
1.840000e-06	2.687252e-06	5.613631e-09	1.866719e+01	3.584130e+02
1.850000e-06	2.668132e-06	5.392476e-09	1.853437e+01	3.574750e+02
1.860000e-06	2.648344e-06	5.319962e-09	1.839691e+01	3.564569e+02
1.870000e-06	2.627292e-06	5.575118e-09	1.825067e+01	3.553520e+02
1.880000e-06	2.605079e-06	5.383124e-09	1.809637e+01	3.541564e+02
1.890000e-06	2.581918e-06	5.191340e-09	1.793548e+01	3.528691e+02
1.900000e-06	2.557738e-06	5.453133e-09	1.776751e+01	3.514919e+02
1.910000e-06	2.532855e-06	5.399520e-09	1.759466e+01	3.500291e+02
1.920000e-06	2.507212e-06	5.215913e-09	1.741653e+01	3.484869e+02
1.930000e-06	2.480602e-06	5.332178e-09	1.723168e+01	3.468726e+02
1.940000e-06	2.453349e-06	5.266318e-09	1.704236e+01	3.451939e+02
1.950000e-06	2.425321e-06	5.194188e-09	1.684766e+01	3.434578e+02
1.960000e-06	2.396055e-06	5.237734e-09	1.664437e+01	3.416697e+02
1.970000e-06	2.365729e-06	5.114123e-09	1.643370e+01	3.398336e+02
1.980000e-06	2.334644e-06	5.117146e-09	1.621777e+01	3.379510e+02
1.990000e-06	2.302837e-06	5.194765e-09	1.599682e+01	3.360213e+02
2.000000e-06	2.270290e-06	5.045888e-09	1.577073e+01	3.340424e+02
2.010000e-06	2.236891e-06	5.040566e-09	1.553872e+01	3.320104e+02
2.020000e-06	2.202734e-06	5.063646e-09	1.530145e+01	3.299210e+02
2.030000e-06	2.167998e-06	4.923280e-09	1.506015e+01	3.277695e+02
2.040000e-06	2.132621e-06	4.962438e-09	1.481440e+01	3.255523e+02
2.050000e-06	2.096589e-06	4.954441e-09	1.456410e+01	3.232663e+02
2.060000e-06	2.059722e-06	4.825307e-09	1.430800e+01	3.209104e+02
2.070000e-06	2.021655e-06	4.847710e-09	1.404357e+01	3.184846e+02
2.080000e-06	1.982648e-06	4.831172e-09	1.377260e+01	3.159904e+02
2.090000e-06	1.943151e-06	4.751372e-09	1.349823e+01	3.134302e+02
2.100000e-06	1.903065e-06	4.729507e-09	1.321977e+01	3.108071e+02
2.110000e-06	1.862287e-06	4.673215e-09	1.293651e+01	3.081241e+02
2.120000e-06	1.820949e-06	4.642708e-09	1.264935e+01	3.053833e+02
2.130000e-06	1.779068e-06	4.611597e-09	1.235842e+01	3.025860e+02
2.140000e-06	1.736530e-06	4.542494e-09	1.206293e+01	2.997318e+02
2.150000e-06	1.693462e-06	4.511386e-09	1.176376e+01	2.968191e+02
2.160000e-06	1.649986e-06	4.466129e-09	1.146174e+01	2.938446e+02
2.170000e-06	1.605937e-06	4.428425e-09	1.115575e+01	2.908039e+02
2.180000e-06	1.561329e-06	4.375366e-09	1.084588e+01	2.876920e+02
2.190000e-06	1.516169e-06	4.309010e-09	1.053218e+01	2.845040e+02
2.200000e-06	1.470407e-06	4.273115e-09	1.021428e+01	2.812351e+02
2.210000e-06	1.424238e-06	4.224471e-09	9.893570e+00	2.778819e+02
2.220000e-06	1.377665e-06	4.177445e-09	9.570050e+00	2.744423e+02
2.230000e-06	1.330631e-06	4.124239e-09	9.243319e+00	2.709156e+02
2.240000e-06	1.283019e-06	4.054564e-09	8.912583e+00	2.673030e+02
2.250000e-06	1.234689e-06	4.011784e-09	8.576854e+00	2.636068e+02
2.260000e-06	1.185838e-06	3.957850e-09	8.237507e+00	2.598302e+02
2.270000e-06	1.136630e-06	3.884077e-09	7.895680e+00	2.559769e+02
2.280000e-06	1.087066e-06	3.835321e-09	7.551382e+00	2.520502e+02
2.290000e-06	1.037063e-06	3.781126e-09	7.204030e+00	2.480527e+02
2.300000e-06	9.865744e-07	3.727884e-09	6.853309e+00	2.439857e+02
2.310000e-06	9.357391e-07	3.664755e-09	6.500178e+00	2.398490e+02
2.320000e-06	8.846715e-07	3.587105e-09	6.145433e+00	2.356406e+02
2.330000e-06	8.333462e-07	3.522236e-09	5.788899e+00	2.313571e+02
2.340000e-06	7.816931e-07	3.452358e-09	5.430086e+00	2.269939e+02
2.350000e-06	7.296043e-07	3.386166e-09	5.068248e+00	2.225455e+02
2.360000e-06	6.771072e-07	3.317931e-09	4.703573e+00	2.180063e+02
2.370000e-06	6.242548e-07	3.249375e-09	4.336430e+00	2.133708e+02
2.380000e-06	5.709861e-07	3.186644e-09	3.966395e+00	2.086343e+02
2.390000e-06	5.173597e-07	3.114006e-09	3.593876e+00	2.037930e+02
2.400000e-06	4.633598e-07	3.036836e-09	3.218762e+00	1.988442e+02
2.410000e-06	4.090564e-07	2.958145e-09	2.841539e+00	1.937861e+02
2.420000e-06	3.546306e-07	2.878521e-09	2.463466e+00	1.886173e+02
2.430000e-06	3.000353e-07	2.802152e-09	2.084217e+00	1.833369e+02
2.440000e-06	2.452817e-07	2.718242e-09	1.703866e+00	1.779432e+02
2.450000e-06	1.904760e-07	2.629067e-09	1.323155e+00	1.724337e+02
2.460000e-06	1.356213e-07	2.546459e-09	9.421032e-01	1.668045e+02
2.470000e-06	8.069940e-08	2.465553e-09	5.605841e-01	1.610501e+02
2.480000e-06	2.577530e-08	2.382519e-09	1.790500e-01	1.551630e+02
2.490000e-06	-2.916528e-08	2.289186e-09	-2.025987e-01	1.491342e+02
2.500000e-06	-8.411611e-08	2.192070e-09	-5.843185e-01	1.429534e+02
2.510000e-06	-1.389975e-07	2.098205e-09	-9.655560e-01	1.366094e+02
2.520000e-06	-1.938260e-07	1.999209e-09	-1.346426e+00	1.300911e+02
2.530000e-06	-2.486239e-07	1.894888e-09	-1.727083e+00	1.233873e+02
2.540000e-06	-3.033094e-07	1.786788e-09	-2.106960e+00	1.164876e+02
2.550000e-06	-3.578351e-07	1.680734e-09	-2.485727e+00	1.093826e+02
2.560000e-06	-4.121562e-07	1.573960e-09	-2.863072e+00	1.020637e+02
2.570000e-06	-4.662240e-07	1.461962e-09	-3.238658e+00	9.452244e+01
2.580000e-06	-5.200588e-07	1.347537e-09	-3.612625e+00	8.675032e+01
2.590000e-06	-5.735582e-07	1.229967e-09	-3.984263e+00	7.873758e+01
2.600000e-06	-6.266501e-07	1.105443e-09	-4.353069e+00	7.047239e+01
2.610000e-06	-6.793577e-07	9.731777e-10	-4.719206e+00	6.193997e+01
2.620000e-06	-7.316684e-07	8.376391e-10	-5.082586e+00	5.312197e+01
2.630000e-06	-7.835853e-07	6.982215e-10	-5.443230e+00	4.399630e+01
2.640000e-06	-8.352008e-07	5.536428e-10	-5.801782e+00	3.453747e+01
2.650000e-06	-8.865663e-07	4.023885e-10	-6.158596e+00	2.471761e+01
2.660000e-06	-9.376408e-07	2.478045e-10	-6.513388e+00	1.450812e+01
2.670000e-06	-9.883908e-07	9.061180e-11	-6.865927e+00	3.881953e+00
2.680000e-06	-1.038749e-06	-7.347712e-11	-7.215745e+00	-7.183578e+00
2.690000e-06	-1.088698e-06	-2.488049e-10	-7.562720e+00	-1.870377e+01
2.700000e-06	-1.138257e-06	-4.329558e-10	-7.906983e+00	-3.068341e+01
2.710000e-06	-1.187406e-06	-6.203957e-10	-8.248397e+00	-4.311392e+01
2.720000e-06	-1.236013e-06	-8.143064e-10	-8.586054e+00	-5.597108e+01
2.730000e-06	-1.283939e-06	-1.016825e-09	-8.918974e+00	-6.921346e+01
2.740000e-06	-1.331128e-06	-1.225107e-09	-9.246775e+00	-8.278204e+01
2.750000e-06	-1.377595e-06	-1.436421e-09	-9.569561e+00	-9.660081e+01
2.760000e-06	-1.423520e-06	-1.649394e-09	-9.888581e+00	-1.105787e+02
2.770000e-06	-1.469129e-06	-1.864241e-09	-1.020541e+01	-1.246126e+02
2.780000e-06	-1.514418e-06	-2.082590e-09	-1.052001e+01	-1.385912e+02
2.790000e-06	-1.559243e-06	-2.298493e-09	-1.083139e+01	-1.524001e+02
2.800000e-06	-1.603532e-06	-2.504941e-09	-1.113905e+01	-1.659260e+02
2.810000e-06	-1.647279e-06	-2.703925e-09	-1.144294e+01	-1.790628e+02
2.820000e-06	-1.690630e-06	-2.898286e-09	-1.174408e+01	-1.917154e+02
2.830000e-06	-1.733610e-06	-3.084295e-09	-1.204264e+01	-2.038040e+02
2.840000e-06	-1.776022e-06	-3.257027e-09	-1.233726e+01	-2.152670e+02
2.850000e-06	-1.817803e-06	-3.418615e-09	-1.262750e+01	-2.260628e+02
2.860000e-06	-1.858990e-06	-3.573467e-09	-1.291360e+01	-2.361698e+02
2.870000e-06	-1.899521e-06	-3.723442e-09	-1.319516e+01	-2.455861e+02
2.880000e-06	-1.939422e-06	-3.862948e-09	-1.347233e+01	-2.543273e+02
2.890000e-06	-1.978823e-06	-3.987848e-09	-1.374603e+01	-2.624234e+02
2.900000e-06	-2.017718e-06	-4.102170e-09	-1.401622e+01	-2.699153e+02
2.910000e-06	-2.055831e-06	-4.207987e-09	-1.428097e+01	-2.768511e+02
2.920000e-06	-2.092853e-06	-4.304691e-09	-1.453815e+01	-2.832820e+02
2.930000e-06	-2.128850e-06	-4.393455e-09	-1.478821e+01	-2.892591e+02
2.940000e-06	-2.164154e-06	-4.480166e-09	-1.503345e+01	-2.948303e+02
