# Temperatura_=_23.61
# Concentracion g/m^3_=_15500.0
# C_Vs_to_Am_M_A/Vsm_=_65563218390.804596
# pendiente_HvsI_1/m_=_3716.3
# ordenada_HvsI_A/m_=_1297.0
# frecuencia_Hz_=_300839.30309844867

Tiempo_(s)	Campo_(V.s)	Magnetizacion_(V.s)	Campo_(kA/m)	Magnetizacion_(A/m)
0.000000e+00	-2.849836e-06	-5.649667e-09	-1.980712e+01	-3.684455e+02
1.000000e-08	-2.849373e-06	-5.651397e-09	-1.980390e+01	-3.683923e+02
2.000000e-08	-2.848196e-06	-5.652165e-09	-1.979572e+01	-3.682664e+02
3.000000e-08	-2.845959e-06	-5.645234e-09	-1.978018e+01	-3.680682e+02
4.000000e-08	-2.842433e-06	-5.638433e-09	-1.975567e+01	-3.677993e+02
5.000000e-08	-2.837932e-06	-5.635280e-09	-1.972438e+01	-3.674631e+02
6.000000e-08	-2.832663e-06	-5.625279e-09	-1.968776e+01	-3.670644e+02
7.000000e-08	-2.826521e-06	-5.590925e-09	-1.964508e+01	-3.666096e+02
8.000000e-08	-2.819409e-06	-5.576347e-09	-1.959565e+01	-3.661054e+02
9.000000e-08	-2.811242e-06	-5.672201e-09	-1.953888e+01	-3.655591e+02
1.000000e-07	-2.801789e-06	-5.763198e-09	-1.947318e+01	-3.649767e+02
1.100000e-07	-2.790902e-06	-5.593970e-09	-1.939752e+01	-3.643633e+02
1.200000e-07	-2.779027e-06	-5.354832e-09	-1.931498e+01	-3.637216e+02
1.300000e-07	-2.766464e-06	-5.525039e-09	-1.922766e+01	-3.630518e+02
1.400000e-07	-2.752867e-06	-5.781766e-09	-1.913316e+01	-3.623514e+02
1.500000e-07	-2.738301e-06	-5.475931e-09	-1.903192e+01	-3.616156e+02
1.600000e-07	-2.722879e-06	-5.331441e-09	-1.892473e+01	-3.608370e+02
1.700000e-07	-2.706015e-06	-5.690225e-09	-1.880752e+01	-3.600071e+02
1.800000e-07	-2.687788e-06	-5.601545e-09	-1.868084e+01	-3.591167e+02
1.900000e-07	-2.668945e-06	-5.289987e-09	-1.854988e+01	-3.581570e+02
2.000000e-07	-2.649407e-06	-5.501509e-09	-1.841408e+01	-3.571202e+02
2.100000e-07	-2.628882e-06	-5.546664e-09	-1.827143e+01	-3.560010e+02
2.200000e-07	-2.607591e-06	-5.220776e-09	-1.812345e+01	-3.547962e+02
2.300000e-07	-2.585514e-06	-5.385198e-09	-1.797001e+01	-3.535057e+02
2.400000e-07	-2.562341e-06	-5.579010e-09	-1.780895e+01	-3.521322e+02
2.500000e-07	-2.538216e-06	-5.307882e-09	-1.764128e+01	-3.506809e+02
2.600000e-07	-2.513406e-06	-5.250717e-09	-1.746884e+01	-3.491586e+02
2.700000e-07	-2.487819e-06	-5.383845e-09	-1.729101e+01	-3.475733e+02
2.800000e-07	-2.461223e-06	-5.277976e-09	-1.710616e+01	-3.459328e+02
2.900000e-07	-2.433506e-06	-5.231354e-09	-1.691352e+01	-3.442443e+02
3.000000e-07	-2.404761e-06	-5.223782e-09	-1.671373e+01	-3.425132e+02
3.100000e-07	-2.375172e-06	-5.197487e-09	-1.650808e+01	-3.407427e+02
3.200000e-07	-2.344917e-06	-5.246926e-09	-1.629780e+01	-3.389337e+02
3.300000e-07	-2.313935e-06	-5.157082e-09	-1.608246e+01	-3.370844e+02
3.400000e-07	-2.282092e-06	-5.064727e-09	-1.586115e+01	-3.351908e+02
3.500000e-07	-2.249558e-06	-5.115157e-09	-1.563503e+01	-3.332476e+02
3.600000e-07	-2.216502e-06	-5.050556e-09	-1.540528e+01	-3.312482e+02
3.700000e-07	-2.182638e-06	-4.994871e-09	-1.516992e+01	-3.291862e+02
3.800000e-07	-2.147550e-06	-5.056447e-09	-1.492605e+01	-3.270554e+02
3.900000e-07	-2.111406e-06	-4.938363e-09	-1.467483e+01	-3.248514e+02
4.000000e-07	-2.074702e-06	-4.866829e-09	-1.441973e+01	-3.225712e+02
4.100000e-07	-2.037375e-06	-4.944510e-09	-1.416030e+01	-3.202138e+02
4.200000e-07	-1.999275e-06	-4.880282e-09	-1.389549e+01	-3.177803e+02
4.300000e-07	-1.960475e-06	-4.769070e-09	-1.362582e+01	-3.152731e+02
4.400000e-07	-1.920891e-06	-4.776284e-09	-1.335071e+01	-3.126959e+02
4.500000e-07	-1.880664e-06	-4.758551e-09	-1.307112e+01	-3.100528e+02
4.600000e-07	-1.840087e-06	-4.697780e-09	-1.278910e+01	-3.073476e+02
4.700000e-07	-1.799160e-06	-4.653837e-09	-1.250464e+01	-3.045836e+02
4.800000e-07	-1.757544e-06	-4.598155e-09	-1.221540e+01	-3.017626e+02
4.900000e-07	-1.714888e-06	-4.561958e-09	-1.191893e+01	-2.988849e+02
5.000000e-07	-1.671240e-06	-4.533415e-09	-1.161556e+01	-2.959492e+02
5.100000e-07	-1.626935e-06	-4.480712e-09	-1.130763e+01	-2.929528e+02
5.200000e-07	-1.582212e-06	-4.411366e-09	-1.099679e+01	-2.898917e+02
5.300000e-07	-1.537104e-06	-4.370093e-09	-1.068328e+01	-2.867615e+02
5.400000e-07	-1.491496e-06	-4.337313e-09	-1.036629e+01	-2.835575e+02
5.500000e-07	-1.445289e-06	-4.290294e-09	-1.004514e+01	-2.802757e+02
5.600000e-07	-1.398560e-06	-4.223159e-09	-9.720362e+00	-2.769127e+02
5.700000e-07	-1.351361e-06	-4.152700e-09	-9.392322e+00	-2.734666e+02
5.800000e-07	-1.303651e-06	-4.115784e-09	-9.060721e+00	-2.699366e+02
5.900000e-07	-1.255476e-06	-4.076052e-09	-8.725895e+00	-2.663233e+02
6.000000e-07	-1.206939e-06	-4.004238e-09	-8.388547e+00	-2.626280e+02
6.100000e-07	-1.158064e-06	-3.936464e-09	-8.048854e+00	-2.588527e+02
6.200000e-07	-1.108765e-06	-3.893946e-09	-7.706215e+00	-2.549996e+02
6.300000e-07	-1.058890e-06	-3.840575e-09	-7.359571e+00	-2.510701e+02
6.400000e-07	-1.008411e-06	-3.766346e-09	-7.008729e+00	-2.470650e+02
6.500000e-07	-9.574161e-07	-3.688244e-09	-6.654297e+00	-2.429838e+02
6.600000e-07	-9.059252e-07	-3.624740e-09	-6.296422e+00	-2.388249e+02
6.700000e-07	-8.539265e-07	-3.574788e-09	-5.935017e+00	-2.345853e+02
6.800000e-07	-8.015658e-07	-3.511770e-09	-5.571096e+00	-2.302610e+02
6.900000e-07	-7.490069e-07	-3.434252e-09	-5.205798e+00	-2.258475e+02
7.000000e-07	-6.961975e-07	-3.358890e-09	-4.838759e+00	-2.213400e+02
7.100000e-07	-6.431368e-07	-3.296009e-09	-4.469973e+00	-2.167340e+02
7.200000e-07	-5.898857e-07	-3.226182e-09	-4.099863e+00	-2.120258e+02
7.300000e-07	-5.364195e-07	-3.141887e-09	-3.728258e+00	-2.072122e+02
7.400000e-07	-4.827210e-07	-3.059749e-09	-3.355040e+00	-2.022914e+02
7.500000e-07	-4.288080e-07	-2.989921e-09	-2.980330e+00	-1.972621e+02
7.600000e-07	-3.746996e-07	-2.922908e-09	-2.604262e+00	-1.921236e+02
7.700000e-07	-3.204769e-07	-2.839310e-09	-2.227400e+00	-1.868753e+02
7.800000e-07	-2.661580e-07	-2.745351e-09	-1.849869e+00	-1.815163e+02
7.900000e-07	-2.117269e-07	-2.659276e-09	-1.471558e+00	-1.760444e+02
8.000000e-07	-1.572394e-07	-2.583100e-09	-1.092856e+00	-1.704563e+02
8.100000e-07	-1.027138e-07	-2.497783e-09	-7.138886e-01	-1.647469e+02
8.200000e-07	-4.818832e-08	-2.401021e-09	-3.349217e-01	-1.589092e+02
8.300000e-07	6.338561e-09	-2.305209e-09	4.405469e-02	-1.529346e+02
8.400000e-07	6.086445e-08	-2.215156e-09	4.230242e-01	-1.468133e+02
8.500000e-07	1.153737e-07	-2.122686e-09	8.018781e-01	-1.405344e+02
8.600000e-07	1.698716e-07	-2.019705e-09	1.180653e+00	-1.340870e+02
8.700000e-07	2.243132e-07	-1.913894e-09	1.559037e+00	-1.274602e+02
8.800000e-07	2.786991e-07	-1.811598e-09	1.937033e+00	-1.206440e+02
8.900000e-07	3.330059e-07	-1.709619e-09	2.314480e+00	-1.136293e+02
9.000000e-07	3.871786e-07	-1.595923e-09	2.690995e+00	-1.064078e+02
9.100000e-07	4.412313e-07	-1.474147e-09	3.066675e+00	-9.897160e+01
9.200000e-07	4.950858e-07	-1.354752e-09	3.440978e+00	-9.131275e+01
9.300000e-07	5.486780e-07	-1.237956e-09	3.813458e+00	-8.342209e+01
9.400000e-07	6.020388e-07	-1.115341e-09	4.184330e+00	-7.528836e+01
9.500000e-07	6.551692e-07	-9.854113e-10	4.553601e+00	-6.689720e+01
9.600000e-07	7.080674e-07	-8.540602e-10	4.921258e+00	-5.823040e+01
9.700000e-07	7.607550e-07	-7.188666e-10	5.287450e+00	-4.926555e+01
9.800000e-07	8.132507e-07	-5.764369e-10	5.652309e+00	-3.997618e+01
9.900000e-07	8.654320e-07	-4.232606e-10	6.014984e+00	-3.033260e+01
1.000000e-06	9.171406e-07	-2.637194e-10	6.374372e+00	-2.030342e+01
1.010000e-06	9.683362e-07	-1.024616e-10	6.730195e+00	-9.857755e+00
1.020000e-06	1.018970e-06	6.027191e-11	7.082116e+00	1.032045e+00
1.030000e-06	1.068933e-06	2.296719e-10	7.429373e+00	1.238725e+01
1.040000e-06	1.118240e-06	4.097986e-10	7.772067e+00	2.421949e+01
1.050000e-06	1.167117e-06	5.984221e-10	8.111776e+00	3.652761e+01
1.060000e-06	1.215773e-06	7.928965e-10	8.449946e+00	4.929505e+01
1.070000e-06	1.264244e-06	9.941201e-10	8.786836e+00	6.248788e+01
1.080000e-06	1.312338e-06	1.203903e-09	9.121098e+00	7.605387e+01
1.090000e-06	1.359897e-06	1.416889e-09	9.451644e+00	8.992274e+01
1.100000e-06	1.406932e-06	1.628497e-09	9.778550e+00	1.040075e+02
1.110000e-06	1.453469e-06	1.840487e-09	1.010200e+01	1.182073e+02
1.120000e-06	1.499483e-06	2.057970e-09	1.042181e+01	1.324109e+02
1.130000e-06	1.544931e-06	2.275461e-09	1.073768e+01	1.465013e+02
1.140000e-06	1.589911e-06	2.485023e-09	1.105030e+01	1.603610e+02
1.150000e-06	1.634598e-06	2.686962e-09	1.136089e+01	1.738769e+02
1.160000e-06	1.678936e-06	2.883154e-09	1.166905e+01	1.869454e+02
1.170000e-06	1.722667e-06	3.073676e-09	1.197299e+01	1.994770e+02
1.180000e-06	1.765508e-06	3.254806e-09	1.227075e+01	2.113995e+02
1.190000e-06	1.807302e-06	3.425048e-09	1.256123e+01	2.226605e+02
1.200000e-06	1.848308e-06	3.584639e-09	1.284623e+01	2.332283e+02
1.210000e-06	1.888856e-06	3.735815e-09	1.312805e+01	2.430918e+02
1.220000e-06	1.928924e-06	3.876237e-09	1.340653e+01	2.522586e+02
1.230000e-06	1.968280e-06	4.003598e-09	1.368007e+01	2.607529e+02
1.240000e-06	2.006948e-06	4.119445e-09	1.394882e+01	2.686118e+02
1.250000e-06	2.044894e-06	4.225283e-09	1.421256e+01	2.758816e+02
1.260000e-06	2.082090e-06	4.325378e-09	1.447108e+01	2.826137e+02
1.270000e-06	2.118815e-06	4.420556e-09	1.472633e+01	2.888611e+02
1.280000e-06	2.155100e-06	4.509107e-09	1.497852e+01	2.946748e+02
1.290000e-06	2.190502e-06	4.590834e-09	1.522457e+01	3.001017e+02
1.300000e-06	2.224666e-06	4.667406e-09	1.546202e+01	3.051821e+02
1.310000e-06	2.257832e-06	4.737648e-09	1.569253e+01	3.099497e+02
1.320000e-06	2.290351e-06	4.803134e-09	1.591855e+01	3.144308e+02
1.330000e-06	2.322183e-06	4.865915e-09	1.613979e+01	3.186453e+02
1.340000e-06	2.353256e-06	4.924644e-09	1.635576e+01	3.226081e+02
1.350000e-06	2.383567e-06	4.978851e-09	1.656643e+01	3.263300e+02
1.360000e-06	2.413014e-06	5.028605e-09	1.677109e+01	3.298197e+02
1.370000e-06	2.441793e-06	5.074816e-09	1.697111e+01	3.330851e+02
1.380000e-06	2.469988e-06	5.118540e-09	1.716708e+01	3.361345e+02
1.390000e-06	2.497093e-06	5.160701e-09	1.735546e+01	3.389776e+02
1.400000e-06	2.522846e-06	5.199237e-09	1.753446e+01	3.416253e+02
1.410000e-06	2.547618e-06	5.232730e-09	1.770662e+01	3.440904e+02
1.420000e-06	2.571592e-06	5.263744e-09	1.787325e+01	3.463866e+02
1.430000e-06	2.594708e-06	5.294560e-09	1.803391e+01	3.485279e+02
1.440000e-06	2.616974e-06	5.323911e-09	1.818866e+01	3.505281e+02
1.450000e-06	2.638373e-06	5.350678e-09	1.833739e+01	3.523999e+02
1.460000e-06	2.659052e-06	5.376085e-09	1.848112e+01	3.541541e+02
1.470000e-06	2.678962e-06	5.401336e-09	1.861950e+01	3.557992e+02
1.480000e-06	2.697725e-06	5.425889e-09	1.874991e+01	3.573416e+02
1.490000e-06	2.715536e-06	5.447570e-09	1.887370e+01	3.587851e+02
1.500000e-06	2.732542e-06	5.466463e-09	1.899189e+01	3.601318e+02
1.510000e-06	2.748404e-06	5.483684e-09	1.910214e+01	3.613826e+02
1.520000e-06	2.763119e-06	5.500872e-09	1.920441e+01	3.625374e+02
1.530000e-06	2.776859e-06	5.517248e-09	1.929991e+01	3.635964e+02
1.540000e-06	2.789659e-06	5.529959e-09	1.938887e+01	3.645600e+02
1.550000e-06	2.801309e-06	5.541201e-09	1.946984e+01	3.654296e+02
1.560000e-06	2.811578e-06	5.552908e-09	1.954122e+01	3.662076e+02
1.570000e-06	2.820708e-06	5.564878e-09	1.960467e+01	3.668974e+02
1.580000e-06	2.828964e-06	5.575652e-09	1.966205e+01	3.675029e+02
1.590000e-06	2.836304e-06	5.584611e-09	1.971307e+01	3.680285e+02
1.600000e-06	2.842655e-06	5.593572e-09	1.975721e+01	3.684785e+02
1.610000e-06	2.848064e-06	5.600608e-09	1.979480e+01	3.688564e+02
1.620000e-06	2.852666e-06	5.603323e-09	1.982679e+01	3.691647e+02
1.630000e-06	2.856299e-06	5.605391e-09	1.985204e+01	3.694050e+02
1.640000e-06	2.858603e-06	5.609297e-09	1.986805e+01	3.695773e+02
1.650000e-06	2.859774e-06	5.613190e-09	1.987619e+01	3.696810e+02
1.660000e-06	2.860106e-06	5.615433e-09	1.987850e+01	3.697147e+02
1.670000e-06	2.859530e-06	5.614689e-09	1.987449e+01	3.696770e+02
1.680000e-06	2.858073e-06	5.611651e-09	1.986437e+01	3.695667e+02
1.690000e-06	2.855729e-06	5.610904e-09	1.984808e+01	3.693839e+02
1.700000e-06	2.852596e-06	5.608274e-09	1.982630e+01	3.691299e+02
1.710000e-06	2.848650e-06	5.601254e-09	1.979888e+01	3.688077e+02
1.720000e-06	2.843534e-06	5.601023e-09	1.976332e+01	3.684219e+02
1.730000e-06	2.837212e-06	5.633818e-09	1.971938e+01	3.679786e+02
1.740000e-06	2.830077e-06	5.617229e-09	1.966979e+01	3.674844e+02
1.750000e-06	2.822031e-06	5.468736e-09	1.961387e+01	3.669465e+02
1.760000e-06	2.812475e-06	5.407214e-09	1.954745e+01	3.663714e+02
1.770000e-06	2.801300e-06	5.654888e-09	1.946978e+01	3.657643e+02
1.780000e-06	2.789454e-06	5.743005e-09	1.938745e+01	3.651285e+02
1.790000e-06	2.777635e-06	5.447468e-09	1.930531e+01	3.644649e+02
1.800000e-06	2.764765e-06	5.352084e-09	1.921585e+01	3.637714e+02
1.810000e-06	2.750064e-06	5.677911e-09	1.911368e+01	3.630436e+02
1.820000e-06	2.734545e-06	5.573112e-09	1.900582e+01	3.622749e+02
1.830000e-06	2.718563e-06	5.218395e-09	1.889474e+01	3.614568e+02
1.840000e-06	2.701222e-06	5.526461e-09	1.877422e+01	3.605801e+02
1.850000e-06	2.682614e-06	5.704920e-09	1.864488e+01	3.596359e+02
1.860000e-06	2.663507e-06	5.292991e-09	1.851209e+01	3.586163e+02
1.870000e-06	2.643534e-06	5.391717e-09	1.837326e+01	3.575150e+02
1.880000e-06	2.622246e-06	5.677991e-09	1.822531e+01	3.563286e+02
1.890000e-06	2.599989e-06	5.275134e-09	1.807062e+01	3.550564e+02
1.900000e-06	2.576734e-06	5.182370e-09	1.790899e+01	3.537003e+02
1.910000e-06	2.552430e-06	5.493819e-09	1.774007e+01	3.522652e+02
1.920000e-06	2.527478e-06	5.359480e-09	1.756665e+01	3.507574e+02
1.930000e-06	2.501727e-06	5.240639e-09	1.738767e+01	3.491849e+02
1.940000e-06	2.475041e-06	5.354031e-09	1.720219e+01	3.475556e+02
1.950000e-06	2.447787e-06	5.246409e-09	1.701277e+01	3.458769e+02
1.960000e-06	2.419579e-06	5.244426e-09	1.681672e+01	3.441545e+02
1.970000e-06	2.390014e-06	5.220274e-09	1.661123e+01	3.423924e+02
1.980000e-06	2.359473e-06	5.065188e-09	1.639897e+01	3.405916e+02
1.990000e-06	2.328202e-06	5.200276e-09	1.618162e+01	3.387512e+02
2.000000e-06	2.296228e-06	5.188132e-09	1.595939e+01	3.368676e+02
2.010000e-06	2.263560e-06	5.007546e-09	1.573235e+01	3.349355e+02
2.020000e-06	2.230045e-06	5.124062e-09	1.549941e+01	3.329487e+02
2.030000e-06	2.195821e-06	5.052271e-09	1.526154e+01	3.309006e+02
2.040000e-06	2.161044e-06	4.899424e-09	1.501983e+01	3.287850e+02
2.050000e-06	2.125524e-06	5.042357e-09	1.477296e+01	3.265970e+02
2.060000e-06	2.089251e-06	4.954303e-09	1.452085e+01	3.243332e+02
2.070000e-06	2.052011e-06	4.814681e-09	1.426203e+01	3.219924e+02
2.080000e-06	2.013656e-06	4.896389e-09	1.399544e+01	3.195750e+02
2.090000e-06	1.974596e-06	4.841987e-09	1.372397e+01	3.170833e+02
2.100000e-06	1.935054e-06	4.769279e-09	1.344914e+01	3.145208e+02
2.110000e-06	1.894908e-06	4.754566e-09	1.317012e+01	3.118914e+02
2.120000e-06	1.854105e-06	4.691074e-09	1.288652e+01	3.091992e+02
2.130000e-06	1.812731e-06	4.676286e-09	1.259896e+01	3.064476e+02
2.140000e-06	1.770794e-06	4.625780e-09	1.230749e+01	3.036387e+02
2.150000e-06	1.728227e-06	4.554014e-09	1.201164e+01	3.007732e+02
2.160000e-06	1.685166e-06	4.533091e-09	1.171235e+01	2.978502e+02
2.170000e-06	1.641699e-06	4.493260e-09	1.141025e+01	2.948670e+02
2.180000e-06	1.597667e-06	4.456405e-09	1.110421e+01	2.918202e+02
2.190000e-06	1.552938e-06	4.403421e-09	1.079333e+01	2.887052e+02
2.200000e-06	1.507555e-06	4.335253e-09	1.047791e+01	2.855174e+02
2.210000e-06	1.461707e-06	4.292584e-09	1.015926e+01	2.822525e+02
2.220000e-06	1.415465e-06	4.248712e-09	9.837859e+00	2.789072e+02
2.230000e-06	1.368699e-06	4.212938e-09	9.512826e+00	2.754790e+02
2.240000e-06	1.321326e-06	4.146851e-09	9.183566e+00	2.719670e+02
2.250000e-06	1.273376e-06	4.081450e-09	8.850305e+00	2.683714e+02
2.260000e-06	1.224894e-06	4.051411e-09	8.513339e+00	2.646935e+02
2.270000e-06	1.176024e-06	3.982188e-09	8.173681e+00	2.609352e+02
2.280000e-06	1.126825e-06	3.909579e-09	7.831731e+00	2.570985e+02
2.290000e-06	1.077215e-06	3.858537e-09	7.486930e+00	2.531853e+02
2.300000e-06	1.027165e-06	3.804880e-09	7.139068e+00	2.491964e+02
2.310000e-06	9.766780e-07	3.755960e-09	6.788173e+00	2.451316e+02
2.320000e-06	9.258639e-07	3.688144e-09	6.435001e+00	2.409896e+02
2.330000e-06	8.747643e-07	3.613658e-09	6.079845e+00	2.367675e+02
2.340000e-06	8.233995e-07	3.550375e-09	5.722846e+00	2.324617e+02
2.350000e-06	7.716610e-07	3.482746e-09	5.363250e+00	2.280677e+02
2.360000e-06	7.194274e-07	3.417983e-09	5.000212e+00	2.235808e+02
2.370000e-06	6.667833e-07	3.346222e-09	4.634322e+00	2.189963e+02
2.380000e-06	6.137564e-07	3.278350e-09	4.265771e+00	2.143102e+02
2.390000e-06	5.603582e-07	3.217035e-09	3.894639e+00	2.095194e+02
2.400000e-06	5.066130e-07	3.140936e-09	3.521095e+00	2.046217e+02
2.410000e-06	4.525949e-07	3.061187e-09	3.145655e+00	1.996157e+02
2.420000e-06	3.984124e-07	2.978636e-09	2.769072e+00	1.945006e+02
2.430000e-06	3.440401e-07	2.900598e-09	2.391170e+00	1.892760e+02
2.440000e-06	2.894713e-07	2.824911e-09	2.011902e+00	1.839408e+02
2.450000e-06	2.347675e-07	2.737219e-09	1.631697e+00	1.784933e+02
2.460000e-06	1.799674e-07	2.651068e-09	1.250822e+00	1.729305e+02
2.470000e-06	1.251263e-07	2.570278e-09	8.696609e-01	1.672476e+02
2.480000e-06	7.032164e-08	2.488322e-09	4.887542e-01	1.614380e+02
2.490000e-06	1.549478e-08	2.399686e-09	1.076928e-01	1.554936e+02
2.500000e-06	-3.936439e-08	2.301449e-09	-2.735930e-01	1.494046e+02
2.510000e-06	-9.419760e-08	2.205648e-09	-6.546985e-01	1.431604e+02
2.520000e-06	-1.490290e-07	2.113771e-09	-1.035791e+00	1.367500e+02
2.530000e-06	-2.038325e-07	2.011994e-09	-1.416690e+00	1.301625e+02
2.540000e-06	-2.585864e-07	1.901743e-09	-1.797244e+00	1.233877e+02
2.550000e-06	-3.132633e-07	1.794124e-09	-2.177264e+00	1.164163e+02
2.560000e-06	-3.678050e-07	1.694026e-09	-2.556343e+00	1.092397e+02
2.570000e-06	-4.221499e-07	1.589756e-09	-2.934054e+00	1.018502e+02
2.580000e-06	-4.763030e-07	1.471811e-09	-3.310433e+00	9.423975e+01
2.590000e-06	-5.302329e-07	1.350549e-09	-3.685260e+00	8.639962e+01
2.600000e-06	-5.837680e-07	1.229877e-09	-4.057344e+00	7.831906e+01
2.610000e-06	-6.368258e-07	1.103920e-09	-4.426109e+00	6.998445e+01
2.620000e-06	-6.894430e-07	9.678034e-10	-4.791812e+00	6.137846e+01
2.630000e-06	-7.416518e-07	8.277375e-10	-5.154678e+00	5.247957e+01
2.640000e-06	-7.934341e-07	6.900349e-10	-5.514579e+00	4.326214e+01
2.650000e-06	-8.448594e-07	5.518389e-10	-5.871998e+00	3.369707e+01
2.660000e-06	-8.960213e-07	4.035398e-10	-6.227587e+00	2.375317e+01
2.670000e-06	-9.469461e-07	2.429676e-10	-6.581528e+00	1.339923e+01
2.680000e-06	-9.976318e-07	7.678638e-11	-6.933807e+00	2.606652e+00
2.690000e-06	-1.047939e-06	-9.433490e-11	-7.283454e+00	-8.647474e+00
2.700000e-06	-1.097771e-06	-2.724054e-10	-7.629804e+00	-2.037711e+01
2.710000e-06	-1.147180e-06	-4.590974e-10	-7.973206e+00	-3.258410e+01
2.720000e-06	-1.196246e-06	-6.519534e-10	-8.314227e+00	-4.525536e+01
2.730000e-06	-1.244891e-06	-8.505642e-10	-8.652327e+00	-5.836081e+01
2.740000e-06	-1.292791e-06	-1.054530e-09	-8.985239e+00	-7.185216e+01
2.750000e-06	-1.339847e-06	-1.265270e-09	-9.312297e+00	-8.566292e+01
2.760000e-06	-1.386247e-06	-1.482404e-09	-9.634786e+00	-9.970952e+01
2.770000e-06	-1.432129e-06	-1.699980e-09	-9.953680e+00	-1.138937e+02
2.780000e-06	-1.477602e-06	-1.916552e-09	-1.026973e+01	-1.281063e+02
2.790000e-06	-1.522746e-06	-2.134005e-09	-1.058349e+01	-1.422309e+02
2.800000e-06	-1.567519e-06	-2.352126e-09	-1.089468e+01	-1.561498e+02
2.810000e-06	-1.611694e-06	-2.563211e-09	-1.120171e+01	-1.697484e+02
2.820000e-06	-1.655252e-06	-2.763287e-09	-1.150445e+01	-1.829209e+02
2.830000e-06	-1.698446e-06	-2.954018e-09	-1.180465e+01	-1.955742e+02
2.840000e-06	-1.741292e-06	-3.135437e-09	-1.210245e+01	-2.076324e+02
2.850000e-06	-1.783534e-06	-3.308749e-09	-1.239604e+01	-2.190385e+02
2.860000e-06	-1.825121e-06	-3.473614e-09	-1.268507e+01	-2.297565e+02
2.870000e-06	-1.866154e-06	-3.628871e-09	-1.297027e+01	-2.397709e+02
2.880000e-06	-1.906574e-06	-3.775821e-09	-1.325120e+01	-2.490855e+02
2.890000e-06	-1.946300e-06	-3.912908e-09	-1.352731e+01	-2.577212e+02
2.900000e-06	-1.985477e-06	-4.037963e-09	-1.379959e+01	-2.657126e+02
2.910000e-06	-2.024194e-06	-4.153817e-09	-1.406869e+01	-2.731044e+02
2.920000e-06	-2.062121e-06	-4.259579e-09	-1.433229e+01	-2.799473e+02
2.930000e-06	-2.098918e-06	-4.353633e-09	-1.458804e+01	-2.862941e+02
2.940000e-06	-2.134692e-06	-4.440850e-09	-1.483668e+01	-2.921967e+02
