# Temperatura_=_23.96
# Concentracion g/m^3_=_15500.0
# C_Vs_to_Am_M_A/Vsm_=_65563218390.804596
# pendiente_HvsI_1/m_=_3716.3
# ordenada_HvsI_A/m_=_1297.0
# frecuencia_Hz_=_300839.3674790757

Tiempo_(s)	Campo_(V.s)	Magnetizacion_(V.s)	Campo_(kA/m)	Magnetizacion_(A/m)
0.000000e+00	-2.852243e-06	-5.660816e-09	-1.980546e+01	-3.689395e+02
1.000000e-08	-2.851928e-06	-5.658908e-09	-1.980327e+01	-3.689104e+02
2.000000e-08	-2.850834e-06	-5.656152e-09	-1.979568e+01	-3.688077e+02
3.000000e-08	-2.848615e-06	-5.653415e-09	-1.978027e+01	-3.686297e+02
4.000000e-08	-2.845143e-06	-5.651828e-09	-1.975616e+01	-3.683767e+02
5.000000e-08	-2.840713e-06	-5.648184e-09	-1.972540e+01	-3.680503e+02
6.000000e-08	-2.835494e-06	-5.639882e-09	-1.968916e+01	-3.676545e+02
7.000000e-08	-2.829413e-06	-5.620487e-09	-1.964693e+01	-3.671949e+02
8.000000e-08	-2.822395e-06	-5.619841e-09	-1.959820e+01	-3.666785e+02
9.000000e-08	-2.814367e-06	-5.668837e-09	-1.954246e+01	-3.661130e+02
1.000000e-07	-2.805036e-06	-5.683332e-09	-1.947766e+01	-3.655059e+02
1.100000e-07	-2.794237e-06	-5.565887e-09	-1.940268e+01	-3.648640e+02
1.200000e-07	-2.782411e-06	-5.486532e-09	-1.932056e+01	-3.641922e+02
1.300000e-07	-2.769816e-06	-5.602140e-09	-1.923310e+01	-3.634931e+02
1.400000e-07	-2.756222e-06	-5.669933e-09	-1.913870e+01	-3.627668e+02
1.500000e-07	-2.741665e-06	-5.463128e-09	-1.903762e+01	-3.620105e+02
1.600000e-07	-2.726178e-06	-5.498445e-09	-1.893009e+01	-3.612189e+02
1.700000e-07	-2.709333e-06	-5.651585e-09	-1.881312e+01	-3.603846e+02
1.800000e-07	-2.691259e-06	-5.484907e-09	-1.868762e+01	-3.594990e+02
1.900000e-07	-2.672522e-06	-5.397231e-09	-1.855751e+01	-3.585532e+02
2.000000e-07	-2.653020e-06	-5.520882e-09	-1.842209e+01	-3.575385e+02
2.100000e-07	-2.632590e-06	-5.456950e-09	-1.828023e+01	-3.564478e+02
2.200000e-07	-2.611366e-06	-5.322934e-09	-1.813285e+01	-3.552760e+02
2.300000e-07	-2.589300e-06	-5.476149e-09	-1.797963e+01	-3.540203e+02
2.400000e-07	-2.566264e-06	-5.479004e-09	-1.781967e+01	-3.526808e+02
2.500000e-07	-2.542351e-06	-5.305921e-09	-1.765362e+01	-3.512600e+02
2.600000e-07	-2.517696e-06	-5.324141e-09	-1.748243e+01	-3.497624e+02
2.700000e-07	-2.492107e-06	-5.348198e-09	-1.730474e+01	-3.481942e+02
2.800000e-07	-2.465429e-06	-5.261400e-09	-1.711949e+01	-3.465621e+02
2.900000e-07	-2.437679e-06	-5.275186e-09	-1.692680e+01	-3.448729e+02
3.000000e-07	-2.408972e-06	-5.235998e-09	-1.672747e+01	-3.431323e+02
3.100000e-07	-2.379516e-06	-5.217206e-09	-1.652293e+01	-3.413449e+02
3.200000e-07	-2.349391e-06	-5.244126e-09	-1.631374e+01	-3.395132e+02
3.300000e-07	-2.318508e-06	-5.143657e-09	-1.609930e+01	-3.376378e+02
3.400000e-07	-2.286778e-06	-5.097356e-09	-1.587897e+01	-3.357174e+02
3.500000e-07	-2.254354e-06	-5.113515e-09	-1.565383e+01	-3.337491e+02
3.600000e-07	-2.221325e-06	-5.051341e-09	-1.542448e+01	-3.317291e+02
3.700000e-07	-2.187454e-06	-5.022458e-09	-1.518929e+01	-3.296530e+02
3.800000e-07	-2.152453e-06	-5.044677e-09	-1.494624e+01	-3.275165e+02
3.900000e-07	-2.116470e-06	-4.943856e-09	-1.469639e+01	-3.253161e+02
4.000000e-07	-2.079847e-06	-4.911707e-09	-1.444208e+01	-3.230494e+02
4.100000e-07	-2.042543e-06	-4.934970e-09	-1.418305e+01	-3.207150e+02
4.200000e-07	-2.004512e-06	-4.861462e-09	-1.391897e+01	-3.183131e+02
4.300000e-07	-1.965798e-06	-4.792467e-09	-1.365015e+01	-3.158450e+02
4.400000e-07	-1.926319e-06	-4.784933e-09	-1.337601e+01	-3.133124e+02
4.500000e-07	-1.886226e-06	-4.757611e-09	-1.309761e+01	-3.107178e+02
4.600000e-07	-1.845732e-06	-4.707501e-09	-1.281643e+01	-3.080632e+02
4.700000e-07	-1.804765e-06	-4.665454e-09	-1.253196e+01	-3.053500e+02
4.800000e-07	-1.763007e-06	-4.606575e-09	-1.224200e+01	-3.025787e+02
4.900000e-07	-1.720222e-06	-4.573499e-09	-1.194491e+01	-2.997486e+02
5.000000e-07	-1.676520e-06	-4.535782e-09	-1.164145e+01	-2.968577e+02
5.100000e-07	-1.632241e-06	-4.483936e-09	-1.133399e+01	-2.939031e+02
5.200000e-07	-1.587570e-06	-4.431927e-09	-1.102380e+01	-2.908809e+02
5.300000e-07	-1.542437e-06	-4.394770e-09	-1.071040e+01	-2.877871e+02
5.400000e-07	-1.496795e-06	-4.346875e-09	-1.039348e+01	-2.846177e+02
5.500000e-07	-1.450614e-06	-4.292471e-09	-1.007280e+01	-2.813692e+02
5.600000e-07	-1.403875e-06	-4.237934e-09	-9.748255e+00	-2.780388e+02
5.700000e-07	-1.356584e-06	-4.173127e-09	-9.419875e+00	-2.746250e+02
5.800000e-07	-1.308775e-06	-4.133413e-09	-9.087898e+00	-2.711274e+02
5.900000e-07	-1.260582e-06	-4.087230e-09	-8.753256e+00	-2.675462e+02
6.000000e-07	-1.212090e-06	-4.025184e-09	-8.416537e+00	-2.638828e+02
6.100000e-07	-1.163281e-06	-3.963038e-09	-8.077610e+00	-2.601384e+02
6.200000e-07	-1.113902e-06	-3.910503e-09	-7.734732e+00	-2.563144e+02
6.300000e-07	-1.063846e-06	-3.848832e-09	-7.387156e+00	-2.524116e+02
6.400000e-07	-1.013265e-06	-3.780312e-09	-7.035932e+00	-2.484299e+02
6.500000e-07	-9.621228e-07	-3.715227e-09	-6.680807e+00	-2.443680e+02
6.600000e-07	-9.104105e-07	-3.653058e-09	-6.321726e+00	-2.402236e+02
6.700000e-07	-8.583148e-07	-3.596840e-09	-5.959983e+00	-2.359935e+02
6.800000e-07	-8.059378e-07	-3.529407e-09	-5.596286e+00	-2.316736e+02
6.900000e-07	-7.533217e-07	-3.455826e-09	-5.230929e+00	-2.272594e+02
7.000000e-07	-7.004651e-07	-3.381642e-09	-4.863903e+00	-2.227467e+02
7.100000e-07	-6.473551e-07	-3.314311e-09	-4.495117e+00	-2.181315e+02
7.200000e-07	-5.940032e-07	-3.243507e-09	-4.124651e+00	-2.134108e+02
7.300000e-07	-5.404243e-07	-3.168452e-09	-3.752609e+00	-2.085825e+02
7.400000e-07	-4.866582e-07	-3.092175e-09	-3.379267e+00	-2.036454e+02
7.500000e-07	-4.326916e-07	-3.016042e-09	-3.004533e+00	-1.985991e+02
7.600000e-07	-3.785586e-07	-2.939899e-09	-2.628642e+00	-1.934436e+02
7.700000e-07	-3.243238e-07	-2.853869e-09	-2.252046e+00	-1.881787e+02
7.800000e-07	-2.700182e-07	-2.764731e-09	-1.874958e+00	-1.828039e+02
7.900000e-07	-2.156450e-07	-2.678070e-09	-1.497400e+00	-1.773172e+02
8.000000e-07	-1.612193e-07	-2.598487e-09	-1.119478e+00	-1.717151e+02
8.100000e-07	-1.067416e-07	-2.513376e-09	-7.411946e-01	-1.659924e+02
8.200000e-07	-5.222112e-08	-2.421079e-09	-3.626140e-01	-1.601420e+02
8.300000e-07	2.296990e-09	-2.326474e-09	1.594988e-02	-1.541549e+02
8.400000e-07	5.680412e-08	-2.231903e-09	3.944376e-01	-1.480211e+02
8.500000e-07	1.112688e-07	-2.136413e-09	7.726308e-01	-1.417296e+02
8.600000e-07	1.656823e-07	-2.035439e-09	1.150468e+00	-1.352694e+02
8.700000e-07	2.201080e-07	-1.932645e-09	1.528390e+00	-1.286296e+02
8.800000e-07	2.744771e-07	-1.826210e-09	1.905920e+00	-1.218004e+02
8.900000e-07	3.287618e-07	-1.717547e-09	2.282862e+00	-1.147728e+02
9.000000e-07	3.829724e-07	-1.603426e-09	2.659291e+00	-1.075387e+02
9.100000e-07	4.370207e-07	-1.487841e-09	3.034593e+00	-1.000904e+02
9.200000e-07	4.908652e-07	-1.372139e-09	3.408479e+00	-9.242015e+01
9.300000e-07	5.445444e-07	-1.255163e-09	3.781218e+00	-8.451872e+01
9.400000e-07	5.980211e-07	-1.135190e-09	4.152551e+00	-7.637475e+01
9.500000e-07	6.512442e-07	-1.006801e-09	4.522122e+00	-6.797358e+01
9.600000e-07	7.042243e-07	-8.692459e-10	4.890006e+00	-5.929653e+01
9.700000e-07	7.569852e-07	-7.256132e-10	5.256369e+00	-5.032053e+01
9.800000e-07	8.095213e-07	-5.814593e-10	5.621170e+00	-4.101833e+01
9.900000e-07	8.617473e-07	-4.317703e-10	5.983818e+00	-3.135937e+01
1.000000e-06	9.136833e-07	-2.757859e-10	6.344452e+00	-2.131135e+01
1.010000e-06	9.651929e-07	-1.148576e-10	6.702125e+00	-1.084249e+01
1.020000e-06	1.016032e-06	4.912823e-11	7.055142e+00	7.565219e-02
1.030000e-06	1.066154e-06	2.187438e-10	7.403181e+00	1.146500e+01
1.040000e-06	1.115635e-06	3.986783e-10	7.746769e+00	2.333762e+01
1.050000e-06	1.164617e-06	5.889617e-10	8.086889e+00	3.569256e+01
1.060000e-06	1.213275e-06	7.874383e-10	8.424761e+00	4.851317e+01
1.070000e-06	1.261703e-06	9.899883e-10	8.761036e+00	6.176517e+01
1.080000e-06	1.309768e-06	1.198931e-09	9.094790e+00	7.539569e+01
1.090000e-06	1.357345e-06	1.412311e-09	9.425161e+00	8.933357e+01
1.100000e-06	1.404397e-06	1.627035e-09	9.751876e+00	1.034908e+02
1.110000e-06	1.450954e-06	1.841603e-09	1.007516e+01	1.177651e+02
1.120000e-06	1.497012e-06	2.056920e-09	1.039498e+01	1.320441e+02
1.130000e-06	1.542532e-06	2.270900e-09	1.071106e+01	1.462093e+02
1.140000e-06	1.587583e-06	2.480622e-09	1.102389e+01	1.601419e+02
1.150000e-06	1.632231e-06	2.685657e-09	1.133392e+01	1.737274e+02
1.160000e-06	1.676542e-06	2.884328e-09	1.164160e+01	1.868612e+02
1.170000e-06	1.720386e-06	3.075728e-09	1.194605e+01	1.994528e+02
1.180000e-06	1.763347e-06	3.256564e-09	1.224436e+01	2.114292e+02
1.190000e-06	1.805259e-06	3.426938e-09	1.253539e+01	2.227373e+02
1.200000e-06	1.846399e-06	3.587455e-09	1.282106e+01	2.333451e+02
1.210000e-06	1.887024e-06	3.739483e-09	1.310315e+01	2.432414e+02
1.220000e-06	1.927130e-06	3.880014e-09	1.338164e+01	2.524337e+02
1.230000e-06	1.966628e-06	4.005669e-09	1.365591e+01	2.609464e+02
1.240000e-06	2.005498e-06	4.118550e-09	1.392582e+01	2.688169e+02
1.250000e-06	2.043624e-06	4.224451e-09	1.419055e+01	2.760920e+02
1.260000e-06	2.080964e-06	4.327200e-09	1.444984e+01	2.828238e+02
1.270000e-06	2.117727e-06	4.424077e-09	1.470512e+01	2.890658e+02
1.280000e-06	2.153953e-06	4.513081e-09	1.495666e+01	2.948697e+02
1.290000e-06	2.189403e-06	4.593900e-09	1.520282e+01	3.002832e+02
1.300000e-06	2.223781e-06	4.670963e-09	1.544153e+01	3.053476e+02
1.310000e-06	2.257110e-06	4.741340e-09	1.567296e+01	3.100971e+02
1.320000e-06	2.289731e-06	4.803609e-09	1.589948e+01	3.145592e+02
1.330000e-06	2.321656e-06	4.861370e-09	1.612116e+01	3.187546e+02
1.340000e-06	2.352815e-06	4.919164e-09	1.633753e+01	3.226991e+02
1.350000e-06	2.383215e-06	4.975282e-09	1.654861e+01	3.264044e+02
1.360000e-06	2.412762e-06	5.023391e-09	1.675378e+01	3.298801e+02
1.370000e-06	2.441601e-06	5.067406e-09	1.695404e+01	3.331350e+02
1.380000e-06	2.469762e-06	5.113902e-09	1.714958e+01	3.361780e+02
1.390000e-06	2.496915e-06	5.161067e-09	1.733813e+01	3.390194e+02
1.400000e-06	2.522886e-06	5.201280e-09	1.751846e+01	3.416705e+02
1.410000e-06	2.547804e-06	5.234823e-09	1.769149e+01	3.441443e+02
1.420000e-06	2.571800e-06	5.265753e-09	1.785811e+01	3.464544e+02
1.430000e-06	2.594954e-06	5.295866e-09	1.801889e+01	3.486146e+02
1.440000e-06	2.617276e-06	5.321880e-09	1.817389e+01	3.506381e+02
1.450000e-06	2.638738e-06	5.344025e-09	1.832292e+01	3.525368e+02
1.460000e-06	2.659457e-06	5.370704e-09	1.846679e+01	3.543203e+02
1.470000e-06	2.679437e-06	5.401951e-09	1.860553e+01	3.559963e+02
1.480000e-06	2.698433e-06	5.429433e-09	1.873743e+01	3.575696e+02
1.490000e-06	2.716386e-06	5.450591e-09	1.886210e+01	3.590431e+02
1.500000e-06	2.733404e-06	5.469629e-09	1.898026e+01	3.604177e+02
1.510000e-06	2.749352e-06	5.488226e-09	1.909100e+01	3.616932e+02
1.520000e-06	2.764194e-06	5.503443e-09	1.919406e+01	3.628691e+02
1.530000e-06	2.778019e-06	5.514566e-09	1.929006e+01	3.639449e+02
1.540000e-06	2.790878e-06	5.526021e-09	1.937935e+01	3.649212e+02
1.550000e-06	2.802627e-06	5.541772e-09	1.946093e+01	3.657997e+02
1.560000e-06	2.813066e-06	5.558784e-09	1.953342e+01	3.665835e+02
1.570000e-06	2.822397e-06	5.571588e-09	1.959822e+01	3.672768e+02
1.580000e-06	2.830827e-06	5.580908e-09	1.965675e+01	3.678850e+02
1.590000e-06	2.838289e-06	5.591382e-09	1.970857e+01	3.684137e+02
1.600000e-06	2.844713e-06	5.601615e-09	1.975317e+01	3.688681e+02
1.610000e-06	2.850185e-06	5.605062e-09	1.979117e+01	3.692531e+02
1.620000e-06	2.854865e-06	5.603286e-09	1.982367e+01	3.695718e+02
1.630000e-06	2.858600e-06	5.605554e-09	1.984960e+01	3.698262e+02
1.640000e-06	2.861066e-06	5.612406e-09	1.986673e+01	3.700165e+02
1.650000e-06	2.862363e-06	5.617594e-09	1.987573e+01	3.701413e+02
1.660000e-06	2.862762e-06	5.617647e-09	1.987850e+01	3.701983e+02
1.670000e-06	2.862226e-06	5.615813e-09	1.987478e+01	3.701848e+02
1.680000e-06	2.860721e-06	5.616154e-09	1.986433e+01	3.700981e+02
1.690000e-06	2.858372e-06	5.619458e-09	1.984802e+01	3.699364e+02
1.700000e-06	2.855284e-06	5.617413e-09	1.982658e+01	3.696994e+02
1.710000e-06	2.851395e-06	5.607896e-09	1.979957e+01	3.693886e+02
1.720000e-06	2.846429e-06	5.602934e-09	1.976509e+01	3.690073e+02
1.730000e-06	2.840358e-06	5.616571e-09	1.972293e+01	3.685609e+02
1.740000e-06	2.833353e-06	5.591765e-09	1.967429e+01	3.680561e+02
1.750000e-06	2.825321e-06	5.507897e-09	1.961852e+01	3.675005e+02
1.760000e-06	2.815847e-06	5.500807e-09	1.955273e+01	3.669018e+02
1.770000e-06	2.804886e-06	5.634906e-09	1.947662e+01	3.662670e+02
1.780000e-06	2.793281e-06	5.611801e-09	1.939604e+01	3.656013e+02
1.790000e-06	2.781500e-06	5.468123e-09	1.931423e+01	3.649081e+02
1.800000e-06	2.768639e-06	5.474236e-09	1.922493e+01	3.641879e+02
1.810000e-06	2.754153e-06	5.609693e-09	1.912434e+01	3.634384e+02
1.820000e-06	2.738760e-06	5.483655e-09	1.901745e+01	3.626550e+02
1.830000e-06	2.722674e-06	5.371217e-09	1.890575e+01	3.618306e+02
1.840000e-06	2.705292e-06	5.591105e-09	1.878506e+01	3.609569e+02
1.850000e-06	2.686765e-06	5.540477e-09	1.865641e+01	3.600248e+02
1.860000e-06	2.667630e-06	5.334100e-09	1.852354e+01	3.590256e+02
1.870000e-06	2.647567e-06	5.489554e-09	1.838423e+01	3.579518e+02
1.880000e-06	2.626323e-06	5.520891e-09	1.823671e+01	3.567977e+02
1.890000e-06	2.604078e-06	5.272960e-09	1.808225e+01	3.555602e+02
1.900000e-06	2.580797e-06	5.351054e-09	1.792059e+01	3.542386e+02
1.910000e-06	2.556591e-06	5.468243e-09	1.775251e+01	3.528349e+02
1.920000e-06	2.531711e-06	5.338856e-09	1.757974e+01	3.513534e+02
1.930000e-06	2.505999e-06	5.306832e-09	1.740120e+01	3.497998e+02
1.940000e-06	2.479378e-06	5.327294e-09	1.721636e+01	3.481810e+02
1.950000e-06	2.452092e-06	5.232841e-09	1.702688e+01	3.465035e+02
1.960000e-06	2.423850e-06	5.266646e-09	1.683078e+01	3.447736e+02
1.970000e-06	2.394402e-06	5.213259e-09	1.662629e+01	3.429960e+02
1.980000e-06	2.363980e-06	5.125518e-09	1.641505e+01	3.411738e+02
1.990000e-06	2.332759e-06	5.227246e-09	1.619826e+01	3.393078e+02
2.000000e-06	2.300874e-06	5.152714e-09	1.597685e+01	3.373973e+02
2.010000e-06	2.268233e-06	5.058806e-09	1.575020e+01	3.354397e+02
2.020000e-06	2.234682e-06	5.122216e-09	1.551723e+01	3.334312e+02
2.030000e-06	2.200394e-06	5.017563e-09	1.527914e+01	3.313676e+02
2.040000e-06	2.165572e-06	4.955409e-09	1.503734e+01	3.292445e+02
2.050000e-06	2.130168e-06	5.033402e-09	1.479150e+01	3.270581e+02
2.060000e-06	2.094026e-06	4.931487e-09	1.454054e+01	3.248058e+02
2.070000e-06	2.056844e-06	4.871101e-09	1.428235e+01	3.224860e+02
2.080000e-06	2.018582e-06	4.904384e-09	1.401667e+01	3.200986e+02
2.090000e-06	1.979599e-06	4.840228e-09	1.374598e+01	3.176446e+02
2.100000e-06	1.940040e-06	4.795910e-09	1.347128e+01	3.151257e+02
2.110000e-06	1.899826e-06	4.752932e-09	1.319205e+01	3.125443e+02
2.120000e-06	1.859007e-06	4.705081e-09	1.290861e+01	3.099025e+02
2.130000e-06	1.817620e-06	4.692719e-09	1.262123e+01	3.072018e+02
2.140000e-06	1.775643e-06	4.639194e-09	1.232975e+01	3.044431e+02
2.150000e-06	1.733036e-06	4.583584e-09	1.203389e+01	3.016258e+02
2.160000e-06	1.689915e-06	4.552177e-09	1.173447e+01	2.987482e+02
2.170000e-06	1.646370e-06	4.507838e-09	1.143209e+01	2.958076e+02
2.180000e-06	1.602260e-06	4.466470e-09	1.112581e+01	2.928003e+02
2.190000e-06	1.557522e-06	4.416041e-09	1.081515e+01	2.897223e+02
2.200000e-06	1.512178e-06	4.363555e-09	1.050029e+01	2.865695e+02
2.210000e-06	1.466343e-06	4.319783e-09	1.018202e+01	2.833383e+02
2.220000e-06	1.420068e-06	4.272393e-09	9.860699e+00	2.800257e+02
2.230000e-06	1.373333e-06	4.232089e-09	9.536179e+00	2.766300e+02
2.240000e-06	1.326114e-06	4.158713e-09	9.208298e+00	2.731503e+02
2.250000e-06	1.278267e-06	4.099708e-09	8.876058e+00	2.695871e+02
2.260000e-06	1.229790e-06	4.063392e-09	8.539439e+00	2.659412e+02
2.270000e-06	1.180837e-06	3.999205e-09	8.199515e+00	2.622141e+02
2.280000e-06	1.131487e-06	3.941755e-09	7.856844e+00	2.584072e+02
2.290000e-06	1.081779e-06	3.887489e-09	7.511679e+00	2.545214e+02
2.300000e-06	1.031668e-06	3.832990e-09	7.163717e+00	2.505567e+02
2.310000e-06	9.811345e-07	3.776656e-09	6.812821e+00	2.465122e+02
2.320000e-06	9.302513e-07	3.702995e-09	6.459497e+00	2.423858e+02
2.330000e-06	8.790874e-07	3.630924e-09	6.104224e+00	2.381745e+02
2.340000e-06	8.276677e-07	3.569275e-09	5.747175e+00	2.338742e+02
2.350000e-06	7.758586e-07	3.504695e-09	5.387422e+00	2.294807e+02
2.360000e-06	7.236457e-07	3.438713e-09	5.024865e+00	2.249895e+02
2.370000e-06	6.710771e-07	3.367529e-09	4.659838e+00	2.203967e+02
2.380000e-06	6.181246e-07	3.300096e-09	4.292146e+00	2.156989e+02
2.390000e-06	5.647908e-07	3.233208e-09	3.921805e+00	2.108938e+02
2.400000e-06	5.110976e-07	3.156298e-09	3.548969e+00	2.059802e+02
2.410000e-06	4.570954e-07	3.079102e-09	3.173988e+00	2.009573e+02
2.420000e-06	4.029104e-07	2.998813e-09	2.797737e+00	1.958253e+02
2.430000e-06	3.485468e-07	2.923415e-09	2.420246e+00	1.905840e+02
2.440000e-06	2.939678e-07	2.846130e-09	2.041259e+00	1.852330e+02
2.450000e-06	2.393002e-07	2.758168e-09	1.661658e+00	1.797705e+02
2.460000e-06	1.845018e-07	2.668840e-09	1.281147e+00	1.741936e+02
2.470000e-06	1.296157e-07	2.583375e-09	9.000280e-01	1.684974e+02
2.480000e-06	7.473951e-08	2.501885e-09	5.189776e-01	1.626751e+02
2.490000e-06	1.980148e-08	2.414004e-09	1.374979e-01	1.567182e+02
2.500000e-06	-3.517280e-08	2.319561e-09	-2.442336e-01	1.506168e+02
2.510000e-06	-9.011588e-08	2.226440e-09	-6.257484e-01	1.443601e+02
2.520000e-06	-1.450372e-07	2.131981e-09	-1.007112e+00	1.379371e+02
2.530000e-06	-1.999407e-07	2.028039e-09	-1.388352e+00	1.313367e+02
2.540000e-06	-2.547448e-07	1.919147e-09	-1.768902e+00	1.245490e+02
2.550000e-06	-3.093962e-07	1.812459e-09	-2.148391e+00	1.175647e+02
2.560000e-06	-3.639084e-07	1.707557e-09	-2.526914e+00	1.103755e+02
2.570000e-06	-4.182695e-07	1.598472e-09	-2.904388e+00	1.029739e+02
2.580000e-06	-4.724160e-07	1.483374e-09	-3.280371e+00	9.535194e+01
2.590000e-06	-5.262269e-07	1.368466e-09	-3.654024e+00	8.750099e+01
2.600000e-06	-5.796667e-07	1.248636e-09	-4.025101e+00	7.941018e+01
2.610000e-06	-6.327644e-07	1.121093e-09	-4.393801e+00	7.106562e+01
2.620000e-06	-6.855397e-07	9.861751e-10	-4.760264e+00	6.244956e+01
2.630000e-06	-7.378984e-07	8.473522e-10	-5.123833e+00	5.353985e+01
2.640000e-06	-7.898575e-07	7.066402e-10	-5.484628e+00	4.431011e+01
2.650000e-06	-8.415316e-07	5.618991e-10	-5.843443e+00	3.473037e+01
2.660000e-06	-8.928913e-07	4.109702e-10	-6.200076e+00	2.476853e+01
2.670000e-06	-9.439746e-07	2.544480e-10	-6.554789e+00	1.439248e+01
2.680000e-06	-9.947371e-07	9.482135e-11	-6.907275e+00	3.572811e+00
2.690000e-06	-1.045116e-06	-7.267241e-11	-7.257096e+00	-7.714087e+00
2.700000e-06	-1.095087e-06	-2.516079e-10	-7.604088e+00	-1.948266e+01
2.710000e-06	-1.144602e-06	-4.421768e-10	-7.947911e+00	-3.173500e+01
2.720000e-06	-1.193660e-06	-6.378489e-10	-8.288560e+00	-4.445801e+01
2.730000e-06	-1.242139e-06	-8.363472e-10	-8.625187e+00	-5.762130e+01
2.740000e-06	-1.289951e-06	-1.041530e-09	-8.957189e+00	-7.117602e+01
2.750000e-06	-1.337097e-06	-1.255567e-09	-9.284559e+00	-8.505483e+01
2.760000e-06	-1.383590e-06	-1.472094e-09	-9.607395e+00	-9.917313e+01
2.770000e-06	-1.429573e-06	-1.686970e-09	-9.926696e+00	-1.134315e+02
2.780000e-06	-1.475188e-06	-1.905325e-09	-1.024344e+01	-1.277192e+02
2.790000e-06	-1.520419e-06	-2.127109e-09	-1.055752e+01	-1.419188e+02
2.800000e-06	-1.565173e-06	-2.346480e-09	-1.086828e+01	-1.559110e+02
2.810000e-06	-1.609370e-06	-2.556410e-09	-1.117517e+01	-1.695800e+02
2.820000e-06	-1.653047e-06	-2.758141e-09	-1.147846e+01	-1.828187e+02
2.830000e-06	-1.696363e-06	-2.953454e-09	-1.177924e+01	-1.955332e+02
2.840000e-06	-1.739279e-06	-3.139359e-09	-1.207724e+01	-2.076465e+02
2.850000e-06	-1.781599e-06	-3.311993e-09	-1.237110e+01	-2.191012e+02
2.860000e-06	-1.823330e-06	-3.472852e-09	-1.266088e+01	-2.298607e+02
2.870000e-06	-1.864473e-06	-3.626845e-09	-1.294656e+01	-2.399092e+02
2.880000e-06	-1.904936e-06	-3.773745e-09	-1.322753e+01	-2.492508e+02
2.890000e-06	-1.944792e-06	-3.910970e-09	-1.350429e+01	-2.579063e+02
2.900000e-06	-1.984139e-06	-4.036856e-09	-1.377750e+01	-2.659107e+02
2.910000e-06	-2.022844e-06	-4.153251e-09	-1.404627e+01	-2.733091e+02
2.920000e-06	-2.060636e-06	-4.259865e-09	-1.430868e+01	-2.801527e+02
2.930000e-06	-2.097451e-06	-4.356620e-09	-1.456432e+01	-2.864950e+02
2.940000e-06	-2.133439e-06	-4.446130e-09	-1.481422e+01	-2.923886e+02
