# Temperatura_=_23.74
# Concentracion g/m^3_=_15500.0
# C_Vs_to_Am_M_A/Vsm_=_65563218390.804596
# pendiente_HvsI_1/m_=_3716.3
# ordenada_HvsI_A/m_=_1297.0
# frecuencia_Hz_=_300839.1899393285

Tiempo_(s)	Campo_(V.s)	Magnetizacion_(V.s)	Campo_(kA/m)	Magnetizacion_(A/m)
0.000000e+00	-2.854026e-06	-5.664181e-09	-1.979770e+01	-3.699628e+02
1.000000e-08	-2.852962e-06	-5.665836e-09	-1.979032e+01	-3.699127e+02
2.000000e-08	-2.850931e-06	-5.665351e-09	-1.977623e+01	-3.697874e+02
3.000000e-08	-2.847601e-06	-5.664153e-09	-1.975313e+01	-3.695851e+02
4.000000e-08	-2.843208e-06	-5.661056e-09	-1.972265e+01	-3.693058e+02
5.000000e-08	-2.838072e-06	-5.650849e-09	-1.968703e+01	-3.689515e+02
6.000000e-08	-2.832113e-06	-5.627706e-09	-1.964569e+01	-3.685268e+02
7.000000e-08	-2.825197e-06	-5.605734e-09	-1.959772e+01	-3.680376e+02
8.000000e-08	-2.817243e-06	-5.651990e-09	-1.954254e+01	-3.674912e+02
9.000000e-08	-2.808140e-06	-5.728240e-09	-1.947940e+01	-3.668955e+02
1.000000e-07	-2.797551e-06	-5.672074e-09	-1.940595e+01	-3.662578e+02
1.100000e-07	-2.785693e-06	-5.464932e-09	-1.932369e+01	-3.655841e+02
1.200000e-07	-2.773114e-06	-5.505188e-09	-1.923643e+01	-3.648784e+02
1.300000e-07	-2.759664e-06	-5.713387e-09	-1.914313e+01	-3.641421e+02
1.400000e-07	-2.745190e-06	-5.619287e-09	-1.904273e+01	-3.633738e+02
1.500000e-07	-2.729839e-06	-5.391754e-09	-1.893625e+01	-3.625696e+02
1.600000e-07	-2.713200e-06	-5.581371e-09	-1.882082e+01	-3.617230e+02
1.700000e-07	-2.695152e-06	-5.678521e-09	-1.869563e+01	-3.608259e+02
1.800000e-07	-2.676384e-06	-5.380429e-09	-1.856544e+01	-3.598696e+02
1.900000e-07	-2.656966e-06	-5.447546e-09	-1.843074e+01	-3.588454e+02
2.000000e-07	-2.636607e-06	-5.587012e-09	-1.828951e+01	-3.577459e+02
2.100000e-07	-2.615394e-06	-5.359303e-09	-1.814236e+01	-3.565653e+02
2.200000e-07	-2.593392e-06	-5.354269e-09	-1.798974e+01	-3.553005e+02
2.300000e-07	-2.570443e-06	-5.565967e-09	-1.783055e+01	-3.539509e+02
2.400000e-07	-2.546557e-06	-5.404727e-09	-1.766486e+01	-3.525185e+02
2.500000e-07	-2.521916e-06	-5.273748e-09	-1.749393e+01	-3.510079e+02
2.600000e-07	-2.496411e-06	-5.367548e-09	-1.731701e+01	-3.494250e+02
2.700000e-07	-2.469840e-06	-5.335880e-09	-1.713269e+01	-3.477767e+02
2.800000e-07	-2.442203e-06	-5.256069e-09	-1.694098e+01	-3.460699e+02
2.900000e-07	-2.413574e-06	-5.269322e-09	-1.674239e+01	-3.443108e+02
3.000000e-07	-2.384082e-06	-5.233895e-09	-1.653781e+01	-3.425039e+02
3.100000e-07	-2.353916e-06	-5.246443e-09	-1.632856e+01	-3.406517e+02
3.200000e-07	-2.323067e-06	-5.232400e-09	-1.611457e+01	-3.387546e+02
3.300000e-07	-2.291403e-06	-5.099062e-09	-1.589492e+01	-3.368108e+02
3.400000e-07	-2.259008e-06	-5.112978e-09	-1.567020e+01	-3.348166e+02
3.500000e-07	-2.226021e-06	-5.101235e-09	-1.544138e+01	-3.327672e+02
3.600000e-07	-2.192324e-06	-5.028095e-09	-1.520763e+01	-3.306571e+02
3.700000e-07	-2.157552e-06	-5.051883e-09	-1.496643e+01	-3.284812e+02
3.800000e-07	-2.121642e-06	-5.008897e-09	-1.471733e+01	-3.262348e+02
3.900000e-07	-2.084995e-06	-4.903558e-09	-1.446311e+01	-3.239150e+02
4.000000e-07	-2.047770e-06	-4.937179e-09	-1.420489e+01	-3.215203e+02
4.100000e-07	-2.009796e-06	-4.922570e-09	-1.394148e+01	-3.190512e+02
4.200000e-07	-1.971095e-06	-4.807165e-09	-1.367302e+01	-3.165094e+02
4.300000e-07	-1.931667e-06	-4.784531e-09	-1.339952e+01	-3.138983e+02
4.400000e-07	-1.891550e-06	-4.774509e-09	-1.312123e+01	-3.112217e+02
4.500000e-07	-1.850978e-06	-4.726820e-09	-1.283980e+01	-3.084836e+02
4.600000e-07	-1.810026e-06	-4.675441e-09	-1.255572e+01	-3.056872e+02
4.700000e-07	-1.768491e-06	-4.629163e-09	-1.226760e+01	-3.028350e+02
4.800000e-07	-1.725994e-06	-4.578305e-09	-1.197281e+01	-2.999279e+02
4.900000e-07	-1.682416e-06	-4.549458e-09	-1.167052e+01	-2.969653e+02
5.000000e-07	-1.638099e-06	-4.502371e-09	-1.136310e+01	-2.939449e+02
5.100000e-07	-1.593357e-06	-4.435164e-09	-1.105274e+01	-2.908634e+02
5.200000e-07	-1.548227e-06	-4.390247e-09	-1.073969e+01	-2.877165e+02
5.300000e-07	-1.502633e-06	-4.353115e-09	-1.042341e+01	-2.844995e+02
5.400000e-07	-1.456463e-06	-4.308996e-09	-1.010314e+01	-2.812082e+02
5.500000e-07	-1.409722e-06	-4.246073e-09	-9.778908e+00	-2.778390e+02
5.600000e-07	-1.362435e-06	-4.184189e-09	-9.450890e+00	-2.743892e+02
5.700000e-07	-1.314628e-06	-4.128593e-09	-9.119264e+00	-2.708575e+02
5.800000e-07	-1.266401e-06	-4.088296e-09	-8.784724e+00	-2.672440e+02
5.900000e-07	-1.217851e-06	-4.027075e-09	-8.447945e+00	-2.635497e+02
6.000000e-07	-1.168980e-06	-3.958049e-09	-8.108936e+00	-2.597763e+02
6.100000e-07	-1.119653e-06	-3.906242e-09	-7.766763e+00	-2.559260e+02
6.200000e-07	-1.069804e-06	-3.851328e-09	-7.420974e+00	-2.520003e+02
6.300000e-07	-1.019363e-06	-3.785943e-09	-7.071077e+00	-2.480004e+02
6.400000e-07	-9.682579e-07	-3.712863e-09	-6.716575e+00	-2.439263e+02
6.500000e-07	-9.165910e-07	-3.648610e-09	-6.358174e+00	-2.397767e+02
6.600000e-07	-8.645321e-07	-3.588114e-09	-5.997054e+00	-2.355491e+02
6.700000e-07	-8.121960e-07	-3.527843e-09	-5.634010e+00	-2.312397e+02
6.800000e-07	-7.595823e-07	-3.455264e-09	-5.269042e+00	-2.268440e+02
6.900000e-07	-7.066737e-07	-3.381442e-09	-4.902027e+00	-2.223572e+02
7.000000e-07	-6.534740e-07	-3.313519e-09	-4.532993e+00	-2.177743e+02
7.100000e-07	-6.000613e-07	-3.243321e-09	-4.162482e+00	-2.130912e+02
7.200000e-07	-5.464943e-07	-3.165823e-09	-3.790901e+00	-2.083041e+02
7.300000e-07	-4.927073e-07	-3.085484e-09	-3.417793e+00	-2.034104e+02
7.400000e-07	-4.387227e-07	-3.013432e-09	-3.043315e+00	-1.984086e+02
7.500000e-07	-3.845951e-07	-2.939826e-09	-2.667845e+00	-1.932975e+02
7.600000e-07	-3.303068e-07	-2.860269e-09	-2.291260e+00	-1.880764e+02
7.700000e-07	-2.759015e-07	-2.770330e-09	-1.913863e+00	-1.827443e+02
7.800000e-07	-2.214346e-07	-2.682574e-09	-1.536039e+00	-1.772996e+02
7.900000e-07	-1.669251e-07	-2.602727e-09	-1.157920e+00	-1.717392e+02
8.000000e-07	-1.123839e-07	-2.519849e-09	-7.795805e-01	-1.660587e+02
8.100000e-07	-5.779531e-08	-2.427923e-09	-4.009123e-01	-1.602515e+02
8.200000e-07	-3.186087e-09	-2.332175e-09	-2.210113e-02	-1.543094e+02
8.300000e-07	5.138101e-08	-2.238213e-09	3.564178e-01	-1.482229e+02
8.400000e-07	1.059123e-07	-2.141152e-09	7.346881e-01	-1.419808e+02
8.500000e-07	1.604366e-07	-2.041401e-09	1.112910e+00	-1.355718e+02
8.600000e-07	2.149357e-07	-1.937915e-09	1.490958e+00	-1.289842e+02
8.700000e-07	2.693612e-07	-1.836091e-09	1.868494e+00	-1.222070e+02
8.800000e-07	3.237125e-07	-1.733852e-09	2.245516e+00	-1.152298e+02
8.900000e-07	3.779322e-07	-1.624701e-09	2.621626e+00	-1.080431e+02
9.000000e-07	4.320007e-07	-1.506075e-09	2.996686e+00	-1.006378e+02
9.100000e-07	4.859223e-07	-1.385354e-09	3.370727e+00	-9.300483e+01
9.200000e-07	5.396343e-07	-1.268015e-09	3.743315e+00	-8.513449e+01
9.300000e-07	5.931393e-07	-1.145310e-09	4.114466e+00	-7.701521e+01
9.400000e-07	6.464334e-07	-1.016869e-09	4.484155e+00	-6.863277e+01
9.500000e-07	6.994723e-07	-8.830773e-10	4.852073e+00	-5.996947e+01
9.600000e-07	7.522484e-07	-7.462104e-10	5.218169e+00	-5.100364e+01
9.700000e-07	8.048240e-07	-6.033707e-10	5.582872e+00	-4.170972e+01
9.800000e-07	8.571463e-07	-4.527231e-10	5.945820e+00	-3.205885e+01
9.900000e-07	9.091406e-07	-2.947626e-10	6.306492e+00	-2.202026e+01
1.000000e-06	9.606833e-07	-1.311290e-10	6.664031e+00	-1.156328e+01
1.010000e-06	1.011541e-06	3.503559e-11	7.016819e+00	-6.599463e-01
1.020000e-06	1.061702e-06	2.060748e-10	7.364777e+00	1.071192e+01
1.030000e-06	1.111306e-06	3.844844e-10	7.708864e+00	2.256543e+01
1.040000e-06	1.160396e-06	5.741733e-10	8.049389e+00	3.490144e+01
1.050000e-06	1.209139e-06	7.713001e-10	8.387509e+00	4.770575e+01
1.060000e-06	1.257680e-06	9.742127e-10	8.724230e+00	6.094690e+01
1.070000e-06	1.305881e-06	1.183301e-09	9.058588e+00	7.457505e+01
1.080000e-06	1.353606e-06	1.397529e-09	9.389642e+00	8.852185e+01
1.090000e-06	1.400806e-06	1.614131e-09	9.717056e+00	1.027017e+02
1.100000e-06	1.447505e-06	1.830131e-09	1.004100e+01	1.170140e+02
1.110000e-06	1.493719e-06	2.046632e-09	1.036157e+01	1.313470e+02
1.120000e-06	1.539381e-06	2.261574e-09	1.067832e+01	1.455822e+02
1.130000e-06	1.584529e-06	2.474656e-09	1.099150e+01	1.595992e+02
1.140000e-06	1.629311e-06	2.681717e-09	1.130214e+01	1.732814e+02
1.150000e-06	1.673762e-06	2.880812e-09	1.161049e+01	1.865211e+02
1.160000e-06	1.717670e-06	3.072257e-09	1.191507e+01	1.992241e+02
1.170000e-06	1.760725e-06	3.257015e-09	1.221373e+01	2.113138e+02
1.180000e-06	1.802758e-06	3.431634e-09	1.250530e+01	2.227333e+02
1.190000e-06	1.843948e-06	3.593147e-09	1.279103e+01	2.334474e+02
1.200000e-06	1.884610e-06	3.742969e-09	1.307309e+01	2.434420e+02
1.210000e-06	1.924797e-06	3.882440e-09	1.335186e+01	2.527232e+02
1.220000e-06	1.964409e-06	4.010913e-09	1.362664e+01	2.613142e+02
1.230000e-06	2.003340e-06	4.127261e-09	1.389669e+01	2.692527e+02
1.240000e-06	2.041533e-06	4.235672e-09	1.416163e+01	2.765860e+02
1.250000e-06	2.078966e-06	4.338254e-09	1.442129e+01	2.833678e+02
1.260000e-06	2.115804e-06	4.436159e-09	1.467683e+01	2.896534e+02
1.270000e-06	2.152210e-06	4.524650e-09	1.492937e+01	2.954965e+02
1.280000e-06	2.187835e-06	4.604063e-09	1.517649e+01	3.009464e+02
1.290000e-06	2.222378e-06	4.678931e-09	1.541611e+01	3.060461e+02
1.300000e-06	2.255860e-06	4.750733e-09	1.564837e+01	3.108307e+02
1.310000e-06	2.288550e-06	4.818224e-09	1.587513e+01	3.153279e+02
1.320000e-06	2.320601e-06	4.879898e-09	1.609746e+01	3.195585e+02
1.330000e-06	2.351876e-06	4.937345e-09	1.631441e+01	3.235372e+02
1.340000e-06	2.382388e-06	4.991241e-09	1.652606e+01	3.272747e+02
1.350000e-06	2.412072e-06	5.041078e-09	1.673197e+01	3.307793e+02
1.360000e-06	2.440985e-06	5.087549e-09	1.693253e+01	3.340583e+02
1.370000e-06	2.469276e-06	5.133054e-09	1.712878e+01	3.371198e+02
1.380000e-06	2.496657e-06	5.177548e-09	1.731871e+01	3.399729e+02
1.390000e-06	2.522752e-06	5.218245e-09	1.749973e+01	3.426289e+02
1.400000e-06	2.547757e-06	5.252337e-09	1.767319e+01	3.451010e+02
1.410000e-06	2.571948e-06	5.281918e-09	1.784099e+01	3.474035e+02
1.420000e-06	2.595279e-06	5.310822e-09	1.800283e+01	3.495515e+02
1.430000e-06	2.617710e-06	5.339893e-09	1.815843e+01	3.515598e+02
1.440000e-06	2.639254e-06	5.367604e-09	1.830788e+01	3.534418e+02
1.450000e-06	2.660072e-06	5.393561e-09	1.845228e+01	3.552090e+02
1.460000e-06	2.680147e-06	5.420718e-09	1.859154e+01	3.568705e+02
1.470000e-06	2.699245e-06	5.448726e-09	1.872402e+01	3.584324e+02
1.480000e-06	2.717324e-06	5.472585e-09	1.884943e+01	3.598982e+02
1.490000e-06	2.734506e-06	5.489438e-09	1.896862e+01	3.612692e+02
1.500000e-06	2.750652e-06	5.503252e-09	1.908062e+01	3.625453e+02
1.510000e-06	2.765651e-06	5.519394e-09	1.918466e+01	3.637253e+02
1.520000e-06	2.779629e-06	5.535203e-09	1.928163e+01	3.648085e+02
1.530000e-06	2.792590e-06	5.548002e-09	1.937153e+01	3.657945e+02
1.540000e-06	2.804476e-06	5.561261e-09	1.945398e+01	3.666844e+02
1.550000e-06	2.815062e-06	5.577095e-09	1.952742e+01	3.674810e+02
1.560000e-06	2.824379e-06	5.592281e-09	1.959204e+01	3.681884e+02
1.570000e-06	2.832772e-06	5.603135e-09	1.965027e+01	3.688119e+02
1.580000e-06	2.840281e-06	5.609509e-09	1.970235e+01	3.693575e+02
1.590000e-06	2.846826e-06	5.615232e-09	1.974776e+01	3.698312e+02
1.600000e-06	2.852417e-06	5.620905e-09	1.978654e+01	3.702386e+02
1.610000e-06	2.857208e-06	5.624803e-09	1.981977e+01	3.705836e+02
1.620000e-06	2.861146e-06	5.628063e-09	1.984709e+01	3.708688e+02
1.630000e-06	2.863812e-06	5.634251e-09	1.986558e+01	3.710946e+02
1.640000e-06	2.865223e-06	5.642827e-09	1.987537e+01	3.712596e+02
1.650000e-06	2.865674e-06	5.648591e-09	1.987850e+01	3.713612e+02
1.660000e-06	2.865242e-06	5.649227e-09	1.987550e+01	3.713954e+02
1.670000e-06	2.863949e-06	5.644981e-09	1.986653e+01	3.713584e+02
1.680000e-06	2.861797e-06	5.641403e-09	1.985161e+01	3.712467e+02
1.690000e-06	2.858822e-06	5.639073e-09	1.983097e+01	3.710582e+02
1.700000e-06	2.855017e-06	5.632641e-09	1.980457e+01	3.707925e+02
1.710000e-06	2.850114e-06	5.628550e-09	1.977056e+01	3.704514e+02
1.720000e-06	2.843984e-06	5.645301e-09	1.972804e+01	3.700389e+02
1.730000e-06	2.836965e-06	5.657571e-09	1.967935e+01	3.695606e+02
1.740000e-06	2.829099e-06	5.562904e-09	1.962479e+01	3.690239e+02
1.750000e-06	2.819829e-06	5.475855e-09	1.956048e+01	3.684365e+02
1.760000e-06	2.808910e-06	5.583755e-09	1.948474e+01	3.678058e+02
1.770000e-06	2.797134e-06	5.742659e-09	1.940305e+01	3.671381e+02
1.780000e-06	2.785312e-06	5.583957e-09	1.932105e+01	3.664379e+02
1.790000e-06	2.772718e-06	5.391695e-09	1.923369e+01	3.657071e+02
1.800000e-06	2.758329e-06	5.598838e-09	1.913387e+01	3.649448e+02
1.810000e-06	2.742767e-06	5.656489e-09	1.902592e+01	3.641474e+02
1.820000e-06	2.726790e-06	5.373428e-09	1.891510e+01	3.633089e+02
1.830000e-06	2.709717e-06	5.426696e-09	1.879666e+01	3.624214e+02
1.840000e-06	2.691253e-06	5.687158e-09	1.866858e+01	3.614764e+02
1.850000e-06	2.672144e-06	5.457055e-09	1.853603e+01	3.604649e+02
1.860000e-06	2.652323e-06	5.328282e-09	1.839853e+01	3.593794e+02
1.870000e-06	2.631179e-06	5.623510e-09	1.825186e+01	3.582136e+02
1.880000e-06	2.608974e-06	5.448679e-09	1.809783e+01	3.569639e+02
1.890000e-06	2.585876e-06	5.201550e-09	1.793760e+01	3.556293e+02
1.900000e-06	2.561698e-06	5.463687e-09	1.776989e+01	3.542115e+02
1.910000e-06	2.536806e-06	5.449009e-09	1.759722e+01	3.527144e+02
1.920000e-06	2.511215e-06	5.264850e-09	1.741970e+01	3.511439e+02
1.930000e-06	2.484679e-06	5.348971e-09	1.723562e+01	3.495068e+02
1.940000e-06	2.457468e-06	5.307812e-09	1.704687e+01	3.478100e+02
1.950000e-06	2.429464e-06	5.240389e-09	1.685261e+01	3.460598e+02
1.960000e-06	2.400137e-06	5.272647e-09	1.664918e+01	3.442612e+02
1.970000e-06	2.369704e-06	5.149113e-09	1.643807e+01	3.424170e+02
1.980000e-06	2.338546e-06	5.156411e-09	1.622194e+01	3.405280e+02
1.990000e-06	2.306684e-06	5.240774e-09	1.600092e+01	3.385927e+02
2.000000e-06	2.274097e-06	5.076069e-09	1.577487e+01	3.366079e+02
2.010000e-06	2.240641e-06	5.077096e-09	1.554279e+01	3.345687e+02
2.020000e-06	2.206419e-06	5.111447e-09	1.530540e+01	3.324699e+02
2.030000e-06	2.171649e-06	4.952670e-09	1.506421e+01	3.303060e+02
2.040000e-06	2.136230e-06	4.995201e-09	1.481852e+01	3.280725e+02
2.050000e-06	2.099978e-06	5.007297e-09	1.456705e+01	3.257660e+02
2.060000e-06	2.062746e-06	4.860109e-09	1.430878e+01	3.233847e+02
2.070000e-06	2.024486e-06	4.883330e-09	1.404338e+01	3.209287e+02
2.080000e-06	1.985516e-06	4.878725e-09	1.377305e+01	3.183998e+02
2.090000e-06	1.946045e-06	4.788095e-09	1.349925e+01	3.158008e+02
2.100000e-06	1.905882e-06	4.768750e-09	1.322065e+01	3.131356e+02
2.110000e-06	1.865020e-06	4.707371e-09	1.293720e+01	3.104081e+02
2.120000e-06	1.823573e-06	4.673637e-09	1.264969e+01	3.076219e+02
2.130000e-06	1.781594e-06	4.652233e-09	1.235849e+01	3.047796e+02
2.140000e-06	1.739076e-06	4.580496e-09	1.206355e+01	3.018823e+02
2.150000e-06	1.696088e-06	4.546176e-09	1.176536e+01	2.989297e+02
2.160000e-06	1.652648e-06	4.505543e-09	1.146403e+01	2.959199e+02
2.170000e-06	1.608543e-06	4.461692e-09	1.115808e+01	2.928496e+02
2.180000e-06	1.563732e-06	4.410457e-09	1.084724e+01	2.897146e+02
2.190000e-06	1.518356e-06	4.347283e-09	1.053248e+01	2.865105e+02
2.200000e-06	1.472565e-06	4.305261e-09	1.021483e+01	2.832328e+02
2.210000e-06	1.426355e-06	4.259771e-09	9.894285e+00	2.798777e+02
2.220000e-06	1.379594e-06	4.211041e-09	9.569916e+00	2.764424e+02
2.230000e-06	1.332282e-06	4.158220e-09	9.241726e+00	2.729254e+02
2.240000e-06	1.284437e-06	4.089122e-09	8.909833e+00	2.693265e+02
2.250000e-06	1.236037e-06	4.049697e-09	8.574092e+00	2.656465e+02
2.260000e-06	1.187185e-06	4.000179e-09	8.235222e+00	2.618871e+02
2.270000e-06	1.137952e-06	3.923755e-09	7.893703e+00	2.580503e+02
2.280000e-06	1.088330e-06	3.872770e-09	7.549489e+00	2.541380e+02
2.290000e-06	1.038272e-06	3.814403e-09	7.202248e+00	2.501513e+02
2.300000e-06	9.877062e-07	3.758545e-09	6.851483e+00	2.460906e+02
2.310000e-06	9.367859e-07	3.697558e-09	6.498261e+00	2.419546e+02
2.320000e-06	8.856260e-07	3.624297e-09	6.143377e+00	2.377411e+02
2.330000e-06	8.341875e-07	3.563454e-09	5.786560e+00	2.334466e+02
2.340000e-06	7.824198e-07	3.497578e-09	5.427460e+00	2.290667e+02
2.350000e-06	7.302218e-07	3.428992e-09	5.065375e+00	2.245965e+02
2.360000e-06	6.775476e-07	3.357144e-09	4.699987e+00	2.200312e+02
2.370000e-06	6.244068e-07	3.286126e-09	4.331362e+00	2.153662e+02
2.380000e-06	5.709091e-07	3.222845e-09	3.960260e+00	2.105979e+02
2.390000e-06	5.170980e-07	3.151017e-09	3.586986e+00	2.057234e+02
2.400000e-06	4.629341e-07	3.072341e-09	3.211263e+00	2.007410e+02
2.410000e-06	4.085411e-07	2.996917e-09	2.833952e+00	1.956494e+02
2.420000e-06	3.540068e-07	2.920915e-09	2.455661e+00	1.904480e+02
2.430000e-06	2.993340e-07	2.844095e-09	2.076409e+00	1.851359e+02
2.440000e-06	2.445582e-07	2.755881e-09	1.696442e+00	1.797114e+02
2.450000e-06	1.897116e-07	2.664451e-09	1.315985e+00	1.741720e+02
2.460000e-06	1.348270e-07	2.583233e-09	9.352628e-01	1.685133e+02
2.470000e-06	7.991322e-08	2.501034e-09	5.543390e-01	1.627293e+02
2.480000e-06	2.497898e-08	2.414432e-09	1.732732e-01	1.568120e+02
2.490000e-06	-2.997246e-08	2.321154e-09	-2.079118e-01	1.507520e+02
2.500000e-06	-8.492352e-08	2.228338e-09	-5.890942e-01	1.445386e+02
2.510000e-06	-1.398283e-07	2.136249e-09	-9.699558e-01	1.381602e+02
2.520000e-06	-1.946680e-07	2.035023e-09	-1.350366e+00	1.316054e+02
2.530000e-06	-2.494725e-07	1.926796e-09	-1.730532e+00	1.248628e+02
2.540000e-06	-3.042691e-07	1.818019e-09	-2.110642e+00	1.179221e+02
2.550000e-06	-3.589810e-07	1.713269e-09	-2.490166e+00	1.107734e+02
2.560000e-06	-4.134969e-07	1.607876e-09	-2.868330e+00	1.034078e+02
2.570000e-06	-4.677784e-07	1.494613e-09	-3.244868e+00	9.581616e+01
2.580000e-06	-5.218289e-07	1.375288e-09	-3.619803e+00	8.798899e+01
2.590000e-06	-5.755892e-07	1.254936e-09	-3.992725e+00	7.991512e+01
2.600000e-06	-6.289855e-07	1.128896e-09	-4.363123e+00	7.158086e+01
2.610000e-06	-6.819936e-07	9.939335e-10	-4.730827e+00	6.296919e+01
2.620000e-06	-7.345564e-07	8.536487e-10	-5.095443e+00	5.405915e+01
2.630000e-06	-7.866100e-07	7.116177e-10	-5.456526e+00	4.482585e+01
2.640000e-06	-8.382310e-07	5.685071e-10	-5.814609e+00	3.524094e+01
2.650000e-06	-8.895425e-07	4.203196e-10	-6.170545e+00	2.527387e+01
2.660000e-06	-9.406151e-07	2.651179e-10	-6.524824e+00	1.489377e+01
2.670000e-06	-9.914397e-07	1.028817e-10	-6.877381e+00	4.071976e+00
2.680000e-06	-1.041876e-06	-6.563572e-11	-7.227245e+00	-7.214958e+00
2.690000e-06	-1.091855e-06	-2.441151e-10	-7.573936e+00	-1.898200e+01
2.700000e-06	-1.141417e-06	-4.327369e-10	-7.917737e+00	-3.123244e+01
2.710000e-06	-1.190575e-06	-6.282842e-10	-8.258732e+00	-4.395491e+01
2.720000e-06	-1.239266e-06	-8.292326e-10	-8.596491e+00	-5.712117e+01
2.730000e-06	-1.287382e-06	-1.035515e-09	-8.930266e+00	-7.068470e+01
2.740000e-06	-1.334747e-06	-1.248131e-09	-9.258824e+00	-8.458041e+01
2.750000e-06	-1.381343e-06	-1.464448e-09	-9.582050e+00	-9.872560e+01
2.760000e-06	-1.427365e-06	-1.679943e-09	-9.901294e+00	-1.130222e+02
2.770000e-06	-1.472968e-06	-1.895637e-09	-1.021763e+01	-1.273601e+02
2.780000e-06	-1.518230e-06	-2.116959e-09	-1.053160e+01	-1.416216e+02
2.790000e-06	-1.563136e-06	-2.339982e-09	-1.084310e+01	-1.556863e+02
2.800000e-06	-1.607521e-06	-2.555854e-09	-1.115099e+01	-1.694365e+02
2.810000e-06	-1.651278e-06	-2.760642e-09	-1.145452e+01	-1.827625e+02
2.820000e-06	-1.694547e-06	-2.955525e-09	-1.175467e+01	-1.955676e+02
2.830000e-06	-1.737482e-06	-3.140118e-09	-1.205250e+01	-2.077715e+02
2.840000e-06	-1.779944e-06	-3.314126e-09	-1.234705e+01	-2.193139e+02
2.850000e-06	-1.821736e-06	-3.477950e-09	-1.263695e+01	-2.301556e+02
2.860000e-06	-1.862913e-06	-3.632622e-09	-1.292258e+01	-2.402789e+02
2.870000e-06	-1.903475e-06	-3.782088e-09	-1.320396e+01	-2.496862e+02
2.880000e-06	-1.943336e-06	-3.924403e-09	-1.348046e+01	-2.583981e+02
2.890000e-06	-1.982660e-06	-4.053130e-09	-1.375324e+01	-2.664498e+02
2.900000e-06	-2.021493e-06	-4.166463e-09	-1.402262e+01	-2.738874e+02
2.910000e-06	-2.059573e-06	-4.269860e-09	-1.428677e+01	-2.807636e+02
2.920000e-06	-2.096618e-06	-4.366323e-09	-1.454374e+01	-2.871337e+02
2.930000e-06	-2.132618e-06	-4.456301e-09	-1.479346e+01	-2.930521e+02
2.940000e-06	-2.167879e-06	-4.541678e-09	-1.503806e+01	-2.985689e+02
