# Temperatura_=_22.46
# Concentracion g/m^3_=_15500.0
# C_Vs_to_Am_M_A/Vsm_=_65563218390.804596
# pendiente_HvsI_1/m_=_3716.3
# ordenada_HvsI_A/m_=_1297.0
# frecuencia_Hz_=_300832.5451401657

Tiempo_(s)	Campo_(V.s)	Magnetizacion_(V.s)	Campo_(kA/m)	Magnetizacion_(A/m)
0.000000e+00	-2.854047e-06	-5.615757e-09	-1.980409e+01	-3.665878e+02
1.000000e-08	-2.853500e-06	-5.613775e-09	-1.980030e+01	-3.665383e+02
2.000000e-08	-2.852183e-06	-5.612787e-09	-1.979116e+01	-3.664118e+02
3.000000e-08	-2.849782e-06	-5.608862e-09	-1.977449e+01	-3.662088e+02
4.000000e-08	-2.846135e-06	-5.604434e-09	-1.974919e+01	-3.659321e+02
5.000000e-08	-2.841560e-06	-5.597691e-09	-1.971744e+01	-3.655867e+02
6.000000e-08	-2.836224e-06	-5.583857e-09	-1.968042e+01	-3.651796e+02
7.000000e-08	-2.829960e-06	-5.552414e-09	-1.963695e+01	-3.647193e+02
8.000000e-08	-2.822698e-06	-5.554194e-09	-1.958656e+01	-3.642151e+02
9.000000e-08	-2.814418e-06	-5.644329e-09	-1.952910e+01	-3.636762e+02
1.000000e-07	-2.804834e-06	-5.700487e-09	-1.946260e+01	-3.631103e+02
1.100000e-07	-2.793764e-06	-5.516440e-09	-1.938579e+01	-3.625234e+02
1.200000e-07	-2.781653e-06	-5.362430e-09	-1.930175e+01	-3.619185e+02
1.300000e-07	-2.768815e-06	-5.545874e-09	-1.921267e+01	-3.612954e+02
1.400000e-07	-2.754986e-06	-5.706486e-09	-1.911671e+01	-3.606504e+02
1.500000e-07	-2.740214e-06	-5.395842e-09	-1.901421e+01	-3.599769e+02
1.600000e-07	-2.724501e-06	-5.366903e-09	-1.890518e+01	-3.592655e+02
1.700000e-07	-2.707332e-06	-5.669079e-09	-1.878604e+01	-3.585052e+02
1.800000e-07	-2.688987e-06	-5.489141e-09	-1.865875e+01	-3.576843e+02
1.900000e-07	-2.670098e-06	-5.307679e-09	-1.852768e+01	-3.567914e+02
2.000000e-07	-2.650445e-06	-5.515359e-09	-1.839130e+01	-3.558167e+02
2.100000e-07	-2.629809e-06	-5.472698e-09	-1.824811e+01	-3.547528e+02
2.200000e-07	-2.608402e-06	-5.226488e-09	-1.809957e+01	-3.535952e+02
2.300000e-07	-2.586196e-06	-5.412552e-09	-1.794549e+01	-3.523426e+02
2.400000e-07	-2.562971e-06	-5.489536e-09	-1.778433e+01	-3.509969e+02
2.500000e-07	-2.538820e-06	-5.258482e-09	-1.761675e+01	-3.495627e+02
2.600000e-07	-2.513942e-06	-5.266176e-09	-1.744411e+01	-3.480468e+02
2.700000e-07	-2.488189e-06	-5.361025e-09	-1.726542e+01	-3.464569e+02
2.800000e-07	-2.461367e-06	-5.243238e-09	-1.707931e+01	-3.448011e+02
2.900000e-07	-2.433445e-06	-5.216212e-09	-1.688556e+01	-3.430865e+02
3.000000e-07	-2.404575e-06	-5.202118e-09	-1.668522e+01	-3.413189e+02
3.100000e-07	-2.375015e-06	-5.188845e-09	-1.648011e+01	-3.395019e+02
3.200000e-07	-2.344787e-06	-5.213019e-09	-1.627036e+01	-3.376365e+02
3.300000e-07	-2.313741e-06	-5.099937e-09	-1.605493e+01	-3.357218e+02
3.400000e-07	-2.281819e-06	-5.071697e-09	-1.583343e+01	-3.337546e+02
3.500000e-07	-2.249235e-06	-5.093777e-09	-1.560733e+01	-3.317305e+02
3.600000e-07	-2.216103e-06	-5.006325e-09	-1.537743e+01	-3.296444e+02
3.700000e-07	-2.182055e-06	-4.992700e-09	-1.514117e+01	-3.274912e+02
3.800000e-07	-2.146817e-06	-5.031233e-09	-1.489665e+01	-3.252668e+02
3.900000e-07	-2.110636e-06	-4.895125e-09	-1.464560e+01	-3.229685e+02
4.000000e-07	-2.073813e-06	-4.863293e-09	-1.439009e+01	-3.205951e+02
4.100000e-07	-2.036359e-06	-4.909308e-09	-1.413020e+01	-3.181475e+02
4.200000e-07	-1.998184e-06	-4.813574e-09	-1.386530e+01	-3.156278e+02
4.300000e-07	-1.959308e-06	-4.744044e-09	-1.359554e+01	-3.130398e+02
4.400000e-07	-1.919686e-06	-4.747349e-09	-1.332060e+01	-3.103874e+02
4.500000e-07	-1.879403e-06	-4.712269e-09	-1.304109e+01	-3.076748e+02
4.600000e-07	-1.838721e-06	-4.655943e-09	-1.275879e+01	-3.049051e+02
4.700000e-07	-1.797658e-06	-4.618005e-09	-1.247386e+01	-3.020805e+02
4.800000e-07	-1.755842e-06	-4.556282e-09	-1.218370e+01	-2.992010e+02
4.900000e-07	-1.712997e-06	-4.520507e-09	-1.188640e+01	-2.962653e+02
5.000000e-07	-1.669280e-06	-4.482556e-09	-1.158305e+01	-2.932701e+02
5.100000e-07	-1.624924e-06	-4.426365e-09	-1.127527e+01	-2.902109e+02
5.200000e-07	-1.580123e-06	-4.367622e-09	-1.096440e+01	-2.870821e+02
5.300000e-07	-1.534902e-06	-4.321846e-09	-1.065060e+01	-2.838783e+02
5.400000e-07	-1.489138e-06	-4.284914e-09	-1.033306e+01	-2.805945e+02
5.500000e-07	-1.442755e-06	-4.239618e-09	-1.001121e+01	-2.772268e+02
5.600000e-07	-1.395842e-06	-4.179977e-09	-9.685675e+00	-2.737729e+02
5.700000e-07	-1.348505e-06	-4.105644e-09	-9.357207e+00	-2.702322e+02
5.800000e-07	-1.300685e-06	-4.061614e-09	-9.025386e+00	-2.666063e+02
5.900000e-07	-1.252444e-06	-4.010319e-09	-8.690647e+00	-2.628980e+02
6.000000e-07	-1.203872e-06	-3.942367e-09	-8.353606e+00	-2.591114e+02
6.100000e-07	-1.154875e-06	-3.883804e-09	-8.013616e+00	-2.552510e+02
6.200000e-07	-1.105400e-06	-3.835881e-09	-7.670315e+00	-2.513213e+02
6.300000e-07	-1.055386e-06	-3.778164e-09	-7.323273e+00	-2.473257e+02
6.400000e-07	-1.004744e-06	-3.706330e-09	-6.971871e+00	-2.432664e+02
6.500000e-07	-9.535131e-07	-3.633433e-09	-6.616380e+00	-2.391436e+02
6.600000e-07	-9.017690e-07	-3.564225e-09	-6.257330e+00	-2.349556e+02
6.700000e-07	-8.496734e-07	-3.507722e-09	-5.895841e+00	-2.306990e+02
6.800000e-07	-7.972775e-07	-3.443825e-09	-5.532269e+00	-2.263687e+02
6.900000e-07	-7.445614e-07	-3.375571e-09	-5.166475e+00	-2.219588e+02
7.000000e-07	-6.916086e-07	-3.305141e-09	-4.799037e+00	-2.174627e+02
7.100000e-07	-6.383946e-07	-3.236639e-09	-4.429788e+00	-2.128741e+02
7.200000e-07	-5.849357e-07	-3.163693e-09	-4.058839e+00	-2.081875e+02
7.300000e-07	-5.313337e-07	-3.084701e-09	-3.686898e+00	-2.033984e+02
7.400000e-07	-4.775113e-07	-3.010372e-09	-3.313427e+00	-1.985035e+02
7.500000e-07	-4.234652e-07	-2.939090e-09	-2.938404e+00	-1.935009e+02
7.600000e-07	-3.692680e-07	-2.867154e-09	-2.562332e+00	-1.883895e+02
7.700000e-07	-3.149411e-07	-2.780369e-09	-2.185361e+00	-1.831686e+02
7.800000e-07	-2.605530e-07	-2.689581e-09	-1.807964e+00	-1.778374e+02
7.900000e-07	-2.060960e-07	-2.606194e-09	-1.430090e+00	-1.723944e+02
8.000000e-07	-1.515525e-07	-2.529601e-09	-1.051616e+00	-1.668366e+02
8.100000e-07	-9.696558e-08	-2.445218e-09	-6.728393e-01	-1.611595e+02
8.200000e-07	-4.234683e-08	-2.352919e-09	-2.938425e-01	-1.553567e+02
8.300000e-07	1.228943e-08	-2.262040e-09	8.527574e-02	-1.494197e+02
8.400000e-07	6.687699e-08	-2.170140e-09	4.640561e-01	-1.433387e+02
8.500000e-07	1.213969e-07	-2.073197e-09	8.423669e-01	-1.371027e+02
8.600000e-07	1.758996e-07	-1.967119e-09	1.220559e+00	-1.307001e+02
8.700000e-07	2.304011e-07	-1.863162e-09	1.598742e+00	-1.241197e+02
8.800000e-07	2.848577e-07	-1.763984e-09	1.976613e+00	-1.173505e+02
8.900000e-07	3.392077e-07	-1.664879e-09	2.353745e+00	-1.103828e+02
9.000000e-07	3.934047e-07	-1.554687e-09	2.729816e+00	-1.032073e+02
9.100000e-07	4.474847e-07	-1.437243e-09	3.105074e+00	-9.581584e+01
9.200000e-07	5.013408e-07	-1.321050e-09	3.478778e+00	-8.819998e+01
9.300000e-07	5.549450e-07	-1.202749e-09	3.850736e+00	-8.035059e+01
9.400000e-07	6.083515e-07	-1.077563e-09	4.221321e+00	-7.225675e+01
9.500000e-07	6.615443e-07	-9.450239e-10	4.590422e+00	-6.390483e+01
9.600000e-07	7.145211e-07	-8.136990e-10	4.958026e+00	-5.527770e+01
9.700000e-07	7.672409e-07	-6.805129e-10	5.323846e+00	-4.635440e+01
9.800000e-07	8.196889e-07	-5.407273e-10	5.687780e+00	-3.711014e+01
9.900000e-07	8.718622e-07	-3.904257e-10	6.049808e+00	-2.751716e+01
1.000000e-06	9.236782e-07	-2.341175e-10	6.409357e+00	-1.754607e+01
1.010000e-06	9.750262e-07	-7.398769e-11	6.765658e+00	-7.167949e+00
1.020000e-06	1.025780e-06	9.089566e-11	7.117834e+00	3.643036e+00
1.030000e-06	1.075817e-06	2.625975e-10	7.465043e+00	1.490661e+01
1.040000e-06	1.125257e-06	4.440389e-10	7.808101e+00	2.663325e+01
1.050000e-06	1.174262e-06	6.302618e-10	8.148145e+00	3.882121e+01
1.060000e-06	1.222944e-06	8.207910e-10	8.485944e+00	5.145389e+01
1.070000e-06	1.271385e-06	1.016501e-09	8.822077e+00	6.449802e+01
1.080000e-06	1.319466e-06	1.221371e-09	9.155705e+00	7.790276e+01
1.090000e-06	1.367056e-06	1.431943e-09	9.485935e+00	9.159985e+01
1.100000e-06	1.414128e-06	1.643165e-09	9.812567e+00	1.055050e+02
1.110000e-06	1.460699e-06	1.855151e-09	1.013572e+01	1.195206e+02
1.120000e-06	1.506722e-06	2.070063e-09	1.045507e+01	1.335391e+02
1.130000e-06	1.552183e-06	2.284541e-09	1.077052e+01	1.474472e+02
1.140000e-06	1.597231e-06	2.492621e-09	1.108311e+01	1.611314e+02
1.150000e-06	1.641948e-06	2.693148e-09	1.139339e+01	1.744821e+02
1.160000e-06	1.686287e-06	2.884164e-09	1.170106e+01	1.873992e+02
1.170000e-06	1.729993e-06	3.068780e-09	1.200434e+01	1.997956e+02
1.180000e-06	1.772745e-06	3.247551e-09	1.230099e+01	2.116010e+02
1.190000e-06	1.814474e-06	3.418638e-09	1.259054e+01	2.227638e+02
1.200000e-06	1.855469e-06	3.580488e-09	1.287501e+01	2.332524e+02
1.210000e-06	1.895992e-06	3.733143e-09	1.315619e+01	2.430544e+02
1.220000e-06	1.935956e-06	3.872882e-09	1.343350e+01	2.521757e+02
1.230000e-06	1.975296e-06	3.997440e-09	1.370648e+01	2.606377e+02
1.240000e-06	2.014006e-06	4.109947e-09	1.397508e+01	2.684743e+02
1.250000e-06	2.051943e-06	4.214591e-09	1.423833e+01	2.757285e+02
1.260000e-06	2.089154e-06	4.316773e-09	1.449653e+01	2.824480e+02
1.270000e-06	2.125889e-06	4.414040e-09	1.475143e+01	2.886827e+02
1.280000e-06	2.162092e-06	4.503043e-09	1.500265e+01	2.944807e+02
1.290000e-06	2.197372e-06	4.583979e-09	1.524746e+01	2.998868e+02
1.300000e-06	2.231491e-06	4.659915e-09	1.548421e+01	3.049401e+02
1.310000e-06	2.264653e-06	4.730069e-09	1.571432e+01	3.096734e+02
1.320000e-06	2.297168e-06	4.792676e-09	1.593993e+01	3.141137e+02
1.330000e-06	2.329002e-06	4.851159e-09	1.616083e+01	3.182816e+02
1.340000e-06	2.360063e-06	4.908907e-09	1.637636e+01	3.221934e+02
1.350000e-06	2.390324e-06	4.965089e-09	1.658634e+01	3.258617e+02
1.360000e-06	2.419749e-06	5.015693e-09	1.679052e+01	3.292970e+02
1.370000e-06	2.448537e-06	5.061928e-09	1.699027e+01	3.325088e+02
1.380000e-06	2.476623e-06	5.106169e-09	1.718516e+01	3.355067e+02
1.390000e-06	2.503557e-06	5.146522e-09	1.737206e+01	3.383008e+02
1.400000e-06	2.529255e-06	5.181016e-09	1.755037e+01	3.409023e+02
1.410000e-06	2.554013e-06	5.212959e-09	1.772217e+01	3.433233e+02
1.420000e-06	2.577948e-06	5.245896e-09	1.788825e+01	3.455763e+02
1.430000e-06	2.601026e-06	5.279335e-09	1.804839e+01	3.476739e+02
1.440000e-06	2.623217e-06	5.311199e-09	1.820237e+01	3.496280e+02
1.450000e-06	2.644564e-06	5.338182e-09	1.835049e+01	3.514496e+02
1.460000e-06	2.665149e-06	5.362242e-09	1.849334e+01	3.531480e+02
1.470000e-06	2.684915e-06	5.386695e-09	1.863049e+01	3.547307e+02
1.480000e-06	2.703719e-06	5.409423e-09	1.876097e+01	3.562036e+02
1.490000e-06	2.721565e-06	5.428021e-09	1.888480e+01	3.575711e+02
1.500000e-06	2.738474e-06	5.443506e-09	1.900213e+01	3.588364e+02
1.510000e-06	2.754285e-06	5.458496e-09	1.911184e+01	3.600021e+02
1.520000e-06	2.769049e-06	5.475979e-09	1.921429e+01	3.610707e+02
1.530000e-06	2.782796e-06	5.493876e-09	1.930968e+01	3.620451e+02
1.540000e-06	2.795481e-06	5.507160e-09	1.939770e+01	3.629287e+02
1.550000e-06	2.806974e-06	5.517863e-09	1.947746e+01	3.637256e+02
1.560000e-06	2.817107e-06	5.530269e-09	1.954776e+01	3.644405e+02
1.570000e-06	2.826141e-06	5.542177e-09	1.961045e+01	3.650786e+02
1.580000e-06	2.834307e-06	5.550373e-09	1.966711e+01	3.656448e+02
1.590000e-06	2.841570e-06	5.556990e-09	1.971751e+01	3.661435e+02
1.600000e-06	2.847804e-06	5.564065e-09	1.976077e+01	3.665781e+02
1.610000e-06	2.853111e-06	5.569143e-09	1.979759e+01	3.669506e+02
1.620000e-06	2.857648e-06	5.571354e-09	1.982908e+01	3.672613e+02
1.630000e-06	2.861147e-06	5.576017e-09	1.985335e+01	3.675091e+02
1.640000e-06	2.863382e-06	5.583838e-09	1.986886e+01	3.676917e+02
1.650000e-06	2.864529e-06	5.590270e-09	1.987683e+01	3.678056e+02
1.660000e-06	2.864771e-06	5.592447e-09	1.987850e+01	3.678474e+02
1.670000e-06	2.864127e-06	5.589771e-09	1.987403e+01	3.678142e+02
1.680000e-06	2.862607e-06	5.584493e-09	1.986349e+01	3.677042e+02
1.690000e-06	2.860224e-06	5.579981e-09	1.984695e+01	3.675175e+02
1.700000e-06	2.857113e-06	5.574117e-09	1.982537e+01	3.672563e+02
1.710000e-06	2.853139e-06	5.569216e-09	1.979779e+01	3.669251e+02
1.720000e-06	2.847855e-06	5.576289e-09	1.976112e+01	3.665306e+02
1.730000e-06	2.841378e-06	5.612789e-09	1.971618e+01	3.660809e+02
1.740000e-06	2.834170e-06	5.580042e-09	1.966616e+01	3.655854e+02
1.750000e-06	2.825974e-06	5.444648e-09	1.960929e+01	3.650532e+02
1.760000e-06	2.816114e-06	5.419064e-09	1.954087e+01	3.644925e+02
1.770000e-06	2.804749e-06	5.648261e-09	1.946201e+01	3.639098e+02
1.780000e-06	2.792973e-06	5.656213e-09	1.938030e+01	3.633087e+02
1.790000e-06	2.781095e-06	5.387285e-09	1.929788e+01	3.626897e+02
1.800000e-06	2.767937e-06	5.387348e-09	1.920658e+01	3.620499e+02
1.810000e-06	2.753006e-06	5.655170e-09	1.910297e+01	3.613832e+02
1.820000e-06	2.737324e-06	5.505118e-09	1.899416e+01	3.606808e+02
1.830000e-06	2.721061e-06	5.257015e-09	1.888131e+01	3.599320e+02
1.840000e-06	2.703457e-06	5.577693e-09	1.875915e+01	3.591250e+02
1.850000e-06	2.684784e-06	5.614802e-09	1.862958e+01	3.582485e+02
1.860000e-06	2.665590e-06	5.261265e-09	1.849640e+01	3.572921e+02
1.870000e-06	2.645412e-06	5.457438e-09	1.835638e+01	3.562478e+02
1.880000e-06	2.623952e-06	5.611467e-09	1.820747e+01	3.551105e+02
1.890000e-06	2.601495e-06	5.242422e-09	1.805165e+01	3.538782e+02
1.900000e-06	2.578022e-06	5.276795e-09	1.788877e+01	3.525522e+02
1.910000e-06	2.553623e-06	5.476170e-09	1.771946e+01	3.511365e+02
1.920000e-06	2.528556e-06	5.312785e-09	1.754552e+01	3.496374e+02
1.930000e-06	2.502636e-06	5.257309e-09	1.736566e+01	3.480627e+02
1.940000e-06	2.475879e-06	5.327656e-09	1.718000e+01	3.464204e+02
1.950000e-06	2.448550e-06	5.238252e-09	1.699037e+01	3.447179e+02
1.960000e-06	2.420162e-06	5.255119e-09	1.679338e+01	3.429614e+02
1.970000e-06	2.390462e-06	5.187924e-09	1.658730e+01	3.411547e+02
1.980000e-06	2.359838e-06	5.088502e-09	1.637479e+01	3.392998e+02
1.990000e-06	2.328490e-06	5.219228e-09	1.615727e+01	3.373958e+02
2.000000e-06	2.296453e-06	5.120925e-09	1.593497e+01	3.354402e+02
2.010000e-06	2.263637e-06	5.013183e-09	1.570726e+01	3.334288e+02
2.020000e-06	2.229939e-06	5.127758e-09	1.547344e+01	3.313564e+02
2.030000e-06	2.195549e-06	4.987315e-09	1.523481e+01	3.292180e+02
2.040000e-06	2.160594e-06	4.905506e-09	1.499225e+01	3.270092e+02
2.050000e-06	2.124952e-06	5.032768e-09	1.474494e+01	3.247268e+02
2.060000e-06	2.088576e-06	4.896703e-09	1.449252e+01	3.223696e+02
2.070000e-06	2.051156e-06	4.814755e-09	1.423287e+01	3.199377e+02
2.080000e-06	2.012670e-06	4.878684e-09	1.396582e+01	3.174332e+02
2.090000e-06	1.973568e-06	4.794944e-09	1.369449e+01	3.148595e+02
2.100000e-06	1.933905e-06	4.751006e-09	1.341927e+01	3.122206e+02
2.110000e-06	1.893546e-06	4.718534e-09	1.313922e+01	3.095206e+02
2.120000e-06	1.852569e-06	4.660657e-09	1.285488e+01	3.067630e+02
2.130000e-06	1.811012e-06	4.650761e-09	1.256652e+01	3.039500e+02
2.140000e-06	1.768834e-06	4.584958e-09	1.227385e+01	3.010824e+02
2.150000e-06	1.726106e-06	4.529156e-09	1.197737e+01	2.981590e+02
2.160000e-06	1.682982e-06	4.503614e-09	1.167813e+01	2.951769e+02
2.170000e-06	1.639463e-06	4.452919e-09	1.137615e+01	2.921318e+02
2.180000e-06	1.595263e-06	4.415378e-09	1.106945e+01	2.890184e+02
2.190000e-06	1.550331e-06	4.364333e-09	1.075767e+01	2.858312e+02
2.200000e-06	1.504856e-06	4.299662e-09	1.044212e+01	2.825650e+02
2.210000e-06	1.458995e-06	4.252519e-09	1.012389e+01	2.792155e+02
2.220000e-06	1.412757e-06	4.202632e-09	9.803051e+00	2.757801e+02
2.230000e-06	1.366019e-06	4.163255e-09	9.478735e+00	2.722580e+02
2.240000e-06	1.318661e-06	4.091794e-09	9.150124e+00	2.686502e+02
2.250000e-06	1.270622e-06	4.032802e-09	8.816780e+00	2.649592e+02
2.260000e-06	1.222029e-06	3.999492e-09	8.479595e+00	2.611890e+02
2.270000e-06	1.173063e-06	3.924298e-09	8.139827e+00	2.573441e+02
2.280000e-06	1.123717e-06	3.860953e-09	7.797417e+00	2.534290e+02
2.290000e-06	1.073974e-06	3.806416e-09	7.452251e+00	2.494473e+02
2.300000e-06	1.023763e-06	3.750647e-09	7.103841e+00	2.454015e+02
2.310000e-06	9.731049e-07	3.698035e-09	6.752326e+00	2.412924e+02
2.320000e-06	9.222157e-07	3.624915e-09	6.399209e+00	2.371187e+02
2.330000e-06	8.710672e-07	3.553947e-09	6.044291e+00	2.328772e+02
2.340000e-06	8.196151e-07	3.489245e-09	5.687268e+00	2.285632e+02
2.350000e-06	7.677453e-07	3.420417e-09	5.327346e+00	2.241709e+02
2.360000e-06	7.153229e-07	3.356481e-09	4.963590e+00	2.196938e+02
2.370000e-06	6.623999e-07	3.285764e-09	4.596360e+00	2.151255e+02
2.380000e-06	6.090840e-07	3.217759e-09	4.226403e+00	2.104604e+02
2.390000e-06	5.554665e-07	3.151849e-09	3.854354e+00	2.056935e+02
2.400000e-06	5.015288e-07	3.073760e-09	3.480083e+00	2.008216e+02
2.410000e-06	4.472964e-07	2.996406e-09	3.103767e+00	1.958422e+02
2.420000e-06	3.929247e-07	2.916048e-09	2.726485e+00	1.907542e+02
2.430000e-06	3.383943e-07	2.841715e-09	2.348101e+00	1.855568e+02
2.440000e-06	2.836935e-07	2.767559e-09	1.968535e+00	1.802494e+02
2.450000e-06	2.289159e-07	2.680481e-09	1.588436e+00	1.748305e+02
2.460000e-06	1.740832e-07	2.594541e-09	1.207955e+00	1.692977e+02
2.470000e-06	1.192188e-07	2.510111e-09	8.272534e-01	1.636467e+02
2.480000e-06	6.432478e-08	2.425180e-09	4.463465e-01	1.578714e+02
2.490000e-06	9.407634e-09	2.335307e-09	6.527910e-02	1.519640e+02
2.500000e-06	-4.551662e-08	2.240889e-09	-3.158376e-01	1.459147e+02
2.510000e-06	-1.003976e-07	2.150174e-09	-6.966539e-01	1.397129e+02
2.520000e-06	-1.552318e-07	2.058866e-09	-1.077146e+00	1.333470e+02
2.530000e-06	-2.100494e-07	1.956858e-09	-1.457522e+00	1.268057e+02
2.540000e-06	-2.648389e-07	1.847293e-09	-1.837704e+00	1.200779e+02
2.550000e-06	-3.195760e-07	1.738927e-09	-2.217522e+00	1.131534e+02
2.560000e-06	-3.741915e-07	1.635700e-09	-2.596496e+00	1.060232e+02
2.570000e-06	-4.286524e-07	1.530427e-09	-2.974398e+00	9.867876e+01
2.580000e-06	-4.828956e-07	1.416227e-09	-3.350789e+00	9.111173e+01
2.590000e-06	-5.368334e-07	1.300071e-09	-3.725060e+00	8.331324e+01
2.600000e-06	-5.904943e-07	1.180511e-09	-4.097411e+00	7.527284e+01
2.610000e-06	-6.437604e-07	1.054504e-09	-4.467021e+00	6.697755e+01
2.620000e-06	-6.965768e-07	9.193197e-10	-4.833511e+00	5.841105e+01
2.630000e-06	-7.489341e-07	7.785190e-10	-5.196816e+00	4.955319e+01
2.640000e-06	-8.008337e-07	6.387695e-10	-5.556945e+00	4.037998e+01
2.650000e-06	-8.523829e-07	4.987225e-10	-5.914642e+00	3.086420e+01
2.660000e-06	-9.036491e-07	3.523877e-10	-6.270376e+00	2.097663e+01
2.670000e-06	-9.546937e-07	1.964612e-10	-6.624572e+00	1.068807e+01
2.680000e-06	-1.005432e-06	3.429397e-11	-6.976641e+00	-2.822512e-02
2.690000e-06	-1.055770e-06	-1.342935e-10	-7.325938e+00	-1.119355e+01
2.700000e-06	-1.105677e-06	-3.110334e-10	-7.672240e+00	-2.282064e+01
2.710000e-06	-1.155123e-06	-4.968914e-10	-8.015343e+00	-3.491058e+01
2.720000e-06	-1.204152e-06	-6.885180e-10	-8.355551e+00	-4.745016e+01
2.730000e-06	-1.252627e-06	-8.843484e-10	-8.691916e+00	-6.040978e+01
2.740000e-06	-1.300427e-06	-1.085489e-09	-9.023597e+00	-7.374240e+01
2.750000e-06	-1.347529e-06	-1.294114e-09	-9.350437e+00	-8.738340e+01
2.760000e-06	-1.393950e-06	-1.508244e-09	-9.672547e+00	-1.012518e+02
2.770000e-06	-1.439899e-06	-1.722363e-09	-9.991387e+00	-1.152525e+02
2.780000e-06	-1.485438e-06	-1.937706e-09	-1.030738e+01	-1.292797e+02
2.790000e-06	-1.530574e-06	-2.155459e-09	-1.062058e+01	-1.432211e+02
2.800000e-06	-1.575296e-06	-2.371660e-09	-1.093090e+01	-1.569627e+02
2.810000e-06	-1.619489e-06	-2.577500e-09	-1.123755e+01	-1.703937e+02
2.820000e-06	-1.663134e-06	-2.773983e-09	-1.154040e+01	-1.834115e+02
2.830000e-06	-1.706350e-06	-2.965433e-09	-1.184028e+01	-1.959260e+02
2.840000e-06	-1.749146e-06	-3.149196e-09	-1.213723e+01	-2.078630e+02
2.850000e-06	-1.791333e-06	-3.320203e-09	-1.242997e+01	-2.191669e+02
2.860000e-06	-1.832893e-06	-3.477658e-09	-1.271836e+01	-2.298016e+02
2.870000e-06	-1.873920e-06	-3.629944e-09	-1.300304e+01	-2.397508e+02
2.880000e-06	-1.914331e-06	-3.779132e-09	-1.328345e+01	-2.490166e+02
2.890000e-06	-1.954038e-06	-3.918075e-09	-1.355897e+01	-2.576174e+02
2.900000e-06	-1.993199e-06	-4.041196e-09	-1.383071e+01	-2.655847e+02
2.910000e-06	-2.031766e-06	-4.153821e-09	-1.409833e+01	-2.729597e+02
2.920000e-06	-2.069523e-06	-4.259604e-09	-1.436032e+01	-2.797896e+02
2.930000e-06	-2.106303e-06	-4.357320e-09	-1.461553e+01	-2.861240e+02
2.940000e-06	-2.142069e-06	-4.447451e-09	-1.486371e+01	-2.920117e+02
