# Temperatura_=_25.09
# Concentracion g/m^3_=_15500.0
# C_Vs_to_Am_M_A/Vsm_=_65563218390.804596
# pendiente_HvsI_1/m_=_3716.3
# ordenada_HvsI_A/m_=_1297.0
# frecuencia_Hz_=_300846.51881301805

Tiempo_(s)	Campo_(V.s)	Magnetizacion_(V.s)	Campo_(kA/m)	Magnetizacion_(A/m)
0.000000e+00	-2.852538e-06	-5.693265e-09	-1.980200e+01	-3.721546e+02
1.000000e-08	-2.851502e-06	-5.695914e-09	-1.979481e+01	-3.720996e+02
2.000000e-08	-2.849481e-06	-5.694543e-09	-1.978077e+01	-3.719719e+02
3.000000e-08	-2.846158e-06	-5.690069e-09	-1.975771e+01	-3.717692e+02
4.000000e-08	-2.841828e-06	-5.684914e-09	-1.972765e+01	-3.714907e+02
5.000000e-08	-2.836749e-06	-5.674906e-09	-1.969239e+01	-3.711372e+02
6.000000e-08	-2.830807e-06	-5.648608e-09	-1.965115e+01	-3.707113e+02
7.000000e-08	-2.823866e-06	-5.630367e-09	-1.960296e+01	-3.702175e+02
8.000000e-08	-2.815848e-06	-5.691268e-09	-1.954731e+01	-3.696612e+02
9.000000e-08	-2.806541e-06	-5.773296e-09	-1.948269e+01	-3.690484e+02
1.000000e-07	-2.795793e-06	-5.681478e-09	-1.940808e+01	-3.683855e+02
1.100000e-07	-2.783958e-06	-5.465963e-09	-1.932592e+01	-3.676779e+02
1.200000e-07	-2.771432e-06	-5.541236e-09	-1.923897e+01	-3.669297e+02
1.300000e-07	-2.758015e-06	-5.759367e-09	-1.914583e+01	-3.661433e+02
1.400000e-07	-2.743575e-06	-5.613167e-09	-1.904559e+01	-3.653192e+02
1.500000e-07	-2.728191e-06	-5.404357e-09	-1.893880e+01	-3.644558e+02
1.600000e-07	-2.711412e-06	-5.643440e-09	-1.882232e+01	-3.635498e+02
1.700000e-07	-2.693311e-06	-5.698233e-09	-1.869666e+01	-3.625965e+02
1.800000e-07	-2.674601e-06	-5.401937e-09	-1.856678e+01	-3.615904e+02
1.900000e-07	-2.655216e-06	-5.497145e-09	-1.843221e+01	-3.605259e+02
2.000000e-07	-2.634804e-06	-5.606764e-09	-1.829052e+01	-3.593980e+02
2.100000e-07	-2.613521e-06	-5.363598e-09	-1.814277e+01	-3.582027e+02
2.200000e-07	-2.591496e-06	-5.393101e-09	-1.798988e+01	-3.569376e+02
2.300000e-07	-2.568521e-06	-5.596623e-09	-1.783038e+01	-3.556018e+02
2.400000e-07	-2.544599e-06	-5.427922e-09	-1.766432e+01	-3.541963e+02
2.500000e-07	-2.519941e-06	-5.309659e-09	-1.749315e+01	-3.527233e+02
2.600000e-07	-2.494488e-06	-5.398413e-09	-1.731646e+01	-3.511861e+02
2.700000e-07	-2.467980e-06	-5.360850e-09	-1.713244e+01	-3.495887e+02
2.800000e-07	-2.440342e-06	-5.287683e-09	-1.694058e+01	-3.479348e+02
2.900000e-07	-2.411721e-06	-5.281078e-09	-1.674190e+01	-3.462276e+02
3.000000e-07	-2.382281e-06	-5.256156e-09	-1.653753e+01	-3.444697e+02
3.100000e-07	-2.352150e-06	-5.296981e-09	-1.632836e+01	-3.426619e+02
3.200000e-07	-2.321295e-06	-5.252117e-09	-1.611417e+01	-3.408041e+02
3.300000e-07	-2.289597e-06	-5.126091e-09	-1.589413e+01	-3.388948e+02
3.400000e-07	-2.257211e-06	-5.159121e-09	-1.566931e+01	-3.369315e+02
3.500000e-07	-2.224273e-06	-5.121179e-09	-1.544065e+01	-3.349112e+02
3.600000e-07	-2.190510e-06	-5.043587e-09	-1.520628e+01	-3.328306e+02
3.700000e-07	-2.155581e-06	-5.092251e-09	-1.496380e+01	-3.306867e+02
3.800000e-07	-2.119592e-06	-5.034688e-09	-1.471397e+01	-3.284773e+02
3.900000e-07	-2.082970e-06	-4.927796e-09	-1.445974e+01	-3.262010e+02
4.000000e-07	-2.045776e-06	-4.979488e-09	-1.420155e+01	-3.238572e+02
4.100000e-07	-2.007819e-06	-4.951400e-09	-1.393806e+01	-3.214466e+02
4.200000e-07	-1.969121e-06	-4.829201e-09	-1.366942e+01	-3.189705e+02
4.300000e-07	-1.929677e-06	-4.814795e-09	-1.339560e+01	-3.164305e+02
4.400000e-07	-1.889558e-06	-4.807220e-09	-1.311710e+01	-3.138285e+02
4.500000e-07	-1.849041e-06	-4.758312e-09	-1.283583e+01	-3.111659e+02
4.600000e-07	-1.808160e-06	-4.713937e-09	-1.255204e+01	-3.084436e+02
4.700000e-07	-1.766571e-06	-4.667810e-09	-1.226334e+01	-3.056612e+02
4.800000e-07	-1.723877e-06	-4.618983e-09	-1.196696e+01	-3.028177e+02
4.900000e-07	-1.680170e-06	-4.589118e-09	-1.166355e+01	-2.999110e+02
5.000000e-07	-1.635867e-06	-4.541443e-09	-1.135601e+01	-2.969379e+02
5.100000e-07	-1.591151e-06	-4.479400e-09	-1.104559e+01	-2.938952e+02
5.200000e-07	-1.546034e-06	-4.434776e-09	-1.073239e+01	-2.907793e+02
5.300000e-07	-1.500406e-06	-4.395704e-09	-1.041565e+01	-2.875867e+02
5.400000e-07	-1.454165e-06	-4.353787e-09	-1.009465e+01	-2.843150e+02
5.500000e-07	-1.407371e-06	-4.293647e-09	-9.769812e+00	-2.809623e+02
5.600000e-07	-1.360082e-06	-4.225563e-09	-9.441540e+00	-2.775277e+02
5.700000e-07	-1.312272e-06	-4.174804e-09	-9.109647e+00	-2.740113e+02
5.800000e-07	-1.264040e-06	-4.141596e-09	-8.774827e+00	-2.704143e+02
5.900000e-07	-1.215540e-06	-4.079811e-09	-8.438146e+00	-2.667378e+02
6.000000e-07	-1.166735e-06	-4.008187e-09	-8.099344e+00	-2.629836e+02
6.100000e-07	-1.117431e-06	-3.954911e-09	-7.757080e+00	-2.591528e+02
6.200000e-07	-1.067546e-06	-3.900941e-09	-7.410784e+00	-2.552460e+02
6.300000e-07	-1.017039e-06	-3.837789e-09	-7.060173e+00	-2.512630e+02
6.400000e-07	-9.659074e-07	-3.765338e-09	-6.705221e+00	-2.472024e+02
6.500000e-07	-9.142420e-07	-3.698026e-09	-6.346565e+00	-2.430619e+02
6.600000e-07	-8.621376e-07	-3.639138e-09	-5.984863e+00	-2.388382e+02
6.700000e-07	-8.097495e-07	-3.581339e-09	-5.621190e+00	-2.345275e+02
6.800000e-07	-7.571530e-07	-3.509718e-09	-5.256071e+00	-2.301255e+02
6.900000e-07	-7.043480e-07	-3.434318e-09	-4.889505e+00	-2.256285e+02
7.000000e-07	-6.512879e-07	-3.365440e-09	-4.521168e+00	-2.210329e+02
7.100000e-07	-5.979263e-07	-3.298646e-09	-4.150738e+00	-2.163360e+02
7.200000e-07	-5.443066e-07	-3.225777e-09	-3.778515e+00	-2.115357e+02
7.300000e-07	-4.904908e-07	-3.145836e-09	-3.404933e+00	-2.066308e+02
7.400000e-07	-4.364752e-07	-3.069631e-09	-3.029962e+00	-2.016206e+02
7.500000e-07	-3.823363e-07	-2.995355e-09	-2.654136e+00	-1.965041e+02
7.600000e-07	-3.281197e-07	-2.915535e-09	-2.277770e+00	-1.912801e+02
7.700000e-07	-2.738074e-07	-2.825925e-09	-1.900741e+00	-1.859466e+02
7.800000e-07	-2.193811e-07	-2.739117e-09	-1.522919e+00	-1.804998e+02
7.900000e-07	-1.648631e-07	-2.659106e-09	-1.144461e+00	-1.749345e+02
8.000000e-07	-1.103239e-07	-2.575994e-09	-7.658562e-01	-1.692434e+02
8.100000e-07	-5.578744e-08	-2.484786e-09	-3.872702e-01	-1.634177e+02
8.200000e-07	-1.250419e-09	-2.390674e-09	-8.680272e-03	-1.574468e+02
8.300000e-07	5.329055e-08	-2.296181e-09	3.699370e-01	-1.513193e+02
8.400000e-07	1.078051e-07	-2.196225e-09	7.483708e-01	-1.450237e+02
8.500000e-07	1.622826e-07	-2.092069e-09	1.126548e+00	-1.385483e+02
8.600000e-07	2.167185e-07	-1.986918e-09	1.504436e+00	-1.318825e+02
8.700000e-07	2.711162e-07	-1.885907e-09	1.882058e+00	-1.250171e+02
8.800000e-07	3.254579e-07	-1.784905e-09	2.259293e+00	-1.179437e+02
8.900000e-07	3.796827e-07	-1.675183e-09	2.635715e+00	-1.106554e+02
9.000000e-07	4.337981e-07	-1.554886e-09	3.011378e+00	-1.031456e+02
9.100000e-07	4.877627e-07	-1.433043e-09	3.385994e+00	-9.540715e+01
9.200000e-07	5.415063e-07	-1.313947e-09	3.759076e+00	-8.743150e+01
9.300000e-07	5.950326e-07	-1.187816e-09	4.130650e+00	-7.920724e+01
9.400000e-07	6.483002e-07	-1.051731e-09	4.500427e+00	-7.071911e+01
9.500000e-07	7.012469e-07	-9.130190e-10	4.867977e+00	-6.194720e+01
9.600000e-07	7.539446e-07	-7.784892e-10	5.233799e+00	-5.286654e+01
9.700000e-07	8.064590e-07	-6.398911e-10	5.598348e+00	-4.344745e+01
9.800000e-07	8.587356e-07	-4.878532e-10	5.961247e+00	-3.365649e+01
9.900000e-07	9.106816e-07	-3.243706e-10	6.321850e+00	-2.345829e+01
1.000000e-06	9.621872e-07	-1.582380e-10	6.679396e+00	-1.281804e+01
1.010000e-06	1.013131e-06	8.874842e-12	7.033044e+00	-1.704555e+00
1.020000e-06	1.063400e-06	1.833520e-10	7.382004e+00	9.906207e+00
1.030000e-06	1.112957e-06	3.684546e-10	7.726025e+00	2.202759e+01
1.040000e-06	1.161996e-06	5.624867e-10	8.066449e+00	3.465886e+01
1.050000e-06	1.210740e-06	7.607518e-10	8.404819e+00	4.778232e+01
1.060000e-06	1.259242e-06	9.668790e-10	8.741518e+00	6.136133e+01
1.070000e-06	1.307403e-06	1.183245e-09	9.075848e+00	7.533935e+01
1.080000e-06	1.355096e-06	1.405299e-09	9.406926e+00	8.964028e+01
1.090000e-06	1.402263e-06	1.626530e-09	9.734356e+00	1.041701e+02
1.100000e-06	1.448907e-06	1.846428e-09	1.005815e+01	1.188199e+02
1.110000e-06	1.495026e-06	2.068063e-09	1.037830e+01	1.334699e+02
1.120000e-06	1.540559e-06	2.287999e-09	1.069439e+01	1.479945e+02
1.130000e-06	1.585573e-06	2.502875e-09	1.100687e+01	1.622675e+02
1.140000e-06	1.630230e-06	2.712314e-09	1.131687e+01	1.761682e+02
1.150000e-06	1.674609e-06	2.914922e-09	1.162495e+01	1.895867e+02
1.160000e-06	1.718438e-06	3.107154e-09	1.192921e+01	2.024281e+02
1.170000e-06	1.761398e-06	3.291410e-09	1.222743e+01	2.146168e+02
1.180000e-06	1.803372e-06	3.467315e-09	1.251881e+01	2.260987e+02
1.190000e-06	1.844509e-06	3.630601e-09	1.280437e+01	2.368422e+02
1.200000e-06	1.885113e-06	3.780026e-09	1.308625e+01	2.468380e+02
1.210000e-06	1.925238e-06	3.917113e-09	1.336479e+01	2.560971e+02
1.220000e-06	1.964730e-06	4.044677e-09	1.363894e+01	2.646480e+02
1.230000e-06	2.003547e-06	4.162322e-09	1.390840e+01	2.725333e+02
1.240000e-06	2.041669e-06	4.270606e-09	1.417303e+01	2.798050e+02
1.250000e-06	2.079031e-06	4.372004e-09	1.443240e+01	2.865206e+02
1.260000e-06	2.115819e-06	4.468591e-09	1.468778e+01	2.927388e+02
1.270000e-06	2.152154e-06	4.557487e-09	1.494001e+01	2.985158e+02
1.280000e-06	2.187696e-06	4.637015e-09	1.518674e+01	3.039026e+02
1.290000e-06	2.222167e-06	4.710224e-09	1.542603e+01	3.089431e+02
1.300000e-06	2.255603e-06	4.779247e-09	1.565814e+01	3.136731e+02
1.310000e-06	2.288234e-06	4.843887e-09	1.588467e+01	3.181206e+02
1.320000e-06	2.320200e-06	4.906604e-09	1.610657e+01	3.223059e+02
1.330000e-06	2.351415e-06	4.968006e-09	1.632326e+01	3.262435e+02
1.340000e-06	2.381843e-06	5.022832e-09	1.653449e+01	3.299435e+02
1.350000e-06	2.411416e-06	5.069481e-09	1.673978e+01	3.334136e+02
1.360000e-06	2.440274e-06	5.113364e-09	1.694011e+01	3.366608e+02
1.370000e-06	2.468531e-06	5.159999e-09	1.713627e+01	3.396924e+02
1.380000e-06	2.495852e-06	5.205091e-09	1.732593e+01	3.425173e+02
1.390000e-06	2.521911e-06	5.241482e-09	1.750683e+01	3.451465e+02
1.400000e-06	2.546910e-06	5.271910e-09	1.768037e+01	3.475928e+02
1.410000e-06	2.571036e-06	5.304636e-09	1.784784e+01	3.498705e+02
1.420000e-06	2.594264e-06	5.339652e-09	1.800909e+01	3.519947e+02
1.430000e-06	2.616668e-06	5.368778e-09	1.816462e+01	3.539801e+02
1.440000e-06	2.638210e-06	5.391421e-09	1.831416e+01	3.558404e+02
1.450000e-06	2.658970e-06	5.416344e-09	1.845828e+01	3.575874e+02
1.460000e-06	2.678982e-06	5.446461e-09	1.859719e+01	3.592303e+02
1.470000e-06	2.698035e-06	5.473173e-09	1.872945e+01	3.607756e+02
1.480000e-06	2.716086e-06	5.492211e-09	1.885476e+01	3.622269e+02
1.490000e-06	2.733199e-06	5.509370e-09	1.897356e+01	3.635859e+02
1.500000e-06	2.749264e-06	5.528477e-09	1.908509e+01	3.648524e+02
1.510000e-06	2.764225e-06	5.546911e-09	1.918894e+01	3.660252e+02
1.520000e-06	2.778147e-06	5.561645e-09	1.928559e+01	3.671032e+02
1.530000e-06	2.791077e-06	5.573722e-09	1.937534e+01	3.680857e+02
1.540000e-06	2.802916e-06	5.588163e-09	1.945753e+01	3.689733e+02
1.550000e-06	2.813427e-06	5.605570e-09	1.953050e+01	3.697680e+02
1.560000e-06	2.822698e-06	5.619364e-09	1.959485e+01	3.704731e+02
1.570000e-06	2.831047e-06	5.627528e-09	1.965281e+01	3.710936e+02
1.580000e-06	2.838504e-06	5.634417e-09	1.970458e+01	3.716347e+02
1.590000e-06	2.844971e-06	5.644087e-09	1.974947e+01	3.721023e+02
1.600000e-06	2.850503e-06	5.652594e-09	1.978788e+01	3.725017e+02
1.610000e-06	2.855240e-06	5.655702e-09	1.982076e+01	3.728371e+02
1.620000e-06	2.859069e-06	5.657064e-09	1.984734e+01	3.731116e+02
1.630000e-06	2.861676e-06	5.661241e-09	1.986544e+01	3.733262e+02
1.640000e-06	2.863081e-06	5.667509e-09	1.987519e+01	3.734804e+02
1.650000e-06	2.863558e-06	5.672131e-09	1.987850e+01	3.735724e+02
1.660000e-06	2.863183e-06	5.673207e-09	1.987589e+01	3.735989e+02
1.670000e-06	2.861891e-06	5.671381e-09	1.986692e+01	3.735565e+02
1.680000e-06	2.859685e-06	5.669438e-09	1.985161e+01	3.734420e+02
1.690000e-06	2.856649e-06	5.665616e-09	1.983054e+01	3.732528e+02
1.700000e-06	2.852790e-06	5.658383e-09	1.980375e+01	3.729877e+02
1.710000e-06	2.847802e-06	5.656743e-09	1.976913e+01	3.726475e+02
1.720000e-06	2.841618e-06	5.678686e-09	1.972620e+01	3.722343e+02
1.730000e-06	2.834552e-06	5.679342e-09	1.967715e+01	3.717522e+02
1.740000e-06	2.826615e-06	5.571232e-09	1.962205e+01	3.712065e+02
1.750000e-06	2.817307e-06	5.496926e-09	1.955743e+01	3.706034e+02
1.760000e-06	2.806407e-06	5.644959e-09	1.948176e+01	3.699490e+02
1.770000e-06	2.794679e-06	5.787002e-09	1.940035e+01	3.692489e+02
1.780000e-06	2.782877e-06	5.581854e-09	1.931842e+01	3.685077e+02
1.790000e-06	2.770287e-06	5.419283e-09	1.923102e+01	3.677280e+02
1.800000e-06	2.755902e-06	5.652524e-09	1.913117e+01	3.669107e+02
1.810000e-06	2.740427e-06	5.669335e-09	1.902374e+01	3.660545e+02
1.820000e-06	2.724518e-06	5.374437e-09	1.891330e+01	3.651564e+02
1.830000e-06	2.707396e-06	5.487829e-09	1.879444e+01	3.642119e+02
1.840000e-06	2.688883e-06	5.729017e-09	1.866593e+01	3.632156e+02
1.850000e-06	2.669743e-06	5.457548e-09	1.853306e+01	3.621619e+02
1.860000e-06	2.649898e-06	5.390693e-09	1.839529e+01	3.610456e+02
1.870000e-06	2.628773e-06	5.680131e-09	1.824865e+01	3.598626e+02
1.880000e-06	2.606584e-06	5.451668e-09	1.809461e+01	3.586100e+02
1.890000e-06	2.583491e-06	5.242299e-09	1.793430e+01	3.572868e+02
1.900000e-06	2.559355e-06	5.498926e-09	1.776676e+01	3.558936e+02
1.910000e-06	2.534456e-06	5.466417e-09	1.759391e+01	3.544324e+02
1.920000e-06	2.508804e-06	5.319482e-09	1.741584e+01	3.529064e+02
1.930000e-06	2.482200e-06	5.390082e-09	1.723115e+01	3.513194e+02
1.940000e-06	2.454928e-06	5.338751e-09	1.704184e+01	3.496752e+02
1.950000e-06	2.426837e-06	5.308624e-09	1.684683e+01	3.479774e+02
1.960000e-06	2.397489e-06	5.304724e-09	1.664310e+01	3.462284e+02
1.970000e-06	2.367101e-06	5.156924e-09	1.643215e+01	3.444294e+02
1.980000e-06	2.335941e-06	5.222052e-09	1.621584e+01	3.425806e+02
1.990000e-06	2.304038e-06	5.282024e-09	1.599437e+01	3.406807e+02
2.000000e-06	2.271471e-06	5.097957e-09	1.576830e+01	3.387272e+02
2.010000e-06	2.238098e-06	5.148337e-09	1.553663e+01	3.367173e+02
2.020000e-06	2.203880e-06	5.158813e-09	1.529909e+01	3.346476e+02
2.030000e-06	2.169105e-06	4.977404e-09	1.505768e+01	3.325152e+02
2.040000e-06	2.133723e-06	5.054699e-09	1.481207e+01	3.303177e+02
2.050000e-06	2.097613e-06	5.055789e-09	1.456139e+01	3.280533e+02
2.060000e-06	2.060554e-06	4.898821e-09	1.430413e+01	3.257215e+02
2.070000e-06	2.022314e-06	4.944164e-09	1.403868e+01	3.233227e+02
2.080000e-06	1.983294e-06	4.936712e-09	1.376781e+01	3.208582e+02
2.090000e-06	1.943794e-06	4.840695e-09	1.349360e+01	3.183294e+02
2.100000e-06	1.903627e-06	4.820936e-09	1.321477e+01	3.157384e+02
2.110000e-06	1.862781e-06	4.760229e-09	1.293122e+01	3.130865e+02
2.120000e-06	1.821348e-06	4.729745e-09	1.264359e+01	3.103748e+02
2.130000e-06	1.779343e-06	4.705633e-09	1.235200e+01	3.076032e+02
2.140000e-06	1.736759e-06	4.637509e-09	1.205638e+01	3.047707e+02
2.150000e-06	1.693672e-06	4.609835e-09	1.175728e+01	3.018754e+02
2.160000e-06	1.650217e-06	4.569528e-09	1.145562e+01	2.989144e+02
2.170000e-06	1.606220e-06	4.523178e-09	1.115020e+01	2.958844e+02
2.180000e-06	1.561540e-06	4.477478e-09	1.084004e+01	2.927817e+02
2.190000e-06	1.516229e-06	4.412557e-09	1.052549e+01	2.896031e+02
2.200000e-06	1.470346e-06	4.357358e-09	1.020698e+01	2.863456e+02
2.210000e-06	1.424123e-06	4.315280e-09	9.886103e+00	2.830074e+02
2.220000e-06	1.377524e-06	4.281125e-09	9.562614e+00	2.795874e+02
2.230000e-06	1.330332e-06	4.225046e-09	9.235015e+00	2.760856e+02
2.240000e-06	1.282501e-06	4.151044e-09	8.902978e+00	2.725028e+02
2.250000e-06	1.234073e-06	4.113964e-09	8.566799e+00	2.688404e+02
2.260000e-06	1.185200e-06	4.061873e-09	8.227523e+00	2.650999e+02
2.270000e-06	1.135923e-06	3.983619e-09	7.885452e+00	2.612827e+02
2.280000e-06	1.086223e-06	3.927129e-09	7.540441e+00	2.573895e+02
2.290000e-06	1.036101e-06	3.871080e-09	7.192498e+00	2.534201e+02
2.300000e-06	9.855439e-07	3.824462e-09	6.841535e+00	2.493735e+02
2.310000e-06	9.346357e-07	3.764493e-09	6.488137e+00	2.452475e+02
2.320000e-06	8.834877e-07	3.686165e-09	6.133073e+00	2.410389e+02
2.330000e-06	8.321253e-07	3.619629e-09	5.776520e+00	2.367439e+02
2.340000e-06	7.804351e-07	3.552614e-09	5.417693e+00	2.323586e+02
2.350000e-06	7.282831e-07	3.486871e-09	5.055660e+00	2.278788e+02
2.360000e-06	6.756607e-07	3.416126e-09	4.690361e+00	2.233010e+02
2.370000e-06	6.225907e-07	3.342548e-09	4.321955e+00	2.186223e+02
2.380000e-06	5.691261e-07	3.277998e-09	3.950810e+00	2.138405e+02
2.390000e-06	5.153095e-07	3.208852e-09	3.577221e+00	2.089544e+02
2.400000e-06	4.611535e-07	3.131498e-09	3.201276e+00	2.039629e+02
2.410000e-06	4.068673e-07	3.049131e-09	2.824427e+00	1.988655e+02
2.420000e-06	3.524688e-07	2.966764e-09	2.446799e+00	1.936608e+02
2.430000e-06	2.977951e-07	2.891247e-09	2.067261e+00	1.883470e+02
2.440000e-06	2.430143e-07	2.807914e-09	1.686978e+00	1.829208e+02
2.450000e-06	1.882021e-07	2.718636e-09	1.306478e+00	1.773771e+02
2.460000e-06	1.333281e-07	2.635737e-09	9.255488e-01	1.717091e+02
2.470000e-06	7.844962e-08	2.554422e-09	5.445885e-01	1.659080e+02
2.480000e-06	2.355203e-08	2.470489e-09	1.634955e-01	1.599639e+02
2.490000e-06	-3.140051e-08	2.375870e-09	-2.179788e-01	1.538652e+02
2.500000e-06	-8.639373e-08	2.276619e-09	-5.997356e-01	1.476004e+02
2.510000e-06	-1.413388e-07	2.180236e-09	-9.811579e-01	1.411579e+02
2.520000e-06	-1.962428e-07	2.079431e-09	-1.362296e+00	1.345269e+02
2.530000e-06	-2.510881e-07	1.972158e-09	-1.743026e+00	1.276976e+02
2.540000e-06	-3.058221e-07	1.863468e-09	-2.122983e+00	1.206619e+02
2.550000e-06	-3.604185e-07	1.758226e-09	-2.501985e+00	1.134125e+02
2.560000e-06	-4.148594e-07	1.652280e-09	-2.879908e+00	1.059427e+02
2.570000e-06	-4.691300e-07	1.537396e-09	-3.256648e+00	9.824562e+01
2.580000e-06	-5.230862e-07	1.416265e-09	-3.631206e+00	9.031304e+01
2.590000e-06	-5.766792e-07	1.293134e-09	-4.003243e+00	8.213414e+01
2.600000e-06	-6.299138e-07	1.165392e-09	-4.372791e+00	7.369443e+01
2.610000e-06	-6.827975e-07	1.031229e-09	-4.739904e+00	6.497485e+01
2.620000e-06	-7.352391e-07	8.885174e-10	-5.103947e+00	5.595135e+01
2.630000e-06	-7.872094e-07	7.418145e-10	-5.464720e+00	4.659502e+01
2.640000e-06	-8.388190e-07	5.959508e-10	-5.822988e+00	3.687301e+01
2.650000e-06	-8.901323e-07	4.461870e-10	-6.179199e+00	2.675011e+01
2.660000e-06	-9.412167e-07	2.893191e-10	-6.533821e+00	1.619121e+01
2.670000e-06	-9.920275e-07	1.237740e-10	-6.886544e+00	5.164219e+00
2.680000e-06	-1.042469e-06	-4.946168e-11	-7.236705e+00	-6.356436e+00
2.690000e-06	-1.092467e-06	-2.322409e-10	-7.583784e+00	-1.838627e+01
2.700000e-06	-1.141956e-06	-4.263881e-10	-7.927331e+00	-3.092729e+01
2.710000e-06	-1.190969e-06	-6.280802e-10	-8.267574e+00	-4.396501e+01
2.720000e-06	-1.239599e-06	-8.336187e-10	-8.605160e+00	-5.746627e+01
2.730000e-06	-1.287669e-06	-1.044321e-09	-8.938855e+00	-7.137810e+01
2.740000e-06	-1.334927e-06	-1.261533e-09	-9.266917e+00	-8.562780e+01
2.750000e-06	-1.381407e-06	-1.483280e-09	-9.589575e+00	-1.001244e+02
2.760000e-06	-1.427321e-06	-1.705956e-09	-9.908304e+00	-1.147613e+02
2.770000e-06	-1.472874e-06	-1.929150e-09	-1.022452e+01	-1.294205e+02
2.780000e-06	-1.518143e-06	-2.155608e-09	-1.053878e+01	-1.439767e+02
2.790000e-06	-1.563037e-06	-2.379658e-09	-1.085043e+01	-1.583038e+02
2.800000e-06	-1.607364e-06	-2.595908e-09	-1.115814e+01	-1.722795e+02
2.810000e-06	-1.651091e-06	-2.803616e-09	-1.146169e+01	-1.857915e+02
2.820000e-06	-1.694419e-06	-3.003997e-09	-1.176247e+01	-1.987421e+02
2.830000e-06	-1.737425e-06	-3.193576e-09	-1.206101e+01	-2.110520e+02
2.840000e-06	-1.779896e-06	-3.369684e-09	-1.235584e+01	-2.226631e+02
2.850000e-06	-1.821705e-06	-3.533758e-09	-1.264607e+01	-2.335399e+02
2.860000e-06	-1.862924e-06	-3.685779e-09	-1.293221e+01	-2.436690e+02
2.870000e-06	-1.903530e-06	-3.829279e-09	-1.321409e+01	-2.530580e+02
2.880000e-06	-1.943419e-06	-3.967598e-09	-1.349100e+01	-2.617326e+02
2.890000e-06	-1.982722e-06	-4.098439e-09	-1.376383e+01	-2.697332e+02
2.900000e-06	-2.021532e-06	-4.216896e-09	-1.403325e+01	-2.771104e+02
2.910000e-06	-2.059528e-06	-4.322374e-09	-1.429701e+01	-2.839210e+02
2.920000e-06	-2.096457e-06	-4.416461e-09	-1.455337e+01	-2.902238e+02
2.930000e-06	-2.132420e-06	-4.502933e-09	-1.480302e+01	-2.960757e+02
2.940000e-06	-2.167694e-06	-4.586255e-09	-1.504789e+01	-3.015287e+02
