# Temperatura_=_23.22
# Concentracion g/m^3_=_15500.0
# C_Vs_to_Am_M_A/Vsm_=_65563218390.804596
# pendiente_HvsI_1/m_=_3716.3
# ordenada_HvsI_A/m_=_1297.0
# frecuencia_Hz_=_300838.18770074646

Tiempo_(s)	Campo_(V.s)	Magnetizacion_(V.s)	Campo_(kA/m)	Magnetizacion_(A/m)
0.000000e+00	-2.850025e-06	-5.630653e-09	-1.980625e+01	-3.678233e+02
1.000000e-08	-2.849549e-06	-5.630246e-09	-1.980293e+01	-3.677939e+02
2.000000e-08	-2.848356e-06	-5.632728e-09	-1.979464e+01	-3.676881e+02
3.000000e-08	-2.846144e-06	-5.632987e-09	-1.977927e+01	-3.675055e+02
4.000000e-08	-2.842602e-06	-5.631241e-09	-1.975466e+01	-3.672471e+02
5.000000e-08	-2.838073e-06	-5.625441e-09	-1.972319e+01	-3.669159e+02
6.000000e-08	-2.832862e-06	-5.609536e-09	-1.968697e+01	-3.665163e+02
7.000000e-08	-2.826754e-06	-5.576715e-09	-1.964453e+01	-3.660546e+02
8.000000e-08	-2.819634e-06	-5.560864e-09	-1.959504e+01	-3.655377e+02
9.000000e-08	-2.811459e-06	-5.643613e-09	-1.953823e+01	-3.649728e+02
1.000000e-07	-2.802051e-06	-5.727238e-09	-1.947285e+01	-3.643665e+02
1.100000e-07	-2.791177e-06	-5.605489e-09	-1.939728e+01	-3.637244e+02
1.200000e-07	-2.779172e-06	-5.371025e-09	-1.931385e+01	-3.630497e+02
1.300000e-07	-2.766462e-06	-5.498922e-09	-1.922552e+01	-3.623434e+02
1.400000e-07	-2.752809e-06	-5.739895e-09	-1.913064e+01	-3.616038e+02
1.500000e-07	-2.738187e-06	-5.501601e-09	-1.902903e+01	-3.608267e+02
1.600000e-07	-2.722645e-06	-5.330877e-09	-1.892102e+01	-3.600059e+02
1.700000e-07	-2.705768e-06	-5.628349e-09	-1.880373e+01	-3.591334e+02
1.800000e-07	-2.687583e-06	-5.614064e-09	-1.867735e+01	-3.582010e+02
1.900000e-07	-2.668709e-06	-5.286883e-09	-1.854619e+01	-3.572004e+02
2.000000e-07	-2.649167e-06	-5.453123e-09	-1.841038e+01	-3.561245e+02
2.100000e-07	-2.628688e-06	-5.555591e-09	-1.826807e+01	-3.549684e+02
2.200000e-07	-2.607387e-06	-5.246651e-09	-1.812003e+01	-3.537293e+02
2.300000e-07	-2.585320e-06	-5.348816e-09	-1.796668e+01	-3.524072e+02
2.400000e-07	-2.562223e-06	-5.559873e-09	-1.780617e+01	-3.510049e+02
2.500000e-07	-2.538148e-06	-5.297167e-09	-1.763886e+01	-3.495272e+02
2.600000e-07	-2.513425e-06	-5.213527e-09	-1.746705e+01	-3.479805e+02
2.700000e-07	-2.487903e-06	-5.357191e-09	-1.728968e+01	-3.463723e+02
2.800000e-07	-2.461280e-06	-5.276655e-09	-1.710466e+01	-3.447098e+02
2.900000e-07	-2.433463e-06	-5.211299e-09	-1.691134e+01	-3.429993e+02
3.000000e-07	-2.404664e-06	-5.218678e-09	-1.671121e+01	-3.412454e+02
3.100000e-07	-2.375088e-06	-5.191309e-09	-1.650567e+01	-3.394507e+02
3.200000e-07	-2.344814e-06	-5.209328e-09	-1.629528e+01	-3.376154e+02
3.300000e-07	-2.313869e-06	-5.148756e-09	-1.608023e+01	-3.357374e+02
3.400000e-07	-2.282097e-06	-5.045015e-09	-1.585943e+01	-3.338128e+02
3.500000e-07	-2.249613e-06	-5.085726e-09	-1.563368e+01	-3.318363e+02
3.600000e-07	-2.216566e-06	-5.043866e-09	-1.540402e+01	-3.298020e+02
3.700000e-07	-2.182723e-06	-4.985567e-09	-1.516883e+01	-3.277044e+02
3.800000e-07	-2.147730e-06	-5.032149e-09	-1.492565e+01	-3.255388e+02
3.900000e-07	-2.111654e-06	-4.935137e-09	-1.467494e+01	-3.233020e+02
4.000000e-07	-2.074947e-06	-4.852858e-09	-1.441984e+01	-3.209928e+02
4.100000e-07	-2.037662e-06	-4.911361e-09	-1.416073e+01	-3.186119e+02
4.200000e-07	-1.999591e-06	-4.859967e-09	-1.389616e+01	-3.161617e+02
4.300000e-07	-1.960810e-06	-4.748480e-09	-1.362664e+01	-3.136460e+02
4.400000e-07	-1.921356e-06	-4.752483e-09	-1.335246e+01	-3.110693e+02
4.500000e-07	-1.881238e-06	-4.735958e-09	-1.307366e+01	-3.084362e+02
4.600000e-07	-1.840654e-06	-4.679868e-09	-1.279162e+01	-3.057504e+02
4.700000e-07	-1.799742e-06	-4.629619e-09	-1.250731e+01	-3.030143e+02
4.800000e-07	-1.758168e-06	-4.576466e-09	-1.221839e+01	-3.002286e+02
4.900000e-07	-1.715489e-06	-4.538913e-09	-1.192179e+01	-2.973918e+02
5.000000e-07	-1.671795e-06	-4.512127e-09	-1.161814e+01	-2.945007e+02
5.100000e-07	-1.627443e-06	-4.466101e-09	-1.130991e+01	-2.915502e+02
5.200000e-07	-1.582692e-06	-4.396983e-09	-1.099891e+01	-2.885342e+02
5.300000e-07	-1.537551e-06	-4.351547e-09	-1.068521e+01	-2.854460e+02
5.400000e-07	-1.491879e-06	-4.312370e-09	-1.036781e+01	-2.822792e+02
5.500000e-07	-1.445648e-06	-4.269134e-09	-1.004653e+01	-2.790285e+02
5.600000e-07	-1.398913e-06	-4.207674e-09	-9.721745e+00	-2.756897e+02
5.700000e-07	-1.351628e-06	-4.143961e-09	-9.393135e+00	-2.722607e+02
5.800000e-07	-1.303775e-06	-4.100580e-09	-9.060579e+00	-2.687411e+02
5.900000e-07	-1.255513e-06	-4.058660e-09	-8.725187e+00	-2.651325e+02
6.000000e-07	-1.206953e-06	-3.989128e-09	-8.387718e+00	-2.614376e+02
6.100000e-07	-1.158035e-06	-3.918178e-09	-8.047762e+00	-2.576600e+02
6.200000e-07	-1.108700e-06	-3.871177e-09	-7.704910e+00	-2.538035e+02
6.300000e-07	-1.058837e-06	-3.817915e-09	-7.358383e+00	-2.498711e+02
6.400000e-07	-1.008362e-06	-3.755222e-09	-7.007611e+00	-2.458651e+02
6.500000e-07	-9.573083e-07	-3.685259e-09	-6.652813e+00	-2.417858e+02
6.600000e-07	-9.057017e-07	-3.620862e-09	-6.294172e+00	-2.376320e+02
6.700000e-07	-8.536303e-07	-3.560655e-09	-5.932302e+00	-2.334007e+02
6.800000e-07	-8.012549e-07	-3.494086e-09	-5.568320e+00	-2.290873e+02
6.900000e-07	-7.486485e-07	-3.418682e-09	-5.202732e+00	-2.246863e+02
7.000000e-07	-6.957964e-07	-3.345082e-09	-4.835436e+00	-2.201918e+02
7.100000e-07	-6.427298e-07	-3.282057e-09	-4.466650e+00	-2.155976e+02
7.200000e-07	-5.894599e-07	-3.215372e-09	-4.096451e+00	-2.108988e+02
7.300000e-07	-5.359573e-07	-3.139448e-09	-3.724635e+00	-2.060911e+02
7.400000e-07	-4.822419e-07	-3.057986e-09	-3.351340e+00	-2.011717e+02
7.500000e-07	-4.283251e-07	-2.982520e-09	-2.976644e+00	-1.961392e+02
7.600000e-07	-3.742103e-07	-2.908049e-09	-2.600574e+00	-1.909931e+02
7.700000e-07	-3.199375e-07	-2.824731e-09	-2.223405e+00	-1.857335e+02
7.800000e-07	-2.655824e-07	-2.733745e-09	-1.845664e+00	-1.803605e+02
7.900000e-07	-2.111719e-07	-2.647218e-09	-1.467539e+00	-1.748738e+02
8.000000e-07	-1.567380e-07	-2.569734e-09	-1.089250e+00	-1.692715e+02
8.100000e-07	-1.023027e-07	-2.484701e-09	-7.109521e-01	-1.635504e+02
8.200000e-07	-4.786589e-08	-2.390710e-09	-3.326439e-01	-1.577050e+02
8.300000e-07	6.588853e-09	-2.296808e-09	4.578922e-02	-1.517280e+02
8.400000e-07	6.110399e-08	-2.205846e-09	4.246421e-01	-1.456101e+02
8.500000e-07	1.156180e-07	-2.107825e-09	8.034874e-01	-1.393407e+02
8.600000e-07	1.701166e-07	-2.003184e-09	1.182225e+00	-1.329084e+02
8.700000e-07	2.245937e-07	-1.898084e-09	1.560814e+00	-1.263015e+02
8.800000e-07	2.789569e-07	-1.795277e-09	1.938611e+00	-1.195085e+02
8.900000e-07	3.331603e-07	-1.692052e-09	2.315297e+00	-1.125186e+02
9.000000e-07	3.872664e-07	-1.580175e-09	2.691307e+00	-1.053218e+02
9.100000e-07	4.412627e-07	-1.463334e-09	3.066555e+00	-9.790855e+01
9.200000e-07	4.950528e-07	-1.346832e-09	3.440369e+00	-9.026951e+01
9.300000e-07	5.485794e-07	-1.229079e-09	3.812352e+00	-8.239470e+01
9.400000e-07	6.018610e-07	-1.101672e-09	4.182632e+00	-7.427263e+01
9.500000e-07	6.549724e-07	-9.692339e-10	4.551730e+00	-6.588938e+01
9.600000e-07	7.078953e-07	-8.367736e-10	4.919518e+00	-5.722786e+01
9.700000e-07	7.605790e-07	-7.036098e-10	5.285643e+00	-4.826738e+01
9.800000e-07	8.129902e-07	-5.619239e-10	5.649874e+00	-3.898367e+01
9.900000e-07	8.651281e-07	-4.090467e-10	6.012207e+00	-2.934952e+01
1.000000e-06	9.168766e-07	-2.529841e-10	6.371833e+00	-1.933612e+01
1.010000e-06	9.681207e-07	-9.330927e-11	6.727954e+00	-8.914972e+00
1.020000e-06	1.018769e-06	7.285968e-11	7.079934e+00	1.939549e+00
1.030000e-06	1.068718e-06	2.467612e-10	7.427052e+00	1.324725e+01
1.040000e-06	1.118112e-06	4.248467e-10	7.770319e+00	2.501901e+01
1.050000e-06	1.167109e-06	6.087113e-10	8.110822e+00	3.725372e+01
1.060000e-06	1.215791e-06	8.003287e-10	8.449139e+00	4.993562e+01
1.070000e-06	1.264211e-06	1.001324e-09	8.785635e+00	6.303236e+01
1.080000e-06	1.312278e-06	1.209594e-09	9.119677e+00	7.649390e+01
1.090000e-06	1.359843e-06	1.419936e-09	9.450226e+00	9.025257e+01
1.100000e-06	1.406885e-06	1.631648e-09	9.777144e+00	1.042243e+02
1.110000e-06	1.453398e-06	1.844850e-09	1.010039e+01	1.183110e+02
1.120000e-06	1.499358e-06	2.059975e-09	1.041979e+01	1.324043e+02
1.130000e-06	1.544777e-06	2.270499e-09	1.073543e+01	1.463894e+02
1.140000e-06	1.589754e-06	2.475252e-09	1.104799e+01	1.601507e+02
1.150000e-06	1.634421e-06	2.676817e-09	1.135841e+01	1.735761e+02
1.160000e-06	1.678702e-06	2.874504e-09	1.166614e+01	1.865627e+02
1.170000e-06	1.722401e-06	3.064662e-09	1.196982e+01	1.990208e+02
1.180000e-06	1.765190e-06	3.243781e-09	1.226718e+01	2.108775e+02
1.190000e-06	1.806994e-06	3.413117e-09	1.255770e+01	2.220793e+02
1.200000e-06	1.848088e-06	3.574145e-09	1.284329e+01	2.325932e+02
1.210000e-06	1.888646e-06	3.725287e-09	1.312515e+01	2.424062e+02
1.220000e-06	1.928683e-06	3.861684e-09	1.340338e+01	2.515248e+02
1.230000e-06	1.968071e-06	3.984651e-09	1.367711e+01	2.599716e+02
1.240000e-06	2.006760e-06	4.099384e-09	1.394597e+01	2.677827e+02
1.250000e-06	2.044712e-06	4.207782e-09	1.420972e+01	2.750038e+02
1.260000e-06	2.081954e-06	4.308579e-09	1.446854e+01	2.816861e+02
1.270000e-06	2.118673e-06	4.401212e-09	1.472371e+01	2.878827e+02
1.280000e-06	2.154830e-06	4.487813e-09	1.497499e+01	2.936455e+02
1.290000e-06	2.190117e-06	4.569999e-09	1.522021e+01	2.990219e+02
1.300000e-06	2.224310e-06	4.644947e-09	1.545784e+01	3.040537e+02
1.310000e-06	2.257563e-06	4.710802e-09	1.568893e+01	3.087756e+02
1.320000e-06	2.290121e-06	4.772572e-09	1.591519e+01	3.132153e+02
1.330000e-06	2.321991e-06	4.835172e-09	1.613667e+01	3.173939e+02
1.340000e-06	2.353099e-06	4.896943e-09	1.635286e+01	3.213271e+02
1.350000e-06	2.383439e-06	4.951749e-09	1.656370e+01	3.250264e+02
1.360000e-06	2.412943e-06	4.999324e-09	1.676874e+01	3.285010e+02
1.370000e-06	2.441710e-06	5.044964e-09	1.696866e+01	3.317587e+02
1.380000e-06	2.469805e-06	5.091025e-09	1.716391e+01	3.348078e+02
1.390000e-06	2.496850e-06	5.134441e-09	1.735186e+01	3.376571e+02
1.400000e-06	2.522687e-06	5.171292e-09	1.753141e+01	3.403172e+02
1.410000e-06	2.547540e-06	5.203250e-09	1.770413e+01	3.427996e+02
1.420000e-06	2.571550e-06	5.235455e-09	1.787098e+01	3.451170e+02
1.430000e-06	2.594677e-06	5.270509e-09	1.803171e+01	3.472826e+02
1.440000e-06	2.616898e-06	5.303042e-09	1.818613e+01	3.493092e+02
1.450000e-06	2.638296e-06	5.329325e-09	1.833484e+01	3.512082e+02
1.460000e-06	2.659013e-06	5.353013e-09	1.847881e+01	3.529900e+02
1.470000e-06	2.678937e-06	5.377970e-09	1.861727e+01	3.546623e+02
1.480000e-06	2.697860e-06	5.403244e-09	1.874878e+01	3.562310e+02
1.490000e-06	2.715807e-06	5.424702e-09	1.887350e+01	3.576999e+02
1.500000e-06	2.732786e-06	5.442736e-09	1.899149e+01	3.590710e+02
1.510000e-06	2.748659e-06	5.460918e-09	1.910180e+01	3.603451e+02
1.520000e-06	2.763400e-06	5.480705e-09	1.920425e+01	3.615226e+02
1.530000e-06	2.777147e-06	5.498190e-09	1.929978e+01	3.626038e+02
1.540000e-06	2.789898e-06	5.511270e-09	1.938839e+01	3.635897e+02
1.550000e-06	2.801466e-06	5.523200e-09	1.946878e+01	3.644821e+02
1.560000e-06	2.811749e-06	5.535691e-09	1.954025e+01	3.652836e+02
1.570000e-06	2.820900e-06	5.548015e-09	1.960384e+01	3.659981e+02
1.580000e-06	2.829143e-06	5.558701e-09	1.966113e+01	3.666296e+02
1.590000e-06	2.836498e-06	5.567260e-09	1.971224e+01	3.671828e+02
1.600000e-06	2.842883e-06	5.575660e-09	1.975661e+01	3.676616e+02
1.610000e-06	2.848332e-06	5.583472e-09	1.979448e+01	3.680695e+02
1.620000e-06	2.852951e-06	5.587520e-09	1.982658e+01	3.684087e+02
1.630000e-06	2.856592e-06	5.588858e-09	1.985188e+01	3.686799e+02
1.640000e-06	2.858950e-06	5.592380e-09	1.986827e+01	3.688829e+02
1.650000e-06	2.860143e-06	5.597758e-09	1.987656e+01	3.690161e+02
1.660000e-06	2.860422e-06	5.601877e-09	1.987850e+01	3.690773e+02
1.670000e-06	2.859828e-06	5.602362e-09	1.987437e+01	3.690641e+02
1.680000e-06	2.858349e-06	5.599472e-09	1.986410e+01	3.689749e+02
1.690000e-06	2.855994e-06	5.598680e-09	1.984772e+01	3.688088e+02
1.700000e-06	2.852870e-06	5.594198e-09	1.982601e+01	3.685666e+02
1.710000e-06	2.848925e-06	5.583941e-09	1.979860e+01	3.682507e+02
1.720000e-06	2.843853e-06	5.582777e-09	1.976335e+01	3.678654e+02
1.730000e-06	2.837632e-06	5.611574e-09	1.972012e+01	3.674165e+02
1.740000e-06	2.830516e-06	5.607511e-09	1.967066e+01	3.669109e+02
1.750000e-06	2.822440e-06	5.470909e-09	1.961454e+01	3.663558e+02
1.760000e-06	2.812898e-06	5.403967e-09	1.954823e+01	3.657580e+02
1.770000e-06	2.801745e-06	5.600178e-09	1.947072e+01	3.651232e+02
1.780000e-06	2.789911e-06	5.712734e-09	1.938848e+01	3.644554e+02
1.790000e-06	2.778084e-06	5.471831e-09	1.930629e+01	3.637560e+02
1.800000e-06	2.765255e-06	5.320513e-09	1.921713e+01	3.630239e+02
1.810000e-06	2.750553e-06	5.616741e-09	1.911496e+01	3.622554e+02
1.820000e-06	2.734945e-06	5.582842e-09	1.900650e+01	3.614447e+02
1.830000e-06	2.718940e-06	5.260805e-09	1.889527e+01	3.605841e+02
1.840000e-06	2.701625e-06	5.483191e-09	1.877494e+01	3.596653e+02
1.850000e-06	2.683000e-06	5.679877e-09	1.864550e+01	3.586800e+02
1.860000e-06	2.663823e-06	5.323889e-09	1.851224e+01	3.576209e+02
1.870000e-06	2.643846e-06	5.336979e-09	1.837341e+01	3.564823e+02
1.880000e-06	2.622509e-06	5.640329e-09	1.822512e+01	3.552612e+02
1.890000e-06	2.600145e-06	5.314456e-09	1.806970e+01	3.539568e+02
1.900000e-06	2.576881e-06	5.159634e-09	1.790803e+01	3.525715e+02
1.910000e-06	2.552582e-06	5.483405e-09	1.773916e+01	3.511095e+02
1.920000e-06	2.527629e-06	5.378060e-09	1.756575e+01	3.495771e+02
1.930000e-06	2.501913e-06	5.202152e-09	1.738704e+01	3.479815e+02
1.940000e-06	2.475271e-06	5.324924e-09	1.720189e+01	3.463302e+02
1.950000e-06	2.448020e-06	5.246733e-09	1.701251e+01	3.446295e+02
1.960000e-06	2.419824e-06	5.219436e-09	1.681656e+01	3.428847e+02
1.970000e-06	2.390296e-06	5.221128e-09	1.661136e+01	3.410987e+02
1.980000e-06	2.359809e-06	5.075874e-09	1.639949e+01	3.392723e+02
1.990000e-06	2.328584e-06	5.164711e-09	1.618249e+01	3.374039e+02
2.000000e-06	2.296637e-06	5.185082e-09	1.596047e+01	3.354897e+02
2.010000e-06	2.263969e-06	5.003316e-09	1.573345e+01	3.335249e+02
2.020000e-06	2.230438e-06	5.082339e-09	1.550042e+01	3.315036e+02
2.030000e-06	2.196192e-06	5.046818e-09	1.526243e+01	3.294201e+02
2.040000e-06	2.161410e-06	4.887740e-09	1.502072e+01	3.272695e+02
2.050000e-06	2.125937e-06	5.006120e-09	1.477420e+01	3.250482e+02
2.060000e-06	2.089682e-06	4.949544e-09	1.452224e+01	3.227546e+02
2.070000e-06	2.052432e-06	4.800897e-09	1.426338e+01	3.203890e+02
2.080000e-06	2.014083e-06	4.864305e-09	1.399686e+01	3.179534e+02
2.090000e-06	1.975039e-06	4.823970e-09	1.372553e+01	3.154515e+02
2.100000e-06	1.935485e-06	4.744946e-09	1.345065e+01	3.128876e+02
2.110000e-06	1.895258e-06	4.732067e-09	1.317109e+01	3.102663e+02
2.120000e-06	1.854347e-06	4.671641e-09	1.288678e+01	3.075916e+02
2.130000e-06	1.812857e-06	4.658462e-09	1.259845e+01	3.048662e+02
2.140000e-06	1.770841e-06	4.617170e-09	1.230646e+01	3.020913e+02
2.150000e-06	1.728262e-06	4.538556e-09	1.201055e+01	2.992658e+02
2.160000e-06	1.685195e-06	4.512426e-09	1.171126e+01	2.963868e+02
2.170000e-06	1.641711e-06	4.465127e-09	1.140907e+01	2.934496e+02
2.180000e-06	1.597666e-06	4.432590e-09	1.110298e+01	2.904482e+02
2.190000e-06	1.552929e-06	4.390732e-09	1.079208e+01	2.873761e+02
2.200000e-06	1.507524e-06	4.326711e-09	1.047654e+01	2.842268e+02
2.210000e-06	1.461624e-06	4.284853e-09	1.015756e+01	2.809945e+02
2.220000e-06	1.415384e-06	4.234475e-09	9.836212e+00	2.776749e+02
2.230000e-06	1.368693e-06	4.189385e-09	9.511731e+00	2.742654e+02
2.240000e-06	1.321410e-06	4.125342e-09	9.183137e+00	2.707653e+02
2.250000e-06	1.273524e-06	4.060270e-09	8.850355e+00	2.671756e+02
2.260000e-06	1.225069e-06	4.033721e-09	8.513615e+00	2.634990e+02
2.270000e-06	1.176203e-06	3.973746e-09	8.174023e+00	2.597389e+02
2.280000e-06	1.126999e-06	3.897404e-09	7.832081e+00	2.558991e+02
2.290000e-06	1.077420e-06	3.846463e-09	7.487528e+00	2.519828e+02
2.300000e-06	1.027347e-06	3.789910e-09	7.139545e+00	2.479926e+02
2.310000e-06	9.767590e-07	3.736628e-09	6.787985e+00	2.439291e+02
2.320000e-06	9.258423e-07	3.667858e-09	6.434139e+00	2.397916e+02
2.330000e-06	8.747056e-07	3.593822e-09	6.078765e+00	2.355773e+02
2.340000e-06	8.233337e-07	3.535602e-09	5.721756e+00	2.312820e+02
2.350000e-06	7.716255e-07	3.467822e-09	5.362410e+00	2.269004e+02
2.360000e-06	7.194833e-07	3.401150e-09	5.000048e+00	2.224265e+02
2.370000e-06	6.669149e-07	3.328136e-09	4.634724e+00	2.178542e+02
2.380000e-06	6.139123e-07	3.257355e-09	4.266383e+00	2.131783e+02
2.390000e-06	5.604560e-07	3.195161e-09	3.894888e+00	2.083943e+02
2.400000e-06	5.066540e-07	3.121251e-09	3.520991e+00	2.034991e+02
2.410000e-06	4.526119e-07	3.043798e-09	3.145426e+00	1.984910e+02
2.420000e-06	3.984276e-07	2.963309e-09	2.768872e+00	1.933693e+02
2.430000e-06	3.440476e-07	2.883270e-09	2.390958e+00	1.881341e+02
2.440000e-06	2.894200e-07	2.806767e-09	2.011324e+00	1.827855e+02
2.450000e-06	2.346799e-07	2.721877e-09	1.630907e+00	1.773233e+02
2.460000e-06	1.798972e-07	2.634224e-09	1.250195e+00	1.717461e+02
2.470000e-06	1.250763e-07	2.550217e-09	8.692178e-01	1.660509e+02
2.480000e-06	7.023240e-08	2.466113e-09	4.880800e-01	1.602328e+02
2.490000e-06	1.538730e-08	2.380892e-09	1.069341e-01	1.542848e+02
2.500000e-06	-3.946276e-08	2.287070e-09	-2.742464e-01	1.481980e+02
2.510000e-06	-9.431625e-08	2.190717e-09	-6.554506e-01	1.419621e+02
2.520000e-06	-1.491468e-07	2.095890e-09	-1.036496e+00	1.355658e+02
2.530000e-06	-2.039297e-07	1.994354e-09	-1.417209e+00	1.289974e+02
2.540000e-06	-2.586429e-07	1.887647e-09	-1.797438e+00	1.222453e+02
2.550000e-06	-3.132818e-07	1.779775e-09	-2.177152e+00	1.152986e+02
2.560000e-06	-3.678148e-07	1.675813e-09	-2.556128e+00	1.081470e+02
2.570000e-06	-4.221402e-07	1.571289e-09	-2.933662e+00	1.007810e+02
2.580000e-06	-4.762111e-07	1.458028e-09	-3.309428e+00	9.319120e+01
2.590000e-06	-5.300229e-07	1.340249e-09	-3.683393e+00	8.536790e+01
2.600000e-06	-5.835002e-07	1.220601e-09	-4.055034e+00	7.729997e+01
2.610000e-06	-6.365823e-07	1.094661e-09	-4.423928e+00	6.897409e+01
2.620000e-06	-6.892786e-07	9.583182e-10	-4.790140e+00	6.037390e+01
2.630000e-06	-7.415788e-07	8.167645e-10	-5.153601e+00	5.147950e+01
2.640000e-06	-7.934349e-07	6.765679e-10	-5.513974e+00	4.226734e+01
2.650000e-06	-8.449245e-07	5.362685e-10	-5.871802e+00	3.271077e+01
2.660000e-06	-8.961616e-07	3.881549e-10	-6.227874e+00	2.278117e+01
2.670000e-06	-9.471517e-07	2.309322e-10	-6.582230e+00	1.244977e+01
2.680000e-06	-9.978155e-07	6.835191e-11	-6.934317e+00	1.690117e+00
2.690000e-06	-1.048086e-06	-9.964945e-11	-7.283671e+00	-9.519125e+00
2.700000e-06	-1.097931e-06	-2.773626e-10	-7.630067e+00	-2.119100e+01
2.710000e-06	-1.147365e-06	-4.656723e-10	-7.973613e+00	-3.332721e+01
2.720000e-06	-1.196443e-06	-6.590640e-10	-8.314681e+00	-4.591533e+01
2.730000e-06	-1.245003e-06	-8.559434e-10	-8.652143e+00	-5.892670e+01
2.740000e-06	-1.292821e-06	-1.057482e-09	-8.984456e+00	-7.231509e+01
2.750000e-06	-1.339859e-06	-1.267145e-09	-9.311351e+00	-8.601656e+01
2.760000e-06	-1.386232e-06	-1.481880e-09	-9.633619e+00	-9.995037e+01
2.770000e-06	-1.432104e-06	-1.695833e-09	-9.952404e+00	-1.140212e+02
2.780000e-06	-1.477597e-06	-1.909602e-09	-1.026856e+01	-1.281225e+02
2.790000e-06	-1.522782e-06	-2.126300e-09	-1.058257e+01	-1.421405e+02
2.800000e-06	-1.567544e-06	-2.343310e-09	-1.089365e+01	-1.559593e+02
2.810000e-06	-1.611728e-06	-2.552545e-09	-1.120070e+01	-1.694656e+02
2.820000e-06	-1.655355e-06	-2.751496e-09	-1.150389e+01	-1.825542e+02
2.830000e-06	-1.698562e-06	-2.943487e-09	-1.180415e+01	-1.951322e+02
2.840000e-06	-1.741370e-06	-3.127953e-09	-1.210165e+01	-2.071229e+02
2.850000e-06	-1.783625e-06	-3.299879e-09	-1.239530e+01	-2.184685e+02
2.860000e-06	-1.825269e-06	-3.458786e-09	-1.268471e+01	-2.291314e+02
2.870000e-06	-1.866314e-06	-3.610148e-09	-1.296994e+01	-2.390947e+02
2.880000e-06	-1.906712e-06	-3.757276e-09	-1.325069e+01	-2.483606e+02
2.890000e-06	-1.946430e-06	-3.895259e-09	-1.352671e+01	-2.569486e+02
2.900000e-06	-1.985613e-06	-4.019726e-09	-1.379902e+01	-2.648923e+02
2.910000e-06	-2.024283e-06	-4.133888e-09	-1.406775e+01	-2.722355e+02
2.920000e-06	-2.062143e-06	-4.240405e-09	-1.433086e+01	-2.790287e+02
2.930000e-06	-2.099014e-06	-4.337455e-09	-1.458710e+01	-2.853249e+02
2.940000e-06	-2.134884e-06	-4.425578e-09	-1.483638e+01	-2.911764e+02
