# Temperatura_=_21.9
# Concentracion g/m^3_=_15500.0
# C_Vs_to_Am_M_A/Vsm_=_65563218390.804596
# pendiente_HvsI_1/m_=_3716.3
# ordenada_HvsI_A/m_=_1297.0
# frecuencia_Hz_=_300834.69549882377

Tiempo_(s)	Campo_(V.s)	Magnetizacion_(V.s)	Campo_(kA/m)	Magnetizacion_(A/m)
0.000000e+00	-2.847797e-06	-5.639060e-09	-1.980267e+01	-3.677183e+02
1.000000e-08	-2.846941e-06	-5.634237e-09	-1.979672e+01	-3.676554e+02
2.000000e-08	-2.845099e-06	-5.630109e-09	-1.978390e+01	-3.675148e+02
3.000000e-08	-2.841965e-06	-5.629589e-09	-1.976211e+01	-3.672967e+02
4.000000e-08	-2.837768e-06	-5.628854e-09	-1.973293e+01	-3.670035e+02
5.000000e-08	-2.832755e-06	-5.621706e-09	-1.969807e+01	-3.666395e+02
6.000000e-08	-2.826920e-06	-5.607410e-09	-1.965749e+01	-3.662113e+02
7.000000e-08	-2.820154e-06	-5.589311e-09	-1.961045e+01	-3.657267e+02
8.000000e-08	-2.812371e-06	-5.625069e-09	-1.955633e+01	-3.651947e+02
9.000000e-08	-2.803399e-06	-5.667625e-09	-1.949394e+01	-3.646241e+02
1.000000e-07	-2.792971e-06	-5.624238e-09	-1.942142e+01	-3.640228e+02
1.100000e-07	-2.781300e-06	-5.470897e-09	-1.934027e+01	-3.633966e+02
1.200000e-07	-2.768913e-06	-5.503897e-09	-1.925413e+01	-3.627491e+02
1.300000e-07	-2.755657e-06	-5.660910e-09	-1.916196e+01	-3.620805e+02
1.400000e-07	-2.741336e-06	-5.540127e-09	-1.906237e+01	-3.613880e+02
1.500000e-07	-2.726123e-06	-5.421884e-09	-1.895659e+01	-3.606654e+02
1.600000e-07	-2.709660e-06	-5.560587e-09	-1.884210e+01	-3.599041e+02
1.700000e-07	-2.691827e-06	-5.589464e-09	-1.871810e+01	-3.590936e+02
1.800000e-07	-2.673175e-06	-5.383970e-09	-1.858840e+01	-3.582226e+02
1.900000e-07	-2.653862e-06	-5.431405e-09	-1.845411e+01	-3.572800e+02
2.000000e-07	-2.633682e-06	-5.521261e-09	-1.831378e+01	-3.562558e+02
2.100000e-07	-2.612626e-06	-5.335658e-09	-1.816737e+01	-3.551423e+02
2.200000e-07	-2.590792e-06	-5.362203e-09	-1.801553e+01	-3.539345e+02
2.300000e-07	-2.568051e-06	-5.498610e-09	-1.785741e+01	-3.526305e+02
2.400000e-07	-2.544354e-06	-5.347047e-09	-1.769262e+01	-3.512315e+02
2.500000e-07	-2.519880e-06	-5.269827e-09	-1.752244e+01	-3.497413e+02
2.600000e-07	-2.494510e-06	-5.324576e-09	-1.734602e+01	-3.481663e+02
2.700000e-07	-2.468137e-06	-5.277670e-09	-1.716263e+01	-3.465137e+02
2.800000e-07	-2.440717e-06	-5.252437e-09	-1.697197e+01	-3.447918e+02
2.900000e-07	-2.412299e-06	-5.225462e-09	-1.677436e+01	-3.430079e+02
3.000000e-07	-2.383046e-06	-5.197565e-09	-1.657094e+01	-3.411686e+02
3.100000e-07	-2.353057e-06	-5.221530e-09	-1.636240e+01	-3.392786e+02
3.200000e-07	-2.322381e-06	-5.169161e-09	-1.614910e+01	-3.373403e+02
3.300000e-07	-2.290905e-06	-5.064186e-09	-1.593022e+01	-3.353544e+02
3.400000e-07	-2.258678e-06	-5.090611e-09	-1.570612e+01	-3.333196e+02
3.500000e-07	-2.225887e-06	-5.055930e-09	-1.547810e+01	-3.312329e+02
3.600000e-07	-2.192404e-06	-4.983080e-09	-1.524527e+01	-3.290908e+02
3.700000e-07	-2.157855e-06	-5.030674e-09	-1.500503e+01	-3.268894e+02
3.800000e-07	-2.122170e-06	-4.966394e-09	-1.475689e+01	-3.246254e+02
3.900000e-07	-2.085696e-06	-4.879275e-09	-1.450326e+01	-3.222961e+02
4.000000e-07	-2.048615e-06	-4.910248e-09	-1.424541e+01	-3.199003e+02
4.100000e-07	-2.010796e-06	-4.872973e-09	-1.398243e+01	-3.174377e+02
4.200000e-07	-1.972267e-06	-4.765953e-09	-1.371451e+01	-3.149095e+02
4.300000e-07	-1.933005e-06	-4.754877e-09	-1.344150e+01	-3.123177e+02
4.400000e-07	-1.893049e-06	-4.734765e-09	-1.316366e+01	-3.096645e+02
4.500000e-07	-1.852635e-06	-4.685513e-09	-1.288263e+01	-3.069521e+02
4.600000e-07	-1.811870e-06	-4.647437e-09	-1.259917e+01	-3.041821e+02
4.700000e-07	-1.770540e-06	-4.595552e-09	-1.231177e+01	-3.013550e+02
4.800000e-07	-1.728194e-06	-4.552518e-09	-1.201731e+01	-2.984701e+02
4.900000e-07	-1.684775e-06	-4.514868e-09	-1.171538e+01	-2.955252e+02
5.000000e-07	-1.640661e-06	-4.466806e-09	-1.140863e+01	-2.925169e+02
5.100000e-07	-1.596108e-06	-4.404474e-09	-1.109883e+01	-2.894411e+02
5.200000e-07	-1.551110e-06	-4.364861e-09	-1.078593e+01	-2.862931e+02
5.300000e-07	-1.505607e-06	-4.315689e-09	-1.046951e+01	-2.830683e+02
5.400000e-07	-1.459548e-06	-4.266799e-09	-1.014923e+01	-2.797627e+02
5.500000e-07	-1.412984e-06	-4.209320e-09	-9.825440e+00	-2.763734e+02
5.600000e-07	-1.365873e-06	-4.143344e-09	-9.497843e+00	-2.728989e+02
5.700000e-07	-1.318211e-06	-4.096837e-09	-9.166415e+00	-2.693393e+02
5.800000e-07	-1.270162e-06	-4.055396e-09	-8.832298e+00	-2.656958e+02
5.900000e-07	-1.221775e-06	-3.995543e-09	-8.495834e+00	-2.619710e+02
6.000000e-07	-1.173039e-06	-3.927871e-09	-8.156941e+00	-2.581680e+02
6.100000e-07	-1.123870e-06	-3.876322e-09	-7.815033e+00	-2.542898e+02
6.200000e-07	-1.074162e-06	-3.813741e-09	-7.469376e+00	-2.503393e+02
6.300000e-07	-1.023926e-06	-3.746028e-09	-7.120053e+00	-2.463180e+02
6.400000e-07	-9.730846e-07	-3.674952e-09	-6.766518e+00	-2.422261e+02
6.500000e-07	-9.216093e-07	-3.610393e-09	-6.408576e+00	-2.380623e+02
6.600000e-07	-8.697224e-07	-3.555112e-09	-6.047771e+00	-2.338236e+02
6.700000e-07	-8.175110e-07	-3.494849e-09	-5.684709e+00	-2.295055e+02
6.800000e-07	-7.649976e-07	-3.424196e-09	-5.319548e+00	-2.251027e+02
6.900000e-07	-7.122157e-07	-3.349187e-09	-4.952520e+00	-2.206093e+02
7.000000e-07	-6.592189e-07	-3.281210e-09	-4.583997e+00	-2.160194e+02
7.100000e-07	-6.060380e-07	-3.208573e-09	-4.214194e+00	-2.113279e+02
7.200000e-07	-5.526276e-07	-3.132802e-09	-3.842795e+00	-2.065305e+02
7.300000e-07	-4.990314e-07	-3.053826e-09	-3.470105e+00	-2.016245e+02
7.400000e-07	-4.452208e-07	-2.979214e-09	-3.095923e+00	-1.966080e+02
7.500000e-07	-3.911560e-07	-2.905881e-09	-2.719973e+00	-1.914806e+02
7.600000e-07	-3.369727e-07	-2.825962e-09	-2.343200e+00	-1.862422e+02
7.700000e-07	-2.827427e-07	-2.739687e-09	-1.966102e+00	-1.808931e+02
7.800000e-07	-2.284390e-07	-2.653338e-09	-1.588492e+00	-1.754326e+02
7.900000e-07	-1.740154e-07	-2.574310e-09	-1.210047e+00	-1.698592e+02
8.000000e-07	-1.194972e-07	-2.489036e-09	-8.309455e-01	-1.641696e+02
8.100000e-07	-6.498642e-08	-2.396428e-09	-4.518947e-01	-1.583584e+02
8.200000e-07	-1.046554e-08	-2.299295e-09	-7.277405e-02	-1.524184e+02
8.300000e-07	4.404589e-08	-2.204679e-09	3.062810e-01	-1.463401e+02
8.400000e-07	9.853612e-08	-2.109176e-09	6.851886e-01	-1.401130e+02
8.500000e-07	1.530026e-07	-2.010822e-09	1.063931e+00	-1.337253e+02
8.600000e-07	2.073921e-07	-1.910986e-09	1.442138e+00	-1.271652e+02
8.700000e-07	2.616935e-07	-1.809377e-09	1.819733e+00	-1.204212e+02
8.800000e-07	3.159404e-07	-1.707082e-09	2.196948e+00	-1.134826e+02
8.900000e-07	3.701204e-07	-1.595676e-09	2.573698e+00	-1.063401e+02
9.000000e-07	4.241103e-07	-1.479209e-09	2.949127e+00	-9.898538e+01
9.100000e-07	4.778656e-07	-1.359909e-09	3.322924e+00	-9.141097e+01
9.200000e-07	5.314390e-07	-1.242242e-09	3.695457e+00	-8.360954e+01
9.300000e-07	5.847897e-07	-1.120823e-09	4.066440e+00	-7.557304e+01
9.400000e-07	6.379202e-07	-9.936346e-10	4.435892e+00	-6.729166e+01
9.500000e-07	6.908535e-07	-8.617538e-10	4.803974e+00	-5.875294e+01
9.600000e-07	7.435691e-07	-7.262568e-10	5.170541e+00	-4.994102e+01
9.700000e-07	7.960676e-07	-5.887112e-10	5.535599e+00	-4.083632e+01
9.800000e-07	8.482659e-07	-4.435861e-10	5.898570e+00	-3.141575e+01
9.900000e-07	9.000684e-07	-2.912612e-10	6.258787e+00	-2.165354e+01
1.000000e-06	9.514031e-07	-1.331188e-10	6.615752e+00	-1.152276e+01
1.010000e-06	1.002162e-06	2.588503e-11	6.968712e+00	-9.974426e-01
1.020000e-06	1.052288e-06	1.901291e-10	7.317276e+00	9.944779e+00
1.030000e-06	1.101840e-06	3.624626e-10	7.661841e+00	2.131969e+01
1.040000e-06	1.150886e-06	5.455092e-10	8.002893e+00	3.313346e+01
1.050000e-06	1.199585e-06	7.359407e-10	8.341530e+00	4.537985e+01
1.060000e-06	1.248072e-06	9.304223e-10	8.678696e+00	5.803781e+01
1.070000e-06	1.296266e-06	1.129808e-09	9.013820e+00	7.106997e+01
1.080000e-06	1.343992e-06	1.332026e-09	9.345689e+00	8.442200e+01
1.090000e-06	1.391180e-06	1.538740e-09	9.673823e+00	9.802313e+01
1.100000e-06	1.437877e-06	1.745063e-09	9.998534e+00	1.117878e+02
1.110000e-06	1.484076e-06	1.952737e-09	1.031979e+01	1.256185e+02
1.120000e-06	1.529714e-06	2.161142e-09	1.063714e+01	1.394093e+02
1.130000e-06	1.574839e-06	2.370099e-09	1.095092e+01	1.530505e+02
1.140000e-06	1.619598e-06	2.576480e-09	1.126217e+01	1.664334e+02
1.150000e-06	1.664022e-06	2.775655e-09	1.157108e+01	1.794548e+02
1.160000e-06	1.707876e-06	2.964443e-09	1.187602e+01	1.920217e+02
1.170000e-06	1.750872e-06	3.144336e-09	1.217500e+01	2.040555e+02
1.180000e-06	1.792946e-06	3.317409e-09	1.246757e+01	2.154941e+02
1.190000e-06	1.834216e-06	3.479399e-09	1.275455e+01	2.262943e+02
1.200000e-06	1.874928e-06	3.631688e-09	1.303765e+01	2.364321e+02
1.210000e-06	1.915164e-06	3.774438e-09	1.331744e+01	2.459020e+02
1.220000e-06	1.954767e-06	3.908812e-09	1.359282e+01	2.547153e+02
1.230000e-06	1.993666e-06	4.033173e-09	1.386332e+01	2.628972e+02
1.240000e-06	2.031837e-06	4.146473e-09	1.412874e+01	2.704841e+02
1.250000e-06	2.069282e-06	4.250152e-09	1.438912e+01	2.775193e+02
1.260000e-06	2.106146e-06	4.349300e-09	1.464546e+01	2.840500e+02
1.270000e-06	2.142522e-06	4.442629e-09	1.489841e+01	2.901238e+02
1.280000e-06	2.178157e-06	4.524951e-09	1.514620e+01	2.957860e+02
1.290000e-06	2.212633e-06	4.598330e-09	1.538594e+01	3.010774e+02
1.300000e-06	2.246043e-06	4.669468e-09	1.561827e+01	3.060333e+02
1.310000e-06	2.278803e-06	4.742730e-09	1.584606e+01	3.106827e+02
1.320000e-06	2.310858e-06	4.812373e-09	1.606897e+01	3.150491e+02
1.330000e-06	2.342116e-06	4.873576e-09	1.628633e+01	3.191506e+02
1.340000e-06	2.372658e-06	4.928565e-09	1.649871e+01	3.230013e+02
1.350000e-06	2.402366e-06	4.980088e-09	1.670529e+01	3.266130e+02
1.360000e-06	2.431343e-06	5.029184e-09	1.690678e+01	3.299960e+02
1.370000e-06	2.459740e-06	5.073832e-09	1.710424e+01	3.331604e+02
1.380000e-06	2.487261e-06	5.114800e-09	1.729562e+01	3.361169e+02
1.390000e-06	2.513491e-06	5.155565e-09	1.747801e+01	3.388775e+02
1.400000e-06	2.538583e-06	5.195286e-09	1.765249e+01	3.414549e+02
1.410000e-06	2.562815e-06	5.230268e-09	1.782099e+01	3.438627e+02
1.420000e-06	2.586167e-06	5.261192e-09	1.798338e+01	3.461149e+02
1.430000e-06	2.608703e-06	5.290255e-09	1.814008e+01	3.482247e+02
1.440000e-06	2.630398e-06	5.318317e-09	1.829095e+01	3.502043e+02
1.450000e-06	2.651324e-06	5.346290e-09	1.843646e+01	3.520641e+02
1.460000e-06	2.671497e-06	5.372933e-09	1.857673e+01	3.538121e+02
1.470000e-06	2.690664e-06	5.397384e-09	1.871002e+01	3.554541e+02
1.480000e-06	2.708797e-06	5.419492e-09	1.883610e+01	3.569937e+02
1.490000e-06	2.726020e-06	5.439918e-09	1.895587e+01	3.584327e+02
1.500000e-06	2.742220e-06	5.459183e-09	1.906852e+01	3.597715e+02
1.510000e-06	2.757338e-06	5.476617e-09	1.917364e+01	3.610101e+02
1.520000e-06	2.771436e-06	5.492061e-09	1.927168e+01	3.621483e+02
1.530000e-06	2.784553e-06	5.506845e-09	1.936289e+01	3.631869e+02
1.540000e-06	2.796576e-06	5.522225e-09	1.944649e+01	3.641275e+02
1.550000e-06	2.807262e-06	5.536403e-09	1.952080e+01	3.649730e+02
1.560000e-06	2.816732e-06	5.547515e-09	1.958665e+01	3.657275e+02
1.570000e-06	2.825282e-06	5.557848e-09	1.964610e+01	3.663958e+02
1.580000e-06	2.832926e-06	5.568162e-09	1.969926e+01	3.669831e+02
1.590000e-06	2.839541e-06	5.577237e-09	1.974526e+01	3.674947e+02
1.600000e-06	2.845182e-06	5.582731e-09	1.978448e+01	3.679348e+02
1.610000e-06	2.850018e-06	5.584704e-09	1.981812e+01	3.683066e+02
1.620000e-06	2.853974e-06	5.587638e-09	1.984562e+01	3.686118e+02
1.630000e-06	2.856671e-06	5.594148e-09	1.986437e+01	3.688503e+02
1.640000e-06	2.858138e-06	5.601108e-09	1.987457e+01	3.690207e+02
1.650000e-06	2.858702e-06	5.605068e-09	1.987850e+01	3.691207e+02
1.660000e-06	2.858383e-06	5.605710e-09	1.987628e+01	3.691474e+02
1.670000e-06	2.857194e-06	5.602216e-09	1.986801e+01	3.690982e+02
1.680000e-06	2.855111e-06	5.599989e-09	1.985353e+01	3.689715e+02
1.690000e-06	2.852230e-06	5.596822e-09	1.983350e+01	3.687671e+02
1.700000e-06	2.848581e-06	5.590212e-09	1.980812e+01	3.684870e+02
1.710000e-06	2.843802e-06	5.585920e-09	1.977489e+01	3.681352e+02
1.720000e-06	2.837816e-06	5.594555e-09	1.973326e+01	3.677178e+02
1.730000e-06	2.830929e-06	5.606727e-09	1.968537e+01	3.672426e+02
1.740000e-06	2.823227e-06	5.533329e-09	1.963182e+01	3.667184e+02
1.750000e-06	2.814204e-06	5.472545e-09	1.956907e+01	3.661541e+02
1.760000e-06	2.803522e-06	5.563791e-09	1.949479e+01	3.655576e+02
1.770000e-06	2.791907e-06	5.638061e-09	1.941403e+01	3.649355e+02
1.780000e-06	2.780216e-06	5.545285e-09	1.933273e+01	3.642917e+02
1.790000e-06	2.767780e-06	5.394463e-09	1.924625e+01	3.636270e+02
1.800000e-06	2.753648e-06	5.558062e-09	1.914798e+01	3.629390e+02
1.810000e-06	2.738375e-06	5.583041e-09	1.904178e+01	3.622223e+02
1.820000e-06	2.722549e-06	5.370412e-09	1.893174e+01	3.614686e+02
1.830000e-06	2.705615e-06	5.465307e-09	1.881398e+01	3.606677e+02
1.840000e-06	2.687364e-06	5.598714e-09	1.868707e+01	3.598083e+02
1.850000e-06	2.668405e-06	5.416548e-09	1.855523e+01	3.588792e+02
1.860000e-06	2.648691e-06	5.365831e-09	1.841815e+01	3.578702e+02
1.870000e-06	2.627726e-06	5.548071e-09	1.827237e+01	3.567730e+02
1.880000e-06	2.605674e-06	5.385958e-09	1.811902e+01	3.555823e+02
1.890000e-06	2.582705e-06	5.242958e-09	1.795931e+01	3.542954e+02
1.900000e-06	2.558734e-06	5.431631e-09	1.779261e+01	3.529131e+02
1.910000e-06	2.534080e-06	5.405023e-09	1.762118e+01	3.514388e+02
1.920000e-06	2.508651e-06	5.273104e-09	1.744435e+01	3.498783e+02
1.930000e-06	2.482227e-06	5.331674e-09	1.726061e+01	3.482390e+02
1.940000e-06	2.455175e-06	5.260882e-09	1.707250e+01	3.465288e+02
1.950000e-06	2.427345e-06	5.244992e-09	1.687898e+01	3.447555e+02
1.960000e-06	2.398282e-06	5.242325e-09	1.667689e+01	3.429256e+02
1.970000e-06	2.368080e-06	5.116391e-09	1.646687e+01	3.410443e+02
1.980000e-06	2.337069e-06	5.174814e-09	1.625123e+01	3.391146e+02
1.990000e-06	2.305392e-06	5.197462e-09	1.603096e+01	3.371372e+02
2.000000e-06	2.272990e-06	5.042849e-09	1.580564e+01	3.351112e+02
2.010000e-06	2.239645e-06	5.086125e-09	1.557377e+01	3.330340e+02
2.020000e-06	2.205503e-06	5.071309e-09	1.533636e+01	3.309020e+02
2.030000e-06	2.170855e-06	4.922145e-09	1.509543e+01	3.287115e+02
2.040000e-06	2.135583e-06	4.998144e-09	1.485016e+01	3.264588e+02
2.050000e-06	2.099632e-06	4.968141e-09	1.460017e+01	3.241413e+02
2.060000e-06	2.062778e-06	4.836382e-09	1.434390e+01	3.217573e+02
2.070000e-06	2.024810e-06	4.875940e-09	1.407988e+01	3.193066e+02
2.080000e-06	1.986009e-06	4.847613e-09	1.381007e+01	3.167899e+02
2.090000e-06	1.946652e-06	4.766070e-09	1.353639e+01	3.142093e+02
2.100000e-06	1.906673e-06	4.743343e-09	1.325839e+01	3.115668e+02
2.110000e-06	1.866022e-06	4.680089e-09	1.297572e+01	3.088648e+02
2.120000e-06	1.824783e-06	4.655451e-09	1.268896e+01	3.061050e+02
2.130000e-06	1.782986e-06	4.632438e-09	1.239831e+01	3.032880e+02
2.140000e-06	1.740602e-06	4.562350e-09	1.210359e+01	3.004135e+02
2.150000e-06	1.697670e-06	4.533812e-09	1.180505e+01	2.974795e+02
2.160000e-06	1.654314e-06	4.488540e-09	1.150357e+01	2.944828e+02
2.170000e-06	1.610424e-06	4.441582e-09	1.119837e+01	2.914194e+02
2.180000e-06	1.565904e-06	4.392441e-09	1.088880e+01	2.882846e+02
2.190000e-06	1.520790e-06	4.328172e-09	1.057508e+01	2.850737e+02
2.200000e-06	1.475103e-06	4.283099e-09	1.025739e+01	2.817827e+02
2.210000e-06	1.429028e-06	4.237158e-09	9.937006e+00	2.784085e+02
2.220000e-06	1.382537e-06	4.197273e-09	9.613722e+00	2.749493e+02
2.230000e-06	1.335548e-06	4.135600e-09	9.286970e+00	2.714048e+02
2.240000e-06	1.287941e-06	4.070437e-09	8.955926e+00	2.677761e+02
2.250000e-06	1.239699e-06	4.035872e-09	8.620470e+00	2.640655e+02
2.260000e-06	1.191022e-06	3.977028e-09	8.281982e+00	2.602762e+02
2.270000e-06	1.141942e-06	3.902456e-09	7.940698e+00	2.564112e+02
2.280000e-06	1.092472e-06	3.845880e-09	7.596700e+00	2.524734e+02
2.290000e-06	1.042581e-06	3.786427e-09	7.249777e+00	2.484646e+02
2.300000e-06	9.922095e-07	3.735428e-09	6.899507e+00	2.443853e+02
2.310000e-06	9.414420e-07	3.674565e-09	6.546486e+00	2.402345e+02
2.320000e-06	8.903835e-07	3.598728e-09	6.191442e+00	2.360094e+02
2.330000e-06	8.390909e-07	3.536190e-09	5.834769e+00	2.317059e+02
2.340000e-06	7.875332e-07	3.469192e-09	5.476253e+00	2.273186e+02
2.350000e-06	7.355855e-07	3.403966e-09	5.115026e+00	2.228417e+02
2.360000e-06	6.832515e-07	3.332356e-09	4.751112e+00	2.182694e+02
2.370000e-06	6.304955e-07	3.258622e-09	4.384264e+00	2.135963e+02
2.380000e-06	5.773047e-07	3.193956e-09	4.014392e+00	2.088181e+02
2.390000e-06	5.237642e-07	3.122485e-09	3.642089e+00	2.039316e+02
2.400000e-06	4.699006e-07	3.045989e-09	3.267538e+00	1.989349e+02
2.410000e-06	4.157977e-07	2.965418e-09	2.891324e+00	1.938272e+02
2.420000e-06	3.615099e-07	2.888002e-09	2.513824e+00	1.886086e+02
2.430000e-06	3.070528e-07	2.812371e-09	2.135147e+00	1.832792e+02
2.440000e-06	2.524694e-07	2.727045e-09	1.755591e+00	1.778386e+02
2.450000e-06	1.977448e-07	2.637392e-09	1.375054e+00	1.722856e+02
2.460000e-06	1.429428e-07	2.553162e-09	9.939787e-01	1.666170e+02
2.470000e-06	8.812500e-08	2.470814e-09	6.127930e-01	1.608280e+02
2.480000e-06	3.326178e-08	2.386079e-09	2.312917e-01	1.549115e+02
2.490000e-06	-2.165192e-08	2.292648e-09	-1.505605e-01	1.488587e+02
2.500000e-06	-7.657161e-08	2.196044e-09	-5.324545e-01	1.426589e+02
2.510000e-06	-1.314211e-07	2.101571e-09	-9.138601e-01	1.363008e+02
2.520000e-06	-1.861786e-07	2.001489e-09	-1.294626e+00	1.297723e+02
2.530000e-06	-2.409181e-07	1.896184e-09	-1.675267e+00	1.230618e+02
2.540000e-06	-2.956463e-07	1.788106e-09	-2.055830e+00	1.161587e+02
2.550000e-06	-3.502837e-07	1.684738e-09	-2.435761e+00	1.090532e+02
2.560000e-06	-4.046569e-07	1.582299e-09	-2.813855e+00	1.017369e+02
2.570000e-06	-4.587671e-07	1.470325e-09	-3.190120e+00	9.420219e+01
2.580000e-06	-5.126399e-07	1.350684e-09	-3.564733e+00	8.644182e+01
2.590000e-06	-5.662079e-07	1.227546e-09	-3.937228e+00	7.844791e+01
2.600000e-06	-6.193793e-07	1.101690e-09	-4.306965e+00	7.021104e+01
2.610000e-06	-6.721618e-07	9.692606e-10	-4.673997e+00	6.171929e+01
2.620000e-06	-7.245056e-07	8.318710e-10	-5.037980e+00	5.295745e+01
2.630000e-06	-7.764175e-07	6.932580e-10	-5.398958e+00	4.390659e+01
2.640000e-06	-8.280310e-07	5.559187e-10	-5.757862e+00	3.454422e+01
2.650000e-06	-8.793236e-07	4.124296e-10	-6.114534e+00	2.484494e+01
2.660000e-06	-9.303401e-07	2.585804e-10	-6.469287e+00	1.478190e+01
2.670000e-06	-9.810719e-07	9.894375e-11	-6.822060e+00	4.328773e+00
2.680000e-06	-1.031520e-06	-6.392132e-11	-7.172858e+00	-6.537656e+00
2.690000e-06	-1.081594e-06	-2.336251e-10	-7.521060e+00	-1.783457e+01
2.700000e-06	-1.131195e-06	-4.157507e-10	-7.865964e+00	-2.957008e+01
2.710000e-06	-1.180370e-06	-6.043157e-10	-8.207918e+00	-4.174035e+01
2.720000e-06	-1.229047e-06	-7.954916e-10	-8.546400e+00	-5.432711e+01
2.730000e-06	-1.277068e-06	-9.905514e-10	-8.880319e+00	-6.729599e+01
2.740000e-06	-1.324353e-06	-1.193942e-09	-9.209128e+00	-8.059568e+01
2.750000e-06	-1.370933e-06	-1.402860e-09	-9.533032e+00	-9.415824e+01
2.760000e-06	-1.416966e-06	-1.610476e-09	-9.853125e+00	-1.079006e+02
2.770000e-06	-1.462591e-06	-1.818075e-09	-1.017039e+01	-1.217271e+02
2.780000e-06	-1.507901e-06	-2.030845e-09	-1.048546e+01	-1.355331e+02
2.790000e-06	-1.552805e-06	-2.247397e-09	-1.079771e+01	-1.492092e+02
2.800000e-06	-1.597155e-06	-2.459161e-09	-1.110610e+01	-1.626460e+02
2.810000e-06	-1.640926e-06	-2.660624e-09	-1.141047e+01	-1.757391e+02
2.820000e-06	-1.684221e-06	-2.853265e-09	-1.171153e+01	-1.883935e+02
2.830000e-06	-1.727137e-06	-3.038977e-09	-1.200995e+01	-2.005275e+02
2.840000e-06	-1.769580e-06	-3.212750e-09	-1.230509e+01	-2.120762e+02
2.850000e-06	-1.811408e-06	-3.373158e-09	-1.259595e+01	-2.229928e+02
2.860000e-06	-1.852624e-06	-3.525397e-09	-1.288256e+01	-2.332498e+02
2.870000e-06	-1.893251e-06	-3.676135e-09	-1.316506e+01	-2.428387e+02
2.880000e-06	-1.933227e-06	-3.821840e-09	-1.344304e+01	-2.517677e+02
2.890000e-06	-1.972622e-06	-3.955454e-09	-1.371698e+01	-2.600600e+02
2.900000e-06	-2.011493e-06	-4.077711e-09	-1.398728e+01	-2.677502e+02
2.910000e-06	-2.049566e-06	-4.190262e-09	-1.425202e+01	-2.748805e+02
2.920000e-06	-2.086578e-06	-4.291441e-09	-1.450940e+01	-2.814979e+02
2.930000e-06	-2.122647e-06	-4.380308e-09	-1.476021e+01	-2.876499e+02
2.940000e-06	-2.158024e-06	-4.464524e-09	-1.500621e+01	-2.933825e+02
