# Temperatura_=_21.52
# Concentracion g/m^3_=_15500.0
# C_Vs_to_Am_M_A/Vsm_=_65563218390.804596
# pendiente_HvsI_1/m_=_3716.3
# ordenada_HvsI_A/m_=_1297.0
# frecuencia_Hz_=_300834.0908818027

Tiempo_(s)	Campo_(V.s)	Magnetizacion_(V.s)	Campo_(kA/m)	Magnetizacion_(A/m)
0.000000e+00	-2.850429e-06	-6.007283e-09	-1.980563e+01	-3.918119e+02
1.000000e-08	-2.849975e-06	-6.010136e-09	-1.980247e+01	-3.917541e+02
2.000000e-08	-2.848771e-06	-6.012541e-09	-1.979411e+01	-3.916057e+02
3.000000e-08	-2.846348e-06	-6.009923e-09	-1.977727e+01	-3.913679e+02
4.000000e-08	-2.842663e-06	-6.008136e-09	-1.975167e+01	-3.910445e+02
5.000000e-08	-2.838149e-06	-6.003510e-09	-1.972030e+01	-3.906418e+02
6.000000e-08	-2.832894e-06	-5.986502e-09	-1.968379e+01	-3.901685e+02
7.000000e-08	-2.826700e-06	-5.945005e-09	-1.964075e+01	-3.896350e+02
8.000000e-08	-2.819455e-06	-5.940597e-09	-1.959041e+01	-3.890529e+02
9.000000e-08	-2.811179e-06	-6.051760e-09	-1.953291e+01	-3.884334e+02
1.000000e-07	-2.801579e-06	-6.119736e-09	-1.946620e+01	-3.877869e+02
1.100000e-07	-2.790478e-06	-5.890959e-09	-1.938907e+01	-3.871211e+02
1.200000e-07	-2.778477e-06	-5.710006e-09	-1.930568e+01	-3.864410e+02
1.300000e-07	-2.765776e-06	-5.948010e-09	-1.921743e+01	-3.857471e+02
1.400000e-07	-2.752075e-06	-6.161104e-09	-1.912224e+01	-3.850365e+02
1.500000e-07	-2.737405e-06	-5.746143e-09	-1.902031e+01	-3.843017e+02
1.600000e-07	-2.721719e-06	-5.726181e-09	-1.891131e+01	-3.835322e+02
1.700000e-07	-2.704575e-06	-6.106186e-09	-1.879219e+01	-3.827149e+02
1.800000e-07	-2.686287e-06	-5.829424e-09	-1.866512e+01	-3.818352e+02
1.900000e-07	-2.667502e-06	-5.615707e-09	-1.853460e+01	-3.808787e+02
2.000000e-07	-2.647929e-06	-5.909812e-09	-1.839860e+01	-3.798323e+02
2.100000e-07	-2.627357e-06	-5.844051e-09	-1.825566e+01	-3.786855e+02
2.200000e-07	-2.606065e-06	-5.531869e-09	-1.810771e+01	-3.774311e+02
2.300000e-07	-2.583938e-06	-5.820264e-09	-1.795397e+01	-3.760660e+02
2.400000e-07	-2.560703e-06	-5.900552e-09	-1.779252e+01	-3.745911e+02
2.500000e-07	-2.536599e-06	-5.554559e-09	-1.762504e+01	-3.730112e+02
2.600000e-07	-2.511857e-06	-5.592191e-09	-1.745313e+01	-3.713343e+02
2.700000e-07	-2.486251e-06	-5.731402e-09	-1.727521e+01	-3.695700e+02
2.800000e-07	-2.459495e-06	-5.559466e-09	-1.708930e+01	-3.677294e+02
2.900000e-07	-2.431608e-06	-5.564105e-09	-1.689553e+01	-3.658229e+02
3.000000e-07	-2.402820e-06	-5.552788e-09	-1.669551e+01	-3.638595e+02
3.100000e-07	-2.373262e-06	-5.508361e-09	-1.649013e+01	-3.618458e+02
3.200000e-07	-2.343020e-06	-5.565415e-09	-1.628000e+01	-3.597855e+02
3.300000e-07	-2.312010e-06	-5.433657e-09	-1.606453e+01	-3.576791e+02
3.400000e-07	-2.280138e-06	-5.370415e-09	-1.584308e+01	-3.555243e+02
3.500000e-07	-2.247669e-06	-5.412817e-09	-1.561747e+01	-3.533159e+02
3.600000e-07	-2.214633e-06	-5.336324e-09	-1.538793e+01	-3.510474e+02
3.700000e-07	-2.180591e-06	-5.300338e-09	-1.515139e+01	-3.487115e+02
3.800000e-07	-2.145278e-06	-5.354753e-09	-1.490603e+01	-3.463011e+02
3.900000e-07	-2.109072e-06	-5.206283e-09	-1.465446e+01	-3.438102e+02
4.000000e-07	-2.072407e-06	-5.166828e-09	-1.439970e+01	-3.412349e+02
4.100000e-07	-2.035114e-06	-5.227164e-09	-1.414058e+01	-3.385733e+02
4.200000e-07	-1.997038e-06	-5.123135e-09	-1.387601e+01	-3.358260e+02
4.300000e-07	-1.958257e-06	-5.032996e-09	-1.360655e+01	-3.329958e+02
4.400000e-07	-1.918718e-06	-5.039593e-09	-1.333182e+01	-3.300871e+02
4.500000e-07	-1.878524e-06	-5.014321e-09	-1.305254e+01	-3.271051e+02
4.600000e-07	-1.837999e-06	-4.944396e-09	-1.277097e+01	-3.240554e+02
4.700000e-07	-1.797116e-06	-4.899421e-09	-1.248690e+01	-3.209426e+02
4.800000e-07	-1.755377e-06	-4.831409e-09	-1.219688e+01	-3.177701e+02
4.900000e-07	-1.712418e-06	-4.802154e-09	-1.189839e+01	-3.145394e+02
5.000000e-07	-1.668501e-06	-4.766034e-09	-1.159324e+01	-3.112499e+02
5.100000e-07	-1.624119e-06	-4.700761e-09	-1.128486e+01	-3.078990e+02
5.200000e-07	-1.579443e-06	-4.627069e-09	-1.097444e+01	-3.044822e+02
5.300000e-07	-1.534306e-06	-4.584647e-09	-1.066081e+01	-3.009941e+02
5.400000e-07	-1.488544e-06	-4.543471e-09	-1.034285e+01	-2.974288e+02
5.500000e-07	-1.442218e-06	-4.478679e-09	-1.002096e+01	-2.937805e+02
5.600000e-07	-1.395430e-06	-4.417483e-09	-9.695865e+00	-2.900447e+02
5.700000e-07	-1.348132e-06	-4.346133e-09	-9.367223e+00	-2.862182e+02
5.800000e-07	-1.300283e-06	-4.308838e-09	-9.034755e+00	-2.822996e+02
5.900000e-07	-1.252051e-06	-4.254305e-09	-8.699624e+00	-2.782894e+02
6.000000e-07	-1.203575e-06	-4.172156e-09	-8.362799e+00	-2.741898e+02
6.100000e-07	-1.154761e-06	-4.095391e-09	-8.023626e+00	-2.700044e+02
6.200000e-07	-1.105405e-06	-4.043312e-09	-7.680682e+00	-2.657370e+02
6.300000e-07	-1.055350e-06	-3.984316e-09	-7.332882e+00	-2.613919e+02
6.400000e-07	-1.004527e-06	-3.904567e-09	-6.979749e+00	-2.569721e+02
6.500000e-07	-9.531673e-07	-3.829101e-09	-6.622890e+00	-2.524799e+02
6.600000e-07	-9.014132e-07	-3.761049e-09	-6.263287e+00	-2.479154e+02
6.700000e-07	-8.493039e-07	-3.704250e-09	-5.901216e+00	-2.432770e+02
6.800000e-07	-7.969499e-07	-3.627379e-09	-5.537445e+00	-2.385613e+02
6.900000e-07	-7.443791e-07	-3.543111e-09	-5.172168e+00	-2.337633e+02
7.000000e-07	-6.915938e-07	-3.463304e-09	-4.805399e+00	-2.288771e+02
7.100000e-07	-6.385597e-07	-3.395393e-09	-4.436903e+00	-2.238960e+02
7.200000e-07	-5.852743e-07	-3.318390e-09	-4.066660e+00	-2.188138e+02
7.300000e-07	-5.317336e-07	-3.230588e-09	-3.694644e+00	-2.136245e+02
7.400000e-07	-4.779563e-07	-3.148700e-09	-3.320983e+00	-2.083235e+02
7.500000e-07	-4.239610e-07	-3.070027e-09	-2.945807e+00	-2.029072e+02
7.600000e-07	-3.698207e-07	-2.993764e-09	-2.569624e+00	-1.973732e+02
7.700000e-07	-3.155446e-07	-2.901720e-09	-2.192498e+00	-1.917200e+02
7.800000e-07	-2.611932e-07	-2.804860e-09	-1.814848e+00	-1.859466e+02
7.900000e-07	-2.068130e-07	-2.712806e-09	-1.436998e+00	-1.800520e+02
8.000000e-07	-1.523938e-07	-2.628683e-09	-1.058878e+00	-1.740344e+02
8.100000e-07	-9.795480e-08	-2.532562e-09	-6.806191e-01	-1.678909e+02
8.200000e-07	-4.349256e-08	-2.429329e-09	-3.021993e-01	-1.616172e+02
8.300000e-07	1.101292e-08	-2.331993e-09	7.652106e-02	-1.552071e+02
8.400000e-07	6.554982e-08	-2.233960e-09	4.554597e-01	-1.486528e+02
8.500000e-07	1.200351e-07	-2.130844e-09	8.340396e-01	-1.419448e+02
8.600000e-07	1.744788e-07	-2.018710e-09	1.212331e+00	-1.350727e+02
8.700000e-07	2.288990e-07	-1.912401e-09	1.590458e+00	-1.280256e+02
8.800000e-07	2.832176e-07	-1.806894e-09	1.967880e+00	-1.207922e+02
8.900000e-07	3.374644e-07	-1.695084e-09	2.344803e+00	-1.133617e+02
9.000000e-07	3.916391e-07	-1.568921e-09	2.721225e+00	-1.057238e+02
9.100000e-07	4.456966e-07	-1.443216e-09	3.096832e+00	-9.786876e+01
9.200000e-07	4.995876e-07	-1.325187e-09	3.471283e+00	-8.978698e+01
9.300000e-07	5.532522e-07	-1.202263e-09	3.844161e+00	-8.146864e+01
9.400000e-07	6.066792e-07	-1.070796e-09	4.215388e+00	-7.290295e+01
9.500000e-07	6.597922e-07	-9.335492e-10	4.584433e+00	-6.407735e+01
9.600000e-07	7.126478e-07	-7.981295e-10	4.951689e+00	-5.497684e+01
9.700000e-07	7.653060e-07	-6.551774e-10	5.317574e+00	-4.558351e+01
9.800000e-07	8.177139e-07	-5.023251e-10	5.681719e+00	-3.587641e+01
9.900000e-07	8.698738e-07	-3.408310e-10	6.044142e+00	-2.583198e+01
1.000000e-06	9.217220e-07	-1.786691e-10	6.404399e+00	-1.542505e+01
1.010000e-06	9.730808e-07	-1.455834e-11	6.761255e+00	-4.630362e+00
1.020000e-06	1.023754e-06	1.543747e-10	7.113350e+00	6.575203e+00
1.030000e-06	1.073710e-06	3.281270e-10	7.460456e+00	1.821012e+01
1.040000e-06	1.123089e-06	5.108116e-10	7.803559e+00	3.028536e+01
1.050000e-06	1.172012e-06	7.010713e-10	8.143486e+00	4.280162e+01
1.060000e-06	1.220623e-06	9.010463e-10	8.481249e+00	5.574669e+01
1.070000e-06	1.269018e-06	1.106687e-09	8.817518e+00	6.909346e+01
1.080000e-06	1.317049e-06	1.319038e-09	9.151249e+00	8.279869e+01
1.090000e-06	1.364521e-06	1.532193e-09	9.481100e+00	9.680264e+01
1.100000e-06	1.411474e-06	1.745717e-09	9.807342e+00	1.110299e+02
1.110000e-06	1.457998e-06	1.960868e-09	1.013060e+01	1.253914e+02
1.120000e-06	1.503991e-06	2.177881e-09	1.045018e+01	1.397870e+02
1.130000e-06	1.549381e-06	2.395325e-09	1.076556e+01	1.541098e+02
1.140000e-06	1.594311e-06	2.611050e-09	1.107775e+01	1.682499e+02
1.150000e-06	1.638941e-06	2.824490e-09	1.138785e+01	1.820999e+02
1.160000e-06	1.683217e-06	3.027133e-09	1.169549e+01	1.955588e+02
1.170000e-06	1.726844e-06	3.220531e-09	1.199863e+01	2.085366e+02
1.180000e-06	1.769586e-06	3.406733e-09	1.229561e+01	2.209582e+02
1.190000e-06	1.811369e-06	3.585882e-09	1.258593e+01	2.327654e+02
1.200000e-06	1.852357e-06	3.754931e-09	1.287073e+01	2.439187e+02
1.210000e-06	1.892861e-06	3.914479e-09	1.315216e+01	2.543975e+02
1.220000e-06	1.932872e-06	4.064036e-09	1.343017e+01	2.641996e+02
1.230000e-06	1.972209e-06	4.203828e-09	1.370350e+01	2.733384e+02
1.240000e-06	2.010872e-06	4.333123e-09	1.397213e+01	2.818413e+02
1.250000e-06	2.048773e-06	4.449787e-09	1.423548e+01	2.897453e+02
1.260000e-06	2.085906e-06	4.557817e-09	1.449349e+01	2.970942e+02
1.270000e-06	2.122550e-06	4.659184e-09	1.474811e+01	3.039350e+02
1.280000e-06	2.158688e-06	4.754810e-09	1.499920e+01	3.103145e+02
1.290000e-06	2.193909e-06	4.843365e-09	1.524393e+01	3.162767e+02
1.300000e-06	2.228017e-06	4.927062e-09	1.548093e+01	3.218613e+02
1.310000e-06	2.261195e-06	5.007599e-09	1.571146e+01	3.271021e+02
1.320000e-06	2.293677e-06	5.083561e-09	1.593715e+01	3.320271e+02
1.330000e-06	2.325438e-06	5.153344e-09	1.615783e+01	3.366583e+02
1.340000e-06	2.356437e-06	5.216544e-09	1.637322e+01	3.410128e+02
1.350000e-06	2.386665e-06	5.273951e-09	1.658326e+01	3.451041e+02
1.360000e-06	2.416049e-06	5.325880e-09	1.678743e+01	3.489430e+02
1.370000e-06	2.444782e-06	5.377460e-09	1.698707e+01	3.525393e+02
1.380000e-06	2.472858e-06	5.430140e-09	1.718215e+01	3.559026e+02
1.390000e-06	2.499852e-06	5.481077e-09	1.736972e+01	3.590431e+02
1.400000e-06	2.525574e-06	5.525119e-09	1.754844e+01	3.619723e+02
1.410000e-06	2.550306e-06	5.562287e-09	1.772028e+01	3.647025e+02
1.420000e-06	2.574218e-06	5.596801e-09	1.788643e+01	3.672470e+02
1.430000e-06	2.597287e-06	5.630483e-09	1.804672e+01	3.696194e+02
1.440000e-06	2.619466e-06	5.661870e-09	1.820083e+01	3.718330e+02
1.450000e-06	2.640730e-06	5.687819e-09	1.834858e+01	3.739003e+02
1.460000e-06	2.661311e-06	5.714242e-09	1.849158e+01	3.758322e+02
1.470000e-06	2.681124e-06	5.744819e-09	1.862924e+01	3.776380e+02
1.480000e-06	2.699881e-06	5.774686e-09	1.875958e+01	3.793249e+02
1.490000e-06	2.717724e-06	5.797717e-09	1.888355e+01	3.808984e+02
1.500000e-06	2.734646e-06	5.815656e-09	1.900113e+01	3.823625e+02
1.510000e-06	2.750408e-06	5.833765e-09	1.911065e+01	3.837203e+02
1.520000e-06	2.765107e-06	5.851026e-09	1.921278e+01	3.849741e+02
1.530000e-06	2.778796e-06	5.865567e-09	1.930790e+01	3.861261e+02
1.540000e-06	2.791480e-06	5.878152e-09	1.939603e+01	3.871791e+02
1.550000e-06	2.803057e-06	5.893071e-09	1.947648e+01	3.881362e+02
1.560000e-06	2.813307e-06	5.910435e-09	1.954770e+01	3.890008e+02
1.570000e-06	2.822405e-06	5.925910e-09	1.961091e+01	3.897770e+02
1.580000e-06	2.830570e-06	5.936356e-09	1.966764e+01	3.904687e+02
1.590000e-06	2.837786e-06	5.943397e-09	1.971778e+01	3.910795e+02
1.600000e-06	2.844023e-06	5.950822e-09	1.976112e+01	3.916120e+02
1.610000e-06	2.849313e-06	5.956748e-09	1.979788e+01	3.920678e+02
1.620000e-06	2.853796e-06	5.959022e-09	1.982902e+01	3.924469e+02
1.630000e-06	2.857336e-06	5.962446e-09	1.985362e+01	3.927482e+02
1.640000e-06	2.859577e-06	5.969378e-09	1.986919e+01	3.929692e+02
1.650000e-06	2.860679e-06	5.977821e-09	1.987685e+01	3.931068e+02
1.660000e-06	2.860917e-06	5.981894e-09	1.987850e+01	3.931577e+02
1.670000e-06	2.860268e-06	5.976451e-09	1.987399e+01	3.931192e+02
1.680000e-06	2.858718e-06	5.966744e-09	1.986323e+01	3.929902e+02
1.690000e-06	2.856259e-06	5.964201e-09	1.984614e+01	3.927714e+02
1.700000e-06	2.853052e-06	5.962649e-09	1.982385e+01	3.924659e+02
1.710000e-06	2.849099e-06	5.954999e-09	1.979639e+01	3.920796e+02
1.720000e-06	2.843972e-06	5.955294e-09	1.976076e+01	3.916206e+02
1.730000e-06	2.837608e-06	5.995754e-09	1.971655e+01	3.910991e+02
1.740000e-06	2.830406e-06	5.961098e-09	1.966650e+01	3.905264e+02
1.750000e-06	2.822263e-06	5.795782e-09	1.960992e+01	3.899140e+02
1.760000e-06	2.812544e-06	5.760920e-09	1.954239e+01	3.892726e+02
1.770000e-06	2.801300e-06	6.062663e-09	1.946427e+01	3.886105e+02
1.780000e-06	2.789589e-06	6.059890e-09	1.938290e+01	3.879332e+02
1.790000e-06	2.777838e-06	5.731241e-09	1.930124e+01	3.872424e+02
1.800000e-06	2.764791e-06	5.733032e-09	1.921059e+01	3.865359e+02
1.810000e-06	2.749916e-06	6.063547e-09	1.910723e+01	3.858071e+02
1.820000e-06	2.734343e-06	5.855942e-09	1.899903e+01	3.850461e+02
1.830000e-06	2.718253e-06	5.547657e-09	1.888723e+01	3.842402e+02
1.840000e-06	2.700704e-06	5.995186e-09	1.876529e+01	3.833751e+02
1.850000e-06	2.681910e-06	6.004881e-09	1.863471e+01	3.824363e+02
1.860000e-06	2.662645e-06	5.526939e-09	1.850085e+01	3.814102e+02
1.870000e-06	2.642476e-06	5.823295e-09	1.836071e+01	3.802857e+02
1.880000e-06	2.621044e-06	6.015075e-09	1.821179e+01	3.790547e+02
1.890000e-06	2.598687e-06	5.502591e-09	1.805645e+01	3.777134e+02
1.900000e-06	2.575299e-06	5.605735e-09	1.789394e+01	3.762618e+02
1.910000e-06	2.550910e-06	5.899362e-09	1.772448e+01	3.747039e+02
1.920000e-06	2.525937e-06	5.640296e-09	1.755096e+01	3.730470e+02
1.930000e-06	2.500060e-06	5.565289e-09	1.737116e+01	3.713006e+02
1.940000e-06	2.473201e-06	5.694781e-09	1.718453e+01	3.694755e+02
1.950000e-06	2.445831e-06	5.544237e-09	1.699436e+01	3.675823e+02
1.960000e-06	2.417514e-06	5.581616e-09	1.679761e+01	3.656304e+02
1.970000e-06	2.387926e-06	5.535838e-09	1.659202e+01	3.636271e+02
1.980000e-06	2.357393e-06	5.376490e-09	1.637987e+01	3.615766e+02
1.990000e-06	2.326079e-06	5.559365e-09	1.616229e+01	3.594803e+02
2.000000e-06	2.294085e-06	5.468081e-09	1.593999e+01	3.573362e+02
2.010000e-06	2.261335e-06	5.305233e-09	1.571243e+01	3.551398e+02
2.020000e-06	2.227715e-06	5.451353e-09	1.547883e+01	3.528849e+02
2.030000e-06	2.193396e-06	5.303422e-09	1.524037e+01	3.505641e+02
2.040000e-06	2.158467e-06	5.196371e-09	1.499767e+01	3.481702e+02
2.050000e-06	2.122899e-06	5.362172e-09	1.475053e+01	3.456970e+02
2.060000e-06	2.086764e-06	5.202544e-09	1.449946e+01	3.431400e+02
2.070000e-06	2.049610e-06	5.104896e-09	1.424130e+01	3.404969e+02
2.080000e-06	2.011156e-06	5.191465e-09	1.397411e+01	3.377679e+02
2.090000e-06	1.971977e-06	5.088953e-09	1.370188e+01	3.349551e+02
2.100000e-06	1.932320e-06	5.036457e-09	1.342633e+01	3.320628e+02
2.110000e-06	1.892049e-06	4.996746e-09	1.314652e+01	3.290961e+02
2.120000e-06	1.851134e-06	4.936269e-09	1.286223e+01	3.260605e+02
2.130000e-06	1.809627e-06	4.938172e-09	1.257383e+01	3.229609e+02
2.140000e-06	1.767542e-06	4.862045e-09	1.228141e+01	3.198010e+02
2.150000e-06	1.724795e-06	4.793882e-09	1.198439e+01	3.165828e+02
2.160000e-06	1.681608e-06	4.762556e-09	1.168431e+01	3.133061e+02
2.170000e-06	1.638057e-06	4.708092e-09	1.138171e+01	3.099687e+02
2.180000e-06	1.593916e-06	4.670462e-09	1.107500e+01	3.065664e+02
2.190000e-06	1.549135e-06	4.607616e-09	1.076385e+01	3.030941e+02
2.200000e-06	1.503684e-06	4.541087e-09	1.044804e+01	2.995459e+02
2.210000e-06	1.457742e-06	4.499315e-09	1.012883e+01	2.959159e+02
2.220000e-06	1.411435e-06	4.435439e-09	9.807072e+00	2.921992e+02
2.230000e-06	1.364688e-06	4.395616e-09	9.482257e+00	2.883923e+02
2.240000e-06	1.317458e-06	4.315863e-09	9.154090e+00	2.844935e+02
2.250000e-06	1.269567e-06	4.250520e-09	8.821326e+00	2.805028e+02
2.260000e-06	1.221069e-06	4.227761e-09	8.484348e+00	2.764222e+02
2.270000e-06	1.172151e-06	4.145864e-09	8.144456e+00	2.722548e+02
2.280000e-06	1.122842e-06	4.072162e-09	7.801843e+00	2.680047e+02
2.290000e-06	1.073140e-06	4.008136e-09	7.456493e+00	2.636759e+02
2.300000e-06	1.022966e-06	3.946418e-09	7.107872e+00	2.592720e+02
2.310000e-06	9.723385e-07	3.892062e-09	6.756097e+00	2.547952e+02
2.320000e-06	9.213893e-07	3.813152e-09	6.402087e+00	2.502462e+02
2.330000e-06	8.701813e-07	3.738065e-09	6.046279e+00	2.456239e+02
2.340000e-06	8.187827e-07	3.674223e-09	5.689146e+00	2.409252e+02
2.350000e-06	7.670980e-07	3.601941e-09	5.330025e+00	2.361454e+02
2.360000e-06	7.149872e-07	3.529398e-09	4.967944e+00	2.312786e+02
2.370000e-06	6.624542e-07	3.445365e-09	4.602929e+00	2.263184e+02
2.380000e-06	6.094686e-07	3.368689e-09	4.234769e+00	2.212584e+02
2.390000e-06	5.561175e-07	3.300463e-09	3.864070e+00	2.160925e+02
2.400000e-06	5.023909e-07	3.217922e-09	3.490761e+00	2.108158e+02
2.410000e-06	4.483238e-07	3.139225e-09	3.115087e+00	2.054245e+02
2.420000e-06	3.941264e-07	3.053021e-09	2.738507e+00	1.999159e+02
2.430000e-06	3.397484e-07	2.972788e-09	2.360673e+00	1.942883e+02
2.440000e-06	2.851301e-07	2.894160e-09	1.981169e+00	1.885408e+02
2.450000e-06	2.303684e-07	2.797158e-09	1.600668e+00	1.826723e+02
2.460000e-06	1.755382e-07	2.698817e-09	1.219692e+00	1.766813e+02
2.470000e-06	1.207310e-07	2.604398e-09	8.388749e-01	1.705651e+02
2.480000e-06	6.591041e-08	2.517394e-09	4.579651e-01	1.643198e+02
2.490000e-06	1.097240e-08	2.426447e-09	7.623950e-02	1.579396e+02
2.500000e-06	-4.403104e-08	2.325755e-09	-3.059408e-01	1.514169e+02
2.510000e-06	-9.900168e-08	2.226403e-09	-6.878931e-01	1.447427e+02
2.520000e-06	-1.538951e-07	2.128328e-09	-1.069309e+00	1.379068e+02
2.530000e-06	-2.087305e-07	2.019770e-09	-1.450322e+00	1.308981e+02
2.540000e-06	-2.635300e-07	1.902934e-09	-1.831085e+00	1.237056e+02
2.550000e-06	-3.182205e-07	1.786534e-09	-2.211091e+00	1.163182e+02
2.560000e-06	-3.727338e-07	1.675947e-09	-2.589865e+00	1.087256e+02
2.570000e-06	-4.270607e-07	1.563692e-09	-2.967345e+00	1.009179e+02
2.580000e-06	-4.810725e-07	1.440821e-09	-3.342635e+00	9.288558e+01
2.590000e-06	-5.347499e-07	1.317300e-09	-3.715602e+00	8.461882e+01
2.600000e-06	-5.880923e-07	1.190399e-09	-4.086240e+00	7.610714e+01
2.610000e-06	-6.410289e-07	1.057987e-09	-4.454059e+00	6.733843e+01
2.620000e-06	-6.935677e-07	9.172557e-10	-4.819114e+00	5.829826e+01
2.630000e-06	-7.457254e-07	7.705437e-10	-5.181522e+00	4.896936e+01
2.640000e-06	-7.975593e-07	6.238365e-10	-5.541679e+00	3.933142e+01
2.650000e-06	-8.491286e-07	4.758476e-10	-5.899999e+00	2.936139e+01
2.660000e-06	-9.004545e-07	3.216320e-10	-6.256626e+00	1.903431e+01
2.670000e-06	-9.515156e-07	1.572064e-10	-6.611413e+00	8.324795e+00
2.680000e-06	-1.002229e-06	-1.117874e-11	-6.963784e+00	-2.790945e+00
2.690000e-06	-1.052517e-06	-1.851182e-10	-7.313205e+00	-1.433261e+01
2.700000e-06	-1.102357e-06	-3.677451e-10	-7.659502e+00	-2.631303e+01
2.710000e-06	-1.151770e-06	-5.587973e-10	-8.002842e+00	-3.873531e+01
2.720000e-06	-1.200827e-06	-7.535753e-10	-8.343703e+00	-5.159021e+01
2.730000e-06	-1.249260e-06	-9.540200e-10	-8.680230e+00	-6.485396e+01
2.740000e-06	-1.296858e-06	-1.162403e-09	-9.010954e+00	-7.848683e+01
2.750000e-06	-1.343766e-06	-1.376468e-09	-9.336887e+00	-9.243258e+01
2.760000e-06	-1.390080e-06	-1.594638e-09	-9.658690e+00	-1.066191e+02
2.770000e-06	-1.435964e-06	-1.814054e-09	-9.977504e+00	-1.209598e+02
2.780000e-06	-1.481571e-06	-2.036157e-09	-1.029440e+01	-1.353570e+02
2.790000e-06	-1.526791e-06	-2.259022e-09	-1.060860e+01	-1.497045e+02
2.800000e-06	-1.571490e-06	-2.479457e-09	-1.091918e+01	-1.638930e+02
2.810000e-06	-1.615606e-06	-2.691599e-09	-1.122571e+01	-1.778139e+02
2.820000e-06	-1.659205e-06	-2.897478e-09	-1.152865e+01	-1.913646e+02
2.830000e-06	-1.702479e-06	-3.099178e-09	-1.182933e+01	-2.044524e+02
2.840000e-06	-1.745338e-06	-3.292185e-09	-1.212713e+01	-2.169987e+02
2.850000e-06	-1.787573e-06	-3.474181e-09	-1.242059e+01	-2.289414e+02
2.860000e-06	-1.829222e-06	-3.645542e-09	-1.270998e+01	-2.402371e+02
2.870000e-06	-1.870268e-06	-3.809624e-09	-1.299518e+01	-2.508613e+02
2.880000e-06	-1.910635e-06	-3.965725e-09	-1.327566e+01	-2.608077e+02
2.890000e-06	-1.950374e-06	-4.110881e-09	-1.355178e+01	-2.700868e+02
2.900000e-06	-1.989619e-06	-4.245395e-09	-1.382446e+01	-2.787231e+02
2.910000e-06	-2.028278e-06	-4.372668e-09	-1.409308e+01	-2.867519e+02
2.920000e-06	-2.065985e-06	-4.490413e-09	-1.435508e+01	-2.942158e+02
2.930000e-06	-2.102583e-06	-4.596523e-09	-1.460937e+01	-3.011615e+02
2.940000e-06	-2.138349e-06	-4.692983e-09	-1.485789e+01	-3.076359e+02
