# Temperatura_=_22.25
# Concentracion g/m^3_=_15500.0
# C_Vs_to_Am_M_A/Vsm_=_65563218390.804596
# pendiente_HvsI_1/m_=_3716.3
# ordenada_HvsI_A/m_=_1297.0
# frecuencia_Hz_=_300834.8444261771

Tiempo_(s)	Campo_(V.s)	Magnetizacion_(V.s)	Campo_(kA/m)	Magnetizacion_(A/m)
0.000000e+00	-2.849625e-06	-5.599346e-09	-1.980493e+01	-3.669526e+02
1.000000e-08	-2.849219e-06	-5.598226e-09	-1.980211e+01	-3.668783e+02
2.000000e-08	-2.848081e-06	-5.597043e-09	-1.979420e+01	-3.667338e+02
3.000000e-08	-2.845854e-06	-5.593813e-09	-1.977872e+01	-3.665172e+02
4.000000e-08	-2.842329e-06	-5.590028e-09	-1.975422e+01	-3.662279e+02
5.000000e-08	-2.837853e-06	-5.584695e-09	-1.972312e+01	-3.658669e+02
6.000000e-08	-2.832653e-06	-5.571403e-09	-1.968697e+01	-3.654371e+02
7.000000e-08	-2.826595e-06	-5.542018e-09	-1.964487e+01	-3.649430e+02
8.000000e-08	-2.819524e-06	-5.530508e-09	-1.959573e+01	-3.643905e+02
9.000000e-08	-2.811359e-06	-5.596292e-09	-1.953898e+01	-3.637867e+02
1.000000e-07	-2.801962e-06	-5.650756e-09	-1.947367e+01	-3.631387e+02
1.100000e-07	-2.791192e-06	-5.544632e-09	-1.939882e+01	-3.624533e+02
1.200000e-07	-2.779315e-06	-5.378444e-09	-1.931627e+01	-3.617359e+02
1.300000e-07	-2.766649e-06	-5.495282e-09	-1.922825e+01	-3.609901e+02
1.400000e-07	-2.753089e-06	-5.645431e-09	-1.913400e+01	-3.602172e+02
1.500000e-07	-2.738550e-06	-5.435523e-09	-1.903295e+01	-3.594160e+02
1.600000e-07	-2.722999e-06	-5.371095e-09	-1.892487e+01	-3.585827e+02
1.700000e-07	-2.706033e-06	-5.602822e-09	-1.880696e+01	-3.577116e+02
1.800000e-07	-2.687830e-06	-5.555668e-09	-1.868045e+01	-3.567955e+02
1.900000e-07	-2.669012e-06	-5.339611e-09	-1.854967e+01	-3.558262e+02
2.000000e-07	-2.649443e-06	-5.475565e-09	-1.841366e+01	-3.547960e+02
2.100000e-07	-2.628924e-06	-5.506739e-09	-1.827106e+01	-3.536977e+02
2.200000e-07	-2.607661e-06	-5.267668e-09	-1.812327e+01	-3.525258e+02
2.300000e-07	-2.585616e-06	-5.383788e-09	-1.797006e+01	-3.512769e+02
2.400000e-07	-2.562572e-06	-5.508354e-09	-1.780990e+01	-3.499497e+02
2.500000e-07	-2.538636e-06	-5.290201e-09	-1.764355e+01	-3.485454e+02
2.600000e-07	-2.513947e-06	-5.260341e-09	-1.747196e+01	-3.470670e+02
2.700000e-07	-2.488289e-06	-5.353053e-09	-1.729364e+01	-3.455189e+02
2.800000e-07	-2.461547e-06	-5.266695e-09	-1.710778e+01	-3.439065e+02
2.900000e-07	-2.433775e-06	-5.231517e-09	-1.691477e+01	-3.422352e+02
3.000000e-07	-2.405026e-06	-5.227017e-09	-1.671496e+01	-3.405096e+02
3.100000e-07	-2.375491e-06	-5.199542e-09	-1.650969e+01	-3.387335e+02
3.200000e-07	-2.345337e-06	-5.208574e-09	-1.630012e+01	-3.369087e+02
3.300000e-07	-2.314449e-06	-5.159769e-09	-1.608545e+01	-3.350357e+02
3.400000e-07	-2.282716e-06	-5.082743e-09	-1.586491e+01	-3.331129e+02
3.500000e-07	-2.250303e-06	-5.089824e-09	-1.563963e+01	-3.311375e+02
3.600000e-07	-2.217295e-06	-5.049367e-09	-1.541023e+01	-3.291057e+02
3.700000e-07	-2.183465e-06	-5.010080e-09	-1.517511e+01	-3.270134e+02
3.800000e-07	-2.148504e-06	-5.029497e-09	-1.493213e+01	-3.248565e+02
3.900000e-07	-2.112471e-06	-4.940600e-09	-1.468170e+01	-3.226316e+02
4.000000e-07	-2.075766e-06	-4.887387e-09	-1.442660e+01	-3.203365e+02
4.100000e-07	-2.038453e-06	-4.917611e-09	-1.416727e+01	-3.179702e+02
4.200000e-07	-2.000458e-06	-4.863563e-09	-1.390321e+01	-3.155332e+02
4.300000e-07	-1.961762e-06	-4.773988e-09	-1.363427e+01	-3.130268e+02
4.400000e-07	-1.922297e-06	-4.762553e-09	-1.335999e+01	-3.104535e+02
4.500000e-07	-1.882167e-06	-4.739413e-09	-1.308108e+01	-3.078158e+02
4.600000e-07	-1.841606e-06	-4.690593e-09	-1.279919e+01	-3.051162e+02
4.700000e-07	-1.800688e-06	-4.642375e-09	-1.251480e+01	-3.023564e+02
4.800000e-07	-1.759085e-06	-4.590037e-09	-1.222566e+01	-2.995372e+02
4.900000e-07	-1.716455e-06	-4.553382e-09	-1.192938e+01	-2.966579e+02
5.000000e-07	-1.672838e-06	-4.516936e-09	-1.162624e+01	-2.937165e+02
5.100000e-07	-1.628593e-06	-4.468557e-09	-1.131874e+01	-2.907097e+02
5.200000e-07	-1.583917e-06	-4.403370e-09	-1.100824e+01	-2.876334e+02
5.300000e-07	-1.538811e-06	-4.360617e-09	-1.069475e+01	-2.844829e+02
5.400000e-07	-1.493184e-06	-4.321850e-09	-1.037765e+01	-2.812535e+02
5.500000e-07	-1.446991e-06	-4.272672e-09	-1.005661e+01	-2.779411e+02
5.600000e-07	-1.400273e-06	-4.207569e-09	-9.731917e+00	-2.745425e+02
5.700000e-07	-1.352997e-06	-4.145908e-09	-9.403343e+00	-2.710559e+02
5.800000e-07	-1.305178e-06	-4.104826e-09	-9.071002e+00	-2.674806e+02
5.900000e-07	-1.256947e-06	-4.058683e-09	-8.735796e+00	-2.638176e+02
6.000000e-07	-1.208438e-06	-3.991872e-09	-8.398657e+00	-2.600687e+02
6.100000e-07	-1.159626e-06	-3.923611e-09	-8.059416e+00	-2.562367e+02
6.200000e-07	-1.110395e-06	-3.874484e-09	-7.717260e+00	-2.523243e+02
6.300000e-07	-1.060660e-06	-3.815484e-09	-7.371600e+00	-2.483342e+02
6.400000e-07	-1.010380e-06	-3.744774e-09	-7.022157e+00	-2.442683e+02
6.500000e-07	-9.594249e-07	-3.671266e-09	-6.668016e+00	-2.401272e+02
6.600000e-07	-9.078201e-07	-3.608000e-09	-6.309361e+00	-2.359103e+02
6.700000e-07	-8.557828e-07	-3.551559e-09	-5.947702e+00	-2.316157e+02
6.800000e-07	-8.034298e-07	-3.485977e-09	-5.583847e+00	-2.272401e+02
6.900000e-07	-7.508027e-07	-3.410696e-09	-5.218088e+00	-2.227794e+02
7.000000e-07	-6.979690e-07	-3.335721e-09	-4.850893e+00	-2.182289e+02
7.100000e-07	-6.449359e-07	-3.270903e-09	-4.482312e+00	-2.135841e+02
7.200000e-07	-5.917206e-07	-3.202059e-09	-4.112466e+00	-2.088405e+02
7.300000e-07	-5.383485e-07	-3.124864e-09	-3.741529e+00	-2.039945e+02
7.400000e-07	-4.847047e-07	-3.042827e-09	-3.368704e+00	-1.990434e+02
7.500000e-07	-4.307673e-07	-2.965353e-09	-2.993838e+00	-1.939853e+02
7.600000e-07	-3.766682e-07	-2.889379e-09	-2.617849e+00	-1.888192e+02
7.700000e-07	-3.224483e-07	-2.805989e-09	-2.241020e+00	-1.835442e+02
7.800000e-07	-2.681417e-07	-2.718274e-09	-1.863588e+00	-1.781598e+02
7.900000e-07	-2.137697e-07	-2.635846e-09	-1.485702e+00	-1.726645e+02
8.000000e-07	-1.593070e-07	-2.558510e-09	-1.107186e+00	-1.670561e+02
8.100000e-07	-1.048077e-07	-2.468782e-09	-7.284152e-01	-1.613309e+02
8.200000e-07	-5.028740e-08	-2.370918e-09	-3.494981e-01	-1.554836e+02
8.300000e-07	4.246777e-09	-2.273938e-09	2.951515e-02	-1.495074e+02
8.400000e-07	5.877743e-08	-2.180112e-09	4.085039e-01	-1.433938e+02
8.500000e-07	1.132988e-07	-2.084584e-09	7.874284e-01	-1.371334e+02
8.600000e-07	1.677657e-07	-1.986035e-09	1.165974e+00	-1.307158e+02
8.700000e-07	2.221683e-07	-1.885683e-09	1.544073e+00	-1.241306e+02
8.800000e-07	2.765075e-07	-1.783925e-09	1.921730e+00	-1.173673e+02
8.900000e-07	3.308133e-07	-1.679322e-09	2.299156e+00	-1.104162e+02
9.000000e-07	3.850222e-07	-1.564197e-09	2.675909e+00	-1.032678e+02
9.100000e-07	4.390398e-07	-1.444208e-09	3.051332e+00	-9.591322e+01
9.200000e-07	4.928800e-07	-1.326695e-09	3.425522e+00	-8.834329e+01
9.300000e-07	5.464921e-07	-1.214310e-09	3.798127e+00	-8.054822e+01
9.400000e-07	5.998415e-07	-1.095413e-09	4.168906e+00	-7.251667e+01
9.500000e-07	6.529360e-07	-9.661951e-10	4.537913e+00	-6.423501e+01
9.600000e-07	7.058044e-07	-8.320150e-10	4.905350e+00	-5.568662e+01
9.700000e-07	7.584589e-07	-6.959223e-10	5.271299e+00	-4.685152e+01
9.800000e-07	8.108566e-07	-5.555827e-10	5.635463e+00	-3.770644e+01
9.900000e-07	8.630028e-07	-4.052021e-10	5.997881e+00	-2.822536e+01
1.000000e-06	9.147890e-07	-2.491512e-10	6.357795e+00	-1.838071e+01
1.010000e-06	9.660551e-07	-9.136461e-11	6.714095e+00	-8.145144e+00
1.020000e-06	1.016746e-06	6.736178e-11	7.066395e+00	2.506123e+00
1.030000e-06	1.066716e-06	2.329908e-10	7.413691e+00	1.359265e+01
1.040000e-06	1.116020e-06	4.075593e-10	7.756352e+00	2.512583e+01
1.050000e-06	1.164937e-06	5.918620e-10	8.096329e+00	3.710609e+01
1.060000e-06	1.213595e-06	7.835235e-10	8.434500e+00	4.952034e+01
1.070000e-06	1.262003e-06	9.818084e-10	8.770936e+00	6.234001e+01
1.080000e-06	1.310101e-06	1.186549e-09	9.105218e+00	7.551997e+01
1.090000e-06	1.357713e-06	1.392734e-09	9.436122e+00	8.899840e+01
1.100000e-06	1.404786e-06	1.598953e-09	9.763280e+00	1.026977e+02
1.110000e-06	1.451337e-06	1.803762e-09	1.008681e+01	1.165268e+02
1.120000e-06	1.497354e-06	2.011782e-09	1.040663e+01	1.303839e+02
1.130000e-06	1.542846e-06	2.221316e-09	1.072280e+01	1.441606e+02
1.140000e-06	1.587873e-06	2.428254e-09	1.103574e+01	1.577468e+02
1.150000e-06	1.632548e-06	2.630875e-09	1.134623e+01	1.710346e+02
1.160000e-06	1.676862e-06	2.828520e-09	1.165421e+01	1.839239e+02
1.170000e-06	1.720590e-06	3.018136e-09	1.195812e+01	1.963260e+02
1.180000e-06	1.763374e-06	3.196644e-09	1.225547e+01	2.081677e+02
1.190000e-06	1.805129e-06	3.364220e-09	1.254567e+01	2.193931e+02
1.200000e-06	1.846149e-06	3.522041e-09	1.283076e+01	2.299657e+02
1.210000e-06	1.886720e-06	3.672201e-09	1.311273e+01	2.398680e+02
1.220000e-06	1.926793e-06	3.811893e-09	1.339124e+01	2.491007e+02
1.230000e-06	1.966191e-06	3.940940e-09	1.366505e+01	2.576809e+02
1.240000e-06	2.004919e-06	4.061525e-09	1.393421e+01	2.656388e+02
1.250000e-06	2.042898e-06	4.173543e-09	1.419817e+01	2.730142e+02
1.260000e-06	2.080131e-06	4.276100e-09	1.445694e+01	2.798537e+02
1.270000e-06	2.116870e-06	4.370002e-09	1.471227e+01	2.862060e+02
1.280000e-06	2.153148e-06	4.457671e-09	1.496440e+01	2.921196e+02
1.290000e-06	2.188541e-06	4.540035e-09	1.521039e+01	2.976398e+02
1.300000e-06	2.222746e-06	4.615307e-09	1.544812e+01	3.028067e+02
1.310000e-06	2.255990e-06	4.686432e-09	1.567916e+01	3.076544e+02
1.320000e-06	2.288529e-06	4.758324e-09	1.590531e+01	3.122103e+02
1.330000e-06	2.320366e-06	4.827326e-09	1.612658e+01	3.164958e+02
1.340000e-06	2.351447e-06	4.887417e-09	1.634258e+01	3.205273e+02
1.350000e-06	2.381736e-06	4.938462e-09	1.655310e+01	3.243170e+02
1.360000e-06	2.411250e-06	4.983702e-09	1.675821e+01	3.278747e+02
1.370000e-06	2.440124e-06	5.029498e-09	1.695889e+01	3.312090e+02
1.380000e-06	2.468374e-06	5.078444e-09	1.715523e+01	3.343284e+02
1.390000e-06	2.495586e-06	5.126796e-09	1.734435e+01	3.372423e+02
1.400000e-06	2.521459e-06	5.169248e-09	1.752417e+01	3.399615e+02
1.410000e-06	2.546344e-06	5.204794e-09	1.769713e+01	3.424977e+02
1.420000e-06	2.570400e-06	5.235882e-09	1.786431e+01	3.448637e+02
1.430000e-06	2.593528e-06	5.265489e-09	1.802505e+01	3.470728e+02
1.440000e-06	2.615786e-06	5.293783e-09	1.817974e+01	3.491377e+02
1.450000e-06	2.637208e-06	5.320347e-09	1.832863e+01	3.510701e+02
1.460000e-06	2.657932e-06	5.347908e-09	1.847266e+01	3.528800e+02
1.470000e-06	2.677848e-06	5.377406e-09	1.861108e+01	3.545753e+02
1.480000e-06	2.696756e-06	5.405033e-09	1.874249e+01	3.561613e+02
1.490000e-06	2.714695e-06	5.426111e-09	1.886716e+01	3.576415e+02
1.500000e-06	2.731728e-06	5.441736e-09	1.898554e+01	3.590172e+02
1.510000e-06	2.747656e-06	5.456592e-09	1.909624e+01	3.602888e+02
1.520000e-06	2.762459e-06	5.472832e-09	1.919913e+01	3.614559e+02
1.530000e-06	2.776266e-06	5.488249e-09	1.929509e+01	3.625182e+02
1.540000e-06	2.789081e-06	5.502337e-09	1.938415e+01	3.634761e+02
1.550000e-06	2.800801e-06	5.517629e-09	1.946560e+01	3.643312e+02
1.560000e-06	2.811196e-06	5.533642e-09	1.953785e+01	3.650866e+02
1.570000e-06	2.820411e-06	5.546115e-09	1.960189e+01	3.657463e+02
1.580000e-06	2.828742e-06	5.553272e-09	1.965979e+01	3.663159e+02
1.590000e-06	2.836208e-06	5.559556e-09	1.971168e+01	3.668013e+02
1.600000e-06	2.842666e-06	5.567648e-09	1.975657e+01	3.672084e+02
1.610000e-06	2.848101e-06	5.572760e-09	1.979434e+01	3.675428e+02
1.620000e-06	2.852692e-06	5.572120e-09	1.982625e+01	3.678090e+02
1.630000e-06	2.856341e-06	5.572580e-09	1.985161e+01	3.680100e+02
1.640000e-06	2.858704e-06	5.579537e-09	1.986803e+01	3.681471e+02
1.650000e-06	2.859914e-06	5.587900e-09	1.987644e+01	3.682204e+02
1.660000e-06	2.860211e-06	5.591784e-09	1.987850e+01	3.682283e+02
1.670000e-06	2.859599e-06	5.589643e-09	1.987425e+01	3.681688e+02
1.680000e-06	2.858093e-06	5.583299e-09	1.986378e+01	3.680394e+02
1.690000e-06	2.855721e-06	5.579373e-09	1.984730e+01	3.678382e+02
1.700000e-06	2.852628e-06	5.574403e-09	1.982580e+01	3.675644e+02
1.710000e-06	2.848726e-06	5.565252e-09	1.979869e+01	3.672185e+02
1.720000e-06	2.843652e-06	5.563589e-09	1.976342e+01	3.668031e+02
1.730000e-06	2.837437e-06	5.586289e-09	1.972022e+01	3.663222e+02
1.740000e-06	2.830366e-06	5.577422e-09	1.967108e+01	3.657815e+02
1.750000e-06	2.822371e-06	5.468646e-09	1.961551e+01	3.651880e+02
1.760000e-06	2.812897e-06	5.428545e-09	1.954967e+01	3.645488e+02
1.770000e-06	2.801879e-06	5.575650e-09	1.947309e+01	3.638708e+02
1.780000e-06	2.790222e-06	5.629327e-09	1.939208e+01	3.631598e+02
1.790000e-06	2.778402e-06	5.448620e-09	1.930993e+01	3.624198e+02
1.800000e-06	2.765546e-06	5.350526e-09	1.922058e+01	3.616527e+02
1.810000e-06	2.750976e-06	5.568050e-09	1.911932e+01	3.608577e+02
1.820000e-06	2.735451e-06	5.508865e-09	1.901142e+01	3.600316e+02
1.830000e-06	2.719381e-06	5.298282e-09	1.889973e+01	3.591691e+02
1.840000e-06	2.702010e-06	5.498299e-09	1.877900e+01	3.582632e+02
1.850000e-06	2.683394e-06	5.585039e-09	1.864962e+01	3.573059e+02
1.860000e-06	2.664221e-06	5.329340e-09	1.851637e+01	3.562893e+02
1.870000e-06	2.644217e-06	5.389730e-09	1.837734e+01	3.552060e+02
1.880000e-06	2.622969e-06	5.568174e-09	1.822967e+01	3.540502e+02
1.890000e-06	2.600680e-06	5.292124e-09	1.807476e+01	3.528179e+02
1.900000e-06	2.577439e-06	5.215487e-09	1.791323e+01	3.515074e+02
1.910000e-06	2.553229e-06	5.445618e-09	1.774497e+01	3.501193e+02
1.920000e-06	2.528281e-06	5.339114e-09	1.757159e+01	3.486564e+02
1.930000e-06	2.502520e-06	5.223263e-09	1.739255e+01	3.471227e+02
1.940000e-06	2.475886e-06	5.319000e-09	1.720744e+01	3.455235e+02
1.950000e-06	2.448602e-06	5.238379e-09	1.701782e+01	3.438643e+02
1.960000e-06	2.420406e-06	5.218746e-09	1.682185e+01	3.421499e+02
1.970000e-06	2.390943e-06	5.206492e-09	1.661708e+01	3.403843e+02
1.980000e-06	2.360463e-06	5.098204e-09	1.640525e+01	3.385698e+02
1.990000e-06	2.329259e-06	5.159509e-09	1.618838e+01	3.367071e+02
2.000000e-06	2.297385e-06	5.144765e-09	1.596686e+01	3.347950e+02
2.010000e-06	2.264796e-06	5.021309e-09	1.574036e+01	3.328311e+02
2.020000e-06	2.231318e-06	5.069343e-09	1.550769e+01	3.308117e+02
2.030000e-06	2.197080e-06	5.011701e-09	1.526973e+01	3.287327e+02
2.040000e-06	2.162255e-06	4.914343e-09	1.502770e+01	3.265898e+02
2.050000e-06	2.126787e-06	4.995011e-09	1.478120e+01	3.243796e+02
2.060000e-06	2.090549e-06	4.918769e-09	1.452934e+01	3.220996e+02
2.070000e-06	2.053288e-06	4.820234e-09	1.427038e+01	3.197485e+02
2.080000e-06	2.015015e-06	4.858577e-09	1.400438e+01	3.173264e+02
2.090000e-06	1.976048e-06	4.804928e-09	1.373356e+01	3.148347e+02
2.100000e-06	1.936501e-06	4.740207e-09	1.345870e+01	3.122754e+02
2.110000e-06	1.896307e-06	4.717682e-09	1.317936e+01	3.096512e+02
2.120000e-06	1.855505e-06	4.671233e-09	1.289578e+01	3.069646e+02
2.130000e-06	1.814100e-06	4.652294e-09	1.260802e+01	3.042175e+02
2.140000e-06	1.772077e-06	4.602434e-09	1.231596e+01	3.014110e+02
2.150000e-06	1.729491e-06	4.541709e-09	1.201998e+01	2.985446e+02
2.160000e-06	1.686471e-06	4.511678e-09	1.172100e+01	2.956166e+02
2.170000e-06	1.643008e-06	4.460293e-09	1.141892e+01	2.926241e+02
2.180000e-06	1.598959e-06	4.425824e-09	1.111279e+01	2.895630e+02
2.190000e-06	1.554225e-06	4.375098e-09	1.080188e+01	2.864287e+02
2.200000e-06	1.508867e-06	4.311507e-09	1.048665e+01	2.832165e+02
2.210000e-06	1.463095e-06	4.272100e-09	1.016853e+01	2.799221e+02
2.220000e-06	1.416922e-06	4.223374e-09	9.847624e+00	2.765421e+02
2.230000e-06	1.370310e-06	4.175894e-09	9.523673e+00	2.730743e+02
2.240000e-06	1.323165e-06	4.110332e-09	9.196015e+00	2.695179e+02
2.250000e-06	1.275343e-06	4.051757e-09	8.863647e+00	2.658735e+02
2.260000e-06	1.226928e-06	4.017984e-09	8.527162e+00	2.621427e+02
2.270000e-06	1.178099e-06	3.953784e-09	8.187805e+00	2.583282e+02
2.280000e-06	1.128889e-06	3.882984e-09	7.845795e+00	2.544327e+02
2.290000e-06	1.079258e-06	3.829350e-09	7.500859e+00	2.504590e+02
2.300000e-06	1.029165e-06	3.771875e-09	7.152708e+00	2.464091e+02
2.310000e-06	9.786310e-07	3.715482e-09	6.801498e+00	2.422841e+02
2.320000e-06	9.277515e-07	3.647317e-09	6.447885e+00	2.380835e+02
2.330000e-06	8.766301e-07	3.574702e-09	6.092590e+00	2.338056e+02
2.340000e-06	8.252885e-07	3.510187e-09	5.735765e+00	2.294476e+02
2.350000e-06	7.736360e-07	3.440974e-09	5.376780e+00	2.250054e+02
2.360000e-06	7.215643e-07	3.378532e-09	5.014881e+00	2.204745e+02
2.370000e-06	6.690603e-07	3.311151e-09	4.649977e+00	2.158502e+02
2.380000e-06	6.161384e-07	3.239812e-09	4.282169e+00	2.111280e+02
2.390000e-06	5.627908e-07	3.168860e-09	3.911403e+00	2.063042e+02
2.400000e-06	5.090208e-07	3.089621e-09	3.537701e+00	2.013757e+02
2.410000e-06	4.549731e-07	3.011626e-09	3.162069e+00	1.963406e+02
2.420000e-06	4.007820e-07	2.932365e-09	2.785440e+00	1.911975e+02
2.430000e-06	3.464146e-07	2.856136e-09	2.407586e+00	1.859459e+02
2.440000e-06	2.918362e-07	2.780471e-09	2.028265e+00	1.805849e+02
2.450000e-06	2.371037e-07	2.694480e-09	1.647874e+00	1.751134e+02
2.460000e-06	1.823180e-07	2.606416e-09	1.267113e+00	1.695294e+02
2.470000e-06	1.274629e-07	2.522938e-09	8.858688e-01	1.638296e+02
2.480000e-06	7.258848e-08	2.439371e-09	5.044909e-01	1.580089e+02
2.490000e-06	1.773904e-08	2.351732e-09	1.232866e-01	1.520609e+02
2.500000e-06	-3.711626e-08	2.257500e-09	-2.579585e-01	1.459774e+02
2.510000e-06	-9.197481e-08	2.161622e-09	-6.392261e-01	1.397492e+02
2.520000e-06	-1.468394e-07	2.066277e-09	-1.020536e+00	1.333661e+02
2.530000e-06	-2.016519e-07	1.965843e-09	-1.401483e+00	1.268176e+02
2.540000e-06	-2.563567e-07	1.862912e-09	-1.781683e+00	1.200932e+02
2.550000e-06	-3.109821e-07	1.759103e-09	-2.161329e+00	1.131831e+02
2.560000e-06	-3.655392e-07	1.655958e-09	-2.540502e+00	1.060777e+02
2.570000e-06	-4.199916e-07	1.549700e-09	-2.918947e+00	9.876794e+01
2.580000e-06	-4.742004e-07	1.436629e-09	-3.295699e+00	9.124486e+01
2.590000e-06	-5.280833e-07	1.318699e-09	-3.670186e+00	8.349883e+01
2.600000e-06	-5.816018e-07	1.197566e-09	-4.042140e+00	7.551893e+01
2.610000e-06	-6.346539e-07	1.073181e-09	-4.410852e+00	6.729207e+01
2.620000e-06	-6.872582e-07	9.417088e-10	-4.776453e+00	5.880231e+01
2.630000e-06	-7.395165e-07	8.053471e-10	-5.139649e+00	5.003042e+01
2.640000e-06	-7.914179e-07	6.669474e-10	-5.500364e+00	4.095379e+01
2.650000e-06	-8.429559e-07	5.278863e-10	-5.858554e+00	3.154691e+01
2.660000e-06	-8.942091e-07	3.821349e-10	-6.214765e+00	2.178242e+01
2.670000e-06	-9.452144e-07	2.277636e-10	-6.569252e+00	1.163275e+01
2.680000e-06	-9.959314e-07	6.921010e-11	-6.921736e+00	1.072347e+00
2.690000e-06	-1.046280e-06	-9.377911e-11	-7.271657e+00	-9.919710e+00
2.700000e-06	-1.096167e-06	-2.656157e-10	-7.618375e+00	-2.135682e+01
2.710000e-06	-1.145568e-06	-4.494178e-10	-7.961714e+00	-3.324197e+01
2.720000e-06	-1.194578e-06	-6.400038e-10	-8.302335e+00	-4.556516e+01
2.730000e-06	-1.243146e-06	-8.344378e-10	-8.639879e+00	-5.830127e+01
2.740000e-06	-1.291023e-06	-1.032167e-09	-8.972627e+00	-7.140875e+01
2.750000e-06	-1.338041e-06	-1.236221e-09	-9.299403e+00	-8.482932e+01
2.760000e-06	-1.384366e-06	-1.444927e-09	-9.621359e+00	-9.848866e+01
2.770000e-06	-1.430229e-06	-1.652840e-09	-9.940111e+00	-1.122983e+02
2.780000e-06	-1.475726e-06	-1.861334e-09	-1.025632e+01	-1.261584e+02
2.790000e-06	-1.520914e-06	-2.075875e-09	-1.057038e+01	-1.399617e+02
2.800000e-06	-1.565699e-06	-2.292793e-09	-1.088162e+01	-1.535980e+02
2.810000e-06	-1.609900e-06	-2.500965e-09	-1.118883e+01	-1.669586e+02
2.820000e-06	-1.653511e-06	-2.697910e-09	-1.149192e+01	-1.799413e+02
2.830000e-06	-1.696693e-06	-2.886723e-09	-1.179204e+01	-1.924547e+02
2.840000e-06	-1.739503e-06	-3.068562e-09	-1.208957e+01	-2.044219e+02
2.850000e-06	-1.781779e-06	-3.240617e-09	-1.238339e+01	-2.157832e+02
2.860000e-06	-1.823474e-06	-3.401794e-09	-1.267317e+01	-2.264978e+02
2.870000e-06	-1.864637e-06	-3.554902e-09	-1.295925e+01	-2.365444e+02
2.880000e-06	-1.905111e-06	-3.702999e-09	-1.324054e+01	-2.459198e+02
2.890000e-06	-1.944859e-06	-3.842940e-09	-1.351679e+01	-2.546378e+02
2.900000e-06	-1.984080e-06	-3.971785e-09	-1.378938e+01	-2.627259e+02
2.910000e-06	-2.022734e-06	-4.089200e-09	-1.405803e+01	-2.702226e+02
2.920000e-06	-2.060545e-06	-4.194911e-09	-1.432081e+01	-2.771729e+02
2.930000e-06	-2.097357e-06	-4.291198e-09	-1.457666e+01	-2.836255e+02
2.940000e-06	-2.133259e-06	-4.381155e-09	-1.482618e+01	-2.896293e+02
