# Temperatura_=_21.6
# Concentracion g/m^3_=_15500.0
# C_Vs_to_Am_M_A/Vsm_=_65563218390.804596
# pendiente_HvsI_1/m_=_3716.3
# ordenada_HvsI_A/m_=_1297.0
# frecuencia_Hz_=_300834.00045599

Tiempo_(s)	Campo_(V.s)	Magnetizacion_(V.s)	Campo_(kA/m)	Magnetizacion_(A/m)
0.000000e+00	-2.851497e-06	-5.859244e-09	-1.980921e+01	-3.822858e+02
1.000000e-08	-2.851083e-06	-5.858206e-09	-1.980633e+01	-3.822427e+02
2.000000e-08	-2.849920e-06	-5.859738e-09	-1.979825e+01	-3.821181e+02
3.000000e-08	-2.847715e-06	-5.856958e-09	-1.978293e+01	-3.819105e+02
4.000000e-08	-2.844262e-06	-5.852340e-09	-1.975894e+01	-3.816200e+02
5.000000e-08	-2.839833e-06	-5.847957e-09	-1.972817e+01	-3.812493e+02
6.000000e-08	-2.834669e-06	-5.835992e-09	-1.969230e+01	-3.808033e+02
7.000000e-08	-2.828610e-06	-5.807133e-09	-1.965021e+01	-3.802890e+02
8.000000e-08	-2.821488e-06	-5.788813e-09	-1.960073e+01	-3.797155e+02
9.000000e-08	-2.813294e-06	-5.854781e-09	-1.954381e+01	-3.790927e+02
1.000000e-07	-2.803956e-06	-5.930143e-09	-1.947894e+01	-3.784305e+02
1.100000e-07	-2.793250e-06	-5.825697e-09	-1.940457e+01	-3.777379e+02
1.200000e-07	-2.781434e-06	-5.604214e-09	-1.932248e+01	-3.770220e+02
1.300000e-07	-2.768868e-06	-5.706079e-09	-1.923519e+01	-3.762869e+02
1.400000e-07	-2.755312e-06	-5.922894e-09	-1.914101e+01	-3.755335e+02
1.500000e-07	-2.740730e-06	-5.752377e-09	-1.903971e+01	-3.747588e+02
1.600000e-07	-2.725145e-06	-5.565880e-09	-1.893144e+01	-3.739566e+02
1.700000e-07	-2.708204e-06	-5.815889e-09	-1.881376e+01	-3.731176e+02
1.800000e-07	-2.690029e-06	-5.831538e-09	-1.868750e+01	-3.722304e+02
1.900000e-07	-2.671211e-06	-5.508668e-09	-1.855676e+01	-3.712825e+02
2.000000e-07	-2.651747e-06	-5.655951e-09	-1.842155e+01	-3.702617e+02
2.100000e-07	-2.631329e-06	-5.757468e-09	-1.827971e+01	-3.691568e+02
2.200000e-07	-2.610065e-06	-5.473491e-09	-1.813199e+01	-3.679591e+02
2.300000e-07	-2.588057e-06	-5.557984e-09	-1.797910e+01	-3.666628e+02
2.400000e-07	-2.565117e-06	-5.765348e-09	-1.781974e+01	-3.652657e+02
2.500000e-07	-2.541223e-06	-5.516750e-09	-1.765375e+01	-3.637690e+02
2.600000e-07	-2.516521e-06	-5.421041e-09	-1.748214e+01	-3.621773e+02
2.700000e-07	-2.490943e-06	-5.553566e-09	-1.730445e+01	-3.604975e+02
2.800000e-07	-2.464330e-06	-5.472109e-09	-1.711958e+01	-3.587383e+02
2.900000e-07	-2.436621e-06	-5.392937e-09	-1.692708e+01	-3.569091e+02
3.000000e-07	-2.407877e-06	-5.430919e-09	-1.672740e+01	-3.550187e+02
3.100000e-07	-2.378357e-06	-5.383697e-09	-1.652232e+01	-3.530746e+02
3.200000e-07	-2.348229e-06	-5.383180e-09	-1.631303e+01	-3.510823e+02
3.300000e-07	-2.317353e-06	-5.371005e-09	-1.609854e+01	-3.490448e+02
3.400000e-07	-2.285615e-06	-5.240787e-09	-1.587805e+01	-3.469622e+02
3.500000e-07	-2.253201e-06	-5.242437e-09	-1.565287e+01	-3.448325e+02
3.600000e-07	-2.220220e-06	-5.232857e-09	-1.542376e+01	-3.426514e+02
3.700000e-07	-2.186447e-06	-5.177019e-09	-1.518913e+01	-3.404135e+02
3.800000e-07	-2.151545e-06	-5.184279e-09	-1.494668e+01	-3.381128e+02
3.900000e-07	-2.115549e-06	-5.126138e-09	-1.469661e+01	-3.357437e+02
4.000000e-07	-2.078875e-06	-5.049562e-09	-1.444184e+01	-3.333013e+02
4.100000e-07	-2.041605e-06	-5.074837e-09	-1.418293e+01	-3.307825e+02
4.200000e-07	-2.003581e-06	-5.035795e-09	-1.391878e+01	-3.281858e+02
4.300000e-07	-1.964846e-06	-4.929543e-09	-1.364968e+01	-3.255115e+02
4.400000e-07	-1.925372e-06	-4.910388e-09	-1.337546e+01	-3.227613e+02
4.500000e-07	-1.885220e-06	-4.895597e-09	-1.309653e+01	-3.199383e+02
4.600000e-07	-1.844654e-06	-4.849201e-09	-1.281472e+01	-3.170460e+02
4.700000e-07	-1.803714e-06	-4.789596e-09	-1.253031e+01	-3.140876e+02
4.800000e-07	-1.762000e-06	-4.735851e-09	-1.224053e+01	-3.110658e+02
4.900000e-07	-1.719196e-06	-4.690953e-09	-1.194317e+01	-3.079821e+02
5.000000e-07	-1.675449e-06	-4.661836e-09	-1.163926e+01	-3.048366e+02
5.100000e-07	-1.631108e-06	-4.610550e-09	-1.133123e+01	-3.016278e+02
5.200000e-07	-1.586382e-06	-4.534849e-09	-1.102051e+01	-2.983526e+02
5.300000e-07	-1.541256e-06	-4.489566e-09	-1.070703e+01	-2.950071e+02
5.400000e-07	-1.495614e-06	-4.455376e-09	-1.038995e+01	-2.915865e+02
5.500000e-07	-1.449369e-06	-4.402326e-09	-1.006869e+01	-2.880862e+02
5.600000e-07	-1.402621e-06	-4.330420e-09	-9.743934e+00	-2.845019e+02
5.700000e-07	-1.355387e-06	-4.272162e-09	-9.415808e+00	-2.808300e+02
5.800000e-07	-1.307642e-06	-4.220965e-09	-9.084123e+00	-2.770684e+02
5.900000e-07	-1.259481e-06	-4.173258e-09	-8.749551e+00	-2.732163e+02
6.000000e-07	-1.210977e-06	-4.104050e-09	-8.412593e+00	-2.692739e+02
6.100000e-07	-1.162100e-06	-4.029266e-09	-8.073052e+00	-2.652426e+02
6.200000e-07	-1.112708e-06	-3.975875e-09	-7.729929e+00	-2.611245e+02
6.300000e-07	-1.062715e-06	-3.920451e-09	-7.382626e+00	-2.569217e+02
6.400000e-07	-1.012143e-06	-3.850216e-09	-7.031307e+00	-2.526360e+02
6.500000e-07	-9.610276e-07	-3.770141e-09	-6.676210e+00	-2.482684e+02
6.600000e-07	-9.093712e-07	-3.704124e-09	-6.317355e+00	-2.438189e+02
6.700000e-07	-8.572832e-07	-3.642470e-09	-5.955503e+00	-2.392863e+02
6.800000e-07	-8.049568e-07	-3.574603e-09	-5.591994e+00	-2.346681e+02
6.900000e-07	-7.524139e-07	-3.493474e-09	-5.226982e+00	-2.299609e+02
7.000000e-07	-6.995716e-07	-3.413196e-09	-4.859888e+00	-2.251606e+02
7.100000e-07	-6.464359e-07	-3.344838e-09	-4.490758e+00	-2.202629e+02
7.200000e-07	-5.930883e-07	-3.275378e-09	-4.120154e+00	-2.152635e+02
7.300000e-07	-5.395920e-07	-3.194345e-09	-3.748518e+00	-2.101589e+02
7.400000e-07	-4.858760e-07	-3.107789e-09	-3.375356e+00	-2.049460e+02
7.500000e-07	-4.319110e-07	-3.029704e-09	-3.000464e+00	-1.996230e+02
7.600000e-07	-3.777808e-07	-2.950934e-09	-2.624424e+00	-1.941884e+02
7.700000e-07	-3.235422e-07	-2.864956e-09	-2.247631e+00	-1.886415e+02
7.800000e-07	-2.692319e-07	-2.769507e-09	-1.870340e+00	-1.829817e+02
7.900000e-07	-2.148143e-07	-2.678964e-09	-1.492304e+00	-1.772078e+02
8.000000e-07	-1.603335e-07	-2.596718e-09	-1.113829e+00	-1.713179e+02
8.100000e-07	-1.058455e-07	-2.508066e-09	-7.353033e-01	-1.653088e+02
8.200000e-07	-5.133612e-08	-2.409436e-09	-3.566295e-01	-1.591757e+02
8.300000e-07	3.203690e-09	-2.309209e-09	2.225587e-02	-1.529122e+02
8.400000e-07	5.769861e-08	-2.214116e-09	4.008293e-01	-1.465101e+02
8.500000e-07	1.121285e-07	-2.114049e-09	7.789511e-01	-1.399600e+02
8.600000e-07	1.665939e-07	-2.006772e-09	1.157319e+00	-1.332515e+02
8.700000e-07	2.210490e-07	-1.896439e-09	1.535616e+00	-1.263737e+02
8.800000e-07	2.753840e-07	-1.791528e-09	1.913078e+00	-1.193159e+02
8.900000e-07	3.296178e-07	-1.686258e-09	2.289838e+00	-1.120676e+02
9.000000e-07	3.837766e-07	-1.569288e-09	2.666076e+00	-1.046190e+02
9.100000e-07	4.378176e-07	-1.444934e-09	3.041496e+00	-9.696075e+01
9.200000e-07	4.917069e-07	-1.324441e-09	3.415863e+00	-8.908395e+01
9.300000e-07	5.453742e-07	-1.207879e-09	3.788687e+00	-8.097930e+01
9.400000e-07	5.988132e-07	-1.081965e-09	4.159925e+00	-7.263658e+01
9.500000e-07	6.520117e-07	-9.460780e-10	4.529492e+00	-6.404384e+01
9.600000e-07	7.049493e-07	-8.068137e-10	4.897247e+00	-5.518667e+01
9.700000e-07	7.576633e-07	-6.684456e-10	5.263449e+00	-4.604776e+01
9.800000e-07	8.101397e-07	-5.238967e-10	5.627999e+00	-3.660670e+01
9.900000e-07	8.623515e-07	-3.693461e-10	5.990712e+00	-2.684038e+01
1.000000e-06	9.142134e-07	-2.100577e-10	6.350994e+00	-1.672391e+01
1.010000e-06	9.655327e-07	-5.080291e-11	6.707507e+00	-6.232086e+00
1.020000e-06	1.016205e-06	1.098715e-10	7.059524e+00	4.658518e+00
1.030000e-06	1.066220e-06	2.786668e-10	7.406975e+00	1.596707e+01
1.040000e-06	1.115658e-06	4.573669e-10	7.750419e+00	2.770571e+01
1.050000e-06	1.164662e-06	6.461105e-10	8.090846e+00	3.987679e+01
1.060000e-06	1.213308e-06	8.400689e-10	8.428791e+00	5.247029e+01
1.070000e-06	1.261707e-06	1.039234e-09	8.765017e+00	6.546173e+01
1.080000e-06	1.309839e-06	1.244867e-09	9.099385e+00	7.881086e+01
1.090000e-06	1.357511e-06	1.454388e-09	9.430561e+00	9.246119e+01
1.100000e-06	1.404627e-06	1.663363e-09	9.757872e+00	1.063407e+02
1.110000e-06	1.451235e-06	1.871802e-09	1.008166e+01	1.203633e+02
1.120000e-06	1.497350e-06	2.084180e-09	1.040202e+01	1.344322e+02
1.130000e-06	1.542887e-06	2.296753e-09	1.071836e+01	1.484427e+02
1.140000e-06	1.587840e-06	2.505496e-09	1.103064e+01	1.622870e+02
1.150000e-06	1.632399e-06	2.710084e-09	1.134019e+01	1.758589e+02
1.160000e-06	1.676656e-06	2.910797e-09	1.164764e+01	1.890580e+02
1.170000e-06	1.720403e-06	3.105030e-09	1.195155e+01	2.017941e+02
1.180000e-06	1.763305e-06	3.291805e-09	1.224959e+01	2.139912e+02
1.190000e-06	1.805284e-06	3.466771e-09	1.254122e+01	2.255899e+02
1.200000e-06	1.846449e-06	3.630129e-09	1.282719e+01	2.365489e+02
1.210000e-06	1.886988e-06	3.786247e-09	1.310881e+01	2.468459e+02
1.220000e-06	1.927034e-06	3.932759e-09	1.338701e+01	2.564765e+02
1.230000e-06	1.966452e-06	4.066587e-09	1.366084e+01	2.654526e+02
1.240000e-06	2.005185e-06	4.188518e-09	1.392992e+01	2.737999e+02
1.250000e-06	2.043267e-06	4.304549e-09	1.419447e+01	2.815545e+02
1.260000e-06	2.080617e-06	4.416493e-09	1.445394e+01	2.887594e+02
1.270000e-06	2.117327e-06	4.521721e-09	1.470896e+01	2.954614e+02
1.280000e-06	2.153539e-06	4.615185e-09	1.496053e+01	3.017074e+02
1.290000e-06	2.188992e-06	4.699921e-09	1.520681e+01	3.075419e+02
1.300000e-06	2.223347e-06	4.781066e-09	1.544548e+01	3.130053e+02
1.310000e-06	2.256663e-06	4.857035e-09	1.567693e+01	3.181324e+02
1.320000e-06	2.289219e-06	4.927584e-09	1.590309e+01	3.229517e+02
1.330000e-06	2.321108e-06	4.993059e-09	1.612462e+01	3.274863e+02
1.340000e-06	2.352237e-06	5.057416e-09	1.634087e+01	3.317539e+02
1.350000e-06	2.382574e-06	5.120339e-09	1.655162e+01	3.357685e+02
1.360000e-06	2.412129e-06	5.175808e-09	1.675694e+01	3.395413e+02
1.370000e-06	2.440947e-06	5.226117e-09	1.695714e+01	3.430825e+02
1.380000e-06	2.469105e-06	5.277293e-09	1.715274e+01	3.464016e+02
1.390000e-06	2.496311e-06	5.326060e-09	1.734175e+01	3.495090e+02
1.400000e-06	2.522236e-06	5.367046e-09	1.752185e+01	3.524158e+02
1.410000e-06	2.547109e-06	5.401898e-09	1.769464e+01	3.551342e+02
1.420000e-06	2.571191e-06	5.435172e-09	1.786193e+01	3.576772e+02
1.430000e-06	2.594402e-06	5.468791e-09	1.802318e+01	3.600578e+02
1.440000e-06	2.616691e-06	5.502291e-09	1.817802e+01	3.622884e+02
1.450000e-06	2.638104e-06	5.534247e-09	1.832677e+01	3.643806e+02
1.460000e-06	2.658787e-06	5.563899e-09	1.847046e+01	3.663438e+02
1.470000e-06	2.678737e-06	5.591994e-09	1.860905e+01	3.681857e+02
1.480000e-06	2.697739e-06	5.618521e-09	1.874106e+01	3.699114e+02
1.490000e-06	2.715702e-06	5.643244e-09	1.886584e+01	3.715241e+02
1.500000e-06	2.732701e-06	5.663950e-09	1.898394e+01	3.730255e+02
1.510000e-06	2.748686e-06	5.681499e-09	1.909499e+01	3.744159e+02
1.520000e-06	2.763526e-06	5.699592e-09	1.919808e+01	3.756954e+02
1.530000e-06	2.777289e-06	5.717526e-09	1.929368e+01	3.768644e+02
1.540000e-06	2.790081e-06	5.732955e-09	1.938255e+01	3.779239e+02
1.550000e-06	2.801769e-06	5.745843e-09	1.946375e+01	3.788763e+02
1.560000e-06	2.812150e-06	5.759584e-09	1.953586e+01	3.797252e+02
1.570000e-06	2.821330e-06	5.774205e-09	1.959964e+01	3.804755e+02
1.580000e-06	2.829611e-06	5.785834e-09	1.965716e+01	3.811328e+02
1.590000e-06	2.837015e-06	5.793152e-09	1.970860e+01	3.817033e+02
1.600000e-06	2.843440e-06	5.799776e-09	1.975323e+01	3.821928e+02
1.610000e-06	2.848935e-06	5.806341e-09	1.979141e+01	3.826061e+02
1.620000e-06	2.853602e-06	5.810550e-09	1.982383e+01	3.829467e+02
1.630000e-06	2.857353e-06	5.814121e-09	1.984989e+01	3.832166e+02
1.640000e-06	2.859846e-06	5.818727e-09	1.986720e+01	3.834158e+02
1.650000e-06	2.861112e-06	5.823282e-09	1.987600e+01	3.835428e+02
1.660000e-06	2.861472e-06	5.827276e-09	1.987850e+01	3.835949e+02
1.670000e-06	2.861016e-06	5.828306e-09	1.987533e+01	3.835690e+02
1.680000e-06	2.859641e-06	5.824830e-09	1.986578e+01	3.834621e+02
1.690000e-06	2.857347e-06	5.821460e-09	1.984984e+01	3.832724e+02
1.700000e-06	2.854310e-06	5.818313e-09	1.982874e+01	3.829996e+02
1.710000e-06	2.850471e-06	5.811798e-09	1.980208e+01	3.826458e+02
1.720000e-06	2.845512e-06	5.808696e-09	1.976763e+01	3.822154e+02
1.730000e-06	2.839318e-06	5.828089e-09	1.972460e+01	3.817151e+02
1.740000e-06	2.832202e-06	5.827279e-09	1.967516e+01	3.811535e+02
1.750000e-06	2.824232e-06	5.713346e-09	1.961980e+01	3.805405e+02
1.760000e-06	2.814814e-06	5.644255e-09	1.955437e+01	3.798860e+02
1.770000e-06	2.803798e-06	5.793428e-09	1.947784e+01	3.791993e+02
1.780000e-06	2.792063e-06	5.926923e-09	1.939632e+01	3.784880e+02
1.790000e-06	2.780249e-06	5.715353e-09	1.931425e+01	3.777569e+02
1.800000e-06	2.767496e-06	5.551477e-09	1.922565e+01	3.770075e+02
1.810000e-06	2.752951e-06	5.808604e-09	1.912461e+01	3.762378e+02
1.820000e-06	2.737397e-06	5.808905e-09	1.901656e+01	3.754422e+02
1.830000e-06	2.721369e-06	5.515022e-09	1.890522e+01	3.746121e+02
1.840000e-06	2.704129e-06	5.660010e-09	1.878545e+01	3.737363e+02
1.850000e-06	2.685570e-06	5.880254e-09	1.865652e+01	3.728026e+02
1.860000e-06	2.666423e-06	5.570997e-09	1.852350e+01	3.717984e+02
1.870000e-06	2.646503e-06	5.523880e-09	1.838512e+01	3.707124e+02
1.880000e-06	2.625233e-06	5.832376e-09	1.823736e+01	3.695352e+02
1.890000e-06	2.602929e-06	5.560876e-09	1.808242e+01	3.682604e+02
1.900000e-06	2.579687e-06	5.376708e-09	1.792095e+01	3.668850e+02
1.910000e-06	2.555370e-06	5.700748e-09	1.775203e+01	3.654094e+02
1.920000e-06	2.530402e-06	5.609309e-09	1.757857e+01	3.638376e+02
1.930000e-06	2.504701e-06	5.417330e-09	1.740003e+01	3.621760e+02
1.940000e-06	2.478039e-06	5.545747e-09	1.721481e+01	3.604331e+02
1.950000e-06	2.450753e-06	5.476041e-09	1.702526e+01	3.586182e+02
1.960000e-06	2.422643e-06	5.401808e-09	1.682998e+01	3.567402e+02
1.970000e-06	2.393198e-06	5.442422e-09	1.662542e+01	3.548072e+02
1.980000e-06	2.362704e-06	5.320680e-09	1.641358e+01	3.528249e+02
1.990000e-06	2.331541e-06	5.337041e-09	1.619710e+01	3.507970e+02
2.000000e-06	2.299692e-06	5.402815e-09	1.597585e+01	3.487243e+02
2.010000e-06	2.267131e-06	5.248638e-09	1.574964e+01	3.466050e+02
2.020000e-06	2.233700e-06	5.252870e-09	1.551740e+01	3.444353e+02
2.030000e-06	2.199451e-06	5.246870e-09	1.527948e+01	3.422102e+02
2.040000e-06	2.164612e-06	5.111612e-09	1.503745e+01	3.399235e+02
2.050000e-06	2.129142e-06	5.169872e-09	1.479104e+01	3.375695e+02
2.060000e-06	2.092974e-06	5.143445e-09	1.453978e+01	3.351432e+02
2.070000e-06	2.055843e-06	5.017762e-09	1.428184e+01	3.326410e+02
2.080000e-06	2.017555e-06	5.047696e-09	1.401585e+01	3.300611e+02
2.090000e-06	1.978481e-06	5.015065e-09	1.374441e+01	3.274033e+02
2.100000e-06	1.938903e-06	4.935327e-09	1.346946e+01	3.246693e+02
2.110000e-06	1.898744e-06	4.909096e-09	1.319048e+01	3.218617e+02
2.120000e-06	1.857930e-06	4.845743e-09	1.290694e+01	3.189839e+02
2.130000e-06	1.816494e-06	4.823997e-09	1.261909e+01	3.160394e+02
2.140000e-06	1.774454e-06	4.788492e-09	1.232704e+01	3.130311e+02
2.150000e-06	1.731843e-06	4.713627e-09	1.203102e+01	3.099607e+02
2.160000e-06	1.688772e-06	4.674550e-09	1.173181e+01	3.068286e+02
2.170000e-06	1.645298e-06	4.627049e-09	1.142980e+01	3.036335e+02
2.180000e-06	1.601243e-06	4.594041e-09	1.112376e+01	3.003729e+02
2.190000e-06	1.556564e-06	4.535952e-09	1.081337e+01	2.970429e+02
2.200000e-06	1.511310e-06	4.464980e-09	1.049900e+01	2.936389e+02
2.210000e-06	1.465510e-06	4.428076e-09	1.018083e+01	2.901561e+02
2.220000e-06	1.419306e-06	4.376277e-09	9.859850e+00	2.865901e+02
2.230000e-06	1.372632e-06	4.318651e-09	9.535604e+00	2.829373e+02
2.240000e-06	1.325416e-06	4.257109e-09	9.207599e+00	2.791951e+02
2.250000e-06	1.277591e-06	4.186622e-09	8.875363e+00	2.753625e+02
2.260000e-06	1.229150e-06	4.146483e-09	8.538844e+00	2.714394e+02
2.270000e-06	1.180310e-06	4.092401e-09	8.199553e+00	2.674271e+02
2.280000e-06	1.131098e-06	4.015552e-09	7.857678e+00	2.633274e+02
2.290000e-06	1.081471e-06	3.957205e-09	7.512921e+00	2.591426e+02
2.300000e-06	1.031437e-06	3.893595e-09	7.165338e+00	2.548746e+02
2.310000e-06	9.809045e-07	3.836380e-09	6.814294e+00	2.505246e+02
2.320000e-06	9.299737e-07	3.767766e-09	6.460480e+00	2.460927e+02
2.330000e-06	8.787932e-07	3.686499e-09	6.104932e+00	2.415781e+02
2.340000e-06	8.273520e-07	3.618682e-09	5.747572e+00	2.369786e+02
2.350000e-06	7.755826e-07	3.548219e-09	5.387933e+00	2.322908e+02
2.360000e-06	7.233699e-07	3.477838e-09	5.025214e+00	2.275109e+02
2.370000e-06	6.707800e-07	3.400191e-09	4.659875e+00	2.226345e+02
2.380000e-06	6.178808e-07	3.324513e-09	4.292387e+00	2.176573e+02
2.390000e-06	5.645817e-07	3.257429e-09	3.922120e+00	2.125755e+02
2.400000e-06	5.108324e-07	3.180187e-09	3.548727e+00	2.073861e+02
2.410000e-06	4.567840e-07	3.095677e-09	3.173255e+00	2.020869e+02
2.420000e-06	4.026096e-07	3.010403e-09	2.796909e+00	1.966763e+02
2.430000e-06	3.482035e-07	2.925369e-09	2.418952e+00	1.911536e+02
2.440000e-06	2.935984e-07	2.842837e-09	2.039613e+00	1.855181e+02
2.450000e-06	2.388955e-07	2.751911e-09	1.659595e+00	1.797688e+02
2.460000e-06	1.840940e-07	2.658191e-09	1.278892e+00	1.739040e+02
2.470000e-06	1.292467e-07	2.572505e-09	8.978702e-01	1.679209e+02
2.480000e-06	7.437280e-08	2.487918e-09	5.166641e-01	1.618149e+02
2.490000e-06	1.943761e-08	2.398031e-09	1.350321e-01	1.555800e+02
2.500000e-06	-3.549381e-08	2.296996e-09	-2.465737e-01	1.492084e+02
2.510000e-06	-9.036692e-08	2.194745e-09	-6.277744e-01	1.426909e+02
2.520000e-06	-1.452135e-07	2.094976e-09	-1.008791e+00	1.360173e+02
2.530000e-06	-2.000077e-07	1.989750e-09	-1.389443e+00	1.291768e+02
2.540000e-06	-2.547771e-07	1.877569e-09	-1.769924e+00	1.221585e+02
2.550000e-06	-3.094464e-07	1.763563e-09	-2.149708e+00	1.149519e+02
2.560000e-06	-3.639552e-07	1.656858e-09	-2.528378e+00	1.075470e+02
2.570000e-06	-4.183027e-07	1.550831e-09	-2.905928e+00	9.993452e+01
2.580000e-06	-4.724220e-07	1.436003e-09	-3.281892e+00	9.210537e+01
2.590000e-06	-5.263230e-07	1.312782e-09	-3.656339e+00	8.405041e+01
2.600000e-06	-5.798835e-07	1.185713e-09	-4.028421e+00	7.575969e+01
2.610000e-06	-6.330019e-07	1.054916e-09	-4.397432e+00	6.722169e+01
2.620000e-06	-6.857386e-07	9.173621e-10	-4.763791e+00	5.842259e+01
2.630000e-06	-7.381011e-07	7.754503e-10	-5.127551e+00	4.934571e+01
2.640000e-06	-7.900444e-07	6.312005e-10	-5.488398e+00	3.997131e+01
2.650000e-06	-8.416286e-07	4.868531e-10	-5.846751e+00	3.027679e+01
2.660000e-06	-8.929615e-07	3.389056e-10	-6.203358e+00	2.023754e+01
2.670000e-06	-9.440528e-07	1.828476e-10	-6.558287e+00	9.828263e+00
2.680000e-06	-9.948310e-07	1.780423e-11	-6.911040e+00	-9.750418e-01
2.690000e-06	-1.045153e-06	-1.524158e-10	-7.260625e+00	-1.219268e+01
2.700000e-06	-1.095053e-06	-3.290539e-10	-7.607277e+00	-2.383854e+01
2.710000e-06	-1.144579e-06	-5.137882e-10	-7.951335e+00	-3.591729e+01
2.720000e-06	-1.193654e-06	-7.050313e-10	-8.292255e+00	-4.842177e+01
2.730000e-06	-1.242219e-06	-9.024602e-10	-8.629634e+00	-6.133073e+01
2.740000e-06	-1.290095e-06	-1.105329e-09	-8.962222e+00	-7.460736e+01
2.750000e-06	-1.337179e-06	-1.314630e-09	-9.289312e+00	-8.819865e+01
2.760000e-06	-1.383591e-06	-1.528321e-09	-9.611735e+00	-1.020358e+02
2.770000e-06	-1.429519e-06	-1.740971e-09	-9.930799e+00	-1.160356e+02
2.780000e-06	-1.475136e-06	-1.953025e-09	-1.024769e+01	-1.301031e+02
2.790000e-06	-1.520463e-06	-2.168642e-09	-1.056258e+01	-1.441351e+02
2.800000e-06	-1.565351e-06	-2.385265e-09	-1.087442e+01	-1.580240e+02
2.810000e-06	-1.609635e-06	-2.597431e-09	-1.118205e+01	-1.716630e+02
2.820000e-06	-1.653316e-06	-2.801684e-09	-1.148550e+01	-1.849499e+02
2.830000e-06	-1.696548e-06	-2.998945e-09	-1.178583e+01	-1.977921e+02
2.840000e-06	-1.739418e-06	-3.188373e-09	-1.208365e+01	-2.101103e+02
2.850000e-06	-1.781756e-06	-3.364729e-09	-1.237777e+01	-2.218412e+02
2.860000e-06	-1.823441e-06	-3.529341e-09	-1.266735e+01	-2.329398e+02
2.870000e-06	-1.864574e-06	-3.687905e-09	-1.295310e+01	-2.433795e+02
2.880000e-06	-1.905081e-06	-3.843095e-09	-1.323450e+01	-2.531524e+02
2.890000e-06	-1.944895e-06	-3.989936e-09	-1.351109e+01	-2.622670e+02
2.900000e-06	-1.984168e-06	-4.123105e-09	-1.378391e+01	-2.707462e+02
2.910000e-06	-2.022904e-06	-4.244075e-09	-1.405301e+01	-2.786243e+02
2.920000e-06	-2.060851e-06	-4.355424e-09	-1.431663e+01	-2.859432e+02
2.930000e-06	-2.097709e-06	-4.459305e-09	-1.457268e+01	-2.927489e+02
2.940000e-06	-2.133548e-06	-4.556418e-09	-1.482165e+01	-2.990886e+02
