# Temperatura_=_25.28
# Concentracion g/m^3_=_15500.0
# C_Vs_to_Am_M_A/Vsm_=_65563218390.804596
# pendiente_HvsI_1/m_=_3716.3
# ordenada_HvsI_A/m_=_1297.0
# frecuencia_Hz_=_300841.3126760661

Tiempo_(s)	Campo_(V.s)	Magnetizacion_(V.s)	Campo_(kA/m)	Magnetizacion_(A/m)
0.000000e+00	-2.856127e-06	-5.727946e-09	-1.980847e+01	-3.743883e+02
1.000000e-08	-2.855570e-06	-5.729225e-09	-1.980461e+01	-3.743430e+02
2.000000e-08	-2.854219e-06	-5.729002e-09	-1.979524e+01	-3.742187e+02
3.000000e-08	-2.851718e-06	-5.725514e-09	-1.977789e+01	-3.740141e+02
4.000000e-08	-2.848004e-06	-5.722502e-09	-1.975214e+01	-3.737294e+02
5.000000e-08	-2.843451e-06	-5.719197e-09	-1.972056e+01	-3.733674e+02
6.000000e-08	-2.838057e-06	-5.707125e-09	-1.968314e+01	-3.729333e+02
7.000000e-08	-2.831727e-06	-5.671740e-09	-1.963924e+01	-3.724338e+02
8.000000e-08	-2.824433e-06	-5.678124e-09	-1.958866e+01	-3.718774e+02
9.000000e-08	-2.816036e-06	-5.761710e-09	-1.953042e+01	-3.712729e+02
1.000000e-07	-2.806294e-06	-5.813270e-09	-1.946285e+01	-3.706289e+02
1.100000e-07	-2.795143e-06	-5.615480e-09	-1.938552e+01	-3.699523e+02
1.200000e-07	-2.783085e-06	-5.487388e-09	-1.930189e+01	-3.692481e+02
1.300000e-07	-2.770244e-06	-5.676158e-09	-1.921284e+01	-3.685184e+02
1.400000e-07	-2.756395e-06	-5.785447e-09	-1.911678e+01	-3.677621e+02
1.500000e-07	-2.741594e-06	-5.532246e-09	-1.901414e+01	-3.669749e+02
1.600000e-07	-2.725697e-06	-5.506225e-09	-1.890388e+01	-3.661501e+02
1.700000e-07	-2.708497e-06	-5.779416e-09	-1.878459e+01	-3.652786e+02
1.800000e-07	-2.690263e-06	-5.586271e-09	-1.865813e+01	-3.643506e+02
1.900000e-07	-2.671363e-06	-5.420907e-09	-1.852705e+01	-3.633559e+02
2.000000e-07	-2.651613e-06	-5.636788e-09	-1.839008e+01	-3.622854e+02
2.100000e-07	-2.630907e-06	-5.551561e-09	-1.824647e+01	-3.611321e+02
2.200000e-07	-2.609424e-06	-5.344506e-09	-1.809748e+01	-3.598915e+02
2.300000e-07	-2.587121e-06	-5.541921e-09	-1.794280e+01	-3.585620e+02
2.400000e-07	-2.563851e-06	-5.586772e-09	-1.778141e+01	-3.571454e+02
2.500000e-07	-2.539724e-06	-5.371646e-09	-1.761408e+01	-3.556461e+02
2.600000e-07	-2.514843e-06	-5.376484e-09	-1.744152e+01	-3.540707e+02
2.700000e-07	-2.488957e-06	-5.447559e-09	-1.726198e+01	-3.524272e+02
2.800000e-07	-2.461937e-06	-5.344817e-09	-1.707459e+01	-3.507242e+02
2.900000e-07	-2.433897e-06	-5.299606e-09	-1.688013e+01	-3.489694e+02
3.000000e-07	-2.404948e-06	-5.304568e-09	-1.667935e+01	-3.471696e+02
3.100000e-07	-2.375191e-06	-5.286720e-09	-1.647297e+01	-3.453292e+02
3.200000e-07	-2.344778e-06	-5.307552e-09	-1.626205e+01	-3.434504e+02
3.300000e-07	-2.313631e-06	-5.214852e-09	-1.604603e+01	-3.415328e+02
3.400000e-07	-2.281658e-06	-5.167290e-09	-1.582428e+01	-3.395739e+02
3.500000e-07	-2.249057e-06	-5.167127e-09	-1.559818e+01	-3.375694e+02
3.600000e-07	-2.215861e-06	-5.100270e-09	-1.536795e+01	-3.355137e+02
3.700000e-07	-2.181708e-06	-5.095172e-09	-1.513109e+01	-3.334012e+02
3.800000e-07	-2.146328e-06	-5.095528e-09	-1.488571e+01	-3.312264e+02
3.900000e-07	-2.110059e-06	-4.996215e-09	-1.463417e+01	-3.289850e+02
4.000000e-07	-2.073280e-06	-4.977826e-09	-1.437909e+01	-3.266741e+02
4.100000e-07	-2.035823e-06	-5.002714e-09	-1.411931e+01	-3.242927e+02
4.200000e-07	-1.997595e-06	-4.905599e-09	-1.385418e+01	-3.218412e+02
4.300000e-07	-1.958665e-06	-4.843952e-09	-1.358419e+01	-3.193216e+02
4.400000e-07	-1.918973e-06	-4.837839e-09	-1.330890e+01	-3.167369e+02
4.500000e-07	-1.878695e-06	-4.810958e-09	-1.302955e+01	-3.140905e+02
4.600000e-07	-1.838070e-06	-4.759080e-09	-1.274780e+01	-3.113855e+02
4.700000e-07	-1.797014e-06	-4.711118e-09	-1.246307e+01	-3.086242e+02
4.800000e-07	-1.755004e-06	-4.661321e-09	-1.217171e+01	-3.058079e+02
4.900000e-07	-1.711809e-06	-4.622295e-09	-1.187213e+01	-3.029364e+02
5.000000e-07	-1.667779e-06	-4.586736e-09	-1.156676e+01	-3.000079e+02
5.100000e-07	-1.623300e-06	-4.530400e-09	-1.125828e+01	-2.970195e+02
5.200000e-07	-1.578506e-06	-4.478478e-09	-1.094762e+01	-2.939671e+02
5.300000e-07	-1.533254e-06	-4.433515e-09	-1.063378e+01	-2.908461e+02
5.400000e-07	-1.487406e-06	-4.398779e-09	-1.031580e+01	-2.876521e+02
5.500000e-07	-1.440946e-06	-4.343682e-09	-9.993578e+00	-2.843809e+02
5.600000e-07	-1.393972e-06	-4.280122e-09	-9.667795e+00	-2.810294e+02
5.700000e-07	-1.346480e-06	-4.221734e-09	-9.338421e+00	-2.775953e+02
5.800000e-07	-1.298513e-06	-4.182236e-09	-9.005746e+00	-2.740777e+02
5.900000e-07	-1.250222e-06	-4.134268e-09	-8.670825e+00	-2.704767e+02
6.000000e-07	-1.201614e-06	-4.064819e-09	-8.333711e+00	-2.667931e+02
6.100000e-07	-1.152580e-06	-4.007047e-09	-7.993640e+00	-2.630280e+02
6.200000e-07	-1.102914e-06	-3.955066e-09	-7.649186e+00	-2.591826e+02
6.300000e-07	-1.052559e-06	-3.900509e-09	-7.299947e+00	-2.552575e+02
6.400000e-07	-1.001610e-06	-3.830436e-09	-6.946596e+00	-2.512524e+02
6.500000e-07	-9.501395e-07	-3.759995e-09	-6.589627e+00	-2.471659e+02
6.600000e-07	-8.982329e-07	-3.695506e-09	-6.229632e+00	-2.429957e+02
6.700000e-07	-8.459789e-07	-3.637760e-09	-5.867228e+00	-2.387383e+02
6.800000e-07	-7.934679e-07	-3.572246e-09	-5.503041e+00	-2.343897e+02
6.900000e-07	-7.407233e-07	-3.496793e-09	-5.137235e+00	-2.299453e+02
7.000000e-07	-6.877377e-07	-3.425816e-09	-4.769757e+00	-2.254007e+02
7.100000e-07	-6.344691e-07	-3.360551e-09	-4.400317e+00	-2.207522e+02
7.200000e-07	-5.809457e-07	-3.292783e-09	-4.029108e+00	-2.159965e+02
7.300000e-07	-5.272566e-07	-3.209526e-09	-3.656751e+00	-2.111313e+02
7.400000e-07	-4.733492e-07	-3.127997e-09	-3.282880e+00	-2.061553e+02
7.500000e-07	-4.192573e-07	-3.053732e-09	-2.907730e+00	-2.010677e+02
7.600000e-07	-3.650831e-07	-2.981115e-09	-2.532008e+00	-1.958678e+02
7.700000e-07	-3.108243e-07	-2.895731e-09	-2.155700e+00	-1.905549e+02
7.800000e-07	-2.564788e-07	-2.802619e-09	-1.778790e+00	-1.851272e+02
7.900000e-07	-2.020547e-07	-2.719848e-09	-1.401337e+00	-1.795820e+02
8.000000e-07	-1.475847e-07	-2.642041e-09	-1.023563e+00	-1.739146e+02
8.100000e-07	-9.309310e-08	-2.554376e-09	-6.456407e-01	-1.681187e+02
8.200000e-07	-3.858260e-08	-2.453208e-09	-2.675870e-01	-1.621861e+02
8.300000e-07	1.596347e-08	-2.356951e-09	1.107135e-01	-1.561071e+02
8.400000e-07	7.056619e-08	-2.266396e-09	4.894069e-01	-1.498709e+02
8.500000e-07	1.251642e-07	-2.172589e-09	8.680673e-01	-1.434663e+02
8.600000e-07	1.796861e-07	-2.066937e-09	1.246200e+00	-1.368820e+02
8.700000e-07	2.341583e-07	-1.954844e-09	1.623989e+00	-1.301074e+02
8.800000e-07	2.886143e-07	-1.847261e-09	2.001664e+00	-1.231327e+02
8.900000e-07	3.429853e-07	-1.741446e-09	2.378750e+00	-1.159490e+02
9.000000e-07	3.972034e-07	-1.628578e-09	2.754777e+00	-1.085483e+02
9.100000e-07	4.512446e-07	-1.506949e-09	3.129575e+00	-1.009223e+02
9.200000e-07	5.051487e-07	-1.388369e-09	3.503423e+00	-9.306211e+01
9.300000e-07	5.588907e-07	-1.269685e-09	3.876147e+00	-8.495692e+01
9.400000e-07	6.123761e-07	-1.143235e-09	4.247092e+00	-7.659285e+01
9.500000e-07	6.656167e-07	-1.004891e-09	4.616338e+00	-6.795212e+01
9.600000e-07	7.185903e-07	-8.629096e-10	4.983733e+00	-5.901235e+01
9.700000e-07	7.712942e-07	-7.225211e-10	5.349257e+00	-4.974645e+01
9.800000e-07	8.237694e-07	-5.767258e-10	5.713195e+00	-4.012319e+01
9.900000e-07	8.760162e-07	-4.195560e-10	6.075549e+00	-3.010845e+01
1.000000e-06	9.279139e-07	-2.520025e-10	6.435482e+00	-1.966724e+01
1.010000e-06	9.793480e-07	-8.413689e-11	6.792200e+00	-8.766440e+00
1.020000e-06	1.030157e-06	8.391800e-11	7.144583e+00	2.621996e+00
1.030000e-06	1.080317e-06	2.599539e-10	7.492460e+00	1.451749e+01
1.040000e-06	1.129912e-06	4.517831e-10	7.836426e+00	2.692735e+01
1.050000e-06	1.178943e-06	6.524723e-10	8.176476e+00	3.984350e+01
1.060000e-06	1.227589e-06	8.565421e-10	8.513858e+00	5.324001e+01
1.070000e-06	1.275962e-06	1.067128e-09	8.849348e+00	6.707141e+01
1.080000e-06	1.324010e-06	1.286296e-09	9.182577e+00	8.127231e+01
1.090000e-06	1.371628e-06	1.509900e-09	9.512831e+00	9.575822e+01
1.100000e-06	1.418724e-06	1.729839e-09	9.839464e+00	1.104278e+02
1.110000e-06	1.465271e-06	1.949426e-09	1.016228e+01	1.251663e+02
1.120000e-06	1.511243e-06	2.172717e-09	1.048112e+01	1.398501e+02
1.130000e-06	1.556654e-06	2.396810e-09	1.079607e+01	1.543522e+02
1.140000e-06	1.601582e-06	2.613765e-09	1.110766e+01	1.685473e+02
1.150000e-06	1.646163e-06	2.821129e-09	1.141685e+01	1.823181e+02
1.160000e-06	1.690438e-06	3.019210e-09	1.172391e+01	1.955603e+02
1.170000e-06	1.734081e-06	3.208756e-09	1.202659e+01	2.081866e+02
1.180000e-06	1.776836e-06	3.387624e-09	1.232312e+01	2.201303e+02
1.190000e-06	1.818702e-06	3.554719e-09	1.261348e+01	2.313471e+02
1.200000e-06	1.859758e-06	3.714310e-09	1.289822e+01	2.418152e+02
1.210000e-06	1.900237e-06	3.864584e-09	1.317896e+01	2.515348e+02
1.220000e-06	1.940177e-06	4.000007e-09	1.345596e+01	2.605251e+02
1.230000e-06	1.979490e-06	4.120173e-09	1.372862e+01	2.688218e+02
1.240000e-06	2.018164e-06	4.231569e-09	1.399683e+01	2.764723e+02
1.250000e-06	2.056092e-06	4.336499e-09	1.425988e+01	2.835319e+02
1.260000e-06	2.093304e-06	4.435587e-09	1.451797e+01	2.900592e+02
1.270000e-06	2.129970e-06	4.527724e-09	1.477226e+01	2.961121e+02
1.280000e-06	2.166047e-06	4.612191e-09	1.502247e+01	3.017451e+02
1.290000e-06	2.201306e-06	4.691230e-09	1.526700e+01	3.070063e+02
1.300000e-06	2.235473e-06	4.764978e-09	1.550396e+01	3.119360e+02
1.310000e-06	2.268638e-06	4.831746e-09	1.573398e+01	3.165668e+02
1.320000e-06	2.301097e-06	4.892305e-09	1.595910e+01	3.209233e+02
1.330000e-06	2.332854e-06	4.951432e-09	1.617934e+01	3.250238e+02
1.340000e-06	2.363850e-06	5.010322e-09	1.639432e+01	3.288813e+02
1.350000e-06	2.394052e-06	5.065314e-09	1.660378e+01	3.325056e+02
1.360000e-06	2.423405e-06	5.112133e-09	1.680736e+01	3.359047e+02
1.370000e-06	2.452072e-06	5.156515e-09	1.700618e+01	3.390868e+02
1.380000e-06	2.480104e-06	5.202183e-09	1.720059e+01	3.420610e+02
1.390000e-06	2.507079e-06	5.244288e-09	1.738767e+01	3.448380e+02
1.400000e-06	2.532815e-06	5.279390e-09	1.756616e+01	3.474301e+02
1.410000e-06	2.557578e-06	5.309733e-09	1.773791e+01	3.498512e+02
1.420000e-06	2.581468e-06	5.341004e-09	1.790359e+01	3.521159e+02
1.430000e-06	2.604466e-06	5.372792e-09	1.806309e+01	3.542386e+02
1.440000e-06	2.626623e-06	5.402486e-09	1.821676e+01	3.562328e+02
1.450000e-06	2.647964e-06	5.429537e-09	1.836477e+01	3.581099e+02
1.460000e-06	2.668535e-06	5.455942e-09	1.850744e+01	3.598789e+02
1.470000e-06	2.688274e-06	5.482810e-09	1.864434e+01	3.615461e+02
1.480000e-06	2.707019e-06	5.508653e-09	1.877434e+01	3.631150e+02
1.490000e-06	2.724751e-06	5.530397e-09	1.889732e+01	3.645868e+02
1.500000e-06	2.741514e-06	5.548123e-09	1.901358e+01	3.659610e+02
1.510000e-06	2.757234e-06	5.565531e-09	1.912260e+01	3.672361e+02
1.520000e-06	2.771895e-06	5.582343e-09	1.922428e+01	3.684106e+02
1.530000e-06	2.785559e-06	5.596942e-09	1.931905e+01	3.694837e+02
1.540000e-06	2.798170e-06	5.611203e-09	1.940651e+01	3.704557e+02
1.550000e-06	2.809596e-06	5.627073e-09	1.948575e+01	3.713288e+02
1.560000e-06	2.819699e-06	5.641779e-09	1.955583e+01	3.721063e+02
1.570000e-06	2.828656e-06	5.653304e-09	1.961795e+01	3.727935e+02
1.580000e-06	2.836707e-06	5.662709e-09	1.967378e+01	3.733960e+02
1.590000e-06	2.843828e-06	5.671894e-09	1.972317e+01	3.739199e+02
1.600000e-06	2.849981e-06	5.680516e-09	1.976585e+01	3.743708e+02
1.610000e-06	2.855214e-06	5.684551e-09	1.980214e+01	3.747532e+02
1.620000e-06	2.859632e-06	5.685607e-09	1.983278e+01	3.750698e+02
1.630000e-06	2.863016e-06	5.690574e-09	1.985625e+01	3.753216e+02
1.640000e-06	2.865110e-06	5.699520e-09	1.987077e+01	3.755078e+02
1.650000e-06	2.866118e-06	5.706944e-09	1.987776e+01	3.756258e+02
1.660000e-06	2.866224e-06	5.709624e-09	1.987850e+01	3.756723e+02
1.670000e-06	2.865462e-06	5.706025e-09	1.987321e+01	3.756436e+02
1.680000e-06	2.863827e-06	5.700024e-09	1.986187e+01	3.755365e+02
1.690000e-06	2.861326e-06	5.696033e-09	1.984453e+01	3.753491e+02
1.700000e-06	2.858052e-06	5.691350e-09	1.982182e+01	3.750814e+02
1.710000e-06	2.853889e-06	5.685799e-09	1.979295e+01	3.747357e+02
1.720000e-06	2.848589e-06	5.690688e-09	1.975619e+01	3.743165e+02
1.730000e-06	2.842145e-06	5.725989e-09	1.971150e+01	3.738304e+02
1.740000e-06	2.834829e-06	5.678731e-09	1.966076e+01	3.732855e+02
1.750000e-06	2.826518e-06	5.550860e-09	1.960312e+01	3.726907e+02
1.760000e-06	2.816660e-06	5.544368e-09	1.953475e+01	3.720545e+02
1.770000e-06	2.805383e-06	5.753833e-09	1.945653e+01	3.713844e+02
1.780000e-06	2.793629e-06	5.771853e-09	1.937502e+01	3.706859e+02
1.790000e-06	2.781648e-06	5.477533e-09	1.929193e+01	3.699617e+02
1.800000e-06	2.768375e-06	5.520127e-09	1.919987e+01	3.692113e+02
1.810000e-06	2.753451e-06	5.750583e-09	1.909637e+01	3.684313e+02
1.820000e-06	2.737813e-06	5.570912e-09	1.898791e+01	3.676152e+02
1.830000e-06	2.721507e-06	5.382747e-09	1.887482e+01	3.667547e+02
1.840000e-06	2.703816e-06	5.664833e-09	1.875213e+01	3.658396e+02
1.850000e-06	2.685049e-06	5.684969e-09	1.862197e+01	3.648601e+02
1.860000e-06	2.665748e-06	5.349987e-09	1.848811e+01	3.638065e+02
1.870000e-06	2.645472e-06	5.547002e-09	1.834749e+01	3.626715e+02
1.880000e-06	2.623964e-06	5.679034e-09	1.819832e+01	3.614498e+02
1.890000e-06	2.601451e-06	5.311874e-09	1.804218e+01	3.601394e+02
1.900000e-06	2.577871e-06	5.373299e-09	1.787865e+01	3.587412e+02
1.910000e-06	2.553420e-06	5.568396e-09	1.770906e+01	3.572591e+02
1.920000e-06	2.528324e-06	5.379157e-09	1.753502e+01	3.556994e+02
1.930000e-06	2.502341e-06	5.346520e-09	1.735481e+01	3.540699e+02
1.940000e-06	2.475494e-06	5.410566e-09	1.716862e+01	3.523789e+02
1.950000e-06	2.448040e-06	5.332714e-09	1.697821e+01	3.506347e+02
1.960000e-06	2.419569e-06	5.330714e-09	1.678075e+01	3.488441e+02
1.970000e-06	2.389802e-06	5.266032e-09	1.657431e+01	3.470122e+02
1.980000e-06	2.359116e-06	5.181009e-09	1.636149e+01	3.451416e+02
1.990000e-06	2.327703e-06	5.279554e-09	1.614362e+01	3.432325e+02
2.000000e-06	2.295587e-06	5.209254e-09	1.592088e+01	3.412828e+02
2.010000e-06	2.262713e-06	5.122249e-09	1.569289e+01	3.392885e+02
2.020000e-06	2.228994e-06	5.193139e-09	1.545903e+01	3.372443e+02
2.030000e-06	2.194587e-06	5.073985e-09	1.522040e+01	3.351445e+02
2.040000e-06	2.159605e-06	5.016155e-09	1.497779e+01	3.329835e+02
2.050000e-06	2.123960e-06	5.087142e-09	1.473057e+01	3.307567e+02
2.060000e-06	2.087554e-06	4.975534e-09	1.447808e+01	3.284609e+02
2.070000e-06	2.050061e-06	4.926543e-09	1.421806e+01	3.260946e+02
2.080000e-06	2.011482e-06	4.963578e-09	1.395050e+01	3.236580e+02
2.090000e-06	1.972281e-06	4.888164e-09	1.367862e+01	3.211529e+02
2.100000e-06	1.932551e-06	4.846546e-09	1.340307e+01	3.185819e+02
2.110000e-06	1.892181e-06	4.802724e-09	1.312309e+01	3.159485e+02
2.120000e-06	1.851185e-06	4.750150e-09	1.283876e+01	3.132558e+02
2.130000e-06	1.809645e-06	4.737260e-09	1.255067e+01	3.105064e+02
2.140000e-06	1.767496e-06	4.678818e-09	1.225835e+01	3.077019e+02
2.150000e-06	1.724686e-06	4.639110e-09	1.196144e+01	3.048424e+02
2.160000e-06	1.681457e-06	4.604205e-09	1.166163e+01	3.019264e+02
2.170000e-06	1.637826e-06	4.554307e-09	1.135903e+01	2.989511e+02
2.180000e-06	1.593578e-06	4.516619e-09	1.105215e+01	2.959128e+02
2.190000e-06	1.548662e-06	4.460211e-09	1.074064e+01	2.928070e+02
2.200000e-06	1.503107e-06	4.403948e-09	1.042469e+01	2.896290e+02
2.210000e-06	1.457049e-06	4.360476e-09	1.010526e+01	2.863747e+02
2.220000e-06	1.410627e-06	4.313616e-09	9.783302e+00	2.830407e+02
2.230000e-06	1.363784e-06	4.268416e-09	9.458429e+00	2.796244e+02
2.240000e-06	1.316328e-06	4.201634e-09	9.129298e+00	2.761248e+02
2.250000e-06	1.268210e-06	4.147382e-09	8.795585e+00	2.725416e+02
2.260000e-06	1.219581e-06	4.112797e-09	8.458322e+00	2.688757e+02
2.270000e-06	1.170518e-06	4.045416e-09	8.118049e+00	2.651280e+02
2.280000e-06	1.121050e-06	3.984623e-09	7.774965e+00	2.612998e+02
2.290000e-06	1.071217e-06	3.926675e-09	7.429348e+00	2.573917e+02
2.300000e-06	1.020908e-06	3.870491e-09	7.080434e+00	2.534039e+02
2.310000e-06	9.701556e-07	3.818659e-09	6.728446e+00	2.493350e+02
2.320000e-06	9.191151e-07	3.746345e-09	6.374458e+00	2.451831e+02
2.330000e-06	8.677978e-07	3.677601e-09	6.018551e+00	2.409447e+02
2.340000e-06	8.162478e-07	3.612839e-09	5.661030e+00	2.366160e+02
2.350000e-06	7.643502e-07	3.547718e-09	5.301097e+00	2.321926e+02
2.360000e-06	7.119413e-07	3.480571e-09	4.937619e+00	2.276699e+02
2.370000e-06	6.591198e-07	3.404470e-09	4.571279e+00	2.230439e+02
2.380000e-06	6.059397e-07	3.335212e-09	4.202453e+00	2.183114e+02
2.390000e-06	5.523785e-07	3.271645e-09	3.830983e+00	2.134699e+02
2.400000e-06	4.985170e-07	3.199288e-09	3.457430e+00	2.085178e+02
2.410000e-06	4.443698e-07	3.119615e-09	3.081896e+00	2.034541e+02
2.420000e-06	3.899969e-07	3.035160e-09	2.704796e+00	1.982784e+02
2.430000e-06	3.354402e-07	2.956994e-09	2.326422e+00	1.929898e+02
2.440000e-06	2.807285e-07	2.880606e-09	1.946973e+00	1.875870e+02
2.450000e-06	2.259190e-07	2.792782e-09	1.566846e+00	1.820673e+02
2.460000e-06	1.710365e-07	2.705153e-09	1.186212e+00	1.764267e+02
2.470000e-06	1.161017e-07	2.620160e-09	8.052150e-01	1.706589e+02
2.480000e-06	6.112547e-08	2.536834e-09	4.239314e-01	1.647564e+02
2.490000e-06	6.178012e-09	2.446287e-09	4.284717e-02	1.587097e+02
2.500000e-06	-4.874263e-08	2.345113e-09	-3.380511e-01	1.525082e+02
2.510000e-06	-1.036665e-07	2.248123e-09	-7.189720e-01	1.461407e+02
2.520000e-06	-1.585881e-07	2.153972e-09	-1.099876e+00	1.395958e+02
2.530000e-06	-2.135275e-07	2.052678e-09	-1.480905e+00	1.328629e+02
2.540000e-06	-2.684346e-07	1.943104e-09	-1.861710e+00	1.259318e+02
2.550000e-06	-3.231979e-07	1.834591e-09	-2.241517e+00	1.187937e+02
2.560000e-06	-3.777848e-07	1.729398e-09	-2.620100e+00	1.114402e+02
2.570000e-06	-4.321579e-07	1.619504e-09	-2.997201e+00	1.038632e+02
2.580000e-06	-4.862928e-07	1.500194e-09	-3.372650e+00	9.605406e+01
2.590000e-06	-5.401733e-07	1.375895e-09	-3.746334e+00	8.800245e+01
2.600000e-06	-5.937357e-07	1.249941e-09	-4.117813e+00	7.969524e+01
2.610000e-06	-6.468784e-07	1.120596e-09	-4.486380e+00	7.111556e+01
2.620000e-06	-6.995546e-07	9.840149e-10	-4.851712e+00	6.224202e+01
2.630000e-06	-7.518718e-07	8.399813e-10	-5.214555e+00	5.304854e+01
2.640000e-06	-8.038606e-07	6.945396e-10	-5.575119e+00	4.350470e+01
2.650000e-06	-8.554742e-07	5.468025e-10	-5.933082e+00	3.357683e+01
2.660000e-06	-9.068021e-07	3.928678e-10	-6.289062e+00	2.322994e+01
2.670000e-06	-9.578992e-07	2.289789e-10	-6.643443e+00	1.243024e+01
2.680000e-06	-1.008629e-06	5.789202e-11	-6.995278e+00	1.148317e+00
2.690000e-06	-1.058968e-06	-1.186734e-10	-7.344396e+00	-1.063741e+01
2.700000e-06	-1.108900e-06	-3.037207e-10	-7.690696e+00	-2.293712e+01
2.710000e-06	-1.158420e-06	-4.994282e-10	-8.034142e+00	-3.574629e+01
2.720000e-06	-1.207459e-06	-7.042638e-10	-8.374250e+00	-4.904298e+01
2.730000e-06	-1.255963e-06	-9.143597e-10	-8.710644e+00	-6.278599e+01
2.740000e-06	-1.303816e-06	-1.129592e-09	-9.042528e+00	-7.691416e+01
2.750000e-06	-1.350916e-06	-1.349483e-09	-9.369186e+00	-9.134696e+01
2.760000e-06	-1.397382e-06	-1.573544e-09	-9.691444e+00	-1.059864e+02
2.770000e-06	-1.443304e-06	-1.798876e-09	-1.000993e+01	-1.207203e+02
2.780000e-06	-1.488830e-06	-2.025269e-09	-1.032568e+01	-1.354265e+02
2.790000e-06	-1.534061e-06	-2.250461e-09	-1.063938e+01	-1.499781e+02
2.800000e-06	-1.578862e-06	-2.471563e-09	-1.095009e+01	-1.642492e+02
2.810000e-06	-1.623005e-06	-2.685031e-09	-1.125624e+01	-1.781202e+02
2.820000e-06	-1.666602e-06	-2.888020e-09	-1.155860e+01	-1.914836e+02
2.830000e-06	-1.709841e-06	-3.082800e-09	-1.185848e+01	-2.042482e+02
2.840000e-06	-1.752681e-06	-3.268384e-09	-1.215559e+01	-2.163427e+02
2.850000e-06	-1.794945e-06	-3.442900e-09	-1.244872e+01	-2.277178e+02
2.860000e-06	-1.836563e-06	-3.603608e-09	-1.273736e+01	-2.383470e+02
2.870000e-06	-1.877600e-06	-3.753633e-09	-1.302196e+01	-2.482259e+02
2.880000e-06	-1.917952e-06	-3.898020e-09	-1.330183e+01	-2.573700e+02
2.890000e-06	-1.957672e-06	-4.034697e-09	-1.357730e+01	-2.658117e+02
2.900000e-06	-1.996954e-06	-4.158253e-09	-1.384973e+01	-2.735962e+02
2.910000e-06	-2.035587e-06	-4.267467e-09	-1.411767e+01	-2.807775e+02
2.920000e-06	-2.073307e-06	-4.366827e-09	-1.437928e+01	-2.874138e+02
2.930000e-06	-2.110057e-06	-4.460678e-09	-1.463415e+01	-2.935636e+02
2.940000e-06	-2.145927e-06	-4.550680e-09	-1.488292e+01	-2.992823e+02
