# Temperatura_=_20.66
# Concentracion g/m^3_=_15500.0
# C_Vs_to_Am_M_A/Vsm_=_65563218390.804596
# pendiente_HvsI_1/m_=_3716.3
# ordenada_HvsI_A/m_=_1297.0
# frecuencia_Hz_=_300834.24666338455

Tiempo_(s)	Campo_(V.s)	Magnetizacion_(V.s)	Campo_(kA/m)	Magnetizacion_(A/m)
0.000000e+00	-2.850625e-06	-6.779494e-09	-1.980573e+01	-4.430777e+02
1.000000e-08	-2.849844e-06	-6.781204e-09	-1.980030e+01	-4.429443e+02
2.000000e-08	-2.848170e-06	-6.780544e-09	-1.978867e+01	-4.427156e+02
3.000000e-08	-2.845147e-06	-6.775442e-09	-1.976768e+01	-4.423943e+02
4.000000e-08	-2.841024e-06	-6.769872e-09	-1.973903e+01	-4.419848e+02
5.000000e-08	-2.836132e-06	-6.763191e-09	-1.970504e+01	-4.414924e+02
6.000000e-08	-2.830327e-06	-6.748092e-09	-1.966470e+01	-4.409238e+02
7.000000e-08	-2.823546e-06	-6.716561e-09	-1.961760e+01	-4.402859e+02
8.000000e-08	-2.815807e-06	-6.745148e-09	-1.956383e+01	-4.395856e+02
9.000000e-08	-2.806949e-06	-6.814638e-09	-1.950228e+01	-4.388293e+02
1.000000e-07	-2.796633e-06	-6.803205e-09	-1.943060e+01	-4.380218e+02
1.100000e-07	-2.784992e-06	-6.577469e-09	-1.934973e+01	-4.371662e+02
1.200000e-07	-2.772640e-06	-6.561769e-09	-1.926391e+01	-4.362634e+02
1.300000e-07	-2.759454e-06	-6.776364e-09	-1.917229e+01	-4.353119e+02
1.400000e-07	-2.745127e-06	-6.732993e-09	-1.907275e+01	-4.343080e+02
1.500000e-07	-2.729948e-06	-6.488024e-09	-1.896729e+01	-4.332461e+02
1.600000e-07	-2.713563e-06	-6.617377e-09	-1.885345e+01	-4.321193e+02
1.700000e-07	-2.695762e-06	-6.785511e-09	-1.872977e+01	-4.309198e+02
1.800000e-07	-2.677201e-06	-6.469831e-09	-1.860081e+01	-4.296401e+02
1.900000e-07	-2.658025e-06	-6.477893e-09	-1.846758e+01	-4.282735e+02
2.000000e-07	-2.637944e-06	-6.672107e-09	-1.832806e+01	-4.268147e+02
2.100000e-07	-2.616960e-06	-6.437486e-09	-1.818226e+01	-4.252605e+02
2.200000e-07	-2.595196e-06	-6.365250e-09	-1.803105e+01	-4.236100e+02
2.300000e-07	-2.572523e-06	-6.602315e-09	-1.787352e+01	-4.218646e+02
2.400000e-07	-2.548889e-06	-6.464437e-09	-1.770932e+01	-4.200277e+02
2.500000e-07	-2.524493e-06	-6.298029e-09	-1.753982e+01	-4.181045e+02
2.600000e-07	-2.499320e-06	-6.377009e-09	-1.736492e+01	-4.161010e+02
2.700000e-07	-2.473095e-06	-6.370272e-09	-1.718271e+01	-4.140237e+02
2.800000e-07	-2.445721e-06	-6.285356e-09	-1.699252e+01	-4.118786e+02
2.900000e-07	-2.417344e-06	-6.264172e-09	-1.679536e+01	-4.096707e+02
3.000000e-07	-2.388154e-06	-6.225776e-09	-1.659255e+01	-4.074034e+02
3.100000e-07	-2.358271e-06	-6.226485e-09	-1.638493e+01	-4.050782e+02
3.200000e-07	-2.327666e-06	-6.211702e-09	-1.617229e+01	-4.026947e+02
3.300000e-07	-2.296192e-06	-6.064236e-09	-1.595361e+01	-4.002507e+02
3.400000e-07	-2.263987e-06	-6.083096e-09	-1.572985e+01	-3.977428e+02
3.500000e-07	-2.231247e-06	-6.063601e-09	-1.550238e+01	-3.951664e+02
3.600000e-07	-2.197750e-06	-5.961555e-09	-1.526965e+01	-3.925168e+02
3.700000e-07	-2.163148e-06	-5.996209e-09	-1.502924e+01	-3.897895e+02
3.800000e-07	-2.127432e-06	-5.951057e-09	-1.478109e+01	-3.869808e+02
3.900000e-07	-2.090956e-06	-5.812902e-09	-1.452767e+01	-3.840883e+02
4.000000e-07	-2.053906e-06	-5.832895e-09	-1.427025e+01	-3.811110e+02
4.100000e-07	-2.016182e-06	-5.826256e-09	-1.400814e+01	-3.780492e+02
4.200000e-07	-1.977714e-06	-5.692272e-09	-1.374087e+01	-3.749045e+02
4.300000e-07	-1.938464e-06	-5.663648e-09	-1.346817e+01	-3.716792e+02
4.400000e-07	-1.898534e-06	-5.647079e-09	-1.319075e+01	-3.683762e+02
4.500000e-07	-1.858178e-06	-5.592704e-09	-1.291036e+01	-3.649982e+02
4.600000e-07	-1.817489e-06	-5.529698e-09	-1.262766e+01	-3.615471e+02
4.700000e-07	-1.776180e-06	-5.469524e-09	-1.234064e+01	-3.580238e+02
4.800000e-07	-1.733850e-06	-5.408258e-09	-1.204654e+01	-3.544281e+02
4.900000e-07	-1.690454e-06	-5.365813e-09	-1.174504e+01	-3.507581e+02
5.000000e-07	-1.646305e-06	-5.314206e-09	-1.143829e+01	-3.470107e+02
5.100000e-07	-1.601721e-06	-5.236306e-09	-1.112853e+01	-3.431820e+02
5.200000e-07	-1.556758e-06	-5.179471e-09	-1.081613e+01	-3.392672e+02
5.300000e-07	-1.511293e-06	-5.121290e-09	-1.050025e+01	-3.352615e+02
5.400000e-07	-1.465262e-06	-5.072692e-09	-1.018043e+01	-3.311602e+02
5.500000e-07	-1.418725e-06	-5.002676e-09	-9.857095e+00	-3.269597e+02
5.600000e-07	-1.371679e-06	-4.922252e-09	-9.530232e+00	-3.226572e+02
5.700000e-07	-1.324060e-06	-4.850860e-09	-9.199382e+00	-3.182512e+02
5.800000e-07	-1.275996e-06	-4.802467e-09	-8.865437e+00	-3.137416e+02
5.900000e-07	-1.227639e-06	-4.732086e-09	-8.529460e+00	-3.091291e+02
6.000000e-07	-1.178989e-06	-4.641745e-09	-8.191446e+00	-3.044153e+02
6.100000e-07	-1.129900e-06	-4.575572e-09	-7.850386e+00	-2.996020e+02
6.200000e-07	-1.080184e-06	-4.507031e-09	-7.504964e+00	-2.946910e+02
6.300000e-07	-1.029830e-06	-4.431063e-09	-7.155113e+00	-2.896835e+02
6.400000e-07	-9.788834e-07	-4.340757e-09	-6.801141e+00	-2.845797e+02
6.500000e-07	-9.273920e-07	-4.258914e-09	-6.443387e+00	-2.793788e+02
6.600000e-07	-8.754791e-07	-4.183818e-09	-6.082703e+00	-2.740787e+02
6.700000e-07	-8.232405e-07	-4.109296e-09	-5.719757e+00	-2.686764e+02
6.800000e-07	-7.707573e-07	-4.022014e-09	-5.355111e+00	-2.631680e+02
6.900000e-07	-7.180480e-07	-3.927626e-09	-4.988894e+00	-2.575492e+02
7.000000e-07	-6.650891e-07	-3.839670e-09	-4.620944e+00	-2.518154e+02
7.100000e-07	-6.118616e-07	-3.752012e-09	-4.251126e+00	-2.459626e+02
7.200000e-07	-5.584201e-07	-3.663387e-09	-3.879823e+00	-2.399874e+02
7.300000e-07	-5.047572e-07	-3.564739e-09	-3.506981e+00	-2.338870e+02
7.400000e-07	-4.508446e-07	-3.469127e-09	-3.132404e+00	-2.276598e+02
7.500000e-07	-3.967562e-07	-3.372870e-09	-2.756605e+00	-2.213047e+02
7.600000e-07	-3.425379e-07	-3.274745e-09	-2.379904e+00	-2.148212e+02
7.700000e-07	-2.882149e-07	-3.168993e-09	-2.002476e+00	-2.082088e+02
7.800000e-07	-2.338540e-07	-3.061212e-09	-1.624784e+00	-2.014666e+02
7.900000e-07	-1.794786e-07	-2.958893e-09	-1.246992e+00	-1.945930e+02
8.000000e-07	-1.250303e-07	-2.853137e-09	-8.686923e-01	-1.875851e+02
8.100000e-07	-7.057851e-08	-2.742116e-09	-4.903694e-01	-1.804384e+02
8.200000e-07	-1.613124e-08	-2.625497e-09	-1.120775e-01	-1.731470e+02
8.300000e-07	3.832886e-08	-2.510910e-09	2.663034e-01	-1.657035e+02
8.400000e-07	9.277427e-08	-2.391165e-09	6.445823e-01	-1.580990e+02
8.500000e-07	1.471914e-07	-2.269622e-09	1.022665e+00	-1.503241e+02
8.600000e-07	2.015473e-07	-2.145407e-09	1.400322e+00	-1.423686e+02
8.700000e-07	2.558915e-07	-2.019671e-09	1.777897e+00	-1.342223e+02
8.800000e-07	3.102333e-07	-1.892465e-09	2.155457e+00	-1.258753e+02
8.900000e-07	3.644479e-07	-1.760040e-09	2.532132e+00	-1.173180e+02
9.000000e-07	4.185538e-07	-1.623154e-09	2.908052e+00	-1.085414e+02
9.100000e-07	4.725625e-07	-1.481234e-09	3.283297e+00	-9.953617e+01
9.200000e-07	5.263497e-07	-1.342941e-09	3.657002e+00	-9.029298e+01
9.300000e-07	5.799050e-07	-1.198904e-09	4.029097e+00	-8.080125e+01
9.400000e-07	6.332371e-07	-1.047141e-09	4.399641e+00	-7.104876e+01
9.500000e-07	6.863464e-07	-8.896191e-10	4.768636e+00	-6.102094e+01
9.600000e-07	7.391860e-07	-7.310697e-10	5.135758e+00	-5.070047e+01
9.700000e-07	7.917277e-07	-5.687042e-10	5.500811e+00	-4.006714e+01
9.800000e-07	8.439639e-07	-3.979796e-10	5.863740e+00	-2.909818e+01
9.900000e-07	8.959479e-07	-2.215935e-10	6.224918e+00	-1.776908e+01
1.000000e-06	9.475571e-07	-4.003795e-11	6.583491e+00	-6.054924e+00
1.010000e-06	9.985694e-07	1.443026e-10	6.937917e+00	6.067747e+00
1.020000e-06	1.048934e-06	3.358727e-10	7.287840e+00	1.861869e+01
1.030000e-06	1.098647e-06	5.324540e-10	7.633244e+00	3.161142e+01
1.040000e-06	1.147797e-06	7.377656e-10	7.974728e+00	4.505067e+01
1.050000e-06	1.196553e-06	9.511343e-10	8.313480e+00	5.892987e+01
1.060000e-06	1.245047e-06	1.171285e-09	8.650405e+00	7.322916e+01
1.070000e-06	1.293221e-06	1.396447e-09	8.985111e+00	8.791388e+01
1.080000e-06	1.341007e-06	1.623797e-09	9.317123e+00	1.029339e+02
1.090000e-06	1.388307e-06	1.856449e-09	9.645760e+00	1.182239e+02
1.100000e-06	1.435081e-06	2.091929e-09	9.970738e+00	1.337043e+02
1.110000e-06	1.481362e-06	2.330512e-09	1.029229e+01	1.492838e+02
1.120000e-06	1.527036e-06	2.568149e-09	1.060963e+01	1.648621e+02
1.130000e-06	1.572126e-06	2.803762e-09	1.092291e+01	1.803334e+02
1.140000e-06	1.616826e-06	3.035274e-09	1.123348e+01	1.955907e+02
1.150000e-06	1.661193e-06	3.262893e-09	1.154173e+01	2.105299e+02
1.160000e-06	1.705120e-06	3.481673e-09	1.184693e+01	2.250540e+02
1.170000e-06	1.748359e-06	3.690163e-09	1.214735e+01	2.390765e+02
1.180000e-06	1.790603e-06	3.890365e-09	1.244085e+01	2.525248e+02
1.190000e-06	1.831912e-06	4.083163e-09	1.272787e+01	2.653422e+02
1.200000e-06	1.872651e-06	4.269470e-09	1.301091e+01	2.774888e+02
1.210000e-06	1.912915e-06	4.443693e-09	1.329066e+01	2.889424e+02
1.220000e-06	1.952577e-06	4.605554e-09	1.356622e+01	2.996972e+02
1.230000e-06	1.991573e-06	4.755430e-09	1.383717e+01	3.097624e+02
1.240000e-06	2.029889e-06	4.897238e-09	1.410337e+01	3.191601e+02
1.250000e-06	2.067439e-06	5.029460e-09	1.436427e+01	3.279222e+02
1.260000e-06	2.104340e-06	5.151899e-09	1.462065e+01	3.360879e+02
1.270000e-06	2.140787e-06	5.264836e-09	1.487388e+01	3.437006e+02
1.280000e-06	2.176540e-06	5.372408e-09	1.512229e+01	3.508052e+02
1.290000e-06	2.211244e-06	5.474894e-09	1.536341e+01	3.574458e+02
1.300000e-06	2.244831e-06	5.568547e-09	1.559676e+01	3.636640e+02
1.310000e-06	2.277563e-06	5.653730e-09	1.582418e+01	3.694973e+02
1.320000e-06	2.309686e-06	5.731805e-09	1.604737e+01	3.749788e+02
1.330000e-06	2.341115e-06	5.808117e-09	1.626573e+01	3.801370e+02
1.340000e-06	2.371753e-06	5.883161e-09	1.647860e+01	3.849957e+02
1.350000e-06	2.401564e-06	5.952652e-09	1.668572e+01	3.895748e+02
1.360000e-06	2.430585e-06	6.014516e-09	1.688735e+01	3.938910e+02
1.370000e-06	2.458978e-06	6.074279e-09	1.708462e+01	3.979586e+02
1.380000e-06	2.486646e-06	6.133864e-09	1.727686e+01	4.017900e+02
1.390000e-06	2.513124e-06	6.189453e-09	1.746083e+01	4.053963e+02
1.400000e-06	2.538355e-06	6.237553e-09	1.763612e+01	4.087883e+02
1.410000e-06	2.562683e-06	6.279155e-09	1.780515e+01	4.119758e+02
1.420000e-06	2.586125e-06	6.322392e-09	1.796803e+01	4.149685e+02
1.430000e-06	2.608673e-06	6.367144e-09	1.812469e+01	4.177757e+02
1.440000e-06	2.630359e-06	6.407072e-09	1.827536e+01	4.204060e+02
1.450000e-06	2.651266e-06	6.440383e-09	1.842062e+01	4.228675e+02
1.460000e-06	2.671513e-06	6.471438e-09	1.856129e+01	4.251673e+02
1.470000e-06	2.690868e-06	6.503538e-09	1.869576e+01	4.273119e+02
1.480000e-06	2.709165e-06	6.534070e-09	1.882289e+01	4.293072e+02
1.490000e-06	2.726488e-06	6.560942e-09	1.894325e+01	4.311581e+02
1.500000e-06	2.742746e-06	6.585774e-09	1.905621e+01	4.328694e+02
1.510000e-06	2.757927e-06	6.610386e-09	1.916168e+01	4.344454e+02
1.520000e-06	2.772117e-06	6.632694e-09	1.926027e+01	4.358906e+02
1.530000e-06	2.785296e-06	6.650089e-09	1.935184e+01	4.372095e+02
1.540000e-06	2.797428e-06	6.664728e-09	1.943613e+01	4.384066e+02
1.550000e-06	2.808290e-06	6.681521e-09	1.951160e+01	4.394867e+02
1.560000e-06	2.817868e-06	6.700104e-09	1.957815e+01	4.404546e+02
1.570000e-06	2.826457e-06	6.715908e-09	1.963782e+01	4.413148e+02
1.580000e-06	2.834146e-06	6.726999e-09	1.969124e+01	4.420715e+02
1.590000e-06	2.840921e-06	6.736067e-09	1.973831e+01	4.427282e+02
1.600000e-06	2.846756e-06	6.744139e-09	1.977885e+01	4.432875e+02
1.610000e-06	2.851695e-06	6.748611e-09	1.981317e+01	4.437510e+02
1.620000e-06	2.855801e-06	6.750931e-09	1.984170e+01	4.441194e+02
1.630000e-06	2.858756e-06	6.757279e-09	1.986223e+01	4.443928e+02
1.640000e-06	2.860430e-06	6.765504e-09	1.987386e+01	4.445704e+02
1.650000e-06	2.861098e-06	6.769541e-09	1.987850e+01	4.446515e+02
1.660000e-06	2.860845e-06	6.767986e-09	1.987674e+01	4.446355e+02
1.670000e-06	2.859706e-06	6.761269e-09	1.986883e+01	4.445226e+02
1.680000e-06	2.857717e-06	6.756610e-09	1.985501e+01	4.443139e+02
1.690000e-06	2.854895e-06	6.753558e-09	1.983540e+01	4.440119e+02
1.700000e-06	2.851317e-06	6.747300e-09	1.981054e+01	4.436206e+02
1.710000e-06	2.846806e-06	6.740436e-09	1.977920e+01	4.431453e+02
1.720000e-06	2.841082e-06	6.745546e-09	1.973943e+01	4.425922e+02
1.730000e-06	2.834290e-06	6.771149e-09	1.969224e+01	4.419683e+02
1.740000e-06	2.826652e-06	6.687187e-09	1.963917e+01	4.412806e+02
1.750000e-06	2.817784e-06	6.582526e-09	1.957756e+01	4.405356e+02
1.760000e-06	2.807242e-06	6.648520e-09	1.950432e+01	4.397385e+02
1.770000e-06	2.795584e-06	6.822739e-09	1.942332e+01	4.388929e+02
1.780000e-06	2.783829e-06	6.727497e-09	1.934165e+01	4.380000e+02
1.790000e-06	2.771510e-06	6.463217e-09	1.925606e+01	4.370589e+02
1.800000e-06	2.757510e-06	6.652798e-09	1.915878e+01	4.360665e+02
1.810000e-06	2.742234e-06	6.760055e-09	1.905265e+01	4.350173e+02
1.820000e-06	2.726463e-06	6.463149e-09	1.894307e+01	4.339048e+02
1.830000e-06	2.709652e-06	6.456378e-09	1.882627e+01	4.327213e+02
1.840000e-06	2.691400e-06	6.738586e-09	1.869946e+01	4.314592e+02
1.850000e-06	2.672389e-06	6.552132e-09	1.856738e+01	4.301115e+02
1.860000e-06	2.652780e-06	6.333781e-09	1.843114e+01	4.286726e+02
1.870000e-06	2.631978e-06	6.646534e-09	1.828661e+01	4.271388e+02
1.880000e-06	2.610075e-06	6.537402e-09	1.813443e+01	4.255087e+02
1.890000e-06	2.587264e-06	6.203023e-09	1.797594e+01	4.237831e+02
1.900000e-06	2.563382e-06	6.456332e-09	1.781001e+01	4.219653e+02
1.910000e-06	2.538735e-06	6.494412e-09	1.763877e+01	4.200598e+02
1.920000e-06	2.513379e-06	6.260991e-09	1.746259e+01	4.180728e+02
1.930000e-06	2.487034e-06	6.337599e-09	1.727956e+01	4.160105e+02
1.940000e-06	2.459947e-06	6.307329e-09	1.709136e+01	4.138793e+02
1.950000e-06	2.432144e-06	6.233351e-09	1.689819e+01	4.116843e+02
1.960000e-06	2.403082e-06	6.260639e-09	1.669627e+01	4.094293e+02
1.970000e-06	2.372907e-06	6.121483e-09	1.648662e+01	4.071162e+02
1.980000e-06	2.341991e-06	6.113340e-09	1.627182e+01	4.047451e+02
1.990000e-06	2.310371e-06	6.206156e-09	1.605213e+01	4.023142e+02
2.000000e-06	2.278120e-06	6.018824e-09	1.582805e+01	3.998201e+02
2.010000e-06	2.245031e-06	6.013217e-09	1.559816e+01	3.972585e+02
2.020000e-06	2.211042e-06	6.067330e-09	1.536200e+01	3.946248e+02
2.030000e-06	2.176433e-06	5.869944e-09	1.512154e+01	3.919142e+02
2.040000e-06	2.141218e-06	5.906208e-09	1.487688e+01	3.891230e+02
2.050000e-06	2.105314e-06	5.938612e-09	1.462742e+01	3.862484e+02
2.060000e-06	2.068592e-06	5.762854e-09	1.437228e+01	3.832891e+02
2.070000e-06	2.030754e-06	5.769426e-09	1.410939e+01	3.802451e+02
2.080000e-06	1.991964e-06	5.764752e-09	1.383988e+01	3.771177e+02
2.090000e-06	1.952617e-06	5.653913e-09	1.356650e+01	3.739092e+02
2.100000e-06	1.912670e-06	5.631857e-09	1.328896e+01	3.706225e+02
2.110000e-06	1.872081e-06	5.568581e-09	1.300695e+01	3.672601e+02
2.120000e-06	1.830862e-06	5.528743e-09	1.272057e+01	3.638243e+02
2.130000e-06	1.789091e-06	5.499149e-09	1.243035e+01	3.603163e+02
2.140000e-06	1.746756e-06	5.406178e-09	1.213621e+01	3.567359e+02
2.150000e-06	1.703834e-06	5.366790e-09	1.183799e+01	3.530818e+02
2.160000e-06	1.660516e-06	5.310488e-09	1.153702e+01	3.493512e+02
2.170000e-06	1.616739e-06	5.255048e-09	1.123287e+01	3.455401e+02
2.180000e-06	1.572280e-06	5.204081e-09	1.092397e+01	3.416439e+02
2.190000e-06	1.527138e-06	5.129352e-09	1.061033e+01	3.376578e+02
2.200000e-06	1.481438e-06	5.069088e-09	1.029282e+01	3.335771e+02
2.210000e-06	1.435316e-06	5.007041e-09	9.972368e+00	3.293979e+02
2.220000e-06	1.388739e-06	4.951654e-09	9.648759e+00	3.251172e+02
2.230000e-06	1.341684e-06	4.888256e-09	9.321829e+00	3.207333e+02
2.240000e-06	1.294037e-06	4.798973e-09	8.990785e+00	3.162456e+02
2.250000e-06	1.245782e-06	4.743928e-09	8.655515e+00	3.116548e+02
2.260000e-06	1.197083e-06	4.684715e-09	8.317161e+00	3.069623e+02
2.270000e-06	1.147977e-06	4.589957e-09	7.975981e+00	3.021700e+02
2.280000e-06	1.098500e-06	4.521570e-09	7.632220e+00	2.972796e+02
2.290000e-06	1.048562e-06	4.447605e-09	7.285262e+00	2.922925e+02
2.300000e-06	9.981249e-07	4.378642e-09	6.934828e+00	2.872091e+02
2.310000e-06	9.473394e-07	4.304566e-09	6.581979e+00	2.820289e+02
2.320000e-06	8.963100e-07	4.211525e-09	6.227433e+00	2.767501e+02
2.330000e-06	8.450123e-07	4.133627e-09	5.871024e+00	2.713698e+02
2.340000e-06	7.934228e-07	4.048823e-09	5.512588e+00	2.658843e+02
2.350000e-06	7.414306e-07	3.966227e-09	5.151353e+00	2.602892e+02
2.360000e-06	6.890132e-07	3.878557e-09	4.787165e+00	2.545802e+02
2.370000e-06	6.361757e-07	3.783002e-09	4.420058e+00	2.487530e+02
2.380000e-06	5.829323e-07	3.696876e-09	4.050130e+00	2.428041e+02
2.390000e-06	5.293514e-07	3.609288e-09	3.677857e+00	2.367305e+02
2.400000e-06	4.753798e-07	3.518804e-09	3.302871e+00	2.305303e+02
2.410000e-06	4.211652e-07	3.423872e-09	2.926196e+00	2.242025e+02
2.420000e-06	3.668396e-07	3.323675e-09	2.548749e+00	2.177463e+02
2.430000e-06	3.123197e-07	3.229363e-09	2.169953e+00	2.111614e+02
2.440000e-06	2.576324e-07	3.127894e-09	1.789993e+00	2.044469e+02
2.450000e-06	2.028206e-07	3.015014e-09	1.409168e+00	1.976014e+02
2.460000e-06	1.479311e-07	2.906756e-09	1.027804e+00	1.906224e+02
2.470000e-06	9.301008e-08	2.802096e-09	6.462207e-01	1.835056e+02
2.480000e-06	3.808239e-08	2.701405e-09	2.645910e-01	1.762456e+02
2.490000e-06	-1.684742e-08	2.591520e-09	-1.170535e-01	1.688351e+02
2.500000e-06	-7.180444e-08	2.474615e-09	-4.988869e-01	1.612658e+02
2.510000e-06	-1.267246e-07	2.361584e-09	-8.804641e-01	1.535280e+02
2.520000e-06	-1.815955e-07	2.243545e-09	-1.261699e+00	1.456118e+02
2.530000e-06	-2.364457e-07	2.117407e-09	-1.642791e+00	1.375070e+02
2.540000e-06	-2.911934e-07	1.985217e-09	-2.023170e+00	1.292036e+02
2.550000e-06	-3.458023e-07	1.857438e-09	-2.402585e+00	1.206920e+02
2.560000e-06	-4.002331e-07	1.732713e-09	-2.780763e+00	1.119629e+02
2.570000e-06	-4.544138e-07	1.601085e-09	-3.157202e+00	1.030072e+02
2.580000e-06	-5.083015e-07	1.461671e-09	-3.531606e+00	9.381562e+01
2.590000e-06	-5.619153e-07	1.319265e-09	-3.904107e+00	8.437789e+01
2.600000e-06	-6.151656e-07	1.172933e-09	-4.274082e+00	7.468219e+01
2.610000e-06	-6.679907e-07	1.020095e-09	-4.641104e+00	6.471452e+01
2.620000e-06	-7.203925e-07	8.610559e-10	-5.005184e+00	5.445814e+01
2.630000e-06	-7.723878e-07	6.990162e-10	-5.366440e+00	4.389347e+01
2.640000e-06	-8.240657e-07	5.388611e-10	-5.725490e+00	3.299823e+01
2.650000e-06	-8.754680e-07	3.729117e-10	-6.082626e+00	2.174819e+01
2.660000e-06	-9.266176e-07	1.978741e-10	-6.438007e+00	1.011838e+01
2.670000e-06	-9.774336e-07	1.461833e-11	-6.791069e+00	-1.915151e+00
2.680000e-06	-1.027844e-06	-1.734601e-10	-7.141315e+00	-1.437315e+01
2.690000e-06	-1.077816e-06	-3.693857e-10	-7.488508e+00	-2.727070e+01
2.700000e-06	-1.127361e-06	-5.761964e-10	-7.832745e+00	-4.061462e+01
2.710000e-06	-1.176535e-06	-7.903180e-10	-8.174397e+00	-5.440096e+01
2.720000e-06	-1.225278e-06	-1.007886e-09	-8.513057e+00	-6.861285e+01
2.730000e-06	-1.273333e-06	-1.226094e-09	-8.846938e+00	-8.321889e+01
2.740000e-06	-1.320629e-06	-1.449783e-09	-9.175542e+00	-9.817229e+01
2.750000e-06	-1.367242e-06	-1.681260e-09	-9.499400e+00	-1.134109e+02
2.760000e-06	-1.413317e-06	-1.917890e-09	-9.819524e+00	-1.288580e+02
2.770000e-06	-1.459083e-06	-2.154764e-09	-1.013750e+01	-1.444247e+02
2.780000e-06	-1.504516e-06	-2.392958e-09	-1.045316e+01	-1.600123e+02
2.790000e-06	-1.549542e-06	-2.633568e-09	-1.076600e+01	-1.755157e+02
2.800000e-06	-1.594033e-06	-2.871912e-09	-1.107511e+01	-1.908280e+02
2.810000e-06	-1.637901e-06	-3.102187e-09	-1.137990e+01	-2.058441e+02
2.820000e-06	-1.681315e-06	-3.324175e-09	-1.168154e+01	-2.204650e+02
2.830000e-06	-1.724384e-06	-3.539539e-09	-1.198077e+01	-2.346019e+02
2.840000e-06	-1.766884e-06	-3.747273e-09	-1.227606e+01	-2.481788e+02
2.850000e-06	-1.808737e-06	-3.946106e-09	-1.256685e+01	-2.611355e+02
2.860000e-06	-1.850084e-06	-4.133527e-09	-1.285412e+01	-2.734286e+02
2.870000e-06	-1.890799e-06	-4.313233e-09	-1.313700e+01	-2.850320e+02
2.880000e-06	-1.930763e-06	-4.486146e-09	-1.341467e+01	-2.959364e+02
2.890000e-06	-1.970186e-06	-4.647460e-09	-1.368857e+01	-3.061482e+02
2.900000e-06	-2.009151e-06	-4.793882e-09	-1.395929e+01	-3.156867e+02
2.910000e-06	-2.047370e-06	-4.928184e-09	-1.422483e+01	-3.245821e+02
2.920000e-06	-2.084528e-06	-5.054251e-09	-1.448300e+01	-3.328723e+02
2.930000e-06	-2.120646e-06	-5.173262e-09	-1.473395e+01	-3.405999e+02
2.940000e-06	-2.156071e-06	-5.286658e-09	-1.498007e+01	-3.478099e+02
