# Temperatura_=_31.62
# Concentracion g/m^3_=_15500.0
# C_Vs_to_Am_M_A/Vsm_=_65563218390.804596
# pendiente_HvsI_1/m_=_3716.3
# ordenada_HvsI_A/m_=_1297.0
# frecuencia_Hz_=_300848.48242544784

Tiempo_(s)	Campo_(V.s)	Magnetizacion_(V.s)	Campo_(kA/m)	Magnetizacion_(A/m)
0.000000e+00	-2.853233e-06	-5.793922e-09	-1.980308e+01	-3.780980e+02
1.000000e-08	-2.852375e-06	-5.793263e-09	-1.979712e+01	-3.780149e+02
2.000000e-08	-2.850575e-06	-5.790488e-09	-1.978463e+01	-3.778491e+02
3.000000e-08	-2.847481e-06	-5.786936e-09	-1.976316e+01	-3.776007e+02
4.000000e-08	-2.843291e-06	-5.783745e-09	-1.973408e+01	-3.772726e+02
5.000000e-08	-2.838334e-06	-5.775810e-09	-1.969967e+01	-3.768701e+02
6.000000e-08	-2.832553e-06	-5.761980e-09	-1.965955e+01	-3.764009e+02
7.000000e-08	-2.825781e-06	-5.742108e-09	-1.961255e+01	-3.758742e+02
8.000000e-08	-2.817999e-06	-5.762674e-09	-1.955854e+01	-3.753000e+02
9.000000e-08	-2.809081e-06	-5.818170e-09	-1.949664e+01	-3.746878e+02
1.000000e-07	-2.798694e-06	-5.808080e-09	-1.942455e+01	-3.740458e+02
1.100000e-07	-2.787042e-06	-5.646606e-09	-1.934368e+01	-3.733798e+02
1.200000e-07	-2.774670e-06	-5.616371e-09	-1.925781e+01	-3.726926e+02
1.300000e-07	-2.761450e-06	-5.776392e-09	-1.916605e+01	-3.719837e+02
1.400000e-07	-2.747179e-06	-5.767261e-09	-1.906701e+01	-3.712492e+02
1.500000e-07	-2.731964e-06	-5.563688e-09	-1.896140e+01	-3.704823e+02
1.600000e-07	-2.715490e-06	-5.661200e-09	-1.884706e+01	-3.696740e+02
1.700000e-07	-2.697678e-06	-5.790012e-09	-1.872343e+01	-3.688139e+02
1.800000e-07	-2.679092e-06	-5.555181e-09	-1.859444e+01	-3.678916e+02
1.900000e-07	-2.659869e-06	-5.533744e-09	-1.846102e+01	-3.668976e+02
2.000000e-07	-2.639714e-06	-5.687849e-09	-1.832113e+01	-3.658243e+02
2.100000e-07	-2.618619e-06	-5.538451e-09	-1.817472e+01	-3.646666e+02
2.200000e-07	-2.596768e-06	-5.452123e-09	-1.802307e+01	-3.634227e+02
2.300000e-07	-2.574038e-06	-5.649867e-09	-1.786530e+01	-3.620936e+02
2.400000e-07	-2.550308e-06	-5.565559e-09	-1.770060e+01	-3.606832e+02
2.500000e-07	-2.525787e-06	-5.386125e-09	-1.753042e+01	-3.591974e+02
2.600000e-07	-2.500460e-06	-5.456541e-09	-1.735463e+01	-3.576435e+02
2.700000e-07	-2.474059e-06	-5.478782e-09	-1.717140e+01	-3.560290e+02
2.800000e-07	-2.446526e-06	-5.380873e-09	-1.698030e+01	-3.543608e+02
2.900000e-07	-2.418009e-06	-5.382796e-09	-1.678238e+01	-3.526444e+02
3.000000e-07	-2.388702e-06	-5.371899e-09	-1.657897e+01	-3.508831e+02
3.100000e-07	-2.358713e-06	-5.351238e-09	-1.637082e+01	-3.490780e+02
3.200000e-07	-2.328009e-06	-5.336834e-09	-1.615772e+01	-3.472279e+02
3.300000e-07	-2.296483e-06	-5.243591e-09	-1.593891e+01	-3.453296e+02
3.400000e-07	-2.264233e-06	-5.230294e-09	-1.571508e+01	-3.433784e+02
3.500000e-07	-2.231425e-06	-5.214264e-09	-1.548737e+01	-3.413688e+02
3.600000e-07	-2.197895e-06	-5.168973e-09	-1.525466e+01	-3.392958e+02
3.700000e-07	-2.163249e-06	-5.179525e-09	-1.501419e+01	-3.371548e+02
3.800000e-07	-2.127458e-06	-5.137139e-09	-1.476578e+01	-3.349428e+02
3.900000e-07	-2.090989e-06	-5.043949e-09	-1.451267e+01	-3.326585e+02
4.000000e-07	-2.053997e-06	-5.057245e-09	-1.425592e+01	-3.303025e+02
4.100000e-07	-2.016292e-06	-5.037118e-09	-1.399422e+01	-3.278771e+02
4.200000e-07	-1.977825e-06	-4.941010e-09	-1.372724e+01	-3.253855e+02
4.300000e-07	-1.938603e-06	-4.917327e-09	-1.345502e+01	-3.228319e+02
4.400000e-07	-1.898664e-06	-4.904873e-09	-1.317782e+01	-3.202201e+02
4.500000e-07	-1.858232e-06	-4.866628e-09	-1.289720e+01	-3.175532e+02
4.600000e-07	-1.817444e-06	-4.816428e-09	-1.261411e+01	-3.148327e+02
4.700000e-07	-1.776024e-06	-4.765759e-09	-1.232663e+01	-3.120587e+02
4.800000e-07	-1.733553e-06	-4.715425e-09	-1.203185e+01	-3.092290e+02
4.900000e-07	-1.690000e-06	-4.683957e-09	-1.172957e+01	-3.063397e+02
5.000000e-07	-1.645773e-06	-4.643015e-09	-1.142261e+01	-3.033857e+02
5.100000e-07	-1.601200e-06	-4.584984e-09	-1.111325e+01	-3.003607e+02
5.200000e-07	-1.556251e-06	-4.531753e-09	-1.080128e+01	-2.972583e+02
5.300000e-07	-1.510755e-06	-4.490247e-09	-1.048551e+01	-2.940728e+02
5.400000e-07	-1.464669e-06	-4.450446e-09	-1.016564e+01	-2.907993e+02
5.500000e-07	-1.418069e-06	-4.386174e-09	-9.842216e+00	-2.874349e+02
5.600000e-07	-1.370962e-06	-4.324565e-09	-9.515269e+00	-2.839784e+02
5.700000e-07	-1.323315e-06	-4.276481e-09	-9.184571e+00	-2.804304e+02
5.800000e-07	-1.275203e-06	-4.237191e-09	-8.850644e+00	-2.767933e+02
5.900000e-07	-1.226736e-06	-4.175844e-09	-8.514252e+00	-2.730706e+02
6.000000e-07	-1.177934e-06	-4.107185e-09	-8.175539e+00	-2.692663e+02
6.100000e-07	-1.128677e-06	-4.050617e-09	-7.833669e+00	-2.653844e+02
6.200000e-07	-1.078755e-06	-3.995056e-09	-7.487178e+00	-2.614279e+02
6.300000e-07	-1.028186e-06	-3.933026e-09	-7.136204e+00	-2.573987e+02
6.400000e-07	-9.771152e-07	-3.859781e-09	-6.781742e+00	-2.532968e+02
6.500000e-07	-9.255209e-07	-3.792562e-09	-6.423648e+00	-2.491207e+02
6.600000e-07	-8.734523e-07	-3.732531e-09	-6.062262e+00	-2.448670e+02
6.700000e-07	-8.210946e-07	-3.672906e-09	-5.698869e+00	-2.405312e+02
6.800000e-07	-7.685289e-07	-3.601102e-09	-5.334033e+00	-2.361080e+02
6.900000e-07	-7.157290e-07	-3.525696e-09	-4.967571e+00	-2.315916e+02
7.000000e-07	-6.626809e-07	-3.454996e-09	-4.599387e+00	-2.269770e+02
7.100000e-07	-6.093838e-07	-3.387364e-09	-4.229475e+00	-2.222595e+02
7.200000e-07	-5.558877e-07	-3.313562e-09	-3.858181e+00	-2.174359e+02
7.300000e-07	-5.021829e-07	-3.232338e-09	-3.485438e+00	-2.125036e+02
7.400000e-07	-4.482119e-07	-3.154850e-09	-3.110849e+00	-2.074614e+02
7.500000e-07	-3.940437e-07	-3.077084e-09	-2.734890e+00	-2.023083e+02
7.600000e-07	-3.397754e-07	-2.995761e-09	-2.358237e+00	-1.970433e+02
7.700000e-07	-2.854383e-07	-2.908663e-09	-1.981106e+00	-1.916647e+02
7.800000e-07	-2.310311e-07	-2.824656e-09	-1.603489e+00	-1.861695e+02
7.900000e-07	-1.766049e-07	-2.744879e-09	-1.225740e+00	-1.805528e+02
8.000000e-07	-1.221565e-07	-2.659368e-09	-8.478363e-01	-1.748079e+02
8.100000e-07	-6.763862e-08	-2.562927e-09	-4.694510e-01	-1.689258e+02
8.200000e-07	-1.307308e-08	-2.463687e-09	-9.073471e-02	-1.628959e+02
8.300000e-07	4.147903e-08	-2.367804e-09	2.878883e-01	-1.567061e+02
8.400000e-07	9.598174e-08	-2.269241e-09	6.661686e-01	-1.503441e+02
8.500000e-07	1.504725e-07	-2.167488e-09	1.044366e+00	-1.437974e+02
8.600000e-07	2.049591e-07	-2.063545e-09	1.422534e+00	-1.370545e+02
8.700000e-07	2.593750e-07	-1.960699e-09	1.800212e+00	-1.301050e+02
8.800000e-07	3.136955e-07	-1.853692e-09	2.177227e+00	-1.229403e+02
8.900000e-07	3.679295e-07	-1.737714e-09	2.553642e+00	-1.155528e+02
9.000000e-07	4.220254e-07	-1.613782e-09	2.929099e+00	-1.079355e+02
9.100000e-07	4.759274e-07	-1.490325e-09	3.303210e+00	-1.000813e+02
9.200000e-07	5.296681e-07	-1.371380e-09	3.676201e+00	-9.198127e+01
9.300000e-07	5.832089e-07	-1.248030e-09	4.047805e+00	-8.362348e+01
9.400000e-07	6.364938e-07	-1.115544e-09	4.417633e+00	-7.499180e+01
9.500000e-07	6.895649e-07	-9.738479e-10	4.785977e+00	-6.606481e+01
9.600000e-07	7.424210e-07	-8.292685e-10	5.152829e+00	-5.681545e+01
9.700000e-07	7.950450e-07	-6.818076e-10	5.518070e+00	-4.721120e+01
9.800000e-07	8.473934e-07	-5.277166e-10	5.881398e+00	-3.721525e+01
9.900000e-07	8.993995e-07	-3.644456e-10	6.242350e+00	-2.678843e+01
1.000000e-06	9.509998e-07	-1.947657e-10	6.600486e+00	-1.589206e+01
1.010000e-06	1.002062e-06	-2.201055e-11	6.954887e+00	-4.491334e+00
1.020000e-06	1.052476e-06	1.569752e-10	7.304787e+00	7.440705e+00
1.030000e-06	1.102233e-06	3.458017e-10	7.650132e+00	1.991922e+01
1.040000e-06	1.151423e-06	5.463690e-10	7.991541e+00	3.294379e+01
1.050000e-06	1.200204e-06	7.543682e-10	8.330104e+00	4.649531e+01
1.060000e-06	1.248727e-06	9.680529e-10	8.666886e+00	6.053377e+01
1.070000e-06	1.296974e-06	1.188158e-09	9.001747e+00	7.499736e+01
1.080000e-06	1.344782e-06	1.414622e-09	9.333562e+00	8.980293e+01
1.090000e-06	1.392055e-06	1.644592e-09	9.661665e+00	1.048480e+02
1.100000e-06	1.438793e-06	1.876630e-09	9.986051e+00	1.200143e+02
1.110000e-06	1.485013e-06	2.109163e-09	1.030684e+01	1.351720e+02
1.120000e-06	1.530695e-06	2.336913e-09	1.062391e+01	1.501859e+02
1.130000e-06	1.575841e-06	2.556764e-09	1.093725e+01	1.649211e+02
1.140000e-06	1.620577e-06	2.770253e-09	1.124773e+01	1.792495e+02
1.150000e-06	1.665021e-06	2.978672e-09	1.155621e+01	1.930551e+02
1.160000e-06	1.709016e-06	3.176485e-09	1.186156e+01	2.062396e+02
1.170000e-06	1.752275e-06	3.363505e-09	1.216179e+01	2.187260e+02
1.180000e-06	1.794582e-06	3.541009e-09	1.245544e+01	2.304608e+02
1.190000e-06	1.835967e-06	3.707888e-09	1.274267e+01	2.414148e+02
1.200000e-06	1.876708e-06	3.863446e-09	1.302543e+01	2.515827e+02
1.210000e-06	1.917010e-06	4.005113e-09	1.330515e+01	2.609805e+02
1.220000e-06	1.956733e-06	4.133206e-09	1.358086e+01	2.696424e+02
1.230000e-06	1.995766e-06	4.251257e-09	1.385176e+01	2.776162e+02
1.240000e-06	2.034085e-06	4.360998e-09	1.411772e+01	2.849594e+02
1.250000e-06	2.071644e-06	4.461428e-09	1.437840e+01	2.917337e+02
1.260000e-06	2.108564e-06	4.555681e-09	1.463465e+01	2.980013e+02
1.270000e-06	2.144968e-06	4.645064e-09	1.488731e+01	3.038208e+02
1.280000e-06	2.180728e-06	4.729265e-09	1.513551e+01	3.092449e+02
1.290000e-06	2.215505e-06	4.806753e-09	1.537688e+01	3.143183e+02
1.300000e-06	2.249189e-06	4.875392e-09	1.561066e+01	3.190771e+02
1.310000e-06	2.282022e-06	4.937700e-09	1.583854e+01	3.235491e+02
1.320000e-06	2.314189e-06	4.997992e-09	1.606181e+01	3.277549e+02
1.330000e-06	2.345625e-06	5.058556e-09	1.627999e+01	3.317092e+02
1.340000e-06	2.376282e-06	5.115646e-09	1.649276e+01	3.354229e+02
1.350000e-06	2.406133e-06	5.164856e-09	1.669995e+01	3.389047e+02
1.360000e-06	2.435162e-06	5.209006e-09	1.690143e+01	3.421629e+02
1.370000e-06	2.463546e-06	5.254579e-09	1.709843e+01	3.452068e+02
1.380000e-06	2.491123e-06	5.298623e-09	1.728983e+01	3.480469e+02
1.390000e-06	2.517453e-06	5.335501e-09	1.747257e+01	3.506955e+02
1.400000e-06	2.542618e-06	5.366768e-09	1.764723e+01	3.531667e+02
1.410000e-06	2.566906e-06	5.398585e-09	1.781580e+01	3.554750e+02
1.420000e-06	2.590320e-06	5.432927e-09	1.797831e+01	3.576352e+02
1.430000e-06	2.612861e-06	5.465328e-09	1.813476e+01	3.596610e+02
1.440000e-06	2.634527e-06	5.492059e-09	1.828513e+01	3.615645e+02
1.450000e-06	2.655426e-06	5.515424e-09	1.843019e+01	3.633551e+02
1.460000e-06	2.675643e-06	5.540303e-09	1.857050e+01	3.650397e+02
1.470000e-06	2.694923e-06	5.565814e-09	1.870431e+01	3.666225e+02
1.480000e-06	2.713089e-06	5.588289e-09	1.883040e+01	3.681053e+02
1.490000e-06	2.730304e-06	5.607605e-09	1.894988e+01	3.694883e+02
1.500000e-06	2.746511e-06	5.624567e-09	1.906237e+01	3.707708e+02
1.510000e-06	2.761626e-06	5.639555e-09	1.916727e+01	3.719520e+02
1.520000e-06	2.775791e-06	5.653931e-09	1.926558e+01	3.730319e+02
1.530000e-06	2.788966e-06	5.667297e-09	1.935703e+01	3.740117e+02
1.540000e-06	2.801076e-06	5.680326e-09	1.944108e+01	3.748944e+02
1.550000e-06	2.811927e-06	5.694574e-09	1.951639e+01	3.756842e+02
1.560000e-06	2.821469e-06	5.708117e-09	1.958262e+01	3.763868e+02
1.570000e-06	2.830013e-06	5.719142e-09	1.964192e+01	3.770087e+02
1.580000e-06	2.837696e-06	5.727283e-09	1.969525e+01	3.775561e+02
1.590000e-06	2.844435e-06	5.734546e-09	1.974202e+01	3.780348e+02
1.600000e-06	2.850212e-06	5.741078e-09	1.978211e+01	3.784489e+02
1.610000e-06	2.855122e-06	5.744677e-09	1.981619e+01	3.788008e+02
1.620000e-06	2.859141e-06	5.747069e-09	1.984408e+01	3.790909e+02
1.630000e-06	2.861939e-06	5.751373e-09	1.986350e+01	3.793173e+02
1.640000e-06	2.863487e-06	5.756276e-09	1.987425e+01	3.794765e+02
1.650000e-06	2.864100e-06	5.758079e-09	1.987850e+01	3.795643e+02
1.660000e-06	2.863809e-06	5.757544e-09	1.987648e+01	3.795758e+02
1.670000e-06	2.862600e-06	5.756957e-09	1.986809e+01	3.795073e+02
1.680000e-06	2.860452e-06	5.755920e-09	1.985318e+01	3.793562e+02
1.690000e-06	2.857475e-06	5.751983e-09	1.983252e+01	3.791223e+02
1.700000e-06	2.853821e-06	5.744176e-09	1.980716e+01	3.788080e+02
1.710000e-06	2.849238e-06	5.737362e-09	1.977535e+01	3.784181e+02
1.720000e-06	2.843432e-06	5.741579e-09	1.973506e+01	3.779601e+02
1.730000e-06	2.836592e-06	5.758784e-09	1.968758e+01	3.774429e+02
1.740000e-06	2.828920e-06	5.701228e-09	1.963433e+01	3.768763e+02
1.750000e-06	2.820005e-06	5.616301e-09	1.957246e+01	3.762701e+02
1.760000e-06	2.809397e-06	5.660403e-09	1.949883e+01	3.756328e+02
1.770000e-06	2.797730e-06	5.799317e-09	1.941786e+01	3.749707e+02
1.780000e-06	2.785982e-06	5.724393e-09	1.933632e+01	3.742871e+02
1.790000e-06	2.773645e-06	5.536189e-09	1.925070e+01	3.735822e+02
1.800000e-06	2.759602e-06	5.636748e-09	1.915323e+01	3.728526e+02
1.810000e-06	2.744243e-06	5.750888e-09	1.904663e+01	3.720920e+02
1.820000e-06	2.728389e-06	5.565478e-09	1.893659e+01	3.712917e+02
1.830000e-06	2.711528e-06	5.543154e-09	1.881957e+01	3.704415e+02
1.840000e-06	2.693268e-06	5.782842e-09	1.869283e+01	3.695309e+02
1.850000e-06	2.674243e-06	5.644559e-09	1.856079e+01	3.685503e+02
1.860000e-06	2.654554e-06	5.455062e-09	1.842413e+01	3.674915e+02
1.870000e-06	2.633603e-06	5.682684e-09	1.827872e+01	3.663490e+02
1.880000e-06	2.611527e-06	5.619934e-09	1.812550e+01	3.651204e+02
1.890000e-06	2.588589e-06	5.355421e-09	1.796629e+01	3.638062e+02
1.900000e-06	2.564616e-06	5.545448e-09	1.779991e+01	3.624098e+02
1.910000e-06	2.539872e-06	5.620153e-09	1.762818e+01	3.609369e+02
1.920000e-06	2.514432e-06	5.418400e-09	1.745160e+01	3.593945e+02
1.930000e-06	2.488003e-06	5.433587e-09	1.726817e+01	3.577901e+02
1.940000e-06	2.460846e-06	5.459295e-09	1.707969e+01	3.561309e+02
1.950000e-06	2.432970e-06	5.378178e-09	1.688621e+01	3.544227e+02
1.960000e-06	2.403875e-06	5.381782e-09	1.668427e+01	3.526692e+02
1.970000e-06	2.373642e-06	5.318106e-09	1.647444e+01	3.508718e+02
1.980000e-06	2.342628e-06	5.298089e-09	1.625919e+01	3.490299e+02
1.990000e-06	2.310888e-06	5.357506e-09	1.603890e+01	3.471404e+02
2.000000e-06	2.278432e-06	5.237994e-09	1.581363e+01	3.451989e+02
2.010000e-06	2.245196e-06	5.211659e-09	1.558295e+01	3.432000e+02
2.020000e-06	2.211215e-06	5.235031e-09	1.534710e+01	3.411386e+02
2.030000e-06	2.176593e-06	5.108425e-09	1.510681e+01	3.390099e+02
2.040000e-06	2.141236e-06	5.134070e-09	1.486141e+01	3.368106e+02
2.050000e-06	2.105172e-06	5.148982e-09	1.461111e+01	3.345391e+02
2.060000e-06	2.068337e-06	5.015494e-09	1.435545e+01	3.321957e+02
2.070000e-06	2.030386e-06	5.026883e-09	1.409205e+01	3.297823e+02
2.080000e-06	1.991476e-06	5.021467e-09	1.382199e+01	3.273022e+02
2.090000e-06	1.952029e-06	4.928364e-09	1.354821e+01	3.247593e+02
2.100000e-06	1.911999e-06	4.912122e-09	1.327037e+01	3.221575e+02
2.110000e-06	1.871314e-06	4.859368e-09	1.298800e+01	3.195001e+02
2.120000e-06	1.830050e-06	4.824785e-09	1.270160e+01	3.167891e+02
2.130000e-06	1.788204e-06	4.807528e-09	1.241116e+01	3.140246e+02
2.140000e-06	1.745786e-06	4.735817e-09	1.211676e+01	3.112049e+02
2.150000e-06	1.702829e-06	4.700681e-09	1.181861e+01	3.083266e+02
2.160000e-06	1.659431e-06	4.655192e-09	1.151740e+01	3.053845e+02
2.170000e-06	1.615550e-06	4.607190e-09	1.121284e+01	3.023725e+02
2.180000e-06	1.570991e-06	4.570715e-09	1.090358e+01	2.992843e+02
2.190000e-06	1.525761e-06	4.505956e-09	1.058966e+01	2.961139e+02
2.200000e-06	1.479979e-06	4.457457e-09	1.027191e+01	2.928563e+02
2.210000e-06	1.433767e-06	4.419318e-09	9.951165e+00	2.895082e+02
2.220000e-06	1.387153e-06	4.365477e-09	9.627642e+00	2.860680e+02
2.230000e-06	1.340046e-06	4.312495e-09	9.300692e+00	2.825361e+02
2.240000e-06	1.292373e-06	4.244993e-09	8.969814e+00	2.789146e+02
2.250000e-06	1.244092e-06	4.197791e-09	8.634716e+00	2.752068e+02
2.260000e-06	1.195345e-06	4.150417e-09	8.296382e+00	2.714167e+02
2.270000e-06	1.146188e-06	4.078320e-09	7.955205e+00	2.675482e+02
2.280000e-06	1.096590e-06	4.026388e-09	7.610966e+00	2.636048e+02
2.290000e-06	1.046598e-06	3.965612e-09	7.263991e+00	2.595883e+02
2.300000e-06	9.961288e-07	3.903364e-09	6.913707e+00	2.554994e+02
2.310000e-06	9.452756e-07	3.840516e-09	6.560757e+00	2.513366e+02
2.320000e-06	8.941918e-07	3.766139e-09	6.206206e+00	2.470970e+02
2.330000e-06	8.428615e-07	3.703316e-09	5.849944e+00	2.427762e+02
2.340000e-06	7.912491e-07	3.639212e-09	5.491724e+00	2.383688e+02
2.350000e-06	7.392927e-07	3.573466e-09	5.131117e+00	2.338694e+02
2.360000e-06	6.869121e-07	3.504433e-09	4.767565e+00	2.292726e+02
2.370000e-06	6.340428e-07	3.429618e-09	4.400622e+00	2.245737e+02
2.380000e-06	5.807158e-07	3.362043e-09	4.030502e+00	2.197690e+02
2.390000e-06	5.270453e-07	3.290738e-09	3.657998e+00	2.148562e+02
2.400000e-06	4.730795e-07	3.213501e-09	3.283444e+00	2.098336e+02
2.410000e-06	4.188482e-07	3.139652e-09	2.907048e+00	2.047003e+02
2.420000e-06	3.644546e-07	3.062138e-09	2.529525e+00	1.994553e+02
2.430000e-06	3.098767e-07	2.981769e-09	2.150722e+00	1.940970e+02
2.440000e-06	2.551244e-07	2.891554e-09	1.770710e+00	1.886228e+02
2.450000e-06	2.002854e-07	2.797432e-09	1.390096e+00	1.830281e+02
2.460000e-06	1.453596e-07	2.714410e-09	1.008879e+00	1.773066e+02
2.470000e-06	9.041798e-08	2.632949e-09	6.275528e-01	1.714496e+02
2.480000e-06	3.548332e-08	2.547463e-09	2.462746e-01	1.654468e+02
2.490000e-06	-1.947333e-08	2.453957e-09	-1.351561e-01	1.592865e+02
2.500000e-06	-7.443781e-08	2.357677e-09	-5.166413e-01	1.529560e+02
2.510000e-06	-1.293978e-07	2.262447e-09	-8.980954e-01	1.464431e+02
2.520000e-06	-1.843001e-07	2.158752e-09	-1.279149e+00	1.397358e+02
2.530000e-06	-2.391545e-07	2.046410e-09	-1.659870e+00	1.328238e+02
2.540000e-06	-2.939616e-07	1.935703e-09	-2.040263e+00	1.256980e+02
2.550000e-06	-3.485965e-07	1.831837e-09	-2.419460e+00	1.183507e+02
2.560000e-06	-4.030330e-07	1.725639e-09	-2.797281e+00	1.107749e+02
2.570000e-06	-4.572539e-07	1.607742e-09	-3.173606e+00	1.029635e+02
2.580000e-06	-5.111997e-07	1.482842e-09	-3.548020e+00	9.490800e+01
2.590000e-06	-5.648853e-07	1.357902e-09	-3.920629e+00	8.659718e+01
2.600000e-06	-6.182097e-07	1.228160e-09	-4.290731e+00	7.801570e+01
2.610000e-06	-6.710637e-07	1.089770e-09	-4.657568e+00	6.914317e+01
2.620000e-06	-7.234478e-07	9.453810e-10	-5.021144e+00	5.995350e+01
2.630000e-06	-7.754405e-07	7.992147e-10	-5.382003e+00	5.041512e+01
2.640000e-06	-8.271174e-07	6.527890e-10	-5.740671e+00	4.049184e+01
2.650000e-06	-8.784840e-07	5.001062e-10	-6.097185e+00	3.014475e+01
2.660000e-06	-9.295979e-07	3.373995e-10	-6.451944e+00	1.933483e+01
2.670000e-06	-9.804652e-07	1.660821e-10	-6.804993e+00	8.026324e+00
2.680000e-06	-1.030952e-06	-1.020542e-11	-7.155401e+00	-3.809439e+00
2.690000e-06	-1.081016e-06	-1.961544e-10	-7.502874e+00	-1.619001e+01
2.700000e-06	-1.130679e-06	-3.955229e-10	-7.847564e+00	-2.911801e+01
2.710000e-06	-1.179932e-06	-6.035011e-10	-8.189410e+00	-4.257785e+01
2.720000e-06	-1.228712e-06	-8.172195e-10	-8.527970e+00	-5.653336e+01
2.730000e-06	-1.276883e-06	-1.036395e-09	-8.862306e+00	-7.092664e+01
2.740000e-06	-1.324349e-06	-1.261303e-09	-9.191747e+00	-8.567825e+01
2.750000e-06	-1.371146e-06	-1.490771e-09	-9.516541e+00	-1.006890e+02
2.760000e-06	-1.417417e-06	-1.720954e-09	-9.837691e+00	-1.158429e+02
2.770000e-06	-1.463254e-06	-1.951908e-09	-1.015583e+01	-1.310121e+02
2.780000e-06	-1.508715e-06	-2.185856e-09	-1.047135e+01	-1.460618e+02
2.790000e-06	-1.553752e-06	-2.417961e-09	-1.078394e+01	-1.608566e+02
2.800000e-06	-1.598174e-06	-2.641286e-09	-1.109225e+01	-1.752666e+02
2.810000e-06	-1.641980e-06	-2.853221e-09	-1.139629e+01	-1.891734e+02
2.820000e-06	-1.685397e-06	-3.057875e-09	-1.169763e+01	-2.024753e+02
2.830000e-06	-1.728494e-06	-3.252521e-09	-1.199674e+01	-2.150911e+02
2.840000e-06	-1.771084e-06	-3.432350e-09	-1.229234e+01	-2.269630e+02
2.850000e-06	-1.813009e-06	-3.599315e-09	-1.258333e+01	-2.380576e+02
2.860000e-06	-1.854356e-06	-3.756362e-09	-1.287030e+01	-2.483654e+02
2.870000e-06	-1.895086e-06	-3.905962e-09	-1.315299e+01	-2.578988e+02
2.880000e-06	-1.935107e-06	-4.045649e-09	-1.343076e+01	-2.666890e+02
2.890000e-06	-1.974562e-06	-4.173804e-09	-1.370460e+01	-2.747818e+02
2.900000e-06	-2.013511e-06	-4.291327e-09	-1.397493e+01	-2.822333e+02
2.910000e-06	-2.051702e-06	-4.398515e-09	-1.423999e+01	-2.891047e+02
2.920000e-06	-2.088892e-06	-4.494297e-09	-1.449812e+01	-2.954584e+02
2.930000e-06	-2.125106e-06	-4.581476e-09	-1.474946e+01	-3.013540e+02
2.940000e-06	-2.160569e-06	-4.665696e-09	-1.499559e+01	-3.068453e+02
