# Temperatura_=_21.69
# Concentracion g/m^3_=_15500.0
# C_Vs_to_Am_M_A/Vsm_=_65563218390.804596
# pendiente_HvsI_1/m_=_3716.3
# ordenada_HvsI_A/m_=_1297.0
# frecuencia_Hz_=_300837.08786007424

Tiempo_(s)	Campo_(V.s)	Magnetizacion_(V.s)	Campo_(kA/m)	Magnetizacion_(A/m)
0.000000e+00	-2.846396e-06	-5.724436e-09	-1.980721e+01	-3.746029e+02
1.000000e-08	-2.845909e-06	-5.725633e-09	-1.980381e+01	-3.745638e+02
2.000000e-08	-2.844706e-06	-5.726702e-09	-1.979545e+01	-3.744510e+02
3.000000e-08	-2.842395e-06	-5.721412e-09	-1.977936e+01	-3.742628e+02
4.000000e-08	-2.838803e-06	-5.717039e-09	-1.975437e+01	-3.739989e+02
5.000000e-08	-2.834314e-06	-5.714662e-09	-1.972313e+01	-3.736605e+02
6.000000e-08	-2.829083e-06	-5.703609e-09	-1.968673e+01	-3.732510e+02
7.000000e-08	-2.822987e-06	-5.666231e-09	-1.964431e+01	-3.727752e+02
8.000000e-08	-2.815867e-06	-5.655909e-09	-1.959476e+01	-3.722397e+02
9.000000e-08	-2.807639e-06	-5.759493e-09	-1.953750e+01	-3.716517e+02
1.000000e-07	-2.798098e-06	-5.840486e-09	-1.947111e+01	-3.710187e+02
1.100000e-07	-2.787111e-06	-5.650637e-09	-1.939465e+01	-3.703476e+02
1.200000e-07	-2.775136e-06	-5.425394e-09	-1.931133e+01	-3.696438e+02
1.300000e-07	-2.762441e-06	-5.631111e-09	-1.922298e+01	-3.689105e+02
1.400000e-07	-2.748772e-06	-5.866401e-09	-1.912787e+01	-3.681485e+02
1.500000e-07	-2.734137e-06	-5.532194e-09	-1.902603e+01	-3.673558e+02
1.600000e-07	-2.718549e-06	-5.431846e-09	-1.891756e+01	-3.665277e+02
1.700000e-07	-2.701493e-06	-5.801278e-09	-1.879887e+01	-3.656572e+02
1.800000e-07	-2.683206e-06	-5.666804e-09	-1.867161e+01	-3.647358e+02
1.900000e-07	-2.664393e-06	-5.370772e-09	-1.854070e+01	-3.637542e+02
2.000000e-07	-2.644858e-06	-5.621371e-09	-1.840476e+01	-3.627031e+02
2.100000e-07	-2.624339e-06	-5.637981e-09	-1.826198e+01	-3.615745e+02
2.200000e-07	-2.603016e-06	-5.312543e-09	-1.811360e+01	-3.603618e+02
2.300000e-07	-2.580906e-06	-5.524638e-09	-1.795974e+01	-3.590612e+02
2.400000e-07	-2.557755e-06	-5.672051e-09	-1.779864e+01	-3.576712e+02
2.500000e-07	-2.533696e-06	-5.354862e-09	-1.763122e+01	-3.561931e+02
2.600000e-07	-2.508979e-06	-5.338112e-09	-1.745922e+01	-3.546306e+02
2.700000e-07	-2.483398e-06	-5.471385e-09	-1.728121e+01	-3.529892e+02
2.800000e-07	-2.456686e-06	-5.347233e-09	-1.709533e+01	-3.512755e+02
2.900000e-07	-2.428818e-06	-5.325456e-09	-1.690140e+01	-3.494965e+02
3.000000e-07	-2.400001e-06	-5.322676e-09	-1.670087e+01	-3.476584e+02
3.100000e-07	-2.370455e-06	-5.283332e-09	-1.649528e+01	-3.457665e+02
3.200000e-07	-2.340257e-06	-5.332857e-09	-1.628514e+01	-3.438244e+02
3.300000e-07	-2.309329e-06	-5.228869e-09	-1.606992e+01	-3.418335e+02
3.400000e-07	-2.277560e-06	-5.126058e-09	-1.584885e+01	-3.397933e+02
3.500000e-07	-2.245077e-06	-5.190697e-09	-1.562281e+01	-3.377015e+02
3.600000e-07	-2.212075e-06	-5.129043e-09	-1.539316e+01	-3.355545e+02
3.700000e-07	-2.178274e-06	-5.069705e-09	-1.515794e+01	-3.333478e+02
3.800000e-07	-2.143215e-06	-5.133257e-09	-1.491398e+01	-3.310769e+02
3.900000e-07	-2.107085e-06	-5.010148e-09	-1.466256e+01	-3.287378e+02
4.000000e-07	-2.070365e-06	-4.934594e-09	-1.440704e+01	-3.263273e+02
4.100000e-07	-2.033057e-06	-5.005259e-09	-1.414742e+01	-3.238438e+02
4.200000e-07	-1.995038e-06	-4.928910e-09	-1.388286e+01	-3.212869e+02
4.300000e-07	-1.956328e-06	-4.817965e-09	-1.361349e+01	-3.186578e+02
4.400000e-07	-1.916857e-06	-4.831494e-09	-1.333882e+01	-3.159588e+02
4.500000e-07	-1.876688e-06	-4.812552e-09	-1.305930e+01	-3.131928e+02
4.600000e-07	-1.836121e-06	-4.746275e-09	-1.277701e+01	-3.103627e+02
4.700000e-07	-1.795219e-06	-4.697217e-09	-1.249238e+01	-3.074714e+02
4.800000e-07	-1.753591e-06	-4.639948e-09	-1.220271e+01	-3.045205e+02
4.900000e-07	-1.710856e-06	-4.607034e-09	-1.190533e+01	-3.015106e+02
5.000000e-07	-1.667118e-06	-4.579788e-09	-1.160097e+01	-2.984408e+02
5.100000e-07	-1.622781e-06	-4.522304e-09	-1.129244e+01	-2.953090e+02
5.200000e-07	-1.578102e-06	-4.449110e-09	-1.098153e+01	-2.921114e+02
5.300000e-07	-1.533024e-06	-4.408644e-09	-1.066785e+01	-2.888439e+02
5.400000e-07	-1.487381e-06	-4.369924e-09	-1.035023e+01	-2.855017e+02
5.500000e-07	-1.441115e-06	-4.316656e-09	-1.002828e+01	-2.820799e+02
5.600000e-07	-1.394317e-06	-4.253100e-09	-9.702627e+00	-2.785747e+02
5.700000e-07	-1.347066e-06	-4.185950e-09	-9.373821e+00	-2.749827e+02
5.800000e-07	-1.299312e-06	-4.145825e-09	-9.041516e+00	-2.713022e+02
5.900000e-07	-1.251103e-06	-4.101172e-09	-8.706047e+00	-2.675325e+02
6.000000e-07	-1.202580e-06	-4.026607e-09	-8.368389e+00	-2.636742e+02
6.100000e-07	-1.153779e-06	-3.955226e-09	-8.028799e+00	-2.597288e+02
6.200000e-07	-1.104561e-06	-3.906583e-09	-7.686306e+00	-2.556983e+02
6.300000e-07	-1.054745e-06	-3.848543e-09	-7.339646e+00	-2.515851e+02
6.400000e-07	-1.004274e-06	-3.776776e-09	-6.988440e+00	-2.473910e+02
6.500000e-07	-9.531728e-07	-3.703369e-09	-6.632840e+00	-2.431173e+02
6.600000e-07	-9.015131e-07	-3.637712e-09	-6.273355e+00	-2.387643e+02
6.700000e-07	-8.494807e-07	-3.580096e-09	-5.911278e+00	-2.343313e+02
6.800000e-07	-7.971699e-07	-3.512084e-09	-5.547262e+00	-2.298165e+02
6.900000e-07	-7.445833e-07	-3.433726e-09	-5.181329e+00	-2.252173e+02
7.000000e-07	-6.917674e-07	-3.356349e-09	-4.813799e+00	-2.205303e+02
7.100000e-07	-6.387083e-07	-3.289093e-09	-4.444577e+00	-2.157519e+02
7.200000e-07	-5.854120e-07	-3.217451e-09	-4.073704e+00	-2.108787e+02
7.300000e-07	-5.319906e-07	-3.135565e-09	-3.701961e+00	-2.059073e+02
7.400000e-07	-4.783978e-07	-3.053491e-09	-3.329025e+00	-2.008350e+02
7.500000e-07	-4.245096e-07	-2.977662e-09	-2.954033e+00	-1.956593e+02
7.600000e-07	-3.704220e-07	-2.902801e-09	-2.577654e+00	-1.903782e+02
7.700000e-07	-3.162649e-07	-2.817599e-09	-2.200791e+00	-1.849898e+02
7.800000e-07	-2.620188e-07	-2.726736e-09	-1.823309e+00	-1.794918e+02
7.900000e-07	-2.076598e-07	-2.640766e-09	-1.445041e+00	-1.738815e+02
8.000000e-07	-1.532372e-07	-2.561027e-09	-1.066331e+00	-1.681548e+02
8.100000e-07	-9.879151e-08	-2.470971e-09	-6.874601e-01	-1.623068e+02
8.200000e-07	-4.433989e-08	-2.374074e-09	-3.085478e-01	-1.563308e+02
8.300000e-07	1.014310e-08	-2.279436e-09	7.058274e-02	-1.502190e+02
8.400000e-07	6.464441e-08	-2.185866e-09	4.498407e-01	-1.439621e+02
8.500000e-07	1.191255e-07	-2.088037e-09	8.289579e-01	-1.375502e+02
8.600000e-07	1.735447e-07	-1.982697e-09	1.207644e+00	-1.309730e+02
8.700000e-07	2.278670e-07	-1.876876e-09	1.585657e+00	-1.242200e+02
8.800000e-07	2.821593e-07	-1.773246e-09	1.963460e+00	-1.172813e+02
8.900000e-07	3.363932e-07	-1.667941e-09	2.340858e+00	-1.101478e+02
9.000000e-07	3.904551e-07	-1.551114e-09	2.717058e+00	-1.028109e+02
9.100000e-07	4.443791e-07	-1.429735e-09	3.092299e+00	-9.526270e+01
9.200000e-07	4.981253e-07	-1.312193e-09	3.466302e+00	-8.749553e+01
9.300000e-07	5.516513e-07	-1.194620e-09	3.838774e+00	-7.950107e+01
9.400000e-07	6.049580e-07	-1.069173e-09	4.209719e+00	-7.126973e+01
9.500000e-07	6.580206e-07	-9.359863e-10	4.578965e+00	-6.278982e+01
9.600000e-07	7.108625e-07	-8.009357e-10	4.946676e+00	-5.404686e+01
9.700000e-07	7.634800e-07	-6.641503e-10	5.312825e+00	-4.502314e+01
9.800000e-07	8.158196e-07	-5.205245e-10	5.677041e+00	-3.569771e+01
9.900000e-07	8.678405e-07	-3.663308e-10	6.039038e+00	-2.604685e+01
1.000000e-06	9.195103e-07	-2.086787e-10	6.398592e+00	-1.604517e+01
1.010000e-06	9.706544e-07	-5.040586e-11	6.754488e+00	-5.667213e+00
1.020000e-06	1.021092e-06	1.103110e-10	7.105467e+00	5.110337e+00
1.030000e-06	1.070902e-06	2.784662e-10	7.452082e+00	1.630610e+01
1.040000e-06	1.120207e-06	4.552894e-10	7.795179e+00	2.793123e+01
1.050000e-06	1.169085e-06	6.397117e-10	8.135306e+00	3.998663e+01
1.060000e-06	1.217691e-06	8.327428e-10	8.473539e+00	5.246048e+01
1.070000e-06	1.266016e-06	1.033180e-09	8.809823e+00	6.532630e+01
1.080000e-06	1.313916e-06	1.239050e-09	9.143139e+00	7.854175e+01
1.090000e-06	1.361354e-06	1.444999e-09	9.473251e+00	9.204838e+01
1.100000e-06	1.408304e-06	1.650467e-09	9.799956e+00	1.057724e+02
1.110000e-06	1.454732e-06	1.855851e-09	1.012304e+01	1.196268e+02
1.120000e-06	1.500634e-06	2.064912e-09	1.044246e+01	1.335137e+02
1.130000e-06	1.546015e-06	2.275082e-09	1.075825e+01	1.473286e+02
1.140000e-06	1.590960e-06	2.482954e-09	1.107101e+01	1.609645e+02
1.150000e-06	1.635554e-06	2.687535e-09	1.138132e+01	1.743161e+02
1.160000e-06	1.679785e-06	2.885972e-09	1.168911e+01	1.872851e+02
1.170000e-06	1.723409e-06	3.076477e-09	1.199268e+01	1.997836e+02
1.180000e-06	1.766072e-06	3.255095e-09	1.228956e+01	2.117381e+02
1.190000e-06	1.807706e-06	3.422806e-09	1.257928e+01	2.230919e+02
1.200000e-06	1.848615e-06	3.581844e-09	1.286395e+01	2.338063e+02
1.210000e-06	1.889052e-06	3.735393e-09	1.314534e+01	2.438616e+02
1.220000e-06	1.928997e-06	3.881069e-09	1.342330e+01	2.532554e+02
1.230000e-06	1.968290e-06	4.014339e-09	1.369673e+01	2.620017e+02
1.240000e-06	2.006901e-06	4.134930e-09	1.396541e+01	2.701273e+02
1.250000e-06	2.044790e-06	4.247336e-09	1.422907e+01	2.776694e+02
1.260000e-06	2.081967e-06	4.354149e-09	1.448778e+01	2.846716e+02
1.270000e-06	2.118627e-06	4.453972e-09	1.474288e+01	2.911806e+02
1.280000e-06	2.154742e-06	4.543433e-09	1.499420e+01	2.972434e+02
1.290000e-06	2.189982e-06	4.624436e-09	1.523942e+01	3.029042e+02
1.300000e-06	2.224082e-06	4.703737e-09	1.547671e+01	3.082027e+02
1.310000e-06	2.257221e-06	4.780836e-09	1.570731e+01	3.131731e+02
1.320000e-06	2.289708e-06	4.850733e-09	1.593338e+01	3.178433e+02
1.330000e-06	2.321492e-06	4.912943e-09	1.615456e+01	3.222355e+02
1.340000e-06	2.352495e-06	4.974331e-09	1.637030e+01	3.263668e+02
1.350000e-06	2.382732e-06	5.035012e-09	1.658071e+01	3.302503e+02
1.360000e-06	2.412107e-06	5.088338e-09	1.678512e+01	3.338968e+02
1.370000e-06	2.440807e-06	5.133878e-09	1.698484e+01	3.373155e+02
1.380000e-06	2.468887e-06	5.179160e-09	1.718023e+01	3.405155e+02
1.390000e-06	2.495877e-06	5.226182e-09	1.736805e+01	3.435065e+02
1.400000e-06	2.521582e-06	5.268062e-09	1.754692e+01	3.462993e+02
1.410000e-06	2.546282e-06	5.301969e-09	1.771880e+01	3.489059e+02
1.420000e-06	2.570125e-06	5.332055e-09	1.788472e+01	3.513389e+02
1.430000e-06	2.593107e-06	5.365668e-09	1.804464e+01	3.536115e+02
1.440000e-06	2.615242e-06	5.401902e-09	1.819867e+01	3.557364e+02
1.450000e-06	2.636519e-06	5.432733e-09	1.834673e+01	3.577255e+02
1.460000e-06	2.657045e-06	5.457830e-09	1.848957e+01	3.595889e+02
1.470000e-06	2.676783e-06	5.483726e-09	1.862692e+01	3.613347e+02
1.480000e-06	2.695499e-06	5.511461e-09	1.875715e+01	3.629690e+02
1.490000e-06	2.713275e-06	5.533973e-09	1.888086e+01	3.644955e+02
1.500000e-06	2.730211e-06	5.550676e-09	1.899871e+01	3.659165e+02
1.510000e-06	2.746054e-06	5.567532e-09	1.910896e+01	3.672329e+02
1.520000e-06	2.760746e-06	5.587226e-09	1.921119e+01	3.684447e+02
1.530000e-06	2.774413e-06	5.605858e-09	1.930629e+01	3.695524e+02
1.540000e-06	2.787097e-06	5.619877e-09	1.939456e+01	3.705568e+02
1.550000e-06	2.798593e-06	5.633279e-09	1.947456e+01	3.714596e+02
1.560000e-06	2.808707e-06	5.648229e-09	1.954494e+01	3.722639e+02
1.570000e-06	2.817739e-06	5.662044e-09	1.960779e+01	3.729739e+02
1.580000e-06	2.825941e-06	5.671292e-09	1.966486e+01	3.735946e+02
1.590000e-06	2.833221e-06	5.676881e-09	1.971552e+01	3.741315e+02
1.600000e-06	2.839526e-06	5.683486e-09	1.975940e+01	3.745902e+02
1.610000e-06	2.844878e-06	5.690535e-09	1.979664e+01	3.749756e+02
1.620000e-06	2.849430e-06	5.695002e-09	1.982832e+01	3.752915e+02
1.630000e-06	2.853047e-06	5.699064e-09	1.985348e+01	3.755403e+02
1.640000e-06	2.855320e-06	5.704385e-09	1.986930e+01	3.757229e+02
1.650000e-06	2.856414e-06	5.709661e-09	1.987691e+01	3.758387e+02
1.660000e-06	2.856642e-06	5.713138e-09	1.987850e+01	3.758861e+02
1.670000e-06	2.855989e-06	5.712565e-09	1.987396e+01	3.758626e+02
1.680000e-06	2.854438e-06	5.707026e-09	1.986317e+01	3.757658e+02
1.690000e-06	2.852028e-06	5.703683e-09	1.984640e+01	3.755939e+02
1.700000e-06	2.848861e-06	5.700876e-09	1.982436e+01	3.753462e+02
1.710000e-06	2.844886e-06	5.695280e-09	1.979670e+01	3.750236e+02
1.720000e-06	2.839719e-06	5.698420e-09	1.976074e+01	3.746290e+02
1.730000e-06	2.833335e-06	5.735050e-09	1.971632e+01	3.741670e+02
1.740000e-06	2.826153e-06	5.710741e-09	1.966634e+01	3.736437e+02
1.750000e-06	2.818066e-06	5.549752e-09	1.961007e+01	3.730663e+02
1.760000e-06	2.808451e-06	5.504027e-09	1.954316e+01	3.724424e+02
1.770000e-06	2.797209e-06	5.764096e-09	1.946492e+01	3.717791e+02
1.780000e-06	2.785358e-06	5.833299e-09	1.938246e+01	3.710819e+02
1.790000e-06	2.773541e-06	5.520247e-09	1.930023e+01	3.703549e+02
1.800000e-06	2.760594e-06	5.436328e-09	1.921014e+01	3.695992e+02
1.810000e-06	2.745857e-06	5.780367e-09	1.910758e+01	3.688134e+02
1.820000e-06	2.730345e-06	5.645091e-09	1.899964e+01	3.679934e+02
1.830000e-06	2.714318e-06	5.309420e-09	1.888811e+01	3.671327e+02
1.840000e-06	2.696901e-06	5.655679e-09	1.876691e+01	3.662230e+02
1.850000e-06	2.678233e-06	5.777899e-09	1.863701e+01	3.652551e+02
1.860000e-06	2.659084e-06	5.343473e-09	1.850375e+01	3.642197e+02
1.870000e-06	2.639026e-06	5.497657e-09	1.836418e+01	3.631084e+02
1.880000e-06	2.617629e-06	5.772880e-09	1.821529e+01	3.619142e+02
1.890000e-06	2.595308e-06	5.330527e-09	1.805996e+01	3.606327e+02
1.900000e-06	2.571993e-06	5.294580e-09	1.789772e+01	3.592618e+02
1.910000e-06	2.547642e-06	5.630867e-09	1.772826e+01	3.578024e+02
1.920000e-06	2.522705e-06	5.435347e-09	1.755474e+01	3.562577e+02
1.930000e-06	2.496918e-06	5.316347e-09	1.737529e+01	3.546327e+02
1.940000e-06	2.470160e-06	5.448657e-09	1.718909e+01	3.529339e+02
1.950000e-06	2.442872e-06	5.315419e-09	1.699921e+01	3.511683e+02
1.960000e-06	2.414624e-06	5.333394e-09	1.680263e+01	3.493425e+02
1.970000e-06	2.385051e-06	5.321303e-09	1.659684e+01	3.474618e+02
1.980000e-06	2.354519e-06	5.151979e-09	1.638438e+01	3.455303e+02
1.990000e-06	2.323231e-06	5.298375e-09	1.616666e+01	3.435499e+02
2.000000e-06	2.291296e-06	5.272228e-09	1.594443e+01	3.415204e+02
2.010000e-06	2.258657e-06	5.074156e-09	1.571730e+01	3.394400e+02
2.020000e-06	2.225131e-06	5.195645e-09	1.548401e+01	3.373052e+02
2.030000e-06	2.190900e-06	5.110100e-09	1.524581e+01	3.351118e+02
2.040000e-06	2.156062e-06	4.959336e-09	1.500338e+01	3.328550e+02
2.050000e-06	2.120551e-06	5.115533e-09	1.475627e+01	3.305309e+02
2.060000e-06	2.084375e-06	5.016535e-09	1.450453e+01	3.281359e+02
2.070000e-06	2.047195e-06	4.883680e-09	1.424581e+01	3.256681e+02
2.080000e-06	2.008854e-06	4.968204e-09	1.397900e+01	3.231270e+02
2.090000e-06	1.969784e-06	4.896527e-09	1.370713e+01	3.205133e+02
2.100000e-06	1.930241e-06	4.822265e-09	1.343196e+01	3.178291e+02
2.110000e-06	1.890056e-06	4.800342e-09	1.315232e+01	3.150772e+02
2.120000e-06	1.849181e-06	4.733572e-09	1.286789e+01	3.122606e+02
2.130000e-06	1.807753e-06	4.729531e-09	1.257960e+01	3.093823e+02
2.140000e-06	1.765812e-06	4.678430e-09	1.228775e+01	3.064441e+02
2.150000e-06	1.723254e-06	4.604668e-09	1.199160e+01	3.034469e+02
2.160000e-06	1.680173e-06	4.580147e-09	1.169181e+01	3.003902e+02
2.170000e-06	1.636735e-06	4.532832e-09	1.138954e+01	2.972719e+02
2.180000e-06	1.592777e-06	4.493405e-09	1.108365e+01	2.940889e+02
2.190000e-06	1.548067e-06	4.434286e-09	1.077252e+01	2.908368e+02
2.200000e-06	1.502658e-06	4.369365e-09	1.045654e+01	2.875110e+02
2.210000e-06	1.456799e-06	4.329766e-09	1.013742e+01	2.841067e+02
2.220000e-06	1.410638e-06	4.274890e-09	9.816200e+00	2.806197e+02
2.230000e-06	1.364047e-06	4.234264e-09	9.491988e+00	2.770466e+02
2.240000e-06	1.316885e-06	4.164975e-09	9.163801e+00	2.733852e+02
2.250000e-06	1.269029e-06	4.101986e-09	8.830790e+00	2.696346e+02
2.260000e-06	1.220589e-06	4.077667e-09	8.493705e+00	2.657952e+02
2.270000e-06	1.171778e-06	4.003026e-09	8.154048e+00	2.618683e+02
2.280000e-06	1.122555e-06	3.924428e-09	7.811518e+00	2.578559e+02
2.290000e-06	1.072954e-06	3.868351e-09	7.466362e+00	2.537603e+02
2.300000e-06	1.022950e-06	3.807877e-09	7.118394e+00	2.495834e+02
2.310000e-06	9.724122e-07	3.754667e-09	6.766720e+00	2.453268e+02
2.320000e-06	9.215098e-07	3.682094e-09	6.412506e+00	2.409909e+02
2.330000e-06	8.704319e-07	3.606578e-09	6.057071e+00	2.365752e+02
2.340000e-06	8.191715e-07	3.546420e-09	5.700365e+00	2.320782e+02
2.350000e-06	7.675763e-07	3.477861e-09	5.341330e+00	2.274973e+02
2.360000e-06	7.155040e-07	3.408203e-09	4.978974e+00	2.228295e+02
2.370000e-06	6.630305e-07	3.329138e-09	4.613827e+00	2.180710e+02
2.380000e-06	6.101234e-07	3.255279e-09	4.245663e+00	2.132185e+02
2.390000e-06	5.568163e-07	3.190071e-09	3.874715e+00	2.082684e+02
2.400000e-06	5.032162e-07	3.111779e-09	3.501729e+00	2.032180e+02
2.410000e-06	4.492823e-07	3.033242e-09	3.126419e+00	1.980646e+02
2.420000e-06	3.950782e-07	2.952108e-09	2.749229e+00	1.928063e+02
2.430000e-06	3.406718e-07	2.873901e-09	2.370631e+00	1.874412e+02
2.440000e-06	2.860761e-07	2.794764e-09	1.990717e+00	1.819669e+02
2.450000e-06	2.313771e-07	2.701561e-09	1.610082e+00	1.763810e+02
2.460000e-06	1.766234e-07	2.610631e-09	1.229069e+00	1.706797e+02
2.470000e-06	1.218381e-07	2.526070e-09	8.478340e-01	1.648582e+02
2.480000e-06	6.699768e-08	2.442573e-09	4.662164e-01	1.589103e+02
2.490000e-06	1.212898e-08	2.354899e-09	8.440188e-02	1.528284e+02
2.500000e-06	-4.269725e-08	2.257593e-09	-2.971172e-01	1.466034e+02
2.510000e-06	-9.753771e-08	2.160417e-09	-6.787352e-01	1.402257e+02
2.520000e-06	-1.523435e-07	2.064143e-09	-1.060112e+00	1.336848e+02
2.530000e-06	-2.070756e-07	1.958238e-09	-1.440976e+00	1.269704e+02
2.540000e-06	-2.617660e-07	1.847230e-09	-1.821550e+00	1.200723e+02
2.550000e-06	-3.163362e-07	1.739132e-09	-2.201287e+00	1.129813e+02
2.560000e-06	-3.707473e-07	1.637860e-09	-2.579918e+00	1.056887e+02
2.570000e-06	-4.249985e-07	1.532063e-09	-2.957435e+00	9.818651e+01
2.580000e-06	-4.790208e-07	1.413650e-09	-3.333360e+00	9.046699e+01
2.590000e-06	-5.326965e-07	1.292306e-09	-3.706873e+00	8.252202e+01
2.600000e-06	-5.859832e-07	1.168765e-09	-4.077679e+00	7.434239e+01
2.610000e-06	-6.388969e-07	1.040372e-09	-4.445889e+00	6.591690e+01
2.620000e-06	-6.914250e-07	9.039860e-10	-4.811416e+00	5.723173e+01
2.630000e-06	-7.435715e-07	7.635844e-10	-5.174288e+00	4.826988e+01
2.640000e-06	-7.953369e-07	6.247149e-10	-5.534507e+00	3.901105e+01
2.650000e-06	-8.467480e-07	4.853959e-10	-5.892261e+00	2.943208e+01
2.660000e-06	-8.978909e-07	3.372756e-10	-6.248150e+00	1.950778e+01
2.670000e-06	-9.487729e-07	1.781549e-10	-6.602222e+00	9.212574e+00
2.680000e-06	-9.993046e-07	1.544755e-11	-6.953857e+00	-1.477536e+00
2.690000e-06	-1.049501e-06	-1.496721e-10	-7.303159e+00	-1.258241e+01
2.700000e-06	-1.099312e-06	-3.233388e-10	-7.649776e+00	-2.411502e+01
2.710000e-06	-1.148671e-06	-5.090230e-10	-7.993251e+00	-3.607870e+01
2.720000e-06	-1.197639e-06	-6.993541e-10	-8.334008e+00	-4.846455e+01
2.730000e-06	-1.246094e-06	-8.908434e-10	-8.671192e+00	-6.124934e+01
2.740000e-06	-1.293799e-06	-1.086900e-09	-9.003152e+00	-7.439420e+01
2.750000e-06	-1.340729e-06	-1.293349e-09	-9.329728e+00	-8.784410e+01
2.760000e-06	-1.386988e-06	-1.506744e-09	-9.651629e+00	-1.015284e+02
2.770000e-06	-1.432759e-06	-1.717313e-09	-9.970133e+00	-1.153627e+02
2.780000e-06	-1.478248e-06	-1.927863e-09	-1.028668e+01	-1.292513e+02
2.790000e-06	-1.523453e-06	-2.143719e-09	-1.060125e+01	-1.430906e+02
2.800000e-06	-1.568221e-06	-2.359564e-09	-1.091277e+01	-1.567737e+02
2.810000e-06	-1.612389e-06	-2.566173e-09	-1.122013e+01	-1.701948e+02
2.820000e-06	-1.655974e-06	-2.762620e-09	-1.152342e+01	-1.832536e+02
2.830000e-06	-1.699122e-06	-2.952389e-09	-1.182367e+01	-1.958596e+02
2.840000e-06	-1.741856e-06	-3.137389e-09	-1.212104e+01	-2.079360e+02
2.850000e-06	-1.784047e-06	-3.314437e-09	-1.241464e+01	-2.194223e+02
2.860000e-06	-1.825613e-06	-3.478811e-09	-1.270389e+01	-2.302760e+02
2.870000e-06	-1.866587e-06	-3.633595e-09	-1.298901e+01	-2.404733e+02
2.880000e-06	-1.906954e-06	-3.783035e-09	-1.326991e+01	-2.500082e+02
2.890000e-06	-1.946684e-06	-3.925409e-09	-1.354638e+01	-2.588913e+02
2.900000e-06	-1.985867e-06	-4.056991e-09	-1.381904e+01	-2.671470e+02
2.910000e-06	-2.024455e-06	-4.176387e-09	-1.408757e+01	-2.748106e+02
2.920000e-06	-2.062185e-06	-4.284231e-09	-1.435012e+01	-2.819245e+02
2.930000e-06	-2.098815e-06	-4.383402e-09	-1.460501e+01	-2.885352e+02
2.940000e-06	-2.134490e-06	-4.477112e-09	-1.485326e+01	-2.946898e+02
