# Temperatura_=_29.39
# Concentracion g/m^3_=_15500.0
# C_Vs_to_Am_M_A/Vsm_=_65563218390.804596
# pendiente_HvsI_1/m_=_3716.3
# ordenada_HvsI_A/m_=_1297.0
# frecuencia_Hz_=_300844.649593193

Tiempo_(s)	Campo_(V.s)	Magnetizacion_(V.s)	Campo_(kA/m)	Magnetizacion_(A/m)
0.000000e+00	-2.859479e-06	-5.763774e-09	-1.979933e+01	-3.757664e+02
1.000000e-08	-2.858554e-06	-5.763907e-09	-1.979292e+01	-3.756691e+02
2.000000e-08	-2.856752e-06	-5.760862e-09	-1.978044e+01	-3.754948e+02
3.000000e-08	-2.853737e-06	-5.754523e-09	-1.975957e+01	-3.752432e+02
4.000000e-08	-2.849664e-06	-5.751331e-09	-1.973137e+01	-3.749169e+02
5.000000e-08	-2.844783e-06	-5.750531e-09	-1.969757e+01	-3.745204e+02
6.000000e-08	-2.839033e-06	-5.751764e-09	-1.965775e+01	-3.740606e+02
7.000000e-08	-2.832299e-06	-5.728652e-09	-1.961113e+01	-3.735460e+02
8.000000e-08	-2.824489e-06	-5.704027e-09	-1.955705e+01	-3.729859e+02
9.000000e-08	-2.815515e-06	-5.728008e-09	-1.949491e+01	-3.723894e+02
1.000000e-07	-2.805171e-06	-5.808333e-09	-1.942330e+01	-3.717646e+02
1.100000e-07	-2.793596e-06	-5.704778e-09	-1.934315e+01	-3.711173e+02
1.200000e-07	-2.781202e-06	-5.571002e-09	-1.925733e+01	-3.704505e+02
1.300000e-07	-2.767968e-06	-5.648324e-09	-1.916570e+01	-3.697640e+02
1.400000e-07	-2.753708e-06	-5.808341e-09	-1.906696e+01	-3.690541e+02
1.500000e-07	-2.738489e-06	-5.601344e-09	-1.896158e+01	-3.683142e+02
1.600000e-07	-2.722105e-06	-5.516172e-09	-1.884814e+01	-3.675353e+02
1.700000e-07	-2.704350e-06	-5.767707e-09	-1.872520e+01	-3.667068e+02
1.800000e-07	-2.685681e-06	-5.617082e-09	-1.859593e+01	-3.658178e+02
1.900000e-07	-2.666361e-06	-5.456950e-09	-1.846216e+01	-3.648579e+02
2.000000e-07	-2.646185e-06	-5.635442e-09	-1.832246e+01	-3.638187e+02
2.100000e-07	-2.625096e-06	-5.600559e-09	-1.817644e+01	-3.626941e+02
2.200000e-07	-2.603251e-06	-5.382478e-09	-1.802518e+01	-3.614811e+02
2.300000e-07	-2.580558e-06	-5.536914e-09	-1.786805e+01	-3.601801e+02
2.400000e-07	-2.556840e-06	-5.585282e-09	-1.770382e+01	-3.587943e+02
2.500000e-07	-2.532306e-06	-5.395259e-09	-1.753395e+01	-3.573293e+02
2.600000e-07	-2.506969e-06	-5.403865e-09	-1.735851e+01	-3.557927e+02
2.700000e-07	-2.480554e-06	-5.482424e-09	-1.717561e+01	-3.541924e+02
2.800000e-07	-2.453013e-06	-5.359732e-09	-1.698492e+01	-3.525364e+02
2.900000e-07	-2.424480e-06	-5.338647e-09	-1.678735e+01	-3.508313e+02
3.000000e-07	-2.395091e-06	-5.345445e-09	-1.658386e+01	-3.490818e+02
3.100000e-07	-2.365009e-06	-5.297904e-09	-1.637556e+01	-3.472905e+02
3.200000e-07	-2.334250e-06	-5.321071e-09	-1.616259e+01	-3.454572e+02
3.300000e-07	-2.302709e-06	-5.242466e-09	-1.594419e+01	-3.435796e+02
3.400000e-07	-2.270448e-06	-5.205388e-09	-1.572082e+01	-3.416536e+02
3.500000e-07	-2.237553e-06	-5.195448e-09	-1.549305e+01	-3.396738e+02
3.600000e-07	-2.203844e-06	-5.146994e-09	-1.525964e+01	-3.376344e+02
3.700000e-07	-2.169076e-06	-5.128087e-09	-1.501891e+01	-3.355301e+02
3.800000e-07	-2.133286e-06	-5.118790e-09	-1.477110e+01	-3.333565e+02
3.900000e-07	-2.096751e-06	-5.029094e-09	-1.451812e+01	-3.311107e+02
4.000000e-07	-2.059628e-06	-5.016635e-09	-1.426108e+01	-3.287916e+02
4.100000e-07	-2.021803e-06	-5.018631e-09	-1.399917e+01	-3.264000e+02
4.200000e-07	-1.983187e-06	-4.933729e-09	-1.373179e+01	-3.239381e+02
4.300000e-07	-1.943829e-06	-4.893729e-09	-1.345927e+01	-3.214090e+02
4.400000e-07	-1.903822e-06	-4.872035e-09	-1.318226e+01	-3.188163e+02
4.500000e-07	-1.863330e-06	-4.841655e-09	-1.290189e+01	-3.161633e+02
4.600000e-07	-1.822447e-06	-4.790525e-09	-1.261881e+01	-3.134527e+02
4.700000e-07	-1.780909e-06	-4.748490e-09	-1.233119e+01	-3.106856e+02
4.800000e-07	-1.738355e-06	-4.694295e-09	-1.203655e+01	-3.078616e+02
4.900000e-07	-1.694810e-06	-4.655120e-09	-1.173504e+01	-3.049788e+02
5.000000e-07	-1.650595e-06	-4.617034e-09	-1.142889e+01	-3.020335e+02
5.100000e-07	-1.605942e-06	-4.568201e-09	-1.111971e+01	-2.990214e+02
5.200000e-07	-1.560888e-06	-4.512713e-09	-1.080775e+01	-2.959373e+02
5.300000e-07	-1.515322e-06	-4.464723e-09	-1.049225e+01	-2.927760e+02
5.400000e-07	-1.469142e-06	-4.434338e-09	-1.017249e+01	-2.895331e+02
5.500000e-07	-1.422415e-06	-4.372952e-09	-9.848951e+00	-2.862051e+02
5.600000e-07	-1.375211e-06	-4.311161e-09	-9.522105e+00	-2.827897e+02
5.700000e-07	-1.327505e-06	-4.251162e-09	-9.191785e+00	-2.792862e+02
5.800000e-07	-1.279372e-06	-4.208453e-09	-8.858506e+00	-2.756952e+02
5.900000e-07	-1.230909e-06	-4.156175e-09	-8.522940e+00	-2.720183e+02
6.000000e-07	-1.182041e-06	-4.093077e-09	-8.184577e+00	-2.682574e+02
6.100000e-07	-1.132605e-06	-4.032016e-09	-7.842274e+00	-2.644148e+02
6.200000e-07	-1.082502e-06	-3.971417e-09	-7.495356e+00	-2.604922e+02
6.300000e-07	-1.031792e-06	-3.916157e-09	-7.144236e+00	-2.564904e+02
6.400000e-07	-9.805423e-07	-3.847722e-09	-6.789376e+00	-2.524090e+02
6.500000e-07	-9.287836e-07	-3.780243e-09	-6.430994e+00	-2.482463e+02
6.600000e-07	-8.766465e-07	-3.712136e-09	-6.069991e+00	-2.439997e+02
6.700000e-07	-8.242775e-07	-3.651797e-09	-5.707382e+00	-2.396653e+02
6.800000e-07	-7.717042e-07	-3.584824e-09	-5.343360e+00	-2.352389e+02
6.900000e-07	-7.188413e-07	-3.512194e-09	-4.977331e+00	-2.307163e+02
7.000000e-07	-6.656526e-07	-3.437529e-09	-4.609048e+00	-2.260934e+02
7.100000e-07	-6.122222e-07	-3.368747e-09	-4.239090e+00	-2.213672e+02
7.200000e-07	-5.585761e-07	-3.299867e-09	-3.867638e+00	-2.165354e+02
7.300000e-07	-5.047076e-07	-3.216883e-09	-3.494647e+00	-2.115964e+02
7.400000e-07	-4.506570e-07	-3.136018e-09	-3.120395e+00	-2.065498e+02
7.500000e-07	-3.964623e-07	-3.056639e-09	-2.745146e+00	-2.013949e+02
7.600000e-07	-3.421511e-07	-2.981196e-09	-2.369089e+00	-1.961311e+02
7.700000e-07	-2.877321e-07	-2.896527e-09	-1.992287e+00	-1.907568e+02
7.800000e-07	-2.332082e-07	-2.808352e-09	-1.614758e+00	-1.852692e+02
7.900000e-07	-1.786065e-07	-2.721560e-09	-1.236690e+00	-1.796634e+02
8.000000e-07	-1.239918e-07	-2.635939e-09	-8.585322e-01	-1.739326e+02
8.100000e-07	-6.937084e-08	-2.546573e-09	-4.803309e-01	-1.680680e+02
8.200000e-07	-1.471959e-08	-2.449011e-09	-1.019200e-01	-1.620588e+02
8.300000e-07	3.994143e-08	-2.351370e-09	2.765586e-01	-1.558933e+02
8.400000e-07	9.459600e-08	-2.250748e-09	6.549925e-01	-1.495590e+02
8.500000e-07	1.491982e-07	-2.151810e-09	1.033064e+00	-1.430435e+02
8.600000e-07	2.037153e-07	-2.047701e-09	1.410546e+00	-1.363353e+02
8.700000e-07	2.581637e-07	-1.940694e-09	1.787552e+00	-1.294240e+02
8.800000e-07	3.125845e-07	-1.830729e-09	2.164368e+00	-1.223008e+02
8.900000e-07	3.669434e-07	-1.718836e-09	2.540754e+00	-1.149578e+02
9.000000e-07	4.211451e-07	-1.601148e-09	2.916052e+00	-1.073880e+02
9.100000e-07	4.751852e-07	-1.477331e-09	3.290232e+00	-9.958383e+01
9.200000e-07	5.290815e-07	-1.355739e-09	3.663415e+00	-9.153626e+01
9.300000e-07	5.827960e-07	-1.230313e-09	4.035340e+00	-8.323337e+01
9.400000e-07	6.362871e-07	-1.100201e-09	4.405717e+00	-7.465912e+01
9.500000e-07	6.895215e-07	-9.622128e-10	4.774318e+00	-6.579240e+01
9.600000e-07	7.424296e-07	-8.208538e-10	5.140659e+00	-5.660657e+01
9.700000e-07	7.950681e-07	-6.727258e-10	5.505134e+00	-4.706978e+01
9.800000e-07	8.474763e-07	-5.177127e-10	5.868013e+00	-3.714591e+01
9.900000e-07	8.995819e-07	-3.551858e-10	6.228798e+00	-2.679655e+01
1.000000e-06	9.514027e-07	-1.853063e-10	6.587611e+00	-1.598368e+01
1.010000e-06	1.002779e-06	-1.267518e-11	6.943345e+00	-4.672993e+00
1.020000e-06	1.053485e-06	1.635189e-10	7.294436e+00	7.162240e+00
1.030000e-06	1.103468e-06	3.450776e-10	7.640525e+00	1.953731e+01
1.040000e-06	1.152810e-06	5.412235e-10	7.982177e+00	3.245232e+01
1.050000e-06	1.201723e-06	7.504167e-10	8.320855e+00	4.588910e+01
1.060000e-06	1.250343e-06	9.678813e-10	8.657505e+00	5.980901e+01
1.070000e-06	1.298682e-06	1.186973e-09	8.992212e+00	7.415190e+01
1.080000e-06	1.346602e-06	1.410872e-09	9.324014e+00	8.883657e+01
1.090000e-06	1.393977e-06	1.640422e-09	9.652039e+00	1.037626e+02
1.100000e-06	1.440825e-06	1.869891e-09	9.976421e+00	1.188135e+02
1.110000e-06	1.487190e-06	2.095972e-09	1.029746e+01	1.338616e+02
1.120000e-06	1.533004e-06	2.317096e-09	1.061468e+01	1.487731e+02
1.130000e-06	1.578249e-06	2.537076e-09	1.092796e+01	1.634143e+02
1.140000e-06	1.623056e-06	2.755659e-09	1.123821e+01	1.776576e+02
1.150000e-06	1.667525e-06	2.968051e-09	1.154611e+01	1.913875e+02
1.160000e-06	1.711596e-06	3.164513e-09	1.185127e+01	2.045053e+02
1.170000e-06	1.754983e-06	3.349674e-09	1.215168e+01	2.169332e+02
1.180000e-06	1.797505e-06	3.526347e-09	1.244611e+01	2.286169e+02
1.190000e-06	1.839094e-06	3.690755e-09	1.273407e+01	2.395260e+02
1.200000e-06	1.879908e-06	3.842011e-09	1.301668e+01	2.496539e+02
1.210000e-06	1.920240e-06	3.983247e-09	1.329594e+01	2.590153e+02
1.220000e-06	1.960036e-06	4.116059e-09	1.357149e+01	2.676435e+02
1.230000e-06	1.999138e-06	4.236325e-09	1.384224e+01	2.755855e+02
1.240000e-06	2.037573e-06	4.344048e-09	1.410837e+01	2.828980e+02
1.250000e-06	2.075319e-06	4.441595e-09	1.436973e+01	2.896426e+02
1.260000e-06	2.112381e-06	4.535581e-09	1.462634e+01	2.958813e+02
1.270000e-06	2.148842e-06	4.623984e-09	1.487880e+01	3.016729e+02
1.280000e-06	2.184628e-06	4.705627e-09	1.512659e+01	3.070702e+02
1.290000e-06	2.219553e-06	4.781695e-09	1.536842e+01	3.121182e+02
1.300000e-06	2.253422e-06	4.851879e-09	1.560292e+01	3.168534e+02
1.310000e-06	2.286335e-06	4.917952e-09	1.583082e+01	3.213037e+02
1.320000e-06	2.318560e-06	4.979171e-09	1.605395e+01	3.254898e+02
1.330000e-06	2.350049e-06	5.036197e-09	1.627198e+01	3.294264e+02
1.340000e-06	2.380738e-06	5.089003e-09	1.648447e+01	3.331243e+02
1.350000e-06	2.410625e-06	5.137655e-09	1.669142e+01	3.365921e+02
1.360000e-06	2.439669e-06	5.182208e-09	1.689252e+01	3.398382e+02
1.370000e-06	2.468037e-06	5.225953e-09	1.708895e+01	3.428716e+02
1.380000e-06	2.495653e-06	5.268948e-09	1.728016e+01	3.457029e+02
1.390000e-06	2.522169e-06	5.309523e-09	1.746376e+01	3.483449e+02
1.400000e-06	2.547494e-06	5.346004e-09	1.763911e+01	3.508118e+02
1.410000e-06	2.571869e-06	5.376886e-09	1.780788e+01	3.531188e+02
1.420000e-06	2.595370e-06	5.406063e-09	1.797061e+01	3.552810e+02
1.430000e-06	2.618015e-06	5.435034e-09	1.812740e+01	3.573129e+02
1.440000e-06	2.639844e-06	5.462160e-09	1.827855e+01	3.592267e+02
1.450000e-06	2.660813e-06	5.485290e-09	1.842374e+01	3.610323e+02
1.460000e-06	2.681033e-06	5.507972e-09	1.856375e+01	3.627364e+02
1.470000e-06	2.700398e-06	5.533901e-09	1.869784e+01	3.643427e+02
1.480000e-06	2.718686e-06	5.560152e-09	1.882446e+01	3.658523e+02
1.490000e-06	2.735992e-06	5.581538e-09	1.894429e+01	3.672642e+02
1.500000e-06	2.752365e-06	5.599286e-09	1.905766e+01	3.685763e+02
1.510000e-06	2.767611e-06	5.616817e-09	1.916323e+01	3.697860e+02
1.520000e-06	2.781796e-06	5.632342e-09	1.926144e+01	3.708917e+02
1.530000e-06	2.795003e-06	5.644339e-09	1.935289e+01	3.718929e+02
1.540000e-06	2.807197e-06	5.655740e-09	1.943732e+01	3.727910e+02
1.550000e-06	2.818205e-06	5.669970e-09	1.951354e+01	3.735891e+02
1.560000e-06	2.827870e-06	5.683838e-09	1.958046e+01	3.742924e+02
1.570000e-06	2.836472e-06	5.694875e-09	1.964003e+01	3.749070e+02
1.580000e-06	2.844175e-06	5.703075e-09	1.969336e+01	3.754397e+02
1.590000e-06	2.850948e-06	5.710813e-09	1.974026e+01	3.758970e+02
1.600000e-06	2.856751e-06	5.717151e-09	1.978044e+01	3.762847e+02
1.610000e-06	2.861650e-06	5.720760e-09	1.981436e+01	3.766068e+02
1.620000e-06	2.865700e-06	5.722854e-09	1.984240e+01	3.768655e+02
1.630000e-06	2.868637e-06	5.726234e-09	1.986274e+01	3.770607e+02
1.640000e-06	2.870300e-06	5.730895e-09	1.987425e+01	3.771910e+02
1.650000e-06	2.870913e-06	5.731622e-09	1.987850e+01	3.772533e+02
1.660000e-06	2.870666e-06	5.730412e-09	1.987679e+01	3.772442e+02
1.670000e-06	2.869515e-06	5.730341e-09	1.986882e+01	3.771603e+02
1.680000e-06	2.867476e-06	5.729258e-09	1.985470e+01	3.769996e+02
1.690000e-06	2.864637e-06	5.725509e-09	1.983504e+01	3.767616e+02
1.700000e-06	2.861037e-06	5.717784e-09	1.981011e+01	3.764482e+02
1.710000e-06	2.856455e-06	5.707937e-09	1.977839e+01	3.760636e+02
1.720000e-06	2.850667e-06	5.693955e-09	1.973831e+01	3.756143e+02
1.730000e-06	2.843820e-06	5.723122e-09	1.969090e+01	3.751086e+02
1.740000e-06	2.836067e-06	5.718727e-09	1.963722e+01	3.745558e+02
1.750000e-06	2.827128e-06	5.645116e-09	1.957533e+01	3.739650e+02
1.760000e-06	2.816631e-06	5.567437e-09	1.950265e+01	3.733446e+02
1.770000e-06	2.804979e-06	5.707114e-09	1.942196e+01	3.727008e+02
1.780000e-06	2.793015e-06	5.765602e-09	1.933913e+01	3.720372e+02
1.790000e-06	2.780631e-06	5.550886e-09	1.925338e+01	3.713542e+02
1.800000e-06	2.766793e-06	5.527369e-09	1.915756e+01	3.706487e+02
1.810000e-06	2.751416e-06	5.727905e-09	1.905109e+01	3.699146e+02
1.820000e-06	2.735402e-06	5.649738e-09	1.894020e+01	3.691433e+02
1.830000e-06	2.718590e-06	5.422630e-09	1.882380e+01	3.683243e+02
1.840000e-06	2.700423e-06	5.632838e-09	1.869801e+01	3.674467e+02
1.850000e-06	2.681306e-06	5.695199e-09	1.856564e+01	3.665000e+02
1.860000e-06	2.661571e-06	5.387117e-09	1.842899e+01	3.654753e+02
1.870000e-06	2.640753e-06	5.535713e-09	1.828485e+01	3.643660e+02
1.880000e-06	2.618754e-06	5.685368e-09	1.813253e+01	3.631688e+02
1.890000e-06	2.595845e-06	5.368615e-09	1.797390e+01	3.618831e+02
1.900000e-06	2.571915e-06	5.421361e-09	1.780820e+01	3.605119e+02
1.910000e-06	2.547124e-06	5.575357e-09	1.763655e+01	3.590604e+02
1.920000e-06	2.521642e-06	5.392206e-09	1.746011e+01	3.575358e+02
1.930000e-06	2.495257e-06	5.365852e-09	1.727742e+01	3.559461e+02
1.940000e-06	2.468060e-06	5.442649e-09	1.708910e+01	3.542993e+02
1.950000e-06	2.440126e-06	5.339915e-09	1.689569e+01	3.526024e+02
1.960000e-06	2.411021e-06	5.341243e-09	1.669416e+01	3.508604e+02
1.970000e-06	2.380763e-06	5.317467e-09	1.648465e+01	3.490763e+02
1.980000e-06	2.349714e-06	5.212783e-09	1.626966e+01	3.472505e+02
1.990000e-06	2.317948e-06	5.286369e-09	1.604971e+01	3.453809e+02
2.000000e-06	2.285462e-06	5.224474e-09	1.582477e+01	3.434637e+02
2.010000e-06	2.252168e-06	5.145930e-09	1.559425e+01	3.414937e+02
2.020000e-06	2.218035e-06	5.207053e-09	1.535791e+01	3.394653e+02
2.030000e-06	2.183228e-06	5.103595e-09	1.511690e+01	3.373727e+02
2.040000e-06	2.147827e-06	5.061246e-09	1.487177e+01	3.352115e+02
2.050000e-06	2.111721e-06	5.110077e-09	1.462177e+01	3.329786e+02
2.060000e-06	2.074772e-06	4.995739e-09	1.436594e+01	3.306724e+02
2.070000e-06	2.036768e-06	4.968483e-09	1.410279e+01	3.282935e+02
2.080000e-06	1.997848e-06	4.982247e-09	1.383330e+01	3.258437e+02
2.090000e-06	1.958372e-06	4.893045e-09	1.355997e+01	3.233262e+02
2.100000e-06	1.918293e-06	4.880103e-09	1.328246e+01	3.207444e+02
2.110000e-06	1.877533e-06	4.834477e-09	1.300024e+01	3.181018e+02
2.120000e-06	1.836200e-06	4.780565e-09	1.271404e+01	3.154012e+02
2.130000e-06	1.794307e-06	4.767514e-09	1.242397e+01	3.126440e+02
2.140000e-06	1.751828e-06	4.706512e-09	1.212984e+01	3.098301e+02
2.150000e-06	1.708831e-06	4.671179e-09	1.183212e+01	3.069578e+02
2.160000e-06	1.665409e-06	4.618097e-09	1.153146e+01	3.040238e+02
2.170000e-06	1.621441e-06	4.567732e-09	1.122702e+01	3.010238e+02
2.180000e-06	1.576778e-06	4.542261e-09	1.091777e+01	2.979527e+02
2.190000e-06	1.531460e-06	4.481381e-09	1.060399e+01	2.948054e+02
2.200000e-06	1.485636e-06	4.425919e-09	1.028669e+01	2.915772e+02
2.210000e-06	1.439449e-06	4.390383e-09	9.966897e+00	2.882644e+02
2.220000e-06	1.392868e-06	4.335509e-09	9.644362e+00	2.848646e+02
2.230000e-06	1.345727e-06	4.292178e-09	9.317956e+00	2.813766e+02
2.240000e-06	1.297930e-06	4.227263e-09	8.987002e+00	2.778010e+02
2.250000e-06	1.249515e-06	4.165778e-09	8.651770e+00	2.741391e+02
2.260000e-06	1.200610e-06	4.124022e-09	8.313147e+00	2.703928e+02
2.270000e-06	1.151303e-06	4.055454e-09	7.971741e+00	2.665645e+02
2.280000e-06	1.101623e-06	4.002278e-09	7.627749e+00	2.626559e+02
2.290000e-06	1.051511e-06	3.940709e-09	7.280767e+00	2.586681e+02
2.300000e-06	1.000878e-06	3.881945e-09	6.930186e+00	2.546008e+02
2.310000e-06	9.498491e-07	3.828198e-09	6.576853e+00	2.504526e+02
2.320000e-06	8.985968e-07	3.755213e-09	6.221977e+00	2.462211e+02
2.330000e-06	8.471300e-07	3.686230e-09	5.865615e+00	2.419025e+02
2.340000e-06	7.953270e-07	3.615976e-09	5.506927e+00	2.374927e+02
2.350000e-06	7.430341e-07	3.548101e-09	5.144845e+00	2.329874e+02
2.360000e-06	6.902535e-07	3.480349e-09	4.779387e+00	2.283825e+02
2.370000e-06	6.370457e-07	3.405186e-09	4.410970e+00	2.236748e+02
2.380000e-06	5.834781e-07	3.339233e-09	4.040063e+00	2.188617e+02
2.390000e-06	5.296180e-07	3.275404e-09	3.667130e+00	2.139418e+02
2.400000e-06	4.753980e-07	3.197751e-09	3.291705e+00	2.089142e+02
2.410000e-06	4.209247e-07	3.117060e-09	2.914526e+00	2.037785e+02
2.420000e-06	3.663172e-07	3.032193e-09	2.536418e+00	1.985341e+02
2.430000e-06	3.115626e-07	2.951047e-09	2.157292e+00	1.931796e+02
2.440000e-06	2.566888e-07	2.868995e-09	1.777340e+00	1.877123e+02
2.450000e-06	2.017331e-07	2.780966e-09	1.396821e+00	1.821279e+02
2.460000e-06	1.467260e-07	2.699534e-09	1.015946e+00	1.764198e+02
2.470000e-06	9.169331e-08	2.615814e-09	6.348939e-01	1.705796e+02
2.480000e-06	3.664844e-08	2.529769e-09	2.537576e-01	1.645969e+02
2.490000e-06	-1.838647e-08	2.436438e-09	-1.273098e-01	1.584601e+02
2.500000e-06	-7.340207e-08	2.337760e-09	-5.082435e-01	1.521566e+02
2.510000e-06	-1.284141e-07	2.240753e-09	-8.891527e-01	1.456742e+02
2.520000e-06	-1.833920e-07	2.141290e-09	-1.269825e+00	1.390010e+02
2.530000e-06	-2.383362e-07	2.036578e-09	-1.650264e+00	1.321266e+02
2.540000e-06	-2.932495e-07	1.927555e-09	-2.030490e+00	1.250416e+02
2.550000e-06	-3.480317e-07	1.819223e-09	-2.409808e+00	1.177382e+02
2.560000e-06	-4.027011e-07	1.709221e-09	-2.788344e+00	1.102092e+02
2.570000e-06	-4.572627e-07	1.593196e-09	-3.166134e+00	1.024473e+02
2.580000e-06	-5.115130e-07	1.470225e-09	-3.541769e+00	9.444383e+01
2.590000e-06	-5.654238e-07	1.346077e-09	-3.915053e+00	8.618741e+01
2.600000e-06	-6.190299e-07	1.219112e-09	-4.286227e+00	7.766283e+01
2.610000e-06	-6.721990e-07	1.085720e-09	-4.654375e+00	6.884995e+01
2.620000e-06	-7.248810e-07	9.447723e-10	-5.019151e+00	5.972313e+01
2.630000e-06	-7.770873e-07	7.979930e-10	-5.380633e+00	5.025137e+01
2.640000e-06	-8.289019e-07	6.493339e-10	-5.739402e+00	4.039923e+01
2.650000e-06	-8.804137e-07	4.956110e-10	-6.096075e+00	3.012852e+01
2.660000e-06	-9.316384e-07	3.342909e-10	-6.450761e+00	1.940091e+01
2.670000e-06	-9.826062e-07	1.637444e-10	-6.803667e+00	8.181175e+00
2.680000e-06	-1.033226e-06	-1.248120e-11	-7.154162e+00	-3.559063e+00
2.690000e-06	-1.083435e-06	-1.967294e-10	-7.501816e+00	-1.583741e+01
2.700000e-06	-1.133256e-06	-3.904109e-10	-7.846780e+00	-2.865695e+01
2.710000e-06	-1.182662e-06	-5.937867e-10	-8.188874e+00	-4.200297e+01
2.720000e-06	-1.231551e-06	-8.066747e-10	-8.527386e+00	-5.584057e+01
2.730000e-06	-1.279890e-06	-1.025839e-09	-8.862094e+00	-7.011347e+01
2.740000e-06	-1.327544e-06	-1.248862e-09	-9.192052e+00	-8.474412e+01
2.750000e-06	-1.374421e-06	-1.476255e-09	-9.516636e+00	-9.963533e+01
2.760000e-06	-1.420643e-06	-1.706674e-09	-9.836680e+00	-1.146733e+02
2.770000e-06	-1.466419e-06	-1.935186e-09	-1.015364e+01	-1.297318e+02
2.780000e-06	-1.511891e-06	-2.164010e-09	-1.046849e+01	-1.446777e+02
2.790000e-06	-1.556989e-06	-2.392636e-09	-1.078076e+01	-1.593770e+02
2.800000e-06	-1.601617e-06	-2.616637e-09	-1.108976e+01	-1.737004e+02
2.810000e-06	-1.645633e-06	-2.828451e-09	-1.139453e+01	-1.875299e+02
2.820000e-06	-1.689084e-06	-3.029629e-09	-1.169539e+01	-2.007635e+02
2.830000e-06	-1.732175e-06	-3.221410e-09	-1.199376e+01	-2.133195e+02
2.840000e-06	-1.774837e-06	-3.401674e-09	-1.228916e+01	-2.251392e+02
2.850000e-06	-1.816884e-06	-3.570094e-09	-1.258029e+01	-2.361879e+02
2.860000e-06	-1.858291e-06	-3.725864e-09	-1.286700e+01	-2.464550e+02
2.870000e-06	-1.899124e-06	-3.874256e-09	-1.314973e+01	-2.559515e+02
2.880000e-06	-1.939290e-06	-4.014742e-09	-1.342785e+01	-2.647077e+02
2.890000e-06	-1.978766e-06	-4.143794e-09	-1.370118e+01	-2.727685e+02
2.900000e-06	-2.017722e-06	-4.258104e-09	-1.397092e+01	-2.801891e+02
2.910000e-06	-2.056016e-06	-4.358948e-09	-1.423606e+01	-2.870307e+02
2.920000e-06	-2.093340e-06	-4.451815e-09	-1.449450e+01	-2.933555e+02
2.930000e-06	-2.129620e-06	-4.541194e-09	-1.474571e+01	-2.992230e+02
2.940000e-06	-2.165091e-06	-4.628414e-09	-1.499131e+01	-3.046874e+02
