# Temperatura_=_21.43
# Concentracion g/m^3_=_15500.0
# C_Vs_to_Am_M_A/Vsm_=_65563218390.804596
# pendiente_HvsI_1/m_=_3716.3
# ordenada_HvsI_A/m_=_1297.0
# frecuencia_Hz_=_300833.82543256355

Tiempo_(s)	Campo_(V.s)	Magnetizacion_(V.s)	Campo_(kA/m)	Magnetizacion_(A/m)
0.000000e+00	-2.851070e-06	-6.131787e-09	-1.980064e+01	-3.998295e+02
1.000000e-08	-2.850035e-06	-6.133437e-09	-1.979345e+01	-3.997077e+02
2.000000e-08	-2.848028e-06	-6.133404e-09	-1.977952e+01	-3.995018e+02
3.000000e-08	-2.844779e-06	-6.127701e-09	-1.975695e+01	-3.992136e+02
4.000000e-08	-2.840469e-06	-6.119036e-09	-1.972702e+01	-3.988470e+02
5.000000e-08	-2.835393e-06	-6.111002e-09	-1.969176e+01	-3.984075e+02
6.000000e-08	-2.829498e-06	-6.103893e-09	-1.965082e+01	-3.979022e+02
7.000000e-08	-2.822624e-06	-6.089336e-09	-1.960308e+01	-3.973388e+02
8.000000e-08	-2.814666e-06	-6.088818e-09	-1.954782e+01	-3.967256e+02
9.000000e-08	-2.805502e-06	-6.118716e-09	-1.948417e+01	-3.960701e+02
1.000000e-07	-2.794998e-06	-6.122754e-09	-1.941122e+01	-3.953789e+02
1.100000e-07	-2.783272e-06	-6.019254e-09	-1.932979e+01	-3.946562e+02
1.200000e-07	-2.770719e-06	-5.969018e-09	-1.924260e+01	-3.939038e+02
1.300000e-07	-2.757332e-06	-6.050675e-09	-1.914963e+01	-3.931206e+02
1.400000e-07	-2.742926e-06	-6.096513e-09	-1.904958e+01	-3.923028e+02
1.500000e-07	-2.727516e-06	-5.930991e-09	-1.894256e+01	-3.914439e+02
1.600000e-07	-2.710837e-06	-5.943732e-09	-1.882672e+01	-3.905353e+02
1.700000e-07	-2.692849e-06	-6.050980e-09	-1.870180e+01	-3.895674e+02
1.800000e-07	-2.674108e-06	-5.895639e-09	-1.857164e+01	-3.885301e+02
1.900000e-07	-2.654739e-06	-5.849635e-09	-1.843712e+01	-3.874138e+02
2.000000e-07	-2.634455e-06	-5.945186e-09	-1.829625e+01	-3.862106e+02
2.100000e-07	-2.613332e-06	-5.860797e-09	-1.814955e+01	-3.849147e+02
2.200000e-07	-2.591431e-06	-5.766423e-09	-1.799745e+01	-3.835228e+02
2.300000e-07	-2.568585e-06	-5.888997e-09	-1.783878e+01	-3.820346e+02
2.400000e-07	-2.544778e-06	-5.848067e-09	-1.767345e+01	-3.804523e+02
2.500000e-07	-2.520151e-06	-5.705490e-09	-1.750241e+01	-3.787805e+02
2.600000e-07	-2.494727e-06	-5.733882e-09	-1.732585e+01	-3.770253e+02
2.700000e-07	-2.468280e-06	-5.753542e-09	-1.714217e+01	-3.751937e+02
2.800000e-07	-2.440729e-06	-5.659330e-09	-1.695083e+01	-3.732928e+02
2.900000e-07	-2.412242e-06	-5.658605e-09	-1.675299e+01	-3.713287e+02
3.000000e-07	-2.382901e-06	-5.631108e-09	-1.654921e+01	-3.693063e+02
3.100000e-07	-2.352821e-06	-5.594776e-09	-1.634031e+01	-3.672285e+02
3.200000e-07	-2.322027e-06	-5.593987e-09	-1.612644e+01	-3.650964e+02
3.300000e-07	-2.290444e-06	-5.507927e-09	-1.590710e+01	-3.629089e+02
3.400000e-07	-2.258165e-06	-5.476605e-09	-1.568293e+01	-3.606634e+02
3.500000e-07	-2.225278e-06	-5.466783e-09	-1.545452e+01	-3.583562e+02
3.600000e-07	-2.191622e-06	-5.419228e-09	-1.522078e+01	-3.559832e+02
3.700000e-07	-2.156903e-06	-5.396476e-09	-1.497966e+01	-3.535403e+02
3.800000e-07	-2.121101e-06	-5.374168e-09	-1.473101e+01	-3.510240e+02
3.900000e-07	-2.084531e-06	-5.286780e-09	-1.447704e+01	-3.484324e+02
4.000000e-07	-2.047340e-06	-5.270241e-09	-1.421875e+01	-3.457645e+02
4.100000e-07	-2.009419e-06	-5.252241e-09	-1.395538e+01	-3.430211e+02
4.200000e-07	-1.970828e-06	-5.169772e-09	-1.368737e+01	-3.402040e+02
4.300000e-07	-1.931513e-06	-5.126536e-09	-1.341433e+01	-3.373160e+02
4.400000e-07	-1.891480e-06	-5.103624e-09	-1.313630e+01	-3.343601e+02
4.500000e-07	-1.851012e-06	-5.062368e-09	-1.285525e+01	-3.313392e+02
4.600000e-07	-1.810152e-06	-5.005843e-09	-1.257148e+01	-3.282554e+02
4.700000e-07	-1.768638e-06	-4.959676e-09	-1.228317e+01	-3.251095e+02
4.800000e-07	-1.726101e-06	-4.904707e-09	-1.198775e+01	-3.219009e+02
4.900000e-07	-1.682539e-06	-4.860291e-09	-1.168521e+01	-3.186275e+02
5.000000e-07	-1.638356e-06	-4.806710e-09	-1.137836e+01	-3.152855e+02
5.100000e-07	-1.593765e-06	-4.749188e-09	-1.106868e+01	-3.118702e+02
5.200000e-07	-1.548707e-06	-4.692740e-09	-1.075575e+01	-3.083763e+02
5.300000e-07	-1.503121e-06	-4.644253e-09	-1.043915e+01	-3.047983e+02
5.400000e-07	-1.456978e-06	-4.597342e-09	-1.011869e+01	-3.011313e+02
5.500000e-07	-1.410321e-06	-4.532440e-09	-9.794656e+00	-2.973712e+02
5.600000e-07	-1.363207e-06	-4.467043e-09	-9.467450e+00	-2.935156e+02
5.700000e-07	-1.315578e-06	-4.403686e-09	-9.136670e+00	-2.895632e+02
5.800000e-07	-1.267473e-06	-4.355011e-09	-8.802579e+00	-2.855147e+02
5.900000e-07	-1.219019e-06	-4.291561e-09	-8.466070e+00	-2.813717e+02
6.000000e-07	-1.170205e-06	-4.220894e-09	-8.127055e+00	-2.771371e+02
6.100000e-07	-1.120915e-06	-4.155415e-09	-7.784740e+00	-2.728138e+02
6.200000e-07	-1.071078e-06	-4.089473e-09	-7.438620e+00	-2.684050e+02
6.300000e-07	-1.020636e-06	-4.017677e-09	-7.088305e+00	-2.639129e+02
6.400000e-07	-9.695782e-07	-3.941798e-09	-6.733707e+00	-2.593387e+02
6.500000e-07	-9.179529e-07	-3.872674e-09	-6.375170e+00	-2.546823e+02
6.600000e-07	-8.659261e-07	-3.803060e-09	-6.013845e+00	-2.499422e+02
6.700000e-07	-8.136212e-07	-3.733934e-09	-5.650587e+00	-2.451154e+02
6.800000e-07	-7.610537e-07	-3.655887e-09	-5.285507e+00	-2.401980e+02
6.900000e-07	-7.082659e-07	-3.575872e-09	-4.918897e+00	-2.351850e+02
7.000000e-07	-6.552726e-07	-3.495191e-09	-4.550859e+00	-2.300718e+02
7.100000e-07	-6.020615e-07	-3.416151e-09	-4.181308e+00	-2.248535e+02
7.200000e-07	-5.486206e-07	-3.333591e-09	-3.810162e+00	-2.195260e+02
7.300000e-07	-4.948747e-07	-3.247063e-09	-3.436898e+00	-2.140861e+02
7.400000e-07	-4.408564e-07	-3.164875e-09	-3.061741e+00	-2.085313e+02
7.500000e-07	-3.867542e-07	-3.080602e-09	-2.686003e+00	-2.028599e+02
7.600000e-07	-3.325891e-07	-2.991521e-09	-2.309827e+00	-1.970709e+02
7.700000e-07	-2.783053e-07	-2.894074e-09	-1.932827e+00	-1.911632e+02
7.800000e-07	-2.239270e-07	-2.800508e-09	-1.555170e+00	-1.851351e+02
7.900000e-07	-1.694588e-07	-2.710795e-09	-1.176889e+00	-1.789842e+02
8.000000e-07	-1.149627e-07	-2.617421e-09	-7.984147e-01	-1.727068e+02
8.100000e-07	-6.050285e-08	-2.514593e-09	-4.201914e-01	-1.662975e+02
8.200000e-07	-6.008137e-09	-2.409727e-09	-4.172643e-02	-1.597495e+02
8.300000e-07	4.849970e-08	-2.308047e-09	3.368297e-01	-1.530543e+02
8.400000e-07	1.029706e-07	-2.203104e-09	7.151293e-01	-1.462024e+02
8.500000e-07	1.574341e-07	-2.096215e-09	1.093377e+00	-1.391836e+02
8.600000e-07	2.119073e-07	-1.984079e-09	1.471693e+00	-1.319874e+02
8.700000e-07	2.663249e-07	-1.870711e-09	1.849623e+00	-1.246037e+02
8.800000e-07	3.206806e-07	-1.754832e-09	2.227122e+00	-1.170229e+02
8.900000e-07	3.749793e-07	-1.635321e-09	2.604226e+00	-1.092364e+02
9.000000e-07	4.291070e-07	-1.508739e-09	2.980142e+00	-1.012363e+02
9.100000e-07	4.830201e-07	-1.380017e-09	3.354568e+00	-9.301493e+01
9.200000e-07	5.367521e-07	-1.253966e-09	3.727736e+00	-8.456436e+01
9.300000e-07	5.902462e-07	-1.124072e-09	4.099252e+00	-7.587568e+01
9.400000e-07	6.434485e-07	-9.882194e-10	4.468741e+00	-6.693803e+01
9.500000e-07	6.963840e-07	-8.458526e-10	4.836377e+00	-5.773785e+01
9.600000e-07	7.491141e-07	-7.010423e-10	5.202587e+00	-4.825831e+01
9.700000e-07	8.016372e-07	-5.505438e-10	5.567359e+00	-3.847914e+01
9.800000e-07	8.538200e-07	-3.938505e-10	5.929767e+00	-2.837690e+01
9.900000e-07	9.056264e-07	-2.295678e-10	6.289562e+00	-1.792593e+01
1.000000e-06	9.570402e-07	-6.035700e-11	6.646630e+00	-7.099814e+00
1.010000e-06	1.007903e-06	1.108112e-10	6.999870e+00	4.126534e+00
1.020000e-06	1.058077e-06	2.861721e-10	7.348328e+00	1.577436e+01
1.030000e-06	1.107645e-06	4.677073e-10	7.692576e+00	2.785825e+01
1.040000e-06	1.156724e-06	6.576553e-10	8.033433e+00	4.038328e+01
1.050000e-06	1.205459e-06	8.540681e-10	8.371898e+00	5.334237e+01
1.060000e-06	1.253957e-06	1.058341e-09	8.708711e+00	6.671405e+01
1.070000e-06	1.302099e-06	1.268910e-09	9.043061e+00	8.046103e+01
1.080000e-06	1.349811e-06	1.484996e-09	9.374415e+00	9.452958e+01
1.090000e-06	1.397006e-06	1.703445e-09	9.702187e+00	1.088500e+02
1.100000e-06	1.443640e-06	1.923586e-09	1.002606e+01	1.233382e+02
1.110000e-06	1.489748e-06	2.146015e-09	1.034628e+01	1.378981e+02
1.120000e-06	1.535352e-06	2.366322e-09	1.066300e+01	1.524254e+02
1.130000e-06	1.580473e-06	2.580177e-09	1.097636e+01	1.668114e+02
1.140000e-06	1.625172e-06	2.788890e-09	1.128679e+01	1.809479e+02
1.150000e-06	1.669545e-06	2.996579e-09	1.159497e+01	1.947314e+02
1.160000e-06	1.713389e-06	3.199444e-09	1.189946e+01	2.080678e+02
1.170000e-06	1.756378e-06	3.394863e-09	1.219802e+01	2.208757e+02
1.180000e-06	1.798388e-06	3.578621e-09	1.248978e+01	2.330899e+02
1.190000e-06	1.839576e-06	3.752244e-09	1.277583e+01	2.446630e+02
1.200000e-06	1.880203e-06	3.918223e-09	1.305798e+01	2.555659e+02
1.210000e-06	1.920320e-06	4.073879e-09	1.333660e+01	2.657880e+02
1.220000e-06	1.959875e-06	4.217323e-09	1.361130e+01	2.753355e+02
1.230000e-06	1.998775e-06	4.348826e-09	1.388146e+01	2.842288e+02
1.240000e-06	2.036954e-06	4.471549e-09	1.414661e+01	2.925001e+02
1.250000e-06	2.074419e-06	4.587092e-09	1.440681e+01	3.001899e+02
1.260000e-06	2.111257e-06	4.696706e-09	1.466265e+01	3.073435e+02
1.270000e-06	2.147564e-06	4.796324e-09	1.491480e+01	3.140079e+02
1.280000e-06	2.183173e-06	4.887539e-09	1.516211e+01	3.202291e+02
1.290000e-06	2.217761e-06	4.974400e-09	1.540232e+01	3.260499e+02
1.300000e-06	2.251266e-06	5.056191e-09	1.563501e+01	3.315080e+02
1.310000e-06	2.283935e-06	5.132516e-09	1.586189e+01	3.366359e+02
1.320000e-06	2.315951e-06	5.203088e-09	1.608425e+01	3.414601e+02
1.330000e-06	2.347269e-06	5.270433e-09	1.630175e+01	3.460020e+02
1.340000e-06	2.377775e-06	5.335477e-09	1.651361e+01	3.502785e+02
1.350000e-06	2.407443e-06	5.394016e-09	1.671966e+01	3.543030e+02
1.360000e-06	2.436371e-06	5.445686e-09	1.692056e+01	3.580868e+02
1.370000e-06	2.464646e-06	5.498664e-09	1.711693e+01	3.616400e+02
1.380000e-06	2.492072e-06	5.552486e-09	1.730740e+01	3.649723e+02
1.390000e-06	2.518279e-06	5.600500e-09	1.748941e+01	3.680938e+02
1.400000e-06	2.543324e-06	5.640304e-09	1.766335e+01	3.710150e+02
1.410000e-06	2.567503e-06	5.677190e-09	1.783128e+01	3.737471e+02
1.420000e-06	2.590868e-06	5.717178e-09	1.799354e+01	3.763016e+02
1.430000e-06	2.613347e-06	5.755284e-09	1.814966e+01	3.786898e+02
1.440000e-06	2.634929e-06	5.785008e-09	1.829954e+01	3.809224e+02
1.450000e-06	2.655741e-06	5.809965e-09	1.844408e+01	3.830092e+02
1.460000e-06	2.675841e-06	5.837656e-09	1.858368e+01	3.849588e+02
1.470000e-06	2.695015e-06	5.867249e-09	1.871684e+01	3.867782e+02
1.480000e-06	2.713147e-06	5.893550e-09	1.884277e+01	3.884728e+02
1.490000e-06	2.730301e-06	5.914918e-09	1.896190e+01	3.900470e+02
1.500000e-06	2.746487e-06	5.936347e-09	1.907431e+01	3.915041e+02
1.510000e-06	2.761614e-06	5.960053e-09	1.917937e+01	3.928467e+02
1.520000e-06	2.775655e-06	5.980037e-09	1.927689e+01	3.940776e+02
1.530000e-06	2.788667e-06	5.992869e-09	1.936725e+01	3.951994e+02
1.540000e-06	2.800640e-06	6.004874e-09	1.945041e+01	3.962154e+02
1.550000e-06	2.811375e-06	6.020327e-09	1.952496e+01	3.971293e+02
1.560000e-06	2.820799e-06	6.034798e-09	1.959041e+01	3.979451e+02
1.570000e-06	2.829203e-06	6.045419e-09	1.964877e+01	3.986674e+02
1.580000e-06	2.836709e-06	6.053951e-09	1.970090e+01	3.993002e+02
1.590000e-06	2.843279e-06	6.063956e-09	1.974653e+01	3.998475e+02
1.600000e-06	2.848914e-06	6.073542e-09	1.978567e+01	4.003123e+02
1.610000e-06	2.853681e-06	6.077999e-09	1.981878e+01	4.006966e+02
1.620000e-06	2.857556e-06	6.079051e-09	1.984569e+01	4.010013e+02
1.630000e-06	2.860265e-06	6.082475e-09	1.986450e+01	4.012262e+02
1.640000e-06	2.861755e-06	6.088440e-09	1.987485e+01	4.013702e+02
1.650000e-06	2.862281e-06	6.091367e-09	1.987850e+01	4.014319e+02
1.660000e-06	2.861919e-06	6.089830e-09	1.987599e+01	4.014097e+02
1.670000e-06	2.860667e-06	6.087108e-09	1.986729e+01	4.013029e+02
1.680000e-06	2.858514e-06	6.084482e-09	1.985234e+01	4.011116e+02
1.690000e-06	2.855507e-06	6.081377e-09	1.983146e+01	4.008377e+02
1.700000e-06	2.851712e-06	6.075422e-09	1.980510e+01	4.004845e+02
1.710000e-06	2.846936e-06	6.069564e-09	1.977193e+01	4.000573e+02
1.720000e-06	2.840978e-06	6.067339e-09	1.973055e+01	3.995629e+02
1.730000e-06	2.834015e-06	6.075028e-09	1.968220e+01	3.990090e+02
1.740000e-06	2.826140e-06	6.039774e-09	1.962750e+01	3.984039e+02
1.750000e-06	2.816992e-06	5.978523e-09	1.956397e+01	3.977552e+02
1.760000e-06	2.806289e-06	5.977381e-09	1.948964e+01	3.970697e+02
1.770000e-06	2.794599e-06	6.083377e-09	1.940845e+01	3.963522e+02
1.780000e-06	2.782713e-06	6.043013e-09	1.932590e+01	3.956048e+02
1.790000e-06	2.770105e-06	5.906581e-09	1.923834e+01	3.948271e+02
1.800000e-06	2.755902e-06	5.947846e-09	1.913970e+01	3.940157e+02
1.810000e-06	2.740508e-06	6.054728e-09	1.903279e+01	3.931644e+02
1.820000e-06	2.724480e-06	5.948293e-09	1.892148e+01	3.922652e+02
1.830000e-06	2.707415e-06	5.858718e-09	1.880296e+01	3.913083e+02
1.840000e-06	2.689069e-06	6.026892e-09	1.867555e+01	3.902839e+02
1.850000e-06	2.669953e-06	5.972081e-09	1.854279e+01	3.891821e+02
1.860000e-06	2.650144e-06	5.799080e-09	1.840521e+01	3.879947e+02
1.870000e-06	2.629175e-06	5.936482e-09	1.825958e+01	3.867154e+02
1.880000e-06	2.607042e-06	5.926782e-09	1.810587e+01	3.853405e+02
1.890000e-06	2.583917e-06	5.723422e-09	1.794526e+01	3.838691e+02
1.900000e-06	2.559827e-06	5.830926e-09	1.777797e+01	3.823031e+02
1.910000e-06	2.534969e-06	5.881087e-09	1.760532e+01	3.806466e+02
1.920000e-06	2.509390e-06	5.733909e-09	1.742768e+01	3.789056e+02
1.930000e-06	2.482903e-06	5.736253e-09	1.724372e+01	3.770869e+02
1.940000e-06	2.455670e-06	5.754223e-09	1.705459e+01	3.751976e+02
1.950000e-06	2.427664e-06	5.660084e-09	1.686009e+01	3.732441e+02
1.960000e-06	2.398430e-06	5.660380e-09	1.665707e+01	3.712316e+02
1.970000e-06	2.368084e-06	5.613030e-09	1.644631e+01	3.691633e+02
1.980000e-06	2.336989e-06	5.554031e-09	1.623036e+01	3.670407e+02
1.990000e-06	2.305174e-06	5.611120e-09	1.600940e+01	3.648629e+02
2.000000e-06	2.272633e-06	5.527008e-09	1.578341e+01	3.626278e+02
2.010000e-06	2.239292e-06	5.464745e-09	1.555185e+01	3.603317e+02
2.020000e-06	2.205176e-06	5.491391e-09	1.531492e+01	3.579705e+02
2.030000e-06	2.170453e-06	5.390536e-09	1.507377e+01	3.555401e+02
2.040000e-06	2.135105e-06	5.363833e-09	1.482827e+01	3.530369e+02
2.050000e-06	2.099085e-06	5.379596e-09	1.457811e+01	3.504586e+02
2.060000e-06	2.062128e-06	5.267760e-09	1.432145e+01	3.478040e+02
2.070000e-06	2.023977e-06	5.245878e-09	1.405649e+01	3.450737e+02
2.080000e-06	1.984979e-06	5.243353e-09	1.378565e+01	3.422694e+02
2.090000e-06	1.945479e-06	5.159575e-09	1.351132e+01	3.393935e+02
2.100000e-06	1.905378e-06	5.130334e-09	1.323282e+01	3.364493e+02
2.110000e-06	1.864633e-06	5.079311e-09	1.294985e+01	3.334396e+02
2.120000e-06	1.823278e-06	5.027908e-09	1.266264e+01	3.303667e+02
2.130000e-06	1.781327e-06	4.996384e-09	1.237129e+01	3.272317e+02
2.140000e-06	1.738799e-06	4.931726e-09	1.207593e+01	3.240342e+02
2.150000e-06	1.695773e-06	4.891284e-09	1.177712e+01	3.207723e+02
2.160000e-06	1.652363e-06	4.841778e-09	1.147564e+01	3.174426e+02
2.170000e-06	1.608459e-06	4.787492e-09	1.117073e+01	3.140405e+02
2.180000e-06	1.563901e-06	4.743558e-09	1.086127e+01	3.105608e+02
2.190000e-06	1.518734e-06	4.676311e-09	1.054758e+01	3.069980e+02
2.200000e-06	1.473037e-06	4.616972e-09	1.023022e+01	3.033469e+02
2.210000e-06	1.426913e-06	4.574300e-09	9.909890e+00	2.996035e+02
2.220000e-06	1.380377e-06	4.516194e-09	9.586701e+00	2.957647e+02
2.230000e-06	1.333267e-06	4.458875e-09	9.259521e+00	2.918294e+02
2.240000e-06	1.285583e-06	4.386296e-09	8.928354e+00	2.877977e+02
2.250000e-06	1.237290e-06	4.327539e-09	8.592959e+00	2.836712e+02
2.260000e-06	1.188467e-06	4.273117e-09	8.253888e+00	2.794525e+02
2.270000e-06	1.139250e-06	4.192271e-09	7.912078e+00	2.751446e+02
2.280000e-06	1.089641e-06	4.129190e-09	7.567545e+00	2.707505e+02
2.290000e-06	1.039648e-06	4.065072e-09	7.220343e+00	2.662729e+02
2.300000e-06	9.891440e-07	4.000038e-09	6.869591e+00	2.617131e+02
2.310000e-06	9.382406e-07	3.932484e-09	6.516068e+00	2.570713e+02
2.320000e-06	8.871239e-07	3.853305e-09	6.161063e+00	2.523460e+02
2.330000e-06	8.357780e-07	3.781424e-09	5.804467e+00	2.475348e+02
2.340000e-06	7.841225e-07	3.709292e-09	5.445720e+00	2.426335e+02
2.350000e-06	7.320418e-07	3.634058e-09	5.084020e+00	2.376378e+02
2.360000e-06	6.795287e-07	3.554271e-09	4.719317e+00	2.325426e+02
2.370000e-06	6.266309e-07	3.468360e-09	4.351943e+00	2.273431e+02
2.380000e-06	5.733168e-07	3.390860e-09	3.981677e+00	2.220351e+02
2.390000e-06	5.195693e-07	3.315174e-09	3.608401e+00	2.166152e+02
2.400000e-06	4.655530e-07	3.231933e-09	3.233259e+00	2.110808e+02
2.410000e-06	4.113618e-07	3.148733e-09	2.856902e+00	2.054301e+02
2.420000e-06	3.569631e-07	3.063249e-09	2.479104e+00	1.996620e+02
2.430000e-06	3.023776e-07	2.978100e-09	2.100008e+00	1.937753e+02
2.440000e-06	2.476531e-07	2.883660e-09	1.719947e+00	1.877686e+02
2.450000e-06	1.927995e-07	2.779837e-09	1.338990e+00	1.816396e+02
2.460000e-06	1.378602e-07	2.683946e-09	9.574370e-01	1.753849e+02
2.470000e-06	8.292482e-08	2.591326e-09	5.759117e-01	1.689993e+02
2.480000e-06	2.797954e-08	2.496895e-09	1.943175e-01	1.624764e+02
2.490000e-06	-2.696100e-08	2.397352e-09	-1.872438e-01	1.558080e+02
2.500000e-06	-8.188950e-08	2.297126e-09	-5.687214e-01	1.489845e+02
2.510000e-06	-1.368046e-07	2.195462e-09	-9.501057e-01	1.419961e+02
2.520000e-06	-1.916793e-07	2.084820e-09	-1.331210e+00	1.348320e+02
2.530000e-06	-2.465095e-07	1.966377e-09	-1.712005e+00	1.274823e+02
2.540000e-06	-3.012760e-07	1.848118e-09	-2.092357e+00	1.199371e+02
2.550000e-06	-3.558850e-07	1.732612e-09	-2.471616e+00	1.121877e+02
2.560000e-06	-4.102936e-07	1.615903e-09	-2.849483e+00	1.042261e+02
2.570000e-06	-4.644999e-07	1.494434e-09	-3.225945e+00	9.604451e+01
2.580000e-06	-5.184745e-07	1.367226e-09	-3.600798e+00	8.763523e+01
2.590000e-06	-5.721448e-07	1.239257e-09	-3.973538e+00	7.898955e+01
2.600000e-06	-6.254020e-07	1.106291e-09	-4.343408e+00	7.009702e+01
2.610000e-06	-6.782266e-07	9.650297e-10	-4.710274e+00	6.094461e+01
2.620000e-06	-7.305898e-07	8.166143e-10	-5.073935e+00	5.151610e+01
2.630000e-06	-7.825657e-07	6.646572e-10	-5.434908e+00	4.179182e+01
2.640000e-06	-8.342024e-07	5.122838e-10	-5.793524e+00	3.174885e+01
2.650000e-06	-8.855026e-07	3.559858e-10	-6.149803e+00	2.136185e+01
2.660000e-06	-9.365671e-07	1.945301e-10	-6.504445e+00	1.060439e+01
2.670000e-06	-9.873394e-07	2.736458e-11	-6.857058e+00	-5.490353e-01
2.680000e-06	-1.037711e-06	-1.459638e-10	-7.206885e+00	-1.212054e+01
2.690000e-06	-1.087682e-06	-3.284646e-10	-7.553937e+00	-2.412613e+01
2.700000e-06	-1.137264e-06	-5.184532e-10	-7.898285e+00	-3.657277e+01
2.710000e-06	-1.186459e-06	-7.146397e-10	-8.239938e+00	-4.945573e+01
2.720000e-06	-1.235122e-06	-9.178677e-10	-8.577905e+00	-6.275625e+01
2.730000e-06	-1.283040e-06	-1.126993e-09	-8.910695e+00	-7.643993e+01
2.740000e-06	-1.330242e-06	-1.340621e-09	-9.238514e+00	-9.045597e+01
2.750000e-06	-1.376729e-06	-1.558826e-09	-9.561365e+00	-1.047374e+02
2.760000e-06	-1.422645e-06	-1.781273e-09	-9.880248e+00	-1.192026e+02
2.770000e-06	-1.468258e-06	-2.004587e-09	-1.019703e+01	-1.337574e+02
2.780000e-06	-1.513576e-06	-2.228515e-09	-1.051177e+01	-1.482987e+02
2.790000e-06	-1.558492e-06	-2.452236e-09	-1.082370e+01	-1.627183e+02
2.800000e-06	-1.602808e-06	-2.672885e-09	-1.113148e+01	-1.769074e+02
2.810000e-06	-1.646561e-06	-2.885104e-09	-1.143534e+01	-1.907614e+02
2.820000e-06	-1.689935e-06	-3.088730e-09	-1.173658e+01	-2.041842e+02
2.830000e-06	-1.732880e-06	-3.284399e-09	-1.203483e+01	-2.170920e+02
2.840000e-06	-1.775302e-06	-3.472444e-09	-1.232945e+01	-2.294165e+02
2.850000e-06	-1.817132e-06	-3.651772e-09	-1.261996e+01	-2.411069e+02
2.860000e-06	-1.858346e-06	-3.821138e-09	-1.290618e+01	-2.521311e+02
2.870000e-06	-1.898940e-06	-3.982917e-09	-1.318811e+01	-2.624751e+02
2.880000e-06	-1.938894e-06	-4.135719e-09	-1.346559e+01	-2.721421e+02
2.890000e-06	-1.978252e-06	-4.278077e-09	-1.373893e+01	-2.811504e+02
2.900000e-06	-2.017077e-06	-4.409444e-09	-1.400857e+01	-2.895302e+02
2.910000e-06	-2.055141e-06	-4.528770e-09	-1.427293e+01	-2.973209e+02
2.920000e-06	-2.092179e-06	-4.636023e-09	-1.453016e+01	-3.045671e+02
2.930000e-06	-2.128272e-06	-4.736456e-09	-1.478082e+01	-3.113157e+02
2.940000e-06	-2.163610e-06	-4.835163e-09	-1.502624e+01	-3.176130e+02
