# Temperatura_=_25.46
# Concentracion g/m^3_=_15500.0
# C_Vs_to_Am_M_A/Vsm_=_65563218390.804596
# pendiente_HvsI_1/m_=_3716.3
# ordenada_HvsI_A/m_=_1297.0
# frecuencia_Hz_=_300845.77880905074

Tiempo_(s)	Campo_(V.s)	Magnetizacion_(V.s)	Campo_(kA/m)	Magnetizacion_(A/m)
0.000000e+00	-2.853595e-06	-5.718542e-09	-1.980581e+01	-3.739777e+02
1.000000e-08	-2.853238e-06	-5.720276e-09	-1.980333e+01	-3.739533e+02
2.000000e-08	-2.852080e-06	-5.718521e-09	-1.979529e+01	-3.738532e+02
3.000000e-08	-2.849880e-06	-5.713534e-09	-1.978002e+01	-3.736757e+02
4.000000e-08	-2.846444e-06	-5.711080e-09	-1.975617e+01	-3.734204e+02
5.000000e-08	-2.842030e-06	-5.707847e-09	-1.972554e+01	-3.730892e+02
6.000000e-08	-2.836882e-06	-5.694658e-09	-1.968980e+01	-3.726859e+02
7.000000e-08	-2.830834e-06	-5.663103e-09	-1.964783e+01	-3.722162e+02
8.000000e-08	-2.823742e-06	-5.657662e-09	-1.959861e+01	-3.716873e+02
9.000000e-08	-2.815637e-06	-5.739798e-09	-1.954235e+01	-3.711070e+02
1.000000e-07	-2.806284e-06	-5.814134e-09	-1.947744e+01	-3.704834e+02
1.100000e-07	-2.795484e-06	-5.657000e-09	-1.940248e+01	-3.698233e+02
1.200000e-07	-2.783657e-06	-5.464951e-09	-1.932039e+01	-3.691320e+02
1.300000e-07	-2.771064e-06	-5.604038e-09	-1.923299e+01	-3.684126e+02
1.400000e-07	-2.757474e-06	-5.810858e-09	-1.913866e+01	-3.676655e+02
1.500000e-07	-2.742974e-06	-5.570286e-09	-1.903802e+01	-3.668884e+02
1.600000e-07	-2.727462e-06	-5.442221e-09	-1.893036e+01	-3.660764e+02
1.700000e-07	-2.710506e-06	-5.747820e-09	-1.881267e+01	-3.652228e+02
1.800000e-07	-2.692397e-06	-5.662972e-09	-1.868699e+01	-3.643195e+02
1.900000e-07	-2.673643e-06	-5.402761e-09	-1.855682e+01	-3.633582e+02
2.000000e-07	-2.654113e-06	-5.582913e-09	-1.842127e+01	-3.623309e+02
2.100000e-07	-2.633583e-06	-5.612741e-09	-1.827878e+01	-3.612310e+02
2.200000e-07	-2.612271e-06	-5.342923e-09	-1.813086e+01	-3.600538e+02
2.300000e-07	-2.590188e-06	-5.479178e-09	-1.797759e+01	-3.587970e+02
2.400000e-07	-2.567073e-06	-5.641046e-09	-1.781716e+01	-3.574607e+02
2.500000e-07	-2.543074e-06	-5.405764e-09	-1.765059e+01	-3.560472e+02
2.600000e-07	-2.518417e-06	-5.341801e-09	-1.747945e+01	-3.545607e+02
2.700000e-07	-2.492917e-06	-5.464791e-09	-1.730247e+01	-3.530066e+02
2.800000e-07	-2.466264e-06	-5.368147e-09	-1.711748e+01	-3.513907e+02
2.900000e-07	-2.438445e-06	-5.307158e-09	-1.692440e+01	-3.497186e+02
3.000000e-07	-2.409686e-06	-5.329663e-09	-1.672479e+01	-3.479948e+02
3.100000e-07	-2.380178e-06	-5.298767e-09	-1.651998e+01	-3.462225e+02
3.200000e-07	-2.350005e-06	-5.318104e-09	-1.631056e+01	-3.444030e+02
3.300000e-07	-2.319038e-06	-5.259575e-09	-1.609563e+01	-3.425357e+02
3.400000e-07	-2.287205e-06	-5.177672e-09	-1.587469e+01	-3.406186e+02
3.500000e-07	-2.254768e-06	-5.175018e-09	-1.564956e+01	-3.386482e+02
3.600000e-07	-2.221806e-06	-5.134112e-09	-1.542078e+01	-3.366206e+02
3.700000e-07	-2.187926e-06	-5.107404e-09	-1.518563e+01	-3.345315e+02
3.800000e-07	-2.152787e-06	-5.125779e-09	-1.494174e+01	-3.323773e+02
3.900000e-07	-2.116671e-06	-5.036091e-09	-1.469108e+01	-3.301551e+02
4.000000e-07	-2.079970e-06	-4.984704e-09	-1.443634e+01	-3.278633e+02
4.100000e-07	-2.042634e-06	-5.018238e-09	-1.417721e+01	-3.255020e+02
4.200000e-07	-2.004556e-06	-4.950700e-09	-1.391292e+01	-3.230720e+02
4.300000e-07	-1.965731e-06	-4.867234e-09	-1.364345e+01	-3.205755e+02
4.400000e-07	-1.926146e-06	-4.855692e-09	-1.336870e+01	-3.180152e+02
4.500000e-07	-1.885956e-06	-4.838458e-09	-1.308976e+01	-3.153936e+02
4.600000e-07	-1.845440e-06	-4.790471e-09	-1.280855e+01	-3.127131e+02
4.700000e-07	-1.804543e-06	-4.744436e-09	-1.252470e+01	-3.099750e+02
4.800000e-07	-1.762833e-06	-4.690416e-09	-1.223520e+01	-3.071795e+02
4.900000e-07	-1.719981e-06	-4.649523e-09	-1.193778e+01	-3.043254e+02
5.000000e-07	-1.676168e-06	-4.618723e-09	-1.163370e+01	-3.014105e+02
5.100000e-07	-1.631834e-06	-4.569209e-09	-1.132599e+01	-2.984314e+02
5.200000e-07	-1.587186e-06	-4.504565e-09	-1.101610e+01	-2.953841e+02
5.300000e-07	-1.542068e-06	-4.458452e-09	-1.070296e+01	-2.922645e+02
5.400000e-07	-1.496341e-06	-4.431546e-09	-1.038558e+01	-2.890687e+02
5.500000e-07	-1.450047e-06	-4.382733e-09	-1.006427e+01	-2.857936e+02
5.600000e-07	-1.403204e-06	-4.316693e-09	-9.739145e+00	-2.824371e+02
5.700000e-07	-1.355871e-06	-4.252955e-09	-9.410628e+00	-2.789982e+02
5.800000e-07	-1.308016e-06	-4.209983e-09	-9.078479e+00	-2.754769e+02
5.900000e-07	-1.259732e-06	-4.164761e-09	-8.743358e+00	-2.718741e+02
6.000000e-07	-1.211209e-06	-4.099433e-09	-8.406577e+00	-2.681913e+02
6.100000e-07	-1.162367e-06	-4.035614e-09	-8.067585e+00	-2.644300e+02
6.200000e-07	-1.112986e-06	-3.985371e-09	-7.724846e+00	-2.605912e+02
6.300000e-07	-1.062905e-06	-3.934497e-09	-7.377251e+00	-2.566750e+02
6.400000e-07	-1.012142e-06	-3.865159e-09	-7.024924e+00	-2.526806e+02
6.500000e-07	-9.608787e-07	-3.789458e-09	-6.669122e+00	-2.486057e+02
6.600000e-07	-9.091607e-07	-3.722562e-09	-6.310166e+00	-2.444470e+02
6.700000e-07	-8.570056e-07	-3.668668e-09	-5.948176e+00	-2.401999e+02
6.800000e-07	-8.045994e-07	-3.607626e-09	-5.584443e+00	-2.358594e+02
6.900000e-07	-7.519549e-07	-3.532843e-09	-5.219056e+00	-2.314205e+02
7.000000e-07	-6.990555e-07	-3.458025e-09	-4.851899e+00	-2.268783e+02
7.100000e-07	-6.459370e-07	-3.392061e-09	-4.483223e+00	-2.222289e+02
7.200000e-07	-5.925842e-07	-3.323742e-09	-4.112920e+00	-2.174696e+02
7.300000e-07	-5.390018e-07	-3.240971e-09	-3.741023e+00	-2.125987e+02
7.400000e-07	-4.851661e-07	-3.158741e-09	-3.367368e+00	-2.076159e+02
7.500000e-07	-4.310942e-07	-3.085199e-09	-2.992074e+00	-2.025218e+02
7.600000e-07	-3.769144e-07	-3.013966e-09	-2.616031e+00	-1.973171e+02
7.700000e-07	-3.226742e-07	-2.930005e-09	-2.239569e+00	-1.920026e+02
7.800000e-07	-2.683344e-07	-2.836500e-09	-1.862415e+00	-1.865780e+02
7.900000e-07	-2.139120e-07	-2.749929e-09	-1.484689e+00	-1.810417e+02
8.000000e-07	-1.594684e-07	-2.671170e-09	-1.106814e+00	-1.753900e+02
8.100000e-07	-1.049771e-07	-2.583775e-09	-7.286091e-01	-1.696171e+02
8.200000e-07	-5.043540e-08	-2.483730e-09	-3.500544e-01	-1.637151e+02
8.300000e-07	4.109302e-09	-2.387466e-09	2.852123e-02	-1.576741e+02
8.400000e-07	5.864953e-08	-2.297547e-09	4.070659e-01	-1.514826e+02
8.500000e-07	1.131620e-07	-2.203292e-09	7.854178e-01	-1.451287e+02
8.600000e-07	1.676434e-07	-2.096702e-09	1.163554e+00	-1.386001e+02
8.700000e-07	2.220752e-07	-1.986104e-09	1.541346e+00	-1.318849e+02
8.800000e-07	2.764627e-07	-1.882794e-09	1.918831e+00	-1.249725e+02
8.900000e-07	3.307991e-07	-1.782207e-09	2.295960e+00	-1.178533e+02
9.000000e-07	3.850412e-07	-1.667412e-09	2.672436e+00	-1.105184e+02
9.100000e-07	4.391451e-07	-1.541553e-09	3.047952e+00	-1.029597e+02
9.200000e-07	4.930276e-07	-1.421675e-09	3.421932e+00	-9.516840e+01
9.300000e-07	5.466847e-07	-1.305386e-09	3.794347e+00	-8.713431e+01
9.400000e-07	6.001559e-07	-1.181148e-09	4.165472e+00	-7.884449e+01
9.500000e-07	6.533980e-07	-1.044675e-09	4.535007e+00	-7.028222e+01
9.600000e-07	7.063301e-07	-9.061621e-10	4.902390e+00	-6.142625e+01
9.700000e-07	7.589873e-07	-7.691265e-10	5.267865e+00	-5.225048e+01
9.800000e-07	8.114737e-07	-6.256507e-10	5.632155e+00	-4.272430e+01
9.900000e-07	8.637525e-07	-4.686804e-10	5.995004e+00	-3.281371e+01
1.000000e-06	9.156602e-07	-3.030666e-10	6.355277e+00	-2.248315e+01
1.010000e-06	9.671072e-07	-1.376170e-10	6.712353e+00	-1.169816e+01
1.020000e-06	1.018020e-06	3.134216e-11	7.065718e+00	-4.284982e-01
1.030000e-06	1.068268e-06	2.102517e-10	7.414476e+00	1.134825e+01
1.040000e-06	1.117846e-06	3.997208e-10	7.758581e+00	2.364309e+01
1.050000e-06	1.166913e-06	5.936093e-10	8.099133e+00	3.645225e+01
1.060000e-06	1.215626e-06	7.928484e-10	8.437237e+00	4.975438e+01
1.070000e-06	1.264033e-06	1.002538e-09	8.773210e+00	6.350870e+01
1.080000e-06	1.312101e-06	1.222989e-09	9.106837e+00	7.765421e+01
1.090000e-06	1.359695e-06	1.446553e-09	9.437169e+00	9.211029e+01
1.100000e-06	1.406767e-06	1.667707e-09	9.763881e+00	1.067787e+02
1.110000e-06	1.453392e-06	1.889445e-09	1.008748e+01	1.215465e+02
1.120000e-06	1.499515e-06	2.114628e-09	1.040761e+01	1.362910e+02
1.130000e-06	1.545056e-06	2.338695e-09	1.072369e+01	1.508844e+02
1.140000e-06	1.590071e-06	2.554372e-09	1.103612e+01	1.651997e+02
1.150000e-06	1.634730e-06	2.763036e-09	1.134609e+01	1.791164e+02
1.160000e-06	1.679072e-06	2.964719e-09	1.165385e+01	1.925259e+02
1.170000e-06	1.722871e-06	3.159360e-09	1.195785e+01	2.053361e+02
1.180000e-06	1.765796e-06	3.344556e-09	1.225577e+01	2.174748e+02
1.190000e-06	1.807727e-06	3.516770e-09	1.254680e+01	2.288920e+02
1.200000e-06	1.848856e-06	3.676842e-09	1.283226e+01	2.395608e+02
1.210000e-06	1.889413e-06	3.828480e-09	1.311375e+01	2.494762e+02
1.220000e-06	1.929449e-06	3.969787e-09	1.339163e+01	2.586536e+02
1.230000e-06	1.968898e-06	4.096590e-09	1.366543e+01	2.671251e+02
1.240000e-06	2.007677e-06	4.211331e-09	1.393458e+01	2.749362e+02
1.250000e-06	2.045678e-06	4.317254e-09	1.419834e+01	2.821409e+02
1.260000e-06	2.082925e-06	4.418263e-09	1.445685e+01	2.887975e+02
1.270000e-06	2.119652e-06	4.512756e-09	1.471177e+01	2.949649e+02
1.280000e-06	2.155921e-06	4.599053e-09	1.496349e+01	3.006985e+02
1.290000e-06	2.191359e-06	4.678589e-09	1.520945e+01	3.060481e+02
1.300000e-06	2.225677e-06	4.753542e-09	1.544764e+01	3.110560e+02
1.310000e-06	2.259000e-06	4.823712e-09	1.567893e+01	3.157563e+02
1.320000e-06	2.291613e-06	4.888102e-09	1.590528e+01	3.201754e+02
1.330000e-06	2.323537e-06	4.947851e-09	1.612686e+01	3.243324e+02
1.340000e-06	2.354684e-06	5.004322e-09	1.634304e+01	3.282411e+02
1.350000e-06	2.385047e-06	5.058436e-09	1.655378e+01	3.319115e+02
1.360000e-06	2.414594e-06	5.107846e-09	1.675885e+01	3.353515e+02
1.370000e-06	2.443446e-06	5.153406e-09	1.695910e+01	3.385689e+02
1.380000e-06	2.471643e-06	5.198304e-09	1.715481e+01	3.415721e+02
1.390000e-06	2.498864e-06	5.242468e-09	1.734374e+01	3.443711e+02
1.400000e-06	2.524830e-06	5.281754e-09	1.752396e+01	3.469781e+02
1.410000e-06	2.549693e-06	5.314449e-09	1.769653e+01	3.494068e+02
1.420000e-06	2.573696e-06	5.343310e-09	1.786313e+01	3.516720e+02
1.430000e-06	2.596859e-06	5.373481e-09	1.802389e+01	3.537888e+02
1.440000e-06	2.619108e-06	5.404798e-09	1.817831e+01	3.557716e+02
1.450000e-06	2.640508e-06	5.431434e-09	1.832684e+01	3.576334e+02
1.460000e-06	2.661238e-06	5.454722e-09	1.847072e+01	3.593848e+02
1.470000e-06	2.681203e-06	5.479285e-09	1.860929e+01	3.610336e+02
1.480000e-06	2.700194e-06	5.505650e-09	1.874110e+01	3.625850e+02
1.490000e-06	2.718179e-06	5.529170e-09	1.886593e+01	3.640417e+02
1.500000e-06	2.735215e-06	5.547212e-09	1.898417e+01	3.654042e+02
1.510000e-06	2.751233e-06	5.563874e-09	1.909535e+01	3.666718e+02
1.520000e-06	2.766150e-06	5.581481e-09	1.919888e+01	3.678433e+02
1.530000e-06	2.779988e-06	5.596723e-09	1.929492e+01	3.689175e+02
1.540000e-06	2.792826e-06	5.608217e-09	1.938403e+01	3.698945e+02
1.550000e-06	2.804560e-06	5.621012e-09	1.946547e+01	3.707755e+02
1.560000e-06	2.814948e-06	5.636494e-09	1.953757e+01	3.715631e+02
1.570000e-06	2.824148e-06	5.650583e-09	1.960143e+01	3.722615e+02
1.580000e-06	2.832444e-06	5.661666e-09	1.965900e+01	3.728757e+02
1.590000e-06	2.839835e-06	5.671286e-09	1.971030e+01	3.734111e+02
1.600000e-06	2.846243e-06	5.679160e-09	1.975478e+01	3.738730e+02
1.610000e-06	2.851714e-06	5.683546e-09	1.979275e+01	3.742660e+02
1.620000e-06	2.856361e-06	5.685408e-09	1.982500e+01	3.745932e+02
1.630000e-06	2.860064e-06	5.688545e-09	1.985070e+01	3.748562e+02
1.640000e-06	2.862489e-06	5.694874e-09	1.986753e+01	3.750547e+02
1.650000e-06	2.863720e-06	5.701850e-09	1.987608e+01	3.751872e+02
1.660000e-06	2.864069e-06	5.705430e-09	1.987850e+01	3.752508e+02
1.670000e-06	2.863537e-06	5.703121e-09	1.987481e+01	3.752424e+02
1.680000e-06	2.862080e-06	5.696914e-09	1.986470e+01	3.751589e+02
1.690000e-06	2.859734e-06	5.693378e-09	1.984841e+01	3.749981e+02
1.700000e-06	2.856642e-06	5.691526e-09	1.982695e+01	3.747595e+02
1.710000e-06	2.852826e-06	5.687201e-09	1.980047e+01	3.744444e+02
1.720000e-06	2.847904e-06	5.687440e-09	1.976630e+01	3.740563e+02
1.730000e-06	2.841734e-06	5.716867e-09	1.972348e+01	3.736003e+02
1.740000e-06	2.834651e-06	5.695437e-09	1.967432e+01	3.730835e+02
1.750000e-06	2.826656e-06	5.564274e-09	1.961883e+01	3.725137e+02
1.760000e-06	2.817209e-06	5.506482e-09	1.955326e+01	3.718988e+02
1.770000e-06	2.806155e-06	5.715079e-09	1.947654e+01	3.712461e+02
1.780000e-06	2.794371e-06	5.799517e-09	1.939475e+01	3.705613e+02
1.790000e-06	2.782515e-06	5.537745e-09	1.931246e+01	3.698479e+02
1.800000e-06	2.769695e-06	5.466883e-09	1.922349e+01	3.691069e+02
1.810000e-06	2.755109e-06	5.719887e-09	1.912225e+01	3.683367e+02
1.820000e-06	2.739588e-06	5.632812e-09	1.901452e+01	3.675328e+02
1.830000e-06	2.723507e-06	5.350124e-09	1.890291e+01	3.666888e+02
1.840000e-06	2.706091e-06	5.604036e-09	1.878203e+01	3.657970e+02
1.850000e-06	2.687452e-06	5.753943e-09	1.865266e+01	3.648489e+02
1.860000e-06	2.668257e-06	5.390895e-09	1.851944e+01	3.638364e+02
1.870000e-06	2.648173e-06	5.480173e-09	1.838005e+01	3.627526e+02
1.880000e-06	2.626763e-06	5.729392e-09	1.823144e+01	3.615924e+02
1.890000e-06	2.604393e-06	5.376701e-09	1.807618e+01	3.603528e+02
1.900000e-06	2.581103e-06	5.296104e-09	1.791453e+01	3.590335e+02
1.910000e-06	2.556845e-06	5.575397e-09	1.774617e+01	3.576364e+02
1.920000e-06	2.531887e-06	5.455433e-09	1.757294e+01	3.561652e+02
1.930000e-06	2.506082e-06	5.333121e-09	1.739384e+01	3.546252e+02
1.940000e-06	2.479369e-06	5.432831e-09	1.720844e+01	3.530222e+02
1.950000e-06	2.452050e-06	5.356224e-09	1.701882e+01	3.513618e+02
1.960000e-06	2.423857e-06	5.318969e-09	1.682315e+01	3.496489e+02
1.970000e-06	2.394392e-06	5.308062e-09	1.661863e+01	3.478869e+02
1.980000e-06	2.363919e-06	5.188259e-09	1.640713e+01	3.460775e+02
1.990000e-06	2.332716e-06	5.262085e-09	1.619057e+01	3.442207e+02
2.000000e-06	2.300810e-06	5.266568e-09	1.596912e+01	3.423146e+02
2.010000e-06	2.268131e-06	5.138846e-09	1.574231e+01	3.403561e+02
2.020000e-06	2.234596e-06	5.186444e-09	1.550955e+01	3.383412e+02
2.030000e-06	2.200322e-06	5.114230e-09	1.527167e+01	3.362657e+02
2.040000e-06	2.165453e-06	5.009686e-09	1.502965e+01	3.341258e+02
2.050000e-06	2.129919e-06	5.093569e-09	1.478302e+01	3.319184e+02
2.060000e-06	2.093718e-06	5.016855e-09	1.453176e+01	3.296418e+02
2.070000e-06	2.056587e-06	4.924136e-09	1.427405e+01	3.272954e+02
2.080000e-06	2.018297e-06	4.975782e-09	1.400829e+01	3.248800e+02
2.090000e-06	1.979245e-06	4.922497e-09	1.373725e+01	3.223977e+02
2.100000e-06	1.939672e-06	4.863860e-09	1.346259e+01	3.198509e+02
2.110000e-06	1.899450e-06	4.829660e-09	1.318342e+01	3.172424e+02
2.120000e-06	1.858614e-06	4.765913e-09	1.289999e+01	3.145744e+02
2.130000e-06	1.817215e-06	4.748374e-09	1.261265e+01	3.118487e+02
2.140000e-06	1.775202e-06	4.703773e-09	1.232105e+01	3.090656e+02
2.150000e-06	1.732550e-06	4.651272e-09	1.202503e+01	3.062244e+02
2.160000e-06	1.689430e-06	4.617380e-09	1.172574e+01	3.033228e+02
2.170000e-06	1.645913e-06	4.571331e-09	1.142371e+01	3.003579e+02
2.180000e-06	1.601820e-06	4.541922e-09	1.111767e+01	2.973257e+02
2.190000e-06	1.557032e-06	4.485940e-09	1.080682e+01	2.942220e+02
2.200000e-06	1.511593e-06	4.413770e-09	1.049144e+01	2.910429e+02
2.210000e-06	1.465726e-06	4.375622e-09	1.017309e+01	2.877852e+02
2.220000e-06	1.419507e-06	4.334099e-09	9.852299e+00	2.844463e+02
2.230000e-06	1.372766e-06	4.292720e-09	9.527889e+00	2.810252e+02
2.240000e-06	1.325444e-06	4.230375e-09	9.199440e+00	2.775215e+02
2.250000e-06	1.277535e-06	4.164003e-09	8.866923e+00	2.739362e+02
2.260000e-06	1.229043e-06	4.127326e-09	8.530357e+00	2.702706e+02
2.270000e-06	1.180119e-06	4.065865e-09	8.190794e+00	2.665261e+02
2.280000e-06	1.130810e-06	4.001212e-09	7.848555e+00	2.627039e+02
2.290000e-06	1.081094e-06	3.945739e-09	7.503492e+00	2.588044e+02
2.300000e-06	1.030927e-06	3.889569e-09	7.155306e+00	2.548270e+02
2.310000e-06	9.802892e-07	3.840067e-09	6.803845e+00	2.507698e+02
2.320000e-06	9.293481e-07	3.770452e-09	6.450280e+00	2.466294e+02
2.330000e-06	8.781730e-07	3.691198e-09	6.095091e+00	2.424017e+02
2.340000e-06	8.267173e-07	3.621560e-09	5.737955e+00	2.380818e+02
2.350000e-06	7.749322e-07	3.559503e-09	5.378533e+00	2.336645e+02
2.360000e-06	7.227377e-07	3.500922e-09	5.016269e+00	2.291449e+02
2.370000e-06	6.701468e-07	3.429397e-09	4.651254e+00	2.245189e+02
2.380000e-06	6.171484e-07	3.357872e-09	4.283411e+00	2.197834e+02
2.390000e-06	5.637749e-07	3.292313e-09	3.912964e+00	2.149365e+02
2.400000e-06	5.100435e-07	3.214983e-09	3.540034e+00	2.099778e+02
2.410000e-06	4.560052e-07	3.132262e-09	3.164972e+00	2.049076e+02
2.420000e-06	4.018260e-07	3.047450e-09	2.788934e+00	1.997266e+02
2.430000e-06	3.474577e-07	2.969077e-09	2.411582e+00	1.944357e+02
2.440000e-06	2.928422e-07	2.896164e-09	2.032515e+00	1.890349e+02
2.450000e-06	2.380340e-07	2.812527e-09	1.652111e+00	1.835228e+02
2.460000e-06	1.831304e-07	2.724645e-09	1.271044e+00	1.778964e+02
2.470000e-06	1.282664e-07	2.637235e-09	8.902521e-01	1.721502e+02
2.480000e-06	7.340052e-08	2.552439e-09	5.094473e-01	1.662767e+02
2.490000e-06	1.846391e-08	2.464953e-09	1.281515e-01	1.602665e+02
2.500000e-06	-3.649102e-08	2.367382e-09	-2.532714e-01	1.541084e+02
2.510000e-06	-9.146972e-08	2.270408e-09	-6.348593e-01	1.477904e+02
2.520000e-06	-1.464446e-07	2.178702e-09	-1.016421e+00	1.413003e+02
2.530000e-06	-2.013487e-07	2.081091e-09	-1.397491e+00	1.346262e+02
2.540000e-06	-2.561717e-07	1.971448e-09	-1.777998e+00	1.277570e+02
2.550000e-06	-3.109086e-07	1.858996e-09	-2.157908e+00	1.206829e+02
2.560000e-06	-3.655132e-07	1.752554e-09	-2.536899e+00	1.133951e+02
2.570000e-06	-4.199212e-07	1.645502e-09	-2.914526e+00	1.058851e+02
2.580000e-06	-4.740557e-07	1.529151e-09	-3.290255e+00	9.814455e+01
2.590000e-06	-5.279140e-07	1.408866e-09	-3.664066e+00	9.016357e+01
2.600000e-06	-5.814176e-07	1.286234e-09	-4.035416e+00	8.192991e+01
2.610000e-06	-6.345139e-07	1.157238e-09	-4.403939e+00	7.342774e+01
2.620000e-06	-6.872770e-07	1.019936e-09	-4.770149e+00	6.463684e+01
2.630000e-06	-7.396660e-07	8.762118e-10	-5.133763e+00	5.553213e+01
2.640000e-06	-7.916324e-07	7.303615e-10	-5.494443e+00	4.608391e+01
2.650000e-06	-8.432439e-07	5.840292e-10	-5.852660e+00	3.625876e+01
2.660000e-06	-8.945885e-07	4.342085e-10	-6.209026e+00	2.602128e+01
2.670000e-06	-9.456760e-07	2.760401e-10	-6.563606e+00	1.533650e+01
2.680000e-06	-9.964632e-07	1.084894e-10	-6.916103e+00	4.173008e+00
2.690000e-06	-1.046835e-06	-6.971998e-11	-7.265714e+00	-7.493608e+00
2.700000e-06	-1.096719e-06	-2.574659e-10	-7.611942e+00	-1.967710e+01
2.710000e-06	-1.146219e-06	-4.518486e-10	-7.955506e+00	-3.237711e+01
2.720000e-06	-1.195359e-06	-6.528450e-10	-8.296569e+00	-4.557626e+01
2.730000e-06	-1.243998e-06	-8.611470e-10	-8.634154e+00	-5.923803e+01
2.740000e-06	-1.291883e-06	-1.074564e-09	-8.966509e+00	-7.330575e+01
2.750000e-06	-1.338999e-06	-1.293033e-09	-9.293522e+00	-8.770290e+01
2.760000e-06	-1.385482e-06	-1.516769e-09	-9.616145e+00	-1.023347e+02
2.770000e-06	-1.431512e-06	-1.741643e-09	-9.935623e+00	-1.170913e+02
2.780000e-06	-1.477198e-06	-1.967511e-09	-1.025271e+01	-1.318513e+02
2.790000e-06	-1.522510e-06	-2.195252e-09	-1.056721e+01	-1.464878e+02
2.800000e-06	-1.567364e-06	-2.420833e-09	-1.087852e+01	-1.608731e+02
2.810000e-06	-1.611587e-06	-2.636433e-09	-1.118546e+01	-1.748847e+02
2.820000e-06	-1.655282e-06	-2.840998e-09	-1.148874e+01	-1.884112e+02
2.830000e-06	-1.698615e-06	-3.036519e-09	-1.178950e+01	-2.013565e+02
2.840000e-06	-1.741552e-06	-3.222230e-09	-1.208750e+01	-2.136439e+02
2.850000e-06	-1.783917e-06	-3.398698e-09	-1.238155e+01	-2.252187e+02
2.860000e-06	-1.825656e-06	-3.564349e-09	-1.267124e+01	-2.360490e+02
2.870000e-06	-1.866815e-06	-3.719379e-09	-1.295691e+01	-2.461251e+02
2.880000e-06	-1.907308e-06	-3.865443e-09	-1.323796e+01	-2.554583e+02
2.890000e-06	-1.947111e-06	-4.002546e-09	-1.351421e+01	-2.640776e+02
2.900000e-06	-1.986404e-06	-4.128102e-09	-1.378693e+01	-2.720257e+02
2.910000e-06	-2.025185e-06	-4.241309e-09	-1.405610e+01	-2.793554e+02
2.920000e-06	-2.063165e-06	-4.342455e-09	-1.431970e+01	-2.861244e+02
2.930000e-06	-2.100047e-06	-4.434416e-09	-1.457569e+01	-2.923917e+02
2.940000e-06	-2.135944e-06	-4.522399e-09	-1.482484e+01	-2.982137e+02
