# Temperatura_=_24.35
# Concentracion g/m^3_=_15500.0
# C_Vs_to_Am_M_A/Vsm_=_65563218390.804596
# pendiente_HvsI_1/m_=_3716.3
# ordenada_HvsI_A/m_=_1297.0
# frecuencia_Hz_=_300842.7129237441

Tiempo_(s)	Campo_(V.s)	Magnetizacion_(V.s)	Campo_(kA/m)	Magnetizacion_(A/m)
0.000000e+00	-2.851369e-06	-5.662931e-09	-1.980534e+01	-3.704259e+02
1.000000e-08	-2.851005e-06	-5.660900e-09	-1.980282e+01	-3.704094e+02
2.000000e-08	-2.849904e-06	-5.660197e-09	-1.979517e+01	-3.703253e+02
3.000000e-08	-2.847798e-06	-5.656163e-09	-1.978054e+01	-3.701707e+02
4.000000e-08	-2.844367e-06	-5.650990e-09	-1.975671e+01	-3.699435e+02
5.000000e-08	-2.839938e-06	-5.646044e-09	-1.972595e+01	-3.696430e+02
6.000000e-08	-2.834826e-06	-5.636163e-09	-1.969044e+01	-3.692699e+02
7.000000e-08	-2.828843e-06	-5.617145e-09	-1.964889e+01	-3.688269e+02
8.000000e-08	-2.821834e-06	-5.600182e-09	-1.960020e+01	-3.683183e+02
9.000000e-08	-2.813718e-06	-5.650855e-09	-1.954383e+01	-3.677495e+02
1.000000e-07	-2.804367e-06	-5.721333e-09	-1.947887e+01	-3.671267e+02
1.100000e-07	-2.793605e-06	-5.659560e-09	-1.940412e+01	-3.664558e+02
1.200000e-07	-2.781682e-06	-5.442879e-09	-1.932131e+01	-3.657422e+02
1.300000e-07	-2.769050e-06	-5.491309e-09	-1.923357e+01	-3.649897e+02
1.400000e-07	-2.755563e-06	-5.704221e-09	-1.913988e+01	-3.642004e+02
1.500000e-07	-2.741091e-06	-5.599936e-09	-1.903936e+01	-3.633740e+02
1.600000e-07	-2.725625e-06	-5.371119e-09	-1.893194e+01	-3.625085e+02
1.700000e-07	-2.708802e-06	-5.575756e-09	-1.881509e+01	-3.615995e+02
1.800000e-07	-2.690693e-06	-5.694896e-09	-1.868930e+01	-3.606417e+02
1.900000e-07	-2.671915e-06	-5.374948e-09	-1.855888e+01	-3.596288e+02
2.000000e-07	-2.652471e-06	-5.438523e-09	-1.842382e+01	-3.585547e+02
2.100000e-07	-2.632083e-06	-5.599718e-09	-1.828221e+01	-3.574139e+02
2.200000e-07	-2.610867e-06	-5.363814e-09	-1.813484e+01	-3.562022e+02
2.300000e-07	-2.588882e-06	-5.346659e-09	-1.798213e+01	-3.549174e+02
2.400000e-07	-2.565880e-06	-5.561978e-09	-1.782237e+01	-3.535593e+02
2.500000e-07	-2.541929e-06	-5.400914e-09	-1.765600e+01	-3.521293e+02
2.600000e-07	-2.517308e-06	-5.271349e-09	-1.748499e+01	-3.506310e+02
2.700000e-07	-2.491826e-06	-5.368818e-09	-1.730799e+01	-3.490687e+02
2.800000e-07	-2.465185e-06	-5.347886e-09	-1.712295e+01	-3.474477e+02
2.900000e-07	-2.437447e-06	-5.264444e-09	-1.693028e+01	-3.457728e+02
3.000000e-07	-2.408770e-06	-5.265274e-09	-1.673110e+01	-3.440482e+02
3.100000e-07	-2.379274e-06	-5.242366e-09	-1.652622e+01	-3.422768e+02
3.200000e-07	-2.349113e-06	-5.250332e-09	-1.631672e+01	-3.404598e+02
3.300000e-07	-2.318260e-06	-5.211427e-09	-1.610242e+01	-3.385968e+02
3.400000e-07	-2.286545e-06	-5.090822e-09	-1.588213e+01	-3.366855e+02
3.500000e-07	-2.254107e-06	-5.137480e-09	-1.565682e+01	-3.347225e+02
3.600000e-07	-2.221132e-06	-5.100989e-09	-1.542777e+01	-3.327034e+02
3.700000e-07	-2.187363e-06	-5.019692e-09	-1.519322e+01	-3.306236e+02
3.800000e-07	-2.152402e-06	-5.073991e-09	-1.495038e+01	-3.284788e+02
3.900000e-07	-2.116376e-06	-5.015663e-09	-1.470015e+01	-3.262655e+02
4.000000e-07	-2.079724e-06	-4.896374e-09	-1.444557e+01	-3.239817e+02
4.100000e-07	-2.042491e-06	-4.944690e-09	-1.418695e+01	-3.216264e+02
4.200000e-07	-2.004533e-06	-4.920930e-09	-1.392330e+01	-3.192003e+02
4.300000e-07	-1.965836e-06	-4.797252e-09	-1.365452e+01	-3.167054e+02
4.400000e-07	-1.926442e-06	-4.793221e-09	-1.338089e+01	-3.141444e+02
4.500000e-07	-1.886390e-06	-4.782921e-09	-1.310269e+01	-3.115204e+02
4.600000e-07	-1.845852e-06	-4.732036e-09	-1.282112e+01	-3.088363e+02
4.700000e-07	-1.804920e-06	-4.682648e-09	-1.253681e+01	-3.060945e+02
4.800000e-07	-1.763295e-06	-4.635732e-09	-1.224769e+01	-3.032960e+02
4.900000e-07	-1.720650e-06	-4.586185e-09	-1.195147e+01	-3.004408e+02
5.000000e-07	-1.676991e-06	-4.555429e-09	-1.164822e+01	-2.975271e+02
5.100000e-07	-1.632669e-06	-4.510552e-09	-1.134037e+01	-2.945521e+02
5.200000e-07	-1.587974e-06	-4.451989e-09	-1.102992e+01	-2.915119e+02
5.300000e-07	-1.542866e-06	-4.408542e-09	-1.071661e+01	-2.884021e+02
5.400000e-07	-1.497185e-06	-4.361501e-09	-1.039931e+01	-2.852181e+02
5.500000e-07	-1.450917e-06	-4.320869e-09	-1.007794e+01	-2.819558e+02
5.600000e-07	-1.404143e-06	-4.260312e-09	-9.753045e+00	-2.786118e+02
5.700000e-07	-1.356880e-06	-4.194756e-09	-9.424766e+00	-2.751839e+02
5.800000e-07	-1.309164e-06	-4.142801e-09	-9.093331e+00	-2.716712e+02
5.900000e-07	-1.261067e-06	-4.106164e-09	-8.759258e+00	-2.680738e+02
6.000000e-07	-1.212617e-06	-4.040092e-09	-8.422723e+00	-2.643927e+02
6.100000e-07	-1.163746e-06	-3.969035e-09	-8.083270e+00	-2.606296e+02
6.200000e-07	-1.114385e-06	-3.922563e-09	-7.740413e+00	-2.567863e+02
6.300000e-07	-1.064362e-06	-3.869533e-09	-7.392959e+00	-2.528641e+02
6.400000e-07	-1.013640e-06	-3.806052e-09	-7.040650e+00	-2.488639e+02
6.500000e-07	-9.624361e-07	-3.730242e-09	-6.684992e+00	-2.447852e+02
6.600000e-07	-9.108141e-07	-3.662022e-09	-6.326431e+00	-2.406267e+02
6.700000e-07	-8.587919e-07	-3.600579e-09	-5.965089e+00	-2.363857e+02
6.800000e-07	-8.064621e-07	-3.541604e-09	-5.601611e+00	-2.320589e+02
6.900000e-07	-7.538963e-07	-3.471331e-09	-5.236494e+00	-2.276423e+02
7.000000e-07	-7.010572e-07	-3.398370e-09	-4.869479e+00	-2.231315e+02
7.100000e-07	-6.479226e-07	-3.331265e-09	-4.500411e+00	-2.185227e+02
7.200000e-07	-5.945575e-07	-3.263085e-09	-4.129742e+00	-2.138125e+02
7.300000e-07	-5.410197e-07	-3.187192e-09	-3.757873e+00	-2.089983e+02
7.400000e-07	-4.873254e-07	-3.103610e-09	-3.384917e+00	-2.040785e+02
7.500000e-07	-4.334092e-07	-3.028013e-09	-3.010420e+00	-1.990519e+02
7.600000e-07	-3.792991e-07	-2.953292e-09	-2.634576e+00	-1.939181e+02
7.700000e-07	-3.250744e-07	-2.874598e-09	-2.257937e+00	-1.886764e+02
7.800000e-07	-2.707833e-07	-2.785811e-09	-1.880836e+00	-1.833259e+02
7.900000e-07	-2.164356e-07	-2.699296e-09	-1.503341e+00	-1.778642e+02
8.000000e-07	-1.620026e-07	-2.619227e-09	-1.125255e+00	-1.722876e+02
8.100000e-07	-1.075430e-07	-2.532759e-09	-7.469836e-01	-1.665908e+02
8.200000e-07	-5.309499e-08	-2.439717e-09	-3.687929e-01	-1.607662e+02
8.300000e-07	1.360301e-09	-2.345095e-09	9.448528e-03	-1.548046e+02
8.400000e-07	5.581099e-08	-2.253218e-09	3.876580e-01	-1.486953e+02
8.500000e-07	1.102394e-07	-2.155910e-09	7.657126e-01	-1.424268e+02
8.600000e-07	1.646644e-07	-2.055208e-09	1.143744e+00	-1.359871e+02
8.700000e-07	2.190802e-07	-1.950957e-09	1.521711e+00	-1.293646e+02
8.800000e-07	2.734657e-07	-1.848150e-09	1.899467e+00	-1.225481e+02
8.900000e-07	3.277923e-07	-1.744345e-09	2.276815e+00	-1.155277e+02
9.000000e-07	3.819941e-07	-1.633691e-09	2.653296e+00	-1.082944e+02
9.100000e-07	4.360532e-07	-1.516484e-09	3.028785e+00	-1.008399e+02
9.200000e-07	4.899416e-07	-1.396141e-09	3.403089e+00	-9.315556e+01
9.300000e-07	5.435845e-07	-1.278969e-09	3.775688e+00	-8.523223e+01
9.400000e-07	5.970196e-07	-1.155746e-09	4.146843e+00	-7.705862e+01
9.500000e-07	6.502404e-07	-1.025089e-09	4.516509e+00	-6.862051e+01
9.600000e-07	7.031663e-07	-8.869129e-10	4.884128e+00	-5.989991e+01
9.700000e-07	7.558323e-07	-7.481192e-10	5.249941e+00	-5.087457e+01
9.800000e-07	8.082625e-07	-6.067372e-10	5.614117e+00	-4.151807e+01
9.900000e-07	8.604902e-07	-4.578350e-10	5.976885e+00	-3.180057e+01
1.000000e-06	9.123582e-07	-2.997509e-10	6.337156e+00	-2.169024e+01
1.010000e-06	9.637344e-07	-1.339869e-10	6.694010e+00	-1.115543e+01
1.020000e-06	1.014588e-06	3.233462e-11	7.047232e+00	-1.674276e-01
1.030000e-06	1.064777e-06	2.033900e-10	7.395844e+00	1.129635e+01
1.040000e-06	1.114330e-06	3.839114e-10	7.740035e+00	2.324897e+01
1.050000e-06	1.163405e-06	5.777451e-10	8.080903e+00	3.569071e+01
1.060000e-06	1.212120e-06	7.777388e-10	8.419274e+00	4.860619e+01
1.070000e-06	1.260546e-06	9.803381e-10	8.755638e+00	6.196225e+01
1.080000e-06	1.308633e-06	1.187908e-09	9.089645e+00	7.570681e+01
1.090000e-06	1.356234e-06	1.402893e-09	9.420278e+00	8.976891e+01
1.100000e-06	1.403310e-06	1.622366e-09	9.747265e+00	1.040600e+02
1.110000e-06	1.449897e-06	1.839614e-09	1.007085e+01	1.184767e+02
1.120000e-06	1.495998e-06	2.056953e-09	1.039106e+01	1.329042e+02
1.130000e-06	1.541587e-06	2.274839e-09	1.070772e+01	1.472213e+02
1.140000e-06	1.586656e-06	2.491957e-09	1.102077e+01	1.613057e+02
1.150000e-06	1.631320e-06	2.701753e-09	1.133099e+01	1.750389e+02
1.160000e-06	1.675636e-06	2.899899e-09	1.163881e+01	1.883125e+02
1.170000e-06	1.719408e-06	3.087499e-09	1.194285e+01	2.010321e+02
1.180000e-06	1.762358e-06	3.270053e-09	1.224118e+01	2.131216e+02
1.190000e-06	1.804304e-06	3.445374e-09	1.253253e+01	2.245255e+02
1.200000e-06	1.845392e-06	3.607336e-09	1.281792e+01	2.352105e+02
1.210000e-06	1.885955e-06	3.757816e-09	1.309967e+01	2.451649e+02
1.220000e-06	1.926080e-06	3.900568e-09	1.337837e+01	2.543975e+02
1.230000e-06	1.965643e-06	4.033677e-09	1.365317e+01	2.629346e+02
1.240000e-06	2.004475e-06	4.150543e-09	1.392290e+01	2.708166e+02
1.250000e-06	2.042526e-06	4.254773e-09	1.418719e+01	2.780938e+02
1.260000e-06	2.079861e-06	4.353436e-09	1.444652e+01	2.848219e+02
1.270000e-06	2.116603e-06	4.450659e-09	1.470173e+01	2.910581e+02
1.280000e-06	2.152845e-06	4.540496e-09	1.495346e+01	2.968576e+02
1.290000e-06	2.188352e-06	4.620272e-09	1.520009e+01	3.022701e+02
1.300000e-06	2.222720e-06	4.694924e-09	1.543881e+01	3.073386e+02
1.310000e-06	2.256006e-06	4.768171e-09	1.567001e+01	3.120976e+02
1.320000e-06	2.288581e-06	4.838643e-09	1.589627e+01	3.165739e+02
1.330000e-06	2.320503e-06	4.901191e-09	1.611800e+01	3.207866e+02
1.340000e-06	2.351653e-06	4.957389e-09	1.633436e+01	3.247489e+02
1.350000e-06	2.382016e-06	5.010919e-09	1.654526e+01	3.284698e+02
1.360000e-06	2.411566e-06	5.061093e-09	1.675052e+01	3.319559e+02
1.370000e-06	2.440366e-06	5.106781e-09	1.695056e+01	3.352132e+02
1.380000e-06	2.468540e-06	5.150714e-09	1.714625e+01	3.382487e+02
1.390000e-06	2.495797e-06	5.194837e-09	1.733558e+01	3.410711e+02
1.400000e-06	2.521816e-06	5.234409e-09	1.751630e+01	3.436918e+02
1.410000e-06	2.546738e-06	5.266267e-09	1.768941e+01	3.461243e+02
1.420000e-06	2.570812e-06	5.295784e-09	1.785662e+01	3.483841e+02
1.430000e-06	2.594025e-06	5.327262e-09	1.801786e+01	3.504874e+02
1.440000e-06	2.616329e-06	5.357298e-09	1.817278e+01	3.524506e+02
1.450000e-06	2.637772e-06	5.383764e-09	1.832172e+01	3.542889e+02
1.460000e-06	2.658467e-06	5.408412e-09	1.846546e+01	3.560154e+02
1.470000e-06	2.678438e-06	5.433397e-09	1.860418e+01	3.576404e+02
1.480000e-06	2.697421e-06	5.457008e-09	1.873604e+01	3.591711e+02
1.490000e-06	2.715384e-06	5.477419e-09	1.886080e+01	3.606116e+02
1.500000e-06	2.732423e-06	5.496614e-09	1.897915e+01	3.619632e+02
1.510000e-06	2.748395e-06	5.516886e-09	1.909010e+01	3.632251e+02
1.520000e-06	2.763228e-06	5.536578e-09	1.919313e+01	3.643954e+02
1.530000e-06	2.777058e-06	5.551790e-09	1.928919e+01	3.654716e+02
1.540000e-06	2.789959e-06	5.563714e-09	1.937880e+01	3.664520e+02
1.550000e-06	2.801779e-06	5.575801e-09	1.946090e+01	3.673358e+02
1.560000e-06	2.812322e-06	5.589910e-09	1.953413e+01	3.681239e+02
1.570000e-06	2.821601e-06	5.603578e-09	1.959858e+01	3.688190e+02
1.580000e-06	2.829929e-06	5.613857e-09	1.965643e+01	3.694252e+02
1.590000e-06	2.837402e-06	5.621319e-09	1.970834e+01	3.699480e+02
1.600000e-06	2.843862e-06	5.630064e-09	1.975320e+01	3.703932e+02
1.610000e-06	2.849320e-06	5.637789e-09	1.979111e+01	3.707668e+02
1.620000e-06	2.853957e-06	5.640147e-09	1.982332e+01	3.710737e+02
1.630000e-06	2.857714e-06	5.640907e-09	1.984942e+01	3.713178e+02
1.640000e-06	2.860246e-06	5.646350e-09	1.986701e+01	3.715011e+02
1.650000e-06	2.861540e-06	5.653800e-09	1.987599e+01	3.716242e+02
1.660000e-06	2.861901e-06	5.657350e-09	1.987850e+01	3.716857e+02
1.670000e-06	2.861385e-06	5.656533e-09	1.987491e+01	3.716834e+02
1.680000e-06	2.859944e-06	5.653016e-09	1.986491e+01	3.716142e+02
1.690000e-06	2.857626e-06	5.650984e-09	1.984881e+01	3.714750e+02
1.700000e-06	2.854507e-06	5.648040e-09	1.982714e+01	3.712636e+02
1.710000e-06	2.850631e-06	5.641247e-09	1.980022e+01	3.709788e+02
1.720000e-06	2.845709e-06	5.637987e-09	1.976603e+01	3.706212e+02
1.730000e-06	2.839596e-06	5.654215e-09	1.972357e+01	3.701930e+02
1.740000e-06	2.832525e-06	5.666779e-09	1.967446e+01	3.696981e+02
1.750000e-06	2.824570e-06	5.568266e-09	1.961920e+01	3.691419e+02
1.760000e-06	2.815268e-06	5.488449e-09	1.955459e+01	3.685302e+02
1.770000e-06	2.804322e-06	5.601516e-09	1.947856e+01	3.678692e+02
1.780000e-06	2.792524e-06	5.757511e-09	1.939661e+01	3.671645e+02
1.790000e-06	2.780643e-06	5.594487e-09	1.931409e+01	3.664202e+02
1.800000e-06	2.767958e-06	5.390037e-09	1.922598e+01	3.656388e+02
1.810000e-06	2.753531e-06	5.614798e-09	1.912577e+01	3.648207e+02
1.820000e-06	2.737992e-06	5.660192e-09	1.901784e+01	3.639639e+02
1.830000e-06	2.721954e-06	5.358601e-09	1.890644e+01	3.630648e+02
1.840000e-06	2.704731e-06	5.421504e-09	1.878681e+01	3.621180e+02
1.850000e-06	2.686164e-06	5.689345e-09	1.865785e+01	3.611176e+02
1.860000e-06	2.666970e-06	5.452195e-09	1.852453e+01	3.600572e+02
1.870000e-06	2.647093e-06	5.313434e-09	1.838646e+01	3.589312e+02
1.880000e-06	2.625935e-06	5.622621e-09	1.823950e+01	3.577350e+02
1.890000e-06	2.603672e-06	5.444813e-09	1.808486e+01	3.564661e+02
1.900000e-06	2.580508e-06	5.186332e-09	1.792397e+01	3.551237e+02
1.910000e-06	2.556322e-06	5.459360e-09	1.775598e+01	3.537090e+02
1.920000e-06	2.531383e-06	5.442172e-09	1.758276e+01	3.522251e+02
1.930000e-06	2.505685e-06	5.250328e-09	1.740425e+01	3.506762e+02
1.940000e-06	2.479043e-06	5.340351e-09	1.721921e+01	3.490675e+02
1.950000e-06	2.451729e-06	5.298867e-09	1.702948e+01	3.474038e+02
1.960000e-06	2.423625e-06	5.247559e-09	1.683427e+01	3.456897e+02
1.970000e-06	2.394240e-06	5.267451e-09	1.663017e+01	3.439282e+02
1.980000e-06	2.363736e-06	5.132439e-09	1.641829e+01	3.421211e+02
1.990000e-06	2.332472e-06	5.164530e-09	1.620114e+01	3.402682e+02
2.000000e-06	2.300535e-06	5.231271e-09	1.597930e+01	3.383676e+02
2.010000e-06	2.267923e-06	5.047256e-09	1.575278e+01	3.364161e+02
2.020000e-06	2.234500e-06	5.089943e-09	1.552063e+01	3.344095e+02
2.030000e-06	2.200289e-06	5.117433e-09	1.528300e+01	3.323432e+02
2.040000e-06	2.165464e-06	4.929729e-09	1.504112e+01	3.302128e+02
2.050000e-06	2.130033e-06	5.011891e-09	1.479501e+01	3.280146e+02
2.060000e-06	2.093953e-06	5.021024e-09	1.454440e+01	3.257460e+02
2.070000e-06	2.056927e-06	4.842788e-09	1.428722e+01	3.234061e+02
2.080000e-06	2.018687e-06	4.882928e-09	1.402162e+01	3.209952e+02
2.090000e-06	1.979600e-06	4.880165e-09	1.375012e+01	3.185149e+02
2.100000e-06	1.940032e-06	4.781258e-09	1.347528e+01	3.159679e+02
2.110000e-06	1.899884e-06	4.772535e-09	1.319642e+01	3.133573e+02
2.120000e-06	1.859107e-06	4.714057e-09	1.291318e+01	3.106860e+02
2.130000e-06	1.817738e-06	4.688957e-09	1.262584e+01	3.079565e+02
2.140000e-06	1.775764e-06	4.665679e-09	1.233429e+01	3.051703e+02
2.150000e-06	1.733175e-06	4.583118e-09	1.203847e+01	3.023273e+02
2.160000e-06	1.690049e-06	4.555514e-09	1.173892e+01	2.994265e+02
2.170000e-06	1.646534e-06	4.510309e-09	1.143667e+01	2.964650e+02
2.180000e-06	1.602504e-06	4.468231e-09	1.113085e+01	2.934393e+02
2.190000e-06	1.557829e-06	4.432106e-09	1.082054e+01	2.903449e+02
2.200000e-06	1.512524e-06	4.368582e-09	1.050585e+01	2.871773e+02
2.210000e-06	1.466651e-06	4.318242e-09	1.018722e+01	2.839321e+02
2.220000e-06	1.420380e-06	4.272625e-09	9.865829e+00	2.806060e+02
2.230000e-06	1.373677e-06	4.227636e-09	9.541432e+00	2.771963e+02
2.240000e-06	1.326422e-06	4.171292e-09	9.213207e+00	2.737019e+02
2.250000e-06	1.278620e-06	4.099898e-09	8.881174e+00	2.701227e+02
2.260000e-06	1.230197e-06	4.065569e-09	8.544833e+00	2.664595e+02
2.270000e-06	1.181261e-06	4.017033e-09	8.204929e+00	2.627139e+02
2.280000e-06	1.131962e-06	3.939495e-09	7.862503e+00	2.588877e+02
2.290000e-06	1.082320e-06	3.887944e-09	7.517696e+00	2.549825e+02
2.300000e-06	1.032250e-06	3.825863e-09	7.169913e+00	2.509991e+02
2.310000e-06	9.816960e-07	3.770574e-09	6.818770e+00	2.469374e+02
2.320000e-06	9.307903e-07	3.709591e-09	6.465183e+00	2.427963e+02
2.330000e-06	8.796239e-07	3.634567e-09	6.109786e+00	2.385734e+02
2.340000e-06	8.282316e-07	3.574024e-09	5.752820e+00	2.342654e+02
2.350000e-06	7.765725e-07	3.506101e-09	5.394001e+00	2.298685e+02
2.360000e-06	7.245431e-07	3.440104e-09	5.032610e+00	2.253783e+02
2.370000e-06	6.721418e-07	3.370255e-09	4.668635e+00	2.207910e+02
2.380000e-06	6.192992e-07	3.294793e-09	4.301595e+00	2.161028e+02
2.390000e-06	5.660372e-07	3.227959e-09	3.931642e+00	2.113112e+02
2.400000e-06	5.124106e-07	3.156303e-09	3.559157e+00	2.064142e+02
2.410000e-06	4.584002e-07	3.079261e-09	3.184005e+00	2.014106e+02
2.420000e-06	4.041457e-07	3.001335e-09	2.807159e+00	1.962999e+02
2.430000e-06	3.497182e-07	2.922118e-09	2.429110e+00	1.910816e+02
2.440000e-06	2.951219e-07	2.847219e-09	2.049889e+00	1.857546e+02
2.450000e-06	2.403486e-07	2.763572e-09	1.669439e+00	1.803171e+02
2.460000e-06	1.854356e-07	2.673300e-09	1.288018e+00	1.747657e+02
2.470000e-06	1.305213e-07	2.590020e-09	9.065891e-01	1.690952e+02
2.480000e-06	7.560686e-08	2.506033e-09	5.251583e-01	1.632988e+02
2.490000e-06	2.063147e-08	2.419979e-09	1.433043e-01	1.573675e+02
2.500000e-06	-3.433627e-08	2.324486e-09	-2.384966e-01	1.512910e+02
2.510000e-06	-8.927199e-08	2.227156e-09	-6.200750e-01	1.450577e+02
2.520000e-06	-1.442066e-07	2.134520e-09	-1.001645e+00	1.386558e+02
2.530000e-06	-1.990952e-07	2.036327e-09	-1.382897e+00	1.320735e+02
2.540000e-06	-2.538912e-07	1.931344e-09	-1.763505e+00	1.252996e+02
2.550000e-06	-3.085565e-07	1.822465e-09	-2.143205e+00	1.183238e+02
2.560000e-06	-3.630989e-07	1.717777e-09	-2.522052e+00	1.111370e+02
2.570000e-06	-4.174930e-07	1.611529e-09	-2.899868e+00	1.037306e+02
2.580000e-06	-4.716344e-07	1.494833e-09	-3.275929e+00	9.609635e+01
2.590000e-06	-5.254775e-07	1.372626e-09	-3.649918e+00	8.822521e+01
2.600000e-06	-5.790224e-07	1.251407e-09	-4.021836e+00	8.010642e+01
2.610000e-06	-6.322081e-07	1.126248e-09	-4.391259e+00	7.172647e+01
2.620000e-06	-6.848619e-07	9.924181e-10	-4.756987e+00	6.306823e+01
2.630000e-06	-7.370167e-07	8.524062e-10	-5.119250e+00	5.411039e+01
2.640000e-06	-7.888479e-07	7.107934e-10	-5.479265e+00	4.482737e+01
2.650000e-06	-8.404010e-07	5.694595e-10	-5.837347e+00	3.518997e+01
2.660000e-06	-8.916963e-07	4.197392e-10	-6.193640e+00	2.516663e+01
2.670000e-06	-9.427361e-07	2.592642e-10	-6.548158e+00	1.472545e+01
2.680000e-06	-9.935097e-07	9.224444e-11	-6.900826e+00	3.836821e+00
2.690000e-06	-1.043934e-06	-7.866450e-11	-7.251069e+00	-7.523428e+00
2.700000e-06	-1.093883e-06	-2.569953e-10	-7.598010e+00	-1.937069e+01
2.710000e-06	-1.143421e-06	-4.453112e-10	-7.942097e+00	-3.170823e+01
2.720000e-06	-1.192562e-06	-6.408837e-10	-8.283427e+00	-4.452425e+01
2.730000e-06	-1.241180e-06	-8.419378e-10	-8.621118e+00	-5.778953e+01
2.740000e-06	-1.289039e-06	-1.048267e-09	-8.953546e+00	-7.145607e+01
2.750000e-06	-1.336094e-06	-1.261811e-09	-9.280388e+00	-8.545691e+01
2.760000e-06	-1.382585e-06	-1.482085e-09	-9.603308e+00	-9.970710e+01
2.770000e-06	-1.428612e-06	-1.704354e-09	-9.923007e+00	-1.141061e+02
2.780000e-06	-1.474250e-06	-1.924077e-09	-1.024001e+01	-1.285412e+02
2.790000e-06	-1.519527e-06	-2.144110e-09	-1.055450e+01	-1.428923e+02
2.800000e-06	-1.564364e-06	-2.364931e-09	-1.086592e+01	-1.570366e+02
2.810000e-06	-1.608651e-06	-2.580312e-09	-1.117354e+01	-1.708545e+02
2.820000e-06	-1.652352e-06	-2.784799e-09	-1.147708e+01	-1.842350e+02
2.830000e-06	-1.695626e-06	-2.979446e-09	-1.177766e+01	-1.970803e+02
2.840000e-06	-1.738536e-06	-3.164634e-09	-1.207571e+01	-2.093101e+02
2.850000e-06	-1.780892e-06	-3.338914e-09	-1.236991e+01	-2.208644e+02
2.860000e-06	-1.822601e-06	-3.503330e-09	-1.265962e+01	-2.317050e+02
2.870000e-06	-1.863745e-06	-3.658657e-09	-1.294540e+01	-2.418158e+02
2.880000e-06	-1.904268e-06	-3.806315e-09	-1.322687e+01	-2.512013e+02
2.890000e-06	-1.944058e-06	-3.944153e-09	-1.350325e+01	-2.598844e+02
2.900000e-06	-1.983266e-06	-4.070665e-09	-1.377558e+01	-2.679027e+02
2.910000e-06	-2.021971e-06	-4.185867e-09	-1.404442e+01	-2.753048e+02
2.920000e-06	-2.059855e-06	-4.289970e-09	-1.430756e+01	-2.821456e+02
2.930000e-06	-2.096695e-06	-4.383610e-09	-1.456345e+01	-2.884824e+02
2.940000e-06	-2.132587e-06	-4.470497e-09	-1.481275e+01	-2.943709e+02
