# Temperatura_=_31.32
# Concentracion g/m^3_=_15500.0
# C_Vs_to_Am_M_A/Vsm_=_65563218390.804596
# pendiente_HvsI_1/m_=_3716.3
# ordenada_HvsI_A/m_=_1297.0
# frecuencia_Hz_=_300848.0538499292

Tiempo_(s)	Campo_(V.s)	Magnetizacion_(V.s)	Campo_(kA/m)	Magnetizacion_(A/m)
0.000000e+00	-2.854472e-06	-5.778911e-09	-1.980114e+01	-3.784618e+02
1.000000e-08	-2.853405e-06	-5.779785e-09	-1.979374e+01	-3.783622e+02
2.000000e-08	-2.851250e-06	-5.778394e-09	-1.977879e+01	-3.781859e+02
3.000000e-08	-2.847845e-06	-5.775858e-09	-1.975517e+01	-3.779317e+02
4.000000e-08	-2.843486e-06	-5.771817e-09	-1.972493e+01	-3.776003e+02
5.000000e-08	-2.838304e-06	-5.762114e-09	-1.968898e+01	-3.771947e+02
6.000000e-08	-2.832239e-06	-5.738661e-09	-1.964691e+01	-3.767195e+02
7.000000e-08	-2.825260e-06	-5.729186e-09	-1.959850e+01	-3.761810e+02
8.000000e-08	-2.817232e-06	-5.785181e-09	-1.954281e+01	-3.755865e+02
9.000000e-08	-2.807936e-06	-5.844484e-09	-1.947833e+01	-3.749433e+02
1.000000e-07	-2.797174e-06	-5.744146e-09	-1.940367e+01	-3.742582e+02
1.100000e-07	-2.785299e-06	-5.580745e-09	-1.932129e+01	-3.735365e+02
1.200000e-07	-2.772709e-06	-5.661353e-09	-1.923396e+01	-3.727815e+02
1.300000e-07	-2.759215e-06	-5.816494e-09	-1.914035e+01	-3.719941e+02
1.400000e-07	-2.744724e-06	-5.665277e-09	-1.903983e+01	-3.711728e+02
1.500000e-07	-2.729225e-06	-5.556286e-09	-1.893232e+01	-3.703139e+02
1.600000e-07	-2.712408e-06	-5.764028e-09	-1.881566e+01	-3.694117e+02
1.700000e-07	-2.694318e-06	-5.739058e-09	-1.869017e+01	-3.684596e+02
1.800000e-07	-2.675505e-06	-5.527720e-09	-1.855967e+01	-3.674505e+02
1.900000e-07	-2.656033e-06	-5.632879e-09	-1.842459e+01	-3.663778e+02
2.000000e-07	-2.635643e-06	-5.674843e-09	-1.828315e+01	-3.652362e+02
2.100000e-07	-2.614435e-06	-5.470682e-09	-1.813603e+01	-3.640220e+02
2.200000e-07	-2.592435e-06	-5.537521e-09	-1.798342e+01	-3.627335e+02
2.300000e-07	-2.569427e-06	-5.670285e-09	-1.782381e+01	-3.613714e+02
2.400000e-07	-2.545489e-06	-5.503653e-09	-1.765776e+01	-3.599381e+02
2.500000e-07	-2.520851e-06	-5.427398e-09	-1.748685e+01	-3.584375e+02
2.600000e-07	-2.495337e-06	-5.505338e-09	-1.730986e+01	-3.568744e+02
2.700000e-07	-2.468685e-06	-5.458325e-09	-1.712498e+01	-3.552538e+02
2.800000e-07	-2.440977e-06	-5.401285e-09	-1.693277e+01	-3.535801e+02
2.900000e-07	-2.412349e-06	-5.392537e-09	-1.673418e+01	-3.518567e+02
3.000000e-07	-2.382936e-06	-5.374499e-09	-1.653015e+01	-3.500857e+02
3.100000e-07	-2.352828e-06	-5.388045e-09	-1.632129e+01	-3.482673e+02
3.200000e-07	-2.321937e-06	-5.326397e-09	-1.610701e+01	-3.464001e+02
3.300000e-07	-2.290234e-06	-5.251225e-09	-1.588708e+01	-3.444815e+02
3.400000e-07	-2.257904e-06	-5.265886e-09	-1.566282e+01	-3.425079e+02
3.500000e-07	-2.225035e-06	-5.219673e-09	-1.543481e+01	-3.404755e+02
3.600000e-07	-2.191235e-06	-5.180122e-09	-1.520034e+01	-3.383807e+02
3.700000e-07	-2.156205e-06	-5.204978e-09	-1.495734e+01	-3.362205e+02
3.800000e-07	-2.120198e-06	-5.122617e-09	-1.470757e+01	-3.339932e+02
3.900000e-07	-2.083563e-06	-5.051862e-09	-1.445343e+01	-3.316983e+02
4.000000e-07	-2.046340e-06	-5.086800e-09	-1.419522e+01	-3.293367e+02
4.100000e-07	-2.008395e-06	-5.038844e-09	-1.393200e+01	-3.269103e+02
4.200000e-07	-1.969704e-06	-4.948783e-09	-1.366361e+01	-3.244217e+02
4.300000e-07	-1.930296e-06	-4.933811e-09	-1.339024e+01	-3.218736e+02
4.400000e-07	-1.890242e-06	-4.913329e-09	-1.311239e+01	-3.192684e+02
4.500000e-07	-1.849756e-06	-4.864906e-09	-1.283154e+01	-3.166073e+02
4.600000e-07	-1.808863e-06	-4.818741e-09	-1.254787e+01	-3.138906e+02
4.700000e-07	-1.767223e-06	-4.767725e-09	-1.225902e+01	-3.111166e+02
4.800000e-07	-1.724537e-06	-4.728455e-09	-1.196291e+01	-3.082823e+02
4.900000e-07	-1.680853e-06	-4.698777e-09	-1.165988e+01	-3.053834e+02
5.000000e-07	-1.636540e-06	-4.647695e-09	-1.135248e+01	-3.024144e+02
5.100000e-07	-1.591870e-06	-4.584233e-09	-1.104261e+01	-2.993696e+02
5.200000e-07	-1.546786e-06	-4.535560e-09	-1.072988e+01	-2.962433e+02
5.300000e-07	-1.501176e-06	-4.498130e-09	-1.041348e+01	-2.930308e+02
5.400000e-07	-1.455012e-06	-4.457638e-09	-1.009325e+01	-2.897284e+02
5.500000e-07	-1.408287e-06	-4.399564e-09	-9.769123e+00	-2.863341e+02
5.600000e-07	-1.360979e-06	-4.333136e-09	-9.440953e+00	-2.828476e+02
5.700000e-07	-1.313186e-06	-4.284028e-09	-9.109419e+00	-2.792701e+02
5.800000e-07	-1.265036e-06	-4.239022e-09	-8.775404e+00	-2.756041e+02
5.900000e-07	-1.216557e-06	-4.171856e-09	-8.439112e+00	-2.718530e+02
6.000000e-07	-1.167696e-06	-4.104288e-09	-8.100174e+00	-2.680202e+02
6.100000e-07	-1.118347e-06	-4.052319e-09	-7.757844e+00	-2.641089e+02
6.200000e-07	-1.068307e-06	-3.997222e-09	-7.410724e+00	-2.601212e+02
6.300000e-07	-1.017551e-06	-3.928681e-09	-7.058635e+00	-2.560577e+02
6.400000e-07	-9.662613e-07	-3.854727e-09	-6.702842e+00	-2.519179e+02
6.500000e-07	-9.145063e-07	-3.788320e-09	-6.343824e+00	-2.476993e+02
6.600000e-07	-8.624212e-07	-3.729696e-09	-5.982515e+00	-2.433981e+02
6.700000e-07	-8.101110e-07	-3.666077e-09	-5.619646e+00	-2.390099e+02
6.800000e-07	-7.575629e-07	-3.591683e-09	-5.255126e+00	-2.345296e+02
6.900000e-07	-7.046754e-07	-3.516935e-09	-4.888251e+00	-2.299522e+02
7.000000e-07	-6.514552e-07	-3.449029e-09	-4.519069e+00	-2.252734e+02
7.100000e-07	-5.980428e-07	-3.379930e-09	-4.148553e+00	-2.204899e+02
7.200000e-07	-5.444403e-07	-3.299686e-09	-3.776719e+00	-2.155996e+02
7.300000e-07	-4.906375e-07	-3.214715e-09	-3.403495e+00	-2.106012e+02
7.400000e-07	-4.366334e-07	-3.138500e-09	-3.028875e+00	-2.054947e+02
7.500000e-07	-3.824490e-07	-3.067238e-09	-2.653004e+00	-2.002799e+02
7.600000e-07	-3.281657e-07	-2.985833e-09	-2.276447e+00	-1.949568e+02
7.700000e-07	-2.738319e-07	-2.893493e-09	-1.899540e+00	-1.895239e+02
7.800000e-07	-2.194575e-07	-2.805653e-09	-1.522351e+00	-1.839787e+02
7.900000e-07	-1.649973e-07	-2.725369e-09	-1.144567e+00	-1.783164e+02
8.000000e-07	-1.104628e-07	-2.637952e-09	-7.662677e-01	-1.725300e+02
8.100000e-07	-5.589611e-08	-2.538386e-09	-3.877448e-01	-1.666104e+02
8.200000e-07	-1.327930e-09	-2.437954e-09	-9.211698e-03	-1.605465e+02
8.300000e-07	5.321352e-08	-2.344562e-09	3.691360e-01	-1.543258e+02
8.400000e-07	1.077492e-07	-2.251697e-09	7.474435e-01	-1.479354e+02
8.500000e-07	1.622602e-07	-2.150007e-09	1.125580e+00	-1.413621e+02
8.600000e-07	2.167146e-07	-2.041808e-09	1.503324e+00	-1.345936e+02
8.700000e-07	2.711387e-07	-1.935456e-09	1.880857e+00	-1.276187e+02
8.800000e-07	3.255021e-07	-1.828750e-09	2.257970e+00	-1.204277e+02
8.900000e-07	3.797568e-07	-1.713225e-09	2.634329e+00	-1.130117e+02
9.000000e-07	4.339116e-07	-1.588781e-09	3.009994e+00	-1.053625e+02
9.100000e-07	4.878886e-07	-1.464437e-09	3.384426e+00	-9.747141e+01
9.200000e-07	5.416569e-07	-1.342975e-09	3.757410e+00	-8.932803e+01
9.300000e-07	5.952037e-07	-1.216725e-09	4.128859e+00	-8.091918e+01
9.400000e-07	6.485437e-07	-1.081230e-09	4.498872e+00	-7.222758e+01
9.500000e-07	7.016226e-07	-9.398114e-10	4.867074e+00	-6.323113e+01
9.600000e-07	7.543746e-07	-7.971783e-10	5.233009e+00	-5.390255e+01
9.700000e-07	8.068848e-07	-6.482736e-10	5.597266e+00	-4.420980e+01
9.800000e-07	8.591366e-07	-4.879968e-10	5.959731e+00	-3.411728e+01
9.900000e-07	9.110482e-07	-3.213284e-10	6.319835e+00	-2.358782e+01
1.000000e-06	9.625872e-07	-1.523052e-10	6.677355e+00	-1.258546e+01
1.010000e-06	1.013636e-06	2.156613e-11	7.031474e+00	-1.078870e+00
1.020000e-06	1.063986e-06	2.037533e-10	7.380747e+00	1.095497e+01
1.030000e-06	1.113655e-06	3.936292e-10	7.725298e+00	2.352689e+01
1.040000e-06	1.162813e-06	5.921293e-10	8.066298e+00	3.663209e+01
1.050000e-06	1.211592e-06	8.002898e-10	8.404676e+00	5.024721e+01
1.060000e-06	1.260047e-06	1.016353e-09	8.740796e+00	6.432844e+01
1.070000e-06	1.308173e-06	1.238595e-09	9.074645e+00	7.881083e+01
1.080000e-06	1.355889e-06	1.465279e-09	9.405646e+00	9.360901e+01
1.090000e-06	1.403087e-06	1.692582e-09	9.733049e+00	1.086193e+02
1.100000e-06	1.449787e-06	1.920747e-09	1.005701e+01	1.237232e+02
1.110000e-06	1.495995e-06	2.150942e-09	1.037755e+01	1.387920e+02
1.120000e-06	1.541652e-06	2.378784e-09	1.069426e+01	1.536926e+02
1.130000e-06	1.586752e-06	2.600065e-09	1.100712e+01	1.682930e+02
1.140000e-06	1.631415e-06	2.814449e-09	1.131694e+01	1.824686e+02
1.150000e-06	1.675733e-06	3.020794e-09	1.162437e+01	1.961078e+02
1.160000e-06	1.719583e-06	3.214435e-09	1.192855e+01	2.091167e+02
1.170000e-06	1.762695e-06	3.396433e-09	1.222761e+01	2.214226e+02
1.180000e-06	1.804837e-06	3.569714e-09	1.251994e+01	2.329761e+02
1.190000e-06	1.846072e-06	3.732899e-09	1.280599e+01	2.437521e+02
1.200000e-06	1.886706e-06	3.884276e-09	1.308786e+01	2.537483e+02
1.210000e-06	1.926851e-06	4.024517e-09	1.336634e+01	2.629835e+02
1.220000e-06	1.966362e-06	4.153860e-09	1.364042e+01	2.714937e+02
1.230000e-06	2.005186e-06	4.271859e-09	1.390974e+01	2.793283e+02
1.240000e-06	2.043302e-06	4.378818e-09	1.417415e+01	2.865452e+02
1.250000e-06	2.080659e-06	4.476844e-09	1.443329e+01	2.932065e+02
1.260000e-06	2.117407e-06	4.569050e-09	1.468821e+01	2.993740e+02
1.270000e-06	2.153684e-06	4.654992e-09	1.493985e+01	3.051057e+02
1.280000e-06	2.189253e-06	4.734139e-09	1.518659e+01	3.104534e+02
1.290000e-06	2.223761e-06	4.809354e-09	1.542597e+01	3.154607e+02
1.300000e-06	2.257202e-06	4.881028e-09	1.565794e+01	3.201625e+02
1.310000e-06	2.289879e-06	4.947822e-09	1.588462e+01	3.245854e+02
1.320000e-06	2.321918e-06	5.009258e-09	1.610687e+01	3.287488e+02
1.330000e-06	2.353179e-06	5.066543e-09	1.632373e+01	3.326662e+02
1.340000e-06	2.383605e-06	5.119097e-09	1.653479e+01	3.363474e+02
1.350000e-06	2.413212e-06	5.166163e-09	1.674017e+01	3.398003e+02
1.360000e-06	2.442092e-06	5.210158e-09	1.694051e+01	3.430323e+02
1.370000e-06	2.470307e-06	5.252679e-09	1.713623e+01	3.460520e+02
1.380000e-06	2.497588e-06	5.294396e-09	1.732548e+01	3.488696e+02
1.390000e-06	2.523649e-06	5.334636e-09	1.750626e+01	3.514972e+02
1.400000e-06	2.548635e-06	5.371217e-09	1.767958e+01	3.539487e+02
1.410000e-06	2.572806e-06	5.403578e-09	1.784726e+01	3.562388e+02
1.420000e-06	2.596171e-06	5.435709e-09	1.800934e+01	3.583828e+02
1.430000e-06	2.618604e-06	5.468028e-09	1.816495e+01	3.603947e+02
1.440000e-06	2.640105e-06	5.495134e-09	1.831410e+01	3.622868e+02
1.450000e-06	2.660829e-06	5.517766e-09	1.845786e+01	3.640692e+02
1.460000e-06	2.680812e-06	5.542392e-09	1.859648e+01	3.657489e+02
1.470000e-06	2.699905e-06	5.569150e-09	1.872893e+01	3.673300e+02
1.480000e-06	2.718005e-06	5.592568e-09	1.885448e+01	3.688140e+02
1.490000e-06	2.735110e-06	5.611007e-09	1.897314e+01	3.702006e+02
1.500000e-06	2.751178e-06	5.628597e-09	1.908460e+01	3.714880e+02
1.510000e-06	2.766176e-06	5.648334e-09	1.918864e+01	3.726744e+02
1.520000e-06	2.780156e-06	5.665676e-09	1.928562e+01	3.737582e+02
1.530000e-06	2.793140e-06	5.676691e-09	1.937569e+01	3.747394e+02
1.540000e-06	2.805013e-06	5.687219e-09	1.945804e+01	3.756192e+02
1.550000e-06	2.815548e-06	5.701894e-09	1.953113e+01	3.764009e+02
1.560000e-06	2.824853e-06	5.717108e-09	1.959567e+01	3.770893e+02
1.570000e-06	2.833182e-06	5.727679e-09	1.965346e+01	3.776904e+02
1.580000e-06	2.840601e-06	5.733824e-09	1.970492e+01	3.782107e+02
1.590000e-06	2.847088e-06	5.740953e-09	1.974992e+01	3.786566e+02
1.600000e-06	2.852602e-06	5.748506e-09	1.978817e+01	3.790337e+02
1.610000e-06	2.857302e-06	5.751490e-09	1.982077e+01	3.793459e+02
1.620000e-06	2.861112e-06	5.751821e-09	1.984720e+01	3.795956e+02
1.630000e-06	2.863720e-06	5.754958e-09	1.986529e+01	3.797830e+02
1.640000e-06	2.865153e-06	5.762111e-09	1.987523e+01	3.799068e+02
1.650000e-06	2.865624e-06	5.767081e-09	1.987850e+01	3.799641e+02
1.660000e-06	2.865198e-06	5.765096e-09	1.987554e+01	3.799514e+02
1.670000e-06	2.863877e-06	5.759037e-09	1.986638e+01	3.798651e+02
1.680000e-06	2.861648e-06	5.754504e-09	1.985092e+01	3.797024e+02
1.690000e-06	2.858612e-06	5.750972e-09	1.982986e+01	3.794619e+02
1.700000e-06	2.854826e-06	5.744521e-09	1.980359e+01	3.791440e+02
1.710000e-06	2.849971e-06	5.742875e-09	1.976991e+01	3.787512e+02
1.720000e-06	2.843869e-06	5.763114e-09	1.972758e+01	3.782878e+02
1.730000e-06	2.836809e-06	5.750093e-09	1.967862e+01	3.777599e+02
1.740000e-06	2.828871e-06	5.650396e-09	1.962355e+01	3.771747e+02
1.750000e-06	2.819567e-06	5.601160e-09	1.955900e+01	3.765395e+02
1.760000e-06	2.808669e-06	5.736161e-09	1.948341e+01	3.758613e+02
1.770000e-06	2.796954e-06	5.811203e-09	1.940214e+01	3.751456e+02
1.780000e-06	2.785128e-06	5.628061e-09	1.932011e+01	3.743962e+02
1.790000e-06	2.772394e-06	5.539274e-09	1.923178e+01	3.736144e+02
1.800000e-06	2.757962e-06	5.724061e-09	1.913166e+01	3.727992e+02
1.810000e-06	2.742462e-06	5.695483e-09	1.902414e+01	3.719472e+02
1.820000e-06	2.726352e-06	5.497029e-09	1.891239e+01	3.710530e+02
1.830000e-06	2.709089e-06	5.647305e-09	1.879263e+01	3.701101e+02
1.840000e-06	2.690594e-06	5.770537e-09	1.866434e+01	3.691115e+02
1.850000e-06	2.671434e-06	5.528082e-09	1.853143e+01	3.680505e+02
1.860000e-06	2.651495e-06	5.546573e-09	1.839311e+01	3.669213e+02
1.870000e-06	2.630291e-06	5.728268e-09	1.824602e+01	3.657200e+02
1.880000e-06	2.608020e-06	5.492485e-09	1.809153e+01	3.644447e+02
1.890000e-06	2.584786e-06	5.395321e-09	1.793036e+01	3.630954e+02
1.900000e-06	2.560529e-06	5.602423e-09	1.776209e+01	3.616744e+02
1.910000e-06	2.535609e-06	5.533868e-09	1.758923e+01	3.601852e+02
1.920000e-06	2.509936e-06	5.415808e-09	1.741113e+01	3.586327e+02
1.930000e-06	2.483326e-06	5.469528e-09	1.722654e+01	3.570218e+02
1.940000e-06	2.456045e-06	5.425371e-09	1.703730e+01	3.553571e+02
1.950000e-06	2.427883e-06	5.400499e-09	1.684194e+01	3.536423e+02
1.960000e-06	2.398424e-06	5.373692e-09	1.663759e+01	3.518795e+02
1.970000e-06	2.367919e-06	5.275158e-09	1.642598e+01	3.500694e+02
1.980000e-06	2.336648e-06	5.330421e-09	1.620906e+01	3.482109e+02
1.990000e-06	2.304729e-06	5.322981e-09	1.598763e+01	3.463015e+02
2.000000e-06	2.272146e-06	5.199174e-09	1.576161e+01	3.443379e+02
2.010000e-06	2.238687e-06	5.237173e-09	1.552951e+01	3.423161e+02
2.020000e-06	2.204475e-06	5.191334e-09	1.529219e+01	3.402325e+02
2.030000e-06	2.169649e-06	5.089215e-09	1.505060e+01	3.380839e+02
2.040000e-06	2.134185e-06	5.158978e-09	1.480460e+01	3.358685e+02
2.050000e-06	2.098043e-06	5.103361e-09	1.455388e+01	3.335855e+02
2.060000e-06	2.060928e-06	4.994829e-09	1.429642e+01	3.312355e+02
2.070000e-06	2.022690e-06	5.026311e-09	1.403116e+01	3.288203e+02
2.080000e-06	1.983649e-06	4.987807e-09	1.376034e+01	3.263424e+02
2.090000e-06	1.944046e-06	4.920119e-09	1.348562e+01	3.238046e+02
2.100000e-06	1.903864e-06	4.894026e-09	1.320688e+01	3.212092e+02
2.110000e-06	1.863080e-06	4.845834e-09	1.292397e+01	3.185579e+02
2.120000e-06	1.821675e-06	4.824458e-09	1.263675e+01	3.158509e+02
2.130000e-06	1.779648e-06	4.778063e-09	1.234521e+01	3.130872e+02
2.140000e-06	1.736976e-06	4.713642e-09	1.204920e+01	3.102638e+02
2.150000e-06	1.693826e-06	4.686071e-09	1.174987e+01	3.073766e+02
2.160000e-06	1.650320e-06	4.645633e-09	1.144808e+01	3.044203e+02
2.170000e-06	1.606308e-06	4.604219e-09	1.114277e+01	3.013893e+02
2.180000e-06	1.561635e-06	4.553321e-09	1.083288e+01	2.982778e+02
2.190000e-06	1.516279e-06	4.489738e-09	1.051825e+01	2.950808e+02
2.200000e-06	1.470351e-06	4.444292e-09	1.019965e+01	2.917945e+02
2.210000e-06	1.424038e-06	4.402283e-09	9.878388e+00	2.884164e+02
2.220000e-06	1.377303e-06	4.357475e-09	9.554193e+00	2.849461e+02
2.230000e-06	1.330005e-06	4.297650e-09	9.226091e+00	2.813845e+02
2.240000e-06	1.282119e-06	4.239859e-09	8.893911e+00	2.777340e+02
2.250000e-06	1.233669e-06	4.200699e-09	8.557819e+00	2.739976e+02
2.260000e-06	1.184752e-06	4.133847e-09	8.218486e+00	2.701790e+02
2.270000e-06	1.135450e-06	4.059450e-09	7.876484e+00	2.662813e+02
2.280000e-06	1.085792e-06	4.006084e-09	7.532012e+00	2.623069e+02
2.290000e-06	1.035679e-06	3.951919e-09	7.184385e+00	2.582569e+02
2.300000e-06	9.850972e-07	3.896663e-09	6.833505e+00	2.541306e+02
2.310000e-06	9.341579e-07	3.829496e-09	6.480145e+00	2.499261e+02
2.320000e-06	8.829490e-07	3.758350e-09	6.124914e+00	2.456398e+02
2.330000e-06	8.315055e-07	3.694400e-09	5.768057e+00	2.412674e+02
2.340000e-06	7.797434e-07	3.627060e-09	5.408989e+00	2.368036e+02
2.350000e-06	7.275931e-07	3.559851e-09	5.047229e+00	2.322437e+02
2.360000e-06	6.750739e-07	3.489142e-09	4.682909e+00	2.275831e+02
2.370000e-06	6.221100e-07	3.418626e-09	4.315505e+00	2.228183e+02
2.380000e-06	5.687170e-07	3.349641e-09	3.945123e+00	2.179470e+02
2.390000e-06	5.149700e-07	3.271651e-09	3.572287e+00	2.129678e+02
2.400000e-06	4.609196e-07	3.192736e-09	3.197346e+00	2.078804e+02
2.410000e-06	4.066557e-07	3.116365e-09	2.820923e+00	2.026848e+02
2.420000e-06	3.521882e-07	3.040035e-09	2.443088e+00	1.973808e+02
2.430000e-06	2.975235e-07	2.960472e-09	2.063886e+00	1.919675e+02
2.440000e-06	2.427016e-07	2.870223e-09	1.683593e+00	1.864425e+02
2.450000e-06	1.877689e-07	2.779588e-09	1.302531e+00	1.808014e+02
2.460000e-06	1.328011e-07	2.694887e-09	9.212259e-01	1.750376e+02
2.470000e-06	7.782953e-08	2.608696e-09	5.398944e-01	1.691423e+02
2.480000e-06	2.283892e-08	2.517522e-09	1.584309e-01	1.631048e+02
2.490000e-06	-3.217586e-08	2.423208e-09	-2.232002e-01	1.569129e+02
2.500000e-06	-8.718010e-08	2.332982e-09	-6.047582e-01	1.505536e+02
2.510000e-06	-1.421666e-07	2.240725e-09	-9.861931e-01	1.440137e+02
2.520000e-06	-1.970715e-07	2.135120e-09	-1.367062e+00	1.372807e+02
2.530000e-06	-2.518840e-07	2.021437e-09	-1.747290e+00	1.303433e+02
2.540000e-06	-3.066661e-07	1.911643e-09	-2.127307e+00	1.231913e+02
2.550000e-06	-3.613333e-07	1.807682e-09	-2.506527e+00	1.158159e+02
2.560000e-06	-4.157855e-07	1.697213e-09	-2.884256e+00	1.082088e+02
2.570000e-06	-4.699690e-07	1.576793e-09	-3.260120e+00	1.003614e+02
2.580000e-06	-5.238368e-07	1.455761e-09	-3.633795e+00	9.226376e+01
2.590000e-06	-5.773578e-07	1.334485e-09	-4.005063e+00	8.390326e+01
2.600000e-06	-6.305522e-07	1.205525e-09	-4.374067e+00	7.526344e+01
2.610000e-06	-6.833304e-07	1.065478e-09	-4.740184e+00	6.632309e+01
2.620000e-06	-7.356692e-07	9.181341e-10	-5.103251e+00	5.705585e+01
2.630000e-06	-7.876734e-07	7.701617e-10	-5.463999e+00	4.743048e+01
2.640000e-06	-8.393342e-07	6.229471e-10	-5.822364e+00	3.741187e+01
2.650000e-06	-8.907030e-07	4.694018e-10	-6.178703e+00	2.696296e+01
2.660000e-06	-9.418119e-07	3.058489e-10	-6.533240e+00	1.604734e+01
2.670000e-06	-9.926336e-07	1.337461e-10	-6.885783e+00	4.632584e+00
2.680000e-06	-1.043102e-06	-4.584090e-11	-7.235876e+00	-7.306093e+00
2.690000e-06	-1.093122e-06	-2.337765e-10	-7.582858e+00	-1.978198e+01
2.700000e-06	-1.142701e-06	-4.330684e-10	-7.926786e+00	-3.279329e+01
2.710000e-06	-1.191865e-06	-6.425171e-10	-8.267830e+00	-4.632014e+01
2.720000e-06	-1.240496e-06	-8.581724e-10	-8.605174e+00	-6.032248e+01
2.730000e-06	-1.288432e-06	-1.077128e-09	-8.937704e+00	-7.473912e+01
2.740000e-06	-1.335638e-06	-1.299693e-09	-9.265168e+00	-8.948821e+01
2.750000e-06	-1.382210e-06	-1.527283e-09	-9.588228e+00	-1.044691e+02
2.760000e-06	-1.428283e-06	-1.757560e-09	-9.907834e+00	-1.195657e+02
2.770000e-06	-1.473965e-06	-1.987387e-09	-1.022472e+01	-1.346507e+02
2.780000e-06	-1.519312e-06	-2.217426e-09	-1.053929e+01	-1.495913e+02
2.790000e-06	-1.564249e-06	-2.448252e-09	-1.085101e+01	-1.642549e+02
2.800000e-06	-1.608583e-06	-2.673956e-09	-1.115855e+01	-1.785152e+02
2.810000e-06	-1.652322e-06	-2.886694e-09	-1.146196e+01	-1.922578e+02
2.820000e-06	-1.695669e-06	-3.084751e-09	-1.176266e+01	-2.053854e+02
2.830000e-06	-1.738691e-06	-3.270425e-09	-1.206110e+01	-2.178213e+02
2.840000e-06	-1.781167e-06	-3.446286e-09	-1.235575e+01	-2.295120e+02
2.850000e-06	-1.822945e-06	-3.612696e-09	-1.264556e+01	-2.404278e+02
2.860000e-06	-1.864107e-06	-3.768536e-09	-1.293109e+01	-2.505626e+02
2.870000e-06	-1.904617e-06	-3.915538e-09	-1.321210e+01	-2.599317e+02
2.880000e-06	-1.944497e-06	-4.055011e-09	-1.348875e+01	-2.685682e+02
2.890000e-06	-1.983846e-06	-4.183682e-09	-1.376171e+01	-2.765196e+02
2.900000e-06	-2.022587e-06	-4.298897e-09	-1.403045e+01	-2.838425e+02
2.910000e-06	-2.060550e-06	-4.400470e-09	-1.429379e+01	-2.905986e+02
2.920000e-06	-2.097553e-06	-4.492299e-09	-1.455048e+01	-2.968501e+02
2.930000e-06	-2.133604e-06	-4.581874e-09	-1.480056e+01	-3.026558e+02
2.940000e-06	-2.168937e-06	-4.669102e-09	-1.504566e+01	-3.080688e+02
