# Temperatura_=_24.02
# Concentracion g/m^3_=_15500.0
# C_Vs_to_Am_M_A/Vsm_=_65563218390.804596
# pendiente_HvsI_1/m_=_3716.3
# ordenada_HvsI_A/m_=_1297.0
# frecuencia_Hz_=_300842.6969364564

Tiempo_(s)	Campo_(V.s)	Magnetizacion_(V.s)	Campo_(kA/m)	Magnetizacion_(A/m)
0.000000e+00	-2.851442e-06	-5.644031e-09	-1.980103e+01	-3.692795e+02
1.000000e-08	-2.850434e-06	-5.646259e-09	-1.979402e+01	-3.692114e+02
2.000000e-08	-2.848387e-06	-5.642310e-09	-1.977981e+01	-3.690750e+02
3.000000e-08	-2.845045e-06	-5.637690e-09	-1.975661e+01	-3.688693e+02
4.000000e-08	-2.840728e-06	-5.635050e-09	-1.972662e+01	-3.685941e+02
5.000000e-08	-2.835660e-06	-5.628136e-09	-1.969143e+01	-3.682506e+02
6.000000e-08	-2.829700e-06	-5.608741e-09	-1.965005e+01	-3.678411e+02
7.000000e-08	-2.822762e-06	-5.591555e-09	-1.960187e+01	-3.673692e+02
8.000000e-08	-2.814821e-06	-5.638875e-09	-1.954672e+01	-3.668393e+02
9.000000e-08	-2.805647e-06	-5.702077e-09	-1.948301e+01	-3.662563e+02
1.000000e-07	-2.794983e-06	-5.635223e-09	-1.940896e+01	-3.656251e+02
1.100000e-07	-2.783147e-06	-5.457202e-09	-1.932677e+01	-3.649499e+02
1.200000e-07	-2.770588e-06	-5.504869e-09	-1.923956e+01	-3.642338e+02
1.300000e-07	-2.757158e-06	-5.692154e-09	-1.914630e+01	-3.634786e+02
1.400000e-07	-2.742711e-06	-5.574962e-09	-1.904598e+01	-3.626843e+02
1.500000e-07	-2.727403e-06	-5.410959e-09	-1.893968e+01	-3.618493e+02
1.600000e-07	-2.710831e-06	-5.600761e-09	-1.882460e+01	-3.609704e+02
1.700000e-07	-2.692901e-06	-5.647307e-09	-1.870008e+01	-3.600433e+02
1.800000e-07	-2.674205e-06	-5.405292e-09	-1.857026e+01	-3.590631e+02
1.900000e-07	-2.654820e-06	-5.475658e-09	-1.843564e+01	-3.580245e+02
2.000000e-07	-2.634515e-06	-5.578629e-09	-1.829464e+01	-3.569227e+02
2.100000e-07	-2.613331e-06	-5.368937e-09	-1.814753e+01	-3.557536e+02
2.200000e-07	-2.591368e-06	-5.386380e-09	-1.799502e+01	-3.545145e+02
2.300000e-07	-2.568446e-06	-5.557150e-09	-1.783584e+01	-3.532037e+02
2.400000e-07	-2.544602e-06	-5.391969e-09	-1.767026e+01	-3.518210e+02
2.500000e-07	-2.520021e-06	-5.294212e-09	-1.749957e+01	-3.503677e+02
2.600000e-07	-2.494570e-06	-5.390866e-09	-1.732283e+01	-3.488454e+02
2.700000e-07	-2.468045e-06	-5.343025e-09	-1.713863e+01	-3.472569e+02
2.800000e-07	-2.440428e-06	-5.278582e-09	-1.694685e+01	-3.456047e+02
2.900000e-07	-2.411859e-06	-5.285641e-09	-1.674847e+01	-3.438912e+02
3.000000e-07	-2.382456e-06	-5.249329e-09	-1.654429e+01	-3.421183e+02
3.100000e-07	-2.352345e-06	-5.255362e-09	-1.633519e+01	-3.402869e+02
3.200000e-07	-2.321529e-06	-5.228844e-09	-1.612120e+01	-3.383972e+02
3.300000e-07	-2.289898e-06	-5.126139e-09	-1.590155e+01	-3.364489e+02
3.400000e-07	-2.257567e-06	-5.134597e-09	-1.567703e+01	-3.344406e+02
3.500000e-07	-2.224680e-06	-5.118320e-09	-1.544865e+01	-3.323711e+02
3.600000e-07	-2.190994e-06	-5.055732e-09	-1.521473e+01	-3.302391e+02
3.700000e-07	-2.156164e-06	-5.074507e-09	-1.497287e+01	-3.280436e+02
3.800000e-07	-2.120300e-06	-5.020893e-09	-1.472382e+01	-3.257841e+02
3.900000e-07	-2.083751e-06	-4.925037e-09	-1.447001e+01	-3.234610e+02
4.000000e-07	-2.046594e-06	-4.946463e-09	-1.421199e+01	-3.210754e+02
4.100000e-07	-2.008760e-06	-4.928285e-09	-1.394926e+01	-3.186289e+02
4.200000e-07	-1.970205e-06	-4.832006e-09	-1.368153e+01	-3.161235e+02
4.300000e-07	-1.930918e-06	-4.805089e-09	-1.340871e+01	-3.135612e+02
4.400000e-07	-1.890979e-06	-4.790466e-09	-1.313136e+01	-3.109438e+02
4.500000e-07	-1.850571e-06	-4.743368e-09	-1.285076e+01	-3.082723e+02
4.600000e-07	-1.809743e-06	-4.694912e-09	-1.256724e+01	-3.055469e+02
4.700000e-07	-1.768193e-06	-4.645164e-09	-1.227871e+01	-3.027666e+02
4.800000e-07	-1.725551e-06	-4.598408e-09	-1.198260e+01	-2.999292e+02
4.900000e-07	-1.681904e-06	-4.565557e-09	-1.167950e+01	-2.970317e+02
5.000000e-07	-1.637662e-06	-4.518924e-09	-1.137228e+01	-2.940700e+02
5.100000e-07	-1.593043e-06	-4.457062e-09	-1.106243e+01	-2.910400e+02
5.200000e-07	-1.548019e-06	-4.411308e-09	-1.074978e+01	-2.879373e+02
5.300000e-07	-1.502463e-06	-4.369230e-09	-1.043343e+01	-2.847580e+02
5.400000e-07	-1.456325e-06	-4.324320e-09	-1.011304e+01	-2.814990e+02
5.500000e-07	-1.409636e-06	-4.270950e-09	-9.788819e+00	-2.781580e+02
5.600000e-07	-1.362437e-06	-4.208424e-09	-9.461058e+00	-2.747342e+02
5.700000e-07	-1.314717e-06	-4.150855e-09	-9.129675e+00	-2.712276e+02
5.800000e-07	-1.266550e-06	-4.106125e-09	-8.795197e+00	-2.676393e+02
5.900000e-07	-1.218105e-06	-4.046773e-09	-8.458784e+00	-2.639708e+02
6.000000e-07	-1.169289e-06	-3.979806e-09	-8.119791e+00	-2.602239e+02
6.100000e-07	-1.119915e-06	-3.930023e-09	-7.776928e+00	-2.564003e+02
6.200000e-07	-1.069979e-06	-3.878160e-09	-7.430163e+00	-2.525009e+02
6.300000e-07	-1.019511e-06	-3.812829e-09	-7.079702e+00	-2.485260e+02
6.400000e-07	-9.684526e-07	-3.738400e-09	-6.725143e+00	-2.444744e+02
6.500000e-07	-9.168201e-07	-3.671008e-09	-6.366596e+00	-2.403444e+02
6.600000e-07	-8.647590e-07	-3.611528e-09	-6.005072e+00	-2.361327e+02
6.700000e-07	-8.124577e-07	-3.551343e-09	-5.641881e+00	-2.318358e+02
6.800000e-07	-7.599550e-07	-3.481954e-09	-5.277291e+00	-2.274496e+02
6.900000e-07	-7.071712e-07	-3.408639e-09	-4.910749e+00	-2.229700e+02
7.000000e-07	-6.541375e-07	-3.340376e-09	-4.542471e+00	-2.183936e+02
7.100000e-07	-6.008794e-07	-3.270643e-09	-4.172636e+00	-2.137172e+02
7.200000e-07	-5.474113e-07	-3.195254e-09	-3.801342e+00	-2.089386e+02
7.300000e-07	-4.937145e-07	-3.116561e-09	-3.428460e+00	-2.040563e+02
7.400000e-07	-4.397606e-07	-3.040894e-09	-3.053792e+00	-1.990692e+02
7.500000e-07	-3.856514e-07	-2.966346e-09	-2.678046e+00	-1.939765e+02
7.600000e-07	-3.314491e-07	-2.888706e-09	-2.301654e+00	-1.887771e+02
7.700000e-07	-2.771466e-07	-2.803238e-09	-1.924566e+00	-1.834690e+02
7.800000e-07	-2.227645e-07	-2.716144e-09	-1.546925e+00	-1.780491e+02
7.900000e-07	-1.683376e-07	-2.632944e-09	-1.168973e+00	-1.725126e+02
8.000000e-07	-1.138682e-07	-2.545254e-09	-7.907255e-01	-1.668532e+02
8.100000e-07	-5.935610e-08	-2.449769e-09	-4.121815e-01	-1.610627e+02
8.200000e-07	-4.854631e-09	-2.355061e-09	-3.371160e-02	-1.551314e+02
8.300000e-07	4.961575e-08	-2.265833e-09	3.445424e-01	-1.490486e+02
8.400000e-07	1.040662e-07	-2.173690e-09	7.226580e-01	-1.428032e+02
8.500000e-07	1.584975e-07	-2.074252e-09	1.100641e+00	-1.363840e+02
8.600000e-07	2.129019e-07	-1.969581e-09	1.478437e+00	-1.297804e+02
8.700000e-07	2.672630e-07	-1.865016e-09	1.855932e+00	-1.229830e+02
8.800000e-07	3.215642e-07	-1.758232e-09	2.233011e+00	-1.159833e+02
8.900000e-07	3.757552e-07	-1.643216e-09	2.609325e+00	-1.087738e+02
9.000000e-07	4.297716e-07	-1.523709e-09	2.984427e+00	-1.013478e+02
9.100000e-07	4.836389e-07	-1.407945e-09	3.358492e+00	-9.369790e+01
9.200000e-07	5.373803e-07	-1.295581e-09	3.731684e+00	-8.581583e+01
9.300000e-07	5.908925e-07	-1.174814e-09	4.103285e+00	-7.769085e+01
9.400000e-07	6.441574e-07	-1.042662e-09	4.473167e+00	-6.930888e+01
9.500000e-07	6.971826e-07	-9.048014e-10	4.841386e+00	-6.065176e+01
9.600000e-07	7.499554e-07	-7.664780e-10	5.207852e+00	-5.169677e+01
9.700000e-07	8.024552e-07	-6.246803e-10	5.572421e+00	-4.241684e+01
9.800000e-07	8.546497e-07	-4.726574e-10	5.934872e+00	-3.278136e+01
9.900000e-07	9.065570e-07	-3.129714e-10	6.295327e+00	-2.275774e+01
1.000000e-06	9.580697e-07	-1.528029e-10	6.653042e+00	-1.231356e+01
1.010000e-06	1.009065e-06	8.434559e-12	7.007164e+00	-1.419377e+00
1.020000e-06	1.059387e-06	1.786703e-10	7.356609e+00	9.948061e+00
1.030000e-06	1.109041e-06	3.599875e-10	7.701423e+00	2.180253e+01
1.040000e-06	1.158174e-06	5.502389e-10	8.042607e+00	3.414510e+01
1.050000e-06	1.206915e-06	7.469527e-10	8.381080e+00	4.696137e+01
1.060000e-06	1.255358e-06	9.506201e-10	8.717475e+00	6.021941e+01
1.070000e-06	1.303446e-06	1.161294e-09	9.051407e+00	7.386866e+01
1.080000e-06	1.351119e-06	1.375817e-09	9.382461e+00	8.784003e+01
1.090000e-06	1.398329e-06	1.590068e-09	9.710296e+00	1.020471e+02
1.100000e-06	1.445011e-06	1.805002e-09	1.003447e+01	1.163888e+02
1.110000e-06	1.491131e-06	2.025221e-09	1.035473e+01	1.307528e+02
1.120000e-06	1.536710e-06	2.244433e-09	1.067124e+01	1.450201e+02
1.130000e-06	1.581806e-06	2.456613e-09	1.098440e+01	1.590704e+02
1.140000e-06	1.626501e-06	2.663124e-09	1.129477e+01	1.727866e+02
1.150000e-06	1.670819e-06	2.863162e-09	1.160252e+01	1.860610e+02
1.160000e-06	1.714635e-06	3.053846e-09	1.190679e+01	1.987992e+02
1.170000e-06	1.757724e-06	3.236793e-09	1.220601e+01	2.109237e+02
1.180000e-06	1.799880e-06	3.412083e-09	1.249876e+01	2.223774e+02
1.190000e-06	1.841138e-06	3.575134e-09	1.278526e+01	2.331239e+02
1.200000e-06	1.881778e-06	3.727083e-09	1.306747e+01	2.431482e+02
1.210000e-06	1.921928e-06	3.869352e-09	1.334628e+01	2.524554e+02
1.220000e-06	1.961474e-06	3.999363e-09	1.362090e+01	2.610676e+02
1.230000e-06	2.000342e-06	4.115152e-09	1.389080e+01	2.690217e+02
1.240000e-06	2.038516e-06	4.220335e-09	1.415590e+01	2.763645e+02
1.250000e-06	2.075977e-06	4.320226e-09	1.441603e+01	2.831496e+02
1.260000e-06	2.112796e-06	4.417235e-09	1.467171e+01	2.894327e+02
1.270000e-06	2.149087e-06	4.507675e-09	1.492372e+01	2.952683e+02
1.280000e-06	2.184686e-06	4.588957e-09	1.517093e+01	3.007069e+02
1.290000e-06	2.219243e-06	4.665218e-09	1.541090e+01	3.057929e+02
1.300000e-06	2.252707e-06	4.737957e-09	1.564328e+01	3.105633e+02
1.310000e-06	2.285370e-06	4.804982e-09	1.587010e+01	3.150472e+02
1.320000e-06	2.317385e-06	4.863607e-09	1.609242e+01	3.192669e+02
1.330000e-06	2.348651e-06	4.917901e-09	1.630954e+01	3.232380e+02
1.340000e-06	2.379116e-06	4.971896e-09	1.652109e+01	3.269719e+02
1.350000e-06	2.408752e-06	5.023042e-09	1.672689e+01	3.304766e+02
1.360000e-06	2.437642e-06	5.069918e-09	1.692751e+01	3.337588e+02
1.370000e-06	2.465893e-06	5.115506e-09	1.712369e+01	3.368252e+02
1.380000e-06	2.493341e-06	5.160086e-09	1.731430e+01	3.396837e+02
1.390000e-06	2.519608e-06	5.200191e-09	1.749670e+01	3.423438e+02
1.400000e-06	2.544661e-06	5.233971e-09	1.767067e+01	3.448167e+02
1.410000e-06	2.568832e-06	5.262997e-09	1.783852e+01	3.471156e+02
1.420000e-06	2.592160e-06	5.292583e-09	1.800052e+01	3.492545e+02
1.430000e-06	2.614564e-06	5.323610e-09	1.815609e+01	3.512478e+02
1.440000e-06	2.636091e-06	5.350611e-09	1.830558e+01	3.531092e+02
1.450000e-06	2.656876e-06	5.373343e-09	1.844992e+01	3.548513e+02
1.460000e-06	2.676969e-06	5.396303e-09	1.858945e+01	3.564843e+02
1.470000e-06	2.696106e-06	5.421836e-09	1.872234e+01	3.580165e+02
1.480000e-06	2.714211e-06	5.446368e-09	1.884807e+01	3.594533e+02
1.490000e-06	2.731403e-06	5.465272e-09	1.896745e+01	3.607981e+02
1.500000e-06	2.747573e-06	5.482017e-09	1.907974e+01	3.620523e+02
1.510000e-06	2.762630e-06	5.500825e-09	1.918429e+01	3.632159e+02
1.520000e-06	2.776626e-06	5.517584e-09	1.928149e+01	3.642884e+02
1.530000e-06	2.789613e-06	5.528263e-09	1.937167e+01	3.652695e+02
1.540000e-06	2.801515e-06	5.537549e-09	1.945432e+01	3.661591e+02
1.550000e-06	2.812105e-06	5.550537e-09	1.952786e+01	3.669584e+02
1.560000e-06	2.821408e-06	5.565950e-09	1.959246e+01	3.676695e+02
1.570000e-06	2.829743e-06	5.578873e-09	1.965035e+01	3.682956e+02
1.580000e-06	2.837232e-06	5.587702e-09	1.970235e+01	3.688408e+02
1.590000e-06	2.843811e-06	5.595877e-09	1.974804e+01	3.693096e+02
1.600000e-06	2.849430e-06	5.603018e-09	1.978705e+01	3.697063e+02
1.610000e-06	2.854200e-06	5.604850e-09	1.982018e+01	3.700348e+02
1.620000e-06	2.858121e-06	5.603866e-09	1.984740e+01	3.702983e+02
1.630000e-06	2.860814e-06	5.607307e-09	1.986611e+01	3.704984e+02
1.640000e-06	2.862201e-06	5.615345e-09	1.987574e+01	3.706360e+02
1.650000e-06	2.862599e-06	5.620957e-09	1.987850e+01	3.707104e+02
1.660000e-06	2.862160e-06	5.621274e-09	1.987545e+01	3.707204e+02
1.670000e-06	2.860883e-06	5.619038e-09	1.986658e+01	3.706642e+02
1.680000e-06	2.858692e-06	5.618033e-09	1.985137e+01	3.705401e+02
1.690000e-06	2.855639e-06	5.614268e-09	1.983017e+01	3.703467e+02
1.700000e-06	2.851812e-06	5.603710e-09	1.980359e+01	3.700838e+02
1.710000e-06	2.846960e-06	5.597923e-09	1.976990e+01	3.697523e+02
1.720000e-06	2.840921e-06	5.615656e-09	1.972797e+01	3.693542e+02
1.730000e-06	2.833928e-06	5.623665e-09	1.967941e+01	3.688930e+02
1.740000e-06	2.826051e-06	5.535126e-09	1.962471e+01	3.683731e+02
1.750000e-06	2.816818e-06	5.463933e-09	1.956059e+01	3.677991e+02
1.760000e-06	2.805967e-06	5.577310e-09	1.948524e+01	3.671761e+02
1.770000e-06	2.794280e-06	5.687856e-09	1.940408e+01	3.665084e+02
1.780000e-06	2.782526e-06	5.540466e-09	1.932246e+01	3.657994e+02
1.790000e-06	2.769956e-06	5.385550e-09	1.923517e+01	3.650510e+02
1.800000e-06	2.755679e-06	5.558265e-09	1.913603e+01	3.642637e+02
1.810000e-06	2.740254e-06	5.596880e-09	1.902891e+01	3.634360e+02
1.820000e-06	2.724296e-06	5.375013e-09	1.891810e+01	3.625652e+02
1.830000e-06	2.707206e-06	5.475709e-09	1.879942e+01	3.616470e+02
1.840000e-06	2.688732e-06	5.660959e-09	1.867113e+01	3.606765e+02
1.850000e-06	2.669557e-06	5.434711e-09	1.853798e+01	3.596486e+02
1.860000e-06	2.649649e-06	5.372040e-09	1.839973e+01	3.585583e+02
1.870000e-06	2.628501e-06	5.602872e-09	1.825288e+01	3.574015e+02
1.880000e-06	2.606339e-06	5.420273e-09	1.809898e+01	3.561749e+02
1.890000e-06	2.583239e-06	5.245486e-09	1.793857e+01	3.548768e+02
1.900000e-06	2.559042e-06	5.469680e-09	1.777054e+01	3.535069e+02
1.910000e-06	2.534148e-06	5.436602e-09	1.759767e+01	3.520660e+02
1.920000e-06	2.508546e-06	5.271423e-09	1.741988e+01	3.505558e+02
1.930000e-06	2.481995e-06	5.347689e-09	1.723551e+01	3.489788e+02
1.940000e-06	2.454732e-06	5.311445e-09	1.704618e+01	3.473377e+02
1.950000e-06	2.426663e-06	5.253605e-09	1.685127e+01	3.456349e+02
1.960000e-06	2.397410e-06	5.266731e-09	1.664813e+01	3.438724e+02
1.970000e-06	2.367083e-06	5.160212e-09	1.643753e+01	3.420513e+02
1.980000e-06	2.335966e-06	5.179406e-09	1.622145e+01	3.401720e+02
1.990000e-06	2.304141e-06	5.223725e-09	1.600045e+01	3.382341e+02
2.000000e-06	2.271589e-06	5.086700e-09	1.577440e+01	3.362365e+02
2.010000e-06	2.238183e-06	5.093553e-09	1.554242e+01	3.341780e+02
2.020000e-06	2.203981e-06	5.093316e-09	1.530492e+01	3.320572e+02
2.030000e-06	2.169217e-06	4.965105e-09	1.506351e+01	3.298729e+02
2.040000e-06	2.133828e-06	5.010029e-09	1.481776e+01	3.276248e+02
2.050000e-06	2.097789e-06	4.994395e-09	1.456750e+01	3.253129e+02
2.060000e-06	2.060910e-06	4.870319e-09	1.431140e+01	3.229383e+02
2.070000e-06	2.022823e-06	4.889399e-09	1.404692e+01	3.205024e+02
2.080000e-06	1.983809e-06	4.871982e-09	1.377600e+01	3.180073e+02
2.090000e-06	1.944261e-06	4.796407e-09	1.350137e+01	3.154549e+02
2.100000e-06	1.904190e-06	4.767000e-09	1.322310e+01	3.128472e+02
2.110000e-06	1.863503e-06	4.717936e-09	1.294057e+01	3.101853e+02
2.120000e-06	1.822179e-06	4.696373e-09	1.265360e+01	3.074694e+02
2.130000e-06	1.780255e-06	4.660720e-09	1.236248e+01	3.046989e+02
2.140000e-06	1.737726e-06	4.587260e-09	1.206714e+01	3.018719e+02
2.150000e-06	1.694666e-06	4.554721e-09	1.176812e+01	2.989852e+02
2.160000e-06	1.651204e-06	4.519745e-09	1.146632e+01	2.960353e+02
2.170000e-06	1.607274e-06	4.482620e-09	1.116126e+01	2.930177e+02
2.180000e-06	1.562717e-06	4.431916e-09	1.085184e+01	2.899282e+02
2.190000e-06	1.517513e-06	4.365754e-09	1.053794e+01	2.867628e+02
2.200000e-06	1.471683e-06	4.322968e-09	1.021968e+01	2.835180e+02
2.210000e-06	1.425416e-06	4.280672e-09	9.898395e+00	2.801917e+02
2.220000e-06	1.378799e-06	4.237900e-09	9.574676e+00	2.767827e+02
2.230000e-06	1.331712e-06	4.180664e-09	9.247698e+00	2.732907e+02
2.240000e-06	1.284034e-06	4.112183e-09	8.916606e+00	2.697168e+02
2.250000e-06	1.235747e-06	4.074451e-09	8.581295e+00	2.660623e+02
2.260000e-06	1.186984e-06	4.021687e-09	8.242670e+00	2.623292e+02
2.270000e-06	1.137777e-06	3.946790e-09	7.900967e+00	2.585192e+02
2.280000e-06	1.088162e-06	3.892415e-09	7.556431e+00	2.546332e+02
2.290000e-06	1.038128e-06	3.841360e-09	7.208982e+00	2.506717e+02
2.300000e-06	9.876476e-07	3.790318e-09	6.858437e+00	2.466339e+02
2.310000e-06	9.367844e-07	3.723371e-09	6.505233e+00	2.425179e+02
2.320000e-06	8.856087e-07	3.647790e-09	6.149857e+00	2.383210e+02
2.330000e-06	8.342058e-07	3.587387e-09	5.792904e+00	2.340395e+02
2.340000e-06	7.825243e-07	3.522619e-09	5.434017e+00	2.296695e+02
2.350000e-06	7.304427e-07	3.454102e-09	5.072352e+00	2.252068e+02
2.360000e-06	6.779381e-07	3.382003e-09	4.707748e+00	2.206478e+02
2.370000e-06	6.250169e-07	3.312064e-09	4.340251e+00	2.159894e+02
2.380000e-06	5.717140e-07	3.248212e-09	3.970105e+00	2.112291e+02
2.390000e-06	5.180436e-07	3.175687e-09	3.597406e+00	2.063653e+02
2.400000e-06	4.640674e-07	3.099239e-09	3.222584e+00	2.013969e+02
2.410000e-06	4.098974e-07	3.022562e-09	2.846415e+00	1.963230e+02
2.420000e-06	3.555136e-07	2.945673e-09	2.468763e+00	1.911427e+02
2.430000e-06	3.008974e-07	2.869562e-09	2.089496e+00	1.858541e+02
2.440000e-06	2.461637e-07	2.784743e-09	1.709414e+00	1.804544e+02
2.450000e-06	1.913688e-07	2.695771e-09	1.328906e+00	1.749390e+02
2.460000e-06	1.364798e-07	2.611657e-09	9.477449e-01	1.693021e+02
2.470000e-06	8.155474e-08	2.528065e-09	5.663336e-01	1.635355e+02
2.480000e-06	2.661440e-08	2.443144e-09	1.848161e-01	1.576300e+02
2.490000e-06	-2.834699e-08	2.352360e-09	-1.968476e-01	1.515751e+02
2.500000e-06	-8.326565e-08	2.258400e-09	-5.782146e-01	1.453594e+02
2.510000e-06	-1.381497e-07	2.164956e-09	-9.593415e-01	1.389720e+02
2.520000e-06	-1.929931e-07	2.065134e-09	-1.340186e+00	1.324020e+02
2.530000e-06	-2.477548e-07	1.957328e-09	-1.720463e+00	1.256397e+02
2.540000e-06	-3.024391e-07	1.846698e-09	-2.100202e+00	1.186766e+02
2.550000e-06	-3.570124e-07	1.739572e-09	-2.479171e+00	1.115050e+02
2.560000e-06	-4.114047e-07	1.634370e-09	-2.856882e+00	1.041180e+02
2.570000e-06	-4.655545e-07	1.523032e-09	-3.232910e+00	9.650863e+01
2.580000e-06	-5.193850e-07	1.405426e-09	-3.606721e+00	8.866864e+01
2.590000e-06	-5.728511e-07	1.284540e-09	-3.978001e+00	8.058787e+01
2.600000e-06	-6.259268e-07	1.159157e-09	-4.346571e+00	7.225291e+01
2.610000e-06	-6.786438e-07	1.026285e-09	-4.712649e+00	6.364637e+01
2.620000e-06	-7.309619e-07	8.855357e-10	-5.075957e+00	5.474635e+01
2.630000e-06	-7.828711e-07	7.411211e-10	-5.436425e+00	4.552651e+01
2.640000e-06	-8.345022e-07	5.978487e-10	-5.794963e+00	3.595680e+01
2.650000e-06	-8.858620e-07	4.512915e-10	-6.151616e+00	2.600482e+01
2.660000e-06	-9.369380e-07	2.954570e-10	-6.506299e+00	1.563794e+01
2.670000e-06	-9.877085e-07	1.321552e-10	-6.858860e+00	4.825953e+00
2.680000e-06	-1.038090e-06	-3.624056e-11	-7.208718e+00	-6.455734e+00
2.690000e-06	-1.088038e-06	-2.129787e-10	-7.555571e+00	-1.822284e+01
2.700000e-06	-1.137586e-06	-4.009188e-10	-7.899645e+00	-3.047891e+01
2.710000e-06	-1.186740e-06	-5.964700e-10	-8.240979e+00	-4.321249e+01
2.720000e-06	-1.235359e-06	-7.963481e-10	-8.578596e+00	-5.639490e+01
2.730000e-06	-1.283343e-06	-1.001313e-09	-8.911809e+00	-6.997892e+01
2.740000e-06	-1.330577e-06	-1.213942e-09	-9.239814e+00	-8.389872e+01
2.750000e-06	-1.377106e-06	-1.431896e-09	-9.562923e+00	-9.807084e+01
2.760000e-06	-1.423168e-06	-1.650945e-09	-9.882786e+00	-1.123965e+02
2.770000e-06	-1.468883e-06	-1.870362e-09	-1.020024e+01	-1.267652e+02
2.780000e-06	-1.514261e-06	-2.091384e-09	-1.051535e+01	-1.410588e+02
2.790000e-06	-1.559211e-06	-2.311797e-09	-1.082749e+01	-1.551566e+02
2.800000e-06	-1.603574e-06	-2.526317e-09	-1.113556e+01	-1.689408e+02
2.810000e-06	-1.647322e-06	-2.731574e-09	-1.143936e+01	-1.823016e+02
2.820000e-06	-1.690651e-06	-2.925818e-09	-1.174024e+01	-1.951418e+02
2.830000e-06	-1.733638e-06	-3.109581e-09	-1.203875e+01	-2.073808e+02
2.840000e-06	-1.776127e-06	-3.285127e-09	-1.233381e+01	-2.189576e+02
2.850000e-06	-1.817979e-06	-3.452373e-09	-1.262444e+01	-2.298322e+02
2.860000e-06	-1.859227e-06	-3.609315e-09	-1.291087e+01	-2.399858e+02
2.870000e-06	-1.899845e-06	-3.756182e-09	-1.319294e+01	-2.494199e+02
2.880000e-06	-1.939782e-06	-3.892762e-09	-1.347026e+01	-2.581540e+02
2.890000e-06	-1.979166e-06	-4.019620e-09	-1.374376e+01	-2.662225e+02
2.900000e-06	-2.018015e-06	-4.138781e-09	-1.401353e+01	-2.736708e+02
2.910000e-06	-2.056043e-06	-4.246981e-09	-1.427760e+01	-2.805515e+02
2.920000e-06	-2.092993e-06	-4.340947e-09	-1.453420e+01	-2.869202e+02
2.930000e-06	-2.128996e-06	-4.426699e-09	-1.478421e+01	-2.928319e+02
2.940000e-06	-2.164327e-06	-4.514738e-09	-1.502955e+01	-2.983381e+02
