# Temperatura_=_22.61
# Concentracion g/m^3_=_15500.0
# C_Vs_to_Am_M_A/Vsm_=_65563218390.804596
# pendiente_HvsI_1/m_=_3716.3
# ordenada_HvsI_A/m_=_1297.0
# frecuencia_Hz_=_300834.7606821858

Tiempo_(s)	Campo_(V.s)	Magnetizacion_(V.s)	Campo_(kA/m)	Magnetizacion_(A/m)
0.000000e+00	-2.853633e-06	-5.605497e-09	-1.980654e+01	-3.662615e+02
1.000000e-08	-2.853282e-06	-5.605580e-09	-1.980410e+01	-3.662248e+02
2.000000e-08	-2.852163e-06	-5.608560e-09	-1.979633e+01	-3.661185e+02
3.000000e-08	-2.849995e-06	-5.606228e-09	-1.978129e+01	-3.659411e+02
4.000000e-08	-2.846615e-06	-5.602246e-09	-1.975782e+01	-3.656924e+02
5.000000e-08	-2.842253e-06	-5.599106e-09	-1.972755e+01	-3.653735e+02
6.000000e-08	-2.837055e-06	-5.589656e-09	-1.969147e+01	-3.649868e+02
7.000000e-08	-2.830946e-06	-5.564403e-09	-1.964907e+01	-3.645364e+02
8.000000e-08	-2.823861e-06	-5.537785e-09	-1.959989e+01	-3.640274e+02
9.000000e-08	-2.815767e-06	-5.599304e-09	-1.954372e+01	-3.634660e+02
1.000000e-07	-2.806390e-06	-5.682139e-09	-1.947863e+01	-3.628584e+02
1.100000e-07	-2.795473e-06	-5.610968e-09	-1.940286e+01	-3.622103e+02
1.200000e-07	-2.783516e-06	-5.369728e-09	-1.931987e+01	-3.615264e+02
1.300000e-07	-2.770957e-06	-5.443417e-09	-1.923270e+01	-3.608099e+02
1.400000e-07	-2.757492e-06	-5.692237e-09	-1.913924e+01	-3.600618e+02
1.500000e-07	-2.742943e-06	-5.521187e-09	-1.903826e+01	-3.592809e+02
1.600000e-07	-2.727376e-06	-5.305584e-09	-1.893021e+01	-3.584642e+02
1.700000e-07	-2.710483e-06	-5.554593e-09	-1.881295e+01	-3.576064e+02
1.800000e-07	-2.692331e-06	-5.622029e-09	-1.868697e+01	-3.567014e+02
1.900000e-07	-2.673559e-06	-5.278150e-09	-1.855668e+01	-3.557419e+02
2.000000e-07	-2.654112e-06	-5.394643e-09	-1.842170e+01	-3.547211e+02
2.100000e-07	-2.633691e-06	-5.541067e-09	-1.827996e+01	-3.536327e+02
2.200000e-07	-2.612442e-06	-5.240934e-09	-1.813247e+01	-3.524716e+02
2.300000e-07	-2.590415e-06	-5.291705e-09	-1.797959e+01	-3.512347e+02
2.400000e-07	-2.567423e-06	-5.536034e-09	-1.782001e+01	-3.499205e+02
2.500000e-07	-2.543472e-06	-5.300504e-09	-1.765377e+01	-3.485296e+02
2.600000e-07	-2.518749e-06	-5.194423e-09	-1.748217e+01	-3.470643e+02
2.700000e-07	-2.493192e-06	-5.329538e-09	-1.730478e+01	-3.455281e+02
2.800000e-07	-2.466513e-06	-5.251982e-09	-1.711961e+01	-3.439253e+02
2.900000e-07	-2.438732e-06	-5.180590e-09	-1.692678e+01	-3.422603e+02
3.000000e-07	-2.410032e-06	-5.201425e-09	-1.672758e+01	-3.405372e+02
3.100000e-07	-2.380538e-06	-5.157216e-09	-1.652287e+01	-3.387592e+02
3.200000e-07	-2.350363e-06	-5.176064e-09	-1.631343e+01	-3.369282e+02
3.300000e-07	-2.319449e-06	-5.165479e-09	-1.609886e+01	-3.350452e+02
3.400000e-07	-2.287708e-06	-5.023641e-09	-1.587855e+01	-3.331095e+02
3.500000e-07	-2.255271e-06	-5.048839e-09	-1.565341e+01	-3.311196e+02
3.600000e-07	-2.222300e-06	-5.039858e-09	-1.542457e+01	-3.290735e+02
3.700000e-07	-2.188469e-06	-4.959341e-09	-1.518976e+01	-3.269686e+02
3.800000e-07	-2.153415e-06	-4.993929e-09	-1.494645e+01	-3.248026e+02
3.900000e-07	-2.117361e-06	-4.933178e-09	-1.469621e+01	-3.225738e+02
4.000000e-07	-2.080677e-06	-4.831561e-09	-1.444159e+01	-3.202811e+02
4.100000e-07	-2.043417e-06	-4.875596e-09	-1.418298e+01	-3.179244e+02
4.200000e-07	-2.005468e-06	-4.854998e-09	-1.391958e+01	-3.155044e+02
4.300000e-07	-1.966713e-06	-4.734496e-09	-1.365059e+01	-3.130225e+02
4.400000e-07	-1.927177e-06	-4.724696e-09	-1.337618e+01	-3.104802e+02
4.500000e-07	-1.887044e-06	-4.714994e-09	-1.309762e+01	-3.078791e+02
4.600000e-07	-1.846520e-06	-4.665200e-09	-1.281635e+01	-3.052203e+02
4.700000e-07	-1.805652e-06	-4.614940e-09	-1.253269e+01	-3.025039e+02
4.800000e-07	-1.764007e-06	-4.565295e-09	-1.224364e+01	-2.997293e+02
4.900000e-07	-1.721228e-06	-4.520124e-09	-1.194672e+01	-2.968944e+02
5.000000e-07	-1.677495e-06	-4.491713e-09	-1.164318e+01	-2.939961e+02
5.100000e-07	-1.633190e-06	-4.449099e-09	-1.133566e+01	-2.910307e+02
5.200000e-07	-1.588486e-06	-4.378651e-09	-1.102538e+01	-2.879935e+02
5.300000e-07	-1.543349e-06	-4.339790e-09	-1.071210e+01	-2.848801e+02
5.400000e-07	-1.497676e-06	-4.303227e-09	-1.039509e+01	-2.816863e+02
5.500000e-07	-1.451422e-06	-4.257497e-09	-1.007405e+01	-2.784086e+02
5.600000e-07	-1.404659e-06	-4.193546e-09	-9.749475e+00	-2.750449e+02
5.700000e-07	-1.357356e-06	-4.130547e-09	-9.421155e+00	-2.715940e+02
5.800000e-07	-1.309600e-06	-4.078924e-09	-9.089689e+00	-2.680562e+02
5.900000e-07	-1.261484e-06	-4.038661e-09	-8.755725e+00	-2.644330e+02
6.000000e-07	-1.212994e-06	-3.977832e-09	-8.419163e+00	-2.607267e+02
6.100000e-07	-1.164128e-06	-3.907704e-09	-8.079996e+00	-2.569398e+02
6.200000e-07	-1.114776e-06	-3.862075e-09	-7.737452e+00	-2.530752e+02
6.300000e-07	-1.064824e-06	-3.807208e-09	-7.390743e+00	-2.491349e+02
6.400000e-07	-1.014257e-06	-3.739072e-09	-7.039766e+00	-2.451202e+02
6.500000e-07	-9.631383e-07	-3.662422e-09	-6.684963e+00	-2.410313e+02
6.600000e-07	-9.114802e-07	-3.599517e-09	-6.326414e+00	-2.368669e+02
6.700000e-07	-8.593627e-07	-3.544294e-09	-5.964676e+00	-2.326249e+02
6.800000e-07	-8.070023e-07	-3.484220e-09	-5.601253e+00	-2.283017e+02
6.900000e-07	-7.544695e-07	-3.411596e-09	-5.236632e+00	-2.238933e+02
7.000000e-07	-7.016298e-07	-3.336301e-09	-4.869882e+00	-2.193955e+02
7.100000e-07	-6.484869e-07	-3.271231e-09	-4.501027e+00	-2.148038e+02
7.200000e-07	-5.951743e-07	-3.201071e-09	-4.130994e+00	-2.101146e+02
7.300000e-07	-5.416393e-07	-3.122644e-09	-3.759418e+00	-2.053245e+02
7.400000e-07	-4.878585e-07	-3.043221e-09	-3.386135e+00	-2.004312e+02
7.500000e-07	-4.338526e-07	-2.974329e-09	-3.011290e+00	-1.954327e+02
7.600000e-07	-3.796540e-07	-2.902787e-09	-2.635108e+00	-1.903275e+02
7.700000e-07	-3.253266e-07	-2.822064e-09	-2.258031e+00	-1.851141e+02
7.800000e-07	-2.709311e-07	-2.731019e-09	-1.880482e+00	-1.797903e+02
7.900000e-07	-2.165088e-07	-2.641581e-09	-1.502747e+00	-1.743533e+02
8.000000e-07	-1.620112e-07	-2.560629e-09	-1.124490e+00	-1.687989e+02
8.100000e-07	-1.074561e-07	-2.474246e-09	-7.458324e-01	-1.631214e+02
8.200000e-07	-5.291401e-08	-2.382414e-09	-3.672663e-01	-1.573137e+02
8.300000e-07	1.628497e-09	-2.288981e-09	1.130309e-02	-1.513671e+02
8.400000e-07	5.617651e-08	-2.200040e-09	3.899107e-01	-1.452722e+02
8.500000e-07	1.107099e-07	-2.106179e-09	7.684166e-01	-1.390187e+02
8.600000e-07	1.652178e-07	-2.004888e-09	1.146746e+00	-1.325965e+02
8.700000e-07	2.196583e-07	-1.899287e-09	1.524607e+00	-1.259958e+02
8.800000e-07	2.740570e-07	-1.794668e-09	1.902179e+00	-1.192079e+02
8.900000e-07	3.283830e-07	-1.689027e-09	2.279245e+00	-1.122246e+02
9.000000e-07	3.825983e-07	-1.574876e-09	2.655543e+00	-1.050391e+02
9.100000e-07	4.366667e-07	-1.456922e-09	3.030822e+00	-9.764487e+01
9.200000e-07	4.905284e-07	-1.341661e-09	3.404666e+00	-9.003511e+01
9.300000e-07	5.441144e-07	-1.229659e-09	3.776596e+00	-8.220203e+01
9.400000e-07	5.974542e-07	-1.107240e-09	4.146819e+00	-7.413571e+01
9.500000e-07	6.506541e-07	-9.762184e-10	4.516069e+00	-6.582317e+01
9.600000e-07	7.036406e-07	-8.426520e-10	4.883838e+00	-5.724756e+01
9.700000e-07	7.563729e-07	-7.083584e-10	5.249843e+00	-4.838781e+01
9.800000e-07	8.088726e-07	-5.672042e-10	5.614234e+00	-3.921870e+01
9.900000e-07	8.610977e-07	-4.157880e-10	5.976719e+00	-2.971163e+01
1.000000e-06	9.130110e-07	-2.597150e-10	6.337039e+00	-1.983598e+01
1.010000e-06	9.645089e-07	-1.023169e-10	6.694476e+00	-9.561221e+00
1.020000e-06	1.015366e-06	5.584057e-11	7.047467e+00	1.140484e+00
1.030000e-06	1.065554e-06	2.236565e-10	7.395810e+00	1.229128e+01
1.040000e-06	1.115090e-06	4.009239e-10	7.739630e+00	2.390440e+01
1.050000e-06	1.164080e-06	5.866132e-10	8.079663e+00	3.598115e+01
1.060000e-06	1.212765e-06	7.781886e-10	8.417576e+00	4.850817e+01
1.070000e-06	1.261235e-06	9.764018e-10	8.753999e+00	6.145546e+01
1.080000e-06	1.309376e-06	1.181872e-09	9.088133e+00	7.477527e+01
1.090000e-06	1.357052e-06	1.389760e-09	9.419043e+00	8.840212e+01
1.100000e-06	1.404191e-06	1.598600e-09	9.746231e+00	1.022540e+02
1.110000e-06	1.450810e-06	1.807872e-09	1.006980e+01	1.162347e+02
1.120000e-06	1.496943e-06	2.021464e-09	1.039000e+01	1.302373e+02
1.130000e-06	1.542538e-06	2.233718e-09	1.070647e+01	1.441482e+02
1.140000e-06	1.587618e-06	2.440892e-09	1.101936e+01	1.578526e+02
1.150000e-06	1.632283e-06	2.641480e-09	1.132937e+01	1.712387e+02
1.160000e-06	1.676633e-06	2.835547e-09	1.163720e+01	1.842033e+02
1.170000e-06	1.720496e-06	3.022387e-09	1.194164e+01	1.966559e+02
1.180000e-06	1.763542e-06	3.202895e-09	1.224042e+01	2.085226e+02
1.190000e-06	1.805594e-06	3.376549e-09	1.253229e+01	2.197481e+02
1.200000e-06	1.846788e-06	3.539814e-09	1.281821e+01	2.302976e+02
1.210000e-06	1.887432e-06	3.691689e-09	1.310031e+01	2.401562e+02
1.220000e-06	1.927585e-06	3.828909e-09	1.337901e+01	2.493283e+02
1.230000e-06	1.967078e-06	3.953519e-09	1.365312e+01	2.578346e+02
1.240000e-06	2.005869e-06	4.067642e-09	1.392236e+01	2.657095e+02
1.250000e-06	2.043972e-06	4.174550e-09	1.418683e+01	2.729971e+02
1.260000e-06	2.081293e-06	4.275175e-09	1.444586e+01	2.797478e+02
1.270000e-06	2.118006e-06	4.370434e-09	1.470068e+01	2.860137e+02
1.280000e-06	2.154271e-06	4.460721e-09	1.495239e+01	2.918461e+02
1.290000e-06	2.189745e-06	4.546689e-09	1.519861e+01	2.972921e+02
1.300000e-06	2.224059e-06	4.624673e-09	1.543678e+01	3.023931e+02
1.310000e-06	2.257348e-06	4.691950e-09	1.566783e+01	3.071835e+02
1.320000e-06	2.289940e-06	4.754731e-09	1.589405e+01	3.116905e+02
1.330000e-06	2.321890e-06	4.816811e-09	1.611581e+01	3.159346e+02
1.340000e-06	2.353095e-06	4.877581e-09	1.633239e+01	3.199307e+02
1.350000e-06	2.383508e-06	4.932457e-09	1.654349e+01	3.236891e+02
1.360000e-06	2.413098e-06	4.979825e-09	1.674886e+01	3.272180e+02
1.370000e-06	2.441953e-06	5.025924e-09	1.694914e+01	3.305239e+02
1.380000e-06	2.470177e-06	5.076323e-09	1.714504e+01	3.336140e+02
1.390000e-06	2.497465e-06	5.124413e-09	1.733444e+01	3.364963e+02
1.400000e-06	2.523506e-06	5.162347e-09	1.751518e+01	3.391806e+02
1.410000e-06	2.548431e-06	5.193665e-09	1.768819e+01	3.416783e+02
1.420000e-06	2.572523e-06	5.225201e-09	1.785541e+01	3.440025e+02
1.430000e-06	2.595786e-06	5.258506e-09	1.801687e+01	3.461670e+02
1.440000e-06	2.618186e-06	5.288191e-09	1.817234e+01	3.481857e+02
1.450000e-06	2.639701e-06	5.312859e-09	1.832167e+01	3.500717e+02
1.460000e-06	2.660407e-06	5.338559e-09	1.846539e+01	3.518368e+02
1.470000e-06	2.680356e-06	5.368323e-09	1.860385e+01	3.534905e+02
1.480000e-06	2.699371e-06	5.395801e-09	1.873583e+01	3.550401e+02
1.490000e-06	2.717368e-06	5.415979e-09	1.886074e+01	3.564906e+02
1.500000e-06	2.734455e-06	5.433152e-09	1.897934e+01	3.578448e+02
1.510000e-06	2.750480e-06	5.450961e-09	1.909057e+01	3.591038e+02
1.520000e-06	2.765355e-06	5.468220e-09	1.919381e+01	3.602677e+02
1.530000e-06	2.779244e-06	5.481616e-09	1.929022e+01	3.613362e+02
1.540000e-06	2.792136e-06	5.492683e-09	1.937969e+01	3.623093e+02
1.550000e-06	2.803945e-06	5.505813e-09	1.946166e+01	3.631877e+02
1.560000e-06	2.814415e-06	5.520067e-09	1.953433e+01	3.639731e+02
1.570000e-06	2.823665e-06	5.532740e-09	1.959853e+01	3.646685e+02
1.580000e-06	2.832012e-06	5.543474e-09	1.965647e+01	3.652775e+02
1.590000e-06	2.839401e-06	5.553197e-09	1.970775e+01	3.658047e+02
1.600000e-06	2.845789e-06	5.562095e-09	1.975209e+01	3.662548e+02
1.610000e-06	2.851251e-06	5.566821e-09	1.979000e+01	3.666321e+02
1.620000e-06	2.855911e-06	5.568308e-09	1.982235e+01	3.669404e+02
1.630000e-06	2.859689e-06	5.572231e-09	1.984857e+01	3.671821e+02
1.640000e-06	2.862258e-06	5.578284e-09	1.986640e+01	3.673588e+02
1.650000e-06	2.863608e-06	5.580856e-09	1.987577e+01	3.674704e+02
1.660000e-06	2.864001e-06	5.580910e-09	1.987850e+01	3.675161e+02
1.670000e-06	2.863476e-06	5.582630e-09	1.987485e+01	3.674942e+02
1.680000e-06	2.862018e-06	5.581218e-09	1.986473e+01	3.674029e+02
1.690000e-06	2.859642e-06	5.577855e-09	1.984824e+01	3.672409e+02
1.700000e-06	2.856485e-06	5.573859e-09	1.982633e+01	3.670075e+02
1.710000e-06	2.852595e-06	5.568381e-09	1.979933e+01	3.667035e+02
1.720000e-06	2.847683e-06	5.566859e-09	1.976524e+01	3.663311e+02
1.730000e-06	2.841567e-06	5.583425e-09	1.972279e+01	3.658939e+02
1.740000e-06	2.834460e-06	5.593742e-09	1.967346e+01	3.653971e+02
1.750000e-06	2.826503e-06	5.478382e-09	1.961823e+01	3.648465e+02
1.760000e-06	2.817176e-06	5.393363e-09	1.955350e+01	3.642482e+02
1.770000e-06	2.806190e-06	5.534325e-09	1.947724e+01	3.636084e+02
1.780000e-06	2.794384e-06	5.680826e-09	1.939530e+01	3.629319e+02
1.790000e-06	2.782540e-06	5.503456e-09	1.931309e+01	3.622223e+02
1.800000e-06	2.769865e-06	5.297803e-09	1.922512e+01	3.614810e+02
1.810000e-06	2.755402e-06	5.559443e-09	1.912473e+01	3.607074e+02
1.820000e-06	2.739846e-06	5.591433e-09	1.901676e+01	3.598988e+02
1.830000e-06	2.723866e-06	5.269759e-09	1.890585e+01	3.590503e+02
1.840000e-06	2.706658e-06	5.398890e-09	1.878641e+01	3.581560e+02
1.850000e-06	2.688054e-06	5.650953e-09	1.865728e+01	3.572089e+02
1.860000e-06	2.668851e-06	5.355247e-09	1.852400e+01	3.562019e+02
1.870000e-06	2.648985e-06	5.266281e-09	1.838611e+01	3.551284e+02
1.880000e-06	2.627789e-06	5.603105e-09	1.823900e+01	3.539833e+02
1.890000e-06	2.605494e-06	5.361238e-09	1.808425e+01	3.527629e+02
1.900000e-06	2.582308e-06	5.123336e-09	1.792332e+01	3.514653e+02
1.910000e-06	2.558042e-06	5.451190e-09	1.775489e+01	3.500907e+02
1.920000e-06	2.533121e-06	5.396572e-09	1.758192e+01	3.486412e+02
1.930000e-06	2.507467e-06	5.188020e-09	1.740386e+01	3.471199e+02
1.940000e-06	2.480824e-06	5.320699e-09	1.721894e+01	3.455310e+02
1.950000e-06	2.453568e-06	5.245254e-09	1.702976e+01	3.438790e+02
1.960000e-06	2.425455e-06	5.183042e-09	1.683463e+01	3.421681e+02
1.970000e-06	2.395954e-06	5.230308e-09	1.662987e+01	3.404016e+02
1.980000e-06	2.365424e-06	5.081308e-09	1.641796e+01	3.385820e+02
1.990000e-06	2.334210e-06	5.116434e-09	1.620131e+01	3.367101e+02
2.000000e-06	2.302286e-06	5.201955e-09	1.597974e+01	3.347858e+02
2.010000e-06	2.269659e-06	5.014855e-09	1.575328e+01	3.328078e+02
2.020000e-06	2.236186e-06	5.044142e-09	1.552095e+01	3.307740e+02
2.030000e-06	2.201923e-06	5.063298e-09	1.528314e+01	3.286819e+02
2.040000e-06	2.167086e-06	4.885885e-09	1.504134e+01	3.265292e+02
2.050000e-06	2.131604e-06	4.965828e-09	1.479506e+01	3.243140e+02
2.060000e-06	2.095422e-06	4.956186e-09	1.454394e+01	3.220351e+02
2.070000e-06	2.058298e-06	4.799175e-09	1.428626e+01	3.196921e+02
2.080000e-06	2.020001e-06	4.848481e-09	1.402045e+01	3.172857e+02
2.090000e-06	1.980915e-06	4.831945e-09	1.374916e+01	3.148169e+02
2.100000e-06	1.941349e-06	4.742745e-09	1.347454e+01	3.122875e+02
2.110000e-06	1.901199e-06	4.731160e-09	1.319587e+01	3.096989e+02
2.120000e-06	1.860410e-06	4.664292e-09	1.291276e+01	3.070524e+02
2.130000e-06	1.819034e-06	4.636966e-09	1.262557e+01	3.043485e+02
2.140000e-06	1.777069e-06	4.612448e-09	1.233430e+01	3.015865e+02
2.150000e-06	1.734511e-06	4.538221e-09	1.203892e+01	2.987648e+02
2.160000e-06	1.691443e-06	4.511529e-09	1.173999e+01	2.958805e+02
2.170000e-06	1.647923e-06	4.467007e-09	1.143792e+01	2.929298e+02
2.180000e-06	1.603836e-06	4.432708e-09	1.113192e+01	2.899084e+02
2.190000e-06	1.559081e-06	4.381613e-09	1.082129e+01	2.868118e+02
2.200000e-06	1.513687e-06	4.308395e-09	1.050622e+01	2.836355e+02
2.210000e-06	1.467818e-06	4.267437e-09	1.018785e+01	2.803761e+02
2.220000e-06	1.421615e-06	4.220820e-09	9.867164e+00	2.770310e+02
2.230000e-06	1.374916e-06	4.180083e-09	9.543033e+00	2.735989e+02
2.240000e-06	1.327688e-06	4.124758e-09	9.215235e+00	2.700797e+02
2.250000e-06	1.279837e-06	4.051466e-09	8.883111e+00	2.664747e+02
2.260000e-06	1.231323e-06	4.016609e-09	8.546386e+00	2.627859e+02
2.270000e-06	1.182400e-06	3.962670e-09	8.206818e+00	2.590162e+02
2.280000e-06	1.133144e-06	3.881166e-09	7.864941e+00	2.551680e+02
2.290000e-06	1.083501e-06	3.829272e-09	7.520381e+00	2.512438e+02
2.300000e-06	1.033376e-06	3.773251e-09	7.172472e+00	2.472451e+02
2.310000e-06	9.827464e-07	3.723877e-09	6.821060e+00	2.431722e+02
2.320000e-06	9.317448e-07	3.661166e-09	6.467067e+00	2.390242e+02
2.330000e-06	8.805267e-07	3.580094e-09	6.111572e+00	2.347991e+02
2.340000e-06	8.291133e-07	3.516184e-09	5.754721e+00	2.304936e+02
2.350000e-06	7.773534e-07	3.448508e-09	5.395465e+00	2.261039e+02
2.360000e-06	7.251714e-07	3.382317e-09	5.033279e+00	2.216256e+02
2.370000e-06	6.725679e-07	3.307742e-09	4.668169e+00	2.170545e+02
2.380000e-06	6.195268e-07	3.233795e-09	4.300020e+00	2.123865e+02
2.390000e-06	5.661482e-07	3.173731e-09	3.929529e+00	2.076183e+02
2.400000e-06	5.124145e-07	3.104266e-09	3.556573e+00	2.027474e+02
2.410000e-06	4.582653e-07	3.026255e-09	3.180734e+00	1.977716e+02
2.420000e-06	4.038695e-07	2.945452e-09	2.803183e+00	1.926894e+02
2.430000e-06	3.493520e-07	2.866313e-09	2.424787e+00	1.874994e+02
2.440000e-06	2.946960e-07	2.791396e-09	2.045430e+00	1.821995e+02
2.450000e-06	2.399291e-07	2.706751e-09	1.665303e+00	1.767871e+02
2.460000e-06	1.850493e-07	2.616838e-09	1.284393e+00	1.712583e+02
2.470000e-06	1.301136e-07	2.533002e-09	9.030941e-01	1.656078e+02
2.480000e-06	7.519040e-08	2.448977e-09	5.218825e-01	1.598287e+02
2.490000e-06	2.025814e-08	2.364206e-09	1.406079e-01	1.539127e+02
2.500000e-06	-3.473123e-08	2.271117e-09	-2.410630e-01	1.478504e+02
2.510000e-06	-8.975709e-08	2.174768e-09	-6.229872e-01	1.416318e+02
2.520000e-06	-1.446980e-07	2.081347e-09	-1.004322e+00	1.352467e+02
2.530000e-06	-1.995973e-07	1.981676e-09	-1.385368e+00	1.286851e+02
2.540000e-06	-2.544893e-07	1.875691e-09	-1.766362e+00	1.219380e+02
2.550000e-06	-3.092832e-07	1.766205e-09	-2.146677e+00	1.149972e+02
2.560000e-06	-3.638925e-07	1.660321e-09	-2.525710e+00	1.078557e+02
2.570000e-06	-4.183121e-07	1.554680e-09	-2.903427e+00	1.005068e+02
2.580000e-06	-4.725915e-07	1.442912e-09	-3.280170e+00	9.294382e+01
2.590000e-06	-5.265780e-07	1.326617e-09	-3.654880e+00	8.515938e+01
2.600000e-06	-5.801470e-07	1.207482e-09	-4.026692e+00	7.714407e+01
2.610000e-06	-6.333029e-07	1.083262e-09	-4.395637e+00	6.888561e+01
2.620000e-06	-6.859791e-07	9.521299e-10	-4.761253e+00	6.036804e+01
2.630000e-06	-7.382416e-07	8.144180e-10	-5.123998e+00	5.157121e+01
2.640000e-06	-7.901219e-07	6.705452e-10	-5.484089e+00	4.247074e+01
2.650000e-06	-8.416258e-07	5.276292e-10	-5.841568e+00	3.303867e+01
2.660000e-06	-8.929005e-07	3.831736e-10	-6.197456e+00	2.324465e+01
2.670000e-06	-9.439444e-07	2.312456e-10	-6.551742e+00	1.305794e+01
2.680000e-06	-9.946944e-07	6.967620e-11	-6.903989e+00	2.449868e+00
2.690000e-06	-1.045106e-06	-9.852615e-11	-7.253883e+00	-8.603182e+00
2.700000e-06	-1.095032e-06	-2.713986e-10	-7.600413e+00	-2.011663e+01
2.710000e-06	-1.144493e-06	-4.515518e-10	-7.943712e+00	-3.209458e+01
2.720000e-06	-1.193609e-06	-6.413168e-10	-8.284614e+00	-4.452701e+01
2.730000e-06	-1.242297e-06	-8.398110e-10	-8.622555e+00	-5.738760e+01
2.740000e-06	-1.290353e-06	-1.040411e-09	-8.956100e+00	-7.063246e+01
2.750000e-06	-1.337561e-06	-1.244931e-09	-9.283759e+00	-8.419985e+01
2.760000e-06	-1.383972e-06	-1.458256e-09	-9.605891e+00	-9.801113e+01
2.770000e-06	-1.429895e-06	-1.676056e-09	-9.924636e+00	-1.119729e+02
2.780000e-06	-1.475508e-06	-1.891151e-09	-1.024123e+01	-1.259801e+02
2.790000e-06	-1.520800e-06	-2.104819e-09	-1.055559e+01	-1.399204e+02
2.800000e-06	-1.565680e-06	-2.317912e-09	-1.086709e+01	-1.536786e+02
2.810000e-06	-1.609973e-06	-2.526440e-09	-1.117453e+01	-1.671418e+02
2.820000e-06	-1.653657e-06	-2.725967e-09	-1.147773e+01	-1.802048e+02
2.830000e-06	-1.696905e-06	-2.914934e-09	-1.177790e+01	-1.927740e+02
2.840000e-06	-1.739804e-06	-3.096472e-09	-1.207565e+01	-2.047715e+02
2.850000e-06	-1.782147e-06	-3.271490e-09	-1.236955e+01	-2.161380e+02
2.860000e-06	-1.823813e-06	-3.437210e-09	-1.265875e+01	-2.268342e+02
2.870000e-06	-1.864890e-06	-3.589922e-09	-1.294386e+01	-2.368411e+02
2.880000e-06	-1.905367e-06	-3.733086e-09	-1.322480e+01	-2.461590e+02
2.890000e-06	-1.945187e-06	-3.869397e-09	-1.350118e+01	-2.548054e+02
2.900000e-06	-1.984453e-06	-3.996531e-09	-1.377372e+01	-2.628121e+02
2.910000e-06	-2.023253e-06	-4.112140e-09	-1.404303e+01	-2.702215e+02
2.920000e-06	-2.061261e-06	-4.214509e-09	-1.430683e+01	-2.770828e+02
2.930000e-06	-2.098171e-06	-4.308254e-09	-1.456301e+01	-2.834482e+02
2.940000e-06	-2.134078e-06	-4.399387e-09	-1.481224e+01	-2.893693e+02
