# Temperatura_=_24.56
# Concentracion g/m^3_=_15500.0
# C_Vs_to_Am_M_A/Vsm_=_65563218390.804596
# pendiente_HvsI_1/m_=_3716.3
# ordenada_HvsI_A/m_=_1297.0
# frecuencia_Hz_=_300844.67034256976

Tiempo_(s)	Campo_(V.s)	Magnetizacion_(V.s)	Campo_(kA/m)	Magnetizacion_(A/m)
0.000000e+00	-2.852042e-06	-5.699226e-09	-1.980040e+01	-3.718422e+02
1.000000e-08	-2.851199e-06	-5.696984e-09	-1.979455e+01	-3.717215e+02
2.000000e-08	-2.849410e-06	-5.693592e-09	-1.978213e+01	-3.715270e+02
3.000000e-08	-2.846351e-06	-5.689006e-09	-1.976090e+01	-3.712575e+02
4.000000e-08	-2.842194e-06	-5.682229e-09	-1.973203e+01	-3.709126e+02
5.000000e-08	-2.837242e-06	-5.673642e-09	-1.969765e+01	-3.704940e+02
6.000000e-08	-2.831450e-06	-5.667427e-09	-1.965744e+01	-3.700045e+02
7.000000e-08	-2.824706e-06	-5.652692e-09	-1.961062e+01	-3.694488e+02
8.000000e-08	-2.816927e-06	-5.645462e-09	-1.955662e+01	-3.688328e+02
9.000000e-08	-2.807937e-06	-5.672183e-09	-1.949420e+01	-3.681629e+02
1.000000e-07	-2.797507e-06	-5.691477e-09	-1.942179e+01	-3.674456e+02
1.100000e-07	-2.785880e-06	-5.598002e-09	-1.934107e+01	-3.666867e+02
1.200000e-07	-2.773505e-06	-5.523860e-09	-1.925516e+01	-3.658908e+02
1.300000e-07	-2.760292e-06	-5.606289e-09	-1.916342e+01	-3.650604e+02
1.400000e-07	-2.746022e-06	-5.682016e-09	-1.906436e+01	-3.641962e+02
1.500000e-07	-2.730747e-06	-5.499197e-09	-1.895831e+01	-3.632966e+02
1.600000e-07	-2.714276e-06	-5.483187e-09	-1.884396e+01	-3.623579e+02
1.700000e-07	-2.696489e-06	-5.650134e-09	-1.872047e+01	-3.613751e+02
1.800000e-07	-2.677853e-06	-5.526363e-09	-1.859109e+01	-3.603422e+02
1.900000e-07	-2.658563e-06	-5.421343e-09	-1.845717e+01	-3.592529e+02
2.000000e-07	-2.638406e-06	-5.541419e-09	-1.831723e+01	-3.581016e+02
2.100000e-07	-2.617380e-06	-5.498038e-09	-1.817125e+01	-3.568839e+02
2.200000e-07	-2.595572e-06	-5.340968e-09	-1.801985e+01	-3.555968e+02
2.300000e-07	-2.572822e-06	-5.453713e-09	-1.786191e+01	-3.542397e+02
2.400000e-07	-2.549072e-06	-5.477638e-09	-1.769702e+01	-3.528135e+02
2.500000e-07	-2.524580e-06	-5.327985e-09	-1.752698e+01	-3.513213e+02
2.600000e-07	-2.499331e-06	-5.341037e-09	-1.735170e+01	-3.497674e+02
2.700000e-07	-2.473016e-06	-5.386784e-09	-1.716900e+01	-3.481568e+02
2.800000e-07	-2.445571e-06	-5.279203e-09	-1.697846e+01	-3.464948e+02
2.900000e-07	-2.417166e-06	-5.259732e-09	-1.678126e+01	-3.447860e+02
3.000000e-07	-2.387962e-06	-5.257636e-09	-1.657851e+01	-3.430340e+02
3.100000e-07	-2.358051e-06	-5.227640e-09	-1.637085e+01	-3.412408e+02
3.200000e-07	-2.327403e-06	-5.219756e-09	-1.615808e+01	-3.394066e+02
3.300000e-07	-2.295924e-06	-5.151794e-09	-1.593954e+01	-3.375299e+02
3.400000e-07	-2.263713e-06	-5.131203e-09	-1.571591e+01	-3.356077e+02
3.500000e-07	-2.230929e-06	-5.113608e-09	-1.548831e+01	-3.336358e+02
3.600000e-07	-2.197391e-06	-5.055277e-09	-1.525547e+01	-3.316095e+02
3.700000e-07	-2.162677e-06	-5.044667e-09	-1.501446e+01	-3.295238e+02
3.800000e-07	-2.126840e-06	-5.037357e-09	-1.476566e+01	-3.273746e+02
3.900000e-07	-2.090361e-06	-4.943111e-09	-1.451240e+01	-3.251583e+02
4.000000e-07	-2.053350e-06	-4.929269e-09	-1.425545e+01	-3.228729e+02
4.100000e-07	-2.015613e-06	-4.928065e-09	-1.399347e+01	-3.205175e+02
4.200000e-07	-1.977108e-06	-4.850747e-09	-1.372614e+01	-3.180926e+02
4.300000e-07	-1.937825e-06	-4.809248e-09	-1.345342e+01	-3.155996e+02
4.400000e-07	-1.897845e-06	-4.793748e-09	-1.317585e+01	-3.130406e+02
4.500000e-07	-1.857431e-06	-4.756892e-09	-1.289528e+01	-3.104176e+02
4.600000e-07	-1.816674e-06	-4.707704e-09	-1.261233e+01	-3.077325e+02
4.700000e-07	-1.775269e-06	-4.666490e-09	-1.232487e+01	-3.049864e+02
4.800000e-07	-1.732854e-06	-4.615269e-09	-1.203040e+01	-3.021794e+02
4.900000e-07	-1.689433e-06	-4.573613e-09	-1.172895e+01	-2.993104e+02
5.000000e-07	-1.645282e-06	-4.526312e-09	-1.142243e+01	-2.963771e+02
5.100000e-07	-1.600711e-06	-4.484302e-09	-1.111299e+01	-2.933763e+02
5.200000e-07	-1.555743e-06	-4.436745e-09	-1.080080e+01	-2.903041e+02
5.300000e-07	-1.510221e-06	-4.387119e-09	-1.048476e+01	-2.871565e+02
5.400000e-07	-1.464142e-06	-4.346731e-09	-1.016486e+01	-2.839296e+02
5.500000e-07	-1.417576e-06	-4.296021e-09	-9.841575e+00	-2.806200e+02
5.600000e-07	-1.370514e-06	-4.233172e-09	-9.514843e+00	-2.772252e+02
5.700000e-07	-1.322919e-06	-4.168984e-09	-9.184410e+00	-2.737437e+02
5.800000e-07	-1.274867e-06	-4.127449e-09	-8.850813e+00	-2.701750e+02
5.900000e-07	-1.226500e-06	-4.074527e-09	-8.515017e+00	-2.665195e+02
6.000000e-07	-1.177795e-06	-4.010418e-09	-8.176887e+00	-2.627781e+02
6.100000e-07	-1.128625e-06	-3.952796e-09	-7.835520e+00	-2.589520e+02
6.200000e-07	-1.078863e-06	-3.898472e-09	-7.490047e+00	-2.550421e+02
6.300000e-07	-1.028446e-06	-3.837486e-09	-7.140023e+00	-2.510491e+02
6.400000e-07	-9.773844e-07	-3.768386e-09	-6.785526e+00	-2.469727e+02
6.500000e-07	-9.257805e-07	-3.700983e-09	-6.427265e+00	-2.428118e+02
6.600000e-07	-8.738076e-07	-3.635034e-09	-6.066440e+00	-2.385644e+02
6.700000e-07	-8.215610e-07	-3.573331e-09	-5.703716e+00	-2.342277e+02
6.800000e-07	-7.690661e-07	-3.504109e-09	-5.339269e+00	-2.297984e+02
6.900000e-07	-7.163186e-07	-3.430489e-09	-4.973067e+00	-2.252732e+02
7.000000e-07	-6.632848e-07	-3.354476e-09	-4.604879e+00	-2.206486e+02
7.100000e-07	-6.099607e-07	-3.284087e-09	-4.234674e+00	-2.159219e+02
7.200000e-07	-5.564291e-07	-3.215228e-09	-3.863029e+00	-2.110908e+02
7.300000e-07	-5.027221e-07	-3.138778e-09	-3.490166e+00	-2.061537e+02
7.400000e-07	-4.488284e-07	-3.058777e-09	-3.116007e+00	-2.011096e+02
7.500000e-07	-3.947582e-07	-2.977667e-09	-2.740623e+00	-1.959579e+02
7.600000e-07	-3.405388e-07	-2.898499e-09	-2.364203e+00	-1.906979e+02
7.700000e-07	-2.862556e-07	-2.811464e-09	-1.987340e+00	-1.853282e+02
7.800000e-07	-2.318840e-07	-2.722145e-09	-1.609863e+00	-1.798468e+02
7.900000e-07	-1.774438e-07	-2.636037e-09	-1.231910e+00	-1.742501e+02
8.000000e-07	-1.230048e-07	-2.553102e-09	-8.539651e-01	-1.685329e+02
8.100000e-07	-6.855449e-08	-2.465188e-09	-4.759420e-01	-1.626886e+02
8.200000e-07	-1.408238e-08	-2.370653e-09	-9.776746e-02	-1.567087e+02
8.300000e-07	4.040310e-08	-2.272926e-09	2.805000e-01	-1.505836e+02
8.400000e-07	9.489338e-08	-2.172146e-09	6.588006e-01	-1.443028e+02
8.500000e-07	1.493503e-07	-2.071822e-09	1.036870e+00	-1.378556e+02
8.600000e-07	2.037844e-07	-1.968913e-09	1.414781e+00	-1.312314e+02
8.700000e-07	2.581726e-07	-1.864260e-09	1.792372e+00	-1.244203e+02
8.800000e-07	3.124720e-07	-1.755679e-09	2.169348e+00	-1.174134e+02
8.900000e-07	3.667071e-07	-1.647012e-09	2.545877e+00	-1.102021e+02
9.000000e-07	4.208045e-07	-1.534146e-09	2.921450e+00	-1.027788e+02
9.100000e-07	4.747344e-07	-1.414810e-09	3.295861e+00	-9.513544e+01
9.200000e-07	5.284762e-07	-1.292953e-09	3.668965e+00	-8.726281e+01
9.300000e-07	5.820306e-07	-1.169498e-09	4.040768e+00	-7.914979e+01
9.400000e-07	6.353869e-07	-1.042054e-09	4.411197e+00	-7.078215e+01
9.500000e-07	6.884601e-07	-9.058719e-10	4.779659e+00	-6.214179e+01
9.600000e-07	7.412601e-07	-7.666872e-10	5.146225e+00	-5.320632e+01
9.700000e-07	7.938275e-07	-6.242776e-10	5.511176e+00	-4.394907e+01
9.800000e-07	8.461561e-07	-4.765485e-10	5.874469e+00	-3.433979e+01
9.900000e-07	8.981483e-07	-3.203701e-10	6.235426e+00	-2.434602e+01
1.000000e-06	9.497010e-07	-1.564797e-10	6.593333e+00	-1.393517e+01
1.010000e-06	1.000738e-06	1.242694e-11	6.947657e+00	-3.077157e+00
1.020000e-06	1.051112e-06	1.846871e-10	7.297385e+00	8.252457e+00
1.030000e-06	1.100805e-06	3.610476e-10	7.642376e+00	2.006917e+01
1.040000e-06	1.149930e-06	5.481267e-10	7.983430e+00	3.237626e+01
1.050000e-06	1.198682e-06	7.466560e-10	8.321890e+00	4.516193e+01
1.060000e-06	1.247197e-06	9.511770e-10	8.658711e+00	5.839702e+01
1.070000e-06	1.295402e-06	1.156673e-09	8.993376e+00	7.203379e+01
1.080000e-06	1.343196e-06	1.367277e-09	9.325183e+00	8.600569e+01
1.090000e-06	1.390510e-06	1.585050e-09	9.653666e+00	1.002285e+02
1.100000e-06	1.437276e-06	1.806986e-09	9.978339e+00	1.146024e+02
1.110000e-06	1.483523e-06	2.026741e-09	1.029941e+01	1.290160e+02
1.120000e-06	1.529235e-06	2.241715e-09	1.061677e+01	1.433502e+02
1.130000e-06	1.574386e-06	2.454090e-09	1.093023e+01	1.574835e+02
1.140000e-06	1.619133e-06	2.663950e-09	1.124089e+01	1.712974e+02
1.150000e-06	1.663556e-06	2.867931e-09	1.154929e+01	1.846817e+02
1.160000e-06	1.707496e-06	3.059885e-09	1.185435e+01	1.975392e+02
1.170000e-06	1.750723e-06	3.243089e-09	1.215446e+01	2.097897e+02
1.180000e-06	1.793007e-06	3.419125e-09	1.244801e+01	2.213730e+02
1.190000e-06	1.834382e-06	3.585099e-09	1.273526e+01	2.322504e+02
1.200000e-06	1.875111e-06	3.738955e-09	1.301802e+01	2.424045e+02
1.210000e-06	1.915325e-06	3.880405e-09	1.329721e+01	2.518388e+02
1.220000e-06	1.954977e-06	4.011059e-09	1.357250e+01	2.605745e+02
1.230000e-06	1.993974e-06	4.131280e-09	1.384324e+01	2.686480e+02
1.240000e-06	2.032304e-06	4.240604e-09	1.410934e+01	2.761064e+02
1.250000e-06	2.069916e-06	4.340197e-09	1.437046e+01	2.830036e+02
1.260000e-06	2.106842e-06	4.435968e-09	1.462683e+01	2.893961e+02
1.270000e-06	2.143213e-06	4.528592e-09	1.487933e+01	2.953395e+02
1.280000e-06	2.178904e-06	4.613345e-09	1.512712e+01	3.008851e+02
1.290000e-06	2.213663e-06	4.688769e-09	1.536843e+01	3.060780e+02
1.300000e-06	2.247377e-06	4.759596e-09	1.560249e+01	3.109556e+02
1.310000e-06	2.280173e-06	4.828166e-09	1.583019e+01	3.155473e+02
1.320000e-06	2.312261e-06	4.892389e-09	1.605296e+01	3.198752e+02
1.330000e-06	2.343618e-06	4.951259e-09	1.627065e+01	3.239550e+02
1.340000e-06	2.374180e-06	5.006642e-09	1.648283e+01	3.277972e+02
1.350000e-06	2.403960e-06	5.057941e-09	1.668958e+01	3.314098e+02
1.360000e-06	2.433002e-06	5.105231e-09	1.689120e+01	3.347991e+02
1.370000e-06	2.461376e-06	5.153112e-09	1.708819e+01	3.379717e+02
1.380000e-06	2.488931e-06	5.199154e-09	1.727949e+01	3.409353e+02
1.390000e-06	2.515352e-06	5.239883e-09	1.746292e+01	3.436996e+02
1.400000e-06	2.540611e-06	5.274967e-09	1.763829e+01	3.462765e+02
1.410000e-06	2.564911e-06	5.307664e-09	1.780699e+01	3.486792e+02
1.420000e-06	2.588354e-06	5.341211e-09	1.796974e+01	3.509223e+02
1.430000e-06	2.610949e-06	5.373152e-09	1.812661e+01	3.530204e+02
1.440000e-06	2.632690e-06	5.400111e-09	1.827755e+01	3.549873e+02
1.450000e-06	2.653642e-06	5.424311e-09	1.842301e+01	3.568351e+02
1.460000e-06	2.673846e-06	5.451537e-09	1.856327e+01	3.585736e+02
1.470000e-06	2.693139e-06	5.480692e-09	1.869721e+01	3.602097e+02
1.480000e-06	2.711428e-06	5.506273e-09	1.882418e+01	3.617477e+02
1.490000e-06	2.728752e-06	5.526620e-09	1.894446e+01	3.631890e+02
1.500000e-06	2.745075e-06	5.545246e-09	1.905778e+01	3.645334e+02
1.510000e-06	2.760298e-06	5.563799e-09	1.916347e+01	3.657792e+02
1.520000e-06	2.774438e-06	5.579562e-09	1.926163e+01	3.669242e+02
1.530000e-06	2.787590e-06	5.591314e-09	1.935294e+01	3.679668e+02
1.540000e-06	2.799726e-06	5.603356e-09	1.943720e+01	3.689060e+02
1.550000e-06	2.810676e-06	5.619570e-09	1.951322e+01	3.697427e+02
1.560000e-06	2.820340e-06	5.635111e-09	1.958031e+01	3.704791e+02
1.570000e-06	2.828945e-06	5.645818e-09	1.964005e+01	3.711189e+02
1.580000e-06	2.836675e-06	5.652890e-09	1.969371e+01	3.716672e+02
1.590000e-06	2.843485e-06	5.660310e-09	1.974100e+01	3.721295e+02
1.600000e-06	2.849330e-06	5.667862e-09	1.978158e+01	3.725116e+02
1.610000e-06	2.854243e-06	5.671929e-09	1.981568e+01	3.728185e+02
1.620000e-06	2.858236e-06	5.674122e-09	1.984340e+01	3.730544e+02
1.630000e-06	2.861078e-06	5.677892e-09	1.986314e+01	3.732219e+02
1.640000e-06	2.862684e-06	5.682692e-09	1.987429e+01	3.733220e+02
1.650000e-06	2.863291e-06	5.684967e-09	1.987850e+01	3.733545e+02
1.660000e-06	2.863025e-06	5.684125e-09	1.987665e+01	3.733177e+02
1.670000e-06	2.861870e-06	5.682554e-09	1.986864e+01	3.732097e+02
1.680000e-06	2.859827e-06	5.679151e-09	1.985445e+01	3.730283e+02
1.690000e-06	2.856975e-06	5.674825e-09	1.983465e+01	3.727719e+02
1.700000e-06	2.853351e-06	5.668883e-09	1.980949e+01	3.724402e+02
1.710000e-06	2.848761e-06	5.661063e-09	1.977762e+01	3.720343e+02
1.720000e-06	2.842992e-06	5.654899e-09	1.973757e+01	3.715568e+02
1.730000e-06	2.836159e-06	5.668110e-09	1.969013e+01	3.710123e+02
1.740000e-06	2.828448e-06	5.646449e-09	1.963660e+01	3.704063e+02
1.750000e-06	2.819533e-06	5.578481e-09	1.957471e+01	3.697453e+02
1.760000e-06	2.809016e-06	5.559183e-09	1.950169e+01	3.690357e+02
1.770000e-06	2.797394e-06	5.673841e-09	1.942101e+01	3.682836e+02
1.780000e-06	2.785537e-06	5.659454e-09	1.933869e+01	3.674937e+02
1.790000e-06	2.773130e-06	5.502548e-09	1.925255e+01	3.666692e+02
1.800000e-06	2.759180e-06	5.511586e-09	1.915571e+01	3.658108e+02
1.810000e-06	2.743841e-06	5.647366e-09	1.904921e+01	3.649174e+02
1.820000e-06	2.727860e-06	5.524886e-09	1.893827e+01	3.639858e+02
1.830000e-06	2.710977e-06	5.362343e-09	1.882106e+01	3.630110e+02
1.840000e-06	2.692756e-06	5.547245e-09	1.869455e+01	3.619872e+02
1.850000e-06	2.673669e-06	5.548360e-09	1.856204e+01	3.609082e+02
1.860000e-06	2.653911e-06	5.328760e-09	1.842487e+01	3.597681e+02
1.870000e-06	2.633065e-06	5.462937e-09	1.828015e+01	3.585622e+02
1.880000e-06	2.611078e-06	5.537321e-09	1.812750e+01	3.572873e+02
1.890000e-06	2.588120e-06	5.293778e-09	1.796811e+01	3.559424e+02
1.900000e-06	2.564198e-06	5.337767e-09	1.780203e+01	3.545281e+02
1.910000e-06	2.539487e-06	5.438589e-09	1.763048e+01	3.530471e+02
1.920000e-06	2.514049e-06	5.294242e-09	1.745388e+01	3.515036e+02
1.930000e-06	2.487707e-06	5.271269e-09	1.727100e+01	3.499024e+02
1.940000e-06	2.460573e-06	5.336735e-09	1.708261e+01	3.482490e+02
1.950000e-06	2.432671e-06	5.249645e-09	1.688891e+01	3.465480e+02
1.960000e-06	2.403644e-06	5.230715e-09	1.668739e+01	3.448032e+02
1.970000e-06	2.373453e-06	5.199692e-09	1.647778e+01	3.430170e+02
1.980000e-06	2.342436e-06	5.134631e-09	1.626245e+01	3.411899e+02
1.990000e-06	2.310757e-06	5.179605e-09	1.604251e+01	3.393207e+02
2.000000e-06	2.278343e-06	5.111685e-09	1.581748e+01	3.374067e+02
2.010000e-06	2.245053e-06	5.064095e-09	1.558636e+01	3.354437e+02
2.020000e-06	2.210948e-06	5.105049e-09	1.534958e+01	3.334272e+02
2.030000e-06	2.176245e-06	4.998261e-09	1.510866e+01	3.313522e+02
2.040000e-06	2.140958e-06	4.969352e-09	1.486367e+01	3.292143e+02
2.050000e-06	2.104961e-06	5.012162e-09	1.461376e+01	3.270099e+02
2.060000e-06	2.068094e-06	4.897476e-09	1.435781e+01	3.247367e+02
2.070000e-06	2.030170e-06	4.871006e-09	1.409453e+01	3.223935e+02
2.080000e-06	1.991338e-06	4.889209e-09	1.382494e+01	3.199807e+02
2.090000e-06	1.951898e-06	4.809314e-09	1.355112e+01	3.174994e+02
2.100000e-06	1.911873e-06	4.781699e-09	1.327324e+01	3.149517e+02
2.110000e-06	1.871221e-06	4.741033e-09	1.299102e+01	3.123397e+02
2.120000e-06	1.829934e-06	4.697668e-09	1.270438e+01	3.096653e+02
2.130000e-06	1.788065e-06	4.677069e-09	1.241370e+01	3.069298e+02
2.140000e-06	1.745635e-06	4.612168e-09	1.211913e+01	3.041335e+02
2.150000e-06	1.702639e-06	4.579017e-09	1.182063e+01	3.012754e+02
2.160000e-06	1.659205e-06	4.538813e-09	1.151909e+01	2.983535e+02
2.170000e-06	1.615348e-06	4.481249e-09	1.121461e+01	2.953647e+02
2.180000e-06	1.570898e-06	4.454622e-09	1.090602e+01	2.923053e+02
2.190000e-06	1.525753e-06	4.402710e-09	1.059260e+01	2.891712e+02
2.200000e-06	1.480015e-06	4.338798e-09	1.027506e+01	2.859584e+02
2.210000e-06	1.433825e-06	4.298299e-09	9.954383e+00	2.826635e+02
2.220000e-06	1.387201e-06	4.251190e-09	9.630695e+00	2.792838e+02
2.230000e-06	1.340057e-06	4.203191e-09	9.303396e+00	2.758176e+02
2.240000e-06	1.292367e-06	4.135039e-09	8.972307e+00	2.722642e+02
2.250000e-06	1.244106e-06	4.083327e-09	8.637252e+00	2.686239e+02
2.260000e-06	1.195311e-06	4.045836e-09	8.298489e+00	2.648975e+02
2.270000e-06	1.146138e-06	3.977719e-09	7.957103e+00	2.610861e+02
2.280000e-06	1.096580e-06	3.919773e-09	7.613047e+00	2.571909e+02
2.290000e-06	1.046571e-06	3.860922e-09	7.265858e+00	2.532124e+02
2.300000e-06	9.961091e-07	3.802600e-09	6.915523e+00	2.491507e+02
2.310000e-06	9.452660e-07	3.744314e-09	6.562543e+00	2.450047e+02
2.320000e-06	8.941689e-07	3.671803e-09	6.207799e+00	2.407726e+02
2.330000e-06	8.428513e-07	3.603743e-09	5.851525e+00	2.364518e+02
2.340000e-06	7.912586e-07	3.534999e-09	5.493341e+00	2.320391e+02
2.350000e-06	7.392973e-07	3.467612e-09	5.132598e+00	2.275309e+02
2.360000e-06	6.868940e-07	3.403163e-09	4.768786e+00	2.229241e+02
2.370000e-06	6.340959e-07	3.328367e-09	4.402234e+00	2.182155e+02
2.380000e-06	5.808932e-07	3.257399e-09	4.032872e+00	2.134029e+02
2.390000e-06	5.272938e-07	3.189557e-09	3.660756e+00	2.084845e+02
2.400000e-06	4.733754e-07	3.113445e-09	3.286425e+00	2.034594e+02
2.410000e-06	4.191882e-07	3.034931e-09	2.910229e+00	1.983266e+02
2.420000e-06	3.647682e-07	2.951062e-09	2.532416e+00	1.930857e+02
2.430000e-06	3.101964e-07	2.872920e-09	2.153550e+00	1.877355e+02
2.440000e-06	2.555131e-07	2.793254e-09	1.773909e+00	1.822740e+02
2.450000e-06	2.006931e-07	2.702693e-09	1.393319e+00	1.766979e+02
2.460000e-06	1.457717e-07	2.615180e-09	1.012025e+00	1.710024e+02
2.470000e-06	9.082830e-08	2.530924e-09	6.305787e-01	1.651811e+02
2.480000e-06	3.589448e-08	2.448093e-09	2.491987e-01	1.592258e+02
2.490000e-06	-1.905911e-08	2.357708e-09	-1.323185e-01	1.531271e+02
2.500000e-06	-7.401239e-08	2.260667e-09	-5.138336e-01	1.468746e+02
2.510000e-06	-1.289429e-07	2.162931e-09	-8.951907e-01	1.404576e+02
2.520000e-06	-1.838626e-07	2.061226e-09	-1.276473e+00	1.338655e+02
2.530000e-06	-2.387430e-07	1.956022e-09	-1.657482e+00	1.270883e+02
2.540000e-06	-2.935122e-07	1.850237e-09	-2.037719e+00	1.201166e+02
2.550000e-06	-3.481608e-07	1.742148e-09	-2.417119e+00	1.129422e+02
2.560000e-06	-4.026148e-07	1.632284e-09	-2.795168e+00	1.055570e+02
2.570000e-06	-4.568731e-07	1.520824e-09	-3.171858e+00	9.795328e+01
2.580000e-06	-5.108502e-07	1.404812e-09	-3.546596e+00	9.012206e+01
2.590000e-06	-5.643929e-07	1.284157e-09	-3.918318e+00	8.205263e+01
2.600000e-06	-6.176006e-07	1.157524e-09	-4.287715e+00	7.373139e+01
2.610000e-06	-6.704615e-07	1.028025e-09	-4.654703e+00	6.514097e+01
2.620000e-06	-7.229091e-07	8.922101e-10	-5.018823e+00	5.625976e+01
2.630000e-06	-7.749805e-07	7.488488e-10	-5.380330e+00	4.706182e+01
2.640000e-06	-8.266937e-07	6.024651e-10	-5.739351e+00	3.751747e+01
2.650000e-06	-8.780880e-07	4.528194e-10	-6.096157e+00	2.759450e+01
2.660000e-06	-9.292391e-07	2.992009e-10	-6.451276e+00	1.726017e+01
2.670000e-06	-9.801366e-07	1.384272e-10	-6.804633e+00	6.483727e+00
2.680000e-06	-1.030634e-06	-3.042745e-11	-7.155216e+00	-4.760511e+00
2.690000e-06	-1.080717e-06	-2.072677e-10	-7.502918e+00	-1.648988e+01
2.700000e-06	-1.130399e-06	-3.922585e-10	-7.847839e+00	-2.871008e+01
2.710000e-06	-1.179640e-06	-5.861979e-10	-8.189694e+00	-4.141218e+01
2.720000e-06	-1.228354e-06	-7.882233e-10	-8.527888e+00	-5.457026e+01
2.730000e-06	-1.276370e-06	-9.965539e-10	-8.861247e+00	-6.813992e+01
2.740000e-06	-1.323556e-06	-1.208375e-09	-9.188833e+00	-8.205794e+01
2.750000e-06	-1.370063e-06	-1.423840e-09	-9.511709e+00	-9.624309e+01
2.760000e-06	-1.416142e-06	-1.643396e-09	-9.831613e+00	-1.105982e+02
2.770000e-06	-1.461868e-06	-1.864373e-09	-1.014907e+01	-1.250136e+02
2.780000e-06	-1.507262e-06	-2.086312e-09	-1.046422e+01	-1.393712e+02
2.790000e-06	-1.552268e-06	-2.305810e-09	-1.077668e+01	-1.535494e+02
2.800000e-06	-1.596758e-06	-2.519067e-09	-1.108555e+01	-1.674291e+02
2.810000e-06	-1.640647e-06	-2.724522e-09	-1.139025e+01	-1.808979e+02
2.820000e-06	-1.684081e-06	-2.924221e-09	-1.169179e+01	-1.938561e+02
2.830000e-06	-1.727171e-06	-3.114900e-09	-1.199094e+01	-2.062204e+02
2.840000e-06	-1.769729e-06	-3.293929e-09	-1.228641e+01	-2.179266e+02
2.850000e-06	-1.811631e-06	-3.460884e-09	-1.257731e+01	-2.289322e+02
2.860000e-06	-1.852919e-06	-3.616338e-09	-1.286396e+01	-2.392160e+02
2.870000e-06	-1.893577e-06	-3.764682e-09	-1.314622e+01	-2.487780e+02
2.880000e-06	-1.933600e-06	-3.904926e-09	-1.342409e+01	-2.576365e+02
2.890000e-06	-1.973061e-06	-4.033794e-09	-1.369805e+01	-2.658253e+02
2.900000e-06	-2.012019e-06	-4.151379e-09	-1.396852e+01	-2.733900e+02
2.910000e-06	-2.050220e-06	-4.260553e-09	-1.423373e+01	-2.803835e+02
2.920000e-06	-2.087315e-06	-4.360662e-09	-1.449126e+01	-2.868623e+02
2.930000e-06	-2.123391e-06	-4.452456e-09	-1.474172e+01	-2.928823e+02
2.940000e-06	-2.158804e-06	-4.539663e-09	-1.498758e+01	-2.984957e+02
