# Temperatura_=_22.79
# Concentracion g/m^3_=_15500.0
# C_Vs_to_Am_M_A/Vsm_=_65563218390.804596
# pendiente_HvsI_1/m_=_3716.3
# ordenada_HvsI_A/m_=_1297.0
# frecuencia_Hz_=_300836.14475607127

Tiempo_(s)	Campo_(V.s)	Magnetizacion_(V.s)	Campo_(kA/m)	Magnetizacion_(A/m)
0.000000e+00	-2.852389e-06	-5.628429e-09	-1.980576e+01	-3.667151e+02
1.000000e-08	-2.852060e-06	-5.626151e-09	-1.980348e+01	-3.666812e+02
2.000000e-08	-2.850909e-06	-5.625985e-09	-1.979548e+01	-3.665705e+02
3.000000e-08	-2.848721e-06	-5.623638e-09	-1.978029e+01	-3.663831e+02
4.000000e-08	-2.845305e-06	-5.617173e-09	-1.975657e+01	-3.661210e+02
5.000000e-08	-2.840871e-06	-5.609273e-09	-1.972579e+01	-3.657878e+02
6.000000e-08	-2.835700e-06	-5.600862e-09	-1.968988e+01	-3.653895e+02
7.000000e-08	-2.829698e-06	-5.589773e-09	-1.964821e+01	-3.649333e+02
8.000000e-08	-2.822704e-06	-5.580895e-09	-1.959964e+01	-3.644276e+02
9.000000e-08	-2.814605e-06	-5.595819e-09	-1.954341e+01	-3.638809e+02
1.000000e-07	-2.805244e-06	-5.628340e-09	-1.947841e+01	-3.633007e+02
1.100000e-07	-2.794531e-06	-5.605099e-09	-1.940402e+01	-3.626935e+02
1.200000e-07	-2.782708e-06	-5.495304e-09	-1.932193e+01	-3.620631e+02
1.300000e-07	-2.770101e-06	-5.483848e-09	-1.923439e+01	-3.614107e+02
1.400000e-07	-2.756580e-06	-5.557737e-09	-1.914050e+01	-3.607345e+02
1.500000e-07	-2.742078e-06	-5.570163e-09	-1.903981e+01	-3.600297e+02
1.600000e-07	-2.726492e-06	-5.433597e-09	-1.893159e+01	-3.592892e+02
1.700000e-07	-2.709598e-06	-5.482605e-09	-1.881428e+01	-3.585037e+02
1.800000e-07	-2.691523e-06	-5.566686e-09	-1.868878e+01	-3.576633e+02
1.900000e-07	-2.672649e-06	-5.412905e-09	-1.855772e+01	-3.567580e+02
2.000000e-07	-2.653119e-06	-5.398262e-09	-1.842212e+01	-3.557786e+02
2.100000e-07	-2.632730e-06	-5.461603e-09	-1.828054e+01	-3.547180e+02
2.200000e-07	-2.611511e-06	-5.371941e-09	-1.813321e+01	-3.535713e+02
2.300000e-07	-2.589517e-06	-5.324806e-09	-1.798049e+01	-3.523367e+02
2.400000e-07	-2.566583e-06	-5.428384e-09	-1.782124e+01	-3.510150e+02
2.500000e-07	-2.542677e-06	-5.367809e-09	-1.765525e+01	-3.496099e+02
2.600000e-07	-2.517928e-06	-5.261146e-09	-1.748341e+01	-3.481267e+02
2.700000e-07	-2.492360e-06	-5.282793e-09	-1.730588e+01	-3.465724e+02
2.800000e-07	-2.465774e-06	-5.286520e-09	-1.712127e+01	-3.449540e+02
2.900000e-07	-2.438068e-06	-5.210896e-09	-1.692890e+01	-3.432785e+02
3.000000e-07	-2.409384e-06	-5.209558e-09	-1.672973e+01	-3.415513e+02
3.100000e-07	-2.379933e-06	-5.183686e-09	-1.652523e+01	-3.397762e+02
3.200000e-07	-2.349795e-06	-5.171070e-09	-1.631597e+01	-3.379550e+02
3.300000e-07	-2.318902e-06	-5.166248e-09	-1.610146e+01	-3.360870e+02
3.400000e-07	-2.287194e-06	-5.071182e-09	-1.588129e+01	-3.341700e+02
3.500000e-07	-2.254773e-06	-5.056929e-09	-1.565617e+01	-3.322000e+02
3.600000e-07	-2.221755e-06	-5.050945e-09	-1.542691e+01	-3.301725e+02
3.700000e-07	-2.187941e-06	-4.999739e-09	-1.519212e+01	-3.280824e+02
3.800000e-07	-2.153023e-06	-4.980602e-09	-1.494966e+01	-3.259256e+02
3.900000e-07	-2.117073e-06	-4.961721e-09	-1.470004e+01	-3.236988e+02
4.000000e-07	-2.080438e-06	-4.880698e-09	-1.444567e+01	-3.214002e+02
4.100000e-07	-2.043211e-06	-4.876396e-09	-1.418718e+01	-3.190297e+02
4.200000e-07	-2.005233e-06	-4.860971e-09	-1.392348e+01	-3.165886e+02
4.300000e-07	-1.966547e-06	-4.776697e-09	-1.365486e+01	-3.140797e+02
4.400000e-07	-1.927192e-06	-4.742001e-09	-1.338159e+01	-3.115064e+02
4.500000e-07	-1.887140e-06	-4.726782e-09	-1.310349e+01	-3.088721e+02
4.600000e-07	-1.846586e-06	-4.685009e-09	-1.282190e+01	-3.061801e+02
4.700000e-07	-1.805618e-06	-4.629700e-09	-1.253743e+01	-3.034325e+02
4.800000e-07	-1.763946e-06	-4.589813e-09	-1.224808e+01	-3.006302e+02
4.900000e-07	-1.721289e-06	-4.541151e-09	-1.195189e+01	-2.977723e+02
5.000000e-07	-1.677676e-06	-4.506076e-09	-1.164906e+01	-2.948566e+02
5.100000e-07	-1.633381e-06	-4.453097e-09	-1.134149e+01	-2.918793e+02
5.200000e-07	-1.588683e-06	-4.397202e-09	-1.103113e+01	-2.888357e+02
5.300000e-07	-1.543602e-06	-4.353043e-09	-1.071811e+01	-2.857208e+02
5.400000e-07	-1.497916e-06	-4.312727e-09	-1.040088e+01	-2.825295e+02
5.500000e-07	-1.451617e-06	-4.266982e-09	-1.007941e+01	-2.792575e+02
5.600000e-07	-1.404858e-06	-4.205040e-09	-9.754730e+00	-2.759016e+02
5.700000e-07	-1.357584e-06	-4.147036e-09	-9.426482e+00	-2.724600e+02
5.800000e-07	-1.309785e-06	-4.091941e-09	-9.094585e+00	-2.689324e+02
5.900000e-07	-1.261600e-06	-4.049982e-09	-8.760009e+00	-2.653198e+02
6.000000e-07	-1.213124e-06	-3.987795e-09	-8.423411e+00	-2.616241e+02
6.100000e-07	-1.164300e-06	-3.923713e-09	-8.084397e+00	-2.578479e+02
6.200000e-07	-1.114974e-06	-3.871640e-09	-7.741900e+00	-2.539940e+02
6.300000e-07	-1.065052e-06	-3.816052e-09	-7.395265e+00	-2.500643e+02
6.400000e-07	-1.014478e-06	-3.748540e-09	-7.044096e+00	-2.460602e+02
6.500000e-07	-9.632913e-07	-3.676890e-09	-6.688680e+00	-2.419814e+02
6.600000e-07	-9.116278e-07	-3.615576e-09	-6.329951e+00	-2.378266e+02
6.700000e-07	-8.595413e-07	-3.555194e-09	-5.968285e+00	-2.335927e+02
6.800000e-07	-8.071333e-07	-3.494425e-09	-5.604386e+00	-2.292760e+02
6.900000e-07	-7.544904e-07	-3.422497e-09	-5.238857e+00	-2.248715e+02
7.000000e-07	-7.016032e-07	-3.351816e-09	-4.871631e+00	-2.203744e+02
7.100000e-07	-6.484575e-07	-3.282413e-09	-4.502610e+00	-2.157798e+02
7.200000e-07	-5.950835e-07	-3.212012e-09	-4.132004e+00	-2.110836e+02
7.300000e-07	-5.415175e-07	-3.135094e-09	-3.760064e+00	-2.062826e+02
7.400000e-07	-4.877510e-07	-3.056148e-09	-3.386733e+00	-2.013747e+02
7.500000e-07	-4.337872e-07	-2.982874e-09	-3.012032e+00	-1.963585e+02
7.600000e-07	-3.796683e-07	-2.907678e-09	-2.636253e+00	-1.912335e+02
7.700000e-07	-3.254298e-07	-2.828681e-09	-2.259645e+00	-1.859995e+02
7.800000e-07	-2.710873e-07	-2.739750e-09	-1.882313e+00	-1.806557e+02
7.900000e-07	-2.166695e-07	-2.653706e-09	-1.504460e+00	-1.752009e+02
8.000000e-07	-1.621848e-07	-2.570621e-09	-1.126142e+00	-1.696322e+02
8.100000e-07	-1.076321e-07	-2.486017e-09	-7.473507e-01	-1.639453e+02
8.200000e-07	-5.305941e-08	-2.395490e-09	-3.684217e-01	-1.581339e+02
8.300000e-07	1.511565e-09	-2.301996e-09	1.049566e-02	-1.521901e+02
8.400000e-07	5.606420e-08	-2.208579e-09	3.892857e-01	-1.461045e+02
8.500000e-07	1.105784e-07	-2.111446e-09	7.678088e-01	-1.398665e+02
8.600000e-07	1.650669e-07	-2.012580e-09	1.146153e+00	-1.334652e+02
8.700000e-07	2.195160e-07	-1.908021e-09	1.524225e+00	-1.268895e+02
8.800000e-07	2.738600e-07	-1.803938e-09	1.901566e+00	-1.201289e+02
8.900000e-07	3.281154e-07	-1.698541e-09	2.278292e+00	-1.131736e+02
9.000000e-07	3.823186e-07	-1.590005e-09	2.654656e+00	-1.060145e+02
9.100000e-07	4.363814e-07	-1.475359e-09	3.030044e+00	-9.864299e+01
9.200000e-07	4.902644e-07	-1.358555e-09	3.404185e+00	-9.105032e+01
9.300000e-07	5.439651e-07	-1.241865e-09	3.777060e+00	-8.322689e+01
9.400000e-07	5.974466e-07	-1.119159e-09	4.148412e+00	-7.516129e+01
9.500000e-07	6.507014e-07	-9.905949e-10	4.518191e+00	-6.683947e+01
9.600000e-07	7.037088e-07	-8.559745e-10	4.886251e+00	-5.824398e+01
9.700000e-07	7.564464e-07	-7.198581e-10	5.252438e+00	-4.935365e+01
9.800000e-07	8.089031e-07	-5.790305e-10	5.616675e+00	-4.014370e+01
9.900000e-07	8.610973e-07	-4.324016e-10	5.979089e+00	-3.058648e+01
1.000000e-06	9.129796e-07	-2.772632e-10	6.339337e+00	-2.065283e+01
1.010000e-06	9.643954e-07	-1.169099e-10	6.696347e+00	-1.031407e+01
1.020000e-06	1.015155e-06	4.696057e-11	7.048798e+00	4.554755e-01
1.030000e-06	1.065247e-06	2.164334e-10	7.396620e+00	1.167555e+01
1.040000e-06	1.114833e-06	3.916465e-10	7.740922e+00	2.335694e+01
1.050000e-06	1.163930e-06	5.761019e-10	8.081828e+00	3.549853e+01
1.060000e-06	1.212616e-06	7.686929e-10	8.419882e+00	4.808479e+01
1.070000e-06	1.261020e-06	9.685217e-10	8.755983e+00	6.108390e+01
1.080000e-06	1.309083e-06	1.171194e-09	9.089709e+00	7.444678e+01
1.090000e-06	1.356702e-06	1.378753e-09	9.420358e+00	8.810722e+01
1.100000e-06	1.403825e-06	1.589666e-09	9.747554e+00	1.019831e+02
1.110000e-06	1.450426e-06	1.801059e-09	1.007113e+01	1.159789e+02
1.120000e-06	1.496521e-06	2.011487e-09	1.039120e+01	1.299889e+02
1.130000e-06	1.542063e-06	2.220593e-09	1.070742e+01	1.439014e+02
1.140000e-06	1.587113e-06	2.428001e-09	1.102023e+01	1.576037e+02
1.150000e-06	1.631800e-06	2.631073e-09	1.133051e+01	1.709866e+02
1.160000e-06	1.676143e-06	2.827077e-09	1.163841e+01	1.839493e+02
1.170000e-06	1.719963e-06	3.012734e-09	1.194268e+01	1.964039e+02
1.180000e-06	1.762955e-06	3.191326e-09	1.224120e+01	2.082782e+02
1.190000e-06	1.804975e-06	3.361613e-09	1.253297e+01	2.195183e+02
1.200000e-06	1.846148e-06	3.522839e-09	1.281886e+01	2.300900e+02
1.210000e-06	1.886702e-06	3.674419e-09	1.310045e+01	2.399781e+02
1.220000e-06	1.926734e-06	3.815347e-09	1.337841e+01	2.491858e+02
1.230000e-06	1.966198e-06	3.942412e-09	1.365244e+01	2.577322e+02
1.240000e-06	2.004973e-06	4.055053e-09	1.392167e+01	2.656490e+02
1.250000e-06	2.043015e-06	4.159088e-09	1.418581e+01	2.729778e+02
1.260000e-06	2.080364e-06	4.260236e-09	1.444515e+01	2.797657e+02
1.270000e-06	2.117105e-06	4.358928e-09	1.470027e+01	2.860623e+02
1.280000e-06	2.153288e-06	4.449135e-09	1.495151e+01	2.919163e+02
1.290000e-06	2.188715e-06	4.531462e-09	1.519749e+01	2.973734e+02
1.300000e-06	2.223119e-06	4.607878e-09	1.543638e+01	3.024741e+02
1.310000e-06	2.256532e-06	4.679674e-09	1.566839e+01	3.072531e+02
1.320000e-06	2.289188e-06	4.745007e-09	1.589514e+01	3.117390e+02
1.330000e-06	2.321165e-06	4.802674e-09	1.611717e+01	3.159542e+02
1.340000e-06	2.352371e-06	4.857752e-09	1.633385e+01	3.199166e+02
1.350000e-06	2.382759e-06	4.911646e-09	1.654486e+01	3.236400e+02
1.360000e-06	2.412368e-06	4.962238e-09	1.675045e+01	3.271360e+02
1.370000e-06	2.441228e-06	5.008888e-09	1.695084e+01	3.304146e+02
1.380000e-06	2.469343e-06	5.054947e-09	1.714606e+01	3.334858e+02
1.390000e-06	2.496532e-06	5.099296e-09	1.733484e+01	3.363598e+02
1.400000e-06	2.522542e-06	5.138131e-09	1.751544e+01	3.390475e+02
1.410000e-06	2.547470e-06	5.170333e-09	1.768853e+01	3.415606e+02
1.420000e-06	2.571523e-06	5.199036e-09	1.785555e+01	3.439113e+02
1.430000e-06	2.594724e-06	5.229743e-09	1.801664e+01	3.461114e+02
1.440000e-06	2.617086e-06	5.262509e-09	1.817192e+01	3.481724e+02
1.450000e-06	2.638641e-06	5.292819e-09	1.832159e+01	3.501044e+02
1.460000e-06	2.659397e-06	5.319186e-09	1.846571e+01	3.519158e+02
1.470000e-06	2.679336e-06	5.345012e-09	1.860416e+01	3.536135e+02
1.480000e-06	2.698343e-06	5.370478e-09	1.873613e+01	3.552021e+02
1.490000e-06	2.716397e-06	5.391823e-09	1.886149e+01	3.566849e+02
1.500000e-06	2.733489e-06	5.407643e-09	1.898017e+01	3.580638e+02
1.510000e-06	2.749485e-06	5.422825e-09	1.909124e+01	3.593401e+02
1.520000e-06	2.764360e-06	5.440225e-09	1.919453e+01	3.605146e+02
1.530000e-06	2.778187e-06	5.457420e-09	1.929054e+01	3.615888e+02
1.540000e-06	2.791019e-06	5.471548e-09	1.937963e+01	3.625649e+02
1.550000e-06	2.802741e-06	5.484378e-09	1.946103e+01	3.634457e+02
1.560000e-06	2.813212e-06	5.498455e-09	1.953373e+01	3.642352e+02
1.570000e-06	2.822526e-06	5.511428e-09	1.959841e+01	3.649381e+02
1.580000e-06	2.830871e-06	5.521682e-09	1.965635e+01	3.655592e+02
1.590000e-06	2.838311e-06	5.529010e-09	1.970801e+01	3.661036e+02
1.600000e-06	2.844793e-06	5.535059e-09	1.975302e+01	3.665754e+02
1.610000e-06	2.850328e-06	5.539608e-09	1.979145e+01	3.669778e+02
1.620000e-06	2.855003e-06	5.543485e-09	1.982392e+01	3.673127e+02
1.630000e-06	2.858725e-06	5.549224e-09	1.984976e+01	3.675805e+02
1.640000e-06	2.861244e-06	5.556596e-09	1.986725e+01	3.677803e+02
1.650000e-06	2.862547e-06	5.562526e-09	1.987629e+01	3.679101e+02
1.660000e-06	2.862865e-06	5.563169e-09	1.987850e+01	3.679674e+02
1.670000e-06	2.862360e-06	5.560544e-09	1.987500e+01	3.679498e+02
1.680000e-06	2.860985e-06	5.557769e-09	1.986545e+01	3.678557e+02
1.690000e-06	2.858737e-06	5.554952e-09	1.984984e+01	3.676848e+02
1.700000e-06	2.855705e-06	5.552745e-09	1.982878e+01	3.674384e+02
1.710000e-06	2.851789e-06	5.549109e-09	1.980159e+01	3.671201e+02
1.720000e-06	2.846795e-06	5.548376e-09	1.976692e+01	3.667353e+02
1.730000e-06	2.840690e-06	5.552163e-09	1.972453e+01	3.662909e+02
1.740000e-06	2.833637e-06	5.548886e-09	1.967555e+01	3.657952e+02
1.750000e-06	2.825601e-06	5.499898e-09	1.961976e+01	3.652566e+02
1.760000e-06	2.816187e-06	5.457322e-09	1.955439e+01	3.646831e+02
1.770000e-06	2.805268e-06	5.477093e-09	1.947858e+01	3.640813e+02
1.780000e-06	2.793572e-06	5.575370e-09	1.939736e+01	3.634557e+02
1.790000e-06	2.781651e-06	5.508627e-09	1.931459e+01	3.628082e+02
1.800000e-06	2.768847e-06	5.403370e-09	1.922568e+01	3.621374e+02
1.810000e-06	2.754464e-06	5.469873e-09	1.912582e+01	3.614394e+02
1.820000e-06	2.738980e-06	5.535984e-09	1.901830e+01	3.607073e+02
1.830000e-06	2.722837e-06	5.442913e-09	1.890621e+01	3.599324e+02
1.840000e-06	2.705615e-06	5.398122e-09	1.878662e+01	3.591047e+02
1.850000e-06	2.687164e-06	5.541134e-09	1.865851e+01	3.582141e+02
1.860000e-06	2.667946e-06	5.473255e-09	1.852507e+01	3.572514e+02
1.870000e-06	2.647940e-06	5.346465e-09	1.838616e+01	3.562087e+02
1.880000e-06	2.626732e-06	5.472936e-09	1.823890e+01	3.550808e+02
1.890000e-06	2.604477e-06	5.433694e-09	1.808437e+01	3.538651e+02
1.900000e-06	2.581285e-06	5.268127e-09	1.792333e+01	3.525620e+02
1.910000e-06	2.557090e-06	5.376423e-09	1.775533e+01	3.511744e+02
1.920000e-06	2.532139e-06	5.392656e-09	1.758208e+01	3.497075e+02
1.930000e-06	2.506426e-06	5.278663e-09	1.740354e+01	3.481678e+02
1.940000e-06	2.479843e-06	5.288028e-09	1.721896e+01	3.465627e+02
1.950000e-06	2.452537e-06	5.290141e-09	1.702936e+01	3.448990e+02
1.960000e-06	2.424341e-06	5.222403e-09	1.683358e+01	3.431825e+02
1.970000e-06	2.394934e-06	5.221577e-09	1.662939e+01	3.414176e+02
1.980000e-06	2.364515e-06	5.163962e-09	1.641817e+01	3.396062e+02
1.990000e-06	2.333367e-06	5.125910e-09	1.620189e+01	3.377485e+02
2.000000e-06	2.301498e-06	5.177951e-09	1.598061e+01	3.358424e+02
2.010000e-06	2.268859e-06	5.087085e-09	1.575398e+01	3.338842e+02
2.020000e-06	2.235367e-06	5.041449e-09	1.552143e+01	3.318695e+02
2.030000e-06	2.201104e-06	5.069754e-09	1.528352e+01	3.297933e+02
2.040000e-06	2.166242e-06	4.975292e-09	1.504146e+01	3.276512e+02
2.050000e-06	2.130788e-06	4.954410e-09	1.479527e+01	3.254396e+02
2.060000e-06	2.094596e-06	4.971228e-09	1.454397e+01	3.231565e+02
2.070000e-06	2.057446e-06	4.869503e-09	1.428602e+01	3.208014e+02
2.080000e-06	2.019225e-06	4.850272e-09	1.402063e+01	3.183754e+02
2.090000e-06	1.980216e-06	4.849659e-09	1.374977e+01	3.158808e+02
2.100000e-06	1.940689e-06	4.771536e-09	1.347531e+01	3.133210e+02
2.110000e-06	1.900536e-06	4.747267e-09	1.319651e+01	3.106996e+02
2.120000e-06	1.859714e-06	4.707648e-09	1.291306e+01	3.080198e+02
2.130000e-06	1.818286e-06	4.660998e-09	1.262540e+01	3.052841e+02
2.140000e-06	1.776290e-06	4.630371e-09	1.233379e+01	3.024935e+02
2.150000e-06	1.733739e-06	4.571621e-09	1.203834e+01	2.996478e+02
2.160000e-06	1.690698e-06	4.532770e-09	1.173948e+01	2.967448e+02
2.170000e-06	1.647182e-06	4.492705e-09	1.143732e+01	2.937811e+02
2.180000e-06	1.603102e-06	4.444056e-09	1.113125e+01	2.907523e+02
2.190000e-06	1.558398e-06	4.400699e-09	1.082085e+01	2.876531e+02
2.200000e-06	1.513110e-06	4.348905e-09	1.050638e+01	2.844786e+02
2.210000e-06	1.467296e-06	4.299822e-09	1.018827e+01	2.812243e+02
2.220000e-06	1.420998e-06	4.257993e-09	9.866796e+00	2.778867e+02
2.230000e-06	1.374315e-06	4.204171e-09	9.542650e+00	2.744636e+02
2.240000e-06	1.327143e-06	4.152424e-09	9.215110e+00	2.709545e+02
2.250000e-06	1.279311e-06	4.088169e-09	8.882986e+00	2.673600e+02
2.260000e-06	1.230899e-06	4.036354e-09	8.546830e+00	2.636820e+02
2.270000e-06	1.182050e-06	3.987365e-09	8.207648e+00	2.599229e+02
2.280000e-06	1.132775e-06	3.917678e-09	7.865499e+00	2.560855e+02
2.290000e-06	1.083106e-06	3.866938e-09	7.520620e+00	2.521720e+02
2.300000e-06	1.033007e-06	3.812317e-09	7.172755e+00	2.481838e+02
2.310000e-06	9.824328e-07	3.751692e-09	6.821590e+00	2.441212e+02
2.320000e-06	9.315639e-07	3.685774e-09	6.468379e+00	2.399829e+02
2.330000e-06	8.804406e-07	3.612495e-09	6.113401e+00	2.357664e+02
2.340000e-06	8.290127e-07	3.546514e-09	5.756307e+00	2.314678e+02
2.350000e-06	7.772399e-07	3.480943e-09	5.396819e+00	2.270827e+02
2.360000e-06	7.250674e-07	3.414423e-09	5.034556e+00	2.226059e+02
2.370000e-06	6.724954e-07	3.347731e-09	4.669519e+00	2.180326e+02
2.380000e-06	6.194981e-07	3.276476e-09	4.301528e+00	2.133586e+02
2.390000e-06	5.660695e-07	3.206977e-09	3.930543e+00	2.085804e+02
2.400000e-06	5.123198e-07	3.135528e-09	3.557328e+00	2.036955e+02
2.410000e-06	4.582793e-07	3.056803e-09	3.182095e+00	1.987027e+02
2.420000e-06	4.039776e-07	2.980541e-09	2.805047e+00	1.936011e+02
2.430000e-06	3.494863e-07	2.902973e-09	2.426682e+00	1.883905e+02
2.440000e-06	2.948381e-07	2.825369e-09	2.047229e+00	1.830705e+02
2.450000e-06	2.400755e-07	2.741592e-09	1.666981e+00	1.776397e+02
2.460000e-06	1.852121e-07	2.652059e-09	1.286033e+00	1.720958e+02
2.470000e-06	1.303211e-07	2.568204e-09	9.048935e-01	1.664347e+02
2.480000e-06	7.544434e-08	2.485112e-09	5.238531e-01	1.606507e+02
2.490000e-06	2.055363e-08	2.399293e-09	1.427155e-01	1.547361e+02
2.500000e-06	-3.434828e-08	2.307149e-09	-2.384997e-01	1.486818e+02
2.510000e-06	-8.925657e-08	2.212483e-09	-6.197592e-01	1.424775e+02
2.520000e-06	-1.441582e-07	2.117190e-09	-1.000972e+00	1.361122e+02
2.530000e-06	-1.989667e-07	2.017063e-09	-1.381539e+00	1.295748e+02
2.540000e-06	-2.536981e-07	1.911799e-09	-1.761570e+00	1.228548e+02
2.550000e-06	-3.083983e-07	1.805275e-09	-2.141385e+00	1.159420e+02
2.560000e-06	-3.630030e-07	1.698783e-09	-2.520536e+00	1.088274e+02
2.570000e-06	-4.174015e-07	1.591308e-09	-2.898256e+00	1.015022e+02
2.580000e-06	-4.715450e-07	1.479494e-09	-3.274205e+00	9.395773e+01
2.590000e-06	-5.254433e-07	1.361020e-09	-3.648452e+00	8.618470e+01
2.600000e-06	-5.790212e-07	1.240605e-09	-4.020474e+00	7.817215e+01
2.610000e-06	-6.322254e-07	1.115311e-09	-4.389901e+00	6.990665e+01
2.620000e-06	-6.849946e-07	9.844734e-10	-4.756308e+00	6.137152e+01
2.630000e-06	-7.373118e-07	8.475841e-10	-5.119576e+00	5.254641e+01
2.640000e-06	-7.892483e-07	7.063863e-10	-5.480200e+00	4.340727e+01
2.650000e-06	-8.408548e-07	5.627235e-10	-5.838534e+00	3.392697e+01
2.660000e-06	-8.922022e-07	4.132647e-10	-6.195068e+00	2.407652e+01
2.670000e-06	-9.432456e-07	2.583361e-10	-6.549491e+00	1.382694e+01
2.680000e-06	-9.939859e-07	9.727689e-11	-6.901811e+00	3.151688e+00
2.690000e-06	-1.044406e-06	-6.951539e-11	-7.251905e+00	-7.970514e+00
2.700000e-06	-1.094374e-06	-2.445510e-10	-7.598862e+00	-1.955263e+01
2.710000e-06	-1.143906e-06	-4.276665e-10	-7.942791e+00	-3.159632e+01
2.720000e-06	-1.192998e-06	-6.187250e-10	-8.283662e+00	-4.408932e+01
2.730000e-06	-1.241578e-06	-8.165995e-10	-8.620981e+00	-5.700343e+01
2.740000e-06	-1.289469e-06	-1.019488e-09	-8.953515e+00	-7.029329e+01
2.750000e-06	-1.336574e-06	-1.227232e-09	-9.280592e+00	-8.389630e+01
2.760000e-06	-1.382998e-06	-1.440465e-09	-9.602944e+00	-9.773360e+01
2.770000e-06	-1.428913e-06	-1.656157e-09	-9.921757e+00	-1.117123e+02
2.780000e-06	-1.474478e-06	-1.869383e-09	-1.023814e+01	-1.257284e+02
2.790000e-06	-1.519729e-06	-2.082907e-09	-1.055235e+01	-1.396712e+02
2.800000e-06	-1.564600e-06	-2.296385e-09	-1.086391e+01	-1.534279e+02
2.810000e-06	-1.608916e-06	-2.506034e-09	-1.117162e+01	-1.668879e+02
2.820000e-06	-1.652659e-06	-2.707191e-09	-1.147535e+01	-1.799486e+02
2.830000e-06	-1.695980e-06	-2.899895e-09	-1.177615e+01	-1.925187e+02
2.840000e-06	-1.738899e-06	-3.083330e-09	-1.207417e+01	-2.045224e+02
2.850000e-06	-1.781300e-06	-3.255852e-09	-1.236858e+01	-2.159019e+02
2.860000e-06	-1.823067e-06	-3.417926e-09	-1.265859e+01	-2.266186e+02
2.870000e-06	-1.864193e-06	-3.571042e-09	-1.294415e+01	-2.366535e+02
2.880000e-06	-1.904690e-06	-3.717622e-09	-1.322535e+01	-2.460058e+02
2.890000e-06	-1.944533e-06	-3.856302e-09	-1.350200e+01	-2.546915e+02
2.900000e-06	-1.983800e-06	-3.984794e-09	-1.377465e+01	-2.627400e+02
2.910000e-06	-2.022526e-06	-4.102235e-09	-1.404355e+01	-2.701909e+02
2.920000e-06	-2.060468e-06	-4.208985e-09	-1.430700e+01	-2.770905e+02
2.930000e-06	-2.097418e-06	-4.304160e-09	-1.456357e+01	-2.834881e+02
2.940000e-06	-2.133404e-06	-4.393434e-09	-1.481344e+01	-2.894329e+02
