# Temperatura_=_18.19
# Concentracion g/m^3_=_18700.0
# C_Vs_to_Am_M_A/Vsm_=_65563218390.804596
# pendiente_HvsI_1/m_=_3716.3
# ordenada_HvsI_A/m_=_1297.0
# frecuencia_Hz_=_301077.18670625484

Tiempo_(s)	Campo_(V.s)	Magnetizacion_(V.s)	Campo_(kA/m)	Magnetizacion_(A/m)
0.000000e+00	-2.944774e-06	-7.590631e-09	-1.978062e+01	-4.942005e+02
1.000000e-08	-2.944267e-06	-7.595399e-09	-1.977722e+01	-4.942660e+02
2.000000e-08	-2.942955e-06	-7.596036e-09	-1.976840e+01	-4.941817e+02
3.000000e-08	-2.940464e-06	-7.591370e-09	-1.975167e+01	-4.939292e+02
4.000000e-08	-2.936689e-06	-7.585929e-09	-1.972632e+01	-4.934902e+02
5.000000e-08	-2.932011e-06	-7.579335e-09	-1.969489e+01	-4.928553e+02
6.000000e-08	-2.926583e-06	-7.567857e-09	-1.965843e+01	-4.920307e+02
7.000000e-08	-2.920225e-06	-7.553430e-09	-1.961573e+01	-4.910380e+02
8.000000e-08	-2.912796e-06	-7.530347e-09	-1.956582e+01	-4.899077e+02
9.000000e-08	-2.904216e-06	-7.532096e-09	-1.950818e+01	-4.886678e+02
1.000000e-07	-2.894228e-06	-7.531662e-09	-1.944109e+01	-4.873322e+02
1.100000e-07	-2.882746e-06	-7.501017e-09	-1.936397e+01	-4.858925e+02
1.200000e-07	-2.870322e-06	-7.382580e-09	-1.928052e+01	-4.843181e+02
1.300000e-07	-2.857217e-06	-7.356002e-09	-1.919248e+01	-4.825645e+02
1.400000e-07	-2.843097e-06	-7.443739e-09	-1.909764e+01	-4.805888e+02
1.500000e-07	-2.827746e-06	-7.393329e-09	-1.899452e+01	-4.783659e+02
1.600000e-07	-2.811180e-06	-7.245646e-09	-1.888325e+01	-4.759005e+02
1.700000e-07	-2.793403e-06	-7.255859e-09	-1.876383e+01	-4.732304e+02
1.800000e-07	-2.774584e-06	-7.266324e-09	-1.863742e+01	-4.704181e+02
1.900000e-07	-2.755116e-06	-7.085564e-09	-1.850665e+01	-4.675344e+02
2.000000e-07	-2.734953e-06	-7.081312e-09	-1.837121e+01	-4.646374e+02
2.100000e-07	-2.713749e-06	-7.118921e-09	-1.822878e+01	-4.617551e+02
2.200000e-07	-2.691596e-06	-6.965556e-09	-1.807998e+01	-4.588760e+02
2.300000e-07	-2.668652e-06	-6.945108e-09	-1.792586e+01	-4.559519e+02
2.400000e-07	-2.644804e-06	-7.004019e-09	-1.776567e+01	-4.529121e+02
2.500000e-07	-2.620168e-06	-6.841687e-09	-1.760018e+01	-4.496834e+02
2.600000e-07	-2.594613e-06	-6.745349e-09	-1.742853e+01	-4.462108e+02
2.700000e-07	-2.567755e-06	-6.759363e-09	-1.724812e+01	-4.424720e+02
2.800000e-07	-2.539790e-06	-6.688298e-09	-1.706027e+01	-4.384812e+02
2.900000e-07	-2.511067e-06	-6.628509e-09	-1.686733e+01	-4.342824e+02
3.000000e-07	-2.481476e-06	-6.572277e-09	-1.666856e+01	-4.299341e+02
3.100000e-07	-2.451014e-06	-6.469425e-09	-1.646394e+01	-4.254918e+02
3.200000e-07	-2.419802e-06	-6.430628e-09	-1.625428e+01	-4.209933e+02
3.300000e-07	-2.387805e-06	-6.373312e-09	-1.603935e+01	-4.164511e+02
3.400000e-07	-2.355150e-06	-6.222073e-09	-1.582000e+01	-4.118543e+02
3.500000e-07	-2.321778e-06	-6.195687e-09	-1.559584e+01	-4.071769e+02
3.600000e-07	-2.287313e-06	-6.161550e-09	-1.536433e+01	-4.023897e+02
3.700000e-07	-2.251652e-06	-6.045016e-09	-1.512479e+01	-3.974718e+02
3.800000e-07	-2.215177e-06	-5.986232e-09	-1.487978e+01	-3.924159e+02
3.900000e-07	-2.178079e-06	-5.901798e-09	-1.463058e+01	-3.872294e+02
4.000000e-07	-2.140251e-06	-5.783483e-09	-1.437649e+01	-3.819285e+02
4.100000e-07	-2.101647e-06	-5.732398e-09	-1.411717e+01	-3.765309e+02
4.200000e-07	-2.062244e-06	-5.668435e-09	-1.385250e+01	-3.710489e+02
4.300000e-07	-2.022167e-06	-5.545452e-09	-1.358329e+01	-3.654857e+02
4.400000e-07	-1.981614e-06	-5.464598e-09	-1.331089e+01	-3.598356e+02
4.500000e-07	-1.940451e-06	-5.391067e-09	-1.303439e+01	-3.540881e+02
4.600000e-07	-1.898377e-06	-5.299858e-09	-1.275177e+01	-3.482337e+02
4.700000e-07	-1.855294e-06	-5.197573e-09	-1.246237e+01	-3.422675e+02
4.800000e-07	-1.811363e-06	-5.098022e-09	-1.216728e+01	-3.361917e+02
4.900000e-07	-1.766876e-06	-5.010288e-09	-1.186845e+01	-3.300143e+02
5.000000e-07	-1.721899e-06	-4.928999e-09	-1.156634e+01	-3.237457e+02
5.100000e-07	-1.676329e-06	-4.830932e-09	-1.126023e+01	-3.173949e+02
5.200000e-07	-1.630175e-06	-4.713585e-09	-1.095020e+01	-3.109667e+02
5.300000e-07	-1.583483e-06	-4.619943e-09	-1.063657e+01	-3.044611e+02
5.400000e-07	-1.536179e-06	-4.525622e-09	-1.031882e+01	-2.978751e+02
5.500000e-07	-1.488279e-06	-4.425882e-09	-9.997063e+00	-2.912052e+02
5.600000e-07	-1.439964e-06	-4.319785e-09	-9.672518e+00	-2.844504e+02
5.700000e-07	-1.391253e-06	-4.209911e-09	-9.345320e+00	-2.776130e+02
5.800000e-07	-1.342052e-06	-4.102871e-09	-9.014827e+00	-2.706983e+02
5.900000e-07	-1.292171e-06	-4.003965e-09	-8.679767e+00	-2.637123e+02
6.000000e-07	-1.241412e-06	-3.893085e-09	-8.338805e+00	-2.566593e+02
6.100000e-07	-1.189941e-06	-3.772985e-09	-7.993070e+00	-2.495399e+02
6.200000e-07	-1.137939e-06	-3.669813e-09	-7.643761e+00	-2.423510e+02
6.300000e-07	-1.085510e-06	-3.565200e-09	-7.291585e+00	-2.350867e+02
6.400000e-07	-1.032776e-06	-3.451538e-09	-6.937355e+00	-2.277416e+02
6.500000e-07	-9.797013e-07	-3.328373e-09	-6.580846e+00	-2.203131e+02
6.600000e-07	-9.262300e-07	-3.212970e-09	-6.221669e+00	-2.128034e+02
6.700000e-07	-8.723694e-07	-3.102578e-09	-5.859876e+00	-2.052189e+02
6.800000e-07	-8.181946e-07	-2.991075e-09	-5.495974e+00	-1.975692e+02
6.900000e-07	-7.638054e-07	-2.872748e-09	-5.130631e+00	-1.898637e+02
7.000000e-07	-7.092176e-07	-2.751956e-09	-4.763953e+00	-1.821094e+02
7.100000e-07	-6.544272e-07	-2.635631e-09	-4.395916e+00	-1.743091e+02
7.200000e-07	-5.994402e-07	-2.511826e-09	-4.026557e+00	-1.664607e+02
7.300000e-07	-5.441749e-07	-2.384622e-09	-3.655329e+00	-1.585588e+02
7.400000e-07	-4.886110e-07	-2.259459e-09	-3.282096e+00	-1.505964e+02
7.500000e-07	-4.328278e-07	-2.143181e-09	-2.907389e+00	-1.425671e+02
7.600000e-07	-3.768585e-07	-2.026801e-09	-2.531432e+00	-1.344664e+02
7.700000e-07	-3.207725e-07	-1.905232e-09	-2.154692e+00	-1.262924e+02
7.800000e-07	-2.646654e-07	-1.776090e-09	-1.777809e+00	-1.180454e+02
7.900000e-07	-2.085022e-07	-1.644506e-09	-1.400550e+00	-1.097273e+02
8.000000e-07	-1.522791e-07	-1.514640e-09	-1.022888e+00	-1.013412e+02
8.100000e-07	-9.603001e-08	-1.380407e-09	-6.450524e-01	-9.289091e+01
8.200000e-07	-3.973041e-08	-1.246753e-09	-2.668769e-01	-8.438093e+01
8.300000e-07	1.657720e-08	-1.116352e-09	1.113523e-01	-7.581658e+01
8.400000e-07	7.286782e-08	-9.924990e-10	4.894674e-01	-6.720360e+01
8.500000e-07	1.291493e-07	-8.658355e-10	8.675209e-01	-5.854737e+01
8.600000e-07	1.853991e-07	-7.324721e-10	1.245362e+00	-4.985165e+01
8.700000e-07	2.415936e-07	-5.953716e-10	1.622831e+00	-4.111741e+01
8.800000e-07	2.976978e-07	-4.598296e-10	1.999694e+00	-3.234206e+01
8.900000e-07	3.536935e-07	-3.247142e-10	2.375828e+00	-2.351960e+01
9.000000e-07	4.095372e-07	-1.851954e-10	2.750941e+00	-1.464184e+01
9.100000e-07	4.652072e-07	-4.665387e-11	3.124888e+00	-5.700278e+00
9.200000e-07	5.207128e-07	8.919441e-11	3.497730e+00	3.311847e+00
9.300000e-07	5.760633e-07	2.228010e-10	3.869530e+00	1.239800e+01
9.400000e-07	6.311597e-07	3.607177e-10	4.239623e+00	2.155783e+01
9.500000e-07	6.859659e-07	5.011966e-10	4.607767e+00	3.078778e+01
9.600000e-07	7.406034e-07	6.448308e-10	4.974778e+00	4.008258e+01
9.700000e-07	7.950537e-07	7.893603e-10	5.340532e+00	4.943701e+01
9.800000e-07	8.492460e-07	9.325316e-10	5.704551e+00	5.884736e+01
9.900000e-07	9.031615e-07	1.077946e-09	6.066713e+00	6.831204e+01
1.000000e-06	9.567308e-07	1.224533e-09	6.426548e+00	7.783118e+01
1.010000e-06	1.009874e-06	1.369227e-09	6.783523e+00	8.740563e+01
1.020000e-06	1.062621e-06	1.511903e-09	7.137833e+00	9.703553e+01
1.030000e-06	1.115010e-06	1.659919e-09	7.489742e+00	1.067192e+02
1.040000e-06	1.167009e-06	1.810461e-09	7.839027e+00	1.164527e+02
1.050000e-06	1.218492e-06	1.960110e-09	8.184853e+00	1.262298e+02
1.060000e-06	1.269376e-06	2.108204e-09	8.526647e+00	1.360430e+02
1.070000e-06	1.319552e-06	2.258368e-09	8.863691e+00	1.458842e+02
1.080000e-06	1.368894e-06	2.410262e-09	9.195132e+00	1.557455e+02
1.090000e-06	1.417632e-06	2.560939e-09	9.522509e+00	1.656200e+02
1.100000e-06	1.466050e-06	2.710516e-09	9.847747e+00	1.755020e+02
1.110000e-06	1.514130e-06	2.859248e-09	1.017071e+01	1.853862e+02
1.120000e-06	1.561695e-06	3.009756e-09	1.049021e+01	1.952681e+02
1.130000e-06	1.608673e-06	3.160508e-09	1.080577e+01	2.051427e+02
1.140000e-06	1.655103e-06	3.309828e-09	1.111765e+01	2.150043e+02
1.150000e-06	1.700893e-06	3.458574e-09	1.142523e+01	2.248454e+02
1.160000e-06	1.746027e-06	3.610022e-09	1.172841e+01	2.346563e+02
1.170000e-06	1.790704e-06	3.762204e-09	1.202851e+01	2.444248e+02
1.180000e-06	1.835004e-06	3.910064e-09	1.232608e+01	2.541362e+02
1.190000e-06	1.878755e-06	4.054438e-09	1.261997e+01	2.637743e+02
1.200000e-06	1.921625e-06	4.198686e-09	1.290793e+01	2.733222e+02
1.210000e-06	1.963436e-06	4.343073e-09	1.318878e+01	2.827647e+02
1.220000e-06	2.004381e-06	4.484403e-09	1.346382e+01	2.920889e+02
1.230000e-06	2.044761e-06	4.623006e-09	1.373506e+01	3.012850e+02
1.240000e-06	2.084602e-06	4.759443e-09	1.400268e+01	3.103453e+02
1.250000e-06	2.123725e-06	4.895112e-09	1.426548e+01	3.192627e+02
1.260000e-06	2.162110e-06	5.028933e-09	1.452331e+01	3.280278e+02
1.270000e-06	2.199731e-06	5.157844e-09	1.477602e+01	3.366273e+02
1.280000e-06	2.236647e-06	5.283880e-09	1.502400e+01	3.450429e+02
1.290000e-06	2.273025e-06	5.408017e-09	1.526836e+01	3.532528e+02
1.300000e-06	2.308694e-06	5.529115e-09	1.550795e+01	3.612345e+02
1.310000e-06	2.343293e-06	5.643084e-09	1.574036e+01	3.689690e+02
1.320000e-06	2.376722e-06	5.750287e-09	1.596491e+01	3.764445e+02
1.330000e-06	2.409273e-06	5.856150e-09	1.618356e+01	3.836587e+02
1.340000e-06	2.441119e-06	5.964266e-09	1.639748e+01	3.906180e+02
1.350000e-06	2.472186e-06	6.068783e-09	1.660615e+01	3.973343e+02
1.360000e-06	2.502481e-06	6.164963e-09	1.680965e+01	4.038201e+02
1.370000e-06	2.531932e-06	6.255445e-09	1.700749e+01	4.100843e+02
1.380000e-06	2.560605e-06	6.345040e-09	1.720009e+01	4.161286e+02
1.390000e-06	2.588547e-06	6.433418e-09	1.738777e+01	4.219480e+02
1.400000e-06	2.615405e-06	6.516557e-09	1.756819e+01	4.275339e+02
1.410000e-06	2.640981e-06	6.595520e-09	1.773999e+01	4.328790e+02
1.420000e-06	2.665536e-06	6.672578e-09	1.790493e+01	4.379820e+02
1.430000e-06	2.689263e-06	6.747344e-09	1.806431e+01	4.428505e+02
1.440000e-06	2.712094e-06	6.818212e-09	1.821767e+01	4.474994e+02
1.450000e-06	2.733987e-06	6.883977e-09	1.836472e+01	4.519471e+02
1.460000e-06	2.755008e-06	6.945836e-09	1.850593e+01	4.562083e+02
1.470000e-06	2.775261e-06	7.007951e-09	1.864197e+01	4.602885e+02
1.480000e-06	2.794621e-06	7.068779e-09	1.877201e+01	4.641808e+02
1.490000e-06	2.812946e-06	7.122734e-09	1.889511e+01	4.678665e+02
1.500000e-06	2.830261e-06	7.170719e-09	1.901141e+01	4.713212e+02
1.510000e-06	2.846544e-06	7.215746e-09	1.912080e+01	4.745225e+02
1.520000e-06	2.861706e-06	7.259507e-09	1.922264e+01	4.774573e+02
1.530000e-06	2.875752e-06	7.299797e-09	1.931699e+01	4.801270e+02
1.540000e-06	2.888779e-06	7.333999e-09	1.940450e+01	4.825468e+02
1.550000e-06	2.900723e-06	7.363531e-09	1.948472e+01	4.847411e+02
1.560000e-06	2.911353e-06	7.391581e-09	1.955613e+01	4.867353e+02
1.570000e-06	2.920658e-06	7.419459e-09	1.961863e+01	4.885488e+02
1.580000e-06	2.928975e-06	7.445193e-09	1.967450e+01	4.901894e+02
1.590000e-06	2.936357e-06	7.466780e-09	1.972409e+01	4.916537e+02
1.600000e-06	2.942683e-06	7.484023e-09	1.976658e+01	4.929316e+02
1.610000e-06	2.948038e-06	7.499611e-09	1.980255e+01	4.940135e+02
1.620000e-06	2.952546e-06	7.513377e-09	1.983283e+01	4.948964e+02
1.630000e-06	2.956055e-06	7.521686e-09	1.985640e+01	4.955877e+02
1.640000e-06	2.958235e-06	7.525562e-09	1.987104e+01	4.961034e+02
1.650000e-06	2.959229e-06	7.529877e-09	1.987772e+01	4.964621e+02
1.660000e-06	2.959345e-06	7.537525e-09	1.987850e+01	4.966781e+02
1.670000e-06	2.958521e-06	7.544227e-09	1.987297e+01	4.967546e+02
1.680000e-06	2.956740e-06	7.540365e-09	1.986100e+01	4.966822e+02
1.690000e-06	2.954062e-06	7.531865e-09	1.984301e+01	4.964432e+02
1.700000e-06	2.950590e-06	7.524550e-09	1.981969e+01	4.960186e+02
1.710000e-06	2.946200e-06	7.515150e-09	1.979020e+01	4.953985e+02
1.720000e-06	2.940588e-06	7.501490e-09	1.975251e+01	4.945877e+02
1.730000e-06	2.933859e-06	7.489439e-09	1.970730e+01	4.936068e+02
1.740000e-06	2.926307e-06	7.484038e-09	1.965657e+01	4.924860e+02
1.750000e-06	2.917752e-06	7.426805e-09	1.959911e+01	4.912540e+02
1.760000e-06	2.907584e-06	7.375230e-09	1.953081e+01	4.899260e+02
1.770000e-06	2.895811e-06	7.418704e-09	1.945173e+01	4.884953e+02
1.780000e-06	2.883445e-06	7.461894e-09	1.936866e+01	4.869326e+02
1.790000e-06	2.871014e-06	7.383029e-09	1.928516e+01	4.851941e+02
1.800000e-06	2.857364e-06	7.253131e-09	1.919348e+01	4.832362e+02
1.810000e-06	2.841870e-06	7.347464e-09	1.908940e+01	4.810319e+02
1.820000e-06	2.825600e-06	7.333964e-09	1.898011e+01	4.785838e+02
1.830000e-06	2.808798e-06	7.139799e-09	1.886724e+01	4.759271e+02
1.840000e-06	2.790713e-06	7.175268e-09	1.874576e+01	4.731234e+02
1.850000e-06	2.771576e-06	7.236930e-09	1.861722e+01	4.702433e+02
1.860000e-06	2.751836e-06	7.063012e-09	1.848462e+01	4.673467e+02
1.870000e-06	2.730812e-06	7.015341e-09	1.834340e+01	4.644641e+02
1.880000e-06	2.708312e-06	7.118582e-09	1.819226e+01	4.615867e+02
1.890000e-06	2.685014e-06	6.950660e-09	1.803577e+01	4.586688e+02
1.900000e-06	2.660831e-06	6.852600e-09	1.787333e+01	4.556405e+02
1.910000e-06	2.635699e-06	6.972347e-09	1.770451e+01	4.524282e+02
1.920000e-06	2.609917e-06	6.865418e-09	1.753132e+01	4.489749e+02
1.930000e-06	2.583320e-06	6.736429e-09	1.735267e+01	4.452558e+02
1.940000e-06	2.555916e-06	6.752261e-09	1.716859e+01	4.412826e+02
1.950000e-06	2.527732e-06	6.632032e-09	1.697927e+01	4.370975e+02
1.960000e-06	2.498204e-06	6.592304e-09	1.678092e+01	4.327587e+02
1.970000e-06	2.467380e-06	6.561134e-09	1.657388e+01	4.283223e+02
1.980000e-06	2.435792e-06	6.401861e-09	1.636169e+01	4.238278e+02
1.990000e-06	2.403414e-06	6.405656e-09	1.614420e+01	4.192897e+02
2.000000e-06	2.370279e-06	6.375550e-09	1.592163e+01	4.146983e+02
2.010000e-06	2.336377e-06	6.188312e-09	1.569390e+01	4.100284e+02
2.020000e-06	2.301652e-06	6.165708e-09	1.546065e+01	4.052507e+02
2.030000e-06	2.266336e-06	6.115418e-09	1.522342e+01	4.003432e+02
2.040000e-06	2.230259e-06	5.974095e-09	1.498108e+01	3.952979e+02
2.050000e-06	2.193024e-06	5.973516e-09	1.473097e+01	3.901210e+02
2.060000e-06	2.154755e-06	5.889456e-09	1.447391e+01	3.848283e+02
2.070000e-06	2.115789e-06	5.752155e-09	1.421217e+01	3.794379e+02
2.080000e-06	2.076207e-06	5.706189e-09	1.394629e+01	3.739625e+02
2.090000e-06	2.035926e-06	5.613772e-09	1.367572e+01	3.684060e+02
2.100000e-06	1.994933e-06	5.516228e-09	1.340035e+01	3.627631e+02
2.110000e-06	1.953335e-06	5.436503e-09	1.312093e+01	3.570238e+02
2.120000e-06	1.911081e-06	5.344628e-09	1.283711e+01	3.511779e+02
2.130000e-06	1.868182e-06	5.280339e-09	1.254894e+01	3.452205e+02
2.140000e-06	1.824806e-06	5.182804e-09	1.225758e+01	3.391530e+02
2.150000e-06	1.780866e-06	5.064463e-09	1.196243e+01	3.329833e+02
2.160000e-06	1.736301e-06	4.975323e-09	1.166307e+01	3.267217e+02
2.170000e-06	1.691093e-06	4.885970e-09	1.135940e+01	3.203773e+02
2.180000e-06	1.645259e-06	4.800452e-09	1.105153e+01	3.139553e+02
2.190000e-06	1.598984e-06	4.689736e-09	1.074069e+01	3.074560e+02
2.200000e-06	1.552218e-06	4.581995e-09	1.042655e+01	3.008767e+02
2.210000e-06	1.504787e-06	4.487488e-09	1.010795e+01	2.942136e+02
2.220000e-06	1.456655e-06	4.382218e-09	9.784636e+00	2.874656e+02
2.230000e-06	1.407890e-06	4.290595e-09	9.457071e+00	2.806347e+02
2.240000e-06	1.358662e-06	4.176263e-09	9.126396e+00	2.737260e+02
2.250000e-06	1.308938e-06	4.066014e-09	8.792395e+00	2.667457e+02
2.260000e-06	1.258624e-06	3.979437e-09	8.454423e+00	2.596982e+02
2.270000e-06	1.207831e-06	3.868250e-09	8.113236e+00	2.525844e+02
2.280000e-06	1.156654e-06	3.747028e-09	7.769473e+00	2.454014e+02
2.290000e-06	1.105113e-06	3.631981e-09	7.423259e+00	2.381434e+02
2.300000e-06	1.053071e-06	3.522771e-09	7.073687e+00	2.308049e+02
2.310000e-06	1.000376e-06	3.422115e-09	6.719720e+00	2.233832e+02
2.320000e-06	9.470333e-07	3.306544e-09	6.361408e+00	2.158799e+02
2.330000e-06	8.931245e-07	3.186381e-09	5.999292e+00	2.083012e+02
2.340000e-06	8.387921e-07	3.072170e-09	5.634331e+00	2.006565e+02
2.350000e-06	7.841278e-07	2.952772e-09	5.267140e+00	1.929555e+02
2.360000e-06	7.291911e-07	2.833749e-09	4.898120e+00	1.852054e+02
2.370000e-06	6.740845e-07	2.710542e-09	4.527958e+00	1.774091e+02
2.380000e-06	6.188298e-07	2.595812e-09	4.156801e+00	1.695650e+02
2.390000e-06	5.634490e-07	2.482622e-09	3.784797e+00	1.616679e+02
2.400000e-06	5.080216e-07	2.359504e-09	3.412481e+00	1.537108e+02
2.410000e-06	4.525098e-07	2.235974e-09	3.039597e+00	1.456872e+02
2.420000e-06	3.968455e-07	2.109130e-09	2.665689e+00	1.375925e+02
2.430000e-06	3.409803e-07	1.984759e-09	2.290431e+00	1.294245e+02
2.440000e-06	2.849010e-07	1.861159e-09	1.913736e+00	1.211834e+02
2.450000e-06	2.287092e-07	1.736649e-09	1.536284e+00	1.128710e+02
2.460000e-06	1.724481e-07	1.612533e-09	1.158368e+00	1.044904e+02
2.470000e-06	1.161521e-07	1.484389e-09	7.802164e-01	9.604535e+01
2.480000e-06	5.985564e-08	1.354304e-09	4.020621e-01	8.754022e+01
2.490000e-06	3.504142e-09	1.224024e-09	2.353801e-02	7.898032e+01
2.500000e-06	-5.283497e-08	1.092827e-09	-3.549029e-01	7.037138e+01
2.510000e-06	-1.090975e-07	9.620169e-10	-7.328296e-01	6.171884e+01
2.520000e-06	-1.653069e-07	8.315376e-10	-1.110399e+00	5.302663e+01
2.530000e-06	-2.214306e-07	6.979245e-10	-1.487392e+00	4.429594e+01
2.540000e-06	-2.774586e-07	5.628225e-10	-1.863744e+00	3.552444e+01
2.550000e-06	-3.333735e-07	4.275985e-10	-2.239335e+00	2.670635e+01
2.560000e-06	-3.891287e-07	2.939916e-10	-2.613854e+00	1.783359e+01
2.570000e-06	-4.447209e-07	1.587920e-10	-2.987278e+00	8.897595e+00
2.580000e-06	-5.001771e-07	2.123944e-11	-3.359788e+00	-1.085741e-01
2.590000e-06	-5.555547e-07	-1.159559e-10	-3.731769e+00	-9.188652e+00
2.600000e-06	-6.108562e-07	-2.554067e-10	-4.103241e+00	-1.834255e+01
2.610000e-06	-6.660716e-07	-3.983060e-10	-4.474134e+00	-2.756690e+01
2.620000e-06	-7.211606e-07	-5.424656e-10	-4.844177e+00	-3.685650e+01
2.630000e-06	-7.760505e-07	-6.848764e-10	-5.212883e+00	-4.620606e+01
2.640000e-06	-8.306210e-07	-8.272643e-10	-5.579444e+00	-5.561174e+01
2.650000e-06	-8.847804e-07	-9.704062e-10	-5.943243e+00	-6.507179e+01
2.660000e-06	-9.384371e-07	-1.116953e-09	-6.303666e+00	-7.458627e+01
2.670000e-06	-9.914636e-07	-1.265010e-09	-6.659855e+00	-8.415599e+01
2.680000e-06	-1.043895e-06	-1.411271e-09	-7.012048e+00	-9.378120e+01
2.690000e-06	-1.095803e-06	-1.556589e-09	-7.360721e+00	-1.034604e+02
2.700000e-06	-1.147295e-06	-1.702942e-09	-7.706603e+00	-1.131898e+02
2.710000e-06	-1.198437e-06	-1.851916e-09	-8.050133e+00	-1.229633e+02
2.720000e-06	-1.249183e-06	-2.003704e-09	-8.391005e+00	-1.327734e+02
2.730000e-06	-1.299413e-06	-2.158967e-09	-8.728413e+00	-1.426120e+02
2.740000e-06	-1.349114e-06	-2.313215e-09	-9.062266e+00	-1.524714e+02
2.750000e-06	-1.398287e-06	-2.464333e-09	-9.392565e+00	-1.623444e+02
2.760000e-06	-1.446839e-06	-2.611902e-09	-9.718700e+00	-1.722253e+02
2.770000e-06	-1.494608e-06	-2.758681e-09	-1.003957e+01	-1.821088e+02
2.780000e-06	-1.541491e-06	-2.908515e-09	-1.035450e+01	-1.919902e+02
2.790000e-06	-1.587632e-06	-3.060633e-09	-1.066443e+01	-2.018648e+02
2.800000e-06	-1.633309e-06	-3.212577e-09	-1.097126e+01	-2.117268e+02
2.810000e-06	-1.678677e-06	-3.364297e-09	-1.127600e+01	-2.215688e+02
2.820000e-06	-1.723672e-06	-3.517582e-09	-1.157824e+01	-2.313815e+02
2.830000e-06	-1.768135e-06	-3.668094e-09	-1.187691e+01	-2.411528e+02
2.840000e-06	-1.811964e-06	-3.812527e-09	-1.217132e+01	-2.508681e+02
2.850000e-06	-1.855289e-06	-3.955129e-09	-1.246234e+01	-2.605111e+02
2.860000e-06	-1.898163e-06	-4.101205e-09	-1.275033e+01	-2.700653e+02
2.870000e-06	-1.940418e-06	-4.247369e-09	-1.303417e+01	-2.795150e+02
2.880000e-06	-1.981956e-06	-4.390932e-09	-1.331319e+01	-2.888473e+02
2.890000e-06	-2.022828e-06	-4.533450e-09	-1.358773e+01	-2.980520e+02
2.900000e-06	-2.063057e-06	-4.674022e-09	-1.385796e+01	-3.071215e+02
2.910000e-06	-2.102657e-06	-4.811617e-09	-1.412396e+01	-3.160486e+02
2.920000e-06	-2.141657e-06	-4.946769e-09	-1.438593e+01	-3.248242e+02
2.930000e-06	-2.179852e-06	-5.079014e-09	-1.464249e+01	-3.334353e+02
2.940000e-06	-2.216951e-06	-5.206567e-09	-1.489169e+01	-3.418640e+02
