# Temperatura_=_23.0
# Concentracion g/m^3_=_18700.0
# C_Vs_to_Am_M_A/Vsm_=_65563218390.804596
# pendiente_HvsI_1/m_=_3716.3
# ordenada_HvsI_A/m_=_1297.0
# frecuencia_Hz_=_301065.34019541886

Tiempo_(s)	Campo_(V.s)	Magnetizacion_(V.s)	Campo_(kA/m)	Magnetizacion_(A/m)
0.000000e+00	-2.942784e-06	-7.754624e-09	-1.977473e+01	-5.055866e+02
1.000000e-08	-2.942050e-06	-7.761530e-09	-1.976980e+01	-5.056276e+02
2.000000e-08	-2.940451e-06	-7.763190e-09	-1.975905e+01	-5.055740e+02
3.000000e-08	-2.937614e-06	-7.760159e-09	-1.974000e+01	-5.053891e+02
4.000000e-08	-2.933603e-06	-7.756207e-09	-1.971304e+01	-5.050205e+02
5.000000e-08	-2.928762e-06	-7.748360e-09	-1.968051e+01	-5.044197e+02
6.000000e-08	-2.923080e-06	-7.732862e-09	-1.964233e+01	-5.035617e+02
7.000000e-08	-2.916411e-06	-7.712530e-09	-1.959751e+01	-5.024565e+02
8.000000e-08	-2.908697e-06	-7.702577e-09	-1.954568e+01	-5.011474e+02
9.000000e-08	-2.899821e-06	-7.713446e-09	-1.948603e+01	-4.996977e+02
1.000000e-07	-2.889465e-06	-7.686750e-09	-1.941644e+01	-4.981689e+02
1.100000e-07	-2.877701e-06	-7.601846e-09	-1.933739e+01	-4.965990e+02
1.200000e-07	-2.865143e-06	-7.533681e-09	-1.925301e+01	-4.949899e+02
1.300000e-07	-2.851810e-06	-7.578695e-09	-1.916341e+01	-4.933064e+02
1.400000e-07	-2.837342e-06	-7.603669e-09	-1.906619e+01	-4.914901e+02
1.500000e-07	-2.821732e-06	-7.478020e-09	-1.896129e+01	-4.894814e+02
1.600000e-07	-2.804897e-06	-7.450558e-09	-1.884817e+01	-4.872425e+02
1.700000e-07	-2.786834e-06	-7.481229e-09	-1.872679e+01	-4.847719e+02
1.800000e-07	-2.767896e-06	-7.368044e-09	-1.859953e+01	-4.821064e+02
1.900000e-07	-2.748255e-06	-7.278804e-09	-1.846755e+01	-4.793084e+02
2.000000e-07	-2.727747e-06	-7.305817e-09	-1.832974e+01	-4.764433e+02
2.100000e-07	-2.706228e-06	-7.228345e-09	-1.818514e+01	-4.735561e+02
2.200000e-07	-2.683864e-06	-7.126689e-09	-1.803486e+01	-4.706534e+02
2.300000e-07	-2.660669e-06	-7.185758e-09	-1.787900e+01	-4.677007e+02
2.400000e-07	-2.636566e-06	-7.145012e-09	-1.771703e+01	-4.646322e+02
2.500000e-07	-2.611751e-06	-6.993007e-09	-1.755028e+01	-4.613734e+02
2.600000e-07	-2.585937e-06	-6.965209e-09	-1.737682e+01	-4.578651e+02
2.700000e-07	-2.558746e-06	-6.936143e-09	-1.719410e+01	-4.540835e+02
2.800000e-07	-2.530546e-06	-6.845858e-09	-1.700460e+01	-4.500470e+02
2.900000e-07	-2.501611e-06	-6.800075e-09	-1.681017e+01	-4.458094e+02
3.000000e-07	-2.471792e-06	-6.715669e-09	-1.660979e+01	-4.414416e+02
3.100000e-07	-2.441170e-06	-6.656610e-09	-1.640402e+01	-4.370083e+02
3.200000e-07	-2.409734e-06	-6.632487e-09	-1.619278e+01	-4.325481e+02
3.300000e-07	-2.377513e-06	-6.520660e-09	-1.597626e+01	-4.280641e+02
3.400000e-07	-2.344694e-06	-6.418419e-09	-1.575573e+01	-4.235266e+02
3.500000e-07	-2.311126e-06	-6.389905e-09	-1.553016e+01	-4.188873e+02
3.600000e-07	-2.276389e-06	-6.314129e-09	-1.529674e+01	-4.140984e+02
3.700000e-07	-2.240487e-06	-6.228521e-09	-1.505548e+01	-4.091300e+02
3.800000e-07	-2.203893e-06	-6.170242e-09	-1.480958e+01	-4.039801e+02
3.900000e-07	-2.166702e-06	-6.057602e-09	-1.455967e+01	-3.986733e+02
4.000000e-07	-2.128723e-06	-5.976765e-09	-1.430446e+01	-3.932500e+02
4.100000e-07	-2.089982e-06	-5.923039e-09	-1.404413e+01	-3.877513e+02
4.200000e-07	-2.050470e-06	-5.821420e-09	-1.377862e+01	-3.822042e+02
4.300000e-07	-2.010242e-06	-5.716603e-09	-1.350830e+01	-3.766130e+02
4.400000e-07	-1.969524e-06	-5.648907e-09	-1.323468e+01	-3.709604e+02
4.500000e-07	-1.928220e-06	-5.568099e-09	-1.295713e+01	-3.652156e+02
4.600000e-07	-1.886066e-06	-5.468764e-09	-1.267387e+01	-3.593473e+02
4.700000e-07	-1.842891e-06	-5.369077e-09	-1.238375e+01	-3.533357e+02
4.800000e-07	-1.798820e-06	-5.269861e-09	-1.208760e+01	-3.471796e+02
4.900000e-07	-1.754236e-06	-5.186463e-09	-1.178800e+01	-3.408957e+02
5.000000e-07	-1.709233e-06	-5.095685e-09	-1.148559e+01	-3.345116e+02
5.100000e-07	-1.663595e-06	-4.987902e-09	-1.117892e+01	-3.280553e+02
5.200000e-07	-1.617322e-06	-4.880599e-09	-1.086798e+01	-3.215451e+02
5.300000e-07	-1.570464e-06	-4.792189e-09	-1.055311e+01	-3.149843e+02
5.400000e-07	-1.523007e-06	-4.694542e-09	-1.023421e+01	-3.083620e+02
5.500000e-07	-1.475030e-06	-4.586643e-09	-9.911810e+00	-3.016594e+02
5.600000e-07	-1.426648e-06	-4.475972e-09	-9.586701e+00	-2.948579e+02
5.700000e-07	-1.377897e-06	-4.364852e-09	-9.259108e+00	-2.879481e+02
5.800000e-07	-1.328626e-06	-4.264826e-09	-8.928015e+00	-2.809325e+02
5.900000e-07	-1.278572e-06	-4.161286e-09	-8.591666e+00	-2.738247e+02
6.000000e-07	-1.227646e-06	-4.047144e-09	-8.249456e+00	-2.666435e+02
6.100000e-07	-1.176026e-06	-3.933131e-09	-7.902585e+00	-2.594044e+02
6.200000e-07	-1.123891e-06	-3.830305e-09	-7.552249e+00	-2.521137e+02
6.300000e-07	-1.071410e-06	-3.720665e-09	-7.199592e+00	-2.447655e+02
6.400000e-07	-1.018660e-06	-3.599860e-09	-6.845128e+00	-2.373445e+02
6.500000e-07	-9.655409e-07	-3.475778e-09	-6.488181e+00	-2.298318e+02
6.600000e-07	-9.120404e-07	-3.359510e-09	-6.128672e+00	-2.222135e+02
6.700000e-07	-8.582127e-07	-3.250780e-09	-5.766963e+00	-2.144868e+02
6.800000e-07	-8.040509e-07	-3.136342e-09	-5.403010e+00	-2.066624e+02
6.900000e-07	-7.496210e-07	-3.013477e-09	-5.037256e+00	-1.987620e+02
7.000000e-07	-6.949960e-07	-2.889555e-09	-4.670190e+00	-1.908113e+02
7.100000e-07	-6.401994e-07	-2.769688e-09	-4.301971e+00	-1.828321e+02
7.200000e-07	-5.851859e-07	-2.644247e-09	-3.932295e+00	-1.748341e+02
7.300000e-07	-5.299238e-07	-2.515882e-09	-3.560948e+00	-1.668127e+02
7.400000e-07	-4.744027e-07	-2.388791e-09	-3.187861e+00	-1.587494e+02
7.500000e-07	-4.186405e-07	-2.268094e-09	-2.813154e+00	-1.506190e+02
7.600000e-07	-3.626906e-07	-2.150505e-09	-2.437186e+00	-1.423970e+02
7.700000e-07	-3.065886e-07	-2.025807e-09	-2.060195e+00	-1.340682e+02
7.800000e-07	-2.503959e-07	-1.893579e-09	-1.682594e+00	-1.256312e+02
7.900000e-07	-1.941800e-07	-1.759432e-09	-1.304839e+00	-1.170984e+02
8.000000e-07	-1.379521e-07	-1.627246e-09	-9.270018e-01	-1.084917e+02
8.100000e-07	-8.170687e-08	-1.492768e-09	-5.490487e-01	-9.983525e+01
8.200000e-07	-2.544623e-08	-1.358063e-09	-1.709920e-01	-9.114763e+01
8.300000e-07	3.084242e-08	-1.225567e-09	2.072529e-01	-8.243659e+01
8.400000e-07	8.715034e-08	-1.096144e-09	5.856273e-01	-7.369740e+01
8.500000e-07	1.434509e-07	-9.648511e-10	9.639524e-01	-6.491549e+01
8.600000e-07	1.996968e-07	-8.278925e-10	1.341910e+00	-5.607219e+01
8.700000e-07	2.558704e-07	-6.887064e-10	1.719382e+00	-4.715127e+01
8.800000e-07	3.119358e-07	-5.501108e-10	2.096126e+00	-3.814410e+01
8.900000e-07	3.678421e-07	-4.110578e-10	2.471802e+00	-2.905160e+01
9.000000e-07	4.235839e-07	-2.695091e-10	2.846372e+00	-1.988243e+01
9.100000e-07	4.791906e-07	-1.286450e-10	3.220035e+00	-1.064846e+01
9.200000e-07	5.346433e-07	1.192611e-11	3.592662e+00	-1.359058e+00
9.300000e-07	5.899058e-07	1.525171e-10	3.964011e+00	7.983275e+00
9.400000e-07	6.449317e-07	2.940749e-10	4.333771e+00	1.738449e+01
9.500000e-07	6.996685e-07	4.377158e-10	4.701588e+00	2.685707e+01
9.600000e-07	7.542149e-07	5.853377e-10	5.068125e+00	3.641536e+01
9.700000e-07	8.086066e-07	7.357661e-10	5.433624e+00	4.606995e+01
9.800000e-07	8.627506e-07	8.845924e-10	5.797457e+00	5.582325e+01
9.900000e-07	9.165768e-07	1.034122e-09	6.159155e+00	6.566796e+01
1.000000e-06	9.700364e-07	1.185408e-09	6.518389e+00	7.558907e+01
1.010000e-06	1.023080e-06	1.337939e-09	6.874831e+00	8.556867e+01
1.020000e-06	1.075744e-06	1.490419e-09	7.228717e+00	9.559173e+01
1.030000e-06	1.128059e-06	1.644262e-09	7.580257e+00	1.056506e+02
1.040000e-06	1.179938e-06	1.798600e-09	7.928870e+00	1.157466e+02
1.050000e-06	1.231203e-06	1.951358e-09	8.273363e+00	1.258874e+02
1.060000e-06	1.281727e-06	2.105624e-09	8.612866e+00	1.360826e+02
1.070000e-06	1.331528e-06	2.262761e-09	8.947516e+00	1.463368e+02
1.080000e-06	1.380662e-06	2.420769e-09	9.277686e+00	1.566457e+02
1.090000e-06	1.429328e-06	2.579074e-09	9.604708e+00	1.669943e+02
1.100000e-06	1.477662e-06	2.738171e-09	9.929500e+00	1.773603e+02
1.110000e-06	1.525573e-06	2.897878e-09	1.025145e+01	1.877197e+02
1.120000e-06	1.572901e-06	3.054514e-09	1.056948e+01	1.980534e+02
1.130000e-06	1.619657e-06	3.208772e-09	1.088367e+01	2.083524e+02
1.140000e-06	1.665884e-06	3.362405e-09	1.119430e+01	2.186188e+02
1.150000e-06	1.711504e-06	3.517611e-09	1.150086e+01	2.288617e+02
1.160000e-06	1.756548e-06	3.676059e-09	1.180354e+01	2.390908e+02
1.170000e-06	1.801168e-06	3.836240e-09	1.210338e+01	2.493080e+02
1.180000e-06	1.845387e-06	3.993818e-09	1.240052e+01	2.595020e+02
1.190000e-06	1.888969e-06	4.147901e-09	1.269337e+01	2.696472e+02
1.200000e-06	1.931575e-06	4.299092e-09	1.297967e+01	2.797078e+02
1.210000e-06	1.973147e-06	4.446843e-09	1.325903e+01	2.896462e+02
1.220000e-06	2.013985e-06	4.593508e-09	1.353345e+01	2.994315e+02
1.230000e-06	2.054272e-06	4.738272e-09	1.380417e+01	3.090466e+02
1.240000e-06	2.093919e-06	4.881526e-09	1.407058e+01	3.184890e+02
1.250000e-06	2.132864e-06	5.024416e-09	1.433229e+01	3.277666e+02
1.260000e-06	2.171052e-06	5.165452e-09	1.458890e+01	3.368887e+02
1.270000e-06	2.208454e-06	5.300667e-09	1.484023e+01	3.458565e+02
1.280000e-06	2.245232e-06	5.432240e-09	1.508737e+01	3.546556e+02
1.290000e-06	2.281428e-06	5.562123e-09	1.533060e+01	3.632561e+02
1.300000e-06	2.316790e-06	5.688764e-09	1.556822e+01	3.716174e+02
1.310000e-06	2.351010e-06	5.807903e-09	1.579817e+01	3.796993e+02
1.320000e-06	2.384151e-06	5.920223e-09	1.602087e+01	3.874732e+02
1.330000e-06	2.416538e-06	6.031276e-09	1.623850e+01	3.949303e+02
1.340000e-06	2.448240e-06	6.142182e-09	1.645153e+01	4.020832e+02
1.350000e-06	2.479124e-06	6.248245e-09	1.665906e+01	4.089600e+02
1.360000e-06	2.509133e-06	6.347197e-09	1.686071e+01	4.155930e+02
1.370000e-06	2.538353e-06	6.442273e-09	1.705707e+01	4.220064e+02
1.380000e-06	2.566884e-06	6.534987e-09	1.724879e+01	4.282078e+02
1.390000e-06	2.594598e-06	6.625037e-09	1.743501e+01	4.341859e+02
1.400000e-06	2.621141e-06	6.710254e-09	1.761338e+01	4.399167e+02
1.410000e-06	2.646432e-06	6.789962e-09	1.778332e+01	4.453750e+02
1.420000e-06	2.670742e-06	6.865617e-09	1.794668e+01	4.505465e+02
1.430000e-06	2.694183e-06	6.939990e-09	1.810420e+01	4.554363e+02
1.440000e-06	2.716732e-06	7.012158e-09	1.825572e+01	4.600694e+02
1.450000e-06	2.738387e-06	7.079024e-09	1.840124e+01	4.644826e+02
1.460000e-06	2.759230e-06	7.142469e-09	1.854130e+01	4.687116e+02
1.470000e-06	2.779327e-06	7.203916e-09	1.867635e+01	4.727766e+02
1.480000e-06	2.798449e-06	7.261512e-09	1.880484e+01	4.766740e+02
1.490000e-06	2.816497e-06	7.314879e-09	1.892612e+01	4.803759e+02
1.500000e-06	2.833589e-06	7.364090e-09	1.904097e+01	4.838392e+02
1.510000e-06	2.849574e-06	7.408916e-09	1.914838e+01	4.870217e+02
1.520000e-06	2.864389e-06	7.451556e-09	1.924794e+01	4.898976e+02
1.530000e-06	2.878147e-06	7.490033e-09	1.934039e+01	4.924682e+02
1.540000e-06	2.890872e-06	7.522047e-09	1.942590e+01	4.947626e+02
1.550000e-06	2.902461e-06	7.550169e-09	1.950377e+01	4.968290e+02
1.560000e-06	2.912687e-06	7.578129e-09	1.957249e+01	4.987180e+02
1.570000e-06	2.921684e-06	7.604695e-09	1.963295e+01	5.004661e+02
1.580000e-06	2.929768e-06	7.628028e-09	1.968727e+01	5.020842e+02
1.590000e-06	2.936899e-06	7.649182e-09	1.973519e+01	5.035560e+02
1.600000e-06	2.942967e-06	7.667819e-09	1.977596e+01	5.048476e+02
1.610000e-06	2.948088e-06	7.683124e-09	1.981038e+01	5.059230e+02
1.620000e-06	2.952396e-06	7.695307e-09	1.983932e+01	5.067611e+02
1.630000e-06	2.955612e-06	7.704586e-09	1.986093e+01	5.073666e+02
1.640000e-06	2.957466e-06	7.710413e-09	1.987339e+01	5.077699e+02
1.650000e-06	2.958226e-06	7.715188e-09	1.987850e+01	5.080170e+02
1.660000e-06	2.958094e-06	7.719648e-09	1.987761e+01	5.081521e+02
1.670000e-06	2.957017e-06	7.719945e-09	1.987038e+01	5.081996e+02
1.680000e-06	2.955033e-06	7.715957e-09	1.985705e+01	5.081541e+02
1.690000e-06	2.952186e-06	7.710739e-09	1.983792e+01	5.079807e+02
1.700000e-06	2.948559e-06	7.703967e-09	1.981354e+01	5.076274e+02
1.710000e-06	2.943897e-06	7.696142e-09	1.978222e+01	5.070449e+02
1.720000e-06	2.937973e-06	7.687584e-09	1.974240e+01	5.062058e+02
1.730000e-06	2.931057e-06	7.674452e-09	1.969593e+01	5.051176e+02
1.740000e-06	2.923322e-06	7.634896e-09	1.964395e+01	5.038216e+02
1.750000e-06	2.914348e-06	7.577855e-09	1.958365e+01	5.023802e+02
1.760000e-06	2.903615e-06	7.575841e-09	1.951153e+01	5.008558e+02
1.770000e-06	2.891515e-06	7.634703e-09	1.943022e+01	4.992888e+02
1.780000e-06	2.879130e-06	7.591781e-09	1.934699e+01	4.976837e+02
1.790000e-06	2.866477e-06	7.491093e-09	1.926197e+01	4.960077e+02
1.800000e-06	2.852263e-06	7.480808e-09	1.916646e+01	4.942035e+02
1.810000e-06	2.836377e-06	7.528451e-09	1.905970e+01	4.922106e+02
1.820000e-06	2.819973e-06	7.422006e-09	1.894948e+01	4.899891e+02
1.830000e-06	2.802885e-06	7.328493e-09	1.883465e+01	4.875347e+02
1.840000e-06	2.784433e-06	7.405725e-09	1.871065e+01	4.848818e+02
1.850000e-06	2.765158e-06	7.330960e-09	1.858113e+01	4.820914e+02
1.860000e-06	2.745129e-06	7.209087e-09	1.844654e+01	4.792297e+02
1.870000e-06	2.723653e-06	7.282930e-09	1.830223e+01	4.763437e+02
1.880000e-06	2.700923e-06	7.244073e-09	1.814949e+01	4.734433e+02
1.890000e-06	2.677400e-06	7.069791e-09	1.799142e+01	4.704965e+02
1.900000e-06	2.652909e-06	7.100466e-09	1.782685e+01	4.674393e+02
1.910000e-06	2.627554e-06	7.119089e-09	1.765647e+01	4.641968e+02
1.920000e-06	2.601508e-06	6.994290e-09	1.748145e+01	4.607081e+02
1.930000e-06	2.574614e-06	6.948329e-09	1.730073e+01	4.569463e+02
1.940000e-06	2.547017e-06	6.912431e-09	1.711529e+01	4.529270e+02
1.950000e-06	2.518492e-06	6.816456e-09	1.692360e+01	4.487020e+02
1.960000e-06	2.488524e-06	6.785877e-09	1.672223e+01	4.443416e+02
1.970000e-06	2.457482e-06	6.678346e-09	1.651363e+01	4.399117e+02
1.980000e-06	2.425727e-06	6.584704e-09	1.630025e+01	4.354534e+02
1.990000e-06	2.393128e-06	6.603088e-09	1.608119e+01	4.309722e+02
2.000000e-06	2.359792e-06	6.495251e-09	1.585718e+01	4.264405e+02
2.010000e-06	2.325705e-06	6.389510e-09	1.562812e+01	4.218106e+02
2.020000e-06	2.290832e-06	6.364314e-09	1.539379e+01	4.170341e+02
2.030000e-06	2.255360e-06	6.250651e-09	1.515543e+01	4.120794e+02
2.040000e-06	2.218990e-06	6.177917e-09	1.491103e+01	4.069424e+02
2.050000e-06	2.181399e-06	6.146384e-09	1.465843e+01	4.016460e+02
2.060000e-06	2.142817e-06	6.019795e-09	1.439916e+01	3.962300e+02
2.070000e-06	2.103589e-06	5.937635e-09	1.413557e+01	3.907360e+02
2.080000e-06	2.063793e-06	5.876667e-09	1.386814e+01	3.851924e+02
2.090000e-06	2.023310e-06	5.770863e-09	1.359611e+01	3.796052e+02
2.100000e-06	1.982162e-06	5.687922e-09	1.331961e+01	3.739584e+02
2.110000e-06	1.940415e-06	5.593429e-09	1.303908e+01	3.682217e+02
2.120000e-06	1.897989e-06	5.513899e-09	1.275399e+01	3.623635e+02
2.130000e-06	1.854958e-06	5.444411e-09	1.246483e+01	3.563629e+02
2.140000e-06	1.811510e-06	5.337864e-09	1.217287e+01	3.502172e+02
2.150000e-06	1.767508e-06	5.235544e-09	1.187719e+01	3.439421e+02
2.160000e-06	1.722796e-06	5.141000e-09	1.157674e+01	3.375646e+02
2.170000e-06	1.677389e-06	5.047042e-09	1.127161e+01	3.311131e+02
2.180000e-06	1.631439e-06	4.948318e-09	1.096284e+01	3.246069e+02
2.190000e-06	1.585098e-06	4.835713e-09	1.065144e+01	3.180504e+02
2.200000e-06	1.538191e-06	4.739083e-09	1.033624e+01	3.114336e+02
2.210000e-06	1.490545e-06	4.643636e-09	1.001607e+01	3.047377e+02
2.220000e-06	1.442161e-06	4.545178e-09	9.690941e+00	2.979443e+02
2.230000e-06	1.393183e-06	4.450446e-09	9.361823e+00	2.910427e+02
2.240000e-06	1.343800e-06	4.329704e-09	9.029983e+00	2.840347e+02
2.250000e-06	1.293978e-06	4.221280e-09	8.695189e+00	2.769334e+02
2.260000e-06	1.243621e-06	4.119304e-09	8.356804e+00	2.697573e+02
2.270000e-06	1.192772e-06	4.000698e-09	8.015112e+00	2.625224e+02
2.280000e-06	1.141564e-06	3.887892e-09	7.671007e+00	2.552359e+02
2.290000e-06	1.089993e-06	3.775404e-09	7.324463e+00	2.478927e+02
2.300000e-06	1.037870e-06	3.673818e-09	6.974215e+00	2.404780e+02
2.310000e-06	9.850956e-07	3.569505e-09	6.619583e+00	2.329729e+02
2.320000e-06	9.316915e-07	3.447380e-09	6.260722e+00	2.253628e+02
2.330000e-06	8.777299e-07	3.325867e-09	5.898114e+00	2.176441e+02
2.340000e-06	8.233127e-07	3.204480e-09	5.532444e+00	2.098265e+02
2.350000e-06	7.685809e-07	3.080782e-09	5.164661e+00	2.019311e+02
2.360000e-06	7.136399e-07	2.956449e-09	4.795472e+00	1.939837e+02
2.370000e-06	6.585436e-07	2.834874e-09	4.425239e+00	1.860065e+02
2.380000e-06	6.033105e-07	2.722237e-09	4.054087e+00	1.780103e+02
2.390000e-06	5.479610e-07	2.606621e-09	3.682153e+00	1.699914e+02
2.400000e-06	4.925187e-07	2.484664e-09	3.309596e+00	1.619324e+02
2.410000e-06	4.369611e-07	2.359959e-09	2.936264e+00	1.538081e+02
2.420000e-06	3.812837e-07	2.230694e-09	2.562126e+00	1.455938e+02
2.430000e-06	3.254654e-07	2.103699e-09	2.187042e+00	1.372733e+02
2.440000e-06	2.694846e-07	1.974700e-09	1.810865e+00	1.288442e+02
2.450000e-06	2.133875e-07	1.845177e-09	1.433908e+00	1.203181e+02
2.460000e-06	1.572151e-07	1.716503e-09	1.056444e+00	1.117163e+02
2.470000e-06	1.009974e-07	1.585605e-09	6.786762e-01	1.030631e+02
2.480000e-06	4.480214e-08	1.456141e-09	3.010586e-01	9.437776e+01
2.490000e-06	-1.139002e-08	1.323339e-09	-7.653794e-02	8.566886e+01
2.500000e-06	-6.764174e-08	1.190439e-09	-4.545347e-01	7.693252e+01
2.510000e-06	-1.238553e-07	1.058024e-09	-8.322750e-01	6.815473e+01
2.520000e-06	-1.799864e-07	9.225865e-10	-1.209462e+00	5.931687e+01
2.530000e-06	-2.360252e-07	7.838208e-10	-1.586027e+00	5.040235e+01
2.540000e-06	-2.919698e-07	6.450496e-10	-1.961960e+00	4.140188e+01
2.550000e-06	-3.478100e-07	5.095639e-10	-2.337192e+00	3.231570e+01
2.560000e-06	-4.034887e-07	3.722856e-10	-2.711338e+00	2.315208e+01
2.570000e-06	-4.590488e-07	2.309188e-10	-3.084687e+00	1.392282e+01
2.580000e-06	-5.145031e-07	8.982455e-11	-3.457325e+00	4.637650e+00
2.590000e-06	-5.698263e-07	-5.002719e-11	-3.829083e+00	-4.700348e+00
2.600000e-06	-6.250044e-07	-1.929952e-10	-4.199865e+00	-1.409655e+01
2.610000e-06	-6.800726e-07	-3.396154e-10	-4.569909e+00	-2.356309e+01
2.620000e-06	-7.350052e-07	-4.883226e-10	-4.939042e+00	-3.311438e+01
2.630000e-06	-7.897197e-07	-6.357392e-10	-5.306709e+00	-4.276144e+01
2.640000e-06	-8.441282e-07	-7.822248e-10	-5.672319e+00	-5.250736e+01
2.650000e-06	-8.980898e-07	-9.301492e-10	-6.034927e+00	-6.234552e+01
2.660000e-06	-9.514960e-07	-1.081743e-09	-6.393803e+00	-7.226131e+01
2.670000e-06	-1.004282e-06	-1.234491e-09	-6.748514e+00	-8.223685e+01
2.680000e-06	-1.056496e-06	-1.385540e-09	-7.099373e+00	-9.225670e+01
2.690000e-06	-1.108270e-06	-1.538022e-09	-7.447286e+00	-1.023126e+02
2.700000e-06	-1.159662e-06	-1.694006e-09	-7.792626e+00	-1.124053e+02
2.710000e-06	-1.210668e-06	-1.851597e-09	-8.135372e+00	-1.225422e+02
2.720000e-06	-1.261221e-06	-2.007649e-09	-8.475074e+00	-1.327328e+02
2.730000e-06	-1.311248e-06	-2.163633e-09	-8.811244e+00	-1.429823e+02
2.740000e-06	-1.360759e-06	-2.320800e-09	-9.143942e+00	-1.532872e+02
2.750000e-06	-1.409758e-06	-2.477918e-09	-9.473200e+00	-1.636332e+02
2.760000e-06	-1.458064e-06	-2.632822e-09	-9.797807e+00	-1.739984e+02
2.770000e-06	-1.505587e-06	-2.788732e-09	-1.011715e+01	-1.843585e+02
2.780000e-06	-1.552370e-06	-2.948579e-09	-1.043152e+01	-1.946940e+02
2.790000e-06	-1.598461e-06	-3.108270e-09	-1.074123e+01	-2.049951e+02
2.800000e-06	-1.644104e-06	-3.266839e-09	-1.104794e+01	-2.152631e+02
2.810000e-06	-1.689393e-06	-3.423707e-09	-1.135227e+01	-2.255068e+02
2.820000e-06	-1.734155e-06	-3.579294e-09	-1.165306e+01	-2.357363e+02
2.830000e-06	-1.778285e-06	-3.733793e-09	-1.194961e+01	-2.459540e+02
2.840000e-06	-1.821873e-06	-3.885822e-09	-1.224251e+01	-2.561499e+02
2.850000e-06	-1.865071e-06	-4.038795e-09	-1.253278e+01	-2.662993e+02
2.860000e-06	-1.907771e-06	-4.195047e-09	-1.281972e+01	-2.763668e+02
2.870000e-06	-1.949796e-06	-4.349667e-09	-1.310211e+01	-2.863146e+02
2.880000e-06	-1.991227e-06	-4.499986e-09	-1.338052e+01	-2.961112e+02
2.890000e-06	-2.031978e-06	-4.647059e-09	-1.365435e+01	-3.057382e+02
2.900000e-06	-2.071936e-06	-4.791791e-09	-1.392286e+01	-3.151923e+02
2.910000e-06	-2.111310e-06	-4.934161e-09	-1.418745e+01	-3.244808e+02
2.920000e-06	-2.150117e-06	-5.072861e-09	-1.444822e+01	-3.336135e+02
2.930000e-06	-2.188044e-06	-5.208877e-09	-1.470308e+01	-3.425920e+02
2.940000e-06	-2.224872e-06	-5.343428e-09	-1.495055e+01	-3.514036e+02
