# Temperatura_=_26.83
# Concentracion g/m^3_=_18700.0
# C_Vs_to_Am_M_A/Vsm_=_65563218390.804596
# pendiente_HvsI_1/m_=_3716.3
# ordenada_HvsI_A/m_=_1297.0
# frecuencia_Hz_=_301055.69875835464

Tiempo_(s)	Campo_(V.s)	Magnetizacion_(V.s)	Campo_(kA/m)	Magnetizacion_(A/m)
0.000000e+00	-2.944353e-06	-7.858795e-09	-1.977728e+01	-5.136301e+02
1.000000e-08	-2.943811e-06	-7.860397e-09	-1.977363e+01	-5.137261e+02
2.000000e-08	-2.942414e-06	-7.860387e-09	-1.976425e+01	-5.136779e+02
3.000000e-08	-2.939878e-06	-7.859072e-09	-1.974722e+01	-5.134428e+02
4.000000e-08	-2.936129e-06	-7.855509e-09	-1.972204e+01	-5.129844e+02
5.000000e-08	-2.931458e-06	-7.847813e-09	-1.969066e+01	-5.122898e+02
6.000000e-08	-2.925969e-06	-7.836247e-09	-1.965379e+01	-5.113774e+02
7.000000e-08	-2.919546e-06	-7.826479e-09	-1.961065e+01	-5.102926e+02
8.000000e-08	-2.912077e-06	-7.811035e-09	-1.956048e+01	-5.090913e+02
9.000000e-08	-2.903462e-06	-7.785875e-09	-1.950261e+01	-5.078185e+02
1.000000e-07	-2.893433e-06	-7.761625e-09	-1.943525e+01	-5.064884e+02
1.100000e-07	-2.881937e-06	-7.738558e-09	-1.935803e+01	-5.050763e+02
1.200000e-07	-2.869463e-06	-7.702101e-09	-1.927424e+01	-5.035242e+02
1.300000e-07	-2.856248e-06	-7.642090e-09	-1.918547e+01	-5.017606e+02
1.400000e-07	-2.842037e-06	-7.637117e-09	-1.909001e+01	-4.997273e+02
1.500000e-07	-2.826689e-06	-7.668535e-09	-1.898692e+01	-4.974033e+02
1.600000e-07	-2.810174e-06	-7.575439e-09	-1.887599e+01	-4.948175e+02
1.700000e-07	-2.792397e-06	-7.504120e-09	-1.875658e+01	-4.920436e+02
1.800000e-07	-2.773571e-06	-7.488664e-09	-1.863013e+01	-4.891804e+02
1.900000e-07	-2.754064e-06	-7.421897e-09	-1.849910e+01	-4.863210e+02
2.000000e-07	-2.733821e-06	-7.364599e-09	-1.836313e+01	-4.835239e+02
2.100000e-07	-2.712602e-06	-7.344378e-09	-1.822060e+01	-4.807939e+02
2.200000e-07	-2.690465e-06	-7.304284e-09	-1.807191e+01	-4.780809e+02
2.300000e-07	-2.667493e-06	-7.247245e-09	-1.791760e+01	-4.752949e+02
2.400000e-07	-2.643600e-06	-7.231608e-09	-1.775711e+01	-4.723344e+02
2.500000e-07	-2.618872e-06	-7.150658e-09	-1.759101e+01	-4.691164e+02
2.600000e-07	-2.593271e-06	-7.045038e-09	-1.741905e+01	-4.655989e+02
2.700000e-07	-2.566453e-06	-7.025618e-09	-1.723891e+01	-4.617896e+02
2.800000e-07	-2.538491e-06	-6.991291e-09	-1.705110e+01	-4.577377e+02
2.900000e-07	-2.509665e-06	-6.909865e-09	-1.685747e+01	-4.535142e+02
3.000000e-07	-2.479974e-06	-6.864554e-09	-1.665803e+01	-4.491873e+02
3.100000e-07	-2.449447e-06	-6.778637e-09	-1.645298e+01	-4.448022e+02
3.200000e-07	-2.418180e-06	-6.705474e-09	-1.624296e+01	-4.403719e+02
3.300000e-07	-2.386146e-06	-6.649988e-09	-1.602779e+01	-4.358794e+02
3.400000e-07	-2.353419e-06	-6.545354e-09	-1.580796e+01	-4.312917e+02
3.500000e-07	-2.320001e-06	-6.483594e-09	-1.558349e+01	-4.265756e+02
3.600000e-07	-2.285566e-06	-6.449828e-09	-1.535219e+01	-4.217123e+02
3.700000e-07	-2.249941e-06	-6.360232e-09	-1.511290e+01	-4.167029e+02
3.800000e-07	-2.213413e-06	-6.260550e-09	-1.486754e+01	-4.115660e+02
3.900000e-07	-2.176239e-06	-6.189683e-09	-1.461784e+01	-4.063268e+02
4.000000e-07	-2.138377e-06	-6.089381e-09	-1.436352e+01	-4.010064e+02
4.100000e-07	-2.099756e-06	-6.015800e-09	-1.410410e+01	-3.956119e+02
4.200000e-07	-2.060288e-06	-5.952595e-09	-1.383899e+01	-3.901355e+02
4.300000e-07	-2.020102e-06	-5.858900e-09	-1.356906e+01	-3.845585e+02
4.400000e-07	-1.979451e-06	-5.767057e-09	-1.329601e+01	-3.788609e+02
4.500000e-07	-1.938335e-06	-5.688071e-09	-1.301983e+01	-3.730306e+02
4.600000e-07	-1.896447e-06	-5.592742e-09	-1.273847e+01	-3.670692e+02
4.700000e-07	-1.853522e-06	-5.485724e-09	-1.245014e+01	-3.609909e+02
4.800000e-07	-1.809643e-06	-5.395346e-09	-1.215541e+01	-3.548166e+02
4.900000e-07	-1.765096e-06	-5.311841e-09	-1.185619e+01	-3.485652e+02
5.000000e-07	-1.720113e-06	-5.228505e-09	-1.155403e+01	-3.422457e+02
5.100000e-07	-1.674554e-06	-5.124223e-09	-1.124801e+01	-3.358540e+02
5.200000e-07	-1.628338e-06	-5.015957e-09	-1.093758e+01	-3.293752e+02
5.300000e-07	-1.581559e-06	-4.914836e-09	-1.062336e+01	-3.227908e+02
5.400000e-07	-1.534187e-06	-4.818070e-09	-1.030516e+01	-3.160873e+02
5.500000e-07	-1.486248e-06	-4.713116e-09	-9.983159e+00	-3.092626e+02
5.600000e-07	-1.437840e-06	-4.605717e-09	-9.657997e+00	-3.023275e+02
5.700000e-07	-1.389042e-06	-4.499070e-09	-9.330222e+00	-2.953028e+02
5.800000e-07	-1.339793e-06	-4.390265e-09	-8.999415e+00	-2.882110e+02
5.900000e-07	-1.289881e-06	-4.286954e-09	-8.664154e+00	-2.810683e+02
6.000000e-07	-1.239193e-06	-4.171901e-09	-8.323686e+00	-2.738790e+02
6.100000e-07	-1.187784e-06	-4.057513e-09	-7.978369e+00	-2.666340e+02
6.200000e-07	-1.135784e-06	-3.953925e-09	-7.629081e+00	-2.593148e+02
6.300000e-07	-1.083326e-06	-3.848521e-09	-7.276724e+00	-2.519017e+02
6.400000e-07	-1.030546e-06	-3.726725e-09	-6.922195e+00	-2.443809e+02
6.500000e-07	-9.774858e-07	-3.602195e-09	-6.565791e+00	-2.367507e+02
6.600000e-07	-9.240562e-07	-3.486128e-09	-6.206903e+00	-2.290224e+02
6.700000e-07	-8.701925e-07	-3.371206e-09	-5.845100e+00	-2.212167e+02
6.800000e-07	-8.159834e-07	-3.255987e-09	-5.480976e+00	-2.133572e+02
6.900000e-07	-7.615404e-07	-3.136305e-09	-5.115282e+00	-2.054626e+02
7.000000e-07	-7.068812e-07	-3.017174e-09	-4.748135e+00	-1.975418e+02
7.100000e-07	-6.520507e-07	-2.894276e-09	-4.379837e+00	-1.895918e+02
7.200000e-07	-5.970392e-07	-2.767626e-09	-4.010324e+00	-1.815997e+02
7.300000e-07	-5.417982e-07	-2.638308e-09	-3.639269e+00	-1.735475e+02
7.400000e-07	-4.863287e-07	-2.512049e-09	-3.266680e+00	-1.654175e+02
7.500000e-07	-4.306196e-07	-2.391265e-09	-2.892480e+00	-1.571972e+02
7.600000e-07	-3.747501e-07	-2.270275e-09	-2.517204e+00	-1.488813e+02
7.700000e-07	-3.187512e-07	-2.145332e-09	-2.141058e+00	-1.404717e+02
7.800000e-07	-2.626345e-07	-2.012846e-09	-1.764121e+00	-1.319757e+02
7.900000e-07	-2.064833e-07	-1.878889e-09	-1.386952e+00	-1.234028e+02
8.000000e-07	-1.502828e-07	-1.744135e-09	-1.009452e+00	-1.147625e+02
8.100000e-07	-9.399070e-08	-1.608087e-09	-6.313374e-01	-1.060625e+02
8.200000e-07	-3.767839e-08	-1.471113e-09	-2.530865e-01	-9.730795e+01
8.300000e-07	1.863643e-08	-1.338698e-09	1.251813e-01	-8.850145e+01
8.400000e-07	7.500983e-08	-1.209045e-09	5.038425e-01	-7.964328e+01
8.500000e-07	1.313763e-07	-1.076166e-09	8.824575e-01	-7.073158e+01
8.600000e-07	1.876951e-07	-9.380174e-10	1.260752e+00	-6.176270e+01
8.700000e-07	2.439280e-07	-7.967256e-10	1.638469e+00	-5.273169e+01
8.800000e-07	3.000071e-07	-6.568537e-10	2.015154e+00	-4.363318e+01
8.900000e-07	3.559982e-07	-5.145240e-10	2.391247e+00	-3.446233e+01
9.000000e-07	4.118965e-07	-3.711410e-10	2.766717e+00	-2.521590e+01
9.100000e-07	4.676108e-07	-2.275303e-10	3.140951e+00	-1.589260e+01
9.200000e-07	5.231449e-07	-8.487044e-11	3.513974e+00	-6.492783e+00
9.300000e-07	5.784628e-07	5.687182e-11	3.885546e+00	2.982679e+00
9.400000e-07	6.335422e-07	2.005940e-10	4.255515e+00	1.253374e+01
9.500000e-07	6.884266e-07	3.474192e-10	4.624175e+00	2.216220e+01
9.600000e-07	7.431073e-07	4.977678e-10	4.991466e+00	3.187178e+01
9.700000e-07	7.975467e-07	6.487129e-10	5.357137e+00	4.166704e+01
9.800000e-07	8.517752e-07	7.998057e-10	5.721390e+00	5.155146e+01
9.900000e-07	9.057036e-07	9.523797e-10	6.083628e+00	6.152558e+01
1.000000e-06	9.592474e-07	1.107807e-09	6.443283e+00	7.158583e+01
1.010000e-06	1.012438e-06	1.261231e-09	6.800568e+00	8.172493e+01
1.020000e-06	1.065279e-06	1.414322e-09	7.155499e+00	9.193363e+01
1.030000e-06	1.117746e-06	1.571798e-09	7.507919e+00	1.022031e+02
1.040000e-06	1.169719e-06	1.731177e-09	7.857027e+00	1.125272e+02
1.050000e-06	1.221053e-06	1.888373e-09	8.201834e+00	1.229032e+02
1.060000e-06	1.271722e-06	2.045397e-09	8.542183e+00	1.333305e+02
1.070000e-06	1.321736e-06	2.206992e-09	8.878125e+00	1.438089e+02
1.080000e-06	1.371051e-06	2.369536e-09	9.209374e+00	1.543354e+02
1.090000e-06	1.419833e-06	2.531813e-09	9.537048e+00	1.649021e+02
1.100000e-06	1.468254e-06	2.692940e-09	9.862292e+00	1.754972e+02
1.110000e-06	1.516172e-06	2.853749e-09	1.018415e+01	1.861064e+02
1.120000e-06	1.563559e-06	3.013663e-09	1.050246e+01	1.967161e+02
1.130000e-06	1.610481e-06	3.173317e-09	1.081763e+01	2.073171e+02
1.140000e-06	1.656845e-06	3.333251e-09	1.112906e+01	2.179050e+02
1.150000e-06	1.702607e-06	3.493516e-09	1.143644e+01	2.284789e+02
1.160000e-06	1.747827e-06	3.657543e-09	1.174019e+01	2.390376e+02
1.170000e-06	1.792596e-06	3.822994e-09	1.204090e+01	2.495749e+02
1.180000e-06	1.836943e-06	3.985973e-09	1.233878e+01	2.600762e+02
1.190000e-06	1.880676e-06	4.145204e-09	1.263254e+01	2.705180e+02
1.200000e-06	1.923395e-06	4.303041e-09	1.291948e+01	2.808710e+02
1.210000e-06	1.965085e-06	4.458061e-09	1.319951e+01	2.911060e+02
1.220000e-06	2.006042e-06	4.608838e-09	1.347462e+01	3.012002e+02
1.230000e-06	2.046404e-06	4.757332e-09	1.374574e+01	3.111408e+02
1.240000e-06	2.086205e-06	4.906620e-09	1.401308e+01	3.209257e+02
1.250000e-06	2.125346e-06	5.056925e-09	1.427599e+01	3.305580e+02
1.260000e-06	2.163698e-06	5.205967e-09	1.453360e+01	3.400392e+02
1.270000e-06	2.201299e-06	5.350061e-09	1.478617e+01	3.493608e+02
1.280000e-06	2.238275e-06	5.487332e-09	1.503453e+01	3.585002e+02
1.290000e-06	2.274690e-06	5.621335e-09	1.527913e+01	3.674216e+02
1.300000e-06	2.310298e-06	5.750916e-09	1.551831e+01	3.760828e+02
1.310000e-06	2.344764e-06	5.872994e-09	1.574983e+01	3.844452e+02
1.320000e-06	2.378200e-06	5.989618e-09	1.597442e+01	3.924837e+02
1.330000e-06	2.410855e-06	6.107669e-09	1.619376e+01	4.001933e+02
1.340000e-06	2.442729e-06	6.225784e-09	1.640786e+01	4.075880e+02
1.350000e-06	2.473795e-06	6.336177e-09	1.661653e+01	4.146942e+02
1.360000e-06	2.504034e-06	6.437386e-09	1.681964e+01	4.215393e+02
1.370000e-06	2.533469e-06	6.533173e-09	1.701736e+01	4.281411e+02
1.380000e-06	2.562207e-06	6.627698e-09	1.721040e+01	4.345019e+02
1.390000e-06	2.590093e-06	6.719503e-09	1.739771e+01	4.406085e+02
1.400000e-06	2.616841e-06	6.806850e-09	1.757737e+01	4.464405e+02
1.410000e-06	2.642447e-06	6.890043e-09	1.774937e+01	4.519808e+02
1.420000e-06	2.667040e-06	6.969916e-09	1.791456e+01	4.572264e+02
1.430000e-06	2.690692e-06	7.046777e-09	1.807343e+01	4.621928e+02
1.440000e-06	2.713436e-06	7.119024e-09	1.822620e+01	4.669110e+02
1.450000e-06	2.735300e-06	7.184700e-09	1.837306e+01	4.714173e+02
1.460000e-06	2.756319e-06	7.247156e-09	1.851425e+01	4.757404e+02
1.470000e-06	2.776506e-06	7.310255e-09	1.864985e+01	4.798898e+02
1.480000e-06	2.795798e-06	7.371357e-09	1.877943e+01	4.838516e+02
1.490000e-06	2.814097e-06	7.427254e-09	1.890234e+01	4.875931e+02
1.500000e-06	2.831354e-06	7.476517e-09	1.901826e+01	4.910744e+02
1.510000e-06	2.847528e-06	7.522016e-09	1.912690e+01	4.942641e+02
1.520000e-06	2.862599e-06	7.565771e-09	1.922813e+01	4.971517e+02
1.530000e-06	2.876593e-06	7.604546e-09	1.932213e+01	4.997524e+02
1.540000e-06	2.889576e-06	7.636943e-09	1.940934e+01	5.021023e+02
1.550000e-06	2.901363e-06	7.665290e-09	1.948851e+01	5.042463e+02
1.560000e-06	2.911822e-06	7.694078e-09	1.955877e+01	5.062217e+02
1.570000e-06	2.921072e-06	7.723427e-09	1.962090e+01	5.080464e+02
1.580000e-06	2.929319e-06	7.750759e-09	1.967629e+01	5.097148e+02
1.590000e-06	2.936670e-06	7.774340e-09	1.972567e+01	5.112029e+02
1.600000e-06	2.942989e-06	7.792987e-09	1.976812e+01	5.124815e+02
1.610000e-06	2.948378e-06	7.806187e-09	1.980431e+01	5.135314e+02
1.620000e-06	2.952915e-06	7.815594e-09	1.983479e+01	5.143541e+02
1.630000e-06	2.956325e-06	7.822069e-09	1.985769e+01	5.149736e+02
1.640000e-06	2.958411e-06	7.827885e-09	1.987170e+01	5.154280e+02
1.650000e-06	2.959381e-06	7.835820e-09	1.987822e+01	5.157548e+02
1.660000e-06	2.959423e-06	7.844289e-09	1.987850e+01	5.159754e+02
1.670000e-06	2.958533e-06	7.848870e-09	1.987253e+01	5.160854e+02
1.680000e-06	2.956699e-06	7.845997e-09	1.986021e+01	5.160555e+02
1.690000e-06	2.954008e-06	7.836993e-09	1.984213e+01	5.158432e+02
1.700000e-06	2.950568e-06	7.825122e-09	1.981902e+01	5.154106e+02
1.710000e-06	2.946173e-06	7.812311e-09	1.978950e+01	5.147418e+02
1.720000e-06	2.940594e-06	7.798565e-09	1.975203e+01	5.138518e+02
1.730000e-06	2.933931e-06	7.782193e-09	1.970727e+01	5.127836e+02
1.740000e-06	2.926393e-06	7.769112e-09	1.965664e+01	5.115931e+02
1.750000e-06	2.917747e-06	7.748698e-09	1.959856e+01	5.103274e+02
1.760000e-06	2.907432e-06	7.714268e-09	1.952927e+01	5.090047e+02
1.770000e-06	2.895558e-06	7.691919e-09	1.944952e+01	5.076045e+02
1.780000e-06	2.883177e-06	7.719956e-09	1.936635e+01	5.060716e+02
1.790000e-06	2.870618e-06	7.689677e-09	1.928200e+01	5.043347e+02
1.800000e-06	2.856807e-06	7.610421e-09	1.918923e+01	5.023329e+02
1.810000e-06	2.841317e-06	7.580101e-09	1.908518e+01	5.000404e+02
1.820000e-06	2.825005e-06	7.587798e-09	1.897561e+01	4.974805e+02
1.830000e-06	2.808093e-06	7.523867e-09	1.886202e+01	4.947231e+02
1.840000e-06	2.790021e-06	7.442463e-09	1.874063e+01	4.918655e+02
1.850000e-06	2.770971e-06	7.471261e-09	1.861267e+01	4.890028e+02
1.860000e-06	2.751197e-06	7.422025e-09	1.847985e+01	4.861986e+02
1.870000e-06	2.730146e-06	7.331283e-09	1.833844e+01	4.834638e+02
1.880000e-06	2.707697e-06	7.344704e-09	1.818765e+01	4.807535e+02
1.890000e-06	2.684333e-06	7.278331e-09	1.803071e+01	4.779810e+02
1.900000e-06	2.660052e-06	7.204285e-09	1.786762e+01	4.750446e+02
1.910000e-06	2.634910e-06	7.253459e-09	1.769874e+01	4.718578e+02
1.920000e-06	2.609099e-06	7.185232e-09	1.752537e+01	4.683737e+02
1.930000e-06	2.582447e-06	7.064142e-09	1.734635e+01	4.645947e+02
1.940000e-06	2.554982e-06	7.037248e-09	1.716186e+01	4.605664e+02
1.950000e-06	2.526591e-06	6.965192e-09	1.697116e+01	4.563585e+02
1.960000e-06	2.496908e-06	6.871104e-09	1.677178e+01	4.520408e+02
1.970000e-06	2.466112e-06	6.850201e-09	1.656492e+01	4.476616e+02
1.980000e-06	2.434523e-06	6.761716e-09	1.635274e+01	4.432373e+02
1.990000e-06	2.402121e-06	6.687700e-09	1.613509e+01	4.387537e+02
2.000000e-06	2.368953e-06	6.671813e-09	1.591230e+01	4.341787e+02
2.010000e-06	2.335014e-06	6.543076e-09	1.568433e+01	4.294784e+02
2.020000e-06	2.300310e-06	6.447171e-09	1.545123e+01	4.246320e+02
2.030000e-06	2.264988e-06	6.411344e-09	1.521397e+01	4.196384e+02
2.040000e-06	2.228806e-06	6.311051e-09	1.497093e+01	4.145148e+02
2.050000e-06	2.191387e-06	6.252609e-09	1.471959e+01	4.092862e+02
2.060000e-06	2.152953e-06	6.192899e-09	1.446143e+01	4.039746e+02
2.070000e-06	2.113914e-06	6.067690e-09	1.419920e+01	3.985890e+02
2.080000e-06	2.074303e-06	5.991409e-09	1.393313e+01	3.931230e+02
2.090000e-06	2.033974e-06	5.918166e-09	1.366224e+01	3.875585e+02
2.100000e-06	1.992946e-06	5.815079e-09	1.338665e+01	3.818754e+02
2.110000e-06	1.951296e-06	5.733711e-09	1.310689e+01	3.760604e+02
2.120000e-06	1.908989e-06	5.650214e-09	1.282271e+01	3.701133e+02
2.130000e-06	1.866096e-06	5.567403e-09	1.253461e+01	3.640474e+02
2.140000e-06	1.822716e-06	5.467053e-09	1.224322e+01	3.578832e+02
2.150000e-06	1.778729e-06	5.351648e-09	1.194775e+01	3.516402e+02
2.160000e-06	1.733981e-06	5.258285e-09	1.164718e+01	3.453288e+02
2.170000e-06	1.688525e-06	5.171903e-09	1.134185e+01	3.389461e+02
2.180000e-06	1.642590e-06	5.083302e-09	1.103331e+01	3.324784e+02
2.190000e-06	1.596197e-06	4.976529e-09	1.072169e+01	3.259069e+02
2.200000e-06	1.549209e-06	4.862321e-09	1.040607e+01	3.192173e+02
2.210000e-06	1.501659e-06	4.760919e-09	1.008667e+01	3.124060e+02
2.220000e-06	1.453452e-06	4.660550e-09	9.762863e+00	3.054827e+02
2.230000e-06	1.404586e-06	4.556592e-09	9.434632e+00	2.984673e+02
2.240000e-06	1.355243e-06	4.448151e-09	9.103194e+00	2.913825e+02
2.250000e-06	1.305463e-06	4.336341e-09	8.768817e+00	2.842457e+02
2.260000e-06	1.255180e-06	4.236334e-09	8.431071e+00	2.770624e+02
2.270000e-06	1.204403e-06	4.120965e-09	8.090000e+00	2.698249e+02
2.280000e-06	1.153238e-06	3.992342e-09	7.746321e+00	2.625155e+02
2.290000e-06	1.101674e-06	3.880398e-09	7.399965e+00	2.551140e+02
2.300000e-06	1.049560e-06	3.775144e-09	7.049917e+00	2.476059e+02
2.310000e-06	9.968252e-07	3.670292e-09	6.695694e+00	2.399879e+02
2.320000e-06	9.435150e-07	3.550751e-09	6.337608e+00	2.322700e+02
2.330000e-06	8.896364e-07	3.424224e-09	5.975705e+00	2.244723e+02
2.340000e-06	8.353053e-07	3.301110e-09	5.610762e+00	2.166183e+02
2.350000e-06	7.806798e-07	3.176737e-09	5.243841e+00	2.087276e+02
2.360000e-06	7.257848e-07	3.055724e-09	4.875110e+00	2.008104e+02
2.370000e-06	6.706999e-07	2.937966e-09	4.505104e+00	1.928649e+02
2.380000e-06	6.155245e-07	2.822137e-09	4.134490e+00	1.848789e+02
2.390000e-06	5.602375e-07	2.704424e-09	3.763126e+00	1.768348e+02
2.400000e-06	5.047990e-07	2.580259e-09	3.390745e+00	1.687146e+02
2.410000e-06	4.492792e-07	2.452034e-09	3.017817e+00	1.605052e+02
2.420000e-06	3.936307e-07	2.321882e-09	2.644025e+00	1.522003e+02
2.430000e-06	3.378078e-07	2.192615e-09	2.269061e+00	1.438013e+02
2.440000e-06	2.818827e-07	2.066858e-09	1.893411e+00	1.353150e+02
2.450000e-06	2.258235e-07	1.938854e-09	1.516861e+00	1.267507e+02
2.460000e-06	1.696084e-07	1.808133e-09	1.139263e+00	1.181180e+02
2.470000e-06	1.133141e-07	1.676427e-09	7.611327e-01	1.094249e+02
2.480000e-06	5.701726e-08	1.542896e-09	3.829860e-01	1.006768e+02
2.490000e-06	6.919778e-10	1.407432e-09	4.648028e-03	9.187659e+01
2.500000e-06	-5.564413e-08	1.270427e-09	-3.737627e-01	8.302481e+01
2.510000e-06	-1.118320e-07	1.136154e-09	-7.511776e-01	7.411979e+01
2.520000e-06	-1.679284e-07	1.001456e-09	-1.127978e+00	6.515805e+01
2.530000e-06	-2.240059e-07	8.636801e-10	-1.504652e+00	5.613477e+01
2.540000e-06	-2.800248e-07	7.246115e-10	-1.880932e+00	4.704453e+01
2.550000e-06	-3.359575e-07	5.874145e-10	-2.256633e+00	3.788243e+01
2.560000e-06	-3.916881e-07	4.503376e-10	-2.630977e+00	2.864500e+01
2.570000e-06	-4.472267e-07	3.088148e-10	-3.004030e+00	1.933074e+01
2.580000e-06	-5.026350e-07	1.642456e-10	-3.376209e+00	9.939874e+00
2.590000e-06	-5.579465e-07	1.840903e-11	-3.747738e+00	4.732904e-01
2.600000e-06	-6.131640e-07	-1.274286e-10	-4.118635e+00	-9.068818e+00
2.610000e-06	-6.682605e-07	-2.736620e-10	-4.488719e+00	-1.868803e+01
2.620000e-06	-7.232157e-07	-4.207279e-10	-4.857854e+00	-2.838791e+01
2.630000e-06	-7.780181e-07	-5.686401e-10	-5.225963e+00	-3.817298e+01
2.640000e-06	-8.325754e-07	-7.158841e-10	-5.592425e+00	-4.804696e+01
2.650000e-06	-8.867111e-07	-8.651168e-10	-5.956056e+00	-5.801076e+01
2.660000e-06	-9.403761e-07	-1.020639e-09	-6.316524e+00	-6.806127e+01
2.670000e-06	-9.934126e-07	-1.179211e-09	-6.672771e+00	-7.819155e+01
2.680000e-06	-1.045795e-06	-1.334730e-09	-7.024625e+00	-8.839244e+01
2.690000e-06	-1.097663e-06	-1.488906e-09	-7.373024e+00	-9.865498e+01
2.700000e-06	-1.149082e-06	-1.645658e-09	-7.718406e+00	-1.089726e+02
2.710000e-06	-1.200173e-06	-1.803120e-09	-8.061585e+00	-1.193422e+02
2.720000e-06	-1.250919e-06	-1.960889e-09	-8.402449e+00	-1.297633e+02
2.730000e-06	-1.301187e-06	-2.120333e-09	-8.740100e+00	-1.402355e+02
2.740000e-06	-1.350911e-06	-2.281740e-09	-9.074099e+00	-1.507563e+02
2.750000e-06	-1.400114e-06	-2.443136e-09	-9.404593e+00	-1.613184e+02
2.760000e-06	-1.448733e-06	-2.604166e-09	-9.731170e+00	-1.719104e+02
2.770000e-06	-1.496652e-06	-2.766108e-09	-1.005304e+01	-1.825179e+02
2.780000e-06	-1.543714e-06	-2.929236e-09	-1.036916e+01	-1.931273e+02
2.790000e-06	-1.590001e-06	-3.091696e-09	-1.068007e+01	-2.037287e+02
2.800000e-06	-1.635723e-06	-3.252582e-09	-1.098718e+01	-2.143173e+02
2.810000e-06	-1.680990e-06	-3.413070e-09	-1.129124e+01	-2.248919e+02
2.820000e-06	-1.725869e-06	-3.573629e-09	-1.159270e+01	-2.354516e+02
2.830000e-06	-1.770191e-06	-3.733924e-09	-1.189040e+01	-2.459909e+02
2.840000e-06	-1.813899e-06	-3.892219e-09	-1.218400e+01	-2.564962e+02
2.850000e-06	-1.857147e-06	-4.050467e-09	-1.247449e+01	-2.669449e+02
2.860000e-06	-1.899926e-06	-4.209770e-09	-1.276184e+01	-2.773081e+02
2.870000e-06	-1.942117e-06	-4.366840e-09	-1.304524e+01	-2.875563e+02
2.880000e-06	-1.983651e-06	-4.520488e-09	-1.332423e+01	-2.976655e+02
2.890000e-06	-2.024516e-06	-4.670592e-09	-1.359871e+01	-3.076220e+02
2.900000e-06	-2.064675e-06	-4.818371e-09	-1.386846e+01	-3.174227e+02
2.910000e-06	-2.104161e-06	-4.966291e-09	-1.413369e+01	-3.270704e+02
2.920000e-06	-2.143055e-06	-5.113977e-09	-1.439494e+01	-3.365671e+02
2.930000e-06	-2.181216e-06	-5.257466e-09	-1.465127e+01	-3.459058e+02
2.940000e-06	-2.218365e-06	-5.396646e-09	-1.490080e+01	-3.550655e+02
