# Temperatura_=_26.16
# Concentracion g/m^3_=_18700.0
# C_Vs_to_Am_M_A/Vsm_=_65563218390.804596
# pendiente_HvsI_1/m_=_3716.3
# ordenada_HvsI_A/m_=_1297.0
# frecuencia_Hz_=_301056.5645009704

Tiempo_(s)	Campo_(V.s)	Magnetizacion_(V.s)	Campo_(kA/m)	Magnetizacion_(A/m)
0.000000e+00	-2.944227e-06	-7.864388e-09	-1.978215e+01	-5.126148e+02
1.000000e-08	-2.943464e-06	-7.870770e-09	-1.977702e+01	-5.126944e+02
2.000000e-08	-2.941817e-06	-7.871272e-09	-1.976596e+01	-5.126171e+02
3.000000e-08	-2.938851e-06	-7.866222e-09	-1.974603e+01	-5.123425e+02
4.000000e-08	-2.934677e-06	-7.860761e-09	-1.971799e+01	-5.118411e+02
5.000000e-08	-2.929765e-06	-7.851919e-09	-1.968498e+01	-5.111075e+02
6.000000e-08	-2.924004e-06	-7.837011e-09	-1.964628e+01	-5.101655e+02
7.000000e-08	-2.917234e-06	-7.815295e-09	-1.960078e+01	-5.090615e+02
8.000000e-08	-2.909477e-06	-7.799909e-09	-1.954867e+01	-5.078484e+02
9.000000e-08	-2.900545e-06	-7.821020e-09	-1.948865e+01	-5.065656e+02
1.000000e-07	-2.890039e-06	-7.814082e-09	-1.941806e+01	-5.052218e+02
1.100000e-07	-2.878101e-06	-7.714716e-09	-1.933785e+01	-5.037887e+02
1.200000e-07	-2.865424e-06	-7.616514e-09	-1.925267e+01	-5.022073e+02
1.300000e-07	-2.851982e-06	-7.662760e-09	-1.916236e+01	-5.004071e+02
1.400000e-07	-2.837478e-06	-7.765955e-09	-1.906491e+01	-4.983306e+02
1.500000e-07	-2.821792e-06	-7.566886e-09	-1.895952e+01	-4.959557e+02
1.600000e-07	-2.804920e-06	-7.500184e-09	-1.884615e+01	-4.933072e+02
1.700000e-07	-2.786889e-06	-7.602842e-09	-1.872501e+01	-4.904534e+02
1.800000e-07	-2.767881e-06	-7.442357e-09	-1.859729e+01	-4.874878e+02
1.900000e-07	-2.748160e-06	-7.329208e-09	-1.846478e+01	-4.845021e+02
2.000000e-07	-2.727595e-06	-7.404402e-09	-1.832661e+01	-4.815586e+02
2.100000e-07	-2.706021e-06	-7.333653e-09	-1.818165e+01	-4.786716e+02
2.200000e-07	-2.683622e-06	-7.172828e-09	-1.803116e+01	-4.758035e+02
2.300000e-07	-2.660424e-06	-7.262276e-09	-1.787529e+01	-4.728772e+02
2.400000e-07	-2.636278e-06	-7.253291e-09	-1.771305e+01	-4.697996e+02
2.500000e-07	-2.611322e-06	-7.056703e-09	-1.754538e+01	-4.664889e+02
2.600000e-07	-2.585385e-06	-7.018247e-09	-1.737110e+01	-4.628979e+02
2.700000e-07	-2.558106e-06	-7.039674e-09	-1.718782e+01	-4.590237e+02
2.800000e-07	-2.529792e-06	-6.931096e-09	-1.699758e+01	-4.549047e+02
2.900000e-07	-2.500726e-06	-6.880974e-09	-1.680228e+01	-4.506047e+02
3.000000e-07	-2.470755e-06	-6.791050e-09	-1.660091e+01	-4.461916e+02
3.100000e-07	-2.439992e-06	-6.731948e-09	-1.639421e+01	-4.417171e+02
3.200000e-07	-2.408476e-06	-6.706602e-09	-1.618246e+01	-4.372047e+02
3.300000e-07	-2.376173e-06	-6.565289e-09	-1.596542e+01	-4.326485e+02
3.400000e-07	-2.343260e-06	-6.502317e-09	-1.574428e+01	-4.280217e+02
3.500000e-07	-2.309606e-06	-6.475021e-09	-1.551816e+01	-4.232902e+02
3.600000e-07	-2.274800e-06	-6.375066e-09	-1.528429e+01	-4.184271e+02
3.700000e-07	-2.238830e-06	-6.301819e-09	-1.504261e+01	-4.134210e+02
3.800000e-07	-2.202108e-06	-6.250173e-09	-1.479588e+01	-4.082779e+02
3.900000e-07	-2.164770e-06	-6.094020e-09	-1.454501e+01	-4.030155e+02
4.000000e-07	-2.126689e-06	-6.031139e-09	-1.428914e+01	-3.976539e+02
4.100000e-07	-2.087828e-06	-6.001821e-09	-1.402804e+01	-3.922070e+02
4.200000e-07	-2.048173e-06	-5.887177e-09	-1.376160e+01	-3.866776e+02
4.300000e-07	-2.007860e-06	-5.790900e-09	-1.349074e+01	-3.810569e+02
4.400000e-07	-1.967107e-06	-5.721681e-09	-1.321692e+01	-3.753307e+02
4.500000e-07	-1.925817e-06	-5.634170e-09	-1.293949e+01	-3.694855e+02
4.600000e-07	-1.883602e-06	-5.527398e-09	-1.265585e+01	-3.635148e+02
4.700000e-07	-1.840297e-06	-5.429612e-09	-1.236489e+01	-3.574221e+02
4.800000e-07	-1.796156e-06	-5.326265e-09	-1.206830e+01	-3.512185e+02
4.900000e-07	-1.751526e-06	-5.252921e-09	-1.176844e+01	-3.449183e+02
5.000000e-07	-1.706432e-06	-5.161731e-09	-1.146545e+01	-3.385332e+02
5.100000e-07	-1.660640e-06	-5.055592e-09	-1.115778e+01	-3.320680e+02
5.200000e-07	-1.614229e-06	-4.945526e-09	-1.084594e+01	-3.255198e+02
5.300000e-07	-1.567338e-06	-4.847322e-09	-1.053089e+01	-3.188806e+02
5.400000e-07	-1.519867e-06	-4.753671e-09	-1.021193e+01	-3.121420e+02
5.500000e-07	-1.471786e-06	-4.647473e-09	-9.888874e+00	-3.053002e+02
5.600000e-07	-1.423271e-06	-4.533439e-09	-9.562902e+00	-2.983589e+02
5.700000e-07	-1.374397e-06	-4.412178e-09	-9.234525e+00	-2.913286e+02
5.800000e-07	-1.325018e-06	-4.319324e-09	-8.902749e+00	-2.842240e+02
5.900000e-07	-1.274914e-06	-4.210946e-09	-8.566100e+00	-2.770585e+02
6.000000e-07	-1.223981e-06	-4.090325e-09	-8.223880e+00	-2.698394e+02
6.100000e-07	-1.172307e-06	-3.978850e-09	-7.876689e+00	-2.625662e+02
6.200000e-07	-1.120114e-06	-3.879956e-09	-7.526006e+00	-2.552305e+02
6.300000e-07	-1.067585e-06	-3.770513e-09	-7.173065e+00	-2.478196e+02
6.400000e-07	-1.014742e-06	-3.642696e-09	-6.818015e+00	-2.403214e+02
6.500000e-07	-9.615512e-07	-3.516837e-09	-6.460626e+00	-2.327289e+02
6.600000e-07	-9.079471e-07	-3.398468e-09	-6.100463e+00	-2.250427e+02
6.700000e-07	-8.539786e-07	-3.292491e-09	-5.737850e+00	-2.172711e+02
6.800000e-07	-7.997499e-07	-3.176466e-09	-5.373490e+00	-2.094274e+02
6.900000e-07	-7.452927e-07	-3.054981e-09	-5.007594e+00	-2.015258e+02
7.000000e-07	-6.906550e-07	-2.931093e-09	-4.640485e+00	-1.935772e+02
7.100000e-07	-6.358677e-07	-2.811816e-09	-4.272371e+00	-1.855865e+02
7.200000e-07	-5.808911e-07	-2.685119e-09	-3.902985e+00	-1.775516e+02
7.300000e-07	-5.256395e-07	-2.550050e-09	-3.531752e+00	-1.694645e+02
7.400000e-07	-4.701098e-07	-2.422539e-09	-3.158650e+00	-1.613140e+02
7.500000e-07	-4.143113e-07	-2.303552e-09	-2.783742e+00	-1.530885e+02
7.600000e-07	-3.583121e-07	-2.189442e-09	-2.407485e+00	-1.447790e+02
7.700000e-07	-3.021852e-07	-2.061230e-09	-2.030371e+00	-1.363803e+02
7.800000e-07	-2.459679e-07	-1.926353e-09	-1.652649e+00	-1.278921e+02
7.900000e-07	-1.897324e-07	-1.792333e-09	-1.274805e+00	-1.193184e+02
8.000000e-07	-1.334329e-07	-1.660759e-09	-8.965308e-01	-1.106663e+02
8.100000e-07	-7.708494e-08	-1.523685e-09	-5.179308e-01	-1.019449e+02
8.200000e-07	-2.073681e-08	-1.384000e-09	-1.393298e-01	-9.316360e+01
8.300000e-07	3.562361e-08	-1.251595e-09	2.393537e-01	-8.433072e+01
8.400000e-07	9.198623e-08	-1.124794e-09	6.180520e-01	-7.545237e+01
8.500000e-07	1.482881e-07	-9.958999e-10	9.963424e-01	-6.653144e+01
8.600000e-07	2.045317e-07	-8.549724e-10	1.374241e+00	-5.756705e+01
8.700000e-07	2.607749e-07	-7.115439e-10	1.752136e+00	-4.855460e+01
8.800000e-07	3.168878e-07	-5.700597e-10	2.129157e+00	-3.948643e+01
8.900000e-07	3.728576e-07	-4.312844e-10	2.505217e+00	-3.035310e+01
9.000000e-07	4.287413e-07	-2.881781e-10	2.880697e+00	-2.114486e+01
9.100000e-07	4.844027e-07	-1.434066e-10	3.254683e+00	-1.185322e+01
9.200000e-07	5.398194e-07	-2.235575e-12	3.627026e+00	-2.472139e+00
9.300000e-07	5.950771e-07	1.362559e-10	3.998301e+00	7.001291e+00
9.400000e-07	6.501444e-07	2.764427e-10	4.368296e+00	1.656684e+01
9.500000e-07	7.049752e-07	4.260843e-10	4.736702e+00	2.622158e+01
9.600000e-07	7.596260e-07	5.783256e-10	5.103899e+00	3.596072e+01
9.700000e-07	8.140750e-07	7.304837e-10	5.469740e+00	4.577858e+01
9.800000e-07	8.681903e-07	8.798775e-10	5.833338e+00	5.566956e+01
9.900000e-07	9.219415e-07	1.033313e-09	6.194490e+00	6.562905e+01
1.000000e-06	9.752977e-07	1.188436e-09	6.552989e+00	7.565409e+01
1.010000e-06	1.028294e-06	1.340029e-09	6.909071e+00	8.574381e+01
1.020000e-06	1.080971e-06	1.491322e-09	7.263001e+00	9.589921e+01
1.030000e-06	1.133243e-06	1.645795e-09	7.614218e+00	1.061225e+02
1.040000e-06	1.185062e-06	1.805999e-09	7.962387e+00	1.164155e+02
1.050000e-06	1.236268e-06	1.964930e-09	8.306436e+00	1.267780e+02
1.060000e-06	1.286667e-06	2.124213e-09	8.645066e+00	1.372064e+02
1.070000e-06	1.336265e-06	2.283723e-09	8.978316e+00	1.476920e+02
1.080000e-06	1.385285e-06	2.445260e-09	9.307680e+00	1.582219e+02
1.090000e-06	1.433954e-06	2.607520e-09	9.634685e+00	1.687807e+02
1.100000e-06	1.482272e-06	2.767627e-09	9.959327e+00	1.793529e+02
1.110000e-06	1.530077e-06	2.926508e-09	1.028053e+01	1.899260e+02
1.120000e-06	1.577343e-06	3.085926e-09	1.059811e+01	2.004924e+02
1.130000e-06	1.624110e-06	3.248513e-09	1.091233e+01	2.110499e+02
1.140000e-06	1.670316e-06	3.408992e-09	1.122279e+01	2.215995e+02
1.150000e-06	1.715860e-06	3.568646e-09	1.152880e+01	2.321414e+02
1.160000e-06	1.760818e-06	3.729750e-09	1.183087e+01	2.426716e+02
1.170000e-06	1.805409e-06	3.892913e-09	1.213047e+01	2.531776e+02
1.180000e-06	1.849608e-06	4.054415e-09	1.242745e+01	2.636387e+02
1.190000e-06	1.893105e-06	4.212029e-09	1.271970e+01	2.740274e+02
1.200000e-06	1.935588e-06	4.367789e-09	1.300514e+01	2.843147e+02
1.210000e-06	1.977052e-06	4.522464e-09	1.328374e+01	2.944751e+02
1.220000e-06	2.017808e-06	4.675440e-09	1.355757e+01	3.044910e+02
1.230000e-06	2.058052e-06	4.824958e-09	1.382797e+01	3.143541e+02
1.240000e-06	2.097621e-06	4.972405e-09	1.409384e+01	3.240630e+02
1.250000e-06	2.136458e-06	5.118905e-09	1.435478e+01	3.336178e+02
1.260000e-06	2.174606e-06	5.264290e-09	1.461109e+01	3.430134e+02
1.270000e-06	2.211963e-06	5.403641e-09	1.486210e+01	3.522348e+02
1.280000e-06	2.248694e-06	5.538787e-09	1.510889e+01	3.612557e+02
1.290000e-06	2.284874e-06	5.670981e-09	1.535198e+01	3.700416e+02
1.300000e-06	2.320163e-06	5.800584e-09	1.558909e+01	3.785564e+02
1.310000e-06	2.354276e-06	5.923706e-09	1.581829e+01	3.867713e+02
1.320000e-06	2.387374e-06	6.038989e-09	1.604068e+01	3.946704e+02
1.330000e-06	2.419767e-06	6.151942e-09	1.625832e+01	4.022540e+02
1.340000e-06	2.451387e-06	6.262635e-09	1.647077e+01	4.095355e+02
1.350000e-06	2.482190e-06	6.369016e-09	1.667774e+01	4.165345e+02
1.360000e-06	2.512160e-06	6.468662e-09	1.687911e+01	4.232690e+02
1.370000e-06	2.541290e-06	6.566212e-09	1.707483e+01	4.297480e+02
1.380000e-06	2.569773e-06	6.661731e-09	1.726621e+01	4.359699e+02
1.390000e-06	2.597396e-06	6.752236e-09	1.745180e+01	4.419248e+02
1.400000e-06	2.623751e-06	6.836545e-09	1.762889e+01	4.476016e+02
1.410000e-06	2.648943e-06	6.914672e-09	1.779815e+01	4.529964e+02
1.420000e-06	2.673252e-06	6.988639e-09	1.796148e+01	4.581175e+02
1.430000e-06	2.696669e-06	7.059677e-09	1.811881e+01	4.629863e+02
1.440000e-06	2.719168e-06	7.129424e-09	1.826999e+01	4.676316e+02
1.450000e-06	2.740782e-06	7.197119e-09	1.841521e+01	4.720805e+02
1.460000e-06	2.761604e-06	7.263642e-09	1.855512e+01	4.763486e+02
1.470000e-06	2.781607e-06	7.328814e-09	1.868952e+01	4.804332e+02
1.480000e-06	2.800594e-06	7.388168e-09	1.881708e+01	4.843137e+02
1.490000e-06	2.818514e-06	7.439004e-09	1.893749e+01	4.879578e+02
1.500000e-06	2.835461e-06	7.484026e-09	1.905136e+01	4.913333e+02
1.510000e-06	2.851317e-06	7.526346e-09	1.915789e+01	4.944195e+02
1.520000e-06	2.866006e-06	7.566921e-09	1.925659e+01	4.972155e+02
1.530000e-06	2.879702e-06	7.605912e-09	1.934861e+01	4.997410e+02
1.540000e-06	2.892372e-06	7.640934e-09	1.943374e+01	5.020297e+02
1.550000e-06	2.903814e-06	7.672403e-09	1.951062e+01	5.041178e+02
1.560000e-06	2.913834e-06	7.701329e-09	1.957794e+01	5.060323e+02
1.570000e-06	2.922711e-06	7.726650e-09	1.963759e+01	5.077829e+02
1.580000e-06	2.930698e-06	7.748323e-09	1.969125e+01	5.093613e+02
1.590000e-06	2.937688e-06	7.767159e-09	1.973822e+01	5.107485e+02
1.600000e-06	2.943664e-06	7.782926e-09	1.977837e+01	5.119260e+02
1.610000e-06	2.948717e-06	7.795704e-09	1.981232e+01	5.128869e+02
1.620000e-06	2.952965e-06	7.806603e-09	1.984086e+01	5.136426e+02
1.630000e-06	2.956099e-06	7.816104e-09	1.986192e+01	5.142201e+02
1.640000e-06	2.957845e-06	7.823977e-09	1.987365e+01	5.146539e+02
1.650000e-06	2.958567e-06	7.830138e-09	1.987850e+01	5.149714e+02
1.660000e-06	2.958437e-06	7.834481e-09	1.987763e+01	5.151823e+02
1.670000e-06	2.957333e-06	7.833742e-09	1.987021e+01	5.152725e+02
1.680000e-06	2.955284e-06	7.829059e-09	1.985644e+01	5.152085e+02
1.690000e-06	2.952369e-06	7.821226e-09	1.983685e+01	5.149501e+02
1.700000e-06	2.948667e-06	7.810182e-09	1.981198e+01	5.144662e+02
1.710000e-06	2.943949e-06	7.799903e-09	1.978028e+01	5.137496e+02
1.720000e-06	2.937936e-06	7.789592e-09	1.973988e+01	5.128219e+02
1.730000e-06	2.930899e-06	7.789991e-09	1.969260e+01	5.117285e+02
1.740000e-06	2.923088e-06	7.749516e-09	1.964012e+01	5.105224e+02
1.750000e-06	2.914081e-06	7.686748e-09	1.957960e+01	5.092446e+02
1.760000e-06	2.903348e-06	7.656996e-09	1.950748e+01	5.079066e+02
1.770000e-06	2.891137e-06	7.770765e-09	1.942544e+01	5.064823e+02
1.780000e-06	2.878649e-06	7.735384e-09	1.934153e+01	5.049147e+02
1.790000e-06	2.865907e-06	7.562083e-09	1.925592e+01	5.031331e+02
1.800000e-06	2.851548e-06	7.598106e-09	1.915944e+01	5.010784e+02
1.810000e-06	2.835654e-06	7.687331e-09	1.905265e+01	4.987254e+02
1.820000e-06	2.819326e-06	7.523229e-09	1.894294e+01	4.960954e+02
1.830000e-06	2.802187e-06	7.353137e-09	1.882779e+01	4.932541e+02
1.840000e-06	2.783647e-06	7.514702e-09	1.870322e+01	4.902941e+02
1.850000e-06	2.764341e-06	7.462609e-09	1.857350e+01	4.873081e+02
1.860000e-06	2.744312e-06	7.227905e-09	1.843893e+01	4.843613e+02
1.870000e-06	2.722787e-06	7.374628e-09	1.829431e+01	4.814717e+02
1.880000e-06	2.699983e-06	7.368369e-09	1.814109e+01	4.786053e+02
1.890000e-06	2.676412e-06	7.086324e-09	1.798272e+01	4.756870e+02
1.900000e-06	2.651869e-06	7.183794e-09	1.781781e+01	4.726240e+02
1.910000e-06	2.626547e-06	7.238950e-09	1.764767e+01	4.693329e+02
1.920000e-06	2.600517e-06	7.056948e-09	1.747278e+01	4.657633e+02
1.930000e-06	2.573569e-06	7.019446e-09	1.729171e+01	4.619093e+02
1.940000e-06	2.545921e-06	6.989229e-09	1.710594e+01	4.578066e+02
1.950000e-06	2.517345e-06	6.877454e-09	1.691395e+01	4.535181e+02
1.960000e-06	2.487327e-06	6.860492e-09	1.671225e+01	4.491119e+02
1.970000e-06	2.456250e-06	6.745648e-09	1.650345e+01	4.446414e+02
1.980000e-06	2.424441e-06	6.654977e-09	1.628972e+01	4.401323e+02
1.990000e-06	2.391756e-06	6.704393e-09	1.607012e+01	4.355808e+02
2.000000e-06	2.358355e-06	6.546723e-09	1.584570e+01	4.309610e+02
2.010000e-06	2.324182e-06	6.451451e-09	1.561609e+01	4.262389e+02
2.020000e-06	2.289239e-06	6.457680e-09	1.538131e+01	4.213865e+02
2.030000e-06	2.253720e-06	6.289300e-09	1.514266e+01	4.163915e+02
2.040000e-06	2.217154e-06	6.245017e-09	1.489698e+01	4.112585e+02
2.050000e-06	2.179318e-06	6.247247e-09	1.464276e+01	4.060046e+02
2.060000e-06	2.140695e-06	6.074797e-09	1.438325e+01	4.006503e+02
2.070000e-06	2.101496e-06	6.002089e-09	1.411988e+01	3.952102e+02
2.080000e-06	2.061692e-06	5.950968e-09	1.385243e+01	3.896876e+02
2.090000e-06	2.021197e-06	5.830087e-09	1.358035e+01	3.840747e+02
2.100000e-06	1.980000e-06	5.762105e-09	1.330355e+01	3.783574e+02
2.110000e-06	1.938186e-06	5.659398e-09	1.302260e+01	3.725217e+02
2.120000e-06	1.895715e-06	5.582325e-09	1.273724e+01	3.665609e+02
2.130000e-06	1.852693e-06	5.511773e-09	1.244817e+01	3.604774e+02
2.140000e-06	1.809194e-06	5.385645e-09	1.215591e+01	3.542820e+02
2.150000e-06	1.765081e-06	5.292186e-09	1.185951e+01	3.479891e+02
2.160000e-06	1.720252e-06	5.196581e-09	1.155831e+01	3.416106e+02
2.170000e-06	1.674691e-06	5.107332e-09	1.125219e+01	3.351520e+02
2.180000e-06	1.628642e-06	5.017918e-09	1.094278e+01	3.286108e+02
2.190000e-06	1.582148e-06	4.902488e-09	1.063039e+01	3.219792e+02
2.200000e-06	1.535132e-06	4.793784e-09	1.031449e+01	3.152487e+02
2.210000e-06	1.487475e-06	4.690999e-09	9.994290e+00	3.084150e+02
2.220000e-06	1.439064e-06	4.594715e-09	9.669018e+00	3.014813e+02
2.230000e-06	1.390085e-06	4.495651e-09	9.339928e+00	2.944578e+02
2.240000e-06	1.340684e-06	4.368649e-09	9.008007e+00	2.873588e+02
2.250000e-06	1.290804e-06	4.272615e-09	8.672863e+00	2.801980e+02
2.260000e-06	1.240368e-06	4.176332e-09	8.333986e+00	2.729836e+02
2.270000e-06	1.189465e-06	4.045660e-09	7.991973e+00	2.657152e+02
2.280000e-06	1.138199e-06	3.930454e-09	7.647520e+00	2.583852e+02
2.290000e-06	1.086566e-06	3.814524e-09	7.300594e+00	2.509809e+02
2.300000e-06	1.034435e-06	3.716726e-09	6.950330e+00	2.434901e+02
2.310000e-06	9.816703e-07	3.610689e-09	6.595806e+00	2.359052e+02
2.320000e-06	9.282173e-07	3.485664e-09	6.236657e+00	2.282263e+02
2.330000e-06	8.741753e-07	3.365992e-09	5.873551e+00	2.204612e+02
2.340000e-06	8.197130e-07	3.238807e-09	5.507621e+00	2.126230e+02
2.350000e-06	7.649348e-07	3.116948e-09	5.139568e+00	2.047259e+02
2.360000e-06	7.099613e-07	2.996602e-09	4.770203e+00	1.967812e+02
2.370000e-06	6.548832e-07	2.877188e-09	4.400136e+00	1.887943e+02
2.380000e-06	5.996970e-07	2.763740e-09	4.029341e+00	1.807636e+02
2.390000e-06	5.443977e-07	2.644458e-09	3.657788e+00	1.726814e+02
2.400000e-06	4.889794e-07	2.517697e-09	3.285434e+00	1.645366e+02
2.410000e-06	4.334330e-07	2.387896e-09	2.912220e+00	1.563176e+02
2.420000e-06	3.777694e-07	2.254989e-09	2.538219e+00	1.480151e+02
2.430000e-06	3.219421e-07	2.129951e-09	2.163117e+00	1.396236e+02
2.440000e-06	2.659871e-07	2.004934e-09	1.787157e+00	1.311426e+02
2.450000e-06	2.099033e-07	1.876664e-09	1.410333e+00	1.225756e+02
2.460000e-06	1.536411e-07	1.748939e-09	1.032309e+00	1.139296e+02
2.470000e-06	9.730712e-08	1.615079e-09	6.538029e-01	1.052137e+02
2.480000e-06	4.103323e-08	1.481490e-09	2.757007e-01	9.643716e+01
2.490000e-06	-1.521119e-08	1.344480e-09	-1.022034e-01	8.760853e+01
2.500000e-06	-7.148453e-08	1.209693e-09	-4.803019e-01	7.873410e+01
2.510000e-06	-1.276815e-07	1.076581e-09	-8.578874e-01	6.981701e+01
2.520000e-06	-1.837900e-07	9.389646e-10	-1.234878e+00	6.085664e+01
2.530000e-06	-2.398292e-07	7.986250e-10	-1.611404e+00	5.184865e+01
2.540000e-06	-2.957461e-07	6.598596e-10	-1.987107e+00	4.278557e+01
2.550000e-06	-3.515338e-07	5.263973e-10	-2.361943e+00	3.365803e+01
2.560000e-06	-4.072234e-07	3.886511e-10	-2.736119e+00	2.445626e+01
2.570000e-06	-4.627493e-07	2.454255e-10	-3.109195e+00	1.517161e+01
2.580000e-06	-5.180961e-07	1.026106e-10	-3.481068e+00	5.797864e+00
2.590000e-06	-5.733750e-07	-3.961251e-11	-3.852485e+00	-3.668133e+00
2.600000e-06	-6.285717e-07	-1.867813e-10	-4.223349e+00	-1.322636e+01
2.610000e-06	-6.836599e-07	-3.374486e-10	-4.593485e+00	-2.287406e+01
2.620000e-06	-7.386512e-07	-4.871914e-10	-4.962970e+00	-3.260656e+01
2.630000e-06	-7.934283e-07	-6.335562e-10	-5.331015e+00	-4.241818e+01
2.640000e-06	-8.478509e-07	-7.786229e-10	-5.696678e+00	-5.230330e+01
2.650000e-06	-9.018154e-07	-9.291992e-10	-6.059264e+00	-6.225720e+01
2.660000e-06	-9.552566e-07	-1.085204e-09	-6.418333e+00	-7.227681e+01
2.670000e-06	-1.008184e-06	-1.242474e-09	-6.773948e+00	-8.236108e+01
2.680000e-06	-1.060463e-06	-1.397366e-09	-7.125214e+00	-9.251092e+01
2.690000e-06	-1.112148e-06	-1.554135e-09	-7.472480e+00	-1.027284e+02
2.700000e-06	-1.163478e-06	-1.712250e-09	-7.817365e+00	-1.130156e+02
2.710000e-06	-1.214480e-06	-1.868221e-09	-8.160043e+00	-1.233725e+02
2.720000e-06	-1.265100e-06	-2.022930e-09	-8.500158e+00	-1.337956e+02
2.730000e-06	-1.315186e-06	-2.180411e-09	-8.836685e+00	-1.442766e+02
2.740000e-06	-1.364698e-06	-2.343941e-09	-9.169358e+00	-1.548031e+02
2.750000e-06	-1.413755e-06	-2.508739e-09	-9.498964e+00	-1.653596e+02
2.760000e-06	-1.462236e-06	-2.670801e-09	-9.824711e+00	-1.759305e+02
2.770000e-06	-1.509865e-06	-2.831066e-09	-1.014473e+01	-1.865030e+02
2.780000e-06	-1.556648e-06	-2.992663e-09	-1.045906e+01	-1.970692e+02
2.790000e-06	-1.602761e-06	-3.153829e-09	-1.076889e+01	-2.076265e+02
2.800000e-06	-1.648394e-06	-3.313926e-09	-1.107550e+01	-2.181758e+02
2.810000e-06	-1.693641e-06	-3.473335e-09	-1.137951e+01	-2.287176e+02
2.820000e-06	-1.738392e-06	-3.634720e-09	-1.168019e+01	-2.392480e+02
2.830000e-06	-1.782522e-06	-3.796363e-09	-1.197670e+01	-2.497556e+02
2.840000e-06	-1.826088e-06	-3.954291e-09	-1.226942e+01	-2.602199e+02
2.850000e-06	-1.869263e-06	-4.111920e-09	-1.255951e+01	-2.706140e+02
2.860000e-06	-1.911960e-06	-4.270995e-09	-1.284639e+01	-2.809086e+02
2.870000e-06	-1.953963e-06	-4.427530e-09	-1.312860e+01	-2.910779e+02
2.880000e-06	-1.995297e-06	-4.580067e-09	-1.340633e+01	-3.011037e+02
2.890000e-06	-2.036006e-06	-4.729461e-09	-1.367985e+01	-3.109770e+02
2.900000e-06	-2.075988e-06	-4.875510e-09	-1.394849e+01	-3.206962e+02
2.910000e-06	-2.115329e-06	-5.020942e-09	-1.421281e+01	-3.302612e+02
2.920000e-06	-2.154110e-06	-5.165169e-09	-1.447339e+01	-3.396678e+02
2.930000e-06	-2.192024e-06	-5.307511e-09	-1.472812e+01	-3.489016e+02
2.940000e-06	-2.228771e-06	-5.446518e-09	-1.497503e+01	-3.579371e+02
