# Temperatura_=_22.2
# Concentracion g/m^3_=_18700.0
# C_Vs_to_Am_M_A/Vsm_=_65563218390.804596
# pendiente_HvsI_1/m_=_3716.3
# ordenada_HvsI_A/m_=_1297.0
# frecuencia_Hz_=_301069.1426717696

Tiempo_(s)	Campo_(V.s)	Magnetizacion_(V.s)	Campo_(kA/m)	Magnetizacion_(A/m)
0.000000e+00	-2.948000e-06	-7.713577e-09	-1.977640e+01	-5.036614e+02
1.000000e-08	-2.947553e-06	-7.717336e-09	-1.977340e+01	-5.037492e+02
2.000000e-08	-2.946307e-06	-7.721203e-09	-1.976504e+01	-5.036924e+02
3.000000e-08	-2.943842e-06	-7.719470e-09	-1.974850e+01	-5.034569e+02
4.000000e-08	-2.940107e-06	-7.714563e-09	-1.972345e+01	-5.030126e+02
5.000000e-08	-2.935473e-06	-7.706266e-09	-1.969236e+01	-5.023455e+02
6.000000e-08	-2.930047e-06	-7.692252e-09	-1.965596e+01	-5.014648e+02
7.000000e-08	-2.923674e-06	-7.673527e-09	-1.961321e+01	-5.004009e+02
8.000000e-08	-2.916257e-06	-7.652120e-09	-1.956345e+01	-4.991954e+02
9.000000e-08	-2.907770e-06	-7.660773e-09	-1.950652e+01	-4.978859e+02
1.000000e-07	-2.897890e-06	-7.667288e-09	-1.944023e+01	-4.964925e+02
1.100000e-07	-2.886454e-06	-7.623124e-09	-1.936352e+01	-4.950098e+02
1.200000e-07	-2.874037e-06	-7.491188e-09	-1.928022e+01	-4.934085e+02
1.300000e-07	-2.860937e-06	-7.482208e-09	-1.919234e+01	-4.916468e+02
1.400000e-07	-2.846739e-06	-7.575837e-09	-1.909710e+01	-4.896866e+02
1.500000e-07	-2.831203e-06	-7.512153e-09	-1.899287e+01	-4.875092e+02
1.600000e-07	-2.814522e-06	-7.356385e-09	-1.888097e+01	-4.851259e+02
1.700000e-07	-2.796747e-06	-7.399770e-09	-1.876173e+01	-4.825767e+02
1.800000e-07	-2.777975e-06	-7.422503e-09	-1.863580e+01	-4.799201e+02
1.900000e-07	-2.758523e-06	-7.228383e-09	-1.850531e+01	-4.772150e+02
2.000000e-07	-2.738325e-06	-7.229628e-09	-1.836981e+01	-4.745019e+02
2.100000e-07	-2.717125e-06	-7.253909e-09	-1.822759e+01	-4.717889e+02
2.200000e-07	-2.695008e-06	-7.096974e-09	-1.807922e+01	-4.690479e+02
2.300000e-07	-2.672077e-06	-7.089774e-09	-1.792539e+01	-4.662220e+02
2.400000e-07	-2.648244e-06	-7.151066e-09	-1.776551e+01	-4.632409e+02
2.500000e-07	-2.623618e-06	-7.002395e-09	-1.760031e+01	-4.600410e+02
2.600000e-07	-2.598070e-06	-6.910723e-09	-1.742892e+01	-4.565822e+02
2.700000e-07	-2.571193e-06	-6.899204e-09	-1.724862e+01	-4.528570e+02
2.800000e-07	-2.543207e-06	-6.832176e-09	-1.706088e+01	-4.488902e+02
2.900000e-07	-2.514472e-06	-6.779593e-09	-1.686811e+01	-4.447289e+02
3.000000e-07	-2.484874e-06	-6.709022e-09	-1.666956e+01	-4.404274e+02
3.100000e-07	-2.454394e-06	-6.621498e-09	-1.646509e+01	-4.360321e+02
3.200000e-07	-2.423161e-06	-6.617362e-09	-1.625556e+01	-4.315702e+02
3.300000e-07	-2.391200e-06	-6.541990e-09	-1.604115e+01	-4.270464e+02
3.400000e-07	-2.358561e-06	-6.374860e-09	-1.582220e+01	-4.224467e+02
3.500000e-07	-2.325102e-06	-6.362298e-09	-1.559774e+01	-4.177475e+02
3.600000e-07	-2.290511e-06	-6.304741e-09	-1.536569e+01	-4.129261e+02
3.700000e-07	-2.254813e-06	-6.186153e-09	-1.512621e+01	-4.079690e+02
3.800000e-07	-2.218307e-06	-6.155837e-09	-1.488131e+01	-4.028760e+02
3.900000e-07	-2.181163e-06	-6.068068e-09	-1.463214e+01	-3.976582e+02
4.000000e-07	-2.143328e-06	-5.939077e-09	-1.437832e+01	-3.923330e+02
4.100000e-07	-2.104759e-06	-5.900322e-09	-1.411959e+01	-3.869171e+02
4.200000e-07	-2.065381e-06	-5.827116e-09	-1.385542e+01	-3.814205e+02
4.300000e-07	-2.025283e-06	-5.692251e-09	-1.358643e+01	-3.758441e+02
4.400000e-07	-1.984701e-06	-5.623011e-09	-1.331419e+01	-3.701803e+02
4.500000e-07	-1.943584e-06	-5.552441e-09	-1.303836e+01	-3.644171e+02
4.600000e-07	-1.901584e-06	-5.460797e-09	-1.275661e+01	-3.585428e+02
4.700000e-07	-1.858530e-06	-5.363012e-09	-1.246778e+01	-3.525501e+02
4.800000e-07	-1.814614e-06	-5.262437e-09	-1.217318e+01	-3.464388e+02
4.900000e-07	-1.770108e-06	-5.167658e-09	-1.187461e+01	-3.402151e+02
5.000000e-07	-1.725117e-06	-5.084794e-09	-1.157280e+01	-3.338894e+02
5.100000e-07	-1.679545e-06	-4.984298e-09	-1.126708e+01	-3.274730e+02
5.200000e-07	-1.633302e-06	-4.871069e-09	-1.095686e+01	-3.209749e+02
5.300000e-07	-1.586440e-06	-4.779836e-09	-1.064249e+01	-3.144005e+02
5.400000e-07	-1.539064e-06	-4.683568e-09	-1.032467e+01	-3.077507e+02
5.500000e-07	-1.491186e-06	-4.584100e-09	-1.000349e+01	-3.010239e+02
5.600000e-07	-1.442863e-06	-4.474672e-09	-9.679317e+00	-2.942174e+02
5.700000e-07	-1.394103e-06	-4.361790e-09	-9.352218e+00	-2.873295e+02
5.800000e-07	-1.344801e-06	-4.255667e-09	-9.021481e+00	-2.803600e+02
5.900000e-07	-1.294733e-06	-4.160194e-09	-8.685602e+00	-2.733105e+02
6.000000e-07	-1.243845e-06	-4.048844e-09	-8.344223e+00	-2.661833e+02
6.100000e-07	-1.192301e-06	-3.929909e-09	-7.998444e+00	-2.589801e+02
6.200000e-07	-1.140236e-06	-3.823278e-09	-7.649172e+00	-2.517009e+02
6.300000e-07	-1.087782e-06	-3.713842e-09	-7.297288e+00	-2.443437e+02
6.400000e-07	-1.035063e-06	-3.602312e-09	-6.943627e+00	-2.369057e+02
6.500000e-07	-9.819834e-07	-3.481494e-09	-6.587549e+00	-2.293842e+02
6.600000e-07	-9.284282e-07	-3.363475e-09	-6.228278e+00	-2.217785e+02
6.700000e-07	-8.745003e-07	-3.250266e-09	-5.866508e+00	-2.140915e+02
6.800000e-07	-8.203177e-07	-3.137628e-09	-5.503028e+00	-2.063300e+02
6.900000e-07	-7.658870e-07	-3.014798e-09	-5.137885e+00	-1.985038e+02
7.000000e-07	-7.112465e-07	-2.890881e-09	-4.771334e+00	-1.906240e+02
7.100000e-07	-6.564354e-07	-2.772890e-09	-4.403639e+00	-1.827001e+02
7.200000e-07	-6.013624e-07	-2.651979e-09	-4.034187e+00	-1.747375e+02
7.300000e-07	-5.460071e-07	-2.527660e-09	-3.662840e+00	-1.667359e+02
7.400000e-07	-4.904141e-07	-2.398529e-09	-3.289899e+00	-1.586887e+02
7.500000e-07	-4.346066e-07	-2.275582e-09	-2.915520e+00	-1.505847e+02
7.600000e-07	-3.786248e-07	-2.155140e-09	-2.539971e+00	-1.424106e+02
7.700000e-07	-3.225321e-07	-2.032361e-09	-2.163678e+00	-1.341550e+02
7.800000e-07	-2.663413e-07	-1.901591e-09	-1.786727e+00	-1.258112e+02
7.900000e-07	-2.100745e-07	-1.769131e-09	-1.409266e+00	-1.173789e+02
8.000000e-07	-1.537822e-07	-1.639549e-09	-1.031634e+00	-1.088644e+02
8.100000e-07	-9.748305e-08	-1.507125e-09	-6.539564e-01	-1.002790e+02
8.200000e-07	-4.117423e-08	-1.373194e-09	-2.762136e-01	-9.163522e+01
8.300000e-07	1.511876e-08	-1.239548e-09	1.014229e-01	-8.294406e+01
8.400000e-07	7.137765e-08	-1.112064e-09	4.788306e-01	-7.421200e+01
8.500000e-07	1.276492e-07	-9.834020e-10	8.563230e-01	-6.543999e+01
8.600000e-07	1.839190e-07	-8.494566e-10	1.233804e+00	-5.662400e+01
8.700000e-07	2.401196e-07	-7.091842e-10	1.610821e+00	-4.775696e+01
8.800000e-07	2.962569e-07	-5.689685e-10	1.987413e+00	-3.883112e+01
8.900000e-07	3.523334e-07	-4.324139e-10	2.363597e+00	-2.984004e+01
9.000000e-07	4.083366e-07	-2.946059e-10	2.739290e+00	-2.077946e+01
9.100000e-07	4.641891e-07	-1.541595e-10	3.113971e+00	-1.164707e+01
9.200000e-07	5.198831e-07	-1.250188e-11	3.487589e+00	-2.441412e+00
9.300000e-07	5.753941e-07	1.249325e-10	3.859980e+00	6.839224e+00
9.400000e-07	6.306224e-07	2.648206e-10	4.230474e+00	1.619727e+01
9.500000e-07	6.855674e-07	4.094714e-10	4.599068e+00	2.563535e+01
9.600000e-07	7.402519e-07	5.584316e-10	4.965914e+00	3.515497e+01
9.700000e-07	7.947656e-07	7.065984e-10	5.331614e+00	4.475504e+01
9.800000e-07	8.491014e-07	8.525719e-10	5.696121e+00	5.443111e+01
9.900000e-07	9.031390e-07	1.000540e-09	6.058628e+00	6.417590e+01
1.000000e-06	9.567965e-07	1.151822e-09	6.418584e+00	7.398112e+01
1.010000e-06	1.010083e-06	1.303996e-09	6.776055e+00	8.384011e+01
1.020000e-06	1.062970e-06	1.452490e-09	7.130837e+00	9.374998e+01
1.030000e-06	1.115453e-06	1.601504e-09	7.482919e+00	1.037125e+02
1.040000e-06	1.167550e-06	1.752755e-09	7.832402e+00	1.137328e+02
1.050000e-06	1.219173e-06	1.907208e-09	8.178716e+00	1.238163e+02
1.060000e-06	1.270165e-06	2.062636e-09	8.520787e+00	1.339651e+02
1.070000e-06	1.320308e-06	2.219223e-09	8.857168e+00	1.441745e+02
1.080000e-06	1.369649e-06	2.376946e-09	9.188170e+00	1.544321e+02
1.090000e-06	1.418443e-06	2.535780e-09	9.515497e+00	1.647196e+02
1.100000e-06	1.466890e-06	2.692560e-09	9.840499e+00	1.750164e+02
1.110000e-06	1.515028e-06	2.846122e-09	1.016343e+01	1.853051e+02
1.120000e-06	1.562704e-06	3.001710e-09	1.048326e+01	1.955749e+02
1.130000e-06	1.609753e-06	3.157745e-09	1.079888e+01	2.058234e+02
1.140000e-06	1.656225e-06	3.313082e-09	1.111064e+01	2.160542e+02
1.150000e-06	1.702133e-06	3.467177e-09	1.141861e+01	2.262721e+02
1.160000e-06	1.747378e-06	3.622681e-09	1.172213e+01	2.364777e+02
1.170000e-06	1.792066e-06	3.780615e-09	1.202191e+01	2.466623e+02
1.180000e-06	1.836426e-06	3.938458e-09	1.231950e+01	2.568071e+02
1.190000e-06	1.880377e-06	4.093531e-09	1.261435e+01	2.668855e+02
1.200000e-06	1.923472e-06	4.244240e-09	1.290344e+01	2.768693e+02
1.210000e-06	1.965449e-06	4.393000e-09	1.318504e+01	2.867345e+02
1.220000e-06	2.006494e-06	4.540556e-09	1.346039e+01	2.964669e+02
1.230000e-06	2.046918e-06	4.686632e-09	1.373156e+01	3.060628e+02
1.240000e-06	2.086788e-06	4.829539e-09	1.399903e+01	3.155253e+02
1.250000e-06	2.126008e-06	4.971557e-09	1.426214e+01	3.248573e+02
1.260000e-06	2.164523e-06	5.113085e-09	1.452051e+01	3.340540e+02
1.270000e-06	2.202221e-06	5.252529e-09	1.477341e+01	3.430971e+02
1.280000e-06	2.239138e-06	5.386375e-09	1.502106e+01	3.519548e+02
1.290000e-06	2.275504e-06	5.514958e-09	1.526502e+01	3.605865e+02
1.300000e-06	2.311230e-06	5.640666e-09	1.550468e+01	3.689517e+02
1.310000e-06	2.345909e-06	5.761088e-09	1.573732e+01	3.770201e+02
1.320000e-06	2.379406e-06	5.875870e-09	1.596204e+01	3.847789e+02
1.330000e-06	2.412002e-06	5.986427e-09	1.618070e+01	3.922346e+02
1.340000e-06	2.443884e-06	6.095530e-09	1.639458e+01	3.994084e+02
1.350000e-06	2.474988e-06	6.201586e-09	1.660324e+01	4.063269e+02
1.360000e-06	2.505283e-06	6.302618e-09	1.680647e+01	4.130119e+02
1.370000e-06	2.534784e-06	6.398541e-09	1.700437e+01	4.194723e+02
1.380000e-06	2.563538e-06	6.492312e-09	1.719727e+01	4.257020e+02
1.390000e-06	2.591594e-06	6.583926e-09	1.738548e+01	4.316838e+02
1.400000e-06	2.618595e-06	6.670254e-09	1.756661e+01	4.373984e+02
1.410000e-06	2.644297e-06	6.750510e-09	1.773903e+01	4.428347e+02
1.420000e-06	2.668949e-06	6.826216e-09	1.790440e+01	4.479964e+02
1.430000e-06	2.692672e-06	6.898953e-09	1.806355e+01	4.529032e+02
1.440000e-06	2.715472e-06	6.968886e-09	1.821650e+01	4.575851e+02
1.450000e-06	2.737368e-06	7.036468e-09	1.836339e+01	4.620717e+02
1.460000e-06	2.758389e-06	7.103871e-09	1.850441e+01	4.663813e+02
1.470000e-06	2.778634e-06	7.170383e-09	1.864022e+01	4.705132e+02
1.480000e-06	2.798008e-06	7.230716e-09	1.877019e+01	4.744466e+02
1.490000e-06	2.816383e-06	7.283040e-09	1.889345e+01	4.781480e+02
1.500000e-06	2.833797e-06	7.329883e-09	1.901028e+01	4.815820e+02
1.510000e-06	2.850122e-06	7.373204e-09	1.911979e+01	4.847251e+02
1.520000e-06	2.865282e-06	7.413984e-09	1.922149e+01	4.875735e+02
1.530000e-06	2.879394e-06	7.451759e-09	1.931616e+01	4.901460e+02
1.540000e-06	2.892424e-06	7.487424e-09	1.940357e+01	4.924769e+02
1.550000e-06	2.904329e-06	7.521088e-09	1.948343e+01	4.946053e+02
1.560000e-06	2.914975e-06	7.551238e-09	1.955485e+01	4.965618e+02
1.570000e-06	2.924297e-06	7.576175e-09	1.961738e+01	4.983600e+02
1.580000e-06	2.932578e-06	7.597235e-09	1.967294e+01	4.999945e+02
1.590000e-06	2.939969e-06	7.617471e-09	1.972252e+01	5.014462e+02
1.600000e-06	2.946343e-06	7.636339e-09	1.976528e+01	5.026936e+02
1.610000e-06	2.951680e-06	7.651442e-09	1.980108e+01	5.037240e+02
1.620000e-06	2.956196e-06	7.662232e-09	1.983138e+01	5.045414e+02
1.630000e-06	2.959768e-06	7.670052e-09	1.985534e+01	5.051667e+02
1.640000e-06	2.962039e-06	7.677005e-09	1.987057e+01	5.056310e+02
1.650000e-06	2.963110e-06	7.683394e-09	1.987776e+01	5.059636e+02
1.660000e-06	2.963220e-06	7.688359e-09	1.987850e+01	5.061807e+02
1.670000e-06	2.962394e-06	7.690578e-09	1.987296e+01	5.062786e+02
1.680000e-06	2.960639e-06	7.688042e-09	1.986118e+01	5.062339e+02
1.690000e-06	2.957970e-06	7.682745e-09	1.984328e+01	5.060132e+02
1.700000e-06	2.954530e-06	7.673898e-09	1.982020e+01	5.055854e+02
1.710000e-06	2.950240e-06	7.661905e-09	1.979142e+01	5.049350e+02
1.720000e-06	2.944715e-06	7.649692e-09	1.975436e+01	5.040696e+02
1.730000e-06	2.938011e-06	7.640789e-09	1.970938e+01	5.030183e+02
1.740000e-06	2.930499e-06	7.628212e-09	1.965899e+01	5.018223e+02
1.750000e-06	2.921972e-06	7.557934e-09	1.960179e+01	5.005201e+02
1.760000e-06	2.911787e-06	7.511707e-09	1.953346e+01	4.991334e+02
1.770000e-06	2.899989e-06	7.563665e-09	1.945432e+01	4.976586e+02
1.780000e-06	2.887563e-06	7.612363e-09	1.937096e+01	4.960680e+02
1.790000e-06	2.875061e-06	7.509994e-09	1.928709e+01	4.943200e+02
1.800000e-06	2.861424e-06	7.382650e-09	1.919561e+01	4.923757e+02
1.810000e-06	2.845988e-06	7.497278e-09	1.909206e+01	4.902147e+02
1.820000e-06	2.829698e-06	7.466976e-09	1.898278e+01	4.878459e+02
1.830000e-06	2.812876e-06	7.274376e-09	1.886993e+01	4.853075e+02
1.840000e-06	2.794779e-06	7.316691e-09	1.874853e+01	4.826574e+02
1.850000e-06	2.775600e-06	7.381153e-09	1.861986e+01	4.799549e+02
1.860000e-06	2.755797e-06	7.217195e-09	1.848702e+01	4.772425e+02
1.870000e-06	2.734737e-06	7.182357e-09	1.834574e+01	4.745308e+02
1.880000e-06	2.712257e-06	7.292546e-09	1.819494e+01	4.717943e+02
1.890000e-06	2.688943e-06	7.119524e-09	1.803854e+01	4.689775e+02
1.900000e-06	2.664716e-06	7.005196e-09	1.787601e+01	4.660107e+02
1.910000e-06	2.639550e-06	7.117104e-09	1.770719e+01	4.628289e+02
1.920000e-06	2.613740e-06	7.026587e-09	1.753404e+01	4.593900e+02
1.930000e-06	2.587124e-06	6.921583e-09	1.735549e+01	4.556842e+02
1.940000e-06	2.559704e-06	6.922494e-09	1.717155e+01	4.517341e+02
1.950000e-06	2.531502e-06	6.805877e-09	1.698236e+01	4.475857e+02
1.960000e-06	2.501908e-06	6.774576e-09	1.678383e+01	4.432934e+02
1.970000e-06	2.470992e-06	6.703431e-09	1.657643e+01	4.389045e+02
1.980000e-06	2.439360e-06	6.542196e-09	1.636423e+01	4.344477e+02
1.990000e-06	2.406919e-06	6.576053e-09	1.614660e+01	4.299294e+02
2.000000e-06	2.373713e-06	6.545016e-09	1.592384e+01	4.253367e+02
2.010000e-06	2.339785e-06	6.364128e-09	1.569624e+01	4.206463e+02
2.020000e-06	2.305021e-06	6.355558e-09	1.546303e+01	4.158350e+02
2.030000e-06	2.269613e-06	6.280639e-09	1.522549e+01	4.108887e+02
2.040000e-06	2.233418e-06	6.130768e-09	1.498269e+01	4.058059e+02
2.050000e-06	2.196077e-06	6.135690e-09	1.473218e+01	4.005973e+02
2.060000e-06	2.157705e-06	6.039616e-09	1.447477e+01	3.952800e+02
2.070000e-06	2.118609e-06	5.912084e-09	1.421250e+01	3.898710e+02
2.080000e-06	2.078940e-06	5.882964e-09	1.394638e+01	3.843808e+02
2.090000e-06	2.038680e-06	5.785059e-09	1.367631e+01	3.788111e+02
2.100000e-06	1.997708e-06	5.685182e-09	1.340145e+01	3.731548e+02
2.110000e-06	1.956075e-06	5.601449e-09	1.312216e+01	3.674000e+02
2.120000e-06	1.913770e-06	5.494910e-09	1.283836e+01	3.615347e+02
2.130000e-06	1.870830e-06	5.432187e-09	1.255030e+01	3.555514e+02
2.140000e-06	1.827410e-06	5.339702e-09	1.225902e+01	3.494493e+02
2.150000e-06	1.783469e-06	5.225829e-09	1.196424e+01	3.432341e+02
2.160000e-06	1.738867e-06	5.141481e-09	1.166503e+01	3.369161e+02
2.170000e-06	1.693568e-06	5.046571e-09	1.136115e+01	3.305067e+02
2.180000e-06	1.647694e-06	4.953871e-09	1.105341e+01	3.240151e+02
2.190000e-06	1.601362e-06	4.839725e-09	1.074260e+01	3.174468e+02
2.200000e-06	1.554521e-06	4.731331e-09	1.042837e+01	3.108033e+02
2.210000e-06	1.507062e-06	4.636545e-09	1.010999e+01	3.040829e+02
2.220000e-06	1.458899e-06	4.531164e-09	9.786897e+00	2.972830e+02
2.230000e-06	1.410035e-06	4.440972e-09	9.459094e+00	2.904018e+02
2.240000e-06	1.360659e-06	4.328209e-09	9.127857e+00	2.834389e+02
2.250000e-06	1.310853e-06	4.212463e-09	8.793739e+00	2.763959e+02
2.260000e-06	1.260521e-06	4.116455e-09	8.456093e+00	2.692750e+02
2.270000e-06	1.209641e-06	4.000896e-09	8.114771e+00	2.620780e+02
2.280000e-06	1.158350e-06	3.882003e-09	7.770690e+00	2.548051e+02
2.290000e-06	1.106724e-06	3.769540e-09	7.424360e+00	2.474544e+02
2.300000e-06	1.054616e-06	3.658148e-09	7.074795e+00	2.400231e+02
2.310000e-06	1.001851e-06	3.556943e-09	6.720828e+00	2.325085e+02
2.320000e-06	9.484520e-07	3.439875e-09	6.362606e+00	2.249096e+02
2.330000e-06	8.945192e-07	3.316406e-09	6.000803e+00	2.172290e+02
2.340000e-06	8.401449e-07	3.199978e-09	5.636037e+00	2.094734e+02
2.350000e-06	7.854120e-07	3.078395e-09	5.268867e+00	2.016522e+02
2.360000e-06	7.304121e-07	2.959131e-09	4.899905e+00	1.937767e+02
2.370000e-06	6.752754e-07	2.835245e-09	4.530025e+00	1.858566e+02
2.380000e-06	6.200408e-07	2.717901e-09	4.159488e+00	1.778975e+02
2.390000e-06	5.646728e-07	2.602580e-09	3.788057e+00	1.698997e+02
2.400000e-06	5.091456e-07	2.479852e-09	3.415558e+00	1.618569e+02
2.410000e-06	4.535006e-07	2.355419e-09	3.042269e+00	1.537582e+02
2.420000e-06	3.977488e-07	2.226385e-09	2.668263e+00	1.455904e+02
2.430000e-06	3.418670e-07	2.101328e-09	2.293384e+00	1.373417e+02
2.440000e-06	2.858219e-07	1.977956e-09	1.917411e+00	1.290051e+02
2.450000e-06	2.296120e-07	1.852230e-09	1.540331e+00	1.205798e+02
2.460000e-06	1.733176e-07	1.724750e-09	1.162686e+00	1.120717e+02
2.470000e-06	1.169755e-07	1.592815e-09	7.847194e-01	1.034918e+02
2.480000e-06	6.059804e-08	1.459601e-09	4.065166e-01	9.485259e+01
2.490000e-06	4.207165e-09	1.326574e-09	2.822339e-02	8.616537e+01
2.500000e-06	-5.211665e-08	1.191290e-09	-3.496199e-01	7.743696e+01
2.510000e-06	-1.083990e-07	1.058619e-09	-7.271849e-01	6.866871e+01
2.520000e-06	-1.646688e-07	9.290057e-10	-1.104666e+00	5.985690e+01
2.530000e-06	-2.208603e-07	7.968834e-10	-1.481621e+00	5.099460e+01
2.540000e-06	-2.769658e-07	6.608494e-10	-1.858001e+00	4.207403e+01
2.550000e-06	-3.329411e-07	5.198708e-10	-2.233506e+00	3.308861e+01
2.560000e-06	-3.887219e-07	3.802698e-10	-2.607706e+00	2.403392e+01
2.570000e-06	-4.443313e-07	2.405912e-10	-2.980757e+00	1.490754e+01
2.580000e-06	-4.998364e-07	1.000264e-10	-3.353108e+00	5.707986e+00
2.590000e-06	-5.552706e-07	-3.886957e-11	-3.724983e+00	-3.566393e+00
2.600000e-06	-6.106114e-07	-1.782858e-10	-4.096232e+00	-1.291799e+01
2.610000e-06	-6.658368e-07	-3.205367e-10	-4.466707e+00	-2.234945e+01
2.620000e-06	-7.209510e-07	-4.659630e-10	-4.836436e+00	-3.186242e+01
2.630000e-06	-7.758841e-07	-6.131692e-10	-5.204950e+00	-4.145602e+01
2.640000e-06	-8.305707e-07	-7.633074e-10	-5.571810e+00	-5.112605e+01
2.650000e-06	-8.848716e-07	-9.132328e-10	-5.936083e+00	-6.086538e+01
2.660000e-06	-9.385897e-07	-1.061708e-09	-6.296446e+00	-7.066571e+01
2.670000e-06	-9.917220e-07	-1.209291e-09	-6.652879e+00	-8.052018e+01
2.680000e-06	-1.044259e-06	-1.359152e-09	-7.005319e+00	-9.042558e+01
2.690000e-06	-1.096261e-06	-1.511010e-09	-7.354169e+00	-1.003833e+02
2.700000e-06	-1.147826e-06	-1.663796e-09	-7.700091e+00	-1.103985e+02
2.710000e-06	-1.199014e-06	-1.818685e-09	-8.043481e+00	-1.204765e+02
2.720000e-06	-1.249806e-06	-1.975605e-09	-8.384214e+00	-1.306199e+02
2.730000e-06	-1.300106e-06	-2.134259e-09	-8.721648e+00	-1.408245e+02
2.740000e-06	-1.349911e-06	-2.291436e-09	-9.055759e+00	-1.510784e+02
2.750000e-06	-1.399136e-06	-2.446210e-09	-9.385983e+00	-1.613636e+02
2.760000e-06	-1.447675e-06	-2.599515e-09	-9.711599e+00	-1.716595e+02
2.770000e-06	-1.495489e-06	-2.754567e-09	-1.003236e+01	-1.819484e+02
2.780000e-06	-1.542508e-06	-2.912022e-09	-1.034778e+01	-1.922190e+02
2.790000e-06	-1.588735e-06	-3.070327e-09	-1.065789e+01	-2.024681e+02
2.800000e-06	-1.634472e-06	-3.228088e-09	-1.096471e+01	-2.126991e+02
2.810000e-06	-1.679876e-06	-3.385035e-09	-1.126930e+01	-2.229170e+02
2.820000e-06	-1.724817e-06	-3.542110e-09	-1.157078e+01	-2.331228e+02
2.830000e-06	-1.769213e-06	-3.696944e-09	-1.186861e+01	-2.433086e+02
2.840000e-06	-1.813029e-06	-3.848912e-09	-1.216254e+01	-2.534562e+02
2.850000e-06	-1.856379e-06	-4.000165e-09	-1.245336e+01	-2.635395e+02
2.860000e-06	-1.899322e-06	-4.152995e-09	-1.274143e+01	-2.735301e+02
2.870000e-06	-1.941696e-06	-4.304572e-09	-1.302570e+01	-2.834035e+02
2.880000e-06	-1.983400e-06	-4.454303e-09	-1.330546e+01	-2.931449e+02
2.890000e-06	-2.024395e-06	-4.602930e-09	-1.358047e+01	-3.027496e+02
2.900000e-06	-2.064637e-06	-4.748360e-09	-1.385043e+01	-3.122207e+02
2.910000e-06	-2.104244e-06	-4.890457e-09	-1.411614e+01	-3.215612e+02
2.920000e-06	-2.143314e-06	-5.030405e-09	-1.437823e+01	-3.307671e+02
2.930000e-06	-2.181585e-06	-5.168112e-09	-1.463497e+01	-3.398213e+02
2.940000e-06	-2.218812e-06	-5.302716e-09	-1.488470e+01	-3.486927e+02
