# Temperatura_=_24.13
# Concentracion g/m^3_=_18700.0
# C_Vs_to_Am_M_A/Vsm_=_65563218390.804596
# pendiente_HvsI_1/m_=_3716.3
# ordenada_HvsI_A/m_=_1297.0
# frecuencia_Hz_=_301061.91636029485

Tiempo_(s)	Campo_(V.s)	Magnetizacion_(V.s)	Campo_(kA/m)	Magnetizacion_(A/m)
0.000000e+00	-2.944316e-06	-7.778532e-09	-1.977895e+01	-5.086166e+02
1.000000e-08	-2.943597e-06	-7.780758e-09	-1.977412e+01	-5.086804e+02
2.000000e-08	-2.942058e-06	-7.782892e-09	-1.976378e+01	-5.086114e+02
3.000000e-08	-2.939283e-06	-7.782666e-09	-1.974514e+01	-5.083769e+02
4.000000e-08	-2.935221e-06	-7.780146e-09	-1.971785e+01	-5.079450e+02
5.000000e-08	-2.930352e-06	-7.772904e-09	-1.968514e+01	-5.072978e+02
6.000000e-08	-2.924702e-06	-7.758911e-09	-1.964719e+01	-5.064394e+02
7.000000e-08	-2.918067e-06	-7.736266e-09	-1.960262e+01	-5.053953e+02
8.000000e-08	-2.910414e-06	-7.724850e-09	-1.955120e+01	-5.042031e+02
9.000000e-08	-2.901664e-06	-7.748011e-09	-1.949243e+01	-5.028985e+02
1.000000e-07	-2.891365e-06	-7.733677e-09	-1.942324e+01	-5.015013e+02
1.100000e-07	-2.879529e-06	-7.629664e-09	-1.934373e+01	-5.000080e+02
1.200000e-07	-2.866917e-06	-7.536217e-09	-1.925901e+01	-4.983923e+02
1.300000e-07	-2.853589e-06	-7.613491e-09	-1.916948e+01	-4.966153e+02
1.400000e-07	-2.839181e-06	-7.680146e-09	-1.907269e+01	-4.946404e+02
1.500000e-07	-2.823581e-06	-7.501952e-09	-1.896789e+01	-4.924483e+02
1.600000e-07	-2.806851e-06	-7.454818e-09	-1.885551e+01	-4.900455e+02
1.700000e-07	-2.788908e-06	-7.545282e-09	-1.873497e+01	-4.874647e+02
1.800000e-07	-2.769943e-06	-7.420869e-09	-1.860757e+01	-4.847550e+02
1.900000e-07	-2.750306e-06	-7.298993e-09	-1.847565e+01	-4.819666e+02
2.000000e-07	-2.729847e-06	-7.369091e-09	-1.833822e+01	-4.791344e+02
2.100000e-07	-2.708435e-06	-7.302348e-09	-1.819438e+01	-4.762673e+02
2.200000e-07	-2.686210e-06	-7.157301e-09	-1.804508e+01	-4.733448e+02
2.300000e-07	-2.663101e-06	-7.232645e-09	-1.788984e+01	-4.703236e+02
2.400000e-07	-2.638946e-06	-7.206640e-09	-1.772758e+01	-4.671508e+02
2.500000e-07	-2.614047e-06	-7.032093e-09	-1.756031e+01	-4.637794e+02
2.600000e-07	-2.588246e-06	-7.002157e-09	-1.738698e+01	-4.601812e+02
2.700000e-07	-2.561087e-06	-6.983646e-09	-1.720454e+01	-4.563530e+02
2.800000e-07	-2.532826e-06	-6.902994e-09	-1.701469e+01	-4.523149e+02
2.900000e-07	-2.503807e-06	-6.862870e-09	-1.681975e+01	-4.481025e+02
3.000000e-07	-2.473915e-06	-6.755664e-09	-1.661895e+01	-4.437555e+02
3.100000e-07	-2.443206e-06	-6.706651e-09	-1.641266e+01	-4.393068e+02
3.200000e-07	-2.411833e-06	-6.696759e-09	-1.620190e+01	-4.347754e+02
3.300000e-07	-2.379739e-06	-6.545308e-09	-1.598631e+01	-4.301652e+02
3.400000e-07	-2.346967e-06	-6.459118e-09	-1.576615e+01	-4.254677e+02
3.500000e-07	-2.313424e-06	-6.461929e-09	-1.554082e+01	-4.206685e+02
3.600000e-07	-2.278772e-06	-6.348404e-09	-1.530804e+01	-4.157541e+02
3.700000e-07	-2.242928e-06	-6.264480e-09	-1.506726e+01	-4.107169e+02
3.800000e-07	-2.206256e-06	-6.237427e-09	-1.482090e+01	-4.055570e+02
3.900000e-07	-2.168980e-06	-6.084195e-09	-1.457049e+01	-4.002810e+02
4.000000e-07	-2.130987e-06	-5.995532e-09	-1.431527e+01	-3.948994e+02
4.100000e-07	-2.092239e-06	-5.977290e-09	-1.405498e+01	-3.894224e+02
4.200000e-07	-2.052698e-06	-5.865705e-09	-1.378935e+01	-3.838572e+02
4.300000e-07	-2.012429e-06	-5.752837e-09	-1.351884e+01	-3.782062e+02
4.400000e-07	-1.971691e-06	-5.696137e-09	-1.324518e+01	-3.724675e+02
4.500000e-07	-1.930461e-06	-5.609563e-09	-1.296820e+01	-3.666357e+02
4.600000e-07	-1.888358e-06	-5.504405e-09	-1.268537e+01	-3.607040e+02
4.700000e-07	-1.845167e-06	-5.406728e-09	-1.239523e+01	-3.546662e+02
4.800000e-07	-1.801066e-06	-5.305429e-09	-1.209897e+01	-3.485181e+02
4.900000e-07	-1.756399e-06	-5.229900e-09	-1.179891e+01	-3.422587e+02
5.000000e-07	-1.711311e-06	-5.140390e-09	-1.149602e+01	-3.358901e+02
5.100000e-07	-1.665624e-06	-5.026649e-09	-1.118912e+01	-3.294177e+02
5.200000e-07	-1.619306e-06	-4.919061e-09	-1.087797e+01	-3.228491e+02
5.300000e-07	-1.572474e-06	-4.827129e-09	-1.056337e+01	-3.161928e+02
5.400000e-07	-1.525096e-06	-4.725226e-09	-1.024509e+01	-3.094566e+02
5.500000e-07	-1.477118e-06	-4.625059e-09	-9.922794e+00	-3.026464e+02
5.600000e-07	-1.428667e-06	-4.515430e-09	-9.597317e+00	-2.957650e+02
5.700000e-07	-1.379891e-06	-4.393609e-09	-9.269652e+00	-2.888123e+02
5.800000e-07	-1.330578e-06	-4.296445e-09	-8.938390e+00	-2.817862e+02
5.900000e-07	-1.280517e-06	-4.193516e-09	-8.602095e+00	-2.746835e+02
6.000000e-07	-1.229760e-06	-4.071148e-09	-8.261123e+00	-2.675021e+02
6.100000e-07	-1.178275e-06	-3.956899e-09	-7.915267e+00	-2.602410e+02
6.200000e-07	-1.126145e-06	-3.859555e-09	-7.565071e+00	-2.529011e+02
6.300000e-07	-1.073648e-06	-3.750042e-09	-7.212418e+00	-2.454842e+02
6.400000e-07	-1.020905e-06	-3.628099e-09	-6.858103e+00	-2.379921e+02
6.500000e-07	-9.678326e-07	-3.503790e-09	-6.501582e+00	-2.304256e+02
6.600000e-07	-9.142820e-07	-3.386808e-09	-6.141847e+00	-2.227844e+02
6.700000e-07	-8.603063e-07	-3.277662e-09	-5.779256e+00	-2.150686e+02
6.800000e-07	-8.060667e-07	-3.160450e-09	-5.414892e+00	-2.072796e+02
6.900000e-07	-7.515989e-07	-3.037591e-09	-5.048995e+00	-1.994216e+02
7.000000e-07	-6.969337e-07	-2.915457e-09	-4.681772e+00	-1.915022e+02
7.100000e-07	-6.420914e-07	-2.795763e-09	-4.313360e+00	-1.835306e+02
7.200000e-07	-5.870607e-07	-2.668073e-09	-3.943681e+00	-1.755152e+02
7.300000e-07	-5.318230e-07	-2.537436e-09	-3.572613e+00	-1.674602e+02
7.400000e-07	-4.763396e-07	-2.411603e-09	-3.199893e+00	-1.593630e+02
7.500000e-07	-4.206433e-07	-2.293301e-09	-2.825744e+00	-1.512140e+02
7.600000e-07	-3.647324e-07	-2.176009e-09	-2.450152e+00	-1.429982e+02
7.700000e-07	-3.086205e-07	-2.048839e-09	-2.073211e+00	-1.347001e+02
7.800000e-07	-2.524145e-07	-1.915271e-09	-1.695638e+00	-1.263086e+02
7.900000e-07	-1.961145e-07	-1.783099e-09	-1.317433e+00	-1.178212e+02
8.000000e-07	-1.397519e-07	-1.651535e-09	-9.388074e-01	-1.092455e+02
8.100000e-07	-8.336092e-08	-1.514400e-09	-5.599913e-01	-1.005973e+02
8.200000e-07	-2.697349e-08	-1.377660e-09	-1.811990e-01	-9.189563e+01
8.300000e-07	2.938510e-08	-1.247085e-09	1.973995e-01	-8.315609e+01
8.400000e-07	8.573821e-08	-1.122168e-09	5.759612e-01	-7.438583e+01
8.500000e-07	1.420588e-07	-9.923695e-10	9.543044e-01	-6.558084e+01
8.600000e-07	1.983458e-07	-8.516049e-10	1.332422e+00	-5.672748e+01
8.700000e-07	2.545830e-07	-7.099240e-10	1.710205e+00	-4.780726e+01
8.800000e-07	3.107581e-07	-5.733943e-10	2.087571e+00	-3.880329e+01
8.900000e-07	3.668330e-07	-4.357165e-10	2.464264e+00	-2.970578e+01
9.000000e-07	4.227410e-07	-2.903538e-10	2.839835e+00	-2.051459e+01
9.100000e-07	4.784076e-07	-1.457587e-10	3.213786e+00	-1.123790e+01
9.200000e-07	5.338324e-07	-7.358650e-12	3.586111e+00	-1.887649e+00
9.300000e-07	5.891043e-07	1.295480e-10	3.957409e+00	7.526395e+00
9.400000e-07	6.441519e-07	2.721194e-10	4.327201e+00	1.700129e+01
9.500000e-07	6.989524e-07	4.215084e-10	4.695333e+00	2.654250e+01
9.600000e-07	7.535946e-07	5.726929e-10	5.062402e+00	3.616164e+01
9.700000e-07	8.080465e-07	7.222191e-10	5.428191e+00	4.587136e+01
9.800000e-07	8.621890e-07	8.696171e-10	5.791903e+00	5.567960e+01
9.900000e-07	9.159647e-07	1.022019e-09	6.153150e+00	6.558552e+01
1.000000e-06	9.693802e-07	1.177299e-09	6.511978e+00	7.557898e+01
1.010000e-06	1.022408e-06	1.329167e-09	6.868204e+00	8.564387e+01
1.020000e-06	1.075073e-06	1.479859e-09	7.221991e+00	9.576366e+01
1.030000e-06	1.127423e-06	1.634977e-09	7.573658e+00	1.059271e+02
1.040000e-06	1.179309e-06	1.794384e-09	7.922211e+00	1.161316e+02
1.050000e-06	1.230517e-06	1.952014e-09	8.266207e+00	1.263819e+02
1.060000e-06	1.280973e-06	2.108127e-09	8.605154e+00	1.366866e+02
1.070000e-06	1.330708e-06	2.265883e-09	8.939261e+00	1.470509e+02
1.080000e-06	1.379870e-06	2.425961e-09	9.269511e+00	1.574719e+02
1.090000e-06	1.428628e-06	2.586935e-09	9.597055e+00	1.679360e+02
1.100000e-06	1.477009e-06	2.746911e-09	9.922062e+00	1.784212e+02
1.110000e-06	1.524997e-06	2.906289e-09	1.024443e+01	1.889030e+02
1.120000e-06	1.572442e-06	3.065157e-09	1.056315e+01	1.993610e+02
1.130000e-06	1.619248e-06	3.224017e-09	1.087757e+01	2.097843e+02
1.140000e-06	1.665494e-06	3.381224e-09	1.118825e+01	2.201727e+02
1.150000e-06	1.711125e-06	3.538445e-09	1.149478e+01	2.305329e+02
1.160000e-06	1.756192e-06	3.697471e-09	1.179752e+01	2.408714e+02
1.170000e-06	1.800883e-06	3.858913e-09	1.209774e+01	2.511868e+02
1.180000e-06	1.845119e-06	4.019585e-09	1.239491e+01	2.614651e+02
1.190000e-06	1.888647e-06	4.176938e-09	1.268731e+01	2.716797e+02
1.200000e-06	1.931216e-06	4.330426e-09	1.297327e+01	2.817965e+02
1.210000e-06	1.972786e-06	4.479431e-09	1.325253e+01	2.917829e+02
1.220000e-06	2.013654e-06	4.626033e-09	1.352707e+01	3.016156e+02
1.230000e-06	2.053971e-06	4.770572e-09	1.379790e+01	3.112857e+02
1.240000e-06	2.093620e-06	4.914852e-09	1.406425e+01	3.207974e+02
1.250000e-06	2.132575e-06	5.059777e-09	1.432594e+01	3.301606e+02
1.260000e-06	2.170793e-06	5.204305e-09	1.458268e+01	3.393813e+02
1.270000e-06	2.208253e-06	5.345671e-09	1.483432e+01	3.484520e+02
1.280000e-06	2.245090e-06	5.481881e-09	1.508178e+01	3.573484e+02
1.290000e-06	2.281348e-06	5.610325e-09	1.532535e+01	3.660311e+02
1.300000e-06	2.316734e-06	5.733796e-09	1.556306e+01	3.744555e+02
1.310000e-06	2.350961e-06	5.853527e-09	1.579298e+01	3.825831e+02
1.320000e-06	2.384175e-06	5.969990e-09	1.601611e+01	3.903927e+02
1.330000e-06	2.416647e-06	6.084225e-09	1.623424e+01	3.978850e+02
1.340000e-06	2.448388e-06	6.196649e-09	1.644747e+01	4.050799e+02
1.350000e-06	2.479290e-06	6.304182e-09	1.665505e+01	4.120071e+02
1.360000e-06	2.509360e-06	6.403617e-09	1.685706e+01	4.186931e+02
1.370000e-06	2.538658e-06	6.498193e-09	1.705387e+01	4.251509e+02
1.380000e-06	2.567280e-06	6.589766e-09	1.724615e+01	4.313753e+02
1.390000e-06	2.594997e-06	6.678828e-09	1.743234e+01	4.373460e+02
1.400000e-06	2.621463e-06	6.764990e-09	1.761013e+01	4.430381e+02
1.410000e-06	2.646768e-06	6.846765e-09	1.778012e+01	4.484345e+02
1.420000e-06	2.671146e-06	6.922856e-09	1.794388e+01	4.535361e+02
1.430000e-06	2.694606e-06	6.993765e-09	1.810148e+01	4.583651e+02
1.440000e-06	2.717167e-06	7.062324e-09	1.825303e+01	4.629590e+02
1.450000e-06	2.738872e-06	7.128719e-09	1.839884e+01	4.673591e+02
1.460000e-06	2.759764e-06	7.192790e-09	1.853919e+01	4.715953e+02
1.470000e-06	2.779874e-06	7.255796e-09	1.867428e+01	4.756754e+02
1.480000e-06	2.799036e-06	7.316660e-09	1.880301e+01	4.795816e+02
1.490000e-06	2.817138e-06	7.372652e-09	1.892461e+01	4.832767e+02
1.500000e-06	2.834258e-06	7.421121e-09	1.903961e+01	4.867174e+02
1.510000e-06	2.850301e-06	7.463656e-09	1.914739e+01	4.898699e+02
1.520000e-06	2.865158e-06	7.503342e-09	1.924719e+01	4.927225e+02
1.530000e-06	2.878936e-06	7.539928e-09	1.933974e+01	4.952896e+02
1.540000e-06	2.891697e-06	7.573681e-09	1.942547e+01	4.976064e+02
1.550000e-06	2.903236e-06	7.605954e-09	1.950299e+01	4.997168e+02
1.560000e-06	2.913395e-06	7.637264e-09	1.957123e+01	5.016579e+02
1.570000e-06	2.922451e-06	7.666426e-09	1.963207e+01	5.034481e+02
1.580000e-06	2.930556e-06	7.689648e-09	1.968652e+01	5.050837e+02
1.590000e-06	2.937688e-06	7.707342e-09	1.973443e+01	5.065436e+02
1.600000e-06	2.943807e-06	7.721805e-09	1.977553e+01	5.078005e+02
1.610000e-06	2.948996e-06	7.734781e-09	1.981039e+01	5.088357e+02
1.620000e-06	2.953353e-06	7.747060e-09	1.983966e+01	5.096477e+02
1.630000e-06	2.956521e-06	7.756776e-09	1.986094e+01	5.102556e+02
1.640000e-06	2.958326e-06	7.764550e-09	1.987306e+01	5.106921e+02
1.650000e-06	2.959135e-06	7.773173e-09	1.987850e+01	5.109914e+02
1.660000e-06	2.959050e-06	7.780359e-09	1.987793e+01	5.111764e+02
1.670000e-06	2.957994e-06	7.779165e-09	1.987084e+01	5.112493e+02
1.680000e-06	2.956015e-06	7.771605e-09	1.985754e+01	5.111915e+02
1.690000e-06	2.953209e-06	7.764820e-09	1.983869e+01	5.109707e+02
1.700000e-06	2.949643e-06	7.757497e-09	1.981473e+01	5.105544e+02
1.710000e-06	2.945050e-06	7.749341e-09	1.978388e+01	5.099233e+02
1.720000e-06	2.939186e-06	7.741631e-09	1.974449e+01	5.090801e+02
1.730000e-06	2.932315e-06	7.737883e-09	1.969833e+01	5.080488e+02
1.740000e-06	2.924670e-06	7.695064e-09	1.964697e+01	5.068665e+02
1.750000e-06	2.915823e-06	7.620624e-09	1.958755e+01	5.055697e+02
1.760000e-06	2.905190e-06	7.618418e-09	1.951611e+01	5.041797e+02
1.770000e-06	2.893057e-06	7.716699e-09	1.943461e+01	5.026945e+02
1.780000e-06	2.880647e-06	7.674351e-09	1.935124e+01	5.010894e+02
1.790000e-06	2.868060e-06	7.516844e-09	1.926669e+01	4.993260e+02
1.800000e-06	2.853918e-06	7.520375e-09	1.917169e+01	4.973668e+02
1.810000e-06	2.838108e-06	7.625006e-09	1.906548e+01	4.951910e+02
1.820000e-06	2.821756e-06	7.479423e-09	1.895563e+01	4.928031e+02
1.830000e-06	2.804695e-06	7.345463e-09	1.884102e+01	4.902342e+02
1.840000e-06	2.786312e-06	7.489388e-09	1.871753e+01	4.875326e+02
1.850000e-06	2.767115e-06	7.416622e-09	1.858857e+01	4.847491e+02
1.860000e-06	2.747203e-06	7.226069e-09	1.845481e+01	4.819201e+02
1.870000e-06	2.725799e-06	7.342425e-09	1.831102e+01	4.790565e+02
1.880000e-06	2.703083e-06	7.327985e-09	1.815843e+01	4.761399e+02
1.890000e-06	2.679614e-06	7.090475e-09	1.800077e+01	4.731281e+02
1.900000e-06	2.655137e-06	7.140297e-09	1.783634e+01	4.699685e+02
1.910000e-06	2.629824e-06	7.182985e-09	1.766629e+01	4.666132e+02
1.920000e-06	2.603863e-06	7.035646e-09	1.749190e+01	4.630323e+02
1.930000e-06	2.577046e-06	6.992156e-09	1.731175e+01	4.592207e+02
1.940000e-06	2.549527e-06	6.938829e-09	1.712688e+01	4.551972e+02
1.950000e-06	2.520978e-06	6.839915e-09	1.693511e+01	4.509966e+02
1.960000e-06	2.490917e-06	6.844805e-09	1.673316e+01	4.466587e+02
1.970000e-06	2.459873e-06	6.703384e-09	1.652462e+01	4.422171e+02
1.980000e-06	2.428190e-06	6.610711e-09	1.631179e+01	4.376921e+02
1.990000e-06	2.395656e-06	6.682131e-09	1.609323e+01	4.330883e+02
2.000000e-06	2.362396e-06	6.518987e-09	1.586980e+01	4.283981e+02
2.010000e-06	2.328308e-06	6.399840e-09	1.564081e+01	4.236074e+02
2.020000e-06	2.293440e-06	6.425446e-09	1.540658e+01	4.187022e+02
2.030000e-06	2.258089e-06	6.257559e-09	1.516910e+01	4.136746e+02
2.040000e-06	2.221789e-06	6.179645e-09	1.492525e+01	4.085239e+02
2.050000e-06	2.184108e-06	6.205038e-09	1.467212e+01	4.032566e+02
2.060000e-06	2.145498e-06	6.043814e-09	1.441275e+01	3.978828e+02
2.070000e-06	2.106382e-06	5.950657e-09	1.414998e+01	3.924130e+02
2.080000e-06	2.066606e-06	5.916711e-09	1.388278e+01	3.868546e+02
2.090000e-06	2.026075e-06	5.798110e-09	1.361051e+01	3.812105e+02
2.100000e-06	1.984870e-06	5.711773e-09	1.333371e+01	3.754789e+02
2.110000e-06	1.943080e-06	5.615054e-09	1.305298e+01	3.696546e+02
2.120000e-06	1.900642e-06	5.529564e-09	1.276789e+01	3.637309e+02
2.130000e-06	1.857659e-06	5.463857e-09	1.247914e+01	3.577016e+02
2.140000e-06	1.814262e-06	5.346728e-09	1.218762e+01	3.515621e+02
2.150000e-06	1.770218e-06	5.244816e-09	1.189175e+01	3.453113e+02
2.160000e-06	1.725406e-06	5.162824e-09	1.159071e+01	3.389510e+02
2.170000e-06	1.679953e-06	5.068833e-09	1.128537e+01	3.324865e+02
2.180000e-06	1.634045e-06	4.967083e-09	1.097698e+01	3.259251e+02
2.190000e-06	1.587711e-06	4.857066e-09	1.066572e+01	3.192755e+02
2.200000e-06	1.540867e-06	4.750454e-09	1.035104e+01	3.125455e+02
2.210000e-06	1.493362e-06	4.639294e-09	1.003192e+01	3.057411e+02
2.220000e-06	1.445030e-06	4.545742e-09	9.707241e+00	2.988654e+02
2.230000e-06	1.396095e-06	4.457974e-09	9.378510e+00	2.919185e+02
2.240000e-06	1.346774e-06	4.331862e-09	9.047186e+00	2.848984e+02
2.250000e-06	1.296918e-06	4.230423e-09	8.712267e+00	2.778020e+02
2.260000e-06	1.246513e-06	4.134701e-09	8.373665e+00	2.706269e+02
2.270000e-06	1.195643e-06	4.007968e-09	8.031937e+00	2.633722e+02
2.280000e-06	1.144415e-06	3.890472e-09	7.687804e+00	2.560385e+02
2.290000e-06	1.092810e-06	3.773917e-09	7.341137e+00	2.486278e+02
2.300000e-06	1.040596e-06	3.670791e-09	6.990384e+00	2.411417e+02
2.310000e-06	9.877343e-07	3.564952e-09	6.635275e+00	2.335811e+02
2.320000e-06	9.342180e-07	3.441845e-09	6.275770e+00	2.259460e+02
2.330000e-06	8.800984e-07	3.323327e-09	5.912212e+00	2.182362e+02
2.340000e-06	8.256362e-07	3.203479e-09	5.546353e+00	2.104529e+02
2.350000e-06	7.709157e-07	3.083849e-09	5.178759e+00	2.026003e+02
2.360000e-06	7.159740e-07	2.964394e-09	4.809679e+00	1.946857e+02
2.370000e-06	6.609106e-07	2.842614e-09	4.439781e+00	1.867182e+02
2.380000e-06	6.057560e-07	2.727342e-09	4.069270e+00	1.787064e+02
2.390000e-06	5.505046e-07	2.607778e-09	3.698109e+00	1.706549e+02
2.400000e-06	4.951166e-07	2.483457e-09	3.326031e+00	1.625617e+02
2.410000e-06	4.395286e-07	2.357826e-09	2.952609e+00	1.544174e+02
2.420000e-06	3.837877e-07	2.227775e-09	2.578160e+00	1.462076e+02
2.430000e-06	3.279083e-07	2.105143e-09	2.202780e+00	1.379166e+02
2.440000e-06	2.718758e-07	1.982330e-09	1.826372e+00	1.295326e+02
2.450000e-06	2.157023e-07	1.855535e-09	1.449017e+00	1.210526e+02
2.460000e-06	1.594165e-07	1.726120e-09	1.070907e+00	1.124834e+02
2.470000e-06	1.031334e-07	1.592284e-09	6.928162e-01	1.038405e+02
2.480000e-06	4.687034e-08	1.460800e-09	3.148596e-01	9.514267e+01
2.490000e-06	-9.433131e-09	1.326609e-09	-6.336868e-02	8.640615e+01
2.500000e-06	-6.577749e-08	1.191730e-09	-4.418716e-01	7.763875e+01
2.510000e-06	-1.220471e-07	1.059647e-09	-8.198725e-01	6.883728e+01
2.520000e-06	-1.782427e-07	9.277302e-10	-1.197376e+00	5.998864e+01
2.530000e-06	-2.344112e-07	7.914676e-10	-1.574698e+00	5.107449e+01
2.540000e-06	-2.904704e-07	6.517608e-10	-1.951285e+00	4.207761e+01
2.550000e-06	-3.463262e-07	5.146506e-10	-2.326506e+00	3.298757e+01
2.560000e-06	-4.020205e-07	3.775966e-10	-2.700642e+00	2.380355e+01
2.570000e-06	-4.575509e-07	2.358219e-10	-3.073677e+00	1.453327e+01
2.580000e-06	-5.129134e-07	9.257983e-11	-3.445584e+00	5.188560e+00
2.590000e-06	-5.681692e-07	-4.839339e-11	-3.816774e+00	-4.220449e+00
2.600000e-06	-6.233208e-07	-1.904235e-10	-4.187265e+00	-1.369024e+01
2.610000e-06	-6.783941e-07	-3.356809e-10	-4.557229e+00	-2.322570e+01
2.620000e-06	-7.333471e-07	-4.841974e-10	-4.926386e+00	-3.283815e+01
2.630000e-06	-7.881568e-07	-6.322189e-10	-5.294579e+00	-4.254039e+01
2.640000e-06	-8.427174e-07	-7.788864e-10	-5.661099e+00	-5.234083e+01
2.650000e-06	-8.968789e-07	-9.276616e-10	-6.024938e+00	-6.223932e+01
2.660000e-06	-9.505326e-07	-1.081428e-09	-6.385366e+00	-7.222636e+01
2.670000e-06	-1.003556e-06	-1.236796e-09	-6.741561e+00	-8.228604e+01
2.680000e-06	-1.055904e-06	-1.390145e-09	-7.093216e+00	-9.240170e+01
2.690000e-06	-1.107667e-06	-1.543307e-09	-7.440941e+00	-1.025616e+02
2.700000e-06	-1.159026e-06	-1.697870e-09	-7.785953e+00	-1.127623e+02
2.710000e-06	-1.210059e-06	-1.854584e-09	-8.128777e+00	-1.230085e+02
2.720000e-06	-1.260718e-06	-2.011718e-09	-8.469090e+00	-1.333083e+02
2.730000e-06	-1.310888e-06	-2.169188e-09	-8.806117e+00	-1.436677e+02
2.740000e-06	-1.360494e-06	-2.327976e-09	-9.139351e+00	-1.540843e+02
2.750000e-06	-1.409550e-06	-2.488127e-09	-9.468893e+00	-1.645453e+02
2.760000e-06	-1.458015e-06	-2.648482e-09	-9.794464e+00	-1.750291e+02
2.770000e-06	-1.505696e-06	-2.807990e-09	-1.011477e+01	-1.855113e+02
2.780000e-06	-1.552524e-06	-2.966710e-09	-1.042935e+01	-1.959708e+02
2.790000e-06	-1.598625e-06	-3.124476e-09	-1.073904e+01	-2.063960e+02
2.800000e-06	-1.644231e-06	-3.283029e-09	-1.104541e+01	-2.167860e+02
2.810000e-06	-1.689470e-06	-3.441169e-09	-1.134931e+01	-2.271473e+02
2.820000e-06	-1.734284e-06	-3.598562e-09	-1.165035e+01	-2.374866e+02
2.830000e-06	-1.778504e-06	-3.754281e-09	-1.194741e+01	-2.478033e+02
2.840000e-06	-1.822099e-06	-3.909056e-09	-1.224026e+01	-2.580843e+02
2.850000e-06	-1.865217e-06	-4.064958e-09	-1.252992e+01	-2.683039e+02
2.860000e-06	-1.907852e-06	-4.220626e-09	-1.281633e+01	-2.784282e+02
2.870000e-06	-1.949901e-06	-4.373397e-09	-1.309879e+01	-2.884241e+02
2.880000e-06	-1.991328e-06	-4.523347e-09	-1.337709e+01	-2.982675e+02
2.890000e-06	-2.032104e-06	-4.672485e-09	-1.365101e+01	-3.079486e+02
2.900000e-06	-2.072157e-06	-4.819357e-09	-1.392007e+01	-3.174706e+02
2.910000e-06	-2.111558e-06	-4.962642e-09	-1.418475e+01	-3.268435e+02
2.920000e-06	-2.150379e-06	-5.102625e-09	-1.444554e+01	-3.360737e+02
2.930000e-06	-2.188377e-06	-5.239694e-09	-1.470080e+01	-3.451551e+02
2.940000e-06	-2.225241e-06	-5.374207e-09	-1.494844e+01	-3.540644e+02
