# Temperatura_=_21.12
# Concentracion g/m^3_=_18700.0
# C_Vs_to_Am_M_A/Vsm_=_65563218390.804596
# pendiente_HvsI_1/m_=_3716.3
# ordenada_HvsI_A/m_=_1297.0
# frecuencia_Hz_=_301068.31281960616

Tiempo_(s)	Campo_(V.s)	Magnetizacion_(V.s)	Campo_(kA/m)	Magnetizacion_(A/m)
0.000000e+00	-2.947937e-06	-7.700272e-09	-1.977522e+01	-5.025698e+02
1.000000e-08	-2.947401e-06	-7.702399e-09	-1.977163e+01	-5.026596e+02
2.000000e-08	-2.946061e-06	-7.703298e-09	-1.976264e+01	-5.026384e+02
3.000000e-08	-2.943517e-06	-7.702082e-09	-1.974557e+01	-5.024773e+02
4.000000e-08	-2.939741e-06	-7.699024e-09	-1.972023e+01	-5.021378e+02
5.000000e-08	-2.935092e-06	-7.691959e-09	-1.968905e+01	-5.015882e+02
6.000000e-08	-2.929585e-06	-7.680924e-09	-1.965211e+01	-5.008168e+02
7.000000e-08	-2.923104e-06	-7.668923e-09	-1.960864e+01	-4.998374e+02
8.000000e-08	-2.915678e-06	-7.652864e-09	-1.955882e+01	-4.986846e+02
9.000000e-08	-2.907173e-06	-7.643001e-09	-1.950177e+01	-4.973998e+02
1.000000e-07	-2.897222e-06	-7.625189e-09	-1.943501e+01	-4.960155e+02
1.100000e-07	-2.885788e-06	-7.591580e-09	-1.935831e+01	-4.945411e+02
1.200000e-07	-2.873432e-06	-7.524773e-09	-1.927543e+01	-4.929588e+02
1.300000e-07	-2.860306e-06	-7.494696e-09	-1.918738e+01	-4.912300e+02
1.400000e-07	-2.846055e-06	-7.523664e-09	-1.909178e+01	-4.893104e+02
1.500000e-07	-2.830520e-06	-7.495080e-09	-1.898757e+01	-4.871683e+02
1.600000e-07	-2.813820e-06	-7.411937e-09	-1.887554e+01	-4.847988e+02
1.700000e-07	-2.796045e-06	-7.385604e-09	-1.875630e+01	-4.822297e+02
1.800000e-07	-2.777266e-06	-7.366848e-09	-1.863033e+01	-4.795145e+02
1.900000e-07	-2.757743e-06	-7.282342e-09	-1.849937e+01	-4.767162e+02
2.000000e-07	-2.737487e-06	-7.233751e-09	-1.836349e+01	-4.738871e+02
2.100000e-07	-2.716228e-06	-7.207576e-09	-1.822088e+01	-4.710513e+02
2.200000e-07	-2.694114e-06	-7.142130e-09	-1.807253e+01	-4.681958e+02
2.300000e-07	-2.671206e-06	-7.104668e-09	-1.791886e+01	-4.652738e+02
2.400000e-07	-2.647331e-06	-7.091095e-09	-1.775870e+01	-4.622189e+02
2.500000e-07	-2.622655e-06	-7.013959e-09	-1.759317e+01	-4.589641e+02
2.600000e-07	-2.597062e-06	-6.929694e-09	-1.742150e+01	-4.554618e+02
2.700000e-07	-2.570190e-06	-6.878259e-09	-1.724123e+01	-4.516959e+02
2.800000e-07	-2.542216e-06	-6.836443e-09	-1.705358e+01	-4.476842e+02
2.900000e-07	-2.513402e-06	-6.781565e-09	-1.686029e+01	-4.434706e+02
3.000000e-07	-2.483712e-06	-6.688652e-09	-1.666113e+01	-4.391099e+02
3.100000e-07	-2.453216e-06	-6.623933e-09	-1.645655e+01	-4.346517e+02
3.200000e-07	-2.422027e-06	-6.602326e-09	-1.624733e+01	-4.301273e+02
3.300000e-07	-2.390140e-06	-6.509072e-09	-1.603343e+01	-4.255448e+02
3.400000e-07	-2.357543e-06	-6.392794e-09	-1.581476e+01	-4.208911e+02
3.500000e-07	-2.324105e-06	-6.358854e-09	-1.559046e+01	-4.161415e+02
3.600000e-07	-2.289563e-06	-6.287974e-09	-1.535875e+01	-4.112705e+02
3.700000e-07	-2.253900e-06	-6.187214e-09	-1.511951e+01	-4.062618e+02
3.800000e-07	-2.217402e-06	-6.134158e-09	-1.487468e+01	-4.011133e+02
3.900000e-07	-2.180262e-06	-6.038642e-09	-1.462554e+01	-3.958370e+02
4.000000e-07	-2.142418e-06	-5.931136e-09	-1.437167e+01	-3.904528e+02
4.100000e-07	-2.103802e-06	-5.880898e-09	-1.411263e+01	-3.849818e+02
4.200000e-07	-2.064441e-06	-5.800057e-09	-1.384859e+01	-3.794389e+02
4.300000e-07	-2.024445e-06	-5.686573e-09	-1.358029e+01	-3.738285e+02
4.400000e-07	-1.983905e-06	-5.609985e-09	-1.330834e+01	-3.681447e+02
4.500000e-07	-1.942716e-06	-5.529220e-09	-1.303204e+01	-3.623743e+02
4.600000e-07	-1.900593e-06	-5.435961e-09	-1.274947e+01	-3.565023e+02
4.700000e-07	-1.857452e-06	-5.341099e-09	-1.246008e+01	-3.505168e+02
4.800000e-07	-1.813510e-06	-5.240360e-09	-1.216531e+01	-3.444131e+02
4.900000e-07	-1.769003e-06	-5.151622e-09	-1.186675e+01	-3.381941e+02
5.000000e-07	-1.723985e-06	-5.065088e-09	-1.156476e+01	-3.318693e+02
5.100000e-07	-1.678381e-06	-4.960154e-09	-1.125884e+01	-3.254508e+02
5.200000e-07	-1.632178e-06	-4.854410e-09	-1.094890e+01	-3.189501e+02
5.300000e-07	-1.585432e-06	-4.760198e-09	-1.063532e+01	-3.123745e+02
5.400000e-07	-1.538105e-06	-4.658268e-09	-1.031784e+01	-3.057257e+02
5.500000e-07	-1.490225e-06	-4.556429e-09	-9.996663e+00	-2.990007e+02
5.600000e-07	-1.441877e-06	-4.451801e-09	-9.672337e+00	-2.921940e+02
5.700000e-07	-1.393084e-06	-4.339774e-09	-9.345025e+00	-2.853001e+02
5.800000e-07	-1.343708e-06	-4.233745e-09	-9.013804e+00	-2.783170e+02
5.900000e-07	-1.293565e-06	-4.130828e-09	-8.677432e+00	-2.712474e+02
6.000000e-07	-1.242715e-06	-4.018720e-09	-8.336322e+00	-2.640984e+02
6.100000e-07	-1.191193e-06	-3.906574e-09	-7.990705e+00	-2.568800e+02
6.200000e-07	-1.139143e-06	-3.799614e-09	-7.641548e+00	-2.496012e+02
6.300000e-07	-1.086723e-06	-3.688243e-09	-7.289907e+00	-2.422677e+02
6.400000e-07	-1.033936e-06	-3.574703e-09	-6.935805e+00	-2.348791e+02
6.500000e-07	-9.808258e-07	-3.456815e-09	-6.579532e+00	-2.274291e+02
6.600000e-07	-9.273104e-07	-3.340360e-09	-6.220541e+00	-2.199078e+02
6.700000e-07	-8.733879e-07	-3.228429e-09	-5.858821e+00	-2.123054e+02
6.800000e-07	-8.191931e-07	-3.113796e-09	-5.495274e+00	-2.046165e+02
6.900000e-07	-7.647829e-07	-2.993392e-09	-5.130282e+00	-1.968434e+02
7.000000e-07	-7.101477e-07	-2.874319e-09	-4.763781e+00	-1.889965e+02
7.100000e-07	-6.552680e-07	-2.755406e-09	-4.395639e+00	-1.810916e+02
7.200000e-07	-6.001441e-07	-2.630067e-09	-4.025860e+00	-1.731451e+02
7.300000e-07	-5.448055e-07	-2.502898e-09	-3.654640e+00	-1.651681e+02
7.400000e-07	-4.892488e-07	-2.377239e-09	-3.281956e+00	-1.571616e+02
7.500000e-07	-4.334514e-07	-2.256542e-09	-2.907659e+00	-1.491151e+02
7.600000e-07	-3.774634e-07	-2.137752e-09	-2.532083e+00	-1.410095e+02
7.700000e-07	-3.213726e-07	-2.016534e-09	-2.155817e+00	-1.328225e+02
7.800000e-07	-2.652293e-07	-1.890088e-09	-1.779200e+00	-1.245369e+02
7.900000e-07	-2.090211e-07	-1.759731e-09	-1.402146e+00	-1.161464e+02
8.000000e-07	-1.527636e-07	-1.626376e-09	-1.024762e+00	-1.076589e+02
8.100000e-07	-9.648705e-08	-1.489968e-09	-6.472500e-01	-9.909418e+01
8.200000e-07	-4.020195e-08	-1.355958e-09	-2.696809e-01	-9.047774e+01
8.300000e-07	1.607954e-08	-1.226146e-09	1.078641e-01	-8.183203e+01
8.400000e-07	7.235823e-08	-1.099506e-09	4.853902e-01	-7.316869e+01
8.500000e-07	1.286537e-07	-9.710527e-10	8.630286e-01	-6.448436e+01
8.600000e-07	1.849184e-07	-8.368619e-10	1.240461e+00	-5.576183e+01
8.700000e-07	2.411120e-07	-6.991475e-10	1.617417e+00	-4.697603e+01
8.800000e-07	2.972608e-07	-5.618144e-10	1.994072e+00	-3.810278e+01
8.900000e-07	3.533507e-07	-4.234361e-10	2.370331e+00	-2.912685e+01
9.000000e-07	4.093240e-07	-2.819910e-10	2.745809e+00	-2.004661e+01
9.100000e-07	4.651189e-07	-1.417241e-10	3.120090e+00	-1.087321e+01
9.200000e-07	5.207397e-07	-3.087581e-12	3.493202e+00	-1.625039e+00
9.300000e-07	5.761595e-07	1.349999e-10	3.864967e+00	7.680414e+00
9.400000e-07	6.313431e-07	2.759559e-10	4.235147e+00	1.703395e+01
9.500000e-07	6.862759e-07	4.199881e-10	4.603645e+00	2.643832e+01
9.600000e-07	7.409766e-07	5.654569e-10	4.970586e+00	3.590672e+01
9.700000e-07	7.954912e-07	7.122222e-10	5.336278e+00	4.545678e+01
9.800000e-07	8.497961e-07	8.600898e-10	5.700564e+00	5.510258e+01
9.900000e-07	9.038010e-07	1.010163e-09	6.062837e+00	6.484805e+01
1.000000e-06	9.573868e-07	1.161412e-09	6.422299e+00	7.468451e+01
1.010000e-06	1.010589e-06	1.312104e-09	6.779190e+00	8.459345e+01
1.020000e-06	1.063469e-06	1.462070e-09	7.133912e+00	9.455329e+01
1.030000e-06	1.115991e-06	1.612853e-09	7.486242e+00	1.045474e+02
1.040000e-06	1.168085e-06	1.764677e-09	7.835696e+00	1.145696e+02
1.050000e-06	1.219730e-06	1.918217e-09	8.182140e+00	1.246253e+02
1.060000e-06	1.270737e-06	2.072888e-09	8.524300e+00	1.347269e+02
1.070000e-06	1.320915e-06	2.229030e-09	8.860901e+00	1.448855e+02
1.080000e-06	1.370326e-06	2.386208e-09	9.192358e+00	1.551033e+02
1.090000e-06	1.419118e-06	2.543976e-09	9.519665e+00	1.653684e+02
1.100000e-06	1.467526e-06	2.700689e-09	9.844392e+00	1.756562e+02
1.110000e-06	1.515611e-06	2.855771e-09	1.016695e+01	1.859357e+02
1.120000e-06	1.563251e-06	3.011183e-09	1.048653e+01	1.961793e+02
1.130000e-06	1.610305e-06	3.166262e-09	1.080217e+01	2.063717e+02
1.140000e-06	1.656751e-06	3.320789e-09	1.111374e+01	2.165139e+02
1.150000e-06	1.702637e-06	3.475719e-09	1.142155e+01	2.266201e+02
1.160000e-06	1.747903e-06	3.630951e-09	1.172520e+01	2.367097e+02
1.170000e-06	1.792639e-06	3.786624e-09	1.202530e+01	2.467949e+02
1.180000e-06	1.837014e-06	3.941659e-09	1.232298e+01	2.568715e+02
1.190000e-06	1.880910e-06	4.095540e-09	1.261743e+01	2.669146e+02
1.200000e-06	1.923978e-06	4.247729e-09	1.290634e+01	2.768829e+02
1.210000e-06	1.965963e-06	4.396916e-09	1.318799e+01	2.867295e+02
1.220000e-06	2.006980e-06	4.543224e-09	1.346314e+01	2.964142e+02
1.230000e-06	2.047390e-06	4.686662e-09	1.373421e+01	3.059153e+02
1.240000e-06	2.087279e-06	4.827421e-09	1.400179e+01	3.152325e+02
1.250000e-06	2.126459e-06	4.966165e-09	1.426462e+01	3.243820e+02
1.260000e-06	2.164889e-06	5.103718e-09	1.452241e+01	3.333850e+02
1.270000e-06	2.202511e-06	5.239910e-09	1.477478e+01	3.422533e+02
1.280000e-06	2.239384e-06	5.372534e-09	1.502214e+01	3.509781e+02
1.290000e-06	2.275747e-06	5.501806e-09	1.526607e+01	3.595271e+02
1.300000e-06	2.311467e-06	5.627771e-09	1.550568e+01	3.678511e+02
1.310000e-06	2.346152e-06	5.747142e-09	1.573835e+01	3.758974e+02
1.320000e-06	2.379696e-06	5.860562e-09	1.596337e+01	3.836260e+02
1.330000e-06	2.412340e-06	5.970837e-09	1.618235e+01	3.910217e+02
1.340000e-06	2.444269e-06	6.079536e-09	1.639653e+01	3.980974e+02
1.350000e-06	2.475415e-06	6.183362e-09	1.660546e+01	4.048879e+02
1.360000e-06	2.505690e-06	6.280079e-09	1.680856e+01	4.114358e+02
1.370000e-06	2.535125e-06	6.372737e-09	1.700601e+01	4.177753e+02
1.380000e-06	2.563832e-06	6.464997e-09	1.719858e+01	4.239203e+02
1.390000e-06	2.591847e-06	6.555753e-09	1.738651e+01	4.298609e+02
1.400000e-06	2.618868e-06	6.642022e-09	1.756777e+01	4.355704e+02
1.410000e-06	2.644563e-06	6.723648e-09	1.774014e+01	4.410185e+02
1.420000e-06	2.669142e-06	6.800457e-09	1.790502e+01	4.461867e+02
1.430000e-06	2.692833e-06	6.872882e-09	1.806394e+01	4.510784e+02
1.440000e-06	2.715589e-06	6.941970e-09	1.821659e+01	4.557196e+02
1.450000e-06	2.737457e-06	7.008104e-09	1.836329e+01	4.601503e+02
1.460000e-06	2.758516e-06	7.072142e-09	1.850455e+01	4.644092e+02
1.470000e-06	2.778799e-06	7.135124e-09	1.864061e+01	4.685174e+02
1.480000e-06	2.798200e-06	7.196118e-09	1.877076e+01	4.724691e+02
1.490000e-06	2.816582e-06	7.251653e-09	1.889407e+01	4.762321e+02
1.500000e-06	2.833944e-06	7.300262e-09	1.901053e+01	4.797579e+02
1.510000e-06	2.850235e-06	7.346068e-09	1.911982e+01	4.830000e+02
1.520000e-06	2.865399e-06	7.390263e-09	1.922154e+01	4.859306e+02
1.530000e-06	2.879462e-06	7.428324e-09	1.931588e+01	4.885516e+02
1.540000e-06	2.892467e-06	7.460672e-09	1.940312e+01	4.908949e+02
1.550000e-06	2.904433e-06	7.491521e-09	1.948338e+01	4.930114e+02
1.560000e-06	2.915077e-06	7.521250e-09	1.955479e+01	4.949537e+02
1.570000e-06	2.924388e-06	7.548347e-09	1.961725e+01	4.967587e+02
1.580000e-06	2.932743e-06	7.573008e-09	1.967329e+01	4.984369e+02
1.590000e-06	2.940163e-06	7.595592e-09	1.972307e+01	4.999716e+02
1.600000e-06	2.946544e-06	7.614588e-09	1.976587e+01	5.013292e+02
1.610000e-06	2.951939e-06	7.629767e-09	1.980206e+01	5.024751e+02
1.620000e-06	2.956477e-06	7.642512e-09	1.983251e+01	5.033892e+02
1.630000e-06	2.960021e-06	7.651134e-09	1.985628e+01	5.040757e+02
1.640000e-06	2.962248e-06	7.656349e-09	1.987122e+01	5.045620e+02
1.650000e-06	2.963258e-06	7.662522e-09	1.987799e+01	5.048877e+02
1.660000e-06	2.963333e-06	7.670659e-09	1.987850e+01	5.050899e+02
1.670000e-06	2.962520e-06	7.676144e-09	1.987304e+01	5.051878e+02
1.680000e-06	2.960759e-06	7.674419e-09	1.986123e+01	5.051761e+02
1.690000e-06	2.958099e-06	7.667547e-09	1.984339e+01	5.050269e+02
1.700000e-06	2.954650e-06	7.659848e-09	1.982025e+01	5.047022e+02
1.710000e-06	2.950258e-06	7.651901e-09	1.979079e+01	5.041691e+02
1.720000e-06	2.944660e-06	7.641070e-09	1.975323e+01	5.034141e+02
1.730000e-06	2.937983e-06	7.628487e-09	1.970845e+01	5.024494e+02
1.740000e-06	2.930439e-06	7.612992e-09	1.965784e+01	5.013082e+02
1.750000e-06	2.921779e-06	7.576621e-09	1.959975e+01	5.000324e+02
1.760000e-06	2.911519e-06	7.540181e-09	1.953092e+01	4.986553e+02
1.770000e-06	2.899724e-06	7.553084e-09	1.945180e+01	4.971884e+02
1.780000e-06	2.887404e-06	7.564158e-09	1.936915e+01	4.956157e+02
1.790000e-06	2.874917e-06	7.507667e-09	1.928539e+01	4.938996e+02
1.800000e-06	2.861198e-06	7.438224e-09	1.919336e+01	4.919957e+02
1.810000e-06	2.845805e-06	7.458611e-09	1.909010e+01	4.898708e+02
1.820000e-06	2.829594e-06	7.436150e-09	1.898136e+01	4.875178e+02
1.830000e-06	2.812751e-06	7.330114e-09	1.886837e+01	4.849622e+02
1.840000e-06	2.794667e-06	7.311895e-09	1.874706e+01	4.822560e+02
1.850000e-06	2.775559e-06	7.325552e-09	1.861888e+01	4.794624e+02
1.860000e-06	2.755722e-06	7.246375e-09	1.848581e+01	4.766351e+02
1.870000e-06	2.734589e-06	7.205651e-09	1.834404e+01	4.738005e+02
1.880000e-06	2.712096e-06	7.222661e-09	1.819316e+01	4.709483e+02
1.890000e-06	2.688744e-06	7.128660e-09	1.803651e+01	4.680340e+02
1.900000e-06	2.664442e-06	7.046870e-09	1.787349e+01	4.649916e+02
1.910000e-06	2.639234e-06	7.055585e-09	1.770439e+01	4.617538e+02
1.920000e-06	2.613376e-06	7.011160e-09	1.753093e+01	4.582709e+02
1.930000e-06	2.586711e-06	6.931020e-09	1.735206e+01	4.545244e+02
1.940000e-06	2.559204e-06	6.873646e-09	1.716754e+01	4.505298e+02
1.950000e-06	2.530849e-06	6.812469e-09	1.697733e+01	4.463296e+02
1.960000e-06	2.501218e-06	6.766775e-09	1.677856e+01	4.419784e+02
1.970000e-06	2.470364e-06	6.666970e-09	1.657159e+01	4.375265e+02
1.980000e-06	2.438675e-06	6.563975e-09	1.635901e+01	4.330071e+02
1.990000e-06	2.406195e-06	6.555972e-09	1.614113e+01	4.284297e+02
2.000000e-06	2.372999e-06	6.484096e-09	1.591845e+01	4.237827e+02
2.010000e-06	2.339043e-06	6.363631e-09	1.569067e+01	4.190416e+02
2.020000e-06	2.304291e-06	6.328665e-09	1.545754e+01	4.141807e+02
2.030000e-06	2.268936e-06	6.241193e-09	1.522038e+01	4.091828e+02
2.040000e-06	2.232799e-06	6.132079e-09	1.497796e+01	4.040448e+02
2.050000e-06	2.195484e-06	6.100574e-09	1.472765e+01	3.987777e+02
2.060000e-06	2.157127e-06	6.004869e-09	1.447034e+01	3.934013e+02
2.070000e-06	2.118055e-06	5.896740e-09	1.420824e+01	3.879367e+02
2.080000e-06	2.078362e-06	5.843157e-09	1.394198e+01	3.823993e+02
2.090000e-06	2.038000e-06	5.749991e-09	1.367122e+01	3.767946e+02
2.100000e-06	1.996960e-06	5.654039e-09	1.339591e+01	3.711172e+02
2.110000e-06	1.955286e-06	5.566878e-09	1.311636e+01	3.653543e+02
2.120000e-06	1.912947e-06	5.468976e-09	1.283234e+01	3.594908e+02
2.130000e-06	1.869993e-06	5.399201e-09	1.254420e+01	3.535144e+02
2.140000e-06	1.826555e-06	5.308773e-09	1.225281e+01	3.474199e+02
2.150000e-06	1.782625e-06	5.196925e-09	1.195812e+01	3.412096e+02
2.160000e-06	1.738017e-06	5.109442e-09	1.165889e+01	3.348927e+02
2.170000e-06	1.692647e-06	5.015861e-09	1.135454e+01	3.284813e+02
2.180000e-06	1.646745e-06	4.912272e-09	1.104662e+01	3.219870e+02
2.190000e-06	1.600414e-06	4.808429e-09	1.073582e+01	3.154173e+02
2.200000e-06	1.553494e-06	4.704317e-09	1.042108e+01	3.087745e+02
2.210000e-06	1.505922e-06	4.604413e-09	1.010196e+01	3.020559e+02
2.220000e-06	1.457627e-06	4.507646e-09	9.777989e+00	2.952560e+02
2.230000e-06	1.408713e-06	4.409931e-09	9.449862e+00	2.883692e+02
2.240000e-06	1.359403e-06	4.296037e-09	9.119087e+00	2.813932e+02
2.250000e-06	1.309644e-06	4.184386e-09	8.785296e+00	2.743304e+02
2.260000e-06	1.259345e-06	4.083929e-09	8.447879e+00	2.671875e+02
2.270000e-06	1.208504e-06	3.972901e-09	8.106831e+00	2.599745e+02
2.280000e-06	1.157262e-06	3.856509e-09	7.763095e+00	2.527005e+02
2.290000e-06	1.105665e-06	3.740950e-09	7.416973e+00	2.453716e+02
2.300000e-06	1.053548e-06	3.631872e-09	7.067366e+00	2.379879e+02
2.310000e-06	1.000832e-06	3.528834e-09	6.713738e+00	2.305433e+02
2.320000e-06	9.474675e-07	3.413106e-09	6.355759e+00	2.230282e+02
2.330000e-06	8.935311e-07	3.291506e-09	5.993945e+00	2.154326e+02
2.340000e-06	8.391776e-07	3.174325e-09	5.629333e+00	2.077507e+02
2.350000e-06	7.844494e-07	3.056021e-09	5.262208e+00	1.999841e+02
2.360000e-06	7.294451e-07	2.936202e-09	4.893231e+00	1.921427e+02
2.370000e-06	6.742832e-07	2.813453e-09	4.523196e+00	1.842422e+02
2.380000e-06	6.189994e-07	2.694765e-09	4.152344e+00	1.762990e+02
2.390000e-06	5.635975e-07	2.579819e-09	3.780699e+00	1.683247e+02
2.400000e-06	5.080708e-07	2.461820e-09	3.408218e+00	1.603213e+02
2.410000e-06	4.524117e-07	2.340270e-09	3.034848e+00	1.522790e+02
2.420000e-06	3.965761e-07	2.213591e-09	2.660294e+00	1.441791e+02
2.430000e-06	3.405710e-07	2.085923e-09	2.284603e+00	1.359994e+02
2.440000e-06	2.844559e-07	1.960468e-09	1.908174e+00	1.277219e+02
2.450000e-06	2.283225e-07	1.836226e-09	1.531622e+00	1.193396e+02
2.460000e-06	1.721146e-07	1.709906e-09	1.154572e+00	1.108592e+02
2.470000e-06	1.157710e-07	1.578327e-09	7.766096e-01	1.023000e+02
2.480000e-06	5.939876e-08	1.446685e-09	3.984561e-01	9.368713e+01
2.490000e-06	3.066756e-09	1.317411e-09	2.057227e-02	8.504373e+01
2.500000e-06	-5.324141e-08	1.186796e-09	-3.571516e-01	7.638234e+01
2.510000e-06	-1.095013e-07	1.054303e-09	-7.345514e-01	6.770070e+01
2.520000e-06	-1.656962e-07	9.213121e-10	-1.111515e+00	5.898244e+01
2.530000e-06	-2.218045e-07	7.866468e-10	-1.487899e+00	5.020279e+01
2.540000e-06	-2.778297e-07	6.512759e-10	-1.863724e+00	4.133719e+01
2.550000e-06	-3.337938e-07	5.164505e-10	-2.239140e+00	3.236958e+01
2.560000e-06	-3.895976e-07	3.796463e-10	-2.613481e+00	2.329731e+01
2.570000e-06	-4.452389e-07	2.389182e-10	-2.986731e+00	1.413076e+01
2.580000e-06	-5.007688e-07	9.768475e-11	-3.359235e+00	4.888047e+00
2.590000e-06	-5.561850e-07	-4.088735e-11	-3.730975e+00	-4.412991e+00
2.600000e-06	-6.114957e-07	-1.815142e-10	-4.102008e+00	-1.376238e+01
2.610000e-06	-6.667338e-07	-3.277411e-10	-4.472554e+00	-2.316202e+01
2.620000e-06	-7.218648e-07	-4.751826e-10	-4.842381e+00	-3.262451e+01
2.630000e-06	-7.767955e-07	-6.211240e-10	-5.210864e+00	-4.216742e+01
2.640000e-06	-8.314380e-07	-7.664775e-10	-5.577415e+00	-5.180535e+01
2.650000e-06	-8.856788e-07	-9.133626e-10	-5.941270e+00	-6.154308e+01
2.660000e-06	-9.393635e-07	-1.063968e-09	-6.301396e+00	-7.137282e+01
2.670000e-06	-9.924770e-07	-1.215138e-09	-6.657690e+00	-8.127654e+01
2.680000e-06	-1.045029e-06	-1.366609e-09	-7.010215e+00	-9.123264e+01
2.690000e-06	-1.097018e-06	-1.519039e-09	-7.358967e+00	-1.012239e+02
2.700000e-06	-1.148524e-06	-1.672537e-09	-7.704474e+00	-1.112433e+02
2.710000e-06	-1.199623e-06	-1.827538e-09	-8.047254e+00	-1.212955e+02
2.720000e-06	-1.250394e-06	-1.982325e-09	-8.387838e+00	-1.313926e+02
2.730000e-06	-1.300747e-06	-2.136754e-09	-8.725615e+00	-1.415461e+02
2.740000e-06	-1.350583e-06	-2.292956e-09	-9.059922e+00	-1.517591e+02
2.750000e-06	-1.399885e-06	-2.449959e-09	-9.390645e+00	-1.620208e+02
2.760000e-06	-1.448549e-06	-2.604818e-09	-9.717092e+00	-1.723073e+02
2.770000e-06	-1.496384e-06	-2.759491e-09	-1.003797e+01	-1.825876e+02
2.780000e-06	-1.543341e-06	-2.915399e-09	-1.035297e+01	-1.928337e+02
2.790000e-06	-1.589605e-06	-3.072138e-09	-1.066332e+01	-2.030292e+02
2.800000e-06	-1.635412e-06	-3.228968e-09	-1.097060e+01	-2.131738e+02
2.810000e-06	-1.680877e-06	-3.384624e-09	-1.127558e+01	-2.232812e+02
2.820000e-06	-1.725911e-06	-3.540710e-09	-1.157768e+01	-2.333706e+02
2.830000e-06	-1.770338e-06	-3.696467e-09	-1.187570e+01	-2.434553e+02
2.840000e-06	-1.814169e-06	-3.847022e-09	-1.216973e+01	-2.535323e+02
2.850000e-06	-1.857558e-06	-3.993800e-09	-1.246079e+01	-2.635782e+02
2.860000e-06	-1.900505e-06	-4.142999e-09	-1.274888e+01	-2.735528e+02
2.870000e-06	-1.942818e-06	-4.294810e-09	-1.303272e+01	-2.834087e+02
2.880000e-06	-1.984412e-06	-4.446649e-09	-1.331175e+01	-2.931053e+02
2.890000e-06	-2.025390e-06	-4.596069e-09	-1.358663e+01	-3.026190e+02
2.900000e-06	-2.065713e-06	-4.741607e-09	-1.385712e+01	-3.119481e+02
2.910000e-06	-2.105361e-06	-4.883462e-09	-1.412308e+01	-3.211081e+02
2.920000e-06	-2.144402e-06	-5.020814e-09	-1.438498e+01	-3.301203e+02
2.930000e-06	-2.182599e-06	-5.152791e-09	-1.464121e+01	-3.389974e+02
2.940000e-06	-2.219664e-06	-5.281625e-09	-1.488985e+01	-3.477325e+02
