# Temperatura_=_21.31
# Concentracion g/m^3_=_18700.0
# C_Vs_to_Am_M_A/Vsm_=_65563218390.804596
# pendiente_HvsI_1/m_=_3716.3
# ordenada_HvsI_A/m_=_1297.0
# frecuencia_Hz_=_301070.088818143

Tiempo_(s)	Campo_(V.s)	Magnetizacion_(V.s)	Campo_(kA/m)	Magnetizacion_(A/m)
0.000000e+00	-2.948622e-06	-7.717195e-09	-1.977801e+01	-5.034758e+02
1.000000e-08	-2.948142e-06	-7.724156e-09	-1.977479e+01	-5.035858e+02
2.000000e-08	-2.946837e-06	-7.727536e-09	-1.976604e+01	-5.035650e+02
3.000000e-08	-2.944330e-06	-7.724010e-09	-1.974922e+01	-5.033773e+02
4.000000e-08	-2.940557e-06	-7.717471e-09	-1.972392e+01	-5.029857e+02
5.000000e-08	-2.935885e-06	-7.709261e-09	-1.969258e+01	-5.023684e+02
6.000000e-08	-2.930452e-06	-7.698048e-09	-1.965614e+01	-5.015282e+02
7.000000e-08	-2.924045e-06	-7.685214e-09	-1.961316e+01	-5.004935e+02
8.000000e-08	-2.916610e-06	-7.659063e-09	-1.956329e+01	-4.993090e+02
9.000000e-08	-2.908122e-06	-7.658689e-09	-1.950635e+01	-4.980192e+02
1.000000e-07	-2.898186e-06	-7.656760e-09	-1.943971e+01	-4.966515e+02
1.100000e-07	-2.886713e-06	-7.632727e-09	-1.936276e+01	-4.952048e+02
1.200000e-07	-2.874316e-06	-7.512379e-09	-1.927960e+01	-4.936484e+02
1.300000e-07	-2.861183e-06	-7.476960e-09	-1.919151e+01	-4.919323e+02
1.400000e-07	-2.846900e-06	-7.577291e-09	-1.909571e+01	-4.900054e+02
1.500000e-07	-2.831312e-06	-7.517688e-09	-1.899115e+01	-4.878358e+02
1.600000e-07	-2.814614e-06	-7.379999e-09	-1.887915e+01	-4.854241e+02
1.700000e-07	-2.796832e-06	-7.402978e-09	-1.875988e+01	-4.828074e+02
1.800000e-07	-2.778036e-06	-7.415883e-09	-1.863380e+01	-4.800491e+02
1.900000e-07	-2.758500e-06	-7.239684e-09	-1.850276e+01	-4.772201e+02
2.000000e-07	-2.738201e-06	-7.227814e-09	-1.836661e+01	-4.743761e+02
2.100000e-07	-2.716940e-06	-7.261862e-09	-1.822400e+01	-4.715395e+02
2.200000e-07	-2.694819e-06	-7.098555e-09	-1.807562e+01	-4.686914e+02
2.300000e-07	-2.671891e-06	-7.083328e-09	-1.792182e+01	-4.657776e+02
2.400000e-07	-2.648006e-06	-7.145954e-09	-1.776162e+01	-4.627247e+02
2.500000e-07	-2.623295e-06	-6.990738e-09	-1.759587e+01	-4.594623e+02
2.600000e-07	-2.597625e-06	-6.910817e-09	-1.742369e+01	-4.559436e+02
2.700000e-07	-2.570672e-06	-6.912362e-09	-1.724289e+01	-4.521573e+02
2.800000e-07	-2.542669e-06	-6.819905e-09	-1.705507e+01	-4.481286e+02
2.900000e-07	-2.513921e-06	-6.773487e-09	-1.686223e+01	-4.439080e+02
3.000000e-07	-2.484301e-06	-6.704380e-09	-1.666356e+01	-4.395549e+02
3.100000e-07	-2.453799e-06	-6.601775e-09	-1.645897e+01	-4.351191e+02
3.200000e-07	-2.422522e-06	-6.592404e-09	-1.624917e+01	-4.306289e+02
3.300000e-07	-2.390517e-06	-6.530438e-09	-1.603450e+01	-4.260867e+02
3.400000e-07	-2.357889e-06	-6.370888e-09	-1.581565e+01	-4.214743e+02
3.500000e-07	-2.324468e-06	-6.351479e-09	-1.559147e+01	-4.167641e+02
3.600000e-07	-2.289879e-06	-6.300771e-09	-1.535947e+01	-4.119314e+02
3.700000e-07	-2.254142e-06	-6.171297e-09	-1.511976e+01	-4.069635e+02
3.800000e-07	-2.217661e-06	-6.138036e-09	-1.487506e+01	-4.018627e+02
3.900000e-07	-2.180523e-06	-6.048514e-09	-1.462596e+01	-3.966429e+02
4.000000e-07	-2.142634e-06	-5.919985e-09	-1.437181e+01	-3.913221e+02
4.100000e-07	-2.103976e-06	-5.878641e-09	-1.411251e+01	-3.859142e+02
4.200000e-07	-2.064525e-06	-5.813943e-09	-1.384790e+01	-3.804233e+02
4.300000e-07	-2.024470e-06	-5.684384e-09	-1.357923e+01	-3.748433e+02
4.400000e-07	-1.983915e-06	-5.612506e-09	-1.330720e+01	-3.691613e+02
4.500000e-07	-1.942681e-06	-5.539582e-09	-1.303062e+01	-3.633643e+02
4.600000e-07	-1.900547e-06	-5.437329e-09	-1.274800e+01	-3.574451e+02
4.700000e-07	-1.857413e-06	-5.338504e-09	-1.245868e+01	-3.514058e+02
4.800000e-07	-1.813453e-06	-5.240616e-09	-1.216382e+01	-3.452572e+02
4.900000e-07	-1.768914e-06	-5.151865e-09	-1.186507e+01	-3.390142e+02
5.000000e-07	-1.723829e-06	-5.067619e-09	-1.156266e+01	-3.326907e+02
5.100000e-07	-1.678113e-06	-4.970829e-09	-1.125602e+01	-3.262945e+02
5.200000e-07	-1.631825e-06	-4.857637e-09	-1.094554e+01	-3.198253e+02
5.300000e-07	-1.585022e-06	-4.767036e-09	-1.063160e+01	-3.132764e+02
5.400000e-07	-1.537677e-06	-4.665775e-09	-1.031403e+01	-3.066391e+02
5.500000e-07	-1.489800e-06	-4.561575e-09	-9.992897e+00	-2.999072e+02
5.600000e-07	-1.441495e-06	-4.456203e-09	-9.668893e+00	-2.930813e+02
5.700000e-07	-1.392718e-06	-4.341761e-09	-9.341715e+00	-2.861689e+02
5.800000e-07	-1.343237e-06	-4.237028e-09	-9.009821e+00	-2.791817e+02
5.900000e-07	-1.292979e-06	-4.142075e-09	-8.672716e+00	-2.721313e+02
6.000000e-07	-1.241988e-06	-4.032987e-09	-8.330690e+00	-2.650239e+02
6.100000e-07	-1.190382e-06	-3.913447e-09	-7.984543e+00	-2.578575e+02
6.200000e-07	-1.138291e-06	-3.810056e-09	-7.635141e+00	-2.506220e+02
6.300000e-07	-1.085806e-06	-3.699754e-09	-7.283092e+00	-2.433027e+02
6.400000e-07	-1.033003e-06	-3.583977e-09	-6.928915e+00	-2.358855e+02
6.500000e-07	-9.798394e-07	-3.462504e-09	-6.572317e+00	-2.283628e+02
6.600000e-07	-9.262693e-07	-3.345431e-09	-6.212992e+00	-2.207363e+02
6.700000e-07	-8.723357e-07	-3.234007e-09	-5.851231e+00	-2.130181e+02
6.800000e-07	-8.181156e-07	-3.121720e-09	-5.487547e+00	-2.052265e+02
6.900000e-07	-7.637237e-07	-3.002712e-09	-5.122710e+00	-1.973816e+02
7.000000e-07	-7.091762e-07	-2.877099e-09	-4.756831e+00	-1.894990e+02
7.100000e-07	-6.543851e-07	-2.755479e-09	-4.389317e+00	-1.815856e+02
7.200000e-07	-5.993103e-07	-2.629966e-09	-4.019900e+00	-1.736384e+02
7.300000e-07	-5.439417e-07	-2.505515e-09	-3.648513e+00	-1.656464e+02
7.400000e-07	-4.883021e-07	-2.379067e-09	-3.275308e+00	-1.575945e+02
7.500000e-07	-4.324387e-07	-2.257149e-09	-2.900602e+00	-1.494684e+02
7.600000e-07	-3.764429e-07	-2.139282e-09	-2.525008e+00	-1.412587e+02
7.700000e-07	-3.203630e-07	-2.018666e-09	-2.148849e+00	-1.329630e+02
7.800000e-07	-2.642062e-07	-1.889343e-09	-1.772175e+00	-1.245852e+02
7.900000e-07	-2.080053e-07	-1.754385e-09	-1.395205e+00	-1.161335e+02
8.000000e-07	-1.517447e-07	-1.622433e-09	-1.017835e+00	-1.076169e+02
8.100000e-07	-9.547962e-08	-1.487670e-09	-6.404338e-01	-9.904244e+01
8.200000e-07	-3.923602e-08	-1.354225e-09	-2.631774e-01	-9.041355e+01
8.300000e-07	1.701481e-08	-1.222414e-09	1.141276e-01	-8.173037e+01
8.400000e-07	7.327966e-08	-1.094477e-09	4.915266e-01	-7.299108e+01
8.500000e-07	1.295388e-07	-9.641895e-10	8.688871e-01	-6.419396e+01
8.600000e-07	1.857542e-07	-8.286780e-10	1.245954e+00	-5.533887e+01
8.700000e-07	2.419223e-07	-6.910236e-10	1.622704e+00	-4.642770e+01
8.800000e-07	2.980544e-07	-5.526650e-10	1.999213e+00	-3.746349e+01
8.900000e-07	3.541133e-07	-4.140900e-10	2.375231e+00	-2.844861e+01
9.000000e-07	4.101045e-07	-2.719226e-10	2.750794e+00	-1.938285e+01
9.100000e-07	4.659893e-07	-1.308911e-10	3.125644e+00	-1.026216e+01
9.200000e-07	5.216189e-07	8.921364e-12	3.498782e+00	-1.078856e+00
9.300000e-07	5.770136e-07	1.457131e-10	3.870345e+00	8.176767e+00
9.400000e-07	6.322169e-07	2.851790e-10	4.240623e+00	1.751375e+01
9.500000e-07	6.871620e-07	4.289977e-10	4.609170e+00	2.693764e+01
9.600000e-07	7.418564e-07	5.762038e-10	4.976035e+00	3.644854e+01
9.700000e-07	7.963799e-07	7.242058e-10	5.341753e+00	4.604082e+01
9.800000e-07	8.506917e-07	8.714388e-10	5.706052e+00	5.570462e+01
9.900000e-07	9.047363e-07	1.022194e-09	6.068559e+00	6.542898e+01
1.000000e-06	9.584549e-07	1.172911e-09	6.428879e+00	7.520527e+01
1.010000e-06	1.011783e-06	1.321269e-09	6.786580e+00	8.502994e+01
1.020000e-06	1.064701e-06	1.467832e-09	7.141527e+00	9.490536e+01
1.030000e-06	1.117206e-06	1.619168e-09	7.493708e+00	1.048384e+02
1.040000e-06	1.169307e-06	1.774056e-09	7.843177e+00	1.148371e+02
1.050000e-06	1.220891e-06	1.928897e-09	8.189182e+00	1.249060e+02
1.060000e-06	1.271831e-06	2.083171e-09	8.530861e+00	1.350427e+02
1.070000e-06	1.322011e-06	2.239634e-09	8.867450e+00	1.452358e+02
1.080000e-06	1.371416e-06	2.396870e-09	9.198834e+00	1.554667e+02
1.090000e-06	1.420221e-06	2.553754e-09	9.526197e+00	1.657128e+02
1.100000e-06	1.468645e-06	2.709794e-09	9.851001e+00	1.759531e+02
1.110000e-06	1.516702e-06	2.863528e-09	1.017334e+01	1.861738e+02
1.120000e-06	1.564256e-06	3.017596e-09	1.049232e+01	1.963702e+02
1.130000e-06	1.611231e-06	3.173053e-09	1.080740e+01	2.065473e+02
1.140000e-06	1.657674e-06	3.328802e-09	1.111893e+01	2.167146e+02
1.150000e-06	1.703603e-06	3.483307e-09	1.142700e+01	2.268806e+02
1.160000e-06	1.748899e-06	3.638870e-09	1.173081e+01	2.370458e+02
1.170000e-06	1.793599e-06	3.796229e-09	1.203065e+01	2.471986e+02
1.180000e-06	1.837888e-06	3.951850e-09	1.232771e+01	2.573150e+02
1.190000e-06	1.881702e-06	4.104397e-09	1.262160e+01	2.673624e+02
1.200000e-06	1.924751e-06	4.254488e-09	1.291035e+01	2.773068e+02
1.210000e-06	1.966772e-06	4.403522e-09	1.319221e+01	2.871205e+02
1.220000e-06	2.007835e-06	4.550381e-09	1.346764e+01	2.967876e+02
1.230000e-06	2.048268e-06	4.693564e-09	1.373885e+01	3.063050e+02
1.240000e-06	2.088149e-06	4.834809e-09	1.400635e+01	3.156792e+02
1.250000e-06	2.127344e-06	4.975908e-09	1.426925e+01	3.249180e+02
1.260000e-06	2.165805e-06	5.116281e-09	1.452724e+01	3.340224e+02
1.270000e-06	2.203508e-06	5.253019e-09	1.478013e+01	3.429798e+02
1.280000e-06	2.240467e-06	5.385031e-09	1.502803e+01	3.517627e+02
1.290000e-06	2.276831e-06	5.512887e-09	1.527195e+01	3.603329e+02
1.300000e-06	2.312515e-06	5.638970e-09	1.551130e+01	3.686494e+02
1.310000e-06	2.347198e-06	5.759097e-09	1.574394e+01	3.766794e+02
1.320000e-06	2.380714e-06	5.873577e-09	1.596874e+01	3.844060e+02
1.330000e-06	2.413275e-06	5.985123e-09	1.618715e+01	3.918314e+02
1.340000e-06	2.445129e-06	6.094108e-09	1.640081e+01	3.989735e+02
1.350000e-06	2.476228e-06	6.199155e-09	1.660941e+01	4.058581e+02
1.360000e-06	2.506547e-06	6.297765e-09	1.681278e+01	4.125077e+02
1.370000e-06	2.536016e-06	6.392957e-09	1.701044e+01	4.189340e+02
1.380000e-06	2.564658e-06	6.486457e-09	1.720256e+01	4.251335e+02
1.390000e-06	2.592612e-06	6.576158e-09	1.739006e+01	4.310913e+02
1.400000e-06	2.619581e-06	6.660203e-09	1.757096e+01	4.367888e+02
1.410000e-06	2.645242e-06	6.739769e-09	1.774308e+01	4.422138e+02
1.420000e-06	2.669818e-06	6.815871e-09	1.790793e+01	4.473683e+02
1.430000e-06	2.693512e-06	6.889458e-09	1.806685e+01	4.522704e+02
1.440000e-06	2.716272e-06	6.961036e-09	1.821951e+01	4.569494e+02
1.450000e-06	2.738098e-06	7.030693e-09	1.836591e+01	4.614363e+02
1.460000e-06	2.759061e-06	7.097064e-09	1.850653e+01	4.657515e+02
1.470000e-06	2.779318e-06	7.159632e-09	1.864240e+01	4.698965e+02
1.480000e-06	2.798748e-06	7.218267e-09	1.877273e+01	4.738516e+02
1.490000e-06	2.817088e-06	7.271954e-09	1.889574e+01	4.775816e+02
1.500000e-06	2.834398e-06	7.321005e-09	1.901185e+01	4.810478e+02
1.510000e-06	2.850701e-06	7.365509e-09	1.912121e+01	4.842214e+02
1.520000e-06	2.865864e-06	7.407180e-09	1.922291e+01	4.870945e+02
1.530000e-06	2.879918e-06	7.445951e-09	1.931718e+01	4.896835e+02
1.540000e-06	2.892938e-06	7.482139e-09	1.940451e+01	4.920239e+02
1.550000e-06	2.904854e-06	7.513937e-09	1.948444e+01	4.941591e+02
1.560000e-06	2.915469e-06	7.541741e-09	1.955564e+01	4.961254e+02
1.570000e-06	2.924740e-06	7.567987e-09	1.961782e+01	4.979418e+02
1.580000e-06	2.932970e-06	7.591976e-09	1.967303e+01	4.996052e+02
1.590000e-06	2.940336e-06	7.613004e-09	1.972243e+01	5.010951e+02
1.600000e-06	2.946742e-06	7.629761e-09	1.976540e+01	5.023848e+02
1.610000e-06	2.952118e-06	7.644365e-09	1.980147e+01	5.034546e+02
1.620000e-06	2.956620e-06	7.658145e-09	1.983166e+01	5.043027e+02
1.630000e-06	2.960214e-06	7.668619e-09	1.985577e+01	5.049471e+02
1.640000e-06	2.962490e-06	7.676011e-09	1.987103e+01	5.054209e+02
1.650000e-06	2.963504e-06	7.681739e-09	1.987783e+01	5.057595e+02
1.660000e-06	2.963603e-06	7.686366e-09	1.987850e+01	5.059869e+02
1.670000e-06	2.962782e-06	7.688706e-09	1.987299e+01	5.061060e+02
1.680000e-06	2.961034e-06	7.684560e-09	1.986127e+01	5.060966e+02
1.690000e-06	2.958369e-06	7.677890e-09	1.984339e+01	5.059230e+02
1.700000e-06	2.954903e-06	7.669677e-09	1.982014e+01	5.055478e+02
1.710000e-06	2.950563e-06	7.660582e-09	1.979103e+01	5.049478e+02
1.720000e-06	2.945022e-06	7.648820e-09	1.975387e+01	5.041237e+02
1.730000e-06	2.938335e-06	7.637605e-09	1.970901e+01	5.031025e+02
1.740000e-06	2.930760e-06	7.632154e-09	1.965820e+01	5.019280e+02
1.750000e-06	2.922135e-06	7.574584e-09	1.960035e+01	5.006454e+02
1.760000e-06	2.911892e-06	7.516330e-09	1.953164e+01	4.992839e+02
1.770000e-06	2.900091e-06	7.567237e-09	1.945249e+01	4.978444e+02
1.780000e-06	2.887691e-06	7.605206e-09	1.936932e+01	4.962983e+02
1.790000e-06	2.875166e-06	7.526109e-09	1.928530e+01	4.945962e+02
1.800000e-06	2.861519e-06	7.390269e-09	1.919377e+01	4.926868e+02
1.810000e-06	2.846039e-06	7.498223e-09	1.908993e+01	4.905358e+02
1.820000e-06	2.829711e-06	7.499534e-09	1.898041e+01	4.881414e+02
1.830000e-06	2.812884e-06	7.280741e-09	1.886755e+01	4.855384e+02
1.840000e-06	2.794748e-06	7.318999e-09	1.874590e+01	4.827887e+02
1.850000e-06	2.775519e-06	7.378979e-09	1.861692e+01	4.799635e+02
1.860000e-06	2.755692e-06	7.203217e-09	1.848393e+01	4.771203e+02
1.870000e-06	2.734616e-06	7.179985e-09	1.834256e+01	4.742842e+02
1.880000e-06	2.712061e-06	7.279982e-09	1.819127e+01	4.714393e+02
1.890000e-06	2.688685e-06	7.101175e-09	1.803448e+01	4.685334e+02
1.900000e-06	2.664408e-06	7.009680e-09	1.787164e+01	4.654938e+02
1.910000e-06	2.639183e-06	7.105388e-09	1.770244e+01	4.622492e+02
1.920000e-06	2.613309e-06	6.996847e-09	1.752888e+01	4.587505e+02
1.930000e-06	2.586589e-06	6.897058e-09	1.734966e+01	4.549839e+02
1.940000e-06	2.559086e-06	6.913572e-09	1.716519e+01	4.509719e+02
1.950000e-06	2.530808e-06	6.778235e-09	1.697551e+01	4.467639e+02
1.960000e-06	2.501176e-06	6.758052e-09	1.677675e+01	4.424193e+02
1.970000e-06	2.470273e-06	6.706105e-09	1.656947e+01	4.379891e+02
1.980000e-06	2.438631e-06	6.520639e-09	1.635722e+01	4.335034e+02
1.990000e-06	2.406186e-06	6.555938e-09	1.613960e+01	4.289662e+02
2.000000e-06	2.372946e-06	6.522819e-09	1.591664e+01	4.243606e+02
2.010000e-06	2.339002e-06	6.334327e-09	1.568896e+01	4.196592e+02
2.020000e-06	2.304250e-06	6.337601e-09	1.545586e+01	4.148367e+02
2.030000e-06	2.268862e-06	6.267062e-09	1.521850e+01	4.098795e+02
2.040000e-06	2.232730e-06	6.111461e-09	1.497613e+01	4.047887e+02
2.050000e-06	2.195403e-06	6.123847e-09	1.472576e+01	3.995777e+02
2.060000e-06	2.157025e-06	6.023698e-09	1.446834e+01	3.942645e+02
2.070000e-06	2.117937e-06	5.889954e-09	1.420616e+01	3.888634e+02
2.080000e-06	2.078259e-06	5.861863e-09	1.394001e+01	3.833795e+02
2.090000e-06	2.037947e-06	5.763360e-09	1.366962e+01	3.778071e+02
2.100000e-06	1.996896e-06	5.664784e-09	1.339427e+01	3.721338e+02
2.110000e-06	1.955222e-06	5.582357e-09	1.311474e+01	3.663462e+02
2.120000e-06	1.912915e-06	5.485352e-09	1.283096e+01	3.604367e+02
2.130000e-06	1.869914e-06	5.418961e-09	1.254253e+01	3.544066e+02
2.140000e-06	1.826433e-06	5.318890e-09	1.225088e+01	3.482662e+02
2.150000e-06	1.782497e-06	5.206233e-09	1.195618e+01	3.420304e+02
2.160000e-06	1.737928e-06	5.116933e-09	1.165723e+01	3.357132e+02
2.170000e-06	1.692618e-06	5.020480e-09	1.135331e+01	3.293230e+02
2.180000e-06	1.646644e-06	4.930814e-09	1.104494e+01	3.228601e+02
2.190000e-06	1.600240e-06	4.821164e-09	1.073368e+01	3.163181e+02
2.200000e-06	1.553376e-06	4.718840e-09	1.041934e+01	3.096882e+02
2.210000e-06	1.505894e-06	4.622395e-09	1.010085e+01	3.029641e+02
2.220000e-06	1.457623e-06	4.513084e-09	9.777068e+00	2.961456e+02
2.230000e-06	1.408619e-06	4.425527e-09	9.448375e+00	2.892399e+02
2.240000e-06	1.359206e-06	4.305266e-09	9.116933e+00	2.822585e+02
2.250000e-06	1.309395e-06	4.190835e-09	8.782825e+00	2.752132e+02
2.260000e-06	1.259067e-06	4.101999e-09	8.445245e+00	2.681108e+02
2.270000e-06	1.208220e-06	3.984389e-09	8.104188e+00	2.609498e+02
2.280000e-06	1.156958e-06	3.866747e-09	7.760346e+00	2.537206e+02
2.290000e-06	1.105372e-06	3.753905e-09	7.414331e+00	2.464087e+02
2.300000e-06	1.053318e-06	3.644238e-09	7.065179e+00	2.389997e+02
2.310000e-06	1.000644e-06	3.541809e-09	6.711862e+00	2.314855e+02
2.320000e-06	9.473556e-07	3.423582e-09	6.354430e+00	2.238671e+02
2.330000e-06	8.934279e-07	3.301338e-09	5.992707e+00	2.161557e+02
2.340000e-06	8.389975e-07	3.182137e-09	5.627613e+00	2.083696e+02
2.350000e-06	7.842391e-07	3.058926e-09	5.260319e+00	2.005289e+02
2.360000e-06	7.291992e-07	2.940376e-09	4.891136e+00	1.926495e+02
2.370000e-06	6.739651e-07	2.816850e-09	4.520651e+00	1.847391e+02
2.380000e-06	6.186246e-07	2.699860e-09	4.149452e+00	1.767955e+02
2.390000e-06	5.632097e-07	2.585567e-09	3.777754e+00	1.688082e+02
2.400000e-06	5.077129e-07	2.465188e-09	3.405507e+00	1.607620e+02
2.410000e-06	4.520998e-07	2.342615e-09	3.032479e+00	1.526425e+02
2.420000e-06	3.963154e-07	2.210045e-09	2.658303e+00	1.444398e+02
2.430000e-06	3.404145e-07	2.082633e-09	2.283346e+00	1.361510e+02
2.440000e-06	2.844179e-07	1.957118e-09	1.907746e+00	1.277798e+02
2.450000e-06	2.282793e-07	1.828395e-09	1.531194e+00	1.193339e+02
2.460000e-06	1.720252e-07	1.701108e-09	1.153866e+00	1.108226e+02
2.470000e-06	1.156793e-07	1.571438e-09	7.759238e-01	1.022530e+02
2.480000e-06	5.932481e-08	1.442384e-09	3.979238e-01	9.362889e+01
2.490000e-06	2.978814e-09	1.311438e-09	1.998053e-02	8.495054e+01
2.500000e-06	-5.337709e-08	1.177948e-09	-3.580292e-01	7.621623e+01
2.510000e-06	-1.097187e-07	1.043718e-09	-7.359432e-01	6.742417e+01
2.520000e-06	-1.660230e-07	9.073630e-10	-1.113606e+00	5.857408e+01
2.530000e-06	-2.222081e-07	7.685858e-10	-1.490471e+00	4.966772e+01
2.540000e-06	-2.782897e-07	6.312304e-10	-1.866641e+00	4.070810e+01
2.550000e-06	-3.342531e-07	4.955289e-10	-2.242018e+00	3.169772e+01
2.560000e-06	-3.900651e-07	3.607610e-10	-2.616379e+00	2.263658e+01
2.570000e-06	-4.457585e-07	2.229643e-10	-2.989945e+00	1.352094e+01
2.580000e-06	-5.013516e-07	8.253172e-11	-3.362838e+00	4.343317e+00
2.590000e-06	-5.568552e-07	-5.738422e-11	-3.735131e+00	-4.905914e+00
2.600000e-06	-6.122530e-07	-2.000161e-10	-4.106715e+00	-1.423594e+01
2.610000e-06	-6.675532e-07	-3.443346e-10	-4.477643e+00	-2.365265e+01
2.620000e-06	-7.227157e-07	-4.900315e-10	-4.847648e+00	-3.315656e+01
2.630000e-06	-7.776609e-07	-6.357933e-10	-5.216195e+00	-4.274241e+01
2.640000e-06	-8.322687e-07	-7.830109e-10	-5.582479e+00	-5.240057e+01
2.650000e-06	-8.864384e-07	-9.315830e-10	-5.945825e+00	-6.212004e+01
2.660000e-06	-9.401136e-07	-1.081194e-09	-6.305854e+00	-7.189191e+01
2.670000e-06	-9.932197e-07	-1.229542e-09	-6.662065e+00	-8.171220e+01
2.680000e-06	-1.045728e-06	-1.376619e-09	-7.014267e+00	-9.158291e+01
2.690000e-06	-1.097691e-06	-1.526394e-09	-7.362813e+00	-1.015107e+02
2.700000e-06	-1.149242e-06	-1.679443e-09	-7.708595e+00	-1.115036e+02
2.710000e-06	-1.200446e-06	-1.835060e-09	-8.052042e+00	-1.215665e+02
2.720000e-06	-1.251236e-06	-1.991004e-09	-8.392723e+00	-1.316977e+02
2.730000e-06	-1.301518e-06	-2.147914e-09	-8.729989e+00	-1.418865e+02
2.740000e-06	-1.351296e-06	-2.304158e-09	-9.063878e+00	-1.521145e+02
2.750000e-06	-1.400608e-06	-2.458525e-09	-9.394639e+00	-1.623593e+02
2.760000e-06	-1.449274e-06	-2.611008e-09	-9.721073e+00	-1.725998e+02
2.770000e-06	-1.497097e-06	-2.764200e-09	-1.004184e+01	-1.828212e+02
2.780000e-06	-1.544066e-06	-2.920524e-09	-1.035689e+01	-1.930184e+02
2.790000e-06	-1.590351e-06	-3.077568e-09	-1.066735e+01	-2.031956e+02
2.800000e-06	-1.636186e-06	-3.235351e-09	-1.097479e+01	-2.133624e+02
2.810000e-06	-1.681641e-06	-3.392818e-09	-1.127968e+01	-2.235274e+02
2.820000e-06	-1.726646e-06	-3.548129e-09	-1.158156e+01	-2.336920e+02
2.830000e-06	-1.771089e-06	-3.701309e-09	-1.187966e+01	-2.438455e+02
2.840000e-06	-1.814963e-06	-3.852123e-09	-1.217394e+01	-2.539646e+02
2.850000e-06	-1.858358e-06	-4.002563e-09	-1.246502e+01	-2.640172e+02
2.860000e-06	-1.901263e-06	-4.155288e-09	-1.275280e+01	-2.739691e+02
2.870000e-06	-1.943567e-06	-4.307494e-09	-1.303656e+01	-2.837919e+02
2.880000e-06	-1.985178e-06	-4.457750e-09	-1.331567e+01	-2.934688e+02
2.890000e-06	-2.026129e-06	-4.605302e-09	-1.359035e+01	-3.029959e+02
2.900000e-06	-2.066409e-06	-4.749133e-09	-1.386053e+01	-3.123791e+02
2.910000e-06	-2.106023e-06	-4.890743e-09	-1.412624e+01	-3.216265e+02
2.920000e-06	-2.145078e-06	-5.029535e-09	-1.438821e+01	-3.307398e+02
2.930000e-06	-2.183310e-06	-5.165126e-09	-1.464465e+01	-3.397075e+02
2.940000e-06	-2.220430e-06	-5.298487e-09	-1.489363e+01	-3.485032e+02
