# Temperatura_=_17.06
# Concentracion g/m^3_=_18700.0
# C_Vs_to_Am_M_A/Vsm_=_65563218390.804596
# pendiente_HvsI_1/m_=_3716.3
# ordenada_HvsI_A/m_=_1297.0
# frecuencia_Hz_=_301074.15394877095

Tiempo_(s)	Campo_(V.s)	Magnetizacion_(V.s)	Campo_(kA/m)	Magnetizacion_(A/m)
0.000000e+00	-2.947981e-06	-7.516108e-09	-1.977661e+01	-4.905917e+02
1.000000e-08	-2.947359e-06	-7.517590e-09	-1.977244e+01	-4.906241e+02
2.000000e-08	-2.945933e-06	-7.517606e-09	-1.976288e+01	-4.905011e+02
3.000000e-08	-2.943272e-06	-7.516128e-09	-1.974502e+01	-4.902050e+02
4.000000e-08	-2.939363e-06	-7.512673e-09	-1.971880e+01	-4.897205e+02
5.000000e-08	-2.934642e-06	-7.504125e-09	-1.968713e+01	-4.890410e+02
6.000000e-08	-2.929109e-06	-7.489925e-09	-1.965002e+01	-4.881728e+02
7.000000e-08	-2.922591e-06	-7.474485e-09	-1.960629e+01	-4.871347e+02
8.000000e-08	-2.915045e-06	-7.458142e-09	-1.955567e+01	-4.859530e+02
9.000000e-08	-2.906350e-06	-7.450064e-09	-1.949733e+01	-4.846529e+02
1.000000e-07	-2.896195e-06	-7.430968e-09	-1.942921e+01	-4.832504e+02
1.100000e-07	-2.884592e-06	-7.394988e-09	-1.935137e+01	-4.817457e+02
1.200000e-07	-2.872091e-06	-7.325570e-09	-1.926751e+01	-4.801224e+02
1.300000e-07	-2.858869e-06	-7.305221e-09	-1.917880e+01	-4.783523e+02
1.400000e-07	-2.844526e-06	-7.320404e-09	-1.908259e+01	-4.764056e+02
1.500000e-07	-2.829029e-06	-7.293950e-09	-1.897862e+01	-4.742617e+02
1.600000e-07	-2.812470e-06	-7.207255e-09	-1.886754e+01	-4.719185e+02
1.700000e-07	-2.794616e-06	-7.183263e-09	-1.874777e+01	-4.693964e+02
1.800000e-07	-2.775709e-06	-7.172620e-09	-1.862092e+01	-4.667344e+02
1.900000e-07	-2.756124e-06	-7.062294e-09	-1.848954e+01	-4.639802e+02
2.000000e-07	-2.735726e-06	-7.030704e-09	-1.835270e+01	-4.611758e+02
2.100000e-07	-2.714342e-06	-7.009954e-09	-1.820924e+01	-4.583444e+02
2.200000e-07	-2.692094e-06	-6.925235e-09	-1.805999e+01	-4.554816e+02
2.300000e-07	-2.669018e-06	-6.902064e-09	-1.790519e+01	-4.525551e+02
2.400000e-07	-2.645046e-06	-6.899592e-09	-1.774437e+01	-4.495120e+02
2.500000e-07	-2.620322e-06	-6.795159e-09	-1.757851e+01	-4.462937e+02
2.600000e-07	-2.594645e-06	-6.723419e-09	-1.740625e+01	-4.428517e+02
2.700000e-07	-2.567603e-06	-6.695408e-09	-1.722484e+01	-4.391609e+02
2.800000e-07	-2.539442e-06	-6.633564e-09	-1.703592e+01	-4.352265e+02
2.900000e-07	-2.510513e-06	-6.565233e-09	-1.684185e+01	-4.310809e+02
3.000000e-07	-2.480755e-06	-6.506725e-09	-1.664222e+01	-4.267742e+02
3.100000e-07	-2.450194e-06	-6.429910e-09	-1.643720e+01	-4.223590e+02
3.200000e-07	-2.418924e-06	-6.384576e-09	-1.622742e+01	-4.178760e+02
3.300000e-07	-2.386883e-06	-6.322631e-09	-1.601247e+01	-4.133444e+02
3.400000e-07	-2.354157e-06	-6.198557e-09	-1.579293e+01	-4.087596e+02
3.500000e-07	-2.320665e-06	-6.152999e-09	-1.556825e+01	-4.040981e+02
3.600000e-07	-2.286028e-06	-6.103348e-09	-1.533588e+01	-3.993287e+02
3.700000e-07	-2.250250e-06	-6.005079e-09	-1.509587e+01	-3.944238e+02
3.800000e-07	-2.213692e-06	-5.932451e-09	-1.485062e+01	-3.893694e+02
3.900000e-07	-2.176492e-06	-5.855733e-09	-1.460106e+01	-3.841685e+02
4.000000e-07	-2.138553e-06	-5.754801e-09	-1.434655e+01	-3.788385e+02
4.100000e-07	-2.099811e-06	-5.690170e-09	-1.408665e+01	-3.734040e+02
4.200000e-07	-2.060268e-06	-5.616135e-09	-1.382137e+01	-3.678875e+02
4.300000e-07	-2.020069e-06	-5.507043e-09	-1.355169e+01	-3.623015e+02
4.400000e-07	-1.979413e-06	-5.428418e-09	-1.327895e+01	-3.566455e+02
4.500000e-07	-1.938142e-06	-5.351697e-09	-1.300208e+01	-3.509072e+02
4.600000e-07	-1.895933e-06	-5.257999e-09	-1.271892e+01	-3.450688e+02
4.700000e-07	-1.852665e-06	-5.156491e-09	-1.242866e+01	-3.391140e+02
4.800000e-07	-1.808545e-06	-5.065469e-09	-1.213268e+01	-3.330341e+02
4.900000e-07	-1.763944e-06	-4.976550e-09	-1.183347e+01	-3.268308e+02
5.000000e-07	-1.718903e-06	-4.886981e-09	-1.153131e+01	-3.205151e+02
5.100000e-07	-1.673240e-06	-4.783996e-09	-1.122498e+01	-3.141023e+02
5.200000e-07	-1.626967e-06	-4.676920e-09	-1.091455e+01	-3.076070e+02
5.300000e-07	-1.580134e-06	-4.585684e-09	-1.060038e+01	-3.010381e+02
5.400000e-07	-1.532668e-06	-4.488199e-09	-1.028195e+01	-2.943973e+02
5.500000e-07	-1.484656e-06	-4.382818e-09	-9.959855e+00	-2.876803e+02
5.600000e-07	-1.436264e-06	-4.274658e-09	-9.635217e+00	-2.808808e+02
5.700000e-07	-1.387501e-06	-4.169400e-09	-9.308091e+00	-2.739945e+02
5.800000e-07	-1.338190e-06	-4.060111e-09	-8.977289e+00	-2.670217e+02
5.900000e-07	-1.288098e-06	-3.954811e-09	-8.641244e+00	-2.599681e+02
6.000000e-07	-1.237137e-06	-3.843190e-09	-8.299372e+00	-2.528420e+02
6.100000e-07	-1.185468e-06	-3.730070e-09	-7.952745e+00	-2.456508e+02
6.200000e-07	-1.133329e-06	-3.626231e-09	-7.602971e+00	-2.383979e+02
6.300000e-07	-1.080875e-06	-3.517726e-09	-7.251080e+00	-2.310809e+02
6.400000e-07	-1.028130e-06	-3.402888e-09	-6.897243e+00	-2.236928e+02
6.500000e-07	-9.750032e-07	-3.283368e-09	-6.540837e+00	-2.162253e+02
6.600000e-07	-9.214358e-07	-3.168552e-09	-6.181479e+00	-2.086736e+02
6.700000e-07	-8.674658e-07	-3.054146e-09	-5.819420e+00	-2.010393e+02
6.800000e-07	-8.132117e-07	-2.939503e-09	-5.455455e+00	-1.933316e+02
6.900000e-07	-7.587772e-07	-2.819359e-09	-5.090279e+00	-1.855656e+02
7.000000e-07	-7.041479e-07	-2.699800e-09	-4.723797e+00	-1.777578e+02
7.100000e-07	-6.492917e-07	-2.582148e-09	-4.355792e+00	-1.699211e+02
7.200000e-07	-5.942172e-07	-2.458841e-09	-3.986323e+00	-1.620603e+02
7.300000e-07	-5.388447e-07	-2.333340e-09	-3.614855e+00	-1.541713e+02
7.400000e-07	-4.831816e-07	-2.208437e-09	-3.241438e+00	-1.462421e+02
7.500000e-07	-4.273583e-07	-2.088952e-09	-2.866946e+00	-1.382570e+02
7.600000e-07	-3.713670e-07	-1.970068e-09	-2.491326e+00	-1.302022e+02
7.700000e-07	-3.152169e-07	-1.849304e-09	-2.114642e+00	-1.220696e+02
7.800000e-07	-2.589733e-07	-1.721938e-09	-1.737330e+00	-1.138591e+02
7.900000e-07	-2.026848e-07	-1.592306e-09	-1.359717e+00	-1.055779e+02
8.000000e-07	-1.463554e-07	-1.461518e-09	-9.818293e-01	-9.723698e+01
8.100000e-07	-8.997824e-08	-1.327926e-09	-6.036216e-01	-8.884761e+01
8.200000e-07	-3.359235e-08	-1.196297e-09	-2.253553e-01	-8.041734e+01
8.300000e-07	2.277853e-08	-1.069122e-09	1.528104e-01	-7.194844e+01
8.400000e-07	7.912123e-08	-9.460232e-10	5.307871e-01	-6.343839e+01
8.500000e-07	1.354140e-07	-8.188184e-10	9.084287e-01	-5.488203e+01
8.600000e-07	1.916841e-07	-6.863449e-10	1.285918e+00	-4.627440e+01
8.700000e-07	2.479542e-07	-5.510190e-10	1.663408e+00	-3.761284e+01
8.800000e-07	3.041933e-07	-4.170146e-10	2.040690e+00	-2.889759e+01
8.900000e-07	3.603508e-07	-2.816162e-10	2.417424e+00	-2.013079e+01
9.000000e-07	4.163507e-07	-1.442234e-10	2.793101e+00	-1.131442e+01
9.100000e-07	4.721694e-07	-8.494068e-12	3.167562e+00	-2.448296e+00
9.200000e-07	5.277972e-07	1.252681e-10	3.540743e+00	6.470976e+00
9.300000e-07	5.831906e-07	2.587061e-10	3.912351e+00	1.544944e+01
9.400000e-07	6.383423e-07	3.958687e-10	4.282338e+00	2.449392e+01
9.500000e-07	6.932615e-07	5.343769e-10	4.650765e+00	3.360965e+01
9.600000e-07	7.479498e-07	6.757816e-10	5.017643e+00	4.279826e+01
9.700000e-07	8.024338e-07	8.188855e-10	5.383151e+00	5.205723e+01
9.800000e-07	8.567359e-07	9.622571e-10	5.747438e+00	6.138079e+01
9.900000e-07	9.107436e-07	1.105860e-09	6.109750e+00	7.076201e+01
1.000000e-06	9.643092e-07	1.250658e-09	6.469096e+00	8.019512e+01
1.010000e-06	1.017451e-06	1.394817e-09	6.825601e+00	8.967694e+01
1.020000e-06	1.070226e-06	1.537845e-09	7.179643e+00	9.920697e+01
1.030000e-06	1.122642e-06	1.683814e-09	7.531274e+00	1.087858e+02
1.040000e-06	1.174685e-06	1.830586e-09	7.880406e+00	1.184130e+02
1.050000e-06	1.226220e-06	1.977830e-09	8.226134e+00	1.280847e+02
1.060000e-06	1.277028e-06	2.125239e-09	8.566981e+00	1.377933e+02
1.070000e-06	1.327047e-06	2.275069e-09	8.902536e+00	1.475276e+02
1.080000e-06	1.376361e-06	2.424588e-09	9.233356e+00	1.572758e+02
1.090000e-06	1.425133e-06	2.572552e-09	9.560549e+00	1.670280e+02
1.100000e-06	1.473511e-06	2.719090e-09	9.885091e+00	1.767786e+02
1.110000e-06	1.521480e-06	2.866802e-09	1.020689e+01	1.865266e+02
1.120000e-06	1.568967e-06	3.016808e-09	1.052546e+01	1.962739e+02
1.130000e-06	1.615907e-06	3.165340e-09	1.084036e+01	2.060226e+02
1.140000e-06	1.662287e-06	3.312063e-09	1.115150e+01	2.157706e+02
1.150000e-06	1.708052e-06	3.458862e-09	1.145852e+01	2.255095e+02
1.160000e-06	1.753197e-06	3.608297e-09	1.176138e+01	2.352234e+02
1.170000e-06	1.797904e-06	3.758578e-09	1.206129e+01	2.448911e+02
1.180000e-06	1.842242e-06	3.906936e-09	1.235873e+01	2.544898e+02
1.190000e-06	1.885991e-06	4.052242e-09	1.265223e+01	2.639989e+02
1.200000e-06	1.928869e-06	4.196035e-09	1.293987e+01	2.734039e+02
1.210000e-06	1.970698e-06	4.336898e-09	1.322049e+01	2.826971e+02
1.220000e-06	2.011642e-06	4.472618e-09	1.349516e+01	2.918756e+02
1.230000e-06	2.052008e-06	4.606353e-09	1.376596e+01	3.009381e+02
1.240000e-06	2.091800e-06	4.741173e-09	1.403290e+01	3.098804e+02
1.250000e-06	2.130882e-06	4.878012e-09	1.429508e+01	3.186917e+02
1.260000e-06	2.169247e-06	5.012177e-09	1.455246e+01	3.273541e+02
1.270000e-06	2.206875e-06	5.140229e-09	1.480488e+01	3.358440e+02
1.280000e-06	2.243785e-06	5.264966e-09	1.505250e+01	3.441366e+02
1.290000e-06	2.280110e-06	5.387119e-09	1.529619e+01	3.522105e+02
1.300000e-06	2.315659e-06	5.504061e-09	1.553467e+01	3.600517e+02
1.310000e-06	2.350096e-06	5.613998e-09	1.576569e+01	3.676553e+02
1.320000e-06	2.383453e-06	5.721440e-09	1.598946e+01	3.750236e+02
1.330000e-06	2.415998e-06	5.831279e-09	1.620779e+01	3.821630e+02
1.340000e-06	2.447801e-06	5.940578e-09	1.642114e+01	3.890790e+02
1.350000e-06	2.478814e-06	6.041851e-09	1.662919e+01	3.957726e+02
1.360000e-06	2.509041e-06	6.134959e-09	1.683198e+01	4.022384e+02
1.370000e-06	2.538471e-06	6.226049e-09	1.702941e+01	4.084671e+02
1.380000e-06	2.567155e-06	6.317643e-09	1.722183e+01	4.144483e+02
1.390000e-06	2.595079e-06	6.404466e-09	1.740916e+01	4.201760e+02
1.400000e-06	2.621901e-06	6.484641e-09	1.758910e+01	4.256524e+02
1.410000e-06	2.647422e-06	6.561668e-09	1.776031e+01	4.308888e+02
1.420000e-06	2.671870e-06	6.638166e-09	1.792432e+01	4.359039e+02
1.430000e-06	2.695442e-06	6.711965e-09	1.808245e+01	4.407185e+02
1.440000e-06	2.718143e-06	6.781262e-09	1.823474e+01	4.453494e+02
1.450000e-06	2.739933e-06	6.847850e-09	1.838092e+01	4.498035e+02
1.460000e-06	2.760901e-06	6.913084e-09	1.852158e+01	4.540752e+02
1.470000e-06	2.781121e-06	6.976239e-09	1.865723e+01	4.581468e+02
1.480000e-06	2.800381e-06	7.033884e-09	1.878644e+01	4.619934e+02
1.490000e-06	2.818615e-06	7.084363e-09	1.890876e+01	4.655899e+02
1.500000e-06	2.835885e-06	7.130188e-09	1.902462e+01	4.689180e+02
1.510000e-06	2.852111e-06	7.174407e-09	1.913347e+01	4.719716e+02
1.520000e-06	2.867228e-06	7.216697e-09	1.923488e+01	4.747584e+02
1.530000e-06	2.881240e-06	7.254093e-09	1.932888e+01	4.772977e+02
1.540000e-06	2.894161e-06	7.286419e-09	1.941556e+01	4.796144e+02
1.550000e-06	2.905923e-06	7.317047e-09	1.949447e+01	4.817327e+02
1.560000e-06	2.916349e-06	7.347007e-09	1.956441e+01	4.836695e+02
1.570000e-06	2.925513e-06	7.373802e-09	1.962589e+01	4.854318e+02
1.580000e-06	2.933725e-06	7.396180e-09	1.968098e+01	4.870168e+02
1.590000e-06	2.941005e-06	7.416322e-09	1.972982e+01	4.884162e+02
1.600000e-06	2.947225e-06	7.434592e-09	1.977154e+01	4.896214e+02
1.610000e-06	2.952466e-06	7.449217e-09	1.980670e+01	4.906292e+02
1.620000e-06	2.956853e-06	7.459860e-09	1.983614e+01	4.914448e+02
1.630000e-06	2.960189e-06	7.467201e-09	1.985851e+01	4.920808e+02
1.640000e-06	2.962239e-06	7.473398e-09	1.987227e+01	4.925542e+02
1.650000e-06	2.963168e-06	7.479670e-09	1.987850e+01	4.928799e+02
1.660000e-06	2.963158e-06	7.484528e-09	1.987843e+01	4.930658e+02
1.670000e-06	2.962218e-06	7.485845e-09	1.987213e+01	4.931094e+02
1.680000e-06	2.960396e-06	7.481679e-09	1.985990e+01	4.929986e+02
1.690000e-06	2.957714e-06	7.473666e-09	1.984191e+01	4.927161e+02
1.700000e-06	2.954204e-06	7.462714e-09	1.981836e+01	4.922460e+02
1.710000e-06	2.949744e-06	7.451131e-09	1.978845e+01	4.915809e+02
1.720000e-06	2.944038e-06	7.440580e-09	1.975017e+01	4.907263e+02
1.730000e-06	2.937204e-06	7.425401e-09	1.970432e+01	4.897001e+02
1.740000e-06	2.929572e-06	7.409113e-09	1.965312e+01	4.885283e+02
1.750000e-06	2.920855e-06	7.367091e-09	1.959464e+01	4.872367e+02
1.760000e-06	2.910470e-06	7.341639e-09	1.952498e+01	4.858419e+02
1.770000e-06	2.898526e-06	7.349468e-09	1.944485e+01	4.843454e+02
1.780000e-06	2.886137e-06	7.359702e-09	1.936174e+01	4.827320e+02
1.790000e-06	2.873594e-06	7.308169e-09	1.927759e+01	4.809741e+02
1.800000e-06	2.859658e-06	7.225046e-09	1.918410e+01	4.790415e+02
1.810000e-06	2.843977e-06	7.259138e-09	1.907890e+01	4.769125e+02
1.820000e-06	2.827569e-06	7.236231e-09	1.896883e+01	4.745837e+02
1.830000e-06	2.810574e-06	7.132987e-09	1.885482e+01	4.720739e+02
1.840000e-06	2.792352e-06	7.115370e-09	1.873258e+01	4.694209e+02
1.850000e-06	2.773194e-06	7.120981e-09	1.860406e+01	4.666724e+02
1.860000e-06	2.753301e-06	7.042919e-09	1.847060e+01	4.638711e+02
1.870000e-06	2.732031e-06	7.000671e-09	1.832791e+01	4.610420e+02
1.880000e-06	2.709421e-06	7.021813e-09	1.817623e+01	4.581829e+02
1.890000e-06	2.686001e-06	6.917190e-09	1.801912e+01	4.552631e+02
1.900000e-06	2.661659e-06	6.842063e-09	1.785581e+01	4.522309e+02
1.910000e-06	2.636404e-06	6.883732e-09	1.768640e+01	4.490275e+02
1.920000e-06	2.610469e-06	6.801542e-09	1.751241e+01	4.456032e+02
1.930000e-06	2.583703e-06	6.711467e-09	1.733285e+01	4.419311e+02
1.940000e-06	2.556143e-06	6.698377e-09	1.714796e+01	4.380138e+02
1.950000e-06	2.527677e-06	6.606929e-09	1.695699e+01	4.338824e+02
1.960000e-06	2.497856e-06	6.546057e-09	1.675694e+01	4.295860e+02
1.970000e-06	2.466928e-06	6.490691e-09	1.654946e+01	4.251776e+02
1.980000e-06	2.435293e-06	6.375026e-09	1.633723e+01	4.206991e+02
1.990000e-06	2.402851e-06	6.346243e-09	1.611959e+01	4.161715e+02
2.000000e-06	2.369598e-06	6.311449e-09	1.589652e+01	4.115916e+02
2.010000e-06	2.335567e-06	6.173999e-09	1.566822e+01	4.069373e+02
2.020000e-06	2.300778e-06	6.116639e-09	1.543484e+01	4.021772e+02
2.030000e-06	2.265367e-06	6.065701e-09	1.519728e+01	3.972832e+02
2.040000e-06	2.229069e-06	5.954325e-09	1.495378e+01	3.922402e+02
2.050000e-06	2.191541e-06	5.907629e-09	1.470201e+01	3.870499e+02
2.060000e-06	2.153050e-06	5.828577e-09	1.444380e+01	3.817289e+02
2.070000e-06	2.113924e-06	5.718658e-09	1.418132e+01	3.763017e+02
2.080000e-06	2.074214e-06	5.659907e-09	1.391493e+01	3.707911e+02
2.090000e-06	2.033816e-06	5.574544e-09	1.364391e+01	3.652106e+02
2.100000e-06	1.992646e-06	5.472883e-09	1.336772e+01	3.595604e+02
2.110000e-06	1.950866e-06	5.387115e-09	1.308744e+01	3.538292e+02
2.120000e-06	1.908475e-06	5.299183e-09	1.280306e+01	3.479991e+02
2.130000e-06	1.865508e-06	5.222703e-09	1.251482e+01	3.420537e+02
2.140000e-06	1.822079e-06	5.126756e-09	1.222347e+01	3.359833e+02
2.150000e-06	1.778078e-06	5.018063e-09	1.192829e+01	3.297892e+02
2.160000e-06	1.733366e-06	4.932150e-09	1.162834e+01	3.234816e+02
2.170000e-06	1.687917e-06	4.842786e-09	1.132344e+01	3.170758e+02
2.180000e-06	1.641942e-06	4.744841e-09	1.101502e+01	3.105866e+02
2.190000e-06	1.595543e-06	4.631067e-09	1.070375e+01	3.040234e+02
2.200000e-06	1.548593e-06	4.527037e-09	1.038878e+01	2.973884e+02
2.210000e-06	1.500979e-06	4.432376e-09	1.006936e+01	2.906777e+02
2.220000e-06	1.452609e-06	4.327948e-09	9.744871e+00	2.838849e+02
2.230000e-06	1.403621e-06	4.230372e-09	9.416233e+00	2.770054e+02
2.240000e-06	1.354197e-06	4.122408e-09	9.084669e+00	2.700393e+02
2.250000e-06	1.304302e-06	4.014015e-09	8.749950e+00	2.629918e+02
2.260000e-06	1.253919e-06	3.916306e-09	8.411954e+00	2.558712e+02
2.270000e-06	1.203040e-06	3.802762e-09	8.070627e+00	2.486851e+02
2.280000e-06	1.151742e-06	3.680696e-09	7.726492e+00	2.414373e+02
2.290000e-06	1.100107e-06	3.567147e-09	7.380102e+00	2.341256e+02
2.300000e-06	1.047972e-06	3.456752e-09	7.030351e+00	2.267434e+02
2.310000e-06	9.951883e-07	3.351714e-09	6.676250e+00	2.192825e+02
2.320000e-06	9.417410e-07	3.238060e-09	6.317697e+00	2.117374e+02
2.330000e-06	8.876889e-07	3.119104e-09	5.955087e+00	2.041093e+02
2.340000e-06	8.331902e-07	3.002782e-09	5.589481e+00	1.964070e+02
2.350000e-06	7.783813e-07	2.882317e-09	5.221794e+00	1.886453e+02
2.360000e-06	7.233479e-07	2.763073e-09	4.852601e+00	1.808406e+02
2.370000e-06	6.681859e-07	2.642464e-09	4.482545e+00	1.730062e+02
2.380000e-06	6.129537e-07	2.524975e-09	4.112018e+00	1.651478e+02
2.390000e-06	5.576102e-07	2.408683e-09	3.740744e+00	1.572618e+02
2.400000e-06	5.020711e-07	2.290601e-09	3.368159e+00	1.493365e+02
2.410000e-06	4.463693e-07	2.172174e-09	2.994481e+00	1.413565e+02
2.420000e-06	3.905442e-07	2.047570e-09	2.619977e+00	1.333077e+02
2.430000e-06	3.346042e-07	1.921397e-09	2.244702e+00	1.251813e+02
2.440000e-06	2.785840e-07	1.797779e-09	1.868889e+00	1.169768e+02
2.450000e-06	2.224418e-07	1.674543e-09	1.492257e+00	1.087009e+02
2.460000e-06	1.661524e-07	1.549114e-09	1.114639e+00	1.003645e+02
2.470000e-06	1.097709e-07	1.420575e-09	7.364010e-01	9.197885e+01
2.480000e-06	5.337108e-08	1.292565e-09	3.580415e-01	8.355196e+01
2.490000e-06	-3.063059e-09	1.167222e-09	-2.054862e-02	7.508645e+01
2.500000e-06	-5.948734e-08	1.039402e-09	-3.990726e-01	6.658009e+01
2.510000e-06	-1.158859e-07	9.080208e-10	-7.774242e-01	5.802782e+01
2.520000e-06	-1.722219e-07	7.753709e-10	-1.155356e+00	4.942458e+01
2.530000e-06	-2.284151e-07	6.425122e-10	-1.532329e+00	4.076749e+01
2.540000e-06	-2.844884e-07	5.109131e-10	-1.908499e+00	3.205662e+01
2.550000e-06	-3.404254e-07	3.782297e-10	-2.283753e+00	2.329402e+01
2.560000e-06	-3.962330e-07	2.442212e-10	-2.658141e+00	1.448177e+01
2.570000e-06	-4.519145e-07	1.085944e-10	-3.031682e+00	5.619869e+00
2.580000e-06	-5.074266e-07	-2.578730e-11	-3.404086e+00	-3.294830e+00
2.590000e-06	-5.627960e-07	-1.604639e-10	-3.775533e+00	-1.226823e+01
2.600000e-06	-6.180674e-07	-2.989373e-10	-4.146323e+00	-2.130719e+01
2.610000e-06	-6.732437e-07	-4.398066e-10	-4.516475e+00	-3.041713e+01
2.620000e-06	-7.283306e-07	-5.812078e-10	-4.886027e+00	-3.959997e+01
2.630000e-06	-7.832404e-07	-7.218586e-10	-5.254391e+00	-4.885348e+01
2.640000e-06	-8.378739e-07	-8.637236e-10	-5.620902e+00	-5.817206e+01
2.650000e-06	-8.920951e-07	-1.006740e-09	-5.984646e+00	-6.754878e+01
2.660000e-06	-9.458051e-07	-1.151137e-09	-6.344961e+00	-7.697771e+01
2.670000e-06	-9.989410e-07	-1.294885e-09	-6.701425e+00	-8.645550e+01
2.680000e-06	-1.051462e-06	-1.438226e-09	-7.053767e+00	-9.598146e+01
2.690000e-06	-1.103441e-06	-1.583166e-09	-7.402465e+00	-1.055562e+02
2.700000e-06	-1.154946e-06	-1.729852e-09	-7.747989e+00	-1.151794e+02
2.710000e-06	-1.206104e-06	-1.877598e-09	-8.091181e+00	-1.248476e+02
2.720000e-06	-1.256869e-06	-2.026837e-09	-8.431745e+00	-1.345532e+02
2.730000e-06	-1.307104e-06	-2.177994e-09	-8.768743e+00	-1.442855e+02
2.740000e-06	-1.356803e-06	-2.328312e-09	-9.102155e+00	-1.540325e+02
2.750000e-06	-1.406038e-06	-2.477152e-09	-9.432445e+00	-1.637841e+02
2.760000e-06	-1.454698e-06	-2.624204e-09	-9.758885e+00	-1.735343e+02
2.770000e-06	-1.502503e-06	-2.772417e-09	-1.007959e+01	-1.832818e+02
2.780000e-06	-1.549373e-06	-2.922159e-09	-1.039402e+01	-1.930284e+02
2.790000e-06	-1.595507e-06	-3.071164e-09	-1.070350e+01	-2.027764e+02
2.800000e-06	-1.641200e-06	-3.219469e-09	-1.101004e+01	-2.125241e+02
2.810000e-06	-1.686564e-06	-3.368814e-09	-1.131436e+01	-2.222635e+02
2.820000e-06	-1.731475e-06	-3.519810e-09	-1.161565e+01	-2.319792e+02
2.830000e-06	-1.775772e-06	-3.667706e-09	-1.191282e+01	-2.416504e+02
2.840000e-06	-1.819475e-06	-3.810616e-09	-1.220600e+01	-2.512541e+02
2.850000e-06	-1.862762e-06	-3.953442e-09	-1.249639e+01	-2.607696e+02
2.860000e-06	-1.905638e-06	-4.098209e-09	-1.278403e+01	-2.701818e+02
2.870000e-06	-1.947879e-06	-4.240131e-09	-1.306740e+01	-2.794825e+02
2.880000e-06	-1.989413e-06	-4.379480e-09	-1.334604e+01	-2.886686e+02
2.890000e-06	-2.030277e-06	-4.519860e-09	-1.362017e+01	-2.977389e+02
2.900000e-06	-2.070394e-06	-4.661023e-09	-1.388930e+01	-3.066895e+02
2.910000e-06	-2.109889e-06	-4.799933e-09	-1.415425e+01	-3.155101e+02
2.920000e-06	-2.148881e-06	-4.933193e-09	-1.441583e+01	-3.241832e+02
2.930000e-06	-2.187075e-06	-5.060820e-09	-1.467205e+01	-3.326856e+02
2.940000e-06	-2.224139e-06	-5.185292e-09	-1.492070e+01	-3.409925e+02
