# Temperatura_=_25.69
# Concentracion g/m^3_=_18700.0
# C_Vs_to_Am_M_A/Vsm_=_65563218390.804596
# pendiente_HvsI_1/m_=_3716.3
# ordenada_HvsI_A/m_=_1297.0
# frecuencia_Hz_=_301056.3727705169

Tiempo_(s)	Campo_(V.s)	Magnetizacion_(V.s)	Campo_(kA/m)	Magnetizacion_(A/m)
0.000000e+00	-2.947604e-06	-7.832532e-09	-1.977718e+01	-5.118542e+02
1.000000e-08	-2.946791e-06	-7.835732e-09	-1.977173e+01	-5.118926e+02
2.000000e-08	-2.945079e-06	-7.838853e-09	-1.976024e+01	-5.117975e+02
3.000000e-08	-2.942111e-06	-7.838442e-09	-1.974032e+01	-5.115470e+02
4.000000e-08	-2.937964e-06	-7.834160e-09	-1.971250e+01	-5.111146e+02
5.000000e-08	-2.933023e-06	-7.825309e-09	-1.967935e+01	-5.104797e+02
6.000000e-08	-2.927221e-06	-7.813248e-09	-1.964042e+01	-5.096365e+02
7.000000e-08	-2.920411e-06	-7.797589e-09	-1.959473e+01	-5.085976e+02
8.000000e-08	-2.912608e-06	-7.770029e-09	-1.954237e+01	-5.073909e+02
9.000000e-08	-2.903685e-06	-7.770508e-09	-1.948250e+01	-5.060508e+02
1.000000e-07	-2.893202e-06	-7.766178e-09	-1.941217e+01	-5.046064e+02
1.100000e-07	-2.881257e-06	-7.730954e-09	-1.933203e+01	-5.030717e+02
1.200000e-07	-2.868548e-06	-7.616866e-09	-1.924675e+01	-5.014413e+02
1.300000e-07	-2.855075e-06	-7.604571e-09	-1.915635e+01	-4.996927e+02
1.400000e-07	-2.840532e-06	-7.710964e-09	-1.905877e+01	-4.977957e+02
1.500000e-07	-2.824776e-06	-7.591540e-09	-1.895306e+01	-4.957243e+02
1.600000e-07	-2.807819e-06	-7.489203e-09	-1.883929e+01	-4.934677e+02
1.700000e-07	-2.789697e-06	-7.556947e-09	-1.871769e+01	-4.910352e+02
1.800000e-07	-2.770588e-06	-7.529108e-09	-1.858948e+01	-4.884541e+02
1.900000e-07	-2.750804e-06	-7.368666e-09	-1.845673e+01	-4.857602e+02
2.000000e-07	-2.730198e-06	-7.374887e-09	-1.831848e+01	-4.829845e+02
2.100000e-07	-2.708592e-06	-7.391312e-09	-1.817351e+01	-4.801417e+02
2.200000e-07	-2.686175e-06	-7.229950e-09	-1.802311e+01	-4.772225e+02
2.300000e-07	-2.662908e-06	-7.237181e-09	-1.786699e+01	-4.741956e+02
2.400000e-07	-2.638698e-06	-7.276992e-09	-1.770455e+01	-4.710162e+02
2.500000e-07	-2.613699e-06	-7.117833e-09	-1.753682e+01	-4.676397e+02
2.600000e-07	-2.587645e-06	-7.038420e-09	-1.736201e+01	-4.640360e+02
2.700000e-07	-2.560240e-06	-7.041056e-09	-1.717813e+01	-4.601979e+02
2.800000e-07	-2.531855e-06	-6.967116e-09	-1.698768e+01	-4.561439e+02
2.900000e-07	-2.502778e-06	-6.911489e-09	-1.679259e+01	-4.519111e+02
3.000000e-07	-2.472816e-06	-6.812126e-09	-1.659155e+01	-4.475432e+02
3.100000e-07	-2.442030e-06	-6.762490e-09	-1.638499e+01	-4.430778e+02
3.200000e-07	-2.410475e-06	-6.741214e-09	-1.617328e+01	-4.385356e+02
3.300000e-07	-2.378145e-06	-6.613259e-09	-1.595635e+01	-4.339171e+02
3.400000e-07	-2.345204e-06	-6.517992e-09	-1.573533e+01	-4.292062e+02
3.500000e-07	-2.311503e-06	-6.512224e-09	-1.550922e+01	-4.243797e+02
3.600000e-07	-2.276648e-06	-6.409887e-09	-1.527535e+01	-4.194180e+02
3.700000e-07	-2.240618e-06	-6.309516e-09	-1.503361e+01	-4.143147e+02
3.800000e-07	-2.203806e-06	-6.284991e-09	-1.478661e+01	-4.090793e+02
3.900000e-07	-2.166377e-06	-6.140337e-09	-1.453548e+01	-4.037342e+02
4.000000e-07	-2.128246e-06	-6.046752e-09	-1.427963e+01	-3.983065e+02
4.100000e-07	-2.089303e-06	-6.024456e-09	-1.401834e+01	-3.928180e+02
4.200000e-07	-2.049563e-06	-5.924133e-09	-1.375171e+01	-3.872766e+02
4.300000e-07	-2.009197e-06	-5.804557e-09	-1.348087e+01	-3.816736e+02
4.400000e-07	-1.968383e-06	-5.739725e-09	-1.320703e+01	-3.759867e+02
4.500000e-07	-1.927029e-06	-5.654727e-09	-1.292955e+01	-3.701881e+02
4.600000e-07	-1.884752e-06	-5.556339e-09	-1.264589e+01	-3.642541e+02
4.700000e-07	-1.841370e-06	-5.461132e-09	-1.235482e+01	-3.581734e+02
4.800000e-07	-1.797166e-06	-5.357606e-09	-1.205823e+01	-3.519512e+02
4.900000e-07	-1.752454e-06	-5.277180e-09	-1.175823e+01	-3.456065e+02
5.000000e-07	-1.707263e-06	-5.177793e-09	-1.145502e+01	-3.391657e+02
5.100000e-07	-1.661436e-06	-5.071062e-09	-1.114754e+01	-3.326533e+02
5.200000e-07	-1.614999e-06	-4.965542e-09	-1.083597e+01	-3.260845e+02
5.300000e-07	-1.568058e-06	-4.874209e-09	-1.052101e+01	-3.194606e+02
5.400000e-07	-1.520547e-06	-4.774665e-09	-1.020223e+01	-3.127714e+02
5.500000e-07	-1.472435e-06	-4.677565e-09	-9.879423e+00	-3.059999e+02
5.600000e-07	-1.423863e-06	-4.564161e-09	-9.553524e+00	-2.991305e+02
5.700000e-07	-1.374907e-06	-4.437858e-09	-9.225047e+00	-2.921558e+02
5.800000e-07	-1.325372e-06	-4.338931e-09	-8.892692e+00	-2.850792e+02
5.900000e-07	-1.275070e-06	-4.236836e-09	-8.555181e+00	-2.779139e+02
6.000000e-07	-1.224047e-06	-4.122545e-09	-8.212843e+00	-2.706776e+02
6.100000e-07	-1.172457e-06	-4.007853e-09	-7.866697e+00	-2.633847e+02
6.200000e-07	-1.120275e-06	-3.906171e-09	-7.516574e+00	-2.560413e+02
6.300000e-07	-1.067632e-06	-3.790637e-09	-7.163365e+00	-2.486420e+02
6.400000e-07	-1.014757e-06	-3.667935e-09	-6.808591e+00	-2.411722e+02
6.500000e-07	-9.615297e-07	-3.542651e-09	-6.451460e+00	-2.336140e+02
6.600000e-07	-9.078459e-07	-3.425293e-09	-6.091264e+00	-2.259533e+02
6.700000e-07	-8.538173e-07	-3.317509e-09	-5.728755e+00	-2.181864e+02
6.800000e-07	-7.995369e-07	-3.202770e-09	-5.364556e+00	-2.103218e+02
6.900000e-07	-7.450320e-07	-3.083804e-09	-4.998851e+00	-2.023791e+02
7.000000e-07	-6.903280e-07	-2.957714e-09	-4.631811e+00	-1.943821e+02
7.100000e-07	-6.354198e-07	-2.833438e-09	-4.263400e+00	-1.863515e+02
7.200000e-07	-5.803016e-07	-2.703672e-09	-3.893580e+00	-1.782978e+02
7.300000e-07	-5.249844e-07	-2.575545e-09	-3.522425e+00	-1.702180e+02
7.400000e-07	-4.694252e-07	-2.450053e-09	-3.149646e+00	-1.620966e+02
7.500000e-07	-4.136217e-07	-2.329692e-09	-2.775227e+00	-1.539113e+02
7.600000e-07	-3.576235e-07	-2.211444e-09	-2.399503e+00	-1.456400e+02
7.700000e-07	-3.015006e-07	-2.085599e-09	-2.022942e+00	-1.372688e+02
7.800000e-07	-2.453012e-07	-1.953115e-09	-1.645868e+00	-1.287951e+02
7.900000e-07	-1.890240e-07	-1.817211e-09	-1.268271e+00	-1.202285e+02
8.000000e-07	-1.326831e-07	-1.683589e-09	-8.902478e-01	-1.115858e+02
8.100000e-07	-7.631465e-08	-1.546818e-09	-5.120392e-01	-1.028851e+02
8.200000e-07	-1.995894e-08	-1.412815e-09	-1.339161e-01	-9.413879e+01
8.300000e-07	3.638291e-08	-1.280789e-09	2.441140e-01	-8.535006e+01
8.400000e-07	9.271828e-08	-1.151255e-09	6.221006e-01	-7.651227e+01
8.500000e-07	1.490498e-07	-1.018624e-09	1.000062e+00	-6.761251e+01
8.600000e-07	2.053623e-07	-8.796672e-10	1.377895e+00	-5.863716e+01
8.700000e-07	2.616256e-07	-7.394232e-10	1.755398e+00	-4.957736e+01
8.800000e-07	3.178017e-07	-5.993461e-10	2.132316e+00	-4.043221e+01
8.900000e-07	3.738783e-07	-4.601943e-10	2.508566e+00	-3.120855e+01
9.000000e-07	4.298123e-07	-3.162984e-10	2.883860e+00	-2.191742e+01
9.100000e-07	4.855812e-07	-1.725208e-10	3.258046e+00	-1.256866e+01
9.200000e-07	5.411852e-07	-2.965289e-11	3.631125e+00	-3.165834e+00
9.300000e-07	5.965323e-07	1.110568e-10	4.002481e+00	6.296340e+00
9.400000e-07	6.516254e-07	2.538418e-10	4.372133e+00	1.583112e+01
9.500000e-07	7.064967e-07	4.017458e-10	4.740296e+00	2.545551e+01
9.600000e-07	7.611477e-07	5.525790e-10	5.106981e+00	3.518429e+01
9.700000e-07	8.155708e-07	7.037302e-10	5.472137e+00	4.502449e+01
9.800000e-07	8.697029e-07	8.527776e-10	5.835341e+00	5.497247e+01
9.900000e-07	9.234994e-07	1.006886e-09	6.196293e+00	6.501469e+01
1.000000e-06	9.769865e-07	1.162895e-09	6.555169e+00	7.513199e+01
1.010000e-06	1.030103e-06	1.317611e-09	6.911556e+00	8.530573e+01
1.020000e-06	1.082793e-06	1.471716e-09	7.265083e+00	9.552352e+01
1.030000e-06	1.135112e-06	1.629110e-09	7.616126e+00	1.057824e+02
1.040000e-06	1.186966e-06	1.787626e-09	7.964046e+00	1.160884e+02
1.050000e-06	1.238219e-06	1.943960e-09	8.307932e+00	1.264522e+02
1.060000e-06	1.288773e-06	2.102608e-09	8.647122e+00	1.368831e+02
1.070000e-06	1.338557e-06	2.264083e-09	8.981152e+00	1.473832e+02
1.080000e-06	1.387688e-06	2.426378e-09	9.310802e+00	1.579442e+02
1.090000e-06	1.436380e-06	2.588587e-09	9.637507e+00	1.685478e+02
1.100000e-06	1.484750e-06	2.750378e-09	9.962048e+00	1.791700e+02
1.110000e-06	1.532697e-06	2.911924e-09	1.028375e+01	1.897869e+02
1.120000e-06	1.580072e-06	3.075466e-09	1.060162e+01	2.003806e+02
1.130000e-06	1.626926e-06	3.238921e-09	1.091599e+01	2.109426e+02
1.140000e-06	1.673226e-06	3.397797e-09	1.122664e+01	2.214730e+02
1.150000e-06	1.718865e-06	3.555193e-09	1.153286e+01	2.319767e+02
1.160000e-06	1.763946e-06	3.714886e-09	1.183534e+01	2.424571e+02
1.170000e-06	1.808606e-06	3.877783e-09	1.213498e+01	2.529108e+02
1.180000e-06	1.852843e-06	4.038997e-09	1.243180e+01	2.633239e+02
1.190000e-06	1.896455e-06	4.197243e-09	1.272441e+01	2.736731e+02
1.200000e-06	1.939098e-06	4.353844e-09	1.301053e+01	2.839295e+02
1.210000e-06	1.980696e-06	4.508519e-09	1.328963e+01	2.940648e+02
1.220000e-06	2.021509e-06	4.659184e-09	1.356347e+01	3.040563e+02
1.230000e-06	2.061764e-06	4.805364e-09	1.383357e+01	3.138905e+02
1.240000e-06	2.101404e-06	4.950510e-09	1.409954e+01	3.235613e+02
1.250000e-06	2.140319e-06	5.096911e-09	1.436064e+01	3.330661e+02
1.260000e-06	2.178537e-06	5.242951e-09	1.461707e+01	3.423996e+02
1.270000e-06	2.215966e-06	5.382088e-09	1.486820e+01	3.515493e+02
1.280000e-06	2.252731e-06	5.516462e-09	1.511487e+01	3.604927e+02
1.290000e-06	2.288985e-06	5.647477e-09	1.535812e+01	3.692004e+02
1.300000e-06	2.324343e-06	5.775304e-09	1.559537e+01	3.776415e+02
1.310000e-06	2.358459e-06	5.895698e-09	1.582427e+01	3.857903e+02
1.320000e-06	2.391557e-06	6.010470e-09	1.604634e+01	3.936334e+02
1.330000e-06	2.423947e-06	6.124196e-09	1.626367e+01	4.011711e+02
1.340000e-06	2.455548e-06	6.236239e-09	1.647569e+01	4.084159e+02
1.350000e-06	2.486279e-06	6.342180e-09	1.668189e+01	4.153865e+02
1.360000e-06	2.516242e-06	6.440165e-09	1.688293e+01	4.220998e+02
1.370000e-06	2.545448e-06	6.535636e-09	1.707889e+01	4.285646e+02
1.380000e-06	2.573929e-06	6.629707e-09	1.726998e+01	4.347793e+02
1.390000e-06	2.601625e-06	6.720138e-09	1.745581e+01	4.407335e+02
1.400000e-06	2.628042e-06	6.804945e-09	1.763306e+01	4.464146e+02
1.410000e-06	2.653158e-06	6.886085e-09	1.780158e+01	4.518151e+02
1.420000e-06	2.677420e-06	6.962880e-09	1.796436e+01	4.569389e+02
1.430000e-06	2.700819e-06	7.034463e-09	1.812136e+01	4.618032e+02
1.440000e-06	2.723266e-06	7.102582e-09	1.827197e+01	4.664348e+02
1.450000e-06	2.744827e-06	7.168802e-09	1.841663e+01	4.708624e+02
1.460000e-06	2.765597e-06	7.234431e-09	1.855599e+01	4.751075e+02
1.470000e-06	2.785569e-06	7.298215e-09	1.869000e+01	4.791760e+02
1.480000e-06	2.804549e-06	7.356766e-09	1.881735e+01	4.830560e+02
1.490000e-06	2.822507e-06	7.408416e-09	1.893784e+01	4.867213e+02
1.500000e-06	2.839488e-06	7.455986e-09	1.905177e+01	4.901394e+02
1.510000e-06	2.855384e-06	7.501403e-09	1.915843e+01	4.932830e+02
1.520000e-06	2.870129e-06	7.543274e-09	1.925736e+01	4.961394e+02
1.530000e-06	2.883793e-06	7.578961e-09	1.934904e+01	4.987149e+02
1.540000e-06	2.896429e-06	7.611622e-09	1.943382e+01	5.010334e+02
1.550000e-06	2.907825e-06	7.644321e-09	1.951028e+01	5.031290e+02
1.560000e-06	2.917842e-06	7.674458e-09	1.957749e+01	5.050349e+02
1.570000e-06	2.926742e-06	7.699403e-09	1.963721e+01	5.067745e+02
1.580000e-06	2.934756e-06	7.721290e-09	1.969098e+01	5.083553e+02
1.590000e-06	2.941779e-06	7.742098e-09	1.973810e+01	5.097701e+02
1.600000e-06	2.947793e-06	7.759138e-09	1.977845e+01	5.110030e+02
1.610000e-06	2.952926e-06	7.771571e-09	1.981289e+01	5.120385e+02
1.620000e-06	2.957196e-06	7.781278e-09	1.984154e+01	5.128703e+02
1.630000e-06	2.960319e-06	7.791029e-09	1.986250e+01	5.135057e+02
1.640000e-06	2.962058e-06	7.800069e-09	1.987416e+01	5.139637e+02
1.650000e-06	2.962704e-06	7.807158e-09	1.987850e+01	5.142688e+02
1.660000e-06	2.962449e-06	7.811592e-09	1.987679e+01	5.144413e+02
1.670000e-06	2.961264e-06	7.811908e-09	1.986884e+01	5.144892e+02
1.680000e-06	2.959184e-06	7.806170e-09	1.985488e+01	5.144048e+02
1.690000e-06	2.956272e-06	7.797777e-09	1.983534e+01	5.141669e+02
1.700000e-06	2.952574e-06	7.788182e-09	1.981053e+01	5.137489e+02
1.710000e-06	2.947833e-06	7.778308e-09	1.977872e+01	5.131295e+02
1.720000e-06	2.941880e-06	7.764725e-09	1.973878e+01	5.123015e+02
1.730000e-06	2.934937e-06	7.758117e-09	1.969219e+01	5.112763e+02
1.740000e-06	2.927089e-06	7.746553e-09	1.963953e+01	5.100810e+02
1.750000e-06	2.917942e-06	7.692901e-09	1.957817e+01	5.087499e+02
1.760000e-06	2.907045e-06	7.637516e-09	1.950505e+01	5.073128e+02
1.770000e-06	2.894836e-06	7.702310e-09	1.942313e+01	5.057852e+02
1.780000e-06	2.882326e-06	7.707184e-09	1.933919e+01	5.041628e+02
1.790000e-06	2.869492e-06	7.606670e-09	1.925309e+01	5.024242e+02
1.800000e-06	2.855177e-06	7.523841e-09	1.915704e+01	5.005393e+02
1.810000e-06	2.839273e-06	7.623004e-09	1.905033e+01	4.984815e+02
1.820000e-06	2.822747e-06	7.587895e-09	1.893945e+01	4.962386e+02
1.830000e-06	2.805469e-06	7.405354e-09	1.882352e+01	4.938185e+02
1.840000e-06	2.786964e-06	7.498922e-09	1.869935e+01	4.912474e+02
1.850000e-06	2.767640e-06	7.518145e-09	1.856970e+01	4.885609e+02
1.860000e-06	2.747512e-06	7.325299e-09	1.843465e+01	4.857910e+02
1.870000e-06	2.725940e-06	7.356364e-09	1.828991e+01	4.829535e+02
1.880000e-06	2.703130e-06	7.403701e-09	1.813687e+01	4.800411e+02
1.890000e-06	2.679544e-06	7.192741e-09	1.797862e+01	4.770239e+02
1.900000e-06	2.654985e-06	7.168435e-09	1.781383e+01	4.738575e+02
1.910000e-06	2.629603e-06	7.245424e-09	1.764353e+01	4.704970e+02
1.920000e-06	2.603561e-06	7.130535e-09	1.746880e+01	4.669105e+02
1.930000e-06	2.576600e-06	7.034781e-09	1.728790e+01	4.630895e+02
1.940000e-06	2.548875e-06	7.017743e-09	1.710188e+01	4.590504e+02
1.950000e-06	2.520216e-06	6.912225e-09	1.690959e+01	4.548294e+02
1.960000e-06	2.490087e-06	6.888967e-09	1.670744e+01	4.504704e+02
1.970000e-06	2.458907e-06	6.786799e-09	1.649823e+01	4.460116e+02
1.980000e-06	2.427030e-06	6.673591e-09	1.628435e+01	4.414752e+02
1.990000e-06	2.394273e-06	6.730511e-09	1.606456e+01	4.368631e+02
2.000000e-06	2.360819e-06	6.602267e-09	1.584011e+01	4.321601e+02
2.010000e-06	2.326649e-06	6.455779e-09	1.561083e+01	4.273431e+02
2.020000e-06	2.291714e-06	6.477957e-09	1.537644e+01	4.223921e+02
2.030000e-06	2.256164e-06	6.343939e-09	1.513791e+01	4.172994e+02
2.040000e-06	2.219548e-06	6.238837e-09	1.489224e+01	4.120733e+02
2.050000e-06	2.181678e-06	6.259948e-09	1.463814e+01	4.067357e+02
2.060000e-06	2.143022e-06	6.107779e-09	1.437878e+01	4.013137e+02
2.070000e-06	2.103795e-06	6.003835e-09	1.411558e+01	3.958296e+02
2.080000e-06	2.063917e-06	5.976104e-09	1.384801e+01	3.902926e+02
2.090000e-06	2.023313e-06	5.856762e-09	1.357558e+01	3.846952e+02
2.100000e-06	1.982053e-06	5.773254e-09	1.329874e+01	3.790158e+02
2.110000e-06	1.940204e-06	5.681805e-09	1.301795e+01	3.732266e+02
2.120000e-06	1.897702e-06	5.590614e-09	1.273278e+01	3.673034e+02
2.130000e-06	1.854645e-06	5.526149e-09	1.244389e+01	3.612338e+02
2.140000e-06	1.811108e-06	5.405400e-09	1.215177e+01	3.550217e+02
2.150000e-06	1.766947e-06	5.302242e-09	1.185547e+01	3.486855e+02
2.160000e-06	1.722060e-06	5.224232e-09	1.155430e+01	3.422512e+02
2.170000e-06	1.676468e-06	5.124223e-09	1.124839e+01	3.357439e+02
2.180000e-06	1.630410e-06	5.026910e-09	1.093937e+01	3.291794e+02
2.190000e-06	1.583839e-06	4.914740e-09	1.062689e+01	3.225603e+02
2.200000e-06	1.536579e-06	4.803524e-09	1.030980e+01	3.158769e+02
2.210000e-06	1.488693e-06	4.705770e-09	9.988506e+00	3.091124e+02
2.220000e-06	1.440152e-06	4.609020e-09	9.662812e+00	3.022509e+02
2.230000e-06	1.391071e-06	4.516979e-09	9.333500e+00	2.952843e+02
2.240000e-06	1.341613e-06	4.392975e-09	9.001657e+00	2.882152e+02
2.250000e-06	1.291637e-06	4.290829e-09	8.666338e+00	2.810563e+02
2.260000e-06	1.241094e-06	4.196650e-09	8.327219e+00	2.738250e+02
2.270000e-06	1.190114e-06	4.066241e-09	7.985167e+00	2.665364e+02
2.280000e-06	1.138761e-06	3.947841e-09	7.640606e+00	2.591972e+02
2.290000e-06	1.086975e-06	3.835402e-09	7.293145e+00	2.518029e+02
2.300000e-06	1.034552e-06	3.734514e-09	6.941411e+00	2.443393e+02
2.310000e-06	9.815157e-07	3.629778e-09	6.585558e+00	2.367885e+02
2.320000e-06	9.279288e-07	3.505657e-09	6.226012e+00	2.291360e+02
2.330000e-06	8.738246e-07	3.385104e-09	5.862995e+00	2.213770e+02
2.340000e-06	8.193439e-07	3.264079e-09	5.497453e+00	2.135195e+02
2.350000e-06	7.645514e-07	3.140090e-09	5.129819e+00	2.055821e+02
2.360000e-06	7.095382e-07	3.019571e-09	4.760703e+00	1.975888e+02
2.370000e-06	6.544025e-07	2.895982e-09	4.390765e+00	1.895607e+02
2.380000e-06	5.991580e-07	2.779755e-09	4.020098e+00	1.815092e+02
2.390000e-06	5.437559e-07	2.662822e-09	3.648374e+00	1.734322e+02
2.400000e-06	4.881970e-07	2.536091e-09	3.275596e+00	1.653150e+02
2.410000e-06	4.325197e-07	2.409516e-09	2.902025e+00	1.571356e+02
2.420000e-06	3.766832e-07	2.278952e-09	2.527386e+00	1.488716e+02
2.430000e-06	3.207337e-07	2.155237e-09	2.151989e+00	1.405083e+02
2.440000e-06	2.646889e-07	2.032035e-09	1.775951e+00	1.320423e+02
2.450000e-06	2.085056e-07	1.904714e-09	1.398985e+00	1.234824e+02
2.460000e-06	1.522143e-07	1.774762e-09	1.021294e+00	1.148451e+02
2.470000e-06	9.590365e-08	1.639415e-09	6.434731e-01	1.061486e+02
2.480000e-06	3.956092e-08	1.504961e-09	2.654371e-01	9.740587e+01
2.490000e-06	-1.686408e-08	1.368773e-09	-1.131509e-01	8.862086e+01
2.500000e-06	-7.331506e-08	1.234624e-09	-4.919132e-01	7.978752e+01
2.510000e-06	-1.296480e-07	1.103925e-09	-8.698837e-01	7.089323e+01
2.520000e-06	-1.858013e-07	9.712824e-10	-1.246649e+00	6.192423e+01
2.530000e-06	-2.419533e-07	8.314146e-10	-1.623405e+00	5.287115e+01
2.540000e-06	-2.980959e-07	6.887564e-10	-2.000098e+00	4.373251e+01
2.550000e-06	-3.540395e-07	5.472397e-10	-2.375456e+00	3.451469e+01
2.560000e-06	-4.097542e-07	4.060948e-10	-2.749278e+00	2.522857e+01
2.570000e-06	-4.653148e-07	2.625174e-10	-3.122067e+00	1.588427e+01
2.580000e-06	-5.207517e-07	1.186638e-10	-3.494025e+00	6.485941e+00
2.590000e-06	-5.760699e-07	-2.170337e-11	-3.865187e+00	-2.971064e+00
2.600000e-06	-6.312713e-07	-1.650959e-10	-4.235565e+00	-1.249954e+01
2.610000e-06	-6.863622e-07	-3.116596e-10	-4.605202e+00	-2.211642e+01
2.620000e-06	-7.413355e-07	-4.616352e-10	-4.974049e+00	-3.183682e+01
2.630000e-06	-7.961041e-07	-6.128164e-10	-5.341523e+00	-4.166849e+01
2.640000e-06	-8.506123e-07	-7.636101e-10	-5.707251e+00	-5.160855e+01
2.650000e-06	-9.047985e-07	-9.163430e-10	-6.070818e+00	-6.164408e+01
2.660000e-06	-9.584524e-07	-1.072048e-09	-6.430812e+00	-7.175611e+01
2.670000e-06	-1.011499e-06	-1.226957e-09	-6.786732e+00	-8.192576e+01
2.680000e-06	-1.063924e-06	-1.379849e-09	-7.138486e+00	-9.214005e+01
2.690000e-06	-1.115729e-06	-1.534692e-09	-7.486072e+00	-1.023954e+02
2.700000e-06	-1.167064e-06	-1.691872e-09	-7.830511e+00	-1.126971e+02
2.710000e-06	-1.218065e-06	-1.851534e-09	-8.172701e+00	-1.230558e+02
2.720000e-06	-1.268691e-06	-2.011077e-09	-8.512385e+00	-1.334812e+02
2.730000e-06	-1.318828e-06	-2.172204e-09	-8.848781e+00	-1.439759e+02
2.740000e-06	-1.368442e-06	-2.334465e-09	-9.181670e+00	-1.545325e+02
2.750000e-06	-1.417559e-06	-2.495572e-09	-9.511226e+00	-1.651333e+02
2.760000e-06	-1.466010e-06	-2.654556e-09	-9.836313e+00	-1.757544e+02
2.770000e-06	-1.513606e-06	-2.814075e-09	-1.015566e+01	-1.863718e+02
2.780000e-06	-1.560365e-06	-2.976079e-09	-1.046939e+01	-1.969670e+02
2.790000e-06	-1.606431e-06	-3.137851e-09	-1.077847e+01	-2.075308e+02
2.800000e-06	-1.652007e-06	-3.299593e-09	-1.108428e+01	-2.180627e+02
2.810000e-06	-1.697265e-06	-3.460056e-09	-1.138794e+01	-2.285676e+02
2.820000e-06	-1.742160e-06	-3.620547e-09	-1.168916e+01	-2.390491e+02
2.830000e-06	-1.786416e-06	-3.780301e-09	-1.198610e+01	-2.495045e+02
2.840000e-06	-1.830047e-06	-3.937932e-09	-1.227884e+01	-2.599206e+02
2.850000e-06	-1.873220e-06	-4.095493e-09	-1.256852e+01	-2.702747e+02
2.860000e-06	-1.915859e-06	-4.252705e-09	-1.285461e+01	-2.805382e+02
2.870000e-06	-1.957837e-06	-4.407144e-09	-1.313626e+01	-2.906823e+02
2.880000e-06	-1.999176e-06	-4.559383e-09	-1.341363e+01	-3.006842e+02
2.890000e-06	-2.039887e-06	-4.709793e-09	-1.368678e+01	-3.105293e+02
2.900000e-06	-2.079870e-06	-4.858221e-09	-1.395506e+01	-3.202113e+02
2.910000e-06	-2.119217e-06	-5.005932e-09	-1.421905e+01	-3.297275e+02
2.920000e-06	-2.158012e-06	-5.150520e-09	-1.447935e+01	-3.390730e+02
2.930000e-06	-2.195954e-06	-5.289493e-09	-1.473393e+01	-3.482358e+02
2.940000e-06	-2.232789e-06	-5.424246e-09	-1.498108e+01	-3.571943e+02
