# Temperatura_=_24.34
# Concentracion g/m^3_=_18700.0
# C_Vs_to_Am_M_A/Vsm_=_65563218390.804596
# pendiente_HvsI_1/m_=_3716.3
# ordenada_HvsI_A/m_=_1297.0
# frecuencia_Hz_=_301059.96012667526

Tiempo_(s)	Campo_(V.s)	Magnetizacion_(V.s)	Campo_(kA/m)	Magnetizacion_(A/m)
0.000000e+00	-2.945895e-06	-7.827148e-09	-1.977590e+01	-5.105790e+02
1.000000e-08	-2.945259e-06	-7.831449e-09	-1.977163e+01	-5.105954e+02
2.000000e-08	-2.943763e-06	-7.830232e-09	-1.976159e+01	-5.104769e+02
3.000000e-08	-2.941119e-06	-7.822958e-09	-1.974384e+01	-5.102036e+02
4.000000e-08	-2.937266e-06	-7.813751e-09	-1.971797e+01	-5.097504e+02
5.000000e-08	-2.932480e-06	-7.804010e-09	-1.968585e+01	-5.090976e+02
6.000000e-08	-2.926855e-06	-7.793416e-09	-1.964809e+01	-5.082387e+02
7.000000e-08	-2.920281e-06	-7.782762e-09	-1.960395e+01	-5.071849e+02
8.000000e-08	-2.912708e-06	-7.772988e-09	-1.955312e+01	-5.059615e+02
9.000000e-08	-2.903952e-06	-7.764269e-09	-1.949433e+01	-5.046006e+02
1.000000e-07	-2.893715e-06	-7.735346e-09	-1.942562e+01	-5.031291e+02
1.100000e-07	-2.882002e-06	-7.685210e-09	-1.934698e+01	-5.015593e+02
1.200000e-07	-2.869409e-06	-7.625097e-09	-1.926245e+01	-4.998840e+02
1.300000e-07	-2.856138e-06	-7.615853e-09	-1.917336e+01	-4.980786e+02
1.400000e-07	-2.841790e-06	-7.616190e-09	-1.907704e+01	-4.961098e+02
1.500000e-07	-2.826234e-06	-7.585817e-09	-1.897261e+01	-4.939488e+02
1.600000e-07	-2.809532e-06	-7.522068e-09	-1.886049e+01	-4.915825e+02
1.700000e-07	-2.791647e-06	-7.489129e-09	-1.874043e+01	-4.890207e+02
1.800000e-07	-2.772777e-06	-7.463141e-09	-1.861376e+01	-4.862946e+02
1.900000e-07	-2.753200e-06	-7.374436e-09	-1.848233e+01	-4.834479e+02
2.000000e-07	-2.732783e-06	-7.335303e-09	-1.834527e+01	-4.805231e+02
2.100000e-07	-2.711387e-06	-7.303648e-09	-1.820164e+01	-4.775468e+02
2.200000e-07	-2.689152e-06	-7.234274e-09	-1.805238e+01	-4.745203e+02
2.300000e-07	-2.666065e-06	-7.201570e-09	-1.789739e+01	-4.714183e+02
2.400000e-07	-2.642028e-06	-7.183683e-09	-1.773603e+01	-4.681965e+02
2.500000e-07	-2.617212e-06	-7.096395e-09	-1.756944e+01	-4.648049e+02
2.600000e-07	-2.591427e-06	-7.008158e-09	-1.739635e+01	-4.612043e+02
2.700000e-07	-2.564289e-06	-6.969978e-09	-1.721417e+01	-4.573780e+02
2.800000e-07	-2.536080e-06	-6.940893e-09	-1.702480e+01	-4.533366e+02
2.900000e-07	-2.507134e-06	-6.856369e-09	-1.683048e+01	-4.491139e+02
3.000000e-07	-2.477339e-06	-6.767785e-09	-1.663046e+01	-4.447558e+02
3.100000e-07	-2.446698e-06	-6.724197e-09	-1.642477e+01	-4.403050e+02
3.200000e-07	-2.415295e-06	-6.666336e-09	-1.621396e+01	-4.357892e+02
3.300000e-07	-2.383152e-06	-6.563193e-09	-1.599819e+01	-4.312146e+02
3.400000e-07	-2.350382e-06	-6.484715e-09	-1.577820e+01	-4.265669e+02
3.500000e-07	-2.316857e-06	-6.449264e-09	-1.555314e+01	-4.218205e+02
3.600000e-07	-2.282188e-06	-6.359190e-09	-1.532041e+01	-4.169497e+02
3.700000e-07	-2.246372e-06	-6.285241e-09	-1.507998e+01	-4.119397e+02
3.800000e-07	-2.209784e-06	-6.216965e-09	-1.483436e+01	-4.067922e+02
3.900000e-07	-2.172548e-06	-6.092926e-09	-1.458440e+01	-4.015239e+02
4.000000e-07	-2.134544e-06	-6.008142e-09	-1.432927e+01	-3.961594e+02
4.100000e-07	-2.095750e-06	-5.967016e-09	-1.406885e+01	-3.907210e+02
4.200000e-07	-2.056196e-06	-5.875271e-09	-1.380332e+01	-3.852199e+02
4.300000e-07	-2.015997e-06	-5.774586e-09	-1.353346e+01	-3.796517e+02
4.400000e-07	-1.975316e-06	-5.704040e-09	-1.326037e+01	-3.739986e+02
4.500000e-07	-1.934025e-06	-5.611016e-09	-1.298318e+01	-3.682366e+02
4.600000e-07	-1.891819e-06	-5.514483e-09	-1.269985e+01	-3.623447e+02
4.700000e-07	-1.848567e-06	-5.412960e-09	-1.240950e+01	-3.563137e+02
4.800000e-07	-1.804491e-06	-5.317511e-09	-1.211362e+01	-3.501491e+02
4.900000e-07	-1.759931e-06	-5.234858e-09	-1.181448e+01	-3.438695e+02
5.000000e-07	-1.714857e-06	-5.144099e-09	-1.151190e+01	-3.374990e+02
5.100000e-07	-1.669161e-06	-5.040275e-09	-1.120514e+01	-3.310585e+02
5.200000e-07	-1.622877e-06	-4.938111e-09	-1.089443e+01	-3.245582e+02
5.300000e-07	-1.576024e-06	-4.837573e-09	-1.057991e+01	-3.179951e+02
5.400000e-07	-1.528568e-06	-4.739843e-09	-1.026133e+01	-3.113552e+02
5.500000e-07	-1.480548e-06	-4.646940e-09	-9.938974e+00	-3.046206e+02
5.600000e-07	-1.432121e-06	-4.531295e-09	-9.613879e+00	-2.977777e+02
5.700000e-07	-1.383306e-06	-4.415844e-09	-9.286182e+00	-2.908235e+02
5.800000e-07	-1.333974e-06	-4.316143e-09	-8.955014e+00	-2.837670e+02
5.900000e-07	-1.283916e-06	-4.212293e-09	-8.618978e+00	-2.766261e+02
6.000000e-07	-1.233072e-06	-4.093526e-09	-8.277658e+00	-2.694198e+02
6.100000e-07	-1.181517e-06	-3.984225e-09	-7.931568e+00	-2.621608e+02
6.200000e-07	-1.129370e-06	-3.882446e-09	-7.581501e+00	-2.548492e+02
6.300000e-07	-1.076849e-06	-3.769676e-09	-7.228930e+00	-2.474728e+02
6.400000e-07	-1.024071e-06	-3.650594e-09	-6.874624e+00	-2.400112e+02
6.500000e-07	-9.709567e-07	-3.528367e-09	-6.518068e+00	-2.324443e+02
6.600000e-07	-9.174450e-07	-3.411893e-09	-6.158842e+00	-2.247613e+02
6.700000e-07	-8.635629e-07	-3.296308e-09	-5.797130e+00	-2.169658e+02
6.800000e-07	-8.093574e-07	-3.178994e-09	-5.433246e+00	-2.090767e+02
6.900000e-07	-7.549168e-07	-3.056930e-09	-5.067784e+00	-2.011224e+02
7.000000e-07	-7.002901e-07	-2.934875e-09	-4.701073e+00	-1.931322e+02
7.100000e-07	-6.454557e-07	-2.813164e-09	-4.332967e+00	-1.851258e+02
7.200000e-07	-5.904014e-07	-2.688372e-09	-3.963386e+00	-1.771074e+02
7.300000e-07	-5.351062e-07	-2.559981e-09	-3.592188e+00	-1.690638e+02
7.400000e-07	-4.795223e-07	-2.430878e-09	-3.219050e+00	-1.609692e+02
7.500000e-07	-4.237082e-07	-2.310034e-09	-2.844369e+00	-1.527939e+02
7.600000e-07	-3.676936e-07	-2.191064e-09	-2.468341e+00	-1.445139e+02
7.700000e-07	-3.115325e-07	-2.065882e-09	-2.091329e+00	-1.361185e+02
7.800000e-07	-2.553344e-07	-1.932498e-09	-1.714069e+00	-1.276127e+02
7.900000e-07	-1.990923e-07	-1.799753e-09	-1.336514e+00	-1.190143e+02
8.000000e-07	-1.427700e-07	-1.666309e-09	-9.584200e-01	-1.103467e+02
8.100000e-07	-8.637811e-08	-1.528633e-09	-5.798594e-01	-1.016308e+02
8.200000e-07	-2.997903e-08	-1.391395e-09	-2.012503e-01	-9.287867e+01
8.300000e-07	2.638619e-08	-1.258203e-09	1.771315e-01	-8.409040e+01
8.400000e-07	8.272905e-08	-1.129991e-09	5.553631e-01	-7.525670e+01
8.500000e-07	1.390636e-07	-9.984091e-10	9.335392e-01	-6.636398e+01
8.600000e-07	1.953806e-07	-8.607610e-10	1.311597e+00	-5.740064e+01
8.700000e-07	2.516404e-07	-7.202561e-10	1.689272e+00	-4.836172e+01
8.800000e-07	3.078575e-07	-5.801715e-10	2.066659e+00	-3.925004e+01
8.900000e-07	3.639427e-07	-4.363223e-10	2.443161e+00	-3.007374e+01
9.000000e-07	4.198319e-07	-2.908024e-10	2.818347e+00	-2.084138e+01
9.100000e-07	4.755444e-07	-1.477204e-10	3.192347e+00	-1.155689e+01
9.200000e-07	5.310264e-07	-6.855068e-12	3.564800e+00	-2.216615e+00
9.300000e-07	5.863094e-07	1.331191e-10	3.935917e+00	7.190268e+00
9.400000e-07	6.414221e-07	2.748847e-10	4.305890e+00	1.667803e+01
9.500000e-07	6.963116e-07	4.195522e-10	4.674365e+00	2.625892e+01
9.600000e-07	7.509673e-07	5.702479e-10	5.041271e+00	3.593807e+01
9.700000e-07	8.053915e-07	7.232411e-10	5.406622e+00	4.571113e+01
9.800000e-07	8.595877e-07	8.765484e-10	5.770444e+00	5.556531e+01
9.900000e-07	9.134657e-07	1.029893e-09	6.132129e+00	6.548389e+01
1.000000e-06	9.669236e-07	1.180792e-09	6.490993e+00	7.545205e+01
1.010000e-06	1.020017e-06	1.329890e-09	6.847409e+00	8.546209e+01
1.020000e-06	1.072777e-06	1.481228e-09	7.201591e+00	9.551558e+01
1.030000e-06	1.125192e-06	1.636177e-09	7.553455e+00	1.056219e+02
1.040000e-06	1.177157e-06	1.791642e-09	7.902297e+00	1.157932e+02
1.050000e-06	1.228507e-06	1.947972e-09	8.247014e+00	1.260382e+02
1.060000e-06	1.279100e-06	2.107502e-09	8.586648e+00	1.363571e+02
1.070000e-06	1.328960e-06	2.268207e-09	8.921360e+00	1.467388e+02
1.080000e-06	1.378226e-06	2.426475e-09	9.252085e+00	1.571630e+02
1.090000e-06	1.427031e-06	2.582536e-09	9.579710e+00	1.676054e+02
1.100000e-06	1.475421e-06	2.738892e-09	9.904555e+00	1.780441e+02
1.110000e-06	1.523347e-06	2.898343e-09	1.022628e+01	1.884654e+02
1.120000e-06	1.570758e-06	3.059479e-09	1.054456e+01	1.988660e+02
1.130000e-06	1.617634e-06	3.219373e-09	1.085923e+01	2.092517e+02
1.140000e-06	1.663940e-06	3.376312e-09	1.117009e+01	2.196318e+02
1.150000e-06	1.709626e-06	3.532003e-09	1.147678e+01	2.300124e+02
1.160000e-06	1.754734e-06	3.689965e-09	1.177959e+01	2.403902e+02
1.170000e-06	1.799405e-06	3.849132e-09	1.207947e+01	2.507500e+02
1.180000e-06	1.843679e-06	4.007392e-09	1.237669e+01	2.610657e+02
1.190000e-06	1.887292e-06	4.164589e-09	1.266946e+01	2.713053e+02
1.200000e-06	1.929997e-06	4.320401e-09	1.295614e+01	2.814382e+02
1.210000e-06	1.971705e-06	4.472582e-09	1.323613e+01	2.914415e+02
1.220000e-06	2.012598e-06	4.619555e-09	1.351064e+01	3.013030e+02
1.230000e-06	2.052962e-06	4.763481e-09	1.378161e+01	3.110206e+02
1.240000e-06	2.092721e-06	4.907156e-09	1.404852e+01	3.205979e+02
1.250000e-06	2.131744e-06	5.052417e-09	1.431048e+01	3.300368e+02
1.260000e-06	2.170056e-06	5.197671e-09	1.456767e+01	3.393315e+02
1.270000e-06	2.207613e-06	5.338254e-09	1.481979e+01	3.484645e+02
1.280000e-06	2.244469e-06	5.472536e-09	1.506720e+01	3.574074e+02
1.290000e-06	2.280771e-06	5.602214e-09	1.531090e+01	3.661250e+02
1.300000e-06	2.316276e-06	5.727823e-09	1.554924e+01	3.745829e+02
1.310000e-06	2.350601e-06	5.848085e-09	1.577967e+01	3.827545e+02
1.320000e-06	2.383869e-06	5.964411e-09	1.600300e+01	3.906262e+02
1.330000e-06	2.416386e-06	6.078854e-09	1.622129e+01	3.981978e+02
1.340000e-06	2.448150e-06	6.191801e-09	1.643452e+01	4.054802e+02
1.350000e-06	2.479109e-06	6.299589e-09	1.664235e+01	4.124891e+02
1.360000e-06	2.509263e-06	6.399923e-09	1.684477e+01	4.192387e+02
1.370000e-06	2.538599e-06	6.494291e-09	1.704171e+01	4.257368e+02
1.380000e-06	2.567231e-06	6.585791e-09	1.723392e+01	4.319834e+02
1.390000e-06	2.595120e-06	6.675967e-09	1.742114e+01	4.379735e+02
1.400000e-06	2.621831e-06	6.762754e-09	1.760045e+01	4.437015e+02
1.410000e-06	2.647275e-06	6.844743e-09	1.777126e+01	4.491666e+02
1.420000e-06	2.671700e-06	6.923532e-09	1.793522e+01	4.543764e+02
1.430000e-06	2.695209e-06	6.999490e-09	1.809304e+01	4.593468e+02
1.440000e-06	2.717817e-06	7.070838e-09	1.824480e+01	4.640985e+02
1.450000e-06	2.739542e-06	7.137638e-09	1.839064e+01	4.686501e+02
1.460000e-06	2.760471e-06	7.201696e-09	1.853114e+01	4.730122e+02
1.470000e-06	2.780630e-06	7.266079e-09	1.866647e+01	4.771826e+02
1.480000e-06	2.799844e-06	7.328076e-09	1.879546e+01	4.811461e+02
1.490000e-06	2.817987e-06	7.382827e-09	1.891725e+01	4.848785e+02
1.500000e-06	2.835121e-06	7.430922e-09	1.903227e+01	4.883542e+02
1.510000e-06	2.851198e-06	7.475657e-09	1.914020e+01	4.915543e+02
1.520000e-06	2.866144e-06	7.519283e-09	1.924053e+01	4.944733e+02
1.530000e-06	2.880005e-06	7.560202e-09	1.933358e+01	4.971208e+02
1.540000e-06	2.892788e-06	7.596403e-09	1.941939e+01	4.995193e+02
1.550000e-06	2.904367e-06	7.627924e-09	1.949712e+01	5.016972e+02
1.560000e-06	2.914619e-06	7.657723e-09	1.956594e+01	5.036800e+02
1.570000e-06	2.923694e-06	7.685331e-09	1.962687e+01	5.054839e+02
1.580000e-06	2.931824e-06	7.709194e-09	1.968144e+01	5.071119e+02
1.590000e-06	2.939057e-06	7.729478e-09	1.973000e+01	5.085555e+02
1.600000e-06	2.945314e-06	7.745677e-09	1.977200e+01	5.098010e+02
1.610000e-06	2.950615e-06	7.759071e-09	1.980759e+01	5.108372e+02
1.620000e-06	2.955029e-06	7.771574e-09	1.983722e+01	5.116619e+02
1.630000e-06	2.958306e-06	7.782187e-09	1.985922e+01	5.122856e+02
1.640000e-06	2.960286e-06	7.789503e-09	1.987251e+01	5.127291e+02
1.650000e-06	2.961179e-06	7.793978e-09	1.987850e+01	5.130172e+02
1.660000e-06	2.961089e-06	7.797866e-09	1.987790e+01	5.131700e+02
1.670000e-06	2.960043e-06	7.799421e-09	1.987087e+01	5.131960e+02
1.680000e-06	2.958126e-06	7.795218e-09	1.985801e+01	5.130882e+02
1.690000e-06	2.955350e-06	7.786978e-09	1.983937e+01	5.128272e+02
1.700000e-06	2.951771e-06	7.777304e-09	1.981534e+01	5.123881e+02
1.710000e-06	2.947244e-06	7.769264e-09	1.978496e+01	5.117503e+02
1.720000e-06	2.941474e-06	7.761269e-09	1.974622e+01	5.109065e+02
1.730000e-06	2.934606e-06	7.744095e-09	1.970012e+01	5.098664e+02
1.740000e-06	2.926920e-06	7.715999e-09	1.964852e+01	5.086545e+02
1.750000e-06	2.918072e-06	7.673316e-09	1.958913e+01	5.073029e+02
1.760000e-06	2.907479e-06	7.662240e-09	1.951802e+01	5.058391e+02
1.770000e-06	2.895421e-06	7.672027e-09	1.943707e+01	5.042768e+02
1.780000e-06	2.883058e-06	7.665322e-09	1.935407e+01	5.026101e+02
1.790000e-06	2.870449e-06	7.610921e-09	1.926943e+01	5.008155e+02
1.800000e-06	2.856390e-06	7.555685e-09	1.917505e+01	4.988600e+02
1.810000e-06	2.840766e-06	7.577340e-09	1.907017e+01	4.967138e+02
1.820000e-06	2.824409e-06	7.528619e-09	1.896036e+01	4.943626e+02
1.830000e-06	2.807280e-06	7.440405e-09	1.884537e+01	4.918144e+02
1.840000e-06	2.788938e-06	7.422274e-09	1.872224e+01	4.890991e+02
1.850000e-06	2.769767e-06	7.409795e-09	1.859355e+01	4.862600e+02
1.860000e-06	2.749855e-06	7.345923e-09	1.845988e+01	4.833401e+02
1.870000e-06	2.728539e-06	7.309607e-09	1.831678e+01	4.803675e+02
1.880000e-06	2.705919e-06	7.294633e-09	1.816493e+01	4.773456e+02
1.890000e-06	2.682469e-06	7.193177e-09	1.800751e+01	4.742508e+02
1.900000e-06	2.658074e-06	7.128188e-09	1.784375e+01	4.710397e+02
1.910000e-06	2.632812e-06	7.153984e-09	1.767416e+01	4.676622e+02
1.920000e-06	2.606840e-06	7.092451e-09	1.749981e+01	4.640779e+02
1.930000e-06	2.580048e-06	6.990885e-09	1.731996e+01	4.602681e+02
1.940000e-06	2.552509e-06	6.941916e-09	1.713508e+01	4.562416e+02
1.950000e-06	2.524022e-06	6.888141e-09	1.694385e+01	4.520309e+02
1.960000e-06	2.494121e-06	6.825124e-09	1.674312e+01	4.476813e+02
1.970000e-06	2.463142e-06	6.729979e-09	1.653517e+01	4.432364e+02
1.980000e-06	2.431442e-06	6.666050e-09	1.632236e+01	4.387253e+02
1.990000e-06	2.398894e-06	6.641680e-09	1.610386e+01	4.341556e+02
2.000000e-06	2.365625e-06	6.548604e-09	1.588052e+01	4.295144e+02
2.010000e-06	2.331600e-06	6.446637e-09	1.565212e+01	4.247764e+02
2.020000e-06	2.296788e-06	6.401909e-09	1.541842e+01	4.199156e+02
2.030000e-06	2.261362e-06	6.302079e-09	1.518061e+01	4.149162e+02
2.040000e-06	2.224980e-06	6.228591e-09	1.493637e+01	4.097786e+02
2.050000e-06	2.187346e-06	6.201985e-09	1.468374e+01	4.045186e+02
2.060000e-06	2.148841e-06	6.081272e-09	1.442525e+01	3.991606e+02
2.070000e-06	2.109713e-06	5.979581e-09	1.416258e+01	3.937274e+02
2.080000e-06	2.069958e-06	5.928392e-09	1.389570e+01	3.882312e+02
2.090000e-06	2.029519e-06	5.828066e-09	1.362423e+01	3.826687e+02
2.100000e-06	1.988395e-06	5.736309e-09	1.334817e+01	3.770229e+02
2.110000e-06	1.946630e-06	5.657451e-09	1.306780e+01	3.712699e+02
2.120000e-06	1.904194e-06	5.568740e-09	1.278292e+01	3.653882e+02
2.130000e-06	1.861232e-06	5.493768e-09	1.249452e+01	3.593676e+02
2.140000e-06	1.817829e-06	5.386913e-09	1.220315e+01	3.532125e+02
2.150000e-06	1.773785e-06	5.278538e-09	1.190748e+01	3.469408e+02
2.160000e-06	1.729019e-06	5.192849e-09	1.160697e+01	3.405765e+02
2.170000e-06	1.683581e-06	5.096366e-09	1.130194e+01	3.341409e+02
2.180000e-06	1.637653e-06	5.005524e-09	1.099362e+01	3.276453e+02
2.190000e-06	1.591258e-06	4.902115e-09	1.068217e+01	3.210875e+02
2.200000e-06	1.544269e-06	4.785869e-09	1.036673e+01	3.144541e+02
2.210000e-06	1.496675e-06	4.687045e-09	1.004723e+01	3.077273e+02
2.220000e-06	1.448386e-06	4.596007e-09	9.723068e+00	3.008929e+02
2.230000e-06	1.399496e-06	4.490000e-09	9.394870e+00	2.939469e+02
2.240000e-06	1.350160e-06	4.371927e-09	9.063673e+00	2.868977e+02
2.250000e-06	1.300287e-06	4.269674e-09	8.728874e+00	2.797625e+02
2.260000e-06	1.249827e-06	4.170430e-09	8.390136e+00	2.725609e+02
2.270000e-06	1.198917e-06	4.049883e-09	8.048375e+00	2.653059e+02
2.280000e-06	1.147665e-06	3.930348e-09	7.704314e+00	2.579988e+02
2.290000e-06	1.096021e-06	3.821081e-09	7.357632e+00	2.506281e+02
2.300000e-06	1.043835e-06	3.713606e-09	7.007300e+00	2.431737e+02
2.310000e-06	9.909490e-07	3.603919e-09	6.652277e+00	2.356154e+02
2.320000e-06	9.373810e-07	3.483805e-09	6.292673e+00	2.279412e+02
2.330000e-06	8.833079e-07	3.362939e-09	5.929678e+00	2.201537e+02
2.340000e-06	8.288858e-07	3.243292e-09	5.564341e+00	2.122709e+02
2.350000e-06	7.741825e-07	3.121353e-09	5.197116e+00	2.043207e+02
2.360000e-06	7.192563e-07	3.001503e-09	4.828394e+00	1.963326e+02
2.370000e-06	6.641796e-07	2.880028e-09	4.458662e+00	1.883275e+02
2.380000e-06	6.089501e-07	2.762189e-09	4.087904e+00	1.803107e+02
2.390000e-06	5.535748e-07	2.643561e-09	3.716168e+00	1.722701e+02
2.400000e-06	4.981014e-07	2.517698e-09	3.343773e+00	1.641806e+02
2.410000e-06	4.424812e-07	2.387644e-09	2.970392e+00	1.560124e+02
2.420000e-06	3.867172e-07	2.258952e-09	2.596047e+00	1.477409e+02
2.430000e-06	3.308482e-07	2.136208e-09	2.220996e+00	1.393542e+02
2.440000e-06	2.748218e-07	2.009971e-09	1.844889e+00	1.308563e+02
2.450000e-06	2.186501e-07	1.879105e-09	1.467806e+00	1.222642e+02
2.460000e-06	1.623649e-07	1.748177e-09	1.089962e+00	1.136012e+02
2.470000e-06	1.060663e-07	1.615682e-09	7.120268e-01	1.048888e+02
2.480000e-06	4.978515e-08	1.480611e-09	3.342095e-01	9.613951e+01
2.490000e-06	-6.544734e-09	1.343283e-09	-4.393504e-02	8.735450e+01
2.500000e-06	-6.289078e-08	1.208145e-09	-4.221881e-01	7.852494e+01
2.510000e-06	-1.191814e-07	1.077047e-09	-8.000692e-01	6.963733e+01
2.520000e-06	-1.754134e-07	9.444410e-10	-1.177557e+00	6.067976e+01
2.530000e-06	-2.315674e-07	8.060477e-10	-1.554520e+00	5.164668e+01
2.540000e-06	-2.875936e-07	6.647127e-10	-1.930626e+00	4.254043e+01
2.550000e-06	-3.435443e-07	5.245865e-10	-2.306226e+00	3.336890e+01
2.560000e-06	-3.993783e-07	3.861410e-10	-2.681041e+00	2.414079e+01
2.570000e-06	-4.550010e-07	2.443276e-10	-3.054439e+00	1.486050e+01
2.580000e-06	-5.104522e-07	1.005459e-10	-3.426684e+00	5.524956e+00
2.590000e-06	-5.657801e-07	-4.103617e-11	-3.798102e+00	-3.876249e+00
2.600000e-06	-6.209992e-07	-1.824093e-10	-4.168790e+00	-1.335732e+01
2.610000e-06	-6.761162e-07	-3.276353e-10	-4.538793e+00	-2.293081e+01
2.620000e-06	-7.311247e-07	-4.785093e-10	-4.908067e+00	-3.260252e+01
2.630000e-06	-7.859501e-07	-6.298424e-10	-5.276112e+00	-4.236876e+01
2.640000e-06	-8.404937e-07	-7.780067e-10	-5.642265e+00	-5.221723e+01
2.650000e-06	-8.946004e-07	-9.276603e-10	-6.005485e+00	-6.213129e+01
2.660000e-06	-9.481460e-07	-1.081777e-09	-6.364939e+00	-7.209582e+01
2.670000e-06	-1.001123e-06	-1.234002e-09	-6.720573e+00	-8.210246e+01
2.680000e-06	-1.053554e-06	-1.383409e-09	-7.072546e+00	-9.215216e+01
2.690000e-06	-1.105440e-06	-1.534361e-09	-7.420862e+00	-1.022538e+02
2.700000e-06	-1.156858e-06	-1.690169e-09	-7.766028e+00	-1.124196e+02
2.710000e-06	-1.207921e-06	-1.849512e-09	-8.108815e+00	-1.226589e+02
2.720000e-06	-1.258619e-06	-2.008739e-09	-8.449158e+00	-1.329722e+02
2.730000e-06	-1.308836e-06	-2.168513e-09	-8.786264e+00	-1.433496e+02
2.740000e-06	-1.358506e-06	-2.327913e-09	-9.119701e+00	-1.537711e+02
2.750000e-06	-1.407699e-06	-2.486924e-09	-9.449937e+00	-1.642125e+02
2.760000e-06	-1.456324e-06	-2.643918e-09	-9.776358e+00	-1.746516e+02
2.770000e-06	-1.504135e-06	-2.798417e-09	-1.009732e+01	-1.850739e+02
2.780000e-06	-1.551040e-06	-2.955163e-09	-1.041219e+01	-1.954754e+02
2.790000e-06	-1.597182e-06	-3.117430e-09	-1.072194e+01	-2.058614e+02
2.800000e-06	-1.642836e-06	-3.280946e-09	-1.102842e+01	-2.162412e+02
2.810000e-06	-1.688132e-06	-3.440761e-09	-1.133249e+01	-2.266212e+02
2.820000e-06	-1.732988e-06	-3.597616e-09	-1.163361e+01	-2.369992e+02
2.830000e-06	-1.777229e-06	-3.753433e-09	-1.193060e+01	-2.473606e+02
2.840000e-06	-1.820853e-06	-3.908585e-09	-1.222345e+01	-2.576799e+02
2.850000e-06	-1.864020e-06	-4.063246e-09	-1.251323e+01	-2.679256e+02
2.860000e-06	-1.906726e-06	-4.218566e-09	-1.279992e+01	-2.780666e+02
2.870000e-06	-1.948811e-06	-4.373022e-09	-1.308244e+01	-2.880792e+02
2.880000e-06	-1.990234e-06	-4.525964e-09	-1.336051e+01	-2.979505e+02
2.890000e-06	-2.031041e-06	-4.675818e-09	-1.363445e+01	-3.076779e+02
2.900000e-06	-2.071130e-06	-4.821610e-09	-1.390357e+01	-3.172646e+02
2.910000e-06	-2.110552e-06	-4.964581e-09	-1.416821e+01	-3.267130e+02
2.920000e-06	-2.149400e-06	-5.106350e-09	-1.442900e+01	-3.360180e+02
2.930000e-06	-2.187434e-06	-5.246960e-09	-1.468433e+01	-3.451629e+02
2.940000e-06	-2.224366e-06	-5.384447e-09	-1.493225e+01	-3.541200e+02
