# Temperatura_=_19.06
# Concentracion g/m^3_=_18700.0
# C_Vs_to_Am_M_A/Vsm_=_65563218390.804596
# pendiente_HvsI_1/m_=_3716.3
# ordenada_HvsI_A/m_=_1297.0
# frecuencia_Hz_=_301074.8664464547

Tiempo_(s)	Campo_(V.s)	Magnetizacion_(V.s)	Campo_(kA/m)	Magnetizacion_(A/m)
0.000000e+00	-2.945363e-06	-7.605587e-09	-1.977728e+01	-4.968793e+02
1.000000e-08	-2.944921e-06	-7.609575e-09	-1.977431e+01	-4.969423e+02
2.000000e-08	-2.943683e-06	-7.612912e-09	-1.976599e+01	-4.968573e+02
3.000000e-08	-2.941264e-06	-7.612587e-09	-1.974975e+01	-4.966236e+02
4.000000e-08	-2.937609e-06	-7.607816e-09	-1.972521e+01	-4.962341e+02
5.000000e-08	-2.933083e-06	-7.597980e-09	-1.969482e+01	-4.956777e+02
6.000000e-08	-2.927726e-06	-7.584231e-09	-1.965885e+01	-4.949448e+02
7.000000e-08	-2.921446e-06	-7.567220e-09	-1.961668e+01	-4.940320e+02
8.000000e-08	-2.914147e-06	-7.556997e-09	-1.956767e+01	-4.929462e+02
9.000000e-08	-2.905761e-06	-7.563487e-09	-1.951136e+01	-4.917037e+02
1.000000e-07	-2.895963e-06	-7.546056e-09	-1.944557e+01	-4.903266e+02
1.100000e-07	-2.884587e-06	-7.477279e-09	-1.936918e+01	-4.888351e+02
1.200000e-07	-2.872241e-06	-7.417680e-09	-1.928628e+01	-4.872406e+02
1.300000e-07	-2.859213e-06	-7.441820e-09	-1.919880e+01	-4.855412e+02
1.400000e-07	-2.845190e-06	-7.452804e-09	-1.910464e+01	-4.837216e+02
1.500000e-07	-2.829955e-06	-7.347864e-09	-1.900234e+01	-4.817588e+02
1.600000e-07	-2.813581e-06	-7.326989e-09	-1.889240e+01	-4.796303e+02
1.700000e-07	-2.795994e-06	-7.354714e-09	-1.877431e+01	-4.773238e+02
1.800000e-07	-2.777312e-06	-7.257196e-09	-1.864886e+01	-4.748421e+02
1.900000e-07	-2.757874e-06	-7.195123e-09	-1.851834e+01	-4.722039e+02
2.000000e-07	-2.737643e-06	-7.211973e-09	-1.838250e+01	-4.694375e+02
2.100000e-07	-2.716469e-06	-7.119402e-09	-1.824032e+01	-4.665700e+02
2.200000e-07	-2.694426e-06	-7.031378e-09	-1.809230e+01	-4.636165e+02
2.300000e-07	-2.671537e-06	-7.071810e-09	-1.793861e+01	-4.605728e+02
2.400000e-07	-2.647712e-06	-7.013187e-09	-1.777864e+01	-4.574144e+02
2.500000e-07	-2.623119e-06	-6.904667e-09	-1.761350e+01	-4.541033e+02
2.600000e-07	-2.597650e-06	-6.880057e-09	-1.744248e+01	-4.505996e+02
2.700000e-07	-2.570937e-06	-6.809959e-09	-1.726311e+01	-4.468755e+02
2.800000e-07	-2.543100e-06	-6.740936e-09	-1.707619e+01	-4.429250e+02
2.900000e-07	-2.514440e-06	-6.727869e-09	-1.688375e+01	-4.387671e+02
3.000000e-07	-2.484909e-06	-6.613754e-09	-1.668546e+01	-4.344411e+02
3.100000e-07	-2.454518e-06	-6.540050e-09	-1.648139e+01	-4.299947e+02
3.200000e-07	-2.423387e-06	-6.547114e-09	-1.627236e+01	-4.254702e+02
3.300000e-07	-2.391521e-06	-6.425117e-09	-1.605838e+01	-4.208925e+02
3.400000e-07	-2.358922e-06	-6.308365e-09	-1.583949e+01	-4.162638e+02
3.500000e-07	-2.325518e-06	-6.298828e-09	-1.561519e+01	-4.115652e+02
3.600000e-07	-2.291132e-06	-6.217260e-09	-1.538430e+01	-4.067665e+02
3.700000e-07	-2.255650e-06	-6.115606e-09	-1.514605e+01	-4.018378e+02
3.800000e-07	-2.219237e-06	-6.083907e-09	-1.490155e+01	-3.967609e+02
3.900000e-07	-2.182127e-06	-5.971948e-09	-1.465236e+01	-3.915351e+02
4.000000e-07	-2.144352e-06	-5.856375e-09	-1.439871e+01	-3.861762e+02
4.100000e-07	-2.105831e-06	-5.816964e-09	-1.414006e+01	-3.807101e+02
4.200000e-07	-2.066541e-06	-5.734314e-09	-1.387624e+01	-3.751623e+02
4.300000e-07	-2.026548e-06	-5.618613e-09	-1.360769e+01	-3.695490e+02
4.400000e-07	-1.986035e-06	-5.549552e-09	-1.333566e+01	-3.638726e+02
4.500000e-07	-1.944996e-06	-5.474074e-09	-1.306009e+01	-3.581218e+02
4.600000e-07	-1.903159e-06	-5.373688e-09	-1.277917e+01	-3.522782e+02
4.700000e-07	-1.860295e-06	-5.277824e-09	-1.249135e+01	-3.463236e+02
4.800000e-07	-1.816459e-06	-5.175582e-09	-1.219700e+01	-3.402482e+02
4.900000e-07	-1.771992e-06	-5.090800e-09	-1.189842e+01	-3.340534e+02
5.000000e-07	-1.727048e-06	-5.004145e-09	-1.159664e+01	-3.277511e+02
5.100000e-07	-1.681544e-06	-4.895036e-09	-1.129109e+01	-3.213585e+02
5.200000e-07	-1.635438e-06	-4.793619e-09	-1.098150e+01	-3.148911e+02
5.300000e-07	-1.588727e-06	-4.706944e-09	-1.066785e+01	-3.083581e+02
5.400000e-07	-1.541447e-06	-4.601596e-09	-1.035038e+01	-3.017594e+02
5.500000e-07	-1.493597e-06	-4.499778e-09	-1.002908e+01	-2.950876e+02
5.600000e-07	-1.445286e-06	-4.399876e-09	-9.704685e+00	-2.883333e+02
5.700000e-07	-1.396597e-06	-4.278297e-09	-9.377749e+00	-2.814895e+02
5.800000e-07	-1.347412e-06	-4.171508e-09	-9.047487e+00	-2.745558e+02
5.900000e-07	-1.297537e-06	-4.075117e-09	-8.712590e+00	-2.675388e+02
6.000000e-07	-1.246835e-06	-3.962744e-09	-8.372142e+00	-2.604492e+02
6.100000e-07	-1.195402e-06	-3.849845e-09	-8.026782e+00	-2.532970e+02
6.200000e-07	-1.143397e-06	-3.753156e-09	-7.677587e+00	-2.460871e+02
6.300000e-07	-1.090947e-06	-3.646998e-09	-7.325398e+00	-2.388170e+02
6.400000e-07	-1.038179e-06	-3.526075e-09	-6.971077e+00	-2.314777e+02
6.500000e-07	-9.851270e-07	-3.402530e-09	-6.614848e+00	-2.240578e+02
6.600000e-07	-9.317021e-07	-3.283791e-09	-6.256115e+00	-2.165486e+02
6.700000e-07	-8.778926e-07	-3.171584e-09	-5.894799e+00	-2.089485e+02
6.800000e-07	-8.237592e-07	-3.058523e-09	-5.531309e+00	-2.012647e+02
6.900000e-07	-7.693569e-07	-2.944443e-09	-5.166013e+00	-1.935113e+02
7.000000e-07	-7.147527e-07	-2.829201e-09	-4.799361e+00	-1.857053e+02
7.100000e-07	-6.599704e-07	-2.710112e-09	-4.431514e+00	-1.778604e+02
7.200000e-07	-6.050024e-07	-2.583163e-09	-4.062419e+00	-1.699831e+02
7.300000e-07	-5.498059e-07	-2.454827e-09	-3.691790e+00	-1.620700e+02
7.400000e-07	-4.943435e-07	-2.326770e-09	-3.319376e+00	-1.541103e+02
7.500000e-07	-4.386388e-07	-2.203381e-09	-2.945335e+00	-1.460889e+02
7.600000e-07	-3.827378e-07	-2.088221e-09	-2.569975e+00	-1.379919e+02
7.700000e-07	-3.266661e-07	-1.971806e-09	-2.193470e+00	-1.298106e+02
7.800000e-07	-2.704898e-07	-1.846508e-09	-1.816262e+00	-1.215434e+02
7.900000e-07	-2.142391e-07	-1.715109e-09	-1.438555e+00	-1.131956e+02
8.000000e-07	-1.579275e-07	-1.582429e-09	-1.060438e+00	-1.047761e+02
8.100000e-07	-1.015843e-07	-1.446517e-09	-6.821094e-01	-9.629494e+01
8.200000e-07	-4.523340e-08	-1.312020e-09	-3.037295e-01	-8.775969e+01
8.300000e-07	1.112359e-08	-1.183323e-09	7.469177e-02	-7.917482e+01
8.400000e-07	6.747850e-08	-1.058038e-09	4.530989e-01	-7.054174e+01
8.500000e-07	1.237594e-07	-9.297999e-10	8.310095e-01	-6.186002e+01
8.600000e-07	1.799583e-07	-7.950544e-10	1.208369e+00	-5.312862e+01
8.700000e-07	2.361855e-07	-6.581091e-10	1.585918e+00	-4.434632e+01
8.800000e-07	2.924365e-07	-5.214827e-10	1.963628e+00	-3.551125e+01
8.900000e-07	3.485749e-07	-3.835443e-10	2.340582e+00	-2.661998e+01
9.000000e-07	4.045203e-07	-2.436666e-10	2.716239e+00	-1.766683e+01
9.100000e-07	4.602567e-07	-1.068235e-10	3.090493e+00	-8.644334e+00
9.200000e-07	5.158116e-07	2.770347e-11	3.463528e+00	4.551247e-01
9.300000e-07	5.711572e-07	1.647840e-10	3.835158e+00	9.636834e+00
9.400000e-07	6.262447e-07	3.060363e-10	4.205055e+00	1.890149e+01
9.500000e-07	6.811619e-07	4.501846e-10	4.573808e+00	2.824425e+01
9.600000e-07	7.359198e-07	5.947981e-10	4.941492e+00	3.765574e+01
9.700000e-07	7.904386e-07	7.387408e-10	5.307570e+00	4.712491e+01
9.800000e-07	8.447145e-07	8.820166e-10	5.672018e+00	5.664281e+01
9.900000e-07	8.986436e-07	1.029454e-09	6.034137e+00	6.620575e+01
1.000000e-06	9.522255e-07	1.179034e-09	6.393923e+00	7.581649e+01
1.010000e-06	1.005477e-06	1.326057e-09	6.751494e+00	8.548291e+01
1.020000e-06	1.058320e-06	1.473386e-09	7.106320e+00	9.521424e+01
1.030000e-06	1.110784e-06	1.623472e-09	7.458599e+00	1.050164e+02
1.040000e-06	1.162828e-06	1.773601e-09	7.808061e+00	1.148883e+02
1.050000e-06	1.214348e-06	1.921284e-09	8.154004e+00	1.248201e+02
1.060000e-06	1.265193e-06	2.070001e-09	8.495411e+00	1.347949e+02
1.070000e-06	1.315285e-06	2.224420e-09	8.831768e+00	1.447929e+02
1.080000e-06	1.364672e-06	2.380686e-09	9.163382e+00	1.547966e+02
1.090000e-06	1.413545e-06	2.535030e-09	9.491552e+00	1.647952e+02
1.100000e-06	1.462089e-06	2.686849e-09	9.817512e+00	1.747861e+02
1.110000e-06	1.510243e-06	2.838572e-09	1.014085e+01	1.847732e+02
1.120000e-06	1.557836e-06	2.990346e-09	1.046043e+01	1.947630e+02
1.130000e-06	1.604840e-06	3.141679e-09	1.077604e+01	2.047591e+02
1.140000e-06	1.651319e-06	3.291522e-09	1.108814e+01	2.147580e+02
1.150000e-06	1.697206e-06	3.442990e-09	1.139625e+01	2.247470e+02
1.160000e-06	1.742448e-06	3.598200e-09	1.170004e+01	2.347063e+02
1.170000e-06	1.787213e-06	3.754051e-09	1.200063e+01	2.446127e+02
1.180000e-06	1.831621e-06	3.906057e-09	1.229881e+01	2.544447e+02
1.190000e-06	1.875449e-06	4.054608e-09	1.259311e+01	2.641870e+02
1.200000e-06	1.918422e-06	4.201722e-09	1.288166e+01	2.738315e+02
1.210000e-06	1.960397e-06	4.345968e-09	1.316351e+01	2.833756e+02
1.220000e-06	2.001508e-06	4.486972e-09	1.343956e+01	2.928188e+02
1.230000e-06	2.042001e-06	4.625515e-09	1.371145e+01	3.021569e+02
1.240000e-06	2.081856e-06	4.764615e-09	1.397907e+01	3.113793e+02
1.250000e-06	2.121039e-06	4.904205e-09	1.424217e+01	3.204672e+02
1.260000e-06	2.159557e-06	5.042853e-09	1.450081e+01	3.293951e+02
1.270000e-06	2.197279e-06	5.176516e-09	1.475411e+01	3.381356e+02
1.280000e-06	2.234292e-06	5.305707e-09	1.500263e+01	3.466635e+02
1.290000e-06	2.270773e-06	5.430444e-09	1.524760e+01	3.549598e+02
1.300000e-06	2.306476e-06	5.549872e-09	1.548733e+01	3.630136e+02
1.310000e-06	2.341049e-06	5.662507e-09	1.571948e+01	3.708212e+02
1.320000e-06	2.374546e-06	5.772526e-09	1.594440e+01	3.783833e+02
1.330000e-06	2.407253e-06	5.883851e-09	1.616402e+01	3.857019e+02
1.340000e-06	2.439227e-06	5.994951e-09	1.637872e+01	3.927775e+02
1.350000e-06	2.470377e-06	6.101535e-09	1.658788e+01	3.996081e+02
1.360000e-06	2.500696e-06	6.199303e-09	1.679146e+01	4.061900e+02
1.370000e-06	2.530189e-06	6.291351e-09	1.698950e+01	4.125193e+02
1.380000e-06	2.558992e-06	6.380768e-09	1.718291e+01	4.185950e+02
1.390000e-06	2.587072e-06	6.467124e-09	1.737145e+01	4.244195e+02
1.400000e-06	2.614045e-06	6.549456e-09	1.755257e+01	4.299998e+02
1.410000e-06	2.639762e-06	6.629770e-09	1.772525e+01	4.353455e+02
1.420000e-06	2.664428e-06	6.709270e-09	1.789088e+01	4.404676e+02
1.430000e-06	2.688168e-06	6.785091e-09	1.805028e+01	4.453758e+02
1.440000e-06	2.711014e-06	6.855012e-09	1.820369e+01	4.500773e+02
1.450000e-06	2.732942e-06	6.920301e-09	1.835093e+01	4.545753e+02
1.460000e-06	2.754009e-06	6.983560e-09	1.849239e+01	4.588696e+02
1.470000e-06	2.774375e-06	7.045411e-09	1.862914e+01	4.629562e+02
1.480000e-06	2.793880e-06	7.104915e-09	1.876011e+01	4.668286e+02
1.490000e-06	2.812353e-06	7.160160e-09	1.888415e+01	4.704784e+02
1.500000e-06	2.829817e-06	7.210564e-09	1.900141e+01	4.738965e+02
1.510000e-06	2.846191e-06	7.256215e-09	1.911136e+01	4.770744e+02
1.520000e-06	2.861428e-06	7.298914e-09	1.921367e+01	4.800064e+02
1.530000e-06	2.875563e-06	7.337533e-09	1.930859e+01	4.826911e+02
1.540000e-06	2.888671e-06	7.371322e-09	1.939660e+01	4.851328e+02
1.550000e-06	2.900639e-06	7.402629e-09	1.947697e+01	4.873420e+02
1.560000e-06	2.911225e-06	7.432749e-09	1.954805e+01	4.893337e+02
1.570000e-06	2.920582e-06	7.460657e-09	1.961088e+01	4.911249e+02
1.580000e-06	2.928992e-06	7.484542e-09	1.966735e+01	4.927312e+02
1.590000e-06	2.936444e-06	7.505569e-09	1.971739e+01	4.941636e+02
1.600000e-06	2.942904e-06	7.524063e-09	1.976077e+01	4.954269e+02
1.610000e-06	2.948438e-06	7.538331e-09	1.979792e+01	4.965205e+02
1.620000e-06	2.953097e-06	7.549012e-09	1.982921e+01	4.974403e+02
1.630000e-06	2.956727e-06	7.557981e-09	1.985358e+01	4.981828e+02
1.640000e-06	2.959071e-06	7.566599e-09	1.986932e+01	4.987480e+02
1.650000e-06	2.960237e-06	7.576113e-09	1.987715e+01	4.991407e+02
1.660000e-06	2.960438e-06	7.583013e-09	1.987850e+01	4.993695e+02
1.670000e-06	2.959688e-06	7.584443e-09	1.987347e+01	4.994440e+02
1.680000e-06	2.957976e-06	7.581408e-09	1.986197e+01	4.993702e+02
1.690000e-06	2.955410e-06	7.575493e-09	1.984474e+01	4.991481e+02
1.700000e-06	2.952103e-06	7.565980e-09	1.982253e+01	4.987708e+02
1.710000e-06	2.947844e-06	7.555962e-09	1.979393e+01	4.982275e+02
1.720000e-06	2.942366e-06	7.548925e-09	1.975715e+01	4.975082e+02
1.730000e-06	2.935817e-06	7.545454e-09	1.971318e+01	4.966089e+02
1.740000e-06	2.928438e-06	7.515921e-09	1.966363e+01	4.955358e+02
1.750000e-06	2.919994e-06	7.466205e-09	1.960693e+01	4.943046e+02
1.760000e-06	2.909919e-06	7.451834e-09	1.953928e+01	4.929371e+02
1.770000e-06	2.898254e-06	7.498828e-09	1.946095e+01	4.914540e+02
1.780000e-06	2.886003e-06	7.469802e-09	1.937869e+01	4.898675e+02
1.790000e-06	2.873543e-06	7.374600e-09	1.929502e+01	4.881767e+02
1.800000e-06	2.859863e-06	7.369211e-09	1.920317e+01	4.863673e+02
1.810000e-06	2.844509e-06	7.417286e-09	1.910007e+01	4.844162e+02
1.820000e-06	2.828347e-06	7.323573e-09	1.899155e+01	4.823010e+02
1.830000e-06	2.811562e-06	7.241434e-09	1.887884e+01	4.800080e+02
1.840000e-06	2.793536e-06	7.301875e-09	1.875780e+01	4.775391e+02
1.850000e-06	2.774538e-06	7.226739e-09	1.863023e+01	4.749120e+02
1.860000e-06	2.754860e-06	7.123822e-09	1.849810e+01	4.721546e+02
1.870000e-06	2.733881e-06	7.194759e-09	1.835723e+01	4.692943e+02
1.880000e-06	2.711537e-06	7.150832e-09	1.820720e+01	4.663476e+02
1.890000e-06	2.688352e-06	6.990692e-09	1.805152e+01	4.633117e+02
1.900000e-06	2.664201e-06	7.006843e-09	1.788935e+01	4.601635e+02
1.910000e-06	2.639149e-06	6.987102e-09	1.772114e+01	4.568654e+02
1.920000e-06	2.613429e-06	6.887594e-09	1.754843e+01	4.533774e+02
1.930000e-06	2.586829e-06	6.876180e-09	1.736982e+01	4.496703e+02
1.940000e-06	2.559477e-06	6.802983e-09	1.718616e+01	4.457364e+02
1.950000e-06	2.531310e-06	6.705065e-09	1.699703e+01	4.415930e+02
1.960000e-06	2.501791e-06	6.713074e-09	1.679882e+01	4.372781e+02
1.970000e-06	2.471101e-06	6.583202e-09	1.659274e+01	4.328395e+02
1.980000e-06	2.439607e-06	6.461669e-09	1.638126e+01	4.283203e+02
1.990000e-06	2.407264e-06	6.508698e-09	1.616409e+01	4.237469e+02
2.000000e-06	2.374175e-06	6.400640e-09	1.594191e+01	4.191229e+02
2.010000e-06	2.340335e-06	6.272885e-09	1.571468e+01	4.144311e+02
2.020000e-06	2.305687e-06	6.270718e-09	1.548203e+01	4.096413e+02
2.030000e-06	2.270458e-06	6.157650e-09	1.524548e+01	4.047235e+02
2.040000e-06	2.234418e-06	6.056920e-09	1.500348e+01	3.996582e+02
2.050000e-06	2.197119e-06	6.047041e-09	1.475303e+01	3.944434e+02
2.060000e-06	2.158789e-06	5.935691e-09	1.449566e+01	3.890940e+02
2.070000e-06	2.119832e-06	5.826911e-09	1.423407e+01	3.836354e+02
2.080000e-06	2.080296e-06	5.770944e-09	1.396859e+01	3.780935e+02
2.090000e-06	2.040031e-06	5.678138e-09	1.369823e+01	3.724855e+02
2.100000e-06	1.999057e-06	5.583219e-09	1.342310e+01	3.668145e+02
2.110000e-06	1.957477e-06	5.491715e-09	1.314390e+01	3.610704e+02
2.120000e-06	1.915245e-06	5.412048e-09	1.286033e+01	3.552348e+02
2.130000e-06	1.872438e-06	5.340057e-09	1.257289e+01	3.492894e+02
2.140000e-06	1.829159e-06	5.236636e-09	1.228229e+01	3.432235e+02
2.150000e-06	1.785339e-06	5.126937e-09	1.198805e+01	3.370377e+02
2.160000e-06	1.740832e-06	5.039474e-09	1.168919e+01	3.307433e+02
2.170000e-06	1.695542e-06	4.951966e-09	1.138509e+01	3.243573e+02
2.180000e-06	1.649721e-06	4.843439e-09	1.107741e+01	3.178957e+02
2.190000e-06	1.603521e-06	4.740928e-09	1.076719e+01	3.113680e+02
2.200000e-06	1.556794e-06	4.647751e-09	1.045343e+01	3.047749e+02
2.210000e-06	1.509466e-06	4.536249e-09	1.013563e+01	2.981095e+02
2.220000e-06	1.461433e-06	4.440116e-09	9.813107e+00	2.913621e+02
2.230000e-06	1.412711e-06	4.353125e-09	9.485954e+00	2.845255e+02
2.240000e-06	1.363456e-06	4.230974e-09	9.155218e+00	2.775989e+02
2.250000e-06	1.313691e-06	4.123694e-09	8.821059e+00	2.705883e+02
2.260000e-06	1.263421e-06	4.030047e-09	8.483511e+00	2.635043e+02
2.270000e-06	1.212691e-06	3.914085e-09	8.142878e+00	2.563571e+02
2.280000e-06	1.161561e-06	3.795223e-09	7.799552e+00	2.491521e+02
2.290000e-06	1.110048e-06	3.681019e-09	7.453655e+00	2.418872e+02
2.300000e-06	1.057990e-06	3.580338e-09	7.104105e+00	2.345541e+02
2.310000e-06	1.005268e-06	3.476864e-09	6.750086e+00	2.271411e+02
2.320000e-06	9.519018e-07	3.359537e-09	6.391750e+00	2.196392e+02
2.330000e-06	8.979703e-07	3.241894e-09	6.029616e+00	2.120462e+02
2.340000e-06	8.435980e-07	3.122497e-09	5.664521e+00	2.043687e+02
2.350000e-06	7.888886e-07	3.000893e-09	5.297163e+00	1.966205e+02
2.360000e-06	7.339663e-07	2.879563e-09	4.928375e+00	1.888185e+02
2.370000e-06	6.789113e-07	2.761882e-09	4.558696e+00	1.809768e+02
2.380000e-06	6.237256e-07	2.648477e-09	4.188140e+00	1.731025e+02
2.390000e-06	5.684336e-07	2.533501e-09	3.816870e+00	1.651931e+02
2.400000e-06	5.130325e-07	2.415881e-09	3.444867e+00	1.572380e+02
2.410000e-06	4.574899e-07	2.291927e-09	3.071915e+00	1.492222e+02
2.420000e-06	4.017614e-07	2.161674e-09	2.697714e+00	1.411318e+02
2.430000e-06	3.458712e-07	2.036489e-09	2.322427e+00	1.329574e+02
2.440000e-06	2.898961e-07	1.914674e-09	1.946570e+00	1.246970e+02
2.450000e-06	2.338325e-07	1.792242e-09	1.570119e+00	1.163554e+02
2.460000e-06	1.776253e-07	1.666858e-09	1.192703e+00	1.079415e+02
2.470000e-06	1.213436e-07	1.537657e-09	8.147880e-01	9.946521e+01
2.480000e-06	6.503926e-08	1.409683e-09	4.367201e-01	9.093440e+01
2.490000e-06	8.696439e-09	1.278257e-09	5.839412e-02	8.235377e+01
2.500000e-06	-4.758852e-08	1.144332e-09	-3.195434e-01	7.372490e+01
2.510000e-06	-1.038530e-07	1.012028e-09	-6.973434e-01	6.504745e+01
2.520000e-06	-1.600967e-07	8.807708e-10	-1.075004e+00	5.632040e+01
2.530000e-06	-2.162147e-07	7.480784e-10	-1.451820e+00	4.754255e+01
2.540000e-06	-2.722765e-07	6.126599e-10	-1.828260e+00	3.871211e+01
2.550000e-06	-3.282344e-07	4.774491e-10	-2.204000e+00	2.982578e+01
2.560000e-06	-3.839967e-07	3.422006e-10	-2.578428e+00	2.087805e+01
2.570000e-06	-4.396055e-07	2.050084e-10	-2.951826e+00	1.186154e+01
2.580000e-06	-4.951191e-07	6.562387e-11	-3.324584e+00	2.768566e+00
2.590000e-06	-5.505205e-07	-7.521382e-11	-3.696589e+00	-6.406414e+00
2.600000e-06	-6.057682e-07	-2.170236e-10	-4.067562e+00	-1.566448e+01
2.610000e-06	-6.608968e-07	-3.591392e-10	-4.437734e+00	-2.500116e+01
2.620000e-06	-7.159224e-07	-5.022821e-10	-4.807216e+00	-3.440734e+01
2.630000e-06	-7.708119e-07	-6.469018e-10	-5.175783e+00	-4.387197e+01
2.640000e-06	-8.254656e-07	-7.910472e-10	-5.542767e+00	-5.338582e+01
2.650000e-06	-8.797654e-07	-9.343398e-10	-5.907375e+00	-6.294475e+01
2.660000e-06	-9.335779e-07	-1.080414e-09	-6.268711e+00	-7.255110e+01
2.670000e-06	-9.867592e-07	-1.229566e-09	-6.625808e+00	-8.221245e+01
2.680000e-06	-1.039319e-06	-1.379286e-09	-6.978729e+00	-9.193812e+01
2.690000e-06	-1.091376e-06	-1.529216e-09	-7.328281e+00	-1.017344e+02
2.700000e-06	-1.142974e-06	-1.680214e-09	-7.674742e+00	-1.116008e+02
2.710000e-06	-1.194149e-06	-1.831784e-09	-8.018369e+00	-1.215280e+02
2.720000e-06	-1.244915e-06	-1.982561e-09	-8.359248e+00	-1.314996e+02
2.730000e-06	-1.295149e-06	-2.135327e-09	-8.696557e+00	-1.414958e+02
2.740000e-06	-1.344822e-06	-2.289886e-09	-9.030096e+00	-1.514988e+02
2.750000e-06	-1.394009e-06	-2.443641e-09	-9.360374e+00	-1.614973e+02
2.760000e-06	-1.442704e-06	-2.595338e-09	-9.687346e+00	-1.714878e+02
2.770000e-06	-1.490666e-06	-2.746022e-09	-1.000940e+01	-1.814742e+02
2.780000e-06	-1.537822e-06	-2.897651e-09	-1.032604e+01	-1.914628e+02
2.790000e-06	-1.584218e-06	-3.050103e-09	-1.063757e+01	-2.014578e+02
2.800000e-06	-1.629963e-06	-3.202613e-09	-1.094474e+01	-2.114560e+02
2.810000e-06	-1.675336e-06	-3.355024e-09	-1.124941e+01	-2.214456e+02
2.820000e-06	-1.720332e-06	-3.507381e-09	-1.155154e+01	-2.314070e+02
2.830000e-06	-1.764772e-06	-3.658727e-09	-1.184994e+01	-2.413171e+02
2.840000e-06	-1.808540e-06	-3.807389e-09	-1.214383e+01	-2.511543e+02
2.850000e-06	-1.851848e-06	-3.954342e-09	-1.243463e+01	-2.609026e+02
2.860000e-06	-1.894738e-06	-4.100539e-09	-1.272262e+01	-2.705534e+02
2.870000e-06	-1.936970e-06	-4.245707e-09	-1.300621e+01	-2.801040e+02
2.880000e-06	-1.978594e-06	-4.391565e-09	-1.328570e+01	-2.895536e+02
2.890000e-06	-2.019666e-06	-4.536353e-09	-1.356148e+01	-2.988987e+02
2.900000e-06	-2.060001e-06	-4.677112e-09	-1.383232e+01	-3.081292e+02
2.910000e-06	-2.099613e-06	-4.815533e-09	-1.409830e+01	-3.172267e+02
2.920000e-06	-2.138672e-06	-4.953072e-09	-1.436057e+01	-3.261662e+02
2.930000e-06	-2.176959e-06	-5.087986e-09	-1.461766e+01	-3.349202e+02
2.940000e-06	-2.214205e-06	-5.218290e-09	-1.486776e+01	-3.434632e+02
