# Temperatura_=_26.5
# Concentracion g/m^3_=_18700.0
# C_Vs_to_Am_M_A/Vsm_=_65563218390.804596
# pendiente_HvsI_1/m_=_3716.3
# ordenada_HvsI_A/m_=_1297.0
# frecuencia_Hz_=_301055.6601579408

Tiempo_(s)	Campo_(V.s)	Magnetizacion_(V.s)	Campo_(kA/m)	Magnetizacion_(A/m)
0.000000e+00	-2.945223e-06	-7.870476e-09	-1.977695e+01	-5.138839e+02
1.000000e-08	-2.944594e-06	-7.872663e-09	-1.977272e+01	-5.139268e+02
2.000000e-08	-2.943101e-06	-7.871515e-09	-1.976270e+01	-5.138462e+02
3.000000e-08	-2.940428e-06	-7.869012e-09	-1.974474e+01	-5.136193e+02
4.000000e-08	-2.936508e-06	-7.865781e-09	-1.971842e+01	-5.132144e+02
5.000000e-08	-2.931720e-06	-7.858013e-09	-1.968628e+01	-5.126038e+02
6.000000e-08	-2.926121e-06	-7.846000e-09	-1.964867e+01	-5.117763e+02
7.000000e-08	-2.919578e-06	-7.835979e-09	-1.960474e+01	-5.107438e+02
8.000000e-08	-2.912029e-06	-7.817256e-09	-1.955405e+01	-5.095387e+02
9.000000e-08	-2.903294e-06	-7.798964e-09	-1.949539e+01	-5.082023e+02
1.000000e-07	-2.893073e-06	-7.771678e-09	-1.942676e+01	-5.067690e+02
1.100000e-07	-2.881424e-06	-7.750463e-09	-1.934854e+01	-5.052515e+02
1.200000e-07	-2.868919e-06	-7.701442e-09	-1.926457e+01	-5.036341e+02
1.300000e-07	-2.855676e-06	-7.651276e-09	-1.917564e+01	-5.018764e+02
1.400000e-07	-2.841322e-06	-7.676482e-09	-1.907926e+01	-4.999277e+02
1.500000e-07	-2.825828e-06	-7.640136e-09	-1.897522e+01	-4.977472e+02
1.600000e-07	-2.809251e-06	-7.581153e-09	-1.886391e+01	-4.953220e+02
1.700000e-07	-2.791413e-06	-7.544083e-09	-1.874412e+01	-4.926765e+02
1.800000e-07	-2.772542e-06	-7.499370e-09	-1.861741e+01	-4.898684e+02
1.900000e-07	-2.752975e-06	-7.430356e-09	-1.848601e+01	-4.869721e+02
2.000000e-07	-2.732583e-06	-7.373275e-09	-1.834908e+01	-4.840553e+02
2.100000e-07	-2.711224e-06	-7.356467e-09	-1.820566e+01	-4.811559e+02
2.200000e-07	-2.689041e-06	-7.291955e-09	-1.805670e+01	-4.782677e+02
2.300000e-07	-2.666008e-06	-7.254858e-09	-1.790204e+01	-4.753408e+02
2.400000e-07	-2.642023e-06	-7.252326e-09	-1.774098e+01	-4.722961e+02
2.500000e-07	-2.617206e-06	-7.156963e-09	-1.757433e+01	-4.690498e+02
2.600000e-07	-2.591445e-06	-7.050382e-09	-1.740135e+01	-4.655391e+02
2.700000e-07	-2.564421e-06	-7.033039e-09	-1.721989e+01	-4.617403e+02
2.800000e-07	-2.536316e-06	-6.993062e-09	-1.703116e+01	-4.576739e+02
2.900000e-07	-2.507397e-06	-6.921994e-09	-1.683697e+01	-4.533958e+02
3.000000e-07	-2.477581e-06	-6.843521e-09	-1.663676e+01	-4.489764e+02
3.100000e-07	-2.446930e-06	-6.790791e-09	-1.643095e+01	-4.444779e+02
3.200000e-07	-2.415573e-06	-6.723093e-09	-1.622039e+01	-4.399361e+02
3.300000e-07	-2.383486e-06	-6.624359e-09	-1.600492e+01	-4.353530e+02
3.400000e-07	-2.350714e-06	-6.551828e-09	-1.578486e+01	-4.307026e+02
3.500000e-07	-2.317213e-06	-6.493974e-09	-1.555990e+01	-4.259457e+02
3.600000e-07	-2.282640e-06	-6.426915e-09	-1.532775e+01	-4.210484e+02
3.700000e-07	-2.246903e-06	-6.354202e-09	-1.508778e+01	-4.159964e+02
3.800000e-07	-2.210320e-06	-6.273938e-09	-1.484213e+01	-4.108001e+02
3.900000e-07	-2.173133e-06	-6.156289e-09	-1.459242e+01	-4.054896e+02
4.000000e-07	-2.135252e-06	-6.082046e-09	-1.433805e+01	-4.001010e+02
4.100000e-07	-2.096574e-06	-6.023755e-09	-1.407833e+01	-3.946619e+02
4.200000e-07	-2.057142e-06	-5.933724e-09	-1.381355e+01	-3.891795e+02
4.300000e-07	-2.017048e-06	-5.842558e-09	-1.354432e+01	-3.836386e+02
4.400000e-07	-1.976366e-06	-5.761735e-09	-1.327115e+01	-3.780076e+02
4.500000e-07	-1.935030e-06	-5.673100e-09	-1.299358e+01	-3.722513e+02
4.600000e-07	-1.892909e-06	-5.579924e-09	-1.271074e+01	-3.663450e+02
4.700000e-07	-1.849863e-06	-5.483240e-09	-1.242169e+01	-3.602838e+02
4.800000e-07	-1.805934e-06	-5.382515e-09	-1.212671e+01	-3.540841e+02
4.900000e-07	-1.761362e-06	-5.300549e-09	-1.182741e+01	-3.477769e+02
5.000000e-07	-1.716283e-06	-5.206741e-09	-1.152471e+01	-3.413962e+02
5.100000e-07	-1.670628e-06	-5.105713e-09	-1.121814e+01	-3.349657e+02
5.200000e-07	-1.624362e-06	-4.997929e-09	-1.090746e+01	-3.284914e+02
5.300000e-07	-1.577558e-06	-4.897452e-09	-1.059318e+01	-3.219608e+02
5.400000e-07	-1.530207e-06	-4.806477e-09	-1.027522e+01	-3.153492e+02
5.500000e-07	-1.482284e-06	-4.708014e-09	-9.953419e+00	-3.086308e+02
5.600000e-07	-1.433895e-06	-4.594112e-09	-9.628495e+00	-3.017894e+02
5.700000e-07	-1.385132e-06	-4.479675e-09	-9.301054e+00	-2.948246e+02
5.800000e-07	-1.335854e-06	-4.380593e-09	-8.970158e+00	-2.877517e+02
5.900000e-07	-1.285842e-06	-4.270168e-09	-8.634327e+00	-2.805951e+02
6.000000e-07	-1.235011e-06	-4.155463e-09	-8.293006e+00	-2.733779e+02
6.100000e-07	-1.183514e-06	-4.047034e-09	-7.947207e+00	-2.661133e+02
6.200000e-07	-1.131505e-06	-3.944366e-09	-7.597970e+00	-2.587995e+02
6.300000e-07	-1.079063e-06	-3.833828e-09	-7.245824e+00	-2.514209e+02
6.400000e-07	-1.026259e-06	-3.713317e-09	-6.891247e+00	-2.439551e+02
6.500000e-07	-9.730933e-07	-3.589894e-09	-6.534246e+00	-2.363823e+02
6.600000e-07	-9.195357e-07	-3.470949e-09	-6.174611e+00	-2.286939e+02
6.700000e-07	-8.656476e-07	-3.359789e-09	-5.812757e+00	-2.208960e+02
6.800000e-07	-8.114537e-07	-3.243159e-09	-5.448849e+00	-2.130081e+02
6.900000e-07	-7.569552e-07	-3.122229e-09	-5.082895e+00	-2.050566e+02
7.000000e-07	-7.022695e-07	-2.999057e-09	-4.715685e+00	-1.970653e+02
7.100000e-07	-6.473983e-07	-2.877985e-09	-4.347229e+00	-1.890484e+02
7.200000e-07	-5.923586e-07	-2.751849e-09	-3.977642e+00	-1.810054e+02
7.300000e-07	-5.371265e-07	-2.620401e-09	-3.606763e+00	-1.729232e+02
7.400000e-07	-4.816162e-07	-2.491831e-09	-3.234015e+00	-1.647803e+02
7.500000e-07	-4.258955e-07	-2.371291e-09	-2.859855e+00	-1.565550e+02
7.600000e-07	-3.699992e-07	-2.253335e-09	-2.484516e+00	-1.482318e+02
7.700000e-07	-3.138973e-07	-2.124762e-09	-2.107796e+00	-1.398055e+02
7.800000e-07	-2.576618e-07	-1.991046e-09	-1.730179e+00	-1.312814e+02
7.900000e-07	-2.014059e-07	-1.857990e-09	-1.352425e+00	-1.226719e+02
8.000000e-07	-1.451320e-07	-1.725843e-09	-9.745500e-01	-1.139919e+02
8.100000e-07	-8.884431e-08	-1.588116e-09	-5.965827e-01	-1.052540e+02
8.200000e-07	-3.255439e-08	-1.449233e-09	-2.186002e-01	-9.646532e+01
8.300000e-07	2.378433e-08	-1.315759e-09	1.597100e-01	-8.762703e+01
8.400000e-07	8.010611e-08	-1.185847e-09	5.379063e-01	-7.873579e+01
8.500000e-07	1.364177e-07	-1.053309e-09	9.160345e-01	-6.978603e+01
8.600000e-07	1.927282e-07	-9.136549e-10	1.294155e+00	-6.077231e+01
8.700000e-07	2.489463e-07	-7.726339e-10	1.671655e+00	-5.169058e+01
8.800000e-07	3.050508e-07	-6.325366e-10	2.048393e+00	-4.253839e+01
8.900000e-07	3.610180e-07	-4.918295e-10	2.424208e+00	-3.331438e+01
9.000000e-07	4.168871e-07	-3.463955e-10	2.799365e+00	-2.401748e+01
9.100000e-07	4.726217e-07	-1.992119e-10	3.173618e+00	-1.464653e+01
9.200000e-07	5.281878e-07	-5.557401e-11	3.546740e+00	-5.200260e+00
9.300000e-07	5.835595e-07	8.475595e-11	3.918557e+00	4.322399e+00
9.400000e-07	6.386682e-07	2.284243e-10	4.288608e+00	1.392209e+01
9.500000e-07	6.935208e-07	3.791526e-10	4.656939e+00	2.359914e+01
9.600000e-07	7.481999e-07	5.311324e-10	5.024105e+00	3.335407e+01
9.700000e-07	8.027008e-07	6.822122e-10	5.390074e+00	4.318795e+01
9.800000e-07	8.569592e-07	8.322567e-10	5.754415e+00	5.310258e+01
9.900000e-07	9.108561e-07	9.856984e-10	6.116328e+00	6.309975e+01
1.000000e-06	9.642667e-07	1.141078e-09	6.474976e+00	7.318008e+01
1.010000e-06	1.017291e-06	1.296029e-09	6.831030e+00	8.334160e+01
1.020000e-06	1.069993e-06	1.450339e-09	7.184918e+00	9.357886e+01
1.030000e-06	1.122394e-06	1.606334e-09	7.536786e+00	1.038831e+02
1.040000e-06	1.174396e-06	1.764773e-09	7.885981e+00	1.142435e+02
1.050000e-06	1.225805e-06	1.922226e-09	8.231188e+00	1.246496e+02
1.060000e-06	1.276452e-06	2.080481e-09	8.571275e+00	1.350932e+02
1.070000e-06	1.326306e-06	2.240721e-09	8.906040e+00	1.455698e+02
1.080000e-06	1.375553e-06	2.403473e-09	9.236733e+00	1.560783e+02
1.090000e-06	1.424371e-06	2.566175e-09	9.564539e+00	1.666193e+02
1.100000e-06	1.472807e-06	2.727624e-09	9.889782e+00	1.771921e+02
1.110000e-06	1.520792e-06	2.887759e-09	1.021200e+01	1.877924e+02
1.120000e-06	1.568232e-06	3.048041e-09	1.053055e+01	1.984110e+02
1.130000e-06	1.615126e-06	3.207354e-09	1.084544e+01	2.090339e+02
1.140000e-06	1.661498e-06	3.366252e-09	1.115683e+01	2.196442e+02
1.150000e-06	1.707272e-06	3.528379e-09	1.146420e+01	2.302251e+02
1.160000e-06	1.752491e-06	3.692575e-09	1.176784e+01	2.407623e+02
1.170000e-06	1.797290e-06	3.856795e-09	1.206866e+01	2.512446e+02
1.180000e-06	1.841651e-06	4.018056e-09	1.236655e+01	2.616636e+02
1.190000e-06	1.885425e-06	4.176725e-09	1.266048e+01	2.720115e+02
1.200000e-06	1.928187e-06	4.332401e-09	1.294763e+01	2.822783e+02
1.210000e-06	1.969854e-06	4.484283e-09	1.322741e+01	2.924509e+02
1.220000e-06	2.010775e-06	4.633475e-09	1.350220e+01	3.025117e+02
1.230000e-06	2.051183e-06	4.782235e-09	1.377353e+01	3.124409e+02
1.240000e-06	2.091012e-06	4.932081e-09	1.404099e+01	3.222184e+02
1.250000e-06	2.130101e-06	5.081491e-09	1.430346e+01	3.318259e+02
1.260000e-06	2.168442e-06	5.228221e-09	1.456092e+01	3.412477e+02
1.270000e-06	2.205992e-06	5.369795e-09	1.481307e+01	3.504707e+02
1.280000e-06	2.242900e-06	5.506905e-09	1.506090e+01	3.594817e+02
1.290000e-06	2.279304e-06	5.638955e-09	1.530535e+01	3.682663e+02
1.300000e-06	2.314857e-06	5.765854e-09	1.554409e+01	3.768071e+02
1.310000e-06	2.349191e-06	5.887178e-09	1.577463e+01	3.850852e+02
1.320000e-06	2.382492e-06	6.004514e-09	1.599825e+01	3.930822e+02
1.330000e-06	2.415068e-06	6.121837e-09	1.621700e+01	4.007844e+02
1.340000e-06	2.446877e-06	6.238375e-09	1.643059e+01	4.081853e+02
1.350000e-06	2.477882e-06	6.348412e-09	1.663879e+01	4.152871e+02
1.360000e-06	2.508093e-06	6.448916e-09	1.684165e+01	4.220992e+02
1.370000e-06	2.537468e-06	6.544508e-09	1.703890e+01	4.286344e+02
1.380000e-06	2.566107e-06	6.638066e-09	1.723121e+01	4.349045e+02
1.390000e-06	2.593957e-06	6.728863e-09	1.741822e+01	4.409172e+02
1.400000e-06	2.620673e-06	6.814684e-09	1.759761e+01	4.466745e+02
1.410000e-06	2.646125e-06	6.895597e-09	1.776852e+01	4.521755e+02
1.420000e-06	2.670565e-06	6.974113e-09	1.793264e+01	4.574195e+02
1.430000e-06	2.694094e-06	7.050255e-09	1.809063e+01	4.624103e+02
1.440000e-06	2.716736e-06	7.122047e-09	1.824267e+01	4.671584e+02
1.450000e-06	2.738531e-06	7.188689e-09	1.838902e+01	4.716793e+02
1.460000e-06	2.759488e-06	7.254128e-09	1.852975e+01	4.759896e+02
1.470000e-06	2.779639e-06	7.319327e-09	1.866506e+01	4.801001e+02
1.480000e-06	2.798810e-06	7.379576e-09	1.879379e+01	4.840118e+02
1.490000e-06	2.816911e-06	7.432412e-09	1.891534e+01	4.877129e+02
1.500000e-06	2.834042e-06	7.479669e-09	1.903038e+01	4.911827e+02
1.510000e-06	2.850128e-06	7.524630e-09	1.913839e+01	4.943980e+02
1.520000e-06	2.865052e-06	7.569166e-09	1.923860e+01	4.973419e+02
1.530000e-06	2.878888e-06	7.611278e-09	1.933151e+01	5.000110e+02
1.540000e-06	2.891692e-06	7.648392e-09	1.941749e+01	5.024181e+02
1.550000e-06	2.903355e-06	7.680453e-09	1.949580e+01	5.045891e+02
1.560000e-06	2.913708e-06	7.708420e-09	1.956532e+01	5.065551e+02
1.570000e-06	2.922864e-06	7.733824e-09	1.962680e+01	5.083425e+02
1.580000e-06	2.931043e-06	7.757202e-09	1.968173e+01	5.099650e+02
1.590000e-06	2.938224e-06	7.778375e-09	1.972995e+01	5.114210e+02
1.600000e-06	2.944390e-06	7.796994e-09	1.977135e+01	5.126963e+02
1.610000e-06	2.949651e-06	7.812567e-09	1.980668e+01	5.137735e+02
1.620000e-06	2.954029e-06	7.824609e-09	1.983608e+01	5.146412e+02
1.630000e-06	2.957316e-06	7.833422e-09	1.985815e+01	5.153020e+02
1.640000e-06	2.959336e-06	7.840665e-09	1.987171e+01	5.157736e+02
1.650000e-06	2.960297e-06	7.846972e-09	1.987816e+01	5.160834e+02
1.660000e-06	2.960347e-06	7.851181e-09	1.987850e+01	5.162585e+02
1.670000e-06	2.959417e-06	7.852563e-09	1.987226e+01	5.163145e+02
1.680000e-06	2.957531e-06	7.850032e-09	1.985959e+01	5.162484e+02
1.690000e-06	2.954822e-06	7.844043e-09	1.984140e+01	5.160392e+02
1.700000e-06	2.951343e-06	7.835303e-09	1.981804e+01	5.156554e+02
1.710000e-06	2.946852e-06	7.825985e-09	1.978788e+01	5.150683e+02
1.720000e-06	2.941164e-06	7.813378e-09	1.974969e+01	5.142644e+02
1.730000e-06	2.934410e-06	7.796727e-09	1.970434e+01	5.132532e+02
1.740000e-06	2.926726e-06	7.781441e-09	1.965274e+01	5.120652e+02
1.750000e-06	2.917887e-06	7.761694e-09	1.959338e+01	5.107415e+02
1.760000e-06	2.907408e-06	7.717600e-09	1.952302e+01	5.093180e+02
1.770000e-06	2.895454e-06	7.722353e-09	1.944275e+01	5.078103e+02
1.780000e-06	2.883056e-06	7.715737e-09	1.935949e+01	5.062058e+02
1.790000e-06	2.870410e-06	7.682587e-09	1.927458e+01	5.044660e+02
1.800000e-06	2.856440e-06	7.632559e-09	1.918077e+01	5.025406e+02
1.810000e-06	2.840820e-06	7.618524e-09	1.907588e+01	5.003867e+02
1.820000e-06	2.824421e-06	7.597874e-09	1.896577e+01	4.979878e+02
1.830000e-06	2.807344e-06	7.494110e-09	1.885110e+01	4.953642e+02
1.840000e-06	2.789095e-06	7.475806e-09	1.872856e+01	4.925705e+02
1.850000e-06	2.769957e-06	7.486179e-09	1.860004e+01	4.896806e+02
1.860000e-06	2.750033e-06	7.406909e-09	1.846626e+01	4.867641e+02
1.870000e-06	2.728766e-06	7.367619e-09	1.832346e+01	4.838629e+02
1.880000e-06	2.706212e-06	7.350713e-09	1.817200e+01	4.809757e+02
1.890000e-06	2.682790e-06	7.246269e-09	1.801473e+01	4.780569e+02
1.900000e-06	2.658410e-06	7.201765e-09	1.785102e+01	4.750295e+02
1.910000e-06	2.633183e-06	7.224943e-09	1.768162e+01	4.718089e+02
1.920000e-06	2.607288e-06	7.177816e-09	1.750774e+01	4.683290e+02
1.930000e-06	2.580554e-06	7.068834e-09	1.732822e+01	4.645613e+02
1.940000e-06	2.553000e-06	7.013050e-09	1.714320e+01	4.605220e+02
1.950000e-06	2.524501e-06	6.957909e-09	1.695183e+01	4.562638e+02
1.960000e-06	2.494681e-06	6.883110e-09	1.675159e+01	4.518567e+02
1.970000e-06	2.463792e-06	6.805093e-09	1.654417e+01	4.473650e+02
1.980000e-06	2.432098e-06	6.741064e-09	1.633135e+01	4.428276e+02
1.990000e-06	2.399559e-06	6.707524e-09	1.611285e+01	4.382504e+02
2.000000e-06	2.366325e-06	6.618737e-09	1.588969e+01	4.336095e+02
2.010000e-06	2.332312e-06	6.520699e-09	1.566130e+01	4.288664e+02
2.020000e-06	2.297543e-06	6.458279e-09	1.542782e+01	4.239858e+02
2.030000e-06	2.262188e-06	6.366132e-09	1.519042e+01	4.189508e+02
2.040000e-06	2.225868e-06	6.301900e-09	1.494653e+01	4.137694e+02
2.050000e-06	2.188284e-06	6.258941e-09	1.469416e+01	4.084699e+02
2.060000e-06	2.149817e-06	6.143249e-09	1.443586e+01	4.030886e+02
2.070000e-06	2.110717e-06	6.047041e-09	1.417330e+01	3.976547e+02
2.080000e-06	2.070980e-06	5.981072e-09	1.390647e+01	3.921778e+02
2.090000e-06	2.030575e-06	5.882908e-09	1.363515e+01	3.866450e+02
2.100000e-06	1.989461e-06	5.801949e-09	1.335908e+01	3.810259e+02
2.110000e-06	1.947701e-06	5.716016e-09	1.307866e+01	3.752851e+02
2.120000e-06	1.905320e-06	5.625667e-09	1.279408e+01	3.693960e+02
2.130000e-06	1.862380e-06	5.547953e-09	1.250573e+01	3.633515e+02
2.140000e-06	1.818918e-06	5.443923e-09	1.221389e+01	3.571658e+02
2.150000e-06	1.774846e-06	5.337949e-09	1.191795e+01	3.508691e+02
2.160000e-06	1.730127e-06	5.245252e-09	1.161767e+01	3.444953e+02
2.170000e-06	1.684747e-06	5.152846e-09	1.131295e+01	3.380701e+02
2.180000e-06	1.638778e-06	5.062123e-09	1.100426e+01	3.316013e+02
2.190000e-06	1.592325e-06	4.953850e-09	1.069234e+01	3.250783e+02
2.200000e-06	1.545350e-06	4.836351e-09	1.037690e+01	3.184773e+02
2.210000e-06	1.497717e-06	4.744794e-09	1.005705e+01	3.117719e+02
2.220000e-06	1.449408e-06	4.654420e-09	9.732660e+00	3.049445e+02
2.230000e-06	1.400574e-06	4.547653e-09	9.404748e+00	2.979930e+02
2.240000e-06	1.351240e-06	4.433161e-09	9.073472e+00	2.909311e+02
2.250000e-06	1.301350e-06	4.328777e-09	8.738464e+00	2.837827e+02
2.260000e-06	1.250970e-06	4.224268e-09	8.400165e+00	2.765717e+02
2.270000e-06	1.200152e-06	4.102715e-09	8.058931e+00	2.693126e+02
2.280000e-06	1.148910e-06	3.985408e-09	7.714840e+00	2.620051e+02
2.290000e-06	1.097224e-06	3.874703e-09	7.367772e+00	2.546350e+02
2.300000e-06	1.044996e-06	3.769589e-09	7.017068e+00	2.471801e+02
2.310000e-06	9.921579e-07	3.661048e-09	6.662263e+00	2.396200e+02
2.320000e-06	9.387232e-07	3.540497e-09	6.303454e+00	2.319445e+02
2.330000e-06	8.847507e-07	3.416553e-09	5.941032e+00	2.241581e+02
2.340000e-06	8.303768e-07	3.295622e-09	5.575916e+00	2.162792e+02
2.350000e-06	7.757163e-07	3.176754e-09	5.208875e+00	2.083338e+02
2.360000e-06	7.208086e-07	3.055350e-09	4.840174e+00	2.003464e+02
2.370000e-06	6.657166e-07	2.930655e-09	4.470236e+00	1.923325e+02
2.380000e-06	6.104988e-07	2.810439e-09	4.099452e+00	1.842933e+02
2.390000e-06	5.551755e-07	2.693208e-09	3.727960e+00	1.762167e+02
2.400000e-06	4.996988e-07	2.568033e-09	3.355439e+00	1.680820e+02
2.410000e-06	4.440823e-07	2.440118e-09	2.981978e+00	1.598669e+02
2.420000e-06	3.883321e-07	2.312940e-09	2.607620e+00	1.515552e+02
2.430000e-06	3.324314e-07	2.187512e-09	2.232251e+00	1.431404e+02
2.440000e-06	2.764395e-07	2.060119e-09	1.856270e+00	1.346268e+02
2.450000e-06	2.203217e-07	1.928328e-09	1.479443e+00	1.260263e+02
2.460000e-06	1.640858e-07	1.795522e-09	1.101823e+00	1.173537e+02
2.470000e-06	1.078045e-07	1.661978e-09	7.238991e-01	1.086221e+02
2.480000e-06	5.151077e-08	1.530716e-09	3.458908e-01	9.983925e+01
2.490000e-06	-4.784002e-09	1.398930e-09	-3.212421e-02	9.100691e+01
2.500000e-06	-6.108237e-08	1.264744e-09	-4.101634e-01	8.212212e+01
2.510000e-06	-1.173702e-07	1.128028e-09	-7.881316e-01	7.317945e+01
2.520000e-06	-1.736320e-07	9.897060e-10	-1.165925e+00	6.417334e+01
2.530000e-06	-2.297697e-07	8.487183e-10	-1.542885e+00	5.509957e+01
2.540000e-06	-2.857125e-07	7.069937e-10	-1.918537e+00	4.595554e+01
2.550000e-06	-3.415348e-07	5.689965e-10	-2.293380e+00	3.673981e+01
2.560000e-06	-3.972243e-07	4.321265e-10	-2.667331e+00	2.745131e+01
2.570000e-06	-4.527609e-07	2.913213e-10	-3.040254e+00	1.808889e+01
2.580000e-06	-5.081935e-07	1.473912e-10	-3.412480e+00	8.651283e+00
2.590000e-06	-5.634907e-07	3.195466e-12	-3.783797e+00	-8.626180e-01
2.600000e-06	-6.186816e-07	-1.444944e-10	-4.154399e+00	-1.045350e+01
2.610000e-06	-6.737731e-07	-2.952859e-10	-4.524334e+00	-2.012172e+01
2.620000e-06	-7.287373e-07	-4.464018e-10	-4.893415e+00	-2.986772e+01
2.630000e-06	-7.835522e-07	-5.936492e-10	-5.261493e+00	-3.969254e+01
2.640000e-06	-8.381315e-07	-7.395168e-10	-5.627988e+00	-4.959788e+01
2.650000e-06	-8.923577e-07	-8.904832e-10	-5.992113e+00	-5.958561e+01
2.660000e-06	-9.460900e-07	-1.044993e-09	-6.352921e+00	-6.965653e+01
2.670000e-06	-9.991788e-07	-1.200774e-09	-6.709408e+00	-7.980902e+01
2.680000e-06	-1.051580e-06	-1.356863e-09	-7.061279e+00	-9.003799e+01
2.690000e-06	-1.103426e-06	-1.513988e-09	-7.409418e+00	-1.003350e+02
2.700000e-06	-1.154830e-06	-1.673502e-09	-7.754595e+00	-1.106894e+02
2.710000e-06	-1.205869e-06	-1.833256e-09	-8.097318e+00	-1.210905e+02
2.720000e-06	-1.256536e-06	-1.992291e-09	-8.437539e+00	-1.315298e+02
2.730000e-06	-1.306697e-06	-2.152253e-09	-8.774368e+00	-1.420025e+02
2.740000e-06	-1.356299e-06	-2.313479e-09	-9.107444e+00	-1.525070e+02
2.750000e-06	-1.405382e-06	-2.474710e-09	-9.437032e+00	-1.630440e+02
2.760000e-06	-1.453904e-06	-2.633613e-09	-9.762854e+00	-1.736129e+02
2.770000e-06	-1.501707e-06	-2.793461e-09	-1.008385e+01	-1.842102e+02
2.780000e-06	-1.548694e-06	-2.957093e-09	-1.039936e+01	-1.948269e+02
2.790000e-06	-1.594954e-06	-3.120902e-09	-1.071000e+01	-2.054495e+02
2.800000e-06	-1.640644e-06	-3.284183e-09	-1.101680e+01	-2.160614e+02
2.810000e-06	-1.685923e-06	-3.445891e-09	-1.132084e+01	-2.266457e+02
2.820000e-06	-1.730804e-06	-3.606453e-09	-1.162222e+01	-2.371877e+02
2.830000e-06	-1.775040e-06	-3.765653e-09	-1.191926e+01	-2.476758e+02
2.840000e-06	-1.818621e-06	-3.921436e-09	-1.221190e+01	-2.581014e+02
2.850000e-06	-1.861783e-06	-4.076164e-09	-1.250173e+01	-2.684567e+02
2.860000e-06	-1.904508e-06	-4.233325e-09	-1.278862e+01	-2.787323e+02
2.870000e-06	-1.946599e-06	-4.391275e-09	-1.307126e+01	-2.889152e+02
2.880000e-06	-1.988029e-06	-4.547319e-09	-1.334946e+01	-2.989883e+02
2.890000e-06	-2.028845e-06	-4.700340e-09	-1.362354e+01	-3.089321e+02
2.900000e-06	-2.068951e-06	-4.849460e-09	-1.389284e+01	-3.187263e+02
2.910000e-06	-2.108393e-06	-4.996474e-09	-1.415770e+01	-3.283522e+02
2.920000e-06	-2.147288e-06	-5.140504e-09	-1.441887e+01	-3.377941e+02
2.930000e-06	-2.185376e-06	-5.278758e-09	-1.467463e+01	-3.470384e+02
2.940000e-06	-2.222329e-06	-5.413504e-09	-1.492277e+01	-3.560723e+02
