# Temperatura_=_25.51
# Concentracion g/m^3_=_18700.0
# C_Vs_to_Am_M_A/Vsm_=_65563218390.804596
# pendiente_HvsI_1/m_=_3716.3
# ordenada_HvsI_A/m_=_1297.0
# frecuencia_Hz_=_301059.5249936294

Tiempo_(s)	Campo_(V.s)	Magnetizacion_(V.s)	Campo_(kA/m)	Magnetizacion_(A/m)
0.000000e+00	-2.945415e-06	-7.846310e-09	-1.978097e+01	-5.117657e+02
1.000000e-08	-2.944748e-06	-7.846657e-09	-1.977649e+01	-5.118180e+02
2.000000e-08	-2.943169e-06	-7.846790e-09	-1.976588e+01	-5.117241e+02
3.000000e-08	-2.940441e-06	-7.844029e-09	-1.974757e+01	-5.114553e+02
4.000000e-08	-2.936537e-06	-7.837774e-09	-1.972135e+01	-5.109847e+02
5.000000e-08	-2.931723e-06	-7.828430e-09	-1.968901e+01	-5.103011e+02
6.000000e-08	-2.926046e-06	-7.821703e-09	-1.965089e+01	-5.094166e+02
7.000000e-08	-2.919395e-06	-7.827419e-09	-1.960622e+01	-5.083643e+02
8.000000e-08	-2.911724e-06	-7.789148e-09	-1.955471e+01	-5.071865e+02
9.000000e-08	-2.902896e-06	-7.729495e-09	-1.949542e+01	-5.059165e+02
1.000000e-07	-2.892710e-06	-7.704200e-09	-1.942701e+01	-5.045625e+02
1.100000e-07	-2.881104e-06	-7.789016e-09	-1.934907e+01	-5.030991e+02
1.200000e-07	-2.868485e-06	-7.725715e-09	-1.926432e+01	-5.014728e+02
1.300000e-07	-2.855145e-06	-7.544336e-09	-1.917473e+01	-4.996185e+02
1.400000e-07	-2.840817e-06	-7.602191e-09	-1.907850e+01	-4.974840e+02
1.500000e-07	-2.825320e-06	-7.728286e-09	-1.897443e+01	-4.950522e+02
1.600000e-07	-2.808681e-06	-7.525830e-09	-1.886268e+01	-4.923535e+02
1.700000e-07	-2.790875e-06	-7.386941e-09	-1.874310e+01	-4.894623e+02
1.800000e-07	-2.771999e-06	-7.543871e-09	-1.861633e+01	-4.864790e+02
1.900000e-07	-2.752372e-06	-7.404843e-09	-1.848452e+01	-4.835016e+02
2.000000e-07	-2.731988e-06	-7.243438e-09	-1.834762e+01	-4.805967e+02
2.100000e-07	-2.710651e-06	-7.372824e-09	-1.820433e+01	-4.777797e+02
2.200000e-07	-2.688393e-06	-7.309094e-09	-1.805485e+01	-4.750100e+02
2.300000e-07	-2.665294e-06	-7.128097e-09	-1.789972e+01	-4.722034e+02
2.400000e-07	-2.641304e-06	-7.211062e-09	-1.773860e+01	-4.692563e+02
2.500000e-07	-2.616414e-06	-7.154266e-09	-1.757145e+01	-4.660750e+02
2.600000e-07	-2.590580e-06	-6.986767e-09	-1.739795e+01	-4.626000e+02
2.700000e-07	-2.563520e-06	-6.985279e-09	-1.721622e+01	-4.588176e+02
2.800000e-07	-2.535355e-06	-6.951814e-09	-1.702706e+01	-4.547584e+02
2.900000e-07	-2.506424e-06	-6.870884e-09	-1.683277e+01	-4.504824e+02
3.000000e-07	-2.476683e-06	-6.835871e-09	-1.663304e+01	-4.460580e+02
3.100000e-07	-2.446117e-06	-6.720144e-09	-1.642776e+01	-4.415427e+02
3.200000e-07	-2.414806e-06	-6.647631e-09	-1.621748e+01	-4.369698e+02
3.300000e-07	-2.382739e-06	-6.643874e-09	-1.600212e+01	-4.323455e+02
3.400000e-07	-2.349931e-06	-6.478535e-09	-1.578179e+01	-4.276552e+02
3.500000e-07	-2.316295e-06	-6.420857e-09	-1.555589e+01	-4.228742e+02
3.600000e-07	-2.281606e-06	-6.418974e-09	-1.532292e+01	-4.179798e+02
3.700000e-07	-2.245825e-06	-6.278428e-09	-1.508263e+01	-4.129596e+02
3.800000e-07	-2.209195e-06	-6.198997e-09	-1.483663e+01	-4.078134e+02
3.900000e-07	-2.171904e-06	-6.157724e-09	-1.458618e+01	-4.025514e+02
4.000000e-07	-2.133973e-06	-6.022687e-09	-1.433144e+01	-3.971882e+02
4.100000e-07	-2.095286e-06	-5.943478e-09	-1.407163e+01	-3.917375e+02
4.200000e-07	-2.055753e-06	-5.912410e-09	-1.380613e+01	-3.862078e+02
4.300000e-07	-2.015528e-06	-5.795325e-09	-1.353598e+01	-3.806013e+02
4.400000e-07	-1.974751e-06	-5.696708e-09	-1.326213e+01	-3.749148e+02
4.500000e-07	-1.933378e-06	-5.618622e-09	-1.298428e+01	-3.691417e+02
4.600000e-07	-1.891192e-06	-5.530136e-09	-1.270096e+01	-3.632738e+02
4.700000e-07	-1.848073e-06	-5.431807e-09	-1.241138e+01	-3.573027e+02
4.800000e-07	-1.804132e-06	-5.337716e-09	-1.211628e+01	-3.512209e+02
4.900000e-07	-1.759555e-06	-5.244084e-09	-1.181691e+01	-3.450226e+02
5.000000e-07	-1.714459e-06	-5.156481e-09	-1.151405e+01	-3.387052e+02
5.100000e-07	-1.668803e-06	-5.066724e-09	-1.120744e+01	-3.322709e+02
5.200000e-07	-1.622530e-06	-4.953601e-09	-1.089667e+01	-3.257276e+02
5.300000e-07	-1.575655e-06	-4.854234e-09	-1.058187e+01	-3.190883e+02
5.400000e-07	-1.528230e-06	-4.754213e-09	-1.026337e+01	-3.123681e+02
5.500000e-07	-1.480267e-06	-4.650901e-09	-9.941254e+00	-3.055804e+02
5.600000e-07	-1.431810e-06	-4.544197e-09	-9.615825e+00	-2.987321e+02
5.700000e-07	-1.382939e-06	-4.438845e-09	-9.287612e+00	-2.918209e+02
5.800000e-07	-1.333596e-06	-4.327986e-09	-8.956233e+00	-2.848356e+02
5.900000e-07	-1.283573e-06	-4.226654e-09	-8.620288e+00	-2.777604e+02
6.000000e-07	-1.232772e-06	-4.120561e-09	-8.279111e+00	-2.705809e+02
6.100000e-07	-1.181239e-06	-4.001020e-09	-7.933026e+00	-2.632901e+02
6.200000e-07	-1.129148e-06	-3.891106e-09	-7.583189e+00	-2.558928e+02
6.300000e-07	-1.076665e-06	-3.776851e-09	-7.230719e+00	-2.484041e+02
6.400000e-07	-1.023855e-06	-3.661614e-09	-6.876056e+00	-2.408449e+02
6.500000e-07	-9.706923e-07	-3.539823e-09	-6.519025e+00	-2.332338e+02
6.600000e-07	-9.171247e-07	-3.422216e-09	-6.159273e+00	-2.255805e+02
6.700000e-07	-8.631687e-07	-3.306793e-09	-5.796912e+00	-2.178814e+02
6.800000e-07	-8.089015e-07	-3.194749e-09	-5.432462e+00	-2.101226e+02
6.900000e-07	-7.544472e-07	-3.076169e-09	-5.066755e+00	-2.022853e+02
7.000000e-07	-6.998297e-07	-2.948411e-09	-4.699952e+00	-1.943556e+02
7.100000e-07	-6.449808e-07	-2.825406e-09	-4.331595e+00	-1.863312e+02
7.200000e-07	-5.898778e-07	-2.701912e-09	-3.961531e+00	-1.782242e+02
7.300000e-07	-5.345638e-07	-2.575773e-09	-3.590051e+00	-1.700570e+02
7.400000e-07	-4.790586e-07	-2.445461e-09	-3.217286e+00	-1.618533e+02
7.500000e-07	-4.233504e-07	-2.321616e-09	-2.843158e+00	-1.536278e+02
7.600000e-07	-3.674482e-07	-2.198019e-09	-2.467727e+00	-1.453782e+02
7.700000e-07	-3.113958e-07	-2.074745e-09	-2.091288e+00	-1.370846e+02
7.800000e-07	-2.552621e-07	-1.946051e-09	-1.714302e+00	-1.287157e+02
7.900000e-07	-1.990344e-07	-1.812578e-09	-1.336685e+00	-1.202407e+02
8.000000e-07	-1.427314e-07	-1.681255e-09	-9.585626e-01	-1.116420e+02
8.100000e-07	-8.640455e-08	-1.546138e-09	-5.802801e-01	-1.029238e+02
8.200000e-07	-3.005944e-08	-1.410595e-09	-2.018747e-01	-9.411168e+01
8.300000e-07	2.629412e-08	-1.273652e-09	1.765874e-01	-8.524486e+01
8.400000e-07	8.266630e-08	-1.140040e-09	5.551745e-01	-7.636113e+01
8.500000e-07	1.389976e-07	-1.007104e-09	9.334870e-01	-6.748222e+01
8.600000e-07	1.952804e-07	-8.749697e-10	1.311474e+00	-5.860431e+01
8.700000e-07	2.515555e-07	-7.395043e-10	1.689409e+00	-4.969814e+01
8.800000e-07	3.077277e-07	-5.986367e-10	2.066653e+00	-4.071888e+01
8.900000e-07	3.637755e-07	-4.570360e-10	2.443062e+00	-3.162231e+01
9.000000e-07	4.196847e-07	-3.142395e-10	2.818540e+00	-2.238118e+01
9.100000e-07	4.754008e-07	-1.712940e-10	3.192721e+00	-1.299534e+01
9.200000e-07	5.309311e-07	-2.460936e-11	3.565654e+00	-3.491557e+00
9.300000e-07	5.862380e-07	1.193613e-10	3.937087e+00	6.086939e+00
9.400000e-07	6.413120e-07	2.622618e-10	4.306956e+00	1.569736e+01
9.500000e-07	6.961626e-07	4.070131e-10	4.675324e+00	2.531398e+01
9.600000e-07	7.508192e-07	5.572718e-10	5.042390e+00	3.493808e+01
9.700000e-07	8.052700e-07	7.096488e-10	5.408073e+00	4.459721e+01
9.800000e-07	8.594323e-07	8.592588e-10	5.771820e+00	5.433409e+01
9.900000e-07	9.133264e-07	1.008562e-09	6.133764e+00	6.418958e+01
1.000000e-06	9.668963e-07	1.160302e-09	6.493531e+00	7.418634e+01
1.010000e-06	1.020045e-06	1.316096e-09	6.850469e+00	8.431972e+01
1.020000e-06	1.072772e-06	1.471429e-09	7.204575e+00	9.455931e+01
1.030000e-06	1.125071e-06	1.628585e-09	7.555810e+00	1.048604e+02
1.040000e-06	1.176962e-06	1.785648e-09	7.904303e+00	1.151806e+02
1.050000e-06	1.228286e-06	1.943268e-09	8.248988e+00	1.254951e+02
1.060000e-06	1.278864e-06	2.100395e-09	8.588661e+00	1.358041e+02
1.070000e-06	1.328679e-06	2.258255e-09	8.923210e+00	1.461300e+02
1.080000e-06	1.377847e-06	2.416935e-09	9.253417e+00	1.565055e+02
1.090000e-06	1.426576e-06	2.575932e-09	9.580671e+00	1.669571e+02
1.100000e-06	1.474920e-06	2.738211e-09	9.905340e+00	1.774919e+02
1.110000e-06	1.522880e-06	2.901194e-09	1.022744e+01	1.880918e+02
1.120000e-06	1.570351e-06	3.062575e-09	1.054624e+01	1.987183e+02
1.130000e-06	1.617188e-06	3.221238e-09	1.086080e+01	2.093244e+02
1.140000e-06	1.663494e-06	3.380240e-09	1.117178e+01	2.198710e+02
1.150000e-06	1.709225e-06	3.538593e-09	1.147890e+01	2.303379e+02
1.160000e-06	1.754348e-06	3.697527e-09	1.178194e+01	2.407273e+02
1.170000e-06	1.799046e-06	3.856848e-09	1.208213e+01	2.510582e+02
1.180000e-06	1.843338e-06	4.015818e-09	1.237958e+01	2.613523e+02
1.190000e-06	1.886990e-06	4.174383e-09	1.267274e+01	2.716202e+02
1.200000e-06	1.929696e-06	4.329535e-09	1.295955e+01	2.818517e+02
1.210000e-06	1.971379e-06	4.482180e-09	1.323949e+01	2.920141e+02
1.220000e-06	2.012276e-06	4.632963e-09	1.351415e+01	3.020608e+02
1.230000e-06	2.052614e-06	4.783066e-09	1.378505e+01	3.119448e+02
1.240000e-06	2.092366e-06	4.931168e-09	1.405202e+01	3.216318e+02
1.250000e-06	2.131390e-06	5.076571e-09	1.431410e+01	3.311082e+02
1.260000e-06	2.169666e-06	5.218973e-09	1.457115e+01	3.403798e+02
1.270000e-06	2.207222e-06	5.357637e-09	1.482337e+01	3.494626e+02
1.280000e-06	2.244086e-06	5.492026e-09	1.507095e+01	3.583690e+02
1.290000e-06	2.280325e-06	5.621744e-09	1.531432e+01	3.670961e+02
1.300000e-06	2.315756e-06	5.748318e-09	1.555227e+01	3.756207e+02
1.310000e-06	2.350076e-06	5.871112e-09	1.578276e+01	3.839032e+02
1.320000e-06	2.383314e-06	5.989939e-09	1.600598e+01	3.918992e+02
1.330000e-06	2.415738e-06	6.105115e-09	1.622373e+01	3.995735e+02
1.340000e-06	2.447472e-06	6.217818e-09	1.643686e+01	4.069116e+02
1.350000e-06	2.478447e-06	6.325043e-09	1.664488e+01	4.139230e+02
1.360000e-06	2.508608e-06	6.425136e-09	1.684743e+01	4.206360e+02
1.370000e-06	2.537951e-06	6.520715e-09	1.704450e+01	4.270857e+02
1.380000e-06	2.566570e-06	6.614206e-09	1.723670e+01	4.333003e+02
1.390000e-06	2.594429e-06	6.705315e-09	1.742380e+01	4.392918e+02
1.400000e-06	2.621166e-06	6.791472e-09	1.760336e+01	4.450542e+02
1.410000e-06	2.646599e-06	6.873841e-09	1.777416e+01	4.505698e+02
1.420000e-06	2.670982e-06	6.952540e-09	1.793791e+01	4.558208e+02
1.430000e-06	2.694521e-06	7.026034e-09	1.809600e+01	4.608008e+02
1.440000e-06	2.717164e-06	7.095109e-09	1.824807e+01	4.655203e+02
1.450000e-06	2.738879e-06	7.161692e-09	1.839390e+01	4.700050e+02
1.460000e-06	2.759745e-06	7.227871e-09	1.853404e+01	4.742857e+02
1.470000e-06	2.779871e-06	7.291953e-09	1.866920e+01	4.783861e+02
1.480000e-06	2.799043e-06	7.350122e-09	1.879795e+01	4.823114e+02
1.490000e-06	2.817146e-06	7.402957e-09	1.891953e+01	4.860448e+02
1.500000e-06	2.834272e-06	7.452609e-09	1.903455e+01	4.895527e+02
1.510000e-06	2.850281e-06	7.499758e-09	1.914206e+01	4.927968e+02
1.520000e-06	2.865137e-06	7.543215e-09	1.924183e+01	4.957489e+02
1.530000e-06	2.878954e-06	7.582334e-09	1.933463e+01	4.984017e+02
1.540000e-06	2.891738e-06	7.617511e-09	1.942048e+01	5.007720e+02
1.550000e-06	2.903325e-06	7.648815e-09	1.949830e+01	5.028953e+02
1.560000e-06	2.913645e-06	7.677771e-09	1.956761e+01	5.048128e+02
1.570000e-06	2.922789e-06	7.703375e-09	1.962902e+01	5.065574e+02
1.580000e-06	2.930948e-06	7.725662e-09	1.968381e+01	5.081447e+02
1.590000e-06	2.938186e-06	7.747438e-09	1.973242e+01	5.095705e+02
1.600000e-06	2.944364e-06	7.767469e-09	1.977391e+01	5.108176e+02
1.610000e-06	2.949565e-06	7.782301e-09	1.980884e+01	5.118678e+02
1.620000e-06	2.953880e-06	7.792060e-09	1.983782e+01	5.127127e+02
1.630000e-06	2.957147e-06	7.799383e-09	1.985976e+01	5.133599e+02
1.640000e-06	2.959131e-06	7.807076e-09	1.987308e+01	5.138309e+02
1.650000e-06	2.959938e-06	7.812989e-09	1.987850e+01	5.141523e+02
1.660000e-06	2.959841e-06	7.815989e-09	1.987785e+01	5.143431e+02
1.670000e-06	2.958868e-06	7.818107e-09	1.987131e+01	5.144057e+02
1.680000e-06	2.956998e-06	7.814106e-09	1.985876e+01	5.143238e+02
1.690000e-06	2.954261e-06	7.806458e-09	1.984038e+01	5.140691e+02
1.700000e-06	2.950683e-06	7.798225e-09	1.981635e+01	5.136142e+02
1.710000e-06	2.946138e-06	7.787716e-09	1.978582e+01	5.129464e+02
1.720000e-06	2.940414e-06	7.764159e-09	1.974738e+01	5.120760e+02
1.730000e-06	2.933591e-06	7.731403e-09	1.970156e+01	5.110349e+02
1.740000e-06	2.925845e-06	7.768007e-09	1.964954e+01	5.098654e+02
1.750000e-06	2.916947e-06	7.778027e-09	1.958978e+01	5.086021e+02
1.760000e-06	2.906506e-06	7.671319e-09	1.951966e+01	5.072551e+02
1.770000e-06	2.894679e-06	7.596015e-09	1.944023e+01	5.058018e+02
1.780000e-06	2.882253e-06	7.688654e-09	1.935678e+01	5.041899e+02
1.790000e-06	2.869445e-06	7.758364e-09	1.927076e+01	5.023545e+02
1.800000e-06	2.855382e-06	7.512335e-09	1.917632e+01	5.002418e+02
1.810000e-06	2.839764e-06	7.490535e-09	1.907143e+01	4.978315e+02
1.820000e-06	2.823330e-06	7.656651e-09	1.896107e+01	4.951505e+02
1.830000e-06	2.806261e-06	7.457853e-09	1.884643e+01	4.922705e+02
1.840000e-06	2.788060e-06	7.291995e-09	1.872420e+01	4.892911e+02
1.850000e-06	2.768826e-06	7.482693e-09	1.859502e+01	4.863112e+02
1.860000e-06	2.748818e-06	7.421213e-09	1.846065e+01	4.834006e+02
1.870000e-06	2.727607e-06	7.163866e-09	1.831821e+01	4.805786e+02
1.880000e-06	2.705059e-06	7.306841e-09	1.816677e+01	4.778087e+02
1.890000e-06	2.681586e-06	7.304733e-09	1.800913e+01	4.750087e+02
1.900000e-06	2.657233e-06	7.072382e-09	1.784558e+01	4.720756e+02
1.910000e-06	2.631951e-06	7.168741e-09	1.767579e+01	4.689142e+02
1.920000e-06	2.605962e-06	7.162124e-09	1.750126e+01	4.654619e+02
1.930000e-06	2.579192e-06	6.972026e-09	1.732147e+01	4.617016e+02
1.940000e-06	2.551573e-06	7.003193e-09	1.713598e+01	4.576611e+02
1.950000e-06	2.523060e-06	6.888770e-09	1.694449e+01	4.533989e+02
1.960000e-06	2.493297e-06	6.790096e-09	1.674461e+01	4.489836e+02
1.970000e-06	2.462371e-06	6.845505e-09	1.653692e+01	4.444740e+02
1.980000e-06	2.430664e-06	6.665366e-09	1.632397e+01	4.399054e+02
1.990000e-06	2.398174e-06	6.585542e-09	1.610578e+01	4.352857e+02
2.000000e-06	2.364865e-06	6.652168e-09	1.588208e+01	4.306015e+02
2.010000e-06	2.330823e-06	6.436207e-09	1.565346e+01	4.258285e+02
2.020000e-06	2.296058e-06	6.361403e-09	1.541998e+01	4.209435e+02
2.030000e-06	2.260595e-06	6.403679e-09	1.518182e+01	4.159330e+02
2.040000e-06	2.224230e-06	6.212985e-09	1.493760e+01	4.107963e+02
2.050000e-06	2.186694e-06	6.171319e-09	1.468551e+01	4.055427e+02
2.060000e-06	2.148204e-06	6.147826e-09	1.442702e+01	4.001870e+02
2.070000e-06	2.109066e-06	5.982021e-09	1.416417e+01	3.947428e+02
2.080000e-06	2.069307e-06	5.926095e-09	1.389715e+01	3.892193e+02
2.090000e-06	2.028881e-06	5.847970e-09	1.362566e+01	3.836190e+02
2.100000e-06	1.987758e-06	5.744032e-09	1.334948e+01	3.779390e+02
2.110000e-06	1.945982e-06	5.682936e-09	1.306892e+01	3.721730e+02
2.120000e-06	1.903632e-06	5.570505e-09	1.278451e+01	3.663128e+02
2.130000e-06	1.860707e-06	5.494445e-09	1.249623e+01	3.603500e+02
2.140000e-06	1.817266e-06	5.415240e-09	1.220449e+01	3.542771e+02
2.150000e-06	1.773196e-06	5.293933e-09	1.190852e+01	3.480879e+02
2.160000e-06	1.728401e-06	5.208542e-09	1.160768e+01	3.417796e+02
2.170000e-06	1.682995e-06	5.109962e-09	1.130274e+01	3.353541e+02
2.180000e-06	1.637036e-06	5.019828e-09	1.099409e+01	3.288189e+02
2.190000e-06	1.590607e-06	4.912281e-09	1.068228e+01	3.221866e+02
2.200000e-06	1.543596e-06	4.798408e-09	1.036656e+01	3.154724e+02
2.210000e-06	1.495883e-06	4.712804e-09	1.004613e+01	3.086898e+02
2.220000e-06	1.447540e-06	4.596529e-09	9.721462e+00	3.018465e+02
2.230000e-06	1.398674e-06	4.497819e-09	9.393287e+00	2.949407e+02
2.240000e-06	1.349340e-06	4.397547e-09	9.061969e+00	2.879618e+02
2.250000e-06	1.299495e-06	4.274976e-09	8.727212e+00	2.808943e+02
2.260000e-06	1.249176e-06	4.178648e-09	8.389282e+00	2.737232e+02
2.270000e-06	1.198433e-06	4.067493e-09	8.048498e+00	2.664410e+02
2.280000e-06	1.147249e-06	3.945573e-09	7.704750e+00	2.590516e+02
2.290000e-06	1.095639e-06	3.836021e-09	7.358151e+00	2.515694e+02
2.300000e-06	1.043544e-06	3.717039e-09	7.008283e+00	2.440152e+02
2.310000e-06	9.907796e-07	3.611633e-09	6.653928e+00	2.364081e+02
2.320000e-06	9.373408e-07	3.498484e-09	6.295041e+00	2.287583e+02
2.330000e-06	8.833801e-07	3.374349e-09	5.932649e+00	2.210636e+02
2.340000e-06	8.290218e-07	3.259004e-09	5.567587e+00	2.133103e+02
2.350000e-06	7.743266e-07	3.135034e-09	5.200262e+00	2.054798e+02
2.360000e-06	7.193813e-07	3.017357e-09	4.831257e+00	1.975576e+02
2.370000e-06	6.643179e-07	2.893542e-09	4.461460e+00	1.895404e+02
2.380000e-06	6.091136e-07	2.769834e-09	4.090716e+00	1.814393e+02
2.390000e-06	5.537272e-07	2.652642e-09	3.718749e+00	1.732763e+02
2.400000e-06	4.982031e-07	2.527408e-09	3.345858e+00	1.650752e+02
2.410000e-06	4.425753e-07	2.404971e-09	2.972270e+00	1.568517e+02
2.420000e-06	3.868398e-07	2.277108e-09	2.597959e+00	1.486050e+02
2.430000e-06	3.309479e-07	2.147175e-09	2.222597e+00	1.403161e+02
2.440000e-06	2.749204e-07	2.022712e-09	1.846325e+00	1.319544e+02
2.450000e-06	2.187705e-07	1.895860e-09	1.469230e+00	1.234884e+02
2.460000e-06	1.625128e-07	1.766876e-09	1.091412e+00	1.148994e+02
2.470000e-06	1.062165e-07	1.633611e-09	7.133339e-01	1.061897e+02
2.480000e-06	4.987779e-08	1.497539e-09	3.349718e-01	9.738379e+01
2.490000e-06	-6.469873e-09	1.365949e-09	-4.345070e-02	8.852018e+01
2.500000e-06	-6.277558e-08	1.233010e-09	-4.215914e-01	7.963733e+01
2.510000e-06	-1.190511e-07	1.096906e-09	-7.995294e-01	7.075854e+01
2.520000e-06	-1.752681e-07	9.602633e-10	-1.177074e+00	6.188192e+01
2.530000e-06	-2.313859e-07	8.218385e-10	-1.553953e+00	5.297982e+01
2.540000e-06	-2.874424e-07	6.858298e-10	-1.930420e+00	4.400801e+01
2.550000e-06	-3.433840e-07	5.471169e-10	-2.306116e+00	3.492167e+01
2.560000e-06	-3.991452e-07	4.057448e-10	-2.680600e+00	2.569188e+01
2.570000e-06	-4.547281e-07	2.627241e-10	-3.053886e+00	1.631642e+01
2.580000e-06	-5.101521e-07	1.194646e-10	-3.426106e+00	6.820400e+00
2.590000e-06	-5.654678e-07	-2.312621e-11	-3.797598e+00	-2.753627e+00
2.600000e-06	-6.207103e-07	-1.690954e-10	-4.168598e+00	-1.236224e+01
2.610000e-06	-6.758338e-07	-3.171140e-10	-4.538799e+00	-2.197806e+01
2.620000e-06	-7.308155e-07	-4.661184e-10	-4.908048e+00	-3.160032e+01
2.630000e-06	-7.856151e-07	-6.132032e-10	-5.276074e+00	-4.125496e+01
2.640000e-06	-8.400806e-07	-7.607827e-10	-5.641856e+00	-5.098414e+01
2.650000e-06	-8.942034e-07	-9.104260e-10	-6.005337e+00	-6.082945e+01
2.660000e-06	-9.478596e-07	-1.061599e-09	-6.365684e+00	-7.081528e+01
2.670000e-06	-1.000896e-06	-1.212698e-09	-6.721868e+00	-8.093899e+01
2.680000e-06	-1.053287e-06	-1.366477e-09	-7.073717e+00	-9.117174e+01
2.690000e-06	-1.105122e-06	-1.524925e-09	-7.421837e+00	-1.014693e+02
2.700000e-06	-1.156552e-06	-1.684784e-09	-7.767232e+00	-1.117886e+02
2.710000e-06	-1.207609e-06	-1.843037e-09	-8.110123e+00	-1.221031e+02
2.720000e-06	-1.258245e-06	-2.000566e-09	-8.450188e+00	-1.324113e+02
2.730000e-06	-1.308401e-06	-2.161040e-09	-8.787027e+00	-1.427343e+02
2.740000e-06	-1.358087e-06	-2.320460e-09	-9.120708e+00	-1.531045e+02
2.750000e-06	-1.407237e-06	-2.477277e-09	-9.450796e+00	-1.635495e+02
2.760000e-06	-1.455739e-06	-2.633239e-09	-9.776523e+00	-1.740780e+02
2.770000e-06	-1.503515e-06	-2.793500e-09	-1.009738e+01	-1.846738e+02
2.780000e-06	-1.550468e-06	-2.958934e-09	-1.041271e+01	-1.952992e+02
2.790000e-06	-1.596660e-06	-3.123050e-09	-1.072293e+01	-2.059076e+02
2.800000e-06	-1.642294e-06	-3.284051e-09	-1.102940e+01	-2.164587e+02
2.810000e-06	-1.687499e-06	-3.444690e-09	-1.133299e+01	-2.269308e+02
2.820000e-06	-1.732280e-06	-3.606134e-09	-1.163373e+01	-2.373246e+02
2.830000e-06	-1.776523e-06	-3.764365e-09	-1.193086e+01	-2.476582e+02
2.840000e-06	-1.820204e-06	-3.917042e-09	-1.222422e+01	-2.579537e+02
2.850000e-06	-1.863379e-06	-4.068905e-09	-1.251417e+01	-2.682230e+02
2.860000e-06	-1.906066e-06	-4.226189e-09	-1.280086e+01	-2.784572e+02
2.870000e-06	-1.948182e-06	-4.384794e-09	-1.308370e+01	-2.886253e+02
2.880000e-06	-1.989643e-06	-4.540694e-09	-1.336215e+01	-2.986813e+02
2.890000e-06	-2.030427e-06	-4.692829e-09	-1.363604e+01	-3.085776e+02
2.900000e-06	-2.070509e-06	-4.839765e-09	-1.390523e+01	-3.182787e+02
2.910000e-06	-2.109943e-06	-4.983037e-09	-1.417006e+01	-3.277695e+02
2.920000e-06	-2.148772e-06	-5.123849e-09	-1.443083e+01	-3.370546e+02
2.930000e-06	-2.186832e-06	-5.263380e-09	-1.468644e+01	-3.461497e+02
2.940000e-06	-2.223854e-06	-5.400130e-09	-1.493507e+01	-3.550679e+02
