# Temperatura_=_21.67
# Concentracion g/m^3_=_18700.0
# C_Vs_to_Am_M_A/Vsm_=_65563218390.804596
# pendiente_HvsI_1/m_=_3716.3
# ordenada_HvsI_A/m_=_1297.0
# frecuencia_Hz_=_301074.67474854755

Tiempo_(s)	Campo_(V.s)	Magnetizacion_(V.s)	Campo_(kA/m)	Magnetizacion_(A/m)
0.000000e+00	-2.940360e-06	-7.684329e-09	-1.977795e+01	-5.014426e+02
1.000000e-08	-2.939960e-06	-7.689873e-09	-1.977526e+01	-5.015662e+02
2.000000e-08	-2.938713e-06	-7.694201e-09	-1.976688e+01	-5.015722e+02
3.000000e-08	-2.936375e-06	-7.692332e-09	-1.975115e+01	-5.014300e+02
4.000000e-08	-2.932755e-06	-7.684969e-09	-1.972680e+01	-5.011015e+02
5.000000e-08	-2.928157e-06	-7.675384e-09	-1.969588e+01	-5.005567e+02
6.000000e-08	-2.922751e-06	-7.664988e-09	-1.965951e+01	-4.997851e+02
7.000000e-08	-2.916412e-06	-7.660992e-09	-1.961687e+01	-4.988009e+02
8.000000e-08	-2.909101e-06	-7.635693e-09	-1.956769e+01	-4.976388e+02
9.000000e-08	-2.900725e-06	-7.600228e-09	-1.951136e+01	-4.963421e+02
1.000000e-07	-2.891043e-06	-7.585784e-09	-1.944623e+01	-4.949475e+02
1.100000e-07	-2.879865e-06	-7.625370e-09	-1.937104e+01	-4.934723e+02
1.200000e-07	-2.867569e-06	-7.552196e-09	-1.928833e+01	-4.919088e+02
1.300000e-07	-2.854526e-06	-7.430312e-09	-1.920060e+01	-4.902284e+02
1.400000e-07	-2.840461e-06	-7.454703e-09	-1.910600e+01	-4.883929e+02
1.500000e-07	-2.825205e-06	-7.570802e-09	-1.900338e+01	-4.863701e+02
1.600000e-07	-2.808854e-06	-7.387936e-09	-1.889340e+01	-4.841463e+02
1.700000e-07	-2.791339e-06	-7.277473e-09	-1.877559e+01	-4.817323e+02
1.800000e-07	-2.772725e-06	-7.438645e-09	-1.865038e+01	-4.791605e+02
1.900000e-07	-2.753394e-06	-7.296507e-09	-1.852035e+01	-4.764730e+02
2.000000e-07	-2.733323e-06	-7.158246e-09	-1.838535e+01	-4.737069e+02
2.100000e-07	-2.712242e-06	-7.251648e-09	-1.824355e+01	-4.708806e+02
2.200000e-07	-2.690215e-06	-7.179333e-09	-1.809539e+01	-4.679870e+02
2.300000e-07	-2.667422e-06	-7.012269e-09	-1.794207e+01	-4.649951e+02
2.400000e-07	-2.643765e-06	-7.087769e-09	-1.778295e+01	-4.618604e+02
2.500000e-07	-2.619225e-06	-7.041317e-09	-1.761788e+01	-4.585390e+02
2.600000e-07	-2.593799e-06	-6.891740e-09	-1.744686e+01	-4.550015e+02
2.700000e-07	-2.567171e-06	-6.882896e-09	-1.726775e+01	-4.512414e+02
2.800000e-07	-2.539371e-06	-6.854459e-09	-1.708075e+01	-4.472756e+02
2.900000e-07	-2.510714e-06	-6.747500e-09	-1.688800e+01	-4.431379e+02
3.000000e-07	-2.481250e-06	-6.717306e-09	-1.668981e+01	-4.388672e+02
3.100000e-07	-2.450962e-06	-6.607665e-09	-1.648608e+01	-4.344957e+02
3.200000e-07	-2.419936e-06	-6.537016e-09	-1.627739e+01	-4.300412e+02
3.300000e-07	-2.388177e-06	-6.553329e-09	-1.606377e+01	-4.255048e+02
3.400000e-07	-2.355670e-06	-6.387939e-09	-1.584511e+01	-4.208748e+02
3.500000e-07	-2.322382e-06	-6.323022e-09	-1.562120e+01	-4.161347e+02
3.600000e-07	-2.288126e-06	-6.321403e-09	-1.539079e+01	-4.112715e+02
3.700000e-07	-2.252756e-06	-6.189780e-09	-1.515287e+01	-4.062808e+02
3.800000e-07	-2.216447e-06	-6.098990e-09	-1.490865e+01	-4.011690e+02
3.900000e-07	-2.179452e-06	-6.070758e-09	-1.465981e+01	-3.959491e+02
4.000000e-07	-2.141788e-06	-5.927565e-09	-1.440646e+01	-3.906356e+02
4.100000e-07	-2.103361e-06	-5.843844e-09	-1.414799e+01	-3.852383e+02
4.200000e-07	-2.064146e-06	-5.817425e-09	-1.388421e+01	-3.797592e+02
4.300000e-07	-2.024231e-06	-5.700274e-09	-1.361573e+01	-3.741922e+02
4.400000e-07	-1.983738e-06	-5.605968e-09	-1.334336e+01	-3.685266e+02
4.500000e-07	-1.942675e-06	-5.536200e-09	-1.306716e+01	-3.627519e+02
4.600000e-07	-1.900849e-06	-5.444894e-09	-1.278582e+01	-3.568623e+02
4.700000e-07	-1.858016e-06	-5.334173e-09	-1.249771e+01	-3.508593e+02
4.800000e-07	-1.814271e-06	-5.245462e-09	-1.220347e+01	-3.447505e+02
4.900000e-07	-1.769939e-06	-5.149132e-09	-1.190527e+01	-3.385471e+02
5.000000e-07	-1.725110e-06	-5.064665e-09	-1.160373e+01	-3.322596e+02
5.100000e-07	-1.679729e-06	-4.971850e-09	-1.129848e+01	-3.258946e+02
5.200000e-07	-1.633739e-06	-4.859419e-09	-1.098914e+01	-3.194533e+02
5.300000e-07	-1.587153e-06	-4.761366e-09	-1.067578e+01	-3.129324e+02
5.400000e-07	-1.540001e-06	-4.664415e-09	-1.035862e+01	-3.063273e+02
5.500000e-07	-1.492277e-06	-4.561935e-09	-1.003761e+01	-2.996351e+02
5.600000e-07	-1.444077e-06	-4.456005e-09	-9.713398e+00	-2.928570e+02
5.700000e-07	-1.395513e-06	-4.355482e-09	-9.386743e+00	-2.859986e+02
5.800000e-07	-1.346459e-06	-4.237035e-09	-9.056783e+00	-2.790684e+02
5.900000e-07	-1.296704e-06	-4.137034e-09	-8.722111e+00	-2.720747e+02
6.000000e-07	-1.246117e-06	-4.031656e-09	-8.381850e+00	-2.650222e+02
6.100000e-07	-1.194842e-06	-3.912716e-09	-8.036949e+00	-2.579102e+02
6.200000e-07	-1.143072e-06	-3.806359e-09	-7.688727e+00	-2.507322e+02
6.300000e-07	-1.090839e-06	-3.703994e-09	-7.337387e+00	-2.434781e+02
6.400000e-07	-1.038232e-06	-3.596294e-09	-6.983536e+00	-2.361373e+02
6.500000e-07	-9.852546e-07	-3.474630e-09	-6.627190e+00	-2.287027e+02
6.600000e-07	-9.318598e-07	-3.356905e-09	-6.268036e+00	-2.211734e+02
6.700000e-07	-8.780576e-07	-3.237798e-09	-5.906143e+00	-2.135554e+02
6.800000e-07	-8.239647e-07	-3.125673e-09	-5.542293e+00	-2.058610e+02
6.900000e-07	-7.696902e-07	-3.008192e-09	-5.177223e+00	-1.981057e+02
7.000000e-07	-7.152233e-07	-2.888599e-09	-4.810858e+00	-1.903043e+02
7.100000e-07	-6.605390e-07	-2.770819e-09	-4.443031e+00	-1.824672e+02
7.200000e-07	-6.056716e-07	-2.651063e-09	-4.073973e+00	-1.745979e+02
7.300000e-07	-5.505618e-07	-2.527921e-09	-3.703284e+00	-1.666921e+02
7.400000e-07	-4.951172e-07	-2.398855e-09	-3.330343e+00	-1.587385e+02
7.500000e-07	-4.394592e-07	-2.275599e-09	-2.955966e+00	-1.507218e+02
7.600000e-07	-3.836816e-07	-2.154537e-09	-2.580785e+00	-1.426262e+02
7.700000e-07	-3.277087e-07	-2.038481e-09	-2.204291e+00	-1.344388e+02
7.800000e-07	-2.715961e-07	-1.913615e-09	-1.826856e+00	-1.261532e+02
7.900000e-07	-2.154644e-07	-1.781749e-09	-1.449294e+00	-1.177702e+02
8.000000e-07	-1.593141e-07	-1.648035e-09	-1.071606e+00	-1.092979e+02
8.100000e-07	-1.031249e-07	-1.513077e-09	-6.936562e-01	-1.007493e+02
8.200000e-07	-4.688450e-08	-1.378317e-09	-3.153626e-01	-9.213899e+01
8.300000e-07	9.373217e-09	-1.242713e-09	6.304775e-02	-8.347992e+01
8.400000e-07	6.558398e-08	-1.112926e-09	4.411422e-01	-7.478041e+01
8.500000e-07	1.217653e-07	-9.847327e-10	8.190384e-01	-6.604271e+01
8.600000e-07	1.779642e-07	-8.569277e-10	1.197053e+00	-5.726326e+01
8.700000e-07	2.341075e-07	-7.211268e-10	1.574694e+00	-4.843444e+01
8.800000e-07	2.901805e-07	-5.820369e-10	1.951862e+00	-3.954710e+01
8.900000e-07	3.462020e-07	-4.419275e-10	2.328683e+00	-3.059304e+01
9.000000e-07	4.020740e-07	-3.016858e-10	2.704499e+00	-2.156667e+01
9.100000e-07	4.577277e-07	-1.627902e-10	3.078847e+00	-1.246536e+01
9.200000e-07	5.131636e-07	-2.375664e-11	3.451730e+00	-3.288623e+00
9.300000e-07	5.683598e-07	1.127131e-10	3.822999e+00	5.963280e+00
9.400000e-07	6.233457e-07	2.518674e-10	4.192855e+00	1.529058e+01
9.500000e-07	6.781528e-07	3.932708e-10	4.561508e+00	2.469446e+01
9.600000e-07	7.327341e-07	5.413979e-10	4.928643e+00	3.417644e+01
9.700000e-07	7.871041e-07	6.910144e-10	5.294355e+00	4.373710e+01
9.800000e-07	8.412751e-07	8.396004e-10	5.658729e+00	5.337472e+01
9.900000e-07	8.951948e-07	9.868462e-10	6.021413e+00	6.308469e+01
1.000000e-06	9.487693e-07	1.135584e-09	6.381775e+00	7.286011e+01
1.010000e-06	1.001933e-06	1.285989e-09	6.739376e+00	8.269355e+01
1.020000e-06	1.054671e-06	1.433856e-09	7.094112e+00	9.257926e+01
1.030000e-06	1.107039e-06	1.584121e-09	7.446354e+00	1.025148e+02
1.040000e-06	1.159029e-06	1.736765e-09	7.796061e+00	1.125011e+02
1.050000e-06	1.210492e-06	1.891894e-09	8.142222e+00	1.225413e+02
1.060000e-06	1.261259e-06	2.045682e-09	8.483699e+00	1.326369e+02
1.070000e-06	1.311228e-06	2.200456e-09	8.819808e+00	1.427855e+02
1.080000e-06	1.360478e-06	2.355094e-09	9.151081e+00	1.529777e+02
1.090000e-06	1.409208e-06	2.511157e-09	9.478858e+00	1.631982e+02
1.100000e-06	1.457598e-06	2.669014e-09	9.804344e+00	1.734277e+02
1.110000e-06	1.505639e-06	2.824484e-09	1.012749e+01	1.836479e+02
1.120000e-06	1.553178e-06	2.978284e-09	1.044725e+01	1.938456e+02
1.130000e-06	1.600107e-06	3.132597e-09	1.076291e+01	2.040158e+02
1.140000e-06	1.646429e-06	3.290485e-09	1.107449e+01	2.141612e+02
1.150000e-06	1.692195e-06	3.445648e-09	1.138233e+01	2.242884e+02
1.160000e-06	1.737385e-06	3.598662e-09	1.168630e+01	2.344019e+02
1.170000e-06	1.782074e-06	3.752110e-09	1.198689e+01	2.444987e+02
1.180000e-06	1.826376e-06	3.907773e-09	1.228488e+01	2.545640e+02
1.190000e-06	1.870184e-06	4.063218e-09	1.257956e+01	2.645722e+02
1.200000e-06	1.913221e-06	4.215007e-09	1.286903e+01	2.744911e+02
1.210000e-06	1.955246e-06	4.363414e-09	1.315171e+01	2.842896e+02
1.220000e-06	1.996282e-06	4.508714e-09	1.342774e+01	2.939444e+02
1.230000e-06	2.036638e-06	4.652557e-09	1.369919e+01	3.034446e+02
1.240000e-06	2.076469e-06	4.792740e-09	1.396711e+01	3.127914e+02
1.250000e-06	2.115627e-06	4.931745e-09	1.423050e+01	3.219929e+02
1.260000e-06	2.154050e-06	5.070256e-09	1.448894e+01	3.310552e+02
1.270000e-06	2.191733e-06	5.208297e-09	1.474241e+01	3.399745e+02
1.280000e-06	2.228657e-06	5.343553e-09	1.499078e+01	3.487321e+02
1.290000e-06	2.264999e-06	5.473829e-09	1.523523e+01	3.572948e+02
1.300000e-06	2.300692e-06	5.597588e-09	1.547531e+01	3.656215e+02
1.310000e-06	2.335380e-06	5.714800e-09	1.570863e+01	3.736734e+02
1.320000e-06	2.368907e-06	5.828679e-09	1.593415e+01	3.814239e+02
1.330000e-06	2.401517e-06	5.941599e-09	1.615350e+01	3.888654e+02
1.340000e-06	2.433458e-06	6.052566e-09	1.636834e+01	3.960095e+02
1.350000e-06	2.464668e-06	6.157049e-09	1.657827e+01	4.028807e+02
1.360000e-06	2.495070e-06	6.255590e-09	1.678277e+01	4.095067e+02
1.370000e-06	2.524615e-06	6.350034e-09	1.698150e+01	4.159078e+02
1.380000e-06	2.553369e-06	6.441953e-09	1.717491e+01	4.220896e+02
1.390000e-06	2.581367e-06	6.529990e-09	1.736324e+01	4.280434e+02
1.400000e-06	2.608358e-06	6.614121e-09	1.754479e+01	4.337511e+02
1.410000e-06	2.634067e-06	6.695303e-09	1.771771e+01	4.391957e+02
1.420000e-06	2.658670e-06	6.773627e-09	1.788321e+01	4.443703e+02
1.430000e-06	2.682413e-06	6.848814e-09	1.804291e+01	4.492843e+02
1.440000e-06	2.705262e-06	6.919479e-09	1.819660e+01	4.539614e+02
1.450000e-06	2.727231e-06	6.985635e-09	1.834437e+01	4.584327e+02
1.460000e-06	2.748349e-06	7.049510e-09	1.848642e+01	4.627250e+02
1.470000e-06	2.768667e-06	7.112235e-09	1.862308e+01	4.668502e+02
1.480000e-06	2.788149e-06	7.171677e-09	1.875413e+01	4.708003e+02
1.490000e-06	2.806616e-06	7.226246e-09	1.887834e+01	4.745488e+02
1.500000e-06	2.824046e-06	7.275298e-09	1.899559e+01	4.780602e+02
1.510000e-06	2.840486e-06	7.321349e-09	1.910617e+01	4.813028e+02
1.520000e-06	2.855792e-06	7.365979e-09	1.920912e+01	4.842605e+02
1.530000e-06	2.869957e-06	7.405284e-09	1.930440e+01	4.869391e+02
1.540000e-06	2.883043e-06	7.438775e-09	1.939242e+01	4.893650e+02
1.550000e-06	2.895050e-06	7.470146e-09	1.947318e+01	4.915760e+02
1.560000e-06	2.905859e-06	7.501742e-09	1.954589e+01	4.936082e+02
1.570000e-06	2.915336e-06	7.530743e-09	1.960964e+01	4.954838e+02
1.580000e-06	2.923740e-06	7.555743e-09	1.966616e+01	4.972050e+02
1.590000e-06	2.931196e-06	7.578325e-09	1.971631e+01	4.987554e+02
1.600000e-06	2.937679e-06	7.598331e-09	1.975992e+01	5.001088e+02
1.610000e-06	2.943219e-06	7.613772e-09	1.979719e+01	5.012426e+02
1.620000e-06	2.947843e-06	7.624620e-09	1.982829e+01	5.021488e+02
1.630000e-06	2.951497e-06	7.632326e-09	1.985287e+01	5.028396e+02
1.640000e-06	2.953942e-06	7.640974e-09	1.986932e+01	5.033446e+02
1.650000e-06	2.955124e-06	7.649080e-09	1.987726e+01	5.037008e+02
1.660000e-06	2.955308e-06	7.653468e-09	1.987850e+01	5.039386e+02
1.670000e-06	2.954592e-06	7.656899e-09	1.987369e+01	5.040708e+02
1.680000e-06	2.952956e-06	7.655455e-09	1.986268e+01	5.040871e+02
1.690000e-06	2.950420e-06	7.649808e-09	1.984562e+01	5.039576e+02
1.700000e-06	2.947035e-06	7.642009e-09	1.982285e+01	5.036446e+02
1.710000e-06	2.942821e-06	7.632576e-09	1.979451e+01	5.031168e+02
1.720000e-06	2.937466e-06	7.619294e-09	1.975849e+01	5.023621e+02
1.730000e-06	2.930908e-06	7.594309e-09	1.971438e+01	5.013931e+02
1.740000e-06	2.923430e-06	7.612437e-09	1.966408e+01	5.002432e+02
1.750000e-06	2.914949e-06	7.592200e-09	1.960703e+01	4.989558e+02
1.760000e-06	2.905015e-06	7.524878e-09	1.954021e+01	4.975683e+02
1.770000e-06	2.893503e-06	7.469987e-09	1.946278e+01	4.960997e+02
1.780000e-06	2.881144e-06	7.555618e-09	1.937965e+01	4.945442e+02
1.790000e-06	2.868572e-06	7.584938e-09	1.929509e+01	4.928743e+02
1.800000e-06	2.855058e-06	7.367598e-09	1.920418e+01	4.910521e+02
1.810000e-06	2.839879e-06	7.377905e-09	1.910208e+01	4.890444e+02
1.820000e-06	2.823619e-06	7.506798e-09	1.899271e+01	4.868358e+02
1.830000e-06	2.806837e-06	7.350468e-09	1.887983e+01	4.844355e+02
1.840000e-06	2.789005e-06	7.195094e-09	1.875989e+01	4.818745e+02
1.850000e-06	2.769961e-06	7.348913e-09	1.863179e+01	4.791948e+02
1.860000e-06	2.750195e-06	7.304561e-09	1.849884e+01	4.764344e+02
1.870000e-06	2.729437e-06	7.073711e-09	1.835921e+01	4.736133e+02
1.880000e-06	2.707262e-06	7.219354e-09	1.821005e+01	4.707262e+02
1.890000e-06	2.684020e-06	7.216185e-09	1.805372e+01	4.677437e+02
1.900000e-06	2.659940e-06	6.953222e-09	1.789175e+01	4.646217e+02
1.910000e-06	2.634939e-06	7.044792e-09	1.772358e+01	4.613158e+02
1.920000e-06	2.609228e-06	7.038139e-09	1.755064e+01	4.577952e+02
1.930000e-06	2.582755e-06	6.854447e-09	1.737257e+01	4.540516e+02
1.940000e-06	2.555392e-06	6.894076e-09	1.718851e+01	4.501005e+02
1.950000e-06	2.527183e-06	6.809389e-09	1.699877e+01	4.459747e+02
1.960000e-06	2.497805e-06	6.693997e-09	1.680116e+01	4.417132e+02
1.970000e-06	2.467092e-06	6.727050e-09	1.659458e+01	4.373491e+02
1.980000e-06	2.435528e-06	6.559534e-09	1.638227e+01	4.329013e+02
1.990000e-06	2.403255e-06	6.460674e-09	1.616519e+01	4.283719e+02
2.000000e-06	2.370163e-06	6.543930e-09	1.594260e+01	4.237501e+02
2.010000e-06	2.336398e-06	6.352454e-09	1.571548e+01	4.190194e+02
2.020000e-06	2.301870e-06	6.258968e-09	1.548323e+01	4.141661e+02
2.030000e-06	2.266596e-06	6.297629e-09	1.524597e+01	4.091854e+02
2.040000e-06	2.230631e-06	6.109964e-09	1.500405e+01	4.040828e+02
2.050000e-06	2.193616e-06	6.057009e-09	1.475507e+01	3.988711e+02
2.060000e-06	2.155522e-06	6.047767e-09	1.449884e+01	3.935648e+02
2.070000e-06	2.116678e-06	5.880928e-09	1.423756e+01	3.881743e+02
2.080000e-06	2.077212e-06	5.823936e-09	1.397210e+01	3.827021e+02
2.090000e-06	2.037094e-06	5.760247e-09	1.370225e+01	3.771426e+02
2.100000e-06	1.996247e-06	5.641551e-09	1.342750e+01	3.714854e+02
2.110000e-06	1.954752e-06	5.576220e-09	1.314839e+01	3.657197e+02
2.120000e-06	1.912658e-06	5.468682e-09	1.286525e+01	3.598393e+02
2.130000e-06	1.869897e-06	5.390134e-09	1.257762e+01	3.538451e+02
2.140000e-06	1.826619e-06	5.312785e-09	1.228652e+01	3.477445e+02
2.150000e-06	1.782909e-06	5.189839e-09	1.199251e+01	3.415484e+02
2.160000e-06	1.738544e-06	5.105372e-09	1.169410e+01	3.352676e+02
2.170000e-06	1.693431e-06	5.007981e-09	1.139065e+01	3.289090e+02
2.180000e-06	1.647683e-06	4.919710e-09	1.108293e+01	3.224741e+02
2.190000e-06	1.601460e-06	4.815844e-09	1.077201e+01	3.159600e+02
2.200000e-06	1.554781e-06	4.701841e-09	1.045804e+01	3.093621e+02
2.210000e-06	1.507499e-06	4.613194e-09	1.014000e+01	3.026771e+02
2.220000e-06	1.459532e-06	4.500019e-09	9.817354e+00	2.959059e+02
2.230000e-06	1.410846e-06	4.405100e-09	9.489874e+00	2.890539e+02
2.240000e-06	1.361622e-06	4.313343e-09	9.158775e+00	2.821295e+02
2.250000e-06	1.312044e-06	4.188959e-09	8.825299e+00	2.751411e+02
2.260000e-06	1.262011e-06	4.093038e-09	8.488755e+00	2.680937e+02
2.270000e-06	1.211433e-06	3.992311e-09	8.148549e+00	2.609870e+02
2.280000e-06	1.160401e-06	3.867184e-09	7.805291e+00	2.538150e+02
2.290000e-06	1.108977e-06	3.757234e-09	7.459391e+00	2.465676e+02
2.300000e-06	1.057106e-06	3.638867e-09	7.110486e+00	2.392343e+02
2.310000e-06	1.004718e-06	3.538302e-09	6.758109e+00	2.318075e+02
2.320000e-06	9.517485e-07	3.431427e-09	6.401815e+00	2.242857e+02
2.330000e-06	8.981681e-07	3.307989e-09	6.041413e+00	2.166747e+02
2.340000e-06	8.440916e-07	3.193612e-09	5.677674e+00	2.089862e+02
2.350000e-06	7.896296e-07	3.070087e-09	5.311343e+00	2.012357e+02
2.360000e-06	7.348410e-07	2.953052e-09	4.942814e+00	1.934380e+02
2.370000e-06	6.797907e-07	2.831070e-09	4.572525e+00	1.856042e+02
2.380000e-06	6.245632e-07	2.711061e-09	4.201044e+00	1.777383e+02
2.390000e-06	5.692515e-07	2.599099e-09	3.828998e+00	1.698363e+02
2.400000e-06	5.138548e-07	2.480151e-09	3.456379e+00	1.618876e+02
2.410000e-06	4.583351e-07	2.360429e-09	3.082933e+00	1.538769e+02
2.420000e-06	4.027180e-07	2.234004e-09	2.708832e+00	1.457883e+02
2.430000e-06	3.469836e-07	2.104319e-09	2.333941e+00	1.376087e+02
2.440000e-06	2.911270e-07	1.980957e-09	1.958229e+00	1.293311e+02
2.450000e-06	2.351995e-07	1.856111e-09	1.582040e+00	1.209559e+02
2.460000e-06	1.791602e-07	1.728810e-09	1.205098e+00	1.124906e+02
2.470000e-06	1.230550e-07	1.600052e-09	8.277137e-01	1.039478e+02
2.480000e-06	6.693692e-08	1.468301e-09	4.502426e-01	9.534240e+01
2.490000e-06	1.075402e-08	1.340689e-09	7.233557e-02	8.668742e+01
2.500000e-06	-4.543730e-08	1.209391e-09	-3.056282e-01	7.799160e+01
2.510000e-06	-1.016142e-07	1.075918e-09	-6.834951e-01	6.925763e+01
2.520000e-06	-1.577333e-07	9.429444e-10	-1.060973e+00	6.048233e+01
2.530000e-06	-2.137494e-07	8.063332e-10	-1.437758e+00	5.165829e+01
2.540000e-06	-2.696807e-07	6.690693e-10	-1.813972e+00	4.277637e+01
2.550000e-06	-3.255270e-07	5.302408e-10	-2.189616e+00	3.382825e+01
2.560000e-06	-3.812228e-07	3.949821e-10	-2.564246e+00	2.480811e+01
2.570000e-06	-4.367472e-07	2.599580e-10	-2.937724e+00	1.571314e+01
2.580000e-06	-4.921631e-07	1.230658e-10	-3.310472e+00	6.542725e+00
2.590000e-06	-5.474857e-07	-1.663994e-11	-3.682593e+00	-2.702864e+00
2.600000e-06	-6.027534e-07	-1.609897e-10	-4.054344e+00	-1.202380e+01
2.610000e-06	-6.579590e-07	-3.087095e-10	-4.425677e+00	-2.142121e+01
2.620000e-06	-7.130316e-07	-4.576315e-10	-4.796116e+00	-3.089662e+01
2.630000e-06	-7.678466e-07	-6.044920e-10	-5.164822e+00	-4.045074e+01
2.640000e-06	-8.223361e-07	-7.493083e-10	-5.531339e+00	-5.008204e+01
2.650000e-06	-8.763787e-07	-8.935080e-10	-5.894849e+00	-5.978610e+01
2.660000e-06	-9.298106e-07	-1.040354e-09	-6.254252e+00	-6.955615e+01
2.670000e-06	-9.826883e-07	-1.189023e-09	-6.609928e+00	-7.938472e+01
2.680000e-06	-1.035066e-06	-1.340691e-09	-6.962242e+00	-8.926587e+01
2.690000e-06	-1.086946e-06	-1.493698e-09	-7.311204e+00	-9.919688e+01
2.700000e-06	-1.138406e-06	-1.648407e-09	-7.657341e+00	-1.091786e+02
2.710000e-06	-1.189489e-06	-1.804108e-09	-8.000944e+00	-1.192138e+02
2.720000e-06	-1.240190e-06	-1.958193e-09	-8.341978e+00	-1.293046e+02
2.730000e-06	-1.290437e-06	-2.113078e-09	-8.679959e+00	-1.394486e+02
2.740000e-06	-1.340173e-06	-2.267424e-09	-9.014503e+00	-1.496372e+02
2.750000e-06	-1.389387e-06	-2.421898e-09	-9.345534e+00	-1.598554e+02
2.760000e-06	-1.437960e-06	-2.575357e-09	-9.672254e+00	-1.700839e+02
2.770000e-06	-1.485689e-06	-2.729775e-09	-9.993299e+00	-1.803043e+02
2.780000e-06	-1.532525e-06	-2.886610e-09	-1.030833e+01	-1.905030e+02
2.790000e-06	-1.578756e-06	-3.045313e-09	-1.061930e+01	-2.006742e+02
2.800000e-06	-1.624609e-06	-3.202277e-09	-1.092772e+01	-2.108203e+02
2.810000e-06	-1.670058e-06	-3.355814e-09	-1.123343e+01	-2.209476e+02
2.820000e-06	-1.715029e-06	-3.508340e-09	-1.153593e+01	-2.310611e+02
2.830000e-06	-1.759406e-06	-3.660101e-09	-1.183442e+01	-2.411585e+02
2.840000e-06	-1.803174e-06	-3.810436e-09	-1.212882e+01	-2.512258e+02
2.850000e-06	-1.846475e-06	-3.959663e-09	-1.242008e+01	-2.612381e+02
2.860000e-06	-1.889343e-06	-4.111896e-09	-1.270842e+01	-2.711636e+02
2.870000e-06	-1.931600e-06	-4.265087e-09	-1.299266e+01	-2.809707e+02
2.880000e-06	-1.973213e-06	-4.415605e-09	-1.327256e+01	-2.906352e+02
2.890000e-06	-2.014206e-06	-4.560975e-09	-1.354830e+01	-3.001456e+02
2.900000e-06	-2.054511e-06	-4.701577e-09	-1.381941e+01	-3.095022e+02
2.910000e-06	-2.094122e-06	-4.839397e-09	-1.408584e+01	-3.187129e+02
2.920000e-06	-2.133107e-06	-4.976627e-09	-1.434807e+01	-3.277841e+02
2.930000e-06	-2.171345e-06	-5.113315e-09	-1.460528e+01	-3.367132e+02
2.940000e-06	-2.208504e-06	-5.247479e-09	-1.485522e+01	-3.454823e+02
