# Temperatura_=_27.55
# Concentracion g/m^3_=_18700.0
# C_Vs_to_Am_M_A/Vsm_=_65563218390.804596
# pendiente_HvsI_1/m_=_3716.3
# ordenada_HvsI_A/m_=_1297.0
# frecuencia_Hz_=_301053.4935822341

Tiempo_(s)	Campo_(V.s)	Magnetizacion_(V.s)	Campo_(kA/m)	Magnetizacion_(A/m)
0.000000e+00	-2.945389e-06	-7.876963e-09	-1.978388e+01	-5.150975e+02
1.000000e-08	-2.944780e-06	-7.878806e-09	-1.977979e+01	-5.151343e+02
2.000000e-08	-2.943408e-06	-7.880368e-09	-1.977057e+01	-5.150088e+02
3.000000e-08	-2.940906e-06	-7.879239e-09	-1.975376e+01	-5.147082e+02
4.000000e-08	-2.937119e-06	-7.876702e-09	-1.972833e+01	-5.142263e+02
5.000000e-08	-2.932418e-06	-7.870439e-09	-1.969675e+01	-5.135673e+02
6.000000e-08	-2.926913e-06	-7.857060e-09	-1.965978e+01	-5.127467e+02
7.000000e-08	-2.920389e-06	-7.838500e-09	-1.961596e+01	-5.117854e+02
8.000000e-08	-2.912806e-06	-7.821212e-09	-1.956502e+01	-5.107019e+02
9.000000e-08	-2.904152e-06	-7.821916e-09	-1.950689e+01	-5.095031e+02
1.000000e-07	-2.894097e-06	-7.807589e-09	-1.943936e+01	-5.081795e+02
1.100000e-07	-2.882508e-06	-7.740569e-09	-1.936151e+01	-5.067059e+02
1.200000e-07	-2.869990e-06	-7.662715e-09	-1.927743e+01	-5.050481e+02
1.300000e-07	-2.856815e-06	-7.683557e-09	-1.918894e+01	-5.031742e+02
1.400000e-07	-2.842609e-06	-7.744284e-09	-1.909351e+01	-5.010670e+02
1.500000e-07	-2.827250e-06	-7.651841e-09	-1.899035e+01	-4.987314e+02
1.600000e-07	-2.810762e-06	-7.546716e-09	-1.887960e+01	-4.961975e+02
1.700000e-07	-2.792998e-06	-7.590372e-09	-1.876029e+01	-4.935141e+02
1.800000e-07	-2.774192e-06	-7.540770e-09	-1.863397e+01	-4.907371e+02
1.900000e-07	-2.754717e-06	-7.410800e-09	-1.850315e+01	-4.879156e+02
2.000000e-07	-2.734456e-06	-7.424472e-09	-1.836706e+01	-4.850788e+02
2.100000e-07	-2.713187e-06	-7.410496e-09	-1.822420e+01	-4.822290e+02
2.200000e-07	-2.691012e-06	-7.295408e-09	-1.807525e+01	-4.793410e+02
2.300000e-07	-2.667987e-06	-7.277714e-09	-1.792060e+01	-4.763697e+02
2.400000e-07	-2.644020e-06	-7.276339e-09	-1.775961e+01	-4.732612e+02
2.500000e-07	-2.619245e-06	-7.161323e-09	-1.759320e+01	-4.699661e+02
2.600000e-07	-2.593531e-06	-7.089421e-09	-1.742048e+01	-4.664507e+02
2.700000e-07	-2.566525e-06	-7.070944e-09	-1.723908e+01	-4.627026e+02
2.800000e-07	-2.538458e-06	-7.005397e-09	-1.705056e+01	-4.587321e+02
2.900000e-07	-2.509607e-06	-6.940364e-09	-1.685678e+01	-4.545669e+02
3.000000e-07	-2.479868e-06	-6.870671e-09	-1.665702e+01	-4.502446e+02
3.100000e-07	-2.449311e-06	-6.801293e-09	-1.645178e+01	-4.458035e+02
3.200000e-07	-2.418001e-06	-6.762140e-09	-1.624147e+01	-4.412749e+02
3.300000e-07	-2.385921e-06	-6.663097e-09	-1.602599e+01	-4.366776e+02
3.400000e-07	-2.353234e-06	-6.565060e-09	-1.580643e+01	-4.320167e+02
3.500000e-07	-2.319830e-06	-6.534352e-09	-1.558206e+01	-4.272842e+02
3.600000e-07	-2.285321e-06	-6.450153e-09	-1.535027e+01	-4.224641e+02
3.700000e-07	-2.249639e-06	-6.356817e-09	-1.511060e+01	-4.175371e+02
3.800000e-07	-2.213132e-06	-6.309081e-09	-1.486538e+01	-4.124865e+02
3.900000e-07	-2.176002e-06	-6.205307e-09	-1.461598e+01	-4.073027e+02
4.000000e-07	-2.138165e-06	-6.103580e-09	-1.436184e+01	-4.019850e+02
4.100000e-07	-2.099538e-06	-6.059060e-09	-1.410239e+01	-3.965412e+02
4.200000e-07	-2.060106e-06	-5.971350e-09	-1.383752e+01	-3.909848e+02
4.300000e-07	-2.019968e-06	-5.862849e-09	-1.356792e+01	-3.853302e+02
4.400000e-07	-1.979309e-06	-5.788529e-09	-1.329482e+01	-3.795883e+02
4.500000e-07	-1.938114e-06	-5.705645e-09	-1.301811e+01	-3.737626e+02
4.600000e-07	-1.896166e-06	-5.608984e-09	-1.273635e+01	-3.678489e+02
4.700000e-07	-1.853148e-06	-5.511796e-09	-1.244741e+01	-3.618367e+02
4.800000e-07	-1.809143e-06	-5.413248e-09	-1.215183e+01	-3.557135e+02
4.900000e-07	-1.764577e-06	-5.324462e-09	-1.185248e+01	-3.494701e+02
5.000000e-07	-1.719546e-06	-5.232449e-09	-1.155002e+01	-3.431048e+02
5.100000e-07	-1.673973e-06	-5.126930e-09	-1.124391e+01	-3.366249e+02
5.200000e-07	-1.627817e-06	-5.025031e-09	-1.093388e+01	-3.300448e+02
5.300000e-07	-1.581091e-06	-4.927758e-09	-1.062003e+01	-3.233821e+02
5.400000e-07	-1.533771e-06	-4.824957e-09	-1.030219e+01	-3.166518e+02
5.500000e-07	-1.485858e-06	-4.723775e-09	-9.980357e+00	-3.098612e+02
5.600000e-07	-1.437467e-06	-4.617508e-09	-9.655317e+00	-3.030085e+02
5.700000e-07	-1.388693e-06	-4.500896e-09	-9.327712e+00	-2.960837e+02
5.800000e-07	-1.339461e-06	-4.394298e-09	-8.997021e+00	-2.890737e+02
5.900000e-07	-1.289542e-06	-4.294781e-09	-8.661721e+00	-2.819673e+02
6.000000e-07	-1.238814e-06	-4.182247e-09	-8.320985e+00	-2.747606e+02
6.100000e-07	-1.187339e-06	-4.068704e-09	-7.975235e+00	-2.674581e+02
6.200000e-07	-1.135317e-06	-3.962750e-09	-7.625806e+00	-2.600713e+02
6.300000e-07	-1.082866e-06	-3.850853e-09	-7.273498e+00	-2.526133e+02
6.400000e-07	-1.030115e-06	-3.730902e-09	-6.919178e+00	-2.450934e+02
6.500000e-07	-9.770473e-07	-3.608782e-09	-6.562727e+00	-2.375126e+02
6.600000e-07	-9.235711e-07	-3.488982e-09	-6.203533e+00	-2.298635e+02
6.700000e-07	-8.697203e-07	-3.372979e-09	-5.841823e+00	-2.221330e+02
6.800000e-07	-8.155527e-07	-3.259471e-09	-5.477985e+00	-2.143088e+02
6.900000e-07	-7.611381e-07	-3.141441e-09	-5.112487e+00	-2.063860e+02
7.000000e-07	-7.065104e-07	-3.017480e-09	-4.745559e+00	-1.983711e+02
7.100000e-07	-6.516915e-07	-2.891716e-09	-4.377346e+00	-1.902819e+02
7.200000e-07	-5.966794e-07	-2.764479e-09	-4.007835e+00	-1.821418e+02
7.300000e-07	-5.414616e-07	-2.633930e-09	-3.636943e+00	-1.739723e+02
7.400000e-07	-4.860113e-07	-2.504070e-09	-3.264489e+00	-1.657843e+02
7.500000e-07	-4.303420e-07	-2.379201e-09	-2.890563e+00	-1.575733e+02
7.600000e-07	-3.744740e-07	-2.259180e-09	-2.515304e+00	-1.493196e+02
7.700000e-07	-3.184248e-07	-2.138336e-09	-2.138827e+00	-1.409938e+02
7.800000e-07	-2.622495e-07	-2.010030e-09	-1.761503e+00	-1.325674e+02
7.900000e-07	-2.060346e-07	-1.877339e-09	-1.383913e+00	-1.240217e+02
8.000000e-07	-1.497568e-07	-1.741505e-09	-1.005901e+00	-1.153550e+02
8.100000e-07	-9.341671e-08	-1.602631e-09	-6.274705e-01	-1.065835e+02
8.200000e-07	-3.708076e-08	-1.463450e-09	-2.490677e-01	-9.773514e+01
8.300000e-07	1.926548e-08	-1.328263e-09	1.294043e-01	-8.884069e+01
8.400000e-07	7.564528e-08	-1.196756e-09	5.081016e-01	-7.992279e+01
8.500000e-07	1.320110e-07	-1.063931e-09	8.867042e-01	-7.098872e+01
8.600000e-07	1.883378e-07	-9.275844e-10	1.265046e+00	-6.202852e+01
8.700000e-07	2.446110e-07	-7.895906e-10	1.643027e+00	-5.301934e+01
8.800000e-07	3.007832e-07	-6.515103e-10	2.020330e+00	-4.393404e+01
8.900000e-07	3.568370e-07	-5.095662e-10	2.396838e+00	-3.475068e+01
9.000000e-07	4.127487e-07	-3.635683e-10	2.772391e+00	-2.545952e+01
9.100000e-07	4.684671e-07	-2.176695e-10	3.146646e+00	-1.606483e+01
9.200000e-07	5.240031e-07	-7.314165e-11	3.519675e+00	-6.581300e+00
9.300000e-07	5.793257e-07	7.062554e-11	3.891272e+00	2.973255e+00
9.400000e-07	6.344030e-07	2.146415e-10	4.261220e+00	1.258590e+01
9.500000e-07	6.892705e-07	3.598678e-10	4.629760e+00	2.225400e+01
9.600000e-07	7.439431e-07	5.079892e-10	4.996990e+00	3.198606e+01
9.700000e-07	7.984305e-07	6.594141e-10	5.362976e+00	4.179792e+01
9.800000e-07	8.525996e-07	8.124334e-10	5.726825e+00	5.170600e+01
9.900000e-07	9.063559e-07	9.672894e-10	6.087900e+00	6.172048e+01
1.000000e-06	9.597932e-07	1.124329e-09	6.446834e+00	7.184104e+01
1.010000e-06	1.012886e-06	1.279887e-09	6.803455e+00	8.205693e+01
1.020000e-06	1.065630e-06	1.434698e-09	7.157727e+00	9.235079e+01
1.030000e-06	1.118023e-06	1.591236e-09	7.509645e+00	1.027047e+02
1.040000e-06	1.169969e-06	1.748604e-09	7.858560e+00	1.131057e+02
1.050000e-06	1.221364e-06	1.907154e-09	8.203777e+00	1.235485e+02
1.060000e-06	1.272069e-06	2.068496e-09	8.544355e+00	1.340346e+02
1.070000e-06	1.322008e-06	2.231652e-09	8.879795e+00	1.445684e+02
1.080000e-06	1.371244e-06	2.393583e-09	9.210504e+00	1.551520e+02
1.090000e-06	1.419997e-06	2.555785e-09	9.537976e+00	1.657815e+02
1.100000e-06	1.468449e-06	2.718516e-09	9.863421e+00	1.764460e+02
1.110000e-06	1.516487e-06	2.881120e-09	1.018609e+01	1.871294e+02
1.120000e-06	1.563938e-06	3.042534e-09	1.050481e+01	1.978152e+02
1.130000e-06	1.610831e-06	3.203896e-09	1.081979e+01	2.084900e+02
1.140000e-06	1.657197e-06	3.366341e-09	1.113122e+01	2.191462e+02
1.150000e-06	1.702976e-06	3.528219e-09	1.143871e+01	2.297806e+02
1.160000e-06	1.748200e-06	3.690870e-09	1.174248e+01	2.403907e+02
1.170000e-06	1.792974e-06	3.854911e-09	1.204322e+01	2.509705e+02
1.180000e-06	1.837350e-06	4.018683e-09	1.234130e+01	2.615061e+02
1.190000e-06	1.881119e-06	4.181200e-09	1.263528e+01	2.719758e+02
1.200000e-06	1.923958e-06	4.341018e-09	1.292303e+01	2.823531e+02
1.210000e-06	1.965789e-06	4.496244e-09	1.320401e+01	2.926113e+02
1.220000e-06	2.006771e-06	4.647470e-09	1.347928e+01	3.027300e+02
1.230000e-06	2.047172e-06	4.795889e-09	1.375064e+01	3.126974e+02
1.240000e-06	2.086965e-06	4.944115e-09	1.401793e+01	3.225105e+02
1.250000e-06	2.126055e-06	5.092472e-09	1.428050e+01	3.321701e+02
1.260000e-06	2.164475e-06	5.238688e-09	1.453856e+01	3.416740e+02
1.270000e-06	2.202069e-06	5.382725e-09	1.479107e+01	3.510113e+02
1.280000e-06	2.238938e-06	5.523521e-09	1.503872e+01	3.601587e+02
1.290000e-06	2.275280e-06	5.659246e-09	1.528282e+01	3.690831e+02
1.300000e-06	2.310833e-06	5.789668e-09	1.552163e+01	3.777470e+02
1.310000e-06	2.345336e-06	5.912377e-09	1.575338e+01	3.861173e+02
1.320000e-06	2.378783e-06	6.029645e-09	1.597804e+01	3.941727e+02
1.330000e-06	2.411379e-06	6.145141e-09	1.619699e+01	4.019076e+02
1.340000e-06	2.443243e-06	6.259188e-09	1.641101e+01	4.093306e+02
1.350000e-06	2.474292e-06	6.369660e-09	1.661957e+01	4.164587e+02
1.360000e-06	2.504545e-06	6.474212e-09	1.682277e+01	4.233093e+02
1.370000e-06	2.533968e-06	6.574350e-09	1.702041e+01	4.298933e+02
1.380000e-06	2.562682e-06	6.670672e-09	1.721327e+01	4.362120e+02
1.390000e-06	2.590627e-06	6.761211e-09	1.740098e+01	4.422590e+02
1.400000e-06	2.617415e-06	6.845801e-09	1.758091e+01	4.480264e+02
1.410000e-06	2.642927e-06	6.926055e-09	1.775227e+01	4.535116e+02
1.420000e-06	2.667442e-06	7.002575e-09	1.791693e+01	4.587230e+02
1.430000e-06	2.691101e-06	7.076902e-09	1.807585e+01	4.636805e+02
1.440000e-06	2.713836e-06	7.149998e-09	1.822856e+01	4.684115e+02
1.450000e-06	2.735705e-06	7.220914e-09	1.837545e+01	4.729420e+02
1.460000e-06	2.756745e-06	7.288644e-09	1.851678e+01	4.772881e+02
1.470000e-06	2.776999e-06	7.352360e-09	1.865282e+01	4.814499e+02
1.480000e-06	2.796282e-06	7.410926e-09	1.878234e+01	4.854106e+02
1.490000e-06	2.814470e-06	7.464040e-09	1.890451e+01	4.891419e+02
1.500000e-06	2.831691e-06	7.510358e-09	1.902018e+01	4.926137e+02
1.510000e-06	2.847837e-06	7.552637e-09	1.912863e+01	4.958040e+02
1.520000e-06	2.862844e-06	7.595894e-09	1.922943e+01	4.987067e+02
1.530000e-06	2.876824e-06	7.637961e-09	1.932333e+01	5.013331e+02
1.540000e-06	2.889795e-06	7.675364e-09	1.941046e+01	5.037083e+02
1.550000e-06	2.901573e-06	7.707911e-09	1.948957e+01	5.058625e+02
1.560000e-06	2.911992e-06	7.737261e-09	1.955956e+01	5.078224e+02
1.570000e-06	2.921212e-06	7.763088e-09	1.962149e+01	5.096036e+02
1.580000e-06	2.929492e-06	7.784856e-09	1.967710e+01	5.112095e+02
1.590000e-06	2.936824e-06	7.804514e-09	1.972635e+01	5.126337e+02
1.600000e-06	2.943100e-06	7.822242e-09	1.976851e+01	5.138674e+02
1.610000e-06	2.948412e-06	7.837585e-09	1.980418e+01	5.149054e+02
1.620000e-06	2.952903e-06	7.851333e-09	1.983435e+01	5.157512e+02
1.630000e-06	2.956339e-06	7.862439e-09	1.985743e+01	5.164164e+02
1.640000e-06	2.958422e-06	7.869789e-09	1.987142e+01	5.169168e+02
1.650000e-06	2.959385e-06	7.875315e-09	1.987789e+01	5.172658e+02
1.660000e-06	2.959476e-06	7.880194e-09	1.987850e+01	5.174694e+02
1.670000e-06	2.958686e-06	7.880488e-09	1.987320e+01	5.175234e+02
1.680000e-06	2.956941e-06	7.875135e-09	1.986147e+01	5.174166e+02
1.690000e-06	2.954294e-06	7.867993e-09	1.984369e+01	5.171359e+02
1.700000e-06	2.950872e-06	7.859906e-09	1.982071e+01	5.166739e+02
1.710000e-06	2.946410e-06	7.850359e-09	1.979074e+01	5.160340e+02
1.720000e-06	2.940713e-06	7.840066e-09	1.975247e+01	5.152303e+02
1.730000e-06	2.934033e-06	7.832671e-09	1.970760e+01	5.142838e+02
1.740000e-06	2.926510e-06	7.806406e-09	1.965707e+01	5.132133e+02
1.750000e-06	2.917842e-06	7.756539e-09	1.959885e+01	5.120277e+02
1.760000e-06	2.907453e-06	7.737768e-09	1.952907e+01	5.107190e+02
1.770000e-06	2.895470e-06	7.792308e-09	1.944858e+01	5.092637e+02
1.780000e-06	2.883034e-06	7.786247e-09	1.936505e+01	5.076279e+02
1.790000e-06	2.870462e-06	7.656212e-09	1.928060e+01	5.057790e+02
1.800000e-06	2.856610e-06	7.621104e-09	1.918756e+01	5.036975e+02
1.810000e-06	2.841060e-06	7.700194e-09	1.908311e+01	5.013860e+02
1.820000e-06	2.824792e-06	7.610831e-09	1.897384e+01	4.988719e+02
1.830000e-06	2.807935e-06	7.448248e-09	1.886061e+01	4.962024e+02
1.840000e-06	2.789824e-06	7.488219e-09	1.873896e+01	4.934335e+02
1.850000e-06	2.770759e-06	7.505347e-09	1.861091e+01	4.906156e+02
1.860000e-06	2.750982e-06	7.346040e-09	1.847806e+01	4.877804e+02
1.870000e-06	2.729884e-06	7.342458e-09	1.833635e+01	4.849334e+02
1.880000e-06	2.707409e-06	7.395468e-09	1.818539e+01	4.820520e+02
1.890000e-06	2.684061e-06	7.239494e-09	1.802856e+01	4.790928e+02
1.900000e-06	2.659787e-06	7.196060e-09	1.786552e+01	4.760021e+02
1.910000e-06	2.634615e-06	7.245955e-09	1.769644e+01	4.727296e+02
1.920000e-06	2.608750e-06	7.137819e-09	1.752271e+01	4.692394e+02
1.930000e-06	2.582045e-06	7.062845e-09	1.734334e+01	4.655168e+02
1.940000e-06	2.554557e-06	7.037092e-09	1.715870e+01	4.615696e+02
1.950000e-06	2.526251e-06	6.951179e-09	1.696857e+01	4.574242e+02
1.960000e-06	2.496636e-06	6.910977e-09	1.676965e+01	4.531174e+02
1.970000e-06	2.465838e-06	6.827934e-09	1.656278e+01	4.486880e+02
1.980000e-06	2.434273e-06	6.714378e-09	1.635076e+01	4.441682e+02
1.990000e-06	2.401856e-06	6.712184e-09	1.613302e+01	4.395785e+02
2.000000e-06	2.368684e-06	6.635559e-09	1.591021e+01	4.349252e+02
2.010000e-06	2.334803e-06	6.507440e-09	1.568264e+01	4.302017e+02
2.020000e-06	2.300147e-06	6.485274e-09	1.544986e+01	4.253925e+02
2.030000e-06	2.264882e-06	6.393846e-09	1.521298e+01	4.204784e+02
2.040000e-06	2.228730e-06	6.291392e-09	1.497015e+01	4.154423e+02
2.050000e-06	2.191331e-06	6.274858e-09	1.471894e+01	4.102736e+02
2.060000e-06	2.152945e-06	6.168936e-09	1.446111e+01	4.049706e+02
2.070000e-06	2.113892e-06	6.053287e-09	1.419880e+01	3.995404e+02
2.080000e-06	2.074255e-06	5.999486e-09	1.393256e+01	3.939959e+02
2.090000e-06	2.033962e-06	5.904953e-09	1.366191e+01	3.883518e+02
2.100000e-06	1.992953e-06	5.809885e-09	1.338646e+01	3.826195e+02
2.110000e-06	1.951292e-06	5.725218e-09	1.310663e+01	3.768036e+02
2.120000e-06	1.908969e-06	5.638580e-09	1.282235e+01	3.709004e+02
2.130000e-06	1.866093e-06	5.565270e-09	1.253436e+01	3.648999e+02
2.140000e-06	1.822798e-06	5.461677e-09	1.224355e+01	3.587897e+02
2.150000e-06	1.778898e-06	5.355260e-09	1.194867e+01	3.525601e+02
2.160000e-06	1.734242e-06	5.267156e-09	1.164873e+01	3.462083e+02
2.170000e-06	1.688830e-06	5.171983e-09	1.134370e+01	3.397407e+02
2.180000e-06	1.642864e-06	5.073346e-09	1.103495e+01	3.331711e+02
2.190000e-06	1.596465e-06	4.967515e-09	1.072329e+01	3.265171e+02
2.200000e-06	1.549476e-06	4.860613e-09	1.040767e+01	3.197941e+02
2.210000e-06	1.501909e-06	4.755023e-09	1.008817e+01	3.130105e+02
2.220000e-06	1.453714e-06	4.657337e-09	9.764448e+00	3.061654e+02
2.230000e-06	1.404869e-06	4.562381e-09	9.436363e+00	2.992496e+02
2.240000e-06	1.355554e-06	4.445123e-09	9.105119e+00	2.922499e+02
2.250000e-06	1.305784e-06	4.334505e-09	8.770819e+00	2.851549e+02
2.260000e-06	1.255505e-06	4.237182e-09	8.433100e+00	2.779594e+02
2.270000e-06	1.204729e-06	4.119861e-09	8.092044e+00	2.706674e+02
2.280000e-06	1.153537e-06	3.998057e-09	7.748188e+00	2.632896e+02
2.290000e-06	1.102000e-06	3.883210e-09	7.402023e+00	2.558392e+02
2.300000e-06	1.049958e-06	3.775804e-09	7.052463e+00	2.483263e+02
2.310000e-06	9.972425e-07	3.670813e-09	6.698376e+00	2.407530e+02
2.320000e-06	9.438339e-07	3.553283e-09	6.339637e+00	2.331124e+02
2.330000e-06	8.898763e-07	3.431986e-09	5.977209e+00	2.253918e+02
2.340000e-06	8.355360e-07	3.310320e-09	5.612210e+00	2.175787e+02
2.350000e-06	7.808525e-07	3.186942e-09	5.244907e+00	2.096670e+02
2.360000e-06	7.259359e-07	3.064950e-09	4.876038e+00	2.016619e+02
2.370000e-06	6.708873e-07	2.942207e-09	4.506282e+00	1.935802e+02
2.380000e-06	6.157311e-07	2.823296e-09	4.135803e+00	1.854450e+02
2.390000e-06	5.604554e-07	2.705721e-09	3.764522e+00	1.772785e+02
2.400000e-06	5.050596e-07	2.583886e-09	3.392434e+00	1.690931e+02
2.410000e-06	4.494888e-07	2.457019e-09	3.019170e+00	1.608859e+02
2.420000e-06	3.937390e-07	2.325637e-09	2.644705e+00	1.526386e+02
2.430000e-06	3.379205e-07	2.197621e-09	2.269778e+00	1.443227e+02
2.440000e-06	2.819828e-07	2.072416e-09	1.894050e+00	1.359088e+02
2.450000e-06	2.258436e-07	1.944446e-09	1.516968e+00	1.273769e+02
2.460000e-06	1.695899e-07	1.814637e-09	1.139118e+00	1.187233e+02
2.470000e-06	1.133275e-07	1.682963e-09	7.612093e-01	1.099624e+02
2.480000e-06	5.710077e-08	1.550493e-09	3.835401e-01	1.011214e+02
2.490000e-06	8.358796e-10	1.416137e-09	5.614518e-03	9.223125e+01
2.500000e-06	-5.548918e-08	1.277683e-09	-3.727152e-01	8.331583e+01
2.510000e-06	-1.117625e-07	1.140454e-09	-7.506976e-01	7.438429e+01
2.520000e-06	-1.679839e-07	1.005070e-09	-1.128331e+00	6.542843e+01
2.530000e-06	-2.240854e-07	8.670802e-10	-1.505159e+00	5.642643e+01
2.540000e-06	-2.801007e-07	7.278523e-10	-1.881408e+00	4.735111e+01
2.550000e-06	-3.359929e-07	5.896566e-10	-2.256830e+00	3.817959e+01
2.560000e-06	-3.916363e-07	4.505158e-10	-2.630581e+00	2.890063e+01
2.570000e-06	-4.471230e-07	3.087096e-10	-3.003280e+00	1.951707e+01
2.580000e-06	-5.025134e-07	1.645948e-10	-3.375331e+00	1.004282e+01
2.590000e-06	-5.578146e-07	1.962493e-11	-3.746784e+00	4.957264e-01
2.600000e-06	-6.130187e-07	-1.267996e-10	-4.117584e+00	-9.110413e+00
2.610000e-06	-6.681163e-07	-2.750290e-10	-4.487669e+00	-1.877172e+01
2.620000e-06	-7.230817e-07	-4.237645e-10	-4.856866e+00	-2.849563e+01
2.630000e-06	-7.778881e-07	-5.738009e-10	-5.224995e+00	-3.829748e+01
2.640000e-06	-8.324741e-07	-7.238226e-10	-5.591644e+00	-4.819400e+01
2.650000e-06	-8.867503e-07	-8.733523e-10	-5.956212e+00	-5.819627e+01
2.660000e-06	-9.405084e-07	-1.026421e-09	-6.317299e+00	-6.830520e+01
2.670000e-06	-9.936387e-07	-1.183446e-09	-6.674170e+00	-7.851102e+01
2.680000e-06	-1.046171e-06	-1.340942e-09	-7.027023e+00	-8.879681e+01
2.690000e-06	-1.098138e-06	-1.498322e-09	-7.376078e+00	-9.914443e+01
2.700000e-06	-1.149588e-06	-1.657425e-09	-7.721664e+00	-1.095402e+02
2.710000e-06	-1.200640e-06	-1.817543e-09	-8.064574e+00	-1.199779e+02
2.720000e-06	-1.251331e-06	-1.978073e-09	-8.405061e+00	-1.304585e+02
2.730000e-06	-1.301546e-06	-2.138570e-09	-8.742349e+00	-1.409864e+02
2.740000e-06	-1.351229e-06	-2.298477e-09	-9.076069e+00	-1.515641e+02
2.750000e-06	-1.400449e-06	-2.458995e-09	-9.406673e+00	-1.621885e+02
2.760000e-06	-1.449135e-06	-2.621082e-09	-9.733694e+00	-1.728493e+02
2.770000e-06	-1.497032e-06	-2.785540e-09	-1.005541e+01	-1.835309e+02
2.780000e-06	-1.544099e-06	-2.950853e-09	-1.037155e+01	-1.942165e+02
2.790000e-06	-1.590406e-06	-3.113662e-09	-1.068260e+01	-2.048924e+02
2.800000e-06	-1.636142e-06	-3.275927e-09	-1.098980e+01	-2.155502e+02
2.810000e-06	-1.681496e-06	-3.438616e-09	-1.129444e+01	-2.261863e+02
2.820000e-06	-1.726418e-06	-3.600648e-09	-1.159618e+01	-2.367987e+02
2.830000e-06	-1.770727e-06	-3.759997e-09	-1.189380e+01	-2.473816e+02
2.840000e-06	-1.814367e-06	-3.915308e-09	-1.218692e+01	-2.579222e+02
2.850000e-06	-1.857536e-06	-4.072413e-09	-1.247688e+01	-2.683996e+02
2.860000e-06	-1.900322e-06	-4.234018e-09	-1.276427e+01	-2.787875e+02
2.870000e-06	-1.942520e-06	-4.393974e-09	-1.304771e+01	-2.890590e+02
2.880000e-06	-1.984085e-06	-4.549206e-09	-1.332690e+01	-2.991927e+02
2.890000e-06	-2.025048e-06	-4.700598e-09	-1.360204e+01	-3.091760e+02
2.900000e-06	-2.065254e-06	-4.848909e-09	-1.387210e+01	-3.190050e+02
2.910000e-06	-2.104772e-06	-4.996606e-09	-1.413754e+01	-3.286804e+02
2.920000e-06	-2.143750e-06	-5.141850e-09	-1.439935e+01	-3.382007e+02
2.930000e-06	-2.181933e-06	-5.285130e-09	-1.465582e+01	-3.475561e+02
2.940000e-06	-2.218942e-06	-5.425967e-09	-1.490441e+01	-3.567247e+02
