# Temperatura_=_17.82
# Concentracion g/m^3_=_18700.0
# C_Vs_to_Am_M_A/Vsm_=_65563218390.804596
# pendiente_HvsI_1/m_=_3716.3
# ordenada_HvsI_A/m_=_1297.0
# frecuencia_Hz_=_301073.60161725077

Tiempo_(s)	Campo_(V.s)	Magnetizacion_(V.s)	Campo_(kA/m)	Magnetizacion_(A/m)
0.000000e+00	-2.947058e-06	-7.563272e-09	-1.977473e+01	-4.927906e+02
1.000000e-08	-2.946087e-06	-7.565030e-09	-1.976822e+01	-4.927245e+02
2.000000e-08	-2.943974e-06	-7.563347e-09	-1.975404e+01	-4.925126e+02
3.000000e-08	-2.940621e-06	-7.560445e-09	-1.973153e+01	-4.921527e+02
4.000000e-08	-2.936320e-06	-7.555046e-09	-1.970268e+01	-4.916361e+02
5.000000e-08	-2.931203e-06	-7.543717e-09	-1.966834e+01	-4.909526e+02
6.000000e-08	-2.925169e-06	-7.525740e-09	-1.962785e+01	-4.900965e+02
7.000000e-08	-2.918114e-06	-7.506183e-09	-1.958051e+01	-4.890713e+02
8.000000e-08	-2.909983e-06	-7.516323e-09	-1.952596e+01	-4.878901e+02
9.000000e-08	-2.900539e-06	-7.528653e-09	-1.946259e+01	-4.865722e+02
1.000000e-07	-2.889569e-06	-7.481746e-09	-1.938898e+01	-4.851347e+02
1.100000e-07	-2.877462e-06	-7.364123e-09	-1.930774e+01	-4.835849e+02
1.200000e-07	-2.864628e-06	-7.342516e-09	-1.922162e+01	-4.819151e+02
1.300000e-07	-2.850864e-06	-7.429504e-09	-1.912927e+01	-4.801032e+02
1.400000e-07	-2.835790e-06	-7.364012e-09	-1.902812e+01	-4.781194e+02
1.500000e-07	-2.819527e-06	-7.252568e-09	-1.891900e+01	-4.759383e+02
1.600000e-07	-2.802163e-06	-7.281521e-09	-1.880248e+01	-4.735499e+02
1.700000e-07	-2.783672e-06	-7.264047e-09	-1.867841e+01	-4.709675e+02
1.800000e-07	-2.764354e-06	-7.108844e-09	-1.854879e+01	-4.682275e+02
1.900000e-07	-2.744304e-06	-7.093074e-09	-1.841425e+01	-4.653805e+02
2.000000e-07	-2.723375e-06	-7.115945e-09	-1.827382e+01	-4.624755e+02
2.100000e-07	-2.701542e-06	-6.967526e-09	-1.812732e+01	-4.595438e+02
2.200000e-07	-2.678875e-06	-6.945605e-09	-1.797522e+01	-4.565864e+02
2.300000e-07	-2.655346e-06	-7.006521e-09	-1.781734e+01	-4.535704e+02
2.400000e-07	-2.631014e-06	-6.875513e-09	-1.765408e+01	-4.504376e+02
2.500000e-07	-2.605837e-06	-6.768046e-09	-1.748514e+01	-4.471203e+02
2.600000e-07	-2.579391e-06	-6.768685e-09	-1.730769e+01	-4.435625e+02
2.700000e-07	-2.551690e-06	-6.704856e-09	-1.712181e+01	-4.397367e+02
2.800000e-07	-2.523191e-06	-6.642930e-09	-1.693058e+01	-4.356531e+02
2.900000e-07	-2.493912e-06	-6.580307e-09	-1.673412e+01	-4.313557e+02
3.000000e-07	-2.463766e-06	-6.499476e-09	-1.653184e+01	-4.269089e+02
3.100000e-07	-2.432796e-06	-6.455922e-09	-1.632404e+01	-4.223771e+02
3.200000e-07	-2.401038e-06	-6.386170e-09	-1.611094e+01	-4.178062e+02
3.300000e-07	-2.368599e-06	-6.271357e-09	-1.589327e+01	-4.132107e+02
3.400000e-07	-2.335441e-06	-6.218892e-09	-1.567078e+01	-4.085733e+02
3.500000e-07	-2.301241e-06	-6.170114e-09	-1.544131e+01	-4.038544e+02
3.600000e-07	-2.265869e-06	-6.082606e-09	-1.520396e+01	-3.990090e+02
3.700000e-07	-2.229648e-06	-6.021718e-09	-1.496091e+01	-3.940036e+02
3.800000e-07	-2.192815e-06	-5.919088e-09	-1.471376e+01	-3.888289e+02
3.900000e-07	-2.155290e-06	-5.812401e-09	-1.446198e+01	-3.835015e+02
4.000000e-07	-2.116948e-06	-5.757433e-09	-1.420470e+01	-3.780573e+02
4.100000e-07	-2.077782e-06	-5.688310e-09	-1.394190e+01	-3.725368e+02
4.200000e-07	-2.037920e-06	-5.582176e-09	-1.367442e+01	-3.669700e+02
4.300000e-07	-1.997502e-06	-5.498967e-09	-1.340322e+01	-3.613655e+02
4.400000e-07	-1.956558e-06	-5.423964e-09	-1.312848e+01	-3.557083e+02
4.500000e-07	-1.914804e-06	-5.330955e-09	-1.284831e+01	-3.499659e+02
4.600000e-07	-1.871979e-06	-5.231565e-09	-1.256096e+01	-3.441012e+02
4.700000e-07	-1.828293e-06	-5.132575e-09	-1.226782e+01	-3.380866e+02
4.800000e-07	-1.784029e-06	-5.047357e-09	-1.197081e+01	-3.319141e+02
4.900000e-07	-1.739301e-06	-4.963271e-09	-1.167069e+01	-3.255978e+02
5.000000e-07	-1.693993e-06	-4.868870e-09	-1.136667e+01	-3.191689e+02
5.100000e-07	-1.647990e-06	-4.755227e-09	-1.105800e+01	-3.126640e+02
5.200000e-07	-1.601417e-06	-4.652106e-09	-1.074549e+01	-3.061132e+02
5.300000e-07	-1.554251e-06	-4.557946e-09	-1.042901e+01	-2.995300e+02
5.400000e-07	-1.506522e-06	-4.460731e-09	-1.010874e+01	-2.929092e+02
5.500000e-07	-1.458379e-06	-4.353836e-09	-9.785709e+00	-2.862304e+02
5.600000e-07	-1.409809e-06	-4.241412e-09	-9.459806e+00	-2.794680e+02
5.700000e-07	-1.360729e-06	-4.139857e-09	-9.130480e+00	-2.726010e+02
5.800000e-07	-1.310979e-06	-4.038395e-09	-8.796657e+00	-2.656212e+02
5.900000e-07	-1.260416e-06	-3.925933e-09	-8.457381e+00	-2.585354e+02
6.000000e-07	-1.209117e-06	-3.808478e-09	-8.113164e+00	-2.513613e+02
6.100000e-07	-1.157243e-06	-3.706353e-09	-7.765091e+00	-2.441202e+02
6.200000e-07	-1.104951e-06	-3.603694e-09	-7.414213e+00	-2.368283e+02
6.300000e-07	-1.052360e-06	-3.487827e-09	-7.061325e+00	-2.294909e+02
6.400000e-07	-9.993731e-07	-3.363594e-09	-6.705783e+00	-2.221012e+02
6.500000e-07	-9.459014e-07	-3.245541e-09	-6.346988e+00	-2.146446e+02
6.600000e-07	-8.920551e-07	-3.137186e-09	-5.985681e+00	-2.071059e+02
6.700000e-07	-8.379528e-07	-3.027489e-09	-5.622655e+00	-1.994766e+02
6.800000e-07	-7.836215e-07	-2.912199e-09	-5.258092e+00	-1.917593e+02
6.900000e-07	-7.291009e-07	-2.791356e-09	-4.892260e+00	-1.839680e+02
7.000000e-07	-6.743777e-07	-2.674441e-09	-4.525068e+00	-1.761233e+02
7.100000e-07	-6.193970e-07	-2.553828e-09	-4.156147e+00	-1.682449e+02
7.200000e-07	-5.641595e-07	-2.424809e-09	-3.785504e+00	-1.603448e+02
7.300000e-07	-5.086565e-07	-2.294046e-09	-3.413080e+00	-1.524225e+02
7.400000e-07	-4.528902e-07	-2.172513e-09	-3.038889e+00	-1.444656e+02
7.500000e-07	-3.969257e-07	-2.059082e-09	-2.663367e+00	-1.364537e+02
7.600000e-07	-3.408226e-07	-1.942235e-09	-2.286916e+00	-1.283660e+02
7.700000e-07	-2.846115e-07	-1.816266e-09	-1.909741e+00	-1.201880e+02
7.800000e-07	-2.283672e-07	-1.684912e-09	-1.532341e+00	-1.119164e+02
7.900000e-07	-1.721077e-07	-1.555892e-09	-1.154841e+00	-1.035595e+02
8.000000e-07	-1.158162e-07	-1.424067e-09	-7.771258e-01	-9.513383e+01
8.100000e-07	-5.952362e-08	-1.289799e-09	-3.994028e-01	-8.665861e+01
8.200000e-07	-3.245826e-09	-1.157875e-09	-2.177946e-02	-7.814925e+01
8.300000e-07	5.302243e-08	-1.033012e-09	3.557800e-01	-6.961301e+01
8.400000e-07	1.092852e-07	-9.097113e-10	7.333023e-01	-6.104774e+01
8.500000e-07	1.655131e-07	-7.801366e-10	1.110591e+00	-5.244384e+01
8.600000e-07	2.217144e-07	-6.454433e-10	1.487702e+00	-4.378842e+01
8.700000e-07	2.778896e-07	-5.093823e-10	1.864636e+00	-3.507005e+01
8.800000e-07	3.339774e-07	-3.742695e-10	2.240985e+00	-2.628222e+01
8.900000e-07	3.899292e-07	-2.346718e-10	2.616421e+00	-1.742447e+01
9.000000e-07	4.457525e-07	-9.405370e-11	2.990995e+00	-8.501219e+00
9.100000e-07	5.014258e-07	4.178371e-11	3.364562e+00	4.812296e-01
9.200000e-07	5.568880e-07	1.725772e-10	3.736713e+00	9.518010e+00
9.300000e-07	6.121253e-07	3.059531e-10	4.107355e+00	1.860812e+01
9.400000e-07	6.671210e-07	4.466745e-10	4.476375e+00	2.775511e+01
9.500000e-07	7.218795e-07	5.913711e-10	4.843804e+00	3.696595e+01
9.600000e-07	7.764182e-07	7.353507e-10	5.209758e+00	4.624856e+01
9.700000e-07	8.307255e-07	8.774801e-10	5.574160e+00	5.560898e+01
9.800000e-07	8.847616e-07	1.022467e-09	5.936741e+00	6.504928e+01
9.900000e-07	9.384781e-07	1.169548e-09	6.297179e+00	7.456656e+01
1.000000e-06	9.918519e-07	1.315175e-09	6.655316e+00	8.415360e+01
1.010000e-06	1.044832e-06	1.457531e-09	7.010812e+00	9.380041e+01
1.020000e-06	1.097450e-06	1.602944e-09	7.363881e+00	1.034963e+02
1.030000e-06	1.149690e-06	1.754537e-09	7.714411e+00	1.132317e+02
1.040000e-06	1.201447e-06	1.907101e-09	8.061695e+00	1.229992e+02
1.050000e-06	1.252643e-06	2.055994e-09	8.405223e+00	1.327937e+02
1.060000e-06	1.303086e-06	2.202737e-09	8.743693e+00	1.426115e+02
1.070000e-06	1.352726e-06	2.352051e-09	9.076777e+00	1.524496e+02
1.080000e-06	1.401739e-06	2.503726e-09	9.405654e+00	1.623044e+02
1.090000e-06	1.450309e-06	2.653877e-09	9.731561e+00	1.721712e+02
1.100000e-06	1.498500e-06	2.800858e-09	1.005492e+01	1.820438e+02
1.110000e-06	1.546227e-06	2.949570e-09	1.037517e+01	1.919149e+02
1.120000e-06	1.593405e-06	3.102208e-09	1.069173e+01	2.017766e+02
1.130000e-06	1.640003e-06	3.253687e-09	1.100440e+01	2.116207e+02
1.140000e-06	1.686037e-06	3.401505e-09	1.131329e+01	2.214389e+02
1.150000e-06	1.731492e-06	3.549567e-09	1.161829e+01	2.312229e+02
1.160000e-06	1.776399e-06	3.700880e-09	1.191962e+01	2.409635e+02
1.170000e-06	1.820876e-06	3.852218e-09	1.221806e+01	2.506501e+02
1.180000e-06	1.864878e-06	3.999787e-09	1.251331e+01	2.602706e+02
1.190000e-06	1.908185e-06	4.143764e-09	1.280390e+01	2.698110e+02
1.200000e-06	1.950556e-06	4.287321e-09	1.308821e+01	2.792564e+02
1.210000e-06	1.991937e-06	4.429861e-09	1.336588e+01	2.885917e+02
1.220000e-06	2.032587e-06	4.568650e-09	1.363864e+01	2.978029e+02
1.230000e-06	2.072652e-06	4.703034e-09	1.390748e+01	3.068781e+02
1.240000e-06	2.112037e-06	4.836455e-09	1.417175e+01	3.158075e+02
1.250000e-06	2.150712e-06	4.972023e-09	1.443126e+01	3.245826e+02
1.260000e-06	2.188648e-06	5.105725e-09	1.468581e+01	3.331951e+02
1.270000e-06	2.225823e-06	5.233993e-09	1.493525e+01	3.416348e+02
1.280000e-06	2.262382e-06	5.356903e-09	1.518056e+01	3.498880e+02
1.290000e-06	2.298345e-06	5.477878e-09	1.542187e+01	3.579373e+02
1.300000e-06	2.333367e-06	5.595939e-09	1.565687e+01	3.657630e+02
1.310000e-06	2.367248e-06	5.708199e-09	1.588421e+01	3.733451e+02
1.320000e-06	2.400171e-06	5.815772e-09	1.610513e+01	3.806672e+02
1.330000e-06	2.432324e-06	5.921959e-09	1.632087e+01	3.877198e+02
1.340000e-06	2.463722e-06	6.026493e-09	1.653155e+01	3.945018e+02
1.350000e-06	2.494315e-06	6.124901e-09	1.673683e+01	4.010212e+02
1.360000e-06	2.524050e-06	6.216901e-09	1.693635e+01	4.072922e+02
1.370000e-06	2.553025e-06	6.306309e-09	1.713077e+01	4.133313e+02
1.380000e-06	2.581319e-06	6.395221e-09	1.732062e+01	4.191527e+02
1.390000e-06	2.608699e-06	6.480758e-09	1.750434e+01	4.247654e+02
1.400000e-06	2.634831e-06	6.560899e-09	1.767969e+01	4.301709e+02
1.410000e-06	2.659785e-06	6.636881e-09	1.784713e+01	4.353651e+02
1.420000e-06	2.683824e-06	6.709851e-09	1.800843e+01	4.403414e+02
1.430000e-06	2.706971e-06	6.779825e-09	1.816375e+01	4.450940e+02
1.440000e-06	2.729168e-06	6.847086e-09	1.831269e+01	4.496213e+02
1.450000e-06	2.750475e-06	6.912769e-09	1.845566e+01	4.539264e+02
1.460000e-06	2.771025e-06	6.976508e-09	1.859355e+01	4.580159e+02
1.470000e-06	2.790740e-06	7.036949e-09	1.872583e+01	4.618959e+02
1.480000e-06	2.809447e-06	7.092054e-09	1.885136e+01	4.655683e+02
1.490000e-06	2.827154e-06	7.140698e-09	1.897018e+01	4.690285e+02
1.500000e-06	2.843873e-06	7.184141e-09	1.908236e+01	4.722654e+02
1.510000e-06	2.859430e-06	7.225641e-09	1.918675e+01	4.752646e+02
1.520000e-06	2.873805e-06	7.265375e-09	1.928320e+01	4.780140e+02
1.530000e-06	2.887182e-06	7.301964e-09	1.937296e+01	4.805085e+02
1.540000e-06	2.899557e-06	7.335077e-09	1.945600e+01	4.827539e+02
1.550000e-06	2.910631e-06	7.364539e-09	1.953031e+01	4.847672e+02
1.560000e-06	2.920356e-06	7.390712e-09	1.959556e+01	4.865722e+02
1.570000e-06	2.929048e-06	7.414203e-09	1.965388e+01	4.881941e+02
1.580000e-06	2.936775e-06	7.435845e-09	1.970573e+01	4.896526e+02
1.590000e-06	2.943496e-06	7.454871e-09	1.975083e+01	4.909574e+02
1.600000e-06	2.949220e-06	7.470117e-09	1.978924e+01	4.921072e+02
1.610000e-06	2.954041e-06	7.482298e-09	1.982158e+01	4.930925e+02
1.620000e-06	2.957954e-06	7.492022e-09	1.984784e+01	4.939015e+02
1.630000e-06	2.960653e-06	7.500146e-09	1.986595e+01	4.945261e+02
1.640000e-06	2.962083e-06	7.508474e-09	1.987555e+01	4.949657e+02
1.650000e-06	2.962523e-06	7.517124e-09	1.987850e+01	4.952279e+02
1.660000e-06	2.962046e-06	7.522044e-09	1.987529e+01	4.953252e+02
1.670000e-06	2.960631e-06	7.519445e-09	1.986580e+01	4.952698e+02
1.680000e-06	2.958298e-06	7.512790e-09	1.985015e+01	4.950684e+02
1.690000e-06	2.955150e-06	7.503330e-09	1.982903e+01	4.947194e+02
1.700000e-06	2.951236e-06	7.492439e-09	1.980277e+01	4.942144e+02
1.710000e-06	2.946214e-06	7.483854e-09	1.976906e+01	4.935433e+02
1.720000e-06	2.939932e-06	7.483044e-09	1.972691e+01	4.926996e+02
1.730000e-06	2.932697e-06	7.469979e-09	1.967837e+01	4.916862e+02
1.740000e-06	2.924487e-06	7.409491e-09	1.962328e+01	4.905156e+02
1.750000e-06	2.914828e-06	7.359012e-09	1.955847e+01	4.892069e+02
1.760000e-06	2.903589e-06	7.413664e-09	1.948305e+01	4.877776e+02
1.770000e-06	2.891428e-06	7.444802e-09	1.940145e+01	4.862360e+02
1.780000e-06	2.879044e-06	7.353569e-09	1.931836e+01	4.845755e+02
1.790000e-06	2.865816e-06	7.260267e-09	1.922959e+01	4.827748e+02
1.800000e-06	2.850847e-06	7.336713e-09	1.912915e+01	4.808044e+02
1.810000e-06	2.834739e-06	7.316935e-09	1.902107e+01	4.786380e+02
1.820000e-06	2.818093e-06	7.148790e-09	1.890938e+01	4.762643e+02
1.830000e-06	2.800377e-06	7.193789e-09	1.879050e+01	4.736949e+02
1.840000e-06	2.781521e-06	7.229898e-09	1.866398e+01	4.709647e+02
1.850000e-06	2.762007e-06	7.065854e-09	1.853304e+01	4.681237e+02
1.860000e-06	2.741446e-06	7.052365e-09	1.839508e+01	4.652216e+02
1.870000e-06	2.719401e-06	7.119473e-09	1.824715e+01	4.622915e+02
1.880000e-06	2.696323e-06	6.956938e-09	1.809230e+01	4.593367e+02
1.890000e-06	2.672371e-06	6.871682e-09	1.793158e+01	4.563267e+02
1.900000e-06	2.647474e-06	6.955456e-09	1.776452e+01	4.532045e+02
1.910000e-06	2.621891e-06	6.890126e-09	1.759286e+01	4.499027e+02
1.920000e-06	2.595552e-06	6.782088e-09	1.741613e+01	4.463634e+02
1.930000e-06	2.568379e-06	6.763079e-09	1.723380e+01	4.425571e+02
1.940000e-06	2.540421e-06	6.670813e-09	1.704620e+01	4.384908e+02
1.950000e-06	2.511209e-06	6.619853e-09	1.685019e+01	4.342068e+02
1.960000e-06	2.480645e-06	6.561080e-09	1.664510e+01	4.297684e+02
1.970000e-06	2.449240e-06	6.434541e-09	1.643438e+01	4.252410e+02
1.980000e-06	2.417056e-06	6.426199e-09	1.621842e+01	4.206721e+02
1.990000e-06	2.384072e-06	6.379463e-09	1.599710e+01	4.160786e+02
2.000000e-06	2.350390e-06	6.246970e-09	1.577110e+01	4.114455e+02
2.010000e-06	2.315920e-06	6.204720e-09	1.553980e+01	4.067341e+02
2.020000e-06	2.280777e-06	6.122334e-09	1.530399e+01	4.018991e+02
2.030000e-06	2.244958e-06	6.016828e-09	1.506364e+01	3.969059e+02
2.040000e-06	2.208057e-06	6.000558e-09	1.481604e+01	3.917431e+02
2.050000e-06	2.170028e-06	5.907791e-09	1.456086e+01	3.864257e+02
2.060000e-06	2.131187e-06	5.788237e-09	1.430024e+01	3.809886e+02
2.070000e-06	2.091713e-06	5.727685e-09	1.403537e+01	3.754724e+02
2.080000e-06	2.051644e-06	5.641721e-09	1.376651e+01	3.699084e+02
2.090000e-06	2.010919e-06	5.555084e-09	1.349324e+01	3.643069e+02
2.100000e-06	1.969510e-06	5.466727e-09	1.321539e+01	3.586545e+02
2.110000e-06	1.927453e-06	5.377344e-09	1.293319e+01	3.529195e+02
2.120000e-06	1.884742e-06	5.304791e-09	1.264660e+01	3.470648e+02
2.130000e-06	1.841499e-06	5.207993e-09	1.235644e+01	3.410615e+02
2.140000e-06	1.797786e-06	5.100454e-09	1.206313e+01	3.349001e+02
2.150000e-06	1.753446e-06	5.001524e-09	1.176561e+01	3.285933e+02
2.160000e-06	1.708359e-06	4.911554e-09	1.146307e+01	3.221713e+02
2.170000e-06	1.662610e-06	4.829561e-09	1.115610e+01	3.156709e+02
2.180000e-06	1.616405e-06	4.722822e-09	1.084606e+01	3.091227e+02
2.190000e-06	1.569701e-06	4.608408e-09	1.053268e+01	3.025419e+02
2.200000e-06	1.522435e-06	4.506815e-09	1.021552e+01	2.959244e+02
2.210000e-06	1.474475e-06	4.409778e-09	9.893715e+00	2.892507e+02
2.220000e-06	1.425776e-06	4.321185e-09	9.566944e+00	2.824952e+02
2.230000e-06	1.376583e-06	4.209645e-09	9.236855e+00	2.756362e+02
2.240000e-06	1.326978e-06	4.100785e-09	8.904006e+00	2.686645e+02
2.250000e-06	1.276879e-06	4.007750e-09	8.567847e+00	2.615858e+02
2.260000e-06	1.226258e-06	3.893324e-09	8.228177e+00	2.544174e+02
2.270000e-06	1.175166e-06	3.770519e-09	7.885355e+00	2.471806e+02
2.280000e-06	1.123686e-06	3.652690e-09	7.539920e+00	2.398921e+02
2.290000e-06	1.071783e-06	3.548490e-09	7.191652e+00	2.325581e+02
2.300000e-06	1.019330e-06	3.450042e-09	6.839694e+00	2.251727e+02
2.310000e-06	9.662186e-07	3.338691e-09	6.483317e+00	2.177215e+02
2.320000e-06	9.124045e-07	3.218827e-09	6.122224e+00	2.101892e+02
2.330000e-06	8.581359e-07	3.097000e-09	5.758083e+00	2.025665e+02
2.340000e-06	8.035135e-07	2.976330e-09	5.391567e+00	1.948552e+02
2.350000e-06	7.485578e-07	2.856456e-09	5.022815e+00	1.870686e+02
2.360000e-06	6.934223e-07	2.733109e-09	4.652856e+00	1.792271e+02
2.370000e-06	6.381669e-07	2.617002e-09	4.282093e+00	1.713507e+02
2.380000e-06	5.828506e-07	2.507093e-09	3.910922e+00	1.634521e+02
2.390000e-06	5.274491e-07	2.391938e-09	3.539178e+00	1.555318e+02
2.400000e-06	4.718823e-07	2.269330e-09	3.166325e+00	1.475780e+02
2.410000e-06	4.161118e-07	2.139532e-09	2.792106e+00	1.395709e+02
2.420000e-06	3.601916e-07	2.014157e-09	2.416882e+00	1.314893e+02
2.430000e-06	3.041718e-07	1.892035e-09	2.040990e+00	1.233181e+02
2.440000e-06	2.480463e-07	1.769031e-09	1.664388e+00	1.150532e+02
2.450000e-06	1.918019e-07	1.645662e-09	1.286988e+00	1.067019e+02
2.460000e-06	1.355020e-07	1.519318e-09	9.092173e-01	9.828064e+01
2.470000e-06	7.924819e-08	1.391569e-09	5.317545e-01	8.980847e+01
2.480000e-06	2.301089e-08	1.260545e-09	1.544028e-01	8.130129e+01
2.490000e-06	-3.327443e-08	1.128089e-09	-2.232711e-01	7.276703e+01
2.500000e-06	-8.960987e-08	9.971054e-10	-6.012813e-01	6.420418e+01
2.510000e-06	-1.459494e-07	8.671508e-10	-9.793189e-01	5.560354e+01
2.520000e-06	-2.021495e-07	7.364296e-10	-1.356421e+00	4.695231e+01
2.530000e-06	-2.582239e-07	6.033321e-10	-1.732679e+00	3.823883e+01
2.540000e-06	-3.141901e-07	4.696626e-10	-2.108212e+00	2.945613e+01
2.550000e-06	-3.699718e-07	3.373682e-10	-2.482507e+00	2.060336e+01
2.560000e-06	-4.256120e-07	2.027419e-10	-2.855852e+00	1.168468e+01
2.570000e-06	-4.811491e-07	6.533345e-11	-3.228506e+00	2.706359e+00
2.580000e-06	-5.366149e-07	-7.128232e-11	-3.600680e+00	-6.326534e+00
2.590000e-06	-5.919965e-07	-2.082620e-10	-3.972290e+00	-1.541267e+01
2.600000e-06	-6.472503e-07	-3.483657e-10	-4.343043e+00	-2.455530e+01
2.610000e-06	-7.023905e-07	-4.917953e-10	-4.713033e+00	-3.376122e+01
2.620000e-06	-7.574168e-07	-6.342009e-10	-5.082259e+00	-4.303837e+01
2.630000e-06	-8.121446e-07	-7.746399e-10	-5.449482e+00	-5.239302e+01
2.640000e-06	-8.664554e-07	-9.157354e-10	-5.813907e+00	-6.182756e+01
2.650000e-06	-9.203458e-07	-1.060401e-09	-6.175511e+00	-7.133944e+01
2.660000e-06	-9.737297e-07	-1.208282e-09	-6.533717e+00	-8.092172e+01
2.670000e-06	-1.026504e-06	-1.355947e-09	-6.887833e+00	-9.056452e+01
2.680000e-06	-1.078706e-06	-1.503489e-09	-7.238108e+00	-1.002571e+02
2.690000e-06	-1.130427e-06	-1.652990e-09	-7.585155e+00	-1.099899e+02
2.700000e-06	-1.181742e-06	-1.803665e-09	-7.929476e+00	-1.197552e+02
2.710000e-06	-1.232668e-06	-1.953029e-09	-8.271190e+00	-1.295478e+02
2.720000e-06	-1.283131e-06	-2.102408e-09	-8.609794e+00	-1.393639e+02
2.730000e-06	-1.333069e-06	-2.253303e-09	-8.944882e+00	-1.492006e+02
2.740000e-06	-1.382457e-06	-2.405268e-09	-9.276275e+00	-1.590543e+02
2.750000e-06	-1.431282e-06	-2.556086e-09	-9.603886e+00	-1.689204e+02
2.760000e-06	-1.479408e-06	-2.705103e-09	-9.926814e+00	-1.787927e+02
2.770000e-06	-1.526735e-06	-2.856288e-09	-1.024438e+01	-1.886641e+02
2.780000e-06	-1.573262e-06	-3.009688e-09	-1.055657e+01	-1.985266e+02
2.790000e-06	-1.619186e-06	-3.162350e-09	-1.086472e+01	-2.083721e+02
2.800000e-06	-1.664756e-06	-3.311487e-09	-1.117050e+01	-2.181924e+02
2.810000e-06	-1.709921e-06	-3.458989e-09	-1.147355e+01	-2.279790e+02
2.820000e-06	-1.754515e-06	-3.607303e-09	-1.177278e+01	-2.377229e+02
2.830000e-06	-1.798484e-06	-3.753962e-09	-1.206781e+01	-2.474137e+02
2.840000e-06	-1.841935e-06	-3.898895e-09	-1.235937e+01	-2.570392e+02
2.850000e-06	-1.884978e-06	-4.044328e-09	-1.264818e+01	-2.665858e+02
2.860000e-06	-1.927513e-06	-4.191176e-09	-1.293359e+01	-2.760383e+02
2.870000e-06	-1.969352e-06	-4.336836e-09	-1.321433e+01	-2.853819e+02
2.880000e-06	-2.010491e-06	-4.478788e-09	-1.349037e+01	-2.946023e+02
2.890000e-06	-2.050963e-06	-4.616778e-09	-1.376194e+01	-3.036875e+02
2.900000e-06	-2.090777e-06	-4.752896e-09	-1.402909e+01	-3.126274e+02
2.910000e-06	-2.129973e-06	-4.886825e-09	-1.429210e+01	-3.214138e+02
2.920000e-06	-2.168454e-06	-5.018279e-09	-1.455030e+01	-3.300381e+02
2.930000e-06	-2.205975e-06	-5.147857e-09	-1.480207e+01	-3.384905e+02
2.940000e-06	-2.242465e-06	-5.276363e-09	-1.504692e+01	-3.467574e+02
