# Temperatura_=_16.67
# Concentracion g/m^3_=_18700.0
# C_Vs_to_Am_M_A/Vsm_=_65563218390.804596
# pendiente_HvsI_1/m_=_3716.3
# ordenada_HvsI_A/m_=_1297.0
# frecuencia_Hz_=_301076.5252222419

Tiempo_(s)	Campo_(V.s)	Magnetizacion_(V.s)	Campo_(kA/m)	Magnetizacion_(A/m)
0.000000e+00	-2.944649e-06	-7.484482e-09	-1.977760e+01	-4.887956e+02
1.000000e-08	-2.944068e-06	-7.484944e-09	-1.977370e+01	-4.888651e+02
2.000000e-08	-2.942587e-06	-7.484800e-09	-1.976375e+01	-4.887774e+02
3.000000e-08	-2.939901e-06	-7.484084e-09	-1.974571e+01	-4.885029e+02
4.000000e-08	-2.936013e-06	-7.480706e-09	-1.971960e+01	-4.880214e+02
5.000000e-08	-2.931265e-06	-7.470877e-09	-1.968771e+01	-4.873325e+02
6.000000e-08	-2.925706e-06	-7.455770e-09	-1.965037e+01	-4.864580e+02
7.000000e-08	-2.919225e-06	-7.439154e-09	-1.960684e+01	-4.854356e+02
8.000000e-08	-2.911763e-06	-7.429986e-09	-1.955672e+01	-4.843049e+02
9.000000e-08	-2.903145e-06	-7.425958e-09	-1.949884e+01	-4.830915e+02
1.000000e-07	-2.893026e-06	-7.408596e-09	-1.943087e+01	-4.817948e+02
1.100000e-07	-2.881440e-06	-7.353264e-09	-1.935306e+01	-4.803851e+02
1.200000e-07	-2.868997e-06	-7.299453e-09	-1.926949e+01	-4.788118e+02
1.300000e-07	-2.855809e-06	-7.291917e-09	-1.918091e+01	-4.770196e+02
1.400000e-07	-2.841488e-06	-7.290234e-09	-1.908472e+01	-4.749693e+02
1.500000e-07	-2.825967e-06	-7.248415e-09	-1.898048e+01	-4.726538e+02
1.600000e-07	-2.809286e-06	-7.188558e-09	-1.886844e+01	-4.701045e+02
1.700000e-07	-2.791448e-06	-7.168365e-09	-1.874864e+01	-4.673851e+02
1.800000e-07	-2.772644e-06	-7.109662e-09	-1.862234e+01	-4.645742e+02
1.900000e-07	-2.753105e-06	-7.044023e-09	-1.849111e+01	-4.617425e+02
2.000000e-07	-2.732777e-06	-7.006131e-09	-1.835457e+01	-4.589316e+02
2.100000e-07	-2.711459e-06	-6.938490e-09	-1.821139e+01	-4.561420e+02
2.200000e-07	-2.689299e-06	-6.905521e-09	-1.806255e+01	-4.533335e+02
2.300000e-07	-2.666306e-06	-6.890889e-09	-1.790812e+01	-4.504377e+02
2.400000e-07	-2.642346e-06	-6.835698e-09	-1.774719e+01	-4.473786e+02
2.500000e-07	-2.617595e-06	-6.776677e-09	-1.758096e+01	-4.440944e+02
2.600000e-07	-2.591926e-06	-6.705463e-09	-1.740855e+01	-4.405532e+02
2.700000e-07	-2.564989e-06	-6.620784e-09	-1.722763e+01	-4.367588e+02
2.800000e-07	-2.536966e-06	-6.593272e-09	-1.703942e+01	-4.327453e+02
2.900000e-07	-2.508134e-06	-6.548522e-09	-1.684577e+01	-4.285637e+02
3.000000e-07	-2.478466e-06	-6.440590e-09	-1.664650e+01	-4.242655e+02
3.100000e-07	-2.447955e-06	-6.390343e-09	-1.644158e+01	-4.198886e+02
3.200000e-07	-2.416697e-06	-6.383320e-09	-1.623164e+01	-4.154499e+02
3.300000e-07	-2.384690e-06	-6.260298e-09	-1.601666e+01	-4.109461e+02
3.400000e-07	-2.351972e-06	-6.151470e-09	-1.579692e+01	-4.063603e+02
3.500000e-07	-2.318526e-06	-6.137019e-09	-1.557228e+01	-4.016718e+02
3.600000e-07	-2.284034e-06	-6.050797e-09	-1.534061e+01	-3.968646e+02
3.700000e-07	-2.248376e-06	-5.953357e-09	-1.510111e+01	-3.919323e+02
3.800000e-07	-2.211863e-06	-5.914317e-09	-1.485588e+01	-3.868781e+02
3.900000e-07	-2.174677e-06	-5.818250e-09	-1.460612e+01	-3.817104e+02
4.000000e-07	-2.136788e-06	-5.708674e-09	-1.435164e+01	-3.764385e+02
4.100000e-07	-2.098107e-06	-5.668097e-09	-1.409184e+01	-3.710679e+02
4.200000e-07	-2.058620e-06	-5.579898e-09	-1.382663e+01	-3.655990e+02
4.300000e-07	-2.018513e-06	-5.463735e-09	-1.355725e+01	-3.600286e+02
4.400000e-07	-1.977895e-06	-5.394329e-09	-1.328444e+01	-3.543529e+02
4.500000e-07	-1.936722e-06	-5.316016e-09	-1.300790e+01	-3.485704e+02
4.600000e-07	-1.894719e-06	-5.220125e-09	-1.272580e+01	-3.426830e+02
4.700000e-07	-1.851684e-06	-5.126225e-09	-1.243675e+01	-3.366962e+02
4.800000e-07	-1.807782e-06	-5.028617e-09	-1.214188e+01	-3.306161e+02
4.900000e-07	-1.763273e-06	-4.941279e-09	-1.184294e+01	-3.244472e+02
5.000000e-07	-1.718259e-06	-4.854202e-09	-1.154061e+01	-3.181907e+02
5.100000e-07	-1.672651e-06	-4.742528e-09	-1.123428e+01	-3.118449e+02
5.200000e-07	-1.626468e-06	-4.644487e-09	-1.092410e+01	-3.054070e+02
5.300000e-07	-1.579779e-06	-4.556022e-09	-1.061051e+01	-2.988756e+02
5.400000e-07	-1.532517e-06	-4.454599e-09	-1.029308e+01	-2.922528e+02
5.500000e-07	-1.484692e-06	-4.353239e-09	-9.971867e+00	-2.855447e+02
5.600000e-07	-1.436365e-06	-4.247101e-09	-9.647282e+00	-2.787598e+02
5.700000e-07	-1.387559e-06	-4.131494e-09	-9.319478e+00	-2.719064e+02
5.800000e-07	-1.338202e-06	-4.028484e-09	-8.987974e+00	-2.649894e+02
5.900000e-07	-1.288135e-06	-3.931601e-09	-8.651699e+00	-2.580087e+02
6.000000e-07	-1.237297e-06	-3.817211e-09	-8.310251e+00	-2.509591e+02
6.100000e-07	-1.185796e-06	-3.707836e-09	-7.964347e+00	-2.438327e+02
6.200000e-07	-1.133781e-06	-3.604269e-09	-7.614987e+00	-2.366222e+02
6.300000e-07	-1.081363e-06	-3.492123e-09	-7.262926e+00	-2.293233e+02
6.400000e-07	-1.028640e-06	-3.372302e-09	-6.908813e+00	-2.219371e+02
6.500000e-07	-9.755630e-07	-3.252122e-09	-6.552324e+00	-2.144697e+02
6.600000e-07	-9.220547e-07	-3.136898e-09	-6.192938e+00	-2.069302e+02
6.700000e-07	-8.681880e-07	-3.027007e-09	-5.831145e+00	-1.993284e+02
6.800000e-07	-8.140294e-07	-2.916796e-09	-5.467391e+00	-1.916722e+02
6.900000e-07	-7.596182e-07	-2.798371e-09	-5.101941e+00	-1.839666e+02
7.000000e-07	-7.049906e-07	-2.680034e-09	-4.735037e+00	-1.762136e+02
7.100000e-07	-6.501789e-07	-2.558735e-09	-4.366897e+00	-1.684137e+02
7.200000e-07	-5.951709e-07	-2.432595e-09	-3.997438e+00	-1.605668e+02
7.300000e-07	-5.399033e-07	-2.306499e-09	-3.626236e+00	-1.526727e+02
7.400000e-07	-4.843947e-07	-2.183562e-09	-3.253415e+00	-1.447309e+02
7.500000e-07	-4.286712e-07	-2.066147e-09	-2.879151e+00	-1.367397e+02
7.600000e-07	-3.727620e-07	-1.951880e-09	-2.503639e+00	-1.286946e+02
7.700000e-07	-3.167232e-07	-1.832116e-09	-2.127257e+00	-1.205893e+02
7.800000e-07	-2.605701e-07	-1.703137e-09	-1.750107e+00	-1.124163e+02
7.900000e-07	-2.043236e-07	-1.573337e-09	-1.372330e+00	-1.041694e+02
8.000000e-07	-1.480154e-07	-1.443059e-09	-9.941386e-01	-9.584699e+01
8.100000e-07	-9.168403e-08	-1.311024e-09	-6.157916e-01	-8.745325e+01
8.200000e-07	-3.533575e-08	-1.178825e-09	-2.373310e-01	-7.899838e+01
8.300000e-07	2.101083e-08	-1.051492e-09	1.411182e-01	-7.049626e+01
8.400000e-07	7.735969e-08	-9.278013e-10	5.195828e-01	-6.196063e+01
8.500000e-07	1.336613e-07	-7.999739e-10	8.977299e-01	-5.340093e+01
8.600000e-07	1.898913e-07	-6.664209e-10	1.275396e+00	-4.481935e+01
8.700000e-07	2.460801e-07	-5.315964e-10	1.652786e+00	-3.621018e+01
8.800000e-07	3.021972e-07	-4.000573e-10	2.029694e+00	-2.756179e+01
8.900000e-07	3.582405e-07	-2.668508e-10	2.406106e+00	-1.886042e+01
9.000000e-07	4.141491e-07	-1.290495e-10	2.781614e+00	-1.009449e+01
9.100000e-07	4.698471e-07	8.424817e-12	3.155707e+00	-1.257693e+00
9.200000e-07	5.253808e-07	1.403901e-10	3.528696e+00	7.649992e+00
9.300000e-07	5.807393e-07	2.710309e-10	3.900509e+00	1.662380e+01
9.400000e-07	6.358742e-07	4.062394e-10	4.270820e+00	2.565722e+01
9.500000e-07	6.907912e-07	5.475652e-10	4.639667e+00	3.474534e+01
9.600000e-07	7.454799e-07	6.914361e-10	5.006982e+00	4.388701e+01
9.700000e-07	7.999596e-07	8.326702e-10	5.372892e+00	5.308505e+01
9.800000e-07	8.541856e-07	9.722204e-10	5.737099e+00	6.234451e+01
9.900000e-07	9.080815e-07	1.114939e-09	6.099088e+00	7.166983e+01
1.000000e-06	9.615967e-07	1.260561e-09	6.458521e+00	8.106234e+01
1.010000e-06	1.014693e-06	1.402441e-09	6.815142e+00	9.051888e+01
1.020000e-06	1.067437e-06	1.544030e-09	7.169392e+00	1.000323e+02
1.030000e-06	1.119853e-06	1.690888e-09	7.521442e+00	1.095935e+02
1.040000e-06	1.171871e-06	1.841182e-09	7.870816e+00	1.191935e+02
1.050000e-06	1.223370e-06	1.988683e-09	8.216711e+00	1.288251e+02
1.060000e-06	1.274116e-06	2.132426e-09	8.557540e+00	1.384835e+02
1.070000e-06	1.323982e-06	2.277264e-09	8.892465e+00	1.481644e+02
1.080000e-06	1.373177e-06	2.426272e-09	9.222880e+00	1.578630e+02
1.090000e-06	1.421945e-06	2.577022e-09	9.550425e+00	1.675718e+02
1.100000e-06	1.470377e-06	2.724550e-09	9.875717e+00	1.772810e+02
1.110000e-06	1.518404e-06	2.870868e-09	1.019829e+01	1.869798e+02
1.120000e-06	1.565855e-06	3.018927e-09	1.051699e+01	1.966587e+02
1.130000e-06	1.612732e-06	3.167500e-09	1.083184e+01	2.063117e+02
1.140000e-06	1.659056e-06	3.312802e-09	1.114297e+01	2.159372e+02
1.150000e-06	1.704712e-06	3.456169e-09	1.144962e+01	2.255359e+02
1.160000e-06	1.749778e-06	3.601543e-09	1.175230e+01	2.351085e+02
1.170000e-06	1.794473e-06	3.749541e-09	1.205250e+01	2.446507e+02
1.180000e-06	1.838811e-06	3.898066e-09	1.235029e+01	2.541510e+02
1.190000e-06	1.882567e-06	4.043350e-09	1.264418e+01	2.635899e+02
1.200000e-06	1.925396e-06	4.185457e-09	1.293183e+01	2.729427e+02
1.210000e-06	1.967136e-06	4.325796e-09	1.321218e+01	2.821843e+02
1.220000e-06	2.008049e-06	4.463774e-09	1.348697e+01	2.912943e+02
1.230000e-06	2.048469e-06	4.597844e-09	1.375845e+01	3.002608e+02
1.240000e-06	2.088299e-06	4.728074e-09	1.402597e+01	3.090808e+02
1.250000e-06	2.127368e-06	4.858508e-09	1.428837e+01	3.177565e+02
1.260000e-06	2.165697e-06	4.990855e-09	1.454580e+01	3.262899e+02
1.270000e-06	2.203215e-06	5.121129e-09	1.479779e+01	3.346767e+02
1.280000e-06	2.240066e-06	5.246313e-09	1.504530e+01	3.429027e+02
1.290000e-06	2.276453e-06	5.367464e-09	1.528969e+01	3.509440e+02
1.300000e-06	2.312039e-06	5.484471e-09	1.552870e+01	3.587718e+02
1.310000e-06	2.346431e-06	5.596506e-09	1.575970e+01	3.663596e+02
1.320000e-06	2.379739e-06	5.704193e-09	1.598341e+01	3.736901e+02
1.330000e-06	2.412317e-06	5.809687e-09	1.620221e+01	3.807595e+02
1.340000e-06	2.444198e-06	5.914256e-09	1.641634e+01	3.875768e+02
1.350000e-06	2.475259e-06	6.015683e-09	1.662497e+01	3.941594e+02
1.360000e-06	2.505502e-06	6.111542e-09	1.682809e+01	4.005250e+02
1.370000e-06	2.534888e-06	6.203416e-09	1.702546e+01	4.066843e+02
1.380000e-06	2.563541e-06	6.292855e-09	1.721791e+01	4.126378e+02
1.390000e-06	2.591430e-06	6.378939e-09	1.740522e+01	4.183758e+02
1.400000e-06	2.618179e-06	6.460351e-09	1.758488e+01	4.238843e+02
1.410000e-06	2.643675e-06	6.536827e-09	1.775613e+01	4.291520e+02
1.420000e-06	2.668175e-06	6.611110e-09	1.792068e+01	4.341772e+02
1.430000e-06	2.691775e-06	6.683796e-09	1.807919e+01	4.389697e+02
1.440000e-06	2.714447e-06	6.753206e-09	1.823146e+01	4.435481e+02
1.450000e-06	2.736190e-06	6.819190e-09	1.837750e+01	4.479328e+02
1.460000e-06	2.757116e-06	6.883784e-09	1.851804e+01	4.521374e+02
1.470000e-06	2.777318e-06	6.947395e-09	1.865373e+01	4.561619e+02
1.480000e-06	2.796665e-06	7.006058e-09	1.878367e+01	4.599916e+02
1.490000e-06	2.815012e-06	7.056134e-09	1.890690e+01	4.636013e+02
1.500000e-06	2.832344e-06	7.100479e-09	1.902331e+01	4.669638e+02
1.510000e-06	2.848518e-06	7.143359e-09	1.913194e+01	4.700601e+02
1.520000e-06	2.863455e-06	7.186565e-09	1.923226e+01	4.728866e+02
1.530000e-06	2.877386e-06	7.227197e-09	1.932583e+01	4.754565e+02
1.540000e-06	2.890355e-06	7.261873e-09	1.941294e+01	4.777951e+02
1.550000e-06	2.902122e-06	7.292464e-09	1.949197e+01	4.799307e+02
1.560000e-06	2.912488e-06	7.321950e-09	1.956159e+01	4.818850e+02
1.570000e-06	2.921631e-06	7.348771e-09	1.962300e+01	4.836660e+02
1.580000e-06	2.929836e-06	7.369992e-09	1.967811e+01	4.852675e+02
1.590000e-06	2.937132e-06	7.388282e-09	1.972711e+01	4.866748e+02
1.600000e-06	2.943423e-06	7.405289e-09	1.976936e+01	4.878738e+02
1.610000e-06	2.948778e-06	7.421043e-09	1.980533e+01	4.888601e+02
1.620000e-06	2.953271e-06	7.434598e-09	1.983551e+01	4.896443e+02
1.630000e-06	2.956661e-06	7.443769e-09	1.985828e+01	4.902498e+02
1.640000e-06	2.958733e-06	7.449377e-09	1.987219e+01	4.907053e+02
1.650000e-06	2.959655e-06	7.454321e-09	1.987839e+01	4.910339e+02
1.660000e-06	2.959672e-06	7.459711e-09	1.987850e+01	4.912437e+02
1.670000e-06	2.958805e-06	7.461687e-09	1.987268e+01	4.913241e+02
1.680000e-06	2.956978e-06	7.457339e-09	1.986041e+01	4.912495e+02
1.690000e-06	2.954283e-06	7.448117e-09	1.984231e+01	4.909899e+02
1.700000e-06	2.950838e-06	7.437529e-09	1.981917e+01	4.905242e+02
1.710000e-06	2.946401e-06	7.427785e-09	1.978937e+01	4.898504e+02
1.720000e-06	2.940685e-06	7.418489e-09	1.975098e+01	4.889888e+02
1.730000e-06	2.933911e-06	7.407336e-09	1.970548e+01	4.879764e+02
1.740000e-06	2.926319e-06	7.380887e-09	1.965449e+01	4.868531e+02
1.750000e-06	2.917578e-06	7.341733e-09	1.959578e+01	4.856460e+02
1.760000e-06	2.907164e-06	7.324805e-09	1.952584e+01	4.843567e+02
1.770000e-06	2.895279e-06	7.337499e-09	1.944601e+01	4.829574e+02
1.780000e-06	2.882994e-06	7.336306e-09	1.936350e+01	4.813984e+02
1.790000e-06	2.870475e-06	7.265820e-09	1.927942e+01	4.796242e+02
1.800000e-06	2.856548e-06	7.234636e-09	1.918588e+01	4.775938e+02
1.810000e-06	2.840944e-06	7.244790e-09	1.908107e+01	4.752974e+02
1.820000e-06	2.824652e-06	7.182376e-09	1.897165e+01	4.727638e+02
1.830000e-06	2.807735e-06	7.113290e-09	1.885803e+01	4.700548e+02
1.840000e-06	2.789572e-06	7.091221e-09	1.873603e+01	4.672486e+02
1.850000e-06	2.770491e-06	7.070326e-09	1.860788e+01	4.644173e+02
1.860000e-06	2.750662e-06	7.020314e-09	1.847469e+01	4.616052e+02
1.870000e-06	2.729415e-06	6.991892e-09	1.833199e+01	4.588158e+02
1.880000e-06	2.706858e-06	6.962758e-09	1.818049e+01	4.560114e+02
1.890000e-06	2.683535e-06	6.879626e-09	1.802384e+01	4.531251e+02
1.900000e-06	2.659262e-06	6.831148e-09	1.786081e+01	4.500808e+02
1.910000e-06	2.634087e-06	6.815897e-09	1.769172e+01	4.468150e+02
1.920000e-06	2.608219e-06	6.776206e-09	1.751799e+01	4.432932e+02
1.930000e-06	2.581481e-06	6.723482e-09	1.733840e+01	4.395168e+02
1.940000e-06	2.553992e-06	6.625036e-09	1.715377e+01	4.355181e+02
1.950000e-06	2.525661e-06	6.570305e-09	1.696348e+01	4.313475e+02
1.960000e-06	2.495917e-06	6.538958e-09	1.676371e+01	4.270569e+02
1.970000e-06	2.465003e-06	6.412173e-09	1.655608e+01	4.226856e+02
1.980000e-06	2.433388e-06	6.336395e-09	1.634374e+01	4.182520e+02
1.990000e-06	2.400968e-06	6.351272e-09	1.612599e+01	4.137541e+02
2.000000e-06	2.367758e-06	6.255203e-09	1.590294e+01	4.091756e+02
2.010000e-06	2.333748e-06	6.137105e-09	1.567451e+01	4.044958e+02
2.020000e-06	2.298993e-06	6.111352e-09	1.544108e+01	3.996982e+02
2.030000e-06	2.263677e-06	6.013078e-09	1.520388e+01	3.947757e+02
2.040000e-06	2.227435e-06	5.906524e-09	1.496047e+01	3.897306e+02
2.050000e-06	2.189913e-06	5.879603e-09	1.470845e+01	3.845715e+02
2.060000e-06	2.151401e-06	5.787571e-09	1.444979e+01	3.793076e+02
2.070000e-06	2.112262e-06	5.681790e-09	1.418691e+01	3.739447e+02
2.080000e-06	2.072558e-06	5.631081e-09	1.392024e+01	3.684837e+02
2.090000e-06	2.032152e-06	5.538461e-09	1.364886e+01	3.629215e+02
2.100000e-06	1.991059e-06	5.434557e-09	1.337286e+01	3.572542e+02
2.110000e-06	1.949378e-06	5.350916e-09	1.309291e+01	3.514800e+02
2.120000e-06	1.907029e-06	5.257421e-09	1.280848e+01	3.456008e+02
2.130000e-06	1.864100e-06	5.183149e-09	1.252014e+01	3.396216e+02
2.140000e-06	1.820730e-06	5.090326e-09	1.222885e+01	3.335488e+02
2.150000e-06	1.776784e-06	4.979062e-09	1.193369e+01	3.273869e+02
2.160000e-06	1.732124e-06	4.900188e-09	1.163373e+01	3.211374e+02
2.170000e-06	1.686800e-06	4.808687e-09	1.132932e+01	3.147989e+02
2.180000e-06	1.640947e-06	4.695424e-09	1.102135e+01	3.083684e+02
2.190000e-06	1.594575e-06	4.594837e-09	1.070989e+01	3.018444e+02
2.200000e-06	1.547622e-06	4.493663e-09	1.039453e+01	2.952288e+02
2.210000e-06	1.500070e-06	4.388602e-09	1.007515e+01	2.885273e+02
2.220000e-06	1.451862e-06	4.299323e-09	9.751363e+00	2.817484e+02
2.230000e-06	1.403049e-06	4.203311e-09	9.423512e+00	2.749004e+02
2.240000e-06	1.353738e-06	4.087894e-09	9.092323e+00	2.679887e+02
2.250000e-06	1.303887e-06	3.978651e-09	8.757499e+00	2.610134e+02
2.260000e-06	1.253516e-06	3.878062e-09	8.419180e+00	2.539697e+02
2.270000e-06	1.202692e-06	3.764980e-09	8.077827e+00	2.468499e+02
2.280000e-06	1.151507e-06	3.648631e-09	7.734045e+00	2.396463e+02
2.290000e-06	1.099973e-06	3.540664e-09	7.387916e+00	2.323545e+02
2.300000e-06	1.047911e-06	3.435475e-09	7.038248e+00	2.249752e+02
2.310000e-06	9.951739e-07	3.331608e-09	6.684040e+00	2.175141e+02
2.320000e-06	9.417673e-07	3.214483e-09	6.325337e+00	2.099802e+02
2.330000e-06	8.877804e-07	3.091035e-09	5.962737e+00	2.023834e+02
2.340000e-06	8.333797e-07	2.970812e-09	5.597357e+00	1.947316e+02
2.350000e-06	7.786895e-07	2.849945e-09	5.230032e+00	1.870302e+02
2.360000e-06	7.237936e-07	2.733226e-09	4.861327e+00	1.792813e+02
2.370000e-06	6.687498e-07	2.619103e-09	4.491628e+00	1.714855e+02
2.380000e-06	6.135518e-07	2.503185e-09	4.120893e+00	1.636428e+02
2.390000e-06	5.582073e-07	2.387392e-09	3.749174e+00	1.557528e+02
2.400000e-06	5.026961e-07	2.269583e-09	3.376335e+00	1.478153e+02
2.410000e-06	4.470804e-07	2.144652e-09	3.002795e+00	1.398284e+02
2.420000e-06	3.913785e-07	2.016023e-09	2.628676e+00	1.317882e+02
2.430000e-06	3.355016e-07	1.889735e-09	2.253381e+00	1.236882e+02
2.440000e-06	2.794846e-07	1.768771e-09	1.877146e+00	1.155210e+02
2.450000e-06	2.233488e-07	1.649428e-09	1.500112e+00	1.072803e+02
2.460000e-06	1.670993e-07	1.527229e-09	1.122315e+00	9.896400e+01
2.470000e-06	1.108283e-07	1.399212e-09	7.443730e-01	9.057585e+01
2.480000e-06	5.454863e-08	1.268870e-09	3.663734e-01	8.212568e+01
2.490000e-06	-1.767883e-09	1.139537e-09	-1.187391e-02	7.362723e+01
2.500000e-06	-5.808932e-08	1.009398e-09	-3.901543e-01	6.509438e+01
2.510000e-06	-1.143877e-07	8.787329e-10	-7.682796e-01	5.653700e+01
2.520000e-06	-1.706133e-07	7.478174e-10	-1.145916e+00	4.795785e+01
2.530000e-06	-2.267492e-07	6.177625e-10	-1.522950e+00	3.935176e+01
2.540000e-06	-2.827729e-07	4.879938e-10	-1.899232e+00	3.070740e+01
2.550000e-06	-3.386460e-07	3.571131e-10	-2.274501e+00	2.201102e+01
2.560000e-06	-3.943869e-07	2.229183e-10	-2.648882e+00	1.325075e+01
2.570000e-06	-4.499623e-07	8.561494e-11	-3.022151e+00	4.419864e+00
2.580000e-06	-5.053675e-07	-5.064942e-11	-3.394278e+00	-4.482101e+00
2.590000e-06	-5.606703e-07	-1.844529e-10	-3.765717e+00	-1.345063e+01
2.600000e-06	-6.158679e-07	-3.200314e-10	-4.136449e+00	-2.247921e+01
2.610000e-06	-6.709521e-07	-4.602327e-10	-4.506419e+00	-3.156274e+01
2.620000e-06	-7.259477e-07	-6.015696e-10	-4.875795e+00	-4.069977e+01
2.630000e-06	-7.807858e-07	-7.422598e-10	-5.244112e+00	-4.989286e+01
2.640000e-06	-8.353573e-07	-8.815113e-10	-5.610639e+00	-5.914698e+01
2.650000e-06	-8.895061e-07	-1.021961e-09	-5.974327e+00	-6.846674e+01
2.660000e-06	-9.430934e-07	-1.165638e-09	-6.334244e+00	-7.785373e+01
2.670000e-06	-9.960933e-07	-1.309229e-09	-6.690215e+00	-8.730512e+01
2.680000e-06	-1.048504e-06	-1.452454e-09	-7.042230e+00	-9.681403e+01
2.690000e-06	-1.100375e-06	-1.597777e-09	-7.390617e+00	-1.063713e+02
2.700000e-06	-1.151816e-06	-1.746426e-09	-7.736121e+00	-1.159680e+02
2.710000e-06	-1.202898e-06	-1.895320e-09	-8.079213e+00	-1.255968e+02
2.720000e-06	-1.253591e-06	-2.042548e-09	-8.419686e+00	-1.352526e+02
2.730000e-06	-1.303819e-06	-2.189731e-09	-8.757044e+00	-1.449314e+02
2.740000e-06	-1.353504e-06	-2.337768e-09	-9.090749e+00	-1.546281e+02
2.750000e-06	-1.402658e-06	-2.485847e-09	-9.420892e+00	-1.643357e+02
2.760000e-06	-1.451237e-06	-2.632771e-09	-9.747169e+00	-1.740445e+02
2.770000e-06	-1.498977e-06	-2.779866e-09	-1.006781e+01	-1.837436e+02
2.780000e-06	-1.545773e-06	-2.928323e-09	-1.038211e+01	-1.934234e+02
2.790000e-06	-1.591875e-06	-3.077368e-09	-1.069175e+01	-2.030776e+02
2.800000e-06	-1.637537e-06	-3.224933e-09	-1.099844e+01	-2.127042e+02
2.810000e-06	-1.682839e-06	-3.370330e-09	-1.130271e+01	-2.223040e+02
2.820000e-06	-1.727771e-06	-3.516376e-09	-1.160450e+01	-2.318778e+02
2.830000e-06	-1.772136e-06	-3.663491e-09	-1.190247e+01	-2.414217e+02
2.840000e-06	-1.815858e-06	-3.807245e-09	-1.219613e+01	-2.509247e+02
2.850000e-06	-1.859114e-06	-3.948154e-09	-1.248665e+01	-2.603680e+02
2.860000e-06	-1.901918e-06	-4.090109e-09	-1.277414e+01	-2.697271e+02
2.870000e-06	-1.944048e-06	-4.232054e-09	-1.305711e+01	-2.789766e+02
2.880000e-06	-1.985498e-06	-4.372949e-09	-1.333550e+01	-2.880957e+02
2.890000e-06	-2.026346e-06	-4.511617e-09	-1.360986e+01	-2.970719e+02
2.900000e-06	-2.066487e-06	-4.647280e-09	-1.387947e+01	-3.059015e+02
2.910000e-06	-2.105988e-06	-4.781380e-09	-1.414477e+01	-3.145867e+02
2.920000e-06	-2.144954e-06	-4.913770e-09	-1.440649e+01	-3.231295e+02
2.930000e-06	-2.183130e-06	-5.041574e-09	-1.466289e+01	-3.315264e+02
2.940000e-06	-2.220168e-06	-5.165011e-09	-1.491166e+01	-3.397638e+02
