# Temperatura_=_23.83
# Concentracion g/m^3_=_18700.0
# C_Vs_to_Am_M_A/Vsm_=_65563218390.804596
# pendiente_HvsI_1/m_=_3716.3
# ordenada_HvsI_A/m_=_1297.0
# frecuencia_Hz_=_301065.38518787455

Tiempo_(s)	Campo_(V.s)	Magnetizacion_(V.s)	Campo_(kA/m)	Magnetizacion_(A/m)
0.000000e+00	-2.939151e-06	-7.761568e-09	-1.977407e+01	-5.071034e+02
1.000000e-08	-2.938471e-06	-7.769243e-09	-1.976949e+01	-5.071004e+02
2.000000e-08	-2.936976e-06	-7.771497e-09	-1.975943e+01	-5.069751e+02
3.000000e-08	-2.934231e-06	-7.766828e-09	-1.974096e+01	-5.067094e+02
4.000000e-08	-2.930222e-06	-7.759043e-09	-1.971399e+01	-5.062770e+02
5.000000e-08	-2.925350e-06	-7.747736e-09	-1.968122e+01	-5.056534e+02
6.000000e-08	-2.919622e-06	-7.730292e-09	-1.964268e+01	-5.048251e+02
7.000000e-08	-2.912923e-06	-7.703522e-09	-1.959761e+01	-5.037950e+02
8.000000e-08	-2.905224e-06	-7.701772e-09	-1.954581e+01	-5.025825e+02
9.000000e-08	-2.896390e-06	-7.741913e-09	-1.948638e+01	-5.012170e+02
1.000000e-07	-2.886083e-06	-7.730138e-09	-1.941703e+01	-4.997292e+02
1.100000e-07	-2.874298e-06	-7.583170e-09	-1.933774e+01	-4.981407e+02
1.200000e-07	-2.861747e-06	-7.489460e-09	-1.925331e+01	-4.964580e+02
1.300000e-07	-2.848487e-06	-7.606163e-09	-1.916410e+01	-4.946707e+02
1.400000e-07	-2.834040e-06	-7.661986e-09	-1.906690e+01	-4.927563e+02
1.500000e-07	-2.818439e-06	-7.429570e-09	-1.896194e+01	-4.906890e+02
1.600000e-07	-2.801730e-06	-7.436572e-09	-1.884952e+01	-4.884492e+02
1.700000e-07	-2.783696e-06	-7.574797e-09	-1.872819e+01	-4.860309e+02
1.800000e-07	-2.764657e-06	-7.373726e-09	-1.860010e+01	-4.834443e+02
1.900000e-07	-2.745025e-06	-7.277674e-09	-1.846802e+01	-4.807121e+02
2.000000e-07	-2.724602e-06	-7.383957e-09	-1.833062e+01	-4.778609e+02
2.100000e-07	-2.703160e-06	-7.251046e-09	-1.818636e+01	-4.749115e+02
2.200000e-07	-2.680881e-06	-7.109134e-09	-1.803647e+01	-4.718706e+02
2.300000e-07	-2.657779e-06	-7.246835e-09	-1.788105e+01	-4.687268e+02
2.400000e-07	-2.633696e-06	-7.186149e-09	-1.771902e+01	-4.654539e+02
2.500000e-07	-2.608896e-06	-6.997237e-09	-1.755217e+01	-4.620188e+02
2.600000e-07	-2.583164e-06	-6.996072e-09	-1.737905e+01	-4.583928e+02
2.700000e-07	-2.556045e-06	-6.970291e-09	-1.719660e+01	-4.545614e+02
2.800000e-07	-2.527867e-06	-6.878017e-09	-1.700702e+01	-4.505302e+02
2.900000e-07	-2.498919e-06	-6.843301e-09	-1.681227e+01	-4.463240e+02
3.000000e-07	-2.469051e-06	-6.720862e-09	-1.661132e+01	-4.419797e+02
3.100000e-07	-2.438388e-06	-6.685209e-09	-1.640502e+01	-4.375357e+02
3.200000e-07	-2.407057e-06	-6.689653e-09	-1.619424e+01	-4.330201e+02
3.300000e-07	-2.374953e-06	-6.513172e-09	-1.597825e+01	-4.284439e+02
3.400000e-07	-2.342170e-06	-6.442218e-09	-1.575768e+01	-4.237990e+02
3.500000e-07	-2.308602e-06	-6.441719e-09	-1.553185e+01	-4.190633e+02
3.600000e-07	-2.273870e-06	-6.318895e-09	-1.529818e+01	-4.142105e+02
3.700000e-07	-2.237986e-06	-6.251141e-09	-1.505676e+01	-4.092202e+02
3.800000e-07	-2.201352e-06	-6.220711e-09	-1.481029e+01	-4.040861e+02
3.900000e-07	-2.164196e-06	-6.053330e-09	-1.456031e+01	-3.988178e+02
4.000000e-07	-2.126344e-06	-5.983008e-09	-1.430565e+01	-3.934371e+02
4.100000e-07	-2.087651e-06	-5.966952e-09	-1.404533e+01	-3.879693e+02
4.200000e-07	-2.048147e-06	-5.836233e-09	-1.377956e+01	-3.824338e+02
4.300000e-07	-2.007927e-06	-5.729592e-09	-1.350897e+01	-3.768362e+02
4.400000e-07	-1.967252e-06	-5.679974e-09	-1.323531e+01	-3.711667e+02
4.500000e-07	-1.926117e-06	-5.596197e-09	-1.295856e+01	-3.654041e+02
4.600000e-07	-1.884115e-06	-5.490452e-09	-1.267598e+01	-3.595236e+02
4.700000e-07	-1.841012e-06	-5.393850e-09	-1.238599e+01	-3.535075e+02
4.800000e-07	-1.797022e-06	-5.288235e-09	-1.209003e+01	-3.473514e+02
4.900000e-07	-1.752494e-06	-5.212672e-09	-1.179046e+01	-3.410670e+02
5.000000e-07	-1.707445e-06	-5.123809e-09	-1.148737e+01	-3.346777e+02
5.100000e-07	-1.661761e-06	-5.008531e-09	-1.118002e+01	-3.282107e+02
5.200000e-07	-1.615519e-06	-4.903251e-09	-1.086891e+01	-3.216873e+02
5.300000e-07	-1.568715e-06	-4.814588e-09	-1.055403e+01	-3.151157e+02
5.400000e-07	-1.521348e-06	-4.716946e-09	-1.023535e+01	-3.084896e+02
5.500000e-07	-1.473470e-06	-4.615271e-09	-9.913231e+00	-3.017917e+02
5.600000e-07	-1.425115e-06	-4.506350e-09	-9.587911e+00	-2.950023e+02
5.700000e-07	-1.376376e-06	-4.384767e-09	-9.260003e+00	-2.881074e+02
5.800000e-07	-1.327182e-06	-4.290465e-09	-8.929033e+00	-2.811056e+02
5.900000e-07	-1.277304e-06	-4.186939e-09	-8.593467e+00	-2.740083e+02
6.000000e-07	-1.226625e-06	-4.065259e-09	-8.252504e+00	-2.668352e+02
6.100000e-07	-1.175225e-06	-3.952650e-09	-7.906696e+00	-2.596057e+02
6.200000e-07	-1.123260e-06	-3.854138e-09	-7.557088e+00	-2.523300e+02
6.300000e-07	-1.070856e-06	-3.747679e-09	-7.204524e+00	-2.450045e+02
6.400000e-07	-1.018134e-06	-3.627493e-09	-6.849817e+00	-2.376120e+02
6.500000e-07	-9.650930e-07	-3.504752e-09	-6.492967e+00	-2.301284e+02
6.600000e-07	-9.116179e-07	-3.387550e-09	-6.133197e+00	-2.225330e+02
6.700000e-07	-8.577801e-07	-3.279349e-09	-5.770986e+00	-2.148180e+02
6.800000e-07	-8.036307e-07	-3.160544e-09	-5.406679e+00	-2.069938e+02
6.900000e-07	-7.492238e-07	-3.036109e-09	-5.040640e+00	-1.990876e+02
7.000000e-07	-6.946709e-07	-2.915314e-09	-4.673617e+00	-1.911352e+02
7.100000e-07	-6.399413e-07	-2.797517e-09	-4.305407e+00	-1.831690e+02
7.200000e-07	-5.850483e-07	-2.672067e-09	-3.936097e+00	-1.752063e+02
7.300000e-07	-5.299324e-07	-2.542582e-09	-3.565287e+00	-1.672428e+02
7.400000e-07	-4.745476e-07	-2.416528e-09	-3.192669e+00	-1.592529e+02
7.500000e-07	-4.188993e-07	-2.295631e-09	-2.818277e+00	-1.511981e+02
7.600000e-07	-3.630386e-07	-2.178565e-09	-2.442456e+00	-1.430393e+02
7.700000e-07	-3.070459e-07	-2.052250e-09	-2.065748e+00	-1.347502e+02
7.800000e-07	-2.509772e-07	-1.920267e-09	-1.688528e+00	-1.263249e+02
7.900000e-07	-1.948196e-07	-1.788531e-09	-1.310711e+00	-1.177800e+02
8.000000e-07	-1.385672e-07	-1.656312e-09	-9.322547e-01	-1.091469e+02
8.100000e-07	-8.226897e-08	-1.517711e-09	-5.534904e-01	-1.004614e+02
8.200000e-07	-2.593583e-08	-1.378953e-09	-1.744915e-01	-9.175099e+01
8.300000e-07	3.039143e-08	-1.247429e-09	2.044679e-01	-8.302644e+01
8.400000e-07	8.669403e-08	-1.120154e-09	5.832614e-01	-7.428019e+01
8.500000e-07	1.429378e-07	-9.903139e-10	9.616592e-01	-6.549110e+01
8.600000e-07	1.991496e-07	-8.511557e-10	1.339842e+00	-5.663398e+01
8.700000e-07	2.553339e-07	-7.110257e-10	1.717839e+00	-4.768948e+01
8.800000e-07	3.113893e-07	-5.733299e-10	2.094970e+00	-3.865068e+01
8.900000e-07	3.673127e-07	-4.342816e-10	2.471212e+00	-2.952386e+01
9.000000e-07	4.230575e-07	-2.903755e-10	2.846253e+00	-2.032352e+01
9.100000e-07	4.785406e-07	-1.462420e-10	3.219533e+00	-1.106415e+01
9.200000e-07	5.338524e-07	-5.366325e-12	3.591661e+00	-1.752326e+00
9.300000e-07	5.890462e-07	1.336387e-10	3.962994e+00	7.617418e+00
9.400000e-07	6.440181e-07	2.761118e-10	4.332835e+00	1.706104e+01
9.500000e-07	6.987655e-07	4.255880e-10	4.701166e+00	2.659854e+01
9.600000e-07	7.533528e-07	5.754956e-10	5.068419e+00	3.624519e+01
9.700000e-07	8.077646e-07	7.233998e-10	5.434491e+00	4.600431e+01
9.800000e-07	8.618516e-07	8.692289e-10	5.798379e+00	5.586455e+01
9.900000e-07	9.155503e-07	1.021720e-09	6.159653e+00	6.580310e+01
1.000000e-06	9.688759e-07	1.179130e-09	6.518418e+00	7.579360e+01
1.010000e-06	1.021834e-06	1.333180e-09	6.874710e+00	8.581562e+01
1.020000e-06	1.074476e-06	1.483708e-09	7.228876e+00	9.586186e+01
1.030000e-06	1.126751e-06	1.635997e-09	7.580573e+00	1.059400e+02
1.040000e-06	1.178539e-06	1.792986e-09	7.928993e+00	1.160682e+02
1.050000e-06	1.229685e-06	1.948864e-09	8.273093e+00	1.262667e+02
1.060000e-06	1.280085e-06	2.104387e-09	8.612175e+00	1.365467e+02
1.070000e-06	1.329707e-06	2.262486e-09	8.946026e+00	1.469045e+02
1.080000e-06	1.378701e-06	2.425038e-09	9.275646e+00	1.573192e+02
1.090000e-06	1.427335e-06	2.588361e-09	9.602850e+00	1.677585e+02
1.100000e-06	1.475645e-06	2.746699e-09	9.927870e+00	1.781883e+02
1.110000e-06	1.523504e-06	2.903019e-09	1.024986e+01	1.885834e+02
1.120000e-06	1.570770e-06	3.060724e-09	1.056785e+01	1.989345e+02
1.130000e-06	1.617499e-06	3.219925e-09	1.088224e+01	2.092492e+02
1.140000e-06	1.663763e-06	3.375602e-09	1.119349e+01	2.195457e+02
1.150000e-06	1.709406e-06	3.530475e-09	1.150057e+01	2.298427e+02
1.160000e-06	1.754445e-06	3.687377e-09	1.180358e+01	2.401481e+02
1.170000e-06	1.799091e-06	3.847093e-09	1.210395e+01	2.504518e+02
1.180000e-06	1.843351e-06	4.006188e-09	1.240172e+01	2.607250e+02
1.190000e-06	1.886881e-06	4.161463e-09	1.269459e+01	2.709267e+02
1.200000e-06	1.929382e-06	4.315413e-09	1.298053e+01	2.810144e+02
1.210000e-06	1.970843e-06	4.467801e-09	1.325947e+01	2.909558e+02
1.220000e-06	2.011624e-06	4.616535e-09	1.353383e+01	3.007353e+02
1.230000e-06	2.051967e-06	4.759740e-09	1.380526e+01	3.103552e+02
1.240000e-06	2.091621e-06	4.901366e-09	1.407204e+01	3.198287e+02
1.250000e-06	2.130537e-06	5.043802e-09	1.433386e+01	3.291690e+02
1.260000e-06	2.168742e-06	5.186766e-09	1.459089e+01	3.383779e+02
1.270000e-06	2.206122e-06	5.325145e-09	1.484238e+01	3.474387e+02
1.280000e-06	2.242886e-06	5.459774e-09	1.508972e+01	3.563164e+02
1.290000e-06	2.279086e-06	5.590950e-09	1.533327e+01	3.649644e+02
1.300000e-06	2.314387e-06	5.717615e-09	1.557077e+01	3.733371e+02
1.310000e-06	2.348540e-06	5.836339e-09	1.580055e+01	3.814014e+02
1.320000e-06	2.381668e-06	5.948274e-09	1.602342e+01	3.891451e+02
1.330000e-06	2.414086e-06	6.059872e-09	1.624153e+01	3.965778e+02
1.340000e-06	2.445748e-06	6.171338e-09	1.645454e+01	4.037248e+02
1.350000e-06	2.476545e-06	6.278579e-09	1.666174e+01	4.106158e+02
1.360000e-06	2.506546e-06	6.377385e-09	1.686358e+01	4.172736e+02
1.370000e-06	2.535708e-06	6.472431e-09	1.705978e+01	4.237064e+02
1.380000e-06	2.564153e-06	6.566110e-09	1.725115e+01	4.299061e+02
1.390000e-06	2.591818e-06	6.655873e-09	1.743727e+01	4.358545e+02
1.400000e-06	2.618226e-06	6.739153e-09	1.761494e+01	4.415326e+02
1.410000e-06	2.643367e-06	6.818402e-09	1.778409e+01	4.469315e+02
1.420000e-06	2.667637e-06	6.896027e-09	1.794737e+01	4.520584e+02
1.430000e-06	2.691075e-06	6.970838e-09	1.810506e+01	4.569369e+02
1.440000e-06	2.713619e-06	7.041648e-09	1.825673e+01	4.615995e+02
1.450000e-06	2.735223e-06	7.107920e-09	1.840207e+01	4.660772e+02
1.460000e-06	2.756003e-06	7.172351e-09	1.854188e+01	4.703873e+02
1.470000e-06	2.776062e-06	7.235981e-09	1.867683e+01	4.745272e+02
1.480000e-06	2.795123e-06	7.295396e-09	1.880507e+01	4.784731e+02
1.490000e-06	2.813169e-06	7.347553e-09	1.892648e+01	4.821877e+02
1.500000e-06	2.830287e-06	7.393939e-09	1.904165e+01	4.856318e+02
1.510000e-06	2.846231e-06	7.438290e-09	1.914892e+01	4.887773e+02
1.520000e-06	2.860984e-06	7.481539e-09	1.924817e+01	4.916166e+02
1.530000e-06	2.874737e-06	7.519520e-09	1.934070e+01	4.941653e+02
1.540000e-06	2.887494e-06	7.551653e-09	1.942653e+01	4.964571e+02
1.550000e-06	2.899036e-06	7.581237e-09	1.950418e+01	4.985339e+02
1.560000e-06	2.909146e-06	7.608735e-09	1.957220e+01	5.004329e+02
1.570000e-06	2.918127e-06	7.633886e-09	1.963262e+01	5.021766e+02
1.580000e-06	2.926230e-06	7.656808e-09	1.968714e+01	5.037684e+02
1.590000e-06	2.933339e-06	7.677975e-09	1.973497e+01	5.051948e+02
1.600000e-06	2.939438e-06	7.696977e-09	1.977599e+01	5.064338e+02
1.610000e-06	2.944648e-06	7.711042e-09	1.981105e+01	5.074654e+02
1.620000e-06	2.948989e-06	7.720618e-09	1.984025e+01	5.082807e+02
1.630000e-06	2.952153e-06	7.727932e-09	1.986154e+01	5.088869e+02
1.640000e-06	2.953955e-06	7.733834e-09	1.987366e+01	5.093052e+02
1.650000e-06	2.954674e-06	7.740026e-09	1.987850e+01	5.095639e+02
1.660000e-06	2.954453e-06	7.745349e-09	1.987702e+01	5.096891e+02
1.670000e-06	2.953357e-06	7.745342e-09	1.986964e+01	5.096948e+02
1.680000e-06	2.951391e-06	7.741862e-09	1.985641e+01	5.095791e+02
1.690000e-06	2.948571e-06	7.735794e-09	1.983744e+01	5.093246e+02
1.700000e-06	2.945027e-06	7.725942e-09	1.981360e+01	5.089053e+02
1.710000e-06	2.940468e-06	7.716020e-09	1.978293e+01	5.082963e+02
1.720000e-06	2.934572e-06	7.711238e-09	1.974326e+01	5.074830e+02
1.730000e-06	2.927633e-06	7.714899e-09	1.969657e+01	5.064672e+02
1.740000e-06	2.919905e-06	7.656792e-09	1.964458e+01	5.052671e+02
1.750000e-06	2.910951e-06	7.574477e-09	1.958434e+01	5.039118e+02
1.760000e-06	2.900227e-06	7.588964e-09	1.951219e+01	5.024322e+02
1.770000e-06	2.888037e-06	7.715996e-09	1.943018e+01	5.008509e+02
1.780000e-06	2.875621e-06	7.645535e-09	1.934665e+01	4.991753e+02
1.790000e-06	2.863020e-06	7.447650e-09	1.926187e+01	4.973965e+02
1.800000e-06	2.848823e-06	7.511013e-09	1.916635e+01	4.954924e+02
1.810000e-06	2.832976e-06	7.611839e-09	1.905974e+01	4.934372e+02
1.820000e-06	2.816660e-06	7.407349e-09	1.894997e+01	4.912104e+02
1.830000e-06	2.799594e-06	7.311558e-09	1.883515e+01	4.888050e+02
1.840000e-06	2.781128e-06	7.503300e-09	1.871091e+01	4.862301e+02
1.850000e-06	2.761923e-06	7.371870e-09	1.858171e+01	4.835077e+02
1.860000e-06	2.742023e-06	7.178885e-09	1.844782e+01	4.806645e+02
1.870000e-06	2.720575e-06	7.372178e-09	1.830353e+01	4.777221e+02
1.880000e-06	2.697843e-06	7.301740e-09	1.815059e+01	4.746882e+02
1.890000e-06	2.674417e-06	7.015822e-09	1.799299e+01	4.715528e+02
1.900000e-06	2.649992e-06	7.128859e-09	1.782866e+01	4.682905e+02
1.910000e-06	2.624737e-06	7.149952e-09	1.765874e+01	4.648684e+02
1.920000e-06	2.598833e-06	6.978948e-09	1.748447e+01	4.612570e+02
1.930000e-06	2.572026e-06	6.970243e-09	1.730411e+01	4.574407e+02
1.940000e-06	2.544532e-06	6.906415e-09	1.711914e+01	4.534234e+02
1.950000e-06	2.516083e-06	6.820386e-09	1.692774e+01	4.492289e+02
1.960000e-06	2.486115e-06	6.822769e-09	1.672612e+01	4.448936e+02
1.970000e-06	2.455096e-06	6.642846e-09	1.651743e+01	4.404559e+02
1.980000e-06	2.423390e-06	6.574685e-09	1.630412e+01	4.359452e+02
1.990000e-06	2.390843e-06	6.655082e-09	1.608515e+01	4.313737e+02
2.000000e-06	2.357560e-06	6.466243e-09	1.586123e+01	4.267345e+02
2.010000e-06	2.323455e-06	6.386509e-09	1.563178e+01	4.220066e+02
2.020000e-06	2.288584e-06	6.404529e-09	1.539717e+01	4.171632e+02
2.030000e-06	2.253186e-06	6.212548e-09	1.515902e+01	4.121835e+02
2.040000e-06	2.216851e-06	6.170717e-09	1.491457e+01	4.070599e+02
2.050000e-06	2.179259e-06	6.171623e-09	1.466166e+01	4.018009e+02
2.060000e-06	2.140771e-06	5.993440e-09	1.440271e+01	3.964276e+02
2.070000e-06	2.101659e-06	5.934187e-09	1.413957e+01	3.909657e+02
2.080000e-06	2.061956e-06	5.891272e-09	1.387246e+01	3.854349e+02
2.090000e-06	2.021555e-06	5.770819e-09	1.360065e+01	3.798422e+02
2.100000e-06	1.980442e-06	5.692330e-09	1.332405e+01	3.741789e+02
2.110000e-06	1.938722e-06	5.584475e-09	1.304337e+01	3.684240e+02
2.120000e-06	1.896303e-06	5.509684e-09	1.275797e+01	3.625531e+02
2.130000e-06	1.853335e-06	5.445969e-09	1.246889e+01	3.565473e+02
2.140000e-06	1.809965e-06	5.326244e-09	1.217711e+01	3.504013e+02
2.150000e-06	1.765982e-06	5.230591e-09	1.188120e+01	3.441257e+02
2.160000e-06	1.721268e-06	5.140063e-09	1.158037e+01	3.377433e+02
2.170000e-06	1.675859e-06	5.047605e-09	1.127487e+01	3.312814e+02
2.180000e-06	1.629963e-06	4.945144e-09	1.096609e+01	3.247619e+02
2.190000e-06	1.583638e-06	4.834854e-09	1.065443e+01	3.181941e+02
2.200000e-06	1.536740e-06	4.740767e-09	1.033891e+01	3.115727e+02
2.210000e-06	1.489156e-06	4.634817e-09	1.001877e+01	3.048809e+02
2.220000e-06	1.440840e-06	4.542031e-09	9.693708e+00	2.980989e+02
2.230000e-06	1.391974e-06	4.448295e-09	9.364942e+00	2.912121e+02
2.240000e-06	1.342697e-06	4.318260e-09	9.033421e+00	2.842181e+02
2.250000e-06	1.292947e-06	4.221736e-09	8.698709e+00	2.771273e+02
2.260000e-06	1.242664e-06	4.128331e-09	8.360411e+00	2.699593e+02
2.270000e-06	1.191901e-06	4.004966e-09	8.018892e+00	2.627336e+02
2.280000e-06	1.140760e-06	3.890490e-09	7.674820e+00	2.554615e+02
2.290000e-06	1.089220e-06	3.772142e-09	7.328073e+00	2.481403e+02
2.300000e-06	1.037125e-06	3.672749e-09	6.977583e+00	2.407537e+02
2.310000e-06	9.844293e-07	3.567726e-09	6.623059e+00	2.332777e+02
2.320000e-06	9.310676e-07	3.443061e-09	6.264051e+00	2.256911e+02
2.330000e-06	8.770827e-07	3.325943e-09	5.900851e+00	2.179848e+02
2.340000e-06	8.227368e-07	3.207539e-09	5.535221e+00	2.101680e+02
2.350000e-06	7.680616e-07	3.089844e-09	5.167377e+00	2.022669e+02
2.360000e-06	7.131311e-07	2.967019e-09	4.797814e+00	1.943169e+02
2.370000e-06	6.580874e-07	2.844437e-09	4.427491e+00	1.863512e+02
2.380000e-06	6.029442e-07	2.730026e-09	4.056497e+00	1.783884e+02
2.390000e-06	5.476964e-07	2.612092e-09	3.684800e+00	1.704259e+02
2.400000e-06	4.922923e-07	2.492071e-09	3.312052e+00	1.624395e+02
2.410000e-06	4.367360e-07	2.367693e-09	2.938279e+00	1.543910e+02
2.420000e-06	3.811069e-07	2.238525e-09	2.564017e+00	1.462411e+02
2.430000e-06	3.253664e-07	2.116122e-09	2.189005e+00	1.379620e+02
2.440000e-06	2.694369e-07	1.991470e-09	1.812722e+00	1.295465e+02
2.450000e-06	2.133912e-07	1.863171e-09	1.435657e+00	1.210095e+02
2.460000e-06	1.573254e-07	1.732443e-09	1.058456e+00	1.123818e+02
2.470000e-06	1.012341e-07	1.598495e-09	6.810841e-01	1.036994e+02
2.480000e-06	4.510506e-08	1.470062e-09	3.034585e-01	9.499046e+01
2.490000e-06	-1.108992e-08	1.336902e-09	-7.461092e-02	8.626730e+01
2.500000e-06	-6.729330e-08	1.202017e-09	-4.527369e-01	7.752351e+01
2.510000e-06	-1.234323e-07	1.070493e-09	-8.304300e-01	6.873865e+01
2.520000e-06	-1.795687e-07	9.370338e-10	-1.208105e+00	5.988748e+01
2.530000e-06	-2.356199e-07	7.993407e-10	-1.585208e+00	5.094995e+01
2.540000e-06	-2.915212e-07	6.590929e-10	-1.961301e+00	4.191815e+01
2.550000e-06	-3.472701e-07	5.231156e-10	-2.336369e+00	3.279751e+01
2.560000e-06	-4.028711e-07	3.860652e-10	-2.710443e+00	2.360222e+01
2.570000e-06	-4.583279e-07	2.434029e-10	-3.083546e+00	1.434705e+01
2.580000e-06	-5.136262e-07	1.001438e-10	-3.455582e+00	5.039327e+00
2.590000e-06	-5.688339e-07	-4.012496e-11	-3.827009e+00	-4.325521e+00
2.600000e-06	-6.239614e-07	-1.820852e-10	-4.197897e+00	-1.376288e+01
2.610000e-06	-6.790046e-07	-3.275121e-10	-4.568217e+00	-2.329273e+01
2.620000e-06	-7.339368e-07	-4.759846e-10	-4.937792e+00	-3.293098e+01
2.630000e-06	-7.886495e-07	-6.257528e-10	-5.305888e+00	-4.268195e+01
2.640000e-06	-8.430515e-07	-7.741345e-10	-5.671895e+00	-5.253529e+01
2.650000e-06	-8.970433e-07	-9.242355e-10	-6.035142e+00	-6.246880e+01
2.660000e-06	-9.504259e-07	-1.078241e-09	-6.394290e+00	-7.245606e+01
2.670000e-06	-1.003136e-06	-1.232720e-09	-6.748913e+00	-8.247593e+01
2.680000e-06	-1.055284e-06	-1.383274e-09	-7.099758e+00	-9.252003e+01
2.690000e-06	-1.106954e-06	-1.533253e-09	-7.447381e+00	-1.025950e+02
2.700000e-06	-1.158229e-06	-1.687983e-09	-7.792351e+00	-1.127187e+02
2.710000e-06	-1.209132e-06	-1.846863e-09	-8.134814e+00	-1.229112e+02
2.720000e-06	-1.259651e-06	-2.004822e-09	-8.474698e+00	-1.331850e+02
2.730000e-06	-1.309662e-06	-2.160537e-09	-8.811164e+00	-1.435375e+02
2.740000e-06	-1.359143e-06	-2.317133e-09	-9.144065e+00	-1.539487e+02
2.750000e-06	-1.408201e-06	-2.475408e-09	-9.474113e+00	-1.643871e+02
2.760000e-06	-1.456602e-06	-2.633622e-09	-9.799749e+00	-1.748183e+02
2.770000e-06	-1.504064e-06	-2.791005e-09	-1.011907e+01	-1.852160e+02
2.780000e-06	-1.550645e-06	-2.948511e-09	-1.043245e+01	-1.955699e+02
2.790000e-06	-1.596623e-06	-3.106045e-09	-1.074179e+01	-2.058863e+02
2.800000e-06	-1.642184e-06	-3.265221e-09	-1.104831e+01	-2.161831e+02
2.810000e-06	-1.687391e-06	-3.424907e-09	-1.135245e+01	-2.264793e+02
2.820000e-06	-1.732145e-06	-3.583112e-09	-1.165355e+01	-2.367839e+02
2.830000e-06	-1.776248e-06	-3.738027e-09	-1.195027e+01	-2.470882e+02
2.840000e-06	-1.819783e-06	-3.891015e-09	-1.224316e+01	-2.573645e+02
2.850000e-06	-1.862948e-06	-4.046074e-09	-1.253357e+01	-2.675724e+02
2.860000e-06	-1.905677e-06	-4.201358e-09	-1.282105e+01	-2.776692e+02
2.870000e-06	-1.947717e-06	-4.353634e-09	-1.310388e+01	-2.876214e+02
2.880000e-06	-1.989068e-06	-4.503076e-09	-1.338208e+01	-2.974122e+02
2.890000e-06	-2.029756e-06	-4.650693e-09	-1.365582e+01	-3.070429e+02
2.900000e-06	-2.069667e-06	-4.796718e-09	-1.392434e+01	-3.165260e+02
2.910000e-06	-2.108982e-06	-4.940687e-09	-1.418884e+01	-3.258753e+02
2.920000e-06	-2.147793e-06	-5.081464e-09	-1.444995e+01	-3.350935e+02
2.930000e-06	-2.185717e-06	-5.217997e-09	-1.470510e+01	-3.441656e+02
2.940000e-06	-2.222462e-06	-5.351111e-09	-1.495232e+01	-3.530574e+02
