# Temperatura_=_27.04
# Concentracion g/m^3_=_18700.0
# C_Vs_to_Am_M_A/Vsm_=_65563218390.804596
# pendiente_HvsI_1/m_=_3716.3
# ordenada_HvsI_A/m_=_1297.0
# frecuencia_Hz_=_301057.02164536883

Tiempo_(s)	Campo_(V.s)	Magnetizacion_(V.s)	Campo_(kA/m)	Magnetizacion_(A/m)
0.000000e+00	-2.944257e-06	-7.863474e-09	-1.977749e+01	-5.133299e+02
1.000000e-08	-2.943092e-06	-7.866837e-09	-1.976966e+01	-5.132841e+02
2.000000e-08	-2.940842e-06	-7.865927e-09	-1.975455e+01	-5.131237e+02
3.000000e-08	-2.937328e-06	-7.863689e-09	-1.973094e+01	-5.128239e+02
4.000000e-08	-2.932823e-06	-7.858692e-09	-1.970068e+01	-5.123472e+02
5.000000e-08	-2.927506e-06	-7.847205e-09	-1.966496e+01	-5.116582e+02
6.000000e-08	-2.921279e-06	-7.830758e-09	-1.962314e+01	-5.107394e+02
7.000000e-08	-2.914025e-06	-7.813326e-09	-1.957441e+01	-5.096004e+02
8.000000e-08	-2.905691e-06	-7.802053e-09	-1.951843e+01	-5.082770e+02
9.000000e-08	-2.895991e-06	-7.791120e-09	-1.945326e+01	-5.068204e+02
1.000000e-07	-2.884785e-06	-7.758859e-09	-1.937799e+01	-5.052801e+02
1.100000e-07	-2.872528e-06	-7.696950e-09	-1.929566e+01	-5.036865e+02
1.200000e-07	-2.859521e-06	-7.659648e-09	-1.920829e+01	-5.020401e+02
1.300000e-07	-2.845529e-06	-7.667192e-09	-1.911430e+01	-5.003116e+02
1.400000e-07	-2.830376e-06	-7.676190e-09	-1.901251e+01	-4.984522e+02
1.500000e-07	-2.814127e-06	-7.593611e-09	-1.890336e+01	-4.964120e+02
1.600000e-07	-2.796694e-06	-7.559760e-09	-1.878626e+01	-4.941575e+02
1.700000e-07	-2.778116e-06	-7.560054e-09	-1.866147e+01	-4.916839e+02
1.800000e-07	-2.758736e-06	-7.466573e-09	-1.853128e+01	-4.890169e+02
1.900000e-07	-2.738632e-06	-7.413315e-09	-1.839624e+01	-4.862023e+02
2.000000e-07	-2.717580e-06	-7.399404e-09	-1.825482e+01	-4.832894e+02
2.100000e-07	-2.695531e-06	-7.339863e-09	-1.810671e+01	-4.803125e+02
2.200000e-07	-2.672660e-06	-7.285984e-09	-1.795308e+01	-4.772785e+02
2.300000e-07	-2.648979e-06	-7.279954e-09	-1.779401e+01	-4.741636e+02
2.400000e-07	-2.624491e-06	-7.210270e-09	-1.762952e+01	-4.709223e+02
2.500000e-07	-2.599155e-06	-7.105101e-09	-1.745933e+01	-4.675027e+02
2.600000e-07	-2.572581e-06	-7.057116e-09	-1.728082e+01	-4.638645e+02
2.700000e-07	-2.544737e-06	-7.034905e-09	-1.709379e+01	-4.599924e+02
2.800000e-07	-2.516036e-06	-6.968483e-09	-1.690099e+01	-4.559002e+02
2.900000e-07	-2.486519e-06	-6.897395e-09	-1.670271e+01	-4.516252e+02
3.000000e-07	-2.456148e-06	-6.826956e-09	-1.649871e+01	-4.472148e+02
3.100000e-07	-2.425042e-06	-6.780835e-09	-1.628976e+01	-4.427111e+02
3.200000e-07	-2.393186e-06	-6.707575e-09	-1.607577e+01	-4.381380e+02
3.300000e-07	-2.360666e-06	-6.592444e-09	-1.585733e+01	-4.334968e+02
3.400000e-07	-2.327452e-06	-6.546035e-09	-1.563422e+01	-4.287694e+02
3.500000e-07	-2.293208e-06	-6.495622e-09	-1.540418e+01	-4.239286e+02
3.600000e-07	-2.257791e-06	-6.407102e-09	-1.516628e+01	-4.189504e+02
3.700000e-07	-2.221449e-06	-6.334853e-09	-1.492216e+01	-4.138241e+02
3.800000e-07	-2.184443e-06	-6.247025e-09	-1.467358e+01	-4.085565e+02
3.900000e-07	-2.146801e-06	-6.133294e-09	-1.442072e+01	-4.031681e+02
4.000000e-07	-2.108359e-06	-6.071699e-09	-1.416250e+01	-3.976856e+02
4.100000e-07	-2.069092e-06	-5.999427e-09	-1.389873e+01	-3.921315e+02
4.200000e-07	-2.029106e-06	-5.893471e-09	-1.363013e+01	-3.865160e+02
4.300000e-07	-1.988566e-06	-5.814921e-09	-1.335781e+01	-3.808347e+02
4.400000e-07	-1.947532e-06	-5.737997e-09	-1.308217e+01	-3.750708e+02
4.500000e-07	-1.905759e-06	-5.644634e-09	-1.280157e+01	-3.692030e+02
4.600000e-07	-1.863046e-06	-5.540349e-09	-1.251466e+01	-3.632133e+02
4.700000e-07	-1.819376e-06	-5.439046e-09	-1.222131e+01	-3.570937e+02
4.800000e-07	-1.774983e-06	-5.348619e-09	-1.192311e+01	-3.508486e+02
4.900000e-07	-1.730092e-06	-5.267235e-09	-1.162156e+01	-3.444921e+02
5.000000e-07	-1.684674e-06	-5.165827e-09	-1.131648e+01	-3.380424e+02
5.100000e-07	-1.638644e-06	-5.059450e-09	-1.100728e+01	-3.315152e+02
5.200000e-07	-1.592035e-06	-4.959294e-09	-1.069419e+01	-3.249186e+02
5.300000e-07	-1.544901e-06	-4.858079e-09	-1.037758e+01	-3.182518e+02
5.400000e-07	-1.497161e-06	-4.757288e-09	-1.005690e+01	-3.115072e+02
5.500000e-07	-1.448869e-06	-4.648477e-09	-9.732504e+00	-3.046746e+02
5.600000e-07	-1.400199e-06	-4.535589e-09	-9.405569e+00	-2.977466e+02
5.700000e-07	-1.351094e-06	-4.428721e-09	-9.075718e+00	-2.907220e+02
5.800000e-07	-1.301340e-06	-4.329624e-09	-8.741504e+00	-2.836060e+02
5.900000e-07	-1.250765e-06	-4.213857e-09	-8.401777e+00	-2.764089e+02
6.000000e-07	-1.199400e-06	-4.094990e-09	-8.056739e+00	-2.691411e+02
6.100000e-07	-1.147491e-06	-3.986557e-09	-7.708051e+00	-2.618101e+02
6.200000e-07	-1.095210e-06	-3.879054e-09	-7.356862e+00	-2.544171e+02
6.300000e-07	-1.042578e-06	-3.764377e-09	-7.003319e+00	-2.469573e+02
6.400000e-07	-9.895982e-07	-3.642209e-09	-6.647437e+00	-2.394221e+02
6.500000e-07	-9.362463e-07	-3.523792e-09	-6.289056e+00	-2.318029e+02
6.600000e-07	-8.824797e-07	-3.408675e-09	-5.927889e+00	-2.240946e+02
6.700000e-07	-8.283614e-07	-3.294729e-09	-5.564359e+00	-2.162985e+02
6.800000e-07	-7.740110e-07	-3.174505e-09	-5.199271e+00	-2.084222e+02
6.900000e-07	-7.194435e-07	-3.051698e-09	-4.832724e+00	-2.004778e+02
7.000000e-07	-6.646223e-07	-2.928898e-09	-4.464473e+00	-1.924786e+02
7.100000e-07	-6.095958e-07	-2.806181e-09	-4.094843e+00	-1.844349e+02
7.200000e-07	-5.543897e-07	-2.678891e-09	-3.724007e+00	-1.763511e+02
7.300000e-07	-4.989566e-07	-2.549308e-09	-3.351646e+00	-1.682241e+02
7.400000e-07	-4.433289e-07	-2.425319e-09	-2.977977e+00	-1.600441e+02
7.500000e-07	-3.875258e-07	-2.303386e-09	-2.603130e+00	-1.517969e+02
7.600000e-07	-3.315353e-07	-2.179994e-09	-2.227025e+00	-1.434680e+02
7.700000e-07	-2.754124e-07	-2.048094e-09	-1.850030e+00	-1.350460e+02
7.800000e-07	-2.191618e-07	-1.914538e-09	-1.472177e+00	-1.265260e+02
7.900000e-07	-1.628279e-07	-1.782777e-09	-1.093765e+00	-1.179105e+02
8.000000e-07	-1.064773e-07	-1.647425e-09	-7.152407e-01	-1.092090e+02
8.100000e-07	-5.013700e-08	-1.509878e-09	-3.367857e-01	-1.004354e+02
8.200000e-07	6.209175e-09	-1.374233e-09	4.170895e-02	-9.160387e+01
8.300000e-07	6.255541e-08	-1.241143e-09	4.202040e-01	-8.272533e+01
8.400000e-07	1.188698e-07	-1.106333e-09	7.984852e-01	-7.380429e+01
8.500000e-07	1.751636e-07	-9.694122e-10	1.176628e+00	-6.483787e+01
8.600000e-07	2.314024e-07	-8.311134e-10	1.554401e+00	-5.581699e+01
8.700000e-07	2.875574e-07	-6.930238e-10	1.931612e+00	-4.672937e+01
8.800000e-07	3.436221e-07	-5.521503e-10	2.308216e+00	-3.756355e+01
8.900000e-07	3.995466e-07	-4.078917e-10	2.683878e+00	-2.831234e+01
9.000000e-07	4.552730e-07	-2.629702e-10	3.058210e+00	-1.897480e+01
9.100000e-07	5.108165e-07	-1.185918e-10	3.431312e+00	-9.555723e+00
9.200000e-07	5.661945e-07	2.406679e-11	3.803304e+00	-6.304830e-02
9.300000e-07	6.213876e-07	1.677423e-10	4.174052e+00	9.496071e+00
9.400000e-07	6.763306e-07	3.137325e-10	4.543122e+00	1.911888e+01
9.500000e-07	7.310164e-07	4.627746e-10	4.910463e+00	2.880892e+01
9.600000e-07	7.855063e-07	6.125879e-10	5.276488e+00	3.857541e+01
9.700000e-07	8.397636e-07	7.637347e-10	5.640951e+00	4.843001e+01
9.800000e-07	8.937059e-07	9.165886e-10	6.003298e+00	5.838233e+01
9.900000e-07	9.473177e-07	1.072002e-09	6.363426e+00	6.843572e+01
1.000000e-06	1.000548e-06	1.226748e-09	6.720990e+00	7.858500e+01
1.010000e-06	1.053391e-06	1.380830e-09	7.075954e+00	8.881731e+01
1.020000e-06	1.105904e-06	1.538275e-09	7.428699e+00	9.911559e+01
1.030000e-06	1.158010e-06	1.697212e-09	7.778713e+00	1.094637e+02
1.040000e-06	1.209599e-06	1.855138e-09	8.125249e+00	1.198512e+02
1.050000e-06	1.260462e-06	2.011494e-09	8.466912e+00	1.302752e+02
1.060000e-06	1.310539e-06	2.170466e-09	8.803298e+00	1.407397e+02
1.070000e-06	1.359939e-06	2.331854e-09	9.135130e+00	1.512516e+02
1.080000e-06	1.408796e-06	2.495264e-09	9.463315e+00	1.618149e+02
1.090000e-06	1.457289e-06	2.658107e-09	9.789063e+00	1.724265e+02
1.100000e-06	1.505418e-06	2.820579e-09	1.011236e+01	1.830741e+02
1.110000e-06	1.553040e-06	2.983109e-09	1.043225e+01	1.937378e+02
1.120000e-06	1.600040e-06	3.143926e-09	1.074797e+01	2.043953e+02
1.130000e-06	1.646517e-06	3.303616e-09	1.106017e+01	2.150272e+02
1.140000e-06	1.692492e-06	3.461731e-09	1.136899e+01	2.256221e+02
1.150000e-06	1.737878e-06	3.622694e-09	1.167386e+01	2.361771e+02
1.160000e-06	1.782761e-06	3.786950e-09	1.197535e+01	2.466954e+02
1.170000e-06	1.827229e-06	3.951432e-09	1.227406e+01	2.571795e+02
1.180000e-06	1.871143e-06	4.113015e-09	1.256905e+01	2.676252e+02
1.190000e-06	1.914181e-06	4.270483e-09	1.285814e+01	2.780161e+02
1.200000e-06	1.956137e-06	4.425336e-09	1.313998e+01	2.883243e+02
1.210000e-06	1.997233e-06	4.577757e-09	1.341603e+01	2.985137e+02
1.220000e-06	2.037785e-06	4.727708e-09	1.368843e+01	3.085486e+02
1.230000e-06	2.077736e-06	4.876347e-09	1.395680e+01	3.184013e+02
1.240000e-06	2.116973e-06	5.025074e-09	1.422036e+01	3.280573e+02
1.250000e-06	2.155491e-06	5.172779e-09	1.447910e+01	3.375159e+02
1.260000e-06	2.193263e-06	5.315397e-09	1.473282e+01	3.467846e+02
1.270000e-06	2.230343e-06	5.451178e-09	1.498190e+01	3.558707e+02
1.280000e-06	2.266879e-06	5.583000e-09	1.522733e+01	3.647722e+02
1.290000e-06	2.302737e-06	5.713061e-09	1.546819e+01	3.734725e+02
1.300000e-06	2.337479e-06	5.839562e-09	1.570157e+01	3.819410e+02
1.310000e-06	2.371044e-06	5.960825e-09	1.592704e+01	3.901391e+02
1.320000e-06	2.403786e-06	6.079166e-09	1.614698e+01	3.980301e+02
1.330000e-06	2.435806e-06	6.196084e-09	1.636206e+01	4.055900e+02
1.340000e-06	2.467024e-06	6.308205e-09	1.657176e+01	4.128130e+02
1.350000e-06	2.497453e-06	6.411876e-09	1.677617e+01	4.197121e+02
1.360000e-06	2.527043e-06	6.507260e-09	1.697493e+01	4.263126e+02
1.370000e-06	2.555869e-06	6.599625e-09	1.716856e+01	4.326429e+02
1.380000e-06	2.584007e-06	6.690854e-09	1.735757e+01	4.387241e+02
1.390000e-06	2.611052e-06	6.779697e-09	1.753924e+01	4.445650e+02
1.400000e-06	2.636771e-06	6.865290e-09	1.771201e+01	4.501616e+02
1.410000e-06	2.661440e-06	6.945363e-09	1.787771e+01	4.555040e+02
1.420000e-06	2.685270e-06	7.020780e-09	1.803779e+01	4.605846e+02
1.430000e-06	2.708225e-06	7.092743e-09	1.819198e+01	4.654058e+02
1.440000e-06	2.730235e-06	7.161743e-09	1.833983e+01	4.699830e+02
1.450000e-06	2.751397e-06	7.226238e-09	1.848198e+01	4.743407e+02
1.460000e-06	2.771827e-06	7.288156e-09	1.861922e+01	4.785038e+02
1.470000e-06	2.791393e-06	7.349899e-09	1.875065e+01	4.824867e+02
1.480000e-06	2.809840e-06	7.408111e-09	1.887456e+01	4.862854e+02
1.490000e-06	2.827251e-06	7.459201e-09	1.899152e+01	4.898764e+02
1.500000e-06	2.843718e-06	7.504738e-09	1.910213e+01	4.932228e+02
1.510000e-06	2.859077e-06	7.548485e-09	1.920530e+01	4.962873e+02
1.520000e-06	2.873319e-06	7.589946e-09	1.930097e+01	4.990455e+02
1.530000e-06	2.886505e-06	7.626279e-09	1.938954e+01	5.014966e+02
1.540000e-06	2.898568e-06	7.656663e-09	1.947058e+01	5.036659e+02
1.550000e-06	2.909399e-06	7.684557e-09	1.954333e+01	5.055980e+02
1.560000e-06	2.918977e-06	7.711168e-09	1.960767e+01	5.073436e+02
1.570000e-06	2.927483e-06	7.734772e-09	1.966481e+01	5.089436e+02
1.580000e-06	2.934998e-06	7.756331e-09	1.971529e+01	5.104178e+02
1.590000e-06	2.941461e-06	7.775878e-09	1.975870e+01	5.117610e+02
1.600000e-06	2.946970e-06	7.791532e-09	1.979571e+01	5.129484e+02
1.610000e-06	2.951672e-06	7.804252e-09	1.982729e+01	5.139488e+02
1.620000e-06	2.955388e-06	7.814865e-09	1.985225e+01	5.147385e+02
1.630000e-06	2.957825e-06	7.823108e-09	1.986863e+01	5.153129e+02
1.640000e-06	2.959058e-06	7.828581e-09	1.987691e+01	5.156886e+02
1.650000e-06	2.959295e-06	7.832536e-09	1.987850e+01	5.158971e+02
1.660000e-06	2.958621e-06	7.835916e-09	1.987397e+01	5.159719e+02
1.670000e-06	2.957050e-06	7.835236e-09	1.986342e+01	5.159339e+02
1.680000e-06	2.954580e-06	7.829840e-09	1.984683e+01	5.157824e+02
1.690000e-06	2.951325e-06	7.820942e-09	1.982496e+01	5.154938e+02
1.700000e-06	2.947215e-06	7.810462e-09	1.979735e+01	5.150311e+02
1.710000e-06	2.941926e-06	7.800209e-09	1.976182e+01	5.143582e+02
1.720000e-06	2.935455e-06	7.788779e-09	1.971836e+01	5.134560e+02
1.730000e-06	2.928087e-06	7.774463e-09	1.966886e+01	5.123318e+02
1.740000e-06	2.919692e-06	7.738553e-09	1.961247e+01	5.110201e+02
1.750000e-06	2.909745e-06	7.708963e-09	1.954566e+01	5.095713e+02
1.760000e-06	2.898165e-06	7.700468e-09	1.946787e+01	5.080358e+02
1.770000e-06	2.885822e-06	7.723495e-09	1.938496e+01	5.064457e+02
1.780000e-06	2.873356e-06	7.677561e-09	1.930122e+01	5.048038e+02
1.790000e-06	2.859918e-06	7.592185e-09	1.921095e+01	5.030826e+02
1.800000e-06	2.844763e-06	7.606649e-09	1.910915e+01	5.012345e+02
1.810000e-06	2.828545e-06	7.610088e-09	1.900021e+01	4.992086e+02
1.820000e-06	2.811708e-06	7.533340e-09	1.888711e+01	4.969700e+02
1.830000e-06	2.793838e-06	7.482903e-09	1.876707e+01	4.945117e+02
1.840000e-06	2.774955e-06	7.504899e-09	1.864023e+01	4.918572e+02
1.850000e-06	2.755347e-06	7.444899e-09	1.850852e+01	4.890515e+02
1.860000e-06	2.734583e-06	7.357964e-09	1.836904e+01	4.861442e+02
1.870000e-06	2.712411e-06	7.377217e-09	1.822010e+01	4.831715e+02
1.880000e-06	2.689253e-06	7.307441e-09	1.806455e+01	4.801420e+02
1.890000e-06	2.665212e-06	7.201350e-09	1.790305e+01	4.770344e+02
1.900000e-06	2.640253e-06	7.237744e-09	1.773540e+01	4.738039e+02
1.910000e-06	2.614578e-06	7.203215e-09	1.756293e+01	4.703987e+02
1.920000e-06	2.588114e-06	7.096876e-09	1.738516e+01	4.667770e+02
1.930000e-06	2.560783e-06	7.046352e-09	1.720157e+01	4.629216e+02
1.940000e-06	2.532627e-06	6.984812e-09	1.701244e+01	4.588442e+02
1.950000e-06	2.503269e-06	6.921316e-09	1.681523e+01	4.545808e+02
1.960000e-06	2.472659e-06	6.859392e-09	1.660961e+01	4.501786e+02
1.970000e-06	2.441198e-06	6.763888e-09	1.639828e+01	4.456805e+02
1.980000e-06	2.408936e-06	6.723141e-09	1.618157e+01	4.411122e+02
1.990000e-06	2.375887e-06	6.686202e-09	1.595957e+01	4.364764e+02
2.000000e-06	2.342138e-06	6.555348e-09	1.573286e+01	4.317561e+02
2.010000e-06	2.307645e-06	6.484130e-09	1.550117e+01	4.269243e+02
2.020000e-06	2.272483e-06	6.431354e-09	1.526497e+01	4.219565e+02
2.030000e-06	2.236555e-06	6.321265e-09	1.502363e+01	4.168409e+02
2.040000e-06	2.199490e-06	6.276256e-09	1.477465e+01	4.115829e+02
2.050000e-06	2.161333e-06	6.209778e-09	1.451834e+01	4.062023e+02
2.060000e-06	2.122429e-06	6.088077e-09	1.425701e+01	4.007258e+02
2.070000e-06	2.082935e-06	6.022138e-09	1.399172e+01	3.951764e+02
2.080000e-06	2.042820e-06	5.940216e-09	1.372225e+01	3.895654e+02
2.090000e-06	2.001969e-06	5.832981e-09	1.344784e+01	3.838892e+02
2.100000e-06	1.960479e-06	5.754435e-09	1.316914e+01	3.781321e+02
2.110000e-06	1.918388e-06	5.664587e-09	1.288641e+01	3.722724e+02
2.120000e-06	1.875676e-06	5.587729e-09	1.259949e+01	3.662919e+02
2.130000e-06	1.832477e-06	5.499827e-09	1.230931e+01	3.601817e+02
2.140000e-06	1.788709e-06	5.384552e-09	1.201531e+01	3.539453e+02
2.150000e-06	1.744209e-06	5.292089e-09	1.171639e+01	3.475962e+02
2.160000e-06	1.699011e-06	5.197816e-09	1.141278e+01	3.411526e+02
2.170000e-06	1.653241e-06	5.100179e-09	1.110533e+01	3.346306e+02
2.180000e-06	1.606987e-06	5.000823e-09	1.079463e+01	3.280390e+02
2.190000e-06	1.560216e-06	4.893552e-09	1.048046e+01	3.213775e+02
2.200000e-06	1.512889e-06	4.790607e-09	1.016254e+01	3.146389e+02
2.210000e-06	1.464868e-06	4.692431e-09	9.839973e+00	3.078129e+02
2.220000e-06	1.416183e-06	4.590818e-09	9.512938e+00	3.008920e+02
2.230000e-06	1.367057e-06	4.479052e-09	9.182944e+00	2.938742e+02
2.240000e-06	1.317432e-06	4.367080e-09	8.849599e+00	2.867646e+02
2.250000e-06	1.267242e-06	4.269242e-09	8.512457e+00	2.795729e+02
2.260000e-06	1.216554e-06	4.162070e-09	8.171972e+00	2.723100e+02
2.270000e-06	1.165458e-06	4.041912e-09	7.828744e+00	2.649835e+02
2.280000e-06	1.113963e-06	3.927675e-09	7.482837e+00	2.575950e+02
2.290000e-06	1.061939e-06	3.813670e-09	7.133371e+00	2.501403e+02
2.300000e-06	1.009327e-06	3.706524e-09	6.779959e+00	2.426109e+02
2.310000e-06	9.561298e-07	3.591980e-09	6.422619e+00	2.349980e+02
2.320000e-06	9.023041e-07	3.470371e-09	6.061055e+00	2.272963e+02
2.330000e-06	8.480147e-07	3.352906e-09	5.696377e+00	2.195063e+02
2.340000e-06	7.934568e-07	3.231929e-09	5.329895e+00	2.116355e+02
2.350000e-06	7.386270e-07	3.110127e-09	4.961586e+00	2.036956e+02
2.360000e-06	6.835794e-07	2.985151e-09	4.591814e+00	1.956999e+02
2.370000e-06	6.284146e-07	2.863605e-09	4.221255e+00	1.876593e+02
2.380000e-06	5.731384e-07	2.748338e-09	3.849948e+00	1.795784e+02
2.390000e-06	5.177414e-07	2.628577e-09	3.477829e+00	1.714548e+02
2.400000e-06	4.622072e-07	2.502933e-09	3.104789e+00	1.632791e+02
2.410000e-06	4.065331e-07	2.374593e-09	2.730808e+00	1.550373e+02
2.420000e-06	3.507525e-07	2.247057e-09	2.356113e+00	1.467148e+02
2.430000e-06	2.948386e-07	2.121646e-09	1.980522e+00	1.382998e+02
2.440000e-06	2.387775e-07	1.993988e-09	1.603942e+00	1.297868e+02
2.450000e-06	1.826019e-07	1.864806e-09	1.226594e+00	1.211779e+02
2.460000e-06	1.263488e-07	1.733848e-09	8.487238e-01	1.124823e+02
2.470000e-06	7.007009e-08	1.600325e-09	4.706825e-01	1.037134e+02
2.480000e-06	1.376829e-08	1.467397e-09	9.248584e-02	9.488568e+01
2.490000e-06	-4.256480e-08	1.331737e-09	-2.859209e-01	8.601034e+01
2.500000e-06	-9.888245e-08	1.195745e-09	-6.642240e-01	7.709242e+01
2.510000e-06	-1.551121e-07	1.060229e-09	-1.041936e+00	6.812957e+01
2.520000e-06	-2.112499e-07	9.229445e-10	-1.419031e+00	5.911304e+01
2.530000e-06	-2.673128e-07	7.846232e-10	-1.795623e+00	5.003069e+01
2.540000e-06	-3.232287e-07	6.454016e-10	-2.171227e+00	4.087083e+01
2.550000e-06	-3.789915e-07	5.060841e-10	-2.545803e+00	3.162591e+01
2.560000e-06	-4.345889e-07	3.649818e-10	-2.919268e+00	2.229451e+01
2.570000e-06	-4.900651e-07	2.220682e-10	-3.291919e+00	1.288110e+01
2.580000e-06	-5.454300e-07	7.875878e-11	-3.663822e+00	3.393487e+00
2.590000e-06	-6.006668e-07	-6.533724e-11	-4.034865e+00	-6.160968e+00
2.600000e-06	-6.557928e-07	-2.138222e-10	-4.405163e+00	-1.577910e+01
2.610000e-06	-7.107851e-07	-3.625306e-10	-4.774563e+00	-2.546402e+01
2.620000e-06	-7.656290e-07	-5.093789e-10	-5.142966e+00	-3.522458e+01
2.630000e-06	-8.202680e-07	-6.567066e-10	-5.509994e+00	-4.507244e+01
2.640000e-06	-8.745178e-07	-8.078322e-10	-5.874406e+00	-5.501750e+01
2.650000e-06	-9.282522e-07	-9.644220e-10	-6.235357e+00	-6.506365e+01
2.660000e-06	-9.814224e-07	-1.120916e-09	-6.592518e+00	-7.520636e+01
2.670000e-06	-1.034000e-06	-1.275178e-09	-6.945700e+00	-8.543320e+01
2.680000e-06	-1.086037e-06	-1.429694e-09	-7.295249e+00	-9.572727e+01
2.690000e-06	-1.137601e-06	-1.587031e-09	-7.641620e+00	-1.060722e+02
2.700000e-06	-1.188731e-06	-1.746020e-09	-7.985074e+00	-1.164570e+02
2.710000e-06	-1.239436e-06	-1.904553e-09	-8.325672e+00	-1.268782e+02
2.720000e-06	-1.289698e-06	-2.063208e-09	-8.663297e+00	-1.373395e+02
2.730000e-06	-1.339424e-06	-2.225757e-09	-8.997322e+00	-1.478477e+02
2.740000e-06	-1.388675e-06	-2.390593e-09	-9.328157e+00	-1.584073e+02
2.750000e-06	-1.437479e-06	-2.551803e-09	-9.655988e+00	-1.690157e+02
2.760000e-06	-1.485611e-06	-2.709605e-09	-9.979309e+00	-1.796612e+02
2.770000e-06	-1.532884e-06	-2.868964e-09	-1.029685e+01	-1.903245e+02
2.780000e-06	-1.579369e-06	-3.032091e-09	-1.060911e+01	-2.009830e+02
2.790000e-06	-1.625255e-06	-3.196291e-09	-1.091734e+01	-2.116172e+02
2.800000e-06	-1.670713e-06	-3.358645e-09	-1.122270e+01	-2.222148e+02
2.810000e-06	-1.715797e-06	-3.520692e-09	-1.152554e+01	-2.327725e+02
2.820000e-06	-1.760326e-06	-3.683996e-09	-1.182465e+01	-2.432932e+02
2.830000e-06	-1.804188e-06	-3.844464e-09	-1.211929e+01	-2.537797e+02
2.840000e-06	-1.847507e-06	-4.000234e-09	-1.241028e+01	-2.642284e+02
2.850000e-06	-1.890411e-06	-4.155445e-09	-1.269847e+01	-2.746240e+02
2.860000e-06	-1.932725e-06	-4.312109e-09	-1.298271e+01	-2.849391e+02
2.870000e-06	-1.974334e-06	-4.469096e-09	-1.326221e+01	-2.951382e+02
2.880000e-06	-2.015319e-06	-4.623804e-09	-1.353752e+01	-3.051851e+02
2.890000e-06	-2.055657e-06	-4.774581e-09	-1.380849e+01	-3.150514e+02
2.900000e-06	-2.095334e-06	-4.922606e-09	-1.407501e+01	-3.247215e+02
2.910000e-06	-2.134405e-06	-5.068804e-09	-1.433746e+01	-3.341939e+02
2.920000e-06	-2.172781e-06	-5.212302e-09	-1.459524e+01	-3.434758e+02
2.930000e-06	-2.210142e-06	-5.351379e-09	-1.484621e+01	-3.525748e+02
2.940000e-06	-2.246389e-06	-5.487199e-09	-1.508969e+01	-3.614898e+02
