# Temperatura_=_19.12
# Concentracion g/m^3_=_18700.0
# C_Vs_to_Am_M_A/Vsm_=_65563218390.804596
# pendiente_HvsI_1/m_=_3716.3
# ordenada_HvsI_A/m_=_1297.0
# frecuencia_Hz_=_301074.79733406345

Tiempo_(s)	Campo_(V.s)	Magnetizacion_(V.s)	Campo_(kA/m)	Magnetizacion_(A/m)
0.000000e+00	-2.945609e-06	-7.599113e-09	-1.977317e+01	-4.963273e+02
1.000000e-08	-2.945040e-06	-7.602432e-09	-1.976935e+01	-4.964093e+02
2.000000e-08	-2.943605e-06	-7.604789e-09	-1.975972e+01	-4.963296e+02
3.000000e-08	-2.940931e-06	-7.603470e-09	-1.974177e+01	-4.960650e+02
4.000000e-08	-2.937081e-06	-7.598011e-09	-1.971592e+01	-4.955992e+02
5.000000e-08	-2.932379e-06	-7.588792e-09	-1.968436e+01	-4.949298e+02
6.000000e-08	-2.926823e-06	-7.575792e-09	-1.964706e+01	-4.940699e+02
7.000000e-08	-2.920294e-06	-7.563755e-09	-1.960323e+01	-4.930446e+02
8.000000e-08	-2.912778e-06	-7.553552e-09	-1.955278e+01	-4.918821e+02
9.000000e-08	-2.904181e-06	-7.527181e-09	-1.949507e+01	-4.906048e+02
1.000000e-07	-2.894110e-06	-7.484433e-09	-1.942747e+01	-4.892218e+02
1.100000e-07	-2.882596e-06	-7.454921e-09	-1.935018e+01	-4.877273e+02
1.200000e-07	-2.870176e-06	-7.457594e-09	-1.926680e+01	-4.861034e+02
1.300000e-07	-2.856977e-06	-7.423806e-09	-1.917820e+01	-4.843277e+02
1.400000e-07	-2.842728e-06	-7.351631e-09	-1.908256e+01	-4.823826e+02
1.500000e-07	-2.827273e-06	-7.371468e-09	-1.897881e+01	-4.802614e+02
1.600000e-07	-2.810643e-06	-7.358295e-09	-1.886717e+01	-4.779715e+02
1.700000e-07	-2.792845e-06	-7.252284e-09	-1.874770e+01	-4.755321e+02
1.800000e-07	-2.774021e-06	-7.208029e-09	-1.862134e+01	-4.729683e+02
1.900000e-07	-2.754432e-06	-7.207927e-09	-1.848985e+01	-4.703036e+02
2.000000e-07	-2.734080e-06	-7.136330e-09	-1.835322e+01	-4.675532e+02
2.100000e-07	-2.712768e-06	-7.068267e-09	-1.821017e+01	-4.647206e+02
2.200000e-07	-2.690554e-06	-7.070100e-09	-1.806105e+01	-4.617968e+02
2.300000e-07	-2.667531e-06	-7.015383e-09	-1.790650e+01	-4.587638e+02
2.400000e-07	-2.643595e-06	-6.943519e-09	-1.774582e+01	-4.555989e+02
2.500000e-07	-2.618856e-06	-6.902304e-09	-1.757975e+01	-4.522796e+02
2.600000e-07	-2.593142e-06	-6.825383e-09	-1.740714e+01	-4.487876e+02
2.700000e-07	-2.566150e-06	-6.771900e-09	-1.722595e+01	-4.451120e+02
2.800000e-07	-2.538109e-06	-6.750615e-09	-1.703772e+01	-4.412499e+02
2.900000e-07	-2.509245e-06	-6.659195e-09	-1.684396e+01	-4.372074e+02
3.000000e-07	-2.479542e-06	-6.590180e-09	-1.664457e+01	-4.329980e+02
3.100000e-07	-2.449028e-06	-6.550264e-09	-1.643974e+01	-4.286414e+02
3.200000e-07	-2.417754e-06	-6.466076e-09	-1.622981e+01	-4.241600e+02
3.300000e-07	-2.385720e-06	-6.391347e-09	-1.601477e+01	-4.195754e+02
3.400000e-07	-2.353017e-06	-6.330774e-09	-1.579524e+01	-4.149038e+02
3.500000e-07	-2.319602e-06	-6.248068e-09	-1.557093e+01	-4.101524e+02
3.600000e-07	-2.285110e-06	-6.181764e-09	-1.533940e+01	-4.053181e+02
3.700000e-07	-2.249438e-06	-6.129534e-09	-1.509994e+01	-4.003883e+02
3.800000e-07	-2.212925e-06	-6.025608e-09	-1.485484e+01	-3.953452e+02
3.900000e-07	-2.175763e-06	-5.932291e-09	-1.460538e+01	-3.901723e+02
4.000000e-07	-2.137896e-06	-5.864974e-09	-1.435118e+01	-3.848607e+02
4.100000e-07	-2.099218e-06	-5.784796e-09	-1.409155e+01	-3.794126e+02
4.200000e-07	-2.059738e-06	-5.695201e-09	-1.382653e+01	-3.738423e+02
4.300000e-07	-2.019610e-06	-5.615122e-09	-1.355716e+01	-3.681720e+02
4.400000e-07	-1.979010e-06	-5.530843e-09	-1.328462e+01	-3.624246e+02
4.500000e-07	-1.937874e-06	-5.438703e-09	-1.300849e+01	-3.566162e+02
4.600000e-07	-1.895813e-06	-5.346150e-09	-1.272614e+01	-3.507504e+02
4.700000e-07	-1.852644e-06	-5.242890e-09	-1.243636e+01	-3.448175e+02
4.800000e-07	-1.808638e-06	-5.150083e-09	-1.214096e+01	-3.387976e+02
4.900000e-07	-1.764111e-06	-5.067566e-09	-1.184205e+01	-3.326686e+02
5.000000e-07	-1.719136e-06	-4.980702e-09	-1.154015e+01	-3.264143e+02
5.100000e-07	-1.673553e-06	-4.883023e-09	-1.123416e+01	-3.200310e+02
5.200000e-07	-1.627353e-06	-4.783884e-09	-1.092403e+01	-3.135292e+02
5.300000e-07	-1.580605e-06	-4.677586e-09	-1.061022e+01	-3.069299e+02
5.400000e-07	-1.533230e-06	-4.572577e-09	-1.029221e+01	-3.002575e+02
5.500000e-07	-1.485296e-06	-4.469033e-09	-9.970439e+00	-2.935310e+02
5.600000e-07	-1.436952e-06	-4.361164e-09	-9.645914e+00	-2.867579e+02
5.700000e-07	-1.388147e-06	-4.260310e-09	-9.318298e+00	-2.799323e+02
5.800000e-07	-1.338759e-06	-4.159785e-09	-8.986766e+00	-2.730382e+02
5.900000e-07	-1.288696e-06	-4.053419e-09	-8.650707e+00	-2.660562e+02
6.000000e-07	-1.237808e-06	-3.940430e-09	-8.309107e+00	-2.589714e+02
6.100000e-07	-1.186250e-06	-3.829817e-09	-7.963015e+00	-2.517794e+02
6.200000e-07	-1.134225e-06	-3.719089e-09	-7.613785e+00	-2.444868e+02
6.300000e-07	-1.081818e-06	-3.607150e-09	-7.261988e+00	-2.371089e+02
6.400000e-07	-1.029085e-06	-3.491395e-09	-6.908002e+00	-2.296627e+02
6.500000e-07	-9.759301e-07	-3.373710e-09	-6.551186e+00	-2.221611e+02
6.600000e-07	-9.223862e-07	-3.259551e-09	-6.191758e+00	-2.146084e+02
6.700000e-07	-8.685356e-07	-3.144312e-09	-5.830272e+00	-2.070007e+02
6.800000e-07	-8.143492e-07	-3.028831e-09	-5.466532e+00	-1.993301e+02
6.900000e-07	-7.598755e-07	-2.912062e-09	-5.100863e+00	-1.915903e+02
7.000000e-07	-7.052463e-07	-2.795956e-09	-4.734150e+00	-1.837816e+02
7.100000e-07	-6.504414e-07	-2.674814e-09	-4.366258e+00	-1.759126e+02
7.200000e-07	-5.954421e-07	-2.550069e-09	-3.997061e+00	-1.679976e+02
7.300000e-07	-5.402187e-07	-2.423172e-09	-3.626359e+00	-1.600505e+02
7.400000e-07	-4.847068e-07	-2.296116e-09	-3.253721e+00	-1.520784e+02
7.500000e-07	-4.289430e-07	-2.175041e-09	-2.879392e+00	-1.440771e+02
7.600000e-07	-3.729594e-07	-2.056996e-09	-2.503587e+00	-1.360312e+02
7.700000e-07	-3.168384e-07	-1.938189e-09	-2.126861e+00	-1.279186e+02
7.800000e-07	-2.606682e-07	-1.814912e-09	-1.749803e+00	-1.197187e+02
7.900000e-07	-2.044422e-07	-1.687697e-09	-1.372372e+00	-1.114203e+02
8.000000e-07	-1.481757e-07	-1.554535e-09	-9.946682e-01	-1.030267e+02
8.100000e-07	-9.192189e-08	-1.417485e-09	-6.170497e-01	-9.455487e+01
8.200000e-07	-3.564308e-08	-1.281847e-09	-2.392635e-01	-8.603004e+01
8.300000e-07	2.069956e-08	-1.153105e-09	1.389512e-01	-7.747662e+01
8.400000e-07	7.706326e-08	-1.028374e-09	5.173073e-01	-6.890924e+01
8.500000e-07	1.333683e-07	-9.011290e-10	8.952696e-01	-6.032743e+01
8.600000e-07	1.896086e-07	-7.712166e-10	1.272797e+00	-5.171585e+01
8.700000e-07	2.458070e-07	-6.398109e-10	1.650043e+00	-4.304994e+01
8.800000e-07	3.019769e-07	-5.050826e-10	2.027099e+00	-3.430480e+01
8.900000e-07	3.580684e-07	-3.624543e-10	2.403628e+00	-2.546377e+01
9.000000e-07	4.139719e-07	-2.198072e-10	2.778894e+00	-1.652348e+01
9.100000e-07	4.696745e-07	-8.293156e-11	3.152813e+00	-7.493547e+00
9.200000e-07	5.251757e-07	5.083008e-11	3.525379e+00	1.608720e+00
9.300000e-07	5.804475e-07	1.857040e-10	3.896405e+00	1.076621e+01
9.400000e-07	6.355179e-07	3.234974e-10	4.266080e+00	1.996927e+01
9.500000e-07	6.904035e-07	4.632937e-10	4.634514e+00	2.921929e+01
9.600000e-07	7.450957e-07	6.063292e-10	5.001649e+00	3.852748e+01
9.700000e-07	7.995590e-07	7.514022e-10	5.367249e+00	4.790940e+01
9.800000e-07	8.537130e-07	8.980478e-10	5.730772e+00	5.737776e+01
9.900000e-07	9.075929e-07	1.046192e-09	6.092454e+00	6.693665e+01
1.000000e-06	9.611621e-07	1.193864e-09	6.452052e+00	7.657938e+01
1.010000e-06	1.014336e-06	1.338041e-09	6.808997e+00	8.629087e+01
1.020000e-06	1.067143e-06	1.482892e-09	7.163476e+00	9.605329e+01
1.030000e-06	1.119582e-06	1.631853e-09	7.515487e+00	1.058524e+02
1.040000e-06	1.171585e-06	1.782132e-09	7.864571e+00	1.156817e+02
1.050000e-06	1.223002e-06	1.930941e-09	8.209718e+00	1.255430e+02
1.060000e-06	1.273770e-06	2.081498e-09	8.550513e+00	1.354426e+02
1.070000e-06	1.323829e-06	2.236659e-09	8.886545e+00	1.453860e+02
1.080000e-06	1.373178e-06	2.391319e-09	9.217817e+00	1.553721e+02
1.090000e-06	1.421990e-06	2.543975e-09	9.545476e+00	1.653914e+02
1.100000e-06	1.470384e-06	2.695439e-09	9.870339e+00	1.754272e+02
1.110000e-06	1.518374e-06	2.848236e-09	1.019248e+01	1.854610e+02
1.120000e-06	1.565833e-06	2.999809e-09	1.051106e+01	1.954782e+02
1.130000e-06	1.612709e-06	3.149278e-09	1.082573e+01	2.054722e+02
1.140000e-06	1.659059e-06	3.299134e-09	1.113687e+01	2.154452e+02
1.150000e-06	1.704811e-06	3.451656e-09	1.144399e+01	2.254036e+02
1.160000e-06	1.749975e-06	3.607741e-09	1.174716e+01	2.353514e+02
1.170000e-06	1.794730e-06	3.763641e-09	1.204759e+01	2.452838e+02
1.180000e-06	1.839075e-06	3.916419e-09	1.234527e+01	2.551831e+02
1.190000e-06	1.882806e-06	4.065697e-09	1.263883e+01	2.650208e+02
1.200000e-06	1.925627e-06	4.212677e-09	1.292627e+01	2.747629e+02
1.210000e-06	1.967461e-06	4.356818e-09	1.320710e+01	2.843789e+02
1.220000e-06	2.008516e-06	4.499030e-09	1.348269e+01	2.938491e+02
1.230000e-06	2.048959e-06	4.639562e-09	1.375417e+01	3.031679e+02
1.240000e-06	2.088758e-06	4.779155e-09	1.402134e+01	3.123410e+02
1.250000e-06	2.127837e-06	4.918686e-09	1.428366e+01	3.213783e+02
1.260000e-06	2.166169e-06	5.055282e-09	1.454098e+01	3.302835e+02
1.270000e-06	2.203704e-06	5.188026e-09	1.479294e+01	3.390472e+02
1.280000e-06	2.240610e-06	5.318422e-09	1.504068e+01	3.476435e+02
1.290000e-06	2.276976e-06	5.446131e-09	1.528480e+01	3.560344e+02
1.300000e-06	2.312523e-06	5.568985e-09	1.552342e+01	3.641787e+02
1.310000e-06	2.346976e-06	5.685088e-09	1.575469e+01	3.720436e+02
1.320000e-06	2.380407e-06	5.796426e-09	1.597911e+01	3.796130e+02
1.330000e-06	2.413016e-06	5.906110e-09	1.619800e+01	3.868907e+02
1.340000e-06	2.444820e-06	6.013913e-09	1.641149e+01	3.938965e+02
1.350000e-06	2.475864e-06	6.116894e-09	1.661988e+01	4.006568e+02
1.360000e-06	2.506094e-06	6.214814e-09	1.682281e+01	4.071930e+02
1.370000e-06	2.535435e-06	6.309676e-09	1.701977e+01	4.135138e+02
1.380000e-06	2.564053e-06	6.402430e-09	1.721187e+01	4.196121e+02
1.390000e-06	2.591919e-06	6.491290e-09	1.739894e+01	4.254700e+02
1.400000e-06	2.618734e-06	6.574334e-09	1.757893e+01	4.310674e+02
1.410000e-06	2.644338e-06	6.651621e-09	1.775081e+01	4.363932e+02
1.420000e-06	2.668871e-06	6.724609e-09	1.791549e+01	4.414516e+02
1.430000e-06	2.692499e-06	6.795272e-09	1.807410e+01	4.462630e+02
1.440000e-06	2.715219e-06	6.865064e-09	1.822662e+01	4.508579e+02
1.450000e-06	2.737029e-06	6.933482e-09	1.837302e+01	4.552654e+02
1.460000e-06	2.758047e-06	6.999616e-09	1.851411e+01	4.595028e+02
1.470000e-06	2.778313e-06	7.062886e-09	1.865015e+01	4.635682e+02
1.480000e-06	2.797637e-06	7.121610e-09	1.877987e+01	4.674405e+02
1.490000e-06	2.815952e-06	7.173825e-09	1.890282e+01	4.710864e+02
1.500000e-06	2.833256e-06	7.220170e-09	1.901897e+01	4.744720e+02
1.510000e-06	2.849477e-06	7.262877e-09	1.912786e+01	4.775749e+02
1.520000e-06	2.864564e-06	7.303688e-09	1.922913e+01	4.803918e+02
1.530000e-06	2.878556e-06	7.341987e-09	1.932306e+01	4.829390e+02
1.540000e-06	2.891505e-06	7.376990e-09	1.940998e+01	4.852467e+02
1.550000e-06	2.903264e-06	7.409166e-09	1.948892e+01	4.873484e+02
1.560000e-06	2.913689e-06	7.438623e-09	1.955890e+01	4.892706e+02
1.570000e-06	2.922910e-06	7.464491e-09	1.962079e+01	4.910253e+02
1.580000e-06	2.931189e-06	7.486852e-09	1.967637e+01	4.926104e+02
1.590000e-06	2.938538e-06	7.506004e-09	1.972571e+01	4.940144e+02
1.600000e-06	2.944850e-06	7.522093e-09	1.976807e+01	4.952252e+02
1.610000e-06	2.950213e-06	7.534854e-09	1.980407e+01	4.962383e+02
1.620000e-06	2.954676e-06	7.545142e-09	1.983404e+01	4.970610e+02
1.630000e-06	2.958069e-06	7.554329e-09	1.985681e+01	4.977109e+02
1.640000e-06	2.960217e-06	7.564085e-09	1.987123e+01	4.982092e+02
1.650000e-06	2.961236e-06	7.574154e-09	1.987807e+01	4.985726e+02
1.660000e-06	2.961300e-06	7.580613e-09	1.987850e+01	4.988057e+02
1.670000e-06	2.960394e-06	7.580965e-09	1.987241e+01	4.988992e+02
1.680000e-06	2.958558e-06	7.575888e-09	1.986010e+01	4.988327e+02
1.690000e-06	2.955882e-06	7.567579e-09	1.984213e+01	4.985828e+02
1.700000e-06	2.952362e-06	7.557347e-09	1.981850e+01	4.981325e+02
1.710000e-06	2.947863e-06	7.547620e-09	1.978830e+01	4.974782e+02
1.720000e-06	2.942210e-06	7.537692e-09	1.975035e+01	4.966321e+02
1.730000e-06	2.935493e-06	7.517464e-09	1.970526e+01	4.956185e+02
1.740000e-06	2.927901e-06	7.497373e-09	1.965430e+01	4.944658e+02
1.750000e-06	2.919134e-06	7.487404e-09	1.959545e+01	4.931971e+02
1.760000e-06	2.908687e-06	7.482274e-09	1.952532e+01	4.918226e+02
1.770000e-06	2.896789e-06	7.439893e-09	1.944545e+01	4.903374e+02
1.780000e-06	2.884475e-06	7.415417e-09	1.936279e+01	4.887243e+02
1.790000e-06	2.871870e-06	7.414918e-09	1.927818e+01	4.869610e+02
1.800000e-06	2.857875e-06	7.377691e-09	1.918423e+01	4.850292e+02
1.810000e-06	2.842282e-06	7.312137e-09	1.907956e+01	4.829214e+02
1.820000e-06	2.825991e-06	7.298937e-09	1.897020e+01	4.806438e+02
1.830000e-06	2.808993e-06	7.304049e-09	1.885610e+01	4.782152e+02
1.840000e-06	2.790773e-06	7.210787e-09	1.873379e+01	4.756603e+02
1.850000e-06	2.771682e-06	7.160229e-09	1.860564e+01	4.730030e+02
1.860000e-06	2.751861e-06	7.180496e-09	1.847259e+01	4.702594e+02
1.870000e-06	2.730701e-06	7.112947e-09	1.833055e+01	4.674337e+02
1.880000e-06	2.708215e-06	7.048314e-09	1.817960e+01	4.645178e+02
1.890000e-06	2.684835e-06	7.038317e-09	1.802266e+01	4.614942e+02
1.900000e-06	2.660483e-06	6.975847e-09	1.785919e+01	4.583403e+02
1.910000e-06	2.635254e-06	6.935030e-09	1.768983e+01	4.550335e+02
1.920000e-06	2.609295e-06	6.901350e-09	1.751557e+01	4.515552e+02
1.930000e-06	2.582518e-06	6.808467e-09	1.733582e+01	4.478937e+02
1.940000e-06	2.555019e-06	6.752890e-09	1.715123e+01	4.440458e+02
1.950000e-06	2.526581e-06	6.732550e-09	1.696034e+01	4.400167e+02
1.960000e-06	2.496809e-06	6.634247e-09	1.676048e+01	4.358195e+02
1.970000e-06	2.465944e-06	6.558719e-09	1.655329e+01	4.314735e+02
1.980000e-06	2.434267e-06	6.523966e-09	1.634065e+01	4.270011e+02
1.990000e-06	2.401794e-06	6.431338e-09	1.612267e+01	4.224241e+02
2.000000e-06	2.368602e-06	6.363655e-09	1.589986e+01	4.177592e+02
2.010000e-06	2.334592e-06	6.303542e-09	1.567156e+01	4.130144e+02
2.020000e-06	2.299802e-06	6.200250e-09	1.543802e+01	4.081872e+02
2.030000e-06	2.264454e-06	6.131909e-09	1.520074e+01	4.032656e+02
2.040000e-06	2.228219e-06	6.078889e-09	1.495751e+01	3.982320e+02
2.050000e-06	2.190780e-06	5.992597e-09	1.470619e+01	3.930698e+02
2.060000e-06	2.152366e-06	5.910305e-09	1.444832e+01	3.877689e+02
2.070000e-06	2.113267e-06	5.828629e-09	1.418586e+01	3.823311e+02
2.080000e-06	2.073570e-06	5.742580e-09	1.391938e+01	3.767697e+02
2.090000e-06	2.033179e-06	5.655181e-09	1.364824e+01	3.711066e+02
2.100000e-06	1.992077e-06	5.558263e-09	1.337233e+01	3.653649e+02
2.110000e-06	1.950322e-06	5.472683e-09	1.309205e+01	3.595614e+02
2.120000e-06	1.907905e-06	5.395995e-09	1.280731e+01	3.537009e+02
2.130000e-06	1.864964e-06	5.312332e-09	1.251906e+01	3.477742e+02
2.140000e-06	1.821600e-06	5.212082e-09	1.222797e+01	3.417621e+02
2.150000e-06	1.777679e-06	5.110824e-09	1.193314e+01	3.356423e+02
2.160000e-06	1.733048e-06	5.020374e-09	1.163354e+01	3.293982e+02
2.170000e-06	1.687686e-06	4.922245e-09	1.132903e+01	3.230248e+02
2.180000e-06	1.641775e-06	4.825588e-09	1.102084e+01	3.165317e+02
2.190000e-06	1.595423e-06	4.725858e-09	1.070970e+01	3.099395e+02
2.200000e-06	1.548567e-06	4.617157e-09	1.039516e+01	3.032723e+02
2.210000e-06	1.501039e-06	4.520213e-09	1.007612e+01	2.965501e+02
2.220000e-06	1.452747e-06	4.426017e-09	9.751943e+00	2.897813e+02
2.230000e-06	1.403843e-06	4.317407e-09	9.423663e+00	2.829608e+02
2.240000e-06	1.354513e-06	4.211225e-09	9.092524e+00	2.760731e+02
2.250000e-06	1.304742e-06	4.108054e-09	8.758419e+00	2.690988e+02
2.260000e-06	1.254414e-06	4.003287e-09	8.420580e+00	2.620225e+02
2.270000e-06	1.203570e-06	3.892175e-09	8.079277e+00	2.548389e+02
2.280000e-06	1.152352e-06	3.772532e-09	7.735466e+00	2.475539e+02
2.290000e-06	1.100762e-06	3.660878e-09	7.389156e+00	2.401824e+02
2.300000e-06	1.048625e-06	3.554333e-09	7.039172e+00	2.327414e+02
2.310000e-06	9.958701e-07	3.445677e-09	6.685038e+00	2.252444e+02
2.320000e-06	9.425130e-07	3.331386e-09	6.326865e+00	2.176962e+02
2.330000e-06	8.886141e-07	3.213676e-09	5.965054e+00	2.100935e+02
2.340000e-06	8.342318e-07	3.094695e-09	5.599999e+00	2.024286e+02
2.350000e-06	7.794665e-07	2.973232e-09	5.232372e+00	1.946946e+02
2.360000e-06	7.244826e-07	2.852311e-09	4.863278e+00	1.868916e+02
2.370000e-06	6.693440e-07	2.732361e-09	4.493146e+00	1.790273e+02
2.380000e-06	6.141100e-07	2.615142e-09	4.122374e+00	1.711159e+02
2.390000e-06	5.587831e-07	2.500786e-09	3.750978e+00	1.631716e+02
2.400000e-06	5.033209e-07	2.383974e-09	3.378673e+00	1.552022e+02
2.410000e-06	4.477033e-07	2.260842e-09	3.005325e+00	1.472042e+02
2.420000e-06	3.919517e-07	2.134689e-09	2.631078e+00	1.391630e+02
2.430000e-06	3.360641e-07	2.007491e-09	2.255918e+00	1.310568e+02
2.440000e-06	2.799834e-07	1.882034e-09	1.879462e+00	1.228645e+02
2.450000e-06	2.237970e-07	1.758482e-09	1.502296e+00	1.145742e+02
2.460000e-06	1.675611e-07	1.633822e-09	1.124797e+00	1.061878e+02
2.470000e-06	1.112576e-07	1.507112e-09	7.468459e-01	9.772160e+01
2.480000e-06	5.494243e-08	1.378656e-09	3.688154e-01	8.920054e+01
2.490000e-06	-1.362979e-09	1.249383e-09	-9.149353e-03	8.064937e+01
2.500000e-06	-5.767043e-08	1.118805e-09	-3.871278e-01	7.208367e+01
2.510000e-06	-1.139503e-07	9.864717e-10	-7.649212e-01	6.350411e+01
2.520000e-06	-1.701531e-07	8.520297e-10	-1.142197e+00	5.489627e+01
2.530000e-06	-2.262347e-07	7.191677e-10	-1.518660e+00	4.623598e+01
2.540000e-06	-2.821996e-07	5.890381e-10	-1.894338e+00	3.749805e+01
2.550000e-06	-3.380428e-07	4.595412e-10	-2.269201e+00	2.866501e+01
2.560000e-06	-3.937767e-07	3.254557e-10	-2.643329e+00	1.973248e+01
2.570000e-06	-4.494013e-07	1.856343e-10	-3.016723e+00	1.070929e+01
2.580000e-06	-5.048682e-07	4.624897e-11	-3.389060e+00	1.612432e+00
2.590000e-06	-5.602076e-07	-9.239230e-11	-3.760540e+00	-7.540697e+00
2.600000e-06	-6.154563e-07	-2.334144e-10	-4.131411e+00	-1.673973e+01
2.610000e-06	-6.706321e-07	-3.771309e-10	-4.501793e+00	-2.598525e+01
2.620000e-06	-7.256818e-07	-5.200738e-10	-4.871329e+00	-3.528792e+01
2.630000e-06	-7.805377e-07	-6.623519e-10	-5.239563e+00	-4.466322e+01
2.640000e-06	-8.351253e-07	-8.055605e-10	-5.605997e+00	-5.412429e+01
2.650000e-06	-8.893189e-07	-9.509539e-10	-5.969785e+00	-6.367595e+01
2.660000e-06	-9.430033e-07	-1.098737e-09	-6.330156e+00	-7.331225e+01
2.670000e-06	-9.961198e-07	-1.246882e-09	-6.686714e+00	-8.301857e+01
2.680000e-06	-1.048625e-06	-1.396129e-09	-7.039172e+00	-9.277704e+01
2.690000e-06	-1.100562e-06	-1.546457e-09	-7.387811e+00	-1.025730e+02
2.700000e-06	-1.152048e-06	-1.698314e-09	-7.733423e+00	-1.123993e+02
2.710000e-06	-1.203171e-06	-1.849872e-09	-8.076597e+00	-1.222572e+02
2.720000e-06	-1.253908e-06	-2.000471e-09	-8.417186e+00	-1.321530e+02
2.730000e-06	-1.304144e-06	-2.151324e-09	-8.754410e+00	-1.420924e+02
2.740000e-06	-1.353869e-06	-2.302339e-09	-9.088198e+00	-1.520748e+02
2.750000e-06	-1.403087e-06	-2.453377e-09	-9.418591e+00	-1.620913e+02
2.760000e-06	-1.451691e-06	-2.604566e-09	-9.744852e+00	-1.721257e+02
2.770000e-06	-1.499503e-06	-2.758635e-09	-1.006581e+01	-1.821594e+02
2.780000e-06	-1.546366e-06	-2.914899e-09	-1.038039e+01	-1.921772e+02
2.790000e-06	-1.592514e-06	-3.070015e-09	-1.069016e+01	-2.021721e+02
2.800000e-06	-1.638230e-06	-3.222494e-09	-1.099705e+01	-2.121455e+02
2.810000e-06	-1.683542e-06	-3.373217e-09	-1.130122e+01	-2.221039e+02
2.820000e-06	-1.728439e-06	-3.523956e-09	-1.160260e+01	-2.320516e+02
2.830000e-06	-1.772749e-06	-3.674213e-09	-1.190004e+01	-2.419846e+02
2.840000e-06	-1.816503e-06	-3.821526e-09	-1.219375e+01	-2.518863e+02
2.850000e-06	-1.859829e-06	-3.969131e-09	-1.248459e+01	-2.617287e+02
2.860000e-06	-1.902636e-06	-4.119050e-09	-1.277194e+01	-2.714778e+02
2.870000e-06	-1.944801e-06	-4.267662e-09	-1.305498e+01	-2.811028e+02
2.880000e-06	-1.986324e-06	-4.414927e-09	-1.333372e+01	-2.905829e+02
2.890000e-06	-2.027200e-06	-4.558780e-09	-1.360811e+01	-2.999115e+02
2.900000e-06	-2.067334e-06	-4.698909e-09	-1.387752e+01	-3.090939e+02
2.910000e-06	-2.106832e-06	-4.837540e-09	-1.414266e+01	-3.181397e+02
2.920000e-06	-2.145755e-06	-4.973216e-09	-1.440394e+01	-3.270537e+02
2.930000e-06	-2.183815e-06	-5.105062e-09	-1.465943e+01	-3.358273e+02
2.940000e-06	-2.220813e-06	-5.234252e-09	-1.490779e+01	-3.444359e+02
