# Temperatura_=_25.24
# Concentracion g/m^3_=_18700.0
# C_Vs_to_Am_M_A/Vsm_=_65563218390.804596
# pendiente_HvsI_1/m_=_3716.3
# ordenada_HvsI_A/m_=_1297.0
# frecuencia_Hz_=_301060.0823244846

Tiempo_(s)	Campo_(V.s)	Magnetizacion_(V.s)	Campo_(kA/m)	Magnetizacion_(A/m)
0.000000e+00	-2.947185e-06	-7.838536e-09	-1.978105e+01	-5.113430e+02
1.000000e-08	-2.946517e-06	-7.844287e-09	-1.977656e+01	-5.114049e+02
2.000000e-08	-2.944936e-06	-7.847151e-09	-1.976595e+01	-5.113476e+02
3.000000e-08	-2.942104e-06	-7.845182e-09	-1.974694e+01	-5.111311e+02
4.000000e-08	-2.938132e-06	-7.839658e-09	-1.972028e+01	-5.107102e+02
5.000000e-08	-2.933313e-06	-7.829146e-09	-1.968794e+01	-5.100529e+02
6.000000e-08	-2.927606e-06	-7.814556e-09	-1.964963e+01	-5.091539e+02
7.000000e-08	-2.920870e-06	-7.800090e-09	-1.960443e+01	-5.080388e+02
8.000000e-08	-2.913131e-06	-7.788457e-09	-1.955248e+01	-5.067568e+02
9.000000e-08	-2.904258e-06	-7.780249e-09	-1.949293e+01	-5.053636e+02
1.000000e-07	-2.893922e-06	-7.747681e-09	-1.942355e+01	-5.039021e+02
1.100000e-07	-2.882184e-06	-7.704593e-09	-1.934477e+01	-5.023874e+02
1.200000e-07	-2.869564e-06	-7.655698e-09	-1.926007e+01	-5.008016e+02
1.300000e-07	-2.856142e-06	-7.648983e-09	-1.916998e+01	-4.991014e+02
1.400000e-07	-2.841632e-06	-7.640299e-09	-1.907259e+01	-4.972351e+02
1.500000e-07	-2.825990e-06	-7.599867e-09	-1.896761e+01	-4.951626e+02
1.600000e-07	-2.809225e-06	-7.558599e-09	-1.885508e+01	-4.928717e+02
1.700000e-07	-2.791273e-06	-7.518468e-09	-1.873459e+01	-4.903838e+02
1.800000e-07	-2.772333e-06	-7.471523e-09	-1.860747e+01	-4.877471e+02
1.900000e-07	-2.752670e-06	-7.404827e-09	-1.847549e+01	-4.850195e+02
2.000000e-07	-2.732204e-06	-7.367847e-09	-1.833812e+01	-4.822483e+02
2.100000e-07	-2.710758e-06	-7.314211e-09	-1.819418e+01	-4.794516e+02
2.200000e-07	-2.688434e-06	-7.265087e-09	-1.804435e+01	-4.766118e+02
2.300000e-07	-2.665247e-06	-7.257046e-09	-1.788872e+01	-4.736797e+02
2.400000e-07	-2.641148e-06	-7.206285e-09	-1.772698e+01	-4.705900e+02
2.500000e-07	-2.616283e-06	-7.108910e-09	-1.756008e+01	-4.672826e+02
2.600000e-07	-2.590431e-06	-7.056282e-09	-1.738657e+01	-4.637206e+02
2.700000e-07	-2.563264e-06	-6.998358e-09	-1.720423e+01	-4.599008e+02
2.800000e-07	-2.535032e-06	-6.941976e-09	-1.701474e+01	-4.558531e+02
2.900000e-07	-2.506011e-06	-6.898144e-09	-1.681996e+01	-4.516286e+02
3.000000e-07	-2.476132e-06	-6.816250e-09	-1.661941e+01	-4.472828e+02
3.100000e-07	-2.445460e-06	-6.745732e-09	-1.641355e+01	-4.428586e+02
3.200000e-07	-2.414027e-06	-6.711011e-09	-1.620257e+01	-4.383756e+02
3.300000e-07	-2.381854e-06	-6.619984e-09	-1.598663e+01	-4.338286e+02
3.400000e-07	-2.349063e-06	-6.500078e-09	-1.576655e+01	-4.291945e+02
3.500000e-07	-2.315410e-06	-6.471235e-09	-1.554067e+01	-4.244446e+02
3.600000e-07	-2.280549e-06	-6.415308e-09	-1.530669e+01	-4.195571e+02
3.700000e-07	-2.244640e-06	-6.310186e-09	-1.506568e+01	-4.145250e+02
3.800000e-07	-2.208037e-06	-6.239201e-09	-1.482000e+01	-4.093582e+02
3.900000e-07	-2.170773e-06	-6.153539e-09	-1.456989e+01	-4.040773e+02
4.000000e-07	-2.132746e-06	-6.056105e-09	-1.431466e+01	-3.987053e+02
4.100000e-07	-2.093941e-06	-5.997290e-09	-1.405420e+01	-3.932587e+02
4.200000e-07	-2.054363e-06	-5.917027e-09	-1.378856e+01	-3.877416e+02
4.300000e-07	-2.014125e-06	-5.805761e-09	-1.351850e+01	-3.821464e+02
4.400000e-07	-1.973415e-06	-5.729762e-09	-1.324526e+01	-3.764576e+02
4.500000e-07	-1.932108e-06	-5.648487e-09	-1.296801e+01	-3.706595e+02
4.600000e-07	-1.889865e-06	-5.551553e-09	-1.268448e+01	-3.647424e+02
4.700000e-07	-1.846576e-06	-5.453088e-09	-1.239393e+01	-3.587061e+02
4.800000e-07	-1.802480e-06	-5.357913e-09	-1.209796e+01	-3.525586e+02
4.900000e-07	-1.757859e-06	-5.272948e-09	-1.179847e+01	-3.463125e+02
5.000000e-07	-1.712728e-06	-5.185749e-09	-1.149556e+01	-3.399788e+02
5.100000e-07	-1.666960e-06	-5.075777e-09	-1.118838e+01	-3.335629e+02
5.200000e-07	-1.620612e-06	-4.965907e-09	-1.087729e+01	-3.270630e+02
5.300000e-07	-1.573722e-06	-4.875955e-09	-1.056258e+01	-3.204720e+02
5.400000e-07	-1.526201e-06	-4.776486e-09	-1.024362e+01	-3.137815e+02
5.500000e-07	-1.478166e-06	-4.672605e-09	-9.921218e+00	-3.069867e+02
5.600000e-07	-1.429718e-06	-4.563720e-09	-9.596047e+00	-3.000893e+02
5.700000e-07	-1.380827e-06	-4.451863e-09	-9.267896e+00	-2.930975e+02
5.800000e-07	-1.331427e-06	-4.346126e-09	-8.936330e+00	-2.860231e+02
5.900000e-07	-1.281330e-06	-4.243323e-09	-8.600084e+00	-2.788774e+02
6.000000e-07	-1.230412e-06	-4.127145e-09	-8.258330e+00	-2.716669e+02
6.100000e-07	-1.178821e-06	-4.010176e-09	-7.912061e+00	-2.643910e+02
6.200000e-07	-1.126690e-06	-3.905176e-09	-7.562167e+00	-2.570428e+02
6.300000e-07	-1.074139e-06	-3.793522e-09	-7.209451e+00	-2.496122e+02
6.400000e-07	-1.021293e-06	-3.674442e-09	-6.854761e+00	-2.420907e+02
6.500000e-07	-9.680909e-07	-3.552025e-09	-6.497675e+00	-2.344753e+02
6.600000e-07	-9.144887e-07	-3.436081e-09	-6.137906e+00	-2.267707e+02
6.700000e-07	-8.605586e-07	-3.324527e-09	-5.775935e+00	-2.189885e+02
6.800000e-07	-8.063393e-07	-3.210109e-09	-5.412024e+00	-2.111439e+02
6.900000e-07	-7.518314e-07	-3.086039e-09	-5.046175e+00	-2.032510e+02
7.000000e-07	-6.971314e-07	-2.960947e-09	-4.679037e+00	-1.953186e+02
7.100000e-07	-6.422504e-07	-2.839842e-09	-4.310685e+00	-1.873474e+02
7.200000e-07	-5.871057e-07	-2.715901e-09	-3.940562e+00	-1.793302e+02
7.300000e-07	-5.317644e-07	-2.589573e-09	-3.569119e+00	-1.712539e+02
7.400000e-07	-4.762441e-07	-2.461917e-09	-3.196476e+00	-1.631039e+02
7.500000e-07	-4.204693e-07	-2.340147e-09	-2.822124e+00	-1.548677e+02
7.600000e-07	-3.644844e-07	-2.219523e-09	-2.446362e+00	-1.465385e+02
7.700000e-07	-3.083502e-07	-2.092922e-09	-2.069598e+00	-1.381163e+02
7.800000e-07	-2.521355e-07	-1.958391e-09	-1.692294e+00	-1.296073e+02
7.900000e-07	-1.958577e-07	-1.822980e-09	-1.314566e+00	-1.210216e+02
8.000000e-07	-1.395379e-07	-1.689521e-09	-9.365567e-01	-1.123700e+02
8.100000e-07	-8.321333e-08	-1.554355e-09	-5.585149e-01	-1.036614e+02
8.200000e-07	-2.688157e-08	-1.418996e-09	-1.804249e-01	-9.490085e+01
8.300000e-07	2.948781e-08	-1.285256e-09	1.979176e-01	-8.608910e+01
8.400000e-07	8.586586e-08	-1.154918e-09	5.763182e-01	-7.722321e+01
8.500000e-07	1.421793e-07	-1.022397e-09	9.542856e-01	-6.829833e+01
8.600000e-07	1.984223e-07	-8.838885e-10	1.331779e+00	-5.930962e+01
8.700000e-07	2.546305e-07	-7.416625e-10	1.709040e+00	-5.025382e+01
8.800000e-07	3.108212e-07	-6.013744e-10	2.086183e+00	-4.113001e+01
8.900000e-07	3.669006e-07	-4.616899e-10	2.462579e+00	-3.193931e+01
9.000000e-07	4.228008e-07	-3.184402e-10	2.837773e+00	-2.268365e+01
9.100000e-07	4.784656e-07	-1.735549e-10	3.211387e+00	-1.336413e+01
9.200000e-07	5.339228e-07	-3.024546e-11	3.583607e+00	-3.979466e+00
9.300000e-07	5.892092e-07	1.099202e-10	3.954681e+00	5.474705e+00
9.400000e-07	6.443000e-07	2.520022e-10	4.324441e+00	1.500532e+01
9.500000e-07	6.992258e-07	3.981503e-10	4.693094e+00	2.462023e+01
9.600000e-07	7.539550e-07	5.491465e-10	5.060428e+00	3.432577e+01
9.700000e-07	8.084259e-07	7.004948e-10	5.426029e+00	4.412442e+01
9.800000e-07	8.626180e-07	8.511735e-10	5.789758e+00	5.401350e+01
9.900000e-07	9.164569e-07	1.003891e-09	6.151116e+00	6.398537e+01
1.000000e-06	9.699520e-07	1.156989e-09	6.510166e+00	7.402940e+01
1.010000e-06	1.023119e-06	1.310231e-09	6.867016e+00	8.413507e+01
1.020000e-06	1.075894e-06	1.463683e-09	7.221234e+00	9.429500e+01
1.030000e-06	1.128273e-06	1.619746e-09	7.572791e+00	1.045069e+02
1.040000e-06	1.180179e-06	1.778254e-09	7.921174e+00	1.147733e+02
1.050000e-06	1.231522e-06	1.936931e-09	8.265781e+00	1.250990e+02
1.060000e-06	1.282196e-06	2.094586e-09	8.605900e+00	1.354872e+02
1.070000e-06	1.332142e-06	2.252590e-09	8.941130e+00	1.459355e+02
1.080000e-06	1.381404e-06	2.411101e-09	9.271767e+00	1.564335e+02
1.090000e-06	1.430161e-06	2.571877e-09	9.599017e+00	1.669633e+02
1.100000e-06	1.478555e-06	2.733650e-09	9.923833e+00	1.775028e+02
1.110000e-06	1.526543e-06	2.893988e-09	1.024592e+01	1.880309e+02
1.120000e-06	1.574009e-06	3.055053e-09	1.056450e+01	1.985331e+02
1.130000e-06	1.620866e-06	3.215839e-09	1.087900e+01	2.090045e+02
1.140000e-06	1.667118e-06	3.373927e-09	1.118944e+01	2.194493e+02
1.150000e-06	1.712767e-06	3.530229e-09	1.149582e+01	2.298766e+02
1.160000e-06	1.757862e-06	3.687373e-09	1.179850e+01	2.402940e+02
1.170000e-06	1.802534e-06	3.846976e-09	1.209833e+01	2.507005e+02
1.180000e-06	1.846809e-06	4.008719e-09	1.239549e+01	2.610824e+02
1.190000e-06	1.890435e-06	4.169099e-09	1.268830e+01	2.714133e+02
1.200000e-06	1.933036e-06	4.326476e-09	1.297424e+01	2.816588e+02
1.210000e-06	1.974578e-06	4.481195e-09	1.325306e+01	2.917842e+02
1.220000e-06	2.015394e-06	4.632035e-09	1.352701e+01	3.017620e+02
1.230000e-06	2.055676e-06	4.778920e-09	1.379737e+01	3.115770e+02
1.240000e-06	2.095383e-06	4.922340e-09	1.406389e+01	3.212263e+02
1.250000e-06	2.134396e-06	5.065986e-09	1.432573e+01	3.307145e+02
1.260000e-06	2.172678e-06	5.210581e-09	1.458268e+01	3.400450e+02
1.270000e-06	2.210227e-06	5.352382e-09	1.483470e+01	3.492121e+02
1.280000e-06	2.247071e-06	5.489940e-09	1.508199e+01	3.581964e+02
1.290000e-06	2.283313e-06	5.622116e-09	1.532524e+01	3.669654e+02
1.300000e-06	2.318753e-06	5.749975e-09	1.556311e+01	3.754802e+02
1.310000e-06	2.353060e-06	5.871917e-09	1.579337e+01	3.837051e+02
1.320000e-06	2.386321e-06	5.986903e-09	1.601662e+01	3.916177e+02
1.330000e-06	2.418782e-06	6.097596e-09	1.623449e+01	3.992138e+02
1.340000e-06	2.450502e-06	6.206857e-09	1.644739e+01	4.065071e+02
1.350000e-06	2.481457e-06	6.313397e-09	1.665516e+01	4.135219e+02
1.360000e-06	2.511556e-06	6.415623e-09	1.685717e+01	4.202827e+02
1.370000e-06	2.540818e-06	6.514383e-09	1.705357e+01	4.268044e+02
1.380000e-06	2.569390e-06	6.609389e-09	1.724534e+01	4.330865e+02
1.390000e-06	2.597126e-06	6.699962e-09	1.743151e+01	4.391149e+02
1.400000e-06	2.623659e-06	6.785924e-09	1.760959e+01	4.448696e+02
1.410000e-06	2.648990e-06	6.867071e-09	1.777960e+01	4.503358e+02
1.420000e-06	2.673353e-06	6.942935e-09	1.794313e+01	4.555136e+02
1.430000e-06	2.696836e-06	7.014243e-09	1.810074e+01	4.604217e+02
1.440000e-06	2.719384e-06	7.082953e-09	1.825208e+01	4.650940e+02
1.450000e-06	2.741040e-06	7.151471e-09	1.839743e+01	4.695690e+02
1.460000e-06	2.761953e-06	7.219259e-09	1.853780e+01	4.738757e+02
1.470000e-06	2.782097e-06	7.284746e-09	1.867300e+01	4.780224e+02
1.480000e-06	2.801273e-06	7.344847e-09	1.880171e+01	4.819922e+02
1.490000e-06	2.819367e-06	7.398183e-09	1.892315e+01	4.857476e+02
1.500000e-06	2.836428e-06	7.446390e-09	1.903766e+01	4.892431e+02
1.510000e-06	2.852458e-06	7.490709e-09	1.914526e+01	4.924412e+02
1.520000e-06	2.867384e-06	7.532207e-09	1.924544e+01	4.953268e+02
1.530000e-06	2.881200e-06	7.570404e-09	1.933817e+01	4.979129e+02
1.540000e-06	2.893998e-06	7.605765e-09	1.942406e+01	5.002370e+02
1.550000e-06	2.905635e-06	7.639153e-09	1.950217e+01	5.023487e+02
1.560000e-06	2.915943e-06	7.670134e-09	1.957135e+01	5.042930e+02
1.570000e-06	2.925044e-06	7.697411e-09	1.963244e+01	5.060953e+02
1.580000e-06	2.933149e-06	7.722185e-09	1.968684e+01	5.077554e+02
1.590000e-06	2.940272e-06	7.744265e-09	1.973465e+01	5.092499e+02
1.600000e-06	2.946343e-06	7.762023e-09	1.977539e+01	5.105450e+02
1.610000e-06	2.951480e-06	7.775317e-09	1.980987e+01	5.116123e+02
1.620000e-06	2.955767e-06	7.785381e-09	1.983865e+01	5.124423e+02
1.630000e-06	2.958974e-06	7.793027e-09	1.986017e+01	5.130507e+02
1.640000e-06	2.960882e-06	7.800218e-09	1.987298e+01	5.134731e+02
1.650000e-06	2.961705e-06	7.806882e-09	1.987850e+01	5.137525e+02
1.660000e-06	2.961612e-06	7.811841e-09	1.987788e+01	5.139221e+02
1.670000e-06	2.960601e-06	7.814969e-09	1.987109e+01	5.139921e+02
1.680000e-06	2.958662e-06	7.813518e-09	1.985808e+01	5.139450e+02
1.690000e-06	2.955849e-06	7.805844e-09	1.983920e+01	5.137421e+02
1.700000e-06	2.952230e-06	7.792655e-09	1.981491e+01	5.133378e+02
1.710000e-06	2.947577e-06	7.779801e-09	1.978368e+01	5.126985e+02
1.720000e-06	2.941718e-06	7.770574e-09	1.974435e+01	5.118169e+02
1.730000e-06	2.934837e-06	7.754958e-09	1.969817e+01	5.107164e+02
1.740000e-06	2.927093e-06	7.732144e-09	1.964619e+01	5.094451e+02
1.750000e-06	2.918167e-06	7.695944e-09	1.958628e+01	5.080587e+02
1.760000e-06	2.907534e-06	7.684917e-09	1.951492e+01	5.066019e+02
1.770000e-06	2.895466e-06	7.689286e-09	1.943392e+01	5.050918e+02
1.780000e-06	2.883081e-06	7.666413e-09	1.935079e+01	5.035129e+02
1.790000e-06	2.870418e-06	7.622989e-09	1.926580e+01	5.018232e+02
1.800000e-06	2.856262e-06	7.569066e-09	1.917079e+01	4.999710e+02
1.810000e-06	2.840504e-06	7.570170e-09	1.906502e+01	4.979146e+02
1.820000e-06	2.824104e-06	7.532119e-09	1.895495e+01	4.956397e+02
1.830000e-06	2.806949e-06	7.468379e-09	1.883980e+01	4.931651e+02
1.840000e-06	2.788574e-06	7.449149e-09	1.871648e+01	4.905376e+02
1.850000e-06	2.769409e-06	7.409343e-09	1.858784e+01	4.878154e+02
1.860000e-06	2.749407e-06	7.361067e-09	1.845359e+01	4.850469e+02
1.870000e-06	2.728006e-06	7.337339e-09	1.830995e+01	4.822528e+02
1.880000e-06	2.705385e-06	7.296399e-09	1.815812e+01	4.794181e+02
1.890000e-06	2.681889e-06	7.216236e-09	1.800042e+01	4.764952e+02
1.900000e-06	2.657376e-06	7.194498e-09	1.783589e+01	4.734196e+02
1.910000e-06	2.632052e-06	7.198129e-09	1.766592e+01	4.701299e+02
1.920000e-06	2.606097e-06	7.123410e-09	1.749172e+01	4.665872e+02
1.930000e-06	2.579267e-06	7.054798e-09	1.731164e+01	4.627859e+02
1.940000e-06	2.551669e-06	6.998524e-09	1.712640e+01	4.587535e+02
1.950000e-06	2.523153e-06	6.905006e-09	1.693501e+01	4.545404e+02
1.960000e-06	2.493238e-06	6.858581e-09	1.673423e+01	4.502022e+02
1.970000e-06	2.462199e-06	6.783305e-09	1.652590e+01	4.457833e+02
1.980000e-06	2.430383e-06	6.687009e-09	1.631235e+01	4.413050e+02
1.990000e-06	2.397748e-06	6.678231e-09	1.609331e+01	4.367638e+02
2.000000e-06	2.364417e-06	6.621133e-09	1.586960e+01	4.321375e+02
2.010000e-06	2.330366e-06	6.485345e-09	1.564105e+01	4.273974e+02
2.020000e-06	2.295572e-06	6.428167e-09	1.540752e+01	4.225207e+02
2.030000e-06	2.260137e-06	6.367035e-09	1.516969e+01	4.174995e+02
2.040000e-06	2.223714e-06	6.263171e-09	1.492522e+01	4.123423e+02
2.050000e-06	2.186049e-06	6.213517e-09	1.467242e+01	4.070693e+02
2.060000e-06	2.147471e-06	6.130155e-09	1.441349e+01	4.017038e+02
2.070000e-06	2.108275e-06	6.024376e-09	1.415041e+01	3.962629e+02
2.080000e-06	2.068474e-06	5.963707e-09	1.388327e+01	3.907516e+02
2.090000e-06	2.027970e-06	5.876279e-09	1.361142e+01	3.851630e+02
2.100000e-06	1.986770e-06	5.774469e-09	1.333489e+01	3.794821e+02
2.110000e-06	1.944961e-06	5.693342e-09	1.305428e+01	3.736928e+02
2.120000e-06	1.902535e-06	5.602173e-09	1.276952e+01	3.677850e+02
2.130000e-06	1.859572e-06	5.520009e-09	1.248115e+01	3.617576e+02
2.140000e-06	1.816070e-06	5.427444e-09	1.218918e+01	3.556183e+02
2.150000e-06	1.771983e-06	5.312712e-09	1.189328e+01	3.493794e+02
2.160000e-06	1.727242e-06	5.225028e-09	1.159298e+01	3.430523e+02
2.170000e-06	1.681748e-06	5.141427e-09	1.128763e+01	3.366429e+02
2.180000e-06	1.635744e-06	5.039283e-09	1.097886e+01	3.301499e+02
2.190000e-06	1.589299e-06	4.929820e-09	1.066712e+01	3.235662e+02
2.200000e-06	1.542229e-06	4.824983e-09	1.035120e+01	3.168837e+02
2.210000e-06	1.494494e-06	4.726900e-09	1.003081e+01	3.100970e+02
2.220000e-06	1.446073e-06	4.629223e-09	9.705818e+00	3.032074e+02
2.230000e-06	1.397100e-06	4.525160e-09	9.377114e+00	2.962225e+02
2.240000e-06	1.347672e-06	4.408767e-09	9.045362e+00	2.891542e+02
2.250000e-06	1.297734e-06	4.299805e-09	8.710188e+00	2.820140e+02
2.260000e-06	1.247308e-06	4.199087e-09	8.371736e+00	2.748087e+02
2.270000e-06	1.196404e-06	4.085604e-09	8.030076e+00	2.675382e+02
2.280000e-06	1.145113e-06	3.966866e-09	7.685822e+00	2.601961e+02
2.290000e-06	1.093442e-06	3.856219e-09	7.339010e+00	2.527724e+02
2.300000e-06	1.041199e-06	3.746970e-09	6.988367e+00	2.452582e+02
2.310000e-06	9.882875e-07	3.636116e-09	6.633231e+00	2.376500e+02
2.320000e-06	9.347509e-07	3.515138e-09	6.273902e+00	2.299521e+02
2.330000e-06	8.806890e-07	3.388650e-09	5.911047e+00	2.221756e+02
2.340000e-06	8.262193e-07	3.269756e-09	5.545455e+00	2.143355e+02
2.350000e-06	7.714654e-07	3.152001e-09	5.177956e+00	2.064463e+02
2.360000e-06	7.165145e-07	3.034146e-09	4.809134e+00	1.985172e+02
2.370000e-06	6.614259e-07	2.914412e-09	4.439387e+00	1.905496e+02
2.380000e-06	6.061993e-07	2.795439e-09	4.068715e+00	1.825367e+02
2.390000e-06	5.508238e-07	2.675778e-09	3.697044e+00	1.744658e+02
2.400000e-06	4.952877e-07	2.549531e-09	3.324294e+00	1.663221e+02
2.410000e-06	4.396296e-07	2.420779e-09	2.950725e+00	1.580929e+02
2.420000e-06	3.838320e-07	2.292407e-09	2.576221e+00	1.497711e+02
2.430000e-06	3.278803e-07	2.166153e-09	2.200682e+00	1.413560e+02
2.440000e-06	2.718448e-07	2.040975e-09	1.824580e+00	1.328536e+02
2.450000e-06	2.157357e-07	1.912794e-09	1.447984e+00	1.242736e+02
2.460000e-06	1.595302e-07	1.780071e-09	1.070742e+00	1.156269e+02
2.470000e-06	1.032555e-07	1.645726e-09	6.930349e-01	1.069228e+02
2.480000e-06	4.691289e-08	1.511037e-09	3.148720e-01	9.816653e+01
2.490000e-06	-9.506077e-09	1.376387e-09	-6.380331e-02	8.935912e+01
2.500000e-06	-6.588711e-08	1.242605e-09	-4.422240e-01	8.049786e+01
2.510000e-06	-1.221990e-07	1.109725e-09	-8.201809e-01	7.157799e+01
2.520000e-06	-1.784851e-07	9.761269e-10	-1.197964e+00	6.259460e+01
2.530000e-06	-2.346890e-07	8.365847e-10	-1.575196e+00	5.354427e+01
2.540000e-06	-2.907133e-07	6.931086e-10	-1.951223e+00	4.442592e+01
2.550000e-06	-3.466028e-07	5.508494e-10	-2.326344e+00	3.524055e+01
2.560000e-06	-4.023358e-07	4.115296e-10	-2.700415e+00	2.599010e+01
2.570000e-06	-4.578999e-07	2.715192e-10	-3.073352e+00	1.667577e+01
2.580000e-06	-5.133452e-07	1.306933e-10	-3.445493e+00	7.296480e+00
2.590000e-06	-5.686821e-07	-1.042964e-11	-3.816906e+00	-2.151899e+00
2.600000e-06	-6.239195e-07	-1.557822e-10	-4.187650e+00	-1.167617e+01
2.610000e-06	-6.790359e-07	-3.065040e-10	-4.557583e+00	-2.128420e+01
2.620000e-06	-7.340360e-07	-4.602048e-10	-4.926735e+00	-3.098250e+01
2.630000e-06	-7.888725e-07	-6.120020e-10	-5.294789e+00	-4.077391e+01
2.640000e-06	-8.434185e-07	-7.613958e-10	-5.660893e+00	-5.065611e+01
2.650000e-06	-8.975365e-07	-9.104784e-10	-6.024125e+00	-6.062178e+01
2.660000e-06	-9.511572e-07	-1.060864e-09	-6.384019e+00	-7.066041e+01
2.670000e-06	-1.004193e-06	-1.212597e-09	-6.739986e+00	-8.076135e+01
2.680000e-06	-1.056598e-06	-1.367053e-09	-7.091719e+00	-9.091693e+01
2.690000e-06	-1.108444e-06	-1.523909e-09	-7.439704e+00	-1.011245e+02
2.700000e-06	-1.159871e-06	-1.682863e-09	-7.784871e+00	-1.113862e+02
2.710000e-06	-1.210945e-06	-1.842402e-09	-8.127673e+00	-1.217068e+02
2.720000e-06	-1.261622e-06	-2.001301e-09	-8.467809e+00	-1.320899e+02
2.730000e-06	-1.311805e-06	-2.160934e-09	-8.804629e+00	-1.425336e+02
2.740000e-06	-1.361455e-06	-2.320308e-09	-9.137875e+00	-1.530280e+02
2.750000e-06	-1.410594e-06	-2.479114e-09	-9.467687e+00	-1.635556e+02
2.760000e-06	-1.459175e-06	-2.638109e-09	-9.793753e+00	-1.740945e+02
2.770000e-06	-1.506934e-06	-2.799526e-09	-1.011430e+01	-1.846234e+02
2.780000e-06	-1.553803e-06	-2.962363e-09	-1.042888e+01	-1.951272e+02
2.790000e-06	-1.599957e-06	-3.123388e-09	-1.073866e+01	-2.056001e+02
2.800000e-06	-1.645625e-06	-3.282019e-09	-1.104518e+01	-2.160458e+02
2.810000e-06	-1.690982e-06	-3.440554e-09	-1.134961e+01	-2.264735e+02
2.820000e-06	-1.735864e-06	-3.600322e-09	-1.165085e+01	-2.368909e+02
2.830000e-06	-1.780113e-06	-3.758246e-09	-1.194784e+01	-2.472978e+02
2.840000e-06	-1.823757e-06	-3.913149e-09	-1.224077e+01	-2.576815e+02
2.850000e-06	-1.866926e-06	-4.069177e-09	-1.253051e+01	-2.680165e+02
2.860000e-06	-1.909627e-06	-4.228357e-09	-1.281712e+01	-2.782688e+02
2.870000e-06	-1.951691e-06	-4.384758e-09	-1.309944e+01	-2.884031e+02
2.880000e-06	-1.993086e-06	-4.535841e-09	-1.337728e+01	-2.983915e+02
2.890000e-06	-2.033864e-06	-4.683406e-09	-1.365098e+01	-3.082177e+02
2.900000e-06	-2.073934e-06	-4.830768e-09	-1.391992e+01	-3.178782e+02
2.910000e-06	-2.113372e-06	-4.978610e-09	-1.418462e+01	-3.273771e+02
2.920000e-06	-2.152269e-06	-5.123004e-09	-1.444569e+01	-3.367182e+02
2.930000e-06	-2.190288e-06	-5.262538e-09	-1.470087e+01	-3.458969e+02
2.940000e-06	-2.227171e-06	-5.398808e-09	-1.494843e+01	-3.548946e+02
