# Temperatura_=_17.96
# Concentracion g/m^3_=_18700.0
# C_Vs_to_Am_M_A/Vsm_=_65563218390.804596
# pendiente_HvsI_1/m_=_3716.3
# ordenada_HvsI_A/m_=_1297.0
# frecuencia_Hz_=_301077.31238781556

Tiempo_(s)	Campo_(V.s)	Magnetizacion_(V.s)	Campo_(kA/m)	Magnetizacion_(A/m)
0.000000e+00	-2.942294e-06	-7.543907e-09	-1.977423e+01	-4.923996e+02
1.000000e-08	-2.941787e-06	-7.548872e-09	-1.977083e+01	-4.925143e+02
2.000000e-08	-2.940490e-06	-7.550274e-09	-1.976211e+01	-4.925175e+02
3.000000e-08	-2.938067e-06	-7.548235e-09	-1.974582e+01	-4.923705e+02
4.000000e-08	-2.934380e-06	-7.544853e-09	-1.972105e+01	-4.920287e+02
5.000000e-08	-2.929769e-06	-7.537149e-09	-1.969006e+01	-4.914592e+02
6.000000e-08	-2.924319e-06	-7.524694e-09	-1.965343e+01	-4.906554e+02
7.000000e-08	-2.917858e-06	-7.513617e-09	-1.961001e+01	-4.896413e+02
8.000000e-08	-2.910397e-06	-7.494732e-09	-1.955986e+01	-4.884638e+02
9.000000e-08	-2.901885e-06	-7.479119e-09	-1.950266e+01	-4.871760e+02
1.000000e-07	-2.891936e-06	-7.458699e-09	-1.943579e+01	-4.858169e+02
1.100000e-07	-2.880454e-06	-7.444273e-09	-1.935863e+01	-4.843952e+02
1.200000e-07	-2.868008e-06	-7.379809e-09	-1.927498e+01	-4.828842e+02
1.300000e-07	-2.854886e-06	-7.332719e-09	-1.918679e+01	-4.812303e+02
1.400000e-07	-2.840778e-06	-7.351398e-09	-1.909197e+01	-4.793710e+02
1.500000e-07	-2.825393e-06	-7.355721e-09	-1.898858e+01	-4.772585e+02
1.600000e-07	-2.808760e-06	-7.252746e-09	-1.887679e+01	-4.748781e+02
1.700000e-07	-2.790925e-06	-7.201192e-09	-1.875693e+01	-4.722563e+02
1.800000e-07	-2.772057e-06	-7.225758e-09	-1.863012e+01	-4.694542e+02
1.900000e-07	-2.752502e-06	-7.114987e-09	-1.849870e+01	-4.665497e+02
2.000000e-07	-2.732232e-06	-7.057624e-09	-1.836248e+01	-4.636123e+02
2.100000e-07	-2.711008e-06	-7.068162e-09	-1.821983e+01	-4.606819e+02
2.200000e-07	-2.688859e-06	-6.979553e-09	-1.807098e+01	-4.577565e+02
2.300000e-07	-2.665888e-06	-6.915030e-09	-1.791659e+01	-4.547939e+02
2.400000e-07	-2.642042e-06	-6.934808e-09	-1.775633e+01	-4.517264e+02
2.500000e-07	-2.617418e-06	-6.843493e-09	-1.759084e+01	-4.484828e+02
2.600000e-07	-2.591881e-06	-6.745921e-09	-1.741922e+01	-4.450100e+02
2.700000e-07	-2.564971e-06	-6.731599e-09	-1.723836e+01	-4.412879e+02
2.800000e-07	-2.536904e-06	-6.688312e-09	-1.704974e+01	-4.373321e+02
2.900000e-07	-2.508115e-06	-6.607005e-09	-1.685625e+01	-4.331850e+02
3.000000e-07	-2.478508e-06	-6.542263e-09	-1.665727e+01	-4.288995e+02
3.100000e-07	-2.448067e-06	-6.462093e-09	-1.645269e+01	-4.245207e+02
3.200000e-07	-2.416859e-06	-6.403913e-09	-1.624295e+01	-4.200739e+02
3.300000e-07	-2.384881e-06	-6.351706e-09	-1.602803e+01	-4.155595e+02
3.400000e-07	-2.352265e-06	-6.236497e-09	-1.580883e+01	-4.109587e+02
3.500000e-07	-2.318956e-06	-6.192282e-09	-1.558497e+01	-4.062450e+02
3.600000e-07	-2.284555e-06	-6.147849e-09	-1.535378e+01	-4.013968e+02
3.700000e-07	-2.248969e-06	-6.046598e-09	-1.511461e+01	-3.964069e+02
3.800000e-07	-2.212513e-06	-5.963812e-09	-1.486961e+01	-3.912848e+02
3.900000e-07	-2.175385e-06	-5.873002e-09	-1.462008e+01	-3.860527e+02
4.000000e-07	-2.137573e-06	-5.766632e-09	-1.436596e+01	-3.807360e+02
4.100000e-07	-2.098978e-06	-5.711141e-09	-1.410657e+01	-3.753535e+02
4.200000e-07	-2.059571e-06	-5.651661e-09	-1.384173e+01	-3.699111e+02
4.300000e-07	-2.019465e-06	-5.549169e-09	-1.357219e+01	-3.644002e+02
4.400000e-07	-1.978867e-06	-5.470278e-09	-1.329935e+01	-3.588024e+02
4.500000e-07	-1.937766e-06	-5.385834e-09	-1.302312e+01	-3.530966e+02
4.600000e-07	-1.895866e-06	-5.286871e-09	-1.274152e+01	-3.472676e+02
4.700000e-07	-1.852840e-06	-5.181715e-09	-1.245236e+01	-3.413109e+02
4.800000e-07	-1.808842e-06	-5.089435e-09	-1.215666e+01	-3.352335e+02
4.900000e-07	-1.764341e-06	-5.006405e-09	-1.185758e+01	-3.290503e+02
5.000000e-07	-1.719420e-06	-4.922827e-09	-1.155568e+01	-3.227777e+02
5.100000e-07	-1.673908e-06	-4.825247e-09	-1.124981e+01	-3.164280e+02
5.200000e-07	-1.627782e-06	-4.715268e-09	-1.093981e+01	-3.100053e+02
5.300000e-07	-1.581086e-06	-4.616195e-09	-1.062598e+01	-3.035059e+02
5.400000e-07	-1.533729e-06	-4.517705e-09	-1.030771e+01	-2.969208e+02
5.500000e-07	-1.485785e-06	-4.418271e-09	-9.985494e+00	-2.902412e+02
5.600000e-07	-1.437459e-06	-4.308711e-09	-9.660708e+00	-2.834630e+02
5.700000e-07	-1.388760e-06	-4.199499e-09	-9.333416e+00	-2.765889e+02
5.800000e-07	-1.339565e-06	-4.093728e-09	-9.002793e+00	-2.696283e+02
5.900000e-07	-1.289699e-06	-3.992786e-09	-8.667662e+00	-2.625942e+02
6.000000e-07	-1.239061e-06	-3.881561e-09	-8.327339e+00	-2.554986e+02
6.100000e-07	-1.187660e-06	-3.767878e-09	-7.981891e+00	-2.483486e+02
6.200000e-07	-1.135640e-06	-3.666042e-09	-7.632279e+00	-2.411442e+02
6.300000e-07	-1.083247e-06	-3.558455e-09	-7.280166e+00	-2.338789e+02
6.400000e-07	-1.030598e-06	-3.441203e-09	-6.926325e+00	-2.265420e+02
6.500000e-07	-9.776182e-07	-3.317271e-09	-6.570264e+00	-2.191229e+02
6.600000e-07	-9.242195e-07	-3.201161e-09	-6.211389e+00	-2.116150e+02
6.700000e-07	-8.704431e-07	-3.089748e-09	-5.849975e+00	-2.040182e+02
6.800000e-07	-8.163470e-07	-2.980520e-09	-5.486412e+00	-1.963400e+02
6.900000e-07	-7.619945e-07	-2.864583e-09	-5.121126e+00	-1.885938e+02
7.000000e-07	-7.074715e-07	-2.744743e-09	-4.754694e+00	-1.807957e+02
7.100000e-07	-6.527746e-07	-2.625021e-09	-4.387093e+00	-1.729606e+02
7.200000e-07	-5.978830e-07	-2.499572e-09	-4.018184e+00	-1.650981e+02
7.300000e-07	-5.427585e-07	-2.371243e-09	-3.647709e+00	-1.572101e+02
7.400000e-07	-4.873321e-07	-2.244542e-09	-3.275206e+00	-1.492899e+02
7.500000e-07	-4.316113e-07	-2.129143e-09	-2.900724e+00	-1.413242e+02
7.600000e-07	-3.756885e-07	-2.016393e-09	-2.524884e+00	-1.332955e+02
7.700000e-07	-3.196335e-07	-1.899276e-09	-2.148156e+00	-1.251877e+02
7.800000e-07	-2.634968e-07	-1.772425e-09	-1.770879e+00	-1.169897e+02
7.900000e-07	-2.073020e-07	-1.641588e-09	-1.393212e+00	-1.086994e+02
8.000000e-07	-1.510266e-07	-1.509924e-09	-1.015003e+00	-1.003245e+02
8.100000e-07	-9.472725e-08	-1.373958e-09	-6.366321e-01	-9.188059e+01
8.200000e-07	-3.845255e-08	-1.241455e-09	-2.584275e-01	-8.338780e+01
8.300000e-07	1.781674e-08	-1.114752e-09	1.197407e-01	-7.486462e+01
8.400000e-07	7.407691e-08	-9.930037e-10	4.978476e-01	-6.632290e+01
8.500000e-07	1.303679e-07	-8.671508e-10	8.761617e-01	-5.776424e+01
8.600000e-07	1.866227e-07	-7.345486e-10	1.254232e+00	-4.917948e+01
8.700000e-07	2.428000e-07	-5.988630e-10	1.631783e+00	-4.055142e+01
8.800000e-07	2.989134e-07	-4.647150e-10	2.008903e+00	-3.186001e+01
8.900000e-07	3.548810e-07	-3.293108e-10	2.385044e+00	-2.308823e+01
9.000000e-07	4.106819e-07	-1.906077e-10	2.760064e+00	-1.422689e+01
9.100000e-07	4.662948e-07	-5.394643e-11	3.133821e+00	-5.276589e+00
9.200000e-07	5.217124e-07	8.058244e-11	3.506265e+00	3.753639e+00
9.300000e-07	5.769560e-07	2.140535e-10	3.877540e+00	1.285050e+01
9.400000e-07	6.320098e-07	3.508783e-10	4.247539e+00	2.200174e+01
9.500000e-07	6.868345e-07	4.915153e-10	4.615999e+00	3.120065e+01
9.600000e-07	7.414669e-07	6.367635e-10	4.983166e+00	4.044803e+01
9.700000e-07	7.959182e-07	7.811314e-10	5.349116e+00	4.975105e+01
9.800000e-07	8.500882e-07	9.237700e-10	5.713176e+00	5.911943e+01
9.900000e-07	9.038974e-07	1.068497e-09	6.074810e+00	6.856072e+01
1.000000e-06	9.573968e-07	1.214288e-09	6.434363e+00	7.807645e+01
1.010000e-06	1.010552e-06	1.357750e-09	6.791605e+00	8.766070e+01
1.020000e-06	1.063310e-06	1.500055e-09	7.146172e+00	9.730171e+01
1.030000e-06	1.115727e-06	1.647802e-09	7.498448e+00	1.069856e+02
1.040000e-06	1.167708e-06	1.797168e-09	7.847796e+00	1.167007e+02
1.050000e-06	1.219070e-06	1.946132e-09	8.192988e+00	1.264407e+02
1.060000e-06	1.269750e-06	2.094971e-09	8.533590e+00	1.362051e+02
1.070000e-06	1.319695e-06	2.247078e-09	8.869253e+00	1.459969e+02
1.080000e-06	1.368934e-06	2.399125e-09	9.200173e+00	1.558192e+02
1.090000e-06	1.417700e-06	2.549258e-09	9.527919e+00	1.656707e+02
1.100000e-06	1.466159e-06	2.697396e-09	9.853594e+00	1.755441e+02
1.110000e-06	1.514224e-06	2.844994e-09	1.017662e+01	1.854265e+02
1.120000e-06	1.561730e-06	2.994923e-09	1.049590e+01	1.953023e+02
1.130000e-06	1.608661e-06	3.145702e-09	1.081130e+01	2.051572e+02
1.140000e-06	1.655029e-06	3.295952e-09	1.112293e+01	2.149814e+02
1.150000e-06	1.700796e-06	3.445833e-09	1.143052e+01	2.247705e+02
1.160000e-06	1.745959e-06	3.596819e-09	1.173404e+01	2.345231e+02
1.170000e-06	1.790642e-06	3.746975e-09	1.203434e+01	2.442372e+02
1.180000e-06	1.835009e-06	3.895075e-09	1.233252e+01	2.539059e+02
1.190000e-06	1.878822e-06	4.041439e-09	1.262697e+01	2.635146e+02
1.200000e-06	1.921673e-06	4.187151e-09	1.291496e+01	2.730421e+02
1.210000e-06	1.963470e-06	4.330600e-09	1.319587e+01	2.824640e+02
1.220000e-06	2.004414e-06	4.469021e-09	1.347104e+01	2.917583e+02
1.230000e-06	2.044777e-06	4.604245e-09	1.374230e+01	3.009096e+02
1.240000e-06	2.084585e-06	4.738792e-09	1.400984e+01	3.099117e+02
1.250000e-06	2.123687e-06	4.874442e-09	1.427263e+01	3.187648e+02
1.260000e-06	2.162043e-06	5.009541e-09	1.453041e+01	3.274702e+02
1.270000e-06	2.199654e-06	5.140278e-09	1.478318e+01	3.360245e+02
1.280000e-06	2.236577e-06	5.266675e-09	1.503133e+01	3.444136e+02
1.290000e-06	2.272927e-06	5.389528e-09	1.527563e+01	3.526127e+02
1.300000e-06	2.308500e-06	5.508951e-09	1.551470e+01	3.605901e+02
1.310000e-06	2.342925e-06	5.622691e-09	1.574606e+01	3.683151e+02
1.320000e-06	2.376231e-06	5.732136e-09	1.596990e+01	3.757662e+02
1.330000e-06	2.408755e-06	5.839983e-09	1.618848e+01	3.829378e+02
1.340000e-06	2.440580e-06	5.946806e-09	1.640237e+01	3.898407e+02
1.350000e-06	2.471657e-06	6.049318e-09	1.661123e+01	3.964972e+02
1.360000e-06	2.501933e-06	6.144651e-09	1.681471e+01	4.029324e+02
1.370000e-06	2.531315e-06	6.235176e-09	1.701217e+01	4.091638e+02
1.380000e-06	2.559965e-06	6.325381e-09	1.720472e+01	4.151954e+02
1.390000e-06	2.587867e-06	6.414468e-09	1.739224e+01	4.210164e+02
1.400000e-06	2.614634e-06	6.499918e-09	1.757213e+01	4.266072e+02
1.410000e-06	2.640175e-06	6.580234e-09	1.774379e+01	4.319489e+02
1.420000e-06	2.664758e-06	6.655949e-09	1.790900e+01	4.370331e+02
1.430000e-06	2.688431e-06	6.728753e-09	1.806810e+01	4.418676e+02
1.440000e-06	2.711138e-06	6.798370e-09	1.822071e+01	4.464753e+02
1.450000e-06	2.732936e-06	6.864344e-09	1.836721e+01	4.508860e+02
1.460000e-06	2.753912e-06	6.927531e-09	1.850818e+01	4.551248e+02
1.470000e-06	2.774151e-06	6.989844e-09	1.864420e+01	4.592004e+02
1.480000e-06	2.793500e-06	7.050384e-09	1.877424e+01	4.630999e+02
1.490000e-06	2.811827e-06	7.106043e-09	1.889740e+01	4.667910e+02
1.500000e-06	2.829144e-06	7.155515e-09	1.901379e+01	4.702323e+02
1.510000e-06	2.845378e-06	7.199707e-09	1.912289e+01	4.733878e+02
1.520000e-06	2.860456e-06	7.241387e-09	1.922422e+01	4.762405e+02
1.530000e-06	2.874468e-06	7.278851e-09	1.931840e+01	4.787998e+02
1.540000e-06	2.887479e-06	7.310794e-09	1.940584e+01	4.810989e+02
1.550000e-06	2.899344e-06	7.339088e-09	1.948558e+01	4.831846e+02
1.560000e-06	2.909895e-06	7.366639e-09	1.955649e+01	4.851014e+02
1.570000e-06	2.919168e-06	7.394663e-09	1.961881e+01	4.868770e+02
1.580000e-06	2.927404e-06	7.420862e-09	1.967417e+01	4.885151e+02
1.590000e-06	2.934704e-06	7.444083e-09	1.972323e+01	4.899963e+02
1.600000e-06	2.941017e-06	7.463839e-09	1.976565e+01	4.912898e+02
1.610000e-06	2.946373e-06	7.479903e-09	1.980165e+01	4.923678e+02
1.620000e-06	2.950873e-06	7.491607e-09	1.983189e+01	4.932199e+02
1.630000e-06	2.954392e-06	7.498299e-09	1.985554e+01	4.938592e+02
1.640000e-06	2.956636e-06	7.502596e-09	1.987062e+01	4.943188e+02
1.650000e-06	2.957716e-06	7.507973e-09	1.987788e+01	4.946401e+02
1.660000e-06	2.957808e-06	7.515987e-09	1.987850e+01	4.948563e+02
1.670000e-06	2.956934e-06	7.523086e-09	1.987263e+01	4.949789e+02
1.680000e-06	2.955141e-06	7.522310e-09	1.986057e+01	4.949920e+02
1.690000e-06	2.952467e-06	7.515235e-09	1.984260e+01	4.948581e+02
1.700000e-06	2.948968e-06	7.506094e-09	1.981908e+01	4.945324e+02
1.710000e-06	2.944546e-06	7.496549e-09	1.978937e+01	4.939806e+02
1.720000e-06	2.938969e-06	7.484658e-09	1.975189e+01	4.931940e+02
1.730000e-06	2.932290e-06	7.467450e-09	1.970700e+01	4.921944e+02
1.740000e-06	2.924735e-06	7.463320e-09	1.965623e+01	4.910276e+02
1.750000e-06	2.916088e-06	7.432502e-09	1.959811e+01	4.897471e+02
1.760000e-06	2.905815e-06	7.394430e-09	1.952907e+01	4.883932e+02
1.770000e-06	2.893977e-06	7.386316e-09	1.944951e+01	4.869773e+02
1.780000e-06	2.881561e-06	7.410278e-09	1.936607e+01	4.854751e+02
1.790000e-06	2.868965e-06	7.387283e-09	1.928141e+01	4.838344e+02
1.800000e-06	2.855149e-06	7.276159e-09	1.918856e+01	4.819926e+02
1.810000e-06	2.839677e-06	7.301858e-09	1.908458e+01	4.799000e+02
1.820000e-06	2.823435e-06	7.310432e-09	1.897542e+01	4.775392e+02
1.830000e-06	2.806594e-06	7.182324e-09	1.886224e+01	4.749337e+02
1.840000e-06	2.788486e-06	7.136303e-09	1.874054e+01	4.721429e+02
1.850000e-06	2.769321e-06	7.177302e-09	1.861174e+01	4.692440e+02
1.860000e-06	2.749493e-06	7.100614e-09	1.847848e+01	4.663081e+02
1.870000e-06	2.728412e-06	7.010057e-09	1.833680e+01	4.633776e+02
1.880000e-06	2.705976e-06	7.055122e-09	1.818601e+01	4.604537e+02
1.890000e-06	2.682674e-06	6.968916e-09	1.802941e+01	4.574967e+02
1.900000e-06	2.658419e-06	6.851207e-09	1.786640e+01	4.544401e+02
1.910000e-06	2.633248e-06	6.910741e-09	1.769723e+01	4.512119e+02
1.920000e-06	2.607424e-06	6.855375e-09	1.752368e+01	4.477575e+02
1.930000e-06	2.580777e-06	6.733721e-09	1.734459e+01	4.440540e+02
1.940000e-06	2.553336e-06	6.724976e-09	1.716017e+01	4.401146e+02
1.950000e-06	2.525056e-06	6.639974e-09	1.697011e+01	4.359803e+02
1.960000e-06	2.495421e-06	6.572471e-09	1.677094e+01	4.317038e+02
1.970000e-06	2.464568e-06	6.535399e-09	1.656359e+01	4.273315e+02
1.980000e-06	2.432958e-06	6.414366e-09	1.635115e+01	4.228901e+02
1.990000e-06	2.400576e-06	6.377219e-09	1.613352e+01	4.183818e+02
2.000000e-06	2.367425e-06	6.353496e-09	1.591072e+01	4.137889e+02
2.010000e-06	2.333528e-06	6.200254e-09	1.568291e+01	4.090850e+02
2.020000e-06	2.298830e-06	6.142829e-09	1.544972e+01	4.042477e+02
2.030000e-06	2.263486e-06	6.104598e-09	1.521218e+01	3.992687e+02
2.040000e-06	2.227308e-06	5.984329e-09	1.496904e+01	3.941563e+02
2.050000e-06	2.189942e-06	5.953785e-09	1.471791e+01	3.889321e+02
2.060000e-06	2.151610e-06	5.878073e-09	1.446030e+01	3.836215e+02
2.070000e-06	2.112634e-06	5.744474e-09	1.419835e+01	3.782442e+02
2.080000e-06	2.073019e-06	5.684464e-09	1.393211e+01	3.728071e+02
2.090000e-06	2.032738e-06	5.598674e-09	1.366140e+01	3.673026e+02
2.100000e-06	1.991789e-06	5.502617e-09	1.338619e+01	3.617125e+02
2.110000e-06	1.950143e-06	5.431856e-09	1.310630e+01	3.560159e+02
2.120000e-06	1.907794e-06	5.339830e-09	1.282168e+01	3.501969e+02
2.130000e-06	1.864864e-06	5.263905e-09	1.253317e+01	3.442501e+02
2.140000e-06	1.821498e-06	5.167151e-09	1.224172e+01	3.381817e+02
2.150000e-06	1.777594e-06	5.049132e-09	1.194665e+01	3.320063e+02
2.160000e-06	1.733017e-06	4.962067e-09	1.164706e+01	3.257405e+02
2.170000e-06	1.687719e-06	4.871583e-09	1.134263e+01	3.193970e+02
2.180000e-06	1.641804e-06	4.785178e-09	1.103405e+01	3.129805e+02
2.190000e-06	1.595497e-06	4.682033e-09	1.072283e+01	3.064876e+02
2.200000e-06	1.548761e-06	4.568862e-09	1.040874e+01	2.999098e+02
2.210000e-06	1.501395e-06	4.470980e-09	1.009040e+01	2.932381e+02
2.220000e-06	1.453241e-06	4.370544e-09	9.766779e+00	2.864678e+02
2.230000e-06	1.404425e-06	4.275896e-09	9.438701e+00	2.796011e+02
2.240000e-06	1.355219e-06	4.167435e-09	9.108003e+00	2.726472e+02
2.250000e-06	1.305512e-06	4.056455e-09	8.773939e+00	2.656188e+02
2.260000e-06	1.255231e-06	3.960487e-09	8.436010e+00	2.585282e+02
2.270000e-06	1.204511e-06	3.845482e-09	8.095138e+00	2.513828e+02
2.280000e-06	1.153412e-06	3.722040e-09	7.751720e+00	2.441833e+02
2.290000e-06	1.101962e-06	3.613311e-09	7.405938e+00	2.369236e+02
2.300000e-06	1.050009e-06	3.506948e-09	7.056778e+00	2.295931e+02
2.310000e-06	9.974156e-07	3.404780e-09	6.703317e+00	2.221810e+02
2.320000e-06	9.441350e-07	3.291276e-09	6.345235e+00	2.146804e+02
2.330000e-06	8.902507e-07	3.169777e-09	5.983095e+00	2.070906e+02
2.340000e-06	8.359579e-07	3.051955e-09	5.618211e+00	1.994187e+02
2.350000e-06	7.813178e-07	2.929862e-09	5.250991e+00	1.916777e+02
2.360000e-06	7.264042e-07	2.811231e-09	4.881935e+00	1.838837e+02
2.370000e-06	6.713085e-07	2.691390e-09	4.511653e+00	1.760517e+02
2.380000e-06	6.160864e-07	2.576115e-09	4.140523e+00	1.681919e+02
2.390000e-06	5.607557e-07	2.463203e-09	3.768663e+00	1.603067e+02
2.400000e-06	5.052984e-07	2.343198e-09	3.395952e+00	1.523901e+02
2.410000e-06	4.497480e-07	2.221155e-09	3.022615e+00	1.444290e+02
2.420000e-06	3.940975e-07	2.095636e-09	2.648606e+00	1.364063e+02
2.430000e-06	3.383303e-07	1.969992e-09	2.273812e+00	1.283054e+02
2.440000e-06	2.824411e-07	1.846147e-09	1.898198e+00	1.201150e+02
2.450000e-06	2.263864e-07	1.721515e-09	1.521472e+00	1.118320e+02
2.460000e-06	1.702082e-07	1.595413e-09	1.143916e+00	1.034635e+02
2.470000e-06	1.139480e-07	1.467244e-09	7.658088e-01	9.502480e+01
2.480000e-06	5.767067e-08	1.338683e-09	3.875864e-01	8.653571e+01
2.490000e-06	1.440151e-09	1.210140e-09	9.678801e-03	7.801508e+01
2.500000e-06	-5.472351e-08	1.079527e-09	-3.677795e-01	6.947537e+01
2.510000e-06	-1.108531e-07	9.491444e-10	-7.450090e-01	6.091897e+01
2.520000e-06	-1.669820e-07	8.192251e-10	-1.122233e+00	5.233745e+01
2.530000e-06	-2.230076e-07	6.870401e-10	-1.498764e+00	4.371403e+01
2.540000e-06	-2.789317e-07	5.533329e-10	-1.874612e+00	3.502865e+01
2.550000e-06	-3.347745e-07	4.186785e-10	-2.249914e+00	2.626390e+01
2.560000e-06	-3.904382e-07	2.848289e-10	-2.624013e+00	1.740992e+01
2.570000e-06	-4.459340e-07	1.489663e-10	-2.996982e+00	8.466627e+00
2.580000e-06	-5.013317e-07	1.139888e-11	-3.369293e+00	-5.574393e-01
2.590000e-06	-5.566576e-07	-1.256956e-10	-3.741121e+00	-9.649113e+00
2.600000e-06	-6.119193e-07	-2.647180e-10	-4.112517e+00	-1.879590e+01
2.610000e-06	-6.670877e-07	-4.064017e-10	-4.483287e+00	-2.799060e+01
2.620000e-06	-7.221169e-07	-5.492863e-10	-4.853121e+00	-3.723347e+01
2.630000e-06	-7.769645e-07	-6.913185e-10	-5.221734e+00	-4.653132e+01
2.640000e-06	-8.315069e-07	-8.326939e-10	-5.588297e+00	-5.589386e+01
2.650000e-06	-8.856203e-07	-9.754175e-10	-5.951976e+00	-6.532894e+01
2.660000e-06	-9.391890e-07	-1.121511e-09	-6.311994e+00	-7.483858e+01
2.670000e-06	-9.921587e-07	-1.268670e-09	-6.667987e+00	-8.441740e+01
2.680000e-06	-1.044543e-06	-1.415942e-09	-7.020044e+00	-9.405395e+01
2.690000e-06	-1.096366e-06	-1.563317e-09	-7.368330e+00	-1.037343e+02
2.700000e-06	-1.147776e-06	-1.711678e-09	-7.713840e+00	-1.134466e+02
2.710000e-06	-1.198887e-06	-1.860934e-09	-8.057340e+00	-1.231841e+02
2.720000e-06	-1.249625e-06	-2.009688e-09	-8.398335e+00	-1.329457e+02
2.730000e-06	-1.299816e-06	-2.159122e-09	-8.735655e+00	-1.427346e+02
2.740000e-06	-1.349431e-06	-2.309692e-09	-9.069102e+00	-1.525538e+02
2.750000e-06	-1.398502e-06	-2.461322e-09	-9.398892e+00	-1.624025e+02
2.760000e-06	-1.446931e-06	-2.612007e-09	-9.724368e+00	-1.722739e+02
2.770000e-06	-1.494566e-06	-2.761577e-09	-1.004451e+01	-1.821553e+02
2.780000e-06	-1.541338e-06	-2.911951e-09	-1.035885e+01	-1.920312e+02
2.790000e-06	-1.587481e-06	-3.063653e-09	-1.066896e+01	-2.018871e+02
2.800000e-06	-1.633220e-06	-3.215755e-09	-1.097636e+01	-2.117128e+02
2.810000e-06	-1.678585e-06	-3.366135e-09	-1.128124e+01	-2.215036e+02
2.820000e-06	-1.723557e-06	-3.514904e-09	-1.158348e+01	-2.312579e+02
2.830000e-06	-1.767944e-06	-3.661629e-09	-1.188180e+01	-2.409741e+02
2.840000e-06	-1.811664e-06	-3.806437e-09	-1.217562e+01	-2.506455e+02
2.850000e-06	-1.854886e-06	-3.951519e-09	-1.246610e+01	-2.602583e+02
2.860000e-06	-1.897658e-06	-4.097806e-09	-1.275357e+01	-2.697915e+02
2.870000e-06	-1.939815e-06	-4.241750e-09	-1.303689e+01	-2.792209e+02
2.880000e-06	-1.981320e-06	-4.384295e-09	-1.331583e+01	-2.885240e+02
2.890000e-06	-2.022171e-06	-4.527770e-09	-1.359038e+01	-2.976850e+02
2.900000e-06	-2.062300e-06	-4.668695e-09	-1.386007e+01	-3.066970e+02
2.910000e-06	-2.101805e-06	-4.804527e-09	-1.412557e+01	-3.155597e+02
2.920000e-06	-2.140749e-06	-4.937243e-09	-1.438730e+01	-3.242749e+02
2.930000e-06	-2.178873e-06	-5.069027e-09	-1.464352e+01	-3.328394e+02
2.940000e-06	-2.215913e-06	-5.197775e-09	-1.489245e+01	-3.412401e+02
