# Temperatura_=_26.22
# Concentracion g/m^3_=_18700.0
# C_Vs_to_Am_M_A/Vsm_=_65563218390.804596
# pendiente_HvsI_1/m_=_3716.3
# ordenada_HvsI_A/m_=_1297.0
# frecuencia_Hz_=_301055.9892563567

Tiempo_(s)	Campo_(V.s)	Magnetizacion_(V.s)	Campo_(kA/m)	Magnetizacion_(A/m)
0.000000e+00	-2.945805e-06	-7.855994e-09	-1.978075e+01	-5.127075e+02
1.000000e-08	-2.945242e-06	-7.857642e-09	-1.977697e+01	-5.128227e+02
2.000000e-08	-2.943832e-06	-7.858117e-09	-1.976750e+01	-5.127790e+02
3.000000e-08	-2.941315e-06	-7.853996e-09	-1.975060e+01	-5.125456e+02
4.000000e-08	-2.937549e-06	-7.848835e-09	-1.972531e+01	-5.121009e+02
5.000000e-08	-2.932859e-06	-7.843263e-09	-1.969382e+01	-5.114418e+02
6.000000e-08	-2.927414e-06	-7.835024e-09	-1.965725e+01	-5.105867e+02
7.000000e-08	-2.921018e-06	-7.820839e-09	-1.961431e+01	-5.095694e+02
8.000000e-08	-2.913585e-06	-7.795643e-09	-1.956439e+01	-5.084270e+02
9.000000e-08	-2.905057e-06	-7.795075e-09	-1.950713e+01	-5.071854e+02
1.000000e-07	-2.895122e-06	-7.791596e-09	-1.944042e+01	-5.058484e+02
1.100000e-07	-2.883684e-06	-7.752326e-09	-1.936362e+01	-5.043943e+02
1.200000e-07	-2.871260e-06	-7.637317e-09	-1.928019e+01	-5.027819e+02
1.300000e-07	-2.858139e-06	-7.618969e-09	-1.919208e+01	-5.009647e+02
1.400000e-07	-2.844024e-06	-7.715972e-09	-1.909730e+01	-4.989081e+02
1.500000e-07	-2.828764e-06	-7.654163e-09	-1.899483e+01	-4.966039e+02
1.600000e-07	-2.812364e-06	-7.507277e-09	-1.888471e+01	-4.940769e+02
1.700000e-07	-2.794675e-06	-7.531770e-09	-1.876593e+01	-4.913806e+02
1.800000e-07	-2.775868e-06	-7.529239e-09	-1.863964e+01	-4.885835e+02
1.900000e-07	-2.756364e-06	-7.361634e-09	-1.850867e+01	-4.857498e+02
2.000000e-07	-2.736112e-06	-7.363823e-09	-1.837268e+01	-4.829210e+02
2.100000e-07	-2.714875e-06	-7.383373e-09	-1.823008e+01	-4.801032e+02
2.200000e-07	-2.692760e-06	-7.239138e-09	-1.808158e+01	-4.772661e+02
2.300000e-07	-2.669827e-06	-7.228211e-09	-1.792759e+01	-4.743514e+02
2.400000e-07	-2.645951e-06	-7.271565e-09	-1.776726e+01	-4.712897e+02
2.500000e-07	-2.621246e-06	-7.121144e-09	-1.760137e+01	-4.680187e+02
2.600000e-07	-2.595650e-06	-7.036231e-09	-1.742950e+01	-4.644998e+02
2.700000e-07	-2.568752e-06	-7.031813e-09	-1.724888e+01	-4.607248e+02
2.800000e-07	-2.540708e-06	-6.957586e-09	-1.706057e+01	-4.567155e+02
2.900000e-07	-2.511888e-06	-6.912805e-09	-1.686704e+01	-4.525137e+02
3.000000e-07	-2.482215e-06	-6.842728e-09	-1.666780e+01	-4.481677e+02
3.100000e-07	-2.451728e-06	-6.741424e-09	-1.646308e+01	-4.437190e+02
3.200000e-07	-2.420517e-06	-6.722581e-09	-1.625350e+01	-4.391932e+02
3.300000e-07	-2.388502e-06	-6.646427e-09	-1.603852e+01	-4.345974e+02
3.400000e-07	-2.355785e-06	-6.496415e-09	-1.581883e+01	-4.299231e+02
3.500000e-07	-2.322324e-06	-6.486715e-09	-1.559415e+01	-4.251540e+02
3.600000e-07	-2.287824e-06	-6.437428e-09	-1.536248e+01	-4.202739e+02
3.700000e-07	-2.252176e-06	-6.310360e-09	-1.512311e+01	-4.152732e+02
3.800000e-07	-2.215680e-06	-6.267737e-09	-1.487804e+01	-4.101513e+02
3.900000e-07	-2.178571e-06	-6.177910e-09	-1.462886e+01	-4.049153e+02
4.000000e-07	-2.140772e-06	-6.047548e-09	-1.437504e+01	-3.995760e+02
4.100000e-07	-2.102159e-06	-6.008538e-09	-1.411576e+01	-3.941429e+02
4.200000e-07	-2.062675e-06	-5.948606e-09	-1.385063e+01	-3.886209e+02
4.300000e-07	-2.022511e-06	-5.821890e-09	-1.358093e+01	-3.830093e+02
4.400000e-07	-1.981894e-06	-5.745767e-09	-1.330820e+01	-3.773022e+02
4.500000e-07	-1.940769e-06	-5.670987e-09	-1.303205e+01	-3.714922e+02
4.600000e-07	-1.898797e-06	-5.569628e-09	-1.275021e+01	-3.655734e+02
4.700000e-07	-1.855786e-06	-5.470226e-09	-1.246140e+01	-3.595437e+02
4.800000e-07	-1.811889e-06	-5.374570e-09	-1.216663e+01	-3.534052e+02
4.900000e-07	-1.767357e-06	-5.288446e-09	-1.186760e+01	-3.471637e+02
5.000000e-07	-1.722343e-06	-5.204689e-09	-1.156534e+01	-3.408266e+02
5.100000e-07	-1.676788e-06	-5.099417e-09	-1.125944e+01	-3.344000e+02
5.200000e-07	-1.630627e-06	-4.984894e-09	-1.094947e+01	-3.278881e+02
5.300000e-07	-1.583871e-06	-4.893414e-09	-1.063552e+01	-3.212919e+02
5.400000e-07	-1.536528e-06	-4.794241e-09	-1.031761e+01	-3.146106e+02
5.500000e-07	-1.488634e-06	-4.694710e-09	-9.996012e+00	-3.078427e+02
5.600000e-07	-1.440298e-06	-4.592572e-09	-9.671441e+00	-3.009875e+02
5.700000e-07	-1.391595e-06	-4.474498e-09	-9.344402e+00	-2.940458e+02
5.800000e-07	-1.342404e-06	-4.360550e-09	-9.014090e+00	-2.870201e+02
5.900000e-07	-1.292484e-06	-4.262143e-09	-8.678882e+00	-2.799137e+02
6.000000e-07	-1.241751e-06	-4.151085e-09	-8.338221e+00	-2.727294e+02
6.100000e-07	-1.190318e-06	-4.032428e-09	-7.992850e+00	-2.654685e+02
6.200000e-07	-1.138311e-06	-3.930842e-09	-7.643630e+00	-2.581300e+02
6.300000e-07	-1.085905e-06	-3.824019e-09	-7.291731e+00	-2.507112e+02
6.400000e-07	-1.033172e-06	-3.705377e-09	-6.937633e+00	-2.432090e+02
6.500000e-07	-9.801086e-07	-3.579924e-09	-6.581319e+00	-2.356213e+02
6.600000e-07	-9.266365e-07	-3.460377e-09	-6.222260e+00	-2.279489e+02
6.700000e-07	-8.727456e-07	-3.346257e-09	-5.860388e+00	-2.201963e+02
6.800000e-07	-8.185603e-07	-3.233093e-09	-5.496540e+00	-2.123718e+02
6.900000e-07	-7.641452e-07	-3.113361e-09	-5.131149e+00	-2.044853e+02
7.000000e-07	-7.095381e-07	-2.989308e-09	-4.764468e+00	-1.965468e+02
7.100000e-07	-6.547337e-07	-2.867972e-09	-4.396463e+00	-1.885636e+02
7.200000e-07	-5.997328e-07	-2.741638e-09	-4.027138e+00	-1.805380e+02
7.300000e-07	-5.445036e-07	-2.614014e-09	-3.656280e+00	-1.724664e+02
7.400000e-07	-4.890280e-07	-2.486453e-09	-3.283768e+00	-1.643402e+02
7.500000e-07	-4.332790e-07	-2.364393e-09	-2.909419e+00	-1.561479e+02
7.600000e-07	-3.773040e-07	-2.243481e-09	-2.533554e+00	-1.478782e+02
7.700000e-07	-3.212563e-07	-2.117851e-09	-2.157200e+00	-1.395228e+02
7.800000e-07	-2.651247e-07	-1.984336e-09	-1.780283e+00	-1.310791e+02
7.900000e-07	-2.088913e-07	-1.849648e-09	-1.402681e+00	-1.225501e+02
8.000000e-07	-1.526253e-07	-1.719365e-09	-1.024862e+00	-1.139437e+02
8.100000e-07	-9.632942e-08	-1.586567e-09	-6.468412e-01	-1.052699e+02
8.200000e-07	-3.997254e-08	-1.451838e-09	-2.684111e-01	-9.653763e+01
8.300000e-07	1.640974e-08	-1.315858e-09	1.101895e-01	-8.775233e+01
8.400000e-07	7.275282e-08	-1.183017e-09	4.885270e-01	-7.891484e+01
8.500000e-07	1.290632e-07	-1.048862e-09	8.666451e-01	-7.002186e+01
8.600000e-07	1.853691e-07	-9.111538e-10	1.244732e+00	-6.106777e+01
8.700000e-07	2.416337e-07	-7.722031e-10	1.622543e+00	-5.204699e+01
8.800000e-07	2.978208e-07	-6.344726e-10	1.999833e+00	-4.295577e+01
8.900000e-07	3.538604e-07	-4.969402e-10	2.376133e+00	-3.379284e+01
9.000000e-07	4.097165e-07	-3.552000e-10	2.751200e+00	-2.455854e+01
9.100000e-07	4.654473e-07	-2.090613e-10	3.125426e+00	-1.525299e+01
9.200000e-07	5.209839e-07	-6.069566e-11	3.498348e+00	-5.874261e+00
9.300000e-07	5.762939e-07	8.385599e-11	3.869748e+00	3.582602e+00
9.400000e-07	6.314171e-07	2.277484e-10	4.239895e+00	1.312495e+01
9.500000e-07	6.863255e-07	3.721091e-10	4.608599e+00	2.276039e+01
9.600000e-07	7.410107e-07	5.197485e-10	4.975803e+00	3.249394e+01
9.700000e-07	7.955109e-07	6.691470e-10	5.341766e+00	4.232552e+01
9.800000e-07	8.498042e-07	8.187329e-10	5.706339e+00	5.224914e+01
9.900000e-07	9.037648e-07	9.728357e-10	6.068679e+00	6.225412e+01
1.000000e-06	9.573207e-07	1.131063e-09	6.428301e+00	7.232818e+01
1.010000e-06	1.010516e-06	1.289558e-09	6.785502e+00	8.246127e+01
1.020000e-06	1.063374e-06	1.445105e-09	7.140439e+00	9.264858e+01
1.030000e-06	1.115846e-06	1.599862e-09	7.492778e+00	1.028914e+02
1.040000e-06	1.167898e-06	1.754258e-09	7.842301e+00	1.131955e+02
1.050000e-06	1.219385e-06	1.910045e-09	8.188036e+00	1.235668e+02
1.060000e-06	1.270134e-06	2.067307e-09	8.528807e+00	1.340073e+02
1.070000e-06	1.320091e-06	2.228760e-09	8.864262e+00	1.445110e+02
1.080000e-06	1.369360e-06	2.393196e-09	9.195098e+00	1.550639e+02
1.090000e-06	1.418153e-06	2.558340e-09	9.522738e+00	1.656456e+02
1.100000e-06	1.466599e-06	2.722727e-09	9.848047e+00	1.762349e+02
1.110000e-06	1.514647e-06	2.883881e-09	1.017068e+01	1.868151e+02
1.120000e-06	1.562160e-06	3.041799e-09	1.048973e+01	1.973780e+02
1.130000e-06	1.609116e-06	3.198304e-09	1.080503e+01	2.079244e+02
1.140000e-06	1.655533e-06	3.355375e-09	1.111672e+01	2.184609e+02
1.150000e-06	1.701361e-06	3.513343e-09	1.142444e+01	2.289936e+02
1.160000e-06	1.746568e-06	3.676007e-09	1.172801e+01	2.395219e+02
1.170000e-06	1.791323e-06	3.841783e-09	1.202853e+01	2.500337e+02
1.180000e-06	1.835732e-06	4.006795e-09	1.232673e+01	2.605048e+02
1.190000e-06	1.879551e-06	4.168133e-09	1.262098e+01	2.709030e+02
1.200000e-06	1.922467e-06	4.323206e-09	1.290915e+01	2.811953e+02
1.210000e-06	1.964358e-06	4.474238e-09	1.319044e+01	2.913553e+02
1.220000e-06	2.005353e-06	4.621845e-09	1.346572e+01	3.013686e+02
1.230000e-06	2.045744e-06	4.768230e-09	1.373694e+01	3.112331e+02
1.240000e-06	2.085577e-06	4.915870e-09	1.400442e+01	3.209547e+02
1.250000e-06	2.124725e-06	5.065289e-09	1.426729e+01	3.305389e+02
1.260000e-06	2.163170e-06	5.214465e-09	1.452544e+01	3.399820e+02
1.270000e-06	2.200829e-06	5.359809e-09	1.477832e+01	3.492662e+02
1.280000e-06	2.237780e-06	5.499924e-09	1.502644e+01	3.583582e+02
1.290000e-06	2.274198e-06	5.633111e-09	1.527099e+01	3.672155e+02
1.300000e-06	2.309851e-06	5.757861e-09	1.551039e+01	3.757954e+02
1.310000e-06	2.344356e-06	5.875829e-09	1.574209e+01	3.840656e+02
1.320000e-06	2.377773e-06	5.991661e-09	1.596648e+01	3.920117e+02
1.330000e-06	2.410397e-06	6.107036e-09	1.618554e+01	3.996382e+02
1.340000e-06	2.442303e-06	6.222757e-09	1.639979e+01	4.069645e+02
1.350000e-06	2.473413e-06	6.333782e-09	1.660869e+01	4.140156e+02
1.360000e-06	2.503660e-06	6.437348e-09	1.681179e+01	4.208120e+02
1.370000e-06	2.533080e-06	6.535695e-09	1.700935e+01	4.273627e+02
1.380000e-06	2.561801e-06	6.629112e-09	1.720220e+01	4.336630e+02
1.390000e-06	2.589777e-06	6.717016e-09	1.739006e+01	4.396994e+02
1.400000e-06	2.616660e-06	6.800095e-09	1.757058e+01	4.454578e+02
1.410000e-06	2.642275e-06	6.880187e-09	1.774258e+01	4.509326e+02
1.420000e-06	2.666865e-06	6.958810e-09	1.790770e+01	4.561325e+02
1.430000e-06	2.690564e-06	7.035397e-09	1.806684e+01	4.610802e+02
1.440000e-06	2.713338e-06	7.107992e-09	1.821976e+01	4.658065e+02
1.450000e-06	2.735182e-06	7.177789e-09	1.836644e+01	4.703398e+02
1.460000e-06	2.756184e-06	7.243478e-09	1.850746e+01	4.746961e+02
1.470000e-06	2.776492e-06	7.305504e-09	1.864383e+01	4.788730e+02
1.480000e-06	2.795845e-06	7.363818e-09	1.877378e+01	4.828496e+02
1.490000e-06	2.814050e-06	7.416689e-09	1.889603e+01	4.865936e+02
1.500000e-06	2.831358e-06	7.465049e-09	1.901225e+01	4.900727e+02
1.510000e-06	2.847693e-06	7.508665e-09	1.912194e+01	4.932654e+02
1.520000e-06	2.862848e-06	7.550599e-09	1.922370e+01	4.961688e+02
1.530000e-06	2.876893e-06	7.591740e-09	1.931801e+01	4.987989e+02
1.540000e-06	2.889887e-06	7.629513e-09	1.940526e+01	5.011847e+02
1.550000e-06	2.901818e-06	7.662548e-09	1.948538e+01	5.033578e+02
1.560000e-06	2.912425e-06	7.692482e-09	1.955660e+01	5.053424e+02
1.570000e-06	2.921703e-06	7.718829e-09	1.961891e+01	5.071485e+02
1.580000e-06	2.930018e-06	7.740039e-09	1.967474e+01	5.087720e+02
1.590000e-06	2.937363e-06	7.757848e-09	1.972406e+01	5.102003e+02
1.600000e-06	2.943656e-06	7.772707e-09	1.976632e+01	5.114220e+02
1.610000e-06	2.948994e-06	7.786302e-09	1.980216e+01	5.124351e+02
1.620000e-06	2.953504e-06	7.799709e-09	1.983245e+01	5.132519e+02
1.630000e-06	2.957013e-06	7.811151e-09	1.985601e+01	5.138962e+02
1.640000e-06	2.959197e-06	7.821170e-09	1.987067e+01	5.143960e+02
1.650000e-06	2.960253e-06	7.827993e-09	1.987776e+01	5.147728e+02
1.660000e-06	2.960362e-06	7.830711e-09	1.987850e+01	5.150330e+02
1.670000e-06	2.959502e-06	7.830544e-09	1.987272e+01	5.151643e+02
1.680000e-06	2.957721e-06	7.825229e-09	1.986077e+01	5.151401e+02
1.690000e-06	2.955078e-06	7.819628e-09	1.984302e+01	5.149293e+02
1.700000e-06	2.951662e-06	7.813217e-09	1.982008e+01	5.145087e+02
1.710000e-06	2.947342e-06	7.803823e-09	1.979107e+01	5.138730e+02
1.720000e-06	2.941812e-06	7.793728e-09	1.975394e+01	5.130385e+02
1.730000e-06	2.935127e-06	7.786082e-09	1.970904e+01	5.120376e+02
1.740000e-06	2.927606e-06	7.772982e-09	1.965855e+01	5.109080e+02
1.750000e-06	2.919043e-06	7.713017e-09	1.960105e+01	5.096773e+02
1.760000e-06	2.908837e-06	7.663941e-09	1.953251e+01	5.083521e+02
1.770000e-06	2.896985e-06	7.715558e-09	1.945293e+01	5.069133e+02
1.780000e-06	2.884529e-06	7.749600e-09	1.936929e+01	5.053211e+02
1.790000e-06	2.871974e-06	7.651472e-09	1.928499e+01	5.035288e+02
1.800000e-06	2.858217e-06	7.544871e-09	1.919261e+01	5.014997e+02
1.810000e-06	2.842675e-06	7.639211e-09	1.908825e+01	4.992224e+02
1.820000e-06	2.826332e-06	7.602878e-09	1.897850e+01	4.967180e+02
1.830000e-06	2.809478e-06	7.413199e-09	1.886533e+01	4.940376e+02
1.840000e-06	2.791432e-06	7.460887e-09	1.874415e+01	4.912489e+02
1.850000e-06	2.772378e-06	7.512009e-09	1.861621e+01	4.884177e+02
1.860000e-06	2.752621e-06	7.335995e-09	1.848354e+01	4.855882e+02
1.870000e-06	2.731532e-06	7.310215e-09	1.834193e+01	4.827711e+02
1.880000e-06	2.709057e-06	7.397328e-09	1.819101e+01	4.799394e+02
1.890000e-06	2.685759e-06	7.216935e-09	1.803457e+01	4.770373e+02
1.900000e-06	2.661539e-06	7.143110e-09	1.787194e+01	4.739955e+02
1.910000e-06	2.636416e-06	7.246388e-09	1.770324e+01	4.707503e+02
1.920000e-06	2.610633e-06	7.135935e-09	1.753011e+01	4.672598e+02
1.930000e-06	2.583995e-06	7.034205e-09	1.735124e+01	4.635127e+02
1.940000e-06	2.556547e-06	7.029682e-09	1.716692e+01	4.595277e+02
1.950000e-06	2.528263e-06	6.901825e-09	1.697700e+01	4.553451e+02
1.960000e-06	2.498631e-06	6.874771e-09	1.677803e+01	4.510133e+02
1.970000e-06	2.467818e-06	6.825893e-09	1.657112e+01	4.465750e+02
1.980000e-06	2.436302e-06	6.669149e-09	1.635949e+01	4.420578e+02
1.990000e-06	2.403984e-06	6.694496e-09	1.614248e+01	4.374706e+02
2.000000e-06	2.370859e-06	6.650331e-09	1.592005e+01	4.328064e+02
2.010000e-06	2.336978e-06	6.462513e-09	1.569254e+01	4.280492e+02
2.020000e-06	2.302284e-06	6.449770e-09	1.545958e+01	4.231826e+02
2.030000e-06	2.266968e-06	6.380246e-09	1.522244e+01	4.181959e+02
2.040000e-06	2.230859e-06	6.233012e-09	1.497997e+01	4.130877e+02
2.050000e-06	2.193556e-06	6.241850e-09	1.472948e+01	4.078644e+02
2.060000e-06	2.155226e-06	6.155572e-09	1.447210e+01	4.025366e+02
2.070000e-06	2.116218e-06	6.012661e-09	1.421017e+01	3.971141e+02
2.080000e-06	2.076599e-06	5.970432e-09	1.394413e+01	3.916026e+02
2.090000e-06	2.036315e-06	5.881915e-09	1.367363e+01	3.860017e+02
2.100000e-06	1.995347e-06	5.778887e-09	1.339853e+01	3.803061e+02
2.110000e-06	1.953736e-06	5.694316e-09	1.311912e+01	3.745085e+02
2.120000e-06	1.911458e-06	5.600876e-09	1.283523e+01	3.686025e+02
2.130000e-06	1.868574e-06	5.532262e-09	1.254726e+01	3.625855e+02
2.140000e-06	1.825273e-06	5.433838e-09	1.225650e+01	3.564594e+02
2.150000e-06	1.781436e-06	5.316338e-09	1.196214e+01	3.502296e+02
2.160000e-06	1.736878e-06	5.231146e-09	1.166294e+01	3.439033e+02
2.170000e-06	1.691552e-06	5.143419e-09	1.135858e+01	3.374870e+02
2.180000e-06	1.645658e-06	5.047600e-09	1.105041e+01	3.309851e+02
2.190000e-06	1.599329e-06	4.937001e-09	1.073931e+01	3.243989e+02
2.200000e-06	1.552448e-06	4.829619e-09	1.042451e+01	3.177278e+02
2.210000e-06	1.504914e-06	4.724002e-09	1.010533e+01	3.109702e+02
2.220000e-06	1.456664e-06	4.619738e-09	9.781335e+00	3.041252e+02
2.230000e-06	1.407807e-06	4.533837e-09	9.453266e+00	2.971936e+02
2.240000e-06	1.358505e-06	4.417639e-09	9.122208e+00	2.901777e+02
2.250000e-06	1.308751e-06	4.304887e-09	8.788117e+00	2.830808e+02
2.260000e-06	1.258480e-06	4.214477e-09	8.450553e+00	2.759057e+02
2.270000e-06	1.207708e-06	4.097173e-09	8.109627e+00	2.686540e+02
2.280000e-06	1.156511e-06	3.970965e-09	7.765841e+00	2.613248e+02
2.290000e-06	1.104922e-06	3.854639e-09	7.419427e+00	2.539158e+02
2.300000e-06	1.052825e-06	3.746337e-09	7.069600e+00	2.464235e+02
2.310000e-06	1.000137e-06	3.644562e-09	6.715806e+00	2.388459e+02
2.320000e-06	9.467618e-07	3.525911e-09	6.357399e+00	2.311834e+02
2.330000e-06	8.927711e-07	3.401011e-09	5.994858e+00	2.234401e+02
2.340000e-06	8.384009e-07	3.282768e-09	5.629767e+00	2.156237e+02
2.350000e-06	7.837216e-07	3.162213e-09	5.262602e+00	2.077443e+02
2.360000e-06	7.287958e-07	3.042011e-09	4.893781e+00	1.998120e+02
2.370000e-06	6.737489e-07	2.917835e-09	4.524148e+00	1.918343e+02
2.380000e-06	6.185927e-07	2.798595e-09	4.153781e+00	1.838142e+02
2.390000e-06	5.633319e-07	2.680955e-09	3.782710e+00	1.757488e+02
2.400000e-06	5.079678e-07	2.558274e-09	3.410946e+00	1.676300e+02
2.410000e-06	4.524002e-07	2.434162e-09	3.037816e+00	1.594463e+02
2.420000e-06	3.966369e-07	2.303739e-09	2.663372e+00	1.511863e+02
2.430000e-06	3.407432e-07	2.176075e-09	2.288052e+00	1.428413e+02
2.440000e-06	2.847357e-07	2.053402e-09	1.911968e+00	1.344079e+02
2.450000e-06	2.286264e-07	1.928033e-09	1.535200e+00	1.258887e+02
2.460000e-06	1.724135e-07	1.796984e-09	1.157737e+00	1.172911e+02
2.470000e-06	1.161576e-07	1.662546e-09	7.799854e-01	1.086250e+02
2.480000e-06	5.988681e-08	1.530467e-09	4.021332e-01	9.989956e+01
2.490000e-06	3.557043e-09	1.398307e-09	2.388514e-02	9.112076e+01
2.500000e-06	-5.277722e-08	1.264205e-09	-3.543931e-01	8.228991e+01
2.510000e-06	-1.090603e-07	1.129733e-09	-7.323279e-01	7.340407e+01
2.520000e-06	-1.652866e-07	9.942953e-10	-1.109881e+00	6.445777e+01
2.530000e-06	-2.214307e-07	8.552898e-10	-1.486882e+00	5.544530e+01
2.540000e-06	-2.774615e-07	7.148576e-10	-1.863123e+00	4.636268e+01
2.550000e-06	-3.333533e-07	5.765541e-10	-2.238430e+00	3.720838e+01
2.560000e-06	-3.890847e-07	4.403276e-10	-2.612660e+00	2.798264e+01
2.570000e-06	-4.446644e-07	3.005448e-10	-2.985872e+00	1.868572e+01
2.580000e-06	-5.001159e-07	1.575418e-10	-3.358222e+00	9.315965e+00
2.590000e-06	-5.554377e-07	1.445664e-11	-3.729702e+00	-1.312560e-01
2.600000e-06	-6.106419e-07	-1.317436e-10	-4.100391e+00	-9.663113e+00
2.610000e-06	-6.657466e-07	-2.805653e-10	-4.470413e+00	-1.928732e+01
2.620000e-06	-7.207553e-07	-4.296124e-10	-4.839791e+00	-2.900931e+01
2.630000e-06	-7.756167e-07	-5.773457e-10	-5.208179e+00	-3.882962e+01
2.640000e-06	-8.302037e-07	-7.252209e-10	-5.574724e+00	-4.874288e+01
2.650000e-06	-8.843704e-07	-8.759625e-10	-5.938448e+00	-5.873879e+01
2.660000e-06	-9.380400e-07	-1.031361e-09	-6.298833e+00	-6.880505e+01
2.670000e-06	-9.911501e-07	-1.187903e-09	-6.655461e+00	-7.893121e+01
2.680000e-06	-1.043656e-06	-1.343345e-09	-7.008036e+00	-8.911179e+01
2.690000e-06	-1.095594e-06	-1.498761e-09	-7.356789e+00	-9.934751e+01
2.700000e-06	-1.147063e-06	-1.654845e-09	-7.702396e+00	-1.096437e+02
2.710000e-06	-1.198188e-06	-1.811796e-09	-8.045696e+00	-1.200067e+02
2.720000e-06	-1.248955e-06	-1.968390e-09	-8.386589e+00	-1.304389e+02
2.730000e-06	-1.299293e-06	-2.128398e-09	-8.724609e+00	-1.409355e+02
2.740000e-06	-1.349132e-06	-2.291156e-09	-9.059270e+00	-1.514831e+02
2.750000e-06	-1.398421e-06	-2.454046e-09	-9.390238e+00	-1.620617e+02
2.760000e-06	-1.447078e-06	-2.615458e-09	-9.716965e+00	-1.726502e+02
2.770000e-06	-1.495019e-06	-2.775965e-09	-1.003888e+01	-1.832310e+02
2.780000e-06	-1.542112e-06	-2.937463e-09	-1.035511e+01	-1.937950e+02
2.790000e-06	-1.588410e-06	-3.098038e-09	-1.066599e+01	-2.043420e+02
2.800000e-06	-1.634191e-06	-3.258417e-09	-1.097341e+01	-2.148782e+02
2.810000e-06	-1.679529e-06	-3.419643e-09	-1.127785e+01	-2.254102e+02
2.820000e-06	-1.724427e-06	-3.582754e-09	-1.157933e+01	-2.359384e+02
2.830000e-06	-1.768808e-06	-3.744450e-09	-1.187735e+01	-2.464519e+02
2.840000e-06	-1.812579e-06	-3.902012e-09	-1.217127e+01	-2.569279e+02
2.850000e-06	-1.855843e-06	-4.057975e-09	-1.246178e+01	-2.673346e+02
2.860000e-06	-1.898690e-06	-4.215661e-09	-1.274949e+01	-2.776387e+02
2.870000e-06	-1.940973e-06	-4.372411e-09	-1.303342e+01	-2.878129e+02
2.880000e-06	-1.982566e-06	-4.525995e-09	-1.331271e+01	-2.978412e+02
2.890000e-06	-2.023482e-06	-4.676083e-09	-1.358745e+01	-3.077206e+02
2.900000e-06	-2.063700e-06	-4.824030e-09	-1.385752e+01	-3.174562e+02
2.910000e-06	-2.103233e-06	-4.970558e-09	-1.412297e+01	-3.270540e+02
2.920000e-06	-2.142214e-06	-5.114422e-09	-1.438473e+01	-3.365120e+02
2.930000e-06	-2.180490e-06	-5.255791e-09	-1.464175e+01	-3.458135e+02
2.940000e-06	-2.217685e-06	-5.394109e-09	-1.489151e+01	-3.549271e+02
