# Temperatura_=_24.88
# Concentracion g/m^3_=_18700.0
# C_Vs_to_Am_M_A/Vsm_=_65563218390.804596
# pendiente_HvsI_1/m_=_3716.3
# ordenada_HvsI_A/m_=_1297.0
# frecuencia_Hz_=_301063.30725420575

Tiempo_(s)	Campo_(V.s)	Magnetizacion_(V.s)	Campo_(kA/m)	Magnetizacion_(A/m)
0.000000e+00	-2.940712e-06	-7.792446e-09	-1.977708e+01	-5.089594e+02
1.000000e-08	-2.940269e-06	-7.795782e-09	-1.977410e+01	-5.091260e+02
2.000000e-08	-2.938991e-06	-7.798563e-09	-1.976551e+01	-5.091508e+02
3.000000e-08	-2.936564e-06	-7.799195e-09	-1.974919e+01	-5.089894e+02
4.000000e-08	-2.932923e-06	-7.796920e-09	-1.972470e+01	-5.086044e+02
5.000000e-08	-2.928336e-06	-7.789828e-09	-1.969385e+01	-5.079807e+02
6.000000e-08	-2.922924e-06	-7.777944e-09	-1.965745e+01	-5.071327e+02
7.000000e-08	-2.916619e-06	-7.765506e-09	-1.961505e+01	-5.061005e+02
8.000000e-08	-2.909374e-06	-7.757103e-09	-1.956632e+01	-5.049356e+02
9.000000e-08	-2.901011e-06	-7.743414e-09	-1.951008e+01	-5.036827e+02
1.000000e-07	-2.891199e-06	-7.704458e-09	-1.944409e+01	-5.023631e+02
1.100000e-07	-2.879888e-06	-7.654988e-09	-1.936802e+01	-5.009671e+02
1.200000e-07	-2.867541e-06	-7.639889e-09	-1.928499e+01	-4.994577e+02
1.300000e-07	-2.854451e-06	-7.643180e-09	-1.919696e+01	-4.977849e+02
1.400000e-07	-2.840407e-06	-7.611540e-09	-1.910251e+01	-4.959047e+02
1.500000e-07	-2.825239e-06	-7.570756e-09	-1.900049e+01	-4.937967e+02
1.600000e-07	-2.808913e-06	-7.560410e-09	-1.889070e+01	-4.914724e+02
1.700000e-07	-2.791330e-06	-7.503896e-09	-1.877245e+01	-4.889727e+02
1.800000e-07	-2.772676e-06	-7.416972e-09	-1.864699e+01	-4.863541e+02
1.900000e-07	-2.753321e-06	-7.384079e-09	-1.851682e+01	-4.836703e+02
2.000000e-07	-2.733181e-06	-7.351625e-09	-1.838138e+01	-4.809535e+02
2.100000e-07	-2.712032e-06	-7.295183e-09	-1.823915e+01	-4.782049e+02
2.200000e-07	-2.689999e-06	-7.270288e-09	-1.809097e+01	-4.753943e+02
2.300000e-07	-2.667110e-06	-7.247452e-09	-1.793703e+01	-4.724710e+02
2.400000e-07	-2.643297e-06	-7.176568e-09	-1.777688e+01	-4.693804e+02
2.500000e-07	-2.618712e-06	-7.104107e-09	-1.761154e+01	-4.660800e+02
2.600000e-07	-2.593242e-06	-7.033616e-09	-1.744025e+01	-4.625511e+02
2.700000e-07	-2.566544e-06	-6.974630e-09	-1.726070e+01	-4.588007e+02
2.800000e-07	-2.538705e-06	-6.952167e-09	-1.707347e+01	-4.548558e+02
2.900000e-07	-2.509997e-06	-6.895012e-09	-1.688041e+01	-4.507517e+02
3.000000e-07	-2.480426e-06	-6.803069e-09	-1.668154e+01	-4.465199e+02
3.100000e-07	-2.450047e-06	-6.764060e-09	-1.647723e+01	-4.421805e+02
3.200000e-07	-2.418944e-06	-6.701320e-09	-1.626805e+01	-4.377391e+02
3.300000e-07	-2.387081e-06	-6.581585e-09	-1.605376e+01	-4.331905e+02
3.400000e-07	-2.354532e-06	-6.522371e-09	-1.583486e+01	-4.285258e+02
3.500000e-07	-2.321253e-06	-6.474221e-09	-1.561105e+01	-4.237389e+02
3.600000e-07	-2.286948e-06	-6.379248e-09	-1.538034e+01	-4.188303e+02
3.700000e-07	-2.251513e-06	-6.316598e-09	-1.514203e+01	-4.138071e+02
3.800000e-07	-2.215208e-06	-6.255594e-09	-1.489787e+01	-4.086792e+02
3.900000e-07	-2.178214e-06	-6.137352e-09	-1.464907e+01	-4.034547e+02
4.000000e-07	-2.140496e-06	-6.056097e-09	-1.439541e+01	-3.981361e+02
4.100000e-07	-2.102008e-06	-6.002502e-09	-1.413657e+01	-3.927197e+02
4.200000e-07	-2.062734e-06	-5.904040e-09	-1.387244e+01	-3.871980e+02
4.300000e-07	-2.022742e-06	-5.810430e-09	-1.360348e+01	-3.815638e+02
4.400000e-07	-1.982218e-06	-5.735761e-09	-1.333095e+01	-3.758140e+02
4.500000e-07	-1.941184e-06	-5.644668e-09	-1.305499e+01	-3.699513e+02
4.600000e-07	-1.899366e-06	-5.548627e-09	-1.277375e+01	-3.639834e+02
4.700000e-07	-1.856513e-06	-5.451965e-09	-1.248555e+01	-3.579192e+02
4.800000e-07	-1.812715e-06	-5.354735e-09	-1.219100e+01	-3.517654e+02
4.900000e-07	-1.768338e-06	-5.272375e-09	-1.189255e+01	-3.455235e+02
5.000000e-07	-1.723503e-06	-5.177250e-09	-1.159102e+01	-3.391903e+02
5.100000e-07	-1.678112e-06	-5.070602e-09	-1.128575e+01	-3.327603e+02
5.200000e-07	-1.632101e-06	-4.973459e-09	-1.097632e+01	-3.262294e+02
5.300000e-07	-1.585510e-06	-4.871345e-09	-1.066298e+01	-3.195989e+02
5.400000e-07	-1.538316e-06	-4.764180e-09	-1.034559e+01	-3.128762e+02
5.500000e-07	-1.490508e-06	-4.668195e-09	-1.002407e+01	-3.060731e+02
5.600000e-07	-1.442247e-06	-4.563000e-09	-9.699500e+00	-2.992020e+02
5.700000e-07	-1.393618e-06	-4.448377e-09	-9.372455e+00	-2.922710e+02
5.800000e-07	-1.344524e-06	-4.349931e-09	-9.042289e+00	-2.852812e+02
5.900000e-07	-1.294801e-06	-4.244803e-09	-8.707885e+00	-2.782257e+02
6.000000e-07	-1.244285e-06	-4.124633e-09	-8.368152e+00	-2.710933e+02
6.100000e-07	-1.193010e-06	-4.011864e-09	-8.023315e+00	-2.638729e+02
6.200000e-07	-1.141122e-06	-3.907391e-09	-7.674352e+00	-2.565584e+02
6.300000e-07	-1.088776e-06	-3.795643e-09	-7.322310e+00	-2.491517e+02
6.400000e-07	-1.036130e-06	-3.677122e-09	-6.968254e+00	-2.416625e+02
6.500000e-07	-9.831690e-07	-3.559416e-09	-6.612077e+00	-2.341042e+02
6.600000e-07	-9.298221e-07	-3.445337e-09	-6.253304e+00	-2.264895e+02
6.700000e-07	-8.760962e-07	-3.330629e-09	-5.891983e+00	-2.188256e+02
6.800000e-07	-8.220378e-07	-3.211343e-09	-5.528426e+00	-2.111121e+02
6.900000e-07	-7.677204e-07	-3.091627e-09	-5.163126e+00	-2.033420e+02
7.000000e-07	-7.132248e-07	-2.971999e-09	-4.796629e+00	-1.955053e+02
7.100000e-07	-6.585156e-07	-2.851193e-09	-4.428695e+00	-1.875938e+02
7.200000e-07	-6.036224e-07	-2.728273e-09	-4.059523e+00	-1.796045e+02
7.300000e-07	-5.485782e-07	-2.602512e-09	-3.689337e+00	-1.715403e+02
7.400000e-07	-4.932656e-07	-2.474471e-09	-3.317344e+00	-1.634086e+02
7.500000e-07	-4.376815e-07	-2.348604e-09	-2.943526e+00	-1.552170e+02
7.600000e-07	-3.818774e-07	-2.224911e-09	-2.568228e+00	-1.469691e+02
7.700000e-07	-3.258408e-07	-2.098219e-09	-2.191367e+00	-1.386627e+02
7.800000e-07	-2.697043e-07	-1.968945e-09	-1.813834e+00	-1.302901e+02
7.900000e-07	-2.135304e-07	-1.841671e-09	-1.436049e+00	-1.218415e+02
8.000000e-07	-1.573224e-07	-1.713229e-09	-1.058035e+00	-1.133095e+02
8.100000e-07	-1.011277e-07	-1.578967e-09	-6.801111e-01	-1.046931e+02
8.200000e-07	-4.484935e-08	-1.442478e-09	-3.016239e-01	-9.599892e+01
8.300000e-07	1.149378e-08	-1.308101e-09	7.729876e-02	-8.723936e+01
8.400000e-07	6.776978e-08	-1.176310e-09	4.557701e-01	-7.842828e+01
8.500000e-07	1.239936e-07	-1.043746e-09	8.338901e-01	-6.957573e+01
8.600000e-07	1.802240e-07	-9.088387e-10	1.212055e+00	-6.068411e+01
8.700000e-07	2.364046e-07	-7.731069e-10	1.589885e+00	-5.174721e+01
8.800000e-07	2.924870e-07	-6.367785e-10	1.967054e+00	-4.275247e+01
8.900000e-07	3.484715e-07	-4.970704e-10	2.343565e+00	-3.368555e+01
9.000000e-07	4.043190e-07	-3.544274e-10	2.719154e+00	-2.453527e+01
9.100000e-07	4.599986e-07	-2.115643e-10	3.093615e+00	-1.529694e+01
9.200000e-07	5.154876e-07	-6.949583e-11	3.466793e+00	-5.972783e+00
9.300000e-07	5.707604e-07	7.144830e-11	3.838518e+00	3.430503e+00
9.400000e-07	6.257994e-07	2.141384e-10	4.208669e+00	1.290585e+01
9.500000e-07	6.806228e-07	3.605493e-10	4.577372e+00	2.244970e+01
9.600000e-07	7.352825e-07	5.099270e-10	4.944973e+00	3.206393e+01
9.700000e-07	7.897585e-07	6.589166e-10	5.311339e+00	4.175508e+01
9.800000e-07	8.439200e-07	8.063844e-10	5.675589e+00	5.153127e+01
9.900000e-07	8.977461e-07	9.574885e-10	6.037585e+00	6.139829e+01
1.000000e-06	9.512742e-07	1.112261e-09	6.397576e+00	7.135664e+01
1.010000e-06	1.004429e-06	1.265156e-09	6.755059e+00	8.140084e+01
1.020000e-06	1.057197e-06	1.417831e-09	7.109933e+00	9.152116e+01
1.030000e-06	1.109579e-06	1.573986e-09	7.462216e+00	1.017069e+02
1.040000e-06	1.161558e-06	1.732452e-09	7.811790e+00	1.119498e+02
1.050000e-06	1.212996e-06	1.889399e-09	8.157725e+00	1.222450e+02
1.060000e-06	1.263745e-06	2.045331e-09	8.499027e+00	1.325909e+02
1.070000e-06	1.313729e-06	2.203937e-09	8.835180e+00	1.429857e+02
1.080000e-06	1.362987e-06	2.364079e-09	9.166452e+00	1.534245e+02
1.090000e-06	1.411794e-06	2.526214e-09	9.494694e+00	1.638966e+02
1.100000e-06	1.460260e-06	2.689816e-09	9.820645e+00	1.743868e+02
1.110000e-06	1.508281e-06	2.851453e-09	1.014360e+01	1.848774e+02
1.120000e-06	1.555784e-06	3.009979e-09	1.046307e+01	1.953536e+02
1.130000e-06	1.602718e-06	3.167985e-09	1.077871e+01	2.058067e+02
1.140000e-06	1.649081e-06	3.325051e-09	1.109051e+01	2.162359e+02
1.150000e-06	1.694866e-06	3.482150e-09	1.139843e+01	2.266453e+02
1.160000e-06	1.740101e-06	3.641459e-09	1.170265e+01	2.370394e+02
1.170000e-06	1.784875e-06	3.802115e-09	1.200376e+01	2.474164e+02
1.180000e-06	1.829167e-06	3.963873e-09	1.230164e+01	2.577639e+02
1.190000e-06	1.872878e-06	4.125449e-09	1.259561e+01	2.680581e+02
1.200000e-06	1.915741e-06	4.283943e-09	1.288388e+01	2.782674e+02
1.210000e-06	1.957583e-06	4.437595e-09	1.316527e+01	2.883595e+02
1.220000e-06	1.998621e-06	4.585984e-09	1.344126e+01	2.983085e+02
1.230000e-06	2.039059e-06	4.730633e-09	1.371322e+01	3.081001e+02
1.240000e-06	2.078887e-06	4.875582e-09	1.398107e+01	3.177314e+02
1.250000e-06	2.118081e-06	5.021664e-09	1.424467e+01	3.272060e+02
1.260000e-06	2.156535e-06	5.167616e-09	1.450328e+01	3.365261e+02
1.270000e-06	2.194200e-06	5.310464e-09	1.475658e+01	3.456840e+02
1.280000e-06	2.231207e-06	5.449151e-09	1.500547e+01	3.546583e+02
1.290000e-06	2.267628e-06	5.583392e-09	1.525041e+01	3.634153e+02
1.300000e-06	2.303280e-06	5.710690e-09	1.549018e+01	3.719161e+02
1.310000e-06	2.337837e-06	5.829817e-09	1.572258e+01	3.801268e+02
1.320000e-06	2.371273e-06	5.942938e-09	1.594745e+01	3.880282e+02
1.330000e-06	2.403881e-06	6.054980e-09	1.616675e+01	3.956204e+02
1.340000e-06	2.435743e-06	6.168262e-09	1.638103e+01	4.029204e+02
1.350000e-06	2.466823e-06	6.278289e-09	1.659005e+01	4.099542e+02
1.360000e-06	2.497133e-06	6.381115e-09	1.679389e+01	4.167449e+02
1.370000e-06	2.526623e-06	6.479108e-09	1.699222e+01	4.233035e+02
1.380000e-06	2.555395e-06	6.573864e-09	1.718572e+01	4.296241e+02
1.390000e-06	2.583426e-06	6.664138e-09	1.737424e+01	4.356874e+02
1.400000e-06	2.610377e-06	6.748323e-09	1.755549e+01	4.414698e+02
1.410000e-06	2.636062e-06	6.828054e-09	1.772823e+01	4.469555e+02
1.420000e-06	2.660688e-06	6.906755e-09	1.789384e+01	4.521459e+02
1.430000e-06	2.684408e-06	6.983202e-09	1.805337e+01	4.570626e+02
1.440000e-06	2.707259e-06	7.053683e-09	1.820704e+01	4.617417e+02
1.450000e-06	2.729219e-06	7.119706e-09	1.835473e+01	4.662221e+02
1.460000e-06	2.750302e-06	7.185602e-09	1.849652e+01	4.705315e+02
1.470000e-06	2.770582e-06	7.250987e-09	1.863291e+01	4.746763e+02
1.480000e-06	2.789971e-06	7.312423e-09	1.876331e+01	4.786382e+02
1.490000e-06	2.808343e-06	7.365905e-09	1.888687e+01	4.823817e+02
1.500000e-06	2.825660e-06	7.412285e-09	1.900333e+01	4.858665e+02
1.510000e-06	2.841902e-06	7.455675e-09	1.911256e+01	4.890633e+02
1.520000e-06	2.857072e-06	7.497179e-09	1.921458e+01	4.919648e+02
1.530000e-06	2.871181e-06	7.535998e-09	1.930947e+01	4.945891e+02
1.540000e-06	2.884273e-06	7.572082e-09	1.939751e+01	4.969725e+02
1.550000e-06	2.896302e-06	7.605556e-09	1.947841e+01	4.991567e+02
1.560000e-06	2.906995e-06	7.636560e-09	1.955032e+01	5.011738e+02
1.570000e-06	2.916379e-06	7.663282e-09	1.961343e+01	5.030358e+02
1.580000e-06	2.924737e-06	7.684929e-09	1.966965e+01	5.047327e+02
1.590000e-06	2.932132e-06	7.703858e-09	1.971938e+01	5.062396e+02
1.600000e-06	2.938512e-06	7.721974e-09	1.976228e+01	5.075306e+02
1.610000e-06	2.943966e-06	7.738312e-09	1.979896e+01	5.085925e+02
1.620000e-06	2.948590e-06	7.751286e-09	1.983007e+01	5.094334e+02
1.630000e-06	2.952178e-06	7.760825e-09	1.985419e+01	5.100825e+02
1.640000e-06	2.954455e-06	7.767538e-09	1.986950e+01	5.105801e+02
1.650000e-06	2.955592e-06	7.773038e-09	1.987716e+01	5.109627e+02
1.660000e-06	2.955792e-06	7.777675e-09	1.987850e+01	5.112483e+02
1.670000e-06	2.955028e-06	7.780606e-09	1.987336e+01	5.114288e+02
1.680000e-06	2.953340e-06	7.779273e-09	1.986201e+01	5.114720e+02
1.690000e-06	2.950779e-06	7.771988e-09	1.984478e+01	5.113337e+02
1.700000e-06	2.947424e-06	7.761912e-09	1.982222e+01	5.109750e+02
1.710000e-06	2.943153e-06	7.752051e-09	1.979350e+01	5.103778e+02
1.720000e-06	2.937645e-06	7.742965e-09	1.975645e+01	5.095535e+02
1.730000e-06	2.931055e-06	7.728522e-09	1.971214e+01	5.085397e+02
1.740000e-06	2.923673e-06	7.698766e-09	1.966249e+01	5.073878e+02
1.750000e-06	2.915184e-06	7.672480e-09	1.960540e+01	5.061439e+02
1.760000e-06	2.905060e-06	7.669996e-09	1.953731e+01	5.048325e+02
1.770000e-06	2.893400e-06	7.673095e-09	1.945890e+01	5.034472e+02
1.780000e-06	2.881153e-06	7.633809e-09	1.937653e+01	5.019533e+02
1.790000e-06	2.868690e-06	7.584045e-09	1.929271e+01	5.003015e+02
1.800000e-06	2.855035e-06	7.571388e-09	1.920088e+01	4.984462e+02
1.810000e-06	2.839737e-06	7.555979e-09	1.909800e+01	4.963638e+02
1.820000e-06	2.823582e-06	7.497443e-09	1.898935e+01	4.940623e+02
1.830000e-06	2.806784e-06	7.460067e-09	1.887638e+01	4.915799e+02
1.840000e-06	2.788832e-06	7.448366e-09	1.875564e+01	4.889724e+02
1.850000e-06	2.769895e-06	7.383256e-09	1.862829e+01	4.862946e+02
1.860000e-06	2.750240e-06	7.327964e-09	1.849611e+01	4.835819e+02
1.870000e-06	2.729327e-06	7.316863e-09	1.835546e+01	4.808387e+02
1.880000e-06	2.707066e-06	7.260366e-09	1.820575e+01	4.780381e+02
1.890000e-06	2.683876e-06	7.192445e-09	1.804979e+01	4.751307e+02
1.900000e-06	2.659714e-06	7.181671e-09	1.788729e+01	4.720615e+02
1.910000e-06	2.634709e-06	7.158359e-09	1.771913e+01	4.687860e+02
1.920000e-06	2.609009e-06	7.103558e-09	1.754629e+01	4.652828e+02
1.930000e-06	2.582455e-06	7.025995e-09	1.736771e+01	4.615563e+02
1.940000e-06	2.555177e-06	6.942441e-09	1.718426e+01	4.576317e+02
1.950000e-06	2.527067e-06	6.899733e-09	1.699521e+01	4.535441e+02
1.960000e-06	2.497583e-06	6.846643e-09	1.679692e+01	4.493259e+02
1.970000e-06	2.466866e-06	6.746449e-09	1.659034e+01	4.449987e+02
1.980000e-06	2.435332e-06	6.706840e-09	1.637826e+01	4.405694e+02
1.990000e-06	2.402987e-06	6.671978e-09	1.616073e+01	4.360338e+02
2.000000e-06	2.369913e-06	6.552047e-09	1.593831e+01	4.313831e+02
2.010000e-06	2.336088e-06	6.479592e-09	1.571082e+01	4.266105e+02
2.020000e-06	2.301466e-06	6.427437e-09	1.547798e+01	4.217158e+02
2.030000e-06	2.266250e-06	6.311320e-09	1.524114e+01	4.167055e+02
2.040000e-06	2.230261e-06	6.254755e-09	1.499911e+01	4.115896e+02
2.050000e-06	2.193116e-06	6.220332e-09	1.474929e+01	4.063763e+02
2.060000e-06	2.154935e-06	6.102946e-09	1.449252e+01	4.010690e+02
2.070000e-06	2.116053e-06	6.009139e-09	1.423103e+01	3.956645e+02
2.080000e-06	2.076560e-06	5.943403e-09	1.396543e+01	3.901556e+02
2.090000e-06	2.036378e-06	5.845853e-09	1.369519e+01	3.845348e+02
2.100000e-06	1.995471e-06	5.753060e-09	1.342008e+01	3.787985e+02
2.110000e-06	1.953930e-06	5.665703e-09	1.314071e+01	3.729488e+02
2.120000e-06	1.911742e-06	5.584448e-09	1.285698e+01	3.669928e+02
2.130000e-06	1.868952e-06	5.506391e-09	1.256921e+01	3.609397e+02
2.140000e-06	1.825708e-06	5.400896e-09	1.227838e+01	3.547964e+02
2.150000e-06	1.781940e-06	5.297526e-09	1.198403e+01	3.485652e+02
2.160000e-06	1.737502e-06	5.208336e-09	1.168517e+01	3.422431e+02
2.170000e-06	1.692322e-06	5.107737e-09	1.138132e+01	3.358249e+02
2.180000e-06	1.646560e-06	5.008489e-09	1.107356e+01	3.293060e+02
2.190000e-06	1.600323e-06	4.911416e-09	1.076260e+01	3.226870e+02
2.200000e-06	1.553532e-06	4.797589e-09	1.044792e+01	3.159748e+02
2.210000e-06	1.506198e-06	4.690855e-09	1.012959e+01	3.091808e+02
2.220000e-06	1.458200e-06	4.605095e-09	9.806790e+00	3.023176e+02
2.230000e-06	1.409466e-06	4.501229e-09	9.479039e+00	2.953940e+02
2.240000e-06	1.360228e-06	4.379079e-09	9.147900e+00	2.884118e+02
2.250000e-06	1.310574e-06	4.275614e-09	8.813966e+00	2.813650e+02
2.260000e-06	1.260411e-06	4.175724e-09	8.476607e+00	2.742425e+02
2.270000e-06	1.209744e-06	4.060467e-09	8.135855e+00	2.670330e+02
2.280000e-06	1.158665e-06	3.943538e-09	7.792333e+00	2.597298e+02
2.290000e-06	1.107228e-06	3.830570e-09	7.446405e+00	2.523338e+02
2.300000e-06	1.055269e-06	3.724150e-09	7.096972e+00	2.448539e+02
2.310000e-06	1.002678e-06	3.613641e-09	6.743278e+00	2.373035e+02
2.320000e-06	9.494779e-07	3.495431e-09	6.385495e+00	2.296955e+02
2.330000e-06	8.957125e-07	3.378165e-09	6.023908e+00	2.220379e+02
2.340000e-06	8.414809e-07	3.258774e-09	5.659186e+00	2.143310e+02
2.350000e-06	7.868898e-07	3.138945e-09	5.292046e+00	2.065686e+02
2.360000e-06	7.320716e-07	3.021779e-09	4.923379e+00	1.987407e+02
2.370000e-06	6.770830e-07	2.902856e-09	4.553566e+00	1.908386e+02
2.380000e-06	6.219720e-07	2.782557e-09	4.182930e+00	1.828586e+02
2.390000e-06	5.667382e-07	2.663339e-09	3.811467e+00	1.748033e+02
2.400000e-06	5.113657e-07	2.543229e-09	3.439072e+00	1.666796e+02
2.410000e-06	4.558620e-07	2.418369e-09	3.065795e+00	1.584952e+02
2.420000e-06	4.002509e-07	2.290305e-09	2.691796e+00	1.502545e+02
2.430000e-06	3.444926e-07	2.164226e-09	2.316805e+00	1.419558e+02
2.440000e-06	2.885974e-07	2.038480e-09	1.940895e+00	1.335919e+02
2.450000e-06	2.326119e-07	1.911109e-09	1.564378e+00	1.251530e+02
2.460000e-06	1.764629e-07	1.782610e-09	1.186760e+00	1.166312e+02
2.470000e-06	1.201959e-07	1.652468e-09	8.083498e-01	1.080248e+02
2.480000e-06	6.395846e-08	1.520195e-09	4.301379e-01	9.933954e+01
2.490000e-06	7.807313e-09	1.386353e-09	5.250629e-02	9.058743e+01
2.500000e-06	-4.838080e-08	1.253140e-09	-3.253740e-01	8.178241e+01
2.510000e-06	-1.045762e-07	1.120666e-09	-7.033029e-01	7.293516e+01
2.520000e-06	-1.607333e-07	9.848673e-10	-1.080975e+00	6.404900e+01
2.530000e-06	-2.168403e-07	8.466986e-10	-1.458310e+00	5.511860e+01
2.540000e-06	-2.728091e-07	7.098659e-10	-1.834715e+00	4.613188e+01
2.550000e-06	-3.286261e-07	5.738601e-10	-2.210099e+00	3.707444e+01
2.560000e-06	-3.842946e-07	4.347763e-10	-2.584485e+00	2.793457e+01
2.570000e-06	-4.398191e-07	2.928891e-10	-2.957902e+00	1.870681e+01
2.580000e-06	-4.952022e-07	1.524863e-10	-3.330369e+00	9.392697e+00
2.590000e-06	-5.504734e-07	1.273011e-11	-3.702082e+00	-1.354085e-03
2.600000e-06	-6.056746e-07	-1.302712e-10	-4.073325e+00	-9.468112e+00
2.610000e-06	-6.607818e-07	-2.759024e-10	-4.443936e+00	-1.900350e+01
2.620000e-06	-7.157297e-07	-4.232291e-10	-4.813475e+00	-2.860882e+01
2.630000e-06	-7.704851e-07	-5.721027e-10	-5.181720e+00	-3.829021e+01
2.640000e-06	-8.249675e-07	-7.197540e-10	-5.548129e+00	-4.805582e+01
2.650000e-06	-8.790583e-07	-8.681832e-10	-5.911904e+00	-5.791185e+01
2.660000e-06	-9.326614e-07	-1.019574e-09	-6.272400e+00	-6.785945e+01
2.670000e-06	-9.856770e-07	-1.172566e-09	-6.628944e+00	-7.789374e+01
2.680000e-06	-1.038109e-06	-1.325567e-09	-6.981561e+00	-8.800530e+01
2.690000e-06	-1.090012e-06	-1.480681e-09	-7.330623e+00	-9.818341e+01
2.700000e-06	-1.141458e-06	-1.638358e-09	-7.676616e+00	-1.084193e+02
2.710000e-06	-1.192579e-06	-1.796061e-09	-8.020413e+00	-1.187079e+02
2.720000e-06	-1.243293e-06	-1.953449e-09	-8.361483e+00	-1.290473e+02
2.730000e-06	-1.293516e-06	-2.112264e-09	-8.699245e+00	-1.394359e+02
2.740000e-06	-1.343264e-06	-2.271627e-09	-9.033811e+00	-1.498692e+02
2.750000e-06	-1.392497e-06	-2.429180e-09	-9.364918e+00	-1.603374e+02
2.760000e-06	-1.441098e-06	-2.585946e-09	-9.691772e+00	-1.708253e+02
2.770000e-06	-1.488876e-06	-2.744557e-09	-1.001309e+01	-1.813155e+02
2.780000e-06	-1.535764e-06	-2.906268e-09	-1.032843e+01	-1.917927e+02
2.790000e-06	-1.581959e-06	-3.067745e-09	-1.063910e+01	-2.022474e+02
2.800000e-06	-1.627722e-06	-3.227352e-09	-1.094687e+01	-2.126778e+02
2.810000e-06	-1.673058e-06	-3.385317e-09	-1.125176e+01	-2.230879e+02
2.820000e-06	-1.717955e-06	-3.543369e-09	-1.155371e+01	-2.334825e+02
2.830000e-06	-1.762303e-06	-3.701819e-09	-1.185196e+01	-2.438606e+02
2.840000e-06	-1.806027e-06	-3.857499e-09	-1.214602e+01	-2.542111e+02
2.850000e-06	-1.849291e-06	-4.011238e-09	-1.243698e+01	-2.645113e+02
2.860000e-06	-1.892048e-06	-4.165588e-09	-1.272453e+01	-2.747302e+02
2.870000e-06	-1.934201e-06	-4.320413e-09	-1.300802e+01	-2.848351e+02
2.880000e-06	-1.975789e-06	-4.473888e-09	-1.328771e+01	-2.947992e+02
2.890000e-06	-2.016762e-06	-4.624155e-09	-1.356327e+01	-3.046068e+02
2.900000e-06	-2.057000e-06	-4.771846e-09	-1.383388e+01	-3.142540e+02
2.910000e-06	-2.096555e-06	-4.917724e-09	-1.409990e+01	-3.237441e+02
2.920000e-06	-2.135508e-06	-5.060699e-09	-1.436187e+01	-3.330798e+02
2.930000e-06	-2.173714e-06	-5.199151e-09	-1.461881e+01	-3.422547e+02
2.940000e-06	-2.210924e-06	-5.332973e-09	-1.486906e+01	-3.512490e+02
