# Temperatura_=_21.43
# Concentracion g/m^3_=_18700.0
# C_Vs_to_Am_M_A/Vsm_=_65563218390.804596
# pendiente_HvsI_1/m_=_3716.3
# ordenada_HvsI_A/m_=_1297.0
# frecuencia_Hz_=_301070.19639134343

Tiempo_(s)	Campo_(V.s)	Magnetizacion_(V.s)	Campo_(kA/m)	Magnetizacion_(A/m)
0.000000e+00	-2.945348e-06	-7.715284e-09	-1.977144e+01	-5.036033e+02
1.000000e-08	-2.944221e-06	-7.719413e-09	-1.976388e+01	-5.035175e+02
2.000000e-08	-2.941924e-06	-7.717499e-09	-1.974846e+01	-5.032791e+02
3.000000e-08	-2.938350e-06	-7.713822e-09	-1.972447e+01	-5.028750e+02
4.000000e-08	-2.933861e-06	-7.708098e-09	-1.969433e+01	-5.022922e+02
5.000000e-08	-2.928614e-06	-7.696140e-09	-1.965911e+01	-5.015250e+02
6.000000e-08	-2.922411e-06	-7.674270e-09	-1.961747e+01	-5.005804e+02
7.000000e-08	-2.915157e-06	-7.644714e-09	-1.956878e+01	-4.994769e+02
8.000000e-08	-2.906840e-06	-7.658516e-09	-1.951295e+01	-4.982386e+02
9.000000e-08	-2.897115e-06	-7.691853e-09	-1.944767e+01	-4.968855e+02
1.000000e-07	-2.885838e-06	-7.653163e-09	-1.937196e+01	-4.954243e+02
1.100000e-07	-2.873530e-06	-7.486841e-09	-1.928935e+01	-4.938429e+02
1.200000e-07	-2.860566e-06	-7.453661e-09	-1.920232e+01	-4.921126e+02
1.300000e-07	-2.846651e-06	-7.592238e-09	-1.910891e+01	-4.901967e+02
1.400000e-07	-2.831435e-06	-7.552145e-09	-1.900677e+01	-4.880644e+02
1.500000e-07	-2.815028e-06	-7.332782e-09	-1.889664e+01	-4.857033e+02
1.600000e-07	-2.797505e-06	-7.399211e-09	-1.877900e+01	-4.831275e+02
1.700000e-07	-2.778913e-06	-7.470456e-09	-1.865420e+01	-4.803772e+02
1.800000e-07	-2.759516e-06	-7.223895e-09	-1.852399e+01	-4.775087e+02
1.900000e-07	-2.739425e-06	-7.218815e-09	-1.838913e+01	-4.745787e+02
2.000000e-07	-2.718412e-06	-7.294381e-09	-1.824807e+01	-4.716267e+02
2.100000e-07	-2.696444e-06	-7.092415e-09	-1.810061e+01	-4.686625e+02
2.200000e-07	-2.673722e-06	-7.046237e-09	-1.794808e+01	-4.656618e+02
2.300000e-07	-2.650098e-06	-7.177106e-09	-1.778950e+01	-4.625729e+02
2.400000e-07	-2.625619e-06	-7.029295e-09	-1.762517e+01	-4.593317e+02
2.500000e-07	-2.600305e-06	-6.892575e-09	-1.745525e+01	-4.558797e+02
2.600000e-07	-2.573674e-06	-6.914242e-09	-1.727648e+01	-4.521814e+02
2.700000e-07	-2.545820e-06	-6.854613e-09	-1.708950e+01	-4.482331e+02
2.800000e-07	-2.517233e-06	-6.771637e-09	-1.689760e+01	-4.440627e+02
2.900000e-07	-2.487822e-06	-6.712780e-09	-1.670018e+01	-4.397198e+02
3.000000e-07	-2.457524e-06	-6.613006e-09	-1.649679e+01	-4.352608e+02
3.100000e-07	-2.426441e-06	-6.606271e-09	-1.628814e+01	-4.307325e+02
3.200000e-07	-2.394595e-06	-6.552265e-09	-1.607437e+01	-4.261605e+02
3.300000e-07	-2.362121e-06	-6.374858e-09	-1.585638e+01	-4.215457e+02
3.400000e-07	-2.328905e-06	-6.356913e-09	-1.563340e+01	-4.168681e+02
3.500000e-07	-2.294544e-06	-6.308649e-09	-1.540274e+01	-4.120971e+02
3.600000e-07	-2.259027e-06	-6.186945e-09	-1.516433e+01	-4.072035e+02
3.700000e-07	-2.222707e-06	-6.158805e-09	-1.492052e+01	-4.021693e+02
3.800000e-07	-2.185716e-06	-6.071257e-09	-1.467221e+01	-3.969924e+02
3.900000e-07	-2.147975e-06	-5.922387e-09	-1.441886e+01	-3.916851e+02
4.000000e-07	-2.109485e-06	-5.894181e-09	-1.416048e+01	-3.862677e+02
4.100000e-07	-2.070217e-06	-5.836113e-09	-1.389689e+01	-3.807595e+02
4.200000e-07	-2.030238e-06	-5.694614e-09	-1.362852e+01	-3.751720e+02
4.300000e-07	-1.989767e-06	-5.623193e-09	-1.335685e+01	-3.695049e+02
4.400000e-07	-1.948692e-06	-5.560826e-09	-1.308112e+01	-3.637474e+02
4.500000e-07	-1.906713e-06	-5.466905e-09	-1.279933e+01	-3.578835e+02
4.600000e-07	-1.863723e-06	-5.363086e-09	-1.251075e+01	-3.518986e+02
4.700000e-07	-1.819893e-06	-5.262104e-09	-1.221652e+01	-3.457859e+02
4.800000e-07	-1.775505e-06	-5.164033e-09	-1.191855e+01	-3.395493e+02
4.900000e-07	-1.730626e-06	-5.085981e-09	-1.161729e+01	-3.332028e+02
5.000000e-07	-1.685169e-06	-4.991127e-09	-1.131215e+01	-3.267657e+02
5.100000e-07	-1.639110e-06	-4.876503e-09	-1.100297e+01	-3.202570e+02
5.200000e-07	-1.592448e-06	-4.780990e-09	-1.068974e+01	-3.136893e+02
5.300000e-07	-1.545185e-06	-4.688496e-09	-1.037247e+01	-3.070658e+02
5.400000e-07	-1.497383e-06	-4.591293e-09	-1.005159e+01	-3.003803e+02
5.500000e-07	-1.449163e-06	-4.480516e-09	-9.727900e+00	-2.936206e+02
5.600000e-07	-1.400523e-06	-4.363837e-09	-9.401387e+00	-2.867739e+02
5.700000e-07	-1.351263e-06	-4.255204e-09	-9.070718e+00	-2.798320e+02
5.800000e-07	-1.301280e-06	-4.164485e-09	-8.735194e+00	-2.727944e+02
5.900000e-07	-1.250534e-06	-4.054084e-09	-8.394549e+00	-2.656686e+02
6.000000e-07	-1.199080e-06	-3.934805e-09	-8.049151e+00	-2.584675e+02
6.100000e-07	-1.147149e-06	-3.830023e-09	-7.700546e+00	-2.512043e+02
6.200000e-07	-1.094828e-06	-3.725086e-09	-7.349326e+00	-2.438873e+02
6.300000e-07	-1.042164e-06	-3.612574e-09	-6.995806e+00	-2.365172e+02
6.400000e-07	-9.891635e-07	-3.486005e-09	-6.640027e+00	-2.290860e+02
6.500000e-07	-9.357213e-07	-3.364547e-09	-6.281282e+00	-2.215804e+02
6.600000e-07	-8.818850e-07	-3.253581e-09	-5.919891e+00	-2.139867e+02
6.700000e-07	-8.277759e-07	-3.148337e-09	-5.556669e+00	-2.062966e+02
6.800000e-07	-7.734534e-07	-3.029986e-09	-5.192014e+00	-1.985114e+02
6.900000e-07	-7.189159e-07	-2.905972e-09	-4.825917e+00	-1.906428e+02
7.000000e-07	-6.641212e-07	-2.786387e-09	-4.458093e+00	-1.827097e+02
7.100000e-07	-6.091123e-07	-2.665360e-09	-4.088831e+00	-1.747328e+02
7.200000e-07	-5.538394e-07	-2.537601e-09	-3.717796e+00	-1.667272e+02
7.300000e-07	-4.983082e-07	-2.403271e-09	-3.345028e+00	-1.586968e+02
7.400000e-07	-4.425848e-07	-2.278619e-09	-2.970970e+00	-1.506318e+02
7.500000e-07	-3.866804e-07	-2.163104e-09	-2.595697e+00	-1.425114e+02
7.600000e-07	-3.306861e-07	-2.048431e-09	-2.219819e+00	-1.343096e+02
7.700000e-07	-2.745885e-07	-1.920144e-09	-1.843249e+00	-1.260041e+02
7.800000e-07	-2.184100e-07	-1.785854e-09	-1.466136e+00	-1.175836e+02
7.900000e-07	-1.622292e-07	-1.654189e-09	-1.089007e+00	-1.090526e+02
8.000000e-07	-1.060300e-07	-1.519625e-09	-7.117548e-01	-1.004305e+02
8.100000e-07	-4.981830e-08	-1.381120e-09	-3.344187e-01	-9.174556e+01
8.200000e-07	6.380491e-09	-1.242366e-09	4.283076e-02	-8.302642e+01
8.300000e-07	6.258346e-08	-1.111880e-09	4.201083e-01	-7.429246e+01
8.400000e-07	1.188059e-07	-9.855168e-10	7.975166e-01	-6.554771e+01
8.500000e-07	1.750060e-07	-8.571546e-10	1.174775e+00	-5.677966e+01
8.600000e-07	2.311665e-07	-7.202188e-10	1.551768e+00	-4.796384e+01
8.700000e-07	2.872837e-07	-5.803931e-10	1.928470e+00	-3.907243e+01
8.800000e-07	3.433192e-07	-4.415734e-10	2.304623e+00	-3.008380e+01
8.900000e-07	3.992473e-07	-3.003478e-10	2.680055e+00	-2.098979e+01
9.000000e-07	4.550489e-07	-1.560309e-10	3.054638e+00	-1.179781e+01
9.100000e-07	5.106854e-07	-1.117367e-11	3.428113e+00	-2.527263e+00
9.200000e-07	5.661078e-07	1.278332e-10	3.800151e+00	6.798539e+00
9.300000e-07	6.212954e-07	2.649773e-10	4.170613e+00	1.616177e+01
9.400000e-07	6.762512e-07	4.042144e-10	4.539519e+00	2.555736e+01
9.500000e-07	7.309706e-07	5.504657e-10	4.906837e+00	3.499523e+01
9.600000e-07	7.854513e-07	6.990284e-10	5.272554e+00	4.449665e+01
9.700000e-07	8.396976e-07	8.468471e-10	5.636696e+00	5.408604e+01
9.800000e-07	8.936921e-07	9.954245e-10	5.999149e+00	6.378115e+01
9.900000e-07	9.473573e-07	1.147490e-09	6.359392e+00	7.358556e+01
1.000000e-06	1.000613e-06	1.300563e-09	6.716885e+00	8.348616e+01
1.010000e-06	1.053460e-06	1.450152e-09	7.071637e+00	9.345682e+01
1.020000e-06	1.105944e-06	1.599572e-09	7.423948e+00	1.034668e+02
1.030000e-06	1.158017e-06	1.749815e-09	7.773499e+00	1.134908e+02
1.040000e-06	1.209637e-06	1.902150e-09	8.120013e+00	1.235169e+02
1.050000e-06	1.260754e-06	2.054544e-09	8.463150e+00	1.335493e+02
1.060000e-06	1.311148e-06	2.210876e-09	8.801433e+00	1.436051e+02
1.070000e-06	1.360759e-06	2.368504e-09	9.134461e+00	1.537056e+02
1.080000e-06	1.409713e-06	2.525591e-09	9.463078e+00	1.638669e+02
1.090000e-06	1.458189e-06	2.681205e-09	9.788489e+00	1.740912e+02
1.100000e-06	1.506277e-06	2.835510e-09	1.011129e+01	1.843647e+02
1.110000e-06	1.553871e-06	2.990903e-09	1.043078e+01	1.946602e+02
1.120000e-06	1.600851e-06	3.146799e-09	1.074614e+01	2.049454e+02
1.130000e-06	1.647266e-06	3.303223e-09	1.105772e+01	2.151916e+02
1.140000e-06	1.693145e-06	3.459351e-09	1.136569e+01	2.253816e+02
1.150000e-06	1.738427e-06	3.617521e-09	1.166966e+01	2.355116e+02
1.160000e-06	1.783180e-06	3.774798e-09	1.197008e+01	2.455879e+02
1.170000e-06	1.827556e-06	3.930158e-09	1.226796e+01	2.556194e+02
1.180000e-06	1.871505e-06	4.083462e-09	1.256298e+01	2.656090e+02
1.190000e-06	1.914725e-06	4.234103e-09	1.285311e+01	2.755469e+02
1.200000e-06	1.956885e-06	4.382679e-09	1.313612e+01	2.854103e+02
1.210000e-06	1.998030e-06	4.528919e-09	1.341231e+01	2.951669e+02
1.220000e-06	2.038542e-06	4.674680e-09	1.368426e+01	3.047833e+02
1.230000e-06	2.078533e-06	4.819841e-09	1.395272e+01	3.142329e+02
1.240000e-06	2.117850e-06	4.963397e-09	1.421664e+01	3.235019e+02
1.250000e-06	2.156378e-06	5.103713e-09	1.447527e+01	3.325887e+02
1.260000e-06	2.194131e-06	5.239798e-09	1.472870e+01	3.414990e+02
1.270000e-06	2.231164e-06	5.371236e-09	1.497729e+01	3.502374e+02
1.280000e-06	2.267603e-06	5.500018e-09	1.522190e+01	3.587989e+02
1.290000e-06	2.303485e-06	5.625785e-09	1.546276e+01	3.671650e+02
1.300000e-06	2.338402e-06	5.746167e-09	1.569715e+01	3.753045e+02
1.310000e-06	2.372067e-06	5.862878e-09	1.592314e+01	3.831804e+02
1.320000e-06	2.404782e-06	5.977995e-09	1.614275e+01	3.907595e+02
1.330000e-06	2.436778e-06	6.091298e-09	1.635753e+01	3.980221e+02
1.340000e-06	2.468021e-06	6.198307e-09	1.656726e+01	4.049668e+02
1.350000e-06	2.498498e-06	6.296839e-09	1.677184e+01	4.116099e+02
1.360000e-06	2.528112e-06	6.389163e-09	1.697063e+01	4.179789e+02
1.370000e-06	2.556889e-06	6.480456e-09	1.716381e+01	4.241034e+02
1.380000e-06	2.585005e-06	6.570342e-09	1.735254e+01	4.300054e+02
1.390000e-06	2.612199e-06	6.656048e-09	1.753509e+01	4.356944e+02
1.400000e-06	2.638058e-06	6.738236e-09	1.770868e+01	4.411676e+02
1.410000e-06	2.662777e-06	6.817283e-09	1.787461e+01	4.464144e+02
1.420000e-06	2.686648e-06	6.892758e-09	1.803485e+01	4.514244e+02
1.430000e-06	2.709637e-06	6.963375e-09	1.818917e+01	4.561934e+02
1.440000e-06	2.731706e-06	7.030481e-09	1.833731e+01	4.607270e+02
1.450000e-06	2.752893e-06	7.095159e-09	1.847954e+01	4.650380e+02
1.460000e-06	2.773304e-06	7.158773e-09	1.861655e+01	4.691408e+02
1.470000e-06	2.792885e-06	7.220159e-09	1.874800e+01	4.730440e+02
1.480000e-06	2.811452e-06	7.275634e-09	1.887263e+01	4.767456e+02
1.490000e-06	2.829000e-06	7.324312e-09	1.899042e+01	4.802321e+02
1.500000e-06	2.845532e-06	7.367981e-09	1.910140e+01	4.834825e+02
1.510000e-06	2.860891e-06	7.410448e-09	1.920450e+01	4.864764e+02
1.520000e-06	2.875115e-06	7.451248e-09	1.929998e+01	4.892023e+02
1.530000e-06	2.888281e-06	7.488151e-09	1.938837e+01	4.916631e+02
1.540000e-06	2.900351e-06	7.521504e-09	1.946939e+01	4.938764e+02
1.550000e-06	2.911179e-06	7.552957e-09	1.954208e+01	4.958699e+02
1.560000e-06	2.920668e-06	7.580511e-09	1.960577e+01	4.976729e+02
1.570000e-06	2.929105e-06	7.602544e-09	1.966241e+01	4.993080e+02
1.580000e-06	2.936643e-06	7.621363e-09	1.971301e+01	5.007848e+02
1.590000e-06	2.943196e-06	7.639320e-09	1.975700e+01	5.021002e+02
1.600000e-06	2.948770e-06	7.656331e-09	1.979442e+01	5.032419e+02
1.610000e-06	2.953490e-06	7.670968e-09	1.982610e+01	5.041964e+02
1.620000e-06	2.957303e-06	7.681603e-09	1.985170e+01	5.049562e+02
1.630000e-06	2.959850e-06	7.689515e-09	1.986879e+01	5.055236e+02
1.640000e-06	2.961074e-06	7.696040e-09	1.987700e+01	5.059105e+02
1.650000e-06	2.961296e-06	7.701591e-09	1.987850e+01	5.061328e+02
1.660000e-06	2.960639e-06	7.703680e-09	1.987409e+01	5.062039e+02
1.670000e-06	2.959077e-06	7.698582e-09	1.986360e+01	5.061286e+02
1.680000e-06	2.956592e-06	7.691579e-09	1.984692e+01	5.059015e+02
1.690000e-06	2.953273e-06	7.682979e-09	1.982464e+01	5.055098e+02
1.700000e-06	2.949140e-06	7.672609e-09	1.979690e+01	5.049400e+02
1.710000e-06	2.943803e-06	7.662833e-09	1.976107e+01	5.041859e+02
1.720000e-06	2.937215e-06	7.661017e-09	1.971685e+01	5.032535e+02
1.730000e-06	2.929760e-06	7.656556e-09	1.966680e+01	5.021605e+02
1.740000e-06	2.921383e-06	7.574449e-09	1.961057e+01	5.009310e+02
1.750000e-06	2.911470e-06	7.507683e-09	1.954403e+01	4.995857e+02
1.760000e-06	2.899892e-06	7.574303e-09	1.946631e+01	4.981324e+02
1.770000e-06	2.887558e-06	7.668044e-09	1.938351e+01	4.965604e+02
1.780000e-06	2.875136e-06	7.540757e-09	1.930013e+01	4.948418e+02
1.790000e-06	2.861791e-06	7.370453e-09	1.921055e+01	4.929404e+02
1.800000e-06	2.846599e-06	7.532581e-09	1.910856e+01	4.908243e+02
1.810000e-06	2.830331e-06	7.528434e-09	1.899936e+01	4.884793e+02
1.820000e-06	2.813659e-06	7.254837e-09	1.888744e+01	4.859178e+02
1.830000e-06	2.795827e-06	7.286077e-09	1.876775e+01	4.831782e+02
1.840000e-06	2.776724e-06	7.425589e-09	1.863951e+01	4.803162e+02
1.850000e-06	2.756992e-06	7.211556e-09	1.850705e+01	4.773890e+02
1.860000e-06	2.736248e-06	7.132227e-09	1.836780e+01	4.744378e+02
1.870000e-06	2.714032e-06	7.321296e-09	1.821867e+01	4.714748e+02
1.880000e-06	2.690840e-06	7.119927e-09	1.806299e+01	4.684782e+02
1.890000e-06	2.666796e-06	6.932146e-09	1.790159e+01	4.653977e+02
1.900000e-06	2.641742e-06	7.098250e-09	1.773341e+01	4.621695e+02
1.910000e-06	2.616004e-06	7.020299e-09	1.756063e+01	4.587341e+02
1.920000e-06	2.589471e-06	6.881580e-09	1.738252e+01	4.550539e+02
1.930000e-06	2.562094e-06	6.904393e-09	1.719875e+01	4.511228e+02
1.940000e-06	2.534075e-06	6.792408e-09	1.701066e+01	4.469667e+02
1.950000e-06	2.504797e-06	6.755740e-09	1.681413e+01	4.426343e+02
1.960000e-06	2.474060e-06	6.695983e-09	1.660780e+01	4.381819e+02
1.970000e-06	2.442514e-06	6.504789e-09	1.639603e+01	4.336573e+02
1.980000e-06	2.410218e-06	6.543342e-09	1.617924e+01	4.290881e+02
1.990000e-06	2.377106e-06	6.531489e-09	1.595697e+01	4.244768e+02
2.000000e-06	2.343301e-06	6.322086e-09	1.573004e+01	4.198047e+02
2.010000e-06	2.308677e-06	6.336622e-09	1.549762e+01	4.150414e+02
2.020000e-06	2.273387e-06	6.273262e-09	1.526073e+01	4.101573e+02
2.030000e-06	2.237476e-06	6.089470e-09	1.501966e+01	4.051334e+02
2.040000e-06	2.200451e-06	6.121871e-09	1.477112e+01	3.999664e+02
2.050000e-06	2.162296e-06	6.032187e-09	1.451499e+01	3.946678e+02
2.060000e-06	2.123386e-06	5.870975e-09	1.425380e+01	3.892575e+02
2.070000e-06	2.083868e-06	5.856070e-09	1.398853e+01	3.837553e+02
2.080000e-06	2.043679e-06	5.763485e-09	1.371875e+01	3.781733e+02
2.090000e-06	2.002729e-06	5.658099e-09	1.344386e+01	3.725121e+02
2.100000e-06	1.961157e-06	5.581363e-09	1.316479e+01	3.667616e+02
2.110000e-06	1.918972e-06	5.471319e-09	1.288162e+01	3.609059e+02
2.120000e-06	1.876099e-06	5.412487e-09	1.259382e+01	3.549300e+02
2.130000e-06	1.832725e-06	5.317893e-09	1.230266e+01	3.488264e+02
2.140000e-06	1.788901e-06	5.198079e-09	1.200848e+01	3.425983e+02
2.150000e-06	1.744452e-06	5.114605e-09	1.171010e+01	3.362589e+02
2.160000e-06	1.699291e-06	5.015109e-09	1.140695e+01	3.298276e+02
2.170000e-06	1.653451e-06	4.931191e-09	1.109923e+01	3.233235e+02
2.180000e-06	1.607141e-06	4.822007e-09	1.078837e+01	3.167598e+02
2.190000e-06	1.560375e-06	4.708247e-09	1.047444e+01	3.101404e+02
2.200000e-06	1.513058e-06	4.613057e-09	1.015681e+01	3.034597e+02
2.210000e-06	1.465114e-06	4.507066e-09	9.834976e+00	2.967057e+02
2.220000e-06	1.416390e-06	4.421496e-09	9.507901e+00	2.898656e+02
2.230000e-06	1.367084e-06	4.308339e-09	9.176922e+00	2.829306e+02
2.240000e-06	1.317402e-06	4.188272e-09	8.843418e+00	2.758996e+02
2.250000e-06	1.267276e-06	4.101325e-09	8.506933e+00	2.687798e+02
2.260000e-06	1.216619e-06	3.988720e-09	8.166884e+00	2.615836e+02
2.270000e-06	1.165430e-06	3.867270e-09	7.823263e+00	2.543244e+02
2.280000e-06	1.113894e-06	3.754129e-09	7.477317e+00	2.470112e+02
2.290000e-06	1.062038e-06	3.639296e-09	7.129219e+00	2.396450e+02
2.300000e-06	1.009570e-06	3.542727e-09	6.777013e+00	2.322186e+02
2.310000e-06	9.564369e-07	3.428643e-09	6.420341e+00	2.247187e+02
2.320000e-06	9.027764e-07	3.306170e-09	6.060130e+00	2.171317e+02
2.330000e-06	8.486117e-07	3.190062e-09	5.696535e+00	2.094486e+02
2.340000e-06	7.940391e-07	3.067654e-09	5.330201e+00	2.016699e+02
2.350000e-06	7.391092e-07	2.951120e-09	4.961470e+00	1.938066e+02
2.360000e-06	6.839120e-07	2.825393e-09	4.590944e+00	1.858774e+02
2.370000e-06	6.286053e-07	2.706906e-09	4.219683e+00	1.779030e+02
2.380000e-06	5.732151e-07	2.595309e-09	3.847861e+00	1.698992e+02
2.390000e-06	5.177241e-07	2.475985e-09	3.475363e+00	1.618707e+02
2.400000e-06	4.621065e-07	2.354118e-09	3.102014e+00	1.538088e+02
2.410000e-06	4.063988e-07	2.223833e-09	2.728061e+00	1.456932e+02
2.420000e-06	3.505963e-07	2.095883e-09	2.353472e+00	1.374980e+02
2.430000e-06	2.946663e-07	1.972491e-09	1.978027e+00	1.292004e+02
2.440000e-06	2.385991e-07	1.846700e-09	1.601660e+00	1.207882e+02
2.450000e-06	1.824412e-07	1.719247e-09	1.224686e+00	1.122646e+02
2.460000e-06	1.262546e-07	1.588147e-09	8.475181e-01	1.036481e+02
2.470000e-06	7.005251e-08	1.458079e-09	4.702464e-01	9.496663e+01
2.480000e-06	1.380778e-08	1.329678e-09	9.268843e-02	8.624912e+01
2.490000e-06	-4.248416e-08	1.195528e-09	-2.851864e-01	7.751588e+01
2.500000e-06	-9.876000e-08	1.060534e-09	-6.629531e-01	6.877212e+01
2.510000e-06	-1.549581e-07	9.278676e-10	-1.040198e+00	6.000644e+01
2.520000e-06	-2.110552e-07	7.954214e-10	-1.416765e+00	5.119496e+01
2.530000e-06	-2.670717e-07	6.603257e-10	-1.792791e+00	4.230978e+01
2.540000e-06	-3.230251e-07	5.218596e-10	-2.168393e+00	3.332854e+01
2.550000e-06	-3.788517e-07	3.867953e-10	-2.543144e+00	2.424198e+01
2.560000e-06	-4.345327e-07	2.499405e-10	-2.916918e+00	1.505645e+01
2.570000e-06	-4.901055e-07	1.090602e-10	-3.289966e+00	5.790722e+00
2.580000e-06	-5.455645e-07	-3.268505e-11	-3.662249e+00	-3.531850e+00
2.590000e-06	-6.009694e-07	-1.751813e-10	-4.034169e+00	-1.289277e+01
2.600000e-06	-6.563029e-07	-3.190592e-10	-4.405610e+00	-2.228590e+01
2.610000e-06	-7.114972e-07	-4.649978e-10	-4.776117e+00	-3.172014e+01
2.620000e-06	-7.664708e-07	-6.112066e-10	-5.145142e+00	-4.121621e+01
2.630000e-06	-8.211005e-07	-7.568359e-10	-5.511859e+00	-5.079860e+01
2.640000e-06	-8.753026e-07	-9.018556e-10	-5.875705e+00	-6.048585e+01
2.650000e-06	-9.290039e-07	-1.050673e-09	-6.236189e+00	-7.028271e+01
2.660000e-06	-9.821244e-07	-1.202054e-09	-6.592775e+00	-8.017720e+01
2.670000e-06	-1.034681e-06	-1.353687e-09	-6.945574e+00	-9.014390e+01
2.680000e-06	-1.086751e-06	-1.504885e-09	-7.295107e+00	-1.001520e+02
2.690000e-06	-1.138339e-06	-1.658656e-09	-7.641409e+00	-1.101756e+02
2.700000e-06	-1.189512e-06	-1.814489e-09	-7.984918e+00	-1.202016e+02
2.710000e-06	-1.240304e-06	-1.969271e-09	-8.325877e+00	-1.302332e+02
2.720000e-06	-1.290608e-06	-2.123557e-09	-8.663553e+00	-1.402866e+02
2.730000e-06	-1.340404e-06	-2.277125e-09	-8.997826e+00	-1.503833e+02
2.740000e-06	-1.389747e-06	-2.431766e-09	-9.329053e+00	-1.605399e+02
2.750000e-06	-1.438556e-06	-2.585377e-09	-9.656695e+00	-1.707600e+02
2.760000e-06	-1.486576e-06	-2.739342e-09	-9.979045e+00	-1.810307e+02
2.770000e-06	-1.533660e-06	-2.896324e-09	-1.029511e+01	-1.913258e+02
2.780000e-06	-1.580023e-06	-3.054647e-09	-1.060633e+01	-2.016128e+02
2.790000e-06	-1.625967e-06	-3.211321e-09	-1.091474e+01	-2.118625e+02
2.800000e-06	-1.671508e-06	-3.366847e-09	-1.122045e+01	-2.220568e+02
2.810000e-06	-1.716590e-06	-3.522394e-09	-1.152307e+01	-2.321909e+02
2.820000e-06	-1.761106e-06	-3.676058e-09	-1.182190e+01	-2.422708e+02
2.830000e-06	-1.805022e-06	-3.826713e-09	-1.211670e+01	-2.523053e+02
2.840000e-06	-1.848493e-06	-3.976130e-09	-1.240851e+01	-2.622980e+02
2.850000e-06	-1.891530e-06	-4.126996e-09	-1.269740e+01	-2.722403e+02
2.860000e-06	-1.933957e-06	-4.276636e-09	-1.298221e+01	-2.821100e+02
2.870000e-06	-1.975664e-06	-4.425014e-09	-1.326218e+01	-2.918754e+02
2.880000e-06	-2.016760e-06	-4.573204e-09	-1.353805e+01	-3.015028e+02
2.890000e-06	-2.057199e-06	-4.720149e-09	-1.380950e+01	-3.109650e+02
2.900000e-06	-2.096949e-06	-4.864266e-09	-1.407633e+01	-3.202471e+02
2.910000e-06	-2.136126e-06	-5.003558e-09	-1.433932e+01	-3.293468e+02
2.920000e-06	-2.174527e-06	-5.137841e-09	-1.459710e+01	-3.382695e+02
2.930000e-06	-2.211789e-06	-5.268741e-09	-1.484723e+01	-3.470201e+02
2.940000e-06	-2.247991e-06	-5.398822e-09	-1.509025e+01	-3.555948e+02
