# Temperatura_=_23.67
# Concentracion g/m^3_=_18700.0
# C_Vs_to_Am_M_A/Vsm_=_65563218390.804596
# pendiente_HvsI_1/m_=_3716.3
# ordenada_HvsI_A/m_=_1297.0
# frecuencia_Hz_=_301061.7948145151

Tiempo_(s)	Campo_(V.s)	Magnetizacion_(V.s)	Campo_(kA/m)	Magnetizacion_(A/m)
0.000000e+00	-2.945029e-06	-7.779168e-09	-1.977568e+01	-5.078557e+02
1.000000e-08	-2.944296e-06	-7.781466e-09	-1.977076e+01	-5.078371e+02
2.000000e-08	-2.942741e-06	-7.783455e-09	-1.976031e+01	-5.077168e+02
3.000000e-08	-2.939984e-06	-7.780837e-09	-1.974180e+01	-5.074686e+02
4.000000e-08	-2.935988e-06	-7.774999e-09	-1.971497e+01	-5.070499e+02
5.000000e-08	-2.931141e-06	-7.766241e-09	-1.968242e+01	-5.064194e+02
6.000000e-08	-2.925502e-06	-7.752966e-09	-1.964456e+01	-5.055547e+02
7.000000e-08	-2.918879e-06	-7.737195e-09	-1.960008e+01	-5.044636e+02
8.000000e-08	-2.911195e-06	-7.719796e-09	-1.954848e+01	-5.031821e+02
9.000000e-08	-2.902402e-06	-7.712039e-09	-1.948944e+01	-5.017626e+02
1.000000e-07	-2.892173e-06	-7.689892e-09	-1.942075e+01	-5.002536e+02
1.100000e-07	-2.880466e-06	-7.645021e-09	-1.934214e+01	-4.986813e+02
1.200000e-07	-2.867884e-06	-7.577469e-09	-1.925765e+01	-4.970385e+02
1.300000e-07	-2.854599e-06	-7.564332e-09	-1.916845e+01	-4.952870e+02
1.400000e-07	-2.840242e-06	-7.580957e-09	-1.907204e+01	-4.933720e+02
1.500000e-07	-2.824666e-06	-7.538072e-09	-1.896745e+01	-4.912434e+02
1.600000e-07	-2.807953e-06	-7.467467e-09	-1.885522e+01	-4.888769e+02
1.700000e-07	-2.789978e-06	-7.453099e-09	-1.873452e+01	-4.862859e+02
1.800000e-07	-2.770986e-06	-7.425678e-09	-1.860699e+01	-4.835193e+02
1.900000e-07	-2.751349e-06	-7.324517e-09	-1.847513e+01	-4.806465e+02
2.000000e-07	-2.730848e-06	-7.285893e-09	-1.833746e+01	-4.777338e+02
2.100000e-07	-2.709353e-06	-7.253311e-09	-1.819313e+01	-4.748214e+02
2.200000e-07	-2.687025e-06	-7.177070e-09	-1.804320e+01	-4.719082e+02
2.300000e-07	-2.663880e-06	-7.158292e-09	-1.788778e+01	-4.689511e+02
2.400000e-07	-2.639812e-06	-7.148169e-09	-1.772617e+01	-4.658782e+02
2.500000e-07	-2.614935e-06	-7.055227e-09	-1.755912e+01	-4.626120e+02
2.600000e-07	-2.589034e-06	-6.977145e-09	-1.738519e+01	-4.590934e+02
2.700000e-07	-2.561886e-06	-6.932519e-09	-1.720289e+01	-4.552996e+02
2.800000e-07	-2.533729e-06	-6.885531e-09	-1.701383e+01	-4.512498e+02
2.900000e-07	-2.504762e-06	-6.818454e-09	-1.681931e+01	-4.469964e+02
3.000000e-07	-2.474925e-06	-6.729386e-09	-1.661896e+01	-4.426068e+02
3.100000e-07	-2.444274e-06	-6.676445e-09	-1.641314e+01	-4.381415e+02
3.200000e-07	-2.412898e-06	-6.649594e-09	-1.620245e+01	-4.336366e+02
3.300000e-07	-2.380761e-06	-6.549123e-09	-1.598665e+01	-4.290961e+02
3.400000e-07	-2.347906e-06	-6.437651e-09	-1.576603e+01	-4.244956e+02
3.500000e-07	-2.314193e-06	-6.410797e-09	-1.553965e+01	-4.197955e+02
3.600000e-07	-2.279386e-06	-6.329705e-09	-1.530593e+01	-4.149574e+02
3.700000e-07	-2.243544e-06	-6.234116e-09	-1.506525e+01	-4.099588e+02
3.800000e-07	-2.206953e-06	-6.186182e-09	-1.481955e+01	-4.047999e+02
3.900000e-07	-2.169741e-06	-6.081170e-09	-1.456967e+01	-3.995013e+02
4.000000e-07	-2.131783e-06	-5.977693e-09	-1.431478e+01	-3.940949e+02
4.100000e-07	-2.092993e-06	-5.933971e-09	-1.405431e+01	-3.886108e+02
4.200000e-07	-2.053461e-06	-5.843491e-09	-1.378886e+01	-3.830668e+02
4.300000e-07	-2.013276e-06	-5.726321e-09	-1.351902e+01	-3.774627e+02
4.400000e-07	-1.972563e-06	-5.658113e-09	-1.324563e+01	-3.717820e+02
4.500000e-07	-1.931233e-06	-5.578671e-09	-1.296811e+01	-3.659998e+02
4.600000e-07	-1.888999e-06	-5.483089e-09	-1.268451e+01	-3.600922e+02
4.700000e-07	-1.845767e-06	-5.384069e-09	-1.239420e+01	-3.540459e+02
4.800000e-07	-1.801684e-06	-5.285804e-09	-1.209819e+01	-3.478618e+02
4.900000e-07	-1.757043e-06	-5.199228e-09	-1.179843e+01	-3.415543e+02
5.000000e-07	-1.711933e-06	-5.108634e-09	-1.149552e+01	-3.351454e+02
5.100000e-07	-1.666258e-06	-5.001290e-09	-1.118881e+01	-3.286567e+02
5.200000e-07	-1.619994e-06	-4.896977e-09	-1.087816e+01	-3.221029e+02
5.300000e-07	-1.573190e-06	-4.800929e-09	-1.056387e+01	-3.154881e+02
5.400000e-07	-1.525787e-06	-4.697013e-09	-1.024556e+01	-3.088063e+02
5.500000e-07	-1.477792e-06	-4.599253e-09	-9.923278e+00	-3.020456e+02
5.600000e-07	-1.429351e-06	-4.491522e-09	-9.597999e+00	-2.951944e+02
5.700000e-07	-1.380450e-06	-4.374763e-09	-9.269635e+00	-2.882460e+02
5.800000e-07	-1.331004e-06	-4.270432e-09	-8.937607e+00	-2.812018e+02
5.900000e-07	-1.280914e-06	-4.170836e-09	-8.601253e+00	-2.740702e+02
6.000000e-07	-1.230035e-06	-4.054062e-09	-8.259605e+00	-2.668634e+02
6.100000e-07	-1.178443e-06	-3.937891e-09	-7.913169e+00	-2.595928e+02
6.200000e-07	-1.126352e-06	-3.833728e-09	-7.563377e+00	-2.522643e+02
6.300000e-07	-1.073890e-06	-3.722671e-09	-7.211104e+00	-2.448761e+02
6.400000e-07	-1.021104e-06	-3.605900e-09	-6.856648e+00	-2.374195e+02
6.500000e-07	-9.679082e-07	-3.484599e-09	-6.499440e+00	-2.298818e+02
6.600000e-07	-9.142963e-07	-3.367806e-09	-6.139440e+00	-2.222509e+02
6.700000e-07	-8.603547e-07	-3.255061e-09	-5.777226e+00	-2.145204e+02
6.800000e-07	-8.061589e-07	-3.141783e-09	-5.413304e+00	-2.066930e+02
6.900000e-07	-7.516993e-07	-3.020943e-09	-5.047611e+00	-1.987804e+02
7.000000e-07	-6.970076e-07	-2.895307e-09	-4.680360e+00	-1.908019e+02
7.100000e-07	-6.421362e-07	-2.769567e-09	-4.311902e+00	-1.827788e+02
7.200000e-07	-5.870623e-07	-2.642322e-09	-3.942085e+00	-1.747290e+02
7.300000e-07	-5.317786e-07	-2.516958e-09	-3.570859e+00	-1.666616e+02
7.400000e-07	-4.762450e-07	-2.391543e-09	-3.197954e+00	-1.585738e+02
7.500000e-07	-4.204587e-07	-2.271358e-09	-2.823353e+00	-1.504515e+02
7.600000e-07	-3.644712e-07	-2.153054e-09	-2.447400e+00	-1.422729e+02
7.700000e-07	-3.083798e-07	-2.031001e-09	-2.070750e+00	-1.340145e+02
7.800000e-07	-2.522299e-07	-1.900352e-09	-1.693707e+00	-1.256587e+02
7.900000e-07	-1.960102e-07	-1.766141e-09	-1.316196e+00	-1.171988e+02
8.000000e-07	-1.397468e-07	-1.633031e-09	-9.383910e-01	-1.086415e+02
8.100000e-07	-8.340458e-08	-1.498464e-09	-5.600563e-01	-1.000046e+02
8.200000e-07	-2.703824e-08	-1.365361e-09	-1.815600e-01	-9.131146e+01
8.300000e-07	2.931859e-08	-1.235142e-09	1.968724e-01	-8.258344e+01
8.400000e-07	8.570446e-08	-1.108155e-09	5.754998e-01	-7.383240e+01
8.500000e-07	1.420414e-07	-9.761268e-10	9.537985e-01	-6.505676e+01
8.600000e-07	1.983064e-07	-8.382270e-10	1.331614e+00	-5.624175e+01
8.700000e-07	2.545313e-07	-6.990307e-10	1.709161e+00	-4.736425e+01
8.800000e-07	3.107190e-07	-5.610820e-10	2.086458e+00	-3.840046e+01
8.900000e-07	3.667751e-07	-4.217935e-10	2.462871e+00	-2.933368e+01
9.000000e-07	4.226062e-07	-2.812278e-10	2.837773e+00	-2.015950e+01
9.100000e-07	4.783032e-07	-1.412779e-10	3.211774e+00	-1.088638e+01
9.200000e-07	5.338519e-07	-5.338555e-13	3.584780e+00	-1.531480e+00
9.300000e-07	5.891382e-07	1.393889e-10	3.956024e+00	7.886610e+00
9.400000e-07	6.442066e-07	2.823485e-10	4.325805e+00	1.735554e+01
9.500000e-07	6.990601e-07	4.289961e-10	4.694143e+00	2.687415e+01
9.600000e-07	7.537279e-07	5.789737e-10	5.061234e+00	3.645275e+01
9.700000e-07	8.081888e-07	7.267336e-10	5.426935e+00	4.610862e+01
9.800000e-07	8.623624e-07	8.719565e-10	5.790707e+00	5.585839e+01
9.900000e-07	9.161646e-07	1.021390e-09	6.151986e+00	6.571052e+01
1.000000e-06	9.695478e-07	1.174645e-09	6.510450e+00	7.566075e+01
1.010000e-06	1.022576e-06	1.328130e-09	6.866532e+00	8.569266e+01
1.020000e-06	1.075285e-06	1.480267e-09	7.220471e+00	9.578311e+01
1.030000e-06	1.127655e-06	1.633770e-09	7.572128e+00	1.059105e+02
1.040000e-06	1.179553e-06	1.789733e-09	7.920622e+00	1.160623e+02
1.050000e-06	1.230861e-06	1.945569e-09	8.265150e+00	1.262391e+02
1.060000e-06	1.281440e-06	2.100128e-09	8.604789e+00	1.364530e+02
1.070000e-06	1.331213e-06	2.255610e-09	8.939007e+00	1.467207e+02
1.080000e-06	1.380368e-06	2.412414e-09	9.269080e+00	1.570542e+02
1.090000e-06	1.429122e-06	2.571030e-09	9.596460e+00	1.674537e+02
1.100000e-06	1.477532e-06	2.730365e-09	9.921534e+00	1.779032e+02
1.110000e-06	1.525501e-06	2.890577e-09	1.024364e+01	1.883746e+02
1.120000e-06	1.572911e-06	3.051479e-09	1.056200e+01	1.988349e+02
1.130000e-06	1.619726e-06	3.210678e-09	1.087635e+01	2.092565e+02
1.140000e-06	1.665957e-06	3.366034e-09	1.118679e+01	2.196256e+02
1.150000e-06	1.711571e-06	3.520847e-09	1.149309e+01	2.299441e+02
1.160000e-06	1.756627e-06	3.679082e-09	1.179563e+01	2.402257e+02
1.170000e-06	1.801299e-06	3.838964e-09	1.209561e+01	2.504860e+02
1.180000e-06	1.845576e-06	3.996724e-09	1.239292e+01	2.607315e+02
1.190000e-06	1.889165e-06	4.153146e-09	1.268562e+01	2.709514e+02
1.200000e-06	1.931750e-06	4.310033e-09	1.297157e+01	2.811160e+02
1.210000e-06	1.973314e-06	4.464174e-09	1.325068e+01	2.911822e+02
1.220000e-06	2.014159e-06	4.612704e-09	1.352495e+01	3.011053e+02
1.230000e-06	2.054480e-06	4.756236e-09	1.379570e+01	3.108504e+02
1.240000e-06	2.094164e-06	4.897981e-09	1.406218e+01	3.204011e+02
1.250000e-06	2.133154e-06	5.041371e-09	1.432399e+01	3.297603e+02
1.260000e-06	2.171433e-06	5.183544e-09	1.458103e+01	3.389434e+02
1.270000e-06	2.208941e-06	5.320295e-09	1.483289e+01	3.479653e+02
1.280000e-06	2.245778e-06	5.453962e-09	1.508025e+01	3.568285e+02
1.290000e-06	2.282060e-06	5.586632e-09	1.532388e+01	3.655145e+02
1.300000e-06	2.317512e-06	5.715944e-09	1.556194e+01	3.739849e+02
1.310000e-06	2.351810e-06	5.836509e-09	1.579225e+01	3.821905e+02
1.320000e-06	2.385021e-06	5.951326e-09	1.601526e+01	3.900851e+02
1.330000e-06	2.417429e-06	6.066204e-09	1.623288e+01	3.976405e+02
1.340000e-06	2.449104e-06	6.178764e-09	1.644557e+01	4.048547e+02
1.350000e-06	2.479990e-06	6.281931e-09	1.665297e+01	4.117509e+02
1.360000e-06	2.510051e-06	6.376992e-09	1.685483e+01	4.183681e+02
1.370000e-06	2.539291e-06	6.471670e-09	1.705117e+01	4.247457e+02
1.380000e-06	2.567883e-06	6.567978e-09	1.724317e+01	4.309092e+02
1.390000e-06	2.595705e-06	6.660459e-09	1.742999e+01	4.368619e+02
1.400000e-06	2.622287e-06	6.745222e-09	1.760849e+01	4.425861e+02
1.410000e-06	2.647622e-06	6.825139e-09	1.777861e+01	4.480533e+02
1.420000e-06	2.672014e-06	6.901910e-09	1.794240e+01	4.532390e+02
1.430000e-06	2.695474e-06	6.974389e-09	1.809993e+01	4.581357e+02
1.440000e-06	2.717999e-06	7.041346e-09	1.825119e+01	4.627594e+02
1.450000e-06	2.739641e-06	7.105365e-09	1.839651e+01	4.671454e+02
1.460000e-06	2.760529e-06	7.170257e-09	1.853677e+01	4.713356e+02
1.470000e-06	2.780651e-06	7.235443e-09	1.867189e+01	4.753620e+02
1.480000e-06	2.799818e-06	7.295741e-09	1.880059e+01	4.792332e+02
1.490000e-06	2.817952e-06	7.348606e-09	1.892236e+01	4.829292e+02
1.500000e-06	2.835134e-06	7.396598e-09	1.903774e+01	4.864073e+02
1.510000e-06	2.851273e-06	7.441919e-09	1.914611e+01	4.896177e+02
1.520000e-06	2.866198e-06	7.484462e-09	1.924633e+01	4.925214e+02
1.530000e-06	2.880022e-06	7.521413e-09	1.933916e+01	4.951060e+02
1.540000e-06	2.892798e-06	7.553396e-09	1.942495e+01	4.973914e+02
1.550000e-06	2.904369e-06	7.582687e-09	1.950265e+01	4.994234e+02
1.560000e-06	2.914549e-06	7.610412e-09	1.957100e+01	5.012586e+02
1.570000e-06	2.923551e-06	7.635015e-09	1.963146e+01	5.029450e+02
1.580000e-06	2.931650e-06	7.657203e-09	1.968584e+01	5.045068e+02
1.590000e-06	2.938766e-06	7.678479e-09	1.973362e+01	5.059383e+02
1.600000e-06	2.944844e-06	7.697210e-09	1.977443e+01	5.072101e+02
1.610000e-06	2.950015e-06	7.712215e-09	1.980916e+01	5.082841e+02
1.620000e-06	2.954380e-06	7.724080e-09	1.983847e+01	5.091308e+02
1.630000e-06	2.957656e-06	7.732788e-09	1.986047e+01	5.097438e+02
1.640000e-06	2.959560e-06	7.739471e-09	1.987325e+01	5.101429e+02
1.650000e-06	2.960342e-06	7.744954e-09	1.987850e+01	5.103672e+02
1.660000e-06	2.960234e-06	7.747901e-09	1.987778e+01	5.104592e+02
1.670000e-06	2.959194e-06	7.748094e-09	1.987080e+01	5.104477e+02
1.680000e-06	2.957217e-06	7.744037e-09	1.985752e+01	5.103354e+02
1.690000e-06	2.954385e-06	7.736897e-09	1.983850e+01	5.100979e+02
1.700000e-06	2.950801e-06	7.728252e-09	1.981444e+01	5.096930e+02
1.710000e-06	2.946188e-06	7.720019e-09	1.978346e+01	5.090789e+02
1.720000e-06	2.940261e-06	7.709982e-09	1.974366e+01	5.082313e+02
1.730000e-06	2.933314e-06	7.694296e-09	1.969701e+01	5.071556e+02
1.740000e-06	2.925563e-06	7.673007e-09	1.964497e+01	5.058862e+02
1.750000e-06	2.916622e-06	7.629012e-09	1.958493e+01	5.044750e+02
1.760000e-06	2.905992e-06	7.604000e-09	1.951355e+01	5.029713e+02
1.770000e-06	2.893942e-06	7.619499e-09	1.943263e+01	5.014035e+02
1.780000e-06	2.881509e-06	7.620989e-09	1.934915e+01	4.997669e+02
1.790000e-06	2.868805e-06	7.563559e-09	1.926384e+01	4.980252e+02
1.800000e-06	2.854660e-06	7.495892e-09	1.916885e+01	4.961238e+02
1.810000e-06	2.838897e-06	7.532535e-09	1.906301e+01	4.940118e+02
1.820000e-06	2.822484e-06	7.499491e-09	1.895279e+01	4.916626e+02
1.830000e-06	2.805377e-06	7.395658e-09	1.883793e+01	4.890865e+02
1.840000e-06	2.787020e-06	7.385808e-09	1.871465e+01	4.863305e+02
1.850000e-06	2.767818e-06	7.386685e-09	1.858572e+01	4.834630e+02
1.860000e-06	2.747854e-06	7.312834e-09	1.845166e+01	4.805517e+02
1.870000e-06	2.726442e-06	7.276973e-09	1.830788e+01	4.776390e+02
1.880000e-06	2.703736e-06	7.276832e-09	1.815541e+01	4.747269e+02
1.890000e-06	2.680239e-06	7.164951e-09	1.799763e+01	4.717753e+02
1.900000e-06	2.655782e-06	7.092689e-09	1.783340e+01	4.687135e+02
1.910000e-06	2.630428e-06	7.120104e-09	1.766315e+01	4.654636e+02
1.920000e-06	2.604418e-06	7.060205e-09	1.748850e+01	4.619645e+02
1.930000e-06	2.577559e-06	6.974135e-09	1.730814e+01	4.581904e+02
1.940000e-06	2.549919e-06	6.933025e-09	1.712254e+01	4.541576e+02
1.950000e-06	2.521391e-06	6.861261e-09	1.693098e+01	4.499168e+02
1.960000e-06	2.491466e-06	6.807752e-09	1.673003e+01	4.455349e+02
1.970000e-06	2.460429e-06	6.706925e-09	1.652162e+01	4.410736e+02
1.980000e-06	2.428667e-06	6.611619e-09	1.630834e+01	4.365712e+02
1.990000e-06	2.396103e-06	6.614959e-09	1.608968e+01	4.320339e+02
2.000000e-06	2.362806e-06	6.538260e-09	1.586609e+01	4.274391e+02
2.010000e-06	2.328745e-06	6.414569e-09	1.563737e+01	4.227477e+02
2.020000e-06	2.293923e-06	6.389518e-09	1.540354e+01	4.179206e+02
2.030000e-06	2.258498e-06	6.297000e-09	1.516567e+01	4.129340e+02
2.040000e-06	2.222163e-06	6.185160e-09	1.492168e+01	4.077862e+02
2.050000e-06	2.184607e-06	6.164590e-09	1.466949e+01	4.024968e+02
2.060000e-06	2.146064e-06	6.057843e-09	1.441068e+01	3.970972e+02
2.070000e-06	2.106874e-06	5.947150e-09	1.414752e+01	3.916180e+02
2.080000e-06	2.067071e-06	5.907754e-09	1.388025e+01	3.860783e+02
2.090000e-06	2.026552e-06	5.811152e-09	1.360816e+01	3.804790e+02
2.100000e-06	1.985365e-06	5.710211e-09	1.333160e+01	3.748048e+02
2.110000e-06	1.943569e-06	5.626250e-09	1.305094e+01	3.690308e+02
2.120000e-06	1.901149e-06	5.531808e-09	1.276609e+01	3.631330e+02
2.130000e-06	1.858205e-06	5.459556e-09	1.247773e+01	3.570970e+02
2.140000e-06	1.814740e-06	5.355122e-09	1.218586e+01	3.509226e+02
2.150000e-06	1.770636e-06	5.245128e-09	1.188970e+01	3.446234e+02
2.160000e-06	1.725876e-06	5.168588e-09	1.158914e+01	3.382211e+02
2.170000e-06	1.680449e-06	5.069457e-09	1.128410e+01	3.317377e+02
2.180000e-06	1.634489e-06	4.966937e-09	1.097549e+01	3.251885e+02
2.190000e-06	1.588065e-06	4.863461e-09	1.066375e+01	3.185783e+02
2.200000e-06	1.541081e-06	4.753487e-09	1.034826e+01	3.119018e+02
2.210000e-06	1.493436e-06	4.652934e-09	1.002833e+01	3.051474e+02
2.220000e-06	1.445063e-06	4.558727e-09	9.703503e+00	2.983031e+02
2.230000e-06	1.396115e-06	4.461677e-09	9.374821e+00	2.913619e+02
2.240000e-06	1.346746e-06	4.342725e-09	9.043312e+00	2.843245e+02
2.250000e-06	1.296906e-06	4.234217e-09	8.708639e+00	2.771989e+02
2.260000e-06	1.246491e-06	4.138724e-09	8.370106e+00	2.699973e+02
2.270000e-06	1.195578e-06	4.018932e-09	8.028225e+00	2.627312e+02
2.280000e-06	1.144341e-06	3.895634e-09	7.684173e+00	2.554069e+02
2.290000e-06	1.092698e-06	3.785174e-09	7.337397e+00	2.480234e+02
2.300000e-06	1.040500e-06	3.680226e-09	6.986889e+00	2.405723e+02
2.310000e-06	9.876539e-07	3.575736e-09	6.632032e+00	2.330410e+02
2.320000e-06	9.341257e-07	3.453992e-09	6.272593e+00	2.254172e+02
2.330000e-06	8.801007e-07	3.328990e-09	5.909819e+00	2.176941e+02
2.340000e-06	8.257110e-07	3.210093e-09	5.544596e+00	2.098734e+02
2.350000e-06	7.709864e-07	3.087794e-09	5.177123e+00	2.019666e+02
2.360000e-06	7.160187e-07	2.968684e-09	4.808019e+00	1.939922e+02
2.370000e-06	6.609038e-07	2.845849e-09	4.437926e+00	1.859718e+02
2.380000e-06	6.056591e-07	2.724474e-09	4.066961e+00	1.779237e+02
2.390000e-06	5.502850e-07	2.608130e-09	3.695128e+00	1.698577e+02
2.400000e-06	4.947895e-07	2.488424e-09	3.322479e+00	1.617719e+02
2.410000e-06	4.391484e-07	2.362814e-09	2.948853e+00	1.536529e+02
2.420000e-06	3.833676e-07	2.231644e-09	2.574289e+00	1.454793e+02
2.430000e-06	3.274884e-07	2.105063e-09	2.199064e+00	1.372274e+02
2.440000e-06	2.714861e-07	1.982371e-09	1.823011e+00	1.288792e+02
2.450000e-06	2.153881e-07	1.854861e-09	1.446317e+00	1.204268e+02
2.460000e-06	1.592510e-07	1.723237e-09	1.069360e+00	1.118762e+02
2.470000e-06	1.030132e-07	1.591296e-09	6.917270e-01	1.032444e+02
2.480000e-06	4.669357e-08	1.460811e-09	3.135442e-01	9.455469e+01
2.490000e-06	-9.665632e-09	1.329729e-09	-6.490409e-02	8.582880e+01
2.500000e-06	-6.601748e-08	1.195605e-09	-4.433031e-01	7.707947e+01
2.510000e-06	-1.223086e-07	1.061336e-09	-8.212944e-01	6.830612e+01
2.520000e-06	-1.784825e-07	9.258849e-10	-1.198498e+00	5.949482e+01
2.530000e-06	-2.345304e-07	7.892638e-10	-1.574856e+00	5.062280e+01
2.540000e-06	-2.905066e-07	6.541827e-10	-1.950733e+00	4.166603e+01
2.550000e-06	-3.463670e-07	5.175914e-10	-2.325832e+00	3.260709e+01
2.560000e-06	-4.020506e-07	3.784190e-10	-2.699744e+00	2.344063e+01
2.570000e-06	-4.575811e-07	2.369578e-10	-3.072627e+00	1.417425e+01
2.580000e-06	-5.130012e-07	9.539896e-11	-3.444769e+00	4.824730e+00
2.590000e-06	-5.682939e-07	-4.765504e-11	-3.816056e+00	-4.589184e+00
2.600000e-06	-6.234565e-07	-1.933653e-10	-4.186470e+00	-1.405449e+01
2.610000e-06	-6.785131e-07	-3.398696e-10	-4.556171e+00	-2.356914e+01
2.620000e-06	-7.334648e-07	-4.878444e-10	-4.925168e+00	-3.314275e+01
2.630000e-06	-7.882770e-07	-6.364675e-10	-5.293229e+00	-4.279230e+01
2.640000e-06	-8.428387e-07	-7.840657e-10	-5.659607e+00	-5.253477e+01
2.650000e-06	-8.969851e-07	-9.326621e-10	-6.023196e+00	-6.237939e+01
2.660000e-06	-9.506199e-07	-1.084311e-09	-6.383351e+00	-7.232285e+01
2.670000e-06	-1.003617e-06	-1.235672e-09	-6.739220e+00	-8.234947e+01
2.680000e-06	-1.055972e-06	-1.387519e-09	-7.090781e+00	-9.243634e+01
2.690000e-06	-1.107828e-06	-1.542024e-09	-7.438993e+00	-1.025614e+02
2.700000e-06	-1.159244e-06	-1.700387e-09	-7.784249e+00	-1.127114e+02
2.710000e-06	-1.210282e-06	-1.860021e-09	-8.126964e+00	-1.228860e+02
2.720000e-06	-1.260933e-06	-2.016716e-09	-8.467080e+00	-1.330966e+02
2.730000e-06	-1.311109e-06	-2.171730e-09	-8.804014e+00	-1.433597e+02
2.740000e-06	-1.360745e-06	-2.326672e-09	-9.137316e+00	-1.536882e+02
2.750000e-06	-1.409820e-06	-2.482902e-09	-9.466852e+00	-1.640830e+02
2.760000e-06	-1.458287e-06	-2.639586e-09	-9.792299e+00	-1.745297e+02
2.770000e-06	-1.505916e-06	-2.798933e-09	-1.011213e+01	-1.850004e+02
2.780000e-06	-1.552674e-06	-2.961891e-09	-1.042610e+01	-1.954623e+02
2.790000e-06	-1.598762e-06	-3.124960e-09	-1.073558e+01	-2.058872e+02
2.800000e-06	-1.644396e-06	-3.284964e-09	-1.104201e+01	-2.162599e+02
2.810000e-06	-1.689693e-06	-3.441304e-09	-1.134618e+01	-2.265815e+02
2.820000e-06	-1.734572e-06	-3.595910e-09	-1.164753e+01	-2.368650e+02
2.830000e-06	-1.778832e-06	-3.749442e-09	-1.194474e+01	-2.471263e+02
2.840000e-06	-1.822435e-06	-3.903124e-09	-1.223753e+01	-2.573728e+02
2.850000e-06	-1.865577e-06	-4.058293e-09	-1.252723e+01	-2.675951e+02
2.860000e-06	-1.908281e-06	-4.214717e-09	-1.281398e+01	-2.777648e+02
2.870000e-06	-1.950362e-06	-4.370591e-09	-1.309655e+01	-2.878394e+02
2.880000e-06	-1.991752e-06	-4.524487e-09	-1.337449e+01	-2.977739e+02
2.890000e-06	-2.032450e-06	-4.673866e-09	-1.364777e+01	-3.075323e+02
2.900000e-06	-2.072424e-06	-4.819506e-09	-1.391619e+01	-3.170968e+02
2.910000e-06	-2.111801e-06	-4.963477e-09	-1.418060e+01	-3.264691e+02
2.920000e-06	-2.150645e-06	-5.104077e-09	-1.444144e+01	-3.356640e+02
2.930000e-06	-2.188652e-06	-5.241958e-09	-1.469665e+01	-3.446969e+02
2.940000e-06	-2.225522e-06	-5.377933e-09	-1.494423e+01	-3.535716e+02
