# Temperatura_=_19.78
# Concentracion g/m^3_=_18700.0
# C_Vs_to_Am_M_A/Vsm_=_65563218390.804596
# pendiente_HvsI_1/m_=_3716.3
# ordenada_HvsI_A/m_=_1297.0
# frecuencia_Hz_=_301069.7249466712

Tiempo_(s)	Campo_(V.s)	Magnetizacion_(V.s)	Campo_(kA/m)	Magnetizacion_(A/m)
0.000000e+00	-2.949041e-06	-7.664078e-09	-1.977961e+01	-4.998227e+02
1.000000e-08	-2.948411e-06	-7.667711e-09	-1.977539e+01	-4.999396e+02
2.000000e-08	-2.946897e-06	-7.669742e-09	-1.976524e+01	-4.999145e+02
3.000000e-08	-2.944220e-06	-7.668383e-09	-1.974728e+01	-4.997014e+02
4.000000e-08	-2.940356e-06	-7.664525e-09	-1.972136e+01	-4.992614e+02
5.000000e-08	-2.935585e-06	-7.656978e-09	-1.968936e+01	-4.985798e+02
6.000000e-08	-2.929976e-06	-7.647387e-09	-1.965174e+01	-4.976751e+02
7.000000e-08	-2.923378e-06	-7.645483e-09	-1.960749e+01	-4.965938e+02
8.000000e-08	-2.915745e-06	-7.617253e-09	-1.955629e+01	-4.953947e+02
9.000000e-08	-2.906954e-06	-7.568088e-09	-1.949733e+01	-4.941263e+02
1.000000e-07	-2.896779e-06	-7.534486e-09	-1.942909e+01	-4.928082e+02
1.100000e-07	-2.885203e-06	-7.590281e-09	-1.935145e+01	-4.914216e+02
1.200000e-07	-2.872666e-06	-7.559519e-09	-1.926736e+01	-4.899147e+02
1.300000e-07	-2.859423e-06	-7.421232e-09	-1.917854e+01	-4.882211e+02
1.400000e-07	-2.845109e-06	-7.415019e-09	-1.908253e+01	-4.862839e+02
1.500000e-07	-2.829566e-06	-7.526683e-09	-1.897828e+01	-4.840782e+02
1.600000e-07	-2.812909e-06	-7.396914e-09	-1.886656e+01	-4.816229e+02
1.700000e-07	-2.795068e-06	-7.236353e-09	-1.874690e+01	-4.789765e+02
1.800000e-07	-2.776205e-06	-7.343027e-09	-1.862038e+01	-4.762200e+02
1.900000e-07	-2.756574e-06	-7.266580e-09	-1.848871e+01	-4.734311e+02
2.000000e-07	-2.736150e-06	-7.102441e-09	-1.835173e+01	-4.706585e+02
2.100000e-07	-2.714841e-06	-7.168666e-09	-1.820881e+01	-4.679068e+02
2.200000e-07	-2.692646e-06	-7.153750e-09	-1.805994e+01	-4.651349e+02
2.300000e-07	-2.669592e-06	-6.989203e-09	-1.790532e+01	-4.622694e+02
2.400000e-07	-2.645603e-06	-7.012337e-09	-1.774441e+01	-4.592278e+02
2.500000e-07	-2.620713e-06	-6.995404e-09	-1.757748e+01	-4.559430e+02
2.600000e-07	-2.594862e-06	-6.852310e-09	-1.740409e+01	-4.523823e+02
2.700000e-07	-2.567834e-06	-6.807019e-09	-1.722281e+01	-4.485538e+02
2.800000e-07	-2.539712e-06	-6.791766e-09	-1.703419e+01	-4.444997e+02
2.900000e-07	-2.510765e-06	-6.703078e-09	-1.684004e+01	-4.402810e+02
3.000000e-07	-2.481039e-06	-6.643355e-09	-1.664067e+01	-4.359569e+02
3.100000e-07	-2.450483e-06	-6.570465e-09	-1.643572e+01	-4.315690e+02
3.200000e-07	-2.419160e-06	-6.499898e-09	-1.622564e+01	-4.271324e+02
3.300000e-07	-2.387079e-06	-6.465292e-09	-1.601046e+01	-4.226375e+02
3.400000e-07	-2.354279e-06	-6.339031e-09	-1.579047e+01	-4.180589e+02
3.500000e-07	-2.320702e-06	-6.280325e-09	-1.556526e+01	-4.133679e+02
3.600000e-07	-2.286066e-06	-6.246108e-09	-1.533296e+01	-4.085438e+02
3.700000e-07	-2.250300e-06	-6.129949e-09	-1.509307e+01	-4.035799e+02
3.800000e-07	-2.213690e-06	-6.054894e-09	-1.484752e+01	-3.984834e+02
3.900000e-07	-2.176419e-06	-6.001398e-09	-1.459754e+01	-3.932695e+02
4.000000e-07	-2.138433e-06	-5.885548e-09	-1.434276e+01	-3.879544e+02
4.100000e-07	-2.099648e-06	-5.808469e-09	-1.408262e+01	-3.825485e+02
4.200000e-07	-2.060072e-06	-5.752419e-09	-1.381718e+01	-3.770535e+02
4.300000e-07	-2.019875e-06	-5.642102e-09	-1.354758e+01	-3.714631e+02
4.400000e-07	-1.979176e-06	-5.555387e-09	-1.327460e+01	-3.657676e+02
4.500000e-07	-1.937844e-06	-5.475974e-09	-1.299738e+01	-3.599582e+02
4.600000e-07	-1.895637e-06	-5.386452e-09	-1.271430e+01	-3.540316e+02
4.700000e-07	-1.852432e-06	-5.285892e-09	-1.242451e+01	-3.479908e+02
4.800000e-07	-1.808361e-06	-5.192701e-09	-1.212892e+01	-3.418444e+02
4.900000e-07	-1.763703e-06	-5.100508e-09	-1.182940e+01	-3.356032e+02
5.000000e-07	-1.718568e-06	-5.004994e-09	-1.152667e+01	-3.292773e+02
5.100000e-07	-1.672893e-06	-4.909124e-09	-1.122032e+01	-3.228733e+02
5.200000e-07	-1.626620e-06	-4.808989e-09	-1.090996e+01	-3.163938e+02
5.300000e-07	-1.579784e-06	-4.713160e-09	-1.059583e+01	-3.098381e+02
5.400000e-07	-1.532400e-06	-4.610622e-09	-1.027801e+01	-3.032040e+02
5.500000e-07	-1.484437e-06	-4.510236e-09	-9.956319e+00	-2.964893e+02
5.600000e-07	-1.436012e-06	-4.402469e-09	-9.631526e+00	-2.896934e+02
5.700000e-07	-1.387115e-06	-4.294576e-09	-9.303569e+00	-2.828169e+02
5.800000e-07	-1.337567e-06	-4.185963e-09	-8.971240e+00	-2.758618e+02
5.900000e-07	-1.287326e-06	-4.084250e-09	-8.634270e+00	-2.688301e+02
6.000000e-07	-1.236353e-06	-3.977444e-09	-8.292389e+00	-2.617234e+02
6.100000e-07	-1.184744e-06	-3.865156e-09	-7.946236e+00	-2.545421e+02
6.200000e-07	-1.132636e-06	-3.758764e-09	-7.596743e+00	-2.472852e+02
6.300000e-07	-1.080117e-06	-3.644281e-09	-7.244488e+00	-2.399506e+02
6.400000e-07	-1.027299e-06	-3.527053e-09	-6.890236e+00	-2.325354e+02
6.500000e-07	-9.741143e-07	-3.405725e-09	-6.533516e+00	-2.250367e+02
6.600000e-07	-9.204949e-07	-3.290426e-09	-6.173884e+00	-2.174529e+02
6.700000e-07	-8.665360e-07	-3.177489e-09	-5.811974e+00	-2.097853e+02
6.800000e-07	-8.122947e-07	-3.065349e-09	-5.448170e+00	-2.020387e+02
6.900000e-07	-7.578237e-07	-2.947976e-09	-5.082826e+00	-1.942222e+02
7.000000e-07	-7.031498e-07	-2.826825e-09	-4.716121e+00	-1.863481e+02
7.100000e-07	-6.482420e-07	-2.705041e-09	-4.347847e+00	-1.784293e+02
7.200000e-07	-5.931003e-07	-2.579082e-09	-3.978004e+00	-1.704756e+02
7.300000e-07	-5.376998e-07	-2.453055e-09	-3.606425e+00	-1.624901e+02
7.400000e-07	-4.820537e-07	-2.326090e-09	-3.233199e+00	-1.544674e+02
7.500000e-07	-4.262267e-07	-2.205980e-09	-2.858760e+00	-1.463933e+02
7.600000e-07	-3.702398e-07	-2.087136e-09	-2.483249e+00	-1.382486e+02
7.700000e-07	-3.141156e-07	-1.966126e-09	-2.106816e+00	-1.300146e+02
7.800000e-07	-2.579351e-07	-1.837951e-09	-1.730006e+00	-1.216794e+02
7.900000e-07	-2.017231e-07	-1.706597e-09	-1.352984e+00	-1.132429e+02
8.000000e-07	-1.454706e-07	-1.574779e-09	-9.756910e-01	-1.047177e+02
8.100000e-07	-8.918142e-08	-1.438593e-09	-5.981519e-01	-9.612592e+01
8.200000e-07	-3.285903e-08	-1.302769e-09	-2.203900e-01	-8.749295e+01
8.300000e-07	2.351292e-08	-1.169636e-09	1.577044e-01	-7.883881e+01
8.400000e-07	7.990088e-08	-1.042216e-09	5.359060e-01	-7.017165e+01
8.500000e-07	1.362401e-07	-9.136977e-10	9.137808e-01	-6.148498e+01
8.600000e-07	1.925133e-07	-7.825677e-10	1.291213e+00	-5.276004e+01
8.700000e-07	2.487339e-07	-6.479549e-10	1.668292e+00	-4.397247e+01
8.800000e-07	3.048897e-07	-5.114487e-10	2.044937e+00	-3.510099e+01
8.900000e-07	3.609588e-07	-3.718864e-10	2.421000e+00	-2.613460e+01
9.000000e-07	4.169214e-07	-2.290422e-10	2.796348e+00	-1.707578e+01
9.100000e-07	4.727188e-07	-8.677655e-11	3.170589e+00	-7.938241e+00
9.200000e-07	5.282608e-07	5.408430e-11	3.543117e+00	1.259677e+00
9.300000e-07	5.835613e-07	1.896447e-10	3.914025e+00	1.050332e+01
9.400000e-07	6.387127e-07	3.266997e-10	4.283933e+00	1.978831e+01
9.500000e-07	6.936723e-07	4.682198e-10	4.652554e+00	2.912269e+01
9.600000e-07	7.483743e-07	6.149366e-10	5.019448e+00	3.852350e+01
9.700000e-07	8.028806e-07	7.619798e-10	5.385029e+00	4.800938e+01
9.800000e-07	8.571487e-07	9.078960e-10	5.749012e+00	5.759199e+01
9.900000e-07	9.110813e-07	1.057217e-09	6.110746e+00	6.727004e+01
1.000000e-06	9.646776e-07	1.208149e-09	6.470223e+00	7.702853e+01
1.010000e-06	1.017907e-06	1.356460e-09	6.827238e+00	8.684361e+01
1.020000e-06	1.070729e-06	1.502170e-09	7.181522e+00	9.669126e+01
1.030000e-06	1.123171e-06	1.652296e-09	7.533259e+00	1.065563e+02
1.040000e-06	1.175207e-06	1.806193e-09	7.882274e+00	1.164375e+02
1.050000e-06	1.226700e-06	1.958857e-09	8.227642e+00	1.263476e+02
1.060000e-06	1.277547e-06	2.108941e-09	8.568683e+00	1.363062e+02
1.070000e-06	1.327592e-06	2.262251e-09	8.904336e+00	1.463298e+02
1.080000e-06	1.376858e-06	2.418321e-09	9.234775e+00	1.564229e+02
1.090000e-06	1.425651e-06	2.575654e-09	9.562035e+00	1.665727e+02
1.100000e-06	1.474118e-06	2.730856e-09	9.887112e+00	1.767514e+02
1.110000e-06	1.522185e-06	2.883752e-09	1.020950e+01	1.869239e+02
1.120000e-06	1.569710e-06	3.038596e-09	1.052825e+01	1.970592e+02
1.130000e-06	1.616643e-06	3.193757e-09	1.084304e+01	2.071397e+02
1.140000e-06	1.663011e-06	3.345313e-09	1.115404e+01	2.171655e+02
1.150000e-06	1.708800e-06	3.492307e-09	1.146115e+01	2.271506e+02
1.160000e-06	1.754045e-06	3.643336e-09	1.176462e+01	2.371137e+02
1.170000e-06	1.798812e-06	3.800281e-09	1.206488e+01	2.470660e+02
1.180000e-06	1.843130e-06	3.957034e-09	1.236212e+01	2.570020e+02
1.190000e-06	1.886875e-06	4.109203e-09	1.265553e+01	2.668960e+02
1.200000e-06	1.929743e-06	4.256813e-09	1.294305e+01	2.767079e+02
1.210000e-06	1.971610e-06	4.401965e-09	1.322386e+01	2.863937e+02
1.220000e-06	2.012651e-06	4.544844e-09	1.349912e+01	2.959186e+02
1.230000e-06	2.053062e-06	4.686227e-09	1.377016e+01	3.052663e+02
1.240000e-06	2.092839e-06	4.825716e-09	1.403695e+01	3.144406e+02
1.250000e-06	2.131929e-06	4.964562e-09	1.429914e+01	3.234587e+02
1.260000e-06	2.170325e-06	5.102190e-09	1.455666e+01	3.323388e+02
1.270000e-06	2.207968e-06	5.236241e-09	1.480914e+01	3.410867e+02
1.280000e-06	2.244877e-06	5.366332e-09	1.505669e+01	3.496871e+02
1.290000e-06	2.281201e-06	5.491943e-09	1.530032e+01	3.581036e+02
1.300000e-06	2.316777e-06	5.614345e-09	1.553894e+01	3.662877e+02
1.310000e-06	2.351269e-06	5.732439e-09	1.577028e+01	3.741935e+02
1.320000e-06	2.384675e-06	5.845289e-09	1.599434e+01	3.817917e+02
1.330000e-06	2.417257e-06	5.953774e-09	1.621287e+01	3.890792e+02
1.340000e-06	2.449110e-06	6.059910e-09	1.642651e+01	3.960777e+02
1.350000e-06	2.480141e-06	6.161739e-09	1.663464e+01	4.028245e+02
1.360000e-06	2.510309e-06	6.259584e-09	1.683698e+01	4.093566e+02
1.370000e-06	2.539666e-06	6.356223e-09	1.703388e+01	4.156964e+02
1.380000e-06	2.568301e-06	6.450711e-09	1.722594e+01	4.218429e+02
1.390000e-06	2.596118e-06	6.540628e-09	1.741251e+01	4.277740e+02
1.400000e-06	2.622871e-06	6.624266e-09	1.759195e+01	4.334564e+02
1.410000e-06	2.648437e-06	6.703749e-09	1.776343e+01	4.388614e+02
1.420000e-06	2.672966e-06	6.779510e-09	1.792795e+01	4.439786e+02
1.430000e-06	2.696573e-06	6.851114e-09	1.808628e+01	4.488221e+02
1.440000e-06	2.719250e-06	6.919466e-09	1.823838e+01	4.534264e+02
1.450000e-06	2.740993e-06	6.986802e-09	1.838421e+01	4.578338e+02
1.460000e-06	2.761900e-06	7.053645e-09	1.852444e+01	4.620774e+02
1.470000e-06	2.782090e-06	7.118277e-09	1.865985e+01	4.661679e+02
1.480000e-06	2.801353e-06	7.177199e-09	1.878905e+01	4.700882e+02
1.490000e-06	2.819537e-06	7.230034e-09	1.891102e+01	4.737996e+02
1.500000e-06	2.836747e-06	7.278226e-09	1.902645e+01	4.772559e+02
1.510000e-06	2.852944e-06	7.322117e-09	1.913508e+01	4.804220e+02
1.520000e-06	2.867976e-06	7.362998e-09	1.923590e+01	4.832872e+02
1.530000e-06	2.881882e-06	7.400100e-09	1.932917e+01	4.858704e+02
1.540000e-06	2.894721e-06	7.434769e-09	1.941528e+01	4.882130e+02
1.550000e-06	2.906434e-06	7.467705e-09	1.949385e+01	4.903637e+02
1.560000e-06	2.916863e-06	7.497349e-09	1.956379e+01	4.923608e+02
1.570000e-06	2.926038e-06	7.524122e-09	1.962533e+01	4.942192e+02
1.580000e-06	2.934259e-06	7.548995e-09	1.968047e+01	4.959267e+02
1.590000e-06	2.941520e-06	7.571078e-09	1.972917e+01	4.974519e+02
1.600000e-06	2.947759e-06	7.587925e-09	1.977102e+01	4.987597e+02
1.610000e-06	2.953055e-06	7.599954e-09	1.980654e+01	4.998283e+02
1.620000e-06	2.957437e-06	7.610886e-09	1.983593e+01	5.006604e+02
1.630000e-06	2.960775e-06	7.620563e-09	1.985832e+01	5.012841e+02
1.640000e-06	2.962852e-06	7.629854e-09	1.987225e+01	5.017424e+02
1.650000e-06	2.963784e-06	7.638525e-09	1.987850e+01	5.020769e+02
1.660000e-06	2.963745e-06	7.644726e-09	1.987824e+01	5.023101e+02
1.670000e-06	2.962732e-06	7.647525e-09	1.987144e+01	5.024366e+02
1.680000e-06	2.960831e-06	7.644345e-09	1.985869e+01	5.024241e+02
1.690000e-06	2.958107e-06	7.636740e-09	1.984042e+01	5.022269e+02
1.700000e-06	2.954538e-06	7.626452e-09	1.981649e+01	5.018049e+02
1.710000e-06	2.949968e-06	7.614850e-09	1.978584e+01	5.011413e+02
1.720000e-06	2.944186e-06	7.596488e-09	1.974706e+01	5.002522e+02
1.730000e-06	2.937333e-06	7.566030e-09	1.970109e+01	4.991826e+02
1.740000e-06	2.929627e-06	7.584990e-09	1.964941e+01	4.979909e+02
1.750000e-06	2.920803e-06	7.590440e-09	1.959022e+01	4.967274e+02
1.760000e-06	2.910369e-06	7.521958e-09	1.952024e+01	4.954140e+02
1.770000e-06	2.898459e-06	7.446911e-09	1.944036e+01	4.940346e+02
1.780000e-06	2.885989e-06	7.496530e-09	1.935672e+01	4.925394e+02
1.790000e-06	2.873262e-06	7.564855e-09	1.927136e+01	4.908622e+02
1.800000e-06	2.859351e-06	7.385626e-09	1.917805e+01	4.889446e+02
1.810000e-06	2.843870e-06	7.333646e-09	1.907422e+01	4.867590e+02
1.820000e-06	2.827540e-06	7.447787e-09	1.896470e+01	4.843209e+02
1.830000e-06	2.810495e-06	7.319557e-09	1.885037e+01	4.816866e+02
1.840000e-06	2.792260e-06	7.148109e-09	1.872807e+01	4.789362e+02
1.850000e-06	2.773051e-06	7.260586e-09	1.859923e+01	4.761484e+02
1.860000e-06	2.753098e-06	7.257334e-09	1.846540e+01	4.733749e+02
1.870000e-06	2.731916e-06	7.042615e-09	1.832333e+01	4.706235e+02
1.880000e-06	2.709433e-06	7.114619e-09	1.817253e+01	4.678562e+02
1.890000e-06	2.686045e-06	7.152684e-09	1.801567e+01	4.650011e+02
1.900000e-06	2.661763e-06	6.949571e-09	1.785281e+01	4.619755e+02
1.910000e-06	2.636600e-06	6.974433e-09	1.768403e+01	4.587106e+02
1.920000e-06	2.610714e-06	6.995992e-09	1.751041e+01	4.551708e+02
1.930000e-06	2.584004e-06	6.836606e-09	1.733126e+01	4.513613e+02
1.940000e-06	2.556429e-06	6.819155e-09	1.714632e+01	4.473224e+02
1.950000e-06	2.527902e-06	6.753134e-09	1.695498e+01	4.431143e+02
1.960000e-06	2.498072e-06	6.647015e-09	1.675491e+01	4.387971e+02
1.970000e-06	2.467095e-06	6.637880e-09	1.654714e+01	4.344138e+02
1.980000e-06	2.435365e-06	6.522715e-09	1.633432e+01	4.299817e+02
1.990000e-06	2.402867e-06	6.445722e-09	1.611635e+01	4.254926e+02
2.000000e-06	2.369604e-06	6.461711e-09	1.589325e+01	4.209219e+02
2.010000e-06	2.335559e-06	6.308622e-09	1.566491e+01	4.162407e+02
2.020000e-06	2.300749e-06	6.230104e-09	1.543144e+01	4.114275e+02
2.030000e-06	2.265272e-06	6.222783e-09	1.519348e+01	4.064745e+02
2.040000e-06	2.228917e-06	6.071959e-09	1.494965e+01	4.013879e+02
2.050000e-06	2.191443e-06	6.021860e-09	1.469831e+01	3.961828e+02
2.060000e-06	2.152987e-06	5.976769e-09	1.444037e+01	3.908754e+02
2.070000e-06	2.113812e-06	5.841771e-09	1.417763e+01	3.854768e+02
2.080000e-06	2.074010e-06	5.787329e-09	1.391066e+01	3.799892e+02
2.090000e-06	2.033552e-06	5.701438e-09	1.363931e+01	3.744070e+02
2.100000e-06	1.992449e-06	5.593974e-09	1.336362e+01	3.687202e+02
2.110000e-06	1.950745e-06	5.525298e-09	1.308391e+01	3.629202e+02
2.120000e-06	1.908354e-06	5.419617e-09	1.279959e+01	3.570028e+02
2.130000e-06	1.865367e-06	5.342641e-09	1.251127e+01	3.509709e+02
2.140000e-06	1.821924e-06	5.255134e-09	1.221989e+01	3.448326e+02
2.150000e-06	1.777828e-06	5.139952e-09	1.192413e+01	3.385988e+02
2.160000e-06	1.733012e-06	5.061409e-09	1.162355e+01	3.322796e+02
2.170000e-06	1.687605e-06	4.956340e-09	1.131900e+01	3.258820e+02
2.180000e-06	1.641650e-06	4.860376e-09	1.101077e+01	3.194089e+02
2.190000e-06	1.595199e-06	4.761586e-09	1.069922e+01	3.128596e+02
2.200000e-06	1.548199e-06	4.646291e-09	1.038398e+01	3.062321e+02
2.210000e-06	1.500584e-06	4.556898e-09	1.006462e+01	2.995242e+02
2.220000e-06	1.452320e-06	4.451739e-09	9.740909e+00	2.927350e+02
2.230000e-06	1.403408e-06	4.349212e-09	9.412845e+00	2.858652e+02
2.240000e-06	1.354019e-06	4.245275e-09	9.081588e+00	2.789166e+02
2.250000e-06	1.304128e-06	4.127503e-09	8.746960e+00	2.718912e+02
2.260000e-06	1.253704e-06	4.028737e-09	8.408760e+00	2.647908e+02
2.270000e-06	1.202824e-06	3.919010e-09	8.067501e+00	2.576158e+02
2.280000e-06	1.151551e-06	3.801015e-09	7.723611e+00	2.503653e+02
2.290000e-06	1.099902e-06	3.695218e-09	7.377192e+00	2.430374e+02
2.300000e-06	1.047704e-06	3.581259e-09	7.027093e+00	2.356289e+02
2.310000e-06	9.948760e-07	3.476516e-09	6.672768e+00	2.281372e+02
2.320000e-06	9.413827e-07	3.362620e-09	6.313981e+00	2.205605e+02
2.330000e-06	8.873156e-07	3.237717e-09	5.951346e+00	2.128997e+02
2.340000e-06	8.328857e-07	3.120497e-09	5.586277e+00	2.051594e+02
2.350000e-06	7.781339e-07	2.996493e-09	5.219050e+00	1.973485e+02
2.360000e-06	7.231446e-07	2.880639e-09	4.850229e+00	1.894791e+02
2.370000e-06	6.680181e-07	2.761690e-09	4.480488e+00	1.815640e+02
2.380000e-06	6.127723e-07	2.640572e-09	4.109947e+00	1.736135e+02
2.390000e-06	5.573582e-07	2.525238e-09	3.738277e+00	1.656313e+02
2.400000e-06	5.017896e-07	2.403036e-09	3.365571e+00	1.576126e+02
2.410000e-06	4.460813e-07	2.279831e-09	2.991928e+00	1.495438e+02
2.420000e-06	3.902035e-07	2.153025e-09	2.617148e+00	1.414057e+02
2.430000e-06	3.342054e-07	2.025647e-09	2.241561e+00	1.331795e+02
2.440000e-06	2.781234e-07	1.901939e-09	1.865411e+00	1.248527e+02
2.450000e-06	2.219780e-07	1.776223e-09	1.488837e+00	1.164241e+02
2.460000e-06	1.657486e-07	1.649078e-09	1.111698e+00	1.079055e+02
2.470000e-06	1.094160e-07	1.518261e-09	7.338679e-01	9.931860e+01
2.480000e-06	5.297745e-08	1.384189e-09	3.553270e-01	9.068875e+01
2.490000e-06	-3.502448e-09	1.253788e-09	-2.349139e-02	8.203663e+01
2.500000e-06	-5.991374e-08	1.124629e-09	-4.018495e-01	7.337140e+01
2.510000e-06	-1.162584e-07	9.938566e-10	-7.797607e-01	6.468759e+01
2.520000e-06	-1.725902e-07	8.594446e-10	-1.157586e+00	5.596712e+01
2.530000e-06	-2.288539e-07	7.231469e-10	-1.534954e+00	4.718576e+01
2.540000e-06	-2.849565e-07	5.902208e-10	-1.911242e+00	3.832174e+01
2.550000e-06	-3.409266e-07	4.550892e-10	-2.286641e+00	2.936317e+01
2.560000e-06	-3.967736e-07	3.168480e-10	-2.661214e+00	2.031155e+01
2.570000e-06	-4.524588e-07	1.764144e-10	-3.034702e+00	1.117998e+01
2.580000e-06	-5.080229e-07	3.786130e-11	-3.407378e+00	1.986753e+00
2.590000e-06	-5.634568e-07	-9.886653e-11	-3.779181e+00	-7.252961e+00
2.600000e-06	-6.187317e-07	-2.391121e-10	-4.149917e+00	-1.653393e+01
2.610000e-06	-6.738869e-07	-3.836156e-10	-4.519851e+00	-2.586333e+01
2.620000e-06	-7.289108e-07	-5.303320e-10	-4.888903e+00	-3.525779e+01
2.630000e-06	-7.837526e-07	-6.747957e-10	-5.256735e+00	-4.473613e+01
2.640000e-06	-8.383567e-07	-8.189117e-10	-5.622972e+00	-5.431075e+01
2.650000e-06	-8.925993e-07	-9.654524e-10	-5.986785e+00	-6.398138e+01
2.660000e-06	-9.463030e-07	-1.114337e-09	-6.346983e+00	-7.373391e+01
2.670000e-06	-9.994386e-07	-1.262470e-09	-6.703370e+00	-8.354484e+01
2.680000e-06	-1.052005e-06	-1.410689e-09	-7.055942e+00	-9.338986e+01
2.690000e-06	-1.103968e-06	-1.562099e-09	-7.404464e+00	-1.032529e+02
2.700000e-06	-1.155453e-06	-1.717346e-09	-7.749780e+00	-1.131318e+02
2.710000e-06	-1.206606e-06	-1.871209e-09	-8.092872e+00	-1.230383e+02
2.720000e-06	-1.257391e-06	-2.020109e-09	-8.433491e+00	-1.329917e+02
2.730000e-06	-1.307679e-06	-2.170242e-09	-8.770783e+00	-1.430094e+02
2.740000e-06	-1.357446e-06	-2.322933e-09	-9.104576e+00	-1.530968e+02
2.750000e-06	-1.406635e-06	-2.477192e-09	-9.434489e+00	-1.632424e+02
2.760000e-06	-1.455184e-06	-2.630868e-09	-9.760113e+00	-1.734192e+02
2.770000e-06	-1.502939e-06	-2.785236e-09	-1.008042e+01	-1.835923e+02
2.780000e-06	-1.549874e-06	-2.941801e-09	-1.039521e+01	-1.937301e+02
2.790000e-06	-1.596154e-06	-3.098626e-09	-1.070562e+01	-2.038138e+02
2.800000e-06	-1.641886e-06	-3.253507e-09	-1.101235e+01	-2.138422e+02
2.810000e-06	-1.687198e-06	-3.404598e-09	-1.131626e+01	-2.238286e+02
2.820000e-06	-1.732122e-06	-3.555347e-09	-1.161758e+01	-2.337918e+02
2.830000e-06	-1.776504e-06	-3.706238e-09	-1.191525e+01	-2.437439e+02
2.840000e-06	-1.820298e-06	-3.855270e-09	-1.220898e+01	-2.536807e+02
2.850000e-06	-1.863605e-06	-4.004502e-09	-1.249945e+01	-2.635780e+02
2.860000e-06	-1.906401e-06	-4.156715e-09	-1.278649e+01	-2.733963e+02
2.870000e-06	-1.948596e-06	-4.307785e-09	-1.306949e+01	-2.830915e+02
2.880000e-06	-1.990156e-06	-4.454161e-09	-1.334825e+01	-2.926277e+02
2.890000e-06	-2.031044e-06	-4.595838e-09	-1.362249e+01	-3.019872e+02
2.900000e-06	-2.071183e-06	-4.734646e-09	-1.389170e+01	-3.111725e+02
2.910000e-06	-2.110670e-06	-4.871506e-09	-1.415655e+01	-3.202001e+02
2.920000e-06	-2.149552e-06	-5.006570e-09	-1.441733e+01	-3.290887e+02
2.930000e-06	-2.187609e-06	-5.140913e-09	-1.467259e+01	-3.378453e+02
2.940000e-06	-2.224658e-06	-5.274106e-09	-1.492108e+01	-3.464563e+02
