# Temperatura_=_24.82
# Concentracion g/m^3_=_18700.0
# C_Vs_to_Am_M_A/Vsm_=_65563218390.804596
# pendiente_HvsI_1/m_=_3716.3
# ordenada_HvsI_A/m_=_1297.0
# frecuencia_Hz_=_301042.7649538376

Tiempo_(s)	Campo_(V.s)	Magnetizacion_(V.s)	Campo_(kA/m)	Magnetizacion_(A/m)
0.000000e+00	-2.926990e-06	-7.462643e-09	-1.977831e+01	-4.864595e+02
1.000000e-08	-2.926297e-06	-7.462059e-09	-1.977363e+01	-4.863574e+02
2.000000e-08	-2.924794e-06	-7.458668e-09	-1.976348e+01	-4.861240e+02
3.000000e-08	-2.922082e-06	-7.451402e-09	-1.974515e+01	-4.857863e+02
4.000000e-08	-2.918103e-06	-7.443098e-09	-1.971826e+01	-4.853487e+02
5.000000e-08	-2.913270e-06	-7.434564e-09	-1.968560e+01	-4.847912e+02
6.000000e-08	-2.907671e-06	-7.424711e-09	-1.964777e+01	-4.840770e+02
7.000000e-08	-2.901083e-06	-7.413901e-09	-1.960326e+01	-4.831697e+02
8.000000e-08	-2.893458e-06	-7.393320e-09	-1.955173e+01	-4.820507e+02
9.000000e-08	-2.884726e-06	-7.401001e-09	-1.949272e+01	-4.807325e+02
1.000000e-07	-2.874532e-06	-7.417201e-09	-1.942384e+01	-4.792610e+02
1.100000e-07	-2.862842e-06	-7.398118e-09	-1.934485e+01	-4.777048e+02
1.200000e-07	-2.850269e-06	-7.248172e-09	-1.925989e+01	-4.761356e+02
1.300000e-07	-2.837023e-06	-7.200706e-09	-1.917039e+01	-4.746051e+02
1.400000e-07	-2.822742e-06	-7.292114e-09	-1.907388e+01	-4.731267e+02
1.500000e-07	-2.807378e-06	-7.296805e-09	-1.897007e+01	-4.716690e+02
1.600000e-07	-2.790961e-06	-7.154429e-09	-1.885913e+01	-4.701628e+02
1.700000e-07	-2.773227e-06	-7.181814e-09	-1.873931e+01	-4.685201e+02
1.800000e-07	-2.754416e-06	-7.260002e-09	-1.861219e+01	-4.666593e+02
1.900000e-07	-2.734932e-06	-7.041792e-09	-1.848053e+01	-4.645273e+02
2.000000e-07	-2.714582e-06	-7.026068e-09	-1.834302e+01	-4.621126e+02
2.100000e-07	-2.693217e-06	-7.083143e-09	-1.819866e+01	-4.594438e+02
2.200000e-07	-2.671009e-06	-6.903420e-09	-1.804860e+01	-4.565770e+02
2.300000e-07	-2.648017e-06	-6.887879e-09	-1.789323e+01	-4.535742e+02
2.400000e-07	-2.624084e-06	-6.988393e-09	-1.773151e+01	-4.504821e+02
2.500000e-07	-2.599339e-06	-6.803020e-09	-1.756430e+01	-4.473181e+02
2.600000e-07	-2.573695e-06	-6.703769e-09	-1.739102e+01	-4.440675e+02
2.700000e-07	-2.546759e-06	-6.760165e-09	-1.720900e+01	-4.406925e+02
2.800000e-07	-2.518734e-06	-6.678068e-09	-1.701964e+01	-4.371491e+02
2.900000e-07	-2.489927e-06	-6.582420e-09	-1.682498e+01	-4.334046e+02
3.000000e-07	-2.460311e-06	-6.566537e-09	-1.662486e+01	-4.294511e+02
3.100000e-07	-2.429903e-06	-6.466470e-09	-1.641939e+01	-4.253087e+02
3.200000e-07	-2.398727e-06	-6.412928e-09	-1.620872e+01	-4.210185e+02
3.300000e-07	-2.366767e-06	-6.408471e-09	-1.599276e+01	-4.166284e+02
3.400000e-07	-2.334141e-06	-6.238449e-09	-1.577230e+01	-4.121775e+02
3.500000e-07	-2.300811e-06	-6.188593e-09	-1.554708e+01	-4.076833e+02
3.600000e-07	-2.266417e-06	-6.186733e-09	-1.531467e+01	-4.031386e+02
3.700000e-07	-2.230833e-06	-6.077647e-09	-1.507423e+01	-3.985158e+02
3.800000e-07	-2.194401e-06	-5.987630e-09	-1.482805e+01	-3.937797e+02
3.900000e-07	-2.157389e-06	-5.925492e-09	-1.457795e+01	-3.889008e+02
4.000000e-07	-2.119735e-06	-5.830955e-09	-1.432351e+01	-3.838673e+02
4.100000e-07	-2.081277e-06	-5.771787e-09	-1.406365e+01	-3.786883e+02
4.200000e-07	-2.041994e-06	-5.712971e-09	-1.379820e+01	-3.733902e+02
4.300000e-07	-2.002012e-06	-5.590832e-09	-1.352803e+01	-3.680064e+02
4.400000e-07	-1.961498e-06	-5.514205e-09	-1.325427e+01	-3.625646e+02
4.500000e-07	-1.920493e-06	-5.450772e-09	-1.297719e+01	-3.570765e+02
4.600000e-07	-1.878780e-06	-5.360876e-09	-1.269533e+01	-3.515341e+02
4.700000e-07	-1.836052e-06	-5.249871e-09	-1.240661e+01	-3.459131e+02
4.800000e-07	-1.792302e-06	-5.165491e-09	-1.211098e+01	-3.401821e+02
4.900000e-07	-1.747903e-06	-5.085542e-09	-1.181096e+01	-3.343152e+02
5.000000e-07	-1.703067e-06	-5.008201e-09	-1.150800e+01	-3.283015e+02
5.100000e-07	-1.657691e-06	-4.912506e-09	-1.120138e+01	-3.221497e+02
5.200000e-07	-1.611679e-06	-4.790618e-09	-1.089047e+01	-3.158859e+02
5.300000e-07	-1.565075e-06	-4.707708e-09	-1.057556e+01	-3.095444e+02
5.400000e-07	-1.517942e-06	-4.629051e-09	-1.025707e+01	-3.031565e+02
5.500000e-07	-1.470240e-06	-4.524850e-09	-9.934735e+00	-2.967397e+02
5.600000e-07	-1.422042e-06	-4.408528e-09	-9.609051e+00	-2.902922e+02
5.700000e-07	-1.373472e-06	-4.316242e-09	-9.280853e+00	-2.837942e+02
5.800000e-07	-1.324490e-06	-4.217919e-09	-8.949870e+00	-2.772148e+02
5.900000e-07	-1.274947e-06	-4.119973e-09	-8.615096e+00	-2.705229e+02
6.000000e-07	-1.224615e-06	-4.011241e-09	-8.274991e+00	-2.636984e+02
6.100000e-07	-1.173467e-06	-3.896311e-09	-7.929371e+00	-2.567381e+02
6.200000e-07	-1.121741e-06	-3.801601e-09	-7.579851e+00	-2.496574e+02
6.300000e-07	-1.069587e-06	-3.697701e-09	-7.227435e+00	-2.424840e+02
6.400000e-07	-1.017077e-06	-3.578431e-09	-6.872614e+00	-2.352489e+02
6.500000e-07	-9.642403e-07	-3.451923e-09	-6.515583e+00	-2.279763e+02
6.600000e-07	-9.110288e-07	-3.345657e-09	-6.156021e+00	-2.206763e+02
6.700000e-07	-8.574399e-07	-3.240799e-09	-5.793909e+00	-2.133434e+02
6.800000e-07	-8.035377e-07	-3.130072e-09	-5.429680e+00	-2.059599e+02
6.900000e-07	-7.493579e-07	-3.010603e-09	-5.063576e+00	-1.985048e+02
7.000000e-07	-6.949594e-07	-2.893245e-09	-4.695993e+00	-1.909617e+02
7.100000e-07	-6.403946e-07	-2.784718e-09	-4.327287e+00	-1.833264e+02
7.200000e-07	-5.856746e-07	-2.666733e-09	-3.957532e+00	-1.756075e+02
7.300000e-07	-5.307617e-07	-2.540104e-09	-3.586473e+00	-1.678232e+02
7.400000e-07	-4.756046e-07	-2.414236e-09	-3.213764e+00	-1.599934e+02
7.500000e-07	-4.202700e-07	-2.303104e-09	-2.839856e+00	-1.521312e+02
7.600000e-07	-3.647729e-07	-2.187707e-09	-2.464851e+00	-1.442364e+02
7.700000e-07	-3.091141e-07	-2.065003e-09	-2.088752e+00	-1.362950e+02
7.800000e-07	-2.533270e-07	-1.937267e-09	-1.711786e+00	-1.282835e+02
7.900000e-07	-1.973692e-07	-1.814670e-09	-1.333667e+00	-1.201773e+02
8.000000e-07	-1.412783e-07	-1.695163e-09	-9.546482e-01	-1.119613e+02
8.100000e-07	-8.513131e-08	-1.564561e-09	-5.752509e-01	-1.036356e+02
8.200000e-07	-2.897249e-08	-1.429973e-09	-1.957735e-01	-9.521799e+01
8.300000e-07	2.714334e-08	-1.298955e-09	1.834135e-01	-8.673823e+01
8.400000e-07	8.322979e-08	-1.176606e-09	5.624019e-01	-7.822852e+01
8.500000e-07	1.392625e-07	-1.047993e-09	9.410275e-01	-6.971217e+01
8.600000e-07	1.952241e-07	-9.141479e-10	1.319172e+00	-6.119487e+01
8.700000e-07	2.511415e-07	-7.804082e-10	1.697018e+00	-5.266186e+01
8.800000e-07	3.069561e-07	-6.526010e-10	2.074170e+00	-4.408205e+01
8.900000e-07	3.625779e-07	-5.241626e-10	2.450018e+00	-3.541788e+01
9.000000e-07	4.180380e-07	-3.868846e-10	2.824774e+00	-2.663734e+01
9.100000e-07	4.733686e-07	-2.484285e-10	3.198655e+00	-1.772404e+01
9.200000e-07	5.285482e-07	-1.132305e-10	3.571516e+00	-8.681500e+00
9.300000e-07	5.835315e-07	2.030388e-11	3.943050e+00	4.696247e-01
9.400000e-07	6.382984e-07	1.636757e-10	4.313122e+00	9.700453e+00
9.500000e-07	6.928947e-07	3.090153e-10	4.682041e+00	1.898543e+01
9.600000e-07	7.473332e-07	4.516482e-10	5.049894e+00	2.831216e+01
9.700000e-07	8.015359e-07	5.904369e-10	5.416154e+00	3.768587e+01
9.800000e-07	8.554285e-07	7.330627e-10	5.780318e+00	4.712664e+01
9.900000e-07	9.089501e-07	8.806894e-10	6.141975e+00	5.666069e+01
1.000000e-06	9.620385e-07	1.025488e-09	6.500705e+00	6.630899e+01
1.010000e-06	1.014776e-06	1.169335e-09	6.857066e+00	7.607762e+01
1.020000e-06	1.067237e-06	1.317472e-09	7.211554e+00	8.595381e+01
1.030000e-06	1.119271e-06	1.474010e-09	7.563162e+00	9.590913e+01
1.040000e-06	1.170762e-06	1.629384e-09	7.911095e+00	1.059088e+02
1.050000e-06	1.221582e-06	1.781251e-09	8.254498e+00	1.159236e+02
1.060000e-06	1.271670e-06	1.930491e-09	8.592956e+00	1.259394e+02
1.070000e-06	1.321092e-06	2.082854e-09	8.926908e+00	1.359607e+02
1.080000e-06	1.369984e-06	2.237731e-09	9.257280e+00	1.460074e+02
1.090000e-06	1.418510e-06	2.392750e-09	9.585185e+00	1.561040e+02
1.100000e-06	1.466649e-06	2.546523e-09	9.910469e+00	1.662672e+02
1.110000e-06	1.514316e-06	2.700392e-09	1.023256e+01	1.764962e+02
1.120000e-06	1.561381e-06	2.859466e-09	1.055060e+01	1.867687e+02
1.130000e-06	1.607870e-06	3.017429e-09	1.086473e+01	1.970454e+02
1.140000e-06	1.653804e-06	3.173734e-09	1.117511e+01	2.072809e+02
1.150000e-06	1.699165e-06	3.327172e-09	1.148163e+01	2.174372e+02
1.160000e-06	1.744052e-06	3.480076e-09	1.178494e+01	2.274943e+02
1.170000e-06	1.788580e-06	3.632693e-09	1.208582e+01	2.374538e+02
1.180000e-06	1.832661e-06	3.784209e-09	1.238369e+01	2.473352e+02
1.190000e-06	1.875930e-06	3.935089e-09	1.267607e+01	2.571637e+02
1.200000e-06	1.918208e-06	4.084308e-09	1.296175e+01	2.669569e+02
1.210000e-06	1.959566e-06	4.233784e-09	1.324122e+01	2.767130e+02
1.220000e-06	2.000238e-06	4.381592e-09	1.351605e+01	2.864067e+02
1.230000e-06	2.040367e-06	4.527004e-09	1.378720e+01	2.959933e+02
1.240000e-06	2.079856e-06	4.668220e-09	1.405404e+01	3.054195e+02
1.250000e-06	2.118635e-06	4.806140e-09	1.431608e+01	3.146373e+02
1.260000e-06	2.156699e-06	4.940900e-09	1.457329e+01	3.236151e+02
1.270000e-06	2.194005e-06	5.073070e-09	1.482537e+01	3.323427e+02
1.280000e-06	2.230666e-06	5.202276e-09	1.507310e+01	3.408274e+02
1.290000e-06	2.266794e-06	5.327693e-09	1.531722e+01	3.490846e+02
1.300000e-06	2.301985e-06	5.451368e-09	1.555501e+01	3.571258e+02
1.310000e-06	2.335916e-06	5.570199e-09	1.578430e+01	3.649492e+02
1.320000e-06	2.368873e-06	5.681905e-09	1.600700e+01	3.725375e+02
1.330000e-06	2.401145e-06	5.787831e-09	1.622506e+01	3.798621e+02
1.340000e-06	2.432659e-06	5.892211e-09	1.643801e+01	3.868944e+02
1.350000e-06	2.463416e-06	5.995525e-09	1.664584e+01	3.936167e+02
1.360000e-06	2.493349e-06	6.094310e-09	1.684811e+01	4.000307e+02
1.370000e-06	2.522453e-06	6.185742e-09	1.704477e+01	4.061579e+02
1.380000e-06	2.550926e-06	6.271814e-09	1.723716e+01	4.120326e+02
1.390000e-06	2.578563e-06	6.356562e-09	1.742391e+01	4.176903e+02
1.400000e-06	2.605000e-06	6.439724e-09	1.760256e+01	4.231549e+02
1.410000e-06	2.630237e-06	6.518596e-09	1.777309e+01	4.284306e+02
1.420000e-06	2.654535e-06	6.592250e-09	1.793728e+01	4.335021e+02
1.430000e-06	2.677944e-06	6.664534e-09	1.809546e+01	4.383413e+02
1.440000e-06	2.700431e-06	6.735155e-09	1.824740e+01	4.429202e+02
1.450000e-06	2.722015e-06	6.799800e-09	1.839325e+01	4.472229e+02
1.460000e-06	2.742793e-06	6.858188e-09	1.853365e+01	4.512530e+02
1.470000e-06	2.762815e-06	6.914782e-09	1.866894e+01	4.550326e+02
1.480000e-06	2.781851e-06	6.970019e-09	1.879758e+01	4.585939e+02
1.490000e-06	2.799813e-06	7.020542e-09	1.891895e+01	4.619666e+02
1.500000e-06	2.816764e-06	7.065324e-09	1.903349e+01	4.651659e+02
1.510000e-06	2.832624e-06	7.106996e-09	1.914066e+01	4.681863e+02
1.520000e-06	2.847361e-06	7.149139e-09	1.924024e+01	4.710041e+02
1.530000e-06	2.861096e-06	7.189282e-09	1.933305e+01	4.735873e+02
1.540000e-06	2.873882e-06	7.222616e-09	1.941945e+01	4.759097e+02
1.550000e-06	2.885514e-06	7.250476e-09	1.949805e+01	4.779633e+02
1.560000e-06	2.895766e-06	7.276565e-09	1.956733e+01	4.797638e+02
1.570000e-06	2.904804e-06	7.302278e-09	1.962840e+01	4.813472e+02
1.580000e-06	2.912879e-06	7.325681e-09	1.968296e+01	4.827585e+02
1.590000e-06	2.919971e-06	7.343726e-09	1.973089e+01	4.840366e+02
1.600000e-06	2.926051e-06	7.358231e-09	1.977197e+01	4.852013e+02
1.610000e-06	2.931211e-06	7.372184e-09	1.980683e+01	4.862476e+02
1.620000e-06	2.935565e-06	7.384355e-09	1.983626e+01	4.871494e+02
1.630000e-06	2.938927e-06	7.392459e-09	1.985897e+01	4.878714e+02
1.640000e-06	2.940965e-06	7.399672e-09	1.987274e+01	4.883844e+02
1.650000e-06	2.941817e-06	7.407459e-09	1.987850e+01	4.886781e+02
1.660000e-06	2.941786e-06	7.414962e-09	1.987830e+01	4.887659e+02
1.670000e-06	2.940835e-06	7.417736e-09	1.987186e+01	4.886800e+02
1.680000e-06	2.938901e-06	7.409598e-09	1.985879e+01	4.884590e+02
1.690000e-06	2.936106e-06	7.399084e-09	1.983991e+01	4.881318e+02
1.700000e-06	2.932557e-06	7.392091e-09	1.981593e+01	4.877054e+02
1.710000e-06	2.928008e-06	7.384899e-09	1.978519e+01	4.871623e+02
1.720000e-06	2.922210e-06	7.373206e-09	1.974601e+01	4.864667e+02
1.730000e-06	2.915395e-06	7.358840e-09	1.969996e+01	4.855814e+02
1.740000e-06	2.907703e-06	7.352769e-09	1.964798e+01	4.844850e+02
1.750000e-06	2.898845e-06	7.286074e-09	1.958813e+01	4.831866e+02
1.760000e-06	2.888344e-06	7.240474e-09	1.951717e+01	4.817284e+02
1.770000e-06	2.876450e-06	7.268907e-09	1.943680e+01	4.801777e+02
1.780000e-06	2.864217e-06	7.327709e-09	1.935414e+01	4.786068e+02
1.790000e-06	2.851703e-06	7.268613e-09	1.926958e+01	4.770707e+02
1.800000e-06	2.837738e-06	7.092194e-09	1.917522e+01	4.755874e+02
1.810000e-06	2.822141e-06	7.207955e-09	1.906982e+01	4.741302e+02
1.820000e-06	2.805927e-06	7.256175e-09	1.896026e+01	4.726332e+02
1.830000e-06	2.789033e-06	7.106524e-09	1.884611e+01	4.710093e+02
1.840000e-06	2.770796e-06	7.133465e-09	1.872287e+01	4.691750e+02
1.850000e-06	2.751631e-06	7.202832e-09	1.859337e+01	4.670734e+02
1.860000e-06	2.731805e-06	7.067109e-09	1.845940e+01	4.646881e+02
1.870000e-06	2.710666e-06	7.002249e-09	1.831657e+01	4.620442e+02
1.880000e-06	2.688135e-06	7.105447e-09	1.816432e+01	4.591956e+02
1.890000e-06	2.664743e-06	6.937114e-09	1.800625e+01	4.562046e+02
1.900000e-06	2.640466e-06	6.821706e-09	1.784221e+01	4.531206e+02
1.910000e-06	2.615345e-06	6.987547e-09	1.767246e+01	4.499644e+02
1.920000e-06	2.589553e-06	6.858560e-09	1.749818e+01	4.467245e+02
1.930000e-06	2.562914e-06	6.698366e-09	1.731817e+01	4.433650e+02
1.940000e-06	2.535484e-06	6.782923e-09	1.713282e+01	4.398415e+02
1.950000e-06	2.507154e-06	6.659396e-09	1.694139e+01	4.361194e+02
1.960000e-06	2.477450e-06	6.576966e-09	1.674067e+01	4.321878e+02
1.970000e-06	2.446576e-06	6.594340e-09	1.653205e+01	4.280639e+02
1.980000e-06	2.415005e-06	6.442999e-09	1.631872e+01	4.237871e+02
1.990000e-06	2.382654e-06	6.399115e-09	1.610011e+01	4.194055e+02
2.000000e-06	2.349525e-06	6.425986e-09	1.587626e+01	4.149598e+02
2.010000e-06	2.315636e-06	6.249099e-09	1.564726e+01	4.104702e+02
2.020000e-06	2.280916e-06	6.179067e-09	1.541265e+01	4.059318e+02
2.030000e-06	2.245580e-06	6.168126e-09	1.517387e+01	4.013191e+02
2.040000e-06	2.209465e-06	6.041176e-09	1.492984e+01	3.965966e+02
2.050000e-06	2.172230e-06	6.005959e-09	1.467823e+01	3.917340e+02
2.060000e-06	2.134010e-06	5.931972e-09	1.441997e+01	3.867169e+02
2.070000e-06	2.095088e-06	5.811289e-09	1.415697e+01	3.815524e+02
2.080000e-06	2.055593e-06	5.766463e-09	1.389009e+01	3.762655e+02
2.090000e-06	2.015440e-06	5.681839e-09	1.361877e+01	3.708893e+02
2.100000e-06	1.974585e-06	5.585760e-09	1.334270e+01	3.654527e+02
2.110000e-06	1.933091e-06	5.510439e-09	1.306232e+01	3.599696e+02
2.120000e-06	1.890904e-06	5.420979e-09	1.277725e+01	3.544339e+02
2.130000e-06	1.848117e-06	5.351679e-09	1.248813e+01	3.488227e+02
2.140000e-06	1.804884e-06	5.259124e-09	1.219599e+01	3.431049e+02
2.150000e-06	1.761105e-06	5.152736e-09	1.190017e+01	3.372534e+02
2.160000e-06	1.716700e-06	5.067036e-09	1.160011e+01	3.312553e+02
2.170000e-06	1.671563e-06	4.980644e-09	1.129512e+01	3.251173e+02
2.180000e-06	1.625732e-06	4.904961e-09	1.098543e+01	3.188639e+02
2.190000e-06	1.579502e-06	4.782476e-09	1.067304e+01	3.125290e+02
2.200000e-06	1.532835e-06	4.676807e-09	1.035770e+01	3.061448e+02
2.210000e-06	1.485567e-06	4.603139e-09	1.003830e+01	2.997308e+02
2.220000e-06	1.437542e-06	4.491144e-09	9.713784e+00	2.932873e+02
2.230000e-06	1.388797e-06	4.393004e-09	9.384402e+00	2.867960e+02
2.240000e-06	1.339625e-06	4.293018e-09	9.052142e+00	2.802268e+02
2.250000e-06	1.290090e-06	4.188799e-09	8.717419e+00	2.735482e+02
2.260000e-06	1.240066e-06	4.098886e-09	8.379396e+00	2.667383e+02
2.270000e-06	1.189547e-06	3.985862e-09	8.038033e+00	2.597921e+02
2.280000e-06	1.138597e-06	3.867243e-09	7.693748e+00	2.527231e+02
2.290000e-06	1.087307e-06	3.766316e-09	7.347173e+00	2.455580e+02
2.300000e-06	1.035660e-06	3.660950e-09	6.998179e+00	2.383282e+02
2.310000e-06	9.834297e-07	3.554944e-09	6.645250e+00	2.310588e+02
2.320000e-06	9.305408e-07	3.436326e-09	6.287868e+00	2.237617e+02
2.330000e-06	8.770916e-07	3.319114e-09	5.926700e+00	2.164329e+02
2.340000e-06	8.231880e-07	3.213763e-09	5.562461e+00	2.090558e+02
2.350000e-06	7.688466e-07	3.100717e-09	5.195265e+00	2.016092e+02
2.360000e-06	7.141619e-07	2.986213e-09	4.825748e+00	1.940760e+02
2.370000e-06	6.592663e-07	2.864478e-09	4.454807e+00	1.864503e+02
2.380000e-06	6.042186e-07	2.752543e-09	4.082837e+00	1.787396e+02
2.390000e-06	5.490714e-07	2.639924e-09	3.710196e+00	1.709612e+02
2.400000e-06	4.938301e-07	2.513283e-09	3.336918e+00	1.631355e+02
2.410000e-06	4.384910e-07	2.390284e-09	2.962980e+00	1.552764e+02
2.420000e-06	3.830456e-07	2.270281e-09	2.588323e+00	1.473856e+02
2.430000e-06	3.274931e-07	2.154274e-09	2.212943e+00	1.394502e+02
2.440000e-06	2.718123e-07	2.032799e-09	1.836695e+00	1.314473e+02
2.450000e-06	2.160249e-07	1.905364e-09	1.459728e+00	1.233522e+02
2.460000e-06	1.601985e-07	1.781656e-09	1.082496e+00	1.151482e+02
2.470000e-06	1.043097e-07	1.657670e-09	7.048436e-01	1.068336e+02
2.480000e-06	4.841178e-08	1.528632e-09	3.271290e-01	9.842456e+01
2.490000e-06	-7.491760e-09	1.398499e-09	-5.062346e-02	8.994981e+01
2.500000e-06	-6.341850e-08	1.270183e-09	-4.285327e-01	8.144191e+01
2.510000e-06	-1.192732e-07	1.144256e-09	-8.059550e-01	7.292560e+01
2.520000e-06	-1.750603e-07	1.016426e-09	-1.182921e+00	6.440871e+01
2.530000e-06	-2.307913e-07	8.801809e-10	-1.559507e+00	5.587860e+01
2.540000e-06	-2.864050e-07	7.436269e-10	-1.935301e+00	4.730555e+01
2.550000e-06	-3.419230e-07	6.128103e-10	-2.310448e+00	3.865209e+01
2.560000e-06	-3.973673e-07	4.854334e-10	-2.685098e+00	2.988510e+01
2.570000e-06	-4.527120e-07	3.502209e-10	-3.059074e+00	2.098616e+01
2.580000e-06	-5.079669e-07	2.094142e-10	-3.432444e+00	1.195668e+01
2.590000e-06	-5.631287e-07	7.162308e-11	-3.805184e+00	2.815814e+00
2.600000e-06	-6.181997e-07	-6.592084e-11	-4.177311e+00	-6.407896e+00
2.610000e-06	-6.731446e-07	-2.100844e-10	-4.548585e+00	-1.568800e+01
2.620000e-06	-7.278919e-07	-3.601775e-10	-4.918525e+00	-2.501037e+01
2.630000e-06	-7.823241e-07	-5.049096e-10	-5.286336e+00	-3.437834e+01
2.640000e-06	-8.363606e-07	-6.432737e-10	-5.651472e+00	-4.381072e+01
2.650000e-06	-8.899618e-07	-7.827718e-10	-6.013667e+00	-5.333364e+01
2.660000e-06	-9.430713e-07	-9.318715e-10	-6.372539e+00	-6.296913e+01
2.670000e-06	-9.955615e-07	-1.086217e-09	-6.727227e+00	-7.272519e+01
2.680000e-06	-1.047453e-06	-1.238291e-09	-7.077866e+00	-8.259105e+01
2.690000e-06	-1.098914e-06	-1.388776e-09	-7.425603e+00	-9.253958e+01
2.700000e-06	-1.150051e-06	-1.543269e-09	-7.771144e+00	-1.025362e+02
2.710000e-06	-1.200862e-06	-1.700443e-09	-8.114486e+00	-1.125504e+02
2.720000e-06	-1.251233e-06	-1.853025e-09	-8.454852e+00	-1.225662e+02
2.730000e-06	-1.301097e-06	-2.001718e-09	-8.791799e+00	-1.325862e+02
2.740000e-06	-1.350487e-06	-2.151591e-09	-9.125537e+00	-1.426291e+02
2.750000e-06	-1.399354e-06	-2.307011e-09	-9.455742e+00	-1.527193e+02
2.760000e-06	-1.447482e-06	-2.464109e-09	-9.780954e+00	-1.628751e+02
2.770000e-06	-1.494717e-06	-2.620400e-09	-1.010013e+01	-1.730978e+02
2.780000e-06	-1.541139e-06	-2.777213e-09	-1.041381e+01	-1.833673e+02
2.790000e-06	-1.586964e-06	-2.936611e-09	-1.072346e+01	-1.936458e+02
2.800000e-06	-1.632429e-06	-3.095956e-09	-1.103068e+01	-2.038878e+02
2.810000e-06	-1.677527e-06	-3.248940e-09	-1.133542e+01	-2.140540e+02
2.820000e-06	-1.722052e-06	-3.397735e-09	-1.163628e+01	-2.241220e+02
2.830000e-06	-1.765960e-06	-3.546756e-09	-1.193298e+01	-2.340914e+02
2.840000e-06	-1.809372e-06	-3.698342e-09	-1.222632e+01	-2.439799e+02
2.850000e-06	-1.852411e-06	-3.850882e-09	-1.251715e+01	-2.538131e+02
2.860000e-06	-1.894910e-06	-4.003210e-09	-1.280432e+01	-2.636098e+02
2.870000e-06	-1.936738e-06	-4.154662e-09	-1.308697e+01	-2.733707e+02
2.880000e-06	-1.977932e-06	-4.304541e-09	-1.336532e+01	-2.830730e+02
2.890000e-06	-2.018429e-06	-4.451656e-09	-1.363897e+01	-2.926737e+02
2.900000e-06	-2.058254e-06	-4.594205e-09	-1.390807e+01	-3.021196e+02
2.910000e-06	-2.097517e-06	-4.732640e-09	-1.417338e+01	-3.113616e+02
2.920000e-06	-2.136134e-06	-4.870052e-09	-1.443432e+01	-3.203661e+02
2.930000e-06	-2.173799e-06	-5.006852e-09	-1.468884e+01	-3.291204e+02
2.940000e-06	-2.210337e-06	-5.139655e-09	-1.493573e+01	-3.376304e+02
