# Temperatura_=_24.65
# Concentracion g/m^3_=_18700.0
# C_Vs_to_Am_M_A/Vsm_=_65563218390.804596
# pendiente_HvsI_1/m_=_3716.3
# ordenada_HvsI_A/m_=_1297.0
# frecuencia_Hz_=_301043.4351113925

Tiempo_(s)	Campo_(V.s)	Magnetizacion_(V.s)	Campo_(kA/m)	Magnetizacion_(A/m)
0.000000e+00	-2.926026e-06	-7.460170e-09	-1.977726e+01	-4.860417e+02
1.000000e-08	-2.925190e-06	-7.461432e-09	-1.977161e+01	-4.860352e+02
2.000000e-08	-2.923450e-06	-7.459886e-09	-1.975985e+01	-4.858887e+02
3.000000e-08	-2.920406e-06	-7.453369e-09	-1.973927e+01	-4.856205e+02
4.000000e-08	-2.916221e-06	-7.445669e-09	-1.971099e+01	-4.852318e+02
5.000000e-08	-2.911247e-06	-7.439446e-09	-1.967737e+01	-4.847040e+02
6.000000e-08	-2.905378e-06	-7.430852e-09	-1.963769e+01	-4.840054e+02
7.000000e-08	-2.898513e-06	-7.417825e-09	-1.959129e+01	-4.831051e+02
8.000000e-08	-2.890659e-06	-7.408255e-09	-1.953821e+01	-4.819907e+02
9.000000e-08	-2.881699e-06	-7.426355e-09	-1.947765e+01	-4.806815e+02
1.000000e-07	-2.871208e-06	-7.416244e-09	-1.940674e+01	-4.792318e+02
1.100000e-07	-2.859298e-06	-7.350952e-09	-1.932624e+01	-4.777225e+02
1.200000e-07	-2.846664e-06	-7.244588e-09	-1.924084e+01	-4.762395e+02
1.300000e-07	-2.833292e-06	-7.262059e-09	-1.915046e+01	-4.748478e+02
1.400000e-07	-2.818796e-06	-7.317069e-09	-1.905248e+01	-4.735676e+02
1.500000e-07	-2.803195e-06	-7.241222e-09	-1.894703e+01	-4.723620e+02
1.600000e-07	-2.786451e-06	-7.199783e-09	-1.883386e+01	-4.711411e+02
1.700000e-07	-2.768403e-06	-7.226883e-09	-1.871187e+01	-4.697822e+02
1.800000e-07	-2.749432e-06	-7.188941e-09	-1.858365e+01	-4.681618e+02
1.900000e-07	-2.729804e-06	-7.065787e-09	-1.845098e+01	-4.661876e+02
2.000000e-07	-2.709301e-06	-7.074088e-09	-1.831240e+01	-4.638226e+02
2.100000e-07	-2.687848e-06	-7.053709e-09	-1.816740e+01	-4.610921e+02
2.200000e-07	-2.665608e-06	-6.930290e-09	-1.801707e+01	-4.580725e+02
2.300000e-07	-2.642511e-06	-6.970921e-09	-1.786095e+01	-4.548648e+02
2.400000e-07	-2.618450e-06	-6.967900e-09	-1.769832e+01	-4.515627e+02
2.500000e-07	-2.593634e-06	-6.775961e-09	-1.753059e+01	-4.482257e+02
2.600000e-07	-2.567798e-06	-6.728751e-09	-1.735597e+01	-4.448648e+02
2.700000e-07	-2.540606e-06	-6.758537e-09	-1.717217e+01	-4.414460e+02
2.800000e-07	-2.512370e-06	-6.677408e-09	-1.698132e+01	-4.379089e+02
2.900000e-07	-2.483400e-06	-6.607770e-09	-1.678551e+01	-4.341926e+02
3.000000e-07	-2.453589e-06	-6.551873e-09	-1.658401e+01	-4.302592e+02
3.100000e-07	-2.422964e-06	-6.493404e-09	-1.637702e+01	-4.261077e+02
3.200000e-07	-2.391606e-06	-6.445606e-09	-1.616507e+01	-4.217722e+02
3.300000e-07	-2.359461e-06	-6.362805e-09	-1.594779e+01	-4.173081e+02
3.400000e-07	-2.326680e-06	-6.250545e-09	-1.572623e+01	-4.127699e+02
3.500000e-07	-2.293170e-06	-6.216842e-09	-1.549973e+01	-4.081915e+02
3.600000e-07	-2.258534e-06	-6.166921e-09	-1.526562e+01	-4.035748e+02
3.700000e-07	-2.222713e-06	-6.082917e-09	-1.502351e+01	-3.988920e+02
3.800000e-07	-2.186135e-06	-6.012181e-09	-1.477627e+01	-3.940987e+02
3.900000e-07	-2.148995e-06	-5.908541e-09	-1.452524e+01	-3.891531e+02
4.000000e-07	-2.111126e-06	-5.839873e-09	-1.426928e+01	-3.840339e+02
4.100000e-07	-2.072483e-06	-5.786575e-09	-1.400809e+01	-3.787491e+02
4.200000e-07	-2.033052e-06	-5.688196e-09	-1.374157e+01	-3.733330e+02
4.300000e-07	-1.992889e-06	-5.580902e-09	-1.347010e+01	-3.678328e+02
4.400000e-07	-1.952258e-06	-5.519499e-09	-1.319548e+01	-3.622912e+02
4.500000e-07	-1.911131e-06	-5.446423e-09	-1.291750e+01	-3.567297e+02
4.600000e-07	-1.869144e-06	-5.349250e-09	-1.263370e+01	-3.511414e+02
4.700000e-07	-1.826082e-06	-5.245934e-09	-1.234264e+01	-3.454952e+02
4.800000e-07	-1.782107e-06	-5.158372e-09	-1.204541e+01	-3.397480e+02
4.900000e-07	-1.737580e-06	-5.087915e-09	-1.174445e+01	-3.338626e+02
5.000000e-07	-1.692630e-06	-5.001360e-09	-1.144063e+01	-3.278218e+02
5.100000e-07	-1.647148e-06	-4.895371e-09	-1.113321e+01	-3.216351e+02
5.200000e-07	-1.601083e-06	-4.783005e-09	-1.082186e+01	-3.153345e+02
5.300000e-07	-1.554493e-06	-4.700482e-09	-1.050695e+01	-3.089617e+02
5.400000e-07	-1.507309e-06	-4.611152e-09	-1.018803e+01	-3.025523e+02
5.500000e-07	-1.459491e-06	-4.506790e-09	-9.864825e+00	-2.961220e+02
5.600000e-07	-1.411198e-06	-4.399515e-09	-9.538410e+00	-2.896621e+02
5.700000e-07	-1.362564e-06	-4.304343e-09	-9.209683e+00	-2.831434e+02
5.800000e-07	-1.313482e-06	-4.213555e-09	-8.877937e+00	-2.765283e+02
5.900000e-07	-1.263736e-06	-4.107685e-09	-8.541702e+00	-2.697865e+02
6.000000e-07	-1.213181e-06	-3.989382e-09	-8.199996e+00	-2.629059e+02
6.100000e-07	-1.161864e-06	-3.874797e-09	-7.853134e+00	-2.558979e+02
6.200000e-07	-1.109998e-06	-3.778907e-09	-7.502574e+00	-2.487924e+02
6.300000e-07	-1.057735e-06	-3.672235e-09	-7.149320e+00	-2.416265e+02
6.400000e-07	-1.005183e-06	-3.556429e-09	-6.794118e+00	-2.344307e+02
6.500000e-07	-9.523186e-07	-3.441981e-09	-6.436802e+00	-2.272187e+02
6.600000e-07	-8.990759e-07	-3.339392e-09	-6.076931e+00	-2.199839e+02
6.700000e-07	-8.454740e-07	-3.233880e-09	-5.714631e+00	-2.127038e+02
6.800000e-07	-7.915069e-07	-3.115269e-09	-5.349863e+00	-2.053506e+02
6.900000e-07	-7.372498e-07	-2.993099e-09	-4.983134e+00	-1.979031e+02
7.000000e-07	-6.828169e-07	-2.876906e-09	-4.615218e+00	-1.903549e+02
7.100000e-07	-6.282374e-07	-2.770681e-09	-4.246310e+00	-1.827167e+02
7.200000e-07	-5.734615e-07	-2.654637e-09	-3.876075e+00	-1.750111e+02
7.300000e-07	-5.184538e-07	-2.532282e-09	-3.504273e+00	-1.672623e+02
7.400000e-07	-4.632000e-07	-2.412157e-09	-3.130808e+00	-1.594856e+02
7.500000e-07	-4.077568e-07	-2.300194e-09	-2.756063e+00	-1.516807e+02
7.600000e-07	-3.521457e-07	-2.183402e-09	-2.380183e+00	-1.438309e+02
7.700000e-07	-2.963991e-07	-2.055837e-09	-2.003387e+00	-1.359096e+02
7.800000e-07	-2.405850e-07	-1.926710e-09	-1.626134e+00	-1.278901e+02
7.900000e-07	-1.846906e-07	-1.804953e-09	-1.248339e+00	-1.197563e+02
8.000000e-07	-1.287329e-07	-1.686004e-09	-8.701167e-01	-1.115087e+02
8.100000e-07	-7.270561e-08	-1.556526e-09	-4.914234e-01	-1.031646e+02
8.200000e-07	-1.661259e-08	-1.424442e-09	-1.122859e-01	-9.475203e+01
8.300000e-07	3.948407e-08	-1.295178e-09	2.668762e-01	-8.629934e+01
8.400000e-07	9.557084e-08	-1.170102e-09	6.459715e-01	-7.782548e+01
8.500000e-07	1.516269e-07	-1.039462e-09	1.024859e+00	-6.933345e+01
8.600000e-07	2.076157e-07	-9.044396e-10	1.403292e+00	-6.080983e+01
8.700000e-07	2.635212e-07	-7.730187e-10	1.781162e+00	-5.222987e+01
8.800000e-07	3.192753e-07	-6.459961e-10	2.158009e+00	-4.356624e+01
8.900000e-07	3.749034e-07	-5.158778e-10	2.534004e+00	-3.479788e+01
9.000000e-07	4.304020e-07	-3.768813e-10	2.909124e+00	-2.591587e+01
9.100000e-07	4.856750e-07	-2.375607e-10	3.282719e+00	-1.692431e+01
9.200000e-07	5.407696e-07	-1.012976e-10	3.655108e+00	-7.836554e+00
9.300000e-07	5.956664e-07	3.556001e-11	4.026160e+00	1.331609e+00
9.400000e-07	6.503267e-07	1.775840e-10	4.395613e+00	1.056875e+01
9.500000e-07	7.048546e-07	3.199979e-10	4.764172e+00	1.987210e+01
9.600000e-07	7.592131e-07	4.619266e-10	5.131586e+00	2.924780e+01
9.700000e-07	8.132900e-07	6.052902e-10	5.497096e+00	3.870739e+01
9.800000e-07	8.670022e-07	7.523108e-10	5.860142e+00	4.826214e+01
9.900000e-07	9.203180e-07	9.022674e-10	6.220507e+00	5.791755e+01
1.000000e-06	9.732923e-07	1.048904e-09	6.578565e+00	6.767029e+01
1.010000e-06	1.025971e-06	1.194495e-09	6.934624e+00	7.750849e+01
1.020000e-06	1.078292e-06	1.343563e-09	7.288270e+00	8.741517e+01
1.030000e-06	1.130212e-06	1.498771e-09	7.639200e+00	9.737330e+01
1.040000e-06	1.181654e-06	1.653107e-09	7.986897e+00	1.073704e+02
1.050000e-06	1.232408e-06	1.804195e-09	8.329947e+00	1.174012e+02
1.060000e-06	1.282357e-06	1.958279e-09	8.667558e+00	1.274668e+02
1.070000e-06	1.331627e-06	2.116229e-09	9.000581e+00	1.375718e+02
1.080000e-06	1.380400e-06	2.270483e-09	9.330238e+00	1.477199e+02
1.090000e-06	1.428798e-06	2.422264e-09	9.657368e+00	1.579092e+02
1.100000e-06	1.476836e-06	2.576088e-09	9.982062e+00	1.681307e+02
1.110000e-06	1.524380e-06	2.732672e-09	1.030341e+01	1.783681e+02
1.120000e-06	1.571350e-06	2.892181e-09	1.062089e+01	1.886008e+02
1.130000e-06	1.617782e-06	3.051756e-09	1.093473e+01	1.988076e+02
1.140000e-06	1.663647e-06	3.209030e-09	1.124473e+01	2.089708e+02
1.150000e-06	1.708914e-06	3.363310e-09	1.155069e+01	2.190789e+02
1.160000e-06	1.753717e-06	3.515399e-09	1.185352e+01	2.291264e+02
1.170000e-06	1.798143e-06	3.665858e-09	1.215380e+01	2.391121e+02
1.180000e-06	1.842065e-06	3.815479e-09	1.245067e+01	2.490360e+02
1.190000e-06	1.885165e-06	3.965830e-09	1.274199e+01	2.588955e+02
1.200000e-06	1.927246e-06	4.116883e-09	1.302642e+01	2.686829e+02
1.210000e-06	1.968396e-06	4.266862e-09	1.330456e+01	2.783835e+02
1.220000e-06	2.008898e-06	4.412608e-09	1.357831e+01	2.879767e+02
1.230000e-06	2.048836e-06	4.555278e-09	1.384826e+01	2.974376e+02
1.240000e-06	2.088085e-06	4.696530e-09	1.411354e+01	3.067399e+02
1.250000e-06	2.126643e-06	4.833907e-09	1.437416e+01	3.158591e+02
1.260000e-06	2.164450e-06	4.967675e-09	1.462970e+01	3.247737e+02
1.270000e-06	2.201507e-06	5.097632e-09	1.488017e+01	3.334667e+02
1.280000e-06	2.238040e-06	5.226603e-09	1.512711e+01	3.419249e+02
1.290000e-06	2.273999e-06	5.352525e-09	1.537015e+01	3.501380e+02
1.300000e-06	2.308997e-06	5.473537e-09	1.560671e+01	3.580971e+02
1.310000e-06	2.342839e-06	5.589511e-09	1.583545e+01	3.657943e+02
1.320000e-06	2.375732e-06	5.701823e-09	1.605778e+01	3.732222e+02
1.330000e-06	2.407897e-06	5.809575e-09	1.627518e+01	3.803753e+02
1.340000e-06	2.439264e-06	5.911552e-09	1.648719e+01	3.872512e+02
1.350000e-06	2.469804e-06	6.009153e-09	1.669361e+01	3.938521e+02
1.360000e-06	2.499580e-06	6.103583e-09	1.689488e+01	4.001857e+02
1.370000e-06	2.528621e-06	6.195321e-09	1.709116e+01	4.062635e+02
1.380000e-06	2.556921e-06	6.284606e-09	1.728244e+01	4.120996e+02
1.390000e-06	2.584239e-06	6.370703e-09	1.746709e+01	4.177072e+02
1.400000e-06	2.610276e-06	6.451440e-09	1.764308e+01	4.230956e+02
1.410000e-06	2.635198e-06	6.527077e-09	1.781152e+01	4.282690e+02
1.420000e-06	2.659223e-06	6.599111e-09	1.797391e+01	4.332254e+02
1.430000e-06	2.682327e-06	6.668771e-09	1.813008e+01	4.379596e+02
1.440000e-06	2.704519e-06	6.735083e-09	1.828007e+01	4.424657e+02
1.450000e-06	2.725889e-06	6.797953e-09	1.842452e+01	4.467401e+02
1.460000e-06	2.746520e-06	6.858800e-09	1.856396e+01	4.507843e+02
1.470000e-06	2.766357e-06	6.917439e-09	1.869804e+01	4.546039e+02
1.480000e-06	2.785142e-06	6.972368e-09	1.882501e+01	4.582066e+02
1.490000e-06	2.802855e-06	7.021489e-09	1.894474e+01	4.615985e+02
1.500000e-06	2.819625e-06	7.066191e-09	1.905809e+01	4.647809e+02
1.510000e-06	2.835292e-06	7.108928e-09	1.916398e+01	4.677482e+02
1.520000e-06	2.849832e-06	7.149369e-09	1.926226e+01	4.704904e+02
1.530000e-06	2.863362e-06	7.185175e-09	1.935370e+01	4.729966e+02
1.540000e-06	2.875892e-06	7.214659e-09	1.943840e+01	4.752615e+02
1.550000e-06	2.887205e-06	7.242296e-09	1.951486e+01	4.772897e+02
1.560000e-06	2.897112e-06	7.271933e-09	1.958183e+01	4.790984e+02
1.570000e-06	2.905883e-06	7.300831e-09	1.964111e+01	4.807144e+02
1.580000e-06	2.913741e-06	7.324590e-09	1.969422e+01	4.821681e+02
1.590000e-06	2.920645e-06	7.342375e-09	1.974089e+01	4.834849e+02
1.600000e-06	2.926555e-06	7.357859e-09	1.978083e+01	4.846773e+02
1.610000e-06	2.931558e-06	7.371886e-09	1.981465e+01	4.857421e+02
1.620000e-06	2.935732e-06	7.381898e-09	1.984286e+01	4.866619e+02
1.630000e-06	2.938744e-06	7.388933e-09	1.986322e+01	4.874125e+02
1.640000e-06	2.940392e-06	7.398031e-09	1.987436e+01	4.879735e+02
1.650000e-06	2.941005e-06	7.408586e-09	1.987850e+01	4.883365e+02
1.660000e-06	2.940758e-06	7.416448e-09	1.987684e+01	4.885096e+02
1.670000e-06	2.939594e-06	7.418158e-09	1.986896e+01	4.885145e+02
1.680000e-06	2.937510e-06	7.412663e-09	1.985488e+01	4.883776e+02
1.690000e-06	2.934567e-06	7.406477e-09	1.983499e+01	4.881183e+02
1.700000e-06	2.930828e-06	7.399585e-09	1.980972e+01	4.877390e+02
1.710000e-06	2.926066e-06	7.389038e-09	1.977753e+01	4.872226e+02
1.720000e-06	2.920038e-06	7.379069e-09	1.973678e+01	4.865376e+02
1.730000e-06	2.913009e-06	7.365647e-09	1.968928e+01	4.856529e+02
1.740000e-06	2.905179e-06	7.336400e-09	1.963635e+01	4.845540e+02
1.750000e-06	2.896041e-06	7.275369e-09	1.957458e+01	4.832577e+02
1.760000e-06	2.885136e-06	7.271384e-09	1.950088e+01	4.818161e+02
1.770000e-06	2.873034e-06	7.329763e-09	1.941908e+01	4.803085e+02
1.780000e-06	2.860803e-06	7.307782e-09	1.933641e+01	4.788215e+02
1.790000e-06	2.848174e-06	7.232962e-09	1.925105e+01	4.774224e+02
1.800000e-06	2.833869e-06	7.164727e-09	1.915436e+01	4.761352e+02
1.810000e-06	2.818056e-06	7.230688e-09	1.904748e+01	4.749271e+02
1.820000e-06	2.801767e-06	7.212776e-09	1.893738e+01	4.737115e+02
1.830000e-06	2.784598e-06	7.152419e-09	1.882133e+01	4.723672e+02
1.840000e-06	2.766020e-06	7.221938e-09	1.869577e+01	4.707695e+02
1.850000e-06	2.746700e-06	7.162751e-09	1.856518e+01	4.688229e+02
1.860000e-06	2.726681e-06	7.058180e-09	1.842987e+01	4.664861e+02
1.870000e-06	2.705239e-06	7.099728e-09	1.828494e+01	4.637802e+02
1.880000e-06	2.682530e-06	7.068861e-09	1.813145e+01	4.607784e+02
1.890000e-06	2.658979e-06	6.914179e-09	1.797227e+01	4.575811e+02
1.900000e-06	2.634464e-06	6.936314e-09	1.780656e+01	4.542838e+02
1.910000e-06	2.609198e-06	6.988322e-09	1.763579e+01	4.509487e+02
1.920000e-06	2.583259e-06	6.835885e-09	1.746047e+01	4.475905e+02
1.930000e-06	2.556391e-06	6.740539e-09	1.727886e+01	4.441781e+02
1.940000e-06	2.528790e-06	6.756803e-09	1.709231e+01	4.406521e+02
1.950000e-06	2.500312e-06	6.661873e-09	1.689982e+01	4.369507e+02
1.960000e-06	2.470378e-06	6.618703e-09	1.669750e+01	4.330337e+02
1.970000e-06	2.439325e-06	6.561708e-09	1.648761e+01	4.288974e+02
1.980000e-06	2.407600e-06	6.465946e-09	1.627317e+01	4.245738e+02
1.990000e-06	2.375045e-06	6.461681e-09	1.605313e+01	4.201174e+02
2.000000e-06	2.341722e-06	6.378472e-09	1.582790e+01	4.155834e+02
2.010000e-06	2.307621e-06	6.247178e-09	1.559740e+01	4.110078e+02
2.020000e-06	2.272752e-06	6.206818e-09	1.536173e+01	4.063949e+02
2.030000e-06	2.237327e-06	6.130493e-09	1.512228e+01	4.017186e+02
2.040000e-06	2.201075e-06	6.058981e-09	1.487725e+01	3.969351e+02
2.050000e-06	2.163687e-06	6.028992e-09	1.462454e+01	3.920019e+02
2.060000e-06	2.125352e-06	5.907981e-09	1.436544e+01	3.868957e+02
2.070000e-06	2.086321e-06	5.823356e-09	1.410162e+01	3.816222e+02
2.080000e-06	2.046698e-06	5.773210e-09	1.383381e+01	3.762143e+02
2.090000e-06	2.006366e-06	5.664571e-09	1.356120e+01	3.707191e+02
2.100000e-06	1.965328e-06	5.572721e-09	1.328382e+01	3.651798e+02
2.110000e-06	1.923728e-06	5.485222e-09	1.300264e+01	3.596199e+02
2.120000e-06	1.881447e-06	5.412090e-09	1.271686e+01	3.540349e+02
2.130000e-06	1.838521e-06	5.348725e-09	1.242672e+01	3.483946e+02
2.140000e-06	1.795164e-06	5.241123e-09	1.213366e+01	3.426564e+02
2.150000e-06	1.751320e-06	5.139746e-09	1.183732e+01	3.367821e+02
2.160000e-06	1.706828e-06	5.055268e-09	1.153659e+01	3.307529e+02
2.170000e-06	1.661590e-06	4.963532e-09	1.123083e+01	3.245762e+02
2.180000e-06	1.615719e-06	4.872230e-09	1.092078e+01	3.182828e+02
2.190000e-06	1.569432e-06	4.759509e-09	1.060792e+01	3.119143e+02
2.200000e-06	1.522676e-06	4.666143e-09	1.029190e+01	3.055070e+02
2.210000e-06	1.475234e-06	4.585925e-09	9.971232e+00	2.990787e+02
2.220000e-06	1.426985e-06	4.480095e-09	9.645115e+00	2.926221e+02
2.230000e-06	1.378130e-06	4.378324e-09	9.314901e+00	2.861092e+02
2.240000e-06	1.328907e-06	4.267454e-09	8.982193e+00	2.795026e+02
2.250000e-06	1.279293e-06	4.172606e-09	8.646847e+00	2.727709e+02
2.260000e-06	1.229186e-06	4.081017e-09	8.308171e+00	2.659006e+02
2.270000e-06	1.178570e-06	3.963381e-09	7.966053e+00	2.589013e+02
2.280000e-06	1.127532e-06	3.853641e-09	7.621082e+00	2.518020e+02
2.290000e-06	1.076147e-06	3.749692e-09	7.273771e+00	2.446396e+02
2.300000e-06	1.024310e-06	3.645364e-09	6.923401e+00	2.374456e+02
2.310000e-06	9.718983e-07	3.535345e-09	6.569143e+00	2.302352e+02
2.320000e-06	9.189374e-07	3.416822e-09	6.211176e+00	2.230031e+02
2.330000e-06	8.654963e-07	3.306691e-09	5.849963e+00	2.157276e+02
2.340000e-06	8.115102e-07	3.199093e-09	5.485066e+00	2.083809e+02
2.350000e-06	7.569936e-07	3.083526e-09	5.116584e+00	2.009409e+02
2.360000e-06	7.021847e-07	2.967155e-09	4.746126e+00	1.934001e+02
2.370000e-06	6.472108e-07	2.847993e-09	4.374553e+00	1.857682e+02
2.380000e-06	5.921015e-07	2.736638e-09	4.002064e+00	1.780670e+02
2.390000e-06	5.368953e-07	2.622469e-09	3.628921e+00	1.703210e+02
2.400000e-06	4.816291e-07	2.498848e-09	3.255372e+00	1.625465e+02
2.410000e-06	4.262631e-07	2.377655e-09	2.881149e+00	1.547444e+02
2.420000e-06	3.707938e-07	2.256248e-09	2.506227e+00	1.468991e+02
2.430000e-06	3.152061e-07	2.138634e-09	2.130505e+00	1.389843e+02
2.440000e-06	2.594858e-07	2.016251e-09	1.753887e+00	1.309729e+02
2.450000e-06	2.037726e-07	1.891353e-09	1.377317e+00	1.228479e+02
2.460000e-06	1.480064e-07	1.769619e-09	1.000388e+00	1.146084e+02
2.470000e-06	9.214877e-08	1.646065e-09	6.228414e-01	1.062708e+02
2.480000e-06	3.626998e-08	1.520401e-09	2.451518e-01	9.786253e+01
2.490000e-06	-1.960960e-08	1.389385e-09	-1.325430e-01	8.941234e+01
2.500000e-06	-7.544721e-08	1.257459e-09	-5.099541e-01	8.094010e+01
2.510000e-06	-1.312713e-07	1.128639e-09	-8.872738e-01	7.245006e+01
2.520000e-06	-1.870088e-07	9.984243e-10	-1.264009e+00	6.392985e+01
2.530000e-06	-2.427009e-07	8.637002e-10	-1.640436e+00	5.535526e+01
2.540000e-06	-2.983451e-07	7.305414e-10	-2.016540e+00	4.669885e+01
2.550000e-06	-3.538633e-07	6.021927e-10	-2.391792e+00	3.793885e+01
2.560000e-06	-4.092680e-07	4.721582e-10	-2.766277e+00	2.906538e+01
2.570000e-06	-4.645890e-07	3.327487e-10	-3.140197e+00	2.008170e+01
2.580000e-06	-5.198579e-07	1.874451e-10	-3.513764e+00	1.100070e+01
2.590000e-06	-5.750368e-07	4.513839e-11	-3.886723e+00	1.838235e+00
2.600000e-06	-6.301104e-07	-9.496320e-11	-4.258970e+00	-7.393764e+00
2.610000e-06	-6.850859e-07	-2.369182e-10	-4.630554e+00	-1.669185e+01
2.620000e-06	-7.398701e-07	-3.812983e-10	-5.000845e+00	-2.606161e+01
2.630000e-06	-7.943096e-07	-5.227316e-10	-5.368806e+00	-3.551439e+01
2.640000e-06	-8.482905e-07	-6.633936e-10	-5.733668e+00	-4.506164e+01
2.650000e-06	-9.017310e-07	-8.088759e-10	-6.094877e+00	-5.470944e+01
2.660000e-06	-9.546118e-07	-9.614427e-10	-6.452302e+00	-6.445511e+01
2.670000e-06	-1.006945e-06	-1.116542e-09	-6.806028e+00	-7.428731e+01
2.680000e-06	-1.058765e-06	-1.268173e-09	-7.156284e+00	-8.418927e+01
2.690000e-06	-1.110159e-06	-1.419444e-09	-7.503662e+00	-9.414380e+01
2.700000e-06	-1.161190e-06	-1.572706e-09	-7.848585e+00	-1.041380e+02
2.710000e-06	-1.211847e-06	-1.727272e-09	-8.190979e+00	-1.141660e+02
2.720000e-06	-1.262041e-06	-1.880826e-09	-8.530246e+00	-1.242285e+02
2.730000e-06	-1.311725e-06	-2.033793e-09	-8.866060e+00	-1.343302e+02
2.740000e-06	-1.360954e-06	-2.188578e-09	-9.198802e+00	-1.444747e+02
2.750000e-06	-1.409591e-06	-2.345575e-09	-9.527545e+00	-1.546609e+02
2.760000e-06	-1.457456e-06	-2.501004e-09	-9.851069e+00	-1.648801e+02
2.770000e-06	-1.504524e-06	-2.655773e-09	-1.016920e+01	-1.751166e+02
2.780000e-06	-1.550848e-06	-2.811863e-09	-1.048232e+01	-1.853499e+02
2.790000e-06	-1.596688e-06	-2.969785e-09	-1.079215e+01	-1.955588e+02
2.800000e-06	-1.642187e-06	-3.128090e-09	-1.109968e+01	-2.057252e+02
2.810000e-06	-1.687223e-06	-3.281391e-09	-1.140409e+01	-2.158371e+02
2.820000e-06	-1.731630e-06	-3.431243e-09	-1.170424e+01	-2.258885e+02
2.830000e-06	-1.775396e-06	-3.581640e-09	-1.200005e+01	-2.358781e+02
2.840000e-06	-1.818726e-06	-3.734123e-09	-1.229292e+01	-2.458061e+02
2.850000e-06	-1.861639e-06	-3.886061e-09	-1.258297e+01	-2.556700e+02
2.860000e-06	-1.903954e-06	-4.036774e-09	-1.286898e+01	-2.654625e+02
2.870000e-06	-1.945627e-06	-4.187074e-09	-1.315066e+01	-2.751695e+02
2.880000e-06	-1.986719e-06	-4.336535e-09	-1.342840e+01	-2.847707e+02
2.890000e-06	-2.027137e-06	-4.482748e-09	-1.370159e+01	-2.942415e+02
2.900000e-06	-2.066843e-06	-4.622641e-09	-1.396997e+01	-3.035556e+02
2.910000e-06	-2.106001e-06	-4.759129e-09	-1.423464e+01	-3.126882e+02
2.920000e-06	-2.144491e-06	-4.896129e-09	-1.449480e+01	-3.216176e+02
2.930000e-06	-2.181925e-06	-5.032113e-09	-1.474782e+01	-3.303265e+02
2.940000e-06	-2.218264e-06	-5.163756e-09	-1.499344e+01	-3.388014e+02
