# Temperatura_=_26.24
# Concentracion g/m^3_=_18700.0
# C_Vs_to_Am_M_A/Vsm_=_65563218390.804596
# pendiente_HvsI_1/m_=_3716.3
# ordenada_HvsI_A/m_=_1297.0
# frecuencia_Hz_=_301043.76089176076

Tiempo_(s)	Campo_(V.s)	Magnetizacion_(V.s)	Campo_(kA/m)	Magnetizacion_(A/m)
0.000000e+00	-2.925679e-06	-7.489950e-09	-1.977931e+01	-4.885332e+02
1.000000e-08	-2.924917e-06	-7.489674e-09	-1.977416e+01	-4.885164e+02
2.000000e-08	-2.923300e-06	-7.486634e-09	-1.976322e+01	-4.883401e+02
3.000000e-08	-2.920459e-06	-7.479374e-09	-1.974402e+01	-4.880062e+02
4.000000e-08	-2.916441e-06	-7.471658e-09	-1.971685e+01	-4.875160e+02
5.000000e-08	-2.911600e-06	-7.464121e-09	-1.968412e+01	-4.868681e+02
6.000000e-08	-2.905936e-06	-7.453545e-09	-1.964583e+01	-4.860603e+02
7.000000e-08	-2.899270e-06	-7.440805e-09	-1.960077e+01	-4.850923e+02
8.000000e-08	-2.891578e-06	-7.424841e-09	-1.954877e+01	-4.839710e+02
9.000000e-08	-2.882749e-06	-7.425059e-09	-1.948908e+01	-4.827152e+02
1.000000e-07	-2.872477e-06	-7.424225e-09	-1.941963e+01	-4.813570e+02
1.100000e-07	-2.860772e-06	-7.405169e-09	-1.934050e+01	-4.799385e+02
1.200000e-07	-2.848208e-06	-7.301982e-09	-1.925556e+01	-4.785040e+02
1.300000e-07	-2.834923e-06	-7.252156e-09	-1.916574e+01	-4.770877e+02
1.400000e-07	-2.820553e-06	-7.301395e-09	-1.906859e+01	-4.757018e+02
1.500000e-07	-2.805039e-06	-7.322222e-09	-1.896371e+01	-4.743280e+02
1.600000e-07	-2.788366e-06	-7.228727e-09	-1.885099e+01	-4.729175e+02
1.700000e-07	-2.770430e-06	-7.204951e-09	-1.872973e+01	-4.713985e+02
1.800000e-07	-2.751474e-06	-7.246263e-09	-1.860158e+01	-4.696925e+02
1.900000e-07	-2.731835e-06	-7.121265e-09	-1.846881e+01	-4.677324e+02
2.000000e-07	-2.711402e-06	-7.065141e-09	-1.833067e+01	-4.654792e+02
2.100000e-07	-2.689975e-06	-7.078288e-09	-1.818581e+01	-4.629307e+02
2.200000e-07	-2.667729e-06	-6.994578e-09	-1.803541e+01	-4.601198e+02
2.300000e-07	-2.644718e-06	-6.962094e-09	-1.787985e+01	-4.571031e+02
2.400000e-07	-2.620782e-06	-6.981735e-09	-1.771802e+01	-4.539426e+02
2.500000e-07	-2.596052e-06	-6.860492e-09	-1.755083e+01	-4.506874e+02
2.600000e-07	-2.570381e-06	-6.762121e-09	-1.737728e+01	-4.473606e+02
2.700000e-07	-2.543386e-06	-6.754378e-09	-1.719478e+01	-4.439559e+02
2.800000e-07	-2.515314e-06	-6.724305e-09	-1.700500e+01	-4.404443e+02
2.900000e-07	-2.486464e-06	-6.648568e-09	-1.680996e+01	-4.367880e+02
3.000000e-07	-2.456730e-06	-6.575170e-09	-1.660894e+01	-4.329568e+02
3.100000e-07	-2.426207e-06	-6.521351e-09	-1.640258e+01	-4.289399e+02
3.200000e-07	-2.394979e-06	-6.497858e-09	-1.619146e+01	-4.247507e+02
3.300000e-07	-2.362965e-06	-6.417165e-09	-1.597503e+01	-4.204211e+02
3.400000e-07	-2.330271e-06	-6.285082e-09	-1.575400e+01	-4.159901e+02
3.500000e-07	-2.296873e-06	-6.269000e-09	-1.552821e+01	-4.114891e+02
3.600000e-07	-2.262432e-06	-6.212652e-09	-1.529536e+01	-4.069313e+02
3.700000e-07	-2.226777e-06	-6.111334e-09	-1.505432e+01	-4.023081e+02
3.800000e-07	-2.190294e-06	-6.064219e-09	-1.480767e+01	-3.975935e+02
3.900000e-07	-2.153242e-06	-5.976478e-09	-1.455718e+01	-3.927552e+02
4.000000e-07	-2.115469e-06	-5.879321e-09	-1.430181e+01	-3.877682e+02
4.100000e-07	-2.076903e-06	-5.847719e-09	-1.404108e+01	-3.826242e+02
4.200000e-07	-2.037535e-06	-5.764503e-09	-1.377493e+01	-3.773349e+02
4.300000e-07	-1.997465e-06	-5.637145e-09	-1.350403e+01	-3.719277e+02
4.400000e-07	-1.956923e-06	-5.576120e-09	-1.322995e+01	-3.664350e+02
4.500000e-07	-1.915876e-06	-5.509622e-09	-1.295245e+01	-3.608822e+02
4.600000e-07	-1.874043e-06	-5.415346e-09	-1.266963e+01	-3.552788e+02
4.700000e-07	-1.831172e-06	-5.312881e-09	-1.237980e+01	-3.496159e+02
4.800000e-07	-1.787326e-06	-5.225215e-09	-1.208337e+01	-3.438704e+02
4.900000e-07	-1.742883e-06	-5.150822e-09	-1.178291e+01	-3.380151e+02
5.000000e-07	-1.698009e-06	-5.068061e-09	-1.147954e+01	-3.320296e+02
5.100000e-07	-1.652577e-06	-4.959310e-09	-1.117239e+01	-3.259086e+02
5.200000e-07	-1.606575e-06	-4.852786e-09	-1.086139e+01	-3.196633e+02
5.300000e-07	-1.560026e-06	-4.770551e-09	-1.054669e+01	-3.133174e+02
5.400000e-07	-1.512828e-06	-4.678016e-09	-1.022760e+01	-3.068975e+02
5.500000e-07	-1.465031e-06	-4.580177e-09	-9.904470e+00	-3.004230e+02
5.600000e-07	-1.416789e-06	-4.469898e-09	-9.578323e+00	-2.938988e+02
5.700000e-07	-1.368198e-06	-4.361723e-09	-9.249821e+00	-2.873142e+02
5.800000e-07	-1.319220e-06	-4.266933e-09	-8.918699e+00	-2.806472e+02
5.900000e-07	-1.269591e-06	-4.172681e-09	-8.583181e+00	-2.738741e+02
6.000000e-07	-1.219170e-06	-4.055751e-09	-8.242303e+00	-2.669783e+02
6.100000e-07	-1.168095e-06	-3.942293e-09	-7.897007e+00	-2.599572e+02
6.200000e-07	-1.116421e-06	-3.847286e-09	-7.547662e+00	-2.528233e+02
6.300000e-07	-1.064271e-06	-3.738421e-09	-7.195097e+00	-2.456000e+02
6.400000e-07	-1.011816e-06	-3.617906e-09	-6.840472e+00	-2.383132e+02
6.500000e-07	-9.589906e-07	-3.496061e-09	-6.483339e+00	-2.309831e+02
6.600000e-07	-9.057856e-07	-3.389800e-09	-6.123642e+00	-2.236179e+02
6.700000e-07	-8.522079e-07	-3.284691e-09	-5.761426e+00	-2.162131e+02
6.800000e-07	-7.982965e-07	-3.170137e-09	-5.396953e+00	-2.087549e+02
6.900000e-07	-7.441374e-07	-3.048820e-09	-5.030805e+00	-2.012272e+02
7.000000e-07	-6.897379e-07	-2.932859e-09	-4.663033e+00	-1.936184e+02
7.100000e-07	-6.351548e-07	-2.820888e-09	-4.294020e+00	-1.859261e+02
7.200000e-07	-5.804258e-07	-2.700529e-09	-3.924019e+00	-1.781576e+02
7.300000e-07	-5.255187e-07	-2.574802e-09	-3.552815e+00	-1.703262e+02
7.400000e-07	-4.704054e-07	-2.450411e-09	-3.180217e+00	-1.624451e+02
7.500000e-07	-4.150824e-07	-2.337625e-09	-2.806201e+00	-1.545222e+02
7.600000e-07	-3.595423e-07	-2.221643e-09	-2.430717e+00	-1.465561e+02
7.700000e-07	-3.038357e-07	-2.095341e-09	-2.054107e+00	-1.385373e+02
7.800000e-07	-2.480696e-07	-1.963533e-09	-1.677096e+00	-1.304516e+02
7.900000e-07	-1.922105e-07	-1.840902e-09	-1.299456e+00	-1.222858e+02
8.000000e-07	-1.362132e-07	-1.722024e-09	-9.208812e-01	-1.140331e+02
8.100000e-07	-8.015304e-08	-1.592179e-09	-5.418816e-01	-1.056960e+02
8.200000e-07	-2.404958e-08	-1.457873e-09	-1.625893e-01	-9.728496e+01
8.300000e-07	3.205107e-08	-1.328213e-09	2.166841e-01	-8.881514e+01
8.400000e-07	8.806367e-08	-1.205139e-09	5.953621e-01	-8.030069e+01
8.500000e-07	1.440794e-07	-1.074605e-09	9.740615e-01	-7.174979e+01
8.600000e-07	2.000561e-07	-9.377642e-10	1.352497e+00	-6.316184e+01
8.700000e-07	2.558801e-07	-8.034175e-10	1.729899e+00	-5.452761e+01
8.800000e-07	3.116203e-07	-6.756606e-10	2.106736e+00	-4.583224e+01
8.900000e-07	3.672289e-07	-5.448892e-10	2.482683e+00	-3.705972e+01
9.000000e-07	4.226583e-07	-4.077856e-10	2.857418e+00	-2.819739e+01
9.100000e-07	4.779130e-07	-2.712176e-10	3.230972e+00	-1.923880e+01
9.200000e-07	5.329704e-07	-1.351858e-10	3.603193e+00	-1.018430e+01
9.300000e-07	5.878285e-07	2.117749e-12	3.974066e+00	-1.039488e+00
9.400000e-07	6.425153e-07	1.449690e-10	4.343781e+00	8.187800e+00
9.500000e-07	6.970392e-07	2.890811e-10	4.712394e+00	1.749066e+01
9.600000e-07	7.513532e-07	4.325261e-10	5.079589e+00	2.686545e+01
9.700000e-07	8.054013e-07	5.737838e-10	5.444985e+00	3.631261e+01
9.800000e-07	8.591562e-07	7.183172e-10	5.808400e+00	4.583602e+01
9.900000e-07	9.125660e-07	8.662961e-10	6.169482e+00	5.544118e+01
1.000000e-06	9.656228e-07	1.011935e-09	6.528177e+00	6.513299e+01
1.010000e-06	1.018386e-06	1.156019e-09	6.884887e+00	7.491385e+01
1.020000e-06	1.070815e-06	1.304182e-09	7.239336e+00	8.478241e+01
1.030000e-06	1.122796e-06	1.458403e-09	7.590763e+00	9.473328e+01
1.040000e-06	1.174222e-06	1.612048e-09	7.938431e+00	1.047576e+02
1.050000e-06	1.225030e-06	1.764068e-09	8.281921e+00	1.148443e+02
1.060000e-06	1.275087e-06	1.917013e-09	8.620338e+00	1.249815e+02
1.070000e-06	1.324447e-06	2.073651e-09	8.954041e+00	1.351584e+02
1.080000e-06	1.373306e-06	2.229031e-09	9.284353e+00	1.453663e+02
1.090000e-06	1.421785e-06	2.382785e-09	9.612103e+00	1.555988e+02
1.100000e-06	1.469910e-06	2.536628e-09	9.937454e+00	1.658521e+02
1.110000e-06	1.517534e-06	2.692149e-09	1.025942e+01	1.761233e+02
1.120000e-06	1.564622e-06	2.850909e-09	1.057776e+01	1.864085e+02
1.130000e-06	1.611184e-06	3.010816e-09	1.089255e+01	1.967007e+02
1.140000e-06	1.657154e-06	3.170647e-09	1.120333e+01	2.069886e+02
1.150000e-06	1.702484e-06	3.327704e-09	1.150979e+01	2.172561e+02
1.160000e-06	1.747294e-06	3.481969e-09	1.181273e+01	2.274836e+02
1.170000e-06	1.791732e-06	3.634719e-09	1.211316e+01	2.376506e+02
1.180000e-06	1.835707e-06	3.787747e-09	1.241046e+01	2.477386e+02
1.190000e-06	1.878906e-06	3.940336e-09	1.270251e+01	2.577339e+02
1.200000e-06	1.921102e-06	4.090762e-09	1.298778e+01	2.676282e+02
1.210000e-06	1.962366e-06	4.239580e-09	1.326675e+01	2.774181e+02
1.220000e-06	2.002988e-06	4.386320e-09	1.354137e+01	2.871013e+02
1.230000e-06	2.043056e-06	4.532616e-09	1.381226e+01	2.966725e+02
1.240000e-06	2.082445e-06	4.676365e-09	1.407855e+01	3.061196e+02
1.250000e-06	2.121170e-06	4.814327e-09	1.434036e+01	3.154217e+02
1.260000e-06	2.159187e-06	4.949781e-09	1.459737e+01	3.245499e+02
1.270000e-06	2.196419e-06	5.084226e-09	1.484908e+01	3.334707e+02
1.280000e-06	2.233001e-06	5.216795e-09	1.509640e+01	3.421516e+02
1.290000e-06	2.268967e-06	5.345225e-09	1.533955e+01	3.505668e+02
1.300000e-06	2.303990e-06	5.468478e-09	1.557633e+01	3.587008e+02
1.310000e-06	2.337859e-06	5.586372e-09	1.580530e+01	3.665498e+02
1.320000e-06	2.370820e-06	5.699529e-09	1.602813e+01	3.741192e+02
1.330000e-06	2.403055e-06	5.807425e-09	1.624606e+01	3.814193e+02
1.340000e-06	2.434519e-06	5.911477e-09	1.645877e+01	3.884602e+02
1.350000e-06	2.465187e-06	6.013975e-09	1.666611e+01	3.952478e+02
1.360000e-06	2.495014e-06	6.113146e-09	1.686776e+01	4.017822e+02
1.370000e-06	2.524072e-06	6.207334e-09	1.706421e+01	4.080594e+02
1.380000e-06	2.552461e-06	6.298048e-09	1.725614e+01	4.140740e+02
1.390000e-06	2.579918e-06	6.385060e-09	1.744176e+01	4.198237e+02
1.400000e-06	2.606123e-06	6.468406e-09	1.761892e+01	4.253116e+02
1.410000e-06	2.631184e-06	6.547552e-09	1.778835e+01	4.305467e+02
1.420000e-06	2.655338e-06	6.621599e-09	1.795164e+01	4.355423e+02
1.430000e-06	2.678600e-06	6.692801e-09	1.810891e+01	4.403116e+02
1.440000e-06	2.700917e-06	6.761153e-09	1.825978e+01	4.448647e+02
1.450000e-06	2.722375e-06	6.826638e-09	1.840486e+01	4.492053e+02
1.460000e-06	2.743100e-06	6.888807e-09	1.854496e+01	4.533306e+02
1.470000e-06	2.763037e-06	6.947852e-09	1.867975e+01	4.572333e+02
1.480000e-06	2.781948e-06	7.003959e-09	1.880760e+01	4.609046e+02
1.490000e-06	2.799886e-06	7.055509e-09	1.892887e+01	4.643378e+02
1.500000e-06	2.816844e-06	7.101559e-09	1.904352e+01	4.675304e+02
1.510000e-06	2.832666e-06	7.143982e-09	1.915048e+01	4.704848e+02
1.520000e-06	2.847377e-06	7.184235e-09	1.924994e+01	4.732070e+02
1.530000e-06	2.861071e-06	7.221424e-09	1.934252e+01	4.757047e+02
1.540000e-06	2.873726e-06	7.253121e-09	1.942807e+01	4.779851e+02
1.550000e-06	2.885143e-06	7.282406e-09	1.950526e+01	4.800546e+02
1.560000e-06	2.895199e-06	7.312590e-09	1.957325e+01	4.819186e+02
1.570000e-06	2.904118e-06	7.341963e-09	1.963354e+01	4.835830e+02
1.580000e-06	2.912105e-06	7.366076e-09	1.968754e+01	4.850549e+02
1.590000e-06	2.919107e-06	7.383399e-09	1.973487e+01	4.863433e+02
1.600000e-06	2.925105e-06	7.397822e-09	1.977543e+01	4.874581e+02
1.610000e-06	2.930229e-06	7.410475e-09	1.981007e+01	4.884085e+02
1.620000e-06	2.934540e-06	7.420249e-09	1.983921e+01	4.892009e+02
1.630000e-06	2.937735e-06	7.426641e-09	1.986081e+01	4.898380e+02
1.640000e-06	2.939604e-06	7.434710e-09	1.987345e+01	4.903192e+02
1.650000e-06	2.940351e-06	7.444779e-09	1.987850e+01	4.906421e+02
1.660000e-06	2.940216e-06	7.451542e-09	1.987759e+01	4.908043e+02
1.670000e-06	2.939158e-06	7.451886e-09	1.987043e+01	4.908051e+02
1.680000e-06	2.937185e-06	7.445701e-09	1.985709e+01	4.906461e+02
1.690000e-06	2.934403e-06	7.438991e-09	1.983828e+01	4.903295e+02
1.700000e-06	2.930858e-06	7.431786e-09	1.981432e+01	4.898564e+02
1.710000e-06	2.926288e-06	7.420264e-09	1.978343e+01	4.892259e+02
1.720000e-06	2.920430e-06	7.405895e-09	1.974382e+01	4.884357e+02
1.730000e-06	2.913521e-06	7.389203e-09	1.969711e+01	4.874851e+02
1.740000e-06	2.905790e-06	7.375818e-09	1.964484e+01	4.863800e+02
1.750000e-06	2.896868e-06	7.328497e-09	1.958452e+01	4.851377e+02
1.760000e-06	2.886232e-06	7.298164e-09	1.951262e+01	4.837888e+02
1.770000e-06	2.874209e-06	7.308072e-09	1.943134e+01	4.823750e+02
1.780000e-06	2.861889e-06	7.342750e-09	1.934805e+01	4.809407e+02
1.790000e-06	2.849252e-06	7.306477e-09	1.926262e+01	4.795218e+02
1.800000e-06	2.835087e-06	7.182250e-09	1.916685e+01	4.781333e+02
1.810000e-06	2.819436e-06	7.233289e-09	1.906104e+01	4.767605e+02
1.820000e-06	2.803199e-06	7.273638e-09	1.895127e+01	4.753574e+02
1.830000e-06	2.786147e-06	7.191612e-09	1.883599e+01	4.738542e+02
1.840000e-06	2.767794e-06	7.173743e-09	1.871191e+01	4.721722e+02
1.850000e-06	2.748600e-06	7.195484e-09	1.858215e+01	4.702422e+02
1.860000e-06	2.728712e-06	7.130840e-09	1.844770e+01	4.680215e+02
1.870000e-06	2.707443e-06	7.069015e-09	1.830390e+01	4.655040e+02
1.880000e-06	2.684853e-06	7.086489e-09	1.815118e+01	4.627192e+02
1.890000e-06	2.661435e-06	6.998203e-09	1.799286e+01	4.597219e+02
1.900000e-06	2.637064e-06	6.928517e-09	1.782810e+01	4.565745e+02
1.910000e-06	2.611849e-06	6.986243e-09	1.765763e+01	4.533282e+02
1.920000e-06	2.585972e-06	6.907262e-09	1.748269e+01	4.500093e+02
1.930000e-06	2.559263e-06	6.798071e-09	1.730212e+01	4.466144e+02
1.940000e-06	2.531805e-06	6.785587e-09	1.711649e+01	4.431164e+02
1.950000e-06	2.503424e-06	6.707394e-09	1.692462e+01	4.394777e+02
1.960000e-06	2.473645e-06	6.662730e-09	1.672329e+01	4.356665e+02
1.970000e-06	2.442776e-06	6.601430e-09	1.651460e+01	4.316697e+02
1.980000e-06	2.411181e-06	6.499355e-09	1.630100e+01	4.274980e+02
1.990000e-06	2.378770e-06	6.503888e-09	1.608188e+01	4.231820e+02
2.000000e-06	2.345635e-06	6.450263e-09	1.585787e+01	4.187605e+02
2.010000e-06	2.311686e-06	6.293562e-09	1.562836e+01	4.142663e+02
2.020000e-06	2.276929e-06	6.266124e-09	1.539338e+01	4.097151e+02
2.030000e-06	2.241641e-06	6.207528e-09	1.515481e+01	4.051003e+02
2.040000e-06	2.205530e-06	6.088025e-09	1.491068e+01	4.003974e+02
2.050000e-06	2.168220e-06	6.075558e-09	1.465844e+01	3.955742e+02
2.060000e-06	2.129956e-06	5.985095e-09	1.439975e+01	3.906043e+02
2.070000e-06	2.091057e-06	5.867008e-09	1.413677e+01	3.854772e+02
2.080000e-06	2.051552e-06	5.832171e-09	1.386970e+01	3.802028e+02
2.090000e-06	2.011334e-06	5.740388e-09	1.359780e+01	3.748070e+02
2.100000e-06	1.970386e-06	5.634038e-09	1.332096e+01	3.693224e+02
2.110000e-06	1.928809e-06	5.559876e-09	1.303988e+01	3.637756e+02
2.120000e-06	1.886553e-06	5.473591e-09	1.275420e+01	3.581782e+02
2.130000e-06	1.843681e-06	5.404214e-09	1.246437e+01	3.525229e+02
2.140000e-06	1.800397e-06	5.306718e-09	1.217174e+01	3.467880e+02
2.150000e-06	1.756618e-06	5.200407e-09	1.187577e+01	3.409460e+02
2.160000e-06	1.712222e-06	5.127651e-09	1.157562e+01	3.349755e+02
2.170000e-06	1.667113e-06	5.036596e-09	1.127066e+01	3.288690e+02
2.180000e-06	1.621337e-06	4.940894e-09	1.096119e+01	3.226365e+02
2.190000e-06	1.575110e-06	4.836390e-09	1.064867e+01	3.163005e+02
2.200000e-06	1.528459e-06	4.734748e-09	1.033328e+01	3.098878e+02
2.210000e-06	1.481217e-06	4.644770e-09	1.001390e+01	3.034190e+02
2.220000e-06	1.433144e-06	4.547882e-09	9.688894e+00	2.969007e+02
2.230000e-06	1.384359e-06	4.450628e-09	9.359079e+00	2.903238e+02
2.240000e-06	1.335146e-06	4.338815e-09	9.026370e+00	2.836673e+02
2.250000e-06	1.285531e-06	4.237384e-09	8.690947e+00	2.769069e+02
2.260000e-06	1.235430e-06	4.146925e-09	8.352233e+00	2.700251e+02
2.270000e-06	1.184809e-06	4.030847e-09	8.010008e+00	2.630174e+02
2.280000e-06	1.133796e-06	3.915392e-09	7.665124e+00	2.558950e+02
2.290000e-06	1.082491e-06	3.814978e-09	7.318276e+00	2.486804e+02
2.300000e-06	1.030807e-06	3.710659e-09	6.968859e+00	2.413997e+02
2.310000e-06	9.785777e-07	3.600378e-09	6.615760e+00	2.340739e+02
2.320000e-06	9.257182e-07	3.477428e-09	6.258398e+00	2.267129e+02
2.330000e-06	8.722791e-07	3.360635e-09	5.897118e+00	2.193133e+02
2.340000e-06	8.183706e-07	3.252256e-09	5.532666e+00	2.118620e+02
2.350000e-06	7.640620e-07	3.136625e-09	5.165508e+00	2.043428e+02
2.360000e-06	7.093760e-07	3.022230e-09	4.795798e+00	1.967433e+02
2.370000e-06	6.544473e-07	2.903810e-09	4.424448e+00	1.890602e+02
2.380000e-06	5.993966e-07	2.788721e-09	4.052273e+00	1.812997e+02
2.390000e-06	5.442379e-07	2.673391e-09	3.679367e+00	1.734746e+02
2.400000e-06	4.889612e-07	2.549408e-09	3.305665e+00	1.655988e+02
2.410000e-06	4.335790e-07	2.424175e-09	2.931248e+00	1.576806e+02
2.420000e-06	3.780943e-07	2.300177e-09	2.556139e+00	1.497199e+02
2.430000e-06	3.225273e-07	2.181631e-09	2.180474e+00	1.417078e+02
2.440000e-06	2.669208e-07	2.062069e-09	1.804541e+00	1.336303e+02
2.450000e-06	2.112347e-07	1.937035e-09	1.428071e+00	1.254739e+02
2.460000e-06	1.554623e-07	1.812114e-09	1.051016e+00	1.172310e+02
2.470000e-06	9.967331e-08	1.687173e-09	6.738501e-01	1.089029e+02
2.480000e-06	4.387278e-08	1.558727e-09	2.966057e-01	1.004995e+02
2.490000e-06	-1.198889e-08	1.427842e-09	-8.105195e-02	9.203562e+01
2.500000e-06	-6.785914e-08	1.298837e-09	-4.587676e-01	8.352580e+01
2.510000e-06	-1.236850e-07	1.172870e-09	-8.361835e-01	7.497906e+01
2.520000e-06	-1.795039e-07	1.042569e-09	-1.213551e+00	6.639577e+01
2.530000e-06	-2.352268e-07	9.049670e-10	-1.590271e+00	5.776753e+01
2.540000e-06	-2.908041e-07	7.688990e-10	-1.966007e+00	4.907987e+01
2.550000e-06	-3.462958e-07	6.375042e-10	-2.341163e+00	4.031670e+01
2.560000e-06	-4.016597e-07	5.068826e-10	-2.715455e+00	3.146481e+01
2.570000e-06	-4.569702e-07	3.698718e-10	-3.089387e+00	2.251700e+01
2.580000e-06	-5.122697e-07	2.292535e-10	-3.463244e+00	1.347297e+01
2.590000e-06	-5.674519e-07	9.074033e-11	-3.836308e+00	4.337853e+00
2.600000e-06	-6.225282e-07	-4.800107e-11	-4.208656e+00	-4.880585e+00
2.610000e-06	-6.775062e-07	-1.916553e-10	-4.580340e+00	-1.417521e+01
2.620000e-06	-7.322529e-07	-3.391012e-10	-4.950459e+00	-2.354196e+01
2.630000e-06	-7.867060e-07	-4.828223e-10	-5.318594e+00	-3.298085e+01
2.640000e-06	-8.407524e-07	-6.230644e-10	-5.683980e+00	-4.249545e+01
2.650000e-06	-8.942142e-07	-7.659766e-10	-6.045413e+00	-5.209120e+01
2.660000e-06	-9.471123e-07	-9.169009e-10	-6.403035e+00	-6.177317e+01
2.670000e-06	-9.994556e-07	-1.071214e-09	-6.756906e+00	-7.154410e+01
2.680000e-06	-1.051227e-06	-1.222540e-09	-7.106909e+00	-8.140307e+01
2.690000e-06	-1.102600e-06	-1.372687e-09	-7.454225e+00	-9.134511e+01
2.700000e-06	-1.153723e-06	-1.527747e-09	-7.799842e+00	-1.013617e+02
2.710000e-06	-1.204512e-06	-1.685671e-09	-8.143207e+00	-1.114419e+02
2.720000e-06	-1.254805e-06	-1.839169e-09	-8.483221e+00	-1.215738e+02
2.730000e-06	-1.304537e-06	-1.989791e-09	-8.819436e+00	-1.317466e+02
2.740000e-06	-1.353760e-06	-2.143516e-09	-9.152215e+00	-1.419511e+02
2.750000e-06	-1.402491e-06	-2.303087e-09	-9.481664e+00	-1.521808e+02
2.760000e-06	-1.450552e-06	-2.461891e-09	-9.806583e+00	-1.624317e+02
2.770000e-06	-1.497718e-06	-2.616599e-09	-1.012545e+01	-1.727007e+02
2.780000e-06	-1.544066e-06	-2.771290e-09	-1.043879e+01	-1.829842e+02
2.790000e-06	-1.589955e-06	-2.930956e-09	-1.074903e+01	-1.932757e+02
2.800000e-06	-1.635477e-06	-3.091679e-09	-1.105678e+01	-2.035644e+02
2.810000e-06	-1.680505e-06	-3.246900e-09	-1.136120e+01	-2.138346e+02
2.820000e-06	-1.724995e-06	-3.399637e-09	-1.166198e+01	-2.240671e+02
2.830000e-06	-1.768884e-06	-3.553624e-09	-1.195869e+01	-2.342411e+02
2.840000e-06	-1.812263e-06	-3.708214e-09	-1.225196e+01	-2.443380e+02
2.850000e-06	-1.855278e-06	-3.861777e-09	-1.254277e+01	-2.543432e+02
2.860000e-06	-1.897792e-06	-4.015224e-09	-1.283019e+01	-2.642483e+02
2.870000e-06	-1.939625e-06	-4.168183e-09	-1.311300e+01	-2.740491e+02
2.880000e-06	-1.980769e-06	-4.319160e-09	-1.339116e+01	-2.837434e+02
2.890000e-06	-2.021205e-06	-4.466493e-09	-1.366453e+01	-2.933266e+02
2.900000e-06	-2.060962e-06	-4.608957e-09	-1.393331e+01	-3.027875e+02
2.910000e-06	-2.100127e-06	-4.748911e-09	-1.419809e+01	-3.121061e+02
2.920000e-06	-2.138684e-06	-4.889042e-09	-1.445876e+01	-3.212541e+02
2.930000e-06	-2.176268e-06	-5.028250e-09	-1.471285e+01	-3.301983e+02
2.940000e-06	-2.212705e-06	-5.164095e-09	-1.495919e+01	-3.389060e+02
