# Temperatura_=_27.8
# Concentracion g/m^3_=_18700.0
# C_Vs_to_Am_M_A/Vsm_=_65563218390.804596
# pendiente_HvsI_1/m_=_3716.3
# ordenada_HvsI_A/m_=_1297.0
# frecuencia_Hz_=_301047.2152314346

Tiempo_(s)	Campo_(V.s)	Magnetizacion_(V.s)	Campo_(kA/m)	Magnetizacion_(A/m)
0.000000e+00	-2.923087e-06	-7.521456e-09	-1.977987e+01	-4.902185e+02
1.000000e-08	-2.922488e-06	-7.524643e-09	-1.977582e+01	-4.901885e+02
2.000000e-08	-2.921071e-06	-7.523808e-09	-1.976623e+01	-4.900107e+02
3.000000e-08	-2.918445e-06	-7.516334e-09	-1.974846e+01	-4.897095e+02
4.000000e-08	-2.914583e-06	-7.507606e-09	-1.972233e+01	-4.892973e+02
5.000000e-08	-2.909887e-06	-7.501132e-09	-1.969055e+01	-4.887680e+02
6.000000e-08	-2.904373e-06	-7.491807e-09	-1.965324e+01	-4.880987e+02
7.000000e-08	-2.897858e-06	-7.471034e-09	-1.960916e+01	-4.872586e+02
8.000000e-08	-2.890323e-06	-7.451971e-09	-1.955817e+01	-4.862232e+02
9.000000e-08	-2.881679e-06	-7.489496e-09	-1.949968e+01	-4.849883e+02
1.000000e-07	-2.871538e-06	-7.517232e-09	-1.943106e+01	-4.835787e+02
1.100000e-07	-2.859927e-06	-7.434104e-09	-1.935249e+01	-4.820471e+02
1.200000e-07	-2.847517e-06	-7.261249e-09	-1.926851e+01	-4.804628e+02
1.300000e-07	-2.834378e-06	-7.287775e-09	-1.917960e+01	-4.788923e+02
1.400000e-07	-2.820096e-06	-7.440414e-09	-1.908296e+01	-4.773782e+02
1.500000e-07	-2.804664e-06	-7.292276e-09	-1.897853e+01	-4.759235e+02
1.600000e-07	-2.788157e-06	-7.187215e-09	-1.886684e+01	-4.744864e+02
1.700000e-07	-2.770404e-06	-7.323848e-09	-1.874671e+01	-4.729891e+02
1.800000e-07	-2.751619e-06	-7.280366e-09	-1.861959e+01	-4.713373e+02
1.900000e-07	-2.732182e-06	-7.079763e-09	-1.848807e+01	-4.694454e+02
2.000000e-07	-2.711946e-06	-7.139862e-09	-1.835113e+01	-4.672590e+02
2.100000e-07	-2.690657e-06	-7.149686e-09	-1.820707e+01	-4.647667e+02
2.200000e-07	-2.668549e-06	-6.936858e-09	-1.805748e+01	-4.619998e+02
2.300000e-07	-2.645693e-06	-7.008564e-09	-1.790281e+01	-4.590174e+02
2.400000e-07	-2.621870e-06	-7.086631e-09	-1.774161e+01	-4.558855e+02
2.500000e-07	-2.597266e-06	-6.856422e-09	-1.757512e+01	-4.526549e+02
2.600000e-07	-2.571768e-06	-6.774264e-09	-1.740258e+01	-4.493473e+02
2.700000e-07	-2.544958e-06	-6.831802e-09	-1.722116e+01	-4.459530e+02
2.800000e-07	-2.517050e-06	-6.746064e-09	-1.703231e+01	-4.424404e+02
2.900000e-07	-2.488367e-06	-6.682372e-09	-1.683822e+01	-4.387730e+02
3.000000e-07	-2.458780e-06	-6.608359e-09	-1.663801e+01	-4.349271e+02
3.100000e-07	-2.428391e-06	-6.552375e-09	-1.643238e+01	-4.309031e+02
3.200000e-07	-2.397337e-06	-6.548827e-09	-1.622224e+01	-4.267257e+02
3.300000e-07	-2.365476e-06	-6.438049e-09	-1.600665e+01	-4.224346e+02
3.400000e-07	-2.332923e-06	-6.313961e-09	-1.578637e+01	-4.180682e+02
3.500000e-07	-2.299698e-06	-6.303780e-09	-1.556154e+01	-4.136478e+02
3.600000e-07	-2.265389e-06	-6.234905e-09	-1.532938e+01	-4.091686e+02
3.700000e-07	-2.229881e-06	-6.151561e-09	-1.508910e+01	-4.046012e+02
3.800000e-07	-2.193552e-06	-6.127815e-09	-1.484327e+01	-3.999027e+02
3.900000e-07	-2.156644e-06	-5.991085e-09	-1.459353e+01	-3.950341e+02
4.000000e-07	-2.119023e-06	-5.906833e-09	-1.433896e+01	-3.899757e+02
4.100000e-07	-2.080589e-06	-5.894524e-09	-1.407888e+01	-3.847361e+02
4.200000e-07	-2.041366e-06	-5.786400e-09	-1.381347e+01	-3.793502e+02
4.300000e-07	-2.001399e-06	-5.657048e-09	-1.354302e+01	-3.738669e+02
4.400000e-07	-1.960947e-06	-5.603793e-09	-1.326929e+01	-3.683323e+02
4.500000e-07	-1.920064e-06	-5.537855e-09	-1.299265e+01	-3.627733e+02
4.600000e-07	-1.878436e-06	-5.443133e-09	-1.271096e+01	-3.571891e+02
4.700000e-07	-1.835702e-06	-5.345349e-09	-1.242178e+01	-3.515529e+02
4.800000e-07	-1.791933e-06	-5.246415e-09	-1.212561e+01	-3.458232e+02
4.900000e-07	-1.747575e-06	-5.177802e-09	-1.182545e+01	-3.399607e+02
5.000000e-07	-1.702826e-06	-5.098173e-09	-1.152264e+01	-3.339433e+02
5.100000e-07	-1.657542e-06	-4.993464e-09	-1.121622e+01	-3.277744e+02
5.200000e-07	-1.611633e-06	-4.875313e-09	-1.090556e+01	-3.214805e+02
5.300000e-07	-1.565190e-06	-4.788676e-09	-1.059129e+01	-3.151008e+02
5.400000e-07	-1.518183e-06	-4.704342e-09	-1.027321e+01	-3.086712e+02
5.500000e-07	-1.470534e-06	-4.607792e-09	-9.950778e+00	-3.022111e+02
5.600000e-07	-1.422388e-06	-4.498272e-09	-9.624985e+00	-2.957159e+02
5.700000e-07	-1.373929e-06	-4.389102e-09	-9.297068e+00	-2.891600e+02
5.800000e-07	-1.325028e-06	-4.305403e-09	-8.966170e+00	-2.825077e+02
5.900000e-07	-1.275470e-06	-4.207496e-09	-8.630820e+00	-2.757276e+02
6.000000e-07	-1.225159e-06	-4.086926e-09	-8.290379e+00	-2.688056e+02
6.100000e-07	-1.174174e-06	-3.968013e-09	-7.945372e+00	-2.617498e+02
6.200000e-07	-1.122608e-06	-3.871286e-09	-7.596434e+00	-2.545882e+02
6.300000e-07	-1.070545e-06	-3.766215e-09	-7.244139e+00	-2.473575e+02
6.400000e-07	-1.018120e-06	-3.648624e-09	-6.889393e+00	-2.400899e+02
6.500000e-07	-9.653120e-07	-3.528900e-09	-6.532050e+00	-2.328017e+02
6.600000e-07	-9.121100e-07	-3.421384e-09	-6.172045e+00	-2.254892e+02
6.700000e-07	-8.586085e-07	-3.320429e-09	-5.810011e+00	-2.181328e+02
6.800000e-07	-8.048396e-07	-3.204225e-09	-5.446169e+00	-2.107069e+02
6.900000e-07	-7.507548e-07	-3.080742e-09	-5.080190e+00	-2.031920e+02
7.000000e-07	-6.964247e-07	-2.959618e-09	-4.712550e+00	-1.955840e+02
7.100000e-07	-6.419533e-07	-2.850163e-09	-4.343954e+00	-1.878960e+02
7.200000e-07	-5.873051e-07	-2.734426e-09	-3.974162e+00	-1.801532e+02
7.300000e-07	-5.324734e-07	-2.610689e-09	-3.603128e+00	-1.723817e+02
7.400000e-07	-4.774469e-07	-2.489160e-09	-3.230777e+00	-1.645968e+02
7.500000e-07	-4.222093e-07	-2.377062e-09	-2.856996e+00	-1.567956e+02
7.600000e-07	-3.668028e-07	-2.264197e-09	-2.482072e+00	-1.489566e+02
7.700000e-07	-3.111785e-07	-2.138696e-09	-2.105675e+00	-1.410465e+02
7.800000e-07	-2.553622e-07	-2.007505e-09	-1.727979e+00	-1.330324e+02
7.900000e-07	-1.994684e-07	-1.882500e-09	-1.349758e+00	-1.248943e+02
8.000000e-07	-1.434737e-07	-1.761920e-09	-9.708547e-01	-1.166326e+02
8.100000e-07	-8.746561e-08	-1.630933e-09	-5.918602e-01	-1.082681e+02
8.200000e-07	-3.148056e-08	-1.498353e-09	-2.130219e-01	-9.983495e+01
8.300000e-07	2.447459e-08	-1.370728e-09	1.656141e-01	-9.136834e+01
8.400000e-07	8.036642e-08	-1.246605e-09	5.438216e-01	-8.289181e+01
8.500000e-07	1.362666e-07	-1.116829e-09	9.220857e-01	-7.440941e+01
8.600000e-07	1.921499e-07	-9.800630e-10	1.300236e+00	-6.590465e+01
8.700000e-07	2.480177e-07	-8.454744e-10	1.678280e+00	-5.734698e+01
8.800000e-07	3.037855e-07	-7.169487e-10	2.055648e+00	-4.870262e+01
8.900000e-07	3.594404e-07	-5.892415e-10	2.432253e+00	-3.994586e+01
9.000000e-07	4.149412e-07	-4.522752e-10	2.807814e+00	-3.106649e+01
9.100000e-07	4.701836e-07	-3.139819e-10	3.181628e+00	-2.207089e+01
9.200000e-07	5.252313e-07	-1.789375e-10	3.554123e+00	-1.297686e+01
9.300000e-07	5.801120e-07	-4.255156e-11	3.925488e+00	-3.804635e+00
9.400000e-07	6.348126e-07	1.013475e-10	4.295635e+00	5.432214e+00
9.500000e-07	6.893342e-07	2.482332e-10	4.664570e+00	1.473226e+01
9.600000e-07	7.436613e-07	3.917873e-10	5.032190e+00	2.410627e+01
9.700000e-07	7.977660e-07	5.330531e-10	5.398304e+00	3.357201e+01
9.800000e-07	8.516066e-07	6.760677e-10	5.762631e+00	4.314619e+01
9.900000e-07	9.050689e-07	8.253244e-10	6.124399e+00	5.283692e+01
1.000000e-06	9.581235e-07	9.735619e-10	6.483408e+00	6.263974e+01
1.010000e-06	1.010848e-06	1.120685e-09	6.840181e+00	7.253864e+01
1.020000e-06	1.063259e-06	1.271412e-09	7.194834e+00	8.251155e+01
1.030000e-06	1.115306e-06	1.427075e-09	7.547026e+00	9.253794e+01
1.040000e-06	1.166830e-06	1.581843e-09	7.895675e+00	1.026055e+02
1.050000e-06	1.217665e-06	1.732927e-09	8.239665e+00	1.127131e+02
1.060000e-06	1.267780e-06	1.885506e-09	8.578784e+00	1.228694e+02
1.070000e-06	1.317174e-06	2.042508e-09	8.913022e+00	1.330867e+02
1.080000e-06	1.365976e-06	2.201969e-09	9.243251e+00	1.433742e+02
1.090000e-06	1.414430e-06	2.360376e-09	9.571134e+00	1.537313e+02
1.100000e-06	1.462571e-06	2.517792e-09	9.896891e+00	1.641452e+02
1.110000e-06	1.510196e-06	2.675193e-09	1.021916e+01	1.745922e+02
1.120000e-06	1.557223e-06	2.834769e-09	1.053738e+01	1.850431e+02
1.130000e-06	1.603702e-06	2.996642e-09	1.085189e+01	1.954703e+02
1.140000e-06	1.649630e-06	3.157295e-09	1.116268e+01	2.058529e+02
1.150000e-06	1.694964e-06	3.314964e-09	1.146945e+01	2.161804e+02
1.160000e-06	1.739809e-06	3.470093e-09	1.177290e+01	2.264515e+02
1.170000e-06	1.784319e-06	3.624722e-09	1.207409e+01	2.366697e+02
1.180000e-06	1.828393e-06	3.778928e-09	1.237233e+01	2.468381e+02
1.190000e-06	1.871692e-06	3.932352e-09	1.266532e+01	2.569539e+02
1.200000e-06	1.913940e-06	4.085374e-09	1.295120e+01	2.670061e+02
1.210000e-06	1.955181e-06	4.239796e-09	1.323028e+01	2.769753e+02
1.220000e-06	1.995745e-06	4.391822e-09	1.350476e+01	2.868368e+02
1.230000e-06	2.035835e-06	4.539146e-09	1.377604e+01	2.965643e+02
1.240000e-06	2.075259e-06	4.683100e-09	1.404282e+01	3.061336e+02
1.250000e-06	2.113973e-06	4.822949e-09	1.430478e+01	3.155245e+02
1.260000e-06	2.151979e-06	4.960644e-09	1.456196e+01	3.247208e+02
1.270000e-06	2.189174e-06	5.095575e-09	1.481365e+01	3.337084e+02
1.280000e-06	2.225757e-06	5.229144e-09	1.506120e+01	3.424727e+02
1.290000e-06	2.261860e-06	5.359968e-09	1.530550e+01	3.509975e+02
1.300000e-06	2.297140e-06	5.488422e-09	1.554423e+01	3.592642e+02
1.310000e-06	2.331189e-06	5.609955e-09	1.577464e+01	3.672540e+02
1.320000e-06	2.364165e-06	5.723767e-09	1.599777e+01	3.749506e+02
1.330000e-06	2.396442e-06	5.833411e-09	1.621619e+01	3.823437e+02
1.340000e-06	2.427978e-06	5.940235e-09	1.642959e+01	3.894316e+02
1.350000e-06	2.458695e-06	6.044265e-09	1.663744e+01	3.962215e+02
1.360000e-06	2.488599e-06	6.141676e-09	1.683979e+01	4.027280e+02
1.370000e-06	2.517656e-06	6.233065e-09	1.703642e+01	4.089699e+02
1.380000e-06	2.546059e-06	6.322643e-09	1.722861e+01	4.149655e+02
1.390000e-06	2.573689e-06	6.411700e-09	1.741558e+01	4.207289e+02
1.400000e-06	2.600111e-06	6.496271e-09	1.759437e+01	4.262671e+02
1.410000e-06	2.625314e-06	6.575947e-09	1.776491e+01	4.315798e+02
1.420000e-06	2.649551e-06	6.652669e-09	1.792892e+01	4.366611e+02
1.430000e-06	2.672921e-06	6.726159e-09	1.808706e+01	4.415023e+02
1.440000e-06	2.695395e-06	6.793759e-09	1.823913e+01	4.460964e+02
1.450000e-06	2.716925e-06	6.855388e-09	1.838482e+01	4.504410e+02
1.460000e-06	2.737673e-06	6.913844e-09	1.852522e+01	4.545393e+02
1.470000e-06	2.757728e-06	6.971454e-09	1.866093e+01	4.583995e+02
1.480000e-06	2.776803e-06	7.027904e-09	1.879001e+01	4.620318e+02
1.490000e-06	2.794806e-06	7.081166e-09	1.891183e+01	4.654450e+02
1.500000e-06	2.811853e-06	7.129696e-09	1.902718e+01	4.686431e+02
1.510000e-06	2.827811e-06	7.173176e-09	1.913517e+01	4.716240e+02
1.520000e-06	2.842651e-06	7.212020e-09	1.923558e+01	4.743807e+02
1.530000e-06	2.856481e-06	7.245527e-09	1.932917e+01	4.769048e+02
1.540000e-06	2.869309e-06	7.274727e-09	1.941597e+01	4.791920e+02
1.550000e-06	2.881018e-06	7.303644e-09	1.949520e+01	4.812459e+02
1.560000e-06	2.891326e-06	7.333643e-09	1.956496e+01	4.830804e+02
1.570000e-06	2.900377e-06	7.362564e-09	1.962620e+01	4.847184e+02
1.580000e-06	2.908518e-06	7.387518e-09	1.968129e+01	4.861866e+02
1.590000e-06	2.915690e-06	7.407507e-09	1.972982e+01	4.875088e+02
1.600000e-06	2.921825e-06	7.423669e-09	1.977133e+01	4.886989e+02
1.610000e-06	2.927036e-06	7.436519e-09	1.980660e+01	4.897570e+02
1.620000e-06	2.931444e-06	7.443981e-09	1.983643e+01	4.906700e+02
1.630000e-06	2.934841e-06	7.449226e-09	1.985941e+01	4.914167e+02
1.640000e-06	2.936846e-06	7.459699e-09	1.987298e+01	4.919763e+02
1.650000e-06	2.937662e-06	7.472323e-09	1.987850e+01	4.923374e+02
1.660000e-06	2.937626e-06	7.479710e-09	1.987826e+01	4.925029e+02
1.670000e-06	2.936690e-06	7.479472e-09	1.987193e+01	4.924909e+02
1.680000e-06	2.934821e-06	7.472297e-09	1.985928e+01	4.923279e+02
1.690000e-06	2.932060e-06	7.464950e-09	1.984059e+01	4.920394e+02
1.700000e-06	2.928538e-06	7.456816e-09	1.981676e+01	4.916393e+02
1.710000e-06	2.924147e-06	7.445462e-09	1.978705e+01	4.911238e+02
1.720000e-06	2.918508e-06	7.437130e-09	1.974889e+01	4.904712e+02
1.730000e-06	2.911710e-06	7.443297e-09	1.970289e+01	4.896511e+02
1.740000e-06	2.904106e-06	7.415812e-09	1.965143e+01	4.886377e+02
1.750000e-06	2.895442e-06	7.319978e-09	1.959281e+01	4.874238e+02
1.760000e-06	2.885094e-06	7.281163e-09	1.952279e+01	4.860312e+02
1.770000e-06	2.873217e-06	7.412914e-09	1.944242e+01	4.845098e+02
1.780000e-06	2.860988e-06	7.428481e-09	1.935967e+01	4.829281e+02
1.790000e-06	2.848650e-06	7.260572e-09	1.927618e+01	4.813538e+02
1.800000e-06	2.834834e-06	7.184754e-09	1.918269e+01	4.798331e+02
1.810000e-06	2.819245e-06	7.339534e-09	1.907720e+01	4.783736e+02
1.820000e-06	2.803079e-06	7.270861e-09	1.896781e+01	4.769382e+02
1.830000e-06	2.786291e-06	7.098699e-09	1.885421e+01	4.754520e+02
1.840000e-06	2.768035e-06	7.282253e-09	1.873067e+01	4.738216e+02
1.850000e-06	2.748799e-06	7.279587e-09	1.860051e+01	4.719591e+02
1.860000e-06	2.729049e-06	7.034875e-09	1.846687e+01	4.698059e+02
1.870000e-06	2.708008e-06	7.143981e-09	1.832448e+01	4.673459e+02
1.880000e-06	2.685559e-06	7.213539e-09	1.817258e+01	4.646062e+02
1.890000e-06	2.662264e-06	6.925333e-09	1.801495e+01	4.616440e+02
1.900000e-06	2.638030e-06	6.937717e-09	1.785096e+01	4.585256e+02
1.910000e-06	2.612957e-06	7.073732e-09	1.768130e+01	4.553043e+02
1.920000e-06	2.587234e-06	6.905486e-09	1.750723e+01	4.520052e+02
1.930000e-06	2.560574e-06	6.811474e-09	1.732683e+01	4.486218e+02
1.940000e-06	2.533177e-06	6.838323e-09	1.714144e+01	4.451240e+02
1.950000e-06	2.505031e-06	6.725995e-09	1.695098e+01	4.414750e+02
1.960000e-06	2.475462e-06	6.711525e-09	1.675090e+01	4.376490e+02
1.970000e-06	2.444643e-06	6.620474e-09	1.654235e+01	4.336436e+02
1.980000e-06	2.413092e-06	6.489562e-09	1.632885e+01	4.294812e+02
1.990000e-06	2.380755e-06	6.565199e-09	1.611004e+01	4.252006e+02
2.000000e-06	2.347694e-06	6.464907e-09	1.588632e+01	4.208412e+02
2.010000e-06	2.313916e-06	6.314060e-09	1.565775e+01	4.164267e+02
2.020000e-06	2.279266e-06	6.341542e-09	1.542329e+01	4.119551e+02
2.030000e-06	2.244009e-06	6.213571e-09	1.518471e+01	4.073994e+02
2.040000e-06	2.208070e-06	6.113395e-09	1.494152e+01	4.027174e+02
2.050000e-06	2.171071e-06	6.146420e-09	1.469115e+01	3.978688e+02
2.060000e-06	2.133045e-06	5.994101e-09	1.443384e+01	3.928312e+02
2.070000e-06	2.094172e-06	5.894934e-09	1.417080e+01	3.876101e+02
2.080000e-06	2.054665e-06	5.879676e-09	1.390346e+01	3.822379e+02
2.090000e-06	2.014583e-06	5.762228e-09	1.363223e+01	3.767630e+02
2.100000e-06	1.973769e-06	5.678404e-09	1.335605e+01	3.712325e+02
2.110000e-06	1.932311e-06	5.587931e-09	1.307552e+01	3.656760e+02
2.120000e-06	1.890203e-06	5.500222e-09	1.279058e+01	3.600957e+02
2.130000e-06	1.847424e-06	5.446979e-09	1.250110e+01	3.544672e+02
2.140000e-06	1.804195e-06	5.334466e-09	1.220858e+01	3.487499e+02
2.150000e-06	1.760584e-06	5.232141e-09	1.191348e+01	3.429034e+02
2.160000e-06	1.716381e-06	5.150127e-09	1.161437e+01	3.369033e+02
2.170000e-06	1.671382e-06	5.057816e-09	1.130987e+01	3.307500e+02
2.180000e-06	1.625738e-06	4.975387e-09	1.100101e+01	3.244681e+02
2.190000e-06	1.579590e-06	4.863932e-09	1.068874e+01	3.180959e+02
2.200000e-06	1.532999e-06	4.761557e-09	1.037346e+01	3.116708e+02
2.210000e-06	1.485940e-06	4.676843e-09	1.005503e+01	3.052140e+02
2.220000e-06	1.438125e-06	4.576390e-09	9.731471e+00	2.987238e+02
2.230000e-06	1.389495e-06	4.480780e-09	9.402399e+00	2.921764e+02
2.240000e-06	1.340390e-06	4.356361e-09	9.070122e+00	2.855365e+02
2.250000e-06	1.290954e-06	4.255721e-09	8.735597e+00	2.787715e+02
2.260000e-06	1.241111e-06	4.173582e-09	8.398319e+00	2.718650e+02
2.270000e-06	1.190715e-06	4.054871e-09	8.057302e+00	2.648228e+02
2.280000e-06	1.139801e-06	3.944828e-09	7.712778e+00	2.576712e+02
2.290000e-06	1.088613e-06	3.836645e-09	7.366400e+00	2.504465e+02
2.300000e-06	1.037097e-06	3.733627e-09	7.017804e+00	2.431820e+02
2.310000e-06	9.851008e-07	3.626173e-09	6.665957e+00	2.358962e+02
2.320000e-06	9.324906e-07	3.498310e-09	6.309955e+00	2.285874e+02
2.330000e-06	8.793465e-07	3.382604e-09	5.950341e+00	2.212373e+02
2.340000e-06	8.257119e-07	3.275834e-09	5.587408e+00	2.138202e+02
2.350000e-06	7.715101e-07	3.165984e-09	5.220636e+00	2.063157e+02
2.360000e-06	7.169457e-07	3.052770e-09	4.851411e+00	1.987177e+02
2.370000e-06	6.620994e-07	2.928695e-09	4.480279e+00	1.910376e+02
2.380000e-06	6.070060e-07	2.815079e-09	4.107474e+00	1.832996e+02
2.390000e-06	5.518024e-07	2.703222e-09	3.733924e+00	1.755305e+02
2.400000e-06	4.965273e-07	2.578203e-09	3.359889e+00	1.677471e+02
2.410000e-06	4.411789e-07	2.452800e-09	2.985359e+00	1.599488e+02
2.420000e-06	3.857881e-07	2.329341e-09	2.610542e+00	1.521156e+02
2.430000e-06	3.303021e-07	2.216630e-09	2.235081e+00	1.442151e+02
2.440000e-06	2.747077e-07	2.099418e-09	1.858886e+00	1.362138e+02
2.450000e-06	2.189981e-07	1.972946e-09	1.481911e+00	1.280897e+02
2.460000e-06	1.632341e-07	1.848783e-09	1.104569e+00	1.198408e+02
2.470000e-06	1.074863e-07	1.723212e-09	7.273358e-01	1.114862e+02
2.480000e-06	5.168211e-08	1.597239e-09	3.497213e-01	1.030590e+02
2.490000e-06	-4.123804e-09	1.465699e-09	-2.790486e-02	9.459486e+01
2.500000e-06	-5.989644e-08	1.334600e-09	-4.053058e-01	8.611916e+01
2.510000e-06	-1.156800e-07	1.210115e-09	-7.827810e-01	7.763817e+01
2.520000e-06	-1.713919e-07	1.083549e-09	-1.159771e+00	6.913744e+01
2.530000e-06	-2.270083e-07	9.485477e-10	-1.536114e+00	6.058743e+01
2.540000e-06	-2.826140e-07	8.106101e-10	-1.912386e+00	5.195414e+01
2.550000e-06	-3.381351e-07	6.792872e-10	-2.288085e+00	4.321054e+01
2.560000e-06	-3.935426e-07	5.509126e-10	-2.663015e+00	3.434460e+01
2.570000e-06	-4.489293e-07	4.128475e-10	-3.037804e+00	2.536107e+01
2.580000e-06	-5.042456e-07	2.682367e-10	-3.412117e+00	1.627692e+01
2.590000e-06	-5.594695e-07	1.296713e-10	-3.785805e+00	7.112569e+00
2.600000e-06	-6.146015e-07	-7.008618e-12	-4.158871e+00	-2.117329e+00
2.610000e-06	-6.695607e-07	-1.501658e-10	-4.530767e+00	-1.140995e+01
2.620000e-06	-7.242976e-07	-3.009242e-10	-4.901160e+00	-2.077492e+01
2.630000e-06	-7.787450e-07	-4.474632e-10	-5.269594e+00	-3.022961e+01
2.640000e-06	-8.328137e-07	-5.867526e-10	-5.635464e+00	-3.979124e+01
2.650000e-06	-8.862993e-07	-7.274230e-10	-5.997389e+00	-4.946913e+01
2.660000e-06	-9.391223e-07	-8.768826e-10	-6.354831e+00	-5.926021e+01
2.670000e-06	-9.914114e-07	-1.032985e-09	-6.708659e+00	-6.914950e+01
2.680000e-06	-1.043216e-06	-1.186699e-09	-7.059210e+00	-7.911522e+01
2.690000e-06	-1.094663e-06	-1.339875e-09	-7.407343e+00	-8.913633e+01
2.700000e-06	-1.145798e-06	-1.497341e-09	-7.753357e+00	-9.919940e+01
2.710000e-06	-1.196544e-06	-1.657498e-09	-8.096744e+00	-1.093021e+02
2.720000e-06	-1.246883e-06	-1.812559e-09	-8.437381e+00	-1.194523e+02
2.730000e-06	-1.296702e-06	-1.962946e-09	-8.774495e+00	-1.296621e+02
2.740000e-06	-1.346037e-06	-2.114401e-09	-9.108331e+00	-1.399416e+02
2.750000e-06	-1.394837e-06	-2.271325e-09	-9.438548e+00	-1.502913e+02
2.760000e-06	-1.442806e-06	-2.431315e-09	-9.763147e+00	-1.606997e+02
2.770000e-06	-1.489908e-06	-2.591440e-09	-1.008187e+01	-1.711442e+02
2.780000e-06	-1.536278e-06	-2.752983e-09	-1.039565e+01	-1.815959e+02
2.790000e-06	-1.582156e-06	-2.915977e-09	-1.070609e+01	-1.920263e+02
2.800000e-06	-1.627710e-06	-3.078130e-09	-1.101435e+01	-2.024141e+02
2.810000e-06	-1.672827e-06	-3.233305e-09	-1.131964e+01	-2.127474e+02
2.820000e-06	-1.717394e-06	-3.383669e-09	-1.162122e+01	-2.230240e+02
2.830000e-06	-1.761400e-06	-3.535495e-09	-1.191900e+01	-2.332474e+02
2.840000e-06	-1.804914e-06	-3.690910e-09	-1.221345e+01	-2.434208e+02
2.850000e-06	-1.847984e-06	-3.847776e-09	-1.250489e+01	-2.535423e+02
2.860000e-06	-1.890448e-06	-4.004462e-09	-1.279224e+01	-2.636017e+02
2.870000e-06	-1.932247e-06	-4.161121e-09	-1.307509e+01	-2.735806e+02
2.880000e-06	-1.973453e-06	-4.316396e-09	-1.335392e+01	-2.834546e+02
2.890000e-06	-2.013971e-06	-4.466688e-09	-1.362809e+01	-2.931974e+02
2.900000e-06	-2.053798e-06	-4.610422e-09	-1.389759e+01	-3.027843e+02
2.910000e-06	-2.093093e-06	-4.750884e-09	-1.416349e+01	-3.121948e+02
2.920000e-06	-2.131763e-06	-4.891186e-09	-1.442516e+01	-3.214124e+02
2.930000e-06	-2.169490e-06	-5.030538e-09	-1.468046e+01	-3.304226e+02
2.940000e-06	-2.206081e-06	-5.167332e-09	-1.492806e+01	-3.392113e+02
