# Temperatura_=_16.82
# Concentracion g/m^3_=_18700.0
# C_Vs_to_Am_M_A/Vsm_=_65563218390.804596
# pendiente_HvsI_1/m_=_3716.3
# ordenada_HvsI_A/m_=_1297.0
# frecuencia_Hz_=_301041.7107996888

Tiempo_(s)	Campo_(V.s)	Magnetizacion_(V.s)	Campo_(kA/m)	Magnetizacion_(A/m)
0.000000e+00	-2.929519e-06	-7.144648e-09	-1.977907e+01	-4.659331e+02
1.000000e-08	-2.928952e-06	-7.148117e-09	-1.977525e+01	-4.659296e+02
2.000000e-08	-2.927490e-06	-7.146693e-09	-1.976537e+01	-4.657735e+02
3.000000e-08	-2.924761e-06	-7.139279e-09	-1.974695e+01	-4.654806e+02
4.000000e-08	-2.920844e-06	-7.130370e-09	-1.972050e+01	-4.650568e+02
5.000000e-08	-2.916109e-06	-7.122726e-09	-1.968853e+01	-4.644939e+02
6.000000e-08	-2.910525e-06	-7.115079e-09	-1.965083e+01	-4.637730e+02
7.000000e-08	-2.903974e-06	-7.106554e-09	-1.960660e+01	-4.628731e+02
8.000000e-08	-2.896441e-06	-7.086968e-09	-1.955574e+01	-4.617843e+02
9.000000e-08	-2.887699e-06	-7.092981e-09	-1.949672e+01	-4.605191e+02
1.000000e-07	-2.877477e-06	-7.093813e-09	-1.942770e+01	-4.591171e+02
1.100000e-07	-2.865857e-06	-7.074283e-09	-1.934925e+01	-4.576394e+02
1.200000e-07	-2.853356e-06	-6.952367e-09	-1.926485e+01	-4.561549e+02
1.300000e-07	-2.840122e-06	-6.918854e-09	-1.917550e+01	-4.547192e+02
1.400000e-07	-2.825839e-06	-6.997116e-09	-1.907906e+01	-4.533566e+02
1.500000e-07	-2.810443e-06	-6.961868e-09	-1.897512e+01	-4.520475e+02
1.600000e-07	-2.793930e-06	-6.874398e-09	-1.886363e+01	-4.507301e+02
1.700000e-07	-2.776147e-06	-6.896115e-09	-1.874356e+01	-4.493133e+02
1.800000e-07	-2.757271e-06	-6.936086e-09	-1.861612e+01	-4.476997e+02
1.900000e-07	-2.737734e-06	-6.767394e-09	-1.848421e+01	-4.458096e+02
2.000000e-07	-2.717452e-06	-6.740607e-09	-1.834728e+01	-4.436012e+02
2.100000e-07	-2.696163e-06	-6.789024e-09	-1.820354e+01	-4.410774e+02
2.200000e-07	-2.674021e-06	-6.637845e-09	-1.805404e+01	-4.382807e+02
2.300000e-07	-2.651092e-06	-6.619840e-09	-1.789923e+01	-4.352761e+02
2.400000e-07	-2.627209e-06	-6.685736e-09	-1.773798e+01	-4.321294e+02
2.500000e-07	-2.602519e-06	-6.516850e-09	-1.757129e+01	-4.288879e+02
2.600000e-07	-2.576863e-06	-6.421926e-09	-1.739807e+01	-4.255689e+02
2.700000e-07	-2.549890e-06	-6.455268e-09	-1.721595e+01	-4.221607e+02
2.800000e-07	-2.521893e-06	-6.390177e-09	-1.702692e+01	-4.186323e+02
2.900000e-07	-2.493171e-06	-6.312792e-09	-1.683300e+01	-4.149497e+02
3.000000e-07	-2.463563e-06	-6.262787e-09	-1.663310e+01	-4.110900e+02
3.100000e-07	-2.433116e-06	-6.202939e-09	-1.642753e+01	-4.070510e+02
3.200000e-07	-2.401993e-06	-6.154478e-09	-1.621740e+01	-4.028506e+02
3.300000e-07	-2.370098e-06	-6.091765e-09	-1.600206e+01	-3.985191e+02
3.400000e-07	-2.337471e-06	-5.963009e-09	-1.578177e+01	-3.940872e+02
3.500000e-07	-2.304120e-06	-5.929060e-09	-1.555660e+01	-3.895750e+02
3.600000e-07	-2.269728e-06	-5.884881e-09	-1.532440e+01	-3.849857e+02
3.700000e-07	-2.234163e-06	-5.792130e-09	-1.508428e+01	-3.803074e+02
3.800000e-07	-2.197753e-06	-5.738481e-09	-1.483845e+01	-3.755199e+02
3.900000e-07	-2.160716e-06	-5.640165e-09	-1.458839e+01	-3.706050e+02
4.000000e-07	-2.123004e-06	-5.552841e-09	-1.433377e+01	-3.655548e+02
4.100000e-07	-2.084532e-06	-5.509004e-09	-1.407402e+01	-3.603758e+02
4.200000e-07	-2.045229e-06	-5.425315e-09	-1.380866e+01	-3.550865e+02
4.300000e-07	-2.005206e-06	-5.304566e-09	-1.353844e+01	-3.497099e+02
4.400000e-07	-1.964700e-06	-5.239865e-09	-1.326496e+01	-3.442651e+02
4.500000e-07	-1.923720e-06	-5.172190e-09	-1.298828e+01	-3.387601e+02
4.600000e-07	-1.881919e-06	-5.084525e-09	-1.270605e+01	-3.331898e+02
4.700000e-07	-1.839057e-06	-4.984205e-09	-1.241666e+01	-3.275386e+02
4.800000e-07	-1.795268e-06	-4.894241e-09	-1.212101e+01	-3.217877e+02
4.900000e-07	-1.750872e-06	-4.820632e-09	-1.182127e+01	-3.159228e+02
5.000000e-07	-1.706029e-06	-4.732538e-09	-1.151850e+01	-3.099398e+02
5.100000e-07	-1.660588e-06	-4.630810e-09	-1.121170e+01	-3.038464e+02
5.200000e-07	-1.614538e-06	-4.518446e-09	-1.090079e+01	-2.976587e+02
5.300000e-07	-1.567983e-06	-4.433879e-09	-1.058647e+01	-2.913952e+02
5.400000e-07	-1.520846e-06	-4.346234e-09	-1.026822e+01	-2.850699e+02
5.500000e-07	-1.473076e-06	-4.253502e-09	-9.945686e+00	-2.786879e+02
5.600000e-07	-1.424876e-06	-4.146891e-09	-9.620260e+00	-2.722443e+02
5.700000e-07	-1.376381e-06	-4.041656e-09	-9.292838e+00	-2.657276e+02
5.800000e-07	-1.327379e-06	-3.946151e-09	-8.961993e+00	-2.591248e+02
5.900000e-07	-1.277673e-06	-3.845657e-09	-8.626398e+00	-2.524271e+02
6.000000e-07	-1.227210e-06	-3.730896e-09	-8.285690e+00	-2.456329e+02
6.100000e-07	-1.176015e-06	-3.615026e-09	-7.940033e+00	-2.387486e+02
6.200000e-07	-1.124258e-06	-3.524076e-09	-7.590591e+00	-2.317859e+02
6.300000e-07	-1.072086e-06	-3.423998e-09	-7.238343e+00	-2.247578e+02
6.400000e-07	-1.019591e-06	-3.312067e-09	-6.883920e+00	-2.176744e+02
6.500000e-07	-9.666851e-07	-3.193355e-09	-6.526715e+00	-2.105411e+02
6.600000e-07	-9.133595e-07	-3.088664e-09	-6.166679e+00	-2.033585e+02
6.700000e-07	-8.597033e-07	-2.984582e-09	-5.804412e+00	-1.961246e+02
6.800000e-07	-8.057358e-07	-2.868264e-09	-5.440043e+00	-1.888372e+02
6.900000e-07	-7.514891e-07	-2.749189e-09	-5.073788e+00	-1.814961e+02
7.000000e-07	-6.970537e-07	-2.634439e-09	-4.706259e+00	-1.741032e+02
7.100000e-07	-6.425106e-07	-2.530439e-09	-4.338004e+00	-1.666619e+02
7.200000e-07	-5.877755e-07	-2.417738e-09	-3.968452e+00	-1.591746e+02
7.300000e-07	-5.328114e-07	-2.297573e-09	-3.597354e+00	-1.516407e+02
7.400000e-07	-4.776754e-07	-2.175432e-09	-3.225095e+00	-1.440562e+02
7.500000e-07	-4.223277e-07	-2.064184e-09	-2.851407e+00	-1.364147e+02
7.600000e-07	-3.667219e-07	-1.951560e-09	-2.475976e+00	-1.287091e+02
7.700000e-07	-3.109619e-07	-1.828974e-09	-2.099505e+00	-1.209346e+02
7.800000e-07	-2.551257e-07	-1.702020e-09	-1.722519e+00	-1.130905e+02
7.900000e-07	-1.991961e-07	-1.581525e-09	-1.344901e+00	-1.051804e+02
8.000000e-07	-1.431756e-07	-1.467648e-09	-9.666712e-01	-9.721136e+01
8.100000e-07	-8.706963e-08	-1.342286e-09	-5.878633e-01	-8.919179e+01
8.200000e-07	-3.092779e-08	-1.213246e-09	-2.088135e-01	-8.112904e+01
8.300000e-07	2.517590e-08	-1.088445e-09	1.699788e-01	-7.302782e+01
8.400000e-07	8.120909e-08	-9.708231e-10	5.482950e-01	-6.488961e+01
8.500000e-07	1.372416e-07	-8.467791e-10	9.266064e-01	-5.671316e+01
8.600000e-07	1.932712e-07	-7.171860e-10	1.304899e+00	-4.849546e+01
8.700000e-07	2.491970e-07	-5.888091e-10	1.682490e+00	-4.023260e+01
8.800000e-07	3.050621e-07	-4.639186e-10	2.059671e+00	-3.192015e+01
8.900000e-07	3.607760e-07	-3.394129e-10	2.435832e+00	-2.355302e+01
9.000000e-07	4.162913e-07	-2.084859e-10	2.810651e+00	-1.512523e+01
9.100000e-07	4.716163e-07	-7.872576e-11	3.184186e+00	-6.630086e+00
9.200000e-07	5.267644e-07	4.984105e-11	3.556526e+00	1.938980e+00
9.300000e-07	5.817602e-07	1.783384e-10	3.927839e+00	1.058688e+01
9.400000e-07	6.365907e-07	3.115871e-10	4.298034e+00	1.931532e+01
9.500000e-07	6.912470e-07	4.454480e-10	4.667055e+00	2.812191e+01
9.600000e-07	7.456899e-07	5.806889e-10	5.034634e+00	3.700061e+01
9.700000e-07	7.998895e-07	7.169622e-10	5.400570e+00	4.594346e+01
9.800000e-07	8.537857e-07	8.541626e-10	5.764458e+00	5.494322e+01
9.900000e-07	9.073572e-07	9.933140e-10	6.126154e+00	6.399580e+01
1.000000e-06	9.605497e-07	1.129499e-09	6.485291e+00	7.310141e+01
1.010000e-06	1.013401e-06	1.265326e-09	6.842123e+00	8.226384e+01
1.020000e-06	1.065951e-06	1.402890e-09	7.196926e+00	9.148788e+01
1.030000e-06	1.118080e-06	1.546171e-09	7.548882e+00	1.007759e+02
1.040000e-06	1.169718e-06	1.689144e-09	7.897523e+00	1.101247e+02
1.050000e-06	1.220770e-06	1.830044e-09	8.242208e+00	1.195245e+02
1.060000e-06	1.271036e-06	1.973271e-09	8.581583e+00	1.289597e+02
1.070000e-06	1.320560e-06	2.119792e-09	8.915954e+00	1.384126e+02
1.080000e-06	1.369525e-06	2.263738e-09	9.246549e+00	1.478668e+02
1.090000e-06	1.418071e-06	2.404372e-09	9.574314e+00	1.573108e+02
1.100000e-06	1.466249e-06	2.547265e-09	9.899594e+00	1.667395e+02
1.110000e-06	1.513946e-06	2.690471e-09	1.022163e+01	1.761522e+02
1.120000e-06	1.561090e-06	2.833764e-09	1.053993e+01	1.855497e+02
1.130000e-06	1.607682e-06	2.976612e-09	1.085450e+01	1.949301e+02
1.140000e-06	1.653725e-06	3.119975e-09	1.116537e+01	2.042863e+02
1.150000e-06	1.699169e-06	3.262362e-09	1.147219e+01	2.136052e+02
1.160000e-06	1.744067e-06	3.402242e-09	1.177532e+01	2.228705e+02
1.170000e-06	1.788581e-06	3.540283e-09	1.207587e+01	2.320666e+02
1.180000e-06	1.832670e-06	3.678756e-09	1.237354e+01	2.411827e+02
1.190000e-06	1.876053e-06	3.818361e-09	1.266644e+01	2.502144e+02
1.200000e-06	1.918456e-06	3.954992e-09	1.295274e+01	2.591628e+02
1.210000e-06	1.959883e-06	4.087871e-09	1.323243e+01	2.680306e+02
1.220000e-06	2.000591e-06	4.218359e-09	1.350728e+01	2.768162e+02
1.230000e-06	2.040752e-06	4.351291e-09	1.377844e+01	2.855092e+02
1.240000e-06	2.080281e-06	4.484660e-09	1.404532e+01	2.940880e+02
1.250000e-06	2.119108e-06	4.612054e-09	1.430747e+01	3.025226e+02
1.260000e-06	2.157203e-06	4.733328e-09	1.456467e+01	3.107793e+02
1.270000e-06	2.194545e-06	4.854050e-09	1.481679e+01	3.188282e+02
1.280000e-06	2.231256e-06	4.975778e-09	1.506465e+01	3.266497e+02
1.290000e-06	2.267361e-06	5.092532e-09	1.530842e+01	3.342373e+02
1.300000e-06	2.302557e-06	5.203163e-09	1.554605e+01	3.415969e+02
1.310000e-06	2.336606e-06	5.309483e-09	1.577593e+01	3.487411e+02
1.320000e-06	2.369676e-06	5.415265e-09	1.599921e+01	3.556834e+02
1.330000e-06	2.401981e-06	5.518078e-09	1.621732e+01	3.624315e+02
1.340000e-06	2.433571e-06	5.615672e-09	1.643061e+01	3.689844e+02
1.350000e-06	2.464383e-06	5.709891e-09	1.663864e+01	3.753338e+02
1.360000e-06	2.494352e-06	5.802329e-09	1.684098e+01	3.814677e+02
1.370000e-06	2.523492e-06	5.891592e-09	1.703772e+01	3.873768e+02
1.380000e-06	2.551935e-06	5.976225e-09	1.722976e+01	3.930581e+02
1.390000e-06	2.579625e-06	6.058198e-09	1.741671e+01	3.985165e+02
1.400000e-06	2.606190e-06	6.137481e-09	1.759607e+01	4.037629e+02
1.410000e-06	2.631474e-06	6.214265e-09	1.776678e+01	4.088088e+02
1.420000e-06	2.655736e-06	6.286830e-09	1.793059e+01	4.136612e+02
1.430000e-06	2.679158e-06	6.355668e-09	1.808873e+01	4.183194e+02
1.440000e-06	2.701703e-06	6.421024e-09	1.824094e+01	4.227746e+02
1.450000e-06	2.723364e-06	6.483494e-09	1.838719e+01	4.270136e+02
1.460000e-06	2.744199e-06	6.543638e-09	1.852786e+01	4.310237e+02
1.470000e-06	2.764256e-06	6.600202e-09	1.866328e+01	4.347977e+02
1.480000e-06	2.783410e-06	6.652897e-09	1.879259e+01	4.383367e+02
1.490000e-06	2.801485e-06	6.701606e-09	1.891463e+01	4.416486e+02
1.500000e-06	2.818479e-06	6.746942e-09	1.902937e+01	4.447442e+02
1.510000e-06	2.834411e-06	6.788842e-09	1.913694e+01	4.476327e+02
1.520000e-06	2.849258e-06	6.827883e-09	1.923718e+01	4.503172e+02
1.530000e-06	2.863075e-06	6.863450e-09	1.933046e+01	4.527945e+02
1.540000e-06	2.875859e-06	6.895300e-09	1.941678e+01	4.550581e+02
1.550000e-06	2.887514e-06	6.925384e-09	1.949547e+01	4.571030e+02
1.560000e-06	2.897834e-06	6.953722e-09	1.956515e+01	4.589315e+02
1.570000e-06	2.906923e-06	6.979724e-09	1.962652e+01	4.605553e+02
1.580000e-06	2.915068e-06	7.003460e-09	1.968151e+01	4.619944e+02
1.590000e-06	2.922261e-06	7.023586e-09	1.973007e+01	4.632721e+02
1.600000e-06	2.928455e-06	7.039698e-09	1.977189e+01	4.644074e+02
1.610000e-06	2.933684e-06	7.052302e-09	1.980720e+01	4.654093e+02
1.620000e-06	2.938052e-06	7.061839e-09	1.983668e+01	4.662743e+02
1.630000e-06	2.941368e-06	7.069152e-09	1.985907e+01	4.669889e+02
1.640000e-06	2.943377e-06	7.077865e-09	1.987264e+01	4.675361e+02
1.650000e-06	2.944245e-06	7.087559e-09	1.987850e+01	4.679037e+02
1.660000e-06	2.944157e-06	7.093644e-09	1.987791e+01	4.680898e+02
1.670000e-06	2.943123e-06	7.095390e-09	1.987092e+01	4.681042e+02
1.680000e-06	2.941220e-06	7.091778e-09	1.985807e+01	4.679640e+02
1.690000e-06	2.938470e-06	7.086880e-09	1.983951e+01	4.676858e+02
1.700000e-06	2.934929e-06	7.079141e-09	1.981560e+01	4.672765e+02
1.710000e-06	2.930477e-06	7.066294e-09	1.978554e+01	4.667298e+02
1.720000e-06	2.924809e-06	7.050163e-09	1.974728e+01	4.660273e+02
1.730000e-06	2.917982e-06	7.033800e-09	1.970118e+01	4.651478e+02
1.740000e-06	2.910268e-06	7.025720e-09	1.964910e+01	4.640796e+02
1.750000e-06	2.901476e-06	6.968354e-09	1.958974e+01	4.628323e+02
1.760000e-06	2.891073e-06	6.930226e-09	1.951950e+01	4.614428e+02
1.770000e-06	2.879243e-06	6.974029e-09	1.943963e+01	4.599704e+02
1.780000e-06	2.867005e-06	7.004645e-09	1.935700e+01	4.584839e+02
1.790000e-06	2.854506e-06	6.953876e-09	1.927261e+01	4.570417e+02
1.800000e-06	2.840534e-06	6.803471e-09	1.917828e+01	4.556717e+02
1.810000e-06	2.824947e-06	6.887357e-09	1.907304e+01	4.543597e+02
1.820000e-06	2.808713e-06	6.932044e-09	1.896344e+01	4.530476e+02
1.830000e-06	2.791780e-06	6.810491e-09	1.884911e+01	4.516467e+02
1.840000e-06	2.773539e-06	6.866534e-09	1.872595e+01	4.500589e+02
1.850000e-06	2.754328e-06	6.905588e-09	1.859624e+01	4.482017e+02
1.860000e-06	2.734473e-06	6.768491e-09	1.846219e+01	4.460285e+02
1.870000e-06	2.713392e-06	6.735950e-09	1.831986e+01	4.435375e+02
1.880000e-06	2.690973e-06	6.801426e-09	1.816850e+01	4.407676e+02
1.890000e-06	2.667645e-06	6.645947e-09	1.801099e+01	4.377824e+02
1.900000e-06	2.643348e-06	6.564109e-09	1.784695e+01	4.346487e+02
1.910000e-06	2.618204e-06	6.682993e-09	1.767718e+01	4.314164e+02
1.920000e-06	2.592418e-06	6.581285e-09	1.750309e+01	4.281063e+02
1.930000e-06	2.565733e-06	6.436511e-09	1.732292e+01	4.247093e+02
1.940000e-06	2.538291e-06	6.477542e-09	1.713764e+01	4.211960e+02
1.950000e-06	2.510085e-06	6.377006e-09	1.694721e+01	4.175317e+02
1.960000e-06	2.480498e-06	6.313356e-09	1.674744e+01	4.136920e+02
1.970000e-06	2.449662e-06	6.282752e-09	1.653925e+01	4.096721e+02
1.980000e-06	2.418073e-06	6.163623e-09	1.632597e+01	4.054881e+02
1.990000e-06	2.385679e-06	6.157275e-09	1.610726e+01	4.011696e+02
2.000000e-06	2.352543e-06	6.117167e-09	1.588354e+01	3.967477e+02
2.010000e-06	2.318677e-06	5.965540e-09	1.565488e+01	3.922440e+02
2.020000e-06	2.284010e-06	5.933521e-09	1.542082e+01	3.876638e+02
2.030000e-06	2.248710e-06	5.870301e-09	1.518249e+01	3.829964e+02
2.040000e-06	2.212646e-06	5.753158e-09	1.493900e+01	3.782221e+02
2.050000e-06	2.175422e-06	5.743419e-09	1.468768e+01	3.733218e+02
2.060000e-06	2.137184e-06	5.641094e-09	1.442951e+01	3.682865e+02
2.070000e-06	2.098224e-06	5.529901e-09	1.416647e+01	3.631211e+02
2.080000e-06	2.058610e-06	5.495777e-09	1.389900e+01	3.578429e+02
2.090000e-06	2.018373e-06	5.398494e-09	1.362734e+01	3.524751e+02
2.100000e-06	1.977472e-06	5.304698e-09	1.335119e+01	3.470374e+02
2.110000e-06	1.935955e-06	5.221887e-09	1.307088e+01	3.415394e+02
2.120000e-06	1.893759e-06	5.134440e-09	1.278599e+01	3.359771e+02
2.130000e-06	1.850890e-06	5.072013e-09	1.249655e+01	3.303360e+02
2.140000e-06	1.807578e-06	4.968918e-09	1.220413e+01	3.245970e+02
2.150000e-06	1.763824e-06	4.865140e-09	1.190872e+01	3.187452e+02
2.160000e-06	1.719446e-06	4.790261e-09	1.160909e+01	3.127751e+02
2.170000e-06	1.674282e-06	4.694521e-09	1.130416e+01	3.066933e+02
2.180000e-06	1.628433e-06	4.609033e-09	1.099460e+01	3.005153e+02
2.190000e-06	1.582187e-06	4.503159e-09	1.068237e+01	2.942596e+02
2.200000e-06	1.535486e-06	4.400996e-09	1.036706e+01	2.879409e+02
2.210000e-06	1.488223e-06	4.320738e-09	1.004796e+01	2.815655e+02
2.220000e-06	1.440285e-06	4.220366e-09	9.724295e+00	2.751294e+02
2.230000e-06	1.391596e-06	4.124479e-09	9.395563e+00	2.686216e+02
2.240000e-06	1.342440e-06	4.009986e-09	9.063678e+00	2.620291e+02
2.250000e-06	1.292941e-06	3.909118e-09	8.729477e+00	2.553422e+02
2.260000e-06	1.243002e-06	3.825380e-09	8.392306e+00	2.485586e+02
2.270000e-06	1.192501e-06	3.712192e-09	8.051347e+00	2.416839e+02
2.280000e-06	1.141511e-06	3.599754e-09	7.707081e+00	2.347295e+02
2.290000e-06	1.090237e-06	3.498319e-09	7.360893e+00	2.277082e+02
2.300000e-06	1.038567e-06	3.397226e-09	7.012034e+00	2.206309e+02
2.310000e-06	9.863431e-07	3.292041e-09	6.659439e+00	2.135033e+02
2.320000e-06	9.335000e-07	3.170889e-09	6.302661e+00	2.063265e+02
2.330000e-06	8.800396e-07	3.056139e-09	5.941715e+00	1.990987e+02
2.340000e-06	8.261292e-07	2.952656e-09	5.577732e+00	1.918175e+02
2.350000e-06	7.718220e-07	2.841041e-09	5.211069e+00	1.844825e+02
2.360000e-06	7.171022e-07	2.730639e-09	4.841620e+00	1.770955e+02
2.370000e-06	6.621059e-07	2.613996e-09	4.470304e+00	1.696597e+02
2.380000e-06	6.069672e-07	2.503316e-09	4.098027e+00	1.621777e+02
2.390000e-06	5.517313e-07	2.394880e-09	3.725094e+00	1.546494e+02
2.400000e-06	4.964096e-07	2.275520e-09	3.351581e+00	1.470711e+02
2.410000e-06	4.409972e-07	2.155900e-09	2.977457e+00	1.394365e+02
2.420000e-06	3.854949e-07	2.034792e-09	2.602725e+00	1.317385e+02
2.430000e-06	3.298996e-07	1.921311e-09	2.227365e+00	1.239720e+02
2.440000e-06	2.742020e-07	1.807016e-09	1.851315e+00	1.161357e+02
2.450000e-06	2.184401e-07	1.685036e-09	1.474830e+00	1.082328e+02
2.460000e-06	1.626256e-07	1.562781e-09	1.097990e+00	1.002701e+02
2.470000e-06	1.067291e-07	1.443084e-09	7.205971e-01	9.225601e+01
2.480000e-06	5.077901e-08	1.323529e-09	3.428419e-01	8.419806e+01
2.490000e-06	-5.182114e-09	1.198738e-09	-3.498779e-02	7.610128e+01
2.500000e-06	-6.116145e-08	1.073612e-09	-4.129404e-01	6.796751e+01
2.510000e-06	-1.170795e-07	9.528159e-10	-7.904793e-01	5.979573e+01
2.520000e-06	-1.728879e-07	8.307071e-10	-1.167278e+00	5.158308e+01
2.530000e-06	-2.286445e-07	7.006507e-10	-1.543727e+00	4.332571e+01
2.540000e-06	-2.843459e-07	5.682252e-10	-1.919803e+00	3.501926e+01
2.550000e-06	-3.399343e-07	4.404293e-10	-2.295116e+00	2.665871e+01
2.560000e-06	-3.954149e-07	3.177605e-10	-2.669701e+00	1.823819e+01
2.570000e-06	-4.508358e-07	1.907933e-10	-3.043884e+00	9.751037e+00
2.580000e-06	-5.061959e-07	5.699381e-11	-3.417655e+00	1.190622e+00
2.590000e-06	-5.614674e-07	-7.695495e-11	-3.790829e+00	-7.448229e+00
2.600000e-06	-6.166299e-07	-2.089081e-10	-4.163266e+00	-1.616762e+01
2.610000e-06	-6.716632e-07	-3.424793e-10	-4.534832e+00	-2.496563e+01
2.620000e-06	-7.264658e-07	-4.838417e-10	-4.904839e+00	-3.383651e+01
2.630000e-06	-7.809491e-07	-6.247492e-10	-5.272692e+00	-4.277242e+01
2.640000e-06	-8.350422e-07	-7.584391e-10	-5.637909e+00	-5.176590e+01
2.650000e-06	-8.886582e-07	-8.875396e-10	-5.999905e+00	-6.081243e+01
2.660000e-06	-9.417466e-07	-1.024231e-09	-6.358339e+00	-6.991178e+01
2.670000e-06	-9.942364e-07	-1.169846e-09	-6.712732e+00	-7.906743e+01
2.680000e-06	-1.046201e-06	-1.314359e-09	-7.063581e+00	-8.828423e+01
2.690000e-06	-1.097752e-06	-1.456616e-09	-7.411633e+00	-9.756495e+01
2.700000e-06	-1.148939e-06	-1.601567e-09	-7.757227e+00	-1.069071e+02
2.710000e-06	-1.199744e-06	-1.751029e-09	-8.100249e+00	-1.163017e+02
2.720000e-06	-1.250071e-06	-1.896729e-09	-8.440038e+00	-1.257335e+02
2.730000e-06	-1.299876e-06	-2.035546e-09	-8.776299e+00	-1.351849e+02
2.740000e-06	-1.349202e-06	-2.174141e-09	-9.109335e+00	-1.446391e+02
2.750000e-06	-1.397995e-06	-2.318792e-09	-9.438765e+00	-1.540842e+02
2.760000e-06	-1.446134e-06	-2.466157e-09	-9.763782e+00	-1.635141e+02
2.770000e-06	-1.493465e-06	-2.612190e-09	-1.008335e+01	-1.729280e+02
2.780000e-06	-1.540040e-06	-2.756752e-09	-1.039781e+01	-1.823267e+02
2.790000e-06	-1.586090e-06	-2.902239e-09	-1.070872e+01	-1.917088e+02
2.800000e-06	-1.631726e-06	-3.049103e-09	-1.101684e+01	-2.010676e+02
2.810000e-06	-1.676942e-06	-3.191900e-09	-1.132211e+01	-2.103908e+02
2.820000e-06	-1.721527e-06	-3.329781e-09	-1.162314e+01	-2.196622e+02
2.830000e-06	-1.765466e-06	-3.465690e-09	-1.191980e+01	-2.288659e+02
2.840000e-06	-1.808963e-06	-3.604955e-09	-1.221347e+01	-2.379904e+02
2.850000e-06	-1.852063e-06	-3.747642e-09	-1.250447e+01	-2.470307e+02
2.860000e-06	-1.894585e-06	-3.887935e-09	-1.279156e+01	-2.559875e+02
2.870000e-06	-1.936477e-06	-4.024845e-09	-1.307440e+01	-2.648634e+02
2.880000e-06	-1.977774e-06	-4.161477e-09	-1.335323e+01	-2.736577e+02
2.890000e-06	-2.018430e-06	-4.298429e-09	-1.362773e+01	-2.823609e+02
2.900000e-06	-2.058411e-06	-4.429874e-09	-1.389766e+01	-2.909529e+02
2.910000e-06	-2.097785e-06	-4.554633e-09	-1.416350e+01	-2.994041e+02
2.920000e-06	-2.136490e-06	-4.677841e-09	-1.442482e+01	-3.076810e+02
2.930000e-06	-2.174229e-06	-4.803079e-09	-1.467963e+01	-3.157528e+02
2.940000e-06	-2.210882e-06	-4.925828e-09	-1.492709e+01	-3.235988e+02
