# Temperatura_=_25.71
# Concentracion g/m^3_=_18700.0
# C_Vs_to_Am_M_A/Vsm_=_65563218390.804596
# pendiente_HvsI_1/m_=_3716.3
# ordenada_HvsI_A/m_=_1297.0
# frecuencia_Hz_=_301045.1799879357

Tiempo_(s)	Campo_(V.s)	Magnetizacion_(V.s)	Campo_(kA/m)	Magnetizacion_(A/m)
0.000000e+00	-2.920686e-06	-7.441737e-09	-1.977836e+01	-4.857664e+02
1.000000e-08	-2.920132e-06	-7.446047e-09	-1.977461e+01	-4.857783e+02
2.000000e-08	-2.918790e-06	-7.445970e-09	-1.976552e+01	-4.856287e+02
3.000000e-08	-2.916240e-06	-7.438655e-09	-1.974825e+01	-4.853392e+02
4.000000e-08	-2.912442e-06	-7.432227e-09	-1.972253e+01	-4.849247e+02
5.000000e-08	-2.907844e-06	-7.427030e-09	-1.969139e+01	-4.843852e+02
6.000000e-08	-2.902424e-06	-7.416067e-09	-1.965469e+01	-4.837034e+02
7.000000e-08	-2.895981e-06	-7.391698e-09	-1.961106e+01	-4.828517e+02
8.000000e-08	-2.888523e-06	-7.363102e-09	-1.956056e+01	-4.818064e+02
9.000000e-08	-2.880038e-06	-7.409128e-09	-1.950310e+01	-4.805648e+02
1.000000e-07	-2.870147e-06	-7.459136e-09	-1.943612e+01	-4.791572e+02
1.100000e-07	-2.858726e-06	-7.391462e-09	-1.935878e+01	-4.776487e+02
1.200000e-07	-2.846380e-06	-7.170051e-09	-1.927517e+01	-4.761260e+02
1.300000e-07	-2.833360e-06	-7.191411e-09	-1.918700e+01	-4.746735e+02
1.400000e-07	-2.819297e-06	-7.392139e-09	-1.909177e+01	-4.733447e+02
1.500000e-07	-2.804128e-06	-7.243911e-09	-1.898905e+01	-4.721382e+02
1.600000e-07	-2.787946e-06	-7.096877e-09	-1.887947e+01	-4.709897e+02
1.700000e-07	-2.770420e-06	-7.274791e-09	-1.876078e+01	-4.697823e+02
1.800000e-07	-2.751718e-06	-7.288822e-09	-1.863413e+01	-4.683746e+02
1.900000e-07	-2.732349e-06	-7.004683e-09	-1.850297e+01	-4.666391e+02
2.000000e-07	-2.712225e-06	-7.085847e-09	-1.836670e+01	-4.644968e+02
2.100000e-07	-2.691103e-06	-7.160882e-09	-1.822366e+01	-4.619390e+02
2.200000e-07	-2.669110e-06	-6.867592e-09	-1.807473e+01	-4.590264e+02
2.300000e-07	-2.646334e-06	-6.928716e-09	-1.792050e+01	-4.558677e+02
2.400000e-07	-2.622568e-06	-7.086837e-09	-1.775956e+01	-4.525833e+02
2.500000e-07	-2.597955e-06	-6.804078e-09	-1.759288e+01	-4.492679e+02
2.600000e-07	-2.572509e-06	-6.698276e-09	-1.742056e+01	-4.459631e+02
2.700000e-07	-2.545785e-06	-6.809245e-09	-1.723960e+01	-4.426504e+02
2.800000e-07	-2.517904e-06	-6.709714e-09	-1.705079e+01	-4.392655e+02
2.900000e-07	-2.489271e-06	-6.629551e-09	-1.685689e+01	-4.357267e+02
3.000000e-07	-2.459810e-06	-6.584028e-09	-1.665739e+01	-4.319688e+02
3.100000e-07	-2.429546e-06	-6.504022e-09	-1.645245e+01	-4.279675e+02
3.200000e-07	-2.398603e-06	-6.483416e-09	-1.624290e+01	-4.237470e+02
3.300000e-07	-2.366798e-06	-6.417340e-09	-1.602753e+01	-4.193687e+02
3.400000e-07	-2.334241e-06	-6.269284e-09	-1.580706e+01	-4.149061e+02
3.500000e-07	-2.301064e-06	-6.253821e-09	-1.558239e+01	-4.104160e+02
3.600000e-07	-2.266985e-06	-6.207872e-09	-1.535161e+01	-4.059177e+02
3.700000e-07	-2.231683e-06	-6.115632e-09	-1.511256e+01	-4.013872e+02
3.800000e-07	-2.195402e-06	-6.085806e-09	-1.486687e+01	-3.967696e+02
3.900000e-07	-2.158540e-06	-5.953386e-09	-1.461725e+01	-3.920023e+02
4.000000e-07	-2.121003e-06	-5.856044e-09	-1.436305e+01	-3.870409e+02
4.100000e-07	-2.082709e-06	-5.845136e-09	-1.410373e+01	-3.818772e+02
4.200000e-07	-2.043601e-06	-5.760428e-09	-1.383890e+01	-3.765415e+02
4.300000e-07	-2.003712e-06	-5.625404e-09	-1.356877e+01	-3.710908e+02
4.400000e-07	-1.963282e-06	-5.568252e-09	-1.329499e+01	-3.655850e+02
4.500000e-07	-1.922439e-06	-5.506784e-09	-1.301841e+01	-3.600643e+02
4.600000e-07	-1.880956e-06	-5.417323e-09	-1.273750e+01	-3.545334e+02
4.700000e-07	-1.838480e-06	-5.313339e-09	-1.244985e+01	-3.489620e+02
4.800000e-07	-1.794958e-06	-5.210184e-09	-1.215513e+01	-3.432980e+02
4.900000e-07	-1.750697e-06	-5.136877e-09	-1.185541e+01	-3.374896e+02
5.000000e-07	-1.705991e-06	-5.064858e-09	-1.155267e+01	-3.315070e+02
5.100000e-07	-1.660807e-06	-4.971723e-09	-1.124668e+01	-3.253543e+02
5.200000e-07	-1.615034e-06	-4.844086e-09	-1.093672e+01	-3.190673e+02
5.300000e-07	-1.568699e-06	-4.754256e-09	-1.062295e+01	-3.126991e+02
5.400000e-07	-1.521777e-06	-4.673616e-09	-1.030520e+01	-3.062979e+02
5.500000e-07	-1.474256e-06	-4.580085e-09	-9.983397e+00	-2.998882e+02
5.600000e-07	-1.426229e-06	-4.468994e-09	-9.658165e+00	-2.934612e+02
5.700000e-07	-1.377821e-06	-4.361370e-09	-9.330352e+00	-2.869790e+02
5.800000e-07	-1.329020e-06	-4.272319e-09	-8.999887e+00	-2.803908e+02
5.900000e-07	-1.279683e-06	-4.176278e-09	-8.665785e+00	-2.736542e+02
6.000000e-07	-1.229614e-06	-4.057589e-09	-8.326724e+00	-2.667529e+02
6.100000e-07	-1.178768e-06	-3.932285e-09	-7.982405e+00	-2.597037e+02
6.200000e-07	-1.127274e-06	-3.838572e-09	-7.633694e+00	-2.525512e+02
6.300000e-07	-1.075260e-06	-3.740593e-09	-7.281469e+00	-2.453503e+02
6.400000e-07	-1.022898e-06	-3.627693e-09	-6.926880e+00	-2.381462e+02
6.500000e-07	-9.702141e-07	-3.504236e-09	-6.570115e+00	-2.309577e+02
6.600000e-07	-9.171551e-07	-3.397653e-09	-6.210809e+00	-2.237720e+02
6.700000e-07	-8.637902e-07	-3.298974e-09	-5.849432e+00	-2.165514e+02
6.800000e-07	-8.101172e-07	-3.183799e-09	-5.485968e+00	-2.092495e+02
6.900000e-07	-7.561029e-07	-3.058238e-09	-5.120192e+00	-2.018305e+02
7.000000e-07	-7.018320e-07	-2.936131e-09	-4.752680e+00	-1.942829e+02
7.100000e-07	-6.473871e-07	-2.832983e-09	-4.383989e+00	-1.866233e+02
7.200000e-07	-5.928126e-07	-2.720997e-09	-4.014420e+00	-1.788880e+02
7.300000e-07	-5.380962e-07	-2.595688e-09	-3.643890e+00	-1.711173e+02
7.400000e-07	-4.831907e-07	-2.468601e-09	-3.272080e+00	-1.633384e+02
7.500000e-07	-4.281110e-07	-2.355745e-09	-2.899090e+00	-1.555540e+02
7.600000e-07	-3.728574e-07	-2.245206e-09	-2.524923e+00	-1.477411e+02
7.700000e-07	-3.173727e-07	-2.122156e-09	-2.149191e+00	-1.398609e+02
7.800000e-07	-2.617505e-07	-1.990143e-09	-1.772527e+00	-1.318748e+02
7.900000e-07	-2.060329e-07	-1.864714e-09	-1.395218e+00	-1.237602e+02
8.000000e-07	-1.501760e-07	-1.749711e-09	-1.016965e+00	-1.155202e+02
8.100000e-07	-9.422916e-08	-1.623049e-09	-6.381028e-01	-1.071825e+02
8.200000e-07	-3.827459e-08	-1.487931e-09	-2.591886e-01	-9.878868e+01
8.300000e-07	1.770541e-08	-1.354512e-09	1.198979e-01	-9.037853e+01
8.400000e-07	7.371138e-08	-1.232805e-09	4.991602e-01	-8.197450e+01
8.500000e-07	1.296413e-07	-1.110263e-09	8.779077e-01	-7.357349e+01
8.600000e-07	1.854848e-07	-9.779609e-10	1.256069e+00	-6.514837e+01
8.700000e-07	2.412491e-07	-8.414533e-10	1.633695e+00	-5.665835e+01
8.800000e-07	2.969386e-07	-7.108442e-10	2.010815e+00	-4.806399e+01
8.900000e-07	3.525457e-07	-5.842922e-10	2.387376e+00	-3.934074e+01
9.000000e-07	4.080019e-07	-4.487842e-10	2.762915e+00	-3.048609e+01
9.100000e-07	4.632497e-07	-3.094663e-10	3.137043e+00	-2.151770e+01
9.200000e-07	5.183203e-07	-1.711025e-10	3.509972e+00	-1.246405e+01
9.300000e-07	5.732435e-07	-3.622727e-11	3.881901e+00	-3.351527e+00
9.400000e-07	6.279649e-07	1.030386e-10	4.252465e+00	5.806576e+00
9.500000e-07	6.825051e-07	2.448817e-10	4.621802e+00	1.501498e+01
9.600000e-07	7.368556e-07	3.867299e-10	4.989853e+00	2.429364e+01
9.700000e-07	7.909118e-07	5.279645e-10	5.355912e+00	3.366872e+01
9.800000e-07	8.446479e-07	6.702234e-10	5.719803e+00	4.316148e+01
9.900000e-07	8.980838e-07	8.179962e-10	6.081661e+00	5.277930e+01
1.000000e-06	9.511673e-07	9.655518e-10	6.441133e+00	6.251261e+01
1.010000e-06	1.003888e-06	1.112688e-09	6.798146e+00	7.233832e+01
1.020000e-06	1.056309e-06	1.260288e-09	7.153134e+00	8.222819e+01
1.030000e-06	1.108332e-06	1.414023e-09	7.505421e+00	9.215838e+01
1.040000e-06	1.159766e-06	1.568772e-09	7.853724e+00	1.021165e+02
1.050000e-06	1.210540e-06	1.720174e-09	8.197560e+00	1.121034e+02
1.060000e-06	1.260581e-06	1.871673e-09	8.536425e+00	1.221295e+02
1.070000e-06	1.309906e-06	2.026869e-09	8.870445e+00	1.322076e+02
1.080000e-06	1.358741e-06	2.182336e-09	9.201149e+00	1.423452e+02
1.090000e-06	1.407229e-06	2.335670e-09	9.529501e+00	1.525392e+02
1.100000e-06	1.455368e-06	2.489895e-09	9.855490e+00	1.627753e+02
1.110000e-06	1.503043e-06	2.644895e-09	1.017834e+01	1.730314e+02
1.120000e-06	1.550135e-06	2.802445e-09	1.049724e+01	1.832839e+02
1.130000e-06	1.596691e-06	2.960732e-09	1.081251e+01	1.935129e+02
1.140000e-06	1.642707e-06	3.118933e-09	1.112411e+01	2.037061e+02
1.150000e-06	1.688114e-06	3.274253e-09	1.143161e+01	2.138587e+02
1.160000e-06	1.733001e-06	3.427320e-09	1.173557e+01	2.239701e+02
1.170000e-06	1.777525e-06	3.579987e-09	1.203708e+01	2.340398e+02
1.180000e-06	1.821632e-06	3.731550e-09	1.233576e+01	2.440636e+02
1.190000e-06	1.864982e-06	3.883530e-09	1.262932e+01	2.540316e+02
1.200000e-06	1.907327e-06	4.034738e-09	1.291608e+01	2.639289e+02
1.210000e-06	1.948712e-06	4.185352e-09	1.319633e+01	2.737374e+02
1.220000e-06	1.989377e-06	4.333618e-09	1.347170e+01	2.834381e+02
1.230000e-06	2.029519e-06	4.480131e-09	1.374354e+01	2.930126e+02
1.240000e-06	2.069064e-06	4.623531e-09	1.401133e+01	3.024426e+02
1.250000e-06	2.107920e-06	4.761310e-09	1.427446e+01	3.117093e+02
1.260000e-06	2.146023e-06	4.895828e-09	1.453248e+01	3.207921e+02
1.270000e-06	2.183325e-06	5.028547e-09	1.478509e+01	3.296687e+02
1.280000e-06	2.220017e-06	5.161109e-09	1.503356e+01	3.383163e+02
1.290000e-06	2.256198e-06	5.290307e-09	1.527856e+01	3.467144e+02
1.300000e-06	2.291547e-06	5.414808e-09	1.551795e+01	3.548480e+02
1.310000e-06	2.325705e-06	5.533081e-09	1.574925e+01	3.627086e+02
1.320000e-06	2.358789e-06	5.647284e-09	1.597329e+01	3.702950e+02
1.330000e-06	2.391142e-06	5.757523e-09	1.619238e+01	3.776108e+02
1.340000e-06	2.422767e-06	5.862895e-09	1.640654e+01	3.846617e+02
1.350000e-06	2.453600e-06	5.963944e-09	1.661533e+01	3.914525e+02
1.360000e-06	2.483629e-06	6.061025e-09	1.681868e+01	3.979858e+02
1.370000e-06	2.512791e-06	6.154902e-09	1.701617e+01	4.042626e+02
1.380000e-06	2.541291e-06	6.245125e-09	1.720916e+01	4.102835e+02
1.390000e-06	2.569078e-06	6.333405e-09	1.739733e+01	4.160516e+02
1.400000e-06	2.595668e-06	6.417914e-09	1.757739e+01	4.215726e+02
1.410000e-06	2.620968e-06	6.497134e-09	1.774873e+01	4.268549e+02
1.420000e-06	2.645313e-06	6.571681e-09	1.791359e+01	4.319068e+02
1.430000e-06	2.668778e-06	6.644126e-09	1.807248e+01	4.367338e+02
1.440000e-06	2.691326e-06	6.713111e-09	1.822517e+01	4.413367e+02
1.450000e-06	2.712998e-06	6.776759e-09	1.837193e+01	4.457115e+02
1.460000e-06	2.733868e-06	6.837313e-09	1.851326e+01	4.498511e+02
1.470000e-06	2.754026e-06	6.896393e-09	1.864977e+01	4.537495e+02
1.480000e-06	2.773251e-06	6.953876e-09	1.877996e+01	4.574049e+02
1.490000e-06	2.791366e-06	7.006508e-09	1.890262e+01	4.608211e+02
1.500000e-06	2.808474e-06	7.052821e-09	1.901848e+01	4.640068e+02
1.510000e-06	2.824516e-06	7.094631e-09	1.912711e+01	4.669724e+02
1.520000e-06	2.839444e-06	7.133915e-09	1.922820e+01	4.697256e+02
1.530000e-06	2.853336e-06	7.170442e-09	1.932227e+01	4.722691e+02
1.540000e-06	2.866199e-06	7.202877e-09	1.940938e+01	4.746006e+02
1.550000e-06	2.877927e-06	7.231619e-09	1.948880e+01	4.767151e+02
1.560000e-06	2.888281e-06	7.260298e-09	1.955892e+01	4.786107e+02
1.570000e-06	2.897368e-06	7.289733e-09	1.962045e+01	4.802923e+02
1.580000e-06	2.905544e-06	7.317319e-09	1.967582e+01	4.817742e+02
1.590000e-06	2.912830e-06	7.339310e-09	1.972516e+01	4.830774e+02
1.600000e-06	2.919093e-06	7.354306e-09	1.976757e+01	4.842241e+02
1.610000e-06	2.924373e-06	7.365893e-09	1.980333e+01	4.852306e+02
1.620000e-06	2.928847e-06	7.374814e-09	1.983362e+01	4.861019e+02
1.630000e-06	2.932342e-06	7.382573e-09	1.985729e+01	4.868306e+02
1.640000e-06	2.934450e-06	7.392062e-09	1.987156e+01	4.874007e+02
1.650000e-06	2.935382e-06	7.401845e-09	1.987788e+01	4.877955e+02
1.660000e-06	2.935474e-06	7.410329e-09	1.987850e+01	4.880062e+02
1.670000e-06	2.934646e-06	7.414092e-09	1.987289e+01	4.880371e+02
1.680000e-06	2.932865e-06	7.408448e-09	1.986083e+01	4.879044e+02
1.690000e-06	2.930210e-06	7.400683e-09	1.984285e+01	4.876295e+02
1.700000e-06	2.926785e-06	7.392244e-09	1.981966e+01	4.872286e+02
1.710000e-06	2.922485e-06	7.380289e-09	1.979054e+01	4.867036e+02
1.720000e-06	2.916979e-06	7.370186e-09	1.975325e+01	4.860388e+02
1.730000e-06	2.910322e-06	7.375898e-09	1.970818e+01	4.852072e+02
1.740000e-06	2.902850e-06	7.359742e-09	1.965757e+01	4.841838e+02
1.750000e-06	2.894327e-06	7.248160e-09	1.959986e+01	4.829630e+02
1.760000e-06	2.884168e-06	7.194633e-09	1.953106e+01	4.815712e+02
1.770000e-06	2.872445e-06	7.341395e-09	1.945168e+01	4.800701e+02
1.780000e-06	2.860239e-06	7.388094e-09	1.936902e+01	4.785452e+02
1.790000e-06	2.847954e-06	7.215303e-09	1.928583e+01	4.770824e+02
1.800000e-06	2.834366e-06	7.073620e-09	1.919381e+01	4.757398e+02
1.810000e-06	2.818956e-06	7.290111e-09	1.908946e+01	4.745228e+02
1.820000e-06	2.802812e-06	7.257607e-09	1.898014e+01	4.733735e+02
1.830000e-06	2.786146e-06	7.024816e-09	1.886728e+01	4.721795e+02
1.840000e-06	2.768103e-06	7.237372e-09	1.874509e+01	4.708006e+02
1.850000e-06	2.748982e-06	7.287731e-09	1.861561e+01	4.691056e+02
1.860000e-06	2.729308e-06	6.982463e-09	1.848238e+01	4.670092e+02
1.870000e-06	2.708367e-06	7.064012e-09	1.834057e+01	4.644947e+02
1.880000e-06	2.685995e-06	7.211818e-09	1.818907e+01	4.616161e+02
1.890000e-06	2.662840e-06	6.875192e-09	1.803227e+01	4.584784e+02
1.900000e-06	2.638762e-06	6.833491e-09	1.786922e+01	4.552028e+02
1.910000e-06	2.613731e-06	7.064405e-09	1.769972e+01	4.518881e+02
1.920000e-06	2.588077e-06	6.873569e-09	1.752599e+01	4.485826e+02
1.930000e-06	2.561583e-06	6.712711e-09	1.734658e+01	4.452738e+02
1.940000e-06	2.534314e-06	6.804315e-09	1.716191e+01	4.419010e+02
1.950000e-06	2.506322e-06	6.672744e-09	1.697236e+01	4.383830e+02
1.960000e-06	2.476964e-06	6.645761e-09	1.677356e+01	4.346512e+02
1.970000e-06	2.446278e-06	6.606806e-09	1.656575e+01	4.306762e+02
1.980000e-06	2.414831e-06	6.441410e-09	1.635280e+01	4.264772e+02
1.990000e-06	2.382631e-06	6.499060e-09	1.613474e+01	4.221128e+02
2.000000e-06	2.349671e-06	6.440631e-09	1.591155e+01	4.176566e+02
2.010000e-06	2.315969e-06	6.256615e-09	1.568333e+01	4.131683e+02
2.020000e-06	2.281399e-06	6.270677e-09	1.544922e+01	4.086718e+02
2.030000e-06	2.246205e-06	6.167793e-09	1.521090e+01	4.041476e+02
2.040000e-06	2.210414e-06	6.054380e-09	1.496852e+01	3.995430e+02
2.050000e-06	2.173509e-06	6.106345e-09	1.471861e+01	3.947949e+02
2.060000e-06	2.135497e-06	5.964033e-09	1.446120e+01	3.898560e+02
2.070000e-06	2.096716e-06	5.844867e-09	1.419858e+01	3.847136e+02
2.080000e-06	2.057348e-06	5.831925e-09	1.393199e+01	3.793946e+02
2.090000e-06	2.017377e-06	5.715701e-09	1.366131e+01	3.739537e+02
2.100000e-06	1.976670e-06	5.631447e-09	1.338566e+01	3.684519e+02
2.110000e-06	1.935371e-06	5.544288e-09	1.310598e+01	3.629324e+02
2.120000e-06	1.893456e-06	5.456096e-09	1.282214e+01	3.574041e+02
2.130000e-06	1.850820e-06	5.413348e-09	1.253342e+01	3.518399e+02
2.140000e-06	1.807678e-06	5.301950e-09	1.224127e+01	3.461890e+02
2.150000e-06	1.764109e-06	5.192559e-09	1.194623e+01	3.403986e+02
2.160000e-06	1.719941e-06	5.111467e-09	1.164713e+01	3.344357e+02
2.170000e-06	1.674994e-06	5.019936e-09	1.134276e+01	3.283005e+02
2.180000e-06	1.629340e-06	4.949454e-09	1.103359e+01	3.220261e+02
2.190000e-06	1.583195e-06	4.833954e-09	1.072111e+01	3.156645e+02
2.200000e-06	1.536608e-06	4.726553e-09	1.040563e+01	3.092657e+02
2.210000e-06	1.489595e-06	4.648776e-09	1.008727e+01	3.028573e+02
2.220000e-06	1.441936e-06	4.541540e-09	9.764532e+00	2.964341e+02
2.230000e-06	1.393444e-06	4.448578e-09	9.436154e+00	2.899607e+02
2.240000e-06	1.344403e-06	4.329541e-09	9.104054e+00	2.833868e+02
2.250000e-06	1.295027e-06	4.230775e-09	8.769689e+00	2.766680e+02
2.260000e-06	1.245237e-06	4.156613e-09	8.432522e+00	2.697846e+02
2.270000e-06	1.194948e-06	4.036683e-09	8.091970e+00	2.627501e+02
2.280000e-06	1.144142e-06	3.919311e-09	7.747921e+00	2.556066e+02
2.290000e-06	1.092989e-06	3.811554e-09	7.401523e+00	2.484090e+02
2.300000e-06	1.041511e-06	3.708431e-09	7.052926e+00	2.412043e+02
2.310000e-06	9.895487e-07	3.604796e-09	6.701045e+00	2.340147e+02
2.320000e-06	9.369859e-07	3.481368e-09	6.345099e+00	2.268308e+02
2.330000e-06	8.838754e-07	3.367781e-09	5.985445e+00	2.196167e+02
2.340000e-06	8.302651e-07	3.265100e-09	5.622406e+00	2.123261e+02
2.350000e-06	7.760790e-07	3.154325e-09	5.255467e+00	2.049213e+02
2.360000e-06	7.214562e-07	3.041608e-09	4.885571e+00	1.973877e+02
2.370000e-06	6.666194e-07	2.916755e-09	4.514226e+00	1.897392e+02
2.380000e-06	6.116435e-07	2.804391e-09	4.141940e+00	1.820105e+02
2.390000e-06	5.565216e-07	2.693496e-09	3.768663e+00	1.742425e+02
2.400000e-06	5.013030e-07	2.567322e-09	3.394733e+00	1.664644e+02
2.410000e-06	4.460313e-07	2.444948e-09	3.020443e+00	1.586818e+02
2.420000e-06	3.907071e-07	2.321475e-09	2.645798e+00	1.508742e+02
2.430000e-06	3.352935e-07	2.207696e-09	2.270547e+00	1.430038e+02
2.440000e-06	2.797863e-07	2.090356e-09	1.894662e+00	1.350311e+02
2.450000e-06	2.241985e-07	1.962757e-09	1.518231e+00	1.269312e+02
2.460000e-06	1.685727e-07	1.837313e-09	1.141544e+00	1.187042e+02
2.470000e-06	1.129143e-07	1.713080e-09	7.646352e-01	1.103756e+02
2.480000e-06	5.719605e-08	1.588823e-09	3.873213e-01	1.019863e+02
2.490000e-06	1.445737e-09	1.457782e-09	9.790268e-03	9.357699e+01
2.500000e-06	-5.429940e-08	1.324992e-09	-3.677057e-01	8.517253e+01
2.510000e-06	-1.100003e-07	1.199904e-09	-7.449025e-01	7.677268e+01
2.520000e-06	-1.656707e-07	1.075889e-09	-1.121892e+00	6.835253e+01
2.530000e-06	-2.212424e-07	9.428317e-10	-1.498213e+00	5.987206e+01
2.540000e-06	-2.766996e-07	8.053729e-10	-1.873760e+00	5.129096e+01
2.550000e-06	-3.321115e-07	6.722689e-10	-2.248999e+00	4.258260e+01
2.560000e-06	-3.874647e-07	5.445981e-10	-2.623841e+00	3.374204e+01
2.570000e-06	-4.427656e-07	4.099305e-10	-2.998328e+00	2.478511e+01
2.580000e-06	-4.980179e-07	2.671173e-10	-3.372488e+00	1.573975e+01
2.590000e-06	-5.531952e-07	1.267522e-10	-3.746138e+00	6.633151e+00
2.600000e-06	-6.082694e-07	-1.096307e-11	-4.119090e+00	-2.519610e+00
2.610000e-06	-6.631839e-07	-1.512775e-10	-4.490962e+00	-1.172133e+01
2.620000e-06	-7.178635e-07	-2.977688e-10	-4.861242e+00	-2.099066e+01
2.630000e-06	-7.722140e-07	-4.427469e-10	-5.229294e+00	-3.035367e+01
2.640000e-06	-8.261950e-07	-5.838677e-10	-5.594844e+00	-3.983262e+01
2.650000e-06	-8.796485e-07	-7.251040e-10	-5.956821e+00	-4.943665e+01
2.660000e-06	-9.324463e-07	-8.736910e-10	-6.314358e+00	-5.915796e+01
2.670000e-06	-9.847193e-07	-1.030072e-09	-6.668341e+00	-6.897456e+01
2.680000e-06	-1.036538e-06	-1.184123e-09	-7.019246e+00	-7.885829e+01
2.690000e-06	-1.087962e-06	-1.333973e-09	-7.367481e+00	-8.878443e+01
2.700000e-06	-1.139054e-06	-1.485235e-09	-7.713467e+00	-9.873918e+01
2.710000e-06	-1.189753e-06	-1.640743e-09	-8.056794e+00	-1.087220e+02
2.720000e-06	-1.240015e-06	-1.794014e-09	-8.397156e+00	-1.187427e+02
2.730000e-06	-1.289839e-06	-1.943510e-09	-8.734558e+00	-1.288142e+02
2.740000e-06	-1.339204e-06	-2.095579e-09	-9.068845e+00	-1.389448e+02
2.750000e-06	-1.388042e-06	-2.254498e-09	-9.399568e+00	-1.491327e+02
2.760000e-06	-1.436120e-06	-2.414855e-09	-9.725145e+00	-1.593647e+02
2.770000e-06	-1.483289e-06	-2.571718e-09	-1.004457e+01	-1.696193e+02
2.780000e-06	-1.529719e-06	-2.727043e-09	-1.035898e+01	-1.798727e+02
2.790000e-06	-1.575643e-06	-2.883250e-09	-1.066997e+01	-1.901044e+02
2.800000e-06	-1.621161e-06	-3.041414e-09	-1.097821e+01	-2.003012e+02
2.810000e-06	-1.666301e-06	-3.195450e-09	-1.128389e+01	-2.104577e+02
2.820000e-06	-1.710933e-06	-3.345807e-09	-1.158613e+01	-2.205729e+02
2.830000e-06	-1.754925e-06	-3.496862e-09	-1.188404e+01	-2.306466e+02
2.840000e-06	-1.798390e-06	-3.650110e-09	-1.217837e+01	-2.406752e+02
2.850000e-06	-1.841462e-06	-3.804563e-09	-1.247005e+01	-2.506492e+02
2.860000e-06	-1.883993e-06	-3.958277e-09	-1.275806e+01	-2.605544e+02
2.870000e-06	-1.925827e-06	-4.109831e-09	-1.304136e+01	-2.703728e+02
2.880000e-06	-1.967090e-06	-4.259783e-09	-1.332078e+01	-2.800854e+02
2.890000e-06	-2.007670e-06	-4.408028e-09	-1.359558e+01	-2.896737e+02
2.900000e-06	-2.047522e-06	-4.552911e-09	-1.386545e+01	-2.991195e+02
2.910000e-06	-2.086856e-06	-4.693653e-09	-1.413181e+01	-3.084040e+02
2.920000e-06	-2.125573e-06	-4.831133e-09	-1.439400e+01	-3.175071e+02
2.930000e-06	-2.163366e-06	-4.967686e-09	-1.464992e+01	-3.264063e+02
2.940000e-06	-2.200019e-06	-5.101775e-09	-1.489813e+01	-3.350789e+02
