# Temperatura_=_19.15
# Concentracion g/m^3_=_18700.0
# C_Vs_to_Am_M_A/Vsm_=_65563218390.804596
# pendiente_HvsI_1/m_=_3716.3
# ordenada_HvsI_A/m_=_1297.0
# frecuencia_Hz_=_301039.8567199075

Tiempo_(s)	Campo_(V.s)	Magnetizacion_(V.s)	Campo_(kA/m)	Magnetizacion_(A/m)
0.000000e+00	-2.929127e-06	-7.281735e-09	-1.978095e+01	-4.745656e+02
1.000000e-08	-2.928633e-06	-7.284401e-09	-1.977762e+01	-4.745463e+02
2.000000e-08	-2.927357e-06	-7.284559e-09	-1.976900e+01	-4.743640e+02
3.000000e-08	-2.924891e-06	-7.278600e-09	-1.975235e+01	-4.740512e+02
4.000000e-08	-2.921157e-06	-7.269349e-09	-1.972713e+01	-4.736293e+02
5.000000e-08	-2.916566e-06	-7.259476e-09	-1.969612e+01	-4.730985e+02
6.000000e-08	-2.911175e-06	-7.247631e-09	-1.965972e+01	-4.724380e+02
7.000000e-08	-2.904776e-06	-7.226329e-09	-1.961650e+01	-4.716152e+02
8.000000e-08	-2.897321e-06	-7.207293e-09	-1.956616e+01	-4.706031e+02
9.000000e-08	-2.888763e-06	-7.254062e-09	-1.950837e+01	-4.693968e+02
1.000000e-07	-2.878810e-06	-7.289611e-09	-1.944115e+01	-4.680243e+02
1.100000e-07	-2.867364e-06	-7.204537e-09	-1.936385e+01	-4.665443e+02
1.200000e-07	-2.854974e-06	-7.009013e-09	-1.928018e+01	-4.650316e+02
1.300000e-07	-2.841916e-06	-7.050681e-09	-1.919200e+01	-4.635536e+02
1.400000e-07	-2.827822e-06	-7.216442e-09	-1.909682e+01	-4.621461e+02
1.500000e-07	-2.812614e-06	-7.049522e-09	-1.899412e+01	-4.607973e+02
1.600000e-07	-2.796362e-06	-6.945954e-09	-1.888437e+01	-4.594454e+02
1.700000e-07	-2.778763e-06	-7.099214e-09	-1.876552e+01	-4.579940e+02
1.800000e-07	-2.760043e-06	-7.055574e-09	-1.863909e+01	-4.563373e+02
1.900000e-07	-2.740694e-06	-6.814723e-09	-1.850843e+01	-4.543903e+02
2.000000e-07	-2.720565e-06	-6.890721e-09	-1.837249e+01	-4.521122e+02
2.100000e-07	-2.699403e-06	-6.916881e-09	-1.822958e+01	-4.495148e+02
2.200000e-07	-2.677366e-06	-6.671727e-09	-1.808076e+01	-4.466557e+02
2.300000e-07	-2.654567e-06	-6.755050e-09	-1.792679e+01	-4.436156e+02
2.400000e-07	-2.630806e-06	-6.860611e-09	-1.776633e+01	-4.404707e+02
2.500000e-07	-2.606218e-06	-6.613605e-09	-1.760028e+01	-4.372691e+02
2.600000e-07	-2.580793e-06	-6.522955e-09	-1.742859e+01	-4.340177e+02
2.700000e-07	-2.554102e-06	-6.574986e-09	-1.724834e+01	-4.306859e+02
2.800000e-07	-2.526264e-06	-6.491418e-09	-1.706034e+01	-4.272215e+02
2.900000e-07	-2.497642e-06	-6.442930e-09	-1.686705e+01	-4.235740e+02
3.000000e-07	-2.468151e-06	-6.363072e-09	-1.666789e+01	-4.197155e+02
3.100000e-07	-2.437769e-06	-6.308275e-09	-1.646272e+01	-4.156512e+02
3.200000e-07	-2.406689e-06	-6.313260e-09	-1.625283e+01	-4.114176e+02
3.300000e-07	-2.374841e-06	-6.197793e-09	-1.603776e+01	-4.070679e+02
3.400000e-07	-2.342325e-06	-6.058474e-09	-1.581816e+01	-4.026521e+02
3.500000e-07	-2.309182e-06	-6.060930e-09	-1.559434e+01	-3.981989e+02
3.600000e-07	-2.274995e-06	-5.983664e-09	-1.536348e+01	-3.937066e+02
3.700000e-07	-2.239554e-06	-5.895157e-09	-1.512413e+01	-3.891455e+02
3.800000e-07	-2.203215e-06	-5.892508e-09	-1.487873e+01	-3.844709e+02
3.900000e-07	-2.166270e-06	-5.746489e-09	-1.462924e+01	-3.796417e+02
4.000000e-07	-2.128614e-06	-5.649861e-09	-1.437494e+01	-3.746361e+02
4.100000e-07	-2.090177e-06	-5.651220e-09	-1.411536e+01	-3.694597e+02
4.200000e-07	-2.050979e-06	-5.552166e-09	-1.385065e+01	-3.641435e+02
4.300000e-07	-2.011069e-06	-5.411136e-09	-1.358113e+01	-3.587312e+02
4.400000e-07	-1.970645e-06	-5.361409e-09	-1.330814e+01	-3.532635e+02
4.500000e-07	-1.929764e-06	-5.298183e-09	-1.303206e+01	-3.477632e+02
4.600000e-07	-1.888121e-06	-5.208041e-09	-1.275084e+01	-3.422281e+02
4.700000e-07	-1.845406e-06	-5.111470e-09	-1.246238e+01	-3.366337e+02
4.800000e-07	-1.801716e-06	-5.006635e-09	-1.216733e+01	-3.309436e+02
4.900000e-07	-1.757385e-06	-4.935188e-09	-1.186796e+01	-3.251239e+02
5.000000e-07	-1.712624e-06	-4.858872e-09	-1.156568e+01	-3.191565e+02
5.100000e-07	-1.667338e-06	-4.758413e-09	-1.125985e+01	-3.130451e+02
5.200000e-07	-1.621392e-06	-4.640049e-09	-1.094957e+01	-3.068133e+02
5.300000e-07	-1.574843e-06	-4.555265e-09	-1.063522e+01	-3.004953e+02
5.400000e-07	-1.527774e-06	-4.469403e-09	-1.031735e+01	-2.941234e+02
5.500000e-07	-1.480174e-06	-4.376573e-09	-9.995896e+00	-2.877169e+02
5.600000e-07	-1.432026e-06	-4.265222e-09	-9.670743e+00	-2.812762e+02
5.700000e-07	-1.383479e-06	-4.151862e-09	-9.342895e+00	-2.747847e+02
5.800000e-07	-1.334540e-06	-4.066954e-09	-9.012405e+00	-2.682157e+02
5.900000e-07	-1.284980e-06	-3.975043e-09	-8.677714e+00	-2.615437e+02
6.000000e-07	-1.234683e-06	-3.858466e-09	-8.338050e+00	-2.547534e+02
6.100000e-07	-1.183670e-06	-3.738644e-09	-7.993551e+00	-2.478444e+02
6.200000e-07	-1.132022e-06	-3.645316e-09	-7.644760e+00	-2.408312e+02
6.300000e-07	-1.079889e-06	-3.543286e-09	-7.292695e+00	-2.337368e+02
6.400000e-07	-1.027375e-06	-3.430400e-09	-6.938056e+00	-2.265850e+02
6.500000e-07	-9.745570e-07	-3.310886e-09	-6.581369e+00	-2.193927e+02
6.600000e-07	-9.213695e-07	-3.203071e-09	-6.222183e+00	-2.121665e+02
6.700000e-07	-8.677887e-07	-3.102879e-09	-5.860342e+00	-2.049023e+02
6.800000e-07	-8.139079e-07	-2.988755e-09	-5.496475e+00	-1.975894e+02
6.900000e-07	-7.597573e-07	-2.867361e-09	-5.130785e+00	-1.902164e+02
7.000000e-07	-7.053961e-07	-2.749229e-09	-4.763674e+00	-1.827755e+02
7.100000e-07	-6.508696e-07	-2.643574e-09	-4.395446e+00	-1.752657e+02
7.200000e-07	-5.961424e-07	-2.528497e-09	-4.025863e+00	-1.676917e+02
7.300000e-07	-5.412032e-07	-2.407577e-09	-3.654848e+00	-1.600610e+02
7.400000e-07	-4.860706e-07	-2.287811e-09	-3.282527e+00	-1.523801e+02
7.500000e-07	-4.306585e-07	-2.177218e-09	-2.908319e+00	-1.446513e+02
7.600000e-07	-3.750320e-07	-2.065577e-09	-2.532663e+00	-1.368716e+02
7.700000e-07	-3.193238e-07	-1.941265e-09	-2.156454e+00	-1.290339e+02
7.800000e-07	-2.634632e-07	-1.811533e-09	-1.779217e+00	-1.211297e+02
7.900000e-07	-2.074774e-07	-1.686576e-09	-1.401135e+00	-1.131532e+02
8.000000e-07	-1.514575e-07	-1.571091e-09	-1.022821e+00	-1.051033e+02
8.100000e-07	-9.536824e-08	-1.448029e-09	-6.440399e-01	-9.698460e+01
8.200000e-07	-3.923631e-08	-1.320277e-09	-2.649702e-01	-8.880679e+01
8.300000e-07	1.686072e-08	-1.192992e-09	1.138637e-01	-8.058143e+01
8.400000e-07	7.292911e-08	-1.072711e-09	4.925042e-01	-7.231880e+01
8.500000e-07	1.290036e-07	-9.489739e-10	8.711859e-01	-6.402464e+01
8.600000e-07	1.850606e-07	-8.163771e-10	1.249750e+00	-5.569829e+01
8.700000e-07	2.410364e-07	-6.839432e-10	1.627765e+00	-4.733237e+01
8.800000e-07	2.968351e-07	-5.571283e-10	2.004584e+00	-3.891414e+01
8.900000e-07	3.525204e-07	-4.345695e-10	2.380638e+00	-3.042834e+01
9.000000e-07	4.081113e-07	-3.021592e-10	2.756053e+00	-2.186052e+01
9.100000e-07	4.635056e-07	-1.678949e-10	3.130141e+00	-1.320030e+01
9.200000e-07	5.186950e-07	-3.687356e-11	3.502846e+00	-4.443589e+00
9.300000e-07	5.737253e-07	9.343650e-11	3.874476e+00	4.406715e+00
9.400000e-07	6.285866e-07	2.291688e-10	4.244965e+00	1.334189e+01
9.500000e-07	6.832113e-07	3.669194e-10	4.613856e+00	2.235013e+01
9.600000e-07	7.376445e-07	5.040509e-10	4.981454e+00	3.142016e+01
9.700000e-07	7.918741e-07	6.430040e-10	5.347676e+00	4.054466e+01
9.800000e-07	8.458212e-07	7.844068e-10	5.711991e+00	4.972248e+01
9.900000e-07	8.994181e-07	9.278401e-10	6.073942e+00	5.895865e+01
1.000000e-06	9.526275e-07	1.067180e-09	6.433275e+00	6.826222e+01
1.010000e-06	1.005479e-06	1.204827e-09	6.790192e+00	7.764240e+01
1.020000e-06	1.058011e-06	1.343326e-09	7.144946e+00	8.710423e+01
1.030000e-06	1.110192e-06	1.487661e-09	7.497340e+00	9.664544e+01
1.040000e-06	1.161955e-06	1.634447e-09	7.846905e+00	1.062555e+02
1.050000e-06	1.213085e-06	1.781472e-09	8.192194e+00	1.159178e+02
1.060000e-06	1.263416e-06	1.929991e-09	8.532089e+00	1.256135e+02
1.070000e-06	1.312964e-06	2.079050e-09	8.866695e+00	1.353263e+02
1.080000e-06	1.361878e-06	2.226670e-09	9.197021e+00	1.450469e+02
1.090000e-06	1.410416e-06	2.372395e-09	9.524808e+00	1.547732e+02
1.100000e-06	1.458652e-06	2.518435e-09	9.850556e+00	1.645089e+02
1.110000e-06	1.506428e-06	2.664715e-09	1.017319e+01	1.742584e+02
1.120000e-06	1.553645e-06	2.813789e-09	1.049206e+01	1.840217e+02
1.130000e-06	1.600362e-06	2.963473e-09	1.080755e+01	1.937906e+02
1.140000e-06	1.646519e-06	3.113378e-09	1.111926e+01	2.035474e+02
1.150000e-06	1.691997e-06	3.262488e-09	1.142638e+01	2.132683e+02
1.160000e-06	1.736911e-06	3.409258e-09	1.172969e+01	2.229289e+02
1.170000e-06	1.781468e-06	3.554396e-09	1.203059e+01	2.325102e+02
1.180000e-06	1.825644e-06	3.697473e-09	1.232892e+01	2.420032e+02
1.190000e-06	1.869207e-06	3.840713e-09	1.262311e+01	2.514090e+02
1.200000e-06	1.911782e-06	3.983200e-09	1.291063e+01	2.607348e+02
1.210000e-06	1.953270e-06	4.124982e-09	1.319080e+01	2.699873e+02
1.220000e-06	1.994040e-06	4.264203e-09	1.346613e+01	2.791648e+02
1.230000e-06	2.034307e-06	4.402067e-09	1.373806e+01	2.882524e+02
1.240000e-06	2.073972e-06	4.537616e-09	1.400593e+01	2.972222e+02
1.250000e-06	2.112924e-06	4.669773e-09	1.426898e+01	3.060372e+02
1.260000e-06	2.151161e-06	4.799039e-09	1.452720e+01	3.146599e+02
1.270000e-06	2.188608e-06	4.924840e-09	1.478009e+01	3.230609e+02
1.280000e-06	2.225359e-06	5.049686e-09	1.502827e+01	3.312243e+02
1.290000e-06	2.261572e-06	5.171947e-09	1.527283e+01	3.391489e+02
1.300000e-06	2.296998e-06	5.289982e-09	1.551206e+01	3.468439e+02
1.310000e-06	2.331253e-06	5.401974e-09	1.574340e+01	3.543214e+02
1.320000e-06	2.364420e-06	5.510586e-09	1.596738e+01	3.615882e+02
1.330000e-06	2.396866e-06	5.615987e-09	1.618649e+01	3.686414e+02
1.340000e-06	2.428607e-06	5.716853e-09	1.640084e+01	3.754681e+02
1.350000e-06	2.459579e-06	5.814243e-09	1.661000e+01	3.820506e+02
1.360000e-06	2.489747e-06	5.908745e-09	1.681373e+01	3.883743e+02
1.370000e-06	2.519040e-06	5.999245e-09	1.701155e+01	3.944343e+02
1.380000e-06	2.547614e-06	6.087134e-09	1.720452e+01	4.002391e+02
1.390000e-06	2.575455e-06	6.174127e-09	1.739254e+01	4.058082e+02
1.400000e-06	2.602114e-06	6.256599e-09	1.757257e+01	4.111654e+02
1.410000e-06	2.627504e-06	6.334247e-09	1.774403e+01	4.163295e+02
1.420000e-06	2.651951e-06	6.407188e-09	1.790913e+01	4.213071e+02
1.430000e-06	2.675506e-06	6.476151e-09	1.806820e+01	4.260896e+02
1.440000e-06	2.698130e-06	6.542104e-09	1.822099e+01	4.306570e+02
1.450000e-06	2.719839e-06	6.605754e-09	1.836759e+01	4.349854e+02
1.460000e-06	2.740744e-06	6.668191e-09	1.850877e+01	4.390574e+02
1.470000e-06	2.760954e-06	6.729228e-09	1.864525e+01	4.428687e+02
1.480000e-06	2.780222e-06	6.785615e-09	1.877537e+01	4.464302e+02
1.490000e-06	2.798388e-06	6.834254e-09	1.889805e+01	4.497636e+02
1.500000e-06	2.815561e-06	6.878077e-09	1.901402e+01	4.528925e+02
1.510000e-06	2.831658e-06	6.919777e-09	1.912273e+01	4.558324e+02
1.520000e-06	2.846638e-06	6.959510e-09	1.922388e+01	4.585848e+02
1.530000e-06	2.860581e-06	6.994718e-09	1.931804e+01	4.611368e+02
1.540000e-06	2.873482e-06	7.025221e-09	1.940517e+01	4.634681e+02
1.550000e-06	2.885266e-06	7.055196e-09	1.948475e+01	4.655611e+02
1.560000e-06	2.895711e-06	7.086499e-09	1.955529e+01	4.674116e+02
1.570000e-06	2.904893e-06	7.115687e-09	1.961729e+01	4.690336e+02
1.580000e-06	2.913160e-06	7.139208e-09	1.967313e+01	4.704575e+02
1.590000e-06	2.920499e-06	7.157925e-09	1.972269e+01	4.717215e+02
1.600000e-06	2.926787e-06	7.173466e-09	1.976515e+01	4.728585e+02
1.610000e-06	2.932078e-06	7.185607e-09	1.980088e+01	4.738850e+02
1.620000e-06	2.936557e-06	7.193657e-09	1.983113e+01	4.747958e+02
1.630000e-06	2.940117e-06	7.201098e-09	1.985517e+01	4.755672e+02
1.640000e-06	2.942378e-06	7.212139e-09	1.987044e+01	4.761673e+02
1.650000e-06	2.943426e-06	7.224741e-09	1.987751e+01	4.765697e+02
1.660000e-06	2.943572e-06	7.233323e-09	1.987850e+01	4.767653e+02
1.670000e-06	2.942805e-06	7.235029e-09	1.987332e+01	4.767658e+02
1.680000e-06	2.941050e-06	7.230766e-09	1.986147e+01	4.765997e+02
1.690000e-06	2.938389e-06	7.224539e-09	1.984350e+01	4.763001e+02
1.700000e-06	2.934974e-06	7.214994e-09	1.982044e+01	4.758899e+02
1.710000e-06	2.930737e-06	7.202219e-09	1.979183e+01	4.753719e+02
1.720000e-06	2.925245e-06	7.193275e-09	1.975473e+01	4.747271e+02
1.730000e-06	2.918525e-06	7.200319e-09	1.970935e+01	4.739237e+02
1.740000e-06	2.911001e-06	7.177272e-09	1.965855e+01	4.729330e+02
1.750000e-06	2.902509e-06	7.070264e-09	1.960119e+01	4.717472e+02
1.760000e-06	2.892395e-06	7.027563e-09	1.953290e+01	4.703906e+02
1.770000e-06	2.880663e-06	7.173855e-09	1.945367e+01	4.689191e+02
1.780000e-06	2.868407e-06	7.206203e-09	1.937090e+01	4.674068e+02
1.790000e-06	2.856065e-06	7.036124e-09	1.928755e+01	4.659231e+02
1.800000e-06	2.842437e-06	6.924447e-09	1.919552e+01	4.645082e+02
1.810000e-06	2.827027e-06	7.119194e-09	1.909145e+01	4.631556e+02
1.820000e-06	2.810914e-06	7.053969e-09	1.898264e+01	4.618087e+02
1.830000e-06	2.794251e-06	6.841773e-09	1.887011e+01	4.603735e+02
1.840000e-06	2.776182e-06	7.053431e-09	1.874808e+01	4.587439e+02
1.850000e-06	2.757029e-06	7.076908e-09	1.861874e+01	4.568313e+02
1.860000e-06	2.737333e-06	6.806823e-09	1.848573e+01	4.545894e+02
1.870000e-06	2.716450e-06	6.902289e-09	1.834470e+01	4.520247e+02
1.880000e-06	2.694128e-06	7.001398e-09	1.819396e+01	4.491903e+02
1.890000e-06	2.670914e-06	6.685104e-09	1.803719e+01	4.461660e+02
1.900000e-06	2.646776e-06	6.664959e-09	1.787418e+01	4.430299e+02
1.910000e-06	2.621727e-06	6.846517e-09	1.770502e+01	4.398337e+02
1.920000e-06	2.596059e-06	6.694050e-09	1.753168e+01	4.365890e+02
1.930000e-06	2.569552e-06	6.575060e-09	1.735267e+01	4.332685e+02
1.940000e-06	2.542257e-06	6.604929e-09	1.716834e+01	4.298214e+02
1.950000e-06	2.514225e-06	6.487855e-09	1.697904e+01	4.261958e+02
1.960000e-06	2.484786e-06	6.484313e-09	1.678023e+01	4.223607e+02
1.970000e-06	2.454008e-06	6.386744e-09	1.657238e+01	4.183177e+02
1.980000e-06	2.422533e-06	6.242608e-09	1.635983e+01	4.141002e+02
1.990000e-06	2.390315e-06	6.335678e-09	1.614225e+01	4.097608e+02
2.000000e-06	2.357308e-06	6.232919e-09	1.591935e+01	4.053506e+02
2.010000e-06	2.323547e-06	6.066138e-09	1.569136e+01	4.009013e+02
2.020000e-06	2.288966e-06	6.110652e-09	1.545782e+01	3.964147e+02
2.030000e-06	2.253784e-06	5.976345e-09	1.522023e+01	3.918634e+02
2.040000e-06	2.217900e-06	5.860362e-09	1.497790e+01	3.872036e+02
2.050000e-06	2.180925e-06	5.920848e-09	1.472820e+01	3.823929e+02
2.060000e-06	2.142937e-06	5.764404e-09	1.447166e+01	3.774068e+02
2.070000e-06	2.104141e-06	5.646169e-09	1.420966e+01	3.722481e+02
2.080000e-06	2.064661e-06	5.642583e-09	1.394305e+01	3.669453e+02
2.090000e-06	2.024513e-06	5.528429e-09	1.367192e+01	3.615416e+02
2.100000e-06	1.983675e-06	5.444456e-09	1.339613e+01	3.560788e+02
2.110000e-06	1.942238e-06	5.355313e-09	1.311630e+01	3.505820e+02
2.120000e-06	1.900147e-06	5.261769e-09	1.283206e+01	3.450520e+02
2.130000e-06	1.857398e-06	5.219415e-09	1.254336e+01	3.394660e+02
2.140000e-06	1.814207e-06	5.113759e-09	1.225169e+01	3.337883e+02
2.150000e-06	1.770551e-06	5.002274e-09	1.195687e+01	3.279842e+02
2.160000e-06	1.726263e-06	4.923568e-09	1.165778e+01	3.220333e+02
2.170000e-06	1.681233e-06	4.830950e-09	1.135369e+01	3.159369e+02
2.180000e-06	1.635506e-06	4.748136e-09	1.104488e+01	3.097169e+02
2.190000e-06	1.589314e-06	4.640465e-09	1.073294e+01	3.034068e+02
2.200000e-06	1.542669e-06	4.537552e-09	1.041794e+01	2.970400e+02
2.210000e-06	1.495508e-06	4.452269e-09	1.009945e+01	2.906372e+02
2.220000e-06	1.447685e-06	4.356555e-09	9.776492e+00	2.842012e+02
2.230000e-06	1.399058e-06	4.267720e-09	9.448106e+00	2.777167e+02
2.240000e-06	1.349908e-06	4.139201e-09	9.116185e+00	2.711578e+02
2.250000e-06	1.300437e-06	4.039175e-09	8.782096e+00	2.644983e+02
2.260000e-06	1.250508e-06	3.964277e-09	8.444921e+00	2.577213e+02
2.270000e-06	1.199985e-06	3.847527e-09	8.103728e+00	2.508250e+02
2.280000e-06	1.149005e-06	3.736592e-09	7.759446e+00	2.438224e+02
2.290000e-06	1.097720e-06	3.630763e-09	7.413115e+00	2.367359e+02
2.300000e-06	1.046071e-06	3.528799e-09	7.064316e+00	2.295897e+02
2.310000e-06	9.939112e-07	3.423720e-09	6.712071e+00	2.224017e+02
2.320000e-06	9.411479e-07	3.297501e-09	6.355751e+00	2.151796e+02
2.330000e-06	8.878411e-07	3.182206e-09	5.995760e+00	2.079204e+02
2.340000e-06	8.340674e-07	3.079985e-09	5.632616e+00	2.006137e+02
2.350000e-06	7.797675e-07	2.971792e-09	5.265918e+00	1.932480e+02
2.360000e-06	7.250523e-07	2.861214e-09	4.896416e+00	1.858150e+02
2.370000e-06	6.701295e-07	2.740598e-09	4.525512e+00	1.783129e+02
2.380000e-06	6.150186e-07	2.629463e-09	4.153337e+00	1.707458e+02
2.390000e-06	5.597884e-07	2.519592e-09	3.780357e+00	1.631213e+02
2.400000e-06	5.044872e-07	2.395907e-09	3.406898e+00	1.554460e+02
2.410000e-06	4.491111e-07	2.272212e-09	3.032933e+00	1.477228e+02
2.420000e-06	3.936339e-07	2.148327e-09	2.658284e+00	1.399493e+02
2.430000e-06	3.380615e-07	2.036832e-09	2.282994e+00	1.321186e+02
2.440000e-06	2.824064e-07	1.923568e-09	1.907144e+00	1.242224e+02
2.450000e-06	2.266985e-07	1.799797e-09	1.530938e+00	1.162542e+02
2.460000e-06	1.709325e-07	1.677099e-09	1.154340e+00	1.082124e+02
2.470000e-06	1.150572e-07	1.554587e-09	7.770030e-01	1.001012e+02
2.480000e-06	5.912940e-08	1.433206e-09	3.993121e-01	9.192958e+01
2.490000e-06	3.202692e-09	1.305309e-09	2.162839e-02	8.370921e+01
2.500000e-06	-5.273624e-08	1.173460e-09	-3.561378e-01	7.545062e+01
2.510000e-06	-1.086493e-07	1.049502e-09	-7.337294e-01	6.716019e+01
2.520000e-06	-1.644945e-07	9.297326e-10	-1.110863e+00	5.883797e+01
2.530000e-06	-2.202195e-07	8.022374e-10	-1.487184e+00	5.047724e+01
2.540000e-06	-2.758180e-07	6.676427e-10	-1.862651e+00	4.206577e+01
2.550000e-06	-3.313713e-07	5.361649e-10	-2.237813e+00	3.358838e+01
2.560000e-06	-3.868833e-07	4.119395e-10	-2.612696e+00	2.503037e+01
2.570000e-06	-4.423230e-07	2.819602e-10	-2.987092e+00	1.638080e+01
2.580000e-06	-4.976886e-07	1.428092e-10	-3.360986e+00	7.634843e+00
2.590000e-06	-5.529759e-07	5.395641e-12	-3.734351e+00	-1.205333e+00
2.600000e-06	-6.081417e-07	-1.287708e-10	-4.106896e+00	-1.013152e+01
2.610000e-06	-6.631929e-07	-2.650290e-10	-4.478668e+00	-1.913208e+01
2.620000e-06	-7.180751e-07	-4.072812e-10	-4.849298e+00	-2.819550e+01
2.630000e-06	-7.726615e-07	-5.479034e-10	-5.217930e+00	-3.731390e+01
2.640000e-06	-8.268450e-07	-6.855743e-10	-5.583842e+00	-4.648543e+01
2.650000e-06	-8.804816e-07	-8.235966e-10	-5.946060e+00	-5.571453e+01
2.660000e-06	-9.335552e-07	-9.669445e-10	-6.304476e+00	-6.500997e+01
2.670000e-06	-9.861088e-07	-1.115139e-09	-6.659380e+00	-7.438116e+01
2.680000e-06	-1.038088e-06	-1.261329e-09	-7.010409e+00	-8.383377e+01
2.690000e-06	-1.089617e-06	-1.406155e-09	-7.358391e+00	-9.336641e+01
2.700000e-06	-1.140836e-06	-1.553115e-09	-7.704284e+00	-1.029694e+02
2.710000e-06	-1.191722e-06	-1.704229e-09	-8.047923e+00	-1.126266e+02
2.720000e-06	-1.242201e-06	-1.855452e-09	-8.388822e+00	-1.223191e+02
2.730000e-06	-1.292159e-06	-2.004002e-09	-8.726197e+00	-1.320302e+02
2.740000e-06	-1.341635e-06	-2.150659e-09	-9.060317e+00	-1.417498e+02
2.750000e-06	-1.390623e-06	-2.299854e-09	-9.391141e+00	-1.514749e+02
2.760000e-06	-1.438954e-06	-2.449531e-09	-9.717527e+00	-1.612089e+02
2.770000e-06	-1.486435e-06	-2.597723e-09	-1.003818e+01	-1.709564e+02
2.780000e-06	-1.533082e-06	-2.746461e-09	-1.035319e+01	-1.807181e+02
2.790000e-06	-1.579118e-06	-2.898165e-09	-1.066408e+01	-1.904866e+02
2.800000e-06	-1.624718e-06	-3.053143e-09	-1.097203e+01	-2.002453e+02
2.810000e-06	-1.669979e-06	-3.204142e-09	-1.127768e+01	-2.099709e+02
2.820000e-06	-1.714714e-06	-3.348872e-09	-1.157979e+01	-2.196385e+02
2.830000e-06	-1.758779e-06	-3.489995e-09	-1.187737e+01	-2.292285e+02
2.840000e-06	-1.802331e-06	-3.633009e-09	-1.217148e+01	-2.387307e+02
2.850000e-06	-1.845503e-06	-3.778684e-09	-1.246303e+01	-2.481451e+02
2.860000e-06	-1.888222e-06	-3.924529e-09	-1.275152e+01	-2.574787e+02
2.870000e-06	-1.930278e-06	-4.069183e-09	-1.303553e+01	-2.667384e+02
2.880000e-06	-1.971658e-06	-4.212676e-09	-1.331498e+01	-2.759239e+02
2.890000e-06	-2.012310e-06	-4.355246e-09	-1.358951e+01	-2.850219e+02
2.900000e-06	-2.052200e-06	-4.493185e-09	-1.385890e+01	-2.940056e+02
2.910000e-06	-2.091561e-06	-4.625460e-09	-1.412471e+01	-3.028385e+02
2.920000e-06	-2.130365e-06	-4.755514e-09	-1.438676e+01	-3.114831e+02
2.930000e-06	-2.168244e-06	-4.885023e-09	-1.464256e+01	-3.199084e+02
2.940000e-06	-2.205023e-06	-5.012402e-09	-1.489094e+01	-3.280971e+02
