# Temperatura_=_24.72
# Concentracion g/m^3_=_18700.0
# C_Vs_to_Am_M_A/Vsm_=_65563218390.804596
# pendiente_HvsI_1/m_=_3716.3
# ordenada_HvsI_A/m_=_1297.0
# frecuencia_Hz_=_301043.5068497642

Tiempo_(s)	Campo_(V.s)	Magnetizacion_(V.s)	Campo_(kA/m)	Magnetizacion_(A/m)
0.000000e+00	-2.927835e-06	-7.477816e-09	-1.977761e+01	-4.870998e+02
1.000000e-08	-2.927001e-06	-7.481947e-09	-1.977198e+01	-4.870673e+02
2.000000e-08	-2.925301e-06	-7.478410e-09	-1.976049e+01	-4.868891e+02
3.000000e-08	-2.922241e-06	-7.469145e-09	-1.973983e+01	-4.865700e+02
4.000000e-08	-2.917987e-06	-7.459270e-09	-1.971109e+01	-4.861076e+02
5.000000e-08	-2.912992e-06	-7.447982e-09	-1.967735e+01	-4.854927e+02
6.000000e-08	-2.907122e-06	-7.430753e-09	-1.963769e+01	-4.847140e+02
7.000000e-08	-2.900267e-06	-7.405567e-09	-1.959139e+01	-4.837639e+02
8.000000e-08	-2.892459e-06	-7.419726e-09	-1.953865e+01	-4.826456e+02
9.000000e-08	-2.883443e-06	-7.476272e-09	-1.947774e+01	-4.813774e+02
1.000000e-07	-2.872852e-06	-7.473600e-09	-1.940620e+01	-4.799923e+02
1.100000e-07	-2.860925e-06	-7.307180e-09	-1.932563e+01	-4.785326e+02
1.200000e-07	-2.848289e-06	-7.206063e-09	-1.924028e+01	-4.770400e+02
1.300000e-07	-2.834845e-06	-7.323410e-09	-1.914946e+01	-4.755433e+02
1.400000e-07	-2.820288e-06	-7.360327e-09	-1.905112e+01	-4.740485e+02
1.500000e-07	-2.804726e-06	-7.161383e-09	-1.894600e+01	-4.725338e+02
1.600000e-07	-2.787918e-06	-7.190309e-09	-1.883247e+01	-4.709518e+02
1.700000e-07	-2.769695e-06	-7.308097e-09	-1.870937e+01	-4.692397e+02
1.800000e-07	-2.750612e-06	-7.103788e-09	-1.858046e+01	-4.673339e+02
1.900000e-07	-2.730925e-06	-7.034074e-09	-1.844748e+01	-4.651863e+02
2.000000e-07	-2.710351e-06	-7.129088e-09	-1.830850e+01	-4.627753e+02
2.100000e-07	-2.688775e-06	-6.971383e-09	-1.816275e+01	-4.601104e+02
2.200000e-07	-2.666455e-06	-6.863580e-09	-1.801198e+01	-4.572272e+02
2.300000e-07	-2.643282e-06	-7.027536e-09	-1.785545e+01	-4.541746e+02
2.400000e-07	-2.619116e-06	-6.943251e-09	-1.769221e+01	-4.509992e+02
2.500000e-07	-2.594209e-06	-6.734837e-09	-1.752396e+01	-4.477310e+02
2.600000e-07	-2.568274e-06	-6.739940e-09	-1.734877e+01	-4.443761e+02
2.700000e-07	-2.541026e-06	-6.737826e-09	-1.716471e+01	-4.409175e+02
2.800000e-07	-2.512800e-06	-6.648796e-09	-1.697404e+01	-4.373243e+02
2.900000e-07	-2.483759e-06	-6.600296e-09	-1.677786e+01	-4.335661e+02
3.000000e-07	-2.453816e-06	-6.515077e-09	-1.657560e+01	-4.296261e+02
3.100000e-07	-2.423123e-06	-6.484287e-09	-1.636827e+01	-4.255093e+02
3.200000e-07	-2.391738e-06	-6.464900e-09	-1.615626e+01	-4.212418e+02
3.300000e-07	-2.359589e-06	-6.306083e-09	-1.593909e+01	-4.168626e+02
3.400000e-07	-2.326757e-06	-6.240609e-09	-1.571731e+01	-4.124100e+02
3.500000e-07	-2.293181e-06	-6.218814e-09	-1.549051e+01	-4.079077e+02
3.600000e-07	-2.258522e-06	-6.128257e-09	-1.525638e+01	-4.033572e+02
3.700000e-07	-2.222693e-06	-6.082926e-09	-1.501435e+01	-3.987369e+02
3.800000e-07	-2.186063e-06	-6.017973e-09	-1.476692e+01	-3.940112e+02
3.900000e-07	-2.148883e-06	-5.873004e-09	-1.451577e+01	-3.891431e+02
4.000000e-07	-2.111006e-06	-5.834427e-09	-1.425991e+01	-3.841087e+02
4.100000e-07	-2.072281e-06	-5.806680e-09	-1.399832e+01	-3.789059e+02
4.200000e-07	-2.032708e-06	-5.671009e-09	-1.373100e+01	-3.735555e+02
4.300000e-07	-1.992471e-06	-5.573744e-09	-1.345920e+01	-3.680933e+02
4.400000e-07	-1.951811e-06	-5.522527e-09	-1.318454e+01	-3.625574e+02
4.500000e-07	-1.910636e-06	-5.449711e-09	-1.290640e+01	-3.569745e+02
4.600000e-07	-1.868655e-06	-5.347854e-09	-1.262282e+01	-3.513506e+02
4.700000e-07	-1.825594e-06	-5.244550e-09	-1.233194e+01	-3.456704e+02
4.800000e-07	-1.781549e-06	-5.149969e-09	-1.203442e+01	-3.399038e+02
4.900000e-07	-1.736964e-06	-5.086018e-09	-1.173324e+01	-3.340186e+02
5.000000e-07	-1.691985e-06	-5.003364e-09	-1.142941e+01	-3.279935e+02
5.100000e-07	-1.646457e-06	-4.888141e-09	-1.112186e+01	-3.218270e+02
5.200000e-07	-1.600314e-06	-4.784056e-09	-1.081017e+01	-3.155379e+02
5.300000e-07	-1.553601e-06	-4.701368e-09	-1.049462e+01	-3.091587e+02
5.400000e-07	-1.506301e-06	-4.614769e-09	-1.017511e+01	-3.027234e+02
5.500000e-07	-1.458412e-06	-4.505734e-09	-9.851614e+00	-2.962542e+02
5.600000e-07	-1.410041e-06	-4.391213e-09	-9.524866e+00	-2.897536e+02
5.700000e-07	-1.361280e-06	-4.286961e-09	-9.195489e+00	-2.832033e+02
5.800000e-07	-1.312100e-06	-4.208353e-09	-8.863275e+00	-2.765714e+02
5.900000e-07	-1.262323e-06	-4.106521e-09	-8.527032e+00	-2.698243e+02
6.000000e-07	-1.211778e-06	-3.982244e-09	-8.185597e+00	-2.629395e+02
6.100000e-07	-1.160461e-06	-3.874813e-09	-7.838948e+00	-2.559142e+02
6.200000e-07	-1.108543e-06	-3.779982e-09	-7.488237e+00	-2.487668e+02
6.300000e-07	-1.056233e-06	-3.671115e-09	-7.134885e+00	-2.415302e+02
6.400000e-07	-1.003631e-06	-3.543911e-09	-6.779555e+00	-2.342412e+02
6.500000e-07	-9.507038e-07	-3.426639e-09	-6.422032e+00	-2.269278e+02
6.600000e-07	-8.974041e-07	-3.324155e-09	-6.061991e+00	-2.196012e+02
6.700000e-07	-8.437341e-07	-3.222872e-09	-5.699448e+00	-2.122542e+02
6.800000e-07	-7.897252e-07	-3.103273e-09	-5.334617e+00	-2.048654e+02
6.900000e-07	-7.354489e-07	-2.980934e-09	-4.967979e+00	-1.974095e+02
7.000000e-07	-6.809912e-07	-2.869731e-09	-4.600116e+00	-1.898667e+02
7.100000e-07	-6.263403e-07	-2.761401e-09	-4.230947e+00	-1.822299e+02
7.200000e-07	-5.715113e-07	-2.641464e-09	-3.860575e+00	-1.745056e+02
7.300000e-07	-5.165134e-07	-2.513049e-09	-3.489063e+00	-1.667095e+02
7.400000e-07	-4.613248e-07	-2.393776e-09	-3.116263e+00	-1.588588e+02
7.500000e-07	-4.059484e-07	-2.282138e-09	-2.742193e+00	-1.509636e+02
7.600000e-07	-3.503788e-07	-2.166200e-09	-2.366819e+00	-1.430230e+02
7.700000e-07	-2.946711e-07	-2.035235e-09	-1.990512e+00	-1.350257e+02
7.800000e-07	-2.388484e-07	-1.904493e-09	-1.613428e+00	-1.269550e+02
7.900000e-07	-1.829470e-07	-1.785162e-09	-1.235813e+00	-1.187968e+02
8.000000e-07	-1.269477e-07	-1.665634e-09	-8.575352e-01	-1.105466e+02
8.100000e-07	-7.084107e-08	-1.534497e-09	-4.785335e-01	-1.022121e+02
8.200000e-07	-1.472763e-08	-1.398637e-09	-9.948554e-02	-9.381124e+01
8.300000e-07	4.135254e-08	-1.271832e-09	2.793376e-01	-8.536586e+01
8.400000e-07	9.743620e-08	-1.147930e-09	6.581844e-01	-7.689299e+01
8.500000e-07	1.534700e-07	-1.017630e-09	1.036695e+00	-6.839824e+01
8.600000e-07	2.094650e-07	-8.809059e-10	1.414942e+00	-5.987303e+01
8.700000e-07	2.653498e-07	-7.492082e-10	1.792445e+00	-5.129707e+01
8.800000e-07	3.210685e-07	-6.236595e-10	2.168827e+00	-4.264505e+01
8.900000e-07	3.766789e-07	-4.922437e-10	2.544477e+00	-3.389488e+01
9.000000e-07	4.321283e-07	-3.526387e-10	2.919040e+00	-2.503443e+01
9.100000e-07	4.874324e-07	-2.130523e-10	3.292620e+00	-1.606425e+01
9.200000e-07	5.425738e-07	-7.959915e-11	3.665102e+00	-6.995534e+00
9.300000e-07	5.975489e-07	5.564161e-11	4.036460e+00	2.155630e+00
9.400000e-07	6.523304e-07	1.971319e-10	4.406511e+00	1.137533e+01
9.500000e-07	7.068988e-07	3.420597e-10	4.775122e+00	2.065731e+01
9.600000e-07	7.612700e-07	4.845296e-10	5.142401e+00	3.000483e+01
9.700000e-07	8.153613e-07	6.262305e-10	5.507789e+00	3.942842e+01
9.800000e-07	8.690724e-07	7.694481e-10	5.870610e+00	4.894051e+01
9.900000e-07	9.224252e-07	9.150842e-10	6.231009e+00	5.854950e+01
1.000000e-06	9.754766e-07	1.059638e-09	6.589373e+00	6.825550e+01
1.010000e-06	1.028182e-06	1.202842e-09	6.945402e+00	7.804952e+01
1.020000e-06	1.080540e-06	1.353486e-09	7.299079e+00	8.791635e+01
1.030000e-06	1.132536e-06	1.510023e-09	7.650312e+00	9.783969e+01
1.040000e-06	1.183950e-06	1.665111e-09	7.997615e+00	1.078074e+02
1.050000e-06	1.234567e-06	1.814071e-09	8.339538e+00	1.178148e+02
1.060000e-06	1.284422e-06	1.964080e-09	8.676308e+00	1.278644e+02
1.070000e-06	1.333638e-06	2.118114e-09	9.008762e+00	1.379624e+02
1.080000e-06	1.382410e-06	2.271209e-09	9.338222e+00	1.481138e+02
1.090000e-06	1.430896e-06	2.423846e-09	9.665741e+00	1.583169e+02
1.100000e-06	1.478983e-06	2.578428e-09	9.990575e+00	1.685612e+02
1.110000e-06	1.526510e-06	2.736970e-09	1.031162e+01	1.788274e+02
1.120000e-06	1.573501e-06	2.896489e-09	1.062905e+01	1.890917e+02
1.130000e-06	1.619992e-06	3.055913e-09	1.094309e+01	1.993304e+02
1.140000e-06	1.665870e-06	3.213049e-09	1.125300e+01	2.095254e+02
1.150000e-06	1.711120e-06	3.367758e-09	1.155866e+01	2.196658e+02
1.160000e-06	1.755926e-06	3.519451e-09	1.186133e+01	2.297484e+02
1.170000e-06	1.800412e-06	3.669005e-09	1.216184e+01	2.397737e+02
1.180000e-06	1.844373e-06	3.819704e-09	1.245879e+01	2.497415e+02
1.190000e-06	1.887428e-06	3.971989e-09	1.274963e+01	2.596472e+02
1.200000e-06	1.929432e-06	4.124562e-09	1.303337e+01	2.694787e+02
1.210000e-06	1.970542e-06	4.274396e-09	1.331107e+01	2.792176e+02
1.220000e-06	2.011052e-06	4.420532e-09	1.358471e+01	2.888410e+02
1.230000e-06	2.051019e-06	4.563599e-09	1.385469e+01	2.983249e+02
1.240000e-06	2.090320e-06	4.704480e-09	1.412018e+01	3.076476e+02
1.250000e-06	2.128928e-06	4.841408e-09	1.438097e+01	3.167909e+02
1.260000e-06	2.166805e-06	4.975709e-09	1.463683e+01	3.257397e+02
1.270000e-06	2.203972e-06	5.108158e-09	1.488790e+01	3.344802e+02
1.280000e-06	2.240603e-06	5.238666e-09	1.513534e+01	3.429987e+02
1.290000e-06	2.276574e-06	5.364414e-09	1.537833e+01	3.512797e+02
1.300000e-06	2.311446e-06	5.485372e-09	1.561389e+01	3.593074e+02
1.310000e-06	2.345109e-06	5.602090e-09	1.584128e+01	3.670672e+02
1.320000e-06	2.377914e-06	5.713457e-09	1.606288e+01	3.745484e+02
1.330000e-06	2.410091e-06	5.821058e-09	1.628024e+01	3.817469e+02
1.340000e-06	2.441498e-06	5.924784e-09	1.649239e+01	3.886657e+02
1.350000e-06	2.472073e-06	6.025392e-09	1.669893e+01	3.953136e+02
1.360000e-06	2.501795e-06	6.121723e-09	1.689970e+01	4.017028e+02
1.370000e-06	2.530728e-06	6.213237e-09	1.709514e+01	4.078452e+02
1.380000e-06	2.559054e-06	6.301965e-09	1.728649e+01	4.137492e+02
1.390000e-06	2.586429e-06	6.388406e-09	1.747141e+01	4.194190e+02
1.400000e-06	2.612452e-06	6.471320e-09	1.764719e+01	4.248541e+02
1.410000e-06	2.637386e-06	6.549714e-09	1.781562e+01	4.300523e+02
1.420000e-06	2.661468e-06	6.623517e-09	1.797830e+01	4.350117e+02
1.430000e-06	2.684643e-06	6.693000e-09	1.813484e+01	4.397336e+02
1.440000e-06	2.706940e-06	6.759747e-09	1.828546e+01	4.442227e+02
1.450000e-06	2.728351e-06	6.823591e-09	1.843009e+01	4.484865e+02
1.460000e-06	2.749007e-06	6.884852e-09	1.856962e+01	4.525328e+02
1.470000e-06	2.768866e-06	6.942099e-09	1.870377e+01	4.563668e+02
1.480000e-06	2.787655e-06	6.995901e-09	1.883069e+01	4.599888e+02
1.490000e-06	2.805394e-06	7.047032e-09	1.895052e+01	4.633938e+02
1.500000e-06	2.822090e-06	7.093413e-09	1.906330e+01	4.665727e+02
1.510000e-06	2.837651e-06	7.136092e-09	1.916842e+01	4.695153e+02
1.520000e-06	2.852166e-06	7.176304e-09	1.926647e+01	4.722147e+02
1.530000e-06	2.865671e-06	7.212195e-09	1.935769e+01	4.746698e+02
1.540000e-06	2.878155e-06	7.242170e-09	1.944202e+01	4.768881e+02
1.550000e-06	2.889400e-06	7.269828e-09	1.951798e+01	4.788846e+02
1.560000e-06	2.899188e-06	7.298279e-09	1.958410e+01	4.806794e+02
1.570000e-06	2.907917e-06	7.325737e-09	1.964306e+01	4.822934e+02
1.580000e-06	2.915794e-06	7.348952e-09	1.969627e+01	4.837441e+02
1.590000e-06	2.922689e-06	7.368165e-09	1.974285e+01	4.850424e+02
1.600000e-06	2.928536e-06	7.384852e-09	1.978234e+01	4.861904e+02
1.610000e-06	2.933502e-06	7.397720e-09	1.981589e+01	4.871835e+02
1.620000e-06	2.937671e-06	7.405660e-09	1.984405e+01	4.880126e+02
1.630000e-06	2.940589e-06	7.412318e-09	1.986376e+01	4.886691e+02
1.640000e-06	2.942151e-06	7.420495e-09	1.987431e+01	4.891483e+02
1.650000e-06	2.942770e-06	7.429470e-09	1.987850e+01	4.894517e+02
1.660000e-06	2.942511e-06	7.435734e-09	1.987674e+01	4.895872e+02
1.670000e-06	2.941285e-06	7.434910e-09	1.986846e+01	4.895658e+02
1.680000e-06	2.939106e-06	7.429701e-09	1.985375e+01	4.893980e+02
1.690000e-06	2.936106e-06	7.423074e-09	1.983348e+01	4.890892e+02
1.700000e-06	2.932380e-06	7.414529e-09	1.980831e+01	4.886376e+02
1.710000e-06	2.927549e-06	7.404615e-09	1.977568e+01	4.880343e+02
1.720000e-06	2.921381e-06	7.401547e-09	1.973401e+01	4.872679e+02
1.730000e-06	2.914281e-06	7.401729e-09	1.968605e+01	4.863304e+02
1.740000e-06	2.906429e-06	7.328387e-09	1.963301e+01	4.852240e+02
1.750000e-06	2.897259e-06	7.242518e-09	1.957107e+01	4.839658e+02
1.760000e-06	2.886253e-06	7.282290e-09	1.949672e+01	4.825880e+02
1.770000e-06	2.873965e-06	7.403578e-09	1.941372e+01	4.811324e+02
1.780000e-06	2.861671e-06	7.332480e-09	1.933067e+01	4.796412e+02
1.790000e-06	2.849050e-06	7.147378e-09	1.924541e+01	4.781446e+02
1.800000e-06	2.834603e-06	7.232941e-09	1.914783e+01	4.766503e+02
1.810000e-06	2.818661e-06	7.301023e-09	1.904014e+01	4.751387e+02
1.820000e-06	2.802371e-06	7.116779e-09	1.893010e+01	4.735637e+02
1.830000e-06	2.785167e-06	7.120334e-09	1.881388e+01	4.718634e+02
1.840000e-06	2.766547e-06	7.287482e-09	1.868811e+01	4.699736e+02
1.850000e-06	2.747298e-06	7.116828e-09	1.855808e+01	4.678446e+02
1.860000e-06	2.727307e-06	6.994170e-09	1.842304e+01	4.654527e+02
1.870000e-06	2.705702e-06	7.182355e-09	1.827710e+01	4.628053e+02
1.880000e-06	2.682899e-06	7.039964e-09	1.812306e+01	4.599364e+02
1.890000e-06	2.659385e-06	6.807630e-09	1.796423e+01	4.568945e+02
1.900000e-06	2.634832e-06	6.979803e-09	1.779837e+01	4.537269e+02
1.910000e-06	2.609533e-06	6.983663e-09	1.762747e+01	4.504651e+02
1.920000e-06	2.583545e-06	6.790168e-09	1.745192e+01	4.471170e+02
1.930000e-06	2.556620e-06	6.785937e-09	1.727004e+01	4.436670e+02
1.940000e-06	2.529087e-06	6.728497e-09	1.708405e+01	4.400848e+02
1.950000e-06	2.500568e-06	6.654145e-09	1.689141e+01	4.363394e+02
1.960000e-06	2.470509e-06	6.637866e-09	1.668836e+01	4.324128e+02
1.970000e-06	2.439472e-06	6.492892e-09	1.647870e+01	4.283083e+02
1.980000e-06	2.407768e-06	6.459532e-09	1.626454e+01	4.240506e+02
1.990000e-06	2.375194e-06	6.496687e-09	1.604450e+01	4.196784e+02
2.000000e-06	2.341896e-06	6.325691e-09	1.581957e+01	4.152302e+02
2.010000e-06	2.307816e-06	6.263763e-09	1.558937e+01	4.107314e+02
2.020000e-06	2.272977e-06	6.240096e-09	1.535403e+01	4.061851e+02
2.030000e-06	2.237582e-06	6.079753e-09	1.511493e+01	4.015712e+02
2.040000e-06	2.201231e-06	6.074479e-09	1.486938e+01	3.968545e+02
2.050000e-06	2.163728e-06	6.043896e-09	1.461605e+01	3.919979e+02
2.060000e-06	2.125325e-06	5.875255e-09	1.435663e+01	3.869760e+02
2.070000e-06	2.086202e-06	5.829408e-09	1.409235e+01	3.817851e+02
2.080000e-06	2.046511e-06	5.778873e-09	1.382424e+01	3.764444e+02
2.090000e-06	2.006172e-06	5.665950e-09	1.355175e+01	3.709892e+02
2.100000e-06	1.965116e-06	5.584466e-09	1.327442e+01	3.654578e+02
2.110000e-06	1.923421e-06	5.483844e-09	1.299277e+01	3.598780e+02
2.120000e-06	1.881030e-06	5.419904e-09	1.270641e+01	3.542576e+02
2.130000e-06	1.838090e-06	5.350923e-09	1.241635e+01	3.485826e+02
2.140000e-06	1.794731e-06	5.234307e-09	1.212346e+01	3.428235e+02
2.150000e-06	1.750817e-06	5.144109e-09	1.182682e+01	3.369479e+02
2.160000e-06	1.706183e-06	5.056066e-09	1.152532e+01	3.309334e+02
2.170000e-06	1.660751e-06	4.973437e-09	1.121842e+01	3.247769e+02
2.180000e-06	1.614821e-06	4.878270e-09	1.090816e+01	3.184958e+02
2.190000e-06	1.568472e-06	4.765552e-09	1.059507e+01	3.121222e+02
2.200000e-06	1.521603e-06	4.671298e-09	1.027847e+01	3.056902e+02
2.210000e-06	1.474191e-06	4.580425e-09	9.958204e+00	2.992234e+02
2.220000e-06	1.425979e-06	4.490178e-09	9.632532e+00	2.927257e+02
2.230000e-06	1.377111e-06	4.381207e-09	9.302425e+00	2.861802e+02
2.240000e-06	1.327858e-06	4.260972e-09	8.969720e+00	2.795556e+02
2.250000e-06	1.278165e-06	4.178454e-09	8.634042e+00	2.728179e+02
2.260000e-06	1.227974e-06	4.085492e-09	8.295001e+00	2.659436e+02
2.270000e-06	1.177301e-06	3.961909e-09	7.952700e+00	2.589282e+02
2.280000e-06	1.126255e-06	3.852405e-09	7.607884e+00	2.517888e+02
2.290000e-06	1.074851e-06	3.746949e-09	7.260647e+00	2.445577e+02
2.300000e-06	1.022950e-06	3.648253e-09	6.910058e+00	2.372716e+02
2.310000e-06	9.704596e-07	3.532297e-09	6.555483e+00	2.299596e+02
2.320000e-06	9.173324e-07	3.405082e-09	6.196607e+00	2.226343e+02
2.330000e-06	8.636863e-07	3.296237e-09	5.834226e+00	2.152895e+02
2.340000e-06	8.096319e-07	3.187292e-09	5.469087e+00	2.079049e+02
2.350000e-06	7.551598e-07	3.077041e-09	5.101127e+00	2.004548e+02
2.360000e-06	7.003732e-07	2.958799e-09	4.731042e+00	1.929189e+02
2.370000e-06	6.454132e-07	2.840505e-09	4.359785e+00	1.852890e+02
2.380000e-06	5.903371e-07	2.729649e-09	3.987744e+00	1.775708e+02
2.390000e-06	5.351646e-07	2.610767e-09	3.615053e+00	1.697796e+02
2.400000e-06	4.799055e-07	2.484109e-09	3.241776e+00	1.619325e+02
2.410000e-06	4.245323e-07	2.356914e-09	2.867728e+00	1.540406e+02
2.420000e-06	3.690484e-07	2.237530e-09	2.492933e+00	1.461039e+02
2.430000e-06	3.134614e-07	2.126101e-09	2.117441e+00	1.381115e+02
2.440000e-06	2.577366e-07	2.005914e-09	1.741018e+00	1.300468e+02
2.450000e-06	2.019382e-07	1.877879e-09	1.364098e+00	1.218955e+02
2.460000e-06	1.460919e-07	1.751728e-09	9.868553e-01	1.136520e+02
2.470000e-06	9.018730e-08	1.625924e-09	6.092179e-01	1.053232e+02
2.480000e-06	3.426458e-08	1.498410e-09	2.314582e-01	9.692668e+01
2.490000e-06	-2.166145e-08	1.366292e-09	-1.463237e-01	8.848409e+01
2.500000e-06	-7.755123e-08	1.238318e-09	-5.238608e-01	8.001311e+01
2.510000e-06	-1.333819e-07	1.115197e-09	-9.009985e-01	7.152032e+01
2.520000e-06	-1.891411e-07	9.852776e-10	-1.277654e+00	6.299812e+01
2.530000e-06	-2.447948e-07	8.475676e-10	-1.653596e+00	5.442689e+01
2.540000e-06	-3.003721e-07	7.102693e-10	-2.029022e+00	4.578139e+01
2.550000e-06	-3.559064e-07	5.820615e-10	-2.404158e+00	3.703906e+01
2.560000e-06	-4.113255e-07	4.539985e-10	-2.778516e+00	2.818690e+01
2.570000e-06	-4.666109e-07	3.154226e-10	-3.151970e+00	1.922456e+01
2.580000e-06	-5.218325e-07	1.718237e-10	-3.524994e+00	1.016264e+01
2.590000e-06	-5.769909e-07	3.304376e-11	-3.897591e+00	1.017122e+00
2.600000e-06	-6.320555e-07	-1.033053e-10	-4.269554e+00	-8.197724e+00
2.610000e-06	-6.869979e-07	-2.456159e-10	-4.640691e+00	-1.747498e+01
2.620000e-06	-7.417428e-07	-3.938118e-10	-5.010495e+00	-2.681726e+01
2.630000e-06	-7.961841e-07	-5.390553e-10	-5.378247e+00	-3.623471e+01
2.640000e-06	-8.502317e-07	-6.784037e-10	-5.743340e+00	-4.573984e+01
2.650000e-06	-9.037145e-07	-8.223633e-10	-6.104618e+00	-5.534152e+01
2.660000e-06	-9.565720e-07	-9.764635e-10	-6.461672e+00	-6.504051e+01
2.670000e-06	-1.008894e-06	-1.133084e-09	-6.815106e+00	-7.482842e+01
2.680000e-06	-1.060702e-06	-1.283208e-09	-7.165074e+00	-8.469034e+01
2.690000e-06	-1.112107e-06	-1.430800e-09	-7.512318e+00	-9.460984e+01
2.700000e-06	-1.163164e-06	-1.582734e-09	-7.857205e+00	-1.045744e+02
2.710000e-06	-1.213806e-06	-1.738236e-09	-8.199293e+00	-1.145786e+02
2.720000e-06	-1.263987e-06	-1.892089e-09	-8.538270e+00	-1.246247e+02
2.730000e-06	-1.313685e-06	-2.042910e-09	-8.873983e+00	-1.347188e+02
2.740000e-06	-1.362928e-06	-2.198623e-09	-9.206618e+00	-1.448660e+02
2.750000e-06	-1.411687e-06	-2.359467e-09	-9.535986e+00	-1.550655e+02
2.760000e-06	-1.459728e-06	-2.517750e-09	-9.860504e+00	-1.653071e+02
2.770000e-06	-1.506815e-06	-2.671671e-09	-1.017858e+01	-1.755722e+02
2.780000e-06	-1.553104e-06	-2.825136e-09	-1.049126e+01	-1.858371e+02
2.790000e-06	-1.598934e-06	-2.981859e-09	-1.080084e+01	-1.960782e+02
2.800000e-06	-1.644403e-06	-3.139514e-09	-1.110799e+01	-2.062764e+02
2.810000e-06	-1.689426e-06	-3.293235e-09	-1.141212e+01	-2.164207e+02
2.820000e-06	-1.733819e-06	-3.444296e-09	-1.171200e+01	-2.265071e+02
2.830000e-06	-1.777557e-06	-3.597438e-09	-1.200745e+01	-2.365361e+02
2.840000e-06	-1.820847e-06	-3.752857e-09	-1.229987e+01	-2.465079e+02
2.850000e-06	-1.863727e-06	-3.906098e-09	-1.258953e+01	-2.564180e+02
2.860000e-06	-1.906072e-06	-4.054858e-09	-1.287557e+01	-2.662551e+02
2.870000e-06	-1.947786e-06	-4.203285e-09	-1.315735e+01	-2.760011e+02
2.880000e-06	-1.988862e-06	-4.352881e-09	-1.343482e+01	-2.856332e+02
2.890000e-06	-2.029201e-06	-4.499935e-09	-1.370731e+01	-2.951276e+02
2.900000e-06	-2.068798e-06	-4.641296e-09	-1.397479e+01	-3.044622e+02
2.910000e-06	-2.107927e-06	-4.779935e-09	-1.423911e+01	-3.136186e+02
2.920000e-06	-2.146481e-06	-4.918302e-09	-1.449954e+01	-3.225814e+02
2.930000e-06	-2.183986e-06	-5.054740e-09	-1.475289e+01	-3.313370e+02
2.940000e-06	-2.220293e-06	-5.186189e-09	-1.499814e+01	-3.398715e+02
