# Temperatura_=_27.58
# Concentracion g/m^3_=_18700.0
# C_Vs_to_Am_M_A/Vsm_=_65563218390.804596
# pendiente_HvsI_1/m_=_3716.3
# ordenada_HvsI_A/m_=_1297.0
# frecuencia_Hz_=_301046.24826965155

Tiempo_(s)	Campo_(V.s)	Magnetizacion_(V.s)	Campo_(kA/m)	Magnetizacion_(A/m)
0.000000e+00	-2.924869e-06	-7.547719e-09	-1.977736e+01	-4.921094e+02
1.000000e-08	-2.924275e-06	-7.549023e-09	-1.977334e+01	-4.921204e+02
2.000000e-08	-2.922748e-06	-7.546743e-09	-1.976302e+01	-4.919619e+02
3.000000e-08	-2.919926e-06	-7.538895e-09	-1.974394e+01	-4.916442e+02
4.000000e-08	-2.915972e-06	-7.529076e-09	-1.971720e+01	-4.911768e+02
5.000000e-08	-2.911218e-06	-7.521828e-09	-1.968506e+01	-4.905658e+02
6.000000e-08	-2.905622e-06	-7.516819e-09	-1.964721e+01	-4.898131e+02
7.000000e-08	-2.899062e-06	-7.513630e-09	-1.960286e+01	-4.889186e+02
8.000000e-08	-2.891516e-06	-7.494311e-09	-1.955184e+01	-4.878831e+02
9.000000e-08	-2.882821e-06	-7.478234e-09	-1.949304e+01	-4.867116e+02
1.000000e-07	-2.872558e-06	-7.463807e-09	-1.942365e+01	-4.854148e+02
1.100000e-07	-2.860909e-06	-7.471649e-09	-1.934488e+01	-4.840087e+02
1.200000e-07	-2.848476e-06	-7.392317e-09	-1.926080e+01	-4.825107e+02
1.300000e-07	-2.835232e-06	-7.312616e-09	-1.917125e+01	-4.809347e+02
1.400000e-07	-2.820929e-06	-7.341004e-09	-1.907454e+01	-4.792862e+02
1.500000e-07	-2.805488e-06	-7.367369e-09	-1.897013e+01	-4.775594e+02
1.600000e-07	-2.788902e-06	-7.288419e-09	-1.885798e+01	-4.757373e+02
1.700000e-07	-2.771193e-06	-7.214010e-09	-1.873823e+01	-4.737949e+02
1.800000e-07	-2.752508e-06	-7.250364e-09	-1.861189e+01	-4.717053e+02
1.900000e-07	-2.733040e-06	-7.163670e-09	-1.848025e+01	-4.694464e+02
2.000000e-07	-2.712751e-06	-7.080114e-09	-1.834306e+01	-4.670059e+02
2.100000e-07	-2.691461e-06	-7.089110e-09	-1.819910e+01	-4.643837e+02
2.200000e-07	-2.669264e-06	-7.025694e-09	-1.804901e+01	-4.615901e+02
2.300000e-07	-2.646253e-06	-6.981111e-09	-1.789342e+01	-4.586413e+02
2.400000e-07	-2.622364e-06	-6.982698e-09	-1.773188e+01	-4.555528e+02
2.500000e-07	-2.597665e-06	-6.883448e-09	-1.756487e+01	-4.523342e+02
2.600000e-07	-2.571980e-06	-6.805874e-09	-1.739120e+01	-4.489864e+02
2.700000e-07	-2.545032e-06	-6.777387e-09	-1.720898e+01	-4.455028e+02
2.800000e-07	-2.517026e-06	-6.725595e-09	-1.701961e+01	-4.418732e+02
2.900000e-07	-2.488233e-06	-6.681678e-09	-1.682492e+01	-4.380902e+02
3.000000e-07	-2.458557e-06	-6.607118e-09	-1.662425e+01	-4.341541e+02
3.100000e-07	-2.428092e-06	-6.522539e-09	-1.641826e+01	-4.300761e+02
3.200000e-07	-2.396907e-06	-6.499300e-09	-1.620739e+01	-4.258757e+02
3.300000e-07	-2.364970e-06	-6.446933e-09	-1.599144e+01	-4.215760e+02
3.400000e-07	-2.332361e-06	-6.297114e-09	-1.577094e+01	-4.171957e+02
3.500000e-07	-2.299011e-06	-6.264695e-09	-1.554544e+01	-4.127425e+02
3.600000e-07	-2.264610e-06	-6.244403e-09	-1.531282e+01	-4.082096e+02
3.700000e-07	-2.229030e-06	-6.124854e-09	-1.507224e+01	-4.035777e+02
3.800000e-07	-2.192645e-06	-6.060717e-09	-1.482621e+01	-3.988206e+02
3.900000e-07	-2.155659e-06	-5.998740e-09	-1.457612e+01	-3.939152e+02
4.000000e-07	-2.117935e-06	-5.895157e-09	-1.432104e+01	-3.888500e+02
4.100000e-07	-2.079419e-06	-5.834247e-09	-1.406060e+01	-3.836303e+02
4.200000e-07	-2.040131e-06	-5.770553e-09	-1.379494e+01	-3.782780e+02
4.300000e-07	-2.000153e-06	-5.651006e-09	-1.352462e+01	-3.728251e+02
4.400000e-07	-1.959664e-06	-5.577498e-09	-1.325084e+01	-3.673037e+02
4.500000e-07	-1.918648e-06	-5.513825e-09	-1.297350e+01	-3.617355e+02
4.600000e-07	-1.876839e-06	-5.421952e-09	-1.269080e+01	-3.561247e+02
4.700000e-07	-1.834036e-06	-5.323820e-09	-1.240138e+01	-3.504568e+02
4.800000e-07	-1.790353e-06	-5.232741e-09	-1.210600e+01	-3.447044e+02
4.900000e-07	-1.746030e-06	-5.153116e-09	-1.180630e+01	-3.388374e+02
5.000000e-07	-1.701196e-06	-5.069502e-09	-1.150314e+01	-3.328340e+02
5.100000e-07	-1.655777e-06	-4.966440e-09	-1.119603e+01	-3.266890e+02
5.200000e-07	-1.609786e-06	-4.855749e-09	-1.088504e+01	-3.204157e+02
5.300000e-07	-1.563262e-06	-4.775847e-09	-1.057045e+01	-3.140412e+02
5.400000e-07	-1.516116e-06	-4.681068e-09	-1.025166e+01	-3.075956e+02
5.500000e-07	-1.468397e-06	-4.575552e-09	-9.928999e+00	-3.011014e+02
5.600000e-07	-1.420247e-06	-4.472452e-09	-9.603419e+00	-2.945643e+02
5.700000e-07	-1.371709e-06	-4.371799e-09	-9.275212e+00	-2.879715e+02
5.800000e-07	-1.322717e-06	-4.273310e-09	-8.943940e+00	-2.812965e+02
5.900000e-07	-1.273131e-06	-4.173162e-09	-8.608649e+00	-2.745099e+02
6.000000e-07	-1.222836e-06	-4.060552e-09	-8.268566e+00	-2.675912e+02
6.100000e-07	-1.171773e-06	-3.942416e-09	-7.923290e+00	-2.605379e+02
6.200000e-07	-1.120053e-06	-3.843272e-09	-7.573567e+00	-2.533678e+02
6.300000e-07	-1.067907e-06	-3.735341e-09	-7.220964e+00	-2.461136e+02
6.400000e-07	-1.015430e-06	-3.619217e-09	-6.866129e+00	-2.388124e+02
6.500000e-07	-9.626348e-07	-3.501700e-09	-6.509138e+00	-2.314924e+02
6.600000e-07	-9.094282e-07	-3.394771e-09	-6.149366e+00	-2.241638e+02
6.700000e-07	-8.558621e-07	-3.290197e-09	-5.787163e+00	-2.168157e+02
6.800000e-07	-8.020012e-07	-3.175760e-09	-5.422967e+00	-2.094214e+02
6.900000e-07	-7.478583e-07	-3.053805e-09	-5.056863e+00	-2.019494e+02
7.000000e-07	-6.935526e-07	-2.935484e-09	-4.689660e+00	-1.943755e+02
7.100000e-07	-6.390304e-07	-2.825149e-09	-4.320992e+00	-1.866924e+02
7.200000e-07	-5.843117e-07	-2.706194e-09	-3.950995e+00	-1.789123e+02
7.300000e-07	-5.294198e-07	-2.583215e-09	-3.579828e+00	-1.710617e+02
7.400000e-07	-4.743151e-07	-2.461038e-09	-3.207221e+00	-1.631696e+02
7.500000e-07	-4.190179e-07	-2.346451e-09	-2.833313e+00	-1.552559e+02
7.600000e-07	-3.635166e-07	-2.228992e-09	-2.458024e+00	-1.473223e+02
7.700000e-07	-3.078847e-07	-2.103528e-09	-2.081853e+00	-1.393507e+02
7.800000e-07	-2.521168e-07	-1.973662e-09	-1.704762e+00	-1.313103e+02
7.900000e-07	-1.962503e-07	-1.848247e-09	-1.327004e+00	-1.231689e+02
8.000000e-07	-1.403394e-07	-1.726483e-09	-9.489459e-01	-1.149070e+02
8.100000e-07	-8.430814e-08	-1.597907e-09	-5.700743e-01	-1.065260e+02
8.200000e-07	-2.824532e-08	-1.467670e-09	-1.909891e-01	-9.804917e+01
8.300000e-07	2.778027e-08	-1.338141e-09	1.878444e-01	-8.951398e+01
8.400000e-07	8.380004e-08	-1.211878e-09	5.666386e-01	-8.095839e+01
8.500000e-07	1.397896e-07	-1.080585e-09	9.452281e-01	-7.240641e+01
8.600000e-07	1.957399e-07	-9.451493e-10	1.323553e+00	-6.385820e+01
8.700000e-07	2.515822e-07	-8.117660e-10	1.701147e+00	-5.528871e+01
8.800000e-07	3.073145e-07	-6.830207e-10	2.077997e+00	-4.665555e+01
8.900000e-07	3.629215e-07	-5.545726e-10	2.454000e+00	-3.791312e+01
9.000000e-07	4.184171e-07	-4.183323e-10	2.829250e+00	-2.902802e+01
9.100000e-07	4.738020e-07	-2.786369e-10	3.203751e+00	-1.998990e+01
9.200000e-07	5.289524e-07	-1.389141e-10	3.576667e+00	-1.081380e+01
9.300000e-07	5.838630e-07	1.058905e-12	3.947961e+00	-1.533255e+00
9.400000e-07	6.385424e-07	1.449994e-10	4.317692e+00	7.813159e+00
9.500000e-07	6.930377e-07	2.882075e-10	4.686178e+00	1.719672e+01
9.600000e-07	7.473852e-07	4.305900e-10	5.053664e+00	2.660916e+01
9.700000e-07	8.015377e-07	5.741020e-10	5.419833e+00	3.606509e+01
9.800000e-07	8.553502e-07	7.191231e-10	5.783702e+00	4.559546e+01
9.900000e-07	9.087810e-07	8.661842e-10	6.144989e+00	5.523476e+01
1.000000e-06	9.618892e-07	1.012441e-09	6.504096e+00	6.500690e+01
1.010000e-06	1.014637e-06	1.159944e-09	6.860769e+00	7.491537e+01
1.020000e-06	1.067052e-06	1.310561e-09	7.215189e+00	8.494123e+01
1.030000e-06	1.119079e-06	1.465230e-09	7.566980e+00	9.504981e+01
1.040000e-06	1.170638e-06	1.620084e-09	7.915616e+00	1.052031e+02
1.050000e-06	1.221587e-06	1.775967e-09	8.260122e+00	1.153732e+02
1.060000e-06	1.271723e-06	1.932804e-09	8.599129e+00	1.255513e+02
1.070000e-06	1.321180e-06	2.089450e-09	8.933547e+00	1.357487e+02
1.080000e-06	1.370084e-06	2.244575e-09	9.264228e+00	1.459898e+02
1.090000e-06	1.418553e-06	2.399609e-09	9.591961e+00	1.562996e+02
1.100000e-06	1.466644e-06	2.556081e-09	9.917145e+00	1.666902e+02
1.110000e-06	1.514217e-06	2.712912e-09	1.023882e+01	1.771525e+02
1.120000e-06	1.561237e-06	2.872675e-09	1.055676e+01	1.876557e+02
1.130000e-06	1.607723e-06	3.035363e-09	1.087109e+01	1.981544e+02
1.140000e-06	1.653669e-06	3.199597e-09	1.118177e+01	2.086021e+02
1.150000e-06	1.699016e-06	3.360629e-09	1.148840e+01	2.189643e+02
1.160000e-06	1.743851e-06	3.515596e-09	1.179156e+01	2.292271e+02
1.170000e-06	1.788313e-06	3.667011e-09	1.209220e+01	2.393981e+02
1.180000e-06	1.832305e-06	3.818759e-09	1.238967e+01	2.494992e+02
1.190000e-06	1.875525e-06	3.972109e-09	1.268191e+01	2.595538e+02
1.200000e-06	1.917764e-06	4.124795e-09	1.296752e+01	2.695737e+02
1.210000e-06	1.959074e-06	4.278223e-09	1.324685e+01	2.795502e+02
1.220000e-06	1.999688e-06	4.431466e-09	1.352148e+01	2.894525e+02
1.230000e-06	2.039782e-06	4.583926e-09	1.379259e+01	2.992340e+02
1.240000e-06	2.079270e-06	4.731545e-09	1.405960e+01	3.088441e+02
1.250000e-06	2.118034e-06	4.869802e-09	1.432171e+01	3.182401e+02
1.260000e-06	2.156059e-06	5.003263e-09	1.457883e+01	3.273959e+02
1.270000e-06	2.193307e-06	5.136582e-09	1.483069e+01	3.363040e+02
1.280000e-06	2.229914e-06	5.270371e-09	1.507822e+01	3.449706e+02
1.290000e-06	2.265934e-06	5.400755e-09	1.532178e+01	3.534058e+02
1.300000e-06	2.301034e-06	5.526908e-09	1.555912e+01	3.616141e+02
1.310000e-06	2.335001e-06	5.648585e-09	1.578879e+01	3.695875e+02
1.320000e-06	2.367992e-06	5.765145e-09	1.601187e+01	3.773051e+02
1.330000e-06	2.400261e-06	5.873988e-09	1.623007e+01	3.847392e+02
1.340000e-06	2.431801e-06	5.976096e-09	1.644333e+01	3.918642e+02
1.350000e-06	2.462523e-06	6.075986e-09	1.665107e+01	3.986665e+02
1.360000e-06	2.492424e-06	6.173850e-09	1.685326e+01	4.051501e+02
1.370000e-06	2.521516e-06	6.267444e-09	1.704997e+01	4.113361e+02
1.380000e-06	2.549897e-06	6.356931e-09	1.724187e+01	4.172572e+02
1.390000e-06	2.577441e-06	6.445202e-09	1.742812e+01	4.229470e+02
1.400000e-06	2.603843e-06	6.531866e-09	1.760665e+01	4.284307e+02
1.410000e-06	2.629056e-06	6.612786e-09	1.777714e+01	4.337180e+02
1.420000e-06	2.653275e-06	6.686299e-09	1.794090e+01	4.388025e+02
1.430000e-06	2.676601e-06	6.755279e-09	1.809862e+01	4.436661e+02
1.440000e-06	2.699033e-06	6.822153e-09	1.825031e+01	4.482874e+02
1.450000e-06	2.720592e-06	6.886652e-09	1.839608e+01	4.526506e+02
1.460000e-06	2.741327e-06	6.949222e-09	1.853629e+01	4.567510e+02
1.470000e-06	2.761261e-06	7.009484e-09	1.867108e+01	4.605963e+02
1.480000e-06	2.780238e-06	7.065288e-09	1.879940e+01	4.642032e+02
1.490000e-06	2.798193e-06	7.115688e-09	1.892080e+01	4.675901e+02
1.500000e-06	2.815144e-06	7.160921e-09	1.903542e+01	4.707704e+02
1.510000e-06	2.831079e-06	7.201145e-09	1.914318e+01	4.737476e+02
1.520000e-06	2.845923e-06	7.239399e-09	1.924354e+01	4.765149e+02
1.530000e-06	2.859663e-06	7.276806e-09	1.933645e+01	4.790595e+02
1.540000e-06	2.872346e-06	7.310762e-09	1.942221e+01	4.813688e+02
1.550000e-06	2.883867e-06	7.341912e-09	1.950011e+01	4.834372e+02
1.560000e-06	2.894107e-06	7.371109e-09	1.956935e+01	4.852705e+02
1.570000e-06	2.903154e-06	7.397049e-09	1.963053e+01	4.868863e+02
1.580000e-06	2.911183e-06	7.419361e-09	1.968482e+01	4.883101e+02
1.590000e-06	2.918246e-06	7.437807e-09	1.973257e+01	4.895691e+02
1.600000e-06	2.924330e-06	7.452111e-09	1.977372e+01	4.906850e+02
1.610000e-06	2.929495e-06	7.464467e-09	1.980864e+01	4.916694e+02
1.620000e-06	2.933791e-06	7.476179e-09	1.983769e+01	4.925218e+02
1.630000e-06	2.937011e-06	7.485905e-09	1.985946e+01	4.932325e+02
1.640000e-06	2.938972e-06	7.495669e-09	1.987272e+01	4.937869e+02
1.650000e-06	2.939826e-06	7.504484e-09	1.987850e+01	4.941717e+02
1.660000e-06	2.939766e-06	7.508967e-09	1.987809e+01	4.943792e+02
1.670000e-06	2.938746e-06	7.509907e-09	1.987119e+01	4.944095e+02
1.680000e-06	2.936774e-06	7.505846e-09	1.985786e+01	4.942693e+02
1.690000e-06	2.933969e-06	7.497423e-09	1.983889e+01	4.939686e+02
1.700000e-06	2.930368e-06	7.487511e-09	1.981455e+01	4.935175e+02
1.710000e-06	2.925829e-06	7.478190e-09	1.978385e+01	4.929222e+02
1.720000e-06	2.920082e-06	7.465729e-09	1.974499e+01	4.921853e+02
1.730000e-06	2.913241e-06	7.445088e-09	1.969874e+01	4.913066e+02
1.740000e-06	2.905567e-06	7.440333e-09	1.964684e+01	4.902866e+02
1.750000e-06	2.896761e-06	7.414444e-09	1.958730e+01	4.891297e+02
1.760000e-06	2.886273e-06	7.375234e-09	1.951638e+01	4.878463e+02
1.770000e-06	2.874365e-06	7.364999e-09	1.943587e+01	4.864516e+02
1.780000e-06	2.862112e-06	7.382105e-09	1.935301e+01	4.849632e+02
1.790000e-06	2.849503e-06	7.395172e-09	1.926775e+01	4.833956e+02
1.800000e-06	2.835448e-06	7.274098e-09	1.917271e+01	4.817555e+02
1.810000e-06	2.819859e-06	7.267211e-09	1.906731e+01	4.800383e+02
1.820000e-06	2.803605e-06	7.312178e-09	1.895740e+01	4.782281e+02
1.830000e-06	2.786633e-06	7.235456e-09	1.884264e+01	4.763004e+02
1.840000e-06	2.768390e-06	7.193681e-09	1.871928e+01	4.742284e+02
1.850000e-06	2.749236e-06	7.205299e-09	1.858976e+01	4.719889e+02
1.860000e-06	2.729362e-06	7.172434e-09	1.845539e+01	4.695687e+02
1.870000e-06	2.708206e-06	7.098803e-09	1.831233e+01	4.669661e+02
1.880000e-06	2.685748e-06	7.084186e-09	1.816047e+01	4.641908e+02
1.890000e-06	2.662401e-06	7.029647e-09	1.800261e+01	4.612583e+02
1.900000e-06	2.638119e-06	6.961743e-09	1.783842e+01	4.581847e+02
1.910000e-06	2.612985e-06	6.974637e-09	1.766847e+01	4.549804e+02
1.920000e-06	2.587148e-06	6.918299e-09	1.749376e+01	4.516473e+02
1.930000e-06	2.560440e-06	6.825534e-09	1.731317e+01	4.481793e+02
1.940000e-06	2.533012e-06	6.804807e-09	1.712770e+01	4.445663e+02
1.950000e-06	2.504724e-06	6.712882e-09	1.693643e+01	4.408004e+02
1.960000e-06	2.475073e-06	6.672860e-09	1.673593e+01	4.368810e+02
1.970000e-06	2.444276e-06	6.624814e-09	1.652769e+01	4.328179e+02
1.980000e-06	2.412737e-06	6.495483e-09	1.631443e+01	4.286301e+02
1.990000e-06	2.380409e-06	6.489713e-09	1.609583e+01	4.243406e+02
2.000000e-06	2.347285e-06	6.465183e-09	1.587186e+01	4.199688e+02
2.010000e-06	2.313366e-06	6.303935e-09	1.564250e+01	4.155240e+02
2.020000e-06	2.278670e-06	6.260638e-09	1.540790e+01	4.110010e+02
2.030000e-06	2.243334e-06	6.234332e-09	1.516896e+01	4.063814e+02
2.040000e-06	2.207152e-06	6.103299e-09	1.492431e+01	4.016395e+02
2.050000e-06	2.169902e-06	6.062978e-09	1.467243e+01	3.967514e+02
2.060000e-06	2.131743e-06	5.996569e-09	1.441440e+01	3.917039e+02
2.070000e-06	2.092865e-06	5.880182e-09	1.415152e+01	3.865005e+02
2.080000e-06	2.053334e-06	5.828233e-09	1.388422e+01	3.811616e+02
2.090000e-06	2.013109e-06	5.741351e-09	1.361223e+01	3.757184e+02
2.100000e-06	1.972203e-06	5.637816e-09	1.333563e+01	3.702036e+02
2.110000e-06	1.930718e-06	5.562932e-09	1.305512e+01	3.646405e+02
2.120000e-06	1.888534e-06	5.473975e-09	1.276987e+01	3.590351e+02
2.130000e-06	1.845699e-06	5.402316e-09	1.248024e+01	3.533751e+02
2.140000e-06	1.802443e-06	5.318487e-09	1.218775e+01	3.476338e+02
2.150000e-06	1.758749e-06	5.207826e-09	1.189230e+01	3.417809e+02
2.160000e-06	1.714436e-06	5.123344e-09	1.159266e+01	3.357932e+02
2.170000e-06	1.669347e-06	5.035447e-09	1.128778e+01	3.296636e+02
2.180000e-06	1.623647e-06	4.937681e-09	1.097876e+01	3.234035e+02
2.190000e-06	1.577482e-06	4.834002e-09	1.066661e+01	3.170389e+02
2.200000e-06	1.530801e-06	4.740383e-09	1.035096e+01	3.106002e+02
2.210000e-06	1.483542e-06	4.654176e-09	1.003141e+01	3.041111e+02
2.220000e-06	1.435592e-06	4.550171e-09	9.707176e+00	2.975795e+02
2.230000e-06	1.386979e-06	4.451754e-09	9.378465e+00	2.909943e+02
2.240000e-06	1.337859e-06	4.340360e-09	9.046325e+00	2.843301e+02
2.250000e-06	1.288342e-06	4.231894e-09	8.711500e+00	2.775573e+02
2.260000e-06	1.238383e-06	4.138201e-09	8.373691e+00	2.706538e+02
2.270000e-06	1.187926e-06	4.028014e-09	8.032511e+00	2.636149e+02
2.280000e-06	1.137036e-06	3.916824e-09	7.688402e+00	2.564565e+02
2.290000e-06	1.085759e-06	3.813585e-09	7.341677e+00	2.492101e+02
2.300000e-06	1.034050e-06	3.705851e-09	6.992035e+00	2.419129e+02
2.310000e-06	9.818695e-07	3.594119e-09	6.639199e+00	2.345946e+02
2.320000e-06	9.291473e-07	3.473336e-09	6.282702e+00	2.272676e+02
2.330000e-06	8.758842e-07	3.355415e-09	5.922548e+00	2.199232e+02
2.340000e-06	8.221005e-07	3.249004e-09	5.558874e+00	2.125360e+02
2.350000e-06	7.678790e-07	3.136241e-09	5.192240e+00	2.050743e+02
2.360000e-06	7.132928e-07	3.020554e-09	4.823138e+00	1.975125e+02
2.370000e-06	6.583829e-07	2.901823e-09	4.451850e+00	1.898414e+02
2.380000e-06	6.032969e-07	2.787950e-09	4.079369e+00	1.820712e+02
2.390000e-06	5.481082e-07	2.675132e-09	3.706194e+00	1.742272e+02
2.400000e-06	4.928500e-07	2.550468e-09	3.332550e+00	1.663389e+02
2.410000e-06	4.374970e-07	2.424260e-09	2.958264e+00	1.584276e+02
2.420000e-06	3.820404e-07	2.301497e-09	2.583279e+00	1.504973e+02
2.430000e-06	3.264782e-07	2.184613e-09	2.207578e+00	1.425317e+02
2.440000e-06	2.708354e-07	2.065153e-09	1.831333e+00	1.345008e+02
2.450000e-06	2.151822e-07	1.938398e-09	1.455017e+00	1.263720e+02
2.460000e-06	1.594442e-07	1.812225e-09	1.078129e+00	1.181239e+02
2.470000e-06	1.035864e-07	1.688069e-09	7.004297e-01	1.097555e+02
2.480000e-06	4.770321e-08	1.561777e-09	3.225592e-01	1.012878e+02
2.490000e-06	-8.188773e-09	1.431485e-09	-5.537079e-02	9.275751e+01
2.500000e-06	-6.406517e-08	1.299770e-09	-4.331955e-01	8.420316e+01
2.510000e-06	-1.198978e-07	1.169163e-09	-8.107239e-01	7.565088e+01
2.520000e-06	-1.756525e-07	1.038987e-09	-1.187726e+00	6.710360e+01
2.530000e-06	-2.312897e-07	9.053285e-10	-1.563933e+00	5.853878e+01
2.540000e-06	-2.868347e-07	7.711311e-10	-1.939517e+00	4.991525e+01
2.550000e-06	-3.422977e-07	6.400224e-10	-2.314546e+00	4.118701e+01
2.560000e-06	-3.977152e-07	5.104675e-10	-2.689268e+00	3.231871e+01
2.570000e-06	-4.530642e-07	3.756964e-10	-3.063527e+00	2.329724e+01
2.580000e-06	-5.083275e-07	2.330702e-10	-3.437206e+00	1.413510e+01
2.590000e-06	-5.635237e-07	8.863366e-11	-3.810431e+00	4.864415e+00
2.600000e-06	-6.186263e-07	-5.405564e-11	-4.183024e+00	-4.476046e+00
2.610000e-06	-6.735807e-07	-1.969101e-10	-4.554613e+00	-1.385588e+01
2.620000e-06	-7.282715e-07	-3.424541e-10	-4.924422e+00	-2.326435e+01
2.630000e-06	-7.826314e-07	-4.872071e-10	-5.291992e+00	-3.271378e+01
2.640000e-06	-8.366039e-07	-6.289553e-10	-5.656943e+00	-4.223391e+01
2.650000e-06	-8.900577e-07	-7.707614e-10	-6.018387e+00	-5.185955e+01
2.660000e-06	-9.429308e-07	-9.204721e-10	-6.375904e+00	-6.161633e+01
2.670000e-06	-9.952517e-07	-1.077439e-09	-6.729687e+00	-7.151017e+01
2.680000e-06	-1.047073e-06	-1.233533e-09	-7.080089e+00	-8.152438e+01
2.690000e-06	-1.098502e-06	-1.387242e-09	-7.427843e+00	-9.162542e+01
2.700000e-06	-1.149606e-06	-1.542445e-09	-7.773396e+00	-1.017750e+02
2.710000e-06	-1.200340e-06	-1.700771e-09	-8.116455e+00	-1.119435e+02
2.720000e-06	-1.250605e-06	-1.856250e-09	-8.456334e+00	-1.221200e+02
2.730000e-06	-1.300396e-06	-2.006217e-09	-8.793008e+00	-1.323137e+02
2.740000e-06	-1.349755e-06	-2.157096e-09	-9.126768e+00	-1.425483e+02
2.750000e-06	-1.398500e-06	-2.315831e-09	-9.456372e+00	-1.528493e+02
2.760000e-06	-1.446471e-06	-2.478705e-09	-9.780738e+00	-1.632307e+02
2.770000e-06	-1.493595e-06	-2.641012e-09	-1.009938e+01	-1.736859e+02
2.780000e-06	-1.540001e-06	-2.802552e-09	-1.041317e+01	-1.841861e+02
2.790000e-06	-1.585923e-06	-2.964584e-09	-1.072368e+01	-1.946871e+02
2.800000e-06	-1.631446e-06	-3.126171e-09	-1.103150e+01	-2.051417e+02
2.810000e-06	-1.676592e-06	-3.281079e-09	-1.133677e+01	-2.155135e+02
2.820000e-06	-1.721223e-06	-3.429657e-09	-1.163856e+01	-2.257864e+02
2.830000e-06	-1.765203e-06	-3.579799e-09	-1.193594e+01	-2.359658e+02
2.840000e-06	-1.808629e-06	-3.737104e-09	-1.222958e+01	-2.460726e+02
2.850000e-06	-1.851642e-06	-3.897201e-09	-1.252042e+01	-2.561308e+02
2.860000e-06	-1.894108e-06	-4.053568e-09	-1.280757e+01	-2.661539e+02
2.870000e-06	-1.935924e-06	-4.207277e-09	-1.309032e+01	-2.761356e+02
2.880000e-06	-1.977131e-06	-4.360342e-09	-1.336895e+01	-2.860473e+02
2.890000e-06	-2.017646e-06	-4.509992e-09	-1.364291e+01	-2.958437e+02
2.900000e-06	-2.057439e-06	-4.652343e-09	-1.391198e+01	-3.054739e+02
2.910000e-06	-2.096664e-06	-4.791017e-09	-1.417721e+01	-3.148938e+02
2.920000e-06	-2.135260e-06	-4.931962e-09	-1.443819e+01	-3.240755e+02
2.930000e-06	-2.172938e-06	-5.074373e-09	-1.469296e+01	-3.330094e+02
2.940000e-06	-2.209511e-06	-5.211117e-09	-1.494026e+01	-3.417008e+02
