# Temperatura_=_25.45
# Concentracion g/m^3_=_18700.0
# C_Vs_to_Am_M_A/Vsm_=_65563218390.804596
# pendiente_HvsI_1/m_=_3716.3
# ordenada_HvsI_A/m_=_1297.0
# frecuencia_Hz_=_301040.7073166523

Tiempo_(s)	Campo_(V.s)	Magnetizacion_(V.s)	Campo_(kA/m)	Magnetizacion_(A/m)
0.000000e+00	-2.930356e-06	-7.490107e-09	-1.977690e+01	-4.885362e+02
1.000000e-08	-2.929673e-06	-7.493118e-09	-1.977229e+01	-4.884933e+02
2.000000e-08	-2.928159e-06	-7.492983e-09	-1.976208e+01	-4.882840e+02
3.000000e-08	-2.925360e-06	-7.486476e-09	-1.974318e+01	-4.879253e+02
4.000000e-08	-2.921339e-06	-7.476980e-09	-1.971604e+01	-4.874313e+02
5.000000e-08	-2.916522e-06	-7.466045e-09	-1.968354e+01	-4.868066e+02
6.000000e-08	-2.910854e-06	-7.453263e-09	-1.964529e+01	-4.860438e+02
7.000000e-08	-2.904221e-06	-7.435389e-09	-1.960052e+01	-4.851280e+02
8.000000e-08	-2.896566e-06	-7.424329e-09	-1.954885e+01	-4.840471e+02
9.000000e-08	-2.887765e-06	-7.451374e-09	-1.948945e+01	-4.828022e+02
1.000000e-07	-2.877455e-06	-7.466093e-09	-1.941988e+01	-4.814166e+02
1.100000e-07	-2.865707e-06	-7.390006e-09	-1.934059e+01	-4.799352e+02
1.200000e-07	-2.853173e-06	-7.255385e-09	-1.925599e+01	-4.784153e+02
1.300000e-07	-2.839913e-06	-7.264402e-09	-1.916650e+01	-4.769097e+02
1.400000e-07	-2.825638e-06	-7.362623e-09	-1.907016e+01	-4.754473e+02
1.500000e-07	-2.810312e-06	-7.272054e-09	-1.896672e+01	-4.740190e+02
1.600000e-07	-2.793749e-06	-7.183257e-09	-1.885494e+01	-4.725737e+02
1.700000e-07	-2.775838e-06	-7.262452e-09	-1.873406e+01	-4.710285e+02
1.800000e-07	-2.757015e-06	-7.206777e-09	-1.860702e+01	-4.692894e+02
1.900000e-07	-2.737521e-06	-7.052842e-09	-1.847546e+01	-4.672769e+02
2.000000e-07	-2.717166e-06	-7.095588e-09	-1.833809e+01	-4.649480e+02
2.100000e-07	-2.695800e-06	-7.068301e-09	-1.819389e+01	-4.623072e+02
2.200000e-07	-2.673613e-06	-6.906013e-09	-1.804415e+01	-4.594023e+02
2.300000e-07	-2.650605e-06	-6.966143e-09	-1.788887e+01	-4.563067e+02
2.400000e-07	-2.626607e-06	-6.996503e-09	-1.772691e+01	-4.530947e+02
2.500000e-07	-2.601840e-06	-6.794540e-09	-1.755975e+01	-4.498181e+02
2.600000e-07	-2.576164e-06	-6.736975e-09	-1.738647e+01	-4.464922e+02
2.700000e-07	-2.549163e-06	-6.775126e-09	-1.720424e+01	-4.430961e+02
2.800000e-07	-2.521077e-06	-6.683968e-09	-1.701468e+01	-4.395857e+02
2.900000e-07	-2.492203e-06	-6.619565e-09	-1.681982e+01	-4.359148e+02
3.000000e-07	-2.462467e-06	-6.569539e-09	-1.661913e+01	-4.320550e+02
3.100000e-07	-2.431966e-06	-6.489554e-09	-1.641328e+01	-4.280077e+02
3.200000e-07	-2.400721e-06	-6.465945e-09	-1.620241e+01	-4.238033e+02
3.300000e-07	-2.368676e-06	-6.387976e-09	-1.598614e+01	-4.194891e+02
3.400000e-07	-2.335959e-06	-6.263279e-09	-1.576533e+01	-4.151099e+02
3.500000e-07	-2.302519e-06	-6.232986e-09	-1.553964e+01	-4.106908e+02
3.600000e-07	-2.267977e-06	-6.193462e-09	-1.530652e+01	-4.062274e+02
3.700000e-07	-2.232244e-06	-6.109613e-09	-1.506536e+01	-4.016885e+02
3.800000e-07	-2.195760e-06	-6.045134e-09	-1.481913e+01	-3.970285e+02
3.900000e-07	-2.158700e-06	-5.943566e-09	-1.456902e+01	-3.922058e+02
4.000000e-07	-2.120905e-06	-5.862152e-09	-1.431393e+01	-3.871990e+02
4.100000e-07	-2.082352e-06	-5.824245e-09	-1.405374e+01	-3.820149e+02
4.200000e-07	-2.042988e-06	-5.736343e-09	-1.378808e+01	-3.766851e+02
4.300000e-07	-2.002886e-06	-5.624346e-09	-1.351743e+01	-3.712535e+02
4.400000e-07	-1.962307e-06	-5.557808e-09	-1.324356e+01	-3.657595e+02
4.500000e-07	-1.921253e-06	-5.494854e-09	-1.296649e+01	-3.602236e+02
4.600000e-07	-1.879434e-06	-5.398310e-09	-1.268425e+01	-3.546412e+02
4.700000e-07	-1.836541e-06	-5.293745e-09	-1.239477e+01	-3.489867e+02
4.800000e-07	-1.792686e-06	-5.203823e-09	-1.209879e+01	-3.432256e+02
4.900000e-07	-1.748237e-06	-5.131621e-09	-1.179881e+01	-3.373300e+02
5.000000e-07	-1.703335e-06	-5.051795e-09	-1.149577e+01	-3.312899e+02
5.100000e-07	-1.657899e-06	-4.945474e-09	-1.118912e+01	-3.251170e+02
5.200000e-07	-1.611838e-06	-4.830753e-09	-1.087826e+01	-3.188397e+02
5.300000e-07	-1.565188e-06	-4.744155e-09	-1.056341e+01	-3.124907e+02
5.400000e-07	-1.517988e-06	-4.659572e-09	-1.024486e+01	-3.060934e+02
5.500000e-07	-1.470215e-06	-4.560441e-09	-9.922445e+00	-2.996525e+02
5.600000e-07	-1.421926e-06	-4.455867e-09	-9.596544e+00	-2.931530e+02
5.700000e-07	-1.373278e-06	-4.351139e-09	-9.268219e+00	-2.865670e+02
5.800000e-07	-1.324191e-06	-4.255469e-09	-8.936933e+00	-2.798655e+02
5.900000e-07	-1.274441e-06	-4.153928e-09	-8.601174e+00	-2.730315e+02
6.000000e-07	-1.223927e-06	-4.034467e-09	-8.260253e+00	-2.660670e+02
6.100000e-07	-1.172645e-06	-3.918331e-09	-7.914154e+00	-2.589923e+02
6.200000e-07	-1.120772e-06	-3.823754e-09	-7.564065e+00	-2.518386e+02
6.300000e-07	-1.068480e-06	-3.722654e-09	-7.211147e+00	-2.446359e+02
6.400000e-07	-1.015881e-06	-3.604906e-09	-6.856157e+00	-2.374021e+02
6.500000e-07	-9.630018e-07	-3.486468e-09	-6.499275e+00	-2.301379e+02
6.600000e-07	-9.096981e-07	-3.378723e-09	-6.139530e+00	-2.228285e+02
6.700000e-07	-8.560129e-07	-3.272029e-09	-5.777210e+00	-2.154525e+02
6.800000e-07	-8.020644e-07	-3.154022e-09	-5.413113e+00	-2.079923e+02
6.900000e-07	-7.478742e-07	-3.031944e-09	-5.047385e+00	-2.004429e+02
7.000000e-07	-6.934691e-07	-2.917372e-09	-4.680206e+00	-1.928143e+02
7.100000e-07	-6.388719e-07	-2.810727e-09	-4.311731e+00	-1.851275e+02
7.200000e-07	-5.840859e-07	-2.693835e-09	-3.941982e+00	-1.774044e+02
7.300000e-07	-5.290596e-07	-2.565850e-09	-3.570611e+00	-1.696581e+02
7.400000e-07	-4.738331e-07	-2.441650e-09	-3.197888e+00	-1.618855e+02
7.500000e-07	-4.184198e-07	-2.327484e-09	-2.823905e+00	-1.540676e+02
7.600000e-07	-3.627952e-07	-2.212972e-09	-2.448496e+00	-1.461756e+02
7.700000e-07	-3.070391e-07	-2.088833e-09	-2.072199e+00	-1.381823e+02
7.800000e-07	-2.511956e-07	-1.960206e-09	-1.695313e+00	-1.300725e+02
7.900000e-07	-1.952442e-07	-1.838162e-09	-1.317698e+00	-1.218491e+02
8.000000e-07	-1.391752e-07	-1.717538e-09	-9.392902e-01	-1.135320e+02
8.100000e-07	-8.303382e-08	-1.586255e-09	-5.603932e-01	-1.051510e+02
8.200000e-07	-2.686146e-08	-1.450155e-09	-1.812873e-01	-9.673471e+01
8.300000e-07	2.930178e-08	-1.319700e-09	1.977570e-01	-8.829980e+01
8.400000e-07	8.543505e-08	-1.196198e-09	5.765991e-01	-7.984613e+01
8.500000e-07	1.415400e-07	-1.068595e-09	9.552503e-01	-7.135783e+01
8.600000e-07	1.975806e-07	-9.342475e-10	1.333467e+00	-6.281052e+01
8.700000e-07	2.535326e-07	-8.008143e-10	1.711085e+00	-5.418119e+01
8.800000e-07	3.093381e-07	-6.727198e-10	2.087715e+00	-4.545661e+01
8.900000e-07	3.650260e-07	-5.419026e-10	2.463552e+00	-3.663697e+01
9.000000e-07	4.206284e-07	-4.030467e-10	2.838811e+00	-2.773342e+01
9.100000e-07	4.760371e-07	-2.635892e-10	3.212763e+00	-1.876103e+01
9.200000e-07	5.312356e-07	-1.283764e-10	3.585296e+00	-9.730358e+00
9.300000e-07	5.862764e-07	6.730450e-12	3.956765e+00	-6.414055e-01
9.400000e-07	6.411498e-07	1.467799e-10	4.327104e+00	8.517381e+00
9.500000e-07	6.957835e-07	2.899790e-10	4.695826e+00	1.776473e+01
9.600000e-07	7.502056e-07	4.324878e-10	5.063119e+00	2.711869e+01
9.700000e-07	8.044039e-07	5.749923e-10	5.428902e+00	3.658876e+01
9.800000e-07	8.582893e-07	7.218443e-10	5.792574e+00	4.617132e+01
9.900000e-07	9.118254e-07	8.726888e-10	6.153887e+00	5.585049e+01
1.000000e-06	9.650126e-07	1.021095e-09	6.512847e+00	6.560382e+01
1.010000e-06	1.017872e-06	1.165342e-09	6.869591e+00	7.541064e+01
1.020000e-06	1.070365e-06	1.312909e-09	7.223867e+00	8.525937e+01
1.030000e-06	1.122438e-06	1.466324e-09	7.575306e+00	9.515092e+01
1.040000e-06	1.174003e-06	1.619674e-09	7.923316e+00	1.050967e+02
1.050000e-06	1.224925e-06	1.770024e-09	8.266991e+00	1.151120e+02
1.060000e-06	1.275135e-06	1.922779e-09	8.605858e+00	1.252080e+02
1.070000e-06	1.324631e-06	2.081312e-09	8.939902e+00	1.353852e+02
1.080000e-06	1.373534e-06	2.238139e-09	9.269945e+00	1.456308e+02
1.090000e-06	1.422066e-06	2.392634e-09	9.597487e+00	1.559215e+02
1.100000e-06	1.470294e-06	2.547822e-09	9.922977e+00	1.662303e+02
1.110000e-06	1.518070e-06	2.705762e-09	1.024542e+01	1.765333e+02
1.120000e-06	1.565249e-06	2.864880e-09	1.056383e+01	1.868156e+02
1.130000e-06	1.611833e-06	3.023826e-09	1.087822e+01	1.970720e+02
1.140000e-06	1.657820e-06	3.181082e-09	1.118858e+01	2.073041e+02
1.150000e-06	1.703242e-06	3.337098e-09	1.149514e+01	2.175147e+02
1.160000e-06	1.748176e-06	3.492710e-09	1.179839e+01	2.277014e+02
1.170000e-06	1.792703e-06	3.647207e-09	1.209891e+01	2.378539e+02
1.180000e-06	1.836786e-06	3.800583e-09	1.239643e+01	2.479544e+02
1.190000e-06	1.880080e-06	3.951515e-09	1.268861e+01	2.579811e+02
1.200000e-06	1.922374e-06	4.102034e-09	1.297406e+01	2.679139e+02
1.210000e-06	1.963739e-06	4.252857e-09	1.325323e+01	2.777378e+02
1.220000e-06	2.004426e-06	4.402163e-09	1.352782e+01	2.874440e+02
1.230000e-06	2.044555e-06	4.548750e-09	1.379865e+01	2.970267e+02
1.240000e-06	2.083994e-06	4.693697e-09	1.406482e+01	3.064780e+02
1.250000e-06	2.122715e-06	4.835045e-09	1.432615e+01	3.157827e+02
1.260000e-06	2.160675e-06	4.972282e-09	1.458234e+01	3.249158e+02
1.270000e-06	2.197892e-06	5.103543e-09	1.483352e+01	3.338441e+02
1.280000e-06	2.234538e-06	5.232873e-09	1.508085e+01	3.425315e+02
1.290000e-06	2.270669e-06	5.362883e-09	1.532469e+01	3.509469e+02
1.300000e-06	2.306002e-06	5.490486e-09	1.556315e+01	3.590705e+02
1.310000e-06	2.340161e-06	5.610930e-09	1.579369e+01	3.668972e+02
1.320000e-06	2.373236e-06	5.724219e-09	1.601691e+01	3.744350e+02
1.330000e-06	2.405528e-06	5.833407e-09	1.623485e+01	3.816998e+02
1.340000e-06	2.437064e-06	5.938082e-09	1.644769e+01	3.887080e+02
1.350000e-06	2.467844e-06	6.037586e-09	1.665542e+01	3.954703e+02
1.360000e-06	2.497778e-06	6.132900e-09	1.685744e+01	4.019890e+02
1.370000e-06	2.526885e-06	6.225877e-09	1.705388e+01	4.082587e+02
1.380000e-06	2.555346e-06	6.317964e-09	1.724597e+01	4.142710e+02
1.390000e-06	2.582971e-06	6.408045e-09	1.743241e+01	4.200204e+02
1.400000e-06	2.609339e-06	6.492517e-09	1.761037e+01	4.255079e+02
1.410000e-06	2.634510e-06	6.570520e-09	1.778024e+01	4.307420e+02
1.420000e-06	2.658764e-06	6.643026e-09	1.794394e+01	4.357367e+02
1.430000e-06	2.682109e-06	6.713917e-09	1.810149e+01	4.405062e+02
1.440000e-06	2.704518e-06	6.783411e-09	1.825273e+01	4.450602e+02
1.450000e-06	2.726032e-06	6.847877e-09	1.839792e+01	4.494013e+02
1.460000e-06	2.746795e-06	6.907840e-09	1.853805e+01	4.535250e+02
1.470000e-06	2.766755e-06	6.966834e-09	1.867276e+01	4.574229e+02
1.480000e-06	2.785762e-06	7.025009e-09	1.880104e+01	4.610868e+02
1.490000e-06	2.803789e-06	7.078206e-09	1.892270e+01	4.645122e+02
1.500000e-06	2.820840e-06	7.124636e-09	1.903778e+01	4.676998e+02
1.510000e-06	2.836805e-06	7.165834e-09	1.914553e+01	4.706540e+02
1.520000e-06	2.851603e-06	7.204599e-09	1.924540e+01	4.733801e+02
1.530000e-06	2.865330e-06	7.241612e-09	1.933804e+01	4.758819e+02
1.540000e-06	2.878061e-06	7.273451e-09	1.942396e+01	4.781602e+02
1.550000e-06	2.889676e-06	7.300907e-09	1.950235e+01	4.802150e+02
1.560000e-06	2.899825e-06	7.328956e-09	1.957085e+01	4.820483e+02
1.570000e-06	2.908726e-06	7.357901e-09	1.963092e+01	4.836678e+02
1.580000e-06	2.916802e-06	7.383938e-09	1.968543e+01	4.850881e+02
1.590000e-06	2.923942e-06	7.402893e-09	1.973361e+01	4.863295e+02
1.600000e-06	2.930010e-06	7.415617e-09	1.977457e+01	4.874126e+02
1.610000e-06	2.935149e-06	7.426166e-09	1.980925e+01	4.883533e+02
1.620000e-06	2.939456e-06	7.435752e-09	1.983832e+01	4.891572e+02
1.630000e-06	2.942668e-06	7.443895e-09	1.985999e+01	4.898190e+02
1.640000e-06	2.944579e-06	7.452368e-09	1.987289e+01	4.903252e+02
1.650000e-06	2.945410e-06	7.461578e-09	1.987850e+01	4.906607e+02
1.660000e-06	2.945329e-06	7.469242e-09	1.987795e+01	4.908161e+02
1.670000e-06	2.944308e-06	7.470134e-09	1.987106e+01	4.907922e+02
1.680000e-06	2.942315e-06	7.463707e-09	1.985761e+01	4.906002e+02
1.690000e-06	2.939453e-06	7.454933e-09	1.983830e+01	4.902570e+02
1.700000e-06	2.935843e-06	7.444362e-09	1.981393e+01	4.897774e+02
1.710000e-06	2.931228e-06	7.431994e-09	1.978279e+01	4.891672e+02
1.720000e-06	2.925406e-06	7.421942e-09	1.974349e+01	4.884200e+02
1.730000e-06	2.918589e-06	7.419972e-09	1.969749e+01	4.875218e+02
1.740000e-06	2.910969e-06	7.388031e-09	1.964606e+01	4.864591e+02
1.750000e-06	2.902111e-06	7.313020e-09	1.958628e+01	4.852314e+02
1.760000e-06	2.891495e-06	7.293984e-09	1.951463e+01	4.838593e+02
1.770000e-06	2.879496e-06	7.382456e-09	1.943365e+01	4.823858e+02
1.780000e-06	2.867215e-06	7.392487e-09	1.935076e+01	4.808675e+02
1.790000e-06	2.854656e-06	7.252557e-09	1.926601e+01	4.793588e+02
1.800000e-06	2.840496e-06	7.197380e-09	1.917044e+01	4.778918e+02
1.810000e-06	2.824709e-06	7.307921e-09	1.906389e+01	4.764618e+02
1.820000e-06	2.808434e-06	7.239161e-09	1.895405e+01	4.750222e+02
1.830000e-06	2.791454e-06	7.114373e-09	1.883946e+01	4.734925e+02
1.840000e-06	2.773085e-06	7.225183e-09	1.871548e+01	4.717788e+02
1.850000e-06	2.753886e-06	7.200258e-09	1.858591e+01	4.697987e+02
1.860000e-06	2.734064e-06	7.025049e-09	1.845213e+01	4.675046e+02
1.870000e-06	2.712837e-06	7.100816e-09	1.830887e+01	4.648960e+02
1.880000e-06	2.690285e-06	7.120292e-09	1.815667e+01	4.620164e+02
1.890000e-06	2.666919e-06	6.891571e-09	1.799897e+01	4.589378e+02
1.900000e-06	2.642557e-06	6.923030e-09	1.783455e+01	4.557355e+02
1.910000e-06	2.617373e-06	7.019569e-09	1.766459e+01	4.524647e+02
1.920000e-06	2.591527e-06	6.840353e-09	1.749015e+01	4.491448e+02
1.930000e-06	2.564739e-06	6.767675e-09	1.730936e+01	4.457584e+02
1.940000e-06	2.537233e-06	6.792843e-09	1.712372e+01	4.422630e+02
1.950000e-06	2.508881e-06	6.675476e-09	1.693238e+01	4.386114e+02
1.960000e-06	2.479037e-06	6.639264e-09	1.673096e+01	4.347726e+02
1.970000e-06	2.448098e-06	6.579510e-09	1.652215e+01	4.307446e+02
1.980000e-06	2.416496e-06	6.461642e-09	1.630887e+01	4.265553e+02
1.990000e-06	2.384064e-06	6.482923e-09	1.608999e+01	4.222508e+02
2.000000e-06	2.350927e-06	6.414825e-09	1.586635e+01	4.178772e+02
2.010000e-06	2.316976e-06	6.279498e-09	1.563722e+01	4.134623e+02
2.020000e-06	2.282175e-06	6.254591e-09	1.540234e+01	4.090051e+02
2.030000e-06	2.246811e-06	6.164276e-09	1.516367e+01	4.044767e+02
2.040000e-06	2.210605e-06	6.083060e-09	1.491932e+01	3.998321e+02
2.050000e-06	2.173247e-06	6.070200e-09	1.466719e+01	3.950286e+02
2.060000e-06	2.134948e-06	5.951257e-09	1.440872e+01	3.900421e+02
2.070000e-06	2.095933e-06	5.859365e-09	1.414540e+01	3.848761e+02
2.080000e-06	2.056318e-06	5.814621e-09	1.387804e+01	3.795602e+02
2.090000e-06	2.016058e-06	5.714847e-09	1.360633e+01	3.741377e+02
2.100000e-06	1.975122e-06	5.624651e-09	1.333005e+01	3.686493e+02
2.110000e-06	1.933611e-06	5.535532e-09	1.304989e+01	3.631180e+02
2.120000e-06	1.891398e-06	5.461189e-09	1.276500e+01	3.575418e+02
2.130000e-06	1.848540e-06	5.392508e-09	1.247575e+01	3.518969e+02
2.140000e-06	1.805284e-06	5.283584e-09	1.218382e+01	3.461491e+02
2.150000e-06	1.761487e-06	5.186660e-09	1.188823e+01	3.402691e+02
2.160000e-06	1.716944e-06	5.098829e-09	1.158761e+01	3.342445e+02
2.170000e-06	1.671666e-06	5.013245e-09	1.128203e+01	3.280850e+02
2.180000e-06	1.625828e-06	4.928145e-09	1.097267e+01	3.218176e+02
2.190000e-06	1.579557e-06	4.814895e-09	1.066039e+01	3.154752e+02
2.200000e-06	1.532805e-06	4.718946e-09	1.034486e+01	3.090828e+02
2.210000e-06	1.485483e-06	4.628301e-09	1.002549e+01	3.026473e+02
2.220000e-06	1.437374e-06	4.523255e-09	9.700804e+00	2.961556e+02
2.230000e-06	1.388590e-06	4.425161e-09	9.371557e+00	2.895806e+02
2.240000e-06	1.339434e-06	4.311511e-09	9.039807e+00	2.828929e+02
2.250000e-06	1.289822e-06	4.215759e-09	8.704980e+00	2.760737e+02
2.260000e-06	1.239678e-06	4.127463e-09	8.366555e+00	2.691227e+02
2.270000e-06	1.189091e-06	4.008221e-09	8.025144e+00	2.620587e+02
2.280000e-06	1.138118e-06	3.893062e-09	7.681130e+00	2.549123e+02
2.290000e-06	1.086788e-06	3.785010e-09	7.334705e+00	2.477140e+02
2.300000e-06	1.035002e-06	3.682338e-09	6.985204e+00	2.404835e+02
2.310000e-06	9.826246e-07	3.571593e-09	6.631710e+00	2.332233e+02
2.320000e-06	9.296867e-07	3.448066e-09	6.274433e+00	2.259200e+02
2.330000e-06	8.761968e-07	3.337869e-09	5.913431e+00	2.185525e+02
2.340000e-06	8.221607e-07	3.229659e-09	5.548742e+00	2.111021e+02
2.350000e-06	7.676802e-07	3.115074e-09	5.181055e+00	2.035623e+02
2.360000e-06	7.129244e-07	2.996887e-09	4.811510e+00	1.959417e+02
2.370000e-06	6.579813e-07	2.876847e-09	4.440699e+00	1.882602e+02
2.380000e-06	6.028875e-07	2.765499e-09	4.068873e+00	1.805405e+02
2.390000e-06	5.477174e-07	2.649315e-09	3.696531e+00	1.727968e+02
2.400000e-06	4.924671e-07	2.524749e-09	3.323649e+00	1.650280e+02
2.410000e-06	4.370895e-07	2.400925e-09	2.949906e+00	1.572165e+02
2.420000e-06	3.815468e-07	2.279358e-09	2.575050e+00	1.493342e+02
2.430000e-06	3.258553e-07	2.163901e-09	2.199189e+00	1.413531e+02
2.440000e-06	2.701345e-07	2.042283e-09	1.823131e+00	1.332563e+02
2.450000e-06	2.143243e-07	1.913793e-09	1.446470e+00	1.250446e+02
2.460000e-06	1.583874e-07	1.786938e-09	1.068953e+00	1.167365e+02
2.470000e-06	1.024357e-07	1.660338e-09	6.913361e-01	1.083612e+02
2.480000e-06	4.645130e-08	1.532595e-09	3.134987e-01	9.994792e+01
2.490000e-06	-9.532652e-09	1.401497e-09	-6.433563e-02	9.151500e+01
2.500000e-06	-6.544054e-08	1.274005e-09	-4.416566e-01	8.306417e+01
2.510000e-06	-1.212997e-07	1.151570e-09	-8.186487e-01	7.458097e+01
2.520000e-06	-1.771594e-07	1.023250e-09	-1.195644e+00	6.604149e+01
2.530000e-06	-2.329954e-07	8.851348e-10	-1.572480e+00	5.742210e+01
2.540000e-06	-2.887498e-07	7.453580e-10	-1.948765e+00	4.870826e+01
2.550000e-06	-3.443560e-07	6.126042e-10	-2.324050e+00	3.989872e+01
2.560000e-06	-3.998117e-07	4.812084e-10	-2.698319e+00	3.100374e+01
2.570000e-06	-4.551585e-07	3.427145e-10	-3.071853e+00	2.203838e+01
2.580000e-06	-5.104340e-07	2.018416e-10	-3.444906e+00	1.301403e+01
2.590000e-06	-5.656529e-07	6.525332e-11	-3.817577e+00	3.931994e+00
2.600000e-06	-6.207908e-07	-7.028528e-11	-4.189702e+00	-5.218182e+00
2.610000e-06	-6.757868e-07	-2.119072e-10	-4.560868e+00	-1.445479e+01
2.620000e-06	-7.305427e-07	-3.605352e-10	-4.930415e+00	-2.379637e+01
2.630000e-06	-7.850685e-07	-5.073711e-10	-5.298408e+00	-3.325362e+01
2.640000e-06	-8.391951e-07	-6.481995e-10	-5.663707e+00	-4.282441e+01
2.650000e-06	-8.927969e-07	-7.899950e-10	-6.025464e+00	-5.249395e+01
2.660000e-06	-9.458864e-07	-9.402884e-10	-6.383764e+00	-6.224013e+01
2.670000e-06	-9.984012e-07	-1.094243e-09	-6.738185e+00	-7.204167e+01
2.680000e-06	-1.050401e-06	-1.242868e-09	-7.089134e+00	-8.188579e+01
2.690000e-06	-1.101966e-06	-1.390577e-09	-7.437142e+00	-9.177205e+01
2.700000e-06	-1.153155e-06	-1.544922e-09	-7.782615e+00	-1.017109e+02
2.710000e-06	-1.203965e-06	-1.704204e-09	-8.125528e+00	-1.117178e+02
2.720000e-06	-1.254307e-06	-1.860517e-09	-8.465288e+00	-1.218047e+02
2.730000e-06	-1.304150e-06	-2.011229e-09	-8.801673e+00	-1.319733e+02
2.740000e-06	-1.353540e-06	-2.162739e-09	-9.135009e+00	-1.422122e+02
2.750000e-06	-1.402444e-06	-2.319427e-09	-9.465060e+00	-1.524991e+02
2.760000e-06	-1.450661e-06	-2.477499e-09	-9.790476e+00	-1.628069e+02
2.770000e-06	-1.497999e-06	-2.633627e-09	-1.010996e+01	-1.731111e+02
2.780000e-06	-1.544561e-06	-2.789011e-09	-1.042421e+01	-1.833957e+02
2.790000e-06	-1.590576e-06	-2.948308e-09	-1.073476e+01	-1.936546e+02
2.800000e-06	-1.636168e-06	-3.109890e-09	-1.104246e+01	-2.038888e+02
2.810000e-06	-1.681313e-06	-3.265325e-09	-1.134714e+01	-2.141014e+02
2.820000e-06	-1.725845e-06	-3.414698e-09	-1.164768e+01	-2.242907e+02
2.830000e-06	-1.769752e-06	-3.564938e-09	-1.194401e+01	-2.344473e+02
2.840000e-06	-1.813201e-06	-3.719891e-09	-1.223725e+01	-2.445541e+02
2.850000e-06	-1.856265e-06	-3.876791e-09	-1.252789e+01	-2.545894e+02
2.860000e-06	-1.898789e-06	-4.031352e-09	-1.281488e+01	-2.645328e+02
2.870000e-06	-1.940657e-06	-4.184042e-09	-1.309745e+01	-2.743686e+02
2.880000e-06	-1.981899e-06	-4.335324e-09	-1.337579e+01	-2.840874e+02
2.890000e-06	-2.022431e-06	-4.481981e-09	-1.364934e+01	-2.936833e+02
2.900000e-06	-2.062253e-06	-4.622165e-09	-1.391809e+01	-3.031489e+02
2.910000e-06	-2.101540e-06	-4.760638e-09	-1.418324e+01	-3.124701e+02
2.920000e-06	-2.140239e-06	-4.902017e-09	-1.444442e+01	-3.216228e+02
2.930000e-06	-2.178038e-06	-5.043095e-09	-1.469953e+01	-3.305744e+02
2.940000e-06	-2.214710e-06	-5.178844e-09	-1.494703e+01	-3.392890e+02
