# Temperatura_=_24.34
# Concentracion g/m^3_=_18700.0
# C_Vs_to_Am_M_A/Vsm_=_65563218390.804596
# pendiente_HvsI_1/m_=_3716.3
# ordenada_HvsI_A/m_=_1297.0
# frecuencia_Hz_=_301043.6405953463

Tiempo_(s)	Campo_(V.s)	Magnetizacion_(V.s)	Campo_(kA/m)	Magnetizacion_(A/m)
0.000000e+00	-2.923383e-06	-7.453849e-09	-1.977668e+01	-4.854936e+02
1.000000e-08	-2.922743e-06	-7.452923e-09	-1.977235e+01	-4.854598e+02
2.000000e-08	-2.921215e-06	-7.450863e-09	-1.976202e+01	-4.853048e+02
3.000000e-08	-2.918402e-06	-7.444923e-09	-1.974298e+01	-4.850276e+02
4.000000e-08	-2.914445e-06	-7.438070e-09	-1.971622e+01	-4.846126e+02
5.000000e-08	-2.909683e-06	-7.432038e-09	-1.968401e+01	-4.840379e+02
6.000000e-08	-2.904080e-06	-7.422569e-09	-1.964610e+01	-4.832857e+02
7.000000e-08	-2.897497e-06	-7.404394e-09	-1.960156e+01	-4.823520e+02
8.000000e-08	-2.889886e-06	-7.388129e-09	-1.955008e+01	-4.812517e+02
9.000000e-08	-2.881187e-06	-7.408276e-09	-1.949123e+01	-4.800149e+02
1.000000e-07	-2.871023e-06	-7.424356e-09	-1.942247e+01	-4.786789e+02
1.100000e-07	-2.859373e-06	-7.350360e-09	-1.934366e+01	-4.772760e+02
1.200000e-07	-2.846912e-06	-7.218783e-09	-1.925936e+01	-4.758234e+02
1.300000e-07	-2.833764e-06	-7.221311e-09	-1.917041e+01	-4.743184e+02
1.400000e-07	-2.819490e-06	-7.324277e-09	-1.907384e+01	-4.727398e+02
1.500000e-07	-2.804132e-06	-7.244976e-09	-1.896995e+01	-4.710557e+02
1.600000e-07	-2.787630e-06	-7.140784e-09	-1.885832e+01	-4.692341e+02
1.700000e-07	-2.769803e-06	-7.199547e-09	-1.873771e+01	-4.672523e+02
1.800000e-07	-2.750971e-06	-7.139479e-09	-1.861032e+01	-4.651015e+02
1.900000e-07	-2.731405e-06	-6.985149e-09	-1.847795e+01	-4.627867e+02
2.000000e-07	-2.711068e-06	-7.014995e-09	-1.834037e+01	-4.603209e+02
2.100000e-07	-2.689773e-06	-6.994488e-09	-1.819631e+01	-4.577179e+02
2.200000e-07	-2.667586e-06	-6.846828e-09	-1.804622e+01	-4.549851e+02
2.300000e-07	-2.644579e-06	-6.903000e-09	-1.789057e+01	-4.521204e+02
2.400000e-07	-2.620665e-06	-6.944551e-09	-1.772880e+01	-4.491138e+02
2.500000e-07	-2.595993e-06	-6.749994e-09	-1.756189e+01	-4.459522e+02
2.600000e-07	-2.570397e-06	-6.669082e-09	-1.738873e+01	-4.426252e+02
2.700000e-07	-2.543512e-06	-6.707445e-09	-1.720686e+01	-4.391308e+02
2.800000e-07	-2.515522e-06	-6.624546e-09	-1.701750e+01	-4.354771e+02
2.900000e-07	-2.486713e-06	-6.552405e-09	-1.682261e+01	-4.316809e+02
3.000000e-07	-2.457066e-06	-6.504052e-09	-1.662205e+01	-4.277632e+02
3.100000e-07	-2.426633e-06	-6.426600e-09	-1.641617e+01	-4.237439e+02
3.200000e-07	-2.395450e-06	-6.402823e-09	-1.620521e+01	-4.196367e+02
3.300000e-07	-2.363497e-06	-6.327095e-09	-1.598906e+01	-4.154468e+02
3.400000e-07	-2.330900e-06	-6.200083e-09	-1.576854e+01	-4.111708e+02
3.500000e-07	-2.297591e-06	-6.160885e-09	-1.554320e+01	-4.067987e+02
3.600000e-07	-2.263220e-06	-6.120936e-09	-1.531068e+01	-4.023176e+02
3.700000e-07	-2.227663e-06	-6.036806e-09	-1.507014e+01	-3.977148e+02
3.800000e-07	-2.191243e-06	-5.969275e-09	-1.482376e+01	-3.929807e+02
3.900000e-07	-2.154235e-06	-5.872095e-09	-1.457340e+01	-3.881099e+02
4.000000e-07	-2.116562e-06	-5.794753e-09	-1.431854e+01	-3.831028e+02
4.100000e-07	-2.078078e-06	-5.757121e-09	-1.405819e+01	-3.779646e+02
4.200000e-07	-2.038791e-06	-5.667634e-09	-1.379242e+01	-3.727051e+02
4.300000e-07	-1.998803e-06	-5.552858e-09	-1.352190e+01	-3.673368e+02
4.400000e-07	-1.958296e-06	-5.484145e-09	-1.324787e+01	-3.618725e+02
4.500000e-07	-1.917311e-06	-5.423075e-09	-1.297061e+01	-3.563229e+02
4.600000e-07	-1.875553e-06	-5.330477e-09	-1.268811e+01	-3.506940e+02
4.700000e-07	-1.832779e-06	-5.227129e-09	-1.239875e+01	-3.449851e+02
4.800000e-07	-1.789058e-06	-5.132797e-09	-1.210298e+01	-3.391895e+02
4.900000e-07	-1.744723e-06	-5.059715e-09	-1.180305e+01	-3.332965e+02
5.000000e-07	-1.699983e-06	-4.985593e-09	-1.150039e+01	-3.272955e+02
5.100000e-07	-1.654682e-06	-4.881999e-09	-1.119392e+01	-3.211799e+02
5.200000e-07	-1.608753e-06	-4.765001e-09	-1.088321e+01	-3.149504e+02
5.300000e-07	-1.562293e-06	-4.678428e-09	-1.056891e+01	-3.086157e+02
5.400000e-07	-1.515230e-06	-4.596167e-09	-1.025053e+01	-3.021897e+02
5.500000e-07	-1.467569e-06	-4.488621e-09	-9.928105e+00	-2.956871e+02
5.600000e-07	-1.419442e-06	-4.377194e-09	-9.602521e+00	-2.891180e+02
5.700000e-07	-1.370923e-06	-4.276503e-09	-9.274292e+00	-2.824842e+02
5.800000e-07	-1.321979e-06	-4.186341e-09	-8.943187e+00	-2.757783e+02
5.900000e-07	-1.272410e-06	-4.087940e-09	-8.607853e+00	-2.689874e+02
6.000000e-07	-1.222059e-06	-3.970524e-09	-8.267226e+00	-2.620990e+02
6.100000e-07	-1.170943e-06	-3.853689e-09	-7.921430e+00	-2.551066e+02
6.200000e-07	-1.119222e-06	-3.755071e-09	-7.571535e+00	-2.480149e+02
6.300000e-07	-1.067097e-06	-3.652950e-09	-7.218910e+00	-2.408386e+02
6.400000e-07	-1.014657e-06	-3.534429e-09	-6.864151e+00	-2.335992e+02
6.500000e-07	-9.618592e-07	-3.413837e-09	-6.506976e+00	-2.263172e+02
6.600000e-07	-9.086488e-07	-3.306506e-09	-6.147008e+00	-2.190045e+02
6.700000e-07	-8.550923e-07	-3.204848e-09	-5.784699e+00	-2.116608e+02
6.800000e-07	-8.012601e-07	-3.091573e-09	-5.420524e+00	-2.042731e+02
6.900000e-07	-7.470887e-07	-2.968737e-09	-5.054054e+00	-1.968218e+02
7.000000e-07	-6.926939e-07	-2.850903e-09	-4.686073e+00	-1.892886e+02
7.100000e-07	-6.381694e-07	-2.742225e-09	-4.317216e+00	-1.816646e+02
7.200000e-07	-5.835070e-07	-2.625069e-09	-3.947424e+00	-1.739543e+02
7.300000e-07	-5.286949e-07	-2.497373e-09	-3.576620e+00	-1.661747e+02
7.400000e-07	-4.737139e-07	-2.374808e-09	-3.204674e+00	-1.583480e+02
7.500000e-07	-4.185283e-07	-2.262993e-09	-2.831344e+00	-1.504925e+02
7.600000e-07	-3.631054e-07	-2.149120e-09	-2.456407e+00	-1.426145e+02
7.700000e-07	-3.074842e-07	-2.024241e-09	-2.080130e+00	-1.347044e+02
7.800000e-07	-2.517200e-07	-1.895496e-09	-1.702886e+00	-1.267399e+02
7.900000e-07	-1.958453e-07	-1.773525e-09	-1.324893e+00	-1.186942e+02
8.000000e-07	-1.398622e-07	-1.654249e-09	-9.461679e-01	-1.105469e+02
8.100000e-07	-8.382745e-08	-1.525260e-09	-5.670926e-01	-1.022934e+02
8.200000e-07	-2.778589e-08	-1.391105e-09	-1.879715e-01	-9.394760e+01
8.300000e-07	2.823499e-08	-1.263230e-09	1.910097e-01	-8.553779e+01
8.400000e-07	8.422942e-08	-1.141119e-09	5.698119e-01	-7.709661e+01
8.500000e-07	1.402166e-07	-1.013324e-09	9.485654e-01	-6.864833e+01
8.600000e-07	1.961750e-07	-8.783685e-10	1.327124e+00	-6.019900e+01
8.700000e-07	2.520304e-07	-7.463133e-10	1.704985e+00	-5.173302e+01
8.800000e-07	3.077762e-07	-6.198757e-10	2.082106e+00	-4.321795e+01
8.900000e-07	3.633653e-07	-4.917023e-10	2.458166e+00	-3.461550e+01
9.000000e-07	4.188055e-07	-3.553719e-10	2.833219e+00	-2.589482e+01
9.100000e-07	4.741099e-07	-2.173745e-10	3.207353e+00	-1.704271e+01
9.200000e-07	5.291618e-07	-8.485122e-11	3.579779e+00	-8.066864e+00
9.300000e-07	5.839726e-07	4.773054e-11	3.950574e+00	1.009102e+00
9.400000e-07	6.386412e-07	1.879830e-10	4.320407e+00	1.015673e+01
9.500000e-07	6.931994e-07	3.307565e-10	4.689493e+00	1.935539e+01
9.600000e-07	7.475531e-07	4.696890e-10	5.057196e+00	2.860133e+01
9.700000e-07	8.016592e-07	6.098201e-10	5.423223e+00	3.790932e+01
9.800000e-07	8.554877e-07	7.541132e-10	5.787373e+00	4.730618e+01
9.900000e-07	9.089318e-07	9.011204e-10	6.148922e+00	5.681883e+01
1.000000e-06	9.619859e-07	1.045993e-09	6.507834e+00	6.646172e+01
1.010000e-06	1.014664e-06	1.188746e-09	6.864202e+00	7.622883e+01
1.020000e-06	1.067023e-06	1.335417e-09	7.218407e+00	8.609385e+01
1.030000e-06	1.118983e-06	1.488754e-09	7.569922e+00	9.601841e+01
1.040000e-06	1.170393e-06	1.642347e-09	7.917709e+00	1.059654e+02
1.050000e-06	1.221145e-06	1.792364e-09	8.261047e+00	1.159118e+02
1.060000e-06	1.271105e-06	1.943238e-09	8.599023e+00	1.258563e+02
1.070000e-06	1.320341e-06	2.097754e-09	8.932107e+00	1.358177e+02
1.080000e-06	1.369101e-06	2.250348e-09	9.261965e+00	1.458253e+02
1.090000e-06	1.417567e-06	2.400073e-09	9.589837e+00	1.559050e+02
1.100000e-06	1.465732e-06	2.551137e-09	9.915678e+00	1.660658e+02
1.110000e-06	1.513358e-06	2.706029e-09	1.023787e+01	1.762933e+02
1.120000e-06	1.560356e-06	2.863652e-09	1.055581e+01	1.865518e+02
1.130000e-06	1.606837e-06	3.022150e-09	1.087025e+01	1.967952e+02
1.140000e-06	1.652783e-06	3.180486e-09	1.118107e+01	2.069808e+02
1.150000e-06	1.698142e-06	3.335642e-09	1.148793e+01	2.170830e+02
1.160000e-06	1.742985e-06	3.487084e-09	1.179129e+01	2.270986e+02
1.170000e-06	1.787473e-06	3.636454e-09	1.209225e+01	2.370435e+02
1.180000e-06	1.831544e-06	3.786348e-09	1.239039e+01	2.469423e+02
1.190000e-06	1.874865e-06	3.936473e-09	1.268346e+01	2.568131e+02
1.200000e-06	1.917140e-06	4.086349e-09	1.296945e+01	2.666558e+02
1.210000e-06	1.958398e-06	4.235665e-09	1.324856e+01	2.764472e+02
1.220000e-06	1.998994e-06	4.383489e-09	1.352320e+01	2.861450e+02
1.230000e-06	2.039108e-06	4.529868e-09	1.379456e+01	2.956992e+02
1.240000e-06	2.078538e-06	4.673112e-09	1.406131e+01	3.050656e+02
1.250000e-06	2.117236e-06	4.809056e-09	1.432310e+01	3.142170e+02
1.260000e-06	2.155223e-06	4.940840e-09	1.458008e+01	3.231463e+02
1.270000e-06	2.192404e-06	5.071776e-09	1.483161e+01	3.318618e+02
1.280000e-06	2.228986e-06	5.202480e-09	1.507909e+01	3.403761e+02
1.290000e-06	2.265050e-06	5.330946e-09	1.532306e+01	3.486940e+02
1.300000e-06	2.300158e-06	5.454661e-09	1.556057e+01	3.568045e+02
1.310000e-06	2.334062e-06	5.572900e-09	1.578993e+01	3.646802e+02
1.320000e-06	2.367032e-06	5.684944e-09	1.601297e+01	3.722854e+02
1.330000e-06	2.399297e-06	5.793436e-09	1.623124e+01	3.795882e+02
1.340000e-06	2.430792e-06	5.897641e-09	1.644431e+01	3.865726e+02
1.350000e-06	2.461482e-06	5.997818e-09	1.665192e+01	3.932453e+02
1.360000e-06	2.491366e-06	6.095557e-09	1.685409e+01	3.996337e+02
1.370000e-06	2.520454e-06	6.189913e-09	1.705087e+01	4.057758e+02
1.380000e-06	2.548883e-06	6.280105e-09	1.724319e+01	4.117065e+02
1.390000e-06	2.576432e-06	6.365933e-09	1.742956e+01	4.174446e+02
1.400000e-06	2.602647e-06	6.448903e-09	1.760691e+01	4.229865e+02
1.410000e-06	2.627681e-06	6.528270e-09	1.777626e+01	4.283091e+02
1.420000e-06	2.651904e-06	6.603709e-09	1.794013e+01	4.333797e+02
1.430000e-06	2.675269e-06	6.675155e-09	1.809819e+01	4.381708e+02
1.440000e-06	2.697661e-06	6.742485e-09	1.824967e+01	4.426716e+02
1.450000e-06	2.719127e-06	6.807508e-09	1.839489e+01	4.468935e+02
1.460000e-06	2.739847e-06	6.869373e-09	1.853506e+01	4.508657e+02
1.470000e-06	2.759834e-06	6.925327e-09	1.867028e+01	4.546243e+02
1.480000e-06	2.778874e-06	6.977484e-09	1.879908e+01	4.581982e+02
1.490000e-06	2.796844e-06	7.028254e-09	1.892065e+01	4.615973e+02
1.500000e-06	2.813862e-06	7.076056e-09	1.903577e+01	4.648095e+02
1.510000e-06	2.829812e-06	7.118711e-09	1.914368e+01	4.678057e+02
1.520000e-06	2.844564e-06	7.156829e-09	1.924347e+01	4.705519e+02
1.530000e-06	2.858273e-06	7.192036e-09	1.933621e+01	4.730245e+02
1.540000e-06	2.870988e-06	7.224858e-09	1.942223e+01	4.752204e+02
1.550000e-06	2.882523e-06	7.254427e-09	1.950027e+01	4.771607e+02
1.560000e-06	2.892701e-06	7.281054e-09	1.956912e+01	4.788849e+02
1.570000e-06	2.901697e-06	7.305835e-09	1.962998e+01	4.804381e+02
1.580000e-06	2.909731e-06	7.327739e-09	1.968433e+01	4.818568e+02
1.590000e-06	2.916825e-06	7.346567e-09	1.973232e+01	4.831581e+02
1.600000e-06	2.922901e-06	7.362363e-09	1.977342e+01	4.843370e+02
1.610000e-06	2.928042e-06	7.375631e-09	1.980820e+01	4.853712e+02
1.620000e-06	2.932375e-06	7.386156e-09	1.983751e+01	4.862328e+02
1.630000e-06	2.935640e-06	7.395116e-09	1.985960e+01	4.869007e+02
1.640000e-06	2.937586e-06	7.404281e-09	1.987277e+01	4.873694e+02
1.650000e-06	2.938434e-06	7.412175e-09	1.987850e+01	4.876510e+02
1.660000e-06	2.938374e-06	7.416928e-09	1.987809e+01	4.877692e+02
1.670000e-06	2.937386e-06	7.417473e-09	1.987141e+01	4.877492e+02
1.680000e-06	2.935440e-06	7.414181e-09	1.985825e+01	4.876071e+02
1.690000e-06	2.932619e-06	7.408476e-09	1.983917e+01	4.873437e+02
1.700000e-06	2.929085e-06	7.399740e-09	1.981526e+01	4.869447e+02
1.710000e-06	2.924610e-06	7.388370e-09	1.978499e+01	4.863884e+02
1.720000e-06	2.918830e-06	7.378483e-09	1.974588e+01	4.856558e+02
1.730000e-06	2.911971e-06	7.376193e-09	1.969948e+01	4.847415e+02
1.740000e-06	2.904323e-06	7.346251e-09	1.964774e+01	4.836579e+02
1.750000e-06	2.895541e-06	7.273325e-09	1.958833e+01	4.824342e+02
1.760000e-06	2.885006e-06	7.244631e-09	1.951706e+01	4.811073e+02
1.770000e-06	2.873024e-06	7.329557e-09	1.943600e+01	4.797106e+02
1.780000e-06	2.860756e-06	7.355970e-09	1.935301e+01	4.782633e+02
1.790000e-06	2.848241e-06	7.227405e-09	1.926835e+01	4.767649e+02
1.800000e-06	2.834228e-06	7.166607e-09	1.917355e+01	4.751958e+02
1.810000e-06	2.818563e-06	7.250298e-09	1.906757e+01	4.735248e+02
1.820000e-06	2.802342e-06	7.180952e-09	1.895784e+01	4.717195e+02
1.830000e-06	2.785431e-06	7.049975e-09	1.884344e+01	4.697557e+02
1.840000e-06	2.767120e-06	7.138461e-09	1.871956e+01	4.676232e+02
1.850000e-06	2.747931e-06	7.138405e-09	1.858975e+01	4.653256e+02
1.860000e-06	2.728136e-06	6.969593e-09	1.845584e+01	4.628755e+02
1.870000e-06	2.706990e-06	7.013563e-09	1.831279e+01	4.602869e+02
1.880000e-06	2.684475e-06	7.043792e-09	1.816047e+01	4.575681e+02
1.890000e-06	2.661120e-06	6.828680e-09	1.800248e+01	4.547181e+02
1.900000e-06	2.636787e-06	6.836924e-09	1.783786e+01	4.517276e+02
1.910000e-06	2.611625e-06	6.949801e-09	1.766764e+01	4.485833e+02
1.920000e-06	2.585846e-06	6.795791e-09	1.749324e+01	4.452745e+02
1.930000e-06	2.559192e-06	6.695603e-09	1.731293e+01	4.417981e+02
1.940000e-06	2.531779e-06	6.711157e-09	1.712748e+01	4.381610e+02
1.950000e-06	2.503533e-06	6.612524e-09	1.693640e+01	4.343793e+02
1.960000e-06	2.473893e-06	6.561114e-09	1.673589e+01	4.304738e+02
1.970000e-06	2.443044e-06	6.510082e-09	1.652719e+01	4.264648e+02
1.980000e-06	2.411453e-06	6.405651e-09	1.631348e+01	4.223668e+02
1.990000e-06	2.379092e-06	6.413493e-09	1.609455e+01	4.181860e+02
2.000000e-06	2.346026e-06	6.356269e-09	1.587087e+01	4.139198e+02
2.010000e-06	2.312196e-06	6.220757e-09	1.564201e+01	4.095588e+02
2.020000e-06	2.277513e-06	6.182197e-09	1.540737e+01	4.050902e+02
2.030000e-06	2.242237e-06	6.101316e-09	1.516873e+01	4.005012e+02
2.040000e-06	2.206257e-06	6.019496e-09	1.492533e+01	3.957816e+02
2.050000e-06	2.169182e-06	5.998413e-09	1.467451e+01	3.909258e+02
2.060000e-06	2.130995e-06	5.885631e-09	1.441618e+01	3.859333e+02
2.070000e-06	2.091997e-06	5.793245e-09	1.415235e+01	3.808090e+02
2.080000e-06	2.052465e-06	5.749899e-09	1.388493e+01	3.755622e+02
2.090000e-06	2.012293e-06	5.651021e-09	1.361316e+01	3.702050e+02
2.100000e-06	1.971435e-06	5.559391e-09	1.333676e+01	3.647507e+02
2.110000e-06	1.930000e-06	5.469106e-09	1.305645e+01	3.592101e+02
2.120000e-06	1.887851e-06	5.387805e-09	1.277131e+01	3.535897e+02
2.130000e-06	1.845044e-06	5.325499e-09	1.248172e+01	3.478898e+02
2.140000e-06	1.801801e-06	5.225671e-09	1.218918e+01	3.421042e+02
2.150000e-06	1.758050e-06	5.123383e-09	1.189320e+01	3.362224e+02
2.160000e-06	1.713687e-06	5.031207e-09	1.159309e+01	3.302336e+02
2.170000e-06	1.668620e-06	4.946356e-09	1.128821e+01	3.241305e+02
2.180000e-06	1.622920e-06	4.861167e-09	1.097905e+01	3.179132e+02
2.190000e-06	1.576758e-06	4.744168e-09	1.066677e+01	3.115893e+02
2.200000e-06	1.530140e-06	4.645917e-09	1.035140e+01	3.051726e+02
2.210000e-06	1.483021e-06	4.565289e-09	1.003263e+01	2.986778e+02
2.220000e-06	1.435159e-06	4.463705e-09	9.708851e+00	2.921158e+02
2.230000e-06	1.386540e-06	4.359952e-09	9.379939e+00	2.854893e+02
2.240000e-06	1.337444e-06	4.246061e-09	9.047808e+00	2.787919e+02
2.250000e-06	1.287957e-06	4.146607e-09	8.713026e+00	2.720110e+02
2.260000e-06	1.237968e-06	4.057452e-09	8.374855e+00	2.651337e+02
2.270000e-06	1.187444e-06	3.940716e-09	8.033060e+00	2.581527e+02
2.280000e-06	1.136493e-06	3.827140e-09	7.688373e+00	2.510712e+02
2.290000e-06	1.085211e-06	3.721153e-09	7.341452e+00	2.439032e+02
2.300000e-06	1.033548e-06	3.617901e-09	6.991953e+00	2.366698e+02
2.310000e-06	9.814142e-07	3.510925e-09	6.639266e+00	2.293917e+02
2.320000e-06	9.287122e-07	3.389387e-09	6.282737e+00	2.220823e+02
2.330000e-06	8.754208e-07	3.274639e-09	5.922221e+00	2.147425e+02
2.340000e-06	8.216689e-07	3.166064e-09	5.558589e+00	2.073606e+02
2.350000e-06	7.674519e-07	3.054469e-09	5.191811e+00	1.999173e+02
2.360000e-06	7.128231e-07	2.938169e-09	4.822247e+00	1.923937e+02
2.370000e-06	6.579507e-07	2.817953e-09	4.451035e+00	1.847797e+02
2.380000e-06	6.029123e-07	2.706823e-09	4.078701e+00	1.770783e+02
2.390000e-06	5.477563e-07	2.595162e-09	3.705571e+00	1.693052e+02
2.400000e-06	4.925203e-07	2.473042e-09	3.331899e+00	1.614827e+02
2.410000e-06	4.371854e-07	2.349538e-09	2.957559e+00	1.536300e+02
2.420000e-06	3.817284e-07	2.227725e-09	2.582392e+00	1.457548e+02
2.430000e-06	3.261910e-07	2.111145e-09	2.206682e+00	1.378492e+02
2.440000e-06	2.705795e-07	1.990759e-09	1.830470e+00	1.298921e+02
2.450000e-06	2.148638e-07	1.865531e-09	1.453553e+00	1.218564e+02
2.460000e-06	1.590844e-07	1.743324e-09	1.076206e+00	1.137208e+02
2.470000e-06	1.033097e-07	1.620119e-09	6.988898e-01	1.054785e+02
2.480000e-06	4.750362e-08	1.495055e-09	3.213620e-01	9.714160e+01
2.490000e-06	-8.288119e-09	1.366141e-09	-5.606912e-02	8.873726e+01
2.500000e-06	-6.404223e-08	1.237620e-09	-4.332456e-01	8.029823e+01
2.510000e-06	-1.197718e-07	1.112712e-09	-8.102560e-01	7.185025e+01
2.520000e-06	-1.754578e-07	9.844913e-10	-1.186972e+00	6.340161e+01
2.530000e-06	-2.311408e-07	8.491607e-10	-1.563667e+00	5.493895e+01
2.540000e-06	-2.867824e-07	7.136628e-10	-1.940083e+00	4.643118e+01
2.550000e-06	-3.423401e-07	5.877965e-10	-2.315930e+00	3.784000e+01
2.560000e-06	-3.977811e-07	4.648362e-10	-2.690989e+00	2.913319e+01
2.570000e-06	-4.531326e-07	3.304534e-10	-3.065441e+00	2.029535e+01
2.580000e-06	-5.084315e-07	1.870893e-10	-3.439539e+00	1.133204e+01
2.590000e-06	-5.636493e-07	4.649493e-11	-3.813087e+00	2.265617e+00
2.600000e-06	-6.187700e-07	-9.123609e-11	-4.185979e+00	-6.875351e+00
2.610000e-06	-6.737806e-07	-2.338678e-10	-4.558125e+00	-1.606887e+01
2.620000e-06	-7.285969e-07	-3.811345e-10	-4.928957e+00	-2.530913e+01
2.630000e-06	-7.830279e-07	-5.235305e-10	-5.297183e+00	-3.460911e+01
2.640000e-06	-8.369674e-07	-6.588162e-10	-5.662083e+00	-4.399485e+01
2.650000e-06	-8.903868e-07	-7.966137e-10	-6.023466e+00	-5.349389e+01
2.660000e-06	-9.432503e-07	-9.456871e-10	-6.381087e+00	-6.312251e+01
2.670000e-06	-9.955549e-07	-1.103362e-09	-6.734928e+00	-7.287706e+01
2.680000e-06	-1.047345e-06	-1.258021e-09	-7.085288e+00	-8.273311e+01
2.690000e-06	-1.098790e-06	-1.407137e-09	-7.433310e+00	-9.265301e+01
2.700000e-06	-1.149914e-06	-1.558471e-09	-7.779164e+00	-1.025988e+02
2.710000e-06	-1.200611e-06	-1.714077e-09	-8.122131e+00	-1.125455e+02
2.720000e-06	-1.250865e-06	-1.866683e-09	-8.462098e+00	-1.224894e+02
2.730000e-06	-1.300634e-06	-2.013282e-09	-8.798785e+00	-1.324475e+02
2.740000e-06	-1.349904e-06	-2.161852e-09	-9.132102e+00	-1.424485e+02
2.750000e-06	-1.398681e-06	-2.318296e-09	-9.462078e+00	-1.525195e+02
2.760000e-06	-1.446699e-06	-2.477392e-09	-9.786917e+00	-1.626716e+02
2.770000e-06	-1.493759e-06	-2.634432e-09	-1.010528e+01	-1.728932e+02
2.780000e-06	-1.540092e-06	-2.791089e-09	-1.041872e+01	-1.831503e+02
2.790000e-06	-1.585957e-06	-2.950143e-09	-1.072900e+01	-1.933973e+02
2.800000e-06	-1.631442e-06	-3.108280e-09	-1.103671e+01	-2.035906e+02
2.810000e-06	-1.676582e-06	-3.259193e-09	-1.134208e+01	-2.137021e+02
2.820000e-06	-1.721210e-06	-3.406441e-09	-1.164398e+01	-2.237262e+02
2.830000e-06	-1.765145e-06	-3.556692e-09	-1.194120e+01	-2.336774e+02
2.840000e-06	-1.808561e-06	-3.710568e-09	-1.223491e+01	-2.435798e+02
2.850000e-06	-1.851574e-06	-3.863909e-09	-1.252590e+01	-2.534530e+02
2.860000e-06	-1.893985e-06	-4.016284e-09	-1.281281e+01	-2.632992e+02
2.870000e-06	-1.935699e-06	-4.170221e-09	-1.309500e+01	-2.730977e+02
2.880000e-06	-1.976859e-06	-4.322907e-09	-1.337345e+01	-2.828077e+02
2.890000e-06	-2.017383e-06	-4.469638e-09	-1.364760e+01	-2.923794e+02
2.900000e-06	-2.057189e-06	-4.609365e-09	-1.391688e+01	-3.017674e+02
2.910000e-06	-2.096455e-06	-4.745697e-09	-1.418251e+01	-3.109423e+02
2.920000e-06	-2.135029e-06	-4.883211e-09	-1.444347e+01	-3.198950e+02
2.930000e-06	-2.172584e-06	-5.021001e-09	-1.469753e+01	-3.286326e+02
2.940000e-06	-2.209030e-06	-5.155752e-09	-1.494409e+01	-3.371678e+02
