# Temperatura_=_16.68
# Concentracion g/m^3_=_18700.0
# C_Vs_to_Am_M_A/Vsm_=_65563218390.804596
# pendiente_HvsI_1/m_=_3716.3
# ordenada_HvsI_A/m_=_1297.0
# frecuencia_Hz_=_301041.18346733897

Tiempo_(s)	Campo_(V.s)	Magnetizacion_(V.s)	Campo_(kA/m)	Magnetizacion_(A/m)
0.000000e+00	-2.928923e-06	-7.109654e-09	-1.977879e+01	-4.643994e+02
1.000000e-08	-2.928427e-06	-7.115811e-09	-1.977544e+01	-4.644350e+02
2.000000e-08	-2.927157e-06	-7.118719e-09	-1.976686e+01	-4.643593e+02
3.000000e-08	-2.924698e-06	-7.112860e-09	-1.975026e+01	-4.641764e+02
4.000000e-08	-2.920955e-06	-7.103601e-09	-1.972498e+01	-4.638695e+02
5.000000e-08	-2.916312e-06	-7.094372e-09	-1.969363e+01	-4.634047e+02
6.000000e-08	-2.910857e-06	-7.082211e-09	-1.965679e+01	-4.627421e+02
7.000000e-08	-2.904456e-06	-7.060829e-09	-1.961357e+01	-4.618509e+02
8.000000e-08	-2.897075e-06	-7.040784e-09	-1.956372e+01	-4.607248e+02
9.000000e-08	-2.888587e-06	-7.089752e-09	-1.950640e+01	-4.593912e+02
1.000000e-07	-2.878631e-06	-7.122576e-09	-1.943917e+01	-4.579106e+02
1.100000e-07	-2.867183e-06	-7.039234e-09	-1.936186e+01	-4.563657e+02
1.200000e-07	-2.854858e-06	-6.838693e-09	-1.927863e+01	-4.548414e+02
1.300000e-07	-2.841878e-06	-6.888793e-09	-1.919098e+01	-4.534009e+02
1.400000e-07	-2.827875e-06	-7.058005e-09	-1.909642e+01	-4.520660e+02
1.500000e-07	-2.812675e-06	-6.868576e-09	-1.899377e+01	-4.508074e+02
1.600000e-07	-2.796321e-06	-6.785268e-09	-1.888333e+01	-4.495479e+02
1.700000e-07	-2.778709e-06	-6.961563e-09	-1.876441e+01	-4.481798e+02
1.800000e-07	-2.760001e-06	-6.923235e-09	-1.863807e+01	-4.465912e+02
1.900000e-07	-2.740589e-06	-6.676044e-09	-1.850698e+01	-4.446935e+02
2.000000e-07	-2.720431e-06	-6.758424e-09	-1.837086e+01	-4.424426e+02
2.100000e-07	-2.699277e-06	-6.786980e-09	-1.822801e+01	-4.398481e+02
2.200000e-07	-2.677279e-06	-6.519967e-09	-1.807946e+01	-4.369659e+02
2.300000e-07	-2.654515e-06	-6.613282e-09	-1.792573e+01	-4.338791e+02
2.400000e-07	-2.630764e-06	-6.716239e-09	-1.776534e+01	-4.306721e+02
2.500000e-07	-2.606197e-06	-6.457975e-09	-1.759944e+01	-4.274059e+02
2.600000e-07	-2.580757e-06	-6.406055e-09	-1.742765e+01	-4.241035e+02
2.700000e-07	-2.553972e-06	-6.455998e-09	-1.724677e+01	-4.207480e+02
2.800000e-07	-2.526075e-06	-6.336695e-09	-1.705839e+01	-4.172941e+02
2.900000e-07	-2.497460e-06	-6.306822e-09	-1.686515e+01	-4.136881e+02
3.000000e-07	-2.467984e-06	-6.230258e-09	-1.666610e+01	-4.098888e+02
3.100000e-07	-2.437673e-06	-6.152845e-09	-1.646142e+01	-4.058823e+02
3.200000e-07	-2.406664e-06	-6.168118e-09	-1.625202e+01	-4.016862e+02
3.300000e-07	-2.374873e-06	-6.076594e-09	-1.603733e+01	-3.973412e+02
3.400000e-07	-2.342411e-06	-5.924487e-09	-1.581812e+01	-3.928953e+02
3.500000e-07	-2.309288e-06	-5.929219e-09	-1.559444e+01	-3.883863e+02
3.600000e-07	-2.275136e-06	-5.865183e-09	-1.536381e+01	-3.838284e+02
3.700000e-07	-2.239795e-06	-5.752995e-09	-1.512516e+01	-3.792094e+02
3.800000e-07	-2.203542e-06	-5.749691e-09	-1.488035e+01	-3.744978e+02
3.900000e-07	-2.166656e-06	-5.620382e-09	-1.463126e+01	-3.696565e+02
4.000000e-07	-2.129077e-06	-5.514108e-09	-1.437749e+01	-3.646591e+02
4.100000e-07	-2.090665e-06	-5.507255e-09	-1.411810e+01	-3.595008e+02
4.200000e-07	-2.051492e-06	-5.423369e-09	-1.385357e+01	-3.542004e+02
4.300000e-07	-2.011632e-06	-5.280714e-09	-1.358440e+01	-3.487935e+02
4.400000e-07	-1.971250e-06	-5.227536e-09	-1.331170e+01	-3.433186e+02
4.500000e-07	-1.930424e-06	-5.167844e-09	-1.303600e+01	-3.378030e+02
4.600000e-07	-1.888848e-06	-5.070837e-09	-1.275524e+01	-3.322527e+02
4.700000e-07	-1.846250e-06	-4.972944e-09	-1.246759e+01	-3.266514e+02
4.800000e-07	-1.802667e-06	-4.871093e-09	-1.217327e+01	-3.209680e+02
4.900000e-07	-1.758390e-06	-4.798586e-09	-1.187427e+01	-3.151699e+02
5.000000e-07	-1.713661e-06	-4.723649e-09	-1.157222e+01	-3.092363e+02
5.100000e-07	-1.668395e-06	-4.627833e-09	-1.126654e+01	-3.031664e+02
5.200000e-07	-1.622541e-06	-4.507779e-09	-1.095689e+01	-2.969797e+02
5.300000e-07	-1.576108e-06	-4.427415e-09	-1.064333e+01	-2.907078e+02
5.400000e-07	-1.529064e-06	-4.339586e-09	-1.032565e+01	-2.843816e+02
5.500000e-07	-1.481439e-06	-4.243923e-09	-1.000404e+01	-2.780188e+02
5.600000e-07	-1.433328e-06	-4.137395e-09	-9.679151e+00	-2.716173e+02
5.700000e-07	-1.384855e-06	-4.022413e-09	-9.351817e+00	-2.651561e+02
5.800000e-07	-1.335962e-06	-3.932368e-09	-9.021649e+00	-2.586044e+02
5.900000e-07	-1.286377e-06	-3.842818e-09	-8.686801e+00	-2.519348e+02
6.000000e-07	-1.235969e-06	-3.731223e-09	-8.346403e+00	-2.451344e+02
6.100000e-07	-1.184810e-06	-3.609275e-09	-8.000931e+00	-2.382117e+02
6.200000e-07	-1.133037e-06	-3.518830e-09	-7.651308e+00	-2.311932e+02
6.300000e-07	-1.080870e-06	-3.418531e-09	-7.299029e+00	-2.241150e+02
6.400000e-07	-1.028417e-06	-3.302011e-09	-6.944817e+00	-2.170093e+02
6.500000e-07	-9.756557e-07	-3.178396e-09	-6.588527e+00	-2.098934e+02
6.600000e-07	-9.225417e-07	-3.071719e-09	-6.229852e+00	-2.027653e+02
6.700000e-07	-8.690195e-07	-2.977326e-09	-5.868421e+00	-1.956060e+02
6.800000e-07	-8.151101e-07	-2.868639e-09	-5.504375e+00	-1.883890e+02
6.900000e-07	-7.609521e-07	-2.751071e-09	-5.138651e+00	-1.810928e+02
7.000000e-07	-7.066114e-07	-2.633193e-09	-4.771692e+00	-1.737096e+02
7.100000e-07	-6.520933e-07	-2.528807e-09	-4.403536e+00	-1.662489e+02
7.200000e-07	-5.974044e-07	-2.412430e-09	-4.034225e+00	-1.587330e+02
7.300000e-07	-5.425440e-07	-2.289038e-09	-3.663758e+00	-1.511871e+02
7.400000e-07	-4.874459e-07	-2.167753e-09	-3.291684e+00	-1.436277e+02
7.500000e-07	-4.320578e-07	-2.058073e-09	-2.917653e+00	-1.360551e+02
7.600000e-07	-3.764250e-07	-1.950808e-09	-2.541969e+00	-1.284516e+02
7.700000e-07	-3.206076e-07	-1.831809e-09	-2.165038e+00	-1.207888e+02
7.800000e-07	-2.647248e-07	-1.706575e-09	-1.787666e+00	-1.130382e+02
7.900000e-07	-2.087930e-07	-1.584751e-09	-1.409963e+00	-1.051835e+02
8.000000e-07	-1.527913e-07	-1.470969e-09	-1.031788e+00	-9.722771e+01
8.100000e-07	-9.674593e-08	-1.346374e-09	-6.533177e-01	-8.919325e+01
8.200000e-07	-4.067163e-08	-1.217737e-09	-2.746523e-01	-8.111411e+01
8.300000e-07	1.539937e-08	-1.089985e-09	1.039907e-01	-7.302338e+01
8.400000e-07	7.145225e-08	-9.705777e-10	4.825115e-01	-6.494086e+01
8.500000e-07	1.275032e-07	-8.504949e-10	8.610189e-01	-5.686551e+01
8.600000e-07	1.835530e-07	-7.237233e-10	1.239519e+00	-4.877578e+01
8.700000e-07	2.395097e-07	-5.975865e-10	1.617390e+00	-4.063751e+01
8.800000e-07	2.953559e-07	-4.752624e-10	1.994515e+00	-3.241635e+01
8.900000e-07	3.510708e-07	-3.554723e-10	2.370754e+00	-2.408986e+01
9.000000e-07	4.066406e-07	-2.237725e-10	2.746012e+00	-1.565460e+01
9.100000e-07	4.620392e-07	-8.758098e-11	3.120115e+00	-7.125654e+00
9.200000e-07	5.172146e-07	4.604691e-11	3.492710e+00	1.470963e+00
9.300000e-07	5.721810e-07	1.727166e-10	3.863894e+00	1.010984e+01
9.400000e-07	6.269383e-07	3.006065e-10	4.233666e+00	1.877686e+01
9.500000e-07	6.814868e-07	4.309224e-10	4.602027e+00	2.747480e+01
9.600000e-07	7.358641e-07	5.626586e-10	4.969233e+00	3.622166e+01
9.700000e-07	7.900875e-07	6.965571e-10	5.335400e+00	4.504264e+01
9.800000e-07	8.440569e-07	8.322843e-10	5.699850e+00	5.395903e+01
9.900000e-07	8.977000e-07	9.747832e-10	6.062098e+00	6.297863e+01
1.000000e-06	9.509980e-07	1.115432e-09	6.422015e+00	7.209160e+01
1.010000e-06	1.003923e-06	1.251926e-09	6.779415e+00	8.127334e+01
1.020000e-06	1.056502e-06	1.385795e-09	7.134478e+00	9.049321e+01
1.030000e-06	1.108728e-06	1.524556e-09	7.487154e+00	9.972534e+01
1.040000e-06	1.160477e-06	1.665729e-09	7.836608e+00	1.089574e+02
1.050000e-06	1.211658e-06	1.806136e-09	8.182235e+00	1.181936e+02
1.060000e-06	1.262120e-06	1.947148e-09	8.522996e+00	1.274505e+02
1.070000e-06	1.311761e-06	2.090949e-09	8.858219e+00	1.367482e+02
1.080000e-06	1.360779e-06	2.236181e-09	9.189237e+00	1.460997e+02
1.090000e-06	1.409394e-06	2.378821e-09	9.517525e+00	1.555025e+02
1.100000e-06	1.457646e-06	2.520161e-09	9.843369e+00	1.649377e+02
1.110000e-06	1.505484e-06	2.659376e-09	1.016641e+01	1.743740e+02
1.120000e-06	1.552757e-06	2.801132e-09	1.048565e+01	1.837777e+02
1.130000e-06	1.599427e-06	2.944591e-09	1.080081e+01	1.931232e+02
1.140000e-06	1.645588e-06	3.088975e-09	1.111253e+01	2.024000e+02
1.150000e-06	1.691153e-06	3.232731e-09	1.142022e+01	2.116133e+02
1.160000e-06	1.736098e-06	3.373734e-09	1.172373e+01	2.207790e+02
1.170000e-06	1.780603e-06	3.512472e-09	1.202428e+01	2.299134e+02
1.180000e-06	1.824746e-06	3.648535e-09	1.232237e+01	2.390230e+02
1.190000e-06	1.868377e-06	3.784846e-09	1.261701e+01	2.480981e+02
1.200000e-06	1.911044e-06	3.919712e-09	1.290513e+01	2.571123e+02
1.210000e-06	1.952564e-06	4.054788e-09	1.318551e+01	2.660291e+02
1.220000e-06	1.993300e-06	4.189461e-09	1.346060e+01	2.748114e+02
1.230000e-06	2.033555e-06	4.322951e-09	1.373244e+01	2.834315e+02
1.240000e-06	2.073221e-06	4.453568e-09	1.400030e+01	2.918774e+02
1.250000e-06	2.112148e-06	4.578250e-09	1.426317e+01	3.001524e+02
1.260000e-06	2.150354e-06	4.698462e-09	1.452117e+01	3.082687e+02
1.270000e-06	2.187795e-06	4.815419e-09	1.477401e+01	3.162382e+02
1.280000e-06	2.224561e-06	4.933014e-09	1.502229e+01	3.240627e+02
1.290000e-06	2.260820e-06	5.050888e-09	1.526714e+01	3.317294e+02
1.300000e-06	2.296365e-06	5.167629e-09	1.550718e+01	3.392118e+02
1.310000e-06	2.330749e-06	5.279367e-09	1.573936e+01	3.464768e+02
1.320000e-06	2.363986e-06	5.386445e-09	1.596381e+01	3.534953e+02
1.330000e-06	2.396444e-06	5.488563e-09	1.618300e+01	3.602511e+02
1.340000e-06	2.428209e-06	5.584882e-09	1.639750e+01	3.667463e+02
1.350000e-06	2.459205e-06	5.676297e-09	1.660682e+01	3.730002e+02
1.360000e-06	2.489365e-06	5.764238e-09	1.681049e+01	3.790416e+02
1.370000e-06	2.518617e-06	5.852595e-09	1.700802e+01	3.848986e+02
1.380000e-06	2.547167e-06	5.941093e-09	1.720082e+01	3.905886e+02
1.390000e-06	2.575046e-06	6.026824e-09	1.738909e+01	3.961127e+02
1.400000e-06	2.601785e-06	6.107912e-09	1.756965e+01	4.014559e+02
1.410000e-06	2.627185e-06	6.184968e-09	1.774118e+01	4.065935e+02
1.420000e-06	2.651579e-06	6.257347e-09	1.790591e+01	4.115008e+02
1.430000e-06	2.675122e-06	6.325748e-09	1.806489e+01	4.161624e+02
1.440000e-06	2.697814e-06	6.390404e-09	1.821813e+01	4.205774e+02
1.450000e-06	2.719629e-06	6.452925e-09	1.836544e+01	4.247599e+02
1.460000e-06	2.740553e-06	6.513968e-09	1.850674e+01	4.287324e+02
1.470000e-06	2.760712e-06	6.571965e-09	1.864287e+01	4.325171e+02
1.480000e-06	2.779983e-06	6.627094e-09	1.877301e+01	4.361269e+02
1.490000e-06	2.798195e-06	6.678091e-09	1.889599e+01	4.395596e+02
1.500000e-06	2.815404e-06	6.725418e-09	1.901221e+01	4.427979e+02
1.510000e-06	2.831588e-06	6.769141e-09	1.912150e+01	4.458155e+02
1.520000e-06	2.846628e-06	6.810088e-09	1.922306e+01	4.485864e+02
1.530000e-06	2.860564e-06	6.847585e-09	1.931717e+01	4.510946e+02
1.540000e-06	2.873495e-06	6.879307e-09	1.940449e+01	4.533408e+02
1.550000e-06	2.885361e-06	6.906955e-09	1.948462e+01	4.553438e+02
1.560000e-06	2.895860e-06	6.933702e-09	1.955552e+01	4.571358e+02
1.570000e-06	2.905063e-06	6.960913e-09	1.961767e+01	4.587533e+02
1.580000e-06	2.913299e-06	6.986404e-09	1.967328e+01	4.602266e+02
1.590000e-06	2.920574e-06	7.008159e-09	1.972241e+01	4.615720e+02
1.600000e-06	2.926885e-06	7.026288e-09	1.976502e+01	4.627884e+02
1.610000e-06	2.932251e-06	7.040498e-09	1.980127e+01	4.638605e+02
1.620000e-06	2.936786e-06	7.049711e-09	1.983188e+01	4.647660e+02
1.630000e-06	2.940378e-06	7.056546e-09	1.985615e+01	4.654863e+02
1.640000e-06	2.942624e-06	7.065914e-09	1.987131e+01	4.660144e+02
1.650000e-06	2.943635e-06	7.076518e-09	1.987814e+01	4.663590e+02
1.660000e-06	2.943689e-06	7.084671e-09	1.987850e+01	4.665422e+02
1.670000e-06	2.942799e-06	7.087619e-09	1.987249e+01	4.665911e+02
1.680000e-06	2.941001e-06	7.083953e-09	1.986035e+01	4.665274e+02
1.690000e-06	2.938309e-06	7.080308e-09	1.984217e+01	4.663569e+02
1.700000e-06	2.934862e-06	7.074492e-09	1.981889e+01	4.660652e+02
1.710000e-06	2.930566e-06	7.063580e-09	1.978988e+01	4.656197e+02
1.720000e-06	2.925086e-06	7.053414e-09	1.975288e+01	4.649806e+02
1.730000e-06	2.918485e-06	7.057126e-09	1.970830e+01	4.641153e+02
1.740000e-06	2.911061e-06	7.034650e-09	1.965817e+01	4.630142e+02
1.750000e-06	2.902614e-06	6.924146e-09	1.960112e+01	4.617009e+02
1.760000e-06	2.892517e-06	6.881649e-09	1.953294e+01	4.602328e+02
1.770000e-06	2.880825e-06	7.033163e-09	1.945399e+01	4.586912e+02
1.780000e-06	2.868613e-06	7.051308e-09	1.937152e+01	4.571616e+02
1.790000e-06	2.856305e-06	6.884563e-09	1.928841e+01	4.557107e+02
1.800000e-06	2.842683e-06	6.766617e-09	1.919642e+01	4.543655e+02
1.810000e-06	2.827278e-06	6.973374e-09	1.909239e+01	4.531022e+02
1.820000e-06	2.811182e-06	6.918877e-09	1.898370e+01	4.518481e+02
1.830000e-06	2.794516e-06	6.700411e-09	1.887115e+01	4.504977e+02
1.840000e-06	2.776471e-06	6.933795e-09	1.874929e+01	4.489381e+02
1.850000e-06	2.757338e-06	6.943616e-09	1.862009e+01	4.470770e+02
1.860000e-06	2.737623e-06	6.658818e-09	1.848696e+01	4.448650e+02
1.870000e-06	2.716710e-06	6.770942e-09	1.834573e+01	4.423058e+02
1.880000e-06	2.694375e-06	6.864782e-09	1.819490e+01	4.394512e+02
1.890000e-06	2.671189e-06	6.539164e-09	1.803833e+01	4.363826e+02
1.900000e-06	2.647051e-06	6.530612e-09	1.787533e+01	4.331855e+02
1.910000e-06	2.621960e-06	6.701120e-09	1.770589e+01	4.299243e+02
1.920000e-06	2.596264e-06	6.528694e-09	1.753237e+01	4.266265e+02
1.930000e-06	2.569681e-06	6.434915e-09	1.735286e+01	4.232790e+02
1.940000e-06	2.542300e-06	6.483031e-09	1.716796e+01	4.198388e+02
1.950000e-06	2.514300e-06	6.324736e-09	1.697887e+01	4.162519e+02
1.960000e-06	2.484946e-06	6.339473e-09	1.678064e+01	4.124750e+02
1.970000e-06	2.454204e-06	6.268751e-09	1.657305e+01	4.084910e+02
1.980000e-06	2.422705e-06	6.087917e-09	1.636034e+01	4.043141e+02
1.990000e-06	2.390456e-06	6.187860e-09	1.614257e+01	3.999832e+02
2.000000e-06	2.357467e-06	6.112723e-09	1.591979e+01	3.955465e+02
2.010000e-06	2.323766e-06	5.924430e-09	1.569221e+01	3.910436e+02
2.020000e-06	2.289211e-06	5.961703e-09	1.545886e+01	3.864915e+02
2.030000e-06	2.254003e-06	5.844786e-09	1.522110e+01	3.818809e+02
2.040000e-06	2.218156e-06	5.710536e-09	1.497904e+01	3.771816e+02
2.050000e-06	2.181265e-06	5.761864e-09	1.472991e+01	3.723563e+02
2.060000e-06	2.143263e-06	5.622662e-09	1.447329e+01	3.673768e+02
2.070000e-06	2.104399e-06	5.500703e-09	1.421084e+01	3.622357e+02
2.080000e-06	2.064918e-06	5.491301e-09	1.394423e+01	3.569495e+02
2.090000e-06	2.024846e-06	5.387641e-09	1.367363e+01	3.515526e+02
2.100000e-06	1.984068e-06	5.298727e-09	1.339826e+01	3.460839e+02
2.110000e-06	1.942641e-06	5.205174e-09	1.311850e+01	3.405725e+02
2.120000e-06	1.900576e-06	5.116316e-09	1.283444e+01	3.350268e+02
2.130000e-06	1.857859e-06	5.066366e-09	1.254598e+01	3.294328e+02
2.140000e-06	1.814662e-06	4.963590e-09	1.225427e+01	3.237604e+02
2.150000e-06	1.770988e-06	4.857454e-09	1.195934e+01	3.179764e+02
2.160000e-06	1.726725e-06	4.775473e-09	1.166044e+01	3.120583e+02
2.170000e-06	1.681728e-06	4.689064e-09	1.135658e+01	3.060029e+02
2.180000e-06	1.636059e-06	4.605254e-09	1.104818e+01	2.998278e+02
2.190000e-06	1.589910e-06	4.489512e-09	1.073654e+01	2.935639e+02
2.200000e-06	1.543275e-06	4.390305e-09	1.042162e+01	2.872428e+02
2.210000e-06	1.496164e-06	4.303387e-09	1.010348e+01	2.808843e+02
2.220000e-06	1.448417e-06	4.203281e-09	9.781047e+00	2.744881e+02
2.230000e-06	1.399891e-06	4.126290e-09	9.453357e+00	2.680352e+02
2.240000e-06	1.350820e-06	4.003139e-09	9.121982e+00	2.614953e+02
2.250000e-06	1.301351e-06	3.897374e-09	8.787920e+00	2.548397e+02
2.260000e-06	1.251464e-06	3.819404e-09	8.451041e+00	2.480539e+02
2.270000e-06	1.201091e-06	3.701656e-09	8.110872e+00	2.411437e+02
2.280000e-06	1.150165e-06	3.587345e-09	7.766977e+00	2.341344e+02
2.290000e-06	1.098897e-06	3.479176e-09	7.420769e+00	2.270614e+02
2.300000e-06	1.047294e-06	3.381999e-09	7.072292e+00	2.199579e+02
2.310000e-06	9.951527e-07	3.283377e-09	6.720189e+00	2.128434e+02
2.320000e-06	9.424520e-07	3.161907e-09	6.364305e+00	2.057178e+02
2.330000e-06	8.892022e-07	3.044373e-09	6.004713e+00	1.985635e+02
2.340000e-06	8.354217e-07	2.937476e-09	5.641538e+00	1.913545e+02
2.350000e-06	7.811838e-07	2.827333e-09	5.275273e+00	1.840680e+02
2.360000e-06	7.265970e-07	2.716796e-09	4.906653e+00	1.766944e+02
2.370000e-06	6.717586e-07	2.598431e-09	4.536334e+00	1.692416e+02
2.380000e-06	6.166923e-07	2.490060e-09	4.164475e+00	1.617309e+02
2.390000e-06	5.614477e-07	2.382714e-09	3.791412e+00	1.541877e+02
2.400000e-06	5.060968e-07	2.263714e-09	3.417632e+00	1.466299e+02
2.410000e-06	4.506604e-07	2.144652e-09	3.043274e+00	1.390598e+02
2.420000e-06	3.951104e-07	2.021281e-09	2.668150e+00	1.314614e+02
2.430000e-06	3.394584e-07	1.910689e-09	2.292336e+00	1.238069e+02
2.440000e-06	2.837634e-07	1.799465e-09	1.916232e+00	1.160673e+02
2.450000e-06	2.279889e-07	1.678230e-09	1.539591e+00	1.082245e+02
2.460000e-06	1.721334e-07	1.555967e-09	1.162404e+00	1.002793e+02
2.470000e-06	1.162433e-07	1.433916e-09	7.849822e-01	9.225226e+01
2.480000e-06	6.036357e-08	1.314565e-09	4.076305e-01	8.417670e+01
2.490000e-06	4.501780e-09	1.189335e-09	3.040017e-02	7.608646e+01
2.500000e-06	-5.140299e-08	1.061856e-09	-3.471204e-01	6.800322e+01
2.510000e-06	-1.073203e-07	9.409243e-10	-7.247253e-01	5.992833e+01
2.520000e-06	-1.631625e-07	8.237450e-10	-1.101824e+00	5.184216e+01
2.530000e-06	-2.189223e-07	6.978730e-10	-1.478365e+00	4.371135e+01
2.540000e-06	-2.746014e-07	5.651477e-10	-1.854362e+00	3.550095e+01
2.550000e-06	-3.301811e-07	4.363097e-10	-2.229687e+00	2.718678e+01
2.560000e-06	-3.856731e-07	3.147752e-10	-2.604421e+00	1.876325e+01
2.570000e-06	-4.411299e-07	1.891939e-10	-2.978916e+00	1.024372e+01
2.580000e-06	-4.965350e-07	5.440888e-11	-3.353062e+00	1.653535e+00
2.590000e-06	-5.518301e-07	-7.963453e-11	-3.726466e+00	-6.981249e+00
2.600000e-06	-6.070488e-07	-2.108188e-10	-4.099354e+00	-1.564492e+01
2.610000e-06	-6.621700e-07	-3.423089e-10	-4.471583e+00	-2.433839e+01
2.620000e-06	-7.170841e-07	-4.804708e-10	-4.842413e+00	-3.307833e+01
2.630000e-06	-7.717440e-07	-6.195168e-10	-5.211527e+00	-4.188968e+01
2.640000e-06	-8.260273e-07	-7.535614e-10	-5.578098e+00	-5.079466e+01
2.650000e-06	-8.797088e-07	-8.849182e-10	-5.940605e+00	-5.980285e+01
2.660000e-06	-9.327303e-07	-1.022538e-09	-6.298655e+00	-6.890627e+01
2.670000e-06	-9.851774e-07	-1.168589e-09	-6.652827e+00	-7.808159e+01
2.680000e-06	-1.037120e-06	-1.312819e-09	-7.003591e+00	-8.729826e+01
2.690000e-06	-1.088675e-06	-1.452551e-09	-7.351738e+00	-9.652945e+01
2.700000e-06	-1.139948e-06	-1.592762e-09	-7.697981e+00	-1.057611e+02
2.710000e-06	-1.190857e-06	-1.738519e-09	-8.041764e+00	-1.149957e+02
2.720000e-06	-1.241305e-06	-1.884222e-09	-8.382438e+00	-1.242489e+02
2.730000e-06	-1.291245e-06	-2.023584e-09	-8.719676e+00	-1.335409e+02
2.740000e-06	-1.340718e-06	-2.159921e-09	-9.053763e+00	-1.428859e+02
2.750000e-06	-1.389732e-06	-2.303073e-09	-9.384749e+00	-1.522834e+02
2.760000e-06	-1.438053e-06	-2.451292e-09	-9.711060e+00	-1.617159e+02
2.770000e-06	-1.485526e-06	-2.596832e-09	-1.003164e+01	-1.711532e+02
2.780000e-06	-1.532173e-06	-2.739761e-09	-1.034664e+01	-1.805613e+02
2.790000e-06	-1.578203e-06	-2.884740e-09	-1.065748e+01	-1.899134e+02
2.800000e-06	-1.623866e-06	-3.032545e-09	-1.096584e+01	-1.991970e+02
2.810000e-06	-1.669168e-06	-3.174445e-09	-1.127176e+01	-2.084160e+02
2.820000e-06	-1.713937e-06	-3.310044e-09	-1.157408e+01	-2.175854e+02
2.830000e-06	-1.758048e-06	-3.444552e-09	-1.187196e+01	-2.267221e+02
2.840000e-06	-1.801637e-06	-3.583665e-09	-1.216631e+01	-2.358340e+02
2.850000e-06	-1.844817e-06	-3.726185e-09	-1.245791e+01	-2.449132e+02
2.860000e-06	-1.887454e-06	-3.867274e-09	-1.274583e+01	-2.539351e+02
2.870000e-06	-1.929444e-06	-4.005120e-09	-1.302938e+01	-2.628637e+02
2.880000e-06	-1.970808e-06	-4.140764e-09	-1.330871e+01	-2.716614e+02
2.890000e-06	-2.011534e-06	-4.275105e-09	-1.358373e+01	-2.802993e+02
2.900000e-06	-2.051543e-06	-4.404413e-09	-1.385391e+01	-2.887634e+02
2.910000e-06	-2.090924e-06	-4.528474e-09	-1.411985e+01	-2.970557e+02
2.920000e-06	-2.129718e-06	-4.650166e-09	-1.438182e+01	-3.051879e+02
2.930000e-06	-2.167630e-06	-4.773686e-09	-1.463783e+01	-3.131722e+02
2.940000e-06	-2.204421e-06	-4.896810e-09	-1.488628e+01	-3.210121e+02
