# Temperatura_=_22.56
# Concentracion g/m^3_=_18700.0
# C_Vs_to_Am_M_A/Vsm_=_65563218390.804596
# pendiente_HvsI_1/m_=_3716.3
# ordenada_HvsI_A/m_=_1297.0
# frecuencia_Hz_=_301042.6968661234

Tiempo_(s)	Campo_(V.s)	Magnetizacion_(V.s)	Campo_(kA/m)	Magnetizacion_(A/m)
0.000000e+00	-2.928513e-06	-7.397325e-09	-1.977972e+01	-4.818179e+02
1.000000e-08	-2.927748e-06	-7.397562e-09	-1.977455e+01	-4.817932e+02
2.000000e-08	-2.926045e-06	-7.393745e-09	-1.976305e+01	-4.816316e+02
3.000000e-08	-2.923153e-06	-7.386052e-09	-1.974351e+01	-4.813422e+02
4.000000e-08	-2.919169e-06	-7.377635e-09	-1.971661e+01	-4.809235e+02
5.000000e-08	-2.914327e-06	-7.370918e-09	-1.968390e+01	-4.803623e+02
6.000000e-08	-2.908621e-06	-7.365359e-09	-1.964536e+01	-4.796370e+02
7.000000e-08	-2.901993e-06	-7.360802e-09	-1.960059e+01	-4.787263e+02
8.000000e-08	-2.894378e-06	-7.355830e-09	-1.954916e+01	-4.776199e+02
9.000000e-08	-2.885579e-06	-7.334293e-09	-1.948973e+01	-4.763274e+02
1.000000e-07	-2.875269e-06	-7.305470e-09	-1.942009e+01	-4.748827e+02
1.100000e-07	-2.863580e-06	-7.272023e-09	-1.934114e+01	-4.733406e+02
1.200000e-07	-2.851079e-06	-7.255187e-09	-1.925671e+01	-4.717647e+02
1.300000e-07	-2.837730e-06	-7.186769e-09	-1.916655e+01	-4.702112e+02
1.400000e-07	-2.823311e-06	-7.152866e-09	-1.906916e+01	-4.687106e+02
1.500000e-07	-2.807907e-06	-7.203606e-09	-1.896512e+01	-4.672557e+02
1.600000e-07	-2.791316e-06	-7.169350e-09	-1.885306e+01	-4.657993e+02
1.700000e-07	-2.773463e-06	-7.087009e-09	-1.873248e+01	-4.642626e+02
1.800000e-07	-2.754721e-06	-7.052233e-09	-1.860589e+01	-4.625543e+02
1.900000e-07	-2.735207e-06	-7.063444e-09	-1.847409e+01	-4.605937e+02
2.000000e-07	-2.714811e-06	-6.974784e-09	-1.833633e+01	-4.583312e+02
2.100000e-07	-2.693437e-06	-6.902744e-09	-1.819197e+01	-4.557603e+02
2.200000e-07	-2.671224e-06	-6.926977e-09	-1.804194e+01	-4.529159e+02
2.300000e-07	-2.648144e-06	-6.881127e-09	-1.788605e+01	-4.498615e+02
2.400000e-07	-2.624121e-06	-6.804182e-09	-1.772380e+01	-4.466673e+02
2.500000e-07	-2.599343e-06	-6.745513e-09	-1.755644e+01	-4.433888e+02
2.600000e-07	-2.573558e-06	-6.666652e-09	-1.738228e+01	-4.400511e+02
2.700000e-07	-2.546502e-06	-6.636053e-09	-1.719954e+01	-4.366451e+02
2.800000e-07	-2.518434e-06	-6.612960e-09	-1.700996e+01	-4.331356e+02
2.900000e-07	-2.489564e-06	-6.530864e-09	-1.681497e+01	-4.294785e+02
3.000000e-07	-2.459798e-06	-6.473167e-09	-1.661393e+01	-4.256396e+02
3.100000e-07	-2.429201e-06	-6.408746e-09	-1.640727e+01	-4.216092e+02
3.200000e-07	-2.397883e-06	-6.348042e-09	-1.619574e+01	-4.174056e+02
3.300000e-07	-2.365822e-06	-6.283168e-09	-1.597919e+01	-4.130680e+02
3.400000e-07	-2.333099e-06	-6.197778e-09	-1.575818e+01	-4.086416e+02
3.500000e-07	-2.299625e-06	-6.124032e-09	-1.553209e+01	-4.041596e+02
3.600000e-07	-2.265156e-06	-6.101019e-09	-1.529928e+01	-3.996315e+02
3.700000e-07	-2.229560e-06	-6.031910e-09	-1.505886e+01	-3.950396e+02
3.800000e-07	-2.193051e-06	-5.913945e-09	-1.481227e+01	-3.903476e+02
3.900000e-07	-2.155942e-06	-5.854126e-09	-1.456163e+01	-3.855155e+02
4.000000e-07	-2.118146e-06	-5.786615e-09	-1.430635e+01	-3.805163e+02
4.100000e-07	-2.079518e-06	-5.706344e-09	-1.404545e+01	-3.753479e+02
4.200000e-07	-2.040055e-06	-5.626490e-09	-1.377890e+01	-3.700346e+02
4.300000e-07	-1.999920e-06	-5.542059e-09	-1.350783e+01	-3.646184e+02
4.400000e-07	-1.959356e-06	-5.457239e-09	-1.323385e+01	-3.591430e+02
4.500000e-07	-1.918315e-06	-5.391543e-09	-1.295665e+01	-3.536374e+02
4.600000e-07	-1.876458e-06	-5.301015e-09	-1.267394e+01	-3.481047e+02
4.700000e-07	-1.833584e-06	-5.197115e-09	-1.238436e+01	-3.425210e+02
4.800000e-07	-1.789773e-06	-5.111644e-09	-1.208845e+01	-3.368448e+02
4.900000e-07	-1.745305e-06	-5.035658e-09	-1.178811e+01	-3.310333e+02
5.000000e-07	-1.700358e-06	-4.954110e-09	-1.148453e+01	-3.250590e+02
5.100000e-07	-1.654857e-06	-4.846160e-09	-1.117721e+01	-3.189206e+02
5.200000e-07	-1.608763e-06	-4.744229e-09	-1.086588e+01	-3.126435e+02
5.300000e-07	-1.562153e-06	-4.656116e-09	-1.055107e+01	-3.062704e+02
5.400000e-07	-1.514978e-06	-4.571200e-09	-1.023244e+01	-2.998452e+02
5.500000e-07	-1.467188e-06	-4.461115e-09	-9.909656e+00	-2.933969e+02
5.600000e-07	-1.418929e-06	-4.354684e-09	-9.583705e+00	-2.869288e+02
5.700000e-07	-1.370296e-06	-4.261154e-09	-9.255233e+00	-2.804186e+02
5.800000e-07	-1.321223e-06	-4.163855e-09	-8.923784e+00	-2.738279e+02
5.900000e-07	-1.271589e-06	-4.058131e-09	-8.588542e+00	-2.671177e+02
6.000000e-07	-1.221241e-06	-3.945855e-09	-8.248485e+00	-2.602637e+02
6.100000e-07	-1.170094e-06	-3.841378e-09	-7.903030e+00	-2.532659e+02
6.200000e-07	-1.118299e-06	-3.738519e-09	-7.553194e+00	-2.461488e+02
6.300000e-07	-1.066082e-06	-3.632082e-09	-7.200514e+00	-2.389515e+02
6.400000e-07	-1.013552e-06	-3.511842e-09	-6.845714e+00	-2.317134e+02
6.500000e-07	-9.606579e-07	-3.398495e-09	-6.488460e+00	-2.244599e+02
6.600000e-07	-9.073436e-07	-3.293533e-09	-6.128365e+00	-2.171943e+02
6.700000e-07	-8.536502e-07	-3.185547e-09	-5.765710e+00	-2.098989e+02
6.800000e-07	-7.996322e-07	-3.068049e-09	-5.400863e+00	-2.025435e+02
6.900000e-07	-7.453393e-07	-2.947510e-09	-5.034159e+00	-1.950997e+02
7.000000e-07	-6.908685e-07	-2.837096e-09	-4.666252e+00	-1.875523e+02
7.100000e-07	-6.362495e-07	-2.726823e-09	-4.297346e+00	-1.799062e+02
7.200000e-07	-5.814691e-07	-2.610181e-09	-3.927349e+00	-1.721831e+02
7.300000e-07	-5.265036e-07	-2.484973e-09	-3.556102e+00	-1.644125e+02
7.400000e-07	-4.713338e-07	-2.365350e-09	-3.183475e+00	-1.566185e+02
7.500000e-07	-4.159488e-07	-2.249749e-09	-2.809394e+00	-1.488092e+02
7.600000e-07	-3.603967e-07	-2.130470e-09	-2.434185e+00	-1.409730e+02
7.700000e-07	-3.047108e-07	-2.005611e-09	-2.058073e+00	-1.330830e+02
7.800000e-07	-2.488678e-07	-1.880990e-09	-1.680899e+00	-1.251078e+02
7.900000e-07	-1.929342e-07	-1.762398e-09	-1.303113e+00	-1.170248e+02
8.000000e-07	-1.369469e-07	-1.640958e-09	-9.249646e-01	-1.088298e+02
8.100000e-07	-8.088256e-08	-1.513085e-09	-5.462956e-01	-1.005400e+02
8.200000e-07	-2.475398e-08	-1.380699e-09	-1.671929e-01	-9.218772e+01
8.300000e-07	3.134268e-08	-1.253316e-09	2.116942e-01	-8.380885e+01
8.400000e-07	8.739862e-08	-1.127030e-09	5.903063e-01	-7.542888e+01
8.500000e-07	1.434534e-07	-9.976252e-10	9.689107e-01	-6.705316e+01
8.600000e-07	1.994453e-07	-8.652871e-10	1.347090e+00	-5.866438e+01
8.700000e-07	2.553608e-07	-7.344630e-10	1.724754e+00	-5.022854e+01
8.800000e-07	3.112212e-07	-6.088841e-10	2.102045e+00	-4.170682e+01
8.900000e-07	3.669463e-07	-4.804428e-10	2.478423e+00	-3.306893e+01
9.000000e-07	4.224533e-07	-3.466490e-10	2.853327e+00	-2.430274e+01
9.100000e-07	4.777768e-07	-2.098955e-10	3.226992e+00	-1.541681e+01
9.200000e-07	5.328970e-07	-7.562530e-11	3.599284e+00	-6.435141e+00
9.300000e-07	5.878094e-07	6.123562e-11	3.970172e+00	2.613487e+00
9.400000e-07	6.425700e-07	2.017227e-10	4.340036e+00	1.170722e+01
9.500000e-07	6.971589e-07	3.435149e-10	4.708739e+00	2.083929e+01
9.600000e-07	7.515930e-07	4.829011e-10	5.076397e+00	3.001961e+01
9.700000e-07	8.057650e-07	6.213139e-10	5.442285e+00	3.926949e+01
9.800000e-07	8.595529e-07	7.636862e-10	5.805578e+00	4.861197e+01
9.900000e-07	9.129744e-07	9.080753e-10	6.166397e+00	5.806163e+01
1.000000e-06	9.660939e-07	1.052367e-09	6.525176e+00	6.761821e+01
1.010000e-06	1.018932e-06	1.194340e-09	6.882056e+00	7.726624e+01
1.020000e-06	1.071405e-06	1.341838e-09	7.236466e+00	8.698081e+01
1.030000e-06	1.123435e-06	1.494003e-09	7.587883e+00	9.673677e+01
1.040000e-06	1.174907e-06	1.645952e-09	7.935540e+00	1.065176e+02
1.050000e-06	1.225674e-06	1.794049e-09	8.278428e+00	1.163204e+02
1.060000e-06	1.275701e-06	1.940366e-09	8.616319e+00	1.261552e+02
1.070000e-06	1.325105e-06	2.090431e-09	8.949999e+00	1.360382e+02
1.080000e-06	1.374011e-06	2.242393e-09	9.280323e+00	1.459832e+02
1.090000e-06	1.422528e-06	2.394501e-09	9.608017e+00	1.559930e+02
1.100000e-06	1.470644e-06	2.545031e-09	9.933000e+00	1.660555e+02
1.110000e-06	1.518246e-06	2.697913e-09	1.025451e+01	1.761452e+02
1.120000e-06	1.565325e-06	2.853492e-09	1.057249e+01	1.862292e+02
1.130000e-06	1.611879e-06	3.009922e-09	1.088693e+01	1.962767e+02
1.140000e-06	1.657850e-06	3.163527e-09	1.119742e+01	2.062666e+02
1.150000e-06	1.703250e-06	3.313535e-09	1.150406e+01	2.161911e+02
1.160000e-06	1.748178e-06	3.462224e-09	1.180751e+01	2.260548e+02
1.170000e-06	1.792703e-06	3.609672e-09	1.210824e+01	2.358689e+02
1.180000e-06	1.836660e-06	3.758170e-09	1.240514e+01	2.456426e+02
1.190000e-06	1.879805e-06	3.906680e-09	1.269655e+01	2.553767e+02
1.200000e-06	1.922011e-06	4.055132e-09	1.298162e+01	2.650595e+02
1.210000e-06	1.963355e-06	4.203244e-09	1.326086e+01	2.746673e+02
1.220000e-06	2.004071e-06	4.349071e-09	1.353586e+01	2.841692e+02
1.230000e-06	2.044222e-06	4.490836e-09	1.380705e+01	2.935335e+02
1.240000e-06	2.083726e-06	4.628361e-09	1.407387e+01	3.027330e+02
1.250000e-06	2.122514e-06	4.760783e-09	1.433585e+01	3.117480e+02
1.260000e-06	2.160523e-06	4.891274e-09	1.459257e+01	3.205664e+02
1.270000e-06	2.197796e-06	5.022232e-09	1.484432e+01	3.291804e+02
1.280000e-06	2.234484e-06	5.152770e-09	1.509211e+01	3.375824e+02
1.290000e-06	2.270570e-06	5.279717e-09	1.533584e+01	3.457623e+02
1.300000e-06	2.305663e-06	5.399926e-09	1.557287e+01	3.537062e+02
1.310000e-06	2.339575e-06	5.513598e-09	1.580192e+01	3.613987e+02
1.320000e-06	2.372582e-06	5.622814e-09	1.602486e+01	3.688259e+02
1.330000e-06	2.404823e-06	5.730049e-09	1.624261e+01	3.759795e+02
1.340000e-06	2.436335e-06	5.833117e-09	1.645545e+01	3.828591e+02
1.350000e-06	2.467086e-06	5.933306e-09	1.666315e+01	3.894719e+02
1.360000e-06	2.496976e-06	6.031305e-09	1.686504e+01	3.958305e+02
1.370000e-06	2.526106e-06	6.124344e-09	1.706178e+01	4.019490e+02
1.380000e-06	2.554551e-06	6.212674e-09	1.725390e+01	4.078390e+02
1.390000e-06	2.582066e-06	6.296584e-09	1.743975e+01	4.135068e+02
1.400000e-06	2.608359e-06	6.377187e-09	1.761733e+01	4.189531e+02
1.410000e-06	2.633543e-06	6.454706e-09	1.778743e+01	4.241743e+02
1.420000e-06	2.657787e-06	6.528732e-09	1.795118e+01	4.291652e+02
1.430000e-06	2.681147e-06	6.600017e-09	1.810896e+01	4.339222e+02
1.440000e-06	2.703619e-06	6.668719e-09	1.826074e+01	4.384449e+02
1.450000e-06	2.725189e-06	6.733322e-09	1.840642e+01	4.427366e+02
1.460000e-06	2.745978e-06	6.794442e-09	1.854684e+01	4.468026e+02
1.470000e-06	2.765928e-06	6.852488e-09	1.868159e+01	4.506483e+02
1.480000e-06	2.784806e-06	6.906806e-09	1.880909e+01	4.542763e+02
1.490000e-06	2.802637e-06	6.958258e-09	1.892952e+01	4.576855e+02
1.500000e-06	2.819465e-06	7.005049e-09	1.904318e+01	4.608710e+02
1.510000e-06	2.835219e-06	7.046722e-09	1.914959e+01	4.638258e+02
1.520000e-06	2.849905e-06	7.085160e-09	1.924878e+01	4.665439e+02
1.530000e-06	2.863545e-06	7.122442e-09	1.934091e+01	4.690230e+02
1.540000e-06	2.876163e-06	7.156380e-09	1.942613e+01	4.712673e+02
1.550000e-06	2.887632e-06	7.185440e-09	1.950359e+01	4.732875e+02
1.560000e-06	2.897779e-06	7.212551e-09	1.957213e+01	4.751004e+02
1.570000e-06	2.906711e-06	7.239426e-09	1.963246e+01	4.767253e+02
1.580000e-06	2.914664e-06	7.263953e-09	1.968618e+01	4.781803e+02
1.590000e-06	2.921712e-06	7.282700e-09	1.973378e+01	4.794788e+02
1.600000e-06	2.927766e-06	7.295676e-09	1.977467e+01	4.806265e+02
1.610000e-06	2.932905e-06	7.306641e-09	1.980938e+01	4.816213e+02
1.620000e-06	2.937224e-06	7.318675e-09	1.983855e+01	4.824558e+02
1.630000e-06	2.940421e-06	7.329795e-09	1.986014e+01	4.831203e+02
1.640000e-06	2.942316e-06	7.339004e-09	1.987294e+01	4.836087e+02
1.650000e-06	2.943139e-06	7.346960e-09	1.987850e+01	4.839212e+02
1.660000e-06	2.943033e-06	7.352694e-09	1.987779e+01	4.840659e+02
1.670000e-06	2.942039e-06	7.353376e-09	1.987107e+01	4.840570e+02
1.680000e-06	2.940120e-06	7.348589e-09	1.985811e+01	4.839098e+02
1.690000e-06	2.937343e-06	7.340767e-09	1.983936e+01	4.836342e+02
1.700000e-06	2.933806e-06	7.332873e-09	1.981546e+01	4.832301e+02
1.710000e-06	2.929241e-06	7.323439e-09	1.978463e+01	4.826854e+02
1.720000e-06	2.923411e-06	7.310515e-09	1.974525e+01	4.819791e+02
1.730000e-06	2.916557e-06	7.288553e-09	1.969896e+01	4.810894e+02
1.740000e-06	2.908883e-06	7.261107e-09	1.964713e+01	4.800042e+02
1.750000e-06	2.899943e-06	7.251726e-09	1.958675e+01	4.787307e+02
1.760000e-06	2.889270e-06	7.238709e-09	1.951466e+01	4.773003e+02
1.770000e-06	2.877244e-06	7.207096e-09	1.943343e+01	4.757659e+02
1.780000e-06	2.864942e-06	7.207487e-09	1.935034e+01	4.741910e+02
1.790000e-06	2.852278e-06	7.194022e-09	1.926481e+01	4.726333e+02
1.800000e-06	2.838070e-06	7.159441e-09	1.916885e+01	4.711269e+02
1.810000e-06	2.822415e-06	7.073488e-09	1.906311e+01	4.696691e+02
1.820000e-06	2.806167e-06	7.108861e-09	1.895337e+01	4.682165e+02
1.830000e-06	2.789078e-06	7.160122e-09	1.883795e+01	4.666930e+02
1.840000e-06	2.770773e-06	7.064381e-09	1.871431e+01	4.650076e+02
1.850000e-06	2.751700e-06	7.029886e-09	1.858548e+01	4.630774e+02
1.860000e-06	2.731774e-06	7.054598e-09	1.845090e+01	4.608487e+02
1.870000e-06	2.710397e-06	6.991034e-09	1.830652e+01	4.583101e+02
1.880000e-06	2.687837e-06	6.903725e-09	1.815414e+01	4.554926e+02
1.890000e-06	2.664429e-06	6.897386e-09	1.799604e+01	4.524576e+02
1.900000e-06	2.640044e-06	6.885747e-09	1.783134e+01	4.492756e+02
1.910000e-06	2.614893e-06	6.840262e-09	1.766147e+01	4.460046e+02
1.920000e-06	2.589002e-06	6.777207e-09	1.748659e+01	4.426734e+02
1.930000e-06	2.562236e-06	6.703308e-09	1.730581e+01	4.392764e+02
1.940000e-06	2.534802e-06	6.643397e-09	1.712052e+01	4.357804e+02
1.950000e-06	2.506378e-06	6.617245e-09	1.692854e+01	4.321413e+02
1.960000e-06	2.476561e-06	6.535054e-09	1.672714e+01	4.283232e+02
1.970000e-06	2.445733e-06	6.484126e-09	1.651893e+01	4.243132e+02
1.980000e-06	2.414083e-06	6.437702e-09	1.630516e+01	4.201268e+02
1.990000e-06	2.381644e-06	6.358511e-09	1.608606e+01	4.158017e+02
2.000000e-06	2.348530e-06	6.315963e-09	1.586240e+01	4.113832e+02
2.010000e-06	2.314593e-06	6.229040e-09	1.563319e+01	4.069065e+02
2.020000e-06	2.279911e-06	6.118844e-09	1.539894e+01	4.023840e+02
2.030000e-06	2.244645e-06	6.084519e-09	1.516074e+01	3.978008e+02
2.040000e-06	2.208453e-06	6.029400e-09	1.491630e+01	3.931218e+02
2.050000e-06	2.171121e-06	5.930724e-09	1.466415e+01	3.883066e+02
2.060000e-06	2.132862e-06	5.870873e-09	1.440574e+01	3.833262e+02
2.070000e-06	2.093867e-06	5.790477e-09	1.414236e+01	3.781755e+02
2.080000e-06	2.054265e-06	5.704955e-09	1.387489e+01	3.728763e+02
2.090000e-06	2.013967e-06	5.629207e-09	1.360271e+01	3.674691e+02
2.100000e-06	1.973009e-06	5.527064e-09	1.332606e+01	3.619986e+02
2.110000e-06	1.931478e-06	5.441664e-09	1.304556e+01	3.564959e+02
2.120000e-06	1.889273e-06	5.373042e-09	1.276050e+01	3.509672e+02
2.130000e-06	1.846478e-06	5.291377e-09	1.247145e+01	3.453910e+02
2.140000e-06	1.803205e-06	5.202396e-09	1.217918e+01	3.397272e+02
2.150000e-06	1.759337e-06	5.105826e-09	1.188288e+01	3.339322e+02
2.160000e-06	1.714786e-06	5.015340e-09	1.158198e+01	3.279762e+02
2.170000e-06	1.669522e-06	4.931762e-09	1.127626e+01	3.218549e+02
2.180000e-06	1.623677e-06	4.828055e-09	1.096662e+01	3.155911e+02
2.190000e-06	1.577420e-06	4.721168e-09	1.065419e+01	3.092263e+02
2.200000e-06	1.530691e-06	4.628512e-09	1.033857e+01	3.028053e+02
2.210000e-06	1.483297e-06	4.542191e-09	1.001846e+01	2.963591e+02
2.220000e-06	1.435134e-06	4.444557e-09	9.693157e+00	2.898941e+02
2.230000e-06	1.386363e-06	4.330884e-09	9.363751e+00	2.833904e+02
2.240000e-06	1.337168e-06	4.233133e-09	9.031476e+00	2.768106e+02
2.250000e-06	1.287572e-06	4.137456e-09	8.696498e+00	2.701150e+02
2.260000e-06	1.237444e-06	4.035902e-09	8.357925e+00	2.632772e+02
2.270000e-06	1.186775e-06	3.928124e-09	8.015695e+00	2.562943e+02
2.280000e-06	1.135754e-06	3.816317e-09	7.671089e+00	2.491886e+02
2.290000e-06	1.084400e-06	3.713678e-09	7.324237e+00	2.419982e+02
2.300000e-06	1.032551e-06	3.608016e-09	6.974036e+00	2.347631e+02
2.310000e-06	9.801669e-07	3.491501e-09	6.620227e+00	2.275110e+02
2.320000e-06	9.271781e-07	3.372723e-09	6.262331e+00	2.202476e+02
2.330000e-06	8.735884e-07	3.262848e-09	5.900376e+00	2.129570e+02
2.340000e-06	8.195289e-07	3.156571e-09	5.535248e+00	2.056098e+02
2.350000e-06	7.650690e-07	3.046098e-09	5.167417e+00	1.981768e+02
2.360000e-06	7.103141e-07	2.926625e-09	4.797592e+00	1.906410e+02
2.370000e-06	6.553556e-07	2.810209e-09	4.426392e+00	1.830049e+02
2.380000e-06	6.002961e-07	2.695789e-09	4.054510e+00	1.752890e+02
2.390000e-06	5.451774e-07	2.578336e-09	3.682228e+00	1.675225e+02
2.400000e-06	4.899648e-07	2.455361e-09	3.309312e+00	1.597305e+02
2.410000e-06	4.346606e-07	2.331226e-09	2.935778e+00	1.519234e+02
2.420000e-06	3.792203e-07	2.215299e-09	2.561324e+00	1.440915e+02
2.430000e-06	3.236413e-07	2.096893e-09	2.185933e+00	1.362091e+02
2.440000e-06	2.679293e-07	1.974617e-09	1.809643e+00	1.282446e+02
2.450000e-06	2.121049e-07	1.851283e-09	1.432595e+00	1.201740e+02
2.460000e-06	1.562820e-07	1.730056e-09	1.055558e+00	1.119909e+02
2.470000e-06	1.004375e-07	1.607202e-09	6.783733e-01	1.037101e+02
2.480000e-06	4.451176e-08	1.476816e-09	3.006406e-01	9.536309e+01
2.490000e-06	-1.143317e-08	1.344750e-09	-7.722171e-02	8.698587e+01
2.500000e-06	-6.734906e-08	1.217921e-09	-4.548879e-01	7.860566e+01
2.510000e-06	-1.232290e-07	1.094168e-09	-8.323116e-01	7.023023e+01
2.520000e-06	-1.790574e-07	9.659761e-10	-1.209386e+00	6.184457e+01
2.530000e-06	-2.347969e-07	8.335676e-10	-1.585862e+00	5.341595e+01
2.540000e-06	-2.904795e-07	7.020047e-10	-1.961952e+00	4.490543e+01
2.550000e-06	-3.460577e-07	5.757306e-10	-2.337337e+00	3.628124e+01
2.560000e-06	-4.014805e-07	4.456110e-10	-2.711673e+00	2.752903e+01
2.570000e-06	-4.567814e-07	3.057609e-10	-3.085186e+00	1.865528e+01
2.580000e-06	-5.119691e-07	1.640816e-10	-3.457933e+00	9.682776e+00
2.590000e-06	-5.670986e-07	2.606092e-11	-3.830288e+00	6.403678e-01
2.600000e-06	-6.221512e-07	-1.093398e-10	-4.202123e+00	-8.448863e+00
2.610000e-06	-6.770881e-07	-2.492638e-10	-4.573177e+00	-1.757632e+01
2.620000e-06	-7.318456e-07	-3.924316e-10	-4.943019e+00	-2.675028e+01
2.630000e-06	-7.863597e-07	-5.332430e-10	-5.311218e+00	-3.599125e+01
2.640000e-06	-8.404840e-07	-6.712066e-10	-5.676783e+00	-4.532259e+01
2.650000e-06	-8.941417e-07	-8.130518e-10	-6.039197e+00	-5.476020e+01
2.660000e-06	-9.472934e-07	-9.628535e-10	-6.398194e+00	-6.430551e+01
2.670000e-06	-9.998015e-07	-1.115875e-09	-6.752843e+00	-7.394454e+01
2.680000e-06	-1.051717e-06	-1.265012e-09	-7.103493e+00	-8.365297e+01
2.690000e-06	-1.103203e-06	-1.411441e-09	-7.451237e+00	-9.340520e+01
2.700000e-06	-1.154357e-06	-1.562102e-09	-7.796739e+00	-1.031835e+02
2.710000e-06	-1.205099e-06	-1.715976e-09	-8.139460e+00	-1.129834e+02
2.720000e-06	-1.255349e-06	-1.866089e-09	-8.478855e+00	-1.228136e+02
2.730000e-06	-1.305127e-06	-2.012205e-09	-8.815070e+00	-1.326904e+02
2.740000e-06	-1.354472e-06	-2.163374e-09	-9.148351e+00	-1.426280e+02
2.750000e-06	-1.403325e-06	-2.319400e-09	-9.478314e+00	-1.526309e+02
2.760000e-06	-1.451480e-06	-2.474302e-09	-9.803560e+00	-1.626886e+02
2.770000e-06	-1.498804e-06	-2.627387e-09	-1.012320e+01	-1.727765e+02
2.780000e-06	-1.545345e-06	-2.780877e-09	-1.043754e+01	-1.828624e+02
2.790000e-06	-1.591306e-06	-2.936435e-09	-1.074797e+01	-1.929148e+02
2.800000e-06	-1.636856e-06	-3.091200e-09	-1.105563e+01	-2.029111e+02
2.810000e-06	-1.682002e-06	-3.240880e-09	-1.136055e+01	-2.128423e+02
2.820000e-06	-1.726674e-06	-3.386841e-09	-1.166227e+01	-2.227118e+02
2.830000e-06	-1.770671e-06	-3.535455e-09	-1.195944e+01	-2.325303e+02
2.840000e-06	-1.814044e-06	-3.686477e-09	-1.225239e+01	-2.423078e+02
2.850000e-06	-1.856995e-06	-3.836963e-09	-1.254248e+01	-2.520462e+02
2.860000e-06	-1.899433e-06	-3.986590e-09	-1.282912e+01	-2.617351e+02
2.870000e-06	-1.941234e-06	-4.135790e-09	-1.311145e+01	-2.713520e+02
2.880000e-06	-1.982392e-06	-4.282947e-09	-1.338944e+01	-2.808666e+02
2.890000e-06	-2.022901e-06	-4.425676e-09	-1.366305e+01	-2.902468e+02
2.900000e-06	-2.062729e-06	-4.563649e-09	-1.393205e+01	-2.994647e+02
2.910000e-06	-2.101954e-06	-4.699682e-09	-1.419698e+01	-3.084998e+02
2.920000e-06	-2.140533e-06	-4.836876e-09	-1.445755e+01	-3.173394e+02
2.930000e-06	-2.178178e-06	-4.972917e-09	-1.471182e+01	-3.259753e+02
2.940000e-06	-2.214744e-06	-5.104098e-09	-1.495879e+01	-3.344002e+02
