# Temperatura_=_22.5
# Concentracion g/m^3_=_18700.0
# C_Vs_to_Am_M_A/Vsm_=_65563218390.804596
# pendiente_HvsI_1/m_=_3716.3
# ordenada_HvsI_A/m_=_1297.0
# frecuencia_Hz_=_301040.70649743313

Tiempo_(s)	Campo_(V.s)	Magnetizacion_(V.s)	Campo_(kA/m)	Magnetizacion_(A/m)
0.000000e+00	-2.928333e-06	-7.395470e-09	-1.978008e+01	-4.824186e+02
1.000000e-08	-2.927424e-06	-7.397769e-09	-1.977394e+01	-4.824055e+02
2.000000e-08	-2.925650e-06	-7.395479e-09	-1.976195e+01	-4.822997e+02
3.000000e-08	-2.922589e-06	-7.387338e-09	-1.974128e+01	-4.820900e+02
4.000000e-08	-2.918322e-06	-7.379234e-09	-1.971246e+01	-4.817408e+02
5.000000e-08	-2.913268e-06	-7.372851e-09	-1.967832e+01	-4.812051e+02
6.000000e-08	-2.907413e-06	-7.367051e-09	-1.963877e+01	-4.804423e+02
7.000000e-08	-2.900597e-06	-7.358241e-09	-1.959273e+01	-4.794366e+02
8.000000e-08	-2.892710e-06	-7.332211e-09	-1.953946e+01	-4.782079e+02
9.000000e-08	-2.883653e-06	-7.336120e-09	-1.947828e+01	-4.768106e+02
1.000000e-07	-2.873195e-06	-7.341361e-09	-1.940764e+01	-4.753216e+02
1.100000e-07	-2.861323e-06	-7.311798e-09	-1.932744e+01	-4.738203e+02
1.200000e-07	-2.848617e-06	-7.173051e-09	-1.924162e+01	-4.723660e+02
1.300000e-07	-2.835153e-06	-7.142307e-09	-1.915067e+01	-4.709816e+02
1.400000e-07	-2.820581e-06	-7.272541e-09	-1.905224e+01	-4.696475e+02
1.500000e-07	-2.804966e-06	-7.196878e-09	-1.894677e+01	-4.683074e+02
1.600000e-07	-2.788284e-06	-7.096847e-09	-1.883409e+01	-4.668836e+02
1.700000e-07	-2.770281e-06	-7.155142e-09	-1.871248e+01	-4.652974e+02
1.800000e-07	-2.751281e-06	-7.148699e-09	-1.858414e+01	-4.634872e+02
1.900000e-07	-2.731624e-06	-6.978919e-09	-1.845136e+01	-4.614203e+02
2.000000e-07	-2.711072e-06	-6.982682e-09	-1.831254e+01	-4.590949e+02
2.100000e-07	-2.689532e-06	-7.008869e-09	-1.816705e+01	-4.565335e+02
2.200000e-07	-2.667150e-06	-6.845343e-09	-1.801586e+01	-4.537708e+02
2.300000e-07	-2.643901e-06	-6.882100e-09	-1.785882e+01	-4.508409e+02
2.400000e-07	-2.619724e-06	-6.926539e-09	-1.769551e+01	-4.477674e+02
2.500000e-07	-2.594744e-06	-6.718810e-09	-1.752678e+01	-4.445598e+02
2.600000e-07	-2.568747e-06	-6.661984e-09	-1.735117e+01	-4.412152e+02
2.700000e-07	-2.541492e-06	-6.705308e-09	-1.716708e+01	-4.377243e+02
2.800000e-07	-2.513246e-06	-6.597484e-09	-1.697628e+01	-4.340787e+02
2.900000e-07	-2.484191e-06	-6.552324e-09	-1.678003e+01	-4.302758e+02
3.000000e-07	-2.454273e-06	-6.494161e-09	-1.657794e+01	-4.263211e+02
3.100000e-07	-2.423567e-06	-6.405867e-09	-1.637052e+01	-4.222265e+02
3.200000e-07	-2.392094e-06	-6.394486e-09	-1.615793e+01	-4.180060e+02
3.300000e-07	-2.359849e-06	-6.322892e-09	-1.594013e+01	-4.136715e+02
3.400000e-07	-2.326997e-06	-6.175372e-09	-1.571822e+01	-4.092295e+02
3.500000e-07	-2.293393e-06	-6.161057e-09	-1.549123e+01	-4.046805e+02
3.600000e-07	-2.258648e-06	-6.127259e-09	-1.525654e+01	-4.000203e+02
3.700000e-07	-2.222765e-06	-6.003073e-09	-1.501416e+01	-3.952437e+02
3.800000e-07	-2.186102e-06	-5.954003e-09	-1.476652e+01	-3.903476e+02
3.900000e-07	-2.148821e-06	-5.861385e-09	-1.451469e+01	-3.853337e+02
4.000000e-07	-2.110846e-06	-5.770321e-09	-1.425818e+01	-3.802086e+02
4.100000e-07	-2.072078e-06	-5.727885e-09	-1.399631e+01	-3.749826e+02
4.200000e-07	-2.032556e-06	-5.645205e-09	-1.372935e+01	-3.696671e+02
4.300000e-07	-1.992376e-06	-5.523108e-09	-1.345795e+01	-3.642714e+02
4.400000e-07	-1.951661e-06	-5.462172e-09	-1.318293e+01	-3.588004e+02
4.500000e-07	-1.910420e-06	-5.397265e-09	-1.290436e+01	-3.532534e+02
4.600000e-07	-1.868425e-06	-5.296585e-09	-1.262070e+01	-3.476247e+02
4.700000e-07	-1.825464e-06	-5.199321e-09	-1.233050e+01	-3.419057e+02
4.800000e-07	-1.781573e-06	-5.105926e-09	-1.203403e+01	-3.360874e+02
4.900000e-07	-1.737057e-06	-5.033103e-09	-1.173334e+01	-3.301636e+02
5.000000e-07	-1.692013e-06	-4.951033e-09	-1.142908e+01	-3.241327e+02
5.100000e-07	-1.646387e-06	-4.850444e-09	-1.112089e+01	-3.179989e+02
5.200000e-07	-1.600204e-06	-4.734743e-09	-1.080893e+01	-3.117705e+02
5.300000e-07	-1.553502e-06	-4.657525e-09	-1.049348e+01	-3.054586e+02
5.400000e-07	-1.506235e-06	-4.566917e-09	-1.017420e+01	-2.990734e+02
5.500000e-07	-1.458353e-06	-4.455891e-09	-9.850773e+00	-2.926215e+02
5.600000e-07	-1.409992e-06	-4.351295e-09	-9.524109e+00	-2.861038e+02
5.700000e-07	-1.361311e-06	-4.251684e-09	-9.195281e+00	-2.795154e+02
5.800000e-07	-1.312226e-06	-4.158582e-09	-8.863721e+00	-2.728472e+02
5.900000e-07	-1.262471e-06	-4.056319e-09	-8.527644e+00	-2.660889e+02
6.000000e-07	-1.211948e-06	-3.945114e-09	-8.186373e+00	-2.592332e+02
6.100000e-07	-1.160673e-06	-3.829133e-09	-7.840024e+00	-2.522783e+02
6.200000e-07	-1.108759e-06	-3.733683e-09	-7.489363e+00	-2.452295e+02
6.300000e-07	-1.056445e-06	-3.626672e-09	-7.135993e+00	-2.380982e+02
6.400000e-07	-1.003799e-06	-3.508868e-09	-6.780386e+00	-2.308987e+02
6.500000e-07	-9.507785e-07	-3.392404e-09	-6.422246e+00	-2.236448e+02
6.600000e-07	-8.973935e-07	-3.287659e-09	-6.061645e+00	-2.163454e+02
6.700000e-07	-8.437006e-07	-3.184995e-09	-5.698964e+00	-2.090035e+02
6.800000e-07	-7.897329e-07	-3.067926e-09	-5.334427e+00	-2.016157e+02
6.900000e-07	-7.354738e-07	-2.947919e-09	-4.967922e+00	-1.941752e+02
7.000000e-07	-6.809456e-07	-2.830682e-09	-4.599599e+00	-1.866746e+02
7.100000e-07	-6.262559e-07	-2.723916e-09	-4.230185e+00	-1.791095e+02
7.200000e-07	-5.714088e-07	-2.605432e-09	-3.859708e+00	-1.714794e+02
7.300000e-07	-5.163655e-07	-2.482153e-09	-3.487906e+00	-1.637872e+02
7.400000e-07	-4.611460e-07	-2.363382e-09	-3.114913e+00	-1.560362e+02
7.500000e-07	-4.057216e-07	-2.250751e-09	-2.740537e+00	-1.482276e+02
7.600000e-07	-3.501045e-07	-2.134477e-09	-2.364859e+00	-1.403576e+02
7.700000e-07	-2.943573e-07	-2.008876e-09	-1.988302e+00	-1.324182e+02
7.800000e-07	-2.384994e-07	-1.882942e-09	-1.610997e+00	-1.243997e+02
7.900000e-07	-1.825325e-07	-1.760655e-09	-1.232957e+00	-1.162945e+02
8.000000e-07	-1.265110e-07	-1.641648e-09	-8.545470e-01	-1.081014e+02
8.100000e-07	-7.046378e-08	-1.512254e-09	-4.759634e-01	-9.982757e+01
8.200000e-07	-1.439725e-08	-1.380326e-09	-9.724946e-02	-9.148763e+01
8.300000e-07	4.171264e-08	-1.250220e-09	2.817573e-01	-8.309931e+01
8.400000e-07	9.787029e-08	-1.125121e-09	6.610867e-01	-7.467750e+01
8.500000e-07	1.539550e-07	-9.978623e-10	1.039923e+00	-6.622861e+01
8.600000e-07	2.099511e-07	-8.657535e-10	1.418161e+00	-5.774762e+01
8.700000e-07	2.658647e-07	-7.352457e-10	1.795843e+00	-4.921895e+01
8.800000e-07	3.216287e-07	-6.069637e-10	2.172513e+00	-4.062129e+01
8.900000e-07	3.772533e-07	-4.773758e-10	2.548242e+00	-3.193441e+01
9.000000e-07	4.327229e-07	-3.386678e-10	2.922923e+00	-2.314563e+01
9.100000e-07	4.880117e-07	-2.003183e-10	3.296384e+00	-1.425329e+01
9.200000e-07	5.431177e-07	-6.469600e-11	3.668610e+00	-5.265960e+00
9.300000e-07	5.980323e-07	6.938289e-11	4.039543e+00	3.802381e+00
9.400000e-07	6.527646e-07	2.078498e-10	4.409244e+00	1.293918e+01
9.500000e-07	7.073682e-07	3.489436e-10	4.778077e+00	2.213935e+01
9.600000e-07	7.617826e-07	4.913018e-10	5.145630e+00	3.140801e+01
9.700000e-07	8.159056e-07	6.358852e-10	5.511217e+00	4.075845e+01
9.800000e-07	8.697217e-07	7.799280e-10	5.874729e+00	5.020630e+01
9.900000e-07	9.231644e-07	9.264331e-10	6.235720e+00	5.976189e+01
1.000000e-06	9.762324e-07	1.072196e-09	6.594180e+00	6.942421e+01
1.010000e-06	1.028977e-06	1.219423e-09	6.950452e+00	7.917897e+01
1.020000e-06	1.081336e-06	1.367243e-09	7.304127e+00	8.900178e+01
1.030000e-06	1.133229e-06	1.516998e-09	7.654646e+00	9.886560e+01
1.040000e-06	1.184547e-06	1.667701e-09	8.001289e+00	1.087494e+02
1.050000e-06	1.235126e-06	1.819049e-09	8.342938e+00	1.186446e+02
1.060000e-06	1.284998e-06	1.971881e-09	8.679804e+00	1.285569e+02
1.070000e-06	1.334324e-06	2.125358e-09	9.012991e+00	1.385021e+02
1.080000e-06	1.383177e-06	2.277445e-09	9.342976e+00	1.484976e+02
1.090000e-06	1.431644e-06	2.428851e-09	9.670362e+00	1.585527e+02
1.100000e-06	1.479732e-06	2.582392e-09	9.995184e+00	1.686616e+02
1.110000e-06	1.527286e-06	2.735891e-09	1.031639e+01	1.788022e+02
1.120000e-06	1.574288e-06	2.889886e-09	1.063388e+01	1.889407e+02
1.130000e-06	1.620761e-06	3.044741e-09	1.094779e+01	1.990406e+02
1.140000e-06	1.666595e-06	3.201304e-09	1.125739e+01	2.090733e+02
1.150000e-06	1.711825e-06	3.357022e-09	1.156290e+01	2.190252e+02
1.160000e-06	1.756628e-06	3.507669e-09	1.186554e+01	2.288991e+02
1.170000e-06	1.801068e-06	3.654526e-09	1.216572e+01	2.387092e+02
1.180000e-06	1.844978e-06	3.800804e-09	1.246232e+01	2.484717e+02
1.190000e-06	1.888029e-06	3.949706e-09	1.275311e+01	2.581943e+02
1.200000e-06	1.930069e-06	4.098573e-09	1.303708e+01	2.678698e+02
1.210000e-06	1.971252e-06	4.245437e-09	1.331526e+01	2.774739e+02
1.220000e-06	2.011791e-06	4.389073e-09	1.358909e+01	2.869711e+02
1.230000e-06	2.051779e-06	4.532513e-09	1.385920e+01	2.963227e+02
1.240000e-06	2.091091e-06	4.673924e-09	1.412474e+01	3.054964e+02
1.250000e-06	2.129654e-06	4.807373e-09	1.438522e+01	3.144720e+02
1.260000e-06	2.167485e-06	4.936986e-09	1.464076e+01	3.232414e+02
1.270000e-06	2.204560e-06	5.066064e-09	1.489119e+01	3.318033e+02
1.280000e-06	2.241081e-06	5.196016e-09	1.513788e+01	3.401557e+02
1.290000e-06	2.276961e-06	5.320103e-09	1.538024e+01	3.482888e+02
1.300000e-06	2.311806e-06	5.438588e-09	1.561561e+01	3.561830e+02
1.310000e-06	2.345544e-06	5.553411e-09	1.584350e+01	3.638121e+02
1.320000e-06	2.378386e-06	5.665171e-09	1.606534e+01	3.711517e+02
1.330000e-06	2.410532e-06	5.771164e-09	1.628247e+01	3.781890e+02
1.340000e-06	2.441921e-06	5.868963e-09	1.649450e+01	3.849291e+02
1.350000e-06	2.472495e-06	5.963718e-09	1.670102e+01	3.913957e+02
1.360000e-06	2.502254e-06	6.059091e-09	1.690203e+01	3.976244e+02
1.370000e-06	2.531235e-06	6.151378e-09	1.709779e+01	4.036509e+02
1.380000e-06	2.559542e-06	6.237789e-09	1.728900e+01	4.094982e+02
1.390000e-06	2.586930e-06	6.321736e-09	1.747399e+01	4.151686e+02
1.400000e-06	2.613030e-06	6.404852e-09	1.765029e+01	4.206424e+02
1.410000e-06	2.637989e-06	6.484801e-09	1.781889e+01	4.258856e+02
1.420000e-06	2.662050e-06	6.558056e-09	1.798141e+01	4.308631e+02
1.430000e-06	2.685182e-06	6.625570e-09	1.813766e+01	4.355524e+02
1.440000e-06	2.707425e-06	6.691296e-09	1.828791e+01	4.399536e+02
1.450000e-06	2.728799e-06	6.755868e-09	1.843228e+01	4.440900e+02
1.460000e-06	2.749389e-06	6.815832e-09	1.857136e+01	4.480002e+02
1.470000e-06	2.769201e-06	6.869794e-09	1.870518e+01	4.517239e+02
1.480000e-06	2.787988e-06	6.920849e-09	1.883209e+01	4.552875e+02
1.490000e-06	2.805682e-06	6.972004e-09	1.895161e+01	4.586935e+02
1.500000e-06	2.822336e-06	7.022237e-09	1.906410e+01	4.619199e+02
1.510000e-06	2.837899e-06	7.066194e-09	1.916922e+01	4.649291e+02
1.520000e-06	2.852411e-06	7.103445e-09	1.926725e+01	4.676820e+02
1.530000e-06	2.865898e-06	7.138367e-09	1.935835e+01	4.701543e+02
1.540000e-06	2.878328e-06	7.170856e-09	1.944231e+01	4.723470e+02
1.550000e-06	2.889517e-06	7.199872e-09	1.951789e+01	4.742869e+02
1.560000e-06	2.899283e-06	7.224931e-09	1.958386e+01	4.760190e+02
1.570000e-06	2.907963e-06	7.249451e-09	1.964248e+01	4.775907e+02
1.580000e-06	2.915829e-06	7.275148e-09	1.969562e+01	4.790364e+02
1.590000e-06	2.922761e-06	7.297745e-09	1.974244e+01	4.803671e+02
1.600000e-06	2.928674e-06	7.313184e-09	1.978239e+01	4.815688e+02
1.610000e-06	2.933664e-06	7.323750e-09	1.981609e+01	4.826113e+02
1.620000e-06	2.937771e-06	7.332986e-09	1.984383e+01	4.834622e+02
1.630000e-06	2.940704e-06	7.342734e-09	1.986364e+01	4.841023e+02
1.640000e-06	2.942314e-06	7.351650e-09	1.987452e+01	4.845344e+02
1.650000e-06	2.942904e-06	7.356691e-09	1.987850e+01	4.847837e+02
1.660000e-06	2.942646e-06	7.359411e-09	1.987676e+01	4.848879e+02
1.670000e-06	2.941479e-06	7.361943e-09	1.986888e+01	4.848819e+02
1.680000e-06	2.939322e-06	7.359804e-09	1.985431e+01	4.847830e+02
1.690000e-06	2.936315e-06	7.353441e-09	1.983400e+01	4.845818e+02
1.700000e-06	2.932532e-06	7.342959e-09	1.980844e+01	4.842444e+02
1.710000e-06	2.927666e-06	7.328819e-09	1.977557e+01	4.837237e+02
1.720000e-06	2.921561e-06	7.311979e-09	1.973433e+01	4.829782e+02
1.730000e-06	2.914491e-06	7.302474e-09	1.968658e+01	4.819900e+02
1.740000e-06	2.906598e-06	7.295872e-09	1.963327e+01	4.807759e+02
1.750000e-06	2.897421e-06	7.240329e-09	1.957128e+01	4.793884e+02
1.760000e-06	2.886525e-06	7.181999e-09	1.949768e+01	4.779035e+02
1.770000e-06	2.874359e-06	7.246165e-09	1.941550e+01	4.764010e+02
1.780000e-06	2.861985e-06	7.271280e-09	1.933192e+01	4.749422e+02
1.790000e-06	2.849218e-06	7.192117e-09	1.924568e+01	4.735532e+02
1.800000e-06	2.834786e-06	7.062588e-09	1.914819e+01	4.722173e+02
1.810000e-06	2.818848e-06	7.159485e-09	1.904054e+01	4.708803e+02
1.820000e-06	2.802447e-06	7.188572e-09	1.892975e+01	4.694654e+02
1.830000e-06	2.785262e-06	7.043302e-09	1.881367e+01	4.678933e+02
1.840000e-06	2.766748e-06	7.129661e-09	1.868861e+01	4.661007e+02
1.850000e-06	2.747419e-06	7.150165e-09	1.855805e+01	4.640528e+02
1.860000e-06	2.727327e-06	6.977212e-09	1.842234e+01	4.617456e+02
1.870000e-06	2.705799e-06	6.991933e-09	1.827692e+01	4.592001e+02
1.880000e-06	2.682988e-06	7.039372e-09	1.812284e+01	4.564509e+02
1.890000e-06	2.659424e-06	6.847719e-09	1.796368e+01	4.535322e+02
1.900000e-06	2.634930e-06	6.844933e-09	1.779822e+01	4.504687e+02
1.910000e-06	2.609603e-06	6.946894e-09	1.762715e+01	4.472708e+02
1.920000e-06	2.583608e-06	6.794351e-09	1.745155e+01	4.439365e+02
1.930000e-06	2.556719e-06	6.689542e-09	1.726993e+01	4.404566e+02
1.940000e-06	2.529061e-06	6.722148e-09	1.708310e+01	4.368224e+02
1.950000e-06	2.500471e-06	6.585053e-09	1.688999e+01	4.330308e+02
1.960000e-06	2.470459e-06	6.563669e-09	1.668727e+01	4.290869e+02
1.970000e-06	2.439370e-06	6.527286e-09	1.647727e+01	4.250020e+02
1.980000e-06	2.407565e-06	6.371927e-09	1.626244e+01	4.207903e+02
1.990000e-06	2.374950e-06	6.410948e-09	1.604213e+01	4.164639e+02
2.000000e-06	2.341608e-06	6.357508e-09	1.581691e+01	4.120297e+02
2.010000e-06	2.307478e-06	6.177028e-09	1.558638e+01	4.074886e+02
2.020000e-06	2.272615e-06	6.170649e-09	1.535089e+01	4.028367e+02
2.030000e-06	2.237184e-06	6.102746e-09	1.511156e+01	3.980688e+02
2.040000e-06	2.200848e-06	5.975323e-09	1.486612e+01	3.931815e+02
2.050000e-06	2.163369e-06	5.970518e-09	1.461296e+01	3.881761e+02
2.060000e-06	2.124997e-06	5.857932e-09	1.435377e+01	3.830588e+02
2.070000e-06	2.085915e-06	5.751054e-09	1.408978e+01	3.778398e+02
2.080000e-06	2.046204e-06	5.717477e-09	1.382154e+01	3.725306e+02
2.090000e-06	2.005814e-06	5.612410e-09	1.354872e+01	3.671406e+02
2.100000e-06	1.964728e-06	5.526976e-09	1.327119e+01	3.616752e+02
2.110000e-06	1.923077e-06	5.442566e-09	1.298985e+01	3.561339e+02
2.120000e-06	1.880785e-06	5.351313e-09	1.270418e+01	3.505116e+02
2.130000e-06	1.837892e-06	5.286783e-09	1.241445e+01	3.447995e+02
2.140000e-06	1.794493e-06	5.183554e-09	1.212130e+01	3.389887e+02
2.150000e-06	1.750473e-06	5.077092e-09	1.182396e+01	3.330728e+02
2.160000e-06	1.705799e-06	4.994675e-09	1.152220e+01	3.270498e+02
2.170000e-06	1.660427e-06	4.907824e-09	1.121572e+01	3.209232e+02
2.180000e-06	1.614523e-06	4.817885e-09	1.090565e+01	3.147015e+02
2.190000e-06	1.568170e-06	4.703056e-09	1.059256e+01	3.083954e+02
2.200000e-06	1.521287e-06	4.611009e-09	1.027588e+01	3.020154e+02
2.210000e-06	1.473869e-06	4.531169e-09	9.955578e+00	2.955683e+02
2.220000e-06	1.425699e-06	4.416320e-09	9.630203e+00	2.890557e+02
2.230000e-06	1.376879e-06	4.319453e-09	9.300436e+00	2.824728e+02
2.240000e-06	1.327670e-06	4.208898e-09	8.968043e+00	2.758108e+02
2.250000e-06	1.278040e-06	4.109739e-09	8.632808e+00	2.690595e+02
2.260000e-06	1.227885e-06	4.023139e-09	8.294023e+00	2.622111e+02
2.270000e-06	1.177245e-06	3.905258e-09	7.951962e+00	2.552634e+02
2.280000e-06	1.126266e-06	3.797616e-09	7.607618e+00	2.482213e+02
2.290000e-06	1.074925e-06	3.693467e-09	7.260819e+00	2.410956e+02
2.300000e-06	1.023002e-06	3.587382e-09	6.910097e+00	2.339007e+02
2.310000e-06	9.704149e-07	3.477472e-09	6.554884e+00	2.266504e+02
2.320000e-06	9.172524e-07	3.354803e-09	6.195786e+00	2.193544e+02
2.330000e-06	8.635960e-07	3.241433e-09	5.833352e+00	2.120158e+02
2.340000e-06	8.095685e-07	3.137093e-09	5.468411e+00	2.046317e+02
2.350000e-06	7.551579e-07	3.025185e-09	5.100883e+00	1.971954e+02
2.360000e-06	7.003559e-07	2.910845e-09	4.730710e+00	1.896995e+02
2.370000e-06	6.453715e-07	2.791722e-09	4.359306e+00	1.821392e+02
2.380000e-06	5.903172e-07	2.680281e-09	3.987430e+00	1.745139e+02
2.390000e-06	5.351393e-07	2.566872e-09	3.614718e+00	1.668263e+02
2.400000e-06	4.798719e-07	2.440386e-09	3.241402e+00	1.590797e+02
2.410000e-06	4.245329e-07	2.318930e-09	2.867602e+00	1.512754e+02
2.420000e-06	3.690878e-07	2.198799e-09	2.493086e+00	1.434102e+02
2.430000e-06	3.135744e-07	2.083771e-09	2.118108e+00	1.354764e+02
2.440000e-06	2.579343e-07	1.963345e-09	1.742275e+00	1.274640e+02
2.450000e-06	2.021378e-07	1.836974e-09	1.365385e+00	1.193654e+02
2.460000e-06	1.462472e-07	1.713540e-09	9.878595e-01	1.111786e+02
2.470000e-06	9.029828e-08	1.588449e-09	6.099399e-01	1.029103e+02
2.480000e-06	3.435283e-08	1.463312e-09	2.320438e-01	9.457473e+01
2.490000e-06	-2.154730e-08	1.334854e-09	-1.455460e-01	8.618952e+01
2.500000e-06	-7.740002e-08	1.205947e-09	-5.228157e-01	7.776997e+01
2.510000e-06	-1.332189e-07	1.079077e-09	-8.998565e-01	6.932326e+01
2.520000e-06	-1.890152e-07	9.514944e-10	-1.276745e+00	6.084518e+01
2.530000e-06	-2.447264e-07	8.189586e-10	-1.653059e+00	5.232081e+01
2.540000e-06	-3.003224e-07	6.863537e-10	-2.028594e+00	4.372902e+01
2.550000e-06	-3.558612e-07	5.565111e-10	-2.403744e+00	3.504926e+01
2.560000e-06	-4.112753e-07	4.254336e-10	-2.778051e+00	2.626817e+01
2.570000e-06	-4.665667e-07	2.883051e-10	-3.151529e+00	1.738325e+01
2.580000e-06	-5.217846e-07	1.471149e-10	-3.524510e+00	8.402483e+00
2.590000e-06	-5.768985e-07	9.652366e-12	-3.896790e+00	-6.603323e-01
2.600000e-06	-6.319128e-07	-1.271382e-10	-4.268396e+00	-9.792307e+00
2.610000e-06	-6.868130e-07	-2.670023e-10	-4.639232e+00	-1.898770e+01
2.620000e-06	-7.415550e-07	-4.105497e-10	-5.008999e+00	-2.825087e+01
2.630000e-06	-7.960121e-07	-5.517432e-10	-5.376841e+00	-3.759473e+01
2.640000e-06	-8.500519e-07	-6.921138e-10	-5.741865e+00	-4.703496e+01
2.650000e-06	-9.035806e-07	-8.362677e-10	-6.103437e+00	-5.658252e+01
2.660000e-06	-9.565398e-07	-9.866555e-10	-6.461162e+00	-6.623733e+01
2.670000e-06	-1.008926e-06	-1.139502e-09	-6.815019e+00	-7.598599e+01
2.680000e-06	-1.060772e-06	-1.288841e-09	-7.165223e+00	-8.580465e+01
2.690000e-06	-1.112156e-06	-1.437678e-09	-7.512306e+00	-9.566614e+01
2.700000e-06	-1.163186e-06	-1.589089e-09	-7.856997e+00	-1.055487e+02
2.710000e-06	-1.213888e-06	-1.743659e-09	-8.199480e+00	-1.154429e+02
2.720000e-06	-1.264145e-06	-1.895961e-09	-8.538949e+00	-1.253533e+02
2.730000e-06	-1.313891e-06	-2.046234e-09	-8.874969e+00	-1.352954e+02
2.740000e-06	-1.363147e-06	-2.197913e-09	-9.207678e+00	-1.452866e+02
2.750000e-06	-1.411887e-06	-2.351654e-09	-9.536905e+00	-1.553372e+02
2.760000e-06	-1.459901e-06	-2.504811e-09	-9.861226e+00	-1.654426e+02
2.770000e-06	-1.507055e-06	-2.657862e-09	-1.017974e+01	-1.755818e+02
2.780000e-06	-1.553441e-06	-2.813089e-09	-1.049307e+01	-1.857214e+02
2.790000e-06	-1.599240e-06	-2.971075e-09	-1.080242e+01	-1.958249e+02
2.800000e-06	-1.644656e-06	-3.128834e-09	-1.110920e+01	-2.058629e+02
2.810000e-06	-1.689668e-06	-3.279715e-09	-1.141324e+01	-2.158204e+02
2.820000e-06	-1.734123e-06	-3.425955e-09	-1.171352e+01	-2.256993e+02
2.830000e-06	-1.777952e-06	-3.571378e-09	-1.200957e+01	-2.355132e+02
2.840000e-06	-1.821253e-06	-3.719258e-09	-1.230206e+01	-2.452784e+02
2.850000e-06	-1.864132e-06	-3.869463e-09	-1.259170e+01	-2.550038e+02
2.860000e-06	-1.906452e-06	-4.019520e-09	-1.287756e+01	-2.646830e+02
2.870000e-06	-1.948106e-06	-4.169083e-09	-1.315892e+01	-2.742931e+02
2.880000e-06	-1.989174e-06	-4.317419e-09	-1.343632e+01	-2.837990e+02
2.890000e-06	-2.029583e-06	-4.462295e-09	-1.370927e+01	-2.931620e+02
2.900000e-06	-2.069252e-06	-4.600935e-09	-1.397723e+01	-3.023490e+02
2.910000e-06	-2.108338e-06	-4.734869e-09	-1.424124e+01	-3.113390e+02
2.920000e-06	-2.146811e-06	-4.866574e-09	-1.450112e+01	-3.201229e+02
2.930000e-06	-2.184359e-06	-4.999468e-09	-1.475474e+01	-3.286995e+02
2.940000e-06	-2.220786e-06	-5.130837e-09	-1.500080e+01	-3.370668e+02
