# Temperatura_=_18.21
# Concentracion g/m^3_=_18700.0
# C_Vs_to_Am_M_A/Vsm_=_65563218390.804596
# pendiente_HvsI_1/m_=_3716.3
# ordenada_HvsI_A/m_=_1297.0
# frecuencia_Hz_=_301039.76418825536

Tiempo_(s)	Campo_(V.s)	Magnetizacion_(V.s)	Campo_(kA/m)	Magnetizacion_(A/m)
0.000000e+00	-2.929461e-06	-7.264563e-09	-1.977874e+01	-4.729787e+02
1.000000e-08	-2.928912e-06	-7.263453e-09	-1.977503e+01	-4.729540e+02
2.000000e-08	-2.927483e-06	-7.262031e-09	-1.976538e+01	-4.728518e+02
3.000000e-08	-2.924852e-06	-7.258121e-09	-1.974762e+01	-4.726651e+02
4.000000e-08	-2.920988e-06	-7.252634e-09	-1.972153e+01	-4.723608e+02
5.000000e-08	-2.916211e-06	-7.246949e-09	-1.968928e+01	-4.718912e+02
6.000000e-08	-2.910654e-06	-7.240212e-09	-1.965176e+01	-4.712124e+02
7.000000e-08	-2.904112e-06	-7.233392e-09	-1.960759e+01	-4.703023e+02
8.000000e-08	-2.896517e-06	-7.210596e-09	-1.955630e+01	-4.691711e+02
9.000000e-08	-2.887839e-06	-7.196770e-09	-1.949772e+01	-4.678619e+02
1.000000e-07	-2.877770e-06	-7.200194e-09	-1.942973e+01	-4.664393e+02
1.100000e-07	-2.866236e-06	-7.207683e-09	-1.935186e+01	-4.649716e+02
1.200000e-07	-2.853762e-06	-7.094750e-09	-1.926764e+01	-4.635104e+02
1.300000e-07	-2.840565e-06	-7.005034e-09	-1.917854e+01	-4.620769e+02
1.400000e-07	-2.826363e-06	-7.068392e-09	-1.908265e+01	-4.606558e+02
1.500000e-07	-2.811028e-06	-7.140442e-09	-1.897911e+01	-4.592011e+02
1.600000e-07	-2.794554e-06	-6.977863e-09	-1.886789e+01	-4.576500e+02
1.700000e-07	-2.776914e-06	-6.935782e-09	-1.874879e+01	-4.559396e+02
1.800000e-07	-2.758192e-06	-7.036940e-09	-1.862238e+01	-4.540229e+02
1.900000e-07	-2.738710e-06	-6.866755e-09	-1.849085e+01	-4.518774e+02
2.000000e-07	-2.718460e-06	-6.797965e-09	-1.835413e+01	-4.495064e+02
2.100000e-07	-2.697249e-06	-6.861713e-09	-1.821091e+01	-4.469325e+02
2.200000e-07	-2.675167e-06	-6.751098e-09	-1.806183e+01	-4.441870e+02
2.300000e-07	-2.652319e-06	-6.673520e-09	-1.790757e+01	-4.412985e+02
2.400000e-07	-2.628575e-06	-6.756096e-09	-1.774725e+01	-4.382853e+02
2.500000e-07	-2.603930e-06	-6.637539e-09	-1.758085e+01	-4.351522e+02
2.600000e-07	-2.578384e-06	-6.505790e-09	-1.740838e+01	-4.318922e+02
2.700000e-07	-2.551589e-06	-6.525320e-09	-1.722747e+01	-4.284928e+02
2.800000e-07	-2.523647e-06	-6.485273e-09	-1.703882e+01	-4.249419e+02
2.900000e-07	-2.494904e-06	-6.391739e-09	-1.684475e+01	-4.212336e+02
3.000000e-07	-2.465323e-06	-6.366702e-09	-1.664503e+01	-4.173707e+02
3.100000e-07	-2.434912e-06	-6.269213e-09	-1.643970e+01	-4.133639e+02
3.200000e-07	-2.403749e-06	-6.219596e-09	-1.622930e+01	-4.092285e+02
3.300000e-07	-2.371831e-06	-6.211660e-09	-1.601381e+01	-4.049803e+02
3.400000e-07	-2.339298e-06	-6.046789e-09	-1.579415e+01	-4.006304e+02
3.500000e-07	-2.306035e-06	-6.000382e-09	-1.556957e+01	-3.961838e+02
3.600000e-07	-2.271656e-06	-5.994504e-09	-1.533746e+01	-3.916376e+02
3.700000e-07	-2.236137e-06	-5.882808e-09	-1.509764e+01	-3.869841e+02
3.800000e-07	-2.199824e-06	-5.801576e-09	-1.485247e+01	-3.822130e+02
3.900000e-07	-2.162914e-06	-5.751148e-09	-1.460327e+01	-3.773163e+02
4.000000e-07	-2.125275e-06	-5.634343e-09	-1.434914e+01	-3.722909e+02
4.100000e-07	-2.086789e-06	-5.578517e-09	-1.408930e+01	-3.671408e+02
4.200000e-07	-2.047493e-06	-5.530323e-09	-1.382399e+01	-3.618759e+02
4.300000e-07	-2.007536e-06	-5.404952e-09	-1.355421e+01	-3.565103e+02
4.400000e-07	-1.967109e-06	-5.324891e-09	-1.328126e+01	-3.510574e+02
4.500000e-07	-1.926165e-06	-5.264935e-09	-1.300482e+01	-3.455263e+02
4.600000e-07	-1.884391e-06	-5.177256e-09	-1.272277e+01	-3.399189e+02
4.700000e-07	-1.841596e-06	-5.068768e-09	-1.243384e+01	-3.342292e+02
4.800000e-07	-1.797857e-06	-4.981488e-09	-1.213852e+01	-3.284461e+02
4.900000e-07	-1.753485e-06	-4.895476e-09	-1.183894e+01	-3.225570e+02
5.000000e-07	-1.708663e-06	-4.820500e-09	-1.153632e+01	-3.165537e+02
5.100000e-07	-1.663315e-06	-4.724917e-09	-1.123014e+01	-3.104357e+02
5.200000e-07	-1.617371e-06	-4.611365e-09	-1.091995e+01	-3.042119e+02
5.300000e-07	-1.570840e-06	-4.521890e-09	-1.060578e+01	-2.978983e+02
5.400000e-07	-1.523725e-06	-4.432783e-09	-1.028768e+01	-2.915128e+02
5.500000e-07	-1.476020e-06	-4.332172e-09	-9.965588e+00	-2.850695e+02
5.600000e-07	-1.427851e-06	-4.223563e-09	-9.640369e+00	-2.785737e+02
5.700000e-07	-1.379331e-06	-4.124801e-09	-9.312776e+00	-2.720198e+02
5.800000e-07	-1.330339e-06	-4.021519e-09	-8.981997e+00	-2.653937e+02
5.900000e-07	-1.280648e-06	-3.929970e-09	-8.646507e+00	-2.586783e+02
6.000000e-07	-1.230202e-06	-3.821597e-09	-8.305906e+00	-2.518606e+02
6.100000e-07	-1.179017e-06	-3.704993e-09	-7.960323e+00	-2.449375e+02
6.200000e-07	-1.127239e-06	-3.604473e-09	-7.610741e+00	-2.379180e+02
6.300000e-07	-1.075055e-06	-3.498059e-09	-7.258409e+00	-2.308208e+02
6.400000e-07	-1.022547e-06	-3.382382e-09	-6.903891e+00	-2.236680e+02
6.500000e-07	-9.697458e-07	-3.262867e-09	-6.547397e+00	-2.164776e+02
6.600000e-07	-9.165561e-07	-3.159520e-09	-6.188278e+00	-2.092575e+02
6.700000e-07	-8.629258e-07	-3.054454e-09	-5.826184e+00	-2.020029e+02
6.800000e-07	-8.090001e-07	-2.944387e-09	-5.462096e+00	-1.946996e+02
6.900000e-07	-7.548513e-07	-2.825871e-09	-5.096501e+00	-1.873304e+02
7.000000e-07	-7.004570e-07	-2.711407e-09	-4.729250e+00	-1.798833e+02
7.100000e-07	-6.458894e-07	-2.601027e-09	-4.360827e+00	-1.723570e+02
7.200000e-07	-5.911170e-07	-2.483371e-09	-3.991023e+00	-1.647623e+02
7.300000e-07	-5.361616e-07	-2.361985e-09	-3.619982e+00	-1.571180e+02
7.400000e-07	-4.810462e-07	-2.240827e-09	-3.247862e+00	-1.494426e+02
7.500000e-07	-4.256948e-07	-2.129735e-09	-2.874148e+00	-1.417461e+02
7.600000e-07	-3.701362e-07	-2.016189e-09	-2.499035e+00	-1.340246e+02
7.700000e-07	-3.144217e-07	-1.899251e-09	-2.122869e+00	-1.262602e+02
7.800000e-07	-2.585640e-07	-1.774886e-09	-1.745737e+00	-1.184272e+02
7.900000e-07	-2.025896e-07	-1.652774e-09	-1.367817e+00	-1.105025e+02
8.000000e-07	-1.465596e-07	-1.532418e-09	-9.895212e-01	-1.024745e+02
8.100000e-07	-9.050047e-08	-1.406384e-09	-6.110286e-01	-9.434987e+01
8.200000e-07	-3.439593e-08	-1.277495e-09	-2.322297e-01	-8.615163e+01
8.300000e-07	2.170407e-08	-1.150157e-09	1.465386e-01	-7.791187e+01
8.400000e-07	7.779453e-08	-1.029250e-09	5.252425e-01	-6.965970e+01
8.500000e-07	1.338973e-07	-9.051072e-10	9.040293e-01	-6.140995e+01
8.600000e-07	1.899529e-07	-7.783406e-10	1.282498e+00	-5.315677e+01
8.700000e-07	2.459169e-07	-6.488845e-10	1.660348e+00	-4.487489e+01
8.800000e-07	3.017671e-07	-5.221028e-10	2.037430e+00	-3.652818e+01
8.900000e-07	3.575211e-07	-3.941365e-10	2.413862e+00	-2.808257e+01
9.000000e-07	4.131259e-07	-2.621776e-10	2.789287e+00	-1.951811e+01
9.100000e-07	4.685368e-07	-1.287691e-10	3.163402e+00	-1.083559e+01
9.200000e-07	5.237836e-07	4.625298e-12	3.536410e+00	-2.055109e+00
9.300000e-07	5.788500e-07	1.357133e-10	3.908200e+00	6.793007e+00
9.400000e-07	6.336973e-07	2.699591e-10	4.278510e+00	1.568116e+01
9.500000e-07	6.883074e-07	4.048003e-10	4.647220e+00	2.459623e+01
9.600000e-07	7.427288e-07	5.415052e-10	5.014654e+00	3.354527e+01
9.700000e-07	7.969529e-07	6.779175e-10	5.380757e+00	4.255270e+01
9.800000e-07	8.508604e-07	8.171714e-10	5.744723e+00	5.165014e+01
9.900000e-07	9.044262e-07	9.580581e-10	6.106381e+00	6.086279e+01
1.000000e-06	9.576754e-07	1.098694e-09	6.465902e+00	7.019794e+01
1.010000e-06	1.010555e-06	1.238893e-09	6.822926e+00	7.964037e+01
1.020000e-06	1.063041e-06	1.380373e-09	7.177295e+00	8.915663e+01
1.030000e-06	1.115108e-06	1.526543e-09	7.528835e+00	9.870657e+01
1.040000e-06	1.166657e-06	1.671549e-09	7.876872e+00	1.082578e+02
1.050000e-06	1.217666e-06	1.816283e-09	8.221269e+00	1.177970e+02
1.060000e-06	1.268029e-06	1.960245e-09	8.561307e+00	1.273337e+02
1.070000e-06	1.317632e-06	2.107120e-09	8.896208e+00	1.368942e+02
1.080000e-06	1.366614e-06	2.253391e-09	9.226920e+00	1.465093e+02
1.090000e-06	1.415112e-06	2.399725e-09	9.554356e+00	1.561989e+02
1.100000e-06	1.463225e-06	2.547164e-09	9.879201e+00	1.659607e+02
1.110000e-06	1.510976e-06	2.694923e-09	1.020160e+01	1.757678e+02
1.120000e-06	1.558232e-06	2.843993e-09	1.052066e+01	1.855751e+02
1.130000e-06	1.604905e-06	2.992266e-09	1.083578e+01	1.953337e+02
1.140000e-06	1.651004e-06	3.141089e-09	1.114702e+01	2.050062e+02
1.150000e-06	1.696533e-06	3.286702e-09	1.145442e+01	2.145778e+02
1.160000e-06	1.741502e-06	3.431040e-09	1.175804e+01	2.240583e+02
1.170000e-06	1.786019e-06	3.574374e-09	1.205860e+01	2.334746e+02
1.180000e-06	1.830084e-06	3.717231e-09	1.235611e+01	2.428563e+02
1.190000e-06	1.873451e-06	3.859829e-09	1.264891e+01	2.522198e+02
1.200000e-06	1.915934e-06	4.001133e-09	1.293574e+01	2.615587e+02
1.210000e-06	1.957473e-06	4.141639e-09	1.321619e+01	2.708418e+02
1.220000e-06	1.998220e-06	4.280334e-09	1.349131e+01	2.800215e+02
1.230000e-06	2.038395e-06	4.417380e-09	1.376255e+01	2.890485e+02
1.240000e-06	2.077972e-06	4.550532e-09	1.402976e+01	2.978858e+02
1.250000e-06	2.116868e-06	4.679091e-09	1.429238e+01	3.065183e+02
1.260000e-06	2.155011e-06	4.803907e-09	1.454991e+01	3.149523e+02
1.270000e-06	2.192383e-06	4.927463e-09	1.480223e+01	3.232065e+02
1.280000e-06	2.229089e-06	5.051571e-09	1.505006e+01	3.312986e+02
1.290000e-06	2.265219e-06	5.173939e-09	1.529399e+01	3.392318e+02
1.300000e-06	2.300586e-06	5.292379e-09	1.553278e+01	3.469885e+02
1.310000e-06	2.334864e-06	5.405338e-09	1.576421e+01	3.545334e+02
1.320000e-06	2.368042e-06	5.514733e-09	1.598822e+01	3.618242e+02
1.330000e-06	2.400400e-06	5.620761e-09	1.620669e+01	3.688271e+02
1.340000e-06	2.432046e-06	5.721287e-09	1.642035e+01	3.755290e+02
1.350000e-06	2.462891e-06	5.816330e-09	1.662861e+01	3.819427e+02
1.360000e-06	2.492912e-06	5.909479e-09	1.683130e+01	3.881022e+02
1.370000e-06	2.522108e-06	6.000852e-09	1.702842e+01	3.940492e+02
1.380000e-06	2.550558e-06	6.088381e-09	1.722051e+01	3.998175e+02
1.390000e-06	2.578242e-06	6.172022e-09	1.740742e+01	4.054198e+02
1.400000e-06	2.604843e-06	6.253225e-09	1.758702e+01	4.108441e+02
1.410000e-06	2.630221e-06	6.331985e-09	1.775837e+01	4.160589e+02
1.420000e-06	2.654580e-06	6.405837e-09	1.792283e+01	4.210275e+02
1.430000e-06	2.678016e-06	6.475206e-09	1.808106e+01	4.257232e+02
1.440000e-06	2.700554e-06	6.540159e-09	1.823323e+01	4.301421e+02
1.450000e-06	2.722238e-06	6.602202e-09	1.837963e+01	4.343046e+02
1.460000e-06	2.743097e-06	6.661689e-09	1.852046e+01	4.382483e+02
1.470000e-06	2.763170e-06	6.718680e-09	1.865599e+01	4.420130e+02
1.480000e-06	2.782314e-06	6.773294e-09	1.878525e+01	4.456239e+02
1.490000e-06	2.800419e-06	6.824220e-09	1.890749e+01	4.490806e+02
1.500000e-06	2.817524e-06	6.870833e-09	1.902297e+01	4.523562e+02
1.510000e-06	2.833579e-06	6.915603e-09	1.913137e+01	4.554063e+02
1.520000e-06	2.848495e-06	6.958231e-09	1.923208e+01	4.581862e+02
1.530000e-06	2.862312e-06	6.994597e-09	1.932536e+01	4.606681e+02
1.540000e-06	2.875125e-06	7.024761e-09	1.941187e+01	4.628530e+02
1.550000e-06	2.886801e-06	7.050826e-09	1.949071e+01	4.647721e+02
1.560000e-06	2.897169e-06	7.076508e-09	1.956071e+01	4.664766e+02
1.570000e-06	2.906316e-06	7.102766e-09	1.962247e+01	4.680209e+02
1.580000e-06	2.914453e-06	7.126065e-09	1.967741e+01	4.694448e+02
1.590000e-06	2.921645e-06	7.144067e-09	1.972596e+01	4.707614e+02
1.600000e-06	2.927857e-06	7.159371e-09	1.976790e+01	4.719558e+02
1.610000e-06	2.933148e-06	7.173910e-09	1.980362e+01	4.729939e+02
1.620000e-06	2.937599e-06	7.185794e-09	1.983368e+01	4.738393e+02
1.630000e-06	2.941069e-06	7.193205e-09	1.985711e+01	4.744692e+02
1.640000e-06	2.943272e-06	7.200686e-09	1.987198e+01	4.748858e+02
1.650000e-06	2.944238e-06	7.208688e-09	1.987850e+01	4.751163e+02
1.660000e-06	2.944226e-06	7.214383e-09	1.987842e+01	4.752031e+02
1.670000e-06	2.943269e-06	7.215957e-09	1.987196e+01	4.751876e+02
1.680000e-06	2.941388e-06	7.208685e-09	1.985926e+01	4.750937e+02
1.690000e-06	2.938666e-06	7.198003e-09	1.984088e+01	4.749174e+02
1.700000e-06	2.935140e-06	7.189944e-09	1.981708e+01	4.746280e+02
1.710000e-06	2.930705e-06	7.183919e-09	1.978713e+01	4.741785e+02
1.720000e-06	2.925080e-06	7.174480e-09	1.974916e+01	4.735239e+02
1.730000e-06	2.918325e-06	7.157479e-09	1.970355e+01	4.726388e+02
1.740000e-06	2.910702e-06	7.156495e-09	1.965208e+01	4.715299e+02
1.750000e-06	2.902008e-06	7.108640e-09	1.959338e+01	4.702370e+02
1.760000e-06	2.891712e-06	7.052723e-09	1.952386e+01	4.688233e+02
1.770000e-06	2.879996e-06	7.045442e-09	1.944476e+01	4.673576e+02
1.780000e-06	2.867770e-06	7.129565e-09	1.936221e+01	4.658942e+02
1.790000e-06	2.855188e-06	7.106621e-09	1.927726e+01	4.644580e+02
1.800000e-06	2.841367e-06	6.924469e-09	1.918395e+01	4.630374e+02
1.810000e-06	2.825977e-06	6.983444e-09	1.908004e+01	4.615893e+02
1.820000e-06	2.809722e-06	7.068695e-09	1.897030e+01	4.600518e+02
1.830000e-06	2.792809e-06	6.938145e-09	1.885611e+01	4.583612e+02
1.840000e-06	2.774652e-06	6.879678e-09	1.873352e+01	4.564683e+02
1.850000e-06	2.755443e-06	6.988376e-09	1.860382e+01	4.543477e+02
1.860000e-06	2.735580e-06	6.897285e-09	1.846971e+01	4.520002e+02
1.870000e-06	2.714586e-06	6.759019e-09	1.832797e+01	4.494467e+02
1.880000e-06	2.692183e-06	6.872025e-09	1.817672e+01	4.467182e+02
1.890000e-06	2.668799e-06	6.784689e-09	1.801883e+01	4.438440e+02
1.900000e-06	2.644593e-06	6.626630e-09	1.785540e+01	4.408439e+02
1.910000e-06	2.619478e-06	6.761244e-09	1.768583e+01	4.377238e+02
1.920000e-06	2.593655e-06	6.689156e-09	1.751148e+01	4.344782e+02
1.930000e-06	2.567061e-06	6.519310e-09	1.733193e+01	4.310945e+02
1.940000e-06	2.539656e-06	6.563886e-09	1.714690e+01	4.275603e+02
1.950000e-06	2.511421e-06	6.472524e-09	1.695627e+01	4.238690e+02
1.960000e-06	2.481963e-06	6.382514e-09	1.675738e+01	4.200224e+02
1.970000e-06	2.451265e-06	6.399750e-09	1.655011e+01	4.160304e+02
1.980000e-06	2.419701e-06	6.262769e-09	1.633701e+01	4.119082e+02
1.990000e-06	2.387375e-06	6.205440e-09	1.611875e+01	4.076715e+02
2.000000e-06	2.354319e-06	6.245659e-09	1.589557e+01	4.033324e+02
2.010000e-06	2.320514e-06	6.069927e-09	1.566733e+01	3.988962e+02
2.020000e-06	2.285866e-06	5.995191e-09	1.543340e+01	3.943612e+02
2.030000e-06	2.250538e-06	5.996832e-09	1.519487e+01	3.897197e+02
2.040000e-06	2.214468e-06	5.848791e-09	1.495134e+01	3.849618e+02
2.050000e-06	2.177371e-06	5.813277e-09	1.470087e+01	3.800789e+02
2.060000e-06	2.139266e-06	5.768596e-09	1.444360e+01	3.750674e+02
2.070000e-06	2.100388e-06	5.627698e-09	1.418111e+01	3.699303e+02
2.080000e-06	2.060867e-06	5.582460e-09	1.391428e+01	3.646773e+02
2.090000e-06	2.020658e-06	5.511305e-09	1.364280e+01	3.593219e+02
2.100000e-06	1.979792e-06	5.400699e-09	1.336689e+01	3.538779e+02
2.110000e-06	1.938344e-06	5.328993e-09	1.308704e+01	3.483551e+02
2.120000e-06	1.896263e-06	5.234444e-09	1.280293e+01	3.427561e+02
2.130000e-06	1.853513e-06	5.163057e-09	1.251429e+01	3.370759e+02
2.140000e-06	1.810239e-06	5.081076e-09	1.222212e+01	3.313035e+02
2.150000e-06	1.766534e-06	4.969793e-09	1.192704e+01	3.254264e+02
2.160000e-06	1.722222e-06	4.887065e-09	1.162786e+01	3.194356e+02
2.170000e-06	1.677140e-06	4.795940e-09	1.132348e+01	3.133298e+02
2.180000e-06	1.631329e-06	4.709887e-09	1.101418e+01	3.071168e+02
2.190000e-06	1.585040e-06	4.600913e-09	1.070166e+01	3.008120e+02
2.200000e-06	1.538365e-06	4.496690e-09	1.038652e+01	2.944335e+02
2.210000e-06	1.491176e-06	4.415709e-09	1.006792e+01	2.879962e+02
2.220000e-06	1.443292e-06	4.313322e-09	9.744624e+00	2.815062e+02
2.230000e-06	1.394650e-06	4.216393e-09	9.416205e+00	2.749592e+02
2.240000e-06	1.345491e-06	4.112559e-09	9.084300e+00	2.683417e+02
2.250000e-06	1.295943e-06	4.001067e-09	8.749773e+00	2.616368e+02
2.260000e-06	1.245955e-06	3.911442e-09	8.412267e+00	2.548305e+02
2.270000e-06	1.195455e-06	3.804954e-09	8.071309e+00	2.479186e+02
2.280000e-06	1.144455e-06	3.686716e-09	7.726977e+00	2.409089e+02
2.290000e-06	1.093100e-06	3.588648e-09	7.380243e+00	2.338190e+02
2.300000e-06	1.041377e-06	3.484276e-09	7.031025e+00	2.266713e+02
2.310000e-06	9.891294e-07	3.381296e-09	6.678268e+00	2.194845e+02
2.320000e-06	9.363417e-07	3.265213e-09	6.321863e+00	2.122677e+02
2.330000e-06	8.829926e-07	3.146187e-09	5.961668e+00	2.050175e+02
2.340000e-06	8.290469e-07	3.038563e-09	5.597445e+00	1.977203e+02
2.350000e-06	7.746976e-07	2.922970e-09	5.230497e+00	1.903590e+02
2.360000e-06	7.200127e-07	2.810648e-09	4.861283e+00	1.829207e+02
2.370000e-06	6.650593e-07	2.694936e-09	4.490256e+00	1.754026e+02
2.380000e-06	6.099706e-07	2.583652e-09	4.118316e+00	1.678146e+02
2.390000e-06	5.547487e-07	2.474325e-09	3.745477e+00	1.601748e+02
2.400000e-06	4.994227e-07	2.354347e-09	3.371934e+00	1.525021e+02
2.410000e-06	4.439845e-07	2.231275e-09	2.997634e+00	1.448080e+02
2.420000e-06	3.884372e-07	2.109267e-09	2.622597e+00	1.370899e+02
2.430000e-06	3.328488e-07	1.991739e-09	2.247283e+00	1.293314e+02
2.440000e-06	2.772029e-07	1.875299e-09	1.871580e+00	1.215071e+02
2.450000e-06	2.214893e-07	1.754601e-09	1.495421e+00	1.135931e+02
2.460000e-06	1.656561e-07	1.634122e-09	1.118454e+00	1.055764e+02
2.470000e-06	1.097269e-07	1.514419e-09	7.408390e-01	9.746137e+01
2.480000e-06	5.380342e-08	1.389756e-09	3.632626e-01	8.926967e+01
2.490000e-06	-2.104305e-09	1.263005e-09	-1.420756e-02	8.103294e+01
2.500000e-06	-5.798258e-08	1.135059e-09	-3.914788e-01	7.278117e+01
2.510000e-06	-1.138377e-07	1.011368e-09	-7.685936e-01	6.453118e+01
2.520000e-06	-1.696368e-07	8.880667e-10	-1.145330e+00	5.627941e+01
2.530000e-06	-2.253670e-07	7.581494e-10	-1.521602e+00	4.800236e+01
2.540000e-06	-2.810642e-07	6.278990e-10	-1.897651e+00	3.966450e+01
2.550000e-06	-3.367104e-07	5.000603e-10	-2.273355e+00	3.123090e+01
2.560000e-06	-3.922540e-07	3.740135e-10	-2.648367e+00	2.267964e+01
2.570000e-06	-4.476882e-07	2.427448e-10	-3.022640e+00	1.400922e+01
2.580000e-06	-5.030255e-07	1.065017e-10	-3.396259e+00	5.237980e+00
2.590000e-06	-5.582682e-07	-3.016400e-11	-3.769239e+00	-3.604247e+00
2.600000e-06	-6.134144e-07	-1.647508e-10	-4.141567e+00	-1.248895e+01
2.610000e-06	-6.684271e-07	-2.994496e-10	-4.512995e+00	-2.140104e+01
2.620000e-06	-7.232433e-07	-4.389421e-10	-4.883095e+00	-3.034539e+01
2.630000e-06	-7.777703e-07	-5.799167e-10	-5.251243e+00	-3.934495e+01
2.640000e-06	-8.318627e-07	-7.181121e-10	-5.616456e+00	-4.843119e+01
2.650000e-06	-8.854679e-07	-8.550915e-10	-5.978381e+00	-5.763063e+01
2.660000e-06	-9.385288e-07	-9.974819e-10	-6.336630e+00	-6.695287e+01
2.670000e-06	-9.909877e-07	-1.144689e-09	-6.690815e+00	-7.638504e+01
2.680000e-06	-1.042941e-06	-1.292191e-09	-7.041586e+00	-8.589519e+01
2.690000e-06	-1.094520e-06	-1.437122e-09	-7.389832e+00	-9.544320e+01
2.700000e-06	-1.145790e-06	-1.584348e-09	-7.735985e+00	-1.049952e+02
2.710000e-06	-1.196707e-06	-1.734633e-09	-8.079763e+00	-1.145355e+02
2.720000e-06	-1.247137e-06	-1.882515e-09	-8.420249e+00	-1.240713e+02
2.730000e-06	-1.297052e-06	-2.027702e-09	-8.757257e+00	-1.336276e+02
2.740000e-06	-1.346533e-06	-2.172255e-09	-9.091337e+00	-1.432355e+02
2.750000e-06	-1.395482e-06	-2.319687e-09	-9.421821e+00	-1.529166e+02
2.760000e-06	-1.443659e-06	-2.467961e-09	-9.747101e+00	-1.626714e+02
2.770000e-06	-1.491007e-06	-2.617088e-09	-1.006678e+01	-1.724755e+02
2.780000e-06	-1.537604e-06	-2.768352e-09	-1.038138e+01	-1.822851e+02
2.790000e-06	-1.583643e-06	-2.921243e-09	-1.069222e+01	-1.920509e+02
2.800000e-06	-1.629281e-06	-3.072908e-09	-1.100035e+01	-2.017337e+02
2.810000e-06	-1.674490e-06	-3.219868e-09	-1.130560e+01	-2.113159e+02
2.820000e-06	-1.719181e-06	-3.363115e-09	-1.160733e+01	-2.208049e+02
2.830000e-06	-1.763237e-06	-3.505433e-09	-1.190478e+01	-2.302265e+02
2.840000e-06	-1.806755e-06	-3.647832e-09	-1.219860e+01	-2.396106e+02
2.850000e-06	-1.849844e-06	-3.790295e-09	-1.248952e+01	-2.489758e+02
2.860000e-06	-1.892413e-06	-3.934393e-09	-1.277694e+01	-2.583183e+02
2.870000e-06	-1.934366e-06	-4.080751e-09	-1.306019e+01	-2.676093e+02
2.880000e-06	-1.975659e-06	-4.227227e-09	-1.333898e+01	-2.768025e+02
2.890000e-06	-2.016275e-06	-4.367959e-09	-1.361321e+01	-2.858478e+02
2.900000e-06	-2.056249e-06	-4.501789e-09	-1.388310e+01	-2.947065e+02
2.910000e-06	-2.095627e-06	-4.632112e-09	-1.414897e+01	-3.033608e+02
2.920000e-06	-2.134331e-06	-4.761767e-09	-1.441029e+01	-3.118151e+02
2.930000e-06	-2.172108e-06	-4.890085e-09	-1.466534e+01	-3.200875e+02
2.940000e-06	-2.208796e-06	-5.015806e-09	-1.491304e+01	-3.281964e+02
