# Temperatura_=_22.23
# Concentracion g/m^3_=_18700.0
# C_Vs_to_Am_M_A/Vsm_=_65563218390.804596
# pendiente_HvsI_1/m_=_3716.3
# ordenada_HvsI_A/m_=_1297.0
# frecuencia_Hz_=_301041.3754569466

Tiempo_(s)	Campo_(V.s)	Magnetizacion_(V.s)	Campo_(kA/m)	Magnetizacion_(A/m)
0.000000e+00	-2.925293e-06	-7.387867e-09	-1.977508e+01	-4.808906e+02
1.000000e-08	-2.924447e-06	-7.388034e-09	-1.976935e+01	-4.808260e+02
2.000000e-08	-2.922713e-06	-7.384203e-09	-1.975764e+01	-4.806621e+02
3.000000e-08	-2.919762e-06	-7.377128e-09	-1.973769e+01	-4.804074e+02
4.000000e-08	-2.915644e-06	-7.368879e-09	-1.970985e+01	-4.800436e+02
5.000000e-08	-2.910612e-06	-7.361343e-09	-1.967583e+01	-4.795319e+02
6.000000e-08	-2.904758e-06	-7.354205e-09	-1.963626e+01	-4.788278e+02
7.000000e-08	-2.898011e-06	-7.349634e-09	-1.959065e+01	-4.779000e+02
8.000000e-08	-2.890216e-06	-7.347934e-09	-1.953795e+01	-4.767468e+02
9.000000e-08	-2.881264e-06	-7.333099e-09	-1.947743e+01	-4.754029e+02
1.000000e-07	-2.870916e-06	-7.294544e-09	-1.940748e+01	-4.739339e+02
1.100000e-07	-2.859164e-06	-7.257069e-09	-1.932804e+01	-4.724198e+02
1.200000e-07	-2.846515e-06	-7.229223e-09	-1.924253e+01	-4.709316e+02
1.300000e-07	-2.833047e-06	-7.189848e-09	-1.915149e+01	-4.695093e+02
1.400000e-07	-2.818580e-06	-7.152273e-09	-1.905369e+01	-4.681483e+02
1.500000e-07	-2.803103e-06	-7.188336e-09	-1.894907e+01	-4.667986e+02
1.600000e-07	-2.786432e-06	-7.167602e-09	-1.883637e+01	-4.653780e+02
1.700000e-07	-2.768468e-06	-7.082073e-09	-1.871493e+01	-4.637940e+02
1.800000e-07	-2.749566e-06	-7.065922e-09	-1.858716e+01	-4.619684e+02
1.900000e-07	-2.729963e-06	-7.045910e-09	-1.845464e+01	-4.598567e+02
2.000000e-07	-2.709451e-06	-6.957535e-09	-1.831597e+01	-4.574556e+02
2.100000e-07	-2.687942e-06	-6.905669e-09	-1.817057e+01	-4.547985e+02
2.200000e-07	-2.665609e-06	-6.915250e-09	-1.801960e+01	-4.519397e+02
2.300000e-07	-2.642370e-06	-6.868979e-09	-1.786251e+01	-4.489346e+02
2.400000e-07	-2.618217e-06	-6.802981e-09	-1.769923e+01	-4.458214e+02
2.500000e-07	-2.593306e-06	-6.742524e-09	-1.753083e+01	-4.426123e+02
2.600000e-07	-2.567392e-06	-6.664391e-09	-1.735565e+01	-4.392942e+02
2.700000e-07	-2.540275e-06	-6.625112e-09	-1.717234e+01	-4.358392e+02
2.800000e-07	-2.512122e-06	-6.613382e-09	-1.698203e+01	-4.322197e+02
2.900000e-07	-2.483090e-06	-6.525541e-09	-1.678577e+01	-4.284220e+02
3.000000e-07	-2.453203e-06	-6.451513e-09	-1.658373e+01	-4.244533e+02
3.100000e-07	-2.422592e-06	-6.417412e-09	-1.637680e+01	-4.203401e+02
3.200000e-07	-2.391240e-06	-6.349042e-09	-1.616486e+01	-4.161182e+02
3.300000e-07	-2.359081e-06	-6.254925e-09	-1.594746e+01	-4.118198e+02
3.400000e-07	-2.326253e-06	-6.179966e-09	-1.572555e+01	-4.074608e+02
3.500000e-07	-2.292713e-06	-6.134096e-09	-1.549881e+01	-4.030361e+02
3.600000e-07	-2.258137e-06	-6.078161e-09	-1.526508e+01	-3.985213e+02
3.700000e-07	-2.222403e-06	-6.012481e-09	-1.502351e+01	-3.938834e+02
3.800000e-07	-2.185835e-06	-5.925170e-09	-1.477631e+01	-3.890934e+02
3.900000e-07	-2.148705e-06	-5.837343e-09	-1.452531e+01	-3.841380e+02
4.000000e-07	-2.110903e-06	-5.769470e-09	-1.426977e+01	-3.790252e+02
4.100000e-07	-2.072266e-06	-5.703700e-09	-1.400858e+01	-3.737814e+02
4.200000e-07	-2.032834e-06	-5.604778e-09	-1.374202e+01	-3.684422e+02
4.300000e-07	-1.992728e-06	-5.511771e-09	-1.347090e+01	-3.630397e+02
4.400000e-07	-1.952087e-06	-5.446650e-09	-1.319617e+01	-3.575912e+02
4.500000e-07	-1.910897e-06	-5.373617e-09	-1.291772e+01	-3.520942e+02
4.600000e-07	-1.868962e-06	-5.282015e-09	-1.263424e+01	-3.465287e+02
4.700000e-07	-1.826061e-06	-5.178781e-09	-1.234423e+01	-3.408659e+02
4.800000e-07	-1.782173e-06	-5.092167e-09	-1.204755e+01	-3.350805e+02
4.900000e-07	-1.737628e-06	-5.017386e-09	-1.174642e+01	-3.291608e+02
5.000000e-07	-1.692685e-06	-4.926172e-09	-1.144261e+01	-3.231136e+02
5.100000e-07	-1.647220e-06	-4.815942e-09	-1.113526e+01	-3.169612e+02
5.200000e-07	-1.601148e-06	-4.720276e-09	-1.082381e+01	-3.107328e+02
5.300000e-07	-1.554475e-06	-4.635323e-09	-1.050830e+01	-3.044532e+02
5.400000e-07	-1.507220e-06	-4.544002e-09	-1.018886e+01	-2.981323e+02
5.500000e-07	-1.459413e-06	-4.442190e-09	-9.865680e+00	-2.917617e+02
5.600000e-07	-1.411136e-06	-4.331934e-09	-9.539327e+00	-2.853176e+02
5.700000e-07	-1.362481e-06	-4.231881e-09	-9.210416e+00	-2.787701e+02
5.800000e-07	-1.313417e-06	-4.138625e-09	-8.878738e+00	-2.720948e+02
5.900000e-07	-1.263815e-06	-4.033784e-09	-8.543432e+00	-2.652831e+02
6.000000e-07	-1.213520e-06	-3.916542e-09	-8.203437e+00	-2.583458e+02
6.100000e-07	-1.162482e-06	-3.811250e-09	-7.858413e+00	-2.513101e+02
6.200000e-07	-1.110760e-06	-3.713112e-09	-7.508774e+00	-2.442101e+02
6.300000e-07	-1.058572e-06	-3.603452e-09	-7.155980e+00	-2.370752e+02
6.400000e-07	-1.006031e-06	-3.484187e-09	-6.800804e+00	-2.299199e+02
6.500000e-07	-9.531266e-07	-3.369929e-09	-6.443166e+00	-2.227397e+02
6.600000e-07	-8.998546e-07	-3.266055e-09	-6.083046e+00	-2.155141e+02
6.700000e-07	-8.462045e-07	-3.158394e-09	-5.720369e+00	-2.082159e+02
6.800000e-07	-7.922648e-07	-3.041589e-09	-5.355735e+00	-2.008226e+02
6.900000e-07	-7.380619e-07	-2.922219e-09	-4.989322e+00	-1.933257e+02
7.000000e-07	-6.836006e-07	-2.809187e-09	-4.621162e+00	-1.857348e+02
7.100000e-07	-6.289663e-07	-2.695373e-09	-4.251832e+00	-1.780741e+02
7.200000e-07	-5.742032e-07	-2.575689e-09	-3.881632e+00	-1.703725e+02
7.300000e-07	-5.192484e-07	-2.453559e-09	-3.510136e+00	-1.626526e+02
7.400000e-07	-4.640620e-07	-2.335477e-09	-3.137074e+00	-1.549207e+02
7.500000e-07	-4.087392e-07	-2.222522e-09	-2.763090e+00	-1.471641e+02
7.600000e-07	-3.532445e-07	-2.104865e-09	-2.387944e+00	-1.393545e+02
7.700000e-07	-2.975338e-07	-1.980253e-09	-2.011338e+00	-1.314588e+02
7.800000e-07	-2.417201e-07	-1.854235e-09	-1.634036e+00	-1.234516e+02
7.900000e-07	-1.858296e-07	-1.734214e-09	-1.256214e+00	-1.153249e+02
8.000000e-07	-1.298227e-07	-1.612640e-09	-8.776053e-01	-1.070921e+02
8.100000e-07	-7.380528e-08	-1.483964e-09	-4.989260e-01	-9.878410e+01
8.200000e-07	-1.776529e-08	-1.352458e-09	-1.200939e-01	-9.043817e+01
8.300000e-07	3.833790e-08	-1.224694e-09	2.591654e-01	-8.208493e+01
8.400000e-07	9.440434e-08	-1.099950e-09	6.381763e-01	-7.373708e+01
8.500000e-07	1.503920e-07	-9.711721e-10	1.016655e+00	-6.538461e+01
8.600000e-07	2.062720e-07	-8.399358e-10	1.394405e+00	-5.699809e+01
8.700000e-07	2.620819e-07	-7.117492e-10	1.771682e+00	-4.853896e+01
8.800000e-07	3.178368e-07	-5.871814e-10	2.148587e+00	-3.997287e+01
8.900000e-07	3.734732e-07	-4.557425e-10	2.524691e+00	-3.128132e+01
9.000000e-07	4.289332e-07	-3.165742e-10	2.899602e+00	-2.246725e+01
9.100000e-07	4.842092e-07	-1.772670e-10	3.273270e+00	-1.355265e+01
9.200000e-07	5.393045e-07	-4.273199e-11	3.645716e+00	-4.569130e+00
9.300000e-07	5.942216e-07	9.111881e-11	4.016957e+00	4.454905e+00
9.400000e-07	6.489860e-07	2.286265e-10	4.387166e+00	1.350558e+01
9.500000e-07	7.035899e-07	3.673457e-10	4.756290e+00	2.258921e+01
9.600000e-07	7.579702e-07	5.067370e-10	5.123903e+00	3.173010e+01
9.700000e-07	8.120179e-07	6.472239e-10	5.489267e+00	4.096142e+01
9.800000e-07	8.657265e-07	7.918351e-10	5.852338e+00	5.031254e+01
9.900000e-07	9.191266e-07	9.380306e-10	6.213325e+00	5.979772e+01
1.000000e-06	9.722211e-07	1.082426e-09	6.572246e+00	6.941021e+01
1.010000e-06	1.024995e-06	1.225605e-09	6.929002e+00	7.912410e+01
1.020000e-06	1.077432e-06	1.373639e-09	7.283475e+00	8.890303e+01
1.030000e-06	1.129396e-06	1.526129e-09	7.634751e+00	9.871242e+01
1.040000e-06	1.180633e-06	1.676066e-09	7.981118e+00	1.085307e+02
1.050000e-06	1.231107e-06	1.823369e-09	8.322323e+00	1.183550e+02
1.060000e-06	1.280932e-06	1.972160e-09	8.659142e+00	1.281999e+02
1.070000e-06	1.330178e-06	2.123973e-09	8.992043e+00	1.380886e+02
1.080000e-06	1.378996e-06	2.275368e-09	9.322055e+00	1.480412e+02
1.090000e-06	1.427523e-06	2.427372e-09	9.650101e+00	1.580640e+02
1.100000e-06	1.475598e-06	2.580480e-09	9.975092e+00	1.681437e+02
1.110000e-06	1.523116e-06	2.734845e-09	1.029631e+01	1.782491e+02
1.120000e-06	1.570132e-06	2.889482e-09	1.061414e+01	1.883398e+02
1.130000e-06	1.616609e-06	3.043224e-09	1.092833e+01	1.983775e+02
1.140000e-06	1.662458e-06	3.195377e-09	1.123827e+01	2.083375e+02
1.150000e-06	1.707728e-06	3.345683e-09	1.154429e+01	2.182142e+02
1.160000e-06	1.752583e-06	3.495465e-09	1.184751e+01	2.280193e+02
1.170000e-06	1.797070e-06	3.644974e-09	1.214825e+01	2.377742e+02
1.180000e-06	1.841010e-06	3.794186e-09	1.244529e+01	2.474978e+02
1.190000e-06	1.884089e-06	3.941238e-09	1.273650e+01	2.571955e+02
1.200000e-06	1.926112e-06	4.087122e-09	1.302058e+01	2.668537e+02
1.210000e-06	1.967279e-06	4.232931e-09	1.329887e+01	2.764403e+02
1.220000e-06	2.007895e-06	4.376293e-09	1.357344e+01	2.859124e+02
1.230000e-06	2.047963e-06	4.515655e-09	1.384429e+01	2.952275e+02
1.240000e-06	2.087378e-06	4.652582e-09	1.411074e+01	3.043532e+02
1.250000e-06	2.126083e-06	4.787153e-09	1.437239e+01	3.132732e+02
1.260000e-06	2.163968e-06	4.919166e-09	1.462849e+01	3.219863e+02
1.270000e-06	2.201110e-06	5.048312e-09	1.487957e+01	3.304996e+02
1.280000e-06	2.237711e-06	5.174449e-09	1.512700e+01	3.388191e+02
1.290000e-06	2.273581e-06	5.297923e-09	1.536948e+01	3.469405e+02
1.300000e-06	2.308350e-06	5.417654e-09	1.560452e+01	3.548462e+02
1.310000e-06	2.342011e-06	5.531123e-09	1.583207e+01	3.625078e+02
1.320000e-06	2.374874e-06	5.639318e-09	1.605423e+01	3.698943e+02
1.330000e-06	2.407052e-06	5.745726e-09	1.627175e+01	3.769826e+02
1.340000e-06	2.438425e-06	5.850034e-09	1.648383e+01	3.837663e+02
1.350000e-06	2.468994e-06	5.950140e-09	1.669047e+01	3.902584e+02
1.360000e-06	2.498732e-06	6.043991e-09	1.689151e+01	3.964879e+02
1.370000e-06	2.527736e-06	6.131561e-09	1.708757e+01	4.024897e+02
1.380000e-06	2.556077e-06	6.216860e-09	1.727916e+01	4.082925e+02
1.390000e-06	2.583410e-06	6.301040e-09	1.746394e+01	4.139094e+02
1.400000e-06	2.609479e-06	6.381848e-09	1.764016e+01	4.193339e+02
1.410000e-06	2.634472e-06	6.458430e-09	1.780911e+01	4.245436e+02
1.420000e-06	2.658511e-06	6.532189e-09	1.797162e+01	4.295097e+02
1.430000e-06	2.681613e-06	6.603869e-09	1.812779e+01	4.342095e+02
1.440000e-06	2.703837e-06	6.671037e-09	1.827802e+01	4.386362e+02
1.450000e-06	2.725234e-06	6.732981e-09	1.842267e+01	4.428020e+02
1.460000e-06	2.745907e-06	6.790860e-09	1.856242e+01	4.467350e+02
1.470000e-06	2.765700e-06	6.846223e-09	1.869622e+01	4.504677e+02
1.480000e-06	2.784447e-06	6.898834e-09	1.882295e+01	4.540252e+02
1.490000e-06	2.802196e-06	6.946758e-09	1.894294e+01	4.574144e+02
1.500000e-06	2.818964e-06	6.992085e-09	1.905629e+01	4.606207e+02
1.510000e-06	2.834615e-06	7.037070e-09	1.916208e+01	4.636134e+02
1.520000e-06	2.849166e-06	7.079472e-09	1.926045e+01	4.663564e+02
1.530000e-06	2.862726e-06	7.115803e-09	1.935212e+01	4.688233e+02
1.540000e-06	2.875279e-06	7.144998e-09	1.943698e+01	4.710085e+02
1.550000e-06	2.886582e-06	7.171853e-09	1.951338e+01	4.729316e+02
1.560000e-06	2.896505e-06	7.198308e-09	1.958046e+01	4.746330e+02
1.570000e-06	2.905328e-06	7.223353e-09	1.964011e+01	4.761615e+02
1.580000e-06	2.913219e-06	7.245652e-09	1.969345e+01	4.775590e+02
1.590000e-06	2.920141e-06	7.263820e-09	1.974025e+01	4.788478e+02
1.600000e-06	2.926083e-06	7.279180e-09	1.978041e+01	4.800249e+02
1.610000e-06	2.931169e-06	7.292264e-09	1.981479e+01	4.810650e+02
1.620000e-06	2.935321e-06	7.302303e-09	1.984286e+01	4.819330e+02
1.630000e-06	2.938250e-06	7.310424e-09	1.986266e+01	4.825986e+02
1.640000e-06	2.939926e-06	7.319138e-09	1.987400e+01	4.830495e+02
1.650000e-06	2.940593e-06	7.326159e-09	1.987850e+01	4.832972e+02
1.660000e-06	2.940349e-06	7.329850e-09	1.987685e+01	4.833730e+02
1.670000e-06	2.939159e-06	7.330322e-09	1.986881e+01	4.833165e+02
1.680000e-06	2.937051e-06	7.326956e-09	1.985456e+01	4.831591e+02
1.690000e-06	2.934141e-06	7.319349e-09	1.983489e+01	4.829111e+02
1.700000e-06	2.930440e-06	7.309654e-09	1.980987e+01	4.825562e+02
1.710000e-06	2.925612e-06	7.300586e-09	1.977723e+01	4.820566e+02
1.720000e-06	2.919572e-06	7.291260e-09	1.973640e+01	4.813675e+02
1.730000e-06	2.912611e-06	7.267136e-09	1.968935e+01	4.804562e+02
1.740000e-06	2.904781e-06	7.238210e-09	1.963641e+01	4.793184e+02
1.750000e-06	2.895616e-06	7.220764e-09	1.957445e+01	4.779862e+02
1.760000e-06	2.884678e-06	7.225514e-09	1.950051e+01	4.765236e+02
1.770000e-06	2.872563e-06	7.201527e-09	1.941862e+01	4.750101e+02
1.780000e-06	2.860319e-06	7.180930e-09	1.933585e+01	4.735182e+02
1.790000e-06	2.847571e-06	7.175561e-09	1.924967e+01	4.720908e+02
1.800000e-06	2.833135e-06	7.132950e-09	1.915208e+01	4.707265e+02
1.810000e-06	2.817314e-06	7.083866e-09	1.904513e+01	4.693785e+02
1.820000e-06	2.800999e-06	7.106336e-09	1.893484e+01	4.679661e+02
1.830000e-06	2.783807e-06	7.137650e-09	1.881863e+01	4.663966e+02
1.840000e-06	2.765379e-06	7.062057e-09	1.869405e+01	4.645903e+02
1.850000e-06	2.746204e-06	7.019360e-09	1.856442e+01	4.624996e+02
1.860000e-06	2.726107e-06	7.048781e-09	1.842857e+01	4.601184e+02
1.870000e-06	2.704556e-06	6.981288e-09	1.828289e+01	4.574779e+02
1.880000e-06	2.681894e-06	6.892148e-09	1.812969e+01	4.546316e+02
1.890000e-06	2.658397e-06	6.886301e-09	1.797085e+01	4.516353e+02
1.900000e-06	2.633924e-06	6.857816e-09	1.780541e+01	4.485291e+02
1.910000e-06	2.608682e-06	6.823127e-09	1.763477e+01	4.453271e+02
1.920000e-06	2.582713e-06	6.776019e-09	1.745922e+01	4.420176e+02
1.930000e-06	2.555919e-06	6.686003e-09	1.727809e+01	4.385734e+02
1.940000e-06	2.528442e-06	6.626299e-09	1.709235e+01	4.349663e+02
1.950000e-06	2.499899e-06	6.600039e-09	1.689939e+01	4.311814e+02
1.960000e-06	2.469915e-06	6.519074e-09	1.669670e+01	4.272242e+02
1.970000e-06	2.438966e-06	6.445025e-09	1.648749e+01	4.231201e+02
1.980000e-06	2.407260e-06	6.413059e-09	1.627315e+01	4.189048e+02
1.990000e-06	2.374731e-06	6.355363e-09	1.605326e+01	4.146111e+02
2.000000e-06	2.341533e-06	6.286230e-09	1.582884e+01	4.102564e+02
2.010000e-06	2.307516e-06	6.200424e-09	1.559888e+01	4.058369e+02
2.020000e-06	2.272735e-06	6.116301e-09	1.536376e+01	4.013297e+02
2.030000e-06	2.237380e-06	6.060976e-09	1.512476e+01	3.967017e+02
2.040000e-06	2.201080e-06	6.001056e-09	1.487937e+01	3.919232e+02
2.050000e-06	2.163608e-06	5.925545e-09	1.462606e+01	3.869796e+02
2.060000e-06	2.125243e-06	5.838209e-09	1.436671e+01	3.818773e+02
2.070000e-06	2.086209e-06	5.752604e-09	1.410284e+01	3.766417e+02
2.080000e-06	2.046563e-06	5.684157e-09	1.383483e+01	3.713082e+02
2.090000e-06	2.006255e-06	5.597458e-09	1.356235e+01	3.659094e+02
2.100000e-06	1.965263e-06	5.500715e-09	1.328524e+01	3.604640e+02
2.110000e-06	1.923649e-06	5.423568e-09	1.300393e+01	3.549710e+02
2.120000e-06	1.881380e-06	5.346789e-09	1.271819e+01	3.494113e+02
2.130000e-06	1.838555e-06	5.266974e-09	1.242869e+01	3.437563e+02
2.140000e-06	1.795280e-06	5.168762e-09	1.213615e+01	3.379803e+02
2.150000e-06	1.751463e-06	5.067488e-09	1.183994e+01	3.320702e+02
2.160000e-06	1.706922e-06	4.987171e-09	1.153885e+01	3.260315e+02
2.170000e-06	1.661612e-06	4.894242e-09	1.123255e+01	3.198856e+02
2.180000e-06	1.615738e-06	4.793998e-09	1.092244e+01	3.136618e+02
2.190000e-06	1.569454e-06	4.697465e-09	1.060956e+01	3.073852e+02
2.200000e-06	1.522668e-06	4.600443e-09	1.029329e+01	3.010674e+02
2.210000e-06	1.475196e-06	4.514039e-09	9.972371e+00	2.947010e+02
2.220000e-06	1.427028e-06	4.421710e-09	9.646752e+00	2.882631e+02
2.230000e-06	1.378310e-06	4.310353e-09	9.317422e+00	2.817239e+02
2.240000e-06	1.329190e-06	4.205790e-09	8.985370e+00	2.750582e+02
2.250000e-06	1.279663e-06	4.109377e-09	8.650560e+00	2.682561e+02
2.260000e-06	1.229610e-06	4.007204e-09	8.312201e+00	2.613271e+02
2.270000e-06	1.179029e-06	3.893382e-09	7.970276e+00	2.542972e+02
2.280000e-06	1.128058e-06	3.782769e-09	7.625707e+00	2.472008e+02
2.290000e-06	1.076701e-06	3.686574e-09	7.278532e+00	2.400677e+02
2.300000e-06	1.024864e-06	3.583584e-09	6.928115e+00	2.329138e+02
2.310000e-06	9.724179e-07	3.468284e-09	6.573576e+00	2.257358e+02
2.320000e-06	9.192856e-07	3.349810e-09	6.214400e+00	2.185144e+02
2.330000e-06	8.656537e-07	3.239362e-09	5.851846e+00	2.112222e+02
2.340000e-06	8.116188e-07	3.131392e-09	5.486569e+00	2.038362e+02
2.350000e-06	7.571457e-07	3.015293e-09	5.118329e+00	1.963466e+02
2.360000e-06	7.023643e-07	2.898330e-09	4.748005e+00	1.887618e+02
2.370000e-06	6.474364e-07	2.786108e-09	4.376691e+00	1.811051e+02
2.380000e-06	5.924376e-07	2.674788e-09	4.004897e+00	1.734055e+02
2.390000e-06	5.373509e-07	2.557328e-09	3.632509e+00	1.656864e+02
2.400000e-06	4.821559e-07	2.432040e-09	3.259389e+00	1.579556e+02
2.410000e-06	4.268568e-07	2.307951e-09	2.885565e+00	1.502015e+02
2.420000e-06	3.714236e-07	2.191610e-09	2.510835e+00	1.423968e+02
2.430000e-06	3.158798e-07	2.076843e-09	2.135358e+00	1.345083e+02
2.440000e-06	2.602473e-07	1.956191e-09	1.759280e+00	1.265096e+02
2.450000e-06	2.045345e-07	1.831629e-09	1.382660e+00	1.183912e+02
2.460000e-06	1.487393e-07	1.708220e-09	1.005482e+00	1.101651e+02
2.470000e-06	9.289601e-08	1.583531e-09	6.279800e-01	1.018613e+02
2.480000e-06	3.706105e-08	1.454477e-09	2.505339e-01	9.351686e+01
2.490000e-06	-1.876517e-08	1.325227e-09	-1.268532e-01	8.516346e+01
2.500000e-06	-7.458308e-08	1.201184e-09	-5.041840e-01	7.681529e+01
2.510000e-06	-1.303741e-07	1.078484e-09	-8.813333e-01	6.846393e+01
2.520000e-06	-1.861011e-07	9.479398e-10	-1.258049e+00	6.008108e+01
2.530000e-06	-2.417963e-07	8.112981e-10	-1.634551e+00	5.162840e+01
2.540000e-06	-2.973740e-07	6.790589e-10	-2.010258e+00	4.307080e+01
2.550000e-06	-3.527922e-07	5.524746e-10	-2.384886e+00	3.438837e+01
2.560000e-06	-4.081256e-07	4.220094e-10	-2.758942e+00	2.558251e+01
2.570000e-06	-4.633501e-07	2.841724e-10	-3.132262e+00	1.667408e+01
2.580000e-06	-5.185012e-07	1.447978e-10	-3.505085e+00	7.694425e+00
2.590000e-06	-5.735783e-07	7.483173e-12	-3.877407e+00	-1.327402e+00
2.600000e-06	-6.285383e-07	-1.303757e-10	-4.248939e+00	-1.037622e+01
2.610000e-06	-6.833969e-07	-2.727723e-10	-4.619785e+00	-1.945687e+01
2.620000e-06	-7.381278e-07	-4.158033e-10	-4.989767e+00	-2.859261e+01
2.630000e-06	-7.926122e-07	-5.539596e-10	-5.358084e+00	-3.781637e+01
2.640000e-06	-8.466823e-07	-6.889147e-10	-5.723599e+00	-4.715824e+01
2.650000e-06	-9.002074e-07	-8.301549e-10	-6.085431e+00	-5.663381e+01
2.660000e-06	-9.531388e-07	-9.814096e-10	-6.443249e+00	-6.623788e+01
2.670000e-06	-1.005478e-06	-1.134378e-09	-6.797065e+00	-7.594568e+01
2.680000e-06	-1.057272e-06	-1.285246e-09	-7.147193e+00	-8.572120e+01
2.690000e-06	-1.108629e-06	-1.437025e-09	-7.494367e+00	-9.552934e+01
2.700000e-06	-1.159691e-06	-1.591028e-09	-7.839551e+00	-1.053473e+02
2.710000e-06	-1.210464e-06	-1.743699e-09	-8.182778e+00	-1.151709e+02
2.720000e-06	-1.260725e-06	-1.890437e-09	-8.522538e+00	-1.250136e+02
2.730000e-06	-1.310405e-06	-2.035018e-09	-8.858382e+00	-1.348983e+02
2.740000e-06	-1.359645e-06	-2.186011e-09	-9.191243e+00	-1.448460e+02
2.750000e-06	-1.408391e-06	-2.341698e-09	-9.520766e+00	-1.548640e+02
2.760000e-06	-1.456444e-06	-2.496381e-09	-9.845608e+00	-1.649405e+02
2.770000e-06	-1.503587e-06	-2.650449e-09	-1.016430e+01	-1.750454e+02
2.780000e-06	-1.549935e-06	-2.805846e-09	-1.047761e+01	-1.851385e+02
2.790000e-06	-1.595733e-06	-2.963212e-09	-1.078721e+01	-1.951810e+02
2.800000e-06	-1.641117e-06	-3.117790e-09	-1.109400e+01	-2.051470e+02
2.810000e-06	-1.686135e-06	-3.264535e-09	-1.139833e+01	-2.150294e+02
2.820000e-06	-1.730611e-06	-3.408088e-09	-1.169898e+01	-2.248390e+02
2.830000e-06	-1.774413e-06	-3.554076e-09	-1.199509e+01	-2.345968e+02
2.840000e-06	-1.817686e-06	-3.703878e-09	-1.228762e+01	-2.443222e+02
2.850000e-06	-1.860576e-06	-3.855130e-09	-1.257755e+01	-2.540219e+02
2.860000e-06	-1.902908e-06	-4.006156e-09	-1.286372e+01	-2.636838e+02
2.870000e-06	-1.944576e-06	-4.158233e-09	-1.314540e+01	-2.732769e+02
2.880000e-06	-1.985610e-06	-4.307845e-09	-1.342279e+01	-2.827587e+02
2.890000e-06	-2.025943e-06	-4.450083e-09	-1.369544e+01	-2.920863e+02
2.900000e-06	-2.065567e-06	-4.584172e-09	-1.396330e+01	-3.012262e+02
2.910000e-06	-2.104669e-06	-4.715737e-09	-1.422763e+01	-3.101611e+02
2.920000e-06	-2.143180e-06	-4.850249e-09	-1.448797e+01	-3.188888e+02
2.930000e-06	-2.180737e-06	-4.984994e-09	-1.474185e+01	-3.274161e+02
2.940000e-06	-2.217151e-06	-5.115430e-09	-1.498801e+01	-3.357494e+02
