# Temperatura_=_21.58
# Concentracion g/m^3_=_18700.0
# C_Vs_to_Am_M_A/Vsm_=_65563218390.804596
# pendiente_HvsI_1/m_=_3716.3
# ordenada_HvsI_A/m_=_1297.0
# frecuencia_Hz_=_301043.0669108684

Tiempo_(s)	Campo_(V.s)	Magnetizacion_(V.s)	Campo_(kA/m)	Magnetizacion_(A/m)
0.000000e+00	-2.927009e-06	-7.354154e-09	-1.977785e+01	-4.793151e+02
1.000000e-08	-2.926346e-06	-7.355051e-09	-1.977337e+01	-4.792632e+02
2.000000e-08	-2.924829e-06	-7.352628e-09	-1.976312e+01	-4.790816e+02
3.000000e-08	-2.922035e-06	-7.347236e-09	-1.974424e+01	-4.787854e+02
4.000000e-08	-2.918016e-06	-7.339791e-09	-1.971708e+01	-4.783761e+02
5.000000e-08	-2.913213e-06	-7.330659e-09	-1.968463e+01	-4.778392e+02
6.000000e-08	-2.907609e-06	-7.321061e-09	-1.964677e+01	-4.771496e+02
7.000000e-08	-2.901054e-06	-7.307034e-09	-1.960247e+01	-4.762812e+02
8.000000e-08	-2.893456e-06	-7.304156e-09	-1.955113e+01	-4.752202e+02
9.000000e-08	-2.884723e-06	-7.328167e-09	-1.949212e+01	-4.739754e+02
1.000000e-07	-2.874568e-06	-7.322669e-09	-1.942351e+01	-4.725824e+02
1.100000e-07	-2.862967e-06	-7.220093e-09	-1.934512e+01	-4.710988e+02
1.200000e-07	-2.850521e-06	-7.134675e-09	-1.926102e+01	-4.695906e+02
1.300000e-07	-2.837290e-06	-7.169818e-09	-1.917162e+01	-4.681136e+02
1.400000e-07	-2.822965e-06	-7.236143e-09	-1.907482e+01	-4.666953e+02
1.500000e-07	-2.807589e-06	-7.101097e-09	-1.897093e+01	-4.653234e+02
1.600000e-07	-2.791055e-06	-7.081863e-09	-1.885921e+01	-4.639447e+02
1.700000e-07	-2.773191e-06	-7.154581e-09	-1.873850e+01	-4.624764e+02
1.800000e-07	-2.754420e-06	-7.012313e-09	-1.861167e+01	-4.608257e+02
1.900000e-07	-2.734991e-06	-6.950800e-09	-1.848038e+01	-4.589135e+02
2.000000e-07	-2.714638e-06	-6.992096e-09	-1.834286e+01	-4.566932e+02
2.100000e-07	-2.693266e-06	-6.898718e-09	-1.819844e+01	-4.541610e+02
2.200000e-07	-2.671063e-06	-6.797814e-09	-1.804841e+01	-4.513522e+02
2.300000e-07	-2.647998e-06	-6.887048e-09	-1.789257e+01	-4.483281e+02
2.400000e-07	-2.623986e-06	-6.841226e-09	-1.773032e+01	-4.451552e+02
2.500000e-07	-2.599236e-06	-6.661698e-09	-1.756308e+01	-4.418855e+02
2.600000e-07	-2.573588e-06	-6.630251e-09	-1.738978e+01	-4.385434e+02
2.700000e-07	-2.546642e-06	-6.641442e-09	-1.720771e+01	-4.351231e+02
2.800000e-07	-2.518609e-06	-6.554090e-09	-1.701829e+01	-4.315968e+02
2.900000e-07	-2.489780e-06	-6.510728e-09	-1.682349e+01	-4.279293e+02
3.000000e-07	-2.460086e-06	-6.430750e-09	-1.662284e+01	-4.240943e+02
3.100000e-07	-2.429620e-06	-6.370684e-09	-1.641698e+01	-4.200854e+02
3.200000e-07	-2.398406e-06	-6.363660e-09	-1.620607e+01	-4.159183e+02
3.300000e-07	-2.366385e-06	-6.243675e-09	-1.598971e+01	-4.116248e+02
3.400000e-07	-2.333737e-06	-6.153672e-09	-1.576910e+01	-4.072402e+02
3.500000e-07	-2.300401e-06	-6.121140e-09	-1.554385e+01	-4.027897e+02
3.600000e-07	-2.265996e-06	-6.061462e-09	-1.531137e+01	-3.982791e+02
3.700000e-07	-2.230395e-06	-5.986554e-09	-1.507082e+01	-3.936940e+02
3.800000e-07	-2.193956e-06	-5.925112e-09	-1.482460e+01	-3.890054e+02
3.900000e-07	-2.156955e-06	-5.810634e-09	-1.457458e+01	-3.841821e+02
4.000000e-07	-2.119241e-06	-5.747989e-09	-1.431975e+01	-3.792027e+02
4.100000e-07	-2.080716e-06	-5.713639e-09	-1.405943e+01	-3.740640e+02
4.200000e-07	-2.041378e-06	-5.609140e-09	-1.379362e+01	-3.687817e+02
4.300000e-07	-2.001336e-06	-5.505940e-09	-1.352306e+01	-3.633847e+02
4.400000e-07	-1.960813e-06	-5.437118e-09	-1.324924e+01	-3.579036e+02
4.500000e-07	-1.919833e-06	-5.371764e-09	-1.297235e+01	-3.523600e+02
4.600000e-07	-1.878150e-06	-5.271335e-09	-1.269069e+01	-3.467590e+02
4.700000e-07	-1.835448e-06	-5.171611e-09	-1.240215e+01	-3.410885e+02
4.800000e-07	-1.791675e-06	-5.076523e-09	-1.210638e+01	-3.353258e+02
4.900000e-07	-1.747182e-06	-5.013560e-09	-1.180574e+01	-3.294471e+02
5.000000e-07	-1.702307e-06	-4.934747e-09	-1.150252e+01	-3.234378e+02
5.100000e-07	-1.656962e-06	-4.821561e-09	-1.119612e+01	-3.172986e+02
5.200000e-07	-1.610940e-06	-4.712746e-09	-1.088515e+01	-3.110454e+02
5.300000e-07	-1.564310e-06	-4.630760e-09	-1.057007e+01	-3.047031e+02
5.400000e-07	-1.517170e-06	-4.544023e-09	-1.025155e+01	-2.982965e+02
5.500000e-07	-1.469478e-06	-4.434592e-09	-9.929287e+00	-2.918408e+02
5.600000e-07	-1.421274e-06	-4.333002e-09	-9.603576e+00	-2.853369e+02
5.700000e-07	-1.372687e-06	-4.227722e-09	-9.275270e+00	-2.787716e+02
5.800000e-07	-1.323659e-06	-4.138085e-09	-8.943986e+00	-2.721242e+02
5.900000e-07	-1.274019e-06	-4.035436e-09	-8.608565e+00	-2.653749e+02
6.000000e-07	-1.223665e-06	-3.918428e-09	-8.268327e+00	-2.585130e+02
6.100000e-07	-1.172588e-06	-3.807964e-09	-7.923196e+00	-2.515415e+02
6.200000e-07	-1.120909e-06	-3.713794e-09	-7.574004e+00	-2.444757e+02
6.300000e-07	-1.068715e-06	-3.612784e-09	-7.221325e+00	-2.373380e+02
6.400000e-07	-1.016152e-06	-3.489993e-09	-6.866158e+00	-2.301496e+02
6.500000e-07	-9.632875e-07	-3.372243e-09	-6.508950e+00	-2.229237e+02
6.600000e-07	-9.100091e-07	-3.264972e-09	-6.148947e+00	-2.156624e+02
6.700000e-07	-8.563613e-07	-3.163315e-09	-5.786448e+00	-2.083574e+02
6.800000e-07	-8.024288e-07	-3.045904e-09	-5.422025e+00	-2.009956e+02
6.900000e-07	-7.482410e-07	-2.926864e-09	-5.055877e+00	-1.935658e+02
7.000000e-07	-6.938367e-07	-2.815266e-09	-4.688267e+00	-1.860635e+02
7.100000e-07	-6.392379e-07	-2.708250e-09	-4.319341e+00	-1.784929e+02
7.200000e-07	-5.844870e-07	-2.590187e-09	-3.949389e+00	-1.708647e+02
7.300000e-07	-5.296059e-07	-2.461959e-09	-3.578556e+00	-1.631904e+02
7.400000e-07	-4.745514e-07	-2.342381e-09	-3.206552e+00	-1.554769e+02
7.500000e-07	-4.192674e-07	-2.230559e-09	-2.832997e+00	-1.477225e+02
7.600000e-07	-3.637695e-07	-2.119317e-09	-2.457996e+00	-1.399169e+02
7.700000e-07	-3.080821e-07	-1.995407e-09	-2.081716e+00	-1.320448e+02
7.800000e-07	-2.522457e-07	-1.867527e-09	-1.704428e+00	-1.240923e+02
7.900000e-07	-1.963531e-07	-1.745151e-09	-1.326761e+00	-1.160527e+02
8.000000e-07	-1.403737e-07	-1.625624e-09	-9.485075e-01	-1.079299e+02
8.100000e-07	-8.426870e-08	-1.498345e-09	-5.694050e-01	-9.973794e+01
8.200000e-07	-2.813045e-08	-1.365991e-09	-1.900779e-01	-9.149602e+01
8.300000e-07	2.798343e-08	-1.240049e-09	1.890845e-01	-8.322197e+01
8.400000e-07	8.402116e-08	-1.118909e-09	5.677324e-01	-7.492576e+01
8.500000e-07	1.400136e-07	-9.949499e-10	9.460743e-01	-6.660577e+01
8.600000e-07	1.959687e-07	-8.612686e-10	1.324164e+00	-5.824914e+01
8.700000e-07	2.518168e-07	-7.298186e-10	1.701530e+00	-4.983599e+01
8.800000e-07	3.075978e-07	-6.056332e-10	2.078444e+00	-4.134572e+01
8.900000e-07	3.633278e-07	-4.797370e-10	2.455012e+00	-3.276315e+01
9.000000e-07	4.188985e-07	-3.447235e-10	2.830504e+00	-2.408217e+01
9.100000e-07	4.742328e-07	-2.076913e-10	3.204399e+00	-1.530586e+01
9.200000e-07	5.293675e-07	-7.552455e-11	3.576945e+00	-6.443303e+00
9.300000e-07	5.843052e-07	5.835888e-11	3.948160e+00	2.495343e+00
9.400000e-07	6.390376e-07	1.956665e-10	4.317988e+00	1.150353e+01
9.500000e-07	6.936045e-07	3.352421e-10	4.686697e+00	2.058083e+01
9.600000e-07	7.480123e-07	4.730394e-10	5.054332e+00	2.973259e+01
9.700000e-07	8.021980e-07	6.127716e-10	5.420465e+00	3.896697e+01
9.800000e-07	8.560324e-07	7.546151e-10	5.784225e+00	4.829097e+01
9.900000e-07	9.094982e-07	9.001874e-10	6.145495e+00	5.770702e+01
1.000000e-06	9.626536e-07	1.045931e-09	6.504667e+00	6.721159e+01
1.010000e-06	1.015444e-06	1.186751e-09	6.861370e+00	7.679624e+01
1.020000e-06	1.067869e-06	1.330050e-09	7.215608e+00	8.645051e+01
1.030000e-06	1.119897e-06	1.479646e-09	7.567163e+00	9.616518e+01
1.040000e-06	1.171415e-06	1.631898e-09	7.915268e+00	1.059344e+02
1.050000e-06	1.222297e-06	1.781465e-09	8.259083e+00	1.157561e+02
1.060000e-06	1.272449e-06	1.931835e-09	8.597960e+00	1.256295e+02
1.070000e-06	1.321923e-06	2.084202e-09	8.932255e+00	1.355526e+02
1.080000e-06	1.370859e-06	2.235248e-09	9.262919e+00	1.455187e+02
1.090000e-06	1.419427e-06	2.383957e-09	9.591094e+00	1.555154e+02
1.100000e-06	1.467603e-06	2.533085e-09	9.916618e+00	1.655255e+02
1.110000e-06	1.515234e-06	2.686481e-09	1.023846e+01	1.755298e+02
1.120000e-06	1.562327e-06	2.841785e-09	1.055667e+01	1.855115e+02
1.130000e-06	1.608853e-06	2.997548e-09	1.087105e+01	1.954591e+02
1.140000e-06	1.654804e-06	3.150499e-09	1.118154e+01	2.053681e+02
1.150000e-06	1.700222e-06	3.301142e-09	1.148843e+01	2.152396e+02
1.160000e-06	1.745166e-06	3.449284e-09	1.179212e+01	2.250771e+02
1.170000e-06	1.789734e-06	3.596734e-09	1.209326e+01	2.348816e+02
1.180000e-06	1.833768e-06	3.743932e-09	1.239080e+01	2.446483e+02
1.190000e-06	1.876982e-06	3.892560e-09	1.268280e+01	2.543642e+02
1.200000e-06	1.919224e-06	4.042885e-09	1.296823e+01	2.640092e+02
1.210000e-06	1.960514e-06	4.190190e-09	1.324722e+01	2.735584e+02
1.220000e-06	2.001137e-06	4.333067e-09	1.352172e+01	2.829865e+02
1.230000e-06	2.041219e-06	4.473103e-09	1.379255e+01	2.922709e+02
1.240000e-06	2.080629e-06	4.611403e-09	1.405885e+01	3.013944e+02
1.250000e-06	2.119366e-06	4.742613e-09	1.432059e+01	3.103441e+02
1.260000e-06	2.157399e-06	4.871047e-09	1.457758e+01	3.191103e+02
1.270000e-06	2.194678e-06	5.001047e-09	1.482948e+01	3.276831e+02
1.280000e-06	2.231355e-06	5.132285e-09	1.507731e+01	3.360502e+02
1.290000e-06	2.267473e-06	5.259521e-09	1.532136e+01	3.441958e+02
1.300000e-06	2.302619e-06	5.379640e-09	1.555884e+01	3.521022e+02
1.310000e-06	2.336528e-06	5.493935e-09	1.578796e+01	3.597524e+02
1.320000e-06	2.369507e-06	5.605019e-09	1.601080e+01	3.671335e+02
1.330000e-06	2.401788e-06	5.711519e-09	1.622892e+01	3.742401e+02
1.340000e-06	2.433299e-06	5.811424e-09	1.644184e+01	3.810751e+02
1.350000e-06	2.464040e-06	5.909228e-09	1.664956e+01	3.876488e+02
1.360000e-06	2.493944e-06	6.006001e-09	1.685162e+01	3.939760e+02
1.370000e-06	2.523069e-06	6.099202e-09	1.704842e+01	4.000716e+02
1.380000e-06	2.551620e-06	6.187351e-09	1.724134e+01	4.059464e+02
1.390000e-06	2.579308e-06	6.272201e-09	1.742843e+01	4.116046e+02
1.400000e-06	2.605710e-06	6.354737e-09	1.760683e+01	4.170433e+02
1.410000e-06	2.630919e-06	6.433491e-09	1.777716e+01	4.222543e+02
1.420000e-06	2.655160e-06	6.506464e-09	1.794096e+01	4.272276e+02
1.430000e-06	2.678510e-06	6.574489e-09	1.809874e+01	4.319555e+02
1.440000e-06	2.700995e-06	6.640455e-09	1.825067e+01	4.364356e+02
1.450000e-06	2.722599e-06	6.704367e-09	1.839665e+01	4.406720e+02
1.460000e-06	2.743417e-06	6.765519e-09	1.853731e+01	4.446745e+02
1.470000e-06	2.763411e-06	6.823327e-09	1.867242e+01	4.484554e+02
1.480000e-06	2.782375e-06	6.877805e-09	1.880056e+01	4.520254e+02
1.490000e-06	2.800299e-06	6.927142e-09	1.892167e+01	4.553898e+02
1.500000e-06	2.817264e-06	6.971417e-09	1.903630e+01	4.585472e+02
1.510000e-06	2.833164e-06	7.012664e-09	1.914374e+01	4.614895e+02
1.520000e-06	2.847989e-06	7.052064e-09	1.924391e+01	4.642057e+02
1.530000e-06	2.861765e-06	7.089509e-09	1.933699e+01	4.666863e+02
1.540000e-06	2.874499e-06	7.121878e-09	1.942304e+01	4.689283e+02
1.550000e-06	2.886032e-06	7.150431e-09	1.950097e+01	4.709381e+02
1.560000e-06	2.896179e-06	7.178488e-09	1.956953e+01	4.727322e+02
1.570000e-06	2.905225e-06	7.205265e-09	1.963066e+01	4.743331e+02
1.580000e-06	2.913344e-06	7.228155e-09	1.968552e+01	4.757648e+02
1.590000e-06	2.920450e-06	7.246628e-09	1.973353e+01	4.770458e+02
1.600000e-06	2.926522e-06	7.261179e-09	1.977456e+01	4.781845e+02
1.610000e-06	2.931706e-06	7.273333e-09	1.980959e+01	4.791777e+02
1.620000e-06	2.936064e-06	7.283517e-09	1.983904e+01	4.800133e+02
1.630000e-06	2.939256e-06	7.293100e-09	1.986061e+01	4.806761e+02
1.640000e-06	2.941089e-06	7.302641e-09	1.987299e+01	4.811546e+02
1.650000e-06	2.941905e-06	7.310907e-09	1.987850e+01	4.814475e+02
1.660000e-06	2.941830e-06	7.316016e-09	1.987800e+01	4.815657e+02
1.670000e-06	2.940835e-06	7.314489e-09	1.987127e+01	4.815292e+02
1.680000e-06	2.938920e-06	7.308127e-09	1.985834e+01	4.813607e+02
1.690000e-06	2.936141e-06	7.300077e-09	1.983955e+01	4.810766e+02
1.700000e-06	2.932633e-06	7.291358e-09	1.981585e+01	4.806800e+02
1.710000e-06	2.928123e-06	7.282270e-09	1.978538e+01	4.801580e+02
1.720000e-06	2.922322e-06	7.274582e-09	1.974618e+01	4.794863e+02
1.730000e-06	2.915525e-06	7.272696e-09	1.970025e+01	4.786382e+02
1.740000e-06	2.907930e-06	7.225610e-09	1.964893e+01	4.775980e+02
1.750000e-06	2.899141e-06	7.159708e-09	1.958955e+01	4.763718e+02
1.760000e-06	2.888626e-06	7.150537e-09	1.951850e+01	4.749924e+02
1.770000e-06	2.876640e-06	7.250420e-09	1.943750e+01	4.735155e+02
1.780000e-06	2.864422e-06	7.217968e-09	1.935495e+01	4.720071e+02
1.790000e-06	2.851924e-06	7.075944e-09	1.927050e+01	4.705250e+02
1.800000e-06	2.837805e-06	7.100136e-09	1.917510e+01	4.691004e+02
1.810000e-06	2.822071e-06	7.143514e-09	1.906878e+01	4.677256e+02
1.820000e-06	2.805796e-06	7.049556e-09	1.895881e+01	4.663514e+02
1.830000e-06	2.788793e-06	7.008446e-09	1.884392e+01	4.648972e+02
1.840000e-06	2.770463e-06	7.140973e-09	1.872007e+01	4.632705e+02
1.850000e-06	2.751325e-06	7.049248e-09	1.859075e+01	4.613894e+02
1.860000e-06	2.731486e-06	6.899585e-09	1.845670e+01	4.592033e+02
1.870000e-06	2.710234e-06	7.034680e-09	1.831309e+01	4.567035e+02
1.880000e-06	2.687697e-06	6.968775e-09	1.816081e+01	4.539219e+02
1.890000e-06	2.664342e-06	6.754903e-09	1.800301e+01	4.509177e+02
1.900000e-06	2.639984e-06	6.862152e-09	1.783842e+01	4.477581e+02
1.910000e-06	2.614838e-06	6.879682e-09	1.766850e+01	4.444972e+02
1.920000e-06	2.589054e-06	6.713386e-09	1.749428e+01	4.411628e+02
1.930000e-06	2.562367e-06	6.682044e-09	1.731396e+01	4.377521e+02
1.940000e-06	2.534971e-06	6.646560e-09	1.712884e+01	4.342390e+02
1.950000e-06	2.506649e-06	6.565732e-09	1.693747e+01	4.305883e+02
1.960000e-06	2.476864e-06	6.547342e-09	1.673621e+01	4.267722e+02
1.970000e-06	2.446028e-06	6.443548e-09	1.652785e+01	4.227816e+02
1.980000e-06	2.414483e-06	6.361270e-09	1.631470e+01	4.186303e+02
1.990000e-06	2.382074e-06	6.397000e-09	1.609571e+01	4.143488e+02
2.000000e-06	2.348905e-06	6.276223e-09	1.587159e+01	4.099727e+02
2.010000e-06	2.314953e-06	6.174535e-09	1.564218e+01	4.055286e+02
2.020000e-06	2.280229e-06	6.151444e-09	1.540754e+01	4.010251e+02
2.030000e-06	2.244959e-06	6.030663e-09	1.516922e+01	3.964493e+02
2.040000e-06	2.208885e-06	5.981886e-09	1.492547e+01	3.917735e+02
2.050000e-06	2.171638e-06	5.957947e-09	1.467379e+01	3.869661e+02
2.060000e-06	2.133388e-06	5.825072e-09	1.441534e+01	3.820041e+02
2.070000e-06	2.094425e-06	5.750560e-09	1.415207e+01	3.768822e+02
2.080000e-06	2.054891e-06	5.695688e-09	1.388493e+01	3.716142e+02
2.090000e-06	2.014688e-06	5.597249e-09	1.361328e+01	3.662281e+02
2.100000e-06	1.973767e-06	5.517448e-09	1.333678e+01	3.607550e+02
2.110000e-06	1.932245e-06	5.416965e-09	1.305621e+01	3.552177e+02
2.120000e-06	1.890044e-06	5.350192e-09	1.277106e+01	3.496232e+02
2.130000e-06	1.847267e-06	5.284231e-09	1.248202e+01	3.439614e+02
2.140000e-06	1.804034e-06	5.167440e-09	1.218989e+01	3.382099e+02
2.150000e-06	1.760241e-06	5.065594e-09	1.189398e+01	3.323447e+02
2.160000e-06	1.715834e-06	4.978837e-09	1.159392e+01	3.263498e+02
2.170000e-06	1.670674e-06	4.903070e-09	1.128877e+01	3.202242e+02
2.180000e-06	1.624857e-06	4.807766e-09	1.097918e+01	3.139822e+02
2.190000e-06	1.578641e-06	4.695602e-09	1.066690e+01	3.076484e+02
2.200000e-06	1.532001e-06	4.603281e-09	1.035176e+01	3.012479e+02
2.210000e-06	1.484758e-06	4.510322e-09	1.003253e+01	2.947973e+02
2.220000e-06	1.436720e-06	4.410587e-09	9.707944e+00	2.882991e+02
2.230000e-06	1.387974e-06	4.309912e-09	9.378567e+00	2.817415e+02
2.240000e-06	1.338813e-06	4.195849e-09	9.046379e+00	2.751041e+02
2.250000e-06	1.289291e-06	4.104068e-09	8.711758e+00	2.683666e+02
2.260000e-06	1.239235e-06	4.014153e-09	8.373533e+00	2.615171e+02
2.270000e-06	1.188658e-06	3.895482e-09	8.031780e+00	2.545569e+02
2.280000e-06	1.137708e-06	3.783776e-09	7.687509e+00	2.475004e+02
2.290000e-06	1.086417e-06	3.674865e-09	7.340941e+00	2.403694e+02
2.300000e-06	1.034654e-06	3.576578e-09	6.991174e+00	2.331858e+02
2.310000e-06	9.822924e-07	3.466691e-09	6.637367e+00	2.259638e+02
2.320000e-06	9.293381e-07	3.343267e-09	6.279553e+00	2.187066e+02
2.330000e-06	8.759316e-07	3.234269e-09	5.918685e+00	2.114071e+02
2.340000e-06	8.220922e-07	3.126821e-09	5.554891e+00	2.040522e+02
2.350000e-06	7.677136e-07	3.015407e-09	5.187454e+00	1.966302e+02
2.360000e-06	7.129941e-07	2.894493e-09	4.817713e+00	1.891358e+02
2.370000e-06	6.580939e-07	2.776314e-09	4.446751e+00	1.815722e+02
2.380000e-06	6.030571e-07	2.668921e-09	4.074867e+00	1.739497e+02
2.390000e-06	5.479376e-07	2.557002e-09	3.702424e+00	1.662801e+02
2.400000e-06	4.927437e-07	2.434987e-09	3.329477e+00	1.585709e+02
2.410000e-06	4.374705e-07	2.310895e-09	2.955995e+00	1.508214e+02
2.420000e-06	3.820783e-07	2.189470e-09	2.581710e+00	1.430221e+02
2.430000e-06	3.265522e-07	2.074514e-09	2.206519e+00	1.351580e+02
2.440000e-06	2.708779e-07	1.955761e-09	1.830326e+00	1.272148e+02
2.450000e-06	2.150684e-07	1.831531e-09	1.453221e+00	1.191847e+02
2.460000e-06	1.591804e-07	1.710202e-09	1.075585e+00	1.110705e+02
2.470000e-06	1.032540e-07	1.587753e-09	6.976891e-01	1.028852e+02
2.480000e-06	4.734422e-08	1.464508e-09	3.199057e-01	9.464789e+01
2.490000e-06	-8.574310e-09	1.334421e-09	-5.793676e-02	8.637678e+01
2.500000e-06	-6.448777e-08	1.205142e-09	-4.357449e-01	7.808298e+01
2.510000e-06	-1.203255e-07	1.083389e-09	-8.130415e-01	6.976613e+01
2.520000e-06	-1.760791e-07	9.603251e-10	-1.189769e+00	6.141447e+01
2.530000e-06	-2.317673e-07	8.290567e-10	-1.566055e+00	5.300856e+01
2.540000e-06	-2.873875e-07	6.922322e-10	-1.941882e+00	4.452759e+01
2.550000e-06	-3.428832e-07	5.629958e-10	-2.316867e+00	3.595554e+01
2.560000e-06	-3.982661e-07	4.362955e-10	-2.691091e+00	2.728526e+01
2.570000e-06	-4.535889e-07	3.020598e-10	-3.064908e+00	1.851895e+01
2.580000e-06	-5.087897e-07	1.629189e-10	-3.437900e+00	9.665293e+00
2.590000e-06	-5.638767e-07	2.607290e-11	-3.810124e+00	7.345543e-01
2.600000e-06	-6.189245e-07	-1.090783e-10	-4.182084e+00	-8.266152e+00
2.610000e-06	-6.738683e-07	-2.469225e-10	-4.553339e+00	-1.733572e+01
2.620000e-06	-7.286610e-07	-3.896708e-10	-4.923575e+00	-2.647896e+01
2.630000e-06	-7.831533e-07	-5.335056e-10	-5.291780e+00	-3.570394e+01
2.640000e-06	-8.371970e-07	-6.728087e-10	-5.656954e+00	-4.501796e+01
2.650000e-06	-8.907833e-07	-8.125923e-10	-6.019038e+00	-5.442405e+01
2.660000e-06	-9.438425e-07	-9.582995e-10	-6.377560e+00	-6.391930e+01
2.670000e-06	-9.962918e-07	-1.109434e-09	-6.731961e+00	-7.349571e+01
2.680000e-06	-1.048188e-06	-1.257541e-09	-7.082624e+00	-8.314285e+01
2.690000e-06	-1.099634e-06	-1.402785e-09	-7.430246e+00	-9.285122e+01
2.700000e-06	-1.150718e-06	-1.550801e-09	-7.775420e+00	-1.026146e+02
2.710000e-06	-1.201413e-06	-1.704401e-09	-8.117970e+00	-1.124305e+02
2.720000e-06	-1.251683e-06	-1.857895e-09	-8.457640e+00	-1.222983e+02
2.730000e-06	-1.301461e-06	-2.007524e-09	-8.793991e+00	-1.322161e+02
2.740000e-06	-1.350739e-06	-2.158788e-09	-9.126968e+00	-1.421779e+02
2.750000e-06	-1.399578e-06	-2.312017e-09	-9.456973e+00	-1.521720e+02
2.760000e-06	-1.447827e-06	-2.465175e-09	-9.782992e+00	-1.621814e+02
2.770000e-06	-1.495211e-06	-2.616891e-09	-1.010316e+01	-1.721870e+02
2.780000e-06	-1.541739e-06	-2.768591e-09	-1.041755e+01	-1.821716e+02
2.790000e-06	-1.587707e-06	-2.921996e-09	-1.072816e+01	-1.921230e+02
2.800000e-06	-1.633235e-06	-3.076132e-09	-1.103580e+01	-2.020360e+02
2.810000e-06	-1.678342e-06	-3.226544e-09	-1.134059e+01	-2.119113e+02
2.820000e-06	-1.722939e-06	-3.373798e-09	-1.164193e+01	-2.217521e+02
2.830000e-06	-1.766870e-06	-3.521314e-09	-1.193877e+01	-2.315601e+02
2.840000e-06	-1.810269e-06	-3.670707e-09	-1.223202e+01	-2.413311e+02
2.850000e-06	-1.853279e-06	-3.820813e-09	-1.252264e+01	-2.510532e+02
2.860000e-06	-1.895736e-06	-3.969645e-09	-1.280952e+01	-2.607068e+02
2.870000e-06	-1.937519e-06	-4.117854e-09	-1.309185e+01	-2.702673e+02
2.880000e-06	-1.978643e-06	-4.264613e-09	-1.336972e+01	-2.797093e+02
2.890000e-06	-2.019100e-06	-4.408100e-09	-1.364309e+01	-2.890099e+02
2.900000e-06	-2.058869e-06	-4.546510e-09	-1.391181e+01	-2.981511e+02
2.910000e-06	-2.098081e-06	-4.682023e-09	-1.417677e+01	-3.071198e+02
2.920000e-06	-2.136735e-06	-4.817795e-09	-1.443795e+01	-3.159060e+02
2.930000e-06	-2.174456e-06	-4.952266e-09	-1.469284e+01	-3.244999e+02
2.940000e-06	-2.211018e-06	-5.081175e-09	-1.493989e+01	-3.328895e+02
