# Temperatura_=_21.44
# Concentracion g/m^3_=_18700.0
# C_Vs_to_Am_M_A/Vsm_=_65563218390.804596
# pendiente_HvsI_1/m_=_3716.3
# ordenada_HvsI_A/m_=_1297.0
# frecuencia_Hz_=_301041.1971770477

Tiempo_(s)	Campo_(V.s)	Magnetizacion_(V.s)	Campo_(kA/m)	Magnetizacion_(A/m)
0.000000e+00	-2.930235e-06	-7.374730e-09	-1.977748e+01	-4.802208e+02
1.000000e-08	-2.929431e-06	-7.374453e-09	-1.977205e+01	-4.801477e+02
2.000000e-08	-2.927702e-06	-7.371221e-09	-1.976038e+01	-4.799217e+02
3.000000e-08	-2.924758e-06	-7.364716e-09	-1.974051e+01	-4.795599e+02
4.000000e-08	-2.920658e-06	-7.355812e-09	-1.971284e+01	-4.790664e+02
5.000000e-08	-2.915695e-06	-7.345806e-09	-1.967935e+01	-4.784310e+02
6.000000e-08	-2.909913e-06	-7.336124e-09	-1.964032e+01	-4.776356e+02
7.000000e-08	-2.903118e-06	-7.331934e-09	-1.959446e+01	-4.766653e+02
8.000000e-08	-2.895192e-06	-7.321141e-09	-1.954096e+01	-4.755218e+02
9.000000e-08	-2.886108e-06	-7.306170e-09	-1.947965e+01	-4.742317e+02
1.000000e-07	-2.875669e-06	-7.280349e-09	-1.940919e+01	-4.728462e+02
1.100000e-07	-2.863910e-06	-7.278085e-09	-1.932982e+01	-4.714316e+02
1.200000e-07	-2.851263e-06	-7.214913e-09	-1.924447e+01	-4.700507e+02
1.300000e-07	-2.837755e-06	-7.150912e-09	-1.915329e+01	-4.687428e+02
1.400000e-07	-2.823182e-06	-7.152270e-09	-1.905493e+01	-4.675071e+02
1.500000e-07	-2.807592e-06	-7.210403e-09	-1.894971e+01	-4.662973e+02
1.600000e-07	-2.790869e-06	-7.135348e-09	-1.883684e+01	-4.650287e+02
1.700000e-07	-2.772831e-06	-7.044767e-09	-1.871509e+01	-4.635974e+02
1.800000e-07	-2.753841e-06	-7.097013e-09	-1.858692e+01	-4.619061e+02
1.900000e-07	-2.734152e-06	-7.014352e-09	-1.845403e+01	-4.598889e+02
2.000000e-07	-2.713556e-06	-6.930375e-09	-1.831502e+01	-4.575270e+02
2.100000e-07	-2.692072e-06	-6.938651e-09	-1.817001e+01	-4.548516e+02
2.200000e-07	-2.669840e-06	-6.888015e-09	-1.801996e+01	-4.519314e+02
2.300000e-07	-2.646682e-06	-6.827251e-09	-1.786365e+01	-4.488510e+02
2.400000e-07	-2.622523e-06	-6.820793e-09	-1.770059e+01	-4.456851e+02
2.500000e-07	-2.597585e-06	-6.712358e-09	-1.753228e+01	-4.424778e+02
2.600000e-07	-2.571679e-06	-6.638155e-09	-1.735743e+01	-4.392334e+02
2.700000e-07	-2.544478e-06	-6.646051e-09	-1.717383e+01	-4.359197e+02
2.800000e-07	-2.516244e-06	-6.591363e-09	-1.698327e+01	-4.324842e+02
2.900000e-07	-2.487204e-06	-6.498087e-09	-1.678726e+01	-4.288746e+02
3.000000e-07	-2.457303e-06	-6.470606e-09	-1.658545e+01	-4.250587e+02
3.100000e-07	-2.426641e-06	-6.396043e-09	-1.637850e+01	-4.210358e+02
3.200000e-07	-2.395212e-06	-6.319359e-09	-1.616637e+01	-4.168357e+02
3.300000e-07	-2.363001e-06	-6.299654e-09	-1.594896e+01	-4.125078e+02
3.400000e-07	-2.330163e-06	-6.172703e-09	-1.572732e+01	-4.081021e+02
3.500000e-07	-2.296609e-06	-6.106456e-09	-1.550085e+01	-4.036522e+02
3.600000e-07	-2.261959e-06	-6.100180e-09	-1.526698e+01	-3.991631e+02
3.700000e-07	-2.226129e-06	-6.009079e-09	-1.502515e+01	-3.946106e+02
3.800000e-07	-2.189503e-06	-5.901163e-09	-1.477795e+01	-3.899508e+02
3.900000e-07	-2.152290e-06	-5.853655e-09	-1.452678e+01	-3.851369e+02
4.000000e-07	-2.114328e-06	-5.777168e-09	-1.427056e+01	-3.801364e+02
4.100000e-07	-2.075548e-06	-5.693783e-09	-1.400881e+01	-3.749436e+02
4.200000e-07	-2.036016e-06	-5.627147e-09	-1.374199e+01	-3.695817e+02
4.300000e-07	-1.995837e-06	-5.524743e-09	-1.347080e+01	-3.640953e+02
4.400000e-07	-1.955145e-06	-5.443736e-09	-1.319616e+01	-3.585344e+02
4.500000e-07	-1.913965e-06	-5.373307e-09	-1.291822e+01	-3.529377e+02
4.600000e-07	-1.872060e-06	-5.283454e-09	-1.263538e+01	-3.473197e+02
4.700000e-07	-1.829075e-06	-5.178449e-09	-1.234526e+01	-3.416663e+02
4.800000e-07	-1.785095e-06	-5.100891e-09	-1.204841e+01	-3.359413e+02
4.900000e-07	-1.740506e-06	-5.023666e-09	-1.174746e+01	-3.301004e+02
5.000000e-07	-1.695502e-06	-4.934235e-09	-1.144371e+01	-3.241077e+02
5.100000e-07	-1.649974e-06	-4.829347e-09	-1.113642e+01	-3.179488e+02
5.200000e-07	-1.603759e-06	-4.720204e-09	-1.082450e+01	-3.116364e+02
5.300000e-07	-1.556978e-06	-4.637158e-09	-1.050875e+01	-3.052054e+02
5.400000e-07	-1.509717e-06	-4.547894e-09	-1.018976e+01	-2.987001e+02
5.500000e-07	-1.461896e-06	-4.442162e-09	-9.866996e+00	-2.921587e+02
5.600000e-07	-1.413577e-06	-4.332635e-09	-9.540873e+00	-2.855998e+02
5.700000e-07	-1.364881e-06	-4.239342e-09	-9.212198e+00	-2.790164e+02
5.800000e-07	-1.315765e-06	-4.135221e-09	-8.880690e+00	-2.723798e+02
5.900000e-07	-1.265952e-06	-4.028587e-09	-8.544479e+00	-2.656508e+02
6.000000e-07	-1.215368e-06	-3.919652e-09	-8.203066e+00	-2.587954e+02
6.100000e-07	-1.164039e-06	-3.813614e-09	-7.856624e+00	-2.517977e+02
6.200000e-07	-1.112062e-06	-3.719155e-09	-7.505812e+00	-2.446665e+02
6.300000e-07	-1.059712e-06	-3.608958e-09	-7.152478e+00	-2.374324e+02
6.400000e-07	-1.007100e-06	-3.487155e-09	-6.797375e+00	-2.301373e+02
6.500000e-07	-9.541430e-07	-3.367496e-09	-6.439942e+00	-2.228196e+02
6.600000e-07	-9.007801e-07	-3.262925e-09	-6.079772e+00	-2.155016e+02
6.700000e-07	-8.470589e-07	-3.151913e-09	-5.717183e+00	-2.081825e+02
6.800000e-07	-7.930216e-07	-3.036147e-09	-5.352462e+00	-2.008403e+02
6.900000e-07	-7.387102e-07	-2.922219e-09	-4.985889e+00	-1.934419e+02
7.000000e-07	-6.841761e-07	-2.813469e-09	-4.617814e+00	-1.859561e+02
7.100000e-07	-6.294627e-07	-2.702736e-09	-4.248528e+00	-1.783661e+02
7.200000e-07	-5.746270e-07	-2.579115e-09	-3.878417e+00	-1.706750e+02
7.300000e-07	-5.196685e-07	-2.453577e-09	-3.507478e+00	-1.629043e+02
7.400000e-07	-4.644582e-07	-2.333684e-09	-3.134838e+00	-1.550837e+02
7.500000e-07	-4.090063e-07	-2.222857e-09	-2.760568e+00	-1.472389e+02
7.600000e-07	-3.534339e-07	-2.104448e-09	-2.385485e+00	-1.393805e+02
7.700000e-07	-2.976744e-07	-1.979897e-09	-2.009139e+00	-1.314991e+02
7.800000e-07	-2.417719e-07	-1.855463e-09	-1.631828e+00	-1.235690e+02
7.900000e-07	-1.857952e-07	-1.737360e-09	-1.254016e+00	-1.155586e+02
8.000000e-07	-1.297507e-07	-1.616580e-09	-8.757462e-01	-1.074439e+02
8.100000e-07	-7.366351e-08	-1.484553e-09	-4.971883e-01	-9.921874e+01
8.200000e-07	-1.752237e-08	-1.352632e-09	-1.182664e-01	-9.089948e+01
8.300000e-07	3.861322e-08	-1.228208e-09	2.606181e-01	-8.251951e+01
8.400000e-07	9.472805e-08	-1.106753e-09	6.393625e-01	-7.411729e+01
8.500000e-07	1.508044e-07	-9.740073e-10	1.017847e+00	-6.572132e+01
8.600000e-07	2.067920e-07	-8.379557e-10	1.395733e+00	-5.733810e+01
8.700000e-07	2.627074e-07	-7.087506e-10	1.773131e+00	-4.894770e+01
8.800000e-07	3.185839e-07	-5.870804e-10	2.150267e+00	-4.050905e+01
8.900000e-07	3.743348e-07	-4.612554e-10	2.526555e+00	-3.197319e+01
9.000000e-07	4.299105e-07	-3.266395e-10	2.901660e+00	-2.329982e+01
9.100000e-07	4.853168e-07	-1.905586e-10	3.275622e+00	-1.447113e+01
9.200000e-07	5.404789e-07	-5.537544e-11	3.647936e+00	-5.497714e+00
9.300000e-07	5.953922e-07	8.012754e-11	4.018571e+00	3.585692e+00
9.400000e-07	6.501217e-07	2.209356e-10	4.387965e+00	1.273312e+01
9.500000e-07	7.046629e-07	3.622193e-10	4.756088e+00	2.190425e+01
9.600000e-07	7.590583e-07	5.028876e-10	5.123228e+00	3.107911e+01
9.700000e-07	8.132450e-07	6.408926e-10	5.488958e+00	4.026500e+01
9.800000e-07	8.670830e-07	7.802794e-10	5.852335e+00	4.949337e+01
9.900000e-07	9.205353e-07	9.213549e-10	6.213109e+00	5.880766e+01
1.000000e-06	9.736409e-07	1.061002e-09	6.571543e+00	6.824676e+01
1.010000e-06	1.026452e-06	1.202804e-09	6.927987e+00	7.783023e+01
1.020000e-06	1.078887e-06	1.350207e-09	7.281897e+00	8.755075e+01
1.030000e-06	1.130892e-06	1.504823e-09	7.632900e+00	9.737638e+01
1.040000e-06	1.182414e-06	1.658733e-09	7.980650e+00	1.072617e+02
1.050000e-06	1.233188e-06	1.809695e-09	8.323344e+00	1.171635e+02
1.060000e-06	1.283111e-06	1.957567e-09	8.660293e+00	1.270549e+02
1.070000e-06	1.332395e-06	2.105588e-09	8.992933e+00	1.369327e+02
1.080000e-06	1.381255e-06	2.252059e-09	9.322714e+00	1.468153e+02
1.090000e-06	1.429808e-06	2.400062e-09	9.650417e+00	1.567323e+02
1.100000e-06	1.477992e-06	2.552805e-09	9.975636e+00	1.667094e+02
1.110000e-06	1.525628e-06	2.708649e-09	1.029715e+01	1.767550e+02
1.120000e-06	1.572680e-06	2.867050e-09	1.061473e+01	1.868534e+02
1.130000e-06	1.619183e-06	3.023616e-09	1.092860e+01	1.969671e+02
1.140000e-06	1.665132e-06	3.178190e-09	1.123873e+01	2.070474e+02
1.150000e-06	1.710519e-06	3.328029e-09	1.154506e+01	2.170488e+02
1.160000e-06	1.755398e-06	3.474626e-09	1.184798e+01	2.269422e+02
1.170000e-06	1.799887e-06	3.620121e-09	1.214825e+01	2.367218e+02
1.180000e-06	1.843893e-06	3.766839e-09	1.244527e+01	2.464027e+02
1.190000e-06	1.887037e-06	3.915478e-09	1.273646e+01	2.560112e+02
1.200000e-06	1.929144e-06	4.063754e-09	1.302067e+01	2.655703e+02
1.210000e-06	1.970382e-06	4.211194e-09	1.329900e+01	2.750870e+02
1.220000e-06	2.010972e-06	4.355077e-09	1.357296e+01	2.845456e+02
1.230000e-06	2.050982e-06	4.496376e-09	1.384300e+01	2.939092e+02
1.240000e-06	2.090335e-06	4.633865e-09	1.410861e+01	3.031288e+02
1.250000e-06	2.129008e-06	4.765554e-09	1.436964e+01	3.121560e+02
1.260000e-06	2.166923e-06	4.894711e-09	1.462555e+01	3.209550e+02
1.270000e-06	2.204101e-06	5.024497e-09	1.487648e+01	3.295090e+02
1.280000e-06	2.240706e-06	5.153712e-09	1.512354e+01	3.378191e+02
1.290000e-06	2.276654e-06	5.278834e-09	1.536617e+01	3.458972e+02
1.300000e-06	2.311592e-06	5.399083e-09	1.560198e+01	3.537552e+02
1.310000e-06	2.345372e-06	5.513842e-09	1.582997e+01	3.613959e+02
1.320000e-06	2.378228e-06	5.624189e-09	1.605174e+01	3.688089e+02
1.330000e-06	2.410377e-06	5.730284e-09	1.626872e+01	3.759735e+02
1.340000e-06	2.441788e-06	5.831683e-09	1.648073e+01	3.828656e+02
1.350000e-06	2.472404e-06	5.929054e-09	1.668737e+01	3.894685e+02
1.360000e-06	2.502179e-06	6.024005e-09	1.688834e+01	3.957798e+02
1.370000e-06	2.531226e-06	6.116698e-09	1.708439e+01	4.018139e+02
1.380000e-06	2.559624e-06	6.205875e-09	1.727606e+01	4.075972e+02
1.390000e-06	2.587063e-06	6.291346e-09	1.746126e+01	4.131595e+02
1.400000e-06	2.613264e-06	6.372840e-09	1.763810e+01	4.185235e+02
1.410000e-06	2.638275e-06	6.449735e-09	1.780691e+01	4.236973e+02
1.420000e-06	2.662329e-06	6.521421e-09	1.796926e+01	4.286725e+02
1.430000e-06	2.685563e-06	6.589853e-09	1.812608e+01	4.334291e+02
1.440000e-06	2.707882e-06	6.656125e-09	1.827672e+01	4.379441e+02
1.450000e-06	2.729319e-06	6.720970e-09	1.842141e+01	4.422016e+02
1.460000e-06	2.750008e-06	6.783293e-09	1.856105e+01	4.461989e+02
1.470000e-06	2.769857e-06	6.841766e-09	1.869501e+01	4.499479e+02
1.480000e-06	2.788689e-06	6.895662e-09	1.882213e+01	4.534695e+02
1.490000e-06	2.806521e-06	6.944267e-09	1.894248e+01	4.567848e+02
1.500000e-06	2.823338e-06	6.988767e-09	1.905598e+01	4.599063e+02
1.510000e-06	2.839027e-06	7.030733e-09	1.916188e+01	4.628326e+02
1.520000e-06	2.853655e-06	7.069530e-09	1.926061e+01	4.655492e+02
1.530000e-06	2.867299e-06	7.103770e-09	1.935270e+01	4.680354e+02
1.540000e-06	2.879888e-06	7.135482e-09	1.943767e+01	4.702740e+02
1.550000e-06	2.891146e-06	7.165410e-09	1.951365e+01	4.722606e+02
1.560000e-06	2.901062e-06	7.193262e-09	1.958058e+01	4.740082e+02
1.570000e-06	2.909924e-06	7.220474e-09	1.964040e+01	4.755458e+02
1.580000e-06	2.917835e-06	7.245307e-09	1.969379e+01	4.769099e+02
1.590000e-06	2.924781e-06	7.263647e-09	1.974067e+01	4.781337e+02
1.600000e-06	2.930750e-06	7.276393e-09	1.978096e+01	4.792371e+02
1.610000e-06	2.935833e-06	7.286282e-09	1.981526e+01	4.802213e+02
1.620000e-06	2.940018e-06	7.294664e-09	1.984351e+01	4.810705e+02
1.630000e-06	2.942949e-06	7.302010e-09	1.986330e+01	4.817596e+02
1.640000e-06	2.944578e-06	7.310751e-09	1.987429e+01	4.822648e+02
1.650000e-06	2.945202e-06	7.320815e-09	1.987850e+01	4.825735e+02
1.660000e-06	2.944932e-06	7.328962e-09	1.987667e+01	4.826890e+02
1.670000e-06	2.943732e-06	7.332210e-09	1.986858e+01	4.826278e+02
1.680000e-06	2.941598e-06	7.326916e-09	1.985417e+01	4.824121e+02
1.690000e-06	2.938654e-06	7.315472e-09	1.983430e+01	4.820598e+02
1.700000e-06	2.934915e-06	7.301856e-09	1.980907e+01	4.815760e+02
1.710000e-06	2.930079e-06	7.287116e-09	1.977643e+01	4.809514e+02
1.720000e-06	2.924034e-06	7.272895e-09	1.973563e+01	4.801681e+02
1.730000e-06	2.917063e-06	7.247188e-09	1.968857e+01	4.792107e+02
1.740000e-06	2.909249e-06	7.240116e-09	1.963583e+01	4.780791e+02
1.750000e-06	2.900135e-06	7.219008e-09	1.957432e+01	4.767981e+02
1.760000e-06	2.889256e-06	7.201262e-09	1.950090e+01	4.754175e+02
1.770000e-06	2.877114e-06	7.169058e-09	1.941894e+01	4.740028e+02
1.780000e-06	2.864718e-06	7.179042e-09	1.933528e+01	4.726179e+02
1.790000e-06	2.851870e-06	7.194867e-09	1.924856e+01	4.713044e+02
1.800000e-06	2.837487e-06	7.075589e-09	1.915148e+01	4.700646e+02
1.810000e-06	2.821685e-06	7.076231e-09	1.904483e+01	4.688556e+02
1.820000e-06	2.805272e-06	7.154185e-09	1.893405e+01	4.675946e+02
1.830000e-06	2.788021e-06	7.119869e-09	1.881762e+01	4.661785e+02
1.840000e-06	2.769605e-06	7.034242e-09	1.869332e+01	4.645086e+02
1.850000e-06	2.750407e-06	7.042415e-09	1.856374e+01	4.625159e+02
1.860000e-06	2.730314e-06	7.044188e-09	1.842813e+01	4.601784e+02
1.870000e-06	2.708814e-06	6.939785e-09	1.828301e+01	4.575235e+02
1.880000e-06	2.686104e-06	6.926575e-09	1.812973e+01	4.546182e+02
1.890000e-06	2.662521e-06	6.903648e-09	1.797056e+01	4.515466e+02
1.900000e-06	2.638003e-06	6.819639e-09	1.780507e+01	4.483849e+02
1.910000e-06	2.612707e-06	6.848226e-09	1.763434e+01	4.451801e+02
1.920000e-06	2.586697e-06	6.769681e-09	1.745879e+01	4.419391e+02
1.930000e-06	2.559860e-06	6.650394e-09	1.727765e+01	4.386322e+02
1.940000e-06	2.532302e-06	6.680947e-09	1.709165e+01	4.352073e+02
1.950000e-06	2.503751e-06	6.600991e-09	1.689895e+01	4.316116e+02
1.960000e-06	2.473802e-06	6.500548e-09	1.669681e+01	4.278110e+02
1.970000e-06	2.442767e-06	6.507020e-09	1.648734e+01	4.238023e+02
1.980000e-06	2.411024e-06	6.413944e-09	1.627309e+01	4.196135e+02
1.990000e-06	2.378519e-06	6.324404e-09	1.605370e+01	4.152930e+02
2.000000e-06	2.345218e-06	6.338026e-09	1.582893e+01	4.108916e+02
2.010000e-06	2.311102e-06	6.210189e-09	1.559868e+01	4.064445e+02
2.020000e-06	2.276289e-06	6.101832e-09	1.536370e+01	4.019588e+02
2.030000e-06	2.240915e-06	6.105169e-09	1.512495e+01	3.974122e+02
2.040000e-06	2.204625e-06	6.007652e-09	1.488001e+01	3.927618e+02
2.050000e-06	2.167101e-06	5.924784e-09	1.462674e+01	3.879603e+02
2.060000e-06	2.128647e-06	5.874170e-09	1.436720e+01	3.829738e+02
2.070000e-06	2.089558e-06	5.771524e-09	1.410337e+01	3.777944e+02
2.080000e-06	2.049878e-06	5.699923e-09	1.383555e+01	3.724435e+02
2.090000e-06	2.009530e-06	5.622451e-09	1.356323e+01	3.669643e+02
2.100000e-06	1.968478e-06	5.516594e-09	1.328615e+01	3.614073e+02
2.110000e-06	1.926824e-06	5.442199e-09	1.300501e+01	3.558126e+02
2.120000e-06	1.884528e-06	5.362219e-09	1.271953e+01	3.501963e+02
2.130000e-06	1.841688e-06	5.276861e-09	1.243039e+01	3.445465e+02
2.140000e-06	1.798361e-06	5.186095e-09	1.213795e+01	3.388282e+02
2.150000e-06	1.754429e-06	5.083905e-09	1.184143e+01	3.329971e+02
2.160000e-06	1.709799e-06	5.001871e-09	1.154021e+01	3.270161e+02
2.170000e-06	1.664429e-06	4.913338e-09	1.123398e+01	3.208691e+02
2.180000e-06	1.618492e-06	4.819741e-09	1.092393e+01	3.145668e+02
2.190000e-06	1.572098e-06	4.707856e-09	1.061080e+01	3.081429e+02
2.200000e-06	1.525256e-06	4.605783e-09	1.029464e+01	3.016416e+02
2.210000e-06	1.477827e-06	4.522264e-09	9.974521e+00	2.951020e+02
2.220000e-06	1.429614e-06	4.415581e-09	9.649110e+00	2.885444e+02
2.230000e-06	1.380771e-06	4.312274e-09	9.319446e+00	2.819636e+02
2.240000e-06	1.331507e-06	4.217318e-09	8.986944e+00	2.753322e+02
2.250000e-06	1.281821e-06	4.114291e-09	8.651588e+00	2.686112e+02
2.260000e-06	1.231613e-06	4.012122e-09	8.312715e+00	2.617657e+02
2.270000e-06	1.180930e-06	3.899485e-09	7.970632e+00	2.547784e+02
2.280000e-06	1.129887e-06	3.781566e-09	7.626117e+00	2.476560e+02
2.290000e-06	1.078453e-06	3.682016e-09	7.278965e+00	2.404280e+02
2.300000e-06	1.026540e-06	3.577155e-09	6.928581e+00	2.331359e+02
2.310000e-06	9.739669e-07	3.465357e-09	6.573743e+00	2.258190e+02
2.320000e-06	9.207288e-07	3.349192e-09	6.214415e+00	2.185009e+02
2.330000e-06	8.669554e-07	3.234588e-09	5.851474e+00	2.111824e+02
2.340000e-06	8.127935e-07	3.126364e-09	5.485910e+00	2.038430e+02
2.350000e-06	7.582912e-07	3.008750e-09	5.118050e+00	1.964499e+02
2.360000e-06	7.035134e-07	2.892206e-09	4.748330e+00	1.889712e+02
2.370000e-06	6.486037e-07	2.778339e-09	4.377720e+00	1.813889e+02
2.380000e-06	5.935705e-07	2.668542e-09	4.006276e+00	1.737047e+02
2.390000e-06	5.384173e-07	2.555633e-09	3.634022e+00	1.659388e+02
2.400000e-06	4.831454e-07	2.431634e-09	3.260967e+00	1.581209e+02
2.410000e-06	4.277862e-07	2.307111e-09	2.887322e+00	1.502774e+02
2.420000e-06	3.723250e-07	2.186525e-09	2.512990e+00	1.424201e+02
2.430000e-06	3.167288e-07	2.068808e-09	2.137746e+00	1.345411e+02
2.440000e-06	2.610168e-07	1.948813e-09	1.761720e+00	1.266157e+02
2.450000e-06	2.051938e-07	1.826373e-09	1.384946e+00	1.186122e+02
2.460000e-06	1.492730e-07	1.705913e-09	1.007511e+00	1.105054e+02
2.470000e-06	9.328077e-08	1.585025e-09	6.295941e-01	1.022880e+02
2.480000e-06	3.727440e-08	1.456640e-09	2.515818e-01	9.397459e+01
2.490000e-06	-1.867922e-08	1.326397e-09	-1.260745e-01	8.559776e+01
2.500000e-06	-7.459907e-08	1.201161e-09	-5.035029e-01	7.719610e+01
2.510000e-06	-1.305372e-07	1.078792e-09	-8.810548e-01	6.879927e+01
2.520000e-06	-1.864025e-07	9.514685e-10	-1.258115e+00	6.041560e+01
2.530000e-06	-2.421528e-07	8.165954e-10	-1.634399e+00	5.202699e+01
2.540000e-06	-2.978602e-07	6.850043e-10	-2.010393e+00	4.359352e+01
2.550000e-06	-3.534673e-07	5.587753e-10	-2.385710e+00	3.506625e+01
2.560000e-06	-4.089118e-07	4.303062e-10	-2.759930e+00	2.640373e+01
2.570000e-06	-4.642367e-07	2.938558e-10	-3.133343e+00	1.758623e+01
2.580000e-06	-5.194689e-07	1.546783e-10	-3.506130e+00	8.622333e+00
2.590000e-06	-5.745669e-07	1.783391e-11	-3.878012e+00	-4.545928e-01
2.600000e-06	-6.295580e-07	-1.185861e-10	-4.249172e+00	-9.598834e+00
2.610000e-06	-6.844357e-07	-2.594310e-10	-4.619566e+00	-1.876913e+01
2.620000e-06	-7.391573e-07	-4.044773e-10	-4.988907e+00	-2.794370e+01
2.630000e-06	-7.937195e-07	-5.464902e-10	-5.357172e+00	-3.712789e+01
2.640000e-06	-8.479081e-07	-6.839800e-10	-5.722915e+00	-4.635172e+01
2.650000e-06	-9.015578e-07	-8.231179e-10	-6.085021e+00	-5.565833e+01
2.660000e-06	-9.546652e-07	-9.704958e-10	-6.443467e+00	-6.508746e+01
2.670000e-06	-1.007162e-06	-1.119907e-09	-6.797793e+00	-7.466042e+01
2.680000e-06	-1.059077e-06	-1.266751e-09	-7.148191e+00	-8.437186e+01
2.690000e-06	-1.110553e-06	-1.415201e-09	-7.495624e+00	-9.419130e+01
2.700000e-06	-1.161677e-06	-1.569171e-09	-7.840681e+00	-1.040738e+02
2.710000e-06	-1.212426e-06	-1.725283e-09	-8.183211e+00	-1.139755e+02
2.720000e-06	-1.262738e-06	-1.877374e-09	-8.522790e+00	-1.238679e+02
2.730000e-06	-1.312552e-06	-2.026150e-09	-8.859007e+00	-1.337461e+02
2.740000e-06	-1.361842e-06	-2.175649e-09	-9.191690e+00	-1.436274e+02
2.750000e-06	-1.410593e-06	-2.327030e-09	-9.520728e+00	-1.535408e+02
2.760000e-06	-1.458658e-06	-2.478363e-09	-9.845144e+00	-1.635130e+02
2.770000e-06	-1.505920e-06	-2.630717e-09	-1.016414e+01	-1.735538e+02
2.780000e-06	-1.552380e-06	-2.784610e-09	-1.047771e+01	-1.836493e+02
2.790000e-06	-1.598244e-06	-2.942166e-09	-1.078727e+01	-1.937634e+02
2.800000e-06	-1.643697e-06	-3.101018e-09	-1.109405e+01	-2.038476e+02
2.810000e-06	-1.688751e-06	-3.254467e-09	-1.139814e+01	-2.138557e+02
2.820000e-06	-1.733288e-06	-3.402189e-09	-1.169874e+01	-2.237572e+02
2.830000e-06	-1.777159e-06	-3.548575e-09	-1.199485e+01	-2.335445e+02
2.840000e-06	-1.820474e-06	-3.697219e-09	-1.228720e+01	-2.432316e+02
2.850000e-06	-1.863349e-06	-3.845681e-09	-1.257658e+01	-2.528443e+02
2.860000e-06	-1.905749e-06	-3.993518e-09	-1.286276e+01	-2.624063e+02
2.870000e-06	-1.947491e-06	-4.142800e-09	-1.314450e+01	-2.719261e+02
2.880000e-06	-1.988541e-06	-4.292257e-09	-1.342156e+01	-2.813898e+02
2.890000e-06	-2.028974e-06	-4.438466e-09	-1.369446e+01	-2.907617e+02
2.900000e-06	-2.068725e-06	-4.578011e-09	-1.396276e+01	-2.999931e+02
2.910000e-06	-2.107874e-06	-4.712487e-09	-1.422699e+01	-3.090354e+02
2.920000e-06	-2.146412e-06	-4.846393e-09	-1.448710e+01	-3.178513e+02
2.930000e-06	-2.184003e-06	-4.981082e-09	-1.474082e+01	-3.264228e+02
2.940000e-06	-2.220510e-06	-5.112364e-09	-1.498723e+01	-3.347499e+02
