# Temperatura_=_88.62
# Concentracion g/m^3_=_18700.0
# C_Vs_to_Am_M_A/Vsm_=_65563218390.804596
# pendiente_HvsI_1/m_=_3716.3
# ordenada_HvsI_A/m_=_1297.0
# frecuencia_Hz_=_300833.75472045154

Tiempo_(s)	Campo_(V.s)	Magnetizacion_(V.s)	Campo_(kA/m)	Magnetizacion_(A/m)
0.000000e+00	-5.493602e-06	-2.650648e-08	-3.829770e+01	-1.737061e+03
1.000000e-08	-5.492285e-06	-2.651135e-08	-3.828851e+01	-1.736841e+03
2.000000e-08	-5.488975e-06	-2.651126e-08	-3.826544e+01	-1.736461e+03
3.000000e-08	-5.483853e-06	-2.650655e-08	-3.822974e+01	-1.735957e+03
4.000000e-08	-5.477107e-06	-2.649904e-08	-3.818270e+01	-1.735369e+03
5.000000e-08	-5.468744e-06	-2.648755e-08	-3.812440e+01	-1.734731e+03
6.000000e-08	-5.458390e-06	-2.647373e-08	-3.805222e+01	-1.734054e+03
7.000000e-08	-5.445966e-06	-2.645153e-08	-3.796561e+01	-1.733314e+03
8.000000e-08	-5.431615e-06	-2.642938e-08	-3.786556e+01	-1.732464e+03
9.000000e-08	-5.414946e-06	-2.649890e-08	-3.774936e+01	-1.731447e+03
1.000000e-07	-5.395921e-06	-2.652833e-08	-3.761673e+01	-1.730220e+03
1.100000e-07	-5.374884e-06	-2.643709e-08	-3.747008e+01	-1.728775e+03
1.200000e-07	-5.351956e-06	-2.639180e-08	-3.731024e+01	-1.727142e+03
1.300000e-07	-5.327523e-06	-2.628004e-08	-3.713991e+01	-1.725387e+03
1.400000e-07	-5.301713e-06	-2.620544e-08	-3.695997e+01	-1.723581e+03
1.500000e-07	-5.274099e-06	-2.638424e-08	-3.676747e+01	-1.721781e+03
1.600000e-07	-5.244658e-06	-2.622599e-08	-3.656223e+01	-1.720003e+03
1.700000e-07	-5.213678e-06	-2.613151e-08	-3.634625e+01	-1.718210e+03
1.800000e-07	-5.180839e-06	-2.633346e-08	-3.611732e+01	-1.716327e+03
1.900000e-07	-5.145856e-06	-2.612969e-08	-3.587345e+01	-1.714258e+03
2.000000e-07	-5.109335e-06	-2.607204e-08	-3.561884e+01	-1.711921e+03
2.100000e-07	-5.071194e-06	-2.611444e-08	-3.535295e+01	-1.709273e+03
2.200000e-07	-5.031192e-06	-2.591431e-08	-3.507409e+01	-1.706320e+03
2.300000e-07	-4.989343e-06	-2.595518e-08	-3.478234e+01	-1.703118e+03
2.400000e-07	-4.945482e-06	-2.597914e-08	-3.447658e+01	-1.699745e+03
2.500000e-07	-4.899861e-06	-2.586694e-08	-3.415854e+01	-1.696277e+03
2.600000e-07	-4.852482e-06	-2.586448e-08	-3.382824e+01	-1.692764e+03
2.700000e-07	-4.803036e-06	-2.574139e-08	-3.348354e+01	-1.689215e+03
2.800000e-07	-4.751473e-06	-2.569166e-08	-3.312407e+01	-1.685599e+03
2.900000e-07	-4.698014e-06	-2.566368e-08	-3.275140e+01	-1.681866e+03
3.000000e-07	-4.642854e-06	-2.556670e-08	-3.236685e+01	-1.677964e+03
3.100000e-07	-4.586092e-06	-2.551141e-08	-3.197114e+01	-1.673862e+03
3.200000e-07	-4.527516e-06	-2.546761e-08	-3.156280e+01	-1.669557e+03
3.300000e-07	-4.467233e-06	-2.544129e-08	-3.114254e+01	-1.665068e+03
3.400000e-07	-4.405471e-06	-2.531251e-08	-3.071198e+01	-1.660428e+03
3.500000e-07	-4.342214e-06	-2.523347e-08	-3.027099e+01	-1.655664e+03
3.600000e-07	-4.277553e-06	-2.517834e-08	-2.982022e+01	-1.650786e+03
3.700000e-07	-4.211207e-06	-2.507781e-08	-2.935770e+01	-1.645781e+03
3.800000e-07	-4.143116e-06	-2.504005e-08	-2.888301e+01	-1.640626e+03
3.900000e-07	-4.073567e-06	-2.494297e-08	-2.839817e+01	-1.635292e+03
4.000000e-07	-4.002663e-06	-2.484283e-08	-2.790387e+01	-1.629762e+03
4.100000e-07	-3.930493e-06	-2.477509e-08	-2.740075e+01	-1.624036e+03
4.200000e-07	-3.856884e-06	-2.467842e-08	-2.688760e+01	-1.618128e+03
4.300000e-07	-3.781572e-06	-2.458499e-08	-2.636257e+01	-1.612057e+03
4.400000e-07	-3.704604e-06	-2.447960e-08	-2.582601e+01	-1.605834e+03
4.500000e-07	-3.626202e-06	-2.440216e-08	-2.527944e+01	-1.599455e+03
4.600000e-07	-3.546362e-06	-2.431024e-08	-2.472285e+01	-1.592900e+03
4.700000e-07	-3.465072e-06	-2.419654e-08	-2.415615e+01	-1.586139e+03
4.800000e-07	-3.382585e-06	-2.407858e-08	-2.358111e+01	-1.579146e+03
4.900000e-07	-3.298982e-06	-2.395555e-08	-2.299828e+01	-1.571907e+03
5.000000e-07	-3.214435e-06	-2.386208e-08	-2.240888e+01	-1.564431e+03
5.100000e-07	-3.128941e-06	-2.374557e-08	-2.181287e+01	-1.556742e+03
5.200000e-07	-3.042395e-06	-2.362005e-08	-2.120953e+01	-1.548870e+03
5.300000e-07	-2.954910e-06	-2.349288e-08	-2.059965e+01	-1.540837e+03
5.400000e-07	-2.866572e-06	-2.336815e-08	-1.998381e+01	-1.532646e+03
5.500000e-07	-2.777266e-06	-2.324727e-08	-1.936123e+01	-1.524278e+03
5.600000e-07	-2.686651e-06	-2.311103e-08	-1.872952e+01	-1.515695e+03
5.700000e-07	-2.594830e-06	-2.297692e-08	-1.808941e+01	-1.506860e+03
5.800000e-07	-2.502189e-06	-2.283695e-08	-1.744358e+01	-1.497745e+03
5.900000e-07	-2.408791e-06	-2.269852e-08	-1.679247e+01	-1.488340e+03
6.000000e-07	-2.314582e-06	-2.254592e-08	-1.613571e+01	-1.478658e+03
6.100000e-07	-2.219547e-06	-2.238449e-08	-1.547319e+01	-1.468720e+03
6.200000e-07	-2.123720e-06	-2.222888e-08	-1.480514e+01	-1.458545e+03
6.300000e-07	-2.027228e-06	-2.207357e-08	-1.413247e+01	-1.448134e+03
6.400000e-07	-1.930017e-06	-2.191512e-08	-1.345478e+01	-1.437468e+03
6.500000e-07	-1.831863e-06	-2.174142e-08	-1.277052e+01	-1.426513e+03
6.600000e-07	-1.732767e-06	-2.156328e-08	-1.207969e+01	-1.415226e+03
6.700000e-07	-1.632976e-06	-2.138695e-08	-1.138401e+01	-1.403578e+03
6.800000e-07	-1.532697e-06	-2.120933e-08	-1.068493e+01	-1.391559e+03
6.900000e-07	-1.432007e-06	-2.101814e-08	-9.982990e+00	-1.379179e+03
7.000000e-07	-1.330863e-06	-2.081972e-08	-9.277884e+00	-1.366464e+03
7.100000e-07	-1.229287e-06	-2.062275e-08	-8.569763e+00	-1.353435e+03
7.200000e-07	-1.127270e-06	-2.042366e-08	-7.858565e+00	-1.340097e+03
7.300000e-07	-1.024819e-06	-2.021462e-08	-7.144347e+00	-1.326429e+03
7.400000e-07	-9.220615e-07	-1.999356e-08	-6.427992e+00	-1.312387e+03
7.500000e-07	-8.189801e-07	-1.977152e-08	-5.709378e+00	-1.297913e+03
7.600000e-07	-7.155730e-07	-1.954702e-08	-4.988494e+00	-1.282958e+03
7.700000e-07	-6.118805e-07	-1.931559e-08	-4.265619e+00	-1.267489e+03
7.800000e-07	-5.079539e-07	-1.907058e-08	-3.541113e+00	-1.251496e+03
7.900000e-07	-4.039217e-07	-1.881661e-08	-2.815870e+00	-1.234984e+03
8.000000e-07	-2.997626e-07	-1.855864e-08	-2.089743e+00	-1.217955e+03
8.100000e-07	-1.955011e-07	-1.829369e-08	-1.362902e+00	-1.200391e+03
8.200000e-07	-9.121850e-08	-1.801435e-08	-6.359140e-01	-1.182240e+03
8.300000e-07	1.311749e-08	-1.772141e-08	9.144628e-02	-1.163415e+03
8.400000e-07	1.174598e-07	-1.742170e-08	8.188507e-01	-1.143801e+03
8.500000e-07	2.217369e-07	-1.711050e-08	1.545801e+00	-1.123278e+03
8.600000e-07	3.259526e-07	-1.678376e-08	2.272322e+00	-1.101728e+03
8.700000e-07	4.300678e-07	-1.643531e-08	2.998143e+00	-1.079047e+03
8.800000e-07	5.340301e-07	-1.606788e-08	3.722898e+00	-1.055132e+03
8.900000e-07	6.378121e-07	-1.568339e-08	4.446397e+00	-1.029868e+03
9.000000e-07	7.413752e-07	-1.527718e-08	5.168369e+00	-1.003103e+03
9.100000e-07	8.446477e-07	-1.483992e-08	5.888315e+00	-9.746279e+02
9.200000e-07	9.476140e-07	-1.436953e-08	6.606127e+00	-9.441765e+02
9.300000e-07	1.050273e-06	-1.386643e-08	7.321797e+00	-9.114202e+02
9.400000e-07	1.152605e-06	-1.332593e-08	8.035186e+00	-8.759730e+02
9.500000e-07	1.254542e-06	-1.274067e-08	8.745822e+00	-8.373846e+02
9.600000e-07	1.355954e-06	-1.209665e-08	9.452798e+00	-7.951159e+02
9.700000e-07	1.456896e-06	-1.138272e-08	1.015650e+01	-7.484986e+02
9.800000e-07	1.557442e-06	-1.058694e-08	1.085744e+01	-6.966923e+02
9.900000e-07	1.657557e-06	-9.695957e-09	1.155537e+01	-6.386635e+02
1.000000e-06	1.757139e-06	-8.687788e-09	1.224959e+01	-5.732134e+02
1.010000e-06	1.855945e-06	-7.545352e-09	1.293840e+01	-4.990782e+02
1.020000e-06	1.953855e-06	-6.255248e-09	1.362096e+01	-4.151040e+02
1.030000e-06	2.050982e-06	-4.803566e-09	1.429806e+01	-3.204777e+02
1.040000e-06	2.147347e-06	-3.185374e-09	1.496986e+01	-2.149720e+02
1.050000e-06	2.242958e-06	-1.407157e-09	1.563640e+01	-9.914664e+01
1.060000e-06	2.337811e-06	5.051732e-10	1.629765e+01	2.555000e+01
1.070000e-06	2.431845e-06	2.514586e-09	1.695319e+01	1.568167e+02
1.080000e-06	2.525134e-06	4.574860e-09	1.760354e+01	2.916831e+02
1.090000e-06	2.617742e-06	6.637198e-09	1.824914e+01	4.268132e+02
1.100000e-06	2.709471e-06	8.646347e-09	1.888861e+01	5.588735e+02
1.110000e-06	2.800003e-06	1.055545e-08	1.951974e+01	6.848924e+02
1.120000e-06	2.889329e-06	1.233512e-08	2.014246e+01	8.025425e+02
1.130000e-06	2.977634e-06	1.396624e-08	2.075806e+01	9.102968e+02
1.140000e-06	3.064981e-06	1.543834e-08	2.136699e+01	1.007442e+03
1.150000e-06	3.151332e-06	1.674841e-08	2.196897e+01	1.093971e+03
1.160000e-06	3.236643e-06	1.790325e-08	2.256370e+01	1.170389e+03
1.170000e-06	3.320940e-06	1.891637e-08	2.315136e+01	1.237504e+03
1.180000e-06	3.404093e-06	1.980345e-08	2.373104e+01	1.296239e+03
1.190000e-06	3.485984e-06	2.057394e-08	2.430194e+01	1.347501e+03
1.200000e-06	3.566594e-06	2.124109e-08	2.486389e+01	1.392124e+03
1.210000e-06	3.645924e-06	2.182207e-08	2.541693e+01	1.430864e+03
1.220000e-06	3.723959e-06	2.233023e-08	2.596094e+01	1.464421e+03
1.230000e-06	3.800669e-06	2.277080e-08	2.649571e+01	1.493467e+03
1.240000e-06	3.875877e-06	2.315063e-08	2.702001e+01	1.518654e+03
1.250000e-06	3.949453e-06	2.348253e-08	2.753293e+01	1.540604e+03
1.260000e-06	4.021534e-06	2.377593e-08	2.803543e+01	1.559880e+03
1.270000e-06	4.092207e-06	2.403401e-08	2.852811e+01	1.576954e+03
1.280000e-06	4.161546e-06	2.426102e-08	2.901150e+01	1.592195e+03
1.290000e-06	4.229533e-06	2.446436e-08	2.948545e+01	1.605867e+03
1.300000e-06	4.295908e-06	2.464866e-08	2.994818e+01	1.618157e+03
1.310000e-06	4.360570e-06	2.481700e-08	3.039896e+01	1.629203e+03
1.320000e-06	4.423722e-06	2.496933e-08	3.083921e+01	1.639131e+03
1.330000e-06	4.485471e-06	2.510590e-08	3.126968e+01	1.648067e+03
1.340000e-06	4.545838e-06	2.522898e-08	3.169052e+01	1.656149e+03
1.350000e-06	4.604593e-06	2.534230e-08	3.210013e+01	1.663512e+03
1.360000e-06	4.661495e-06	2.544801e-08	3.249681e+01	1.670275e+03
1.370000e-06	4.716688e-06	2.554364e-08	3.288158e+01	1.676527e+03
1.380000e-06	4.770211e-06	2.562995e-08	3.325470e+01	1.682327e+03
1.390000e-06	4.821771e-06	2.571160e-08	3.361414e+01	1.687708e+03
1.400000e-06	4.871237e-06	2.578798e-08	3.395899e+01	1.692693e+03
1.410000e-06	4.918866e-06	2.585603e-08	3.429102e+01	1.697307e+03
1.420000e-06	4.964889e-06	2.591897e-08	3.461186e+01	1.701585e+03
1.430000e-06	5.009341e-06	2.598129e-08	3.492175e+01	1.705571e+03
1.440000e-06	5.051946e-06	2.604149e-08	3.521877e+01	1.709310e+03
1.450000e-06	5.092605e-06	2.609669e-08	3.550221e+01	1.712837e+03
1.460000e-06	5.131551e-06	2.614658e-08	3.577372e+01	1.716169e+03
1.470000e-06	5.168868e-06	2.619312e-08	3.603387e+01	1.719305e+03
1.480000e-06	5.204451e-06	2.623621e-08	3.628193e+01	1.722229e+03
1.490000e-06	5.238025e-06	2.627669e-08	3.651599e+01	1.724926e+03
1.500000e-06	5.269679e-06	2.631602e-08	3.673665e+01	1.727388e+03
1.510000e-06	5.299630e-06	2.635372e-08	3.694545e+01	1.729619e+03
1.520000e-06	5.327847e-06	2.638937e-08	3.714216e+01	1.731633e+03
1.530000e-06	5.354044e-06	2.641947e-08	3.732479e+01	1.733451e+03
1.540000e-06	5.378113e-06	2.644441e-08	3.749259e+01	1.735087e+03
1.550000e-06	5.400328e-06	2.646618e-08	3.764745e+01	1.736551e+03
1.560000e-06	5.420855e-06	2.648466e-08	3.779055e+01	1.737841e+03
1.570000e-06	5.439562e-06	2.650100e-08	3.792097e+01	1.738955e+03
1.580000e-06	5.456235e-06	2.651653e-08	3.803720e+01	1.739898e+03
1.590000e-06	5.470909e-06	2.653125e-08	3.813949e+01	1.740682e+03
1.600000e-06	5.483594e-06	2.654483e-08	3.822793e+01	1.741331e+03
1.610000e-06	5.494052e-06	2.655562e-08	3.830084e+01	1.741872e+03
1.620000e-06	5.502407e-06	2.656301e-08	3.835908e+01	1.742324e+03
1.630000e-06	5.508898e-06	2.656925e-08	3.840433e+01	1.742691e+03
1.640000e-06	5.513581e-06	2.657525e-08	3.843698e+01	1.742959e+03
1.650000e-06	5.516267e-06	2.657948e-08	3.845570e+01	1.743100e+03
1.660000e-06	5.516884e-06	2.658160e-08	3.846000e+01	1.743086e+03
1.670000e-06	5.515705e-06	2.657425e-08	3.845178e+01	1.742902e+03
1.680000e-06	5.512859e-06	2.656719e-08	3.843194e+01	1.742554e+03
1.690000e-06	5.508203e-06	2.656265e-08	3.839949e+01	1.742072e+03
1.700000e-06	5.501534e-06	2.655494e-08	3.835300e+01	1.741498e+03
1.710000e-06	5.493135e-06	2.654640e-08	3.829444e+01	1.740869e+03
1.720000e-06	5.483158e-06	2.653941e-08	3.822489e+01	1.740201e+03
1.730000e-06	5.471326e-06	2.654728e-08	3.814240e+01	1.739478e+03
1.740000e-06	5.457424e-06	2.651741e-08	3.804549e+01	1.738656e+03
1.750000e-06	5.441523e-06	2.638105e-08	3.793464e+01	1.737678e+03
1.760000e-06	5.423230e-06	2.637818e-08	3.780711e+01	1.736498e+03
1.770000e-06	5.402026e-06	2.641680e-08	3.765929e+01	1.735098e+03
1.780000e-06	5.378508e-06	2.646314e-08	3.749534e+01	1.733501e+03
1.790000e-06	5.353758e-06	2.654498e-08	3.732280e+01	1.731765e+03
1.800000e-06	5.328325e-06	2.628861e-08	3.714549e+01	1.729964e+03
1.810000e-06	5.301325e-06	2.632547e-08	3.695727e+01	1.728160e+03
1.820000e-06	5.271878e-06	2.645745e-08	3.675198e+01	1.726378e+03
1.830000e-06	5.240761e-06	2.613018e-08	3.653506e+01	1.724593e+03
1.840000e-06	5.207972e-06	2.624716e-08	3.630648e+01	1.722737e+03
1.850000e-06	5.173296e-06	2.633451e-08	3.606474e+01	1.720715e+03
1.860000e-06	5.137075e-06	2.607316e-08	3.581223e+01	1.718440e+03
1.870000e-06	5.098758e-06	2.626499e-08	3.554511e+01	1.715860e+03
1.880000e-06	5.058513e-06	2.618842e-08	3.526455e+01	1.712969e+03
1.890000e-06	5.016765e-06	2.598822e-08	3.497351e+01	1.709813e+03
1.900000e-06	4.973144e-06	2.607037e-08	3.466941e+01	1.706470e+03
1.910000e-06	4.927739e-06	2.585633e-08	3.435288e+01	1.703017e+03
1.920000e-06	4.880449e-06	2.593218e-08	3.402321e+01	1.699511e+03
1.930000e-06	4.831312e-06	2.593980e-08	3.368065e+01	1.695970e+03
1.940000e-06	4.780679e-06	2.573135e-08	3.332768e+01	1.692372e+03
1.950000e-06	4.727905e-06	2.582755e-08	3.295977e+01	1.688669e+03
1.960000e-06	4.673087e-06	2.569252e-08	3.257762e+01	1.684806e+03
1.970000e-06	4.616677e-06	2.562250e-08	3.218437e+01	1.680748e+03
1.980000e-06	4.558560e-06	2.554207e-08	3.177921e+01	1.676485e+03
1.990000e-06	4.499023e-06	2.544496e-08	3.136416e+01	1.672032e+03
2.000000e-06	4.437796e-06	2.549392e-08	3.093732e+01	1.667422e+03
2.010000e-06	4.374799e-06	2.532602e-08	3.049816e+01	1.662683e+03
2.020000e-06	4.310290e-06	2.532463e-08	3.004844e+01	1.657829e+03
2.030000e-06	4.244275e-06	2.519782e-08	2.958823e+01	1.652853e+03
2.040000e-06	4.176881e-06	2.507827e-08	2.911840e+01	1.647732e+03
2.050000e-06	4.107725e-06	2.508793e-08	2.863630e+01	1.642438e+03
2.060000e-06	4.036876e-06	2.491551e-08	2.814238e+01	1.636950e+03
2.070000e-06	3.964717e-06	2.489425e-08	2.763934e+01	1.631265e+03
2.080000e-06	3.891298e-06	2.476885e-08	2.712751e+01	1.625394e+03
2.090000e-06	3.816487e-06	2.469785e-08	2.660598e+01	1.619356e+03
2.100000e-06	3.739957e-06	2.461586e-08	2.607246e+01	1.613165e+03
2.110000e-06	3.661764e-06	2.446004e-08	2.552735e+01	1.606820e+03
2.120000e-06	3.582202e-06	2.441170e-08	2.497270e+01	1.600305e+03
2.130000e-06	3.501511e-06	2.427471e-08	2.441018e+01	1.593591e+03
2.140000e-06	3.419657e-06	2.420721e-08	2.383955e+01	1.586649e+03
2.150000e-06	3.336698e-06	2.406726e-08	2.326122e+01	1.579462e+03
2.160000e-06	3.252608e-06	2.395629e-08	2.267500e+01	1.572035e+03
2.170000e-06	3.167082e-06	2.386268e-08	2.207877e+01	1.564389e+03
2.180000e-06	3.080289e-06	2.372440e-08	2.147370e+01	1.556553e+03
2.190000e-06	2.992536e-06	2.362828e-08	2.086194e+01	1.548554e+03
2.200000e-06	2.903850e-06	2.347400e-08	2.024369e+01	1.540397e+03
2.210000e-06	2.814209e-06	2.335728e-08	1.961877e+01	1.532069e+03
2.220000e-06	2.723649e-06	2.321727e-08	1.898745e+01	1.523535e+03
2.230000e-06	2.632253e-06	2.308895e-08	1.835029e+01	1.514757e+03
2.240000e-06	2.540024e-06	2.295562e-08	1.770734e+01	1.505703e+03
2.250000e-06	2.446666e-06	2.280843e-08	1.705651e+01	1.496360e+03
2.260000e-06	2.352125e-06	2.267950e-08	1.639743e+01	1.486735e+03
2.270000e-06	2.256789e-06	2.252373e-08	1.573281e+01	1.476850e+03
2.280000e-06	2.160824e-06	2.237074e-08	1.506381e+01	1.466724e+03
2.290000e-06	2.064135e-06	2.220282e-08	1.438976e+01	1.456364e+03
2.300000e-06	1.966696e-06	2.204773e-08	1.371048e+01	1.445755e+03
2.310000e-06	1.868668e-06	2.189076e-08	1.302709e+01	1.434865e+03
2.320000e-06	1.770081e-06	2.171937e-08	1.233981e+01	1.423652e+03
2.330000e-06	1.670945e-06	2.153898e-08	1.164870e+01	1.412083e+03
2.340000e-06	1.571343e-06	2.135327e-08	1.095435e+01	1.400143e+03
2.350000e-06	1.471300e-06	2.116953e-08	1.025691e+01	1.387838e+03
2.360000e-06	1.370689e-06	2.097769e-08	9.555520e+00	1.375192e+03
2.370000e-06	1.269235e-06	2.078218e-08	8.848251e+00	1.362229e+03
2.380000e-06	1.167106e-06	2.058230e-08	8.136275e+00	1.348957e+03
2.390000e-06	1.064526e-06	2.037855e-08	7.421158e+00	1.335363e+03
2.400000e-06	9.615270e-07	2.016267e-08	6.703119e+00	1.321405e+03
2.410000e-06	8.582196e-07	1.993596e-08	5.982930e+00	1.307029e+03
2.420000e-06	7.546609e-07	1.970393e-08	5.260988e+00	1.292180e+03
2.430000e-06	6.508698e-07	1.947162e-08	4.537426e+00	1.276822e+03
2.440000e-06	5.469037e-07	1.923536e-08	3.812645e+00	1.260941e+03
2.450000e-06	4.428120e-07	1.899062e-08	3.086987e+00	1.244539e+03
2.460000e-06	3.385646e-07	1.873438e-08	2.360244e+00	1.227621e+03
2.470000e-06	2.341817e-07	1.846779e-08	1.632557e+00	1.210175e+03
2.480000e-06	1.296886e-07	1.819132e-08	9.041016e-01	1.192155e+03
2.490000e-06	2.512831e-08	1.790172e-08	1.751776e-01	1.173483e+03
2.500000e-06	-7.939384e-08	1.760077e-08	-5.534804e-01	1.154048e+03
2.510000e-06	-1.838472e-07	1.729082e-08	-1.281659e+00	1.133730e+03
2.520000e-06	-2.882156e-07	1.697095e-08	-2.009246e+00	1.112409e+03
2.530000e-06	-3.924753e-07	1.663473e-08	-2.736074e+00	1.089978e+03
2.540000e-06	-4.966127e-07	1.627919e-08	-3.462050e+00	1.066336e+03
2.550000e-06	-6.005743e-07	1.590109e-08	-4.186800e+00	1.041373e+03
2.560000e-06	-7.042886e-07	1.549697e-08	-4.909826e+00	1.014944e+03
2.570000e-06	-8.077862e-07	1.506559e-08	-5.631342e+00	9.868554e+02
2.580000e-06	-9.109997e-07	1.460466e-08	-6.350877e+00	9.568529e+02
2.590000e-06	-1.013774e-06	1.410949e-08	-7.067352e+00	9.246206e+02
2.600000e-06	-1.116131e-06	1.357927e-08	-7.780917e+00	8.897852e+02
2.610000e-06	-1.218049e-06	1.300919e-08	-8.491418e+00	8.519114e+02
2.620000e-06	-1.319441e-06	1.238547e-08	-9.198255e+00	8.104822e+02
2.630000e-06	-1.420179e-06	1.169416e-08	-9.900534e+00	7.648607e+02
2.640000e-06	-1.520265e-06	1.092328e-08	-1.059826e+01	7.142465e+02
2.650000e-06	-1.619817e-06	1.006244e-08	-1.129228e+01	6.576470e+02
2.660000e-06	-1.718936e-06	9.093964e-09	-1.198326e+01	5.938932e+02
2.670000e-06	-1.817520e-06	7.997228e-09	-1.267053e+01	5.217229e+02
2.680000e-06	-1.915451e-06	6.758610e-09	-1.335323e+01	4.399405e+02
2.690000e-06	-2.012782e-06	5.365969e-09	-1.403176e+01	3.476391e+02
2.700000e-06	-2.109440e-06	3.810619e-09	-1.470560e+01	2.444465e+02
2.710000e-06	-2.205458e-06	2.091711e-09	-1.537497e+01	1.307410e+02
2.720000e-06	-2.300902e-06	2.240149e-10	-1.604034e+01	7.778456e+00
2.730000e-06	-2.395582e-06	-1.756719e-09	-1.670039e+01	-1.223119e+02
2.740000e-06	-2.489238e-06	-3.807700e-09	-1.735329e+01	-2.566811e+02
2.750000e-06	-2.581870e-06	-5.878413e-09	-1.799906e+01	-3.920415e+02
2.760000e-06	-2.673520e-06	-7.913175e-09	-1.863798e+01	-5.250274e+02
2.770000e-06	-2.764152e-06	-9.864172e-09	-1.926981e+01	-6.525624e+02
2.780000e-06	-2.853723e-06	-1.169428e-08	-1.989424e+01	-7.721632e+02
2.790000e-06	-2.942243e-06	-1.338113e-08	-2.051134e+01	-8.821251e+02
2.800000e-06	-3.029887e-06	-1.491230e-08	-2.112234e+01	-9.815664e+02
2.810000e-06	-3.116555e-06	-1.628232e-08	-2.172652e+01	-1.070342e+03
2.820000e-06	-3.201991e-06	-1.749479e-08	-2.232212e+01	-1.148866e+03
2.830000e-06	-3.286125e-06	-1.855871e-08	-2.290865e+01	-1.217899e+03
2.840000e-06	-3.369115e-06	-1.948951e-08	-2.348720e+01	-1.278352e+03
2.850000e-06	-3.451039e-06	-2.030347e-08	-2.405832e+01	-1.331142e+03
2.860000e-06	-3.531825e-06	-2.101357e-08	-2.462151e+01	-1.377122e+03
2.870000e-06	-3.611440e-06	-2.163142e-08	-2.517653e+01	-1.417063e+03
2.880000e-06	-3.689677e-06	-2.216725e-08	-2.572194e+01	-1.451674e+03
2.890000e-06	-3.766396e-06	-2.262908e-08	-2.625678e+01	-1.481631e+03
2.900000e-06	-3.841606e-06	-2.302747e-08	-2.678109e+01	-1.507591e+03
2.910000e-06	-3.915354e-06	-2.337461e-08	-2.729522e+01	-1.530185e+03
2.920000e-06	-3.987690e-06	-2.368082e-08	-2.779949e+01	-1.549991e+03
2.930000e-06	-4.058650e-06	-2.395240e-08	-2.829418e+01	-1.567503e+03
2.940000e-06	-4.128058e-06	-2.419348e-08	-2.877804e+01	-1.583112e+03
