# Temperatura_=_75.8
# Concentracion g/m^3_=_18700.0
# C_Vs_to_Am_M_A/Vsm_=_65563218390.804596
# pendiente_HvsI_1/m_=_3716.3
# ordenada_HvsI_A/m_=_1297.0
# frecuencia_Hz_=_300833.8409101671

Tiempo_(s)	Campo_(V.s)	Magnetizacion_(V.s)	Campo_(kA/m)	Magnetizacion_(A/m)
0.000000e+00	-5.487479e-06	-2.667974e-08	-3.830036e+01	-1.747806e+03
1.000000e-08	-5.486378e-06	-2.667927e-08	-3.829268e+01	-1.747556e+03
2.000000e-08	-5.483323e-06	-2.667775e-08	-3.827135e+01	-1.747159e+03
3.000000e-08	-5.478392e-06	-2.667187e-08	-3.823694e+01	-1.746659e+03
4.000000e-08	-5.471785e-06	-2.666314e-08	-3.819083e+01	-1.746093e+03
5.000000e-08	-5.463559e-06	-2.665184e-08	-3.813341e+01	-1.745479e+03
6.000000e-08	-5.453530e-06	-2.663865e-08	-3.806342e+01	-1.744808e+03
7.000000e-08	-5.441443e-06	-2.662141e-08	-3.797905e+01	-1.744045e+03
8.000000e-08	-5.427376e-06	-2.660249e-08	-3.788087e+01	-1.743143e+03
9.000000e-08	-5.411039e-06	-2.662656e-08	-3.776685e+01	-1.742059e+03
1.000000e-07	-5.392317e-06	-2.665598e-08	-3.763617e+01	-1.740774e+03
1.100000e-07	-5.371518e-06	-2.660279e-08	-3.749101e+01	-1.739301e+03
1.200000e-07	-5.348879e-06	-2.654233e-08	-3.733300e+01	-1.737688e+03
1.300000e-07	-5.324706e-06	-2.647791e-08	-3.716428e+01	-1.735996e+03
1.400000e-07	-5.299063e-06	-2.639576e-08	-3.698530e+01	-1.734287e+03
1.500000e-07	-5.271673e-06	-2.646325e-08	-3.679413e+01	-1.732598e+03
1.600000e-07	-5.242484e-06	-2.644096e-08	-3.659040e+01	-1.730925e+03
1.700000e-07	-5.211742e-06	-2.632384e-08	-3.637583e+01	-1.729227e+03
1.800000e-07	-5.179206e-06	-2.641004e-08	-3.614875e+01	-1.727430e+03
1.900000e-07	-5.144549e-06	-2.635612e-08	-3.590685e+01	-1.725456e+03
2.000000e-07	-5.108221e-06	-2.623922e-08	-3.565330e+01	-1.723238e+03
2.100000e-07	-5.070337e-06	-2.625880e-08	-3.538888e+01	-1.720745e+03
2.200000e-07	-5.030651e-06	-2.615069e-08	-3.511189e+01	-1.717984e+03
2.300000e-07	-4.989080e-06	-2.611101e-08	-3.482174e+01	-1.714995e+03
2.400000e-07	-4.945498e-06	-2.614455e-08	-3.451756e+01	-1.711839e+03
2.500000e-07	-4.900127e-06	-2.606424e-08	-3.420089e+01	-1.708571e+03
2.600000e-07	-4.853029e-06	-2.603155e-08	-3.387217e+01	-1.705228e+03
2.700000e-07	-4.803931e-06	-2.596385e-08	-3.352948e+01	-1.701816e+03
2.800000e-07	-4.752775e-06	-2.588451e-08	-3.317243e+01	-1.698316e+03
2.900000e-07	-4.699652e-06	-2.585816e-08	-3.280165e+01	-1.694694e+03
3.000000e-07	-4.644743e-06	-2.578706e-08	-3.241841e+01	-1.690914e+03
3.100000e-07	-4.588236e-06	-2.571731e-08	-3.202401e+01	-1.686951e+03
3.200000e-07	-4.529968e-06	-2.566891e-08	-3.161733e+01	-1.682801e+03
3.300000e-07	-4.469909e-06	-2.563233e-08	-3.119814e+01	-1.678474e+03
3.400000e-07	-4.408353e-06	-2.554462e-08	-3.076851e+01	-1.673991e+03
3.500000e-07	-4.345392e-06	-2.545241e-08	-3.032906e+01	-1.669367e+03
3.600000e-07	-4.280947e-06	-2.540136e-08	-2.987927e+01	-1.664609e+03
3.700000e-07	-4.214806e-06	-2.531416e-08	-2.941763e+01	-1.659713e+03
3.800000e-07	-4.146947e-06	-2.524723e-08	-2.894399e+01	-1.654663e+03
3.900000e-07	-4.077573e-06	-2.517117e-08	-2.845980e+01	-1.649442e+03
4.000000e-07	-4.006830e-06	-2.506872e-08	-2.796604e+01	-1.644041e+03
4.100000e-07	-3.934902e-06	-2.499870e-08	-2.746401e+01	-1.638458e+03
4.200000e-07	-3.861605e-06	-2.491364e-08	-2.695243e+01	-1.632705e+03
4.300000e-07	-3.786607e-06	-2.482121e-08	-2.642897e+01	-1.626791e+03
4.400000e-07	-3.709978e-06	-2.472426e-08	-2.589414e+01	-1.620726e+03
4.500000e-07	-3.631880e-06	-2.463836e-08	-2.534904e+01	-1.614505e+03
4.600000e-07	-3.552247e-06	-2.454941e-08	-2.479323e+01	-1.608110e+03
4.700000e-07	-3.471166e-06	-2.444030e-08	-2.422732e+01	-1.601515e+03
4.800000e-07	-3.388852e-06	-2.432622e-08	-2.365281e+01	-1.594693e+03
4.900000e-07	-3.305423e-06	-2.420660e-08	-2.307051e+01	-1.587624e+03
5.000000e-07	-3.221026e-06	-2.410615e-08	-2.248144e+01	-1.580308e+03
5.100000e-07	-3.135685e-06	-2.399802e-08	-2.188580e+01	-1.572758e+03
5.200000e-07	-3.049404e-06	-2.387753e-08	-2.128360e+01	-1.564996e+03
5.300000e-07	-2.962187e-06	-2.375511e-08	-2.067485e+01	-1.557049e+03
5.400000e-07	-2.873976e-06	-2.363076e-08	-2.005918e+01	-1.548931e+03
5.500000e-07	-2.784747e-06	-2.350681e-08	-1.943640e+01	-1.540639e+03
5.600000e-07	-2.694367e-06	-2.337361e-08	-1.880558e+01	-1.532157e+03
5.700000e-07	-2.602785e-06	-2.323760e-08	-1.816638e+01	-1.523452e+03
5.800000e-07	-2.510249e-06	-2.310131e-08	-1.752052e+01	-1.514492e+03
5.900000e-07	-2.416972e-06	-2.296449e-08	-1.686948e+01	-1.505251e+03
6.000000e-07	-2.322915e-06	-2.281697e-08	-1.621300e+01	-1.495718e+03
6.100000e-07	-2.228043e-06	-2.265835e-08	-1.555083e+01	-1.485893e+03
6.200000e-07	-2.132456e-06	-2.250158e-08	-1.488367e+01	-1.475789e+03
6.300000e-07	-2.036154e-06	-2.234687e-08	-1.421153e+01	-1.465417e+03
6.400000e-07	-1.939043e-06	-2.218767e-08	-1.353373e+01	-1.454784e+03
6.500000e-07	-1.841102e-06	-2.201889e-08	-1.285014e+01	-1.443885e+03
6.600000e-07	-1.742369e-06	-2.184295e-08	-1.216103e+01	-1.432706e+03
6.700000e-07	-1.642924e-06	-2.166679e-08	-1.146694e+01	-1.421228e+03
6.800000e-07	-1.542878e-06	-2.148851e-08	-1.076866e+01	-1.409429e+03
6.900000e-07	-1.442279e-06	-2.130125e-08	-1.006652e+01	-1.397295e+03
7.000000e-07	-1.341196e-06	-2.110789e-08	-9.361000e+00	-1.384816e+03
7.100000e-07	-1.239728e-06	-2.091535e-08	-8.652796e+00	-1.371990e+03
7.200000e-07	-1.137847e-06	-2.072161e-08	-7.941710e+00	-1.358811e+03
7.300000e-07	-1.035569e-06	-2.051680e-08	-7.227849e+00	-1.345271e+03
7.400000e-07	-9.329072e-07	-2.029956e-08	-6.511311e+00	-1.331354e+03
7.500000e-07	-8.299359e-07	-2.007615e-08	-5.792614e+00	-1.317036e+03
7.600000e-07	-7.267124e-07	-1.984938e-08	-5.072156e+00	-1.302293e+03
7.700000e-07	-6.232520e-07	-1.961756e-08	-4.350045e+00	-1.287100e+03
7.800000e-07	-5.196247e-07	-1.937793e-08	-3.626769e+00	-1.271434e+03
7.900000e-07	-4.158380e-07	-1.913329e-08	-2.902379e+00	-1.255275e+03
8.000000e-07	-3.119427e-07	-1.888420e-08	-2.177233e+00	-1.238602e+03
8.100000e-07	-2.079312e-07	-1.862540e-08	-1.451275e+00	-1.221384e+03
8.200000e-07	-1.038326e-07	-1.835141e-08	-7.247093e-01	-1.203578e+03
8.300000e-07	3.150652e-10	-1.806446e-08	2.199027e-03	-1.185123e+03
8.400000e-07	1.044609e-07	-1.776886e-08	7.290945e-01	-1.165946e+03
8.500000e-07	2.085093e-07	-1.746501e-08	1.455310e+00	-1.145961e+03
8.600000e-07	3.125207e-07	-1.714747e-08	2.181267e+00	-1.125075e+03
8.700000e-07	4.164717e-07	-1.681169e-08	2.906803e+00	-1.103190e+03
8.800000e-07	5.202999e-07	-1.645971e-08	3.631481e+00	-1.080198e+03
8.900000e-07	6.239682e-07	-1.609138e-08	4.355044e+00	-1.055976e+03
9.000000e-07	7.274297e-07	-1.570259e-08	5.077163e+00	-1.030375e+03
9.100000e-07	8.306772e-07	-1.528585e-08	5.797788e+00	-1.003217e+03
9.200000e-07	9.336460e-07	-1.483970e-08	6.516468e+00	-9.742887e+02
9.300000e-07	1.036255e-06	-1.436457e-08	7.232634e+00	-9.433392e+02
9.400000e-07	1.138475e-06	-1.385671e-08	7.946088e+00	-9.100777e+02
9.500000e-07	1.240302e-06	-1.330867e-08	8.656799e+00	-8.741624e+02
9.600000e-07	1.341736e-06	-1.271326e-08	9.364769e+00	-8.351792e+02
9.700000e-07	1.442745e-06	-1.206268e-08	1.006977e+01	-7.926087e+02
9.800000e-07	1.543287e-06	-1.134625e-08	1.077151e+01	-7.457900e+02
9.900000e-07	1.643321e-06	-1.055023e-08	1.146971e+01	-6.938940e+02
1.000000e-06	1.742750e-06	-9.658219e-09	1.216368e+01	-6.359251e+02
1.010000e-06	1.841489e-06	-8.656030e-09	1.285284e+01	-5.707694e+02
1.020000e-06	1.939388e-06	-7.527609e-09	1.353614e+01	-4.972980e+02
1.030000e-06	2.036422e-06	-6.255633e-09	1.421339e+01	-4.145236e+02
1.040000e-06	2.132725e-06	-4.828108e-09	1.488555e+01	-3.217902e+02
1.050000e-06	2.228328e-06	-3.246523e-09	1.555282e+01	-2.189643e+02
1.060000e-06	2.323241e-06	-1.523506e-09	1.621528e+01	-1.065853e+02
1.070000e-06	2.417420e-06	3.225998e-10	1.687261e+01	1.406016e+01
1.080000e-06	2.510784e-06	2.263559e-09	1.752425e+01	1.409700e+02
1.090000e-06	2.603348e-06	4.260623e-09	1.817030e+01	2.715668e+02
1.100000e-06	2.695067e-06	6.265061e-09	1.881047e+01	4.029310e+02
1.110000e-06	2.785715e-06	8.228022e-09	1.944315e+01	5.320887e+02
1.120000e-06	2.875155e-06	1.011172e-08	2.006741e+01	6.563038e+02
1.130000e-06	2.963491e-06	1.188697e-08	2.068396e+01	7.733239e+02
1.140000e-06	3.050852e-06	1.352686e-08	2.129370e+01	8.815408e+02
1.150000e-06	3.137212e-06	1.501739e-08	2.189646e+01	9.800447e+02
1.160000e-06	3.222568e-06	1.635595e-08	2.249221e+01	1.068577e+03
1.170000e-06	3.306947e-06	1.754695e-08	2.308114e+01	1.147404e+03
1.180000e-06	3.390226e-06	1.860050e-08	2.366240e+01	1.217149e+03
1.190000e-06	3.472221e-06	1.952639e-08	2.423469e+01	1.278620e+03
1.200000e-06	3.552898e-06	2.033832e-08	2.479778e+01	1.332674e+03
1.210000e-06	3.632317e-06	2.105139e-08	2.535209e+01	1.380120e+03
1.220000e-06	3.710423e-06	2.167864e-08	2.589724e+01	1.421684e+03
1.230000e-06	3.787194e-06	2.222778e-08	2.643307e+01	1.458012e+03
1.240000e-06	3.862482e-06	2.270432e-08	2.695855e+01	1.489689e+03
1.250000e-06	3.936156e-06	2.311805e-08	2.747276e+01	1.517276e+03
1.260000e-06	4.008342e-06	2.348168e-08	2.797659e+01	1.541319e+03
1.270000e-06	4.079112e-06	2.380139e-08	2.847054e+01	1.562348e+03
1.280000e-06	4.148518e-06	2.407991e-08	2.895497e+01	1.580862e+03
1.290000e-06	4.216553e-06	2.432472e-08	2.942982e+01	1.597300e+03
1.300000e-06	4.282971e-06	2.454633e-08	2.989339e+01	1.612021e+03
1.310000e-06	4.347715e-06	2.474914e-08	3.034528e+01	1.625293e+03
1.320000e-06	4.411021e-06	2.493090e-08	3.078713e+01	1.637299e+03
1.330000e-06	4.472977e-06	2.509230e-08	3.121955e+01	1.648161e+03
1.340000e-06	4.533515e-06	2.523875e-08	3.164209e+01	1.657962e+03
1.350000e-06	4.592395e-06	2.537313e-08	3.205304e+01	1.666782e+03
1.360000e-06	4.649407e-06	2.549558e-08	3.245097e+01	1.674710e+03
1.370000e-06	4.704712e-06	2.560598e-08	3.283697e+01	1.681855e+03
1.380000e-06	4.758367e-06	2.570540e-08	3.321146e+01	1.688339e+03
1.390000e-06	4.810103e-06	2.579755e-08	3.357256e+01	1.694282e+03
1.400000e-06	4.859770e-06	2.588240e-08	3.391921e+01	1.699789e+03
1.410000e-06	4.907580e-06	2.595831e-08	3.425290e+01	1.704932e+03
1.420000e-06	4.953794e-06	2.602760e-08	3.457546e+01	1.709749e+03
1.430000e-06	4.998442e-06	2.609544e-08	3.488709e+01	1.714250e+03
1.440000e-06	5.041206e-06	2.616087e-08	3.518556e+01	1.718428e+03
1.450000e-06	5.082017e-06	2.622106e-08	3.547040e+01	1.722275e+03
1.460000e-06	5.121119e-06	2.627572e-08	3.574332e+01	1.725795e+03
1.470000e-06	5.158544e-06	2.632562e-08	3.600453e+01	1.729011e+03
1.480000e-06	5.194237e-06	2.637034e-08	3.625365e+01	1.731962e+03
1.490000e-06	5.227975e-06	2.641005e-08	3.648913e+01	1.734691e+03
1.500000e-06	5.259820e-06	2.644792e-08	3.671140e+01	1.737237e+03
1.510000e-06	5.289984e-06	2.648666e-08	3.692193e+01	1.739622e+03
1.520000e-06	5.318390e-06	2.652549e-08	3.712019e+01	1.741843e+03
1.530000e-06	5.344797e-06	2.655982e-08	3.730450e+01	1.743880e+03
1.540000e-06	5.369106e-06	2.658743e-08	3.747417e+01	1.745701e+03
1.550000e-06	5.391550e-06	2.661066e-08	3.763082e+01	1.747281e+03
1.560000e-06	5.412311e-06	2.663001e-08	3.777572e+01	1.748609e+03
1.570000e-06	5.431227e-06	2.664601e-08	3.790775e+01	1.749701e+03
1.580000e-06	5.448109e-06	2.665990e-08	3.802558e+01	1.750594e+03
1.590000e-06	5.462989e-06	2.667201e-08	3.812943e+01	1.751338e+03
1.600000e-06	5.475865e-06	2.668370e-08	3.821930e+01	1.751980e+03
1.610000e-06	5.486489e-06	2.669498e-08	3.829345e+01	1.752551e+03
1.620000e-06	5.494959e-06	2.670482e-08	3.835258e+01	1.753057e+03
1.630000e-06	5.501605e-06	2.671317e-08	3.839896e+01	1.753478e+03
1.640000e-06	5.506494e-06	2.671987e-08	3.843308e+01	1.753778e+03
1.650000e-06	5.509447e-06	2.672240e-08	3.845369e+01	1.753921e+03
1.660000e-06	5.510351e-06	2.672105e-08	3.846000e+01	1.753884e+03
1.670000e-06	5.509380e-06	2.671391e-08	3.845322e+01	1.753669e+03
1.680000e-06	5.506737e-06	2.670481e-08	3.843478e+01	1.753300e+03
1.690000e-06	5.502311e-06	2.670024e-08	3.840388e+01	1.752818e+03
1.700000e-06	5.495885e-06	2.669478e-08	3.835904e+01	1.752263e+03
1.710000e-06	5.487690e-06	2.668775e-08	3.830184e+01	1.751659e+03
1.720000e-06	5.477896e-06	2.668027e-08	3.823348e+01	1.751002e+03
1.730000e-06	5.466250e-06	2.667670e-08	3.815219e+01	1.750262e+03
1.740000e-06	5.452517e-06	2.665905e-08	3.805635e+01	1.749393e+03
1.750000e-06	5.436824e-06	2.656759e-08	3.794682e+01	1.748350e+03
1.760000e-06	5.418887e-06	2.652881e-08	3.782162e+01	1.747107e+03
1.770000e-06	5.398206e-06	2.655057e-08	3.767728e+01	1.745672e+03
1.780000e-06	5.375094e-06	2.656887e-08	3.751596e+01	1.744083e+03
1.790000e-06	5.350527e-06	2.663063e-08	3.734449e+01	1.742402e+03
1.800000e-06	5.325232e-06	2.651331e-08	3.716795e+01	1.740692e+03
1.810000e-06	5.298546e-06	2.643518e-08	3.698169e+01	1.738997e+03
1.820000e-06	5.269523e-06	2.654711e-08	3.677912e+01	1.737323e+03
1.830000e-06	5.238652e-06	2.642487e-08	3.656365e+01	1.735635e+03
1.840000e-06	5.206166e-06	2.639778e-08	3.633691e+01	1.733866e+03
1.850000e-06	5.171776e-06	2.649325e-08	3.609689e+01	1.731935e+03
1.860000e-06	5.135698e-06	2.634252e-08	3.584508e+01	1.729774e+03
1.870000e-06	5.097643e-06	2.637564e-08	3.557947e+01	1.727339e+03
1.880000e-06	5.057604e-06	2.639553e-08	3.530001e+01	1.724632e+03
1.890000e-06	5.016065e-06	2.622238e-08	3.501008e+01	1.721688e+03
1.900000e-06	4.972783e-06	2.623706e-08	3.470800e+01	1.718562e+03
1.910000e-06	4.927730e-06	2.614019e-08	3.439355e+01	1.715314e+03
1.920000e-06	4.880845e-06	2.608643e-08	3.406631e+01	1.711984e+03
1.930000e-06	4.831994e-06	2.613412e-08	3.372535e+01	1.708587e+03
1.940000e-06	4.781547e-06	2.598250e-08	3.337324e+01	1.705109e+03
1.950000e-06	4.729124e-06	2.597189e-08	3.300735e+01	1.701516e+03
1.960000e-06	4.674644e-06	2.593493e-08	3.262711e+01	1.697771e+03
1.970000e-06	4.618461e-06	2.583646e-08	3.223497e+01	1.693848e+03
1.980000e-06	4.560583e-06	2.577686e-08	3.183101e+01	1.689738e+03
1.990000e-06	4.501247e-06	2.567843e-08	3.141687e+01	1.685447e+03
2.000000e-06	4.440266e-06	2.567763e-08	3.099124e+01	1.680995e+03
2.010000e-06	4.377574e-06	2.558014e-08	3.055368e+01	1.676399e+03
2.020000e-06	4.313328e-06	2.551553e-08	3.010527e+01	1.671670e+03
2.030000e-06	4.247544e-06	2.545128e-08	2.964613e+01	1.666804e+03
2.040000e-06	4.180403e-06	2.532184e-08	2.917751e+01	1.661788e+03
2.050000e-06	4.111619e-06	2.530024e-08	2.869742e+01	1.656605e+03
2.060000e-06	4.041114e-06	2.518555e-08	2.820533e+01	1.651242e+03
2.070000e-06	3.969225e-06	2.510875e-08	2.770357e+01	1.645697e+03
2.080000e-06	3.896037e-06	2.502969e-08	2.719275e+01	1.639979e+03
2.090000e-06	3.821406e-06	2.492526e-08	2.667186e+01	1.634098e+03
2.100000e-06	3.745063e-06	2.485834e-08	2.613901e+01	1.628065e+03
2.110000e-06	3.667125e-06	2.472723e-08	2.559504e+01	1.621878e+03
2.120000e-06	3.587844e-06	2.464770e-08	2.504169e+01	1.615522e+03
2.130000e-06	3.507353e-06	2.454320e-08	2.447989e+01	1.608972e+03
2.140000e-06	3.425750e-06	2.444961e-08	2.391034e+01	1.602200e+03
2.150000e-06	3.343045e-06	2.434275e-08	2.333309e+01	1.595184e+03
2.160000e-06	3.259206e-06	2.421873e-08	2.274793e+01	1.587920e+03
2.170000e-06	3.174007e-06	2.412682e-08	2.215327e+01	1.580418e+03
2.180000e-06	3.087537e-06	2.399701e-08	2.154975e+01	1.572699e+03
2.190000e-06	3.000038e-06	2.388556e-08	2.093904e+01	1.564789e+03
2.200000e-06	2.911591e-06	2.375140e-08	2.032172e+01	1.556706e+03
2.210000e-06	2.822196e-06	2.362026e-08	1.969778e+01	1.548453e+03
2.220000e-06	2.731914e-06	2.349336e-08	1.906764e+01	1.540013e+03
2.230000e-06	2.640743e-06	2.336031e-08	1.843131e+01	1.531358e+03
2.240000e-06	2.548585e-06	2.323244e-08	1.778808e+01	1.522455e+03
2.250000e-06	2.455400e-06	2.308708e-08	1.713769e+01	1.513276e+03
2.260000e-06	2.361216e-06	2.295265e-08	1.648033e+01	1.503805e+03
2.270000e-06	2.266187e-06	2.280564e-08	1.581706e+01	1.494042e+03
2.280000e-06	2.170370e-06	2.265173e-08	1.514830e+01	1.483996e+03
2.290000e-06	2.073852e-06	2.248788e-08	1.447464e+01	1.473680e+03
2.300000e-06	1.976640e-06	2.232340e-08	1.379614e+01	1.463102e+03
2.310000e-06	1.878802e-06	2.216539e-08	1.311327e+01	1.452260e+03
2.320000e-06	1.780454e-06	2.199818e-08	1.242684e+01	1.441143e+03
2.330000e-06	1.681599e-06	2.182479e-08	1.173688e+01	1.429730e+03
2.340000e-06	1.582148e-06	2.164474e-08	1.104275e+01	1.418001e+03
2.350000e-06	1.482077e-06	2.146391e-08	1.034429e+01	1.405939e+03
2.360000e-06	1.381399e-06	2.127415e-08	9.641604e+00	1.393534e+03
2.370000e-06	1.280122e-06	2.107510e-08	8.934731e+00	1.380783e+03
2.380000e-06	1.178336e-06	2.087050e-08	8.224304e+00	1.367679e+03
2.390000e-06	1.076091e-06	2.066699e-08	7.510673e+00	1.354217e+03
2.400000e-06	9.733774e-07	2.045999e-08	6.793777e+00	1.340382e+03
2.410000e-06	8.702188e-07	2.024110e-08	6.073772e+00	1.326152e+03
2.420000e-06	7.667719e-07	2.001507e-08	5.351755e+00	1.311502e+03
2.430000e-06	6.631121e-07	1.978604e-08	4.628252e+00	1.296406e+03
2.440000e-06	5.592313e-07	1.955270e-08	3.903207e+00	1.280843e+03
2.450000e-06	4.551958e-07	1.930878e-08	3.177081e+00	1.264791e+03
2.460000e-06	3.510170e-07	1.905399e-08	2.449956e+00	1.248230e+03
2.470000e-06	2.466984e-07	1.879233e-08	1.721854e+00	1.231131e+03
2.480000e-06	1.423263e-07	1.852388e-08	9.933798e-01	1.213455e+03
2.490000e-06	3.794194e-08	1.824245e-08	2.648193e-01	1.195145e+03
2.500000e-06	-6.645285e-08	1.794914e-08	-4.638138e-01	1.176129e+03
2.510000e-06	-1.708086e-07	1.764839e-08	-1.192174e+00	1.156324e+03
2.520000e-06	-2.751247e-07	1.733623e-08	-1.920258e+00	1.135639e+03
2.530000e-06	-3.793341e-07	1.700935e-08	-2.647597e+00	1.113977e+03
2.540000e-06	-4.833793e-07	1.666452e-08	-3.373790e+00	1.091231e+03
2.550000e-06	-5.872769e-07	1.629999e-08	-4.098953e+00	1.067283e+03
2.560000e-06	-6.910171e-07	1.591541e-08	-4.823018e+00	1.041991e+03
2.570000e-06	-7.944922e-07	1.550715e-08	-5.545231e+00	1.015183e+03
2.580000e-06	-8.976458e-07	1.507097e-08	-6.265201e+00	9.866537e+02
2.590000e-06	-1.000423e-06	1.460437e-08	-6.982546e+00	9.561599e+02
2.600000e-06	-1.102725e-06	1.410561e-08	-7.696571e+00	9.234202e+02
2.610000e-06	-1.204561e-06	1.357002e-08	-8.407347e+00	8.881051e+02
2.620000e-06	-1.305889e-06	1.299086e-08	-9.114576e+00	8.498184e+02
2.630000e-06	-1.406650e-06	1.235754e-08	-9.817842e+00	8.080664e+02
2.640000e-06	-1.506775e-06	1.166241e-08	-1.051667e+01	7.622215e+02
2.650000e-06	-1.606270e-06	1.089509e-08	-1.121111e+01	7.114916e+02
2.660000e-06	-1.705255e-06	1.003697e-08	-1.190199e+01	6.549145e+02
2.670000e-06	-1.803792e-06	9.071425e-09	-1.258973e+01	5.913949e+02
2.680000e-06	-1.901748e-06	7.984746e-09	-1.327342e+01	5.197957e+02
2.690000e-06	-1.999034e-06	6.764644e-09	-1.395244e+01	4.390839e+02
2.700000e-06	-2.095657e-06	5.397290e-09	-1.462683e+01	3.485159e+02
2.710000e-06	-2.191600e-06	3.875642e-09	-1.529648e+01	2.478314e+02
2.720000e-06	-2.286900e-06	2.204751e-09	-1.596163e+01	1.374166e+02
2.730000e-06	-2.381511e-06	4.001773e-10	-1.662198e+01	1.839645e+01
2.740000e-06	-2.475225e-06	-1.512597e-09	-1.727606e+01	-1.073719e+02
2.750000e-06	-2.567847e-06	-3.495637e-09	-1.792252e+01	-2.374173e+02
2.760000e-06	-2.659388e-06	-5.503768e-09	-1.856144e+01	-3.688706e+02
2.770000e-06	-2.749983e-06	-7.491641e-09	-1.919376e+01	-4.987442e+02
2.780000e-06	-2.839639e-06	-9.414146e-09	-1.981952e+01	-6.242281e+02
2.790000e-06	-2.928242e-06	-1.123269e-08	-2.043794e+01	-7.429493e+02
2.800000e-06	-3.015860e-06	-1.292039e-08	-2.104948e+01	-8.531533e+02
2.810000e-06	-3.102595e-06	-1.446624e-08	-2.165485e+01	-9.537815e+02
2.820000e-06	-3.188208e-06	-1.586437e-08	-2.225239e+01	-1.044444e+03
2.830000e-06	-3.272435e-06	-1.711176e-08	-2.284026e+01	-1.125308e+03
2.840000e-06	-3.355445e-06	-1.821651e-08	-2.341963e+01	-1.196936e+03
2.850000e-06	-3.437391e-06	-1.919184e-08	-2.399159e+01	-1.260108e+03
2.860000e-06	-3.518252e-06	-2.005107e-08	-2.455596e+01	-1.315681e+03
2.870000e-06	-3.597948e-06	-2.080643e-08	-2.511221e+01	-1.364479e+03
2.880000e-06	-3.676264e-06	-2.146780e-08	-2.565882e+01	-1.407248e+03
2.890000e-06	-3.752997e-06	-2.204524e-08	-2.619439e+01	-1.444647e+03
2.900000e-06	-3.828178e-06	-2.254891e-08	-2.671912e+01	-1.477274e+03
2.910000e-06	-3.901910e-06	-2.298821e-08	-2.723374e+01	-1.505691e+03
2.920000e-06	-3.974301e-06	-2.337178e-08	-2.773900e+01	-1.530448e+03
2.930000e-06	-4.045393e-06	-2.370538e-08	-2.823519e+01	-1.552080e+03
2.940000e-06	-4.114979e-06	-2.399775e-08	-2.872088e+01	-1.571094e+03
