# Temperatura_=_90.6
# Concentracion g/m^3_=_18700.0
# C_Vs_to_Am_M_A/Vsm_=_65563218390.804596
# pendiente_HvsI_1/m_=_3716.3
# ordenada_HvsI_A/m_=_1297.0
# frecuencia_Hz_=_300833.22868810256

Tiempo_(s)	Campo_(V.s)	Magnetizacion_(V.s)	Campo_(kA/m)	Magnetizacion_(A/m)
0.000000e+00	-5.516589e-06	-2.625838e-08	-3.830006e+01	-1.721721e+03
1.000000e-08	-5.515365e-06	-2.625697e-08	-3.829156e+01	-1.721475e+03
2.000000e-08	-5.512171e-06	-2.625543e-08	-3.826939e+01	-1.721038e+03
3.000000e-08	-5.507162e-06	-2.625120e-08	-3.823462e+01	-1.720462e+03
4.000000e-08	-5.500532e-06	-2.624521e-08	-3.818858e+01	-1.719817e+03
5.000000e-08	-5.492273e-06	-2.623482e-08	-3.813125e+01	-1.719155e+03
6.000000e-08	-5.482053e-06	-2.622112e-08	-3.806029e+01	-1.718494e+03
7.000000e-08	-5.469710e-06	-2.620294e-08	-3.797459e+01	-1.717802e+03
8.000000e-08	-5.455410e-06	-2.618615e-08	-3.787531e+01	-1.717010e+03
9.000000e-08	-5.438887e-06	-2.622995e-08	-3.776060e+01	-1.716041e+03
1.000000e-07	-5.420032e-06	-2.626265e-08	-3.762969e+01	-1.714839e+03
1.100000e-07	-5.399076e-06	-2.619209e-08	-3.748420e+01	-1.713399e+03
1.200000e-07	-5.376271e-06	-2.613499e-08	-3.732587e+01	-1.711768e+03
1.300000e-07	-5.351828e-06	-2.605987e-08	-3.715617e+01	-1.710036e+03
1.400000e-07	-5.325894e-06	-2.596621e-08	-3.697612e+01	-1.708299e+03
1.500000e-07	-5.298221e-06	-2.608088e-08	-3.678399e+01	-1.706626e+03
1.600000e-07	-5.268759e-06	-2.602096e-08	-3.657945e+01	-1.705027e+03
1.700000e-07	-5.237779e-06	-2.589996e-08	-3.636437e+01	-1.703444e+03
1.800000e-07	-5.204963e-06	-2.604396e-08	-3.613654e+01	-1.701774e+03
1.900000e-07	-5.170053e-06	-2.593760e-08	-3.589416e+01	-1.699895e+03
2.000000e-07	-5.133490e-06	-2.584004e-08	-3.564032e+01	-1.697711e+03
2.100000e-07	-5.095286e-06	-2.587705e-08	-3.537508e+01	-1.695177e+03
2.200000e-07	-5.055253e-06	-2.571918e-08	-3.509714e+01	-1.692315e+03
2.300000e-07	-5.013325e-06	-2.571736e-08	-3.480604e+01	-1.689198e+03
2.400000e-07	-4.969322e-06	-2.575707e-08	-3.450055e+01	-1.685921e+03
2.500000e-07	-4.923525e-06	-2.564532e-08	-3.418259e+01	-1.682568e+03
2.600000e-07	-4.875954e-06	-2.563866e-08	-3.385232e+01	-1.679185e+03
2.700000e-07	-4.826343e-06	-2.554979e-08	-3.350789e+01	-1.675766e+03
2.800000e-07	-4.774650e-06	-2.546289e-08	-3.314899e+01	-1.672269e+03
2.900000e-07	-4.721029e-06	-2.545038e-08	-3.277672e+01	-1.668633e+03
3.000000e-07	-4.665710e-06	-2.537412e-08	-3.239266e+01	-1.664808e+03
3.100000e-07	-4.608777e-06	-2.529883e-08	-3.199739e+01	-1.660769e+03
3.200000e-07	-4.550039e-06	-2.526045e-08	-3.158959e+01	-1.656526e+03
3.300000e-07	-4.489573e-06	-2.523574e-08	-3.116979e+01	-1.652111e+03
3.400000e-07	-4.427631e-06	-2.511881e-08	-3.073975e+01	-1.647558e+03
3.500000e-07	-4.364229e-06	-2.503128e-08	-3.029957e+01	-1.642889e+03
3.600000e-07	-4.299330e-06	-2.498461e-08	-2.984899e+01	-1.638100e+03
3.700000e-07	-4.232759e-06	-2.488580e-08	-2.938680e+01	-1.633167e+03
3.800000e-07	-4.164531e-06	-2.483696e-08	-2.891312e+01	-1.628055e+03
3.900000e-07	-4.094812e-06	-2.476142e-08	-2.842908e+01	-1.622740e+03
4.000000e-07	-4.023744e-06	-2.465492e-08	-2.793568e+01	-1.617215e+03
4.100000e-07	-3.951381e-06	-2.458712e-08	-2.743328e+01	-1.611500e+03
4.200000e-07	-3.877423e-06	-2.449500e-08	-2.691981e+01	-1.605622e+03
4.300000e-07	-3.801781e-06	-2.439818e-08	-2.639465e+01	-1.599610e+03
4.400000e-07	-3.724607e-06	-2.429341e-08	-2.585885e+01	-1.593473e+03
4.500000e-07	-3.645945e-06	-2.420734e-08	-2.531273e+01	-1.587193e+03
4.600000e-07	-3.565825e-06	-2.412322e-08	-2.475648e+01	-1.580734e+03
4.700000e-07	-3.484293e-06	-2.402242e-08	-2.419043e+01	-1.574050e+03
4.800000e-07	-3.401512e-06	-2.391297e-08	-2.361570e+01	-1.567106e+03
4.900000e-07	-3.317670e-06	-2.379089e-08	-2.303361e+01	-1.559891e+03
5.000000e-07	-3.232873e-06	-2.368920e-08	-2.244489e+01	-1.552425e+03
5.100000e-07	-3.147094e-06	-2.356749e-08	-2.184935e+01	-1.544746e+03
5.200000e-07	-3.060313e-06	-2.344008e-08	-2.124686e+01	-1.536894e+03
5.300000e-07	-2.972582e-06	-2.331822e-08	-2.063777e+01	-1.528897e+03
5.400000e-07	-2.883894e-06	-2.319646e-08	-2.002203e+01	-1.520751e+03
5.500000e-07	-2.794074e-06	-2.307745e-08	-1.939844e+01	-1.512427e+03
5.600000e-07	-2.703055e-06	-2.294594e-08	-1.876652e+01	-1.503878e+03
5.700000e-07	-2.610992e-06	-2.280845e-08	-1.812735e+01	-1.495060e+03
5.800000e-07	-2.518072e-06	-2.266443e-08	-1.748224e+01	-1.485944e+03
5.900000e-07	-2.424343e-06	-2.252292e-08	-1.683150e+01	-1.476530e+03
6.000000e-07	-2.329758e-06	-2.237316e-08	-1.617483e+01	-1.466841e+03
6.100000e-07	-2.234365e-06	-2.221458e-08	-1.551254e+01	-1.456908e+03
6.200000e-07	-2.138229e-06	-2.205748e-08	-1.484510e+01	-1.446753e+03
6.300000e-07	-2.041278e-06	-2.190095e-08	-1.417199e+01	-1.436379e+03
6.400000e-07	-1.943497e-06	-2.174197e-08	-1.349313e+01	-1.425759e+03
6.500000e-07	-1.844863e-06	-2.157365e-08	-1.280835e+01	-1.414853e+03
6.600000e-07	-1.745438e-06	-2.139758e-08	-1.211807e+01	-1.403616e+03
6.700000e-07	-1.645401e-06	-2.121953e-08	-1.142354e+01	-1.392019e+03
6.800000e-07	-1.544809e-06	-2.103962e-08	-1.072515e+01	-1.380056e+03
6.900000e-07	-1.443723e-06	-2.084893e-08	-1.002334e+01	-1.367744e+03
7.000000e-07	-1.342147e-06	-2.065208e-08	-9.318130e+00	-1.355112e+03
7.100000e-07	-1.240102e-06	-2.045551e-08	-8.609663e+00	-1.342177e+03
7.200000e-07	-1.137648e-06	-2.025726e-08	-7.898355e+00	-1.328938e+03
7.300000e-07	-1.034778e-06	-2.005121e-08	-7.184159e+00	-1.315366e+03
7.400000e-07	-9.315331e-07	-1.983621e-08	-6.467361e+00	-1.301412e+03
7.500000e-07	-8.280128e-07	-1.961529e-08	-5.748650e+00	-1.287022e+03
7.600000e-07	-7.242652e-07	-1.938731e-08	-5.028361e+00	-1.272155e+03
7.700000e-07	-6.203050e-07	-1.915418e-08	-4.306596e+00	-1.256789e+03
7.800000e-07	-5.161410e-07	-1.891390e-08	-3.583416e+00	-1.240924e+03
7.900000e-07	-4.118392e-07	-1.866485e-08	-2.859279e+00	-1.224567e+03
8.000000e-07	-3.073768e-07	-1.840745e-08	-2.134027e+00	-1.207711e+03
8.100000e-07	-2.028050e-07	-1.814254e-08	-1.408016e+00	-1.190318e+03
8.200000e-07	-9.821494e-08	-1.786647e-08	-6.818776e-01	-1.172316e+03
8.300000e-07	6.439107e-09	-1.757833e-08	4.470484e-02	-1.153603e+03
8.400000e-07	1.111191e-07	-1.727840e-08	7.714673e-01	-1.134065e+03
8.500000e-07	2.157436e-07	-1.696662e-08	1.497844e+00	-1.113596e+03
8.600000e-07	3.202739e-07	-1.664208e-08	2.223568e+00	-1.092103e+03
8.700000e-07	4.246383e-07	-1.629780e-08	2.948139e+00	-1.069506e+03
8.800000e-07	5.288545e-07	-1.593351e-08	3.671682e+00	-1.045717e+03
8.900000e-07	6.329467e-07	-1.555078e-08	4.394363e+00	-1.020614e+03
9.000000e-07	7.368240e-07	-1.514772e-08	5.115553e+00	-9.940144e+02
9.100000e-07	8.404942e-07	-1.471364e-08	5.835305e+00	-9.656718e+02
9.200000e-07	9.439338e-07	-1.424494e-08	6.553456e+00	-9.352749e+02
9.300000e-07	1.047060e-06	-1.374097e-08	7.269430e+00	-9.024656e+02
9.400000e-07	1.149839e-06	-1.319740e-08	7.982995e+00	-8.668481e+02
9.500000e-07	1.252206e-06	-1.260773e-08	8.693698e+00	-8.279812e+02
9.600000e-07	1.354105e-06	-1.195889e-08	9.401151e+00	-7.853426e+02
9.700000e-07	1.455563e-06	-1.123829e-08	1.010555e+01	-7.382715e+02
9.800000e-07	1.556522e-06	-1.043356e-08	1.080647e+01	-6.859116e+02
9.900000e-07	1.656937e-06	-9.529632e-09	1.150363e+01	-6.271839e+02
1.000000e-06	1.756865e-06	-8.505505e-09	1.219740e+01	-5.608249e+02
1.010000e-06	1.856255e-06	-7.344679e-09	1.288743e+01	-4.855094e+02
1.020000e-06	1.954894e-06	-6.031818e-09	1.357226e+01	-4.000568e+02
1.030000e-06	2.052563e-06	-4.555739e-09	1.425035e+01	-3.036897e+02
1.040000e-06	2.149298e-06	-2.910985e-09	1.492195e+01	-1.962934e+02
1.050000e-06	2.245300e-06	-1.105746e-09	1.558846e+01	-7.861055e+01
1.060000e-06	2.340609e-06	8.297340e-10	1.625016e+01	4.768562e+01
1.070000e-06	2.435133e-06	2.856014e-09	1.690641e+01	1.800713e+02
1.080000e-06	2.528859e-06	4.924225e-09	1.755713e+01	3.154022e+02
1.090000e-06	2.621795e-06	6.982564e-09	1.820235e+01	4.502542e+02
1.100000e-06	2.713939e-06	8.975726e-09	1.884208e+01	5.813060e+02
1.110000e-06	2.805145e-06	1.085960e-08	1.947530e+01	7.056891e+02
1.120000e-06	2.895132e-06	1.260523e-08	2.010006e+01	8.212389e+02
1.130000e-06	2.983867e-06	1.419837e-08	2.071611e+01	9.266098e+02
1.140000e-06	3.071603e-06	1.563071e-08	2.132524e+01	1.021249e+03
1.150000e-06	3.158428e-06	1.690080e-08	2.192804e+01	1.105265e+03
1.160000e-06	3.244215e-06	1.801714e-08	2.252363e+01	1.179228e+03
1.170000e-06	3.328890e-06	1.899534e-08	2.311151e+01	1.243972e+03
1.180000e-06	3.412504e-06	1.985134e-08	2.369201e+01	1.300429e+03
1.190000e-06	3.494901e-06	2.059092e-08	2.426408e+01	1.349521e+03
1.200000e-06	3.575969e-06	2.122598e-08	2.482691e+01	1.392113e+03
1.210000e-06	3.655769e-06	2.177568e-08	2.538093e+01	1.429005e+03
1.220000e-06	3.734262e-06	2.225692e-08	2.592589e+01	1.460944e+03
1.230000e-06	3.811428e-06	2.267557e-08	2.646163e+01	1.488626e+03
1.240000e-06	3.887188e-06	2.304009e-08	2.698761e+01	1.512701e+03
1.250000e-06	3.961279e-06	2.336194e-08	2.750200e+01	1.533750e+03
1.260000e-06	4.033725e-06	2.364757e-08	2.800497e+01	1.552269e+03
1.270000e-06	4.104779e-06	2.389759e-08	2.849828e+01	1.568662e+03
1.280000e-06	4.174445e-06	2.411407e-08	2.898195e+01	1.583243e+03
1.290000e-06	4.242774e-06	2.430433e-08	2.945634e+01	1.596259e+03
1.300000e-06	4.309574e-06	2.447775e-08	2.992011e+01	1.607909e+03
1.310000e-06	4.374623e-06	2.463851e-08	3.037173e+01	1.618372e+03
1.320000e-06	4.438114e-06	2.478554e-08	3.081253e+01	1.627817e+03
1.330000e-06	4.500186e-06	2.491997e-08	3.124347e+01	1.636397e+03
1.340000e-06	4.560893e-06	2.504407e-08	3.166494e+01	1.644246e+03
1.350000e-06	4.620044e-06	2.515712e-08	3.207561e+01	1.651463e+03
1.360000e-06	4.677339e-06	2.525791e-08	3.247340e+01	1.658113e+03
1.370000e-06	4.732870e-06	2.534668e-08	3.285893e+01	1.664230e+03
1.380000e-06	4.786694e-06	2.542821e-08	3.323261e+01	1.669841e+03
1.390000e-06	4.838656e-06	2.550843e-08	3.359337e+01	1.674976e+03
1.400000e-06	4.888550e-06	2.558491e-08	3.393977e+01	1.679685e+03
1.410000e-06	4.936535e-06	2.565367e-08	3.427292e+01	1.684039e+03
1.420000e-06	4.982865e-06	2.571616e-08	3.459457e+01	1.688116e+03
1.430000e-06	5.027578e-06	2.577663e-08	3.490500e+01	1.691983e+03
1.440000e-06	5.070477e-06	2.583359e-08	3.520284e+01	1.695678e+03
1.450000e-06	5.111439e-06	2.588442e-08	3.548723e+01	1.699199e+03
1.460000e-06	5.150639e-06	2.593302e-08	3.575938e+01	1.702517e+03
1.470000e-06	5.188132e-06	2.598167e-08	3.601968e+01	1.705586e+03
1.480000e-06	5.223911e-06	2.602732e-08	3.626808e+01	1.708371e+03
1.490000e-06	5.257704e-06	2.606748e-08	3.650270e+01	1.710864e+03
1.500000e-06	5.289517e-06	2.610356e-08	3.672357e+01	1.713089e+03
1.510000e-06	5.319629e-06	2.613839e-08	3.693262e+01	1.715095e+03
1.520000e-06	5.348074e-06	2.616937e-08	3.713011e+01	1.716937e+03
1.530000e-06	5.374506e-06	2.619445e-08	3.731362e+01	1.718651e+03
1.540000e-06	5.398832e-06	2.621615e-08	3.748251e+01	1.720245e+03
1.550000e-06	5.421297e-06	2.623793e-08	3.763848e+01	1.721698e+03
1.560000e-06	5.442018e-06	2.626023e-08	3.778233e+01	1.722972e+03
1.570000e-06	5.460884e-06	2.627997e-08	3.791332e+01	1.724035e+03
1.580000e-06	5.477698e-06	2.629581e-08	3.803005e+01	1.724879e+03
1.590000e-06	5.492559e-06	2.630767e-08	3.813323e+01	1.725530e+03
1.600000e-06	5.505406e-06	2.631590e-08	3.822242e+01	1.726040e+03
1.610000e-06	5.516024e-06	2.632015e-08	3.829614e+01	1.726469e+03
1.620000e-06	5.524532e-06	2.632340e-08	3.835521e+01	1.726857e+03
1.630000e-06	5.531182e-06	2.633039e-08	3.840138e+01	1.727214e+03
1.640000e-06	5.536033e-06	2.634007e-08	3.843505e+01	1.727510e+03
1.650000e-06	5.538872e-06	2.634747e-08	3.845477e+01	1.727688e+03
1.660000e-06	5.539626e-06	2.635092e-08	3.846000e+01	1.727693e+03
1.670000e-06	5.538577e-06	2.634370e-08	3.845272e+01	1.727491e+03
1.680000e-06	5.535866e-06	2.633057e-08	3.843390e+01	1.727091e+03
1.690000e-06	5.531389e-06	2.632232e-08	3.840282e+01	1.726539e+03
1.700000e-06	5.524940e-06	2.631407e-08	3.835804e+01	1.725903e+03
1.710000e-06	5.516706e-06	2.630619e-08	3.830088e+01	1.725241e+03
1.720000e-06	5.506829e-06	2.629967e-08	3.823230e+01	1.724581e+03
1.730000e-06	5.495091e-06	2.629915e-08	3.815081e+01	1.723900e+03
1.740000e-06	5.481305e-06	2.627978e-08	3.805509e+01	1.723136e+03
1.750000e-06	5.465454e-06	2.616611e-08	3.794504e+01	1.722210e+03
1.760000e-06	5.447226e-06	2.614367e-08	3.781849e+01	1.721061e+03
1.770000e-06	5.426166e-06	2.618083e-08	3.767228e+01	1.719669e+03
1.780000e-06	5.402785e-06	2.619924e-08	3.750995e+01	1.718071e+03
1.790000e-06	5.378097e-06	2.628252e-08	3.733855e+01	1.716352e+03
1.800000e-06	5.352660e-06	2.611476e-08	3.716195e+01	1.714609e+03
1.810000e-06	5.325721e-06	2.605454e-08	3.697492e+01	1.712919e+03
1.820000e-06	5.296350e-06	2.619450e-08	3.677101e+01	1.711306e+03
1.830000e-06	5.265176e-06	2.599419e-08	3.655458e+01	1.709727e+03
1.840000e-06	5.232343e-06	2.600882e-08	3.632663e+01	1.708086e+03
1.850000e-06	5.197613e-06	2.611481e-08	3.608551e+01	1.706261e+03
1.860000e-06	5.161325e-06	2.590881e-08	3.583357e+01	1.704147e+03
1.870000e-06	5.122963e-06	2.600832e-08	3.556723e+01	1.701688e+03
1.880000e-06	5.082621e-06	2.600031e-08	3.528715e+01	1.698892e+03
1.890000e-06	5.040826e-06	2.579467e-08	3.499698e+01	1.695821e+03
1.900000e-06	4.997163e-06	2.584972e-08	3.469384e+01	1.692570e+03
1.910000e-06	4.951618e-06	2.570924e-08	3.437763e+01	1.689228e+03
1.920000e-06	4.904259e-06	2.569553e-08	3.404883e+01	1.685850e+03
1.930000e-06	4.855028e-06	2.574858e-08	3.370704e+01	1.682441e+03
1.940000e-06	4.804139e-06	2.556017e-08	3.335373e+01	1.678965e+03
1.950000e-06	4.751201e-06	2.558604e-08	3.298620e+01	1.675364e+03
1.960000e-06	4.696273e-06	2.551692e-08	3.260485e+01	1.671582e+03
1.970000e-06	4.639738e-06	2.542364e-08	3.221234e+01	1.667588e+03
1.980000e-06	4.581557e-06	2.535751e-08	3.180841e+01	1.663387e+03
1.990000e-06	4.521871e-06	2.526317e-08	3.139402e+01	1.659005e+03
2.000000e-06	4.460424e-06	2.529273e-08	3.096742e+01	1.654479e+03
2.010000e-06	4.397291e-06	2.515817e-08	3.052910e+01	1.649834e+03
2.020000e-06	4.332649e-06	2.511351e-08	3.008032e+01	1.645072e+03
2.030000e-06	4.266491e-06	2.502556e-08	2.962100e+01	1.640172e+03
2.040000e-06	4.198940e-06	2.489014e-08	2.915201e+01	1.635101e+03
2.050000e-06	4.129580e-06	2.488720e-08	2.867047e+01	1.629830e+03
2.060000e-06	4.058551e-06	2.474715e-08	2.817733e+01	1.624349e+03
2.070000e-06	3.986248e-06	2.469479e-08	2.767535e+01	1.618672e+03
2.080000e-06	3.912617e-06	2.460186e-08	2.716415e+01	1.612826e+03
2.090000e-06	3.837485e-06	2.450754e-08	2.664253e+01	1.606841e+03
2.100000e-06	3.760563e-06	2.443684e-08	2.610849e+01	1.600731e+03
2.110000e-06	3.682037e-06	2.428545e-08	2.556331e+01	1.594484e+03
2.120000e-06	3.602300e-06	2.421297e-08	2.500971e+01	1.588067e+03
2.130000e-06	3.521434e-06	2.409463e-08	2.444829e+01	1.581434e+03
2.140000e-06	3.439446e-06	2.401305e-08	2.387907e+01	1.574547e+03
2.150000e-06	3.356338e-06	2.389448e-08	2.330207e+01	1.567390e+03
2.160000e-06	3.271997e-06	2.377555e-08	2.271651e+01	1.559974e+03
2.170000e-06	3.186267e-06	2.368484e-08	2.212132e+01	1.552337e+03
2.180000e-06	3.099262e-06	2.354423e-08	2.151727e+01	1.544519e+03
2.190000e-06	3.011229e-06	2.343535e-08	2.090608e+01	1.536551e+03
2.200000e-06	2.922260e-06	2.329279e-08	2.028840e+01	1.528439e+03
2.210000e-06	2.832341e-06	2.316942e-08	1.966412e+01	1.520156e+03
2.220000e-06	2.741492e-06	2.304212e-08	1.903338e+01	1.511659e+03
2.230000e-06	2.649727e-06	2.291101e-08	1.839628e+01	1.502902e+03
2.240000e-06	2.556939e-06	2.277865e-08	1.775208e+01	1.493850e+03
2.250000e-06	2.463090e-06	2.262754e-08	1.710051e+01	1.484499e+03
2.260000e-06	2.368282e-06	2.249291e-08	1.644229e+01	1.474866e+03
2.270000e-06	2.272658e-06	2.234248e-08	1.577840e+01	1.464982e+03
2.280000e-06	2.176282e-06	2.218928e-08	1.510929e+01	1.454874e+03
2.290000e-06	2.079221e-06	2.202448e-08	1.443542e+01	1.444547e+03
2.300000e-06	1.981463e-06	2.186338e-08	1.375672e+01	1.433983e+03
2.310000e-06	1.883072e-06	2.170600e-08	1.307362e+01	1.423142e+03
2.320000e-06	1.784200e-06	2.153631e-08	1.238718e+01	1.411978e+03
2.330000e-06	1.684855e-06	2.135983e-08	1.169746e+01	1.400459e+03
2.340000e-06	1.584897e-06	2.117767e-08	1.100347e+01	1.388573e+03
2.350000e-06	1.484243e-06	2.099594e-08	1.030466e+01	1.376334e+03
2.360000e-06	1.382863e-06	2.080443e-08	9.600814e+00	1.363768e+03
2.370000e-06	1.280826e-06	2.060536e-08	8.892398e+00	1.350897e+03
2.380000e-06	1.178365e-06	2.040275e-08	8.181045e+00	1.337725e+03
2.390000e-06	1.075561e-06	2.019897e-08	7.467302e+00	1.324227e+03
2.400000e-06	9.723630e-07	1.998894e-08	6.750832e+00	1.310360e+03
2.410000e-06	8.687183e-07	1.976827e-08	6.031257e+00	1.296067e+03
2.420000e-06	7.647553e-07	1.954022e-08	5.309472e+00	1.281304e+03
2.430000e-06	6.606067e-07	1.930745e-08	4.586399e+00	1.266045e+03
2.440000e-06	5.562187e-07	1.907055e-08	3.861663e+00	1.250286e+03
2.450000e-06	4.516134e-07	1.882640e-08	3.135420e+00	1.234035e+03
2.460000e-06	3.468473e-07	1.857158e-08	2.408059e+00	1.217287e+03
2.470000e-06	2.419748e-07	1.830619e-08	1.679960e+00	1.200013e+03
2.480000e-06	1.370633e-07	1.803257e-08	9.515906e-01	1.182149e+03
2.490000e-06	3.210290e-08	1.774804e-08	2.228810e-01	1.163597e+03
2.500000e-06	-7.285197e-08	1.745085e-08	-5.057899e-01	1.144246e+03
2.510000e-06	-1.777453e-07	1.714227e-08	-1.234033e+00	1.123984e+03
2.520000e-06	-2.825506e-07	1.682130e-08	-1.961666e+00	1.102717e+03
2.530000e-06	-3.872175e-07	1.648510e-08	-2.688338e+00	1.080364e+03
2.540000e-06	-4.917906e-07	1.613045e-08	-3.414358e+00	1.056838e+03
2.550000e-06	-5.962653e-07	1.575376e-08	-4.139696e+00	1.032029e+03
2.560000e-06	-7.004934e-07	1.535216e-08	-4.863320e+00	1.005769e+03
2.570000e-06	-8.044500e-07	1.492212e-08	-5.585061e+00	9.778234e+02
2.580000e-06	-9.080914e-07	1.446240e-08	-6.304613e+00	9.478953e+02
2.590000e-06	-1.011285e-06	1.396899e-08	-7.021057e+00	9.156346e+02
2.600000e-06	-1.114130e-06	1.343708e-08	-7.735079e+00	8.806538e+02
2.610000e-06	-1.216646e-06	1.286133e-08	-8.446817e+00	8.425234e+02
2.620000e-06	-1.318702e-06	1.223252e-08	-9.155364e+00	8.007426e+02
2.630000e-06	-1.420170e-06	1.153687e-08	-9.859825e+00	7.546857e+02
2.640000e-06	-1.520891e-06	1.075977e-08	-1.055910e+01	7.035421e+02
2.650000e-06	-1.620846e-06	9.889656e-09	-1.125306e+01	6.462799e+02
2.660000e-06	-1.720219e-06	8.909214e-09	-1.194298e+01	5.816679e+02
2.670000e-06	-1.819102e-06	7.798124e-09	-1.262949e+01	5.083794e+02
2.680000e-06	-1.917468e-06	6.538243e-09	-1.331242e+01	4.251820e+02
2.690000e-06	-2.015202e-06	5.118072e-09	-1.399096e+01	3.311892e+02
2.700000e-06	-2.112269e-06	3.532197e-09	-1.466486e+01	2.261248e+02
2.710000e-06	-2.208686e-06	1.784651e-09	-1.533426e+01	1.105366e+02
2.720000e-06	-2.304351e-06	-1.064146e-10	-1.599844e+01	-1.410021e+01
2.730000e-06	-2.399282e-06	-2.105949e-09	-1.665751e+01	-1.454295e+02
2.740000e-06	-2.493495e-06	-4.166487e-09	-1.731160e+01	-2.804141e+02
2.750000e-06	-2.586766e-06	-6.234708e-09	-1.795916e+01	-4.156580e+02
2.760000e-06	-2.678837e-06	-8.257567e-09	-1.859838e+01	-5.477859e+02
2.770000e-06	-2.769791e-06	-1.018939e-08	-1.922985e+01	-6.738073e+02
2.780000e-06	-2.859779e-06	-1.199258e-08	-1.985461e+01	-7.913920e+02
2.790000e-06	-2.948807e-06	-1.364360e-08	-2.047271e+01	-8.990164e+02
2.800000e-06	-3.036882e-06	-1.513446e-08	-2.108418e+01	-9.959667e+02
2.810000e-06	-3.124024e-06	-1.646526e-08	-2.168918e+01	-1.082224e+03
2.820000e-06	-3.210046e-06	-1.764035e-08	-2.228641e+01	-1.158277e+03
2.830000e-06	-3.294682e-06	-1.866902e-08	-2.287401e+01	-1.224920e+03
2.840000e-06	-3.378009e-06	-1.956672e-08	-2.345253e+01	-1.283074e+03
2.850000e-06	-3.460258e-06	-2.034890e-08	-2.402356e+01	-1.333669e+03
2.860000e-06	-3.541407e-06	-2.102589e-08	-2.458695e+01	-1.377585e+03
2.870000e-06	-3.621398e-06	-2.161172e-08	-2.514230e+01	-1.415635e+03
2.880000e-06	-3.700170e-06	-2.212130e-08	-2.568919e+01	-1.448574e+03
2.890000e-06	-3.777431e-06	-2.256415e-08	-2.622560e+01	-1.477113e+03
2.900000e-06	-3.853094e-06	-2.294871e-08	-2.675090e+01	-1.501910e+03
2.910000e-06	-3.927253e-06	-2.328249e-08	-2.726577e+01	-1.523562e+03
2.920000e-06	-3.999940e-06	-2.357496e-08	-2.777041e+01	-1.542587e+03
2.930000e-06	-4.071279e-06	-2.383333e-08	-2.826570e+01	-1.559406e+03
2.940000e-06	-4.141160e-06	-2.406209e-08	-2.875086e+01	-1.574353e+03
