# Temperatura_=_53.06
# Concentracion g/m^3_=_18700.0
# C_Vs_to_Am_M_A/Vsm_=_65563218390.804596
# pendiente_HvsI_1/m_=_3716.3
# ordenada_HvsI_A/m_=_1297.0
# frecuencia_Hz_=_300855.3457962323

Tiempo_(s)	Campo_(V.s)	Magnetizacion_(V.s)	Campo_(kA/m)	Magnetizacion_(A/m)
0.000000e+00	-5.515295e-06	-2.652480e-08	-3.829657e+01	-1.736982e+03
1.000000e-08	-5.514082e-06	-2.652152e-08	-3.828814e+01	-1.736742e+03
2.000000e-08	-5.510799e-06	-2.651283e-08	-3.826534e+01	-1.736403e+03
3.000000e-08	-5.505740e-06	-2.650425e-08	-3.823022e+01	-1.735976e+03
4.000000e-08	-5.499095e-06	-2.649882e-08	-3.818408e+01	-1.735458e+03
5.000000e-08	-5.490852e-06	-2.648968e-08	-3.812684e+01	-1.734832e+03
6.000000e-08	-5.480751e-06	-2.647476e-08	-3.805670e+01	-1.734073e+03
7.000000e-08	-5.468481e-06	-2.644670e-08	-3.797150e+01	-1.733156e+03
8.000000e-08	-5.454146e-06	-2.641266e-08	-3.787196e+01	-1.732069e+03
9.000000e-08	-5.437457e-06	-2.646154e-08	-3.775608e+01	-1.730814e+03
1.000000e-07	-5.418383e-06	-2.647789e-08	-3.762364e+01	-1.729414e+03
1.100000e-07	-5.397319e-06	-2.640428e-08	-3.747737e+01	-1.727908e+03
1.200000e-07	-5.374388e-06	-2.637719e-08	-3.731815e+01	-1.726341e+03
1.300000e-07	-5.350009e-06	-2.625773e-08	-3.714887e+01	-1.724755e+03
1.400000e-07	-5.324281e-06	-2.622942e-08	-3.697022e+01	-1.723174e+03
1.500000e-07	-5.296627e-06	-2.637731e-08	-3.677820e+01	-1.721597e+03
1.600000e-07	-5.267127e-06	-2.618791e-08	-3.657336e+01	-1.719998e+03
1.700000e-07	-5.236077e-06	-2.616356e-08	-3.635776e+01	-1.718329e+03
1.800000e-07	-5.203124e-06	-2.632532e-08	-3.612894e+01	-1.716534e+03
1.900000e-07	-5.168101e-06	-2.614108e-08	-3.588575e+01	-1.714556e+03
2.000000e-07	-5.131471e-06	-2.615236e-08	-3.563140e+01	-1.712355e+03
2.100000e-07	-5.093132e-06	-2.614860e-08	-3.536519e+01	-1.709912e+03
2.200000e-07	-5.052977e-06	-2.595896e-08	-3.508637e+01	-1.707234e+03
2.300000e-07	-5.010943e-06	-2.601833e-08	-3.479450e+01	-1.704345e+03
2.400000e-07	-4.966846e-06	-2.600712e-08	-3.448830e+01	-1.701281e+03
2.500000e-07	-4.920978e-06	-2.591618e-08	-3.416980e+01	-1.698074e+03
2.600000e-07	-4.873337e-06	-2.590830e-08	-3.383900e+01	-1.694748e+03
2.700000e-07	-4.823704e-06	-2.579639e-08	-3.349436e+01	-1.691314e+03
2.800000e-07	-4.771986e-06	-2.576294e-08	-3.313525e+01	-1.687768e+03
2.900000e-07	-4.718313e-06	-2.572034e-08	-3.276256e+01	-1.684095e+03
3.000000e-07	-4.662968e-06	-2.562793e-08	-3.237826e+01	-1.680281e+03
3.100000e-07	-4.605996e-06	-2.556311e-08	-3.198266e+01	-1.676315e+03
3.200000e-07	-4.547140e-06	-2.553173e-08	-3.157399e+01	-1.672192e+03
3.300000e-07	-4.486564e-06	-2.551342e-08	-3.115336e+01	-1.667914e+03
3.400000e-07	-4.424533e-06	-2.538894e-08	-3.072264e+01	-1.663488e+03
3.500000e-07	-4.361043e-06	-2.532005e-08	-3.028178e+01	-1.658917e+03
3.600000e-07	-4.296149e-06	-2.525415e-08	-2.983118e+01	-1.654204e+03
3.700000e-07	-4.229605e-06	-2.515700e-08	-2.936912e+01	-1.649344e+03
3.800000e-07	-4.161308e-06	-2.511515e-08	-2.889488e+01	-1.644329e+03
3.900000e-07	-4.091529e-06	-2.501754e-08	-2.841036e+01	-1.639152e+03
4.000000e-07	-4.020455e-06	-2.493820e-08	-2.791684e+01	-1.633806e+03
4.100000e-07	-3.948088e-06	-2.487215e-08	-2.741435e+01	-1.628289e+03
4.200000e-07	-3.874185e-06	-2.478039e-08	-2.690119e+01	-1.622604e+03
4.300000e-07	-3.798532e-06	-2.467891e-08	-2.637588e+01	-1.616751e+03
4.400000e-07	-3.721226e-06	-2.456854e-08	-2.583908e+01	-1.610730e+03
4.500000e-07	-3.642466e-06	-2.449108e-08	-2.529220e+01	-1.604534e+03
4.600000e-07	-3.562253e-06	-2.439806e-08	-2.473522e+01	-1.598150e+03
4.700000e-07	-3.480648e-06	-2.429860e-08	-2.416858e+01	-1.591565e+03
4.800000e-07	-3.397843e-06	-2.418884e-08	-2.359361e+01	-1.584766e+03
4.900000e-07	-3.313966e-06	-2.407240e-08	-2.301119e+01	-1.577746e+03
5.000000e-07	-3.229133e-06	-2.397371e-08	-2.242213e+01	-1.570505e+03
5.100000e-07	-3.143370e-06	-2.385658e-08	-2.182663e+01	-1.563050e+03
5.200000e-07	-3.056580e-06	-2.373667e-08	-2.122398e+01	-1.555389e+03
5.300000e-07	-2.968788e-06	-2.361753e-08	-2.061438e+01	-1.547525e+03
5.400000e-07	-2.880063e-06	-2.349714e-08	-1.999830e+01	-1.539453e+03
5.500000e-07	-2.790274e-06	-2.337298e-08	-1.937483e+01	-1.531161e+03
5.600000e-07	-2.699324e-06	-2.323603e-08	-1.874330e+01	-1.522629e+03
5.700000e-07	-2.607306e-06	-2.310082e-08	-1.810435e+01	-1.513835e+03
5.800000e-07	-2.514338e-06	-2.296269e-08	-1.745881e+01	-1.504766e+03
5.900000e-07	-2.420491e-06	-2.282327e-08	-1.680717e+01	-1.495420e+03
6.000000e-07	-2.325835e-06	-2.267001e-08	-1.614991e+01	-1.485805e+03
6.100000e-07	-2.230451e-06	-2.251154e-08	-1.548758e+01	-1.475935e+03
6.200000e-07	-2.134342e-06	-2.235740e-08	-1.482024e+01	-1.465824e+03
6.300000e-07	-2.037421e-06	-2.220067e-08	-1.414725e+01	-1.455477e+03
6.400000e-07	-1.939658e-06	-2.204232e-08	-1.346841e+01	-1.444881e+03
6.500000e-07	-1.841097e-06	-2.187403e-08	-1.278403e+01	-1.434014e+03
6.600000e-07	-1.741787e-06	-2.170136e-08	-1.209445e+01	-1.422843e+03
6.700000e-07	-1.641809e-06	-2.152493e-08	-1.140023e+01	-1.411337e+03
6.800000e-07	-1.541219e-06	-2.134183e-08	-1.070177e+01	-1.399476e+03
6.900000e-07	-1.440108e-06	-2.114725e-08	-9.999682e+00	-1.387253e+03
7.000000e-07	-1.338569e-06	-2.095037e-08	-9.294625e+00	-1.374679e+03
7.100000e-07	-1.236594e-06	-2.075969e-08	-8.586543e+00	-1.361767e+03
7.200000e-07	-1.134155e-06	-2.056577e-08	-7.875237e+00	-1.348528e+03
7.300000e-07	-1.031276e-06	-2.035969e-08	-7.160871e+00	-1.334958e+03
7.400000e-07	-9.280558e-07	-2.013970e-08	-6.444143e+00	-1.321037e+03
7.500000e-07	-8.245881e-07	-1.991586e-08	-5.725694e+00	-1.306725e+03
7.600000e-07	-7.209129e-07	-1.968819e-08	-5.005805e+00	-1.291979e+03
7.700000e-07	-6.170096e-07	-1.945308e-08	-4.284331e+00	-1.276758e+03
7.800000e-07	-5.128226e-07	-1.921310e-08	-3.560887e+00	-1.261035e+03
7.900000e-07	-4.084217e-07	-1.896986e-08	-2.835959e+00	-1.244799e+03
8.000000e-07	-3.039855e-07	-1.872101e-08	-2.110785e+00	-1.228050e+03
8.100000e-07	-1.994535e-07	-1.846151e-08	-1.384946e+00	-1.210786e+03
8.200000e-07	-9.478073e-08	-1.818745e-08	-6.581291e-01	-1.192987e+03
8.300000e-07	9.880812e-09	-1.790218e-08	6.860942e-02	-1.174607e+03
8.400000e-07	1.145023e-07	-1.761113e-08	7.950699e-01	-1.155569e+03
8.500000e-07	2.191440e-07	-1.730865e-08	1.521670e+00	-1.135772e+03
8.600000e-07	3.237524e-07	-1.699124e-08	2.248040e+00	-1.115101e+03
8.700000e-07	4.282021e-07	-1.665862e-08	2.973308e+00	-1.093443e+03
8.800000e-07	5.324482e-07	-1.631342e-08	3.697162e+00	-1.070699e+03
8.900000e-07	6.365121e-07	-1.595101e-08	4.419750e+00	-1.046779e+03
9.000000e-07	7.403903e-07	-1.556556e-08	5.141050e+00	-1.021597e+03
9.100000e-07	8.440207e-07	-1.515957e-08	5.860628e+00	-9.950524e+02
9.200000e-07	9.473993e-07	-1.473047e-08	6.578459e+00	-9.670135e+02
9.300000e-07	1.050463e-06	-1.427542e-08	7.294104e+00	-9.373008e+02
9.400000e-07	1.153150e-06	-1.378962e-08	8.007131e+00	-9.056815e+02
9.500000e-07	1.255439e-06	-1.326954e-08	8.717393e+00	-8.718689e+02
9.600000e-07	1.357322e-06	-1.271394e-08	9.424842e+00	-8.355229e+02
9.700000e-07	1.458824e-06	-1.211797e-08	1.012964e+01	-7.962460e+02
9.800000e-07	1.559865e-06	-1.147009e-08	1.083124e+01	-7.535712e+02
9.900000e-07	1.660358e-06	-1.075697e-08	1.152903e+01	-7.069416e+02
1.000000e-06	1.760183e-06	-9.968606e-09	1.222219e+01	-6.556913e+02
1.010000e-06	1.859302e-06	-9.097439e-09	1.291044e+01	-5.990419e+02
1.020000e-06	1.957746e-06	-8.132889e-09	1.359401e+01	-5.361295e+02
1.030000e-06	2.055421e-06	-7.059106e-09	1.427223e+01	-4.660740e+02
1.040000e-06	2.152231e-06	-5.864217e-09	1.494445e+01	-3.880940e+02
1.050000e-06	2.248213e-06	-4.539727e-09	1.561092e+01	-3.016517e+02
1.060000e-06	2.343478e-06	-3.083092e-09	1.627241e+01	-2.066074e+02
1.070000e-06	2.438031e-06	-1.500865e-09	1.692896e+01	-1.033471e+02
1.080000e-06	2.531791e-06	1.918299e-10	1.758000e+01	7.147171e+00
1.090000e-06	2.624705e-06	1.967691e-09	1.822517e+01	1.233096e+02
1.100000e-06	2.716705e-06	3.796037e-09	1.886399e+01	2.430913e+02
1.110000e-06	2.807713e-06	5.642455e-09	1.949592e+01	3.641375e+02
1.120000e-06	2.897626e-06	7.469543e-09	2.012025e+01	4.840126e+02
1.130000e-06	2.986324e-06	9.239440e-09	2.073614e+01	6.004302e+02
1.140000e-06	3.073924e-06	1.092305e-08	2.134441e+01	7.114498e+02
1.150000e-06	3.160543e-06	1.250044e-08	2.194587e+01	8.156075e+02
1.160000e-06	3.246197e-06	1.395926e-08	2.254063e+01	9.119655e+02
1.170000e-06	3.330830e-06	1.529207e-08	2.312829e+01	1.000085e+03
1.180000e-06	3.414353e-06	1.649859e-08	2.370825e+01	1.079939e+03
1.190000e-06	3.496671e-06	1.758354e-08	2.427985e+01	1.151800e+03
1.200000e-06	3.577655e-06	1.855583e-08	2.484217e+01	1.216123e+03
1.210000e-06	3.657373e-06	1.942482e-08	2.539571e+01	1.273454e+03
1.220000e-06	3.735837e-06	2.019308e-08	2.594054e+01	1.324367e+03
1.230000e-06	3.812946e-06	2.086934e-08	2.647596e+01	1.369437e+03
1.240000e-06	3.888532e-06	2.146543e-08	2.700081e+01	1.409232e+03
1.250000e-06	3.962479e-06	2.199339e-08	2.751427e+01	1.444313e+03
1.260000e-06	4.034919e-06	2.245810e-08	2.801728e+01	1.475233e+03
1.270000e-06	4.105963e-06	2.286723e-08	2.851059e+01	1.502526e+03
1.280000e-06	4.175631e-06	2.323140e-08	2.899434e+01	1.526694e+03
1.290000e-06	4.243901e-06	2.355865e-08	2.946839e+01	1.548181e+03
1.300000e-06	4.310578e-06	2.385044e-08	2.993137e+01	1.567365e+03
1.310000e-06	4.375588e-06	2.410939e-08	3.038278e+01	1.584550e+03
1.320000e-06	4.439088e-06	2.434055e-08	3.082370e+01	1.599977e+03
1.330000e-06	4.501160e-06	2.454838e-08	3.125472e+01	1.613841e+03
1.340000e-06	4.561816e-06	2.473430e-08	3.167589e+01	1.626306e+03
1.350000e-06	4.620881e-06	2.489977e-08	3.208602e+01	1.637526e+03
1.360000e-06	4.678135e-06	2.505154e-08	3.248357e+01	1.647649e+03
1.370000e-06	4.733656e-06	2.519349e-08	3.286910e+01	1.656816e+03
1.380000e-06	4.787510e-06	2.532720e-08	3.324304e+01	1.665156e+03
1.390000e-06	4.839424e-06	2.544979e-08	3.360352e+01	1.672777e+03
1.400000e-06	4.889202e-06	2.555867e-08	3.394917e+01	1.679759e+03
1.410000e-06	4.937059e-06	2.565480e-08	3.428146e+01	1.686158e+03
1.420000e-06	4.983298e-06	2.574059e-08	3.460254e+01	1.692013e+03
1.430000e-06	5.027974e-06	2.581799e-08	3.491275e+01	1.697358e+03
1.440000e-06	5.070775e-06	2.588892e-08	3.520995e+01	1.702228e+03
1.450000e-06	5.111598e-06	2.595627e-08	3.549341e+01	1.706670e+03
1.460000e-06	5.150699e-06	2.602142e-08	3.576492e+01	1.710739e+03
1.470000e-06	5.188194e-06	2.608279e-08	3.602527e+01	1.714489e+03
1.480000e-06	5.223959e-06	2.613885e-08	3.627361e+01	1.717969e+03
1.490000e-06	5.257744e-06	2.619004e-08	3.650821e+01	1.721209e+03
1.500000e-06	5.289608e-06	2.623658e-08	3.672946e+01	1.724221e+03
1.510000e-06	5.319714e-06	2.627863e-08	3.693851e+01	1.726997e+03
1.520000e-06	5.348089e-06	2.631605e-08	3.713553e+01	1.729523e+03
1.530000e-06	5.374456e-06	2.634814e-08	3.731862e+01	1.731784e+03
1.540000e-06	5.398705e-06	2.637714e-08	3.748700e+01	1.733774e+03
1.550000e-06	5.421101e-06	2.640362e-08	3.764251e+01	1.735505e+03
1.560000e-06	5.441815e-06	2.642820e-08	3.778634e+01	1.737000e+03
1.570000e-06	5.460688e-06	2.645012e-08	3.791739e+01	1.738293e+03
1.580000e-06	5.477468e-06	2.646868e-08	3.803391e+01	1.739415e+03
1.590000e-06	5.492248e-06	2.648528e-08	3.813653e+01	1.740391e+03
1.600000e-06	5.505023e-06	2.650083e-08	3.822524e+01	1.741229e+03
1.610000e-06	5.515557e-06	2.651194e-08	3.829838e+01	1.741928e+03
1.620000e-06	5.523979e-06	2.651624e-08	3.835686e+01	1.742476e+03
1.630000e-06	5.530576e-06	2.651841e-08	3.840267e+01	1.742860e+03
1.640000e-06	5.535363e-06	2.652126e-08	3.843591e+01	1.743077e+03
1.650000e-06	5.538122e-06	2.652512e-08	3.845507e+01	1.743130e+03
1.660000e-06	5.538832e-06	2.653014e-08	3.846000e+01	1.743037e+03
1.670000e-06	5.537752e-06	2.652832e-08	3.845250e+01	1.742820e+03
1.680000e-06	5.535010e-06	2.652530e-08	3.843346e+01	1.742500e+03
1.690000e-06	5.530421e-06	2.652220e-08	3.840159e+01	1.742092e+03
1.700000e-06	5.523822e-06	2.651184e-08	3.835577e+01	1.741594e+03
1.710000e-06	5.515490e-06	2.649813e-08	3.829792e+01	1.740992e+03
1.720000e-06	5.505559e-06	2.648828e-08	3.822896e+01	1.740263e+03
1.730000e-06	5.493752e-06	2.650315e-08	3.814697e+01	1.739381e+03
1.740000e-06	5.479802e-06	2.648338e-08	3.805012e+01	1.738330e+03
1.750000e-06	5.463798e-06	2.636602e-08	3.793899e+01	1.737109e+03
1.760000e-06	5.445412e-06	2.635409e-08	3.781132e+01	1.735737e+03
1.770000e-06	5.424196e-06	2.635755e-08	3.766400e+01	1.734249e+03
1.780000e-06	5.400757e-06	2.641202e-08	3.750125e+01	1.732691e+03
1.790000e-06	5.376225e-06	2.646993e-08	3.733090e+01	1.731106e+03
1.800000e-06	5.350928e-06	2.621881e-08	3.715525e+01	1.729522e+03
1.810000e-06	5.323775e-06	2.630403e-08	3.696671e+01	1.727945e+03
1.820000e-06	5.294220e-06	2.643172e-08	3.676149e+01	1.726353e+03
1.830000e-06	5.263098e-06	2.618262e-08	3.654539e+01	1.724704e+03
1.840000e-06	5.230200e-06	2.632979e-08	3.631695e+01	1.722940e+03
1.850000e-06	5.195442e-06	2.632749e-08	3.607560e+01	1.721005e+03
1.860000e-06	5.159077e-06	2.609746e-08	3.582310e+01	1.718854e+03
1.870000e-06	5.120595e-06	2.630282e-08	3.555589e+01	1.716462e+03
1.880000e-06	5.080315e-06	2.617658e-08	3.527619e+01	1.713833e+03
1.890000e-06	5.038422e-06	2.604024e-08	3.498530e+01	1.710986e+03
1.900000e-06	4.994631e-06	2.613126e-08	3.468123e+01	1.707955e+03
1.910000e-06	4.949145e-06	2.590995e-08	3.436539e+01	1.704775e+03
1.920000e-06	4.901731e-06	2.599703e-08	3.403616e+01	1.701474e+03
1.930000e-06	4.852424e-06	2.595314e-08	3.369379e+01	1.698062e+03
1.940000e-06	4.801476e-06	2.576560e-08	3.334002e+01	1.694540e+03
1.950000e-06	4.748379e-06	2.586202e-08	3.297133e+01	1.690895e+03
1.960000e-06	4.693361e-06	2.573480e-08	3.258930e+01	1.687112e+03
1.970000e-06	4.636691e-06	2.569334e-08	3.219580e+01	1.683179e+03
1.980000e-06	4.578427e-06	2.558798e-08	3.179123e+01	1.679089e+03
1.990000e-06	4.518698e-06	2.550319e-08	3.137649e+01	1.674843e+03
2.000000e-06	4.457171e-06	2.554330e-08	3.094927e+01	1.670448e+03
2.010000e-06	4.393990e-06	2.537608e-08	3.051056e+01	1.665907e+03
2.020000e-06	4.329284e-06	2.539236e-08	3.006126e+01	1.661224e+03
2.030000e-06	4.263150e-06	2.527244e-08	2.960204e+01	1.656395e+03
2.040000e-06	4.195552e-06	2.517525e-08	2.913266e+01	1.651414e+03
2.050000e-06	4.126099e-06	2.516410e-08	2.865040e+01	1.646272e+03
2.060000e-06	4.055049e-06	2.499289e-08	2.815705e+01	1.640961e+03
2.070000e-06	3.982678e-06	2.497924e-08	2.765453e+01	1.635481e+03
2.080000e-06	3.909007e-06	2.485656e-08	2.714298e+01	1.629831e+03
2.090000e-06	3.833807e-06	2.479693e-08	2.662082e+01	1.624014e+03
2.100000e-06	3.756791e-06	2.471632e-08	2.608604e+01	1.618029e+03
2.110000e-06	3.678250e-06	2.457669e-08	2.554067e+01	1.611870e+03
2.120000e-06	3.598467e-06	2.451913e-08	2.498668e+01	1.605527e+03
2.130000e-06	3.517502e-06	2.438539e-08	2.442448e+01	1.598986e+03
2.140000e-06	3.435406e-06	2.432577e-08	2.385444e+01	1.592233e+03
2.150000e-06	3.352278e-06	2.419569e-08	2.327722e+01	1.585260e+03
2.160000e-06	3.267850e-06	2.408557e-08	2.269098e+01	1.578065e+03
2.170000e-06	3.181930e-06	2.398534e-08	2.209437e+01	1.570655e+03
2.180000e-06	3.094814e-06	2.385159e-08	2.148947e+01	1.563037e+03
2.190000e-06	3.006748e-06	2.374958e-08	2.087796e+01	1.555215e+03
2.200000e-06	2.917799e-06	2.360974e-08	2.026033e+01	1.547189e+03
2.210000e-06	2.827898e-06	2.350114e-08	1.963608e+01	1.538945e+03
2.220000e-06	2.737081e-06	2.337070e-08	1.900548e+01	1.530465e+03
2.230000e-06	2.645314e-06	2.323988e-08	1.836827e+01	1.521728e+03
2.240000e-06	2.552504e-06	2.309407e-08	1.772383e+01	1.512719e+03
2.250000e-06	2.458656e-06	2.294926e-08	1.707217e+01	1.503431e+03
2.260000e-06	2.363884e-06	2.281455e-08	1.641410e+01	1.493872e+03
2.270000e-06	2.268346e-06	2.266581e-08	1.575072e+01	1.484055e+03
2.280000e-06	2.172067e-06	2.251836e-08	1.508219e+01	1.473994e+03
2.290000e-06	2.075007e-06	2.235682e-08	1.440823e+01	1.463697e+03
2.300000e-06	1.977233e-06	2.220114e-08	1.372932e+01	1.453156e+03
2.310000e-06	1.878943e-06	2.203368e-08	1.304682e+01	1.442349e+03
2.320000e-06	1.780159e-06	2.186642e-08	1.236089e+01	1.431245e+03
2.330000e-06	1.680743e-06	2.169132e-08	1.167058e+01	1.419813e+03
2.340000e-06	1.580689e-06	2.151544e-08	1.097584e+01	1.408028e+03
2.350000e-06	1.480016e-06	2.133422e-08	1.027679e+01	1.395882e+03
2.360000e-06	1.378690e-06	2.114029e-08	9.573216e+00	1.383381e+03
2.370000e-06	1.276752e-06	2.094432e-08	8.865387e+00	1.370540e+03
2.380000e-06	1.174268e-06	2.073990e-08	8.153768e+00	1.357370e+03
2.390000e-06	1.071326e-06	2.053925e-08	7.438968e+00	1.343872e+03
2.400000e-06	9.680069e-07	2.033140e-08	6.721552e+00	1.330028e+03
2.410000e-06	8.643456e-07	2.011785e-08	6.001758e+00	1.315803e+03
2.420000e-06	7.604129e-07	1.989670e-08	5.280081e+00	1.301153e+03
2.430000e-06	6.562425e-07	1.966365e-08	4.556753e+00	1.286036e+03
2.440000e-06	5.518625e-07	1.942116e-08	3.831968e+00	1.270422e+03
2.450000e-06	4.473642e-07	1.916962e-08	3.106364e+00	1.254296e+03
2.460000e-06	3.427469e-07	1.891282e-08	2.379933e+00	1.237656e+03
2.470000e-06	2.379568e-07	1.865400e-08	1.652301e+00	1.220502e+03
2.480000e-06	1.330843e-07	1.839148e-08	9.240978e-01	1.202820e+03
2.490000e-06	2.822341e-08	1.811874e-08	1.959750e-01	1.184570e+03
2.500000e-06	-7.665476e-08	1.783265e-08	-5.322678e-01	1.165680e+03
2.510000e-06	-1.815208e-07	1.753084e-08	-1.260427e+00	1.146055e+03
2.520000e-06	-2.862835e-07	1.721405e-08	-1.987867e+00	1.125580e+03
2.530000e-06	-3.908933e-07	1.688381e-08	-2.714246e+00	1.104142e+03
2.540000e-06	-4.953697e-07	1.654059e-08	-3.439700e+00	1.081638e+03
2.550000e-06	-5.997371e-07	1.618274e-08	-4.164396e+00	1.057976e+03
2.560000e-06	-7.039039e-07	1.580927e-08	-4.887699e+00	1.033072e+03
2.570000e-06	-8.078051e-07	1.541570e-08	-5.609158e+00	1.006829e+03
2.580000e-06	-9.114159e-07	1.499406e-08	-6.328600e+00	9.791228e+02
2.590000e-06	-1.014661e-06	1.454369e-08	-7.045504e+00	9.497859e+02
2.600000e-06	-1.117448e-06	1.406630e-08	-7.759224e+00	9.185970e+02
2.610000e-06	-1.219752e-06	1.355699e-08	-8.469595e+00	8.852806e+02
2.620000e-06	-1.321559e-06	1.301092e-08	-9.176514e+00	8.495083e+02
2.630000e-06	-1.422838e-06	1.242479e-08	-9.879764e+00	8.108955e+02
2.640000e-06	-1.523594e-06	1.179068e-08	-1.057939e+01	7.689918e+02
2.650000e-06	-1.623770e-06	1.110028e-08	-1.127498e+01	7.232612e+02
2.660000e-06	-1.723250e-06	1.034354e-08	-1.196573e+01	6.730624e+02
2.670000e-06	-1.822081e-06	9.505198e-09	-1.265199e+01	6.176400e+02
2.680000e-06	-1.920408e-06	8.569842e-09	-1.333474e+01	5.561440e+02
2.690000e-06	-2.018090e-06	7.525932e-09	-1.401302e+01	4.876899e+02
2.700000e-06	-2.115036e-06	6.366599e-09	-1.468618e+01	4.114634e+02
2.710000e-06	-2.211342e-06	5.085027e-09	-1.535490e+01	3.268614e+02
2.720000e-06	-2.307003e-06	3.673773e-09	-1.601914e+01	2.336468e+02
2.730000e-06	-2.401911e-06	2.134672e-09	-1.667815e+01	1.320847e+02
2.740000e-06	-2.495951e-06	4.813588e-10	-1.733114e+01	2.302706e+01
2.750000e-06	-2.589070e-06	-1.267194e-09	-1.797773e+01	-9.207964e+01
2.760000e-06	-2.681122e-06	-3.083428e-09	-1.861691e+01	-2.112773e+02
2.770000e-06	-2.772040e-06	-4.933473e-09	-1.924822e+01	-3.322590e+02
2.780000e-06	-2.861971e-06	-6.779138e-09	-1.987268e+01	-4.525865e+02
2.790000e-06	-2.950934e-06	-8.579611e-09	-2.049041e+01	-5.699232e+02
2.800000e-06	-3.038930e-06	-1.030097e-08	-2.110143e+01	-6.822408e+02
2.810000e-06	-3.125952e-06	-1.192081e-08	-2.170568e+01	-7.879664e+02
2.820000e-06	-3.211842e-06	-1.342505e-08	-2.230208e+01	-8.860494e+02
2.830000e-06	-3.296506e-06	-1.480656e-08	-2.288995e+01	-9.759492e+02
2.840000e-06	-3.379884e-06	-1.606249e-08	-2.346891e+01	-1.057560e+03
2.850000e-06	-3.462074e-06	-1.719512e-08	-2.403961e+01	-1.131101e+03
2.860000e-06	-3.543211e-06	-1.821252e-08	-2.460300e+01	-1.196996e+03
2.870000e-06	-3.623220e-06	-1.912153e-08	-2.515856e+01	-1.255778e+03
2.880000e-06	-3.701898e-06	-1.992892e-08	-2.570488e+01	-1.308018e+03
2.890000e-06	-3.779032e-06	-2.064319e-08	-2.624047e+01	-1.354293e+03
2.900000e-06	-3.854564e-06	-2.127386e-08	-2.676494e+01	-1.395172e+03
2.910000e-06	-3.928597e-06	-2.183116e-08	-2.727901e+01	-1.431216e+03
2.920000e-06	-4.001235e-06	-2.232249e-08	-2.778338e+01	-1.462982e+03
2.930000e-06	-4.072495e-06	-2.275443e-08	-2.827819e+01	-1.491010e+03
2.940000e-06	-4.142254e-06	-2.313609e-08	-2.876258e+01	-1.515808e+03
