# Temperatura_=_36.7
# Concentracion g/m^3_=_18700.0
# C_Vs_to_Am_M_A/Vsm_=_65563218390.804596
# pendiente_HvsI_1/m_=_3716.3
# ordenada_HvsI_A/m_=_1297.0
# frecuencia_Hz_=_300854.7436649898

Tiempo_(s)	Campo_(V.s)	Magnetizacion_(V.s)	Campo_(kA/m)	Magnetizacion_(A/m)
0.000000e+00	-5.515490e-06	-2.639139e-08	-3.828974e+01	-1.727293e+03
1.000000e-08	-5.512639e-06	-2.638665e-08	-3.826995e+01	-1.726967e+03
2.000000e-08	-5.507905e-06	-2.637615e-08	-3.823709e+01	-1.726482e+03
3.000000e-08	-5.501556e-06	-2.636566e-08	-3.819301e+01	-1.725869e+03
4.000000e-08	-5.493633e-06	-2.635290e-08	-3.813801e+01	-1.725154e+03
5.000000e-08	-5.483867e-06	-2.633677e-08	-3.807021e+01	-1.724354e+03
6.000000e-08	-5.471951e-06	-2.631462e-08	-3.798748e+01	-1.723465e+03
7.000000e-08	-5.458027e-06	-2.627785e-08	-3.789082e+01	-1.722466e+03
8.000000e-08	-5.441893e-06	-2.630627e-08	-3.777882e+01	-1.721330e+03
9.000000e-08	-5.423322e-06	-2.634109e-08	-3.764989e+01	-1.720034e+03
1.000000e-07	-5.402654e-06	-2.628458e-08	-3.750641e+01	-1.718574e+03
1.100000e-07	-5.380126e-06	-2.624750e-08	-3.735002e+01	-1.716968e+03
1.200000e-07	-5.356043e-06	-2.615006e-08	-3.718283e+01	-1.715254e+03
1.300000e-07	-5.330569e-06	-2.605691e-08	-3.700598e+01	-1.713477e+03
1.400000e-07	-5.303275e-06	-2.619982e-08	-3.681650e+01	-1.711679e+03
1.500000e-07	-5.274114e-06	-2.609826e-08	-3.661405e+01	-1.709874e+03
1.600000e-07	-5.243411e-06	-2.599258e-08	-3.640091e+01	-1.708047e+03
1.700000e-07	-5.210849e-06	-2.615162e-08	-3.617486e+01	-1.706150e+03
1.800000e-07	-5.176206e-06	-2.602844e-08	-3.593436e+01	-1.704115e+03
1.900000e-07	-5.139923e-06	-2.596169e-08	-3.568247e+01	-1.701873e+03
2.000000e-07	-5.101973e-06	-2.598704e-08	-3.541902e+01	-1.699373e+03
2.100000e-07	-5.062209e-06	-2.582435e-08	-3.514297e+01	-1.696595e+03
2.200000e-07	-5.020613e-06	-2.582491e-08	-3.485420e+01	-1.693557e+03
2.300000e-07	-4.976975e-06	-2.585244e-08	-3.455125e+01	-1.690308e+03
2.400000e-07	-4.931503e-06	-2.576534e-08	-3.423557e+01	-1.686906e+03
2.500000e-07	-4.884278e-06	-2.573749e-08	-3.390773e+01	-1.683407e+03
2.600000e-07	-4.835119e-06	-2.562391e-08	-3.356646e+01	-1.679841e+03
2.700000e-07	-4.783968e-06	-2.557897e-08	-3.321136e+01	-1.676207e+03
2.800000e-07	-4.730813e-06	-2.555634e-08	-3.284234e+01	-1.672476e+03
2.900000e-07	-4.675848e-06	-2.546410e-08	-3.246076e+01	-1.668604e+03
3.000000e-07	-4.619208e-06	-2.540470e-08	-3.206756e+01	-1.664547e+03
3.100000e-07	-4.560770e-06	-2.535881e-08	-3.166187e+01	-1.660276e+03
3.200000e-07	-4.500620e-06	-2.532686e-08	-3.124429e+01	-1.655791e+03
3.300000e-07	-4.438979e-06	-2.521626e-08	-3.081637e+01	-1.651112e+03
3.400000e-07	-4.375871e-06	-2.511950e-08	-3.037826e+01	-1.646278e+03
3.500000e-07	-4.311262e-06	-2.505377e-08	-2.992973e+01	-1.641326e+03
3.600000e-07	-4.245011e-06	-2.496892e-08	-2.946980e+01	-1.636277e+03
3.700000e-07	-4.177037e-06	-2.492503e-08	-2.899791e+01	-1.631131e+03
3.800000e-07	-4.107477e-06	-2.483867e-08	-2.851501e+01	-1.625867e+03
3.900000e-07	-4.036571e-06	-2.474327e-08	-2.802276e+01	-1.620447e+03
4.000000e-07	-3.964391e-06	-2.467104e-08	-2.752168e+01	-1.614831e+03
4.100000e-07	-3.890760e-06	-2.457654e-08	-2.701051e+01	-1.608991e+03
4.200000e-07	-3.815475e-06	-2.447441e-08	-2.648787e+01	-1.602915e+03
4.300000e-07	-3.738528e-06	-2.435749e-08	-2.595368e+01	-1.596614e+03
4.400000e-07	-3.660070e-06	-2.427257e-08	-2.540901e+01	-1.590108e+03
4.500000e-07	-3.580191e-06	-2.418905e-08	-2.485447e+01	-1.583422e+03
4.600000e-07	-3.498900e-06	-2.408435e-08	-2.429013e+01	-1.576574e+03
4.700000e-07	-3.416353e-06	-2.397288e-08	-2.371707e+01	-1.569566e+03
4.800000e-07	-3.332686e-06	-2.384949e-08	-2.313624e+01	-1.562385e+03
4.900000e-07	-3.248020e-06	-2.374125e-08	-2.254847e+01	-1.555007e+03
5.000000e-07	-3.162438e-06	-2.362405e-08	-2.195434e+01	-1.547406e+03
5.100000e-07	-3.075871e-06	-2.349969e-08	-2.135337e+01	-1.539563e+03
5.200000e-07	-2.988305e-06	-2.337460e-08	-2.074547e+01	-1.531467e+03
5.300000e-07	-2.899733e-06	-2.325150e-08	-2.013058e+01	-1.523122e+03
5.400000e-07	-2.810136e-06	-2.312834e-08	-1.950858e+01	-1.514536e+03
5.500000e-07	-2.719402e-06	-2.298574e-08	-1.887869e+01	-1.505723e+03
5.600000e-07	-2.627526e-06	-2.284214e-08	-1.824086e+01	-1.496689e+03
5.700000e-07	-2.534664e-06	-2.270054e-08	-1.759620e+01	-1.487434e+03
5.800000e-07	-2.440990e-06	-2.256057e-08	-1.694589e+01	-1.477948e+03
5.900000e-07	-2.346530e-06	-2.240895e-08	-1.629013e+01	-1.468218e+03
6.000000e-07	-2.251304e-06	-2.224714e-08	-1.562905e+01	-1.458228e+03
6.100000e-07	-2.155251e-06	-2.208653e-08	-1.496222e+01	-1.447967e+03
6.200000e-07	-2.058342e-06	-2.192511e-08	-1.428947e+01	-1.437430e+03
6.300000e-07	-1.960713e-06	-2.176318e-08	-1.361170e+01	-1.426613e+03
6.400000e-07	-1.862348e-06	-2.159298e-08	-1.292883e+01	-1.415516e+03
6.500000e-07	-1.763177e-06	-2.141858e-08	-1.224036e+01	-1.404134e+03
6.600000e-07	-1.663219e-06	-2.123927e-08	-1.154643e+01	-1.392460e+03
6.700000e-07	-1.562662e-06	-2.105481e-08	-1.084834e+01	-1.380480e+03
6.800000e-07	-1.461684e-06	-2.085896e-08	-1.014733e+01	-1.368179e+03
6.900000e-07	-1.360276e-06	-2.065626e-08	-9.443337e+00	-1.355540e+03
7.000000e-07	-1.258389e-06	-2.045727e-08	-8.736016e+00	-1.342551e+03
7.100000e-07	-1.156033e-06	-2.026157e-08	-8.025437e+00	-1.329203e+03
7.200000e-07	-1.053252e-06	-2.005939e-08	-7.311910e+00	-1.315487e+03
7.300000e-07	-9.501584e-07	-1.984237e-08	-6.596208e+00	-1.301398e+03
7.400000e-07	-8.467779e-07	-1.961743e-08	-5.878518e+00	-1.286928e+03
7.500000e-07	-7.430617e-07	-1.938653e-08	-5.158497e+00	-1.272062e+03
7.600000e-07	-6.390334e-07	-1.914800e-08	-4.436310e+00	-1.256783e+03
7.700000e-07	-5.348091e-07	-1.890316e-08	-3.712762e+00	-1.241070e+03
7.800000e-07	-4.304669e-07	-1.865696e-08	-2.988395e+00	-1.224898e+03
7.900000e-07	-3.259648e-07	-1.840816e-08	-2.262919e+00	-1.208242e+03
8.000000e-07	-2.212758e-07	-1.815341e-08	-1.536145e+00	-1.191072e+03
8.100000e-07	-1.164783e-07	-1.788562e-08	-8.086183e-01	-1.173356e+03
8.200000e-07	-1.164404e-08	-1.760411e-08	-8.083550e-02	-1.155050e+03
8.300000e-07	9.319944e-08	-1.731297e-08	6.470110e-01	-1.136100e+03
8.400000e-07	1.980271e-07	-1.700914e-08	1.374748e+00	-1.116439e+03
8.500000e-07	3.027736e-07	-1.669216e-08	2.101921e+00	-1.095987e+03
8.600000e-07	4.073814e-07	-1.636247e-08	2.828131e+00	-1.074658e+03
8.700000e-07	5.117966e-07	-1.602348e-08	3.553004e+00	-1.052358e+03
8.800000e-07	6.159486e-07	-1.567082e-08	4.276051e+00	-1.028993e+03
8.900000e-07	7.198631e-07	-1.529886e-08	4.997448e+00	-1.004462e+03
9.000000e-07	8.235383e-07	-1.490577e-08	5.717184e+00	-9.786601e+02
9.100000e-07	9.269140e-07	-1.449024e-08	6.434841e+00	-9.514667e+02
9.200000e-07	1.030026e-06	-1.405014e-08	7.150669e+00	-9.227401e+02
9.300000e-07	1.132870e-06	-1.358103e-08	7.864634e+00	-8.923092e+02
9.400000e-07	1.235307e-06	-1.308119e-08	8.575770e+00	-8.599652e+02
9.500000e-07	1.337251e-06	-1.254987e-08	9.283487e+00	-8.254543e+02
9.600000e-07	1.438744e-06	-1.198565e-08	9.988078e+00	-7.884684e+02
9.700000e-07	1.539851e-06	-1.137974e-08	1.068998e+01	-7.486335e+02
9.800000e-07	1.640541e-06	-1.072176e-08	1.138900e+01	-7.054974e+02
9.900000e-07	1.740672e-06	-1.000195e-08	1.208412e+01	-6.585200e+02
1.000000e-06	1.840034e-06	-9.210575e-09	1.277392e+01	-6.070726e+02
1.010000e-06	1.938575e-06	-8.338703e-09	1.345802e+01	-5.504545e+02
1.020000e-06	2.036348e-06	-7.376055e-09	1.413678e+01	-4.879341e+02
1.030000e-06	2.133299e-06	-6.312677e-09	1.480983e+01	-4.188177e+02
1.040000e-06	2.229393e-06	-5.140842e-09	1.547694e+01	-3.425437e+02
1.050000e-06	2.324727e-06	-3.857112e-09	1.613877e+01	-2.587901e+02
1.060000e-06	2.419369e-06	-2.459356e-09	1.679579e+01	-1.675802e+02
1.070000e-06	2.513262e-06	-9.527021e-10	1.744762e+01	-6.936303e+01
1.080000e-06	2.606401e-06	6.460759e-10	1.809421e+01	3.494883e+01
1.090000e-06	2.698722e-06	2.313359e-09	1.873512e+01	1.439991e+02
1.100000e-06	2.789961e-06	4.023524e-09	1.936853e+01	2.560681e+02
1.110000e-06	2.879986e-06	5.748894e-09	1.999350e+01	3.692049e+02
1.120000e-06	2.968870e-06	7.458392e-09	2.061055e+01	4.813918e+02
1.130000e-06	3.056737e-06	9.120906e-09	2.122054e+01	5.907150e+02
1.140000e-06	3.143613e-06	1.070949e-08	2.182365e+01	6.955145e+02
1.150000e-06	3.229458e-06	1.220686e-08	2.241961e+01	7.944904e+02
1.160000e-06	3.314303e-06	1.359970e-08	2.300862e+01	8.867538e+02
1.170000e-06	3.398080e-06	1.488168e-08	2.359022e+01	9.718209e+02
1.180000e-06	3.480643e-06	1.605358e-08	2.416339e+01	1.049561e+03
1.190000e-06	3.561939e-06	1.711773e-08	2.472776e+01	1.120116e+03
1.200000e-06	3.641929e-06	1.807932e-08	2.528307e+01	1.183812e+03
1.210000e-06	3.720601e-06	1.894402e-08	2.582923e+01	1.241078e+03
1.220000e-06	3.797964e-06	1.971732e-08	2.636630e+01	1.292386e+03
1.230000e-06	3.873893e-06	2.040414e-08	2.689341e+01	1.338220e+03
1.240000e-06	3.948174e-06	2.101402e-08	2.740909e+01	1.379058e+03
1.250000e-06	4.020867e-06	2.155782e-08	2.791374e+01	1.415370e+03
1.260000e-06	4.092163e-06	2.204140e-08	2.840870e+01	1.447620e+03
1.270000e-06	4.162092e-06	2.246937e-08	2.889415e+01	1.476269e+03
1.280000e-06	4.230721e-06	2.285154e-08	2.937060e+01	1.501761e+03
1.290000e-06	4.297861e-06	2.319731e-08	2.983669e+01	1.524510e+03
1.300000e-06	4.363251e-06	2.351017e-08	3.029065e+01	1.544890e+03
1.310000e-06	4.427053e-06	2.378755e-08	3.073357e+01	1.563217e+03
1.320000e-06	4.489405e-06	2.403232e-08	3.116644e+01	1.579753e+03
1.330000e-06	4.550379e-06	2.425393e-08	3.158973e+01	1.594701e+03
1.340000e-06	4.609843e-06	2.445497e-08	3.200254e+01	1.608225e+03
1.350000e-06	4.667497e-06	2.463666e-08	3.240279e+01	1.620463e+03
1.360000e-06	4.723387e-06	2.480295e-08	3.279079e+01	1.631538e+03
1.370000e-06	4.777597e-06	2.495775e-08	3.316713e+01	1.641568e+03
1.380000e-06	4.829892e-06	2.510158e-08	3.353017e+01	1.650672e+03
1.390000e-06	4.880057e-06	2.523176e-08	3.387843e+01	1.658960e+03
1.400000e-06	4.928304e-06	2.534711e-08	3.421337e+01	1.666532e+03
1.410000e-06	4.974893e-06	2.545113e-08	3.453680e+01	1.673467e+03
1.420000e-06	5.019909e-06	2.554566e-08	3.484931e+01	1.679827e+03
1.430000e-06	5.063140e-06	2.563117e-08	3.514943e+01	1.685655e+03
1.440000e-06	5.104432e-06	2.570937e-08	3.543609e+01	1.690985e+03
1.450000e-06	5.143932e-06	2.578245e-08	3.571031e+01	1.695846e+03
1.460000e-06	5.181743e-06	2.585160e-08	3.597280e+01	1.700275e+03
1.470000e-06	5.217887e-06	2.591480e-08	3.622372e+01	1.704317e+03
1.480000e-06	5.252048e-06	2.597354e-08	3.646087e+01	1.708020e+03
1.490000e-06	5.284251e-06	2.602870e-08	3.668443e+01	1.711431e+03
1.500000e-06	5.314737e-06	2.607889e-08	3.689607e+01	1.714587e+03
1.510000e-06	5.343499e-06	2.612207e-08	3.709575e+01	1.717507e+03
1.520000e-06	5.370295e-06	2.615858e-08	3.728177e+01	1.720192e+03
1.530000e-06	5.394970e-06	2.619223e-08	3.745307e+01	1.722627e+03
1.540000e-06	5.417732e-06	2.622413e-08	3.761109e+01	1.724792e+03
1.550000e-06	5.438787e-06	2.625390e-08	3.775725e+01	1.726672e+03
1.560000e-06	5.458032e-06	2.628029e-08	3.789086e+01	1.728265e+03
1.570000e-06	5.475269e-06	2.630382e-08	3.801052e+01	1.729589e+03
1.580000e-06	5.490547e-06	2.632447e-08	3.811658e+01	1.730679e+03
1.590000e-06	5.503818e-06	2.634045e-08	3.820871e+01	1.731579e+03
1.600000e-06	5.514835e-06	2.634992e-08	3.828519e+01	1.732331e+03
1.610000e-06	5.523676e-06	2.635447e-08	3.834657e+01	1.732961e+03
1.620000e-06	5.530624e-06	2.636010e-08	3.839481e+01	1.733479e+03
1.630000e-06	5.535746e-06	2.636777e-08	3.843036e+01	1.733872e+03
1.640000e-06	5.538911e-06	2.637351e-08	3.845233e+01	1.734119e+03
1.650000e-06	5.540015e-06	2.637896e-08	3.846000e+01	1.734193e+03
1.660000e-06	5.539272e-06	2.637926e-08	3.845484e+01	1.734081e+03
1.670000e-06	5.536898e-06	2.637438e-08	3.843836e+01	1.733786e+03
1.680000e-06	5.532760e-06	2.637013e-08	3.840964e+01	1.733326e+03
1.690000e-06	5.526629e-06	2.635963e-08	3.836707e+01	1.732733e+03
1.700000e-06	5.518650e-06	2.634497e-08	3.831168e+01	1.732034e+03
1.710000e-06	5.509020e-06	2.633299e-08	3.824483e+01	1.731248e+03
1.720000e-06	5.497560e-06	2.633787e-08	3.816527e+01	1.730375e+03
1.730000e-06	5.484069e-06	2.634356e-08	3.807161e+01	1.729396e+03
1.740000e-06	5.468572e-06	2.624223e-08	3.796403e+01	1.728286e+03
1.750000e-06	5.450681e-06	2.620190e-08	3.783982e+01	1.727019e+03
1.760000e-06	5.429947e-06	2.621049e-08	3.769588e+01	1.725587e+03
1.770000e-06	5.406859e-06	2.623269e-08	3.753560e+01	1.724004e+03
1.780000e-06	5.382472e-06	2.633229e-08	3.736630e+01	1.722305e+03
1.790000e-06	5.357394e-06	2.612955e-08	3.719220e+01	1.720535e+03
1.800000e-06	5.330718e-06	2.609349e-08	3.700701e+01	1.718738e+03
1.810000e-06	5.301571e-06	2.626525e-08	3.680467e+01	1.716934e+03
1.820000e-06	5.270713e-06	2.605742e-08	3.659044e+01	1.715112e+03
1.830000e-06	5.238204e-06	2.610321e-08	3.636476e+01	1.713231e+03
1.840000e-06	5.203809e-06	2.620367e-08	3.612598e+01	1.711226e+03
1.850000e-06	5.167800e-06	2.597882e-08	3.587600e+01	1.709025e+03
1.860000e-06	5.129811e-06	2.608888e-08	3.561228e+01	1.706572e+03
1.870000e-06	5.089931e-06	2.606189e-08	3.533542e+01	1.703843e+03
1.880000e-06	5.048424e-06	2.587483e-08	3.504727e+01	1.700848e+03
1.890000e-06	5.005019e-06	2.593563e-08	3.474594e+01	1.697631e+03
1.900000e-06	4.959859e-06	2.577328e-08	3.443243e+01	1.694251e+03
1.910000e-06	4.912862e-06	2.580344e-08	3.410616e+01	1.690766e+03
1.920000e-06	4.863955e-06	2.581683e-08	3.376664e+01	1.687210e+03
1.930000e-06	4.813394e-06	2.560586e-08	3.341564e+01	1.683589e+03
1.940000e-06	4.760799e-06	2.567312e-08	3.305051e+01	1.679878e+03
1.950000e-06	4.706232e-06	2.557754e-08	3.267170e+01	1.676034e+03
1.960000e-06	4.649930e-06	2.549147e-08	3.228083e+01	1.672011e+03
1.970000e-06	4.591949e-06	2.543248e-08	3.187832e+01	1.667779e+03
1.980000e-06	4.532475e-06	2.531102e-08	3.146544e+01	1.663330e+03
1.990000e-06	4.471293e-06	2.535384e-08	3.104070e+01	1.658683e+03
2.000000e-06	4.408413e-06	2.522076e-08	3.060417e+01	1.653873e+03
2.010000e-06	4.343961e-06	2.517821e-08	3.015673e+01	1.648938e+03
2.020000e-06	4.278056e-06	2.509833e-08	2.969921e+01	1.643905e+03
2.030000e-06	4.210697e-06	2.496605e-08	2.923158e+01	1.638777e+03
2.040000e-06	4.141567e-06	2.495781e-08	2.875167e+01	1.633536e+03
2.050000e-06	4.070829e-06	2.480348e-08	2.826059e+01	1.628146e+03
2.060000e-06	3.998684e-06	2.475775e-08	2.775974e+01	1.622567e+03
2.070000e-06	3.925214e-06	2.466860e-08	2.724970e+01	1.616767e+03
2.080000e-06	3.850263e-06	2.458241e-08	2.672937e+01	1.610732e+03
2.090000e-06	3.773596e-06	2.451579e-08	2.619713e+01	1.604469e+03
2.100000e-06	3.695417e-06	2.436247e-08	2.565440e+01	1.597997e+03
2.110000e-06	3.615920e-06	2.429086e-08	2.510251e+01	1.591341e+03
2.120000e-06	3.535264e-06	2.416232e-08	2.454258e+01	1.584521e+03
2.130000e-06	3.453464e-06	2.407825e-08	2.397471e+01	1.577541e+03
2.140000e-06	3.370476e-06	2.397204e-08	2.339858e+01	1.570391e+03
2.150000e-06	3.286207e-06	2.384866e-08	2.281357e+01	1.563049e+03
2.160000e-06	3.200592e-06	2.375263e-08	2.221921e+01	1.555490e+03
2.170000e-06	3.113795e-06	2.361722e-08	2.161665e+01	1.547690e+03
2.180000e-06	3.025961e-06	2.350351e-08	2.100688e+01	1.539639e+03
2.190000e-06	2.937159e-06	2.336199e-08	2.039041e+01	1.531336e+03
2.200000e-06	2.847413e-06	2.324322e-08	1.976736e+01	1.522792e+03
2.210000e-06	2.756742e-06	2.311989e-08	1.913791e+01	1.514018e+03
2.220000e-06	2.665100e-06	2.298182e-08	1.850171e+01	1.505023e+03
2.230000e-06	2.572473e-06	2.283635e-08	1.785867e+01	1.495807e+03
2.240000e-06	2.478877e-06	2.268466e-08	1.720891e+01	1.486362e+03
2.250000e-06	2.384258e-06	2.254875e-08	1.655204e+01	1.476676e+03
2.260000e-06	2.288798e-06	2.240190e-08	1.588934e+01	1.466732e+03
2.270000e-06	2.192595e-06	2.225267e-08	1.522148e+01	1.456520e+03
2.280000e-06	2.095624e-06	2.209119e-08	1.454828e+01	1.446031e+03
2.290000e-06	1.998016e-06	2.192903e-08	1.387067e+01	1.435263e+03
2.300000e-06	1.899905e-06	2.175799e-08	1.318956e+01	1.424216e+03
2.310000e-06	1.801203e-06	2.158295e-08	1.250434e+01	1.412884e+03
2.320000e-06	1.701754e-06	2.140518e-08	1.181395e+01	1.401262e+03
2.330000e-06	1.601710e-06	2.122692e-08	1.111943e+01	1.389337e+03
2.340000e-06	1.501154e-06	2.105126e-08	1.042134e+01	1.377094e+03
2.350000e-06	1.400030e-06	2.086181e-08	9.719316e+00	1.364516e+03
2.360000e-06	1.298335e-06	2.066262e-08	9.013324e+00	1.351590e+03
2.370000e-06	1.195998e-06	2.045258e-08	8.302884e+00	1.338305e+03
2.380000e-06	1.093102e-06	2.024453e-08	7.588553e+00	1.324655e+03
2.390000e-06	9.898168e-07	2.003439e-08	6.871526e+00	1.310632e+03
2.400000e-06	8.861907e-07	1.981721e-08	6.152130e+00	1.296230e+03
2.410000e-06	7.822742e-07	1.959495e-08	5.430720e+00	1.281435e+03
2.420000e-06	6.781299e-07	1.936492e-08	4.707726e+00	1.266231e+03
2.430000e-06	5.737552e-07	1.912697e-08	3.983134e+00	1.250596e+03
2.440000e-06	4.691861e-07	1.887717e-08	3.257193e+00	1.234507e+03
2.450000e-06	3.644383e-07	1.861908e-08	2.530011e+00	1.217938e+03
2.460000e-06	2.595627e-07	1.835796e-08	1.801941e+00	1.200862e+03
2.470000e-06	1.546462e-07	1.809276e-08	1.073588e+00	1.183246e+03
2.480000e-06	4.971766e-08	1.781983e-08	3.451509e-01	1.165048e+03
2.490000e-06	-5.515746e-08	1.753604e-08	-3.829152e-01	1.146217e+03
2.500000e-06	-1.600165e-07	1.723771e-08	-1.110870e+00	1.126687e+03
2.510000e-06	-2.648496e-07	1.692490e-08	-1.838644e+00	1.106382e+03
2.520000e-06	-3.695734e-07	1.660120e-08	-2.565659e+00	1.085215e+03
2.530000e-06	-4.741699e-07	1.626445e-08	-3.291792e+00	1.063095e+03
2.540000e-06	-5.785945e-07	1.591186e-08	-4.016730e+00	1.039926e+03
2.550000e-06	-6.828007e-07	1.554336e-08	-4.740152e+00	1.015610e+03
2.560000e-06	-7.867627e-07	1.515803e-08	-5.461880e+00	9.900428e+02
2.570000e-06	-8.904694e-07	1.474947e-08	-6.181834e+00	9.631068e+02
2.580000e-06	-9.938887e-07	1.431423e-08	-6.899794e+00	9.346648e+02
2.590000e-06	-1.096874e-06	1.385482e-08	-7.614739e+00	9.045515e+02
2.600000e-06	-1.199348e-06	1.336838e-08	-8.326138e+00	8.725655e+02
2.610000e-06	-1.301225e-06	1.284986e-08	-9.033388e+00	8.384617e+02
2.620000e-06	-1.402480e-06	1.229523e-08	-9.736326e+00	8.019424e+02
2.630000e-06	-1.503211e-06	1.169900e-08	-1.043562e+01	7.626461e+02
2.640000e-06	-1.603422e-06	1.105489e-08	-1.113130e+01	7.201357e+02
2.650000e-06	-1.703097e-06	1.035573e-08	-1.182327e+01	6.738871e+02
2.660000e-06	-1.802068e-06	9.590242e-09	-1.251035e+01	6.232869e+02
2.670000e-06	-1.900367e-06	8.746673e-09	-1.319276e+01	5.676449e+02
2.680000e-06	-1.998181e-06	7.815340e-09	-1.387181e+01	5.062307e+02
2.690000e-06	-2.095325e-06	6.786986e-09	-1.454621e+01	4.383378e+02
2.700000e-06	-2.191717e-06	5.651442e-09	-1.521538e+01	3.633730e+02
2.710000e-06	-2.287517e-06	4.402490e-09	-1.588045e+01	2.809638e+02
2.720000e-06	-2.382656e-06	3.039137e-09	-1.654092e+01	1.910647e+02
2.730000e-06	-2.476944e-06	1.566665e-09	-1.719549e+01	9.404456e+01
2.740000e-06	-2.570260e-06	-1.209499e-12	-1.784331e+01	-9.267168e+00
2.750000e-06	-2.662591e-06	-1.645181e-09	-1.848429e+01	-1.175892e+02
2.760000e-06	-2.753847e-06	-3.344453e-09	-1.911781e+01	-2.292584e+02
2.770000e-06	-2.844007e-06	-5.071445e-09	-1.974372e+01	-3.423537e+02
2.780000e-06	-2.933163e-06	-6.794210e-09	-2.036266e+01	-4.548565e+02
2.790000e-06	-3.021347e-06	-8.482316e-09	-2.097485e+01	-5.648227e+02
2.800000e-06	-3.108595e-06	-1.010843e-08	-2.158055e+01	-6.705375e+02
2.810000e-06	-3.194786e-06	-1.164671e-08	-2.217890e+01	-7.706314e+02
2.820000e-06	-3.279690e-06	-1.308164e-08	-2.276833e+01	-8.641409e+02
2.830000e-06	-3.363306e-06	-1.440610e-08	-2.334881e+01	-9.505126e+02
2.840000e-06	-3.445751e-06	-1.561880e-08	-2.392116e+01	-1.029558e+03
2.850000e-06	-3.527030e-06	-1.672447e-08	-2.448542e+01	-1.101378e+03
2.860000e-06	-3.607191e-06	-1.772876e-08	-2.504191e+01	-1.166270e+03
2.870000e-06	-3.686181e-06	-1.863591e-08	-2.559028e+01	-1.224650e+03
2.880000e-06	-3.763699e-06	-1.944828e-08	-2.612843e+01	-1.276988e+03
2.890000e-06	-3.839584e-06	-2.017240e-08	-2.665523e+01	-1.323765e+03
2.900000e-06	-3.913955e-06	-2.081673e-08	-2.717154e+01	-1.365461e+03
2.910000e-06	-3.986904e-06	-2.138832e-08	-2.767796e+01	-1.402548e+03
2.920000e-06	-4.058497e-06	-2.189339e-08	-2.817498e+01	-1.435490e+03
2.930000e-06	-4.128618e-06	-2.234192e-08	-2.866178e+01	-1.464750e+03
2.940000e-06	-4.197068e-06	-2.274493e-08	-2.913697e+01	-1.490775e+03
