# Temperatura_=_70.05
# Concentracion g/m^3_=_18700.0
# C_Vs_to_Am_M_A/Vsm_=_65563218390.804596
# pendiente_HvsI_1/m_=_3716.3
# ordenada_HvsI_A/m_=_1297.0
# frecuencia_Hz_=_300853.69269392086

Tiempo_(s)	Campo_(V.s)	Magnetizacion_(V.s)	Campo_(kA/m)	Magnetizacion_(A/m)
0.000000e+00	-5.520701e-06	-2.658778e-08	-3.828765e+01	-1.741111e+03
1.000000e-08	-5.517819e-06	-2.658194e-08	-3.826767e+01	-1.740798e+03
2.000000e-08	-5.513030e-06	-2.657421e-08	-3.823445e+01	-1.740312e+03
3.000000e-08	-5.506572e-06	-2.656539e-08	-3.818966e+01	-1.739677e+03
4.000000e-08	-5.498482e-06	-2.655402e-08	-3.813355e+01	-1.738933e+03
5.000000e-08	-5.488580e-06	-2.654152e-08	-3.806488e+01	-1.738117e+03
6.000000e-08	-5.476615e-06	-2.652411e-08	-3.798190e+01	-1.737249e+03
7.000000e-08	-5.462641e-06	-2.649309e-08	-3.788499e+01	-1.736323e+03
8.000000e-08	-5.446423e-06	-2.650054e-08	-3.777251e+01	-1.735313e+03
9.000000e-08	-5.427755e-06	-2.652356e-08	-3.764305e+01	-1.734183e+03
1.000000e-07	-5.406941e-06	-2.649243e-08	-3.749869e+01	-1.732908e+03
1.100000e-07	-5.384272e-06	-2.646308e-08	-3.734148e+01	-1.731487e+03
1.200000e-07	-5.360043e-06	-2.639707e-08	-3.717344e+01	-1.729951e+03
1.300000e-07	-5.334412e-06	-2.630574e-08	-3.699568e+01	-1.728348e+03
1.400000e-07	-5.307069e-06	-2.638277e-08	-3.680605e+01	-1.726731e+03
1.500000e-07	-5.277895e-06	-2.634467e-08	-3.660372e+01	-1.725127e+03
1.600000e-07	-5.247093e-06	-2.624128e-08	-3.639010e+01	-1.723528e+03
1.700000e-07	-5.214419e-06	-2.632653e-08	-3.616350e+01	-1.721883e+03
1.800000e-07	-5.179691e-06	-2.627493e-08	-3.592265e+01	-1.720109e+03
1.900000e-07	-5.143288e-06	-2.621886e-08	-3.567019e+01	-1.718119e+03
2.000000e-07	-5.105204e-06	-2.622253e-08	-3.540606e+01	-1.715847e+03
2.100000e-07	-5.065309e-06	-2.609291e-08	-3.512937e+01	-1.713269e+03
2.200000e-07	-5.023563e-06	-2.606859e-08	-3.483986e+01	-1.710413e+03
2.300000e-07	-4.979808e-06	-2.608801e-08	-3.453640e+01	-1.707342e+03
2.400000e-07	-4.934228e-06	-2.601468e-08	-3.422029e+01	-1.704136e+03
2.500000e-07	-4.886864e-06	-2.599462e-08	-3.389181e+01	-1.700864e+03
2.600000e-07	-4.837566e-06	-2.591332e-08	-3.354992e+01	-1.697560e+03
2.700000e-07	-4.786183e-06	-2.583926e-08	-3.319356e+01	-1.694214e+03
2.800000e-07	-4.732766e-06	-2.581719e-08	-3.282309e+01	-1.690783e+03
2.900000e-07	-4.677640e-06	-2.574798e-08	-3.244078e+01	-1.687209e+03
3.000000e-07	-4.620885e-06	-2.567095e-08	-3.204717e+01	-1.683442e+03
3.100000e-07	-4.562354e-06	-2.563444e-08	-3.164124e+01	-1.679459e+03
3.200000e-07	-4.502114e-06	-2.561905e-08	-3.122346e+01	-1.675270e+03
3.300000e-07	-4.440326e-06	-2.552360e-08	-3.079494e+01	-1.670911e+03
3.400000e-07	-4.377030e-06	-2.542721e-08	-3.035596e+01	-1.666427e+03
3.500000e-07	-4.312201e-06	-2.535999e-08	-2.990636e+01	-1.661854e+03
3.600000e-07	-4.245740e-06	-2.527510e-08	-2.944543e+01	-1.657200e+03
3.700000e-07	-4.177644e-06	-2.522789e-08	-2.897316e+01	-1.652449e+03
3.800000e-07	-4.108013e-06	-2.516233e-08	-2.849025e+01	-1.647562e+03
3.900000e-07	-4.037017e-06	-2.507563e-08	-2.799787e+01	-1.642497e+03
4.000000e-07	-3.964743e-06	-2.500797e-08	-2.749664e+01	-1.637220e+03
4.100000e-07	-3.891055e-06	-2.492381e-08	-2.698559e+01	-1.631722e+03
4.200000e-07	-3.815717e-06	-2.482597e-08	-2.646310e+01	-1.626012e+03
4.300000e-07	-3.738701e-06	-2.471686e-08	-2.592896e+01	-1.620114e+03
4.400000e-07	-3.660206e-06	-2.462876e-08	-2.538458e+01	-1.614052e+03
4.500000e-07	-3.580280e-06	-2.454798e-08	-2.483027e+01	-1.607838e+03
4.600000e-07	-3.498914e-06	-2.445609e-08	-2.426598e+01	-1.601468e+03
4.700000e-07	-3.416270e-06	-2.435361e-08	-2.369282e+01	-1.594923e+03
4.800000e-07	-3.332502e-06	-2.423838e-08	-2.311186e+01	-1.588176e+03
4.900000e-07	-3.247724e-06	-2.413592e-08	-2.252390e+01	-1.581207e+03
5.000000e-07	-3.162009e-06	-2.402507e-08	-2.192944e+01	-1.574006e+03
5.100000e-07	-3.075311e-06	-2.390698e-08	-2.132817e+01	-1.566575e+03
5.200000e-07	-2.987609e-06	-2.379095e-08	-2.071993e+01	-1.558925e+03
5.300000e-07	-2.898892e-06	-2.367507e-08	-2.010465e+01	-1.551065e+03
5.400000e-07	-2.809100e-06	-2.355928e-08	-1.948191e+01	-1.542996e+03
5.500000e-07	-2.718173e-06	-2.342919e-08	-1.885131e+01	-1.534708e+03
5.600000e-07	-2.626178e-06	-2.329049e-08	-1.821330e+01	-1.526180e+03
5.700000e-07	-2.533259e-06	-2.315231e-08	-1.756888e+01	-1.517390e+03
5.800000e-07	-2.439493e-06	-2.301955e-08	-1.691858e+01	-1.508324e+03
5.900000e-07	-2.344911e-06	-2.287885e-08	-1.626263e+01	-1.498977e+03
6.000000e-07	-2.249550e-06	-2.272658e-08	-1.560128e+01	-1.489358e+03
6.100000e-07	-2.153388e-06	-2.257189e-08	-1.493437e+01	-1.479476e+03
6.200000e-07	-2.056417e-06	-2.241654e-08	-1.426184e+01	-1.469339e+03
6.300000e-07	-1.958651e-06	-2.225944e-08	-1.358381e+01	-1.458940e+03
6.400000e-07	-1.860099e-06	-2.209184e-08	-1.290032e+01	-1.448260e+03
6.500000e-07	-1.760806e-06	-2.191593e-08	-1.221170e+01	-1.437270e+03
6.600000e-07	-1.660822e-06	-2.174037e-08	-1.151828e+01	-1.425941e+03
6.700000e-07	-1.560260e-06	-2.156504e-08	-1.082085e+01	-1.414254e+03
6.800000e-07	-1.459150e-06	-2.138030e-08	-1.011962e+01	-1.402207e+03
6.900000e-07	-1.357535e-06	-2.118742e-08	-9.414895e+00	-1.389809e+03
7.000000e-07	-1.255501e-06	-2.099484e-08	-8.707258e+00	-1.377075e+03
7.100000e-07	-1.153013e-06	-2.080192e-08	-7.996475e+00	-1.364010e+03
7.200000e-07	-1.050105e-06	-2.059838e-08	-7.282778e+00	-1.350604e+03
7.300000e-07	-9.468304e-07	-2.037863e-08	-6.566541e+00	-1.336824e+03
7.400000e-07	-8.432181e-07	-2.015253e-08	-5.847961e+00	-1.322626e+03
7.500000e-07	-7.393381e-07	-1.992649e-08	-5.127523e+00	-1.307963e+03
7.600000e-07	-6.351968e-07	-1.969529e-08	-4.405273e+00	-1.292801e+03
7.700000e-07	-5.308752e-07	-1.945590e-08	-3.681773e+00	-1.277129e+03
7.800000e-07	-4.264387e-07	-1.921077e-08	-2.957475e+00	-1.260950e+03
7.900000e-07	-3.218553e-07	-1.896136e-08	-2.232159e+00	-1.244276e+03
8.000000e-07	-2.171028e-07	-1.870434e-08	-1.505671e+00	-1.227104e+03
8.100000e-07	-1.122739e-07	-1.843173e-08	-7.786516e-01	-1.209400e+03
8.200000e-07	-7.445267e-09	-1.814512e-08	-5.163507e-02	-1.191092e+03
8.300000e-07	9.740791e-08	-1.785030e-08	6.755519e-01	-1.172072e+03
8.400000e-07	2.022420e-07	-1.754583e-08	1.402606e+00	-1.152215e+03
8.500000e-07	3.069953e-07	-1.722727e-08	2.129101e+00	-1.131398e+03
8.600000e-07	4.116177e-07	-1.689176e-08	2.854687e+00	-1.109517e+03
8.700000e-07	5.160743e-07	-1.654083e-08	3.579124e+00	-1.086495e+03
8.800000e-07	6.203690e-07	-1.617296e-08	4.302438e+00	-1.062266e+03
8.900000e-07	7.244851e-07	-1.578486e-08	5.024513e+00	-1.036754e+03
9.000000e-07	8.283341e-07	-1.537317e-08	5.744736e+00	-1.009846e+03
9.100000e-07	9.318520e-07	-1.493438e-08	6.462662e+00	-9.813685e+02
9.200000e-07	1.035041e-06	-1.446696e-08	7.178304e+00	-9.510803e+02
9.300000e-07	1.137932e-06	-1.396758e-08	7.891884e+00	-9.186764e+02
9.400000e-07	1.240424e-06	-1.343194e-08	8.602698e+00	-8.837998e+02
9.500000e-07	1.342443e-06	-1.285346e-08	9.310232e+00	-8.460473e+02
9.600000e-07	1.444022e-06	-1.222556e-08	1.001471e+01	-8.049607e+02
9.700000e-07	1.545110e-06	-1.154040e-08	1.071578e+01	-7.599986e+02
9.800000e-07	1.645665e-06	-1.078439e-08	1.141316e+01	-7.104976e+02
9.900000e-07	1.745715e-06	-9.941439e-09	1.210704e+01	-6.556407e+02
1.000000e-06	1.845212e-06	-8.996504e-09	1.279708e+01	-5.944588e+02
1.010000e-06	1.943899e-06	-7.937986e-09	1.348150e+01	-5.258862e+02
1.020000e-06	2.041629e-06	-6.751693e-09	1.415928e+01	-4.488819e+02
1.030000e-06	2.138521e-06	-5.423721e-09	1.483126e+01	-3.626055e+02
1.040000e-06	2.234700e-06	-3.949866e-09	1.549829e+01	-2.666214e+02
1.050000e-06	2.330186e-06	-2.333844e-09	1.616051e+01	-1.610847e+02
1.060000e-06	2.424909e-06	-5.862593e-10	1.681744e+01	-4.686517e+01
1.070000e-06	2.518851e-06	1.272375e-09	1.746896e+01	7.443168e+01
1.080000e-06	2.612028e-06	3.204408e-09	1.811516e+01	2.005601e+02
1.090000e-06	2.704408e-06	5.164476e-09	1.875585e+01	3.288365e+02
1.100000e-06	2.795827e-06	7.108468e-09	1.938986e+01	4.564124e+02
1.110000e-06	2.885983e-06	8.994424e-09	2.001512e+01	5.805654e+02
1.120000e-06	2.974915e-06	1.078663e-08	2.063189e+01	6.989547e+02
1.130000e-06	3.062846e-06	1.245933e-08	2.124172e+01	8.097964e+02
1.140000e-06	3.149816e-06	1.399825e-08	2.184488e+01	9.119379e+02
1.150000e-06	3.235807e-06	1.539904e-08	2.244125e+01	1.004834e+03
1.160000e-06	3.320774e-06	1.666154e-08	2.303053e+01	1.088447e+03
1.170000e-06	3.404667e-06	1.778835e-08	2.361235e+01	1.163110e+03
1.180000e-06	3.487287e-06	1.878624e-08	2.418534e+01	1.229388e+03
1.190000e-06	3.568575e-06	1.966735e-08	2.474909e+01	1.287957e+03
1.200000e-06	3.648591e-06	2.044243e-08	2.530403e+01	1.339532e+03
1.210000e-06	3.727308e-06	2.112040e-08	2.584995e+01	1.384819e+03
1.220000e-06	3.804693e-06	2.171199e-08	2.638664e+01	1.424504e+03
1.230000e-06	3.880648e-06	2.222947e-08	2.691341e+01	1.459245e+03
1.240000e-06	3.954949e-06	2.268584e-08	2.742871e+01	1.489669e+03
1.250000e-06	4.027671e-06	2.308900e-08	2.793306e+01	1.516362e+03
1.260000e-06	4.099028e-06	2.344434e-08	2.842794e+01	1.539856e+03
1.270000e-06	4.169010e-06	2.375748e-08	2.891328e+01	1.560616e+03
1.280000e-06	4.237649e-06	2.403508e-08	2.938931e+01	1.579036e+03
1.290000e-06	4.304724e-06	2.428176e-08	2.985450e+01	1.595441e+03
1.300000e-06	4.370055e-06	2.450020e-08	3.030759e+01	1.610096e+03
1.310000e-06	4.433817e-06	2.469364e-08	3.074980e+01	1.623223e+03
1.320000e-06	4.496169e-06	2.486899e-08	3.118223e+01	1.635013e+03
1.330000e-06	4.557116e-06	2.503059e-08	3.160491e+01	1.645632e+03
1.340000e-06	4.616523e-06	2.517852e-08	3.201692e+01	1.655227e+03
1.350000e-06	4.674157e-06	2.531292e-08	3.241662e+01	1.663923e+03
1.360000e-06	4.730006e-06	2.543453e-08	3.280396e+01	1.671820e+03
1.370000e-06	4.784138e-06	2.554520e-08	3.317938e+01	1.679004e+03
1.380000e-06	4.836368e-06	2.564587e-08	3.354161e+01	1.685545e+03
1.390000e-06	4.886551e-06	2.573779e-08	3.388963e+01	1.691510e+03
1.400000e-06	4.934830e-06	2.582142e-08	3.422447e+01	1.696967e+03
1.410000e-06	4.981432e-06	2.589772e-08	3.454766e+01	1.701984e+03
1.420000e-06	5.026442e-06	2.596749e-08	3.485982e+01	1.706628e+03
1.430000e-06	5.069663e-06	2.603170e-08	3.515957e+01	1.710955e+03
1.440000e-06	5.110941e-06	2.609268e-08	3.544585e+01	1.715001e+03
1.450000e-06	5.150433e-06	2.615057e-08	3.571973e+01	1.718780e+03
1.460000e-06	5.188235e-06	2.620450e-08	3.598190e+01	1.722288e+03
1.470000e-06	5.224308e-06	2.625451e-08	3.623208e+01	1.725513e+03
1.480000e-06	5.258437e-06	2.630217e-08	3.646877e+01	1.728446e+03
1.490000e-06	5.290595e-06	2.634623e-08	3.669180e+01	1.731092e+03
1.500000e-06	5.321030e-06	2.638445e-08	3.690287e+01	1.733475e+03
1.510000e-06	5.349805e-06	2.641645e-08	3.710244e+01	1.735632e+03
1.520000e-06	5.376575e-06	2.644503e-08	3.728810e+01	1.737601e+03
1.530000e-06	5.401195e-06	2.647244e-08	3.745884e+01	1.739409e+03
1.540000e-06	5.423933e-06	2.649746e-08	3.761654e+01	1.741063e+03
1.550000e-06	5.444973e-06	2.652056e-08	3.776246e+01	1.742551e+03
1.560000e-06	5.464235e-06	2.654193e-08	3.789605e+01	1.743850e+03
1.570000e-06	5.481467e-06	2.656146e-08	3.801555e+01	1.744939e+03
1.580000e-06	5.496611e-06	2.657742e-08	3.812058e+01	1.745809e+03
1.590000e-06	5.509691e-06	2.658844e-08	3.821130e+01	1.746478e+03
1.600000e-06	5.520552e-06	2.659544e-08	3.828662e+01	1.746980e+03
1.610000e-06	5.529267e-06	2.659995e-08	3.834706e+01	1.747360e+03
1.620000e-06	5.536169e-06	2.660460e-08	3.839492e+01	1.747653e+03
1.630000e-06	5.541296e-06	2.660909e-08	3.843048e+01	1.747877e+03
1.640000e-06	5.544446e-06	2.661264e-08	3.845233e+01	1.748021e+03
1.650000e-06	5.545552e-06	2.661562e-08	3.846000e+01	1.748056e+03
1.660000e-06	5.544785e-06	2.661489e-08	3.845468e+01	1.747945e+03
1.670000e-06	5.542315e-06	2.661082e-08	3.843755e+01	1.747664e+03
1.680000e-06	5.538082e-06	2.660503e-08	3.840819e+01	1.747206e+03
1.690000e-06	5.531950e-06	2.659325e-08	3.836567e+01	1.746595e+03
1.700000e-06	5.523976e-06	2.657960e-08	3.831037e+01	1.745866e+03
1.710000e-06	5.514272e-06	2.657014e-08	3.824306e+01	1.745060e+03
1.720000e-06	5.502634e-06	2.657003e-08	3.816235e+01	1.744200e+03
1.730000e-06	5.488920e-06	2.656991e-08	3.806724e+01	1.743286e+03
1.740000e-06	5.473272e-06	2.649859e-08	3.795872e+01	1.742293e+03
1.750000e-06	5.455303e-06	2.645978e-08	3.783409e+01	1.741186e+03
1.760000e-06	5.434515e-06	2.645728e-08	3.768993e+01	1.739936e+03
1.770000e-06	5.411385e-06	2.646064e-08	3.752951e+01	1.738540e+03
1.780000e-06	5.386950e-06	2.653418e-08	3.736005e+01	1.737020e+03
1.790000e-06	5.361721e-06	2.641397e-08	3.718508e+01	1.735424e+03
1.800000e-06	5.334890e-06	2.635076e-08	3.699900e+01	1.733806e+03
1.810000e-06	5.305700e-06	2.646848e-08	3.679656e+01	1.732198e+03
1.820000e-06	5.274766e-06	2.635230e-08	3.658202e+01	1.730601e+03
1.830000e-06	5.242158e-06	2.634334e-08	3.635587e+01	1.728968e+03
1.840000e-06	5.207675e-06	2.639476e-08	3.611672e+01	1.727223e+03
1.850000e-06	5.171519e-06	2.624792e-08	3.586597e+01	1.725276e+03
1.860000e-06	5.133341e-06	2.631710e-08	3.560120e+01	1.723057e+03
1.870000e-06	5.093274e-06	2.629779e-08	3.532332e+01	1.720533e+03
1.880000e-06	5.051630e-06	2.615144e-08	3.503451e+01	1.717722e+03
1.890000e-06	5.008167e-06	2.618501e-08	3.473308e+01	1.714682e+03
1.900000e-06	4.962892e-06	2.604913e-08	3.441909e+01	1.711495e+03
1.910000e-06	4.915772e-06	2.603274e-08	3.409229e+01	1.708230e+03
1.920000e-06	4.866819e-06	2.607106e-08	3.375279e+01	1.704930e+03
1.930000e-06	4.816131e-06	2.590510e-08	3.340126e+01	1.701593e+03
1.940000e-06	4.763359e-06	2.591494e-08	3.303526e+01	1.698181e+03
1.950000e-06	4.708630e-06	2.587134e-08	3.265571e+01	1.694636e+03
1.960000e-06	4.652209e-06	2.577891e-08	3.226441e+01	1.690906e+03
1.970000e-06	4.594155e-06	2.570512e-08	3.186179e+01	1.686961e+03
1.980000e-06	4.534548e-06	2.561186e-08	3.144840e+01	1.682805e+03
1.990000e-06	4.473155e-06	2.562200e-08	3.102262e+01	1.678472e+03
2.000000e-06	4.410122e-06	2.552393e-08	3.058547e+01	1.674007e+03
2.010000e-06	4.345555e-06	2.547694e-08	3.013768e+01	1.669447e+03
2.020000e-06	4.279512e-06	2.540756e-08	2.967965e+01	1.664808e+03
2.030000e-06	4.212058e-06	2.529176e-08	2.921183e+01	1.660076e+03
2.040000e-06	4.142855e-06	2.526431e-08	2.873189e+01	1.655216e+03
2.050000e-06	4.072038e-06	2.513847e-08	2.824075e+01	1.650184e+03
2.060000e-06	3.999847e-06	2.507501e-08	2.774009e+01	1.644946e+03
2.070000e-06	3.926301e-06	2.499732e-08	2.723003e+01	1.639486e+03
2.080000e-06	3.851253e-06	2.491488e-08	2.670955e+01	1.633812e+03
2.090000e-06	3.774468e-06	2.485362e-08	2.617702e+01	1.627945e+03
2.100000e-06	3.696111e-06	2.472733e-08	2.563360e+01	1.621910e+03
2.110000e-06	3.616453e-06	2.464670e-08	2.508114e+01	1.615723e+03
2.120000e-06	3.535674e-06	2.453597e-08	2.452092e+01	1.609381e+03
2.130000e-06	3.453748e-06	2.444667e-08	2.395273e+01	1.602868e+03
2.140000e-06	3.370581e-06	2.434600e-08	2.337595e+01	1.596159e+03
2.150000e-06	3.286123e-06	2.423449e-08	2.279021e+01	1.589230e+03
2.160000e-06	3.200318e-06	2.414224e-08	2.219513e+01	1.582069e+03
2.170000e-06	3.113355e-06	2.401849e-08	2.159201e+01	1.574678e+03
2.180000e-06	3.025399e-06	2.390828e-08	2.098201e+01	1.567065e+03
2.190000e-06	2.936471e-06	2.378168e-08	2.036527e+01	1.559242e+03
2.200000e-06	2.846604e-06	2.366038e-08	1.974202e+01	1.551210e+03
2.210000e-06	2.755782e-06	2.354216e-08	1.911214e+01	1.542962e+03
2.220000e-06	2.663946e-06	2.341510e-08	1.847523e+01	1.534477e+03
2.230000e-06	2.571107e-06	2.327844e-08	1.783137e+01	1.525735e+03
2.240000e-06	2.477297e-06	2.313451e-08	1.718077e+01	1.516718e+03
2.250000e-06	2.382574e-06	2.299721e-08	1.652384e+01	1.507420e+03
2.260000e-06	2.287089e-06	2.285444e-08	1.586162e+01	1.497848e+03
2.270000e-06	2.190796e-06	2.270980e-08	1.519380e+01	1.488012e+03
2.280000e-06	2.093715e-06	2.255749e-08	1.452052e+01	1.477919e+03
2.290000e-06	1.995971e-06	2.240371e-08	1.384264e+01	1.467568e+03
2.300000e-06	1.897654e-06	2.224172e-08	1.316078e+01	1.456939e+03
2.310000e-06	1.798834e-06	2.207413e-08	1.247543e+01	1.446006e+03
2.320000e-06	1.699405e-06	2.190021e-08	1.178586e+01	1.434738e+03
2.330000e-06	1.599337e-06	2.172360e-08	1.109186e+01	1.423115e+03
2.340000e-06	1.498632e-06	2.154619e-08	1.039345e+01	1.411131e+03
2.350000e-06	1.397206e-06	2.135812e-08	9.690028e+00	1.398794e+03
2.360000e-06	1.295178e-06	2.116571e-08	8.982436e+00	1.386119e+03
2.370000e-06	1.192686e-06	2.096662e-08	8.271620e+00	1.373113e+03
2.380000e-06	1.089776e-06	2.076526e-08	7.557912e+00	1.359768e+03
2.390000e-06	9.864552e-07	2.055702e-08	6.841351e+00	1.346058e+03
2.400000e-06	8.827293e-07	2.034134e-08	6.121982e+00	1.331937e+03
2.410000e-06	7.787270e-07	2.012198e-08	5.400696e+00	1.317359e+03
2.420000e-06	6.744742e-07	1.989369e-08	4.677673e+00	1.302287e+03
2.430000e-06	5.700180e-07	1.965570e-08	3.953239e+00	1.286705e+03
2.440000e-06	4.654194e-07	1.940777e-08	3.227818e+00	1.270615e+03
2.450000e-06	3.606637e-07	1.915183e-08	2.501307e+00	1.254028e+03
2.460000e-06	2.557650e-07	1.889088e-08	1.773804e+00	1.236946e+03
2.470000e-06	1.507848e-07	1.862466e-08	1.045736e+00	1.219340e+03
2.480000e-06	4.578852e-08	1.834984e-08	3.175566e-01	1.201147e+03
2.490000e-06	-5.922736e-08	1.806319e-08	-4.107588e-01	1.182262e+03
2.500000e-06	-1.642063e-07	1.776427e-08	-1.138818e+00	1.162563e+03
2.510000e-06	-2.690958e-07	1.745056e-08	-1.866257e+00	1.141925e+03
2.520000e-06	-3.738923e-07	1.712007e-08	-2.593051e+00	1.120240e+03
2.530000e-06	-4.785790e-07	1.677140e-08	-3.319083e+00	1.097426e+03
2.540000e-06	-5.831208e-07	1.640528e-08	-4.044111e+00	1.073416e+03
2.550000e-06	-6.874506e-07	1.602245e-08	-4.767668e+00	1.048140e+03
2.560000e-06	-7.915057e-07	1.561963e-08	-5.489320e+00	1.021491e+03
2.570000e-06	-8.952500e-07	1.519215e-08	-6.208817e+00	9.933087e+02
2.580000e-06	-9.986734e-07	1.473725e-08	-6.926087e+00	9.633638e+02
2.590000e-06	-1.101740e-06	1.425262e-08	-7.640885e+00	9.313618e+02
2.600000e-06	-1.204397e-06	1.373143e-08	-8.352841e+00	8.969543e+02
2.610000e-06	-1.306559e-06	1.316603e-08	-9.061359e+00	8.597463e+02
2.620000e-06	-1.408119e-06	1.255089e-08	-9.765712e+00	8.192912e+02
2.630000e-06	-1.509035e-06	1.187880e-08	-1.046559e+01	7.750650e+02
2.640000e-06	-1.609300e-06	1.114046e-08	-1.116096e+01	7.264291e+02
2.650000e-06	-1.708907e-06	1.032842e-08	-1.185176e+01	6.725949e+02
2.660000e-06	-1.807986e-06	9.425888e-09	-1.253890e+01	6.126183e+02
2.670000e-06	-1.906553e-06	8.411059e-09	-1.322249e+01	5.454438e+02
2.680000e-06	-2.004398e-06	7.268463e-09	-1.390108e+01	4.700145e+02
2.690000e-06	-2.101517e-06	5.986829e-09	-1.457463e+01	3.854394e+02
2.700000e-06	-2.198023e-06	4.559108e-09	-1.524392e+01	2.911958e+02
2.710000e-06	-2.293850e-06	2.985515e-09	-1.590851e+01	1.873219e+02
2.720000e-06	-2.389000e-06	1.276864e-09	-1.656841e+01	7.455503e+01
2.730000e-06	-2.483452e-06	-5.463693e-10	-1.722345e+01	-4.562712e+01
2.740000e-06	-2.576904e-06	-2.454629e-09	-1.787157e+01	-1.710810e+02
2.750000e-06	-2.669165e-06	-4.409548e-09	-1.851143e+01	-2.991827e+02
2.760000e-06	-2.760335e-06	-6.367744e-09	-1.914372e+01	-4.270913e+02
2.770000e-06	-2.850556e-06	-8.283541e-09	-1.976943e+01	-5.520418e+02
2.780000e-06	-2.939785e-06	-1.011829e-08	-2.038825e+01	-6.716095e+02
2.790000e-06	-3.027977e-06	-1.184389e-08	-2.099989e+01	-7.839027e+02
2.800000e-06	-3.115233e-06	-1.344056e-08	-2.160504e+01	-8.876551e+02
2.810000e-06	-3.201472e-06	-1.489636e-08	-2.220313e+01	-9.822182e+02
2.820000e-06	-3.286400e-06	-1.620969e-08	-2.279213e+01	-1.067474e+03
2.830000e-06	-3.370009e-06	-1.738623e-08	-2.337198e+01	-1.143700e+03
2.840000e-06	-3.452509e-06	-1.843346e-08	-2.394414e+01	-1.211428e+03
2.850000e-06	-3.533916e-06	-1.935949e-08	-2.450872e+01	-1.271322e+03
2.860000e-06	-3.614154e-06	-2.017509e-08	-2.506520e+01	-1.324095e+03
2.870000e-06	-3.693157e-06	-2.089247e-08	-2.561311e+01	-1.370454e+03
2.880000e-06	-3.770679e-06	-2.152202e-08	-2.615075e+01	-1.411091e+03
2.890000e-06	-3.846558e-06	-2.207315e-08	-2.667698e+01	-1.446669e+03
2.900000e-06	-3.920966e-06	-2.255507e-08	-2.719303e+01	-1.477820e+03
2.910000e-06	-3.993992e-06	-2.297794e-08	-2.769949e+01	-1.505139e+03
2.920000e-06	-4.065619e-06	-2.335050e-08	-2.819624e+01	-1.529169e+03
2.930000e-06	-4.135768e-06	-2.367846e-08	-2.868274e+01	-1.550387e+03
2.940000e-06	-4.204227e-06	-2.396912e-08	-2.915752e+01	-1.569201e+03
