# Temperatura_=_76.84
# Concentracion g/m^3_=_18700.0
# C_Vs_to_Am_M_A/Vsm_=_65563218390.804596
# pendiente_HvsI_1/m_=_3716.3
# ordenada_HvsI_A/m_=_1297.0
# frecuencia_Hz_=_300854.5808106112

Tiempo_(s)	Campo_(V.s)	Magnetizacion_(V.s)	Campo_(kA/m)	Magnetizacion_(A/m)
0.000000e+00	-5.528325e-06	-2.661214e-08	-3.829513e+01	-1.743047e+03
1.000000e-08	-5.527002e-06	-2.661267e-08	-3.828597e+01	-1.742858e+03
2.000000e-08	-5.523642e-06	-2.660568e-08	-3.826269e+01	-1.742516e+03
3.000000e-08	-5.518452e-06	-2.659640e-08	-3.822674e+01	-1.742027e+03
4.000000e-08	-5.511623e-06	-2.658703e-08	-3.817943e+01	-1.741412e+03
5.000000e-08	-5.503130e-06	-2.657503e-08	-3.812060e+01	-1.740698e+03
6.000000e-08	-5.492716e-06	-2.655933e-08	-3.804847e+01	-1.739909e+03
7.000000e-08	-5.480182e-06	-2.653146e-08	-3.796164e+01	-1.739048e+03
8.000000e-08	-5.465631e-06	-2.650705e-08	-3.786084e+01	-1.738101e+03
9.000000e-08	-5.448770e-06	-2.655491e-08	-3.774405e+01	-1.737044e+03
1.000000e-07	-5.429515e-06	-2.656650e-08	-3.761067e+01	-1.735854e+03
1.100000e-07	-5.408208e-06	-2.650793e-08	-3.746307e+01	-1.734526e+03
1.200000e-07	-5.385089e-06	-2.648242e-08	-3.730292e+01	-1.733082e+03
1.300000e-07	-5.360530e-06	-2.636506e-08	-3.713280e+01	-1.731562e+03
1.400000e-07	-5.334544e-06	-2.633703e-08	-3.695279e+01	-1.730016e+03
1.500000e-07	-5.306656e-06	-2.645961e-08	-3.675961e+01	-1.728479e+03
1.600000e-07	-5.276970e-06	-2.630033e-08	-3.655397e+01	-1.726955e+03
1.700000e-07	-5.245750e-06	-2.628103e-08	-3.633771e+01	-1.725410e+03
1.800000e-07	-5.212572e-06	-2.640726e-08	-3.610789e+01	-1.723772e+03
1.900000e-07	-5.177343e-06	-2.625480e-08	-3.586385e+01	-1.721956e+03
2.000000e-07	-5.140474e-06	-2.625467e-08	-3.560846e+01	-1.719885e+03
2.100000e-07	-5.101907e-06	-2.623310e-08	-3.534130e+01	-1.717517e+03
2.200000e-07	-5.061554e-06	-2.608069e-08	-3.506177e+01	-1.714855e+03
2.300000e-07	-5.019277e-06	-2.612168e-08	-3.476892e+01	-1.711946e+03
2.400000e-07	-4.974951e-06	-2.610918e-08	-3.446187e+01	-1.708861e+03
2.500000e-07	-4.928844e-06	-2.604394e-08	-3.414248e+01	-1.705672e+03
2.600000e-07	-4.880921e-06	-2.601005e-08	-3.381052e+01	-1.702427e+03
2.700000e-07	-4.830990e-06	-2.590482e-08	-3.346464e+01	-1.699137e+03
2.800000e-07	-4.779003e-06	-2.587873e-08	-3.310452e+01	-1.695779e+03
2.900000e-07	-4.725064e-06	-2.582737e-08	-3.273088e+01	-1.692307e+03
3.000000e-07	-4.669466e-06	-2.574880e-08	-3.234575e+01	-1.688675e+03
3.100000e-07	-4.612228e-06	-2.569752e-08	-3.194925e+01	-1.684856e+03
3.200000e-07	-4.553173e-06	-2.566475e-08	-3.154018e+01	-1.680847e+03
3.300000e-07	-4.492458e-06	-2.564121e-08	-3.111960e+01	-1.676670e+03
3.400000e-07	-4.430267e-06	-2.552913e-08	-3.068880e+01	-1.672355e+03
3.500000e-07	-4.366604e-06	-2.544961e-08	-3.024780e+01	-1.667928e+03
3.600000e-07	-4.301365e-06	-2.537894e-08	-2.979589e+01	-1.663393e+03
3.700000e-07	-4.234421e-06	-2.530053e-08	-2.933216e+01	-1.658734e+03
3.800000e-07	-4.165806e-06	-2.525642e-08	-2.885685e+01	-1.653919e+03
3.900000e-07	-4.095674e-06	-2.516736e-08	-2.837105e+01	-1.648916e+03
4.000000e-07	-4.024287e-06	-2.509569e-08	-2.787654e+01	-1.643704e+03
4.100000e-07	-3.951600e-06	-2.502738e-08	-2.737304e+01	-1.638285e+03
4.200000e-07	-3.877324e-06	-2.493851e-08	-2.685852e+01	-1.632680e+03
4.300000e-07	-3.801362e-06	-2.483198e-08	-2.633233e+01	-1.626916e+03
4.400000e-07	-3.723855e-06	-2.472172e-08	-2.579543e+01	-1.621015e+03
4.500000e-07	-3.644871e-06	-2.464685e-08	-2.524830e+01	-1.614976e+03
4.600000e-07	-3.564384e-06	-2.456006e-08	-2.469076e+01	-1.608780e+03
4.700000e-07	-3.482543e-06	-2.446502e-08	-2.412384e+01	-1.602390e+03
4.800000e-07	-3.399488e-06	-2.435988e-08	-2.354851e+01	-1.595768e+03
4.900000e-07	-3.315361e-06	-2.424935e-08	-2.296576e+01	-1.588892e+03
5.000000e-07	-3.230277e-06	-2.414750e-08	-2.237638e+01	-1.581763e+03
5.100000e-07	-3.144236e-06	-2.402984e-08	-2.178036e+01	-1.574406e+03
5.200000e-07	-3.057219e-06	-2.390682e-08	-2.117759e+01	-1.566854e+03
5.300000e-07	-2.969231e-06	-2.378640e-08	-2.056809e+01	-1.559139e+03
5.400000e-07	-2.880213e-06	-2.367189e-08	-1.995146e+01	-1.551266e+03
5.500000e-07	-2.790071e-06	-2.355314e-08	-1.932703e+01	-1.543216e+03
5.600000e-07	-2.698787e-06	-2.342266e-08	-1.869471e+01	-1.534943e+03
5.700000e-07	-2.606408e-06	-2.329165e-08	-1.805479e+01	-1.526396e+03
5.800000e-07	-2.513088e-06	-2.315675e-08	-1.740835e+01	-1.517535e+03
5.900000e-07	-2.418973e-06	-2.301875e-08	-1.675641e+01	-1.508346e+03
6.000000e-07	-2.324096e-06	-2.286698e-08	-1.609919e+01	-1.498846e+03
6.100000e-07	-2.228460e-06	-2.270859e-08	-1.543672e+01	-1.489072e+03
6.200000e-07	-2.132064e-06	-2.255321e-08	-1.476897e+01	-1.479066e+03
6.300000e-07	-2.034857e-06	-2.239844e-08	-1.409561e+01	-1.468851e+03
6.400000e-07	-1.936778e-06	-2.224239e-08	-1.341621e+01	-1.458420e+03
6.500000e-07	-1.837846e-06	-2.207930e-08	-1.273090e+01	-1.447733e+03
6.600000e-07	-1.738150e-06	-2.191153e-08	-1.204030e+01	-1.436732e+03
6.700000e-07	-1.637837e-06	-2.173744e-08	-1.134542e+01	-1.425360e+03
6.800000e-07	-1.536980e-06	-2.155597e-08	-1.064678e+01	-1.413582e+03
6.900000e-07	-1.435605e-06	-2.136241e-08	-9.944546e+00	-1.401395e+03
7.000000e-07	-1.333759e-06	-2.116355e-08	-9.239051e+00	-1.388826e+03
7.100000e-07	-1.231485e-06	-2.096743e-08	-8.530590e+00	-1.375918e+03
7.200000e-07	-1.128769e-06	-2.077064e-08	-7.819067e+00	-1.362701e+03
7.300000e-07	-1.025649e-06	-2.056748e-08	-7.104749e+00	-1.349182e+03
7.400000e-07	-9.221987e-07	-2.035317e-08	-6.388141e+00	-1.335330e+03
7.500000e-07	-8.184284e-07	-2.013401e-08	-5.669316e+00	-1.321084e+03
7.600000e-07	-7.143905e-07	-1.990884e-08	-4.948638e+00	-1.306376e+03
7.700000e-07	-6.101178e-07	-1.967200e-08	-4.226333e+00	-1.291145e+03
7.800000e-07	-5.057009e-07	-1.942703e-08	-3.503029e+00	-1.275359e+03
7.900000e-07	-4.011539e-07	-1.917583e-08	-2.778824e+00	-1.259016e+03
8.000000e-07	-2.964190e-07	-1.892098e-08	-2.053317e+00	-1.242128e+03
8.100000e-07	-1.915484e-07	-1.866120e-08	-1.326870e+00	-1.224704e+03
8.200000e-07	-8.665393e-08	-1.838968e-08	-6.002584e-01	-1.206724e+03
8.300000e-07	1.820502e-08	-1.810549e-08	1.261076e-01	-1.188122e+03
8.400000e-07	1.230906e-07	-1.780955e-08	8.526581e-01	-1.168794e+03
8.500000e-07	2.279902e-07	-1.749810e-08	1.579306e+00	-1.148608e+03
8.600000e-07	3.328054e-07	-1.717058e-08	2.305369e+00	-1.127426e+03
8.700000e-07	4.374850e-07	-1.682638e-08	3.030492e+00	-1.105128e+03
8.800000e-07	5.420315e-07	-1.646562e-08	3.754694e+00	-1.081616e+03
8.900000e-07	6.464176e-07	-1.608898e-08	4.477785e+00	-1.056803e+03
9.000000e-07	7.505756e-07	-1.569312e-08	5.199295e+00	-1.030596e+03
9.100000e-07	8.544908e-07	-1.527220e-08	5.919123e+00	-1.002862e+03
9.200000e-07	9.580970e-07	-1.482004e-08	6.636811e+00	-9.734080e+02
9.300000e-07	1.061344e-06	-1.433556e-08	7.352009e+00	-9.419728e+02
9.400000e-07	1.164223e-06	-1.381495e-08	8.064665e+00	-9.082262e+02
9.500000e-07	1.266700e-06	-1.325421e-08	8.774528e+00	-8.717760e+02
9.600000e-07	1.368733e-06	-1.264847e-08	9.481319e+00	-8.321666e+02
9.700000e-07	1.470278e-06	-1.198867e-08	1.018473e+01	-7.888626e+02
9.800000e-07	1.571373e-06	-1.126378e-08	1.088502e+01	-7.412169e+02
9.900000e-07	1.672057e-06	-1.045857e-08	1.158247e+01	-6.884359e+02
1.000000e-06	1.772266e-06	-9.554696e-09	1.227663e+01	-6.295633e+02
1.010000e-06	1.871793e-06	-8.536519e-09	1.296605e+01	-5.635094e+02
1.020000e-06	1.970403e-06	-7.392873e-09	1.364914e+01	-4.891444e+02
1.030000e-06	2.068089e-06	-6.108166e-09	1.432581e+01	-4.054585e+02
1.040000e-06	2.164992e-06	-4.670554e-09	1.499706e+01	-3.117701e+02
1.050000e-06	2.261164e-06	-3.079376e-09	1.566326e+01	-2.079425e+02
1.060000e-06	2.356584e-06	-1.344635e-09	1.632424e+01	-9.455737e+01
1.070000e-06	2.451219e-06	5.133317e-10	1.697979e+01	2.700408e+01
1.080000e-06	2.545050e-06	2.465036e-09	1.762975e+01	1.546043e+02
1.090000e-06	2.638120e-06	4.466934e-09	1.827446e+01	2.855221e+02
1.100000e-06	2.730395e-06	6.468962e-09	1.891365e+01	4.167266e+02
1.110000e-06	2.821633e-06	8.422264e-09	1.954567e+01	5.452031e+02
1.120000e-06	2.911593e-06	1.028890e-08	2.016883e+01	6.682637e+02
1.130000e-06	3.000408e-06	1.203823e-08	2.078406e+01	7.837879e+02
1.140000e-06	3.088219e-06	1.365077e-08	2.139233e+01	8.903504e+02
1.150000e-06	3.175031e-06	1.511561e-08	2.199368e+01	9.872296e+02
1.160000e-06	3.260821e-06	1.643084e-08	2.258796e+01	1.074313e+03
1.170000e-06	3.345571e-06	1.760346e-08	2.317503e+01	1.151938e+03
1.180000e-06	3.429217e-06	1.864249e-08	2.375445e+01	1.220721e+03
1.190000e-06	3.511541e-06	1.955839e-08	2.432472e+01	1.281403e+03
1.200000e-06	3.592646e-06	2.036302e-08	2.488654e+01	1.334747e+03
1.210000e-06	3.672527e-06	2.106695e-08	2.543988e+01	1.381489e+03
1.220000e-06	3.751008e-06	2.168040e-08	2.598352e+01	1.422327e+03
1.230000e-06	3.828114e-06	2.221554e-08	2.651764e+01	1.457933e+03
1.240000e-06	3.903738e-06	2.268021e-08	2.704149e+01	1.488958e+03
1.250000e-06	3.977758e-06	2.308608e-08	2.755424e+01	1.516033e+03
1.260000e-06	4.050271e-06	2.344385e-08	2.805654e+01	1.539752e+03
1.270000e-06	4.121354e-06	2.376069e-08	2.854894e+01	1.560648e+03
1.280000e-06	4.191043e-06	2.404029e-08	2.903168e+01	1.579168e+03
1.290000e-06	4.259366e-06	2.428852e-08	2.950496e+01	1.595668e+03
1.300000e-06	4.326032e-06	2.451106e-08	2.996675e+01	1.610420e+03
1.310000e-06	4.390962e-06	2.471008e-08	3.041653e+01	1.623629e+03
1.320000e-06	4.454453e-06	2.488769e-08	3.085634e+01	1.635465e+03
1.330000e-06	4.516503e-06	2.504823e-08	3.128616e+01	1.646077e+03
1.340000e-06	4.577104e-06	2.519367e-08	3.170595e+01	1.655610e+03
1.350000e-06	4.636092e-06	2.532364e-08	3.211456e+01	1.664206e+03
1.360000e-06	4.693274e-06	2.544166e-08	3.251067e+01	1.671995e+03
1.370000e-06	4.748745e-06	2.555106e-08	3.289492e+01	1.679091e+03
1.380000e-06	4.802513e-06	2.565236e-08	3.326738e+01	1.685583e+03
1.390000e-06	4.854357e-06	2.574515e-08	3.362650e+01	1.691538e+03
1.400000e-06	4.904097e-06	2.583035e-08	3.397106e+01	1.697012e+03
1.410000e-06	4.951932e-06	2.590883e-08	3.430242e+01	1.702050e+03
1.420000e-06	4.998137e-06	2.597957e-08	3.462248e+01	1.706702e+03
1.430000e-06	5.042812e-06	2.604332e-08	3.493194e+01	1.711013e+03
1.440000e-06	5.085623e-06	2.610236e-08	3.522850e+01	1.715024e+03
1.450000e-06	5.126431e-06	2.615877e-08	3.551118e+01	1.718766e+03
1.460000e-06	5.165503e-06	2.621371e-08	3.578183e+01	1.722255e+03
1.470000e-06	5.202950e-06	2.626585e-08	3.604123e+01	1.725491e+03
1.480000e-06	5.238634e-06	2.631346e-08	3.628842e+01	1.728469e+03
1.490000e-06	5.272320e-06	2.635690e-08	3.652176e+01	1.731184e+03
1.500000e-06	5.304107e-06	2.639600e-08	3.674195e+01	1.733643e+03
1.510000e-06	5.334150e-06	2.643026e-08	3.695007e+01	1.735865e+03
1.520000e-06	5.362469e-06	2.646068e-08	3.714623e+01	1.737880e+03
1.530000e-06	5.388788e-06	2.648728e-08	3.732855e+01	1.739717e+03
1.540000e-06	5.413004e-06	2.651136e-08	3.749629e+01	1.741398e+03
1.550000e-06	5.435390e-06	2.653339e-08	3.765136e+01	1.742927e+03
1.560000e-06	5.456080e-06	2.655431e-08	3.779469e+01	1.744291e+03
1.570000e-06	5.474869e-06	2.657433e-08	3.792484e+01	1.745473e+03
1.580000e-06	5.491575e-06	2.659315e-08	3.804056e+01	1.746456e+03
1.590000e-06	5.506277e-06	2.660841e-08	3.814240e+01	1.747237e+03
1.600000e-06	5.518925e-06	2.661833e-08	3.823002e+01	1.747834e+03
1.610000e-06	5.529338e-06	2.662376e-08	3.830215e+01	1.748279e+03
1.620000e-06	5.537669e-06	2.662652e-08	3.835986e+01	1.748609e+03
1.630000e-06	5.544160e-06	2.662872e-08	3.840482e+01	1.748852e+03
1.640000e-06	5.548864e-06	2.663056e-08	3.843740e+01	1.749022e+03
1.650000e-06	5.551536e-06	2.663391e-08	3.845592e+01	1.749107e+03
1.660000e-06	5.552126e-06	2.664017e-08	3.846000e+01	1.749085e+03
1.670000e-06	5.550940e-06	2.663953e-08	3.845179e+01	1.748927e+03
1.680000e-06	5.548078e-06	2.663411e-08	3.843196e+01	1.748618e+03
1.690000e-06	5.543325e-06	2.662633e-08	3.839904e+01	1.748159e+03
1.700000e-06	5.536594e-06	2.661332e-08	3.835241e+01	1.747568e+03
1.710000e-06	5.528147e-06	2.659973e-08	3.829390e+01	1.746873e+03
1.720000e-06	5.518004e-06	2.659339e-08	3.822363e+01	1.746099e+03
1.730000e-06	5.505883e-06	2.660948e-08	3.813967e+01	1.745253e+03
1.740000e-06	5.491725e-06	2.658108e-08	3.804160e+01	1.744326e+03
1.750000e-06	5.475582e-06	2.648427e-08	3.792977e+01	1.743295e+03
1.760000e-06	5.456924e-06	2.647866e-08	3.780053e+01	1.742134e+03
1.770000e-06	5.435447e-06	2.647520e-08	3.765176e+01	1.740835e+03
1.780000e-06	5.411827e-06	2.653063e-08	3.748814e+01	1.739412e+03
1.790000e-06	5.387116e-06	2.656811e-08	3.731696e+01	1.737904e+03
1.800000e-06	5.361634e-06	2.635433e-08	3.714045e+01	1.736359e+03
1.810000e-06	5.334231e-06	2.643143e-08	3.695063e+01	1.734818e+03
1.820000e-06	5.304435e-06	2.650506e-08	3.674423e+01	1.733294e+03
1.830000e-06	5.273083e-06	2.630246e-08	3.652705e+01	1.731758e+03
1.840000e-06	5.239970e-06	2.642933e-08	3.629767e+01	1.730147e+03
1.850000e-06	5.205089e-06	2.639801e-08	3.605605e+01	1.728375e+03
1.860000e-06	5.168535e-06	2.623014e-08	3.580284e+01	1.726363e+03
1.870000e-06	5.129775e-06	2.638300e-08	3.553434e+01	1.724060e+03
1.880000e-06	5.089246e-06	2.625340e-08	3.525359e+01	1.721458e+03
1.890000e-06	5.047153e-06	2.615870e-08	3.496202e+01	1.718597e+03
1.900000e-06	5.003168e-06	2.619377e-08	3.465733e+01	1.715543e+03
1.910000e-06	4.957427e-06	2.602566e-08	3.434048e+01	1.712370e+03
1.920000e-06	4.909761e-06	2.611545e-08	3.401029e+01	1.709135e+03
1.930000e-06	4.860262e-06	2.603764e-08	3.366741e+01	1.705855e+03
1.940000e-06	4.809002e-06	2.590386e-08	3.331232e+01	1.702514e+03
1.950000e-06	4.755580e-06	2.596603e-08	3.294226e+01	1.699071e+03
1.960000e-06	4.700317e-06	2.583925e-08	3.255946e+01	1.695477e+03
1.970000e-06	4.643404e-06	2.580285e-08	3.216522e+01	1.691698e+03
1.980000e-06	4.584938e-06	2.569513e-08	3.176021e+01	1.687729e+03
1.990000e-06	4.524895e-06	2.563277e-08	3.134430e+01	1.683584e+03
2.000000e-06	4.463023e-06	2.564931e-08	3.091570e+01	1.679296e+03
2.010000e-06	4.399558e-06	2.551528e-08	3.047608e+01	1.674891e+03
2.020000e-06	4.334550e-06	2.551221e-08	3.002576e+01	1.670380e+03
2.030000e-06	4.268097e-06	2.538839e-08	2.956544e+01	1.665750e+03
2.040000e-06	4.200093e-06	2.531222e-08	2.909437e+01	1.660971e+03
2.050000e-06	4.130302e-06	2.527240e-08	2.861092e+01	1.656010e+03
2.060000e-06	4.059042e-06	2.512599e-08	2.811729e+01	1.650843e+03
2.070000e-06	3.986447e-06	2.509625e-08	2.761443e+01	1.645467e+03
2.080000e-06	3.912464e-06	2.498996e-08	2.710194e+01	1.639900e+03
2.090000e-06	3.836849e-06	2.494070e-08	2.657814e+01	1.634167e+03
2.100000e-06	3.759477e-06	2.484791e-08	2.604218e+01	1.628294e+03
2.110000e-06	3.680626e-06	2.472504e-08	2.549598e+01	1.622286e+03
2.120000e-06	3.600553e-06	2.465109e-08	2.494130e+01	1.616126e+03
2.130000e-06	3.519361e-06	2.452866e-08	2.437888e+01	1.609781e+03
2.140000e-06	3.437038e-06	2.446127e-08	2.380862e+01	1.603211e+03
2.150000e-06	3.353579e-06	2.433851e-08	2.323050e+01	1.596390e+03
2.160000e-06	3.268769e-06	2.423752e-08	2.264302e+01	1.589313e+03
2.170000e-06	3.182552e-06	2.413705e-08	2.204578e+01	1.582002e+03
2.180000e-06	3.095259e-06	2.401753e-08	2.144110e+01	1.574489e+03
2.190000e-06	3.007018e-06	2.390679e-08	2.082985e+01	1.566806e+03
2.200000e-06	2.917793e-06	2.377336e-08	2.021178e+01	1.558968e+03
2.210000e-06	2.827618e-06	2.366471e-08	1.958713e+01	1.550958e+03
2.220000e-06	2.736508e-06	2.353873e-08	1.895600e+01	1.542738e+03
2.230000e-06	2.644382e-06	2.341074e-08	1.831784e+01	1.534253e+03
2.240000e-06	2.551222e-06	2.326720e-08	1.767251e+01	1.525462e+03
2.250000e-06	2.457030e-06	2.313049e-08	1.702004e+01	1.516342e+03
2.260000e-06	2.361928e-06	2.299832e-08	1.636126e+01	1.506905e+03
2.270000e-06	2.266119e-06	2.285633e-08	1.569758e+01	1.497186e+03
2.280000e-06	2.169527e-06	2.270951e-08	1.502848e+01	1.487227e+03
2.290000e-06	2.072193e-06	2.255180e-08	1.435424e+01	1.477056e+03
2.300000e-06	1.974228e-06	2.239633e-08	1.367563e+01	1.466673e+03
2.310000e-06	1.875705e-06	2.222830e-08	1.299315e+01	1.456045e+03
2.320000e-06	1.776672e-06	2.205879e-08	1.230715e+01	1.445117e+03
2.330000e-06	1.676999e-06	2.188314e-08	1.161670e+01	1.433828e+03
2.340000e-06	1.576623e-06	2.171207e-08	1.092139e+01	1.422138e+03
2.350000e-06	1.475558e-06	2.153629e-08	1.022130e+01	1.410036e+03
2.360000e-06	1.373825e-06	2.134712e-08	9.516591e+00	1.397546e+03
2.370000e-06	1.271498e-06	2.115258e-08	8.807767e+00	1.384706e+03
2.380000e-06	1.168686e-06	2.095044e-08	8.095577e+00	1.371554e+03
2.390000e-06	1.065487e-06	2.074823e-08	7.380708e+00	1.358101e+03
2.400000e-06	9.619488e-07	2.053627e-08	6.663493e+00	1.344324e+03
2.410000e-06	8.580624e-07	2.031807e-08	5.943864e+00	1.330168e+03
2.420000e-06	7.538812e-07	2.009634e-08	5.222193e+00	1.315565e+03
2.430000e-06	6.495071e-07	1.986765e-08	4.499185e+00	1.300449e+03
2.440000e-06	5.449073e-07	1.962884e-08	3.774614e+00	1.284783e+03
2.450000e-06	4.400787e-07	1.937966e-08	3.048459e+00	1.268558e+03
2.460000e-06	3.351026e-07	1.912316e-08	2.321282e+00	1.251785e+03
2.470000e-06	2.300563e-07	1.886120e-08	1.593618e+00	1.234477e+03
2.480000e-06	1.249762e-07	1.859281e-08	8.657196e-01	1.216619e+03
2.490000e-06	1.981149e-08	1.831231e-08	1.372357e-01	1.198158e+03
2.500000e-06	-8.537431e-08	1.801814e-08	-5.913944e-01	1.178996e+03
2.510000e-06	-1.904623e-07	1.771073e-08	-1.319347e+00	1.159005e+03
2.520000e-06	-2.954568e-07	1.739055e-08	-2.046652e+00	1.138047e+03
2.530000e-06	-4.003349e-07	1.705491e-08	-2.773150e+00	1.115997e+03
2.540000e-06	-5.050737e-07	1.670161e-08	-3.498684e+00	1.092752e+03
2.550000e-06	-6.096817e-07	1.633121e-08	-4.223312e+00	1.068225e+03
2.560000e-06	-7.140492e-07	1.594371e-08	-4.946274e+00	1.042326e+03
2.570000e-06	-8.181324e-07	1.553092e-08	-5.667266e+00	1.014933e+03
2.580000e-06	-9.219368e-07	1.508627e-08	-6.386327e+00	9.858665e+02
2.590000e-06	-1.025401e-06	1.461082e-08	-7.103032e+00	9.548810e+02
2.600000e-06	-1.128499e-06	1.410356e-08	-7.817201e+00	9.216604e+02
2.610000e-06	-1.231176e-06	1.355855e-08	-8.528448e+00	8.858253e+02
2.620000e-06	-1.333337e-06	1.296852e-08	-9.236130e+00	8.469346e+02
2.630000e-06	-1.434871e-06	1.232596e-08	-9.939464e+00	8.044721e+02
2.640000e-06	-1.535656e-06	1.162155e-08	-1.063760e+01	7.578179e+02
2.650000e-06	-1.635733e-06	1.084326e-08	-1.133085e+01	7.062120e+02
2.660000e-06	-1.735267e-06	9.974046e-09	-1.202032e+01	6.487326e+02
2.670000e-06	-1.834327e-06	8.996452e-09	-1.270653e+01	5.843130e+02
2.680000e-06	-1.932786e-06	7.896873e-09	-1.338856e+01	5.118208e+02
2.690000e-06	-2.030558e-06	6.659869e-09	-1.406583e+01	4.302039e+02
2.700000e-06	-2.127697e-06	5.272086e-09	-1.473872e+01	3.386917e+02
2.710000e-06	-2.224134e-06	3.730380e-09	-1.540675e+01	2.370141e+02
2.720000e-06	-2.319839e-06	2.042578e-09	-1.606970e+01	1.255879e+02
2.730000e-06	-2.414913e-06	2.231676e-10	-1.672829e+01	5.622232e+00
2.740000e-06	-2.509221e-06	-1.702507e-09	-1.738157e+01	-1.208971e+02
2.750000e-06	-2.602465e-06	-3.694925e-09	-1.802748e+01	-2.513536e+02
2.760000e-06	-2.694590e-06	-5.703989e-09	-1.866563e+01	-3.827564e+02
2.770000e-06	-2.785728e-06	-7.683015e-09	-1.929695e+01	-5.120594e+02
2.780000e-06	-2.875890e-06	-9.592346e-09	-1.992151e+01	-6.364815e+02
2.790000e-06	-2.964985e-06	-1.139538e-08	-2.053868e+01	-7.537655e+02
2.800000e-06	-3.053015e-06	-1.306505e-08	-2.114847e+01	-8.623325e+02
2.810000e-06	-3.140091e-06	-1.458709e-08	-2.175165e+01	-9.613151e+02
2.820000e-06	-3.226174e-06	-1.595946e-08	-2.234795e+01	-1.050482e+03
2.830000e-06	-3.310929e-06	-1.718688e-08	-2.293506e+01	-1.130089e+03
2.840000e-06	-3.394331e-06	-1.827533e-08	-2.351279e+01	-1.200708e+03
2.850000e-06	-3.476598e-06	-1.923560e-08	-2.408266e+01	-1.263061e+03
2.860000e-06	-3.557740e-06	-2.008168e-08	-2.464474e+01	-1.317914e+03
2.870000e-06	-3.637719e-06	-2.082466e-08	-2.519875e+01	-1.366011e+03
2.880000e-06	-3.716487e-06	-2.147532e-08	-2.574439e+01	-1.408058e+03
2.890000e-06	-3.793742e-06	-2.204336e-08	-2.627954e+01	-1.444730e+03
2.900000e-06	-3.869371e-06	-2.253733e-08	-2.680343e+01	-1.476682e+03
2.910000e-06	-3.943508e-06	-2.296859e-08	-2.731698e+01	-1.504552e+03
2.920000e-06	-4.016156e-06	-2.334691e-08	-2.782022e+01	-1.528944e+03
2.930000e-06	-4.087488e-06	-2.367793e-08	-2.831434e+01	-1.550404e+03
2.940000e-06	-4.157389e-06	-2.396953e-08	-2.879855e+01	-1.569400e+03
