# Temperatura_=_60.46
# Concentracion g/m^3_=_18700.0
# C_Vs_to_Am_M_A/Vsm_=_65563218390.804596
# pendiente_HvsI_1/m_=_3716.3
# ordenada_HvsI_A/m_=_1297.0
# frecuencia_Hz_=_300854.06305083126

Tiempo_(s)	Campo_(V.s)	Magnetizacion_(V.s)	Campo_(kA/m)	Magnetizacion_(A/m)
0.000000e+00	-5.509680e-06	-2.656990e-08	-3.829229e+01	-1.739030e+03
1.000000e-08	-5.506662e-06	-2.656427e-08	-3.827132e+01	-1.738739e+03
2.000000e-08	-5.501764e-06	-2.655647e-08	-3.823728e+01	-1.738320e+03
3.000000e-08	-5.495241e-06	-2.654951e-08	-3.819194e+01	-1.737777e+03
4.000000e-08	-5.487106e-06	-2.653895e-08	-3.813540e+01	-1.737115e+03
5.000000e-08	-5.477167e-06	-2.652479e-08	-3.806632e+01	-1.736336e+03
6.000000e-08	-5.465115e-06	-2.650357e-08	-3.798256e+01	-1.735438e+03
7.000000e-08	-5.451073e-06	-2.646745e-08	-3.788497e+01	-1.734417e+03
8.000000e-08	-5.434816e-06	-2.649118e-08	-3.777199e+01	-1.733267e+03
9.000000e-08	-5.416068e-06	-2.652085e-08	-3.764168e+01	-1.731987e+03
1.000000e-07	-5.395185e-06	-2.646889e-08	-3.749655e+01	-1.730590e+03
1.100000e-07	-5.372450e-06	-2.643647e-08	-3.733854e+01	-1.729095e+03
1.200000e-07	-5.348264e-06	-2.635113e-08	-3.717045e+01	-1.727536e+03
1.300000e-07	-5.322736e-06	-2.627004e-08	-3.699303e+01	-1.725943e+03
1.400000e-07	-5.295319e-06	-2.639992e-08	-3.680248e+01	-1.724340e+03
1.500000e-07	-5.266061e-06	-2.630588e-08	-3.659914e+01	-1.722725e+03
1.600000e-07	-5.235275e-06	-2.619996e-08	-3.638517e+01	-1.721073e+03
1.700000e-07	-5.202564e-06	-2.634316e-08	-3.615783e+01	-1.719333e+03
1.800000e-07	-5.167766e-06	-2.623543e-08	-3.591599e+01	-1.717443e+03
1.900000e-07	-5.131329e-06	-2.617987e-08	-3.566275e+01	-1.715340e+03
2.000000e-07	-5.093248e-06	-2.621023e-08	-3.539809e+01	-1.712985e+03
2.100000e-07	-5.053361e-06	-2.604760e-08	-3.512087e+01	-1.710366e+03
2.200000e-07	-5.011556e-06	-2.604149e-08	-3.483033e+01	-1.707505e+03
2.300000e-07	-4.967718e-06	-2.607119e-08	-3.452565e+01	-1.704450e+03
2.400000e-07	-4.922085e-06	-2.597560e-08	-3.420850e+01	-1.701255e+03
2.500000e-07	-4.874668e-06	-2.594985e-08	-3.387896e+01	-1.697964e+03
2.600000e-07	-4.825305e-06	-2.586248e-08	-3.353588e+01	-1.694599e+03
2.700000e-07	-4.773943e-06	-2.581047e-08	-3.317892e+01	-1.691154e+03
2.800000e-07	-4.720580e-06	-2.578062e-08	-3.280804e+01	-1.687600e+03
2.900000e-07	-4.665417e-06	-2.570008e-08	-3.242466e+01	-1.683902e+03
3.000000e-07	-4.608711e-06	-2.562986e-08	-3.203055e+01	-1.680029e+03
3.100000e-07	-4.550268e-06	-2.557968e-08	-3.162437e+01	-1.675970e+03
3.200000e-07	-4.490041e-06	-2.556518e-08	-3.120580e+01	-1.671735e+03
3.300000e-07	-4.428291e-06	-2.545990e-08	-3.077664e+01	-1.667350e+03
3.400000e-07	-4.365067e-06	-2.536571e-08	-3.033723e+01	-1.662844e+03
3.500000e-07	-4.300374e-06	-2.531540e-08	-2.988761e+01	-1.658236e+03
3.600000e-07	-4.234095e-06	-2.523059e-08	-2.942697e+01	-1.653526e+03
3.700000e-07	-4.166094e-06	-2.518146e-08	-2.895436e+01	-1.648696e+03
3.800000e-07	-4.096476e-06	-2.510267e-08	-2.847052e+01	-1.643710e+03
3.900000e-07	-4.025544e-06	-2.501096e-08	-2.797754e+01	-1.638536e+03
4.000000e-07	-3.953379e-06	-2.494275e-08	-2.747599e+01	-1.633150e+03
4.100000e-07	-3.879763e-06	-2.485426e-08	-2.696436e+01	-1.627548e+03
4.200000e-07	-3.804407e-06	-2.475634e-08	-2.644064e+01	-1.621741e+03
4.300000e-07	-3.727376e-06	-2.464738e-08	-2.590527e+01	-1.615749e+03
4.400000e-07	-3.648951e-06	-2.456879e-08	-2.536022e+01	-1.609594e+03
4.500000e-07	-3.569049e-06	-2.448594e-08	-2.480490e+01	-1.603281e+03
4.600000e-07	-3.487723e-06	-2.438471e-08	-2.423969e+01	-1.596803e+03
4.700000e-07	-3.405162e-06	-2.427571e-08	-2.366588e+01	-1.590138e+03
4.800000e-07	-3.321454e-06	-2.415378e-08	-2.308411e+01	-1.583262e+03
4.900000e-07	-3.236776e-06	-2.405399e-08	-2.249560e+01	-1.576156e+03
5.000000e-07	-3.151160e-06	-2.394391e-08	-2.190057e+01	-1.568814e+03
5.100000e-07	-3.064580e-06	-2.382377e-08	-2.129884e+01	-1.561245e+03
5.200000e-07	-2.977041e-06	-2.370707e-08	-2.069044e+01	-1.553464e+03
5.300000e-07	-2.888525e-06	-2.359125e-08	-2.007526e+01	-1.545485e+03
5.400000e-07	-2.798945e-06	-2.347178e-08	-1.945267e+01	-1.537311e+03
5.500000e-07	-2.708171e-06	-2.333493e-08	-1.882179e+01	-1.528927e+03
5.600000e-07	-2.616296e-06	-2.319684e-08	-1.818326e+01	-1.520306e+03
5.700000e-07	-2.523511e-06	-2.305916e-08	-1.753841e+01	-1.511420e+03
5.800000e-07	-2.429905e-06	-2.292461e-08	-1.688784e+01	-1.502245e+03
5.900000e-07	-2.335517e-06	-2.277920e-08	-1.623185e+01	-1.492775e+03
6.000000e-07	-2.240345e-06	-2.262314e-08	-1.557041e+01	-1.483021e+03
6.100000e-07	-2.144446e-06	-2.246908e-08	-1.490390e+01	-1.473006e+03
6.200000e-07	-2.047773e-06	-2.231352e-08	-1.423203e+01	-1.462750e+03
6.300000e-07	-1.950238e-06	-2.215445e-08	-1.355416e+01	-1.452261e+03
6.400000e-07	-1.851844e-06	-2.198667e-08	-1.287032e+01	-1.441525e+03
6.500000e-07	-1.752655e-06	-2.181427e-08	-1.218096e+01	-1.430508e+03
6.600000e-07	-1.652773e-06	-2.163854e-08	-1.148678e+01	-1.419166e+03
6.700000e-07	-1.552314e-06	-2.145882e-08	-1.078858e+01	-1.407460e+03
6.800000e-07	-1.451396e-06	-2.126918e-08	-1.008721e+01	-1.395364e+03
6.900000e-07	-1.349993e-06	-2.107420e-08	-9.382455e+00	-1.382881e+03
7.000000e-07	-1.248130e-06	-2.088029e-08	-8.674509e+00	-1.370028e+03
7.100000e-07	-1.145845e-06	-2.068448e-08	-7.963629e+00	-1.356834e+03
7.200000e-07	-1.043127e-06	-2.048034e-08	-7.249738e+00	-1.343315e+03
7.300000e-07	-9.400210e-07	-2.026464e-08	-6.533148e+00	-1.329469e+03
7.400000e-07	-8.366246e-07	-2.004301e-08	-5.814543e+00	-1.315266e+03
7.500000e-07	-7.330157e-07	-1.981626e-08	-5.094461e+00	-1.300657e+03
7.600000e-07	-6.291433e-07	-1.958202e-08	-4.372547e+00	-1.285585e+03
7.700000e-07	-5.250742e-07	-1.934256e-08	-3.649267e+00	-1.270005e+03
7.800000e-07	-4.208932e-07	-1.909940e-08	-2.925209e+00	-1.253888e+03
7.900000e-07	-3.165762e-07	-1.884993e-08	-2.200205e+00	-1.237231e+03
8.000000e-07	-2.121563e-07	-1.859295e-08	-1.474487e+00	-1.220034e+03
8.100000e-07	-1.076870e-07	-1.832228e-08	-7.484252e-01	-1.202294e+03
8.200000e-07	-3.158663e-09	-1.803784e-08	-2.195272e-02	-1.183979e+03
8.300000e-07	1.013972e-07	-1.774508e-08	7.047111e-01	-1.165020e+03
8.400000e-07	2.059182e-07	-1.744214e-08	1.431132e+00	-1.145312e+03
8.500000e-07	3.103590e-07	-1.712557e-08	2.156996e+00	-1.124729e+03
8.600000e-07	4.146767e-07	-1.679302e-08	2.882004e+00	-1.103142e+03
8.700000e-07	5.188609e-07	-1.644792e-08	3.606085e+00	-1.080435e+03
8.800000e-07	6.228950e-07	-1.608653e-08	4.329122e+00	-1.056510e+03
8.900000e-07	7.267473e-07	-1.570243e-08	5.050896e+00	-1.031286e+03
9.000000e-07	8.303941e-07	-1.529425e-08	5.771241e+00	-1.004673e+03
9.100000e-07	9.337708e-07	-1.486212e-08	6.489710e+00	-9.765517e+02
9.200000e-07	1.036820e-06	-1.440488e-08	7.205904e+00	-9.467489e+02
9.300000e-07	1.139493e-06	-1.391603e-08	7.919476e+00	-9.150263e+02
9.400000e-07	1.241765e-06	-1.339166e-08	8.630272e+00	-8.810756e+02
9.500000e-07	1.343597e-06	-1.283026e-08	9.338000e+00	-8.445221e+02
9.600000e-07	1.444954e-06	-1.222588e-08	1.004243e+01	-8.049256e+02
9.700000e-07	1.545895e-06	-1.156734e-08	1.074398e+01	-7.617729e+02
9.800000e-07	1.646393e-06	-1.084247e-08	1.144244e+01	-7.144612e+02
9.900000e-07	1.746337e-06	-1.003969e-08	1.213705e+01	-6.622792e+02
1.000000e-06	1.845600e-06	-9.147704e-09	1.282692e+01	-6.044016e+02
1.010000e-06	1.944040e-06	-8.154593e-09	1.351108e+01	-5.399155e+02
1.020000e-06	2.041585e-06	-7.046017e-09	1.418902e+01	-4.678926e+02
1.030000e-06	2.138309e-06	-5.809230e-09	1.486125e+01	-3.875129e+02
1.040000e-06	2.234310e-06	-4.437289e-09	1.552846e+01	-2.982249e+02
1.050000e-06	2.329615e-06	-2.929980e-09	1.619083e+01	-1.999165e+02
1.060000e-06	2.424169e-06	-1.294012e-09	1.684798e+01	-9.305632e+01
1.070000e-06	2.517896e-06	4.564607e-10	1.749938e+01	2.123196e+01
1.080000e-06	2.610813e-06	2.293696e-09	1.814516e+01	1.411903e+02
1.090000e-06	2.702856e-06	4.180579e-09	1.878485e+01	2.645497e+02
1.100000e-06	2.793907e-06	6.075627e-09	1.941766e+01	3.887390e+02
1.110000e-06	2.883835e-06	7.937675e-09	2.004266e+01	5.111432e+02
1.120000e-06	2.972572e-06	9.729458e-09	2.065938e+01	6.293613e+02
1.130000e-06	3.060305e-06	1.142398e-08	2.126912e+01	7.414173e+02
1.140000e-06	3.147074e-06	1.300211e-08	2.187217e+01	8.458882e+02
1.150000e-06	3.232806e-06	1.445158e-08	2.246801e+01	9.419369e+02
1.160000e-06	3.317512e-06	1.577005e-08	2.305672e+01	1.029258e+03
1.170000e-06	3.401119e-06	1.695927e-08	2.363778e+01	1.107965e+03
1.180000e-06	3.483475e-06	1.802211e-08	2.421016e+01	1.178452e+03
1.190000e-06	3.564553e-06	1.896668e-08	2.477365e+01	1.241267e+03
1.200000e-06	3.644376e-06	1.980413e-08	2.532842e+01	1.297021e+03
1.210000e-06	3.722905e-06	2.054322e-08	2.587420e+01	1.346328e+03
1.220000e-06	3.800082e-06	2.119297e-08	2.641058e+01	1.389794e+03
1.230000e-06	3.875781e-06	2.176311e-08	2.693669e+01	1.428014e+03
1.240000e-06	3.949862e-06	2.226608e-08	2.745155e+01	1.461577e+03
1.250000e-06	4.022375e-06	2.271124e-08	2.795551e+01	1.491065e+03
1.260000e-06	4.093534e-06	2.310523e-08	2.845007e+01	1.517039e+03
1.270000e-06	4.163383e-06	2.345287e-08	2.893552e+01	1.540010e+03
1.280000e-06	4.231818e-06	2.375975e-08	2.941115e+01	1.560424e+03
1.290000e-06	4.298602e-06	2.403162e-08	2.987530e+01	1.578646e+03
1.300000e-06	4.363668e-06	2.427455e-08	3.032750e+01	1.594960e+03
1.310000e-06	4.427251e-06	2.449195e-08	3.076940e+01	1.609587e+03
1.320000e-06	4.489464e-06	2.468677e-08	3.120179e+01	1.622704e+03
1.330000e-06	4.550292e-06	2.486398e-08	3.162454e+01	1.634471e+03
1.340000e-06	4.609473e-06	2.502511e-08	3.203585e+01	1.645041e+03
1.350000e-06	4.666809e-06	2.517115e-08	3.243434e+01	1.654568e+03
1.360000e-06	4.722420e-06	2.530351e-08	3.282083e+01	1.663199e+03
1.370000e-06	4.776311e-06	2.542460e-08	3.319537e+01	1.671065e+03
1.380000e-06	4.828322e-06	2.553482e-08	3.355685e+01	1.678271e+03
1.390000e-06	4.878267e-06	2.563489e-08	3.390397e+01	1.684893e+03
1.400000e-06	4.926297e-06	2.572664e-08	3.423778e+01	1.690982e+03
1.410000e-06	4.972683e-06	2.581134e-08	3.456016e+01	1.696574e+03
1.420000e-06	5.017508e-06	2.588922e-08	3.487169e+01	1.701697e+03
1.430000e-06	5.060524e-06	2.595977e-08	3.517065e+01	1.706387e+03
1.440000e-06	5.101576e-06	2.602378e-08	3.545597e+01	1.710684e+03
1.450000e-06	5.140881e-06	2.608297e-08	3.572914e+01	1.714632e+03
1.460000e-06	5.178516e-06	2.613852e-08	3.599070e+01	1.718276e+03
1.470000e-06	5.214417e-06	2.619061e-08	3.624021e+01	1.721650e+03
1.480000e-06	5.248369e-06	2.623951e-08	3.647618e+01	1.724774e+03
1.490000e-06	5.280381e-06	2.628460e-08	3.669866e+01	1.727659e+03
1.500000e-06	5.310671e-06	2.632574e-08	3.690917e+01	1.730303e+03
1.510000e-06	5.339313e-06	2.636232e-08	3.710824e+01	1.732704e+03
1.520000e-06	5.365998e-06	2.639519e-08	3.729370e+01	1.734863e+03
1.530000e-06	5.390542e-06	2.642439e-08	3.746428e+01	1.736783e+03
1.540000e-06	5.413188e-06	2.644804e-08	3.762167e+01	1.738478e+03
1.550000e-06	5.434133e-06	2.646813e-08	3.776724e+01	1.739963e+03
1.560000e-06	5.453269e-06	2.648915e-08	3.790023e+01	1.741254e+03
1.570000e-06	5.470355e-06	2.651092e-08	3.801898e+01	1.742367e+03
1.580000e-06	5.485412e-06	2.652861e-08	3.812363e+01	1.743315e+03
1.590000e-06	5.498460e-06	2.654140e-08	3.821431e+01	1.744107e+03
1.600000e-06	5.509245e-06	2.655072e-08	3.828927e+01	1.744754e+03
1.610000e-06	5.517912e-06	2.655749e-08	3.834950e+01	1.745262e+03
1.620000e-06	5.524753e-06	2.656236e-08	3.839705e+01	1.745638e+03
1.630000e-06	5.529770e-06	2.656509e-08	3.843192e+01	1.745885e+03
1.640000e-06	5.532826e-06	2.656747e-08	3.845316e+01	1.746006e+03
1.650000e-06	5.533811e-06	2.657351e-08	3.846000e+01	1.745998e+03
1.660000e-06	5.532945e-06	2.657515e-08	3.845398e+01	1.745861e+03
1.670000e-06	5.530392e-06	2.656936e-08	3.843624e+01	1.745593e+03
1.680000e-06	5.526029e-06	2.656242e-08	3.840592e+01	1.745196e+03
1.690000e-06	5.519685e-06	2.655037e-08	3.836182e+01	1.744673e+03
1.700000e-06	5.511557e-06	2.653760e-08	3.830534e+01	1.744031e+03
1.710000e-06	5.501846e-06	2.652934e-08	3.823784e+01	1.743272e+03
1.720000e-06	5.490296e-06	2.653488e-08	3.815757e+01	1.742395e+03
1.730000e-06	5.476626e-06	2.653683e-08	3.806257e+01	1.741396e+03
1.740000e-06	5.460933e-06	2.644030e-08	3.795350e+01	1.740268e+03
1.750000e-06	5.442913e-06	2.640407e-08	3.782826e+01	1.739011e+03
1.760000e-06	5.422067e-06	2.641042e-08	3.768338e+01	1.737632e+03
1.770000e-06	5.398882e-06	2.642592e-08	3.752225e+01	1.736152e+03
1.780000e-06	5.374440e-06	2.651262e-08	3.735237e+01	1.734601e+03
1.790000e-06	5.349253e-06	2.632744e-08	3.717732e+01	1.733012e+03
1.800000e-06	5.322424e-06	2.629775e-08	3.699086e+01	1.731408e+03
1.810000e-06	5.293200e-06	2.646093e-08	3.678776e+01	1.729796e+03
1.820000e-06	5.262285e-06	2.626923e-08	3.657289e+01	1.728153e+03
1.830000e-06	5.229681e-06	2.630141e-08	3.634630e+01	1.726433e+03
1.840000e-06	5.195150e-06	2.637870e-08	3.610630e+01	1.724573e+03
1.850000e-06	5.159016e-06	2.615671e-08	3.585517e+01	1.722511e+03
1.860000e-06	5.120835e-06	2.626838e-08	3.558982e+01	1.720202e+03
1.870000e-06	5.080685e-06	2.625385e-08	3.531078e+01	1.717628e+03
1.880000e-06	5.038988e-06	2.607341e-08	3.502098e+01	1.714808e+03
1.890000e-06	4.995467e-06	2.614922e-08	3.471851e+01	1.711783e+03
1.900000e-06	4.950223e-06	2.600161e-08	3.440407e+01	1.708608e+03
1.910000e-06	4.903142e-06	2.599906e-08	3.407685e+01	1.705331e+03
1.920000e-06	4.854167e-06	2.601912e-08	3.373647e+01	1.701978e+03
1.930000e-06	4.803515e-06	2.583097e-08	3.338444e+01	1.698548e+03
1.940000e-06	4.750740e-06	2.588048e-08	3.301765e+01	1.695015e+03
1.950000e-06	4.696042e-06	2.580351e-08	3.263750e+01	1.691345e+03
1.960000e-06	4.639735e-06	2.573650e-08	3.224617e+01	1.687504e+03
1.970000e-06	4.581742e-06	2.566562e-08	3.184312e+01	1.683477e+03
1.980000e-06	4.522229e-06	2.554803e-08	3.142951e+01	1.679271e+03
1.990000e-06	4.460979e-06	2.559417e-08	3.100381e+01	1.674910e+03
2.000000e-06	4.398043e-06	2.545753e-08	3.056641e+01	1.670422e+03
2.010000e-06	4.333550e-06	2.541992e-08	3.011818e+01	1.665831e+03
2.020000e-06	4.267557e-06	2.535249e-08	2.965954e+01	1.661140e+03
2.030000e-06	4.200177e-06	2.522550e-08	2.919124e+01	1.656332e+03
2.040000e-06	4.131064e-06	2.522226e-08	2.871090e+01	1.651376e+03
2.050000e-06	4.060321e-06	2.507267e-08	2.821924e+01	1.646237e+03
2.060000e-06	3.988267e-06	2.502693e-08	2.771846e+01	1.640890e+03
2.070000e-06	3.914907e-06	2.494015e-08	2.720861e+01	1.635325e+03
2.080000e-06	3.839978e-06	2.485372e-08	2.668786e+01	1.629552e+03
2.090000e-06	3.763302e-06	2.479549e-08	2.615496e+01	1.623591e+03
2.100000e-06	3.685119e-06	2.465267e-08	2.561158e+01	1.617463e+03
2.110000e-06	3.605601e-06	2.458468e-08	2.505894e+01	1.611178e+03
2.120000e-06	3.524910e-06	2.446312e-08	2.449813e+01	1.604729e+03
2.130000e-06	3.443103e-06	2.438965e-08	2.392958e+01	1.598099e+03
2.140000e-06	3.360163e-06	2.428551e-08	2.335314e+01	1.591262e+03
2.150000e-06	3.275964e-06	2.416138e-08	2.276796e+01	1.584196e+03
2.160000e-06	3.190374e-06	2.407179e-08	2.217311e+01	1.576896e+03
2.170000e-06	3.103538e-06	2.393866e-08	2.156960e+01	1.569365e+03
2.180000e-06	3.015654e-06	2.382991e-08	2.095880e+01	1.561620e+03
2.190000e-06	2.926822e-06	2.369884e-08	2.034142e+01	1.553676e+03
2.200000e-06	2.837048e-06	2.358564e-08	1.971749e+01	1.545536e+03
2.210000e-06	2.746443e-06	2.346554e-08	1.908779e+01	1.537190e+03
2.220000e-06	2.654955e-06	2.333301e-08	1.845195e+01	1.528613e+03
2.230000e-06	2.562411e-06	2.319410e-08	1.780876e+01	1.519776e+03
2.240000e-06	2.468825e-06	2.304670e-08	1.715834e+01	1.510652e+03
2.250000e-06	2.374281e-06	2.291357e-08	1.650126e+01	1.501234e+03
2.260000e-06	2.278906e-06	2.276960e-08	1.583840e+01	1.491529e+03
2.270000e-06	2.182759e-06	2.262390e-08	1.517018e+01	1.481558e+03
2.280000e-06	2.085885e-06	2.246572e-08	1.449691e+01	1.471343e+03
2.290000e-06	1.988309e-06	2.230784e-08	1.381876e+01	1.460895e+03
2.300000e-06	1.890100e-06	2.214456e-08	1.313620e+01	1.450204e+03
2.310000e-06	1.791368e-06	2.197769e-08	1.245001e+01	1.439240e+03
2.320000e-06	1.692103e-06	2.180482e-08	1.176012e+01	1.427959e+03
2.330000e-06	1.592248e-06	2.162924e-08	1.106613e+01	1.416319e+03
2.340000e-06	1.491749e-06	2.145385e-08	1.036766e+01	1.404293e+03
2.350000e-06	1.390551e-06	2.126443e-08	9.664332e+00	1.391877e+03
2.360000e-06	1.288689e-06	2.106979e-08	8.956391e+00	1.379087e+03
2.370000e-06	1.186350e-06	2.086738e-08	8.245135e+00	1.365951e+03
2.380000e-06	1.083619e-06	2.066555e-08	7.531153e+00	1.352489e+03
2.390000e-06	9.804845e-07	2.045770e-08	6.814370e+00	1.338702e+03
2.400000e-06	8.769230e-07	2.024184e-08	6.094617e+00	1.324566e+03
2.410000e-06	7.730519e-07	2.002202e-08	5.372712e+00	1.310032e+03
2.420000e-06	6.690104e-07	1.979413e-08	4.649624e+00	1.295046e+03
2.430000e-06	5.647744e-07	1.955793e-08	3.925183e+00	1.279558e+03
2.440000e-06	4.603356e-07	1.931080e-08	3.199334e+00	1.263538e+03
2.450000e-06	3.557569e-07	1.905567e-08	2.472512e+00	1.246976e+03
2.460000e-06	2.511042e-07	1.879515e-08	1.745175e+00	1.229875e+03
2.470000e-06	1.463950e-07	1.852906e-08	1.017446e+00	1.212233e+03
2.480000e-06	4.166922e-08	1.825439e-08	2.896012e-01	1.194023e+03
2.490000e-06	-6.307906e-08	1.796883e-08	-4.383996e-01	1.175185e+03
2.500000e-06	-1.678335e-07	1.766987e-08	-1.166443e+00	1.155618e+03
2.510000e-06	-2.725451e-07	1.735696e-08	-1.894189e+00	1.135201e+03
2.520000e-06	-3.771709e-07	1.703044e-08	-2.621338e+00	1.113802e+03
2.530000e-06	-4.816623e-07	1.668716e-08	-3.347554e+00	1.091301e+03
2.540000e-06	-5.859642e-07	1.632646e-08	-4.072453e+00	1.067600e+03
2.550000e-06	-6.900493e-07	1.595013e-08	-4.795845e+00	1.042613e+03
2.560000e-06	-7.938925e-07	1.555427e-08	-5.517555e+00	1.016255e+03
2.570000e-06	-8.974549e-07	1.513129e-08	-6.237314e+00	9.884125e+02
2.580000e-06	-1.000668e-06	1.467923e-08	-6.954645e+00	9.589247e+02
2.590000e-06	-1.103467e-06	1.419971e-08	-7.669096e+00	9.275647e+02
2.600000e-06	-1.205790e-06	1.368952e-08	-8.380242e+00	8.940367e+02
2.610000e-06	-1.307601e-06	1.314186e-08	-9.087832e+00	8.579776e+02
2.620000e-06	-1.408867e-06	1.255129e-08	-9.791632e+00	8.189591e+02
2.630000e-06	-1.509478e-06	1.191032e-08	-1.049087e+01	7.764820e+02
2.640000e-06	-1.609413e-06	1.120906e-08	-1.118543e+01	7.299610e+02
2.650000e-06	-1.708781e-06	1.043547e-08	-1.187603e+01	6.787053e+02
2.660000e-06	-1.807649e-06	9.574517e-09	-1.256317e+01	6.219091e+02
2.670000e-06	-1.905998e-06	8.614274e-09	-1.324669e+01	5.586713e+02
2.680000e-06	-2.003727e-06	7.543642e-09	-1.392591e+01	4.880587e+02
2.690000e-06	-2.100690e-06	6.349707e-09	-1.459980e+01	4.092209e+02
2.700000e-06	-2.196952e-06	5.022374e-09	-1.526882e+01	3.215459e+02
2.710000e-06	-2.292606e-06	3.558109e-09	-1.593362e+01	2.248314e+02
2.720000e-06	-2.387618e-06	1.962429e-09	-1.659395e+01	1.194343e+02
2.730000e-06	-2.481847e-06	2.494821e-10	-1.724885e+01	6.359951e+00
2.740000e-06	-2.575065e-06	-1.561118e-09	-1.789671e+01	-1.127407e+02
2.750000e-06	-2.667123e-06	-3.435985e-09	-1.853651e+01	-2.356767e+02
2.760000e-06	-2.758134e-06	-5.335760e-09	-1.916904e+01	-3.599126e+02
2.770000e-06	-2.848211e-06	-7.219355e-09	-1.979508e+01	-4.828217e+02
2.780000e-06	-2.937259e-06	-9.046464e-09	-2.041396e+01	-6.019475e+02
2.790000e-06	-3.025281e-06	-1.078541e-08	-2.102571e+01	-7.152259e+02
2.800000e-06	-3.112359e-06	-1.241248e-08	-2.163090e+01	-8.211301e+02
2.810000e-06	-3.198389e-06	-1.391203e-08	-2.222881e+01	-9.187200e+02
2.820000e-06	-3.283114e-06	-1.527946e-08	-2.281765e+01	-1.007603e+03
2.830000e-06	-3.366551e-06	-1.651772e-08	-2.339754e+01	-1.087826e+03
2.840000e-06	-3.448876e-06	-1.762963e-08	-2.396969e+01	-1.159744e+03
2.850000e-06	-3.530092e-06	-1.861983e-08	-2.453415e+01	-1.223886e+03
2.860000e-06	-3.610163e-06	-1.949964e-08	-2.509064e+01	-1.280856e+03
2.870000e-06	-3.688945e-06	-2.028066e-08	-2.563817e+01	-1.331271e+03
2.880000e-06	-3.766190e-06	-2.097053e-08	-2.617503e+01	-1.375737e+03
2.890000e-06	-3.841816e-06	-2.157706e-08	-2.670063e+01	-1.414851e+03
2.900000e-06	-3.915924e-06	-2.210850e-08	-2.721568e+01	-1.449203e+03
2.910000e-06	-3.988636e-06	-2.257459e-08	-2.772103e+01	-1.479378e+03
2.920000e-06	-4.060056e-06	-2.298424e-08	-2.821740e+01	-1.505940e+03
2.930000e-06	-4.129998e-06	-2.334591e-08	-2.870349e+01	-1.529414e+03
2.940000e-06	-4.198278e-06	-2.366818e-08	-2.917804e+01	-1.550257e+03
