# Temperatura_=_55.6
# Concentracion g/m^3_=_18700.0
# C_Vs_to_Am_M_A/Vsm_=_65563218390.804596
# pendiente_HvsI_1/m_=_3716.3
# ordenada_HvsI_A/m_=_1297.0
# frecuencia_Hz_=_300855.45138012944

Tiempo_(s)	Campo_(V.s)	Magnetizacion_(V.s)	Campo_(kA/m)	Magnetizacion_(A/m)
0.000000e+00	-5.519006e-06	-2.655617e-08	-3.829000e+01	-1.739008e+03
1.000000e-08	-5.516445e-06	-2.655210e-08	-3.827223e+01	-1.738761e+03
2.000000e-08	-5.512045e-06	-2.654491e-08	-3.824170e+01	-1.738365e+03
3.000000e-08	-5.505970e-06	-2.653647e-08	-3.819956e+01	-1.737818e+03
4.000000e-08	-5.498255e-06	-2.652586e-08	-3.814603e+01	-1.737131e+03
5.000000e-08	-5.488767e-06	-2.651206e-08	-3.808020e+01	-1.736321e+03
6.000000e-08	-5.477209e-06	-2.649262e-08	-3.800001e+01	-1.735406e+03
7.000000e-08	-5.463573e-06	-2.645756e-08	-3.790541e+01	-1.734395e+03
8.000000e-08	-5.447700e-06	-2.646766e-08	-3.779529e+01	-1.733287e+03
9.000000e-08	-5.429420e-06	-2.649992e-08	-3.766846e+01	-1.732073e+03
1.000000e-07	-5.409033e-06	-2.646098e-08	-3.752702e+01	-1.730743e+03
1.100000e-07	-5.386756e-06	-2.642530e-08	-3.737247e+01	-1.729296e+03
1.200000e-07	-5.362848e-06	-2.636035e-08	-3.720660e+01	-1.727745e+03
1.300000e-07	-5.337499e-06	-2.626295e-08	-3.703073e+01	-1.726120e+03
1.400000e-07	-5.310405e-06	-2.635564e-08	-3.684276e+01	-1.724455e+03
1.500000e-07	-5.281476e-06	-2.631102e-08	-3.664205e+01	-1.722776e+03
1.600000e-07	-5.250988e-06	-2.619187e-08	-3.643053e+01	-1.721089e+03
1.700000e-07	-5.218743e-06	-2.630928e-08	-3.620682e+01	-1.719366e+03
1.800000e-07	-5.184419e-06	-2.625296e-08	-3.596869e+01	-1.717549e+03
1.900000e-07	-5.148329e-06	-2.618319e-08	-3.571830e+01	-1.715562e+03
2.000000e-07	-5.110568e-06	-2.621967e-08	-3.545632e+01	-1.713332e+03
2.100000e-07	-5.071031e-06	-2.608057e-08	-3.518202e+01	-1.710810e+03
2.200000e-07	-5.029664e-06	-2.603703e-08	-3.489502e+01	-1.707990e+03
2.300000e-07	-4.986296e-06	-2.606827e-08	-3.459414e+01	-1.704910e+03
2.400000e-07	-4.941057e-06	-2.598433e-08	-3.428028e+01	-1.701643e+03
2.500000e-07	-4.894077e-06	-2.595393e-08	-3.395434e+01	-1.698270e+03
2.600000e-07	-4.845154e-06	-2.588447e-08	-3.361492e+01	-1.694855e+03
2.700000e-07	-4.794090e-06	-2.582082e-08	-3.326065e+01	-1.691425e+03
2.800000e-07	-4.741012e-06	-2.578897e-08	-3.289239e+01	-1.687961e+03
2.900000e-07	-4.686181e-06	-2.571681e-08	-3.251199e+01	-1.684406e+03
3.000000e-07	-4.629746e-06	-2.564184e-08	-3.212045e+01	-1.680688e+03
3.100000e-07	-4.571549e-06	-2.558645e-08	-3.171669e+01	-1.676746e+03
3.200000e-07	-4.511615e-06	-2.557673e-08	-3.130088e+01	-1.672551e+03
3.300000e-07	-4.450142e-06	-2.549012e-08	-3.087439e+01	-1.668113e+03
3.400000e-07	-4.387171e-06	-2.538922e-08	-3.043750e+01	-1.663480e+03
3.500000e-07	-4.322727e-06	-2.533401e-08	-2.999040e+01	-1.658711e+03
3.600000e-07	-4.256645e-06	-2.524672e-08	-2.953193e+01	-1.653856e+03
3.700000e-07	-4.188876e-06	-2.518747e-08	-2.906177e+01	-1.648935e+03
3.800000e-07	-4.119551e-06	-2.511577e-08	-2.858080e+01	-1.643928e+03
3.900000e-07	-4.048819e-06	-2.502340e-08	-2.809007e+01	-1.638784e+03
4.000000e-07	-3.976812e-06	-2.495460e-08	-2.759050e+01	-1.633441e+03
4.100000e-07	-3.903345e-06	-2.487126e-08	-2.708080e+01	-1.627846e+03
4.200000e-07	-3.828227e-06	-2.477343e-08	-2.655964e+01	-1.621981e+03
4.300000e-07	-3.751498e-06	-2.466077e-08	-2.602731e+01	-1.615860e+03
4.400000e-07	-3.673271e-06	-2.457032e-08	-2.548458e+01	-1.609527e+03
4.500000e-07	-3.593585e-06	-2.448401e-08	-2.493173e+01	-1.603037e+03
4.600000e-07	-3.512441e-06	-2.438620e-08	-2.436876e+01	-1.596430e+03
4.700000e-07	-3.429991e-06	-2.428522e-08	-2.379674e+01	-1.589717e+03
4.800000e-07	-3.346438e-06	-2.416906e-08	-2.321706e+01	-1.582875e+03
4.900000e-07	-3.261847e-06	-2.406690e-08	-2.263018e+01	-1.575851e+03
5.000000e-07	-3.176240e-06	-2.395475e-08	-2.203626e+01	-1.568588e+03
5.100000e-07	-3.089673e-06	-2.382990e-08	-2.143567e+01	-1.561041e+03
5.200000e-07	-3.002200e-06	-2.370802e-08	-2.082879e+01	-1.553194e+03
5.300000e-07	-2.913720e-06	-2.358866e-08	-2.021493e+01	-1.545062e+03
5.400000e-07	-2.824136e-06	-2.346848e-08	-1.959341e+01	-1.536684e+03
5.500000e-07	-2.733487e-06	-2.333594e-08	-1.896450e+01	-1.528105e+03
5.600000e-07	-2.641713e-06	-2.319967e-08	-1.832779e+01	-1.519357e+03
5.700000e-07	-2.548943e-06	-2.305979e-08	-1.768417e+01	-1.510441e+03
5.800000e-07	-2.455412e-06	-2.292017e-08	-1.703526e+01	-1.501334e+03
5.900000e-07	-2.361093e-06	-2.277308e-08	-1.638089e+01	-1.491988e+03
6.000000e-07	-2.265950e-06	-2.261748e-08	-1.572081e+01	-1.482355e+03
6.100000e-07	-2.170034e-06	-2.246181e-08	-1.505535e+01	-1.472398e+03
6.200000e-07	-2.073293e-06	-2.230667e-08	-1.438418e+01	-1.462102e+03
6.300000e-07	-1.975680e-06	-2.214951e-08	-1.370696e+01	-1.451479e+03
6.400000e-07	-1.877284e-06	-2.198352e-08	-1.302430e+01	-1.440555e+03
6.500000e-07	-1.778139e-06	-2.180960e-08	-1.233645e+01	-1.429355e+03
6.600000e-07	-1.678213e-06	-2.163094e-08	-1.164318e+01	-1.417895e+03
6.700000e-07	-1.577664e-06	-2.144891e-08	-1.094559e+01	-1.406166e+03
6.800000e-07	-1.476653e-06	-2.125618e-08	-1.024479e+01	-1.394141e+03
6.900000e-07	-1.375159e-06	-2.105820e-08	-9.540636e+00	-1.381783e+03
7.000000e-07	-1.273185e-06	-2.086557e-08	-8.833155e+00	-1.369054e+03
7.100000e-07	-1.170760e-06	-2.067449e-08	-8.122548e+00	-1.355932e+03
7.200000e-07	-1.067949e-06	-2.047438e-08	-7.409262e+00	-1.342409e+03
7.300000e-07	-9.648461e-07	-2.025981e-08	-6.693951e+00	-1.328491e+03
7.400000e-07	-8.614412e-07	-2.003653e-08	-5.976544e+00	-1.314192e+03
7.500000e-07	-7.577316e-07	-1.980767e-08	-5.257023e+00	-1.299516e+03
7.600000e-07	-6.537685e-07	-1.957239e-08	-4.535743e+00	-1.284453e+03
7.700000e-07	-5.495656e-07	-1.933182e-08	-3.812800e+00	-1.268977e+03
7.800000e-07	-4.451867e-07	-1.908961e-08	-3.088635e+00	-1.253044e+03
7.900000e-07	-3.406948e-07	-1.884298e-08	-2.363687e+00	-1.236603e+03
8.000000e-07	-2.360768e-07	-1.858942e-08	-1.637864e+00	-1.219604e+03
8.100000e-07	-1.313661e-07	-1.832278e-08	-9.113972e-01	-1.202000e+03
8.200000e-07	-2.659524e-08	-1.804019e-08	-1.845136e-01	-1.183750e+03
8.300000e-07	7.819500e-08	-1.774781e-08	5.425046e-01	-1.164812e+03
8.400000e-07	1.829845e-07	-1.744405e-08	1.269518e+00	-1.145137e+03
8.500000e-07	2.877127e-07	-1.712705e-08	1.996106e+00	-1.124661e+03
8.600000e-07	3.923174e-07	-1.679670e-08	2.721837e+00	-1.103300e+03
8.700000e-07	4.967735e-07	-1.645399e-08	3.446536e+00	-1.080953e+03
8.800000e-07	6.010401e-07	-1.609661e-08	4.169922e+00	-1.057502e+03
8.900000e-07	7.051026e-07	-1.572166e-08	4.891891e+00	-1.032816e+03
9.000000e-07	8.088893e-07	-1.532625e-08	5.611947e+00	-1.006756e+03
9.100000e-07	9.123725e-07	-1.490611e-08	6.329897e+00	-9.791651e+02
9.200000e-07	1.015601e-06	-1.445673e-08	7.046080e+00	-9.498732e+02
9.300000e-07	1.118498e-06	-1.397569e-08	7.759963e+00	-9.186805e+02
9.400000e-07	1.221002e-06	-1.346186e-08	8.471122e+00	-8.853488e+02
9.500000e-07	1.323057e-06	-1.291260e-08	9.179160e+00	-8.495865e+02
9.600000e-07	1.424659e-06	-1.232317e-08	9.884060e+00	-8.110302e+02
9.700000e-07	1.525843e-06	-1.168497e-08	1.058606e+01	-7.692260e+02
9.800000e-07	1.626563e-06	-1.098745e-08	1.128484e+01	-7.236098e+02
9.900000e-07	1.726796e-06	-1.021837e-08	1.198024e+01	-6.734954e+02
1.000000e-06	1.826369e-06	-9.365338e-09	1.267106e+01	-6.180793e+02
1.010000e-06	1.925120e-06	-8.417580e-09	1.335618e+01	-5.564727e+02
1.020000e-06	2.023011e-06	-7.362362e-09	1.403533e+01	-4.877691e+02
1.030000e-06	2.120090e-06	-6.184368e-09	1.470885e+01	-4.111502e+02
1.040000e-06	2.216410e-06	-4.875107e-09	1.537710e+01	-3.260216e+02
1.050000e-06	2.311981e-06	-3.434545e-09	1.604016e+01	-2.321593e+02
1.060000e-06	2.406856e-06	-1.867551e-09	1.669839e+01	-1.298389e+02
1.070000e-06	2.500947e-06	-1.849324e-10	1.735118e+01	-1.991863e+01
1.080000e-06	2.594194e-06	1.591780e-09	1.799811e+01	9.615095e+01
1.090000e-06	2.686683e-06	3.430170e-09	1.863978e+01	2.164022e+02
1.100000e-06	2.778260e-06	5.292472e-09	1.927513e+01	3.385060e+02
1.110000e-06	2.868614e-06	7.142127e-09	1.990200e+01	4.599856e+02
1.120000e-06	2.957749e-06	8.944009e-09	2.052040e+01	5.784507e+02
1.130000e-06	3.045840e-06	1.066398e-08	2.113156e+01	6.918127e+02
1.140000e-06	3.132948e-06	1.227555e-08	2.173590e+01	7.984428e+02
1.150000e-06	3.219013e-06	1.376457e-08	2.233301e+01	8.972507e+02
1.160000e-06	3.304036e-06	1.512726e-08	2.292288e+01	9.876810e+02
1.170000e-06	3.388058e-06	1.636470e-08	2.350582e+01	1.069639e+03
1.180000e-06	3.470899e-06	1.747728e-08	2.408055e+01	1.143374e+03
1.190000e-06	3.552419e-06	1.847200e-08	2.464612e+01	1.209354e+03
1.200000e-06	3.632683e-06	1.935935e-08	2.520298e+01	1.268153e+03
1.210000e-06	3.711685e-06	2.014604e-08	2.575109e+01	1.320375e+03
1.220000e-06	3.789357e-06	2.083920e-08	2.628997e+01	1.366609e+03
1.230000e-06	3.865596e-06	2.144846e-08	2.681890e+01	1.407429e+03
1.240000e-06	3.940190e-06	2.198561e-08	2.733642e+01	1.443387e+03
1.250000e-06	4.013176e-06	2.246032e-08	2.784279e+01	1.475030e+03
1.260000e-06	4.084749e-06	2.287898e-08	2.833935e+01	1.502894e+03
1.270000e-06	4.154930e-06	2.324858e-08	2.882625e+01	1.527491e+03
1.280000e-06	4.223753e-06	2.357822e-08	2.930374e+01	1.549295e+03
1.290000e-06	4.291044e-06	2.387274e-08	2.977059e+01	1.568717e+03
1.300000e-06	4.356631e-06	2.413568e-08	3.022562e+01	1.586096e+03
1.310000e-06	4.420679e-06	2.436967e-08	3.066998e+01	1.601699e+03
1.320000e-06	4.483271e-06	2.457849e-08	3.110423e+01	1.615734e+03
1.330000e-06	4.544455e-06	2.476686e-08	3.152871e+01	1.628366e+03
1.340000e-06	4.604181e-06	2.493634e-08	3.194308e+01	1.639735e+03
1.350000e-06	4.662136e-06	2.508959e-08	3.234517e+01	1.649976e+03
1.360000e-06	4.718244e-06	2.523101e-08	3.273444e+01	1.659217e+03
1.370000e-06	4.772672e-06	2.536285e-08	3.311205e+01	1.667583e+03
1.380000e-06	4.825315e-06	2.548382e-08	3.347728e+01	1.675190e+03
1.390000e-06	4.875869e-06	2.559204e-08	3.382802e+01	1.682133e+03
1.400000e-06	4.924401e-06	2.568817e-08	3.416472e+01	1.688493e+03
1.410000e-06	4.971225e-06	2.577549e-08	3.448958e+01	1.694330e+03
1.420000e-06	5.016473e-06	2.585541e-08	3.480350e+01	1.699690e+03
1.430000e-06	5.059974e-06	2.592890e-08	3.510531e+01	1.704614e+03
1.440000e-06	5.101524e-06	2.599691e-08	3.539357e+01	1.709138e+03
1.450000e-06	5.141294e-06	2.606034e-08	3.566949e+01	1.713297e+03
1.460000e-06	5.179415e-06	2.611924e-08	3.593397e+01	1.717126e+03
1.470000e-06	5.215790e-06	2.617266e-08	3.618633e+01	1.720655e+03
1.480000e-06	5.250252e-06	2.622282e-08	3.642543e+01	1.723907e+03
1.490000e-06	5.282811e-06	2.627050e-08	3.665132e+01	1.726901e+03
1.500000e-06	5.313605e-06	2.631412e-08	3.686496e+01	1.729647e+03
1.510000e-06	5.342731e-06	2.635222e-08	3.706703e+01	1.732152e+03
1.520000e-06	5.369938e-06	2.638472e-08	3.725578e+01	1.734423e+03
1.530000e-06	5.394963e-06	2.641329e-08	3.742941e+01	1.736464e+03
1.540000e-06	5.418047e-06	2.643903e-08	3.758956e+01	1.738280e+03
1.550000e-06	5.439392e-06	2.646328e-08	3.773765e+01	1.739873e+03
1.560000e-06	5.458949e-06	2.648603e-08	3.787333e+01	1.741248e+03
1.570000e-06	5.476511e-06	2.650612e-08	3.799517e+01	1.742409e+03
1.580000e-06	5.492037e-06	2.652236e-08	3.810289e+01	1.743365e+03
1.590000e-06	5.505570e-06	2.653533e-08	3.819678e+01	1.744131e+03
1.600000e-06	5.516878e-06	2.654458e-08	3.827523e+01	1.744727e+03
1.610000e-06	5.525994e-06	2.654953e-08	3.833848e+01	1.745178e+03
1.620000e-06	5.533202e-06	2.655302e-08	3.838849e+01	1.745509e+03
1.630000e-06	5.538619e-06	2.655615e-08	3.842607e+01	1.745737e+03
1.640000e-06	5.542113e-06	2.655871e-08	3.845031e+01	1.745869e+03
1.650000e-06	5.543510e-06	2.656265e-08	3.846000e+01	1.745899e+03
1.660000e-06	5.543027e-06	2.656319e-08	3.845665e+01	1.745813e+03
1.670000e-06	5.540890e-06	2.655911e-08	3.844183e+01	1.745591e+03
1.680000e-06	5.536978e-06	2.655648e-08	3.841468e+01	1.745221e+03
1.690000e-06	5.531095e-06	2.654826e-08	3.837387e+01	1.744700e+03
1.700000e-06	5.523351e-06	2.653469e-08	3.832014e+01	1.744036e+03
1.710000e-06	5.513974e-06	2.652350e-08	3.825508e+01	1.743247e+03
1.720000e-06	5.502805e-06	2.652367e-08	3.817760e+01	1.742349e+03
1.730000e-06	5.489559e-06	2.652793e-08	3.808570e+01	1.741354e+03
1.740000e-06	5.474304e-06	2.643980e-08	3.797986e+01	1.740263e+03
1.750000e-06	5.456787e-06	2.639197e-08	3.785833e+01	1.739068e+03
1.760000e-06	5.436493e-06	2.640175e-08	3.771754e+01	1.737758e+03
1.770000e-06	5.413735e-06	2.640805e-08	3.755964e+01	1.736331e+03
1.780000e-06	5.389484e-06	2.649895e-08	3.739140e+01	1.734797e+03
1.790000e-06	5.364439e-06	2.635978e-08	3.721764e+01	1.733182e+03
1.800000e-06	5.337980e-06	2.628523e-08	3.703407e+01	1.731521e+03
1.810000e-06	5.309159e-06	2.644420e-08	3.683411e+01	1.729843e+03
1.820000e-06	5.278504e-06	2.630050e-08	3.662143e+01	1.728158e+03
1.830000e-06	5.246233e-06	2.628559e-08	3.639754e+01	1.726444e+03
1.840000e-06	5.212079e-06	2.638067e-08	3.616058e+01	1.724649e+03
1.850000e-06	5.176261e-06	2.618684e-08	3.591209e+01	1.722697e+03
1.860000e-06	5.138464e-06	2.625609e-08	3.564986e+01	1.720514e+03
1.870000e-06	5.098727e-06	2.628377e-08	3.537417e+01	1.718046e+03
1.880000e-06	5.057430e-06	2.610653e-08	3.508766e+01	1.715277e+03
1.890000e-06	5.014318e-06	2.615551e-08	3.478855e+01	1.712239e+03
1.900000e-06	4.969370e-06	2.602663e-08	3.447671e+01	1.708998e+03
1.910000e-06	4.922561e-06	2.597750e-08	3.415196e+01	1.705638e+03
1.920000e-06	4.873856e-06	2.601592e-08	3.381405e+01	1.702226e+03
1.930000e-06	4.823465e-06	2.584391e-08	3.346444e+01	1.698799e+03
1.940000e-06	4.771059e-06	2.586972e-08	3.310086e+01	1.695343e+03
1.950000e-06	4.716679e-06	2.582969e-08	3.272358e+01	1.691809e+03
1.960000e-06	4.660620e-06	2.575171e-08	3.233465e+01	1.688125e+03
1.970000e-06	4.602874e-06	2.568356e-08	3.193402e+01	1.684226e+03
1.980000e-06	4.543607e-06	2.556221e-08	3.152283e+01	1.680075e+03
1.990000e-06	4.482682e-06	2.558773e-08	3.110014e+01	1.675678e+03
2.000000e-06	4.420063e-06	2.547067e-08	3.066570e+01	1.671075e+03
2.010000e-06	4.355878e-06	2.541812e-08	3.022040e+01	1.666325e+03
2.020000e-06	4.290181e-06	2.536547e-08	2.976460e+01	1.661483e+03
2.030000e-06	4.223060e-06	2.523389e-08	2.929893e+01	1.656573e+03
2.040000e-06	4.154205e-06	2.522132e-08	2.882122e+01	1.651584e+03
2.050000e-06	4.083639e-06	2.509130e-08	2.833164e+01	1.646468e+03
2.060000e-06	4.011666e-06	2.502655e-08	2.783231e+01	1.641164e+03
2.070000e-06	3.938386e-06	2.494662e-08	2.732390e+01	1.635617e+03
2.080000e-06	3.863669e-06	2.485314e-08	2.680553e+01	1.629799e+03
2.090000e-06	3.787214e-06	2.479870e-08	2.627510e+01	1.623720e+03
2.100000e-06	3.709166e-06	2.466119e-08	2.573361e+01	1.617421e+03
2.110000e-06	3.629754e-06	2.457876e-08	2.518267e+01	1.610955e+03
2.120000e-06	3.549153e-06	2.446277e-08	2.462346e+01	1.604366e+03
2.130000e-06	3.467441e-06	2.437635e-08	2.405656e+01	1.597673e+03
2.140000e-06	3.384627e-06	2.427544e-08	2.348201e+01	1.590856e+03
2.150000e-06	3.300602e-06	2.415370e-08	2.289906e+01	1.583868e+03
2.160000e-06	3.215175e-06	2.406577e-08	2.230638e+01	1.576652e+03
2.170000e-06	3.128447e-06	2.394105e-08	2.170468e+01	1.569157e+03
2.180000e-06	3.040657e-06	2.382852e-08	2.109560e+01	1.561362e+03
2.190000e-06	2.951931e-06	2.369409e-08	2.048003e+01	1.553278e+03
2.200000e-06	2.862229e-06	2.356879e-08	1.985769e+01	1.544940e+03
2.210000e-06	2.771619e-06	2.344551e-08	1.922905e+01	1.536394e+03
2.220000e-06	2.680072e-06	2.331564e-08	1.859392e+01	1.527674e+03
2.230000e-06	2.587496e-06	2.318048e-08	1.795164e+01	1.518789e+03
2.240000e-06	2.493912e-06	2.303508e-08	1.730237e+01	1.509718e+03
2.250000e-06	2.399366e-06	2.289969e-08	1.664642e+01	1.500418e+03
2.260000e-06	2.303956e-06	2.275510e-08	1.598448e+01	1.490839e+03
2.270000e-06	2.207781e-06	2.260780e-08	1.531724e+01	1.480941e+03
2.280000e-06	2.110856e-06	2.245141e-08	1.464479e+01	1.470705e+03
2.290000e-06	2.013239e-06	2.229638e-08	1.396754e+01	1.460138e+03
2.300000e-06	1.915074e-06	2.213408e-08	1.328648e+01	1.449265e+03
2.310000e-06	1.816401e-06	2.196400e-08	1.260191e+01	1.438112e+03
2.320000e-06	1.717136e-06	2.178771e-08	1.191322e+01	1.426698e+03
2.330000e-06	1.617231e-06	2.160853e-08	1.122009e+01	1.415018e+03
2.340000e-06	1.516685e-06	2.143090e-08	1.052252e+01	1.403048e+03
2.350000e-06	1.415495e-06	2.124229e-08	9.820482e+00	1.390751e+03
2.360000e-06	1.313683e-06	2.104998e-08	9.114126e+00	1.378091e+03
2.370000e-06	1.211260e-06	2.085178e-08	8.403532e+00	1.365039e+03
2.380000e-06	1.108331e-06	2.065243e-08	7.689424e+00	1.351587e+03
2.390000e-06	1.005004e-06	2.044597e-08	6.972562e+00	1.337738e+03
2.400000e-06	9.013618e-07	2.022829e-08	6.253506e+00	1.323506e+03
2.410000e-06	7.974632e-07	2.000420e-08	5.532675e+00	1.308896e+03
2.420000e-06	6.933388e-07	1.977324e-08	4.810276e+00	1.293904e+03
2.430000e-06	5.890262e-07	1.953582e-08	4.086571e+00	1.278504e+03
2.440000e-06	4.845440e-07	1.929159e-08	3.361690e+00	1.262656e+03
2.450000e-06	3.798890e-07	1.904294e-08	2.635611e+00	1.246309e+03
2.460000e-06	2.750280e-07	1.879043e-08	1.908101e+00	1.229412e+03
2.470000e-06	1.700438e-07	1.852985e-08	1.179737e+00	1.211919e+03
2.480000e-06	6.503212e-08	1.825662e-08	4.511826e-01	1.193786e+03
2.490000e-06	-3.998731e-08	1.797019e-08	-2.774257e-01	1.174974e+03
2.500000e-06	-1.449690e-07	1.767042e-08	-1.005772e+00	1.155435e+03
2.510000e-06	-2.499020e-07	1.735780e-08	-1.733781e+00	1.135106e+03
2.520000e-06	-3.547108e-07	1.703499e-08	-2.460928e+00	1.113910e+03
2.530000e-06	-4.593386e-07	1.670115e-08	-3.186819e+00	1.091746e+03
2.540000e-06	-5.638248e-07	1.635086e-08	-3.911728e+00	1.068501e+03
2.550000e-06	-6.681404e-07	1.598171e-08	-4.635453e+00	1.044045e+03
2.560000e-06	-7.722106e-07	1.559199e-08	-5.357476e+00	1.018240e+03
2.570000e-06	-8.759757e-07	1.517741e-08	-6.077382e+00	9.909346e+02
2.580000e-06	-9.794228e-07	1.473457e-08	-6.795082e+00	9.619596e+02
2.590000e-06	-1.082566e-06	1.426293e-08	-7.510672e+00	9.311219e+02
2.600000e-06	-1.185361e-06	1.376043e-08	-8.223850e+00	8.981913e+02
2.610000e-06	-1.287603e-06	1.322345e-08	-8.933187e+00	8.628867e+02
2.620000e-06	-1.389144e-06	1.264691e-08	-9.637664e+00	8.248592e+02
2.630000e-06	-1.490028e-06	1.202304e-08	-1.033758e+01	7.836724e+02
2.640000e-06	-1.590278e-06	1.134430e-08	-1.103310e+01	7.387831e+02
2.650000e-06	-1.689933e-06	1.060214e-08	-1.172449e+01	6.895271e+02
2.660000e-06	-1.789080e-06	9.782654e-09	-1.241235e+01	6.351206e+02
2.670000e-06	-1.887683e-06	8.867474e-09	-1.309645e+01	5.746860e+02
2.680000e-06	-1.985660e-06	7.843258e-09	-1.377620e+01	5.073133e+02
2.690000e-06	-2.082963e-06	6.701642e-09	-1.445127e+01	4.321593e+02
2.700000e-06	-2.179574e-06	5.434518e-09	-1.512154e+01	3.485787e+02
2.710000e-06	-2.275508e-06	4.035917e-09	-1.578711e+01	2.562710e+02
2.720000e-06	-2.370828e-06	2.507306e-09	-1.644843e+01	1.554149e+02
2.730000e-06	-2.465471e-06	8.618954e-10	-1.710505e+01	4.676134e+01
2.740000e-06	-2.559108e-06	-8.828224e-10	-1.775469e+01	-6.834176e+01
2.750000e-06	-2.651552e-06	-2.702948e-09	-1.839605e+01	-1.880098e+02
2.760000e-06	-2.742898e-06	-4.565198e-09	-1.902980e+01	-3.099638e+02
2.770000e-06	-2.833287e-06	-6.431381e-09	-1.965690e+01	-4.317363e+02
2.780000e-06	-2.922700e-06	-8.260434e-09	-2.027723e+01	-5.509046e+02
2.790000e-06	-3.011056e-06	-1.001715e-08	-2.089023e+01	-6.653128e+02
2.800000e-06	-3.098409e-06	-1.167585e-08	-2.149627e+01	-7.732414e+02
2.810000e-06	-3.184794e-06	-1.321640e-08	-2.209560e+01	-8.735023e+02
2.820000e-06	-3.269956e-06	-1.462892e-08	-2.268644e+01	-9.654480e+02
2.830000e-06	-3.353793e-06	-1.591250e-08	-2.326809e+01	-1.048909e+03
2.840000e-06	-3.436469e-06	-1.707054e-08	-2.384168e+01	-1.124084e+03
2.850000e-06	-3.518040e-06	-1.811068e-08	-2.440761e+01	-1.191409e+03
2.860000e-06	-3.598498e-06	-1.904048e-08	-2.496582e+01	-1.251447e+03
2.870000e-06	-3.677757e-06	-1.986725e-08	-2.551570e+01	-1.304799e+03
2.880000e-06	-3.755481e-06	-2.059939e-08	-2.605494e+01	-1.352061e+03
2.890000e-06	-3.831502e-06	-2.124580e-08	-2.658236e+01	-1.393807e+03
2.900000e-06	-3.906046e-06	-2.181531e-08	-2.709953e+01	-1.430594e+03
2.910000e-06	-3.979252e-06	-2.231469e-08	-2.760742e+01	-1.462969e+03
2.920000e-06	-4.051118e-06	-2.275283e-08	-2.810602e+01	-1.491469e+03
2.930000e-06	-4.121574e-06	-2.314079e-08	-2.859483e+01	-1.516614e+03
2.940000e-06	-4.190430e-06	-2.348663e-08	-2.907254e+01	-1.538886e+03
