# Temperatura_=_75.89
# Concentracion g/m^3_=_18700.0
# C_Vs_to_Am_M_A/Vsm_=_65563218390.804596
# pendiente_HvsI_1/m_=_3716.3
# ordenada_HvsI_A/m_=_1297.0
# frecuencia_Hz_=_301362.8810775168

Tiempo_(s)	Campo_(V.s)	Magnetizacion_(V.s)	Campo_(kA/m)	Magnetizacion_(A/m)
0.000000e+00	-8.346843e-06	-2.588689e-08	-5.693533e+01	-1.693614e+03
1.000000e-08	-8.342114e-06	-2.588208e-08	-5.690307e+01	-1.693005e+03
2.000000e-08	-8.334790e-06	-2.587218e-08	-5.685311e+01	-1.692519e+03
3.000000e-08	-8.324633e-06	-2.586179e-08	-5.678383e+01	-1.692193e+03
4.000000e-08	-8.311472e-06	-2.584927e-08	-5.669406e+01	-1.691960e+03
5.000000e-08	-8.295274e-06	-2.583447e-08	-5.658357e+01	-1.691675e+03
6.000000e-08	-8.276304e-06	-2.581567e-08	-5.645417e+01	-1.691184e+03
7.000000e-08	-8.254960e-06	-2.578530e-08	-5.630858e+01	-1.690393e+03
8.000000e-08	-8.230863e-06	-2.584006e-08	-5.614421e+01	-1.689305e+03
9.000000e-08	-8.203398e-06	-2.586083e-08	-5.595686e+01	-1.688025e+03
1.000000e-07	-8.172641e-06	-2.577805e-08	-5.574707e+01	-1.686706e+03
1.100000e-07	-8.138807e-06	-2.574042e-08	-5.551628e+01	-1.685488e+03
1.200000e-07	-8.102056e-06	-2.574316e-08	-5.526559e+01	-1.684440e+03
1.300000e-07	-8.062965e-06	-2.571109e-08	-5.499895e+01	-1.683528e+03
1.400000e-07	-8.021529e-06	-2.561651e-08	-5.471631e+01	-1.682639e+03
1.500000e-07	-7.977445e-06	-2.566334e-08	-5.441560e+01	-1.681634e+03
1.600000e-07	-7.930580e-06	-2.566570e-08	-5.409593e+01	-1.680406e+03
1.700000e-07	-7.880747e-06	-2.555596e-08	-5.375601e+01	-1.678927e+03
1.800000e-07	-7.827799e-06	-2.563199e-08	-5.339484e+01	-1.677251e+03
1.900000e-07	-7.771943e-06	-2.555977e-08	-5.301383e+01	-1.675480e+03
2.000000e-07	-7.713343e-06	-2.550846e-08	-5.261411e+01	-1.673705e+03
2.100000e-07	-7.651988e-06	-2.550240e-08	-5.219560e+01	-1.671953e+03
2.200000e-07	-7.587998e-06	-2.543484e-08	-5.175911e+01	-1.670166e+03
2.300000e-07	-7.521168e-06	-2.545973e-08	-5.130325e+01	-1.668214e+03
2.400000e-07	-7.451475e-06	-2.536518e-08	-5.082786e+01	-1.665956e+03
2.500000e-07	-7.379070e-06	-2.534064e-08	-5.033397e+01	-1.663304e+03
2.600000e-07	-7.303784e-06	-2.528525e-08	-4.982044e+01	-1.660267e+03
2.700000e-07	-7.225650e-06	-2.523480e-08	-4.928747e+01	-1.656957e+03
2.800000e-07	-7.144643e-06	-2.518613e-08	-4.873491e+01	-1.653546e+03
2.900000e-07	-7.060991e-06	-2.512401e-08	-4.816430e+01	-1.650199e+03
3.000000e-07	-6.975062e-06	-2.512509e-08	-4.757817e+01	-1.646996e+03
3.100000e-07	-6.886803e-06	-2.503637e-08	-4.697613e+01	-1.643899e+03
3.200000e-07	-6.796075e-06	-2.499903e-08	-4.635726e+01	-1.640761e+03
3.300000e-07	-6.702892e-06	-2.492389e-08	-4.572164e+01	-1.637386e+03
3.400000e-07	-6.607394e-06	-2.484677e-08	-4.507023e+01	-1.633608e+03
3.500000e-07	-6.509418e-06	-2.479479e-08	-4.440192e+01	-1.629367e+03
3.600000e-07	-6.408976e-06	-2.473221e-08	-4.371679e+01	-1.624729e+03
3.700000e-07	-6.306338e-06	-2.467512e-08	-4.301668e+01	-1.619865e+03
3.800000e-07	-6.201434e-06	-2.458930e-08	-4.230111e+01	-1.614974e+03
3.900000e-07	-6.094187e-06	-2.453210e-08	-4.156955e+01	-1.610194e+03
4.000000e-07	-5.984817e-06	-2.444746e-08	-4.082352e+01	-1.605541e+03
4.100000e-07	-5.873380e-06	-2.437140e-08	-4.006339e+01	-1.600894e+03
4.200000e-07	-5.759665e-06	-2.428094e-08	-3.928772e+01	-1.596045e+03
4.300000e-07	-5.643598e-06	-2.419396e-08	-3.849601e+01	-1.590777e+03
4.400000e-07	-5.525409e-06	-2.411073e-08	-3.768982e+01	-1.584961e+03
4.500000e-07	-5.405225e-06	-2.401724e-08	-3.687002e+01	-1.578608e+03
4.600000e-07	-5.283073e-06	-2.391849e-08	-3.603680e+01	-1.571863e+03
4.700000e-07	-5.159003e-06	-2.381597e-08	-3.519049e+01	-1.564940e+03
4.800000e-07	-5.033133e-06	-2.371771e-08	-3.433192e+01	-1.558030e+03
4.900000e-07	-4.905560e-06	-2.360856e-08	-3.346171e+01	-1.551213e+03
5.000000e-07	-4.776136e-06	-2.349477e-08	-3.257889e+01	-1.544416e+03
5.100000e-07	-4.644925e-06	-2.336971e-08	-3.168387e+01	-1.537440e+03
5.200000e-07	-4.511990e-06	-2.325019e-08	-3.077710e+01	-1.530038e+03
5.300000e-07	-4.377512e-06	-2.312547e-08	-2.985980e+01	-1.522022e+03
5.400000e-07	-4.241615e-06	-2.299993e-08	-2.893283e+01	-1.513340e+03
5.500000e-07	-4.104025e-06	-2.286411e-08	-2.799430e+01	-1.504094e+03
5.600000e-07	-3.964778e-06	-2.272502e-08	-2.704447e+01	-1.494498e+03
5.700000e-07	-3.823985e-06	-2.258009e-08	-2.608410e+01	-1.484777e+03
5.800000e-07	-3.681582e-06	-2.242580e-08	-2.511274e+01	-1.475062e+03
5.900000e-07	-3.537689e-06	-2.226358e-08	-2.413122e+01	-1.465319e+03
6.000000e-07	-3.392476e-06	-2.209465e-08	-2.314070e+01	-1.455353e+03
6.100000e-07	-3.246069e-06	-2.192835e-08	-2.214202e+01	-1.444883e+03
6.200000e-07	-3.098620e-06	-2.175591e-08	-2.113625e+01	-1.433652e+03
6.300000e-07	-2.950185e-06	-2.157598e-08	-2.012375e+01	-1.421539e+03
6.400000e-07	-2.800744e-06	-2.138207e-08	-1.910438e+01	-1.408609e+03
6.500000e-07	-2.650361e-06	-2.118303e-08	-1.807859e+01	-1.395086e+03
6.600000e-07	-2.499165e-06	-2.097605e-08	-1.704726e+01	-1.381253e+03
6.700000e-07	-2.347066e-06	-2.076137e-08	-1.600977e+01	-1.367319e+03
6.800000e-07	-2.193881e-06	-2.053823e-08	-1.496486e+01	-1.353311e+03
6.900000e-07	-2.039762e-06	-2.030735e-08	-1.391359e+01	-1.339039e+03
7.000000e-07	-1.884975e-06	-2.006842e-08	-1.285776e+01	-1.324155e+03
7.100000e-07	-1.729565e-06	-1.981846e-08	-1.179768e+01	-1.308284e+03
7.200000e-07	-1.573558e-06	-1.955862e-08	-1.073352e+01	-1.291171e+03
7.300000e-07	-1.416989e-06	-1.928415e-08	-9.665537e+00	-1.272790e+03
7.400000e-07	-1.259838e-06	-1.900085e-08	-8.593586e+00	-1.253351e+03
7.500000e-07	-1.102188e-06	-1.870451e-08	-7.518223e+00	-1.233204e+03
7.600000e-07	-9.441659e-07	-1.839423e-08	-6.440327e+00	-1.212670e+03
7.700000e-07	-7.858732e-07	-1.806554e-08	-5.360583e+00	-1.191862e+03
7.800000e-07	-6.273815e-07	-1.771826e-08	-4.279483e+00	-1.170571e+03
7.900000e-07	-4.686996e-07	-1.735407e-08	-3.197085e+00	-1.148275e+03
8.000000e-07	-3.098298e-07	-1.697188e-08	-2.113405e+00	-1.124268e+03
8.100000e-07	-1.508313e-07	-1.656898e-08	-1.028847e+00	-1.097868e+03
8.200000e-07	8.236836e-09	-1.613741e-08	5.618495e-02	-1.068627e+03
8.300000e-07	1.672401e-07	-1.567420e-08	1.140775e+00	-1.036446e+03
8.400000e-07	3.261371e-07	-1.516633e-08	2.224640e+00	-1.001525e+03
8.500000e-07	4.849720e-07	-1.460429e-08	3.308082e+00	-9.641715e+02
8.600000e-07	6.436293e-07	-1.397585e-08	4.390312e+00	-9.244756e+02
8.700000e-07	8.020643e-07	-1.327863e-08	5.471026e+00	-8.819880e+02
8.800000e-07	9.602756e-07	-1.251918e-08	6.550214e+00	-8.354892e+02
8.900000e-07	1.118152e-06	-1.169163e-08	7.627115e+00	-7.829471e+02
9.000000e-07	1.275598e-06	-1.076732e-08	8.701088e+00	-7.216975e+02
9.100000e-07	1.432526e-06	-9.700095e-09	9.771518e+00	-6.488192e+02
9.200000e-07	1.588915e-06	-8.434837e-09	1.083828e+01	-5.616246e+02
9.300000e-07	1.744792e-06	-6.897769e-09	1.190154e+01	-4.581574e+02
9.400000e-07	1.900099e-06	-5.005546e-09	1.296092e+01	-3.375968e+02
9.500000e-07	2.054753e-06	-2.761031e-09	1.401584e+01	-2.004990e+02
9.600000e-07	2.208692e-06	-3.398385e-10	1.506589e+01	-4.884863e+01
9.700000e-07	2.361842e-06	2.103224e-09	1.611055e+01	1.140622e+02
9.800000e-07	2.514109e-06	4.542938e-09	1.714919e+01	2.838916e+02
9.900000e-07	2.665419e-06	6.982209e-09	1.818130e+01	4.555966e+02
1.000000e-06	2.815661e-06	9.428060e-09	1.920614e+01	6.238373e+02
1.010000e-06	2.964815e-06	1.187415e-08	2.022354e+01	7.834117e+02
1.020000e-06	3.112979e-06	1.422241e-08	2.123419e+01	9.296959e+02
1.030000e-06	3.260062e-06	1.626292e-08	2.223747e+01	1.059059e+03
1.040000e-06	3.405958e-06	1.789054e-08	2.323265e+01	1.169206e+03
1.050000e-06	3.550657e-06	1.916593e-08	2.421968e+01	1.259382e+03
1.060000e-06	3.694002e-06	2.016373e-08	2.519746e+01	1.330399e+03
1.070000e-06	3.835875e-06	2.094189e-08	2.616520e+01	1.384429e+03
1.080000e-06	3.976341e-06	2.154509e-08	2.712334e+01	1.424603e+03
1.090000e-06	4.115363e-06	2.201571e-08	2.807164e+01	1.454471e+03
1.100000e-06	4.252791e-06	2.239146e-08	2.900906e+01	1.477429e+03
1.110000e-06	4.388628e-06	2.269923e-08	2.993562e+01	1.496246e+03
1.120000e-06	4.522860e-06	2.295675e-08	3.085125e+01	1.512784e+03
1.130000e-06	4.655467e-06	2.317726e-08	3.175579e+01	1.527962e+03
1.140000e-06	4.786470e-06	2.337147e-08	3.264938e+01	1.541951e+03
1.150000e-06	4.915782e-06	2.354571e-08	3.353144e+01	1.554498e+03
1.160000e-06	5.043314e-06	2.370145e-08	3.440136e+01	1.565298e+03
1.170000e-06	5.169021e-06	2.383634e-08	3.525883e+01	1.574256e+03
1.180000e-06	5.292938e-06	2.395447e-08	3.610409e+01	1.581611e+03
1.190000e-06	5.415047e-06	2.406478e-08	3.693702e+01	1.587878e+03
1.200000e-06	5.535095e-06	2.417126e-08	3.775589e+01	1.593674e+03
1.210000e-06	5.653015e-06	2.426934e-08	3.856024e+01	1.599507e+03
1.220000e-06	5.768843e-06	2.436004e-08	3.935033e+01	1.605621e+03
1.230000e-06	5.882459e-06	2.444863e-08	4.012532e+01	1.611951e+03
1.240000e-06	5.993880e-06	2.453670e-08	4.088534e+01	1.618200e+03
1.250000e-06	6.103206e-06	2.461750e-08	4.163108e+01	1.623999e+03
1.260000e-06	6.210471e-06	2.468915e-08	4.236275e+01	1.629075e+03
1.270000e-06	6.315502e-06	2.475612e-08	4.307919e+01	1.633370e+03
1.280000e-06	6.418229e-06	2.482190e-08	4.377990e+01	1.637055e+03
1.290000e-06	6.518648e-06	2.488653e-08	4.446488e+01	1.640446e+03
1.300000e-06	6.616661e-06	2.494702e-08	4.513344e+01	1.643869e+03
1.310000e-06	6.712252e-06	2.500620e-08	4.578549e+01	1.647526e+03
1.320000e-06	6.805438e-06	2.506483e-08	4.642113e+01	1.651419e+03
1.330000e-06	6.896284e-06	2.512249e-08	4.704080e+01	1.655365e+03
1.340000e-06	6.984682e-06	2.517554e-08	4.764378e+01	1.659089e+03
1.350000e-06	7.070632e-06	2.522211e-08	4.823006e+01	1.662343e+03
1.360000e-06	7.154186e-06	2.526568e-08	4.880000e+01	1.665022e+03
1.370000e-06	7.235201e-06	2.530789e-08	4.935262e+01	1.667196e+03
1.380000e-06	7.313567e-06	2.534802e-08	4.988716e+01	1.669081e+03
1.390000e-06	7.389220e-06	2.538476e-08	5.040321e+01	1.670945e+03
1.400000e-06	7.462110e-06	2.541958e-08	5.090041e+01	1.672988e+03
1.410000e-06	7.532338e-06	2.545437e-08	5.137944e+01	1.675272e+03
1.420000e-06	7.599918e-06	2.549015e-08	5.184042e+01	1.677693e+03
1.430000e-06	7.664694e-06	2.552482e-08	5.228227e+01	1.680043e+03
1.440000e-06	7.726787e-06	2.555382e-08	5.270582e+01	1.682103e+03
1.450000e-06	7.786280e-06	2.557758e-08	5.311163e+01	1.683738e+03
1.460000e-06	7.843000e-06	2.560004e-08	5.349852e+01	1.684958e+03
1.470000e-06	7.896792e-06	2.562238e-08	5.386545e+01	1.685909e+03
1.480000e-06	7.947410e-06	2.564341e-08	5.421072e+01	1.686805e+03
1.490000e-06	7.994936e-06	2.566296e-08	5.453491e+01	1.687840e+03
1.500000e-06	8.039661e-06	2.568468e-08	5.483998e+01	1.689099e+03
1.510000e-06	8.081469e-06	2.570822e-08	5.512517e+01	1.690529e+03
1.520000e-06	8.120418e-06	2.572782e-08	5.539085e+01	1.691965e+03
1.530000e-06	8.156643e-06	2.574083e-08	5.563794e+01	1.693202e+03
1.540000e-06	8.189982e-06	2.575152e-08	5.586535e+01	1.694087e+03
1.550000e-06	8.220454e-06	2.576400e-08	5.607321e+01	1.694580e+03
1.560000e-06	8.248101e-06	2.577528e-08	5.626179e+01	1.694775e+03
1.570000e-06	8.272749e-06	2.578181e-08	5.642992e+01	1.694848e+03
1.580000e-06	8.294494e-06	2.578712e-08	5.657825e+01	1.694988e+03
1.590000e-06	8.313388e-06	2.579620e-08	5.670713e+01	1.695310e+03
1.600000e-06	8.329242e-06	2.580580e-08	5.681527e+01	1.695812e+03
1.610000e-06	8.341963e-06	2.581264e-08	5.690204e+01	1.696378e+03
1.620000e-06	8.351501e-06	2.581842e-08	5.696710e+01	1.696833e+03
1.630000e-06	8.358050e-06	2.582457e-08	5.701178e+01	1.697018e+03
1.640000e-06	8.361707e-06	2.582871e-08	5.703672e+01	1.696863e+03
1.650000e-06	8.362408e-06	2.582934e-08	5.704150e+01	1.696413e+03
1.660000e-06	8.360352e-06	2.581772e-08	5.702748e+01	1.695803e+03
1.670000e-06	8.355502e-06	2.580908e-08	5.699439e+01	1.695201e+03
1.680000e-06	8.347821e-06	2.580650e-08	5.694200e+01	1.694731e+03
1.690000e-06	8.337370e-06	2.580337e-08	5.687071e+01	1.694420e+03
1.700000e-06	8.323898e-06	2.579916e-08	5.677882e+01	1.694188e+03
1.710000e-06	8.307666e-06	2.580371e-08	5.666809e+01	1.693887e+03
1.720000e-06	8.289075e-06	2.582497e-08	5.654128e+01	1.693366e+03
1.730000e-06	8.267817e-06	2.578177e-08	5.639628e+01	1.692539e+03
1.740000e-06	8.243323e-06	2.568017e-08	5.622920e+01	1.691424e+03
1.750000e-06	8.214937e-06	2.570990e-08	5.603557e+01	1.690131e+03
1.760000e-06	8.182789e-06	2.572625e-08	5.581629e+01	1.688816e+03
1.770000e-06	8.147950e-06	2.568352e-08	5.557865e+01	1.687615e+03
1.780000e-06	8.110705e-06	2.569934e-08	5.532459e+01	1.686583e+03
1.790000e-06	8.071243e-06	2.576594e-08	5.505541e+01	1.685679e+03
1.800000e-06	8.029897e-06	2.564179e-08	5.477339e+01	1.684784e+03
1.810000e-06	7.985910e-06	2.567887e-08	5.447334e+01	1.683758e+03
1.820000e-06	7.938886e-06	2.570538e-08	5.415258e+01	1.682502e+03
1.830000e-06	7.888979e-06	2.557247e-08	5.381216e+01	1.680997e+03
1.840000e-06	7.835724e-06	2.568269e-08	5.344890e+01	1.679305e+03
1.850000e-06	7.779512e-06	2.557058e-08	5.306546e+01	1.677529e+03
1.860000e-06	7.720646e-06	2.562017e-08	5.266393e+01	1.675756e+03
1.870000e-06	7.658887e-06	2.558506e-08	5.224265e+01	1.674004e+03
1.880000e-06	7.594479e-06	2.546780e-08	5.180332e+01	1.672205e+03
1.890000e-06	7.527206e-06	2.552965e-08	5.134444e+01	1.670226e+03
1.900000e-06	7.457013e-06	2.540728e-08	5.086564e+01	1.667928e+03
1.910000e-06	7.383973e-06	2.546257e-08	5.036742e+01	1.665231e+03
1.920000e-06	7.308071e-06	2.537422e-08	4.984968e+01	1.662157e+03
1.930000e-06	7.229360e-06	2.534947e-08	4.931277e+01	1.658827e+03
1.940000e-06	7.148085e-06	2.531853e-08	4.875838e+01	1.655415e+03
1.950000e-06	7.064429e-06	2.518958e-08	4.818775e+01	1.652080e+03
1.960000e-06	6.978038e-06	2.522733e-08	4.759847e+01	1.648892e+03
1.970000e-06	6.889101e-06	2.508983e-08	4.699181e+01	1.645798e+03
1.980000e-06	6.797870e-06	2.511437e-08	4.636951e+01	1.642644e+03
1.990000e-06	6.704160e-06	2.504376e-08	4.573029e+01	1.639231e+03
2.000000e-06	6.608034e-06	2.499613e-08	4.507460e+01	1.635404e+03
2.010000e-06	6.509716e-06	2.493212e-08	4.440395e+01	1.631114e+03
2.020000e-06	6.409061e-06	2.482327e-08	4.371737e+01	1.626442e+03
2.030000e-06	6.305896e-06	2.479881e-08	4.301366e+01	1.621565e+03
2.040000e-06	6.200549e-06	2.468890e-08	4.229507e+01	1.616680e+03
2.050000e-06	6.093061e-06	2.466159e-08	4.156187e+01	1.611914e+03
2.060000e-06	5.983410e-06	2.455309e-08	4.081392e+01	1.607269e+03
2.070000e-06	5.871504e-06	2.450386e-08	4.005060e+01	1.602611e+03
2.080000e-06	5.757405e-06	2.441313e-08	3.927230e+01	1.597725e+03
2.090000e-06	5.641017e-06	2.432906e-08	3.847840e+01	1.592402e+03
2.100000e-06	5.522264e-06	2.424588e-08	3.766836e+01	1.586525e+03
2.110000e-06	5.401557e-06	2.414942e-08	3.684500e+01	1.580120e+03
2.120000e-06	5.279112e-06	2.406394e-08	3.600978e+01	1.573344e+03
2.130000e-06	5.154756e-06	2.395714e-08	3.516153e+01	1.566414e+03
2.140000e-06	5.028400e-06	2.385925e-08	3.429963e+01	1.559512e+03
2.150000e-06	4.900275e-06	2.374067e-08	3.342566e+01	1.552703e+03
2.160000e-06	4.770485e-06	2.364304e-08	3.254034e+01	1.545897e+03
2.170000e-06	4.639006e-06	2.353008e-08	3.164350e+01	1.538885e+03
2.180000e-06	4.505810e-06	2.342583e-08	3.073495e+01	1.531424e+03
2.190000e-06	4.370982e-06	2.329533e-08	2.981526e+01	1.523336e+03
2.200000e-06	4.234562e-06	2.317346e-08	2.888472e+01	1.514584e+03
2.210000e-06	4.096632e-06	2.303163e-08	2.794387e+01	1.505289e+03
2.220000e-06	3.957060e-06	2.289402e-08	2.699183e+01	1.495669e+03
2.230000e-06	3.815900e-06	2.274810e-08	2.602895e+01	1.485944e+03
2.240000e-06	3.673348e-06	2.260385e-08	2.505657e+01	1.476230e+03
2.250000e-06	3.529479e-06	2.245659e-08	2.407522e+01	1.466474e+03
2.260000e-06	3.384394e-06	2.229614e-08	2.308556e+01	1.456467e+03
2.270000e-06	3.238214e-06	2.213400e-08	2.208844e+01	1.445926e+03
2.280000e-06	3.090892e-06	2.195771e-08	2.108353e+01	1.434602e+03
2.290000e-06	2.942266e-06	2.177983e-08	2.006973e+01	1.422394e+03
2.300000e-06	2.792655e-06	2.158759e-08	1.904921e+01	1.409386e+03
2.310000e-06	2.642175e-06	2.139395e-08	1.802275e+01	1.395816e+03
2.320000e-06	2.490713e-06	2.118987e-08	1.698960e+01	1.381964e+03
2.330000e-06	2.338307e-06	2.098095e-08	1.595001e+01	1.368024e+03
2.340000e-06	2.185076e-06	2.076101e-08	1.490480e+01	1.353999e+03
2.350000e-06	2.031147e-06	2.053429e-08	1.385482e+01	1.339679e+03
2.360000e-06	1.876594e-06	2.029923e-08	1.280059e+01	1.324706e+03
2.370000e-06	1.721353e-06	2.005229e-08	1.174166e+01	1.308710e+03
2.380000e-06	1.565319e-06	1.979283e-08	1.067732e+01	1.291457e+03
2.390000e-06	1.408565e-06	1.952015e-08	9.608077e+00	1.272948e+03
2.400000e-06	1.251281e-06	1.923871e-08	8.535218e+00	1.253414e+03
2.410000e-06	1.093592e-06	1.894488e-08	7.459593e+00	1.233212e+03
2.420000e-06	9.355769e-07	1.864096e-08	6.381740e+00	1.212648e+03
2.430000e-06	7.772708e-07	1.832157e-08	5.301905e+00	1.191803e+03
2.440000e-06	6.186963e-07	1.798224e-08	4.220239e+00	1.170434e+03
2.450000e-06	4.598647e-07	1.762095e-08	3.136820e+00	1.147989e+03
2.460000e-06	3.008177e-07	1.723700e-08	2.051932e+00	1.123754e+03
2.470000e-06	1.416718e-07	1.683019e-08	9.663693e-01	1.097065e+03
2.480000e-06	-1.754038e-08	1.639831e-08	-1.196461e-01	1.067507e+03
2.490000e-06	-1.767366e-07	1.593975e-08	-1.205553e+00	1.035017e+03
2.500000e-06	-3.358237e-07	1.544151e-08	-2.290715e+00	9.998217e+02
2.510000e-06	-4.947438e-07	1.488442e-08	-3.374737e+00	9.622187e+02
2.520000e-06	-6.534401e-07	1.425558e-08	-4.457233e+00	9.222566e+02
2.530000e-06	-8.119239e-07	1.355382e-08	-5.538280e+00	8.794115e+02
2.540000e-06	-9.701708e-07	1.279014e-08	-6.617711e+00	8.323750e+02
2.550000e-06	-1.128001e-06	1.196204e-08	-7.694297e+00	7.790349e+02
2.560000e-06	-1.285318e-06	1.104030e-08	-8.767388e+00	7.166784e+02
2.570000e-06	-1.442195e-06	9.982602e-09	-9.837471e+00	6.423850e+02
2.580000e-06	-1.598538e-06	8.730511e-09	-1.090392e+01	5.535225e+02
2.590000e-06	-1.754208e-06	7.206355e-09	-1.196577e+01	4.482393e+02
2.600000e-06	-1.909128e-06	5.320849e-09	-1.302251e+01	3.258541e+02
2.610000e-06	-2.063289e-06	3.051524e-09	-1.407407e+01	1.870766e+02
2.620000e-06	-2.216784e-06	5.681003e-10	-1.512108e+01	3.404040e+01
2.630000e-06	-2.369482e-06	-1.951075e-09	-1.616267e+01	-1.298358e+02
2.640000e-06	-2.521270e-06	-4.473546e-09	-1.719804e+01	-3.001169e+02
2.650000e-06	-2.672174e-06	-6.996676e-09	-1.822738e+01	-4.717082e+02
2.660000e-06	-2.822140e-06	-9.517237e-09	-1.925033e+01	-6.392635e+02
2.670000e-06	-2.971143e-06	-1.203204e-08	-2.026671e+01	-7.976217e+02
2.680000e-06	-3.119067e-06	-1.443394e-08	-2.127572e+01	-9.422464e+02
2.690000e-06	-3.265771e-06	-1.650641e-08	-2.227642e+01	-1.069635e+03
2.700000e-06	-3.411335e-06	-1.815846e-08	-2.326934e+01	-1.177651e+03
2.710000e-06	-3.555730e-06	-1.944920e-08	-2.425428e+01	-1.265710e+03
2.720000e-06	-3.698875e-06	-2.045300e-08	-2.523070e+01	-1.334783e+03
2.730000e-06	-3.840720e-06	-2.123539e-08	-2.619825e+01	-1.387167e+03
2.740000e-06	-3.981100e-06	-2.184727e-08	-2.715580e+01	-1.426066e+03
2.750000e-06	-4.119841e-06	-2.232670e-08	-2.810218e+01	-1.455040e+03
2.760000e-06	-4.256974e-06	-2.270596e-08	-2.903759e+01	-1.477437e+03
2.770000e-06	-4.392572e-06	-2.301425e-08	-2.996253e+01	-1.495938e+03
2.780000e-06	-4.526622e-06	-2.327253e-08	-3.087691e+01	-1.512303e+03
2.790000e-06	-4.659082e-06	-2.349222e-08	-3.178044e+01	-1.527357e+03
2.800000e-06	-4.789853e-06	-2.368094e-08	-3.267246e+01	-1.541208e+03
2.810000e-06	-4.918942e-06	-2.384740e-08	-3.355300e+01	-1.553582e+03
2.820000e-06	-5.046337e-06	-2.399747e-08	-3.442198e+01	-1.564184e+03
2.830000e-06	-5.171950e-06	-2.413248e-08	-3.527881e+01	-1.572954e+03
2.840000e-06	-5.295678e-06	-2.425182e-08	-3.612278e+01	-1.580165e+03
2.850000e-06	-5.417515e-06	-2.435800e-08	-3.695385e+01	-1.586353e+03
2.860000e-06	-5.537414e-06	-2.445713e-08	-3.777170e+01	-1.592133e+03
2.870000e-06	-5.655260e-06	-2.455121e-08	-3.857556e+01	-1.597991e+03
2.880000e-06	-5.770822e-06	-2.463929e-08	-3.936382e+01	-1.604138e+03
2.890000e-06	-5.883979e-06	-2.472366e-08	-4.013569e+01	-1.610477e+03
2.900000e-06	-5.994839e-06	-2.480535e-08	-4.089189e+01	-1.616696e+03
2.910000e-06	-6.103528e-06	-2.488428e-08	-4.163327e+01	-1.622427e+03
2.920000e-06	-6.210187e-06	-2.495920e-08	-4.236081e+01	-1.627419e+03
2.930000e-06	-6.314734e-06	-2.502834e-08	-4.307394e+01	-1.631638e+03
2.940000e-06	-6.417029e-06	-2.509163e-08	-4.377172e+01	-1.635276e+03
