# Temperatura_=_76.77
# Concentracion g/m^3_=_18700.0
# C_Vs_to_Am_M_A/Vsm_=_65563218390.804596
# pendiente_HvsI_1/m_=_3716.3
# ordenada_HvsI_A/m_=_1297.0
# frecuencia_Hz_=_301364.4500110862

Tiempo_(s)	Campo_(V.s)	Magnetizacion_(V.s)	Campo_(kA/m)	Magnetizacion_(A/m)
0.000000e+00	-8.321355e-06	-2.560984e-08	-5.693345e+01	-1.675192e+03
1.000000e-08	-8.316613e-06	-2.560429e-08	-5.690101e+01	-1.674613e+03
2.000000e-08	-8.309302e-06	-2.559235e-08	-5.685099e+01	-1.674153e+03
3.000000e-08	-8.299170e-06	-2.558231e-08	-5.678166e+01	-1.673855e+03
4.000000e-08	-8.286122e-06	-2.557240e-08	-5.669239e+01	-1.673655e+03
5.000000e-08	-8.270061e-06	-2.556169e-08	-5.658251e+01	-1.673410e+03
6.000000e-08	-8.251184e-06	-2.554480e-08	-5.645335e+01	-1.672961e+03
7.000000e-08	-8.229881e-06	-2.551384e-08	-5.630760e+01	-1.672202e+03
8.000000e-08	-8.205800e-06	-2.554762e-08	-5.614284e+01	-1.671123e+03
9.000000e-08	-8.178393e-06	-2.557852e-08	-5.595533e+01	-1.669820e+03
1.000000e-07	-8.147708e-06	-2.551224e-08	-5.574539e+01	-1.668446e+03
1.100000e-07	-8.114023e-06	-2.546355e-08	-5.551492e+01	-1.667154e+03
1.200000e-07	-8.077516e-06	-2.545732e-08	-5.526515e+01	-1.666033e+03
1.300000e-07	-8.038528e-06	-2.543009e-08	-5.499840e+01	-1.665075e+03
1.400000e-07	-7.997149e-06	-2.534828e-08	-5.471529e+01	-1.664187e+03
1.500000e-07	-7.953152e-06	-2.537627e-08	-5.441426e+01	-1.663233e+03
1.600000e-07	-7.906310e-06	-2.540529e-08	-5.409378e+01	-1.662096e+03
1.700000e-07	-7.856652e-06	-2.528799e-08	-5.375402e+01	-1.660725e+03
1.800000e-07	-7.803967e-06	-2.535071e-08	-5.339356e+01	-1.659145e+03
1.900000e-07	-7.748225e-06	-2.529586e-08	-5.301219e+01	-1.657437e+03
2.000000e-07	-7.689742e-06	-2.522018e-08	-5.261205e+01	-1.655689e+03
2.100000e-07	-7.628546e-06	-2.522299e-08	-5.219336e+01	-1.653940e+03
2.200000e-07	-7.564673e-06	-2.515641e-08	-5.175635e+01	-1.652156e+03
2.300000e-07	-7.497983e-06	-2.518518e-08	-5.130007e+01	-1.650240e+03
2.400000e-07	-7.428456e-06	-2.510095e-08	-5.082437e+01	-1.648065e+03
2.500000e-07	-7.356236e-06	-2.507039e-08	-5.033026e+01	-1.645542e+03
2.600000e-07	-7.281172e-06	-2.502107e-08	-4.981668e+01	-1.642657e+03
2.700000e-07	-7.203235e-06	-2.495983e-08	-4.928345e+01	-1.639484e+03
2.800000e-07	-7.122486e-06	-2.491964e-08	-4.873097e+01	-1.636161e+03
2.900000e-07	-7.039128e-06	-2.485682e-08	-4.816065e+01	-1.632829e+03
3.000000e-07	-6.953511e-06	-2.485095e-08	-4.757487e+01	-1.629573e+03
3.100000e-07	-6.865585e-06	-2.476686e-08	-4.697330e+01	-1.626382e+03
3.200000e-07	-6.775114e-06	-2.471883e-08	-4.635431e+01	-1.623152e+03
3.300000e-07	-6.682143e-06	-2.464833e-08	-4.571821e+01	-1.619728e+03
3.400000e-07	-6.586865e-06	-2.456723e-08	-4.506633e+01	-1.615972e+03
3.500000e-07	-6.489286e-06	-2.452179e-08	-4.439871e+01	-1.611823e+03
3.600000e-07	-6.389294e-06	-2.446221e-08	-4.371458e+01	-1.607321e+03
3.700000e-07	-6.286943e-06	-2.440769e-08	-4.301432e+01	-1.602598e+03
3.800000e-07	-6.182323e-06	-2.432525e-08	-4.229852e+01	-1.597811e+03
3.900000e-07	-6.075437e-06	-2.426174e-08	-4.156722e+01	-1.593077e+03
4.000000e-07	-5.966428e-06	-2.417766e-08	-4.082140e+01	-1.588416e+03
4.100000e-07	-5.855344e-06	-2.409756e-08	-4.006138e+01	-1.583734e+03
4.200000e-07	-5.742080e-06	-2.401299e-08	-3.928644e+01	-1.578861e+03
4.300000e-07	-5.626457e-06	-2.392915e-08	-3.849537e+01	-1.573618e+03
4.400000e-07	-5.508602e-06	-2.385031e-08	-3.768902e+01	-1.567892e+03
4.500000e-07	-5.388768e-06	-2.375919e-08	-3.686914e+01	-1.561686e+03
4.600000e-07	-5.267045e-06	-2.365883e-08	-3.603633e+01	-1.555114e+03
4.700000e-07	-5.143382e-06	-2.355064e-08	-3.519024e+01	-1.548357e+03
4.800000e-07	-5.017825e-06	-2.344532e-08	-3.433120e+01	-1.541574e+03
4.900000e-07	-4.890522e-06	-2.333703e-08	-3.346021e+01	-1.534837e+03
5.000000e-07	-4.761464e-06	-2.322932e-08	-3.257722e+01	-1.528089e+03
5.100000e-07	-4.630639e-06	-2.311793e-08	-3.168213e+01	-1.521163e+03
5.200000e-07	-4.498091e-06	-2.300698e-08	-3.077526e+01	-1.513850e+03
5.300000e-07	-4.364006e-06	-2.288292e-08	-2.985787e+01	-1.505984e+03
5.400000e-07	-4.228352e-06	-2.275345e-08	-2.892975e+01	-1.497509e+03
5.500000e-07	-4.091092e-06	-2.261478e-08	-2.799063e+01	-1.488503e+03
5.600000e-07	-3.952369e-06	-2.247590e-08	-2.704151e+01	-1.479138e+03
5.700000e-07	-3.812056e-06	-2.233499e-08	-2.608151e+01	-1.469602e+03
5.800000e-07	-3.670113e-06	-2.218822e-08	-2.511036e+01	-1.460009e+03
5.900000e-07	-3.526752e-06	-2.203390e-08	-2.412951e+01	-1.450335e+03
6.000000e-07	-3.382088e-06	-2.187346e-08	-2.313973e+01	-1.440422e+03
6.100000e-07	-3.236155e-06	-2.170924e-08	-2.214128e+01	-1.430036e+03
6.200000e-07	-3.089055e-06	-2.153135e-08	-2.113485e+01	-1.418959e+03
6.300000e-07	-2.940898e-06	-2.134583e-08	-2.012118e+01	-1.407085e+03
6.400000e-07	-2.791783e-06	-2.115435e-08	-1.910096e+01	-1.394465e+03
6.500000e-07	-2.641796e-06	-2.096321e-08	-1.807477e+01	-1.381281e+03
6.600000e-07	-2.490953e-06	-2.076479e-08	-1.704272e+01	-1.367769e+03
6.700000e-07	-2.339147e-06	-2.055869e-08	-1.600409e+01	-1.354099e+03
6.800000e-07	-2.186411e-06	-2.034319e-08	-1.495909e+01	-1.340287e+03
6.900000e-07	-2.032935e-06	-2.011895e-08	-1.390904e+01	-1.326163e+03
7.000000e-07	-1.878770e-06	-1.988214e-08	-1.285426e+01	-1.311420e+03
7.100000e-07	-1.723904e-06	-1.962908e-08	-1.179469e+01	-1.295729e+03
7.200000e-07	-1.568409e-06	-1.936755e-08	-1.073081e+01	-1.278865e+03
7.300000e-07	-1.412339e-06	-1.909758e-08	-9.663008e+00	-1.260800e+03
7.400000e-07	-1.255654e-06	-1.882043e-08	-8.590995e+00	-1.241714e+03
7.500000e-07	-1.098467e-06	-1.852810e-08	-7.515543e+00	-1.221912e+03
7.600000e-07	-9.409003e-07	-1.822167e-08	-6.437498e+00	-1.201672e+03
7.700000e-07	-7.830349e-07	-1.789892e-08	-5.357406e+00	-1.181087e+03
7.800000e-07	-6.249605e-07	-1.756073e-08	-4.275885e+00	-1.159967e+03
7.900000e-07	-4.666962e-07	-1.720232e-08	-3.193065e+00	-1.137834e+03
8.000000e-07	-3.082140e-07	-1.682044e-08	-2.108754e+00	-1.114037e+03
8.100000e-07	-1.495928e-07	-1.641785e-08	-1.023491e+00	-1.087941e+03
8.200000e-07	9.067497e-09	-1.598957e-08	6.203844e-02	-1.059106e+03
8.300000e-07	1.677012e-07	-1.553181e-08	1.147386e+00	-1.027398e+03
8.400000e-07	3.262837e-07	-1.502999e-08	2.232384e+00	-9.929569e+02
8.500000e-07	4.847693e-07	-1.447563e-08	3.316718e+00	-9.560111e+02
8.600000e-07	6.430379e-07	-1.385625e-08	4.399568e+00	-9.165959e+02
8.700000e-07	8.011083e-07	-1.316930e-08	5.481062e+00	-8.742450e+02
8.800000e-07	9.589443e-07	-1.241517e-08	6.560952e+00	-8.277675e+02
8.900000e-07	1.116400e-06	-1.158558e-08	7.638240e+00	-7.751925e+02
9.000000e-07	1.273411e-06	-1.065520e-08	8.712483e+00	-7.139228e+02
9.100000e-07	1.429885e-06	-9.582862e-09	9.783056e+00	-6.410806e+02
9.200000e-07	1.585755e-06	-8.314122e-09	1.084949e+01	-5.539789e+02
9.300000e-07	1.741040e-06	-6.772785e-09	1.191194e+01	-4.506201e+02
9.400000e-07	1.895751e-06	-4.882913e-09	1.297044e+01	-3.301228e+02
9.500000e-07	2.049842e-06	-2.651431e-09	1.402471e+01	-1.929992e+02
9.600000e-07	2.203202e-06	-2.389340e-10	1.507397e+01	-4.124472e+01
9.700000e-07	2.355689e-06	2.204446e-09	1.611727e+01	1.217627e+02
9.800000e-07	2.507349e-06	4.644749e-09	1.715490e+01	2.915248e+02
9.900000e-07	2.658232e-06	7.084574e-09	1.818722e+01	4.628057e+02
1.000000e-06	2.808177e-06	9.530645e-09	1.921312e+01	6.300903e+02
1.010000e-06	2.957046e-06	1.196411e-08	2.023166e+01	7.880754e+02
1.020000e-06	3.104838e-06	1.426506e-08	2.124283e+01	9.321514e+02
1.030000e-06	3.251499e-06	1.624288e-08	2.224627e+01	1.058827e+03
1.040000e-06	3.396923e-06	1.782045e-08	2.324123e+01	1.166045e+03
1.050000e-06	3.541071e-06	1.905642e-08	2.422747e+01	1.253336e+03
1.060000e-06	3.683908e-06	2.002375e-08	2.520474e+01	1.321771e+03
1.070000e-06	3.825379e-06	2.077908e-08	2.617266e+01	1.373704e+03
1.080000e-06	3.965424e-06	2.136526e-08	2.713083e+01	1.412333e+03
1.090000e-06	4.103943e-06	2.182102e-08	2.807856e+01	1.441157e+03
1.100000e-06	4.240874e-06	2.218235e-08	2.901542e+01	1.463445e+03
1.110000e-06	4.376269e-06	2.247769e-08	2.994177e+01	1.481803e+03
1.120000e-06	4.510113e-06	2.272548e-08	3.085751e+01	1.497952e+03
1.130000e-06	4.642314e-06	2.293856e-08	3.176201e+01	1.512725e+03
1.140000e-06	4.772816e-06	2.312592e-08	3.265488e+01	1.526271e+03
1.150000e-06	4.901647e-06	2.329421e-08	3.353633e+01	1.538377e+03
1.160000e-06	5.028800e-06	2.344738e-08	3.440629e+01	1.548789e+03
1.170000e-06	5.154191e-06	2.358460e-08	3.526420e+01	1.557462e+03
1.180000e-06	5.277740e-06	2.370274e-08	3.610950e+01	1.564650e+03
1.190000e-06	5.399379e-06	2.380588e-08	3.694173e+01	1.570842e+03
1.200000e-06	5.519061e-06	2.390477e-08	3.776058e+01	1.576603e+03
1.210000e-06	5.636691e-06	2.400182e-08	3.856539e+01	1.582384e+03
1.220000e-06	5.752103e-06	2.409383e-08	3.935502e+01	1.588390e+03
1.230000e-06	5.865292e-06	2.417751e-08	4.012944e+01	1.594545e+03
1.240000e-06	5.976407e-06	2.425847e-08	4.088967e+01	1.600575e+03
1.250000e-06	6.085447e-06	2.433782e-08	4.163571e+01	1.606152e+03
1.260000e-06	6.192329e-06	2.441190e-08	4.236698e+01	1.611045e+03
1.270000e-06	6.297000e-06	2.447816e-08	4.308312e+01	1.615223e+03
1.280000e-06	6.399392e-06	2.454095e-08	4.378368e+01	1.618852e+03
1.290000e-06	6.499417e-06	2.460484e-08	4.446803e+01	1.622226e+03
1.300000e-06	6.597030e-06	2.466548e-08	4.513588e+01	1.625635e+03
1.310000e-06	6.692277e-06	2.472073e-08	4.578755e+01	1.629249e+03
1.320000e-06	6.785242e-06	2.477274e-08	4.642360e+01	1.633055e+03
1.330000e-06	6.875827e-06	2.482713e-08	4.704337e+01	1.636879e+03
1.340000e-06	6.963937e-06	2.488125e-08	4.764621e+01	1.640470e+03
1.350000e-06	7.049694e-06	2.492956e-08	4.823294e+01	1.643614e+03
1.360000e-06	7.133068e-06	2.497360e-08	4.880337e+01	1.646225e+03
1.370000e-06	7.213859e-06	2.501550e-08	4.935613e+01	1.648385e+03
1.380000e-06	7.291959e-06	2.505481e-08	4.989048e+01	1.650300e+03
1.390000e-06	7.367344e-06	2.509054e-08	5.040626e+01	1.652211e+03
1.400000e-06	7.439971e-06	2.512368e-08	5.090316e+01	1.654296e+03
1.410000e-06	7.509949e-06	2.515668e-08	5.138194e+01	1.656595e+03
1.420000e-06	7.577293e-06	2.519110e-08	5.184270e+01	1.659000e+03
1.430000e-06	7.641887e-06	2.522531e-08	5.228463e+01	1.661312e+03
1.440000e-06	7.703854e-06	2.525486e-08	5.270861e+01	1.663327e+03
1.450000e-06	7.763209e-06	2.527884e-08	5.311471e+01	1.664932e+03
1.460000e-06	7.819759e-06	2.530207e-08	5.350161e+01	1.666146e+03
1.470000e-06	7.873398e-06	2.532586e-08	5.386860e+01	1.667116e+03
1.480000e-06	7.923871e-06	2.534804e-08	5.421393e+01	1.668049e+03
1.490000e-06	7.971262e-06	2.536674e-08	5.453817e+01	1.669125e+03
1.500000e-06	8.015897e-06	2.538495e-08	5.484355e+01	1.670417e+03
1.510000e-06	8.057622e-06	2.540499e-08	5.512903e+01	1.671866e+03
1.520000e-06	8.096462e-06	2.542556e-08	5.539477e+01	1.673307e+03
1.530000e-06	8.132576e-06	2.544275e-08	5.564185e+01	1.674540e+03
1.540000e-06	8.165865e-06	2.545543e-08	5.586962e+01	1.675419e+03
1.550000e-06	8.196267e-06	2.546742e-08	5.607762e+01	1.675912e+03
1.560000e-06	8.223784e-06	2.547812e-08	5.626589e+01	1.676111e+03
1.570000e-06	8.248311e-06	2.548567e-08	5.643370e+01	1.676192e+03
1.580000e-06	8.269949e-06	2.548985e-08	5.658174e+01	1.676342e+03
1.590000e-06	8.288759e-06	2.549502e-08	5.671043e+01	1.676674e+03
1.600000e-06	8.304514e-06	2.550324e-08	5.681823e+01	1.677187e+03
1.610000e-06	8.317085e-06	2.551259e-08	5.690424e+01	1.677768e+03
1.620000e-06	8.326460e-06	2.551971e-08	5.696838e+01	1.678246e+03
1.630000e-06	8.332905e-06	2.552415e-08	5.701248e+01	1.678462e+03
1.640000e-06	8.336494e-06	2.552702e-08	5.703703e+01	1.678344e+03
1.650000e-06	8.337147e-06	2.552873e-08	5.704150e+01	1.677932e+03
1.660000e-06	8.335031e-06	2.552213e-08	5.702702e+01	1.677357e+03
1.670000e-06	8.330157e-06	2.551370e-08	5.699368e+01	1.676784e+03
1.680000e-06	8.322484e-06	2.550858e-08	5.694118e+01	1.676340e+03
1.690000e-06	8.311960e-06	2.550430e-08	5.686917e+01	1.676057e+03
1.700000e-06	8.298445e-06	2.550035e-08	5.677671e+01	1.675859e+03
1.710000e-06	8.282242e-06	2.550204e-08	5.666585e+01	1.675599e+03
1.720000e-06	8.263671e-06	2.551353e-08	5.653879e+01	1.675120e+03
1.730000e-06	8.242431e-06	2.549811e-08	5.639347e+01	1.674324e+03
1.740000e-06	8.217962e-06	2.540193e-08	5.622606e+01	1.673214e+03
1.750000e-06	8.189642e-06	2.541108e-08	5.603229e+01	1.671895e+03
1.760000e-06	8.157613e-06	2.543319e-08	5.581316e+01	1.670522e+03
1.770000e-06	8.122851e-06	2.540050e-08	5.557532e+01	1.669245e+03
1.780000e-06	8.085644e-06	2.539769e-08	5.532076e+01	1.668143e+03
1.790000e-06	8.046227e-06	2.546248e-08	5.505107e+01	1.667197e+03
1.800000e-06	8.004865e-06	2.535387e-08	5.476808e+01	1.666308e+03
1.810000e-06	7.960849e-06	2.535835e-08	5.446693e+01	1.665338e+03
1.820000e-06	7.913932e-06	2.541818e-08	5.414593e+01	1.664177e+03
1.830000e-06	7.864208e-06	2.528486e-08	5.380572e+01	1.662780e+03
1.840000e-06	7.811089e-06	2.539851e-08	5.344229e+01	1.661181e+03
1.850000e-06	7.754989e-06	2.531765e-08	5.305847e+01	1.659464e+03
1.860000e-06	7.696273e-06	2.532705e-08	5.265674e+01	1.657714e+03
1.870000e-06	7.634736e-06	2.531698e-08	5.223571e+01	1.655964e+03
1.880000e-06	7.570484e-06	2.518311e-08	5.179611e+01	1.654171e+03
1.890000e-06	7.503360e-06	2.524934e-08	5.133686e+01	1.652232e+03
1.900000e-06	7.433381e-06	2.514454e-08	5.085807e+01	1.650023e+03
1.910000e-06	7.360506e-06	2.519132e-08	5.035947e+01	1.647459e+03
1.920000e-06	7.284840e-06	2.514108e-08	4.984178e+01	1.644537e+03
1.930000e-06	7.206483e-06	2.507582e-08	4.930567e+01	1.641340e+03
1.940000e-06	7.125527e-06	2.506031e-08	4.875178e+01	1.638009e+03
1.950000e-06	7.042152e-06	2.492117e-08	4.818134e+01	1.634682e+03
1.960000e-06	6.956081e-06	2.495225e-08	4.759245e+01	1.631434e+03
1.970000e-06	6.867465e-06	2.484109e-08	4.698616e+01	1.628245e+03
1.980000e-06	6.776503e-06	2.485298e-08	4.636381e+01	1.625001e+03
1.990000e-06	6.683134e-06	2.480683e-08	4.572499e+01	1.621546e+03
2.000000e-06	6.587403e-06	2.473650e-08	4.507002e+01	1.617749e+03
2.010000e-06	6.489319e-06	2.468502e-08	4.439894e+01	1.613557e+03
2.020000e-06	6.388920e-06	2.456015e-08	4.371203e+01	1.609024e+03
2.030000e-06	6.286081e-06	2.453389e-08	4.300842e+01	1.604285e+03
2.040000e-06	6.181009e-06	2.442952e-08	4.228953e+01	1.599499e+03
2.050000e-06	6.073824e-06	2.440484e-08	4.155619e+01	1.594773e+03
2.060000e-06	5.964494e-06	2.431502e-08	4.080817e+01	1.590116e+03
2.070000e-06	5.852942e-06	2.425324e-08	4.004495e+01	1.585421e+03
2.080000e-06	5.739133e-06	2.416798e-08	3.926628e+01	1.580516e+03
2.090000e-06	5.623106e-06	2.407025e-08	3.847244e+01	1.575224e+03
2.100000e-06	5.504793e-06	2.398917e-08	3.766296e+01	1.569443e+03
2.110000e-06	5.384424e-06	2.389028e-08	3.683942e+01	1.563190e+03
2.120000e-06	5.262186e-06	2.381849e-08	3.600308e+01	1.556589e+03
2.130000e-06	5.138136e-06	2.372127e-08	3.515435e+01	1.549821e+03
2.140000e-06	5.012246e-06	2.362971e-08	3.429303e+01	1.543041e+03
2.150000e-06	4.884505e-06	2.350952e-08	3.341904e+01	1.536307e+03
2.160000e-06	4.754953e-06	2.340296e-08	3.253267e+01	1.529548e+03
2.170000e-06	4.623720e-06	2.328598e-08	3.163479e+01	1.522590e+03
2.180000e-06	4.490962e-06	2.318090e-08	3.072648e+01	1.515224e+03
2.190000e-06	4.356661e-06	2.305988e-08	2.980762e+01	1.507292e+03
2.200000e-06	4.220717e-06	2.294570e-08	2.887751e+01	1.498754e+03
2.210000e-06	4.083132e-06	2.281514e-08	2.793617e+01	1.489699e+03
2.220000e-06	3.943991e-06	2.267679e-08	2.698419e+01	1.480306e+03
2.230000e-06	3.803423e-06	2.252656e-08	2.602244e+01	1.470761e+03
2.240000e-06	3.661451e-06	2.237232e-08	2.505109e+01	1.461161e+03
2.250000e-06	3.518015e-06	2.222508e-08	2.406973e+01	1.451471e+03
2.260000e-06	3.373324e-06	2.207120e-08	2.307978e+01	1.441518e+03
2.270000e-06	3.227430e-06	2.191980e-08	2.208159e+01	1.431066e+03
2.280000e-06	3.080363e-06	2.175182e-08	2.107538e+01	1.419906e+03
2.290000e-06	2.932257e-06	2.157939e-08	2.006206e+01	1.407946e+03
2.300000e-06	2.783199e-06	2.138990e-08	1.904223e+01	1.395254e+03
2.310000e-06	2.633177e-06	2.119231e-08	1.801580e+01	1.382023e+03
2.320000e-06	2.482128e-06	2.098384e-08	1.698235e+01	1.368487e+03
2.330000e-06	2.330159e-06	2.077381e-08	1.594259e+01	1.354804e+03
2.340000e-06	2.177361e-06	2.056048e-08	1.489717e+01	1.340969e+03
2.350000e-06	2.023719e-06	2.034390e-08	1.384598e+01	1.326794e+03
2.360000e-06	1.869327e-06	2.011897e-08	1.278965e+01	1.311964e+03
2.370000e-06	1.714316e-06	1.987778e-08	1.172909e+01	1.296154e+03
2.380000e-06	1.558726e-06	1.961855e-08	1.066457e+01	1.279158e+03
2.390000e-06	1.402595e-06	1.934298e-08	9.596346e+00	1.260971e+03
2.400000e-06	1.245929e-06	1.906117e-08	8.524457e+00	1.241792e+03
2.410000e-06	1.088824e-06	1.877202e-08	7.449568e+00	1.221931e+03
2.420000e-06	9.313201e-07	1.847499e-08	6.371952e+00	1.201653e+03
2.430000e-06	7.734856e-07	1.816239e-08	5.292071e+00	1.181025e+03
2.440000e-06	6.154241e-07	1.782988e-08	4.210638e+00	1.159823e+03
2.450000e-06	4.571213e-07	1.747413e-08	3.127555e+00	1.137543e+03
2.460000e-06	2.986374e-07	1.709282e-08	2.043232e+00	1.113528e+03
2.470000e-06	1.400824e-07	1.668839e-08	9.584228e-01	1.087153e+03
2.480000e-06	-1.849178e-08	1.626145e-08	-1.265180e-01	1.058010e+03
2.490000e-06	-1.770471e-07	1.580745e-08	-1.211330e+00	1.025999e+03
2.500000e-06	-3.355267e-07	1.531251e-08	-2.295623e+00	9.912778e+02
2.510000e-06	-4.938503e-07	1.475922e-08	-3.378849e+00	9.540714e+02
2.520000e-06	-6.519762e-07	1.413592e-08	-4.460723e+00	9.143747e+02
2.530000e-06	-8.098815e-07	1.344007e-08	-5.541087e+00	8.716518e+02
2.540000e-06	-9.674784e-07	1.267996e-08	-6.619341e+00	8.246275e+02
2.550000e-06	-1.124679e-06	1.185395e-08	-7.694885e+00	7.712529e+02
2.560000e-06	-1.281494e-06	1.093337e-08	-8.767791e+00	7.088810e+02
2.570000e-06	-1.437834e-06	9.874422e-09	-9.837442e+00	6.346306e+02
2.580000e-06	-1.593557e-06	8.616013e-09	-1.090288e+01	5.458653e+02
2.590000e-06	-1.748645e-06	7.083033e-09	-1.196396e+01	4.406887e+02
2.600000e-06	-1.903159e-06	5.193823e-09	-1.302113e+01	3.183586e+02
2.610000e-06	-2.057021e-06	2.935523e-09	-1.407383e+01	1.795454e+02
2.620000e-06	-2.210175e-06	4.634153e-10	-1.512168e+01	2.640034e+01
2.630000e-06	-2.362546e-06	-2.054612e-09	-1.616418e+01	-1.375633e+02
2.640000e-06	-2.513937e-06	-4.576491e-09	-1.719998e+01	-3.077483e+02
2.650000e-06	-2.664340e-06	-7.099056e-09	-1.822901e+01	-4.788660e+02
2.660000e-06	-2.813772e-06	-9.618521e-09	-1.925140e+01	-6.454003e+02
2.670000e-06	-2.962225e-06	-1.211896e-08	-2.026709e+01	-8.021000e+02
2.680000e-06	-3.109669e-06	-1.447437e-08	-2.127588e+01	-9.444562e+02
2.690000e-06	-3.256041e-06	-1.648648e-08	-2.227734e+01	-1.069119e+03
2.700000e-06	-3.401303e-06	-1.808969e-08	-2.327120e+01	-1.174196e+03
2.710000e-06	-3.545358e-06	-1.934147e-08	-2.425681e+01	-1.259391e+03
2.720000e-06	-3.688117e-06	-2.031181e-08	-2.523354e+01	-1.325928e+03
2.730000e-06	-3.829462e-06	-2.106470e-08	-2.620060e+01	-1.376273e+03
2.740000e-06	-3.969269e-06	-2.165276e-08	-2.715714e+01	-1.413684e+03
2.750000e-06	-4.107576e-06	-2.211634e-08	-2.810341e+01	-1.441662e+03
2.760000e-06	-4.244381e-06	-2.248600e-08	-2.903941e+01	-1.463419e+03
2.770000e-06	-4.379608e-06	-2.278599e-08	-2.996461e+01	-1.481475e+03
2.780000e-06	-4.513216e-06	-2.303635e-08	-3.087874e+01	-1.497452e+03
2.790000e-06	-4.645198e-06	-2.325093e-08	-3.178174e+01	-1.512096e+03
2.800000e-06	-4.775561e-06	-2.343622e-08	-3.267367e+01	-1.525503e+03
2.810000e-06	-4.904286e-06	-2.359760e-08	-3.355438e+01	-1.537437e+03
2.820000e-06	-5.031298e-06	-2.374108e-08	-3.442338e+01	-1.547661e+03
2.830000e-06	-5.156489e-06	-2.387163e-08	-3.527992e+01	-1.556159e+03
2.840000e-06	-5.279851e-06	-2.398942e-08	-3.612395e+01	-1.563214e+03
2.850000e-06	-5.401387e-06	-2.409342e-08	-3.695548e+01	-1.569334e+03
2.860000e-06	-5.520975e-06	-2.418900e-08	-3.777368e+01	-1.575080e+03
2.870000e-06	-5.638459e-06	-2.428113e-08	-3.857748e+01	-1.580882e+03
2.880000e-06	-5.753650e-06	-2.437007e-08	-3.936560e+01	-1.586912e+03
2.890000e-06	-5.866446e-06	-2.445503e-08	-4.013734e+01	-1.593070e+03
2.900000e-06	-5.976972e-06	-2.453435e-08	-4.089354e+01	-1.599068e+03
2.910000e-06	-6.085413e-06	-2.460949e-08	-4.163547e+01	-1.604580e+03
2.920000e-06	-6.191818e-06	-2.468181e-08	-4.236349e+01	-1.609396e+03
2.930000e-06	-6.296074e-06	-2.474847e-08	-4.307679e+01	-1.613504e+03
2.940000e-06	-6.398050e-06	-2.480866e-08	-4.377449e+01	-1.617091e+03
