# Temperatura_=_50.11
# Concentracion g/m^3_=_15500.0
# C_Vs_to_Am_M_A/Vsm_=_65563218390.804596
# pendiente_HvsI_1/m_=_3716.3
# ordenada_HvsI_A/m_=_1297.0
# frecuencia_Hz_=_300800.1213825085

Tiempo_(s)	Campo_(V.s)	Magnetizacion_(V.s)	Campo_(kA/m)	Magnetizacion_(A/m)
0.000000e+00	-5.482903e-06	-1.240900e-08	-3.831070e+01	-8.111040e+02
1.000000e-08	-5.481267e-06	-1.241298e-08	-3.829927e+01	-8.112353e+02
2.000000e-08	-5.477691e-06	-1.241261e-08	-3.827429e+01	-8.114133e+02
3.000000e-08	-5.472371e-06	-1.240544e-08	-3.823711e+01	-8.115655e+02
4.000000e-08	-5.465433e-06	-1.239140e-08	-3.818863e+01	-8.116115e+02
5.000000e-08	-5.456814e-06	-1.237253e-08	-3.812841e+01	-8.114743e+02
6.000000e-08	-5.446220e-06	-1.235494e-08	-3.805439e+01	-8.110913e+02
7.000000e-08	-5.433545e-06	-1.233392e-08	-3.796582e+01	-8.104239e+02
8.000000e-08	-5.418918e-06	-1.231740e-08	-3.786362e+01	-8.094624e+02
9.000000e-08	-5.402011e-06	-1.235820e-08	-3.774548e+01	-8.082279e+02
1.000000e-07	-5.382748e-06	-1.238270e-08	-3.761089e+01	-8.067694e+02
1.100000e-07	-5.361456e-06	-1.234540e-08	-3.746212e+01	-8.051564e+02
1.200000e-07	-5.338359e-06	-1.230981e-08	-3.730073e+01	-8.034693e+02
1.300000e-07	-5.313788e-06	-1.220574e-08	-3.712904e+01	-8.017880e+02
1.400000e-07	-5.287800e-06	-1.217698e-08	-3.694746e+01	-8.001801e+02
1.500000e-07	-5.259968e-06	-1.226958e-08	-3.675299e+01	-7.986910e+02
1.600000e-07	-5.230341e-06	-1.216292e-08	-3.654598e+01	-7.973373e+02
1.700000e-07	-5.199208e-06	-1.213664e-08	-3.632844e+01	-7.961037e+02
1.800000e-07	-5.166165e-06	-1.221585e-08	-3.609756e+01	-7.949445e+02
1.900000e-07	-5.131051e-06	-1.209312e-08	-3.585221e+01	-7.937897e+02
2.000000e-07	-5.094291e-06	-1.208453e-08	-3.559535e+01	-7.925537e+02
2.100000e-07	-5.055876e-06	-1.208129e-08	-3.532694e+01	-7.911471e+02
2.200000e-07	-5.015697e-06	-1.196226e-08	-3.504620e+01	-7.894889e+02
2.300000e-07	-4.973648e-06	-1.199518e-08	-3.475239e+01	-7.875172e+02
2.400000e-07	-4.929642e-06	-1.199800e-08	-3.444490e+01	-7.851979e+02
2.500000e-07	-4.883861e-06	-1.193106e-08	-3.412501e+01	-7.825293e+02
2.600000e-07	-4.836273e-06	-1.188828e-08	-3.379250e+01	-7.795425e+02
2.700000e-07	-4.786729e-06	-1.178436e-08	-3.344632e+01	-7.762973e+02
2.800000e-07	-4.735120e-06	-1.175783e-08	-3.308572e+01	-7.728735e+02
2.900000e-07	-4.681510e-06	-1.175786e-08	-3.271113e+01	-7.693603e+02
3.000000e-07	-4.626176e-06	-1.170009e-08	-3.232449e+01	-7.658437e+02
3.100000e-07	-4.569237e-06	-1.164216e-08	-3.192664e+01	-7.623942e+02
3.200000e-07	-4.510577e-06	-1.161203e-08	-3.151677e+01	-7.590570e+02
3.300000e-07	-4.450246e-06	-1.157853e-08	-3.109522e+01	-7.558450e+02
3.400000e-07	-4.388392e-06	-1.147775e-08	-3.066302e+01	-7.527367e+02
3.500000e-07	-4.325058e-06	-1.140613e-08	-3.022049e+01	-7.496786e+02
3.600000e-07	-4.260271e-06	-1.135588e-08	-2.976780e+01	-7.465920e+02
3.700000e-07	-4.193864e-06	-1.130922e-08	-2.930379e+01	-7.433837e+02
3.800000e-07	-4.125733e-06	-1.129112e-08	-2.882775e+01	-7.399585e+02
3.900000e-07	-4.056067e-06	-1.121549e-08	-2.834097e+01	-7.362321e+02
4.000000e-07	-3.985103e-06	-1.113073e-08	-2.784512e+01	-7.321431e+02
4.100000e-07	-3.912927e-06	-1.106685e-08	-2.734080e+01	-7.276611e+02
4.200000e-07	-3.839370e-06	-1.099275e-08	-2.682684e+01	-7.227917e+02
4.300000e-07	-3.764109e-06	-1.090920e-08	-2.630097e+01	-7.175753e+02
4.400000e-07	-3.687144e-06	-1.082489e-08	-2.576319e+01	-7.120818e+02
4.500000e-07	-3.608736e-06	-1.076850e-08	-2.521533e+01	-7.064009e+02
4.600000e-07	-3.528917e-06	-1.070925e-08	-2.465761e+01	-7.006291e+02
4.700000e-07	-3.447682e-06	-1.063031e-08	-2.408999e+01	-6.948557e+02
4.800000e-07	-3.365240e-06	-1.052855e-08	-2.351395e+01	-6.891498e+02
4.900000e-07	-3.281657e-06	-1.042476e-08	-2.292993e+01	-6.835491e+02
5.000000e-07	-3.196992e-06	-1.034637e-08	-2.233835e+01	-6.780534e+02
5.100000e-07	-3.111393e-06	-1.026402e-08	-2.174024e+01	-6.726234e+02
5.200000e-07	-3.024825e-06	-1.017148e-08	-2.113536e+01	-6.671846e+02
5.300000e-07	-2.937262e-06	-1.007182e-08	-2.052354e+01	-6.616364e+02
5.400000e-07	-2.848776e-06	-9.973215e-09	-1.990526e+01	-6.558650e+02
5.500000e-07	-2.759412e-06	-9.874522e-09	-1.928085e+01	-6.497589e+02
5.600000e-07	-2.668965e-06	-9.759484e-09	-1.864886e+01	-6.432242e+02
5.700000e-07	-2.577232e-06	-9.639756e-09	-1.800790e+01	-6.361978e+02
5.800000e-07	-2.484508e-06	-9.530443e-09	-1.736001e+01	-6.286566e+02
5.900000e-07	-2.391077e-06	-9.432832e-09	-1.670718e+01	-6.206215e+02
6.000000e-07	-2.296855e-06	-9.321713e-09	-1.604882e+01	-6.121551e+02
6.100000e-07	-2.201852e-06	-9.189483e-09	-1.538500e+01	-6.033528e+02
6.200000e-07	-2.106102e-06	-9.051290e-09	-1.471597e+01	-5.943297e+02
6.300000e-07	-2.009632e-06	-8.919657e-09	-1.404191e+01	-5.852030e+02
6.400000e-07	-1.912502e-06	-8.793925e-09	-1.336323e+01	-5.760738e+02
6.500000e-07	-1.814623e-06	-8.658085e-09	-1.267932e+01	-5.670099e+02
6.600000e-07	-1.715887e-06	-8.516529e-09	-1.198942e+01	-5.580330e+02
6.700000e-07	-1.616337e-06	-8.376568e-09	-1.129383e+01	-5.491104e+02
6.800000e-07	-1.516110e-06	-8.231893e-09	-1.059352e+01	-5.401556e+02
6.900000e-07	-1.415394e-06	-8.069471e-09	-9.889786e+00	-5.310349e+02
7.000000e-07	-1.314343e-06	-7.894694e-09	-9.183710e+00	-5.215820e+02
7.100000e-07	-1.212930e-06	-7.724404e-09	-8.475108e+00	-5.116176e+02
7.200000e-07	-1.111040e-06	-7.558734e-09	-7.763174e+00	-5.009719e+02
7.300000e-07	-1.008716e-06	-7.386342e-09	-7.048204e+00	-4.895075e+02
7.400000e-07	-9.060850e-07	-7.200336e-09	-6.331090e+00	-4.771382e+02
7.500000e-07	-8.031501e-07	-7.007028e-09	-5.611853e+00	-4.638430e+02
7.600000e-07	-6.999541e-07	-6.808148e-09	-4.890791e+00	-4.496700e+02
7.700000e-07	-5.965715e-07	-6.598392e-09	-4.168426e+00	-4.347313e+02
7.800000e-07	-4.929564e-07	-6.373862e-09	-3.444435e+00	-4.191882e+02
7.900000e-07	-3.891446e-07	-6.142976e-09	-2.719071e+00	-4.032261e+02
8.000000e-07	-2.852395e-07	-5.915525e-09	-1.993055e+00	-3.870243e+02
8.100000e-07	-1.812128e-07	-5.683306e-09	-1.266189e+00	-3.707217e+02
8.200000e-07	-7.707678e-08	-5.433290e-09	-5.385588e-01	-3.543838e+02
8.300000e-07	2.708297e-08	-5.163835e-09	1.892369e-01	-3.379747e+02
8.400000e-07	1.312362e-07	-4.881950e-09	9.169872e-01	-3.213382e+02
8.500000e-07	2.353191e-07	-4.590158e-09	1.644246e+00	-3.041916e+02
8.600000e-07	3.392910e-07	-4.280822e-09	2.370729e+00	-2.861336e+02
8.700000e-07	4.431217e-07	-3.946443e-09	3.096226e+00	-2.666668e+02
8.800000e-07	5.468060e-07	-3.593141e-09	3.820699e+00	-2.452347e+02
8.900000e-07	6.503601e-07	-3.225952e-09	4.544263e+00	-2.212681e+02
9.000000e-07	7.537006e-07	-2.833976e-09	5.266334e+00	-1.942399e+02
9.100000e-07	8.567491e-07	-2.400729e-09	5.986366e+00	-1.637202e+02
9.200000e-07	9.594793e-07	-1.921470e-09	6.704172e+00	-1.294278e+02
9.300000e-07	1.061873e-06	-1.397385e-09	7.419626e+00	-9.127278e+01
9.400000e-07	1.163914e-06	-8.163037e-10	8.132619e+00	-4.938396e+01
9.500000e-07	1.265528e-06	-1.562394e-10	8.842624e+00	-4.119810e+00
9.600000e-07	1.366693e-06	5.915003e-10	9.549499e+00	4.394058e+01
9.700000e-07	1.467501e-06	1.408391e-09	1.025387e+01	9.402546e+01
9.800000e-07	1.567908e-06	2.262437e-09	1.095545e+01	1.452157e+02
9.900000e-07	1.667763e-06	3.120012e-09	1.165316e+01	1.965030e+02
1.000000e-06	1.766916e-06	3.946062e-09	1.234598e+01	2.468574e+02
1.010000e-06	1.865246e-06	4.705619e-09	1.303304e+01	2.952953e+02
1.020000e-06	1.962755e-06	5.378322e-09	1.371436e+01	3.409453e+02
1.030000e-06	2.059482e-06	5.971051e-09	1.439022e+01	3.831029e+02
1.040000e-06	2.155460e-06	6.498243e-09	1.506085e+01	4.212712e+02
1.050000e-06	2.250716e-06	6.962986e-09	1.572643e+01	4.551834e+02
1.060000e-06	2.345292e-06	7.364814e-09	1.638726e+01	4.848057e+02
1.070000e-06	2.439138e-06	7.717316e-09	1.704300e+01	5.103214e+02
1.080000e-06	2.532212e-06	8.036689e-09	1.769333e+01	5.320974e+02
1.090000e-06	2.624507e-06	8.326576e-09	1.833823e+01	5.506387e+02
1.100000e-06	2.715786e-06	8.583071e-09	1.897602e+01	5.665337e+02
1.110000e-06	2.805846e-06	8.811852e-09	1.960530e+01	5.803977e+02
1.120000e-06	2.894774e-06	9.028158e-09	2.022666e+01	5.928196e+02
1.130000e-06	2.982688e-06	9.239818e-09	2.084094e+01	6.043157e+02
1.140000e-06	3.069615e-06	9.438664e-09	2.144833e+01	6.152963e+02
1.150000e-06	3.155565e-06	9.615144e-09	2.204889e+01	6.260461e+02
1.160000e-06	3.240540e-06	9.774080e-09	2.264264e+01	6.367193e+02
1.170000e-06	3.324502e-06	9.925101e-09	2.322930e+01	6.473501e+02
1.180000e-06	3.407243e-06	1.007179e-08	2.380744e+01	6.578733e+02
1.190000e-06	3.488667e-06	1.021102e-08	2.437637e+01	6.681545e+02
1.200000e-06	3.568894e-06	1.034067e-08	2.493694e+01	6.780243e+02
1.210000e-06	3.647888e-06	1.046290e-08	2.548889e+01	6.873120e+02
1.220000e-06	3.725561e-06	1.058192e-08	2.603162e+01	6.958756e+02
1.230000e-06	3.801887e-06	1.069479e-08	2.656493e+01	7.036243e+02
1.240000e-06	3.876646e-06	1.079443e-08	2.708730e+01	7.105322e+02
1.250000e-06	3.949799e-06	1.088394e-08	2.759844e+01	7.166409e+02
1.260000e-06	4.021577e-06	1.097412e-08	2.809997e+01	7.220531e+02
1.270000e-06	4.092005e-06	1.106550e-08	2.859207e+01	7.269177e+02
1.280000e-06	4.161027e-06	1.115103e-08	2.907435e+01	7.314097e+02
1.290000e-06	4.228591e-06	1.122913e-08	2.954644e+01	7.357069e+02
1.300000e-06	4.294482e-06	1.130588e-08	3.000684e+01	7.399683e+02
1.310000e-06	4.358727e-06	1.138411e-08	3.045574e+01	7.443152e+02
1.320000e-06	4.421513e-06	1.145713e-08	3.089445e+01	7.488184e+02
1.330000e-06	4.482936e-06	1.152232e-08	3.132363e+01	7.534930e+02
1.340000e-06	4.543020e-06	1.158470e-08	3.174345e+01	7.583001e+02
1.350000e-06	4.601392e-06	1.164767e-08	3.215132e+01	7.631563e+02
1.360000e-06	4.657928e-06	1.170867e-08	3.254635e+01	7.679481e+02
1.370000e-06	4.712822e-06	1.176518e-08	3.292991e+01	7.725493e+02
1.380000e-06	4.766014e-06	1.181869e-08	3.330158e+01	7.768402e+02
1.390000e-06	4.817225e-06	1.187110e-08	3.365941e+01	7.807238e+02
1.400000e-06	4.866367e-06	1.192319e-08	3.400278e+01	7.841390e+02
1.410000e-06	4.913686e-06	1.196942e-08	3.433341e+01	7.870679e+02
1.420000e-06	4.959425e-06	1.200818e-08	3.465300e+01	7.895371e+02
1.430000e-06	5.003552e-06	1.204480e-08	3.496133e+01	7.916129e+02
1.440000e-06	5.045754e-06	1.208334e-08	3.525621e+01	7.933910e+02
1.450000e-06	5.086074e-06	1.212234e-08	3.553794e+01	7.949828e+02
1.460000e-06	5.124715e-06	1.215766e-08	3.580794e+01	7.965000e+02
1.470000e-06	5.161715e-06	1.218992e-08	3.606646e+01	7.980396e+02
1.480000e-06	5.196884e-06	1.222230e-08	3.631220e+01	7.996718e+02
1.490000e-06	5.230085e-06	1.225315e-08	3.654419e+01	8.014313e+02
1.500000e-06	5.261510e-06	1.227650e-08	3.676376e+01	8.033143e+02
1.510000e-06	5.291256e-06	1.229443e-08	3.697161e+01	8.052810e+02
1.520000e-06	5.319179e-06	1.231469e-08	3.716671e+01	8.072623e+02
1.530000e-06	5.345031e-06	1.233678e-08	3.734735e+01	8.091712e+02
1.540000e-06	5.368877e-06	1.235548e-08	3.751397e+01	8.109158e+02
1.550000e-06	5.390920e-06	1.237007e-08	3.766799e+01	8.124127e+02
1.560000e-06	5.411228e-06	1.238394e-08	3.780989e+01	8.135990e+02
1.570000e-06	5.429611e-06	1.239866e-08	3.793833e+01	8.144408e+02
1.580000e-06	5.445968e-06	1.241121e-08	3.805263e+01	8.149382e+02
1.590000e-06	5.460402e-06	1.242086e-08	3.815348e+01	8.151243e+02
1.600000e-06	5.472724e-06	1.242889e-08	3.823958e+01	8.150607e+02
1.610000e-06	5.482822e-06	1.243428e-08	3.831014e+01	8.148283e+02
1.620000e-06	5.490900e-06	1.243766e-08	3.836658e+01	8.145157e+02
1.630000e-06	5.497136e-06	1.244052e-08	3.841015e+01	8.142072e+02
1.640000e-06	5.501542e-06	1.244202e-08	3.844094e+01	8.139709e+02
1.650000e-06	5.503906e-06	1.244550e-08	3.845746e+01	8.138497e+02
1.660000e-06	5.504270e-06	1.245107e-08	3.846000e+01	8.138559e+02
1.670000e-06	5.502912e-06	1.244969e-08	3.845051e+01	8.139698e+02
1.680000e-06	5.499882e-06	1.244361e-08	3.842934e+01	8.141436e+02
1.690000e-06	5.494978e-06	1.243527e-08	3.839508e+01	8.143082e+02
1.700000e-06	5.488138e-06	1.242570e-08	3.834728e+01	8.143840e+02
1.710000e-06	5.479643e-06	1.241596e-08	3.828793e+01	8.142922e+02
1.720000e-06	5.469533e-06	1.240700e-08	3.821728e+01	8.139664e+02
1.730000e-06	5.457459e-06	1.241773e-08	3.813292e+01	8.133620e+02
1.740000e-06	5.443313e-06	1.240225e-08	3.803407e+01	8.124630e+02
1.750000e-06	5.427145e-06	1.232225e-08	3.792111e+01	8.112840e+02
1.760000e-06	5.408486e-06	1.229830e-08	3.779073e+01	8.098684e+02
1.770000e-06	5.387046e-06	1.229698e-08	3.764092e+01	8.082822e+02
1.780000e-06	5.363508e-06	1.234828e-08	3.747645e+01	8.066043e+02
1.790000e-06	5.338918e-06	1.239052e-08	3.730464e+01	8.049157e+02
1.800000e-06	5.313490e-06	1.222443e-08	3.712696e+01	8.032876e+02
1.810000e-06	5.286212e-06	1.224179e-08	3.693636e+01	8.017708e+02
1.820000e-06	5.256595e-06	1.230092e-08	3.672942e+01	8.003886e+02
1.830000e-06	5.225366e-06	1.212972e-08	3.651121e+01	7.991323e+02
1.840000e-06	5.192455e-06	1.219045e-08	3.628126e+01	7.979627e+02
1.850000e-06	5.157762e-06	1.219516e-08	3.603884e+01	7.968140e+02
1.860000e-06	5.121400e-06	1.203411e-08	3.578477e+01	7.956031e+02
1.870000e-06	5.082909e-06	1.213290e-08	3.551582e+01	7.942407e+02
1.880000e-06	5.042629e-06	1.207808e-08	3.523438e+01	7.926426e+02
1.890000e-06	5.000788e-06	1.195807e-08	3.494202e+01	7.907423e+02
1.900000e-06	4.957079e-06	1.198077e-08	3.463661e+01	7.884990e+02
1.910000e-06	4.911654e-06	1.188213e-08	3.431921e+01	7.859039e+02
1.920000e-06	4.864349e-06	1.194707e-08	3.398868e+01	7.829814e+02
1.930000e-06	4.815167e-06	1.192730e-08	3.364503e+01	7.797856e+02
1.940000e-06	4.764300e-06	1.177509e-08	3.328960e+01	7.763929e+02
1.950000e-06	4.711326e-06	1.178937e-08	3.291946e+01	7.728916e+02
1.960000e-06	4.656421e-06	1.172503e-08	3.253582e+01	7.693693e+02
1.970000e-06	4.599873e-06	1.168637e-08	3.214070e+01	7.659009e+02
1.980000e-06	4.541717e-06	1.161562e-08	3.173435e+01	7.625377e+02
1.990000e-06	4.482056e-06	1.156359e-08	3.131748e+01	7.592997e+02
2.000000e-06	4.420674e-06	1.158602e-08	3.088859e+01	7.561729e+02
2.010000e-06	4.357632e-06	1.148230e-08	3.044809e+01	7.531101e+02
2.020000e-06	4.293050e-06	1.144955e-08	2.999684e+01	7.500374e+02
2.030000e-06	4.227059e-06	1.135065e-08	2.953574e+01	7.468636e+02
2.040000e-06	4.159640e-06	1.127355e-08	2.906466e+01	7.434928e+02
2.050000e-06	4.090446e-06	1.125982e-08	2.858118e+01	7.398373e+02
2.060000e-06	4.019634e-06	1.115050e-08	2.808640e+01	7.358299e+02
2.070000e-06	3.947453e-06	1.111940e-08	2.758205e+01	7.314332e+02
2.080000e-06	3.873996e-06	1.104229e-08	2.706878e+01	7.266448e+02
2.090000e-06	3.799139e-06	1.099440e-08	2.654573e+01	7.214980e+02
2.100000e-06	3.722576e-06	1.092839e-08	2.601076e+01	7.160570e+02
2.110000e-06	3.644360e-06	1.081120e-08	2.546424e+01	7.104084e+02
2.120000e-06	3.564874e-06	1.074174e-08	2.490885e+01	7.046483e+02
2.130000e-06	3.484301e-06	1.064704e-08	2.434587e+01	6.988689e+02
2.140000e-06	3.402487e-06	1.060422e-08	2.377420e+01	6.931444e+02
2.150000e-06	3.319495e-06	1.051244e-08	2.319431e+01	6.875200e+02
2.160000e-06	3.235350e-06	1.041865e-08	2.260637e+01	6.820040e+02
2.170000e-06	3.149889e-06	1.033086e-08	2.200922e+01	6.765654e+02
2.180000e-06	3.063180e-06	1.022112e-08	2.140337e+01	6.711365e+02
2.190000e-06	2.975504e-06	1.013491e-08	2.079074e+01	6.656213e+02
2.200000e-06	2.886893e-06	1.002157e-08	2.017160e+01	6.599076e+02
2.210000e-06	2.797317e-06	9.937157e-09	1.954570e+01	6.538823e+02
2.220000e-06	2.706850e-06	9.846449e-09	1.891358e+01	6.474462e+02
2.230000e-06	2.615502e-06	9.743886e-09	1.827531e+01	6.405288e+02
2.240000e-06	2.523219e-06	9.620317e-09	1.763050e+01	6.330979e+02
2.250000e-06	2.429796e-06	9.490105e-09	1.697772e+01	6.251649e+02
2.260000e-06	2.335285e-06	9.386080e-09	1.631735e+01	6.167840e+02
2.270000e-06	2.240008e-06	9.276942e-09	1.565161e+01	6.080447e+02
2.280000e-06	2.144076e-06	9.163268e-09	1.498131e+01	5.990591e+02
2.290000e-06	2.047414e-06	9.031227e-09	1.430590e+01	5.899455e+02
2.300000e-06	1.950084e-06	8.898505e-09	1.362583e+01	5.808100e+02
2.310000e-06	1.852205e-06	8.762510e-09	1.294192e+01	5.717288e+02
2.320000e-06	1.753712e-06	8.616384e-09	1.225371e+01	5.627343e+02
2.330000e-06	1.654653e-06	8.465931e-09	1.156156e+01	5.538059e+02
2.340000e-06	1.555149e-06	8.319077e-09	1.086630e+01	5.448681e+02
2.350000e-06	1.455174e-06	8.177149e-09	1.016774e+01	5.357963e+02
2.360000e-06	1.354643e-06	8.023125e-09	9.465304e+00	5.264298e+02
2.370000e-06	1.253460e-06	7.853395e-09	8.758302e+00	5.165902e+02
2.380000e-06	1.151664e-06	7.674931e-09	8.047025e+00	5.061038e+02
2.390000e-06	1.049333e-06	7.499294e-09	7.332004e+00	4.948242e+02
2.400000e-06	9.464877e-07	7.321305e-09	6.613396e+00	4.826532e+02
2.410000e-06	8.432735e-07	7.135953e-09	5.892207e+00	4.695550e+02
2.420000e-06	7.398408e-07	6.941126e-09	5.169491e+00	4.555629e+02
2.430000e-06	6.362810e-07	6.737389e-09	4.445888e+00	4.407763e+02
2.440000e-06	5.325957e-07	6.522333e-09	3.721408e+00	4.253477e+02
2.450000e-06	4.287214e-07	6.296515e-09	2.995606e+00	4.094598e+02
2.460000e-06	3.246741e-07	6.062817e-09	2.268596e+00	3.932960e+02
2.470000e-06	2.205177e-07	5.822626e-09	1.540824e+00	3.770068e+02
2.480000e-06	1.162814e-07	5.576141e-09	8.124935e-01	3.606760e+02
2.490000e-06	1.201697e-08	5.316651e-09	8.396623e-02	3.442912e+02
2.500000e-06	-9.222931e-08	5.041719e-09	-6.444341e-01	3.277231e+02
2.510000e-06	-1.964079e-07	4.748760e-09	-1.372362e+00	3.107161e+02
2.520000e-06	-3.004634e-07	4.438868e-09	-2.099429e+00	2.928927e+02
2.530000e-06	-4.044404e-07	4.114737e-09	-2.825947e+00	2.737735e+02
2.540000e-06	-5.082877e-07	3.772863e-09	-3.551560e+00	2.528110e+02
2.550000e-06	-6.119549e-07	3.409133e-09	-4.275914e+00	2.294344e+02
2.560000e-06	-7.154278e-07	3.022893e-09	-4.998910e+00	2.031029e+02
2.570000e-06	-8.186850e-07	2.607607e-09	-5.720400e+00	1.733610e+02
2.580000e-06	-9.216673e-07	2.150925e-09	-6.439968e+00	1.398920e+02
2.590000e-06	-1.024241e-06	1.641247e-09	-7.156679e+00	1.025618e+02
2.600000e-06	-1.126349e-06	1.070088e-09	-7.870140e+00	6.145094e+01
2.610000e-06	-1.227958e-06	4.310380e-10	-8.580113e+00	1.686878e+01
2.620000e-06	-1.328982e-06	-2.820709e-10	-9.286000e+00	-3.065115e+01
2.630000e-06	-1.429385e-06	-1.068541e-09	-9.987546e+00	-8.037515e+01
2.640000e-06	-1.529230e-06	-1.911469e-09	-1.068519e+01	-1.314111e+02
2.650000e-06	-1.628585e-06	-2.777552e-09	-1.137942e+01	-1.827644e+02
2.660000e-06	-1.727417e-06	-3.626124e-09	-1.206998e+01	-2.334039e+02
2.670000e-06	-1.825668e-06	-4.420891e-09	-1.275650e+01	-2.823303e+02
2.680000e-06	-1.923368e-06	-5.139509e-09	-1.343915e+01	-3.286432e+02
2.690000e-06	-2.020402e-06	-5.772284e-09	-1.411716e+01	-3.715983e+02
2.700000e-06	-2.116713e-06	-6.320336e-09	-1.479012e+01	-4.106517e+02
2.710000e-06	-2.212399e-06	-6.797561e-09	-1.545870e+01	-4.454863e+02
2.720000e-06	-2.307484e-06	-7.219805e-09	-1.612309e+01	-4.760192e+02
2.730000e-06	-2.401866e-06	-7.592935e-09	-1.678256e+01	-5.023894e+02
2.740000e-06	-2.495266e-06	-7.922541e-09	-1.743518e+01	-5.249280e+02
2.750000e-06	-2.587542e-06	-8.220394e-09	-1.807994e+01	-5.441146e+02
2.760000e-06	-2.678802e-06	-8.493580e-09	-1.871760e+01	-5.605247e+02
2.770000e-06	-2.769109e-06	-8.743098e-09	-1.934860e+01	-5.747725e+02
2.780000e-06	-2.858384e-06	-8.970428e-09	-1.997240e+01	-5.874566e+02
2.790000e-06	-2.946626e-06	-9.180742e-09	-2.058896e+01	-5.991123e+02
2.800000e-06	-3.033977e-06	-9.377769e-09	-2.119931e+01	-6.101747e+02
2.810000e-06	-3.120365e-06	-9.560567e-09	-2.180294e+01	-6.209563e+02
2.820000e-06	-3.205456e-06	-9.729237e-09	-2.239749e+01	-6.316390e+02
2.830000e-06	-3.289221e-06	-9.886504e-09	-2.298278e+01	-6.422812e+02
2.840000e-06	-3.371860e-06	-1.003634e-08	-2.356020e+01	-6.528366e+02
2.850000e-06	-3.453390e-06	-1.017663e-08	-2.412988e+01	-6.631831e+02
2.860000e-06	-3.533807e-06	-1.030635e-08	-2.469178e+01	-6.731556e+02
2.870000e-06	-3.613097e-06	-1.042721e-08	-2.524580e+01	-6.825811e+02
2.880000e-06	-3.691006e-06	-1.054232e-08	-2.579018e+01	-6.913093e+02
2.890000e-06	-3.767331e-06	-1.065300e-08	-2.632348e+01	-6.992369e+02
2.900000e-06	-3.842185e-06	-1.075623e-08	-2.684651e+01	-7.063235e+02
2.910000e-06	-3.915594e-06	-1.085166e-08	-2.735944e+01	-7.125965e+02
2.920000e-06	-3.987630e-06	-1.094452e-08	-2.786277e+01	-7.181465e+02
2.930000e-06	-4.058367e-06	-1.103767e-08	-2.835704e+01	-7.231140e+02
2.940000e-06	-4.127543e-06	-1.112788e-08	-2.884039e+01	-7.276703e+02
