# Temperatura_=_56.36
# Concentracion g/m^3_=_15500.0
# C_Vs_to_Am_M_A/Vsm_=_65563218390.804596
# pendiente_HvsI_1/m_=_3716.3
# ordenada_HvsI_A/m_=_1297.0
# frecuencia_Hz_=_300796.8852762106

Tiempo_(s)	Campo_(V.s)	Magnetizacion_(V.s)	Campo_(kA/m)	Magnetizacion_(A/m)
0.000000e+00	-5.512183e-06	-1.258794e-08	-3.830888e+01	-8.242624e+02
1.000000e-08	-5.510495e-06	-1.259375e-08	-3.829715e+01	-8.244722e+02
2.000000e-08	-5.506789e-06	-1.259217e-08	-3.827139e+01	-8.247118e+02
3.000000e-08	-5.501343e-06	-1.258507e-08	-3.823354e+01	-8.249011e+02
4.000000e-08	-5.494306e-06	-1.257534e-08	-3.818464e+01	-8.249549e+02
5.000000e-08	-5.485619e-06	-1.256013e-08	-3.812426e+01	-8.247948e+02
6.000000e-08	-5.474984e-06	-1.254115e-08	-3.805035e+01	-8.243609e+02
7.000000e-08	-5.462244e-06	-1.251460e-08	-3.796181e+01	-8.236201e+02
8.000000e-08	-5.447500e-06	-1.249410e-08	-3.785934e+01	-8.225709e+02
9.000000e-08	-5.430424e-06	-1.255355e-08	-3.774067e+01	-8.212433e+02
1.000000e-07	-5.410999e-06	-1.258232e-08	-3.760567e+01	-8.196952e+02
1.100000e-07	-5.389576e-06	-1.252681e-08	-3.745678e+01	-8.180033e+02
1.200000e-07	-5.366356e-06	-1.249770e-08	-3.729540e+01	-8.162528e+02
1.300000e-07	-5.341679e-06	-1.238660e-08	-3.712390e+01	-8.145248e+02
1.400000e-07	-5.315516e-06	-1.233699e-08	-3.694207e+01	-8.128846e+02
1.500000e-07	-5.287457e-06	-1.247337e-08	-3.674707e+01	-8.113725e+02
1.600000e-07	-5.257611e-06	-1.234149e-08	-3.653964e+01	-8.099969e+02
1.700000e-07	-5.226202e-06	-1.229242e-08	-3.632135e+01	-8.087333e+02
1.800000e-07	-5.192849e-06	-1.242503e-08	-3.608955e+01	-8.075266e+02
1.900000e-07	-5.157470e-06	-1.227462e-08	-3.584367e+01	-8.062984e+02
2.000000e-07	-5.120533e-06	-1.226367e-08	-3.558697e+01	-8.049574e+02
2.100000e-07	-5.081922e-06	-1.226991e-08	-3.531863e+01	-8.034118e+02
2.200000e-07	-5.041499e-06	-1.211860e-08	-3.503769e+01	-8.015813e+02
2.300000e-07	-4.999120e-06	-1.216078e-08	-3.474317e+01	-7.994087e+02
2.400000e-07	-4.954713e-06	-1.216736e-08	-3.443454e+01	-7.968673e+02
2.500000e-07	-4.908575e-06	-1.210045e-08	-3.411389e+01	-7.939648e+02
2.600000e-07	-4.860652e-06	-1.207184e-08	-3.378083e+01	-7.907425e+02
2.700000e-07	-4.810657e-06	-1.195687e-08	-3.343338e+01	-7.872695e+02
2.800000e-07	-4.758541e-06	-1.193963e-08	-3.307117e+01	-7.836332e+02
2.900000e-07	-4.704522e-06	-1.192090e-08	-3.269575e+01	-7.799275e+02
3.000000e-07	-4.648881e-06	-1.184707e-08	-3.230905e+01	-7.762393e+02
3.100000e-07	-4.591619e-06	-1.179747e-08	-3.191109e+01	-7.726369e+02
3.200000e-07	-4.532491e-06	-1.176385e-08	-3.150016e+01	-7.691597e+02
3.300000e-07	-4.471713e-06	-1.173960e-08	-3.107776e+01	-7.658127e+02
3.400000e-07	-4.409522e-06	-1.163632e-08	-3.064554e+01	-7.625654e+02
3.500000e-07	-4.345854e-06	-1.156913e-08	-3.020306e+01	-7.593554e+02
3.600000e-07	-4.280647e-06	-1.151118e-08	-2.974988e+01	-7.560967e+02
3.700000e-07	-4.213743e-06	-1.145055e-08	-2.928491e+01	-7.526917e+02
3.800000e-07	-4.145217e-06	-1.143100e-08	-2.880866e+01	-7.490438e+02
3.900000e-07	-4.075218e-06	-1.134390e-08	-2.832218e+01	-7.450714e+02
4.000000e-07	-4.003874e-06	-1.125950e-08	-2.782635e+01	-7.407189e+02
4.100000e-07	-3.931313e-06	-1.119627e-08	-2.732206e+01	-7.359649e+02
4.200000e-07	-3.857249e-06	-1.112620e-08	-2.680732e+01	-7.308249e+02
4.300000e-07	-3.781380e-06	-1.105016e-08	-2.628005e+01	-7.253498e+02
4.400000e-07	-3.703918e-06	-1.095889e-08	-2.574170e+01	-7.196185e+02
4.500000e-07	-3.625027e-06	-1.089606e-08	-2.519342e+01	-7.137272e+02
4.600000e-07	-3.544585e-06	-1.082669e-08	-2.463436e+01	-7.077751e+02
4.700000e-07	-3.462798e-06	-1.074263e-08	-2.406595e+01	-7.018505e+02
4.800000e-07	-3.379806e-06	-1.063848e-08	-2.348917e+01	-6.960169e+02
4.900000e-07	-3.295673e-06	-1.053332e-08	-2.290445e+01	-6.903034e+02
5.000000e-07	-3.210606e-06	-1.045736e-08	-2.231325e+01	-6.846991e+02
5.100000e-07	-3.124603e-06	-1.037375e-08	-2.171554e+01	-6.791530e+02
5.200000e-07	-3.037600e-06	-1.027949e-08	-2.111088e+01	-6.735798e+02
5.300000e-07	-2.949598e-06	-1.017031e-08	-2.049928e+01	-6.678703e+02
5.400000e-07	-2.860695e-06	-1.006607e-08	-1.988142e+01	-6.619063e+02
5.500000e-07	-2.770722e-06	-9.968272e-09	-1.925612e+01	-6.555757e+02
5.600000e-07	-2.679524e-06	-9.855551e-09	-1.862231e+01	-6.487890e+02
5.700000e-07	-2.587268e-06	-9.737077e-09	-1.798114e+01	-6.414913e+02
5.800000e-07	-2.494159e-06	-9.620754e-09	-1.733405e+01	-6.336711e+02
5.900000e-07	-2.400288e-06	-9.517299e-09	-1.668165e+01	-6.253621e+02
6.000000e-07	-2.305591e-06	-9.403748e-09	-1.602352e+01	-6.166393e+02
6.100000e-07	-2.210078e-06	-9.271529e-09	-1.535972e+01	-6.076088e+02
6.200000e-07	-2.113850e-06	-9.133226e-09	-1.469095e+01	-5.983918e+02
6.300000e-07	-2.016947e-06	-9.001437e-09	-1.401750e+01	-5.891071e+02
6.400000e-07	-1.919243e-06	-8.874983e-09	-1.333846e+01	-5.798517e+02
6.500000e-07	-1.820603e-06	-8.733551e-09	-1.265293e+01	-5.706845e+02
6.600000e-07	-1.721062e-06	-8.584705e-09	-1.196113e+01	-5.616132e+02
6.700000e-07	-1.620862e-06	-8.436762e-09	-1.126476e+01	-5.525892e+02
6.800000e-07	-1.520241e-06	-8.288726e-09	-1.056545e+01	-5.435092e+02
6.900000e-07	-1.419165e-06	-8.126730e-09	-9.862991e+00	-5.342247e+02
7.000000e-07	-1.317607e-06	-7.952351e-09	-9.157179e+00	-5.245584e+02
7.100000e-07	-1.215620e-06	-7.779974e-09	-8.448386e+00	-5.143257e+02
7.200000e-07	-1.113172e-06	-7.611702e-09	-7.736386e+00	-5.033587e+02
7.300000e-07	-1.010338e-06	-7.437220e-09	-7.021704e+00	-4.915283e+02
7.400000e-07	-9.071492e-07	-7.245614e-09	-6.304556e+00	-4.787635e+02
7.500000e-07	-8.036000e-07	-7.045386e-09	-5.584904e+00	-4.650623e+02
7.600000e-07	-6.998040e-07	-6.842284e-09	-4.863537e+00	-4.504939e+02
7.700000e-07	-5.958051e-07	-6.633204e-09	-4.140760e+00	-4.351907e+02
7.800000e-07	-4.916469e-07	-6.408907e-09	-3.416875e+00	-4.193295e+02
7.900000e-07	-3.873643e-07	-6.173596e-09	-2.692126e+00	-4.031046e+02
8.000000e-07	-2.829908e-07	-5.938406e-09	-1.966746e+00	-3.866942e+02
8.100000e-07	-1.785247e-07	-5.699562e-09	-1.240721e+00	-3.702255e+02
8.200000e-07	-7.397901e-08	-5.446089e-09	-5.141435e-01	-3.537415e+02
8.300000e-07	3.058972e-08	-5.171759e-09	2.125942e-01	-3.371739e+02
8.400000e-07	1.351459e-07	-4.882084e-09	9.392444e-01	-3.203273e+02
8.500000e-07	2.396427e-07	-4.581768e-09	1.665482e+00	-3.028763e+02
8.600000e-07	3.440699e-07	-4.266813e-09	2.391236e+00	-2.843776e+02
8.700000e-07	4.483966e-07	-3.928237e-09	3.116292e+00	-2.642982e+02
8.800000e-07	5.525651e-07	-3.567035e-09	3.840248e+00	-2.420554e+02
8.900000e-07	6.565699e-07	-3.187085e-09	4.563066e+00	-2.170686e+02
9.000000e-07	7.603896e-07	-2.782607e-09	5.284598e+00	-1.888156e+02
9.100000e-07	8.639787e-07	-2.337675e-09	6.004528e+00	-1.568898e+02
9.200000e-07	9.673067e-07	-1.842240e-09	6.722642e+00	-1.210506e+02
9.300000e-07	1.070287e-06	-1.295156e-09	7.438342e+00	-8.126370e+01
9.400000e-07	1.172831e-06	-6.851687e-10	8.151007e+00	-3.772531e+01
9.500000e-07	1.274920e-06	5.876809e-12	8.860512e+00	9.132601e+00
9.600000e-07	1.376590e-06	7.843269e-10	9.567100e+00	5.865689e+01
9.700000e-07	1.477847e-06	1.630621e-09	1.027083e+01	1.100074e+02
9.800000e-07	1.578647e-06	2.509792e-09	1.097137e+01	1.622077e+02
9.900000e-07	1.678984e-06	3.382106e-09	1.166870e+01	2.142088e+02
1.000000e-06	1.778811e-06	4.210351e-09	1.236248e+01	2.649588e+02
1.010000e-06	1.877934e-06	4.964968e-09	1.305137e+01	3.134737e+02
1.020000e-06	1.976124e-06	5.630615e-09	1.373378e+01	3.589026e+02
1.030000e-06	2.073336e-06	6.210327e-09	1.440939e+01	4.005800e+02
1.040000e-06	2.169776e-06	6.716689e-09	1.507963e+01	4.380633e+02
1.050000e-06	2.265589e-06	7.162267e-09	1.574552e+01	4.711499e+02
1.060000e-06	2.360692e-06	7.553891e-09	1.640647e+01	4.998748e+02
1.070000e-06	2.454980e-06	7.901522e-09	1.706175e+01	5.244883e+02
1.080000e-06	2.548432e-06	8.211015e-09	1.771123e+01	5.454178e+02
1.090000e-06	2.641060e-06	8.490581e-09	1.835498e+01	5.632170e+02
1.100000e-06	2.732824e-06	8.747825e-09	1.899274e+01	5.785084e+02
1.110000e-06	2.823512e-06	8.984315e-09	1.962300e+01	5.919253e+02
1.120000e-06	2.912986e-06	9.201353e-09	2.024483e+01	6.040583e+02
1.130000e-06	3.001421e-06	9.402606e-09	2.085944e+01	6.154108e+02
1.140000e-06	3.088905e-06	9.592236e-09	2.146745e+01	6.263685e+02
1.150000e-06	3.175320e-06	9.768785e-09	2.206802e+01	6.371834e+02
1.160000e-06	3.260683e-06	9.930453e-09	2.266127e+01	6.479742e+02
1.170000e-06	3.345051e-06	1.007907e-08	2.324762e+01	6.587393e+02
1.180000e-06	3.428288e-06	1.022229e-08	2.382611e+01	6.693831e+02
1.190000e-06	3.510169e-06	1.036248e-08	2.439517e+01	6.797478e+02
1.200000e-06	3.590722e-06	1.049582e-08	2.495500e+01	6.896499e+02
1.210000e-06	3.670023e-06	1.061889e-08	2.550613e+01	6.989146e+02
1.220000e-06	3.748021e-06	1.073397e-08	2.604821e+01	7.074047e+02
1.230000e-06	3.824680e-06	1.084371e-08	2.658098e+01	7.150422e+02
1.240000e-06	3.899847e-06	1.094611e-08	2.710338e+01	7.218184e+02
1.250000e-06	3.973415e-06	1.103941e-08	2.761466e+01	7.277949e+02
1.260000e-06	4.045502e-06	1.112755e-08	2.811566e+01	7.330931e+02
1.270000e-06	4.116207e-06	1.121436e-08	2.860705e+01	7.378780e+02
1.280000e-06	4.185532e-06	1.130111e-08	2.908884e+01	7.423350e+02
1.290000e-06	4.253480e-06	1.138555e-08	2.956107e+01	7.466464e+02
1.300000e-06	4.319773e-06	1.146590e-08	3.002180e+01	7.509688e+02
1.310000e-06	4.384373e-06	1.154268e-08	3.047076e+01	7.554155e+02
1.320000e-06	4.447520e-06	1.161609e-08	3.090963e+01	7.600447e+02
1.330000e-06	4.509203e-06	1.168631e-08	3.133831e+01	7.648566e+02
1.340000e-06	4.569464e-06	1.175126e-08	3.175712e+01	7.697970e+02
1.350000e-06	4.628137e-06	1.181080e-08	3.216488e+01	7.747687e+02
1.360000e-06	4.684977e-06	1.186853e-08	3.255992e+01	7.796481e+02
1.370000e-06	4.740075e-06	1.192655e-08	3.294284e+01	7.843038e+02
1.380000e-06	4.793462e-06	1.198449e-08	3.331387e+01	7.886155e+02
1.390000e-06	4.844891e-06	1.203720e-08	3.367130e+01	7.924912e+02
1.400000e-06	4.894274e-06	1.208525e-08	3.401450e+01	7.958786e+02
1.410000e-06	4.941856e-06	1.213215e-08	3.434519e+01	7.987715e+02
1.420000e-06	4.987804e-06	1.217779e-08	3.466452e+01	8.012092e+02
1.430000e-06	5.032118e-06	1.221984e-08	3.497250e+01	8.032695e+02
1.440000e-06	5.074525e-06	1.225604e-08	3.526722e+01	8.050578e+02
1.450000e-06	5.114979e-06	1.229018e-08	3.554837e+01	8.066911e+02
1.460000e-06	5.153774e-06	1.232572e-08	3.581799e+01	8.082825e+02
1.470000e-06	5.190969e-06	1.236236e-08	3.607649e+01	8.099258e+02
1.480000e-06	5.226315e-06	1.239453e-08	3.632213e+01	8.116841e+02
1.490000e-06	5.259637e-06	1.242048e-08	3.655372e+01	8.135819e+02
1.500000e-06	5.291120e-06	1.244473e-08	3.677253e+01	8.156041e+02
1.510000e-06	5.320934e-06	1.246968e-08	3.697973e+01	8.176991e+02
1.520000e-06	5.348946e-06	1.249246e-08	3.717440e+01	8.197880e+02
1.530000e-06	5.374825e-06	1.251200e-08	3.735426e+01	8.217766e+02
1.540000e-06	5.398668e-06	1.253065e-08	3.751997e+01	8.235696e+02
1.550000e-06	5.420786e-06	1.254842e-08	3.767368e+01	8.250841e+02
1.560000e-06	5.441190e-06	1.256380e-08	3.781549e+01	8.262618e+02
1.570000e-06	5.459634e-06	1.257676e-08	3.794367e+01	8.270764e+02
1.580000e-06	5.476003e-06	1.258800e-08	3.805743e+01	8.275376e+02
1.590000e-06	5.490387e-06	1.259829e-08	3.815740e+01	8.276888e+02
1.600000e-06	5.502639e-06	1.260879e-08	3.824255e+01	8.276011e+02
1.610000e-06	5.512658e-06	1.261788e-08	3.831218e+01	8.273626e+02
1.620000e-06	5.520670e-06	1.262337e-08	3.836786e+01	8.270665e+02
1.630000e-06	5.526854e-06	1.262677e-08	3.841084e+01	8.267979e+02
1.640000e-06	5.531213e-06	1.262910e-08	3.844113e+01	8.266220e+02
1.650000e-06	5.533570e-06	1.263097e-08	3.845751e+01	8.265758e+02
1.660000e-06	5.533927e-06	1.263449e-08	3.846000e+01	8.266632e+02
1.670000e-06	5.532505e-06	1.263069e-08	3.845011e+01	8.268554e+02
1.680000e-06	5.529397e-06	1.262333e-08	3.842851e+01	8.270950e+02
1.690000e-06	5.524379e-06	1.261540e-08	3.839364e+01	8.273053e+02
1.700000e-06	5.517437e-06	1.260718e-08	3.834540e+01	8.274012e+02
1.710000e-06	5.508832e-06	1.260171e-08	3.828559e+01	8.273016e+02
1.720000e-06	5.498550e-06	1.259697e-08	3.821414e+01	8.269409e+02
1.730000e-06	5.486349e-06	1.260982e-08	3.812934e+01	8.262787e+02
1.740000e-06	5.472104e-06	1.258527e-08	3.803033e+01	8.253054e+02
1.750000e-06	5.455835e-06	1.247899e-08	3.791727e+01	8.240434e+02
1.760000e-06	5.436998e-06	1.246345e-08	3.778635e+01	8.225442e+02
1.770000e-06	5.415311e-06	1.246778e-08	3.763563e+01	8.208809e+02
1.780000e-06	5.391554e-06	1.252131e-08	3.747052e+01	8.191375e+02
1.790000e-06	5.366770e-06	1.259513e-08	3.729828e+01	8.173974e+02
1.800000e-06	5.341216e-06	1.238379e-08	3.712068e+01	8.157309e+02
1.810000e-06	5.313814e-06	1.241337e-08	3.693025e+01	8.141851e+02
1.820000e-06	5.284045e-06	1.251417e-08	3.672335e+01	8.127769e+02
1.830000e-06	5.252686e-06	1.229178e-08	3.650541e+01	8.114898e+02
1.840000e-06	5.219569e-06	1.239425e-08	3.627526e+01	8.102759e+02
1.850000e-06	5.184636e-06	1.241220e-08	3.603247e+01	8.090618e+02
1.860000e-06	5.147968e-06	1.221131e-08	3.577764e+01	8.077583e+02
1.870000e-06	5.109132e-06	1.237404e-08	3.550774e+01	8.062724e+02
1.880000e-06	5.068562e-06	1.230297e-08	3.522578e+01	8.045200e+02
1.890000e-06	5.026454e-06	1.216629e-08	3.493313e+01	8.024372e+02
1.900000e-06	4.982427e-06	1.220511e-08	3.462715e+01	7.999891e+02
1.910000e-06	4.936610e-06	1.204921e-08	3.430873e+01	7.971747e+02
1.920000e-06	4.888918e-06	1.214475e-08	3.397728e+01	7.940273e+02
1.930000e-06	4.839401e-06	1.211103e-08	3.363314e+01	7.906098e+02
1.940000e-06	4.788145e-06	1.194523e-08	3.327692e+01	7.870060e+02
1.950000e-06	4.734681e-06	1.200605e-08	3.290535e+01	7.833094e+02
1.960000e-06	4.679398e-06	1.190401e-08	3.252114e+01	7.796100e+02
1.970000e-06	4.622533e-06	1.187353e-08	3.212594e+01	7.759816e+02
1.980000e-06	4.564078e-06	1.178245e-08	3.171969e+01	7.724717e+02
1.990000e-06	4.504117e-06	1.171958e-08	3.130297e+01	7.690942e+02
2.000000e-06	4.442304e-06	1.175840e-08	3.087337e+01	7.658271e+02
2.010000e-06	4.378875e-06	1.162925e-08	3.043255e+01	7.626155e+02
2.020000e-06	4.313945e-06	1.162631e-08	2.998130e+01	7.593784e+02
2.030000e-06	4.247562e-06	1.150169e-08	2.951994e+01	7.560198e+02
2.040000e-06	4.179747e-06	1.142826e-08	2.904864e+01	7.524415e+02
2.050000e-06	4.110074e-06	1.142588e-08	2.856442e+01	7.485570e+02
2.060000e-06	4.038839e-06	1.129473e-08	2.806935e+01	7.443035e+02
2.070000e-06	3.966299e-06	1.127643e-08	2.756521e+01	7.396503e+02
2.080000e-06	3.892410e-06	1.117020e-08	2.705169e+01	7.346038e+02
2.090000e-06	3.816988e-06	1.113656e-08	2.652752e+01	7.292064e+02
2.100000e-06	3.739758e-06	1.106221e-08	2.599078e+01	7.235311e+02
2.110000e-06	3.661026e-06	1.093632e-08	2.544360e+01	7.176708e+02
2.120000e-06	3.581082e-06	1.087359e-08	2.488800e+01	7.117255e+02
2.130000e-06	3.499980e-06	1.076562e-08	2.432436e+01	7.057873e+02
2.140000e-06	3.417764e-06	1.073576e-08	2.375297e+01	6.999272e+02
2.150000e-06	3.334473e-06	1.062788e-08	2.317410e+01	6.941835e+02
2.160000e-06	3.249808e-06	1.053384e-08	2.258570e+01	6.885557e+02
2.170000e-06	3.163700e-06	1.043929e-08	2.198726e+01	6.830023e+02
2.180000e-06	3.076506e-06	1.033213e-08	2.138128e+01	6.774458e+02
2.190000e-06	2.988379e-06	1.024959e-08	2.076880e+01	6.717819e+02
2.200000e-06	2.899270e-06	1.012123e-08	2.014951e+01	6.658930e+02
2.210000e-06	2.809188e-06	1.003628e-08	1.952345e+01	6.596640e+02
2.220000e-06	2.718289e-06	9.940481e-09	1.889172e+01	6.529985e+02
2.230000e-06	2.626485e-06	9.847188e-09	1.825369e+01	6.458319e+02
2.240000e-06	2.533526e-06	9.719625e-09	1.760764e+01	6.381413e+02
2.250000e-06	2.439466e-06	9.580586e-09	1.695394e+01	6.299494e+02
2.260000e-06	2.344564e-06	9.470655e-09	1.629438e+01	6.213216e+02
2.270000e-06	2.248940e-06	9.356556e-09	1.562981e+01	6.123573e+02
2.280000e-06	2.152573e-06	9.239184e-09	1.496007e+01	6.031758e+02
2.290000e-06	2.055437e-06	9.096361e-09	1.428499e+01	5.938983e+02
2.300000e-06	1.957584e-06	8.961319e-09	1.360492e+01	5.846288e+02
2.310000e-06	1.859214e-06	8.830849e-09	1.292127e+01	5.754371e+02
2.320000e-06	1.760363e-06	8.692892e-09	1.223427e+01	5.663446e+02
2.330000e-06	1.660987e-06	8.539638e-09	1.154362e+01	5.573169e+02
2.340000e-06	1.560985e-06	8.384979e-09	1.084862e+01	5.482638e+02
2.350000e-06	1.460240e-06	8.236263e-09	1.014846e+01	5.390467e+02
2.360000e-06	1.358824e-06	8.078052e-09	9.443634e+00	5.294937e+02
2.370000e-06	1.256765e-06	7.902146e-09	8.734336e+00	5.194199e+02
2.380000e-06	1.154196e-06	7.716394e-09	8.021497e+00	5.086509e+02
2.390000e-06	1.051263e-06	7.539345e-09	7.306129e+00	4.970460e+02
2.400000e-06	9.479632e-07	7.362412e-09	6.588208e+00	4.845183e+02
2.410000e-06	8.443109e-07	7.176175e-09	5.867839e+00	4.710478e+02
2.420000e-06	7.403702e-07	6.975747e-09	5.145467e+00	4.566865e+02
2.430000e-06	6.362277e-07	6.765127e-09	4.421691e+00	4.415522e+02
2.440000e-06	5.319371e-07	6.545323e-09	3.696886e+00	4.258129e+02
2.450000e-06	4.274713e-07	6.314624e-09	2.970864e+00	4.096614e+02
2.460000e-06	3.228602e-07	6.071535e-09	2.243832e+00	3.932833e+02
2.470000e-06	2.181464e-07	5.822132e-09	1.516086e+00	3.768219e+02
2.480000e-06	1.133547e-07	5.571627e-09	7.877986e-01	3.603438e+02
2.490000e-06	8.547477e-09	5.312263e-09	5.940373e-02	3.438108e+02
2.500000e-06	-9.624266e-08	5.034753e-09	-6.688726e-01	3.270599e+02
2.510000e-06	-2.010417e-07	4.736095e-09	-1.397211e+00	3.097977e+02
2.520000e-06	-3.057733e-07	4.421744e-09	-2.125080e+00	2.916085e+02
2.530000e-06	-4.103378e-07	4.091381e-09	-2.851789e+00	2.719782e+02
2.540000e-06	-5.147879e-07	3.736600e-09	-3.577702e+00	2.503322e+02
2.550000e-06	-6.190927e-07	3.356120e-09	-4.302605e+00	2.260840e+02
2.560000e-06	-7.231511e-07	2.954578e-09	-5.025796e+00	1.986917e+02
2.570000e-06	-8.269350e-07	2.526018e-09	-5.747079e+00	1.677144e+02
2.580000e-06	-9.304029e-07	2.057256e-09	-6.466166e+00	1.328658e+02
2.590000e-06	-1.033487e-06	1.533431e-09	-7.182588e+00	9.405710e+01
2.600000e-06	-1.136212e-06	9.419927e-10	-7.896510e+00	5.142566e+01
2.610000e-06	-1.238534e-06	2.747907e-10	-8.607631e+00	5.345053e+00
2.620000e-06	-1.340347e-06	-4.728717e-10	-9.315216e+00	-4.358440e+01
2.630000e-06	-1.441545e-06	-1.296204e-09	-1.001853e+01	-9.456510e+01
2.640000e-06	-1.542072e-06	-2.170639e-09	-1.071718e+01	-1.466492e+02
2.650000e-06	-1.641906e-06	-3.055283e-09	-1.141101e+01	-1.987994e+02
2.660000e-06	-1.741083e-06	-3.907738e-09	-1.210028e+01	-2.499577e+02
2.670000e-06	-1.839692e-06	-4.692596e-09	-1.278560e+01	-2.991170e+02
2.680000e-06	-1.937771e-06	-5.394670e-09	-1.346723e+01	-3.453873e+02
2.690000e-06	-2.035271e-06	-6.013389e-09	-1.414484e+01	-3.880528e+02
2.700000e-06	-2.132074e-06	-6.551872e-09	-1.481761e+01	-4.266126e+02
2.710000e-06	-2.228165e-06	-7.018999e-09	-1.548543e+01	-4.608037e+02
2.720000e-06	-2.323589e-06	-7.427755e-09	-1.614861e+01	-4.906030e+02
2.730000e-06	-2.418340e-06	-7.788678e-09	-1.680712e+01	-5.162100e+02
2.740000e-06	-2.512263e-06	-8.112154e-09	-1.745987e+01	-5.380121e+02
2.750000e-06	-2.605091e-06	-8.406635e-09	-1.810501e+01	-5.565367e+02
2.760000e-06	-2.696755e-06	-8.674913e-09	-1.874206e+01	-5.723946e+02
2.770000e-06	-2.787407e-06	-8.919269e-09	-1.937208e+01	-5.862219e+02
2.780000e-06	-2.877083e-06	-9.142696e-09	-1.999531e+01	-5.986242e+02
2.790000e-06	-2.965770e-06	-9.349089e-09	-2.061167e+01	-6.101302e+02
2.800000e-06	-3.053463e-06	-9.541847e-09	-2.122113e+01	-6.211571e+02
2.810000e-06	-3.140169e-06	-9.722152e-09	-2.182372e+01	-6.319911e+02
2.820000e-06	-3.225756e-06	-9.889153e-09	-2.241854e+01	-6.427832e+02
2.830000e-06	-3.309968e-06	-1.004515e-08	-2.300380e+01	-6.535601e+02
2.840000e-06	-3.392952e-06	-1.019464e-08	-2.358053e+01	-6.642467e+02
2.850000e-06	-3.474878e-06	-1.033639e-08	-2.414990e+01	-6.746975e+02
2.860000e-06	-3.555661e-06	-1.046781e-08	-2.471133e+01	-6.847322e+02
2.870000e-06	-3.635297e-06	-1.058944e-08	-2.526479e+01	-6.941705e+02
2.880000e-06	-3.713669e-06	-1.070507e-08	-2.580946e+01	-7.028637e+02
2.890000e-06	-3.790420e-06	-1.081493e-08	-2.634288e+01	-7.107175e+02
2.900000e-06	-3.865547e-06	-1.091658e-08	-2.686500e+01	-7.177055e+02
2.910000e-06	-3.939268e-06	-1.101222e-08	-2.737735e+01	-7.238721e+02
2.920000e-06	-4.011640e-06	-1.110569e-08	-2.788032e+01	-7.293253e+02
2.930000e-06	-4.082690e-06	-1.120002e-08	-2.837411e+01	-7.342211e+02
2.940000e-06	-4.152242e-06	-1.129035e-08	-2.885749e+01	-7.387420e+02
