# Temperatura_=_20.42
# Concentracion g/m^3_=_15500.0
# C_Vs_to_Am_M_A/Vsm_=_65563218390.804596
# pendiente_HvsI_1/m_=_3716.3
# ordenada_HvsI_A/m_=_1297.0
# frecuencia_Hz_=_300813.032544911

Tiempo_(s)	Campo_(V.s)	Magnetizacion_(V.s)	Campo_(kA/m)	Magnetizacion_(A/m)
0.000000e+00	-5.529138e-06	-1.265378e-08	-3.831210e+01	-8.270756e+02
1.000000e-08	-5.527476e-06	-1.265754e-08	-3.830058e+01	-8.269624e+02
2.000000e-08	-5.523826e-06	-1.265650e-08	-3.827529e+01	-8.269251e+02
3.000000e-08	-5.518374e-06	-1.265097e-08	-3.823751e+01	-8.269259e+02
4.000000e-08	-5.511271e-06	-1.264058e-08	-3.818830e+01	-8.269091e+02
5.000000e-08	-5.502554e-06	-1.262463e-08	-3.812790e+01	-8.268103e+02
6.000000e-08	-5.491838e-06	-1.260803e-08	-3.805365e+01	-8.265650e+02
7.000000e-08	-5.479032e-06	-1.258922e-08	-3.796491e+01	-8.261187e+02
8.000000e-08	-5.464264e-06	-1.257522e-08	-3.786258e+01	-8.254345e+02
9.000000e-08	-5.447149e-06	-1.258720e-08	-3.774399e+01	-8.244984e+02
1.000000e-07	-5.427681e-06	-1.258981e-08	-3.760909e+01	-8.233217e+02
1.100000e-07	-5.406176e-06	-1.257084e-08	-3.746008e+01	-8.219388e+02
1.200000e-07	-5.382874e-06	-1.254151e-08	-3.729862e+01	-8.204028e+02
1.300000e-07	-5.358129e-06	-1.247965e-08	-3.712716e+01	-8.187774e+02
1.400000e-07	-5.331882e-06	-1.246478e-08	-3.694529e+01	-8.171283e+02
1.500000e-07	-5.303780e-06	-1.247700e-08	-3.675057e+01	-8.155128e+02
1.600000e-07	-5.273938e-06	-1.241306e-08	-3.654379e+01	-8.139720e+02
1.700000e-07	-5.242493e-06	-1.241189e-08	-3.632590e+01	-8.125242e+02
1.800000e-07	-5.209095e-06	-1.242884e-08	-3.609448e+01	-8.111619e+02
1.900000e-07	-5.173701e-06	-1.238766e-08	-3.584923e+01	-8.098518e+02
2.000000e-07	-5.136694e-06	-1.239744e-08	-3.559281e+01	-8.085395e+02
2.100000e-07	-5.098023e-06	-1.234839e-08	-3.532485e+01	-8.071559e+02
2.200000e-07	-5.057572e-06	-1.226368e-08	-3.504456e+01	-8.056265e+02
2.300000e-07	-5.015132e-06	-1.225126e-08	-3.475049e+01	-8.038816e+02
2.400000e-07	-4.970687e-06	-1.222840e-08	-3.444252e+01	-8.018653e+02
2.500000e-07	-4.924508e-06	-1.220164e-08	-3.412254e+01	-7.995434e+02
2.600000e-07	-4.876442e-06	-1.215758e-08	-3.378949e+01	-7.969078e+02
2.700000e-07	-4.826295e-06	-1.209003e-08	-3.344201e+01	-7.939777e+02
2.800000e-07	-4.774087e-06	-1.207411e-08	-3.308026e+01	-7.907971e+02
2.900000e-07	-4.719983e-06	-1.204508e-08	-3.270536e+01	-7.874282e+02
3.000000e-07	-4.664234e-06	-1.197786e-08	-3.231907e+01	-7.839435e+02
3.100000e-07	-4.606796e-06	-1.191449e-08	-3.192107e+01	-7.804150e+02
3.200000e-07	-4.547488e-06	-1.187562e-08	-3.151012e+01	-7.769042e+02
3.300000e-07	-4.486551e-06	-1.184294e-08	-3.108788e+01	-7.734533e+02
3.400000e-07	-4.424126e-06	-1.178203e-08	-3.065533e+01	-7.700789e+02
3.500000e-07	-4.360211e-06	-1.171822e-08	-3.021246e+01	-7.667696e+02
3.600000e-07	-4.294805e-06	-1.165735e-08	-2.975925e+01	-7.634863e+02
3.700000e-07	-4.227720e-06	-1.161515e-08	-2.929441e+01	-7.601680e+02
3.800000e-07	-4.158971e-06	-1.156859e-08	-2.881804e+01	-7.567392e+02
3.900000e-07	-4.088738e-06	-1.147945e-08	-2.833138e+01	-7.531204e+02
4.000000e-07	-4.017236e-06	-1.139986e-08	-2.783594e+01	-7.492389e+02
4.100000e-07	-3.944405e-06	-1.134099e-08	-2.733129e+01	-7.450384e+02
4.200000e-07	-3.869976e-06	-1.128360e-08	-2.681555e+01	-7.404873e+02
4.300000e-07	-3.793893e-06	-1.121084e-08	-2.628837e+01	-7.355828e+02
4.400000e-07	-3.716255e-06	-1.112738e-08	-2.575040e+01	-7.303513e+02
4.500000e-07	-3.637132e-06	-1.105615e-08	-2.520215e+01	-7.248451e+02
4.600000e-07	-3.556484e-06	-1.098785e-08	-2.464333e+01	-7.191345e+02
4.700000e-07	-3.474466e-06	-1.090691e-08	-2.407502e+01	-7.132981e+02
4.800000e-07	-3.391305e-06	-1.080702e-08	-2.349878e+01	-7.074108e+02
4.900000e-07	-3.307065e-06	-1.071175e-08	-2.291508e+01	-7.015331e+02
5.000000e-07	-3.221851e-06	-1.063347e-08	-2.232462e+01	-6.957012e+02
5.100000e-07	-3.135631e-06	-1.055271e-08	-2.172718e+01	-6.899206e+02
5.200000e-07	-3.048387e-06	-1.045642e-08	-2.112266e+01	-6.841642e+02
5.300000e-07	-2.960173e-06	-1.034899e-08	-2.051142e+01	-6.783747e+02
5.400000e-07	-2.871012e-06	-1.025025e-08	-1.989361e+01	-6.724709e+02
5.500000e-07	-2.780769e-06	-1.015686e-08	-1.926830e+01	-6.663580e+02
5.600000e-07	-2.689258e-06	-1.004802e-08	-1.863421e+01	-6.599401e+02
5.700000e-07	-2.596711e-06	-9.926792e-09	-1.799294e+01	-6.531329e+02
5.800000e-07	-2.503362e-06	-9.807967e-09	-1.734611e+01	-6.458754e+02
5.900000e-07	-2.409196e-06	-9.696574e-09	-1.669363e+01	-6.381380e+02
6.000000e-07	-2.314222e-06	-9.580240e-09	-1.603554e+01	-6.299275e+02
6.100000e-07	-2.218478e-06	-9.457166e-09	-1.537212e+01	-6.212853e+02
6.200000e-07	-2.121979e-06	-9.334009e-09	-1.470346e+01	-6.122825e+02
6.300000e-07	-2.024679e-06	-9.210340e-09	-1.402926e+01	-6.030087e+02
6.400000e-07	-1.926518e-06	-9.076836e-09	-1.334909e+01	-5.935585e+02
6.500000e-07	-1.827482e-06	-8.925294e-09	-1.266285e+01	-5.840164e+02
6.600000e-07	-1.727674e-06	-8.768498e-09	-1.197127e+01	-5.744424e+02
6.700000e-07	-1.627294e-06	-8.618425e-09	-1.127572e+01	-5.648599e+02
6.800000e-07	-1.526434e-06	-8.471269e-09	-1.057686e+01	-5.552488e+02
6.900000e-07	-1.425089e-06	-8.316824e-09	-9.874622e+00	-5.455433e+02
7.000000e-07	-1.323245e-06	-8.152985e-09	-9.168930e+00	-5.356376e+02
7.100000e-07	-1.220931e-06	-7.983816e-09	-8.459984e+00	-5.253956e+02
7.200000e-07	-1.118192e-06	-7.808310e-09	-7.748092e+00	-5.146672e+02
7.300000e-07	-1.015078e-06	-7.621406e-09	-7.033603e+00	-5.033064e+02
7.400000e-07	-9.116726e-07	-7.422870e-09	-6.317095e+00	-4.911905e+02
7.500000e-07	-8.080001e-07	-7.222050e-09	-5.598735e+00	-4.782364e+02
7.600000e-07	-7.039982e-07	-7.023723e-09	-4.878093e+00	-4.644135e+02
7.700000e-07	-5.997241e-07	-6.819206e-09	-4.155564e+00	-4.497484e+02
7.800000e-07	-4.952581e-07	-6.600216e-09	-3.431707e+00	-4.343225e+02
7.900000e-07	-3.906427e-07	-6.370940e-09	-2.706813e+00	-4.182606e+02
8.000000e-07	-2.859664e-07	-6.138678e-09	-1.981497e+00	-4.017120e+02
8.100000e-07	-1.812488e-07	-5.899309e-09	-1.255896e+00	-3.848255e+02
8.200000e-07	-7.640928e-08	-5.644137e-09	-5.294497e-01	-3.677210e+02
8.300000e-07	2.853450e-08	-5.371787e-09	1.977192e-01	-3.504617e+02
8.400000e-07	1.334818e-07	-5.088697e-09	9.249127e-01	-3.330289e+02
8.500000e-07	2.383363e-07	-4.799473e-09	1.651462e+00	-3.153049e+02
8.600000e-07	3.430583e-07	-4.499283e-09	2.377095e+00	-2.970653e+02
8.700000e-07	4.476758e-07	-4.181449e-09	3.102003e+00	-2.779835e+02
8.800000e-07	5.521210e-07	-3.846329e-09	3.825717e+00	-2.576471e+02
8.900000e-07	6.563892e-07	-3.494334e-09	4.548204e+00	-2.355871e+02
9.000000e-07	7.604387e-07	-3.121199e-09	5.269176e+00	-2.113164e+02
9.100000e-07	8.642199e-07	-2.718187e-09	5.988289e+00	-1.843747e+02
9.200000e-07	9.677670e-07	-2.279625e-09	6.705781e+00	-1.543762e+02
9.300000e-07	1.071051e-06	-1.806510e-09	7.421447e+00	-1.210546e+02
9.400000e-07	1.173948e-06	-1.293494e-09	8.134432e+00	-8.430176e+01
9.500000e-07	1.276407e-06	-7.262253e-10	8.844384e+00	-4.419422e+01
9.600000e-07	1.378428e-06	-9.198267e-11	9.551302e+00	-1.006272e+00
9.700000e-07	1.479956e-06	6.104334e-10	1.025480e+01	4.479371e+01
9.800000e-07	1.581016e-06	1.372175e-09	1.095506e+01	9.256327e+01
9.900000e-07	1.681610e-06	2.175845e-09	1.165209e+01	1.415211e+02
1.000000e-06	1.781676e-06	2.991891e-09	1.234546e+01	1.907949e+02
1.010000e-06	1.881097e-06	3.783512e-09	1.303436e+01	2.394769e+02
1.020000e-06	1.979664e-06	4.522461e-09	1.371735e+01	2.866833e+02
1.030000e-06	2.077351e-06	5.196586e-09	1.439423e+01	3.316116e+02
1.040000e-06	2.174206e-06	5.805296e-09	1.506535e+01	3.735907e+02
1.050000e-06	2.270218e-06	6.350592e-09	1.573063e+01	4.121195e+02
1.060000e-06	2.365514e-06	6.834560e-09	1.639095e+01	4.468914e+02
1.070000e-06	2.460077e-06	7.265019e-09	1.704618e+01	4.778017e+02
1.080000e-06	2.553811e-06	7.648384e-09	1.769568e+01	5.049388e+02
1.090000e-06	2.646761e-06	7.991496e-09	1.833974e+01	5.285605e+02
1.100000e-06	2.738846e-06	8.299374e-09	1.897782e+01	5.490576e+02
1.110000e-06	2.829872e-06	8.577798e-09	1.960855e+01	5.669100e+02
1.120000e-06	2.919688e-06	8.835081e-09	2.023089e+01	5.826384e+02
1.130000e-06	3.008347e-06	9.076285e-09	2.084522e+01	5.967578e+02
1.140000e-06	3.096010e-06	9.302425e-09	2.145265e+01	6.097357e+02
1.150000e-06	3.182699e-06	9.510910e-09	2.205332e+01	6.219603e+02
1.160000e-06	3.268371e-06	9.700492e-09	2.264696e+01	6.337195e+02
1.170000e-06	3.353023e-06	9.873247e-09	2.323352e+01	6.451926e+02
1.180000e-06	3.436530e-06	1.003533e-08	2.381216e+01	6.564544e+02
1.190000e-06	3.518727e-06	1.019196e-08	2.438171e+01	6.674900e+02
1.200000e-06	3.599597e-06	1.034386e-08	2.494207e+01	6.782173e+02
1.210000e-06	3.679171e-06	1.048786e-08	2.549344e+01	6.885145e+02
1.220000e-06	3.757448e-06	1.062340e-08	2.603583e+01	6.982489e+02
1.230000e-06	3.834424e-06	1.074910e-08	2.656921e+01	7.073027e+02
1.240000e-06	3.909933e-06	1.086559e-08	2.709243e+01	7.155943e+02
1.250000e-06	3.983822e-06	1.097527e-08	2.760441e+01	7.230917e+02
1.260000e-06	4.056149e-06	1.107799e-08	2.810558e+01	7.298183e+02
1.270000e-06	4.127022e-06	1.117324e-08	2.859666e+01	7.358496e+02
1.280000e-06	4.196516e-06	1.126358e-08	2.907819e+01	7.413031e+02
1.290000e-06	4.264618e-06	1.135342e-08	2.955008e+01	7.463229e+02
1.300000e-06	4.331137e-06	1.144257e-08	3.001100e+01	7.510614e+02
1.310000e-06	4.395999e-06	1.152723e-08	3.046043e+01	7.556608e+02
1.320000e-06	4.459344e-06	1.160366e-08	3.089936e+01	7.602361e+02
1.330000e-06	4.521205e-06	1.167395e-08	3.132800e+01	7.648636e+02
1.340000e-06	4.581615e-06	1.174231e-08	3.174659e+01	7.695743e+02
1.350000e-06	4.640425e-06	1.180915e-08	3.215410e+01	7.743536e+02
1.360000e-06	4.697428e-06	1.187175e-08	3.254907e+01	7.791470e+02
1.370000e-06	4.752706e-06	1.193118e-08	3.293211e+01	7.838712e+02
1.380000e-06	4.806304e-06	1.199097e-08	3.330349e+01	7.884276e+02
1.390000e-06	4.857953e-06	1.204960e-08	3.366138e+01	7.927175e+02
1.400000e-06	4.907520e-06	1.210501e-08	3.400483e+01	7.966569e+02
1.410000e-06	4.955237e-06	1.215580e-08	3.433547e+01	8.001877e+02
1.420000e-06	5.001296e-06	1.220254e-08	3.465462e+01	8.032854e+02
1.430000e-06	5.045736e-06	1.224622e-08	3.496255e+01	8.059619e+02
1.440000e-06	5.088336e-06	1.228582e-08	3.525773e+01	8.082625e+02
1.450000e-06	5.129012e-06	1.232199e-08	3.553958e+01	8.102593e+02
1.460000e-06	5.167940e-06	1.235570e-08	3.580931e+01	8.120405e+02
1.470000e-06	5.205212e-06	1.239060e-08	3.606758e+01	8.136981e+02
1.480000e-06	5.240657e-06	1.242717e-08	3.631318e+01	8.153156e+02
1.490000e-06	5.274103e-06	1.246040e-08	3.654493e+01	8.169570e+02
1.500000e-06	5.305724e-06	1.248764e-08	3.676404e+01	8.186596e+02
1.510000e-06	5.335656e-06	1.251064e-08	3.697144e+01	8.204294e+02
1.520000e-06	5.363832e-06	1.253190e-08	3.716668e+01	8.222427e+02
1.530000e-06	5.389965e-06	1.255063e-08	3.734775e+01	8.240500e+02
1.540000e-06	5.414004e-06	1.256649e-08	3.751432e+01	8.257851e+02
1.550000e-06	5.436181e-06	1.258117e-08	3.766799e+01	8.273748e+02
1.560000e-06	5.456606e-06	1.259697e-08	3.780952e+01	8.287500e+02
1.570000e-06	5.475127e-06	1.261363e-08	3.793785e+01	8.298564e+02
1.580000e-06	5.491619e-06	1.262680e-08	3.805213e+01	8.306615e+02
1.590000e-06	5.506133e-06	1.263655e-08	3.815270e+01	8.311600e+02
1.600000e-06	5.518570e-06	1.264632e-08	3.823888e+01	8.313741e+02
1.610000e-06	5.528794e-06	1.265411e-08	3.830972e+01	8.313500e+02
1.620000e-06	5.536960e-06	1.265701e-08	3.836630e+01	8.311522e+02
1.630000e-06	5.543272e-06	1.265614e-08	3.841004e+01	8.308535e+02
1.640000e-06	5.547687e-06	1.265613e-08	3.844063e+01	8.305257e+02
1.650000e-06	5.550076e-06	1.265969e-08	3.845719e+01	8.302295e+02
1.660000e-06	5.550483e-06	1.266310e-08	3.846000e+01	8.300063e+02
1.670000e-06	5.549106e-06	1.265926e-08	3.845046e+01	8.298734e+02
1.680000e-06	5.546049e-06	1.265286e-08	3.842928e+01	8.298218e+02
1.690000e-06	5.541091e-06	1.264843e-08	3.839493e+01	8.298180e+02
1.700000e-06	5.534174e-06	1.264491e-08	3.834699e+01	8.298096e+02
1.710000e-06	5.525577e-06	1.263799e-08	3.828742e+01	8.297333e+02
1.720000e-06	5.515318e-06	1.262781e-08	3.821634e+01	8.295238e+02
1.730000e-06	5.503072e-06	1.262516e-08	3.813149e+01	8.291238e+02
1.740000e-06	5.488782e-06	1.260921e-08	3.803247e+01	8.284920e+02
1.750000e-06	5.472466e-06	1.257198e-08	3.791942e+01	8.276092e+02
1.760000e-06	5.453604e-06	1.255180e-08	3.778871e+01	8.264813e+02
1.770000e-06	5.431986e-06	1.253704e-08	3.763892e+01	8.251380e+02
1.780000e-06	5.408299e-06	1.255504e-08	3.747480e+01	8.236290e+02
1.790000e-06	5.383514e-06	1.256381e-08	3.730305e+01	8.220166e+02
1.800000e-06	5.357861e-06	1.249505e-08	3.712530e+01	8.203667e+02
1.810000e-06	5.330369e-06	1.250176e-08	3.693481e+01	8.187392e+02
1.820000e-06	5.300546e-06	1.250266e-08	3.672816e+01	8.171794e+02
1.830000e-06	5.269052e-06	1.243446e-08	3.650993e+01	8.157109e+02
1.840000e-06	5.235804e-06	1.244201e-08	3.627955e+01	8.143316e+02
1.850000e-06	5.200768e-06	1.239336e-08	3.603678e+01	8.130136e+02
1.860000e-06	5.164029e-06	1.234078e-08	3.578221e+01	8.117066e+02
1.870000e-06	5.125183e-06	1.239389e-08	3.551304e+01	8.103439e+02
1.880000e-06	5.084528e-06	1.235106e-08	3.523134e+01	8.088513e+02
1.890000e-06	5.042274e-06	1.229110e-08	3.493856e+01	8.071573e+02
1.900000e-06	4.998160e-06	1.224630e-08	3.463289e+01	8.052023e+02
1.910000e-06	4.952232e-06	1.217476e-08	3.431465e+01	8.029469e+02
1.920000e-06	4.904453e-06	1.220201e-08	3.398358e+01	8.003772e+02
1.930000e-06	4.854862e-06	1.215649e-08	3.363996e+01	7.975067e+02
1.940000e-06	4.803459e-06	1.207637e-08	3.328378e+01	7.943743e+02
1.950000e-06	4.749910e-06	1.206872e-08	3.291273e+01	7.910393e+02
1.960000e-06	4.694553e-06	1.202183e-08	3.252915e+01	7.875726e+02
1.970000e-06	4.637580e-06	1.197569e-08	3.213438e+01	7.840472e+02
1.980000e-06	4.578962e-06	1.190373e-08	3.172821e+01	7.805276e+02
1.990000e-06	4.518758e-06	1.185524e-08	3.131105e+01	7.770609e+02
2.000000e-06	4.456839e-06	1.183203e-08	3.088200e+01	7.736696e+02
2.010000e-06	4.393318e-06	1.177112e-08	3.044186e+01	7.703480e+02
2.020000e-06	4.328215e-06	1.172382e-08	2.999076e+01	7.670631e+02
2.030000e-06	4.261713e-06	1.163759e-08	2.952995e+01	7.637576e+02
2.040000e-06	4.193720e-06	1.158893e-08	2.905882e+01	7.603586e+02
2.050000e-06	4.123905e-06	1.154935e-08	2.857506e+01	7.567865e+02
2.060000e-06	4.052559e-06	1.146945e-08	2.808070e+01	7.529661e+02
2.070000e-06	3.979852e-06	1.141093e-08	2.757690e+01	7.488369e+02
2.080000e-06	3.905759e-06	1.133121e-08	2.706350e+01	7.443616e+02
2.090000e-06	3.830087e-06	1.127606e-08	2.653916e+01	7.395309e+02
2.100000e-06	3.752635e-06	1.120156e-08	2.600249e+01	7.343653e+02
2.110000e-06	3.673693e-06	1.111407e-08	2.545548e+01	7.289119e+02
2.120000e-06	3.593516e-06	1.104229e-08	2.489993e+01	7.232380e+02
2.130000e-06	3.512207e-06	1.096568e-08	2.433653e+01	7.174213e+02
2.140000e-06	3.429794e-06	1.090103e-08	2.376548e+01	7.115386e+02
2.150000e-06	3.346251e-06	1.080392e-08	2.318660e+01	7.056542e+02
2.160000e-06	3.261384e-06	1.070829e-08	2.259854e+01	6.998103e+02
2.170000e-06	3.175136e-06	1.061612e-08	2.200092e+01	6.940192e+02
2.180000e-06	3.087772e-06	1.052670e-08	2.139556e+01	6.882609e+02
2.190000e-06	2.999402e-06	1.043466e-08	2.078324e+01	6.824841e+02
2.200000e-06	2.910055e-06	1.032669e-08	2.016414e+01	6.766118e+02
2.210000e-06	2.819768e-06	1.023262e-08	1.953853e+01	6.705513e+02
2.220000e-06	2.728577e-06	1.013699e-08	1.890666e+01	6.642059e+02
2.230000e-06	2.636406e-06	1.003203e-08	1.826799e+01	6.574876e+02
2.240000e-06	2.543176e-06	9.910342e-09	1.762199e+01	6.503296e+02
2.250000e-06	2.448935e-06	9.790438e-09	1.696898e+01	6.426952e+02
2.260000e-06	2.353812e-06	9.677669e-09	1.630986e+01	6.345830e+02
2.270000e-06	2.257885e-06	9.559001e-09	1.564517e+01	6.260276e+02
2.280000e-06	2.161178e-06	9.432697e-09	1.497508e+01	6.170944e+02
2.290000e-06	2.063763e-06	9.301587e-09	1.430008e+01	6.078700e+02
2.300000e-06	1.965660e-06	9.175620e-09	1.362031e+01	5.984493e+02
2.310000e-06	1.866985e-06	9.044812e-09	1.293658e+01	5.889202e+02
2.320000e-06	1.767804e-06	8.902830e-09	1.224934e+01	5.793491e+02
2.330000e-06	1.668066e-06	8.749232e-09	1.155824e+01	5.697679e+02
2.340000e-06	1.567747e-06	8.594322e-09	1.086312e+01	5.601663e+02
2.350000e-06	1.466733e-06	8.437686e-09	1.016318e+01	5.504881e+02
2.360000e-06	1.365012e-06	8.273401e-09	9.458340e+00	5.406353e+02
2.370000e-06	1.262729e-06	8.102167e-09	8.749607e+00	5.304772e+02
2.380000e-06	1.159946e-06	7.929353e-09	8.037415e+00	5.198651e+02
2.390000e-06	1.056690e-06	7.758113e-09	7.321938e+00	5.086507e+02
2.400000e-06	9.530688e-07	7.577949e-09	6.603935e+00	4.967045e+02
2.410000e-06	8.491696e-07	7.384381e-09	5.884005e+00	4.839339e+02
2.420000e-06	7.449693e-07	7.180327e-09	5.161987e+00	4.702963e+02
2.430000e-06	6.405310e-07	6.969705e-09	4.438321e+00	4.558060e+02
2.440000e-06	5.359208e-07	6.750676e-09	3.713463e+00	4.405332e+02
2.450000e-06	4.311150e-07	6.521478e-09	2.987251e+00	4.245949e+02
2.460000e-06	3.261662e-07	6.283912e-09	2.260047e+00	4.081370e+02
2.470000e-06	2.211263e-07	6.041848e-09	1.532212e+00	3.913107e+02
2.480000e-06	1.159948e-07	5.795068e-09	8.037427e-01	3.742447e+02
2.490000e-06	1.084590e-08	5.536462e-09	7.515265e-02	3.570164e+02
2.500000e-06	-9.425302e-08	5.263423e-09	-6.530912e-01	3.396265e+02
2.510000e-06	-1.993264e-07	4.974427e-09	-1.381158e+00	3.219795e+02
2.520000e-06	-3.043379e-07	4.671343e-09	-2.108796e+00	3.038740e+02
2.530000e-06	-4.092323e-07	4.354070e-09	-2.835623e+00	2.850042e+02
2.540000e-06	-5.140030e-07	4.018885e-09	-3.561592e+00	2.649741e+02
2.550000e-06	-6.186165e-07	3.666406e-09	-4.286473e+00	2.433240e+02
2.560000e-06	-7.229715e-07	3.297305e-09	-5.009562e+00	2.195667e+02
2.570000e-06	-8.270697e-07	2.907537e-09	-5.730872e+00	1.932325e+02
2.580000e-06	-9.308938e-07	2.488512e-09	-6.450282e+00	1.639155e+02
2.590000e-06	-1.034326e-06	2.031661e-09	-7.166975e+00	1.313204e+02
2.600000e-06	-1.137393e-06	1.530202e-09	-7.881140e+00	9.530237e+01
2.610000e-06	-1.240031e-06	9.759351e-10	-8.592334e+00	5.589679e+01
2.620000e-06	-1.342136e-06	3.617000e-10	-9.299832e+00	1.333530e+01
2.630000e-06	-1.443627e-06	-3.179015e-10	-1.000308e+01	-3.195417e+01
2.640000e-06	-1.544460e-06	-1.059283e-09	-1.070176e+01	-7.936398e+01
2.650000e-06	-1.644684e-06	-1.846372e-09	-1.139622e+01	-1.281390e+02
2.660000e-06	-1.744310e-06	-2.657598e-09	-1.208655e+01	-1.774218e+02
2.670000e-06	-1.843284e-06	-3.465276e-09	-1.277235e+01	-2.263073e+02
2.680000e-06	-1.941601e-06	-4.237216e-09	-1.345360e+01	-2.739016e+02
2.690000e-06	-2.039315e-06	-4.944807e-09	-1.413067e+01	-3.193804e+02
2.700000e-06	-2.136390e-06	-5.577904e-09	-1.480332e+01	-3.620405e+02
2.710000e-06	-2.232737e-06	-6.143824e-09	-1.547092e+01	-4.013420e+02
2.720000e-06	-2.328390e-06	-6.650709e-09	-1.613371e+01	-4.369352e+02
2.730000e-06	-2.423392e-06	-7.099433e-09	-1.679199e+01	-4.686725e+02
2.740000e-06	-2.517558e-06	-7.496322e-09	-1.744448e+01	-4.966023e+02
2.750000e-06	-2.610691e-06	-7.854434e-09	-1.808981e+01	-5.209489e+02
2.760000e-06	-2.702729e-06	-8.183916e-09	-1.872755e+01	-5.420781e+02
2.770000e-06	-2.793655e-06	-8.485301e-09	-1.935759e+01	-5.604547e+02
2.780000e-06	-2.883589e-06	-8.753564e-09	-1.998076e+01	-5.765946e+02
2.790000e-06	-2.972530e-06	-8.995803e-09	-2.059704e+01	-5.910178e+02
2.800000e-06	-3.060459e-06	-9.222603e-09	-2.120631e+01	-6.042052e+02
2.810000e-06	-3.147409e-06	-9.435474e-09	-2.180880e+01	-6.165639e+02
2.820000e-06	-3.233196e-06	-9.633017e-09	-2.240323e+01	-6.284047e+02
2.830000e-06	-3.317702e-06	-9.816412e-09	-2.298878e+01	-6.399300e+02
2.840000e-06	-3.400996e-06	-9.991157e-09	-2.356593e+01	-6.512362e+02
2.850000e-06	-3.483179e-06	-1.015604e-08	-2.413539e+01	-6.623259e+02
2.860000e-06	-3.564197e-06	-1.030733e-08	-2.469678e+01	-6.731292e+02
2.870000e-06	-3.644050e-06	-1.044591e-08	-2.525008e+01	-6.835304e+02
2.880000e-06	-3.722638e-06	-1.057790e-08	-2.579464e+01	-6.933969e+02
2.890000e-06	-3.799686e-06	-1.070479e-08	-2.632851e+01	-7.026055e+02
2.900000e-06	-3.875155e-06	-1.082167e-08	-2.685144e+01	-7.110655e+02
2.910000e-06	-3.949184e-06	-1.092992e-08	-2.736440e+01	-7.187337e+02
2.920000e-06	-4.021797e-06	-1.103645e-08	-2.786754e+01	-7.256214e+02
2.930000e-06	-4.093058e-06	-1.114356e-08	-2.836132e+01	-7.317936e+02
2.940000e-06	-4.162848e-06	-1.124435e-08	-2.884491e+01	-7.373600e+02
