# Temperatura_=_25.45
# Concentracion g/m^3_=_15500.0
# C_Vs_to_Am_M_A/Vsm_=_65563218390.804596
# pendiente_HvsI_1/m_=_3716.3
# ordenada_HvsI_A/m_=_1297.0
# frecuencia_Hz_=_300808.8378632397

Tiempo_(s)	Campo_(V.s)	Magnetizacion_(V.s)	Campo_(kA/m)	Magnetizacion_(A/m)
0.000000e+00	-5.518713e-06	-1.201255e-08	-3.830620e+01	-7.846945e+02
1.000000e-08	-5.517225e-06	-1.201502e-08	-3.829587e+01	-7.846721e+02
2.000000e-08	-5.513751e-06	-1.201309e-08	-3.827176e+01	-7.847303e+02
3.000000e-08	-5.508468e-06	-1.200901e-08	-3.823509e+01	-7.848216e+02
4.000000e-08	-5.501535e-06	-1.200181e-08	-3.818697e+01	-7.848834e+02
5.000000e-08	-5.492967e-06	-1.198728e-08	-3.812750e+01	-7.848463e+02
6.000000e-08	-5.482489e-06	-1.196890e-08	-3.805476e+01	-7.846450e+02
7.000000e-08	-5.469895e-06	-1.194939e-08	-3.796735e+01	-7.842273e+02
8.000000e-08	-5.455303e-06	-1.193723e-08	-3.786607e+01	-7.835614e+02
9.000000e-08	-5.438352e-06	-1.197413e-08	-3.774840e+01	-7.826406e+02
1.000000e-07	-5.419035e-06	-1.199040e-08	-3.761433e+01	-7.814840e+02
1.100000e-07	-5.397719e-06	-1.195337e-08	-3.746636e+01	-7.801336e+02
1.200000e-07	-5.374540e-06	-1.192718e-08	-3.730548e+01	-7.786480e+02
1.300000e-07	-5.349870e-06	-1.184249e-08	-3.713424e+01	-7.770938e+02
1.400000e-07	-5.323748e-06	-1.179908e-08	-3.695292e+01	-7.755363e+02
1.500000e-07	-5.295838e-06	-1.188267e-08	-3.675920e+01	-7.740291e+02
1.600000e-07	-5.266151e-06	-1.180685e-08	-3.655313e+01	-7.726068e+02
1.700000e-07	-5.234850e-06	-1.177350e-08	-3.633587e+01	-7.712794e+02
1.800000e-07	-5.201674e-06	-1.184138e-08	-3.610559e+01	-7.700302e+02
1.900000e-07	-5.166483e-06	-1.172792e-08	-3.586132e+01	-7.688180e+02
2.000000e-07	-5.129678e-06	-1.169782e-08	-3.560585e+01	-7.675823e+02
2.100000e-07	-5.091183e-06	-1.169676e-08	-3.533865e+01	-7.662514e+02
2.200000e-07	-5.050906e-06	-1.160061e-08	-3.505909e+01	-7.647521e+02
2.300000e-07	-5.008678e-06	-1.161382e-08	-3.476598e+01	-7.630201e+02
2.400000e-07	-4.964424e-06	-1.162484e-08	-3.445880e+01	-7.610086e+02
2.500000e-07	-4.918462e-06	-1.158468e-08	-3.413977e+01	-7.586953e+02
2.600000e-07	-4.870648e-06	-1.153339e-08	-3.380789e+01	-7.560852e+02
2.700000e-07	-4.820816e-06	-1.143903e-08	-3.346200e+01	-7.532106e+02
2.800000e-07	-4.768898e-06	-1.142071e-08	-3.310162e+01	-7.501264e+02
2.900000e-07	-4.714999e-06	-1.139865e-08	-3.272750e+01	-7.469027e+02
3.000000e-07	-4.659426e-06	-1.134819e-08	-3.234177e+01	-7.436152e+02
3.100000e-07	-4.602225e-06	-1.131033e-08	-3.194473e+01	-7.403343e+02
3.200000e-07	-4.543207e-06	-1.127287e-08	-3.153507e+01	-7.371153e+02
3.300000e-07	-4.482476e-06	-1.124472e-08	-3.111353e+01	-7.339900e+02
3.400000e-07	-4.420259e-06	-1.116734e-08	-3.068167e+01	-7.309620e+02
3.500000e-07	-4.356596e-06	-1.109468e-08	-3.023978e+01	-7.280056e+02
3.600000e-07	-4.291424e-06	-1.103931e-08	-2.978741e+01	-7.250684e+02
3.700000e-07	-4.224605e-06	-1.100062e-08	-2.932361e+01	-7.220784e+02
3.800000e-07	-4.156139e-06	-1.097721e-08	-2.884837e+01	-7.189530e+02
3.900000e-07	-4.086173e-06	-1.090742e-08	-2.836273e+01	-7.156106e+02
4.000000e-07	-4.014913e-06	-1.083907e-08	-2.786811e+01	-7.119811e+02
4.100000e-07	-3.942357e-06	-1.077776e-08	-2.736448e+01	-7.080158e+02
4.200000e-07	-3.868316e-06	-1.071010e-08	-2.685056e+01	-7.036942e+02
4.300000e-07	-3.792612e-06	-1.063483e-08	-2.632508e+01	-6.990265e+02
4.400000e-07	-3.715258e-06	-1.055494e-08	-2.578815e+01	-6.940530e+02
4.500000e-07	-3.636355e-06	-1.050182e-08	-2.524047e+01	-6.888374e+02
4.600000e-07	-3.555953e-06	-1.044352e-08	-2.468239e+01	-6.834589e+02
4.700000e-07	-3.474219e-06	-1.036886e-08	-2.411506e+01	-6.780000e+02
4.800000e-07	-3.391281e-06	-1.027824e-08	-2.353938e+01	-6.725345e+02
4.900000e-07	-3.307217e-06	-1.018432e-08	-2.295588e+01	-6.671168e+02
5.000000e-07	-3.222145e-06	-1.010661e-08	-2.236538e+01	-6.617726e+02
5.100000e-07	-3.136110e-06	-1.002932e-08	-2.176820e+01	-6.564946e+02
5.200000e-07	-3.049144e-06	-9.944384e-09	-2.116456e+01	-6.512416e+02
5.300000e-07	-2.961233e-06	-9.847965e-09	-2.055435e+01	-6.459432e+02
5.400000e-07	-2.872318e-06	-9.754409e-09	-1.993718e+01	-6.405086e+02
5.500000e-07	-2.782331e-06	-9.662590e-09	-1.931257e+01	-6.348377e+02
5.600000e-07	-2.691176e-06	-9.557758e-09	-1.867985e+01	-6.288353e+02
5.700000e-07	-2.598896e-06	-9.449265e-09	-1.803932e+01	-6.224234e+02
5.800000e-07	-2.505705e-06	-9.343964e-09	-1.739247e+01	-6.155523e+02
5.900000e-07	-2.411703e-06	-9.244088e-09	-1.673999e+01	-6.082080e+02
6.000000e-07	-2.316918e-06	-9.136835e-09	-1.608207e+01	-6.004144e+02
6.100000e-07	-2.221403e-06	-9.018003e-09	-1.541909e+01	-5.922298e+02
6.200000e-07	-2.125032e-06	-8.893824e-09	-1.475016e+01	-5.837392e+02
6.300000e-07	-2.027863e-06	-8.769688e-09	-1.407569e+01	-5.750412e+02
6.400000e-07	-1.929972e-06	-8.646521e-09	-1.339622e+01	-5.662330e+02
6.500000e-07	-1.831307e-06	-8.515036e-09	-1.271137e+01	-5.573947e+02
6.600000e-07	-1.731860e-06	-8.377948e-09	-1.202110e+01	-5.485747e+02
6.700000e-07	-1.631702e-06	-8.239603e-09	-1.132589e+01	-5.397796e+02
6.800000e-07	-1.530966e-06	-8.099549e-09	-1.062666e+01	-5.309682e+02
6.900000e-07	-1.429763e-06	-7.949573e-09	-9.924199e+00	-5.220533e+02
7.000000e-07	-1.328095e-06	-7.790538e-09	-9.218504e+00	-5.129089e+02
7.100000e-07	-1.225948e-06	-7.629489e-09	-8.509484e+00	-5.033838e+02
7.200000e-07	-1.123441e-06	-7.466486e-09	-7.797967e+00	-4.933195e+02
7.300000e-07	-1.020587e-06	-7.295795e-09	-7.084043e+00	-4.825702e+02
7.400000e-07	-9.173515e-07	-7.113369e-09	-6.367472e+00	-4.710217e+02
7.500000e-07	-8.137661e-07	-6.924701e-09	-5.648470e+00	-4.586081e+02
7.600000e-07	-7.098726e-07	-6.732485e-09	-4.927331e+00	-4.453214e+02
7.700000e-07	-6.057273e-07	-6.534100e-09	-4.204443e+00	-4.312139e+02
7.800000e-07	-5.013770e-07	-6.324196e-09	-3.480132e+00	-4.163923e+02
7.900000e-07	-3.968875e-07	-6.105530e-09	-2.754855e+00	-4.010022e+02
8.000000e-07	-2.922749e-07	-5.883693e-09	-2.028723e+00	-3.852058e+02
8.100000e-07	-1.875687e-07	-5.654674e-09	-1.301942e+00	-3.691538e+02
8.200000e-07	-8.279237e-08	-5.411988e-09	-5.746741e-01	-3.529557e+02
8.300000e-07	2.208924e-08	-5.153861e-09	1.533247e-01	-3.366516e+02
8.400000e-07	1.269418e-07	-4.885152e-09	8.811216e-01	-3.201884e+02
8.500000e-07	2.316923e-07	-4.607860e-09	1.608210e+00	-3.034056e+02
8.600000e-07	3.363958e-07	-4.317797e-09	2.334973e+00	-2.860318e+02
8.700000e-07	4.410072e-07	-4.006559e-09	3.061096e+00	-2.676944e+02
8.800000e-07	5.454413e-07	-3.674590e-09	3.785988e+00	-2.479417e+02
8.900000e-07	6.496610e-07	-3.329208e-09	4.509393e+00	-2.262769e+02
9.000000e-07	7.536258e-07	-2.967384e-09	5.231028e+00	-2.022014e+02
9.100000e-07	8.573014e-07	-2.575959e-09	5.950656e+00	-1.752627e+02
9.200000e-07	9.606563e-07	-2.145762e-09	6.668058e+00	-1.451035e+02
9.300000e-07	1.063678e-06	-1.676552e-09	7.383147e+00	-1.115058e+02
9.400000e-07	1.166310e-06	-1.160956e-09	8.095528e+00	-7.442637e+01
9.500000e-07	1.268545e-06	-5.839176e-10	8.805161e+00	-3.401940e+01
9.600000e-07	1.370397e-06	6.469043e-11	9.512131e+00	9.357298e+00
9.700000e-07	1.471800e-06	7.798630e-10	1.021598e+01	5.515261e+01
9.800000e-07	1.572783e-06	1.547595e-09	1.091692e+01	1.026494e+02
9.900000e-07	1.673321e-06	2.347524e-09	1.161477e+01	1.510065e+02
1.000000e-06	1.773222e-06	3.149166e-09	1.230820e+01	1.993120e+02
1.010000e-06	1.872293e-06	3.916525e-09	1.299587e+01	2.466425e+02
1.020000e-06	1.970514e-06	4.621311e-09	1.367763e+01	2.921243e+02
1.030000e-06	2.067968e-06	5.253741e-09	1.435407e+01	3.349899e+02
1.040000e-06	2.164718e-06	5.818072e-09	1.502563e+01	3.746252e+02
1.050000e-06	2.260696e-06	6.320129e-09	1.569182e+01	4.106034e+02
1.060000e-06	2.355891e-06	6.761560e-09	1.635258e+01	4.427028e+02
1.070000e-06	2.450350e-06	7.150876e-09	1.700824e+01	4.709076e+02
1.080000e-06	2.543966e-06	7.497337e-09	1.765804e+01	4.953915e+02
1.090000e-06	2.636803e-06	7.809215e-09	1.830244e+01	5.164876e+02
1.100000e-06	2.728807e-06	8.091779e-09	1.894105e+01	5.346464e+02
1.110000e-06	2.819610e-06	8.345493e-09	1.957133e+01	5.503883e+02
1.120000e-06	2.909222e-06	8.576087e-09	2.019334e+01	5.642538e+02
1.130000e-06	2.997855e-06	8.793459e-09	2.080856e+01	5.767569e+02
1.140000e-06	3.085484e-06	9.000604e-09	2.141680e+01	5.883464e+02
1.150000e-06	3.172016e-06	9.191086e-09	2.201743e+01	5.993772e+02
1.160000e-06	3.257497e-06	9.362301e-09	2.261077e+01	6.100948e+02
1.170000e-06	3.341992e-06	9.518568e-09	2.319726e+01	6.206322e+02
1.180000e-06	3.425334e-06	9.667669e-09	2.377575e+01	6.310196e+02
1.190000e-06	3.507350e-06	9.811813e-09	2.434503e+01	6.412039e+02
1.200000e-06	3.588117e-06	9.947026e-09	2.490565e+01	6.510744e+02
1.210000e-06	3.667646e-06	1.007205e-08	2.545767e+01	6.604930e+02
1.220000e-06	3.745863e-06	1.019157e-08	2.600059e+01	6.693226e+02
1.230000e-06	3.822772e-06	1.030651e-08	2.653442e+01	6.774530e+02
1.240000e-06	3.898204e-06	1.041246e-08	2.705801e+01	6.848186e+02
1.250000e-06	3.972054e-06	1.050860e-08	2.757061e+01	6.914100e+02
1.260000e-06	4.044424e-06	1.059862e-08	2.807294e+01	6.972745e+02
1.270000e-06	4.115332e-06	1.068520e-08	2.856513e+01	7.025103e+02
1.280000e-06	4.184855e-06	1.076912e-08	2.904769e+01	7.072526e+02
1.290000e-06	4.252951e-06	1.084979e-08	2.952036e+01	7.116560e+02
1.300000e-06	4.319367e-06	1.092798e-08	2.998136e+01	7.158747e+02
1.310000e-06	4.384153e-06	1.100490e-08	3.043105e+01	7.200438e+02
1.320000e-06	4.447493e-06	1.107848e-08	3.087070e+01	7.242637e+02
1.330000e-06	4.509391e-06	1.114670e-08	3.130035e+01	7.285904e+02
1.340000e-06	4.569858e-06	1.120955e-08	3.172006e+01	7.330315e+02
1.350000e-06	4.628683e-06	1.126807e-08	3.212837e+01	7.375487e+02
1.360000e-06	4.685739e-06	1.132202e-08	3.252441e+01	7.420669e+02
1.370000e-06	4.741135e-06	1.137605e-08	3.290892e+01	7.464866e+02
1.380000e-06	4.794762e-06	1.143166e-08	3.328115e+01	7.507002e+02
1.390000e-06	4.846448e-06	1.148388e-08	3.363991e+01	7.546076e+02
1.400000e-06	4.896108e-06	1.153108e-08	3.398461e+01	7.581300e+02
1.410000e-06	4.943898e-06	1.157407e-08	3.431633e+01	7.612210e+02
1.420000e-06	4.990043e-06	1.161526e-08	3.463663e+01	7.638722e+02
1.430000e-06	5.034577e-06	1.165537e-08	3.494575e+01	7.661131e+02
1.440000e-06	5.077193e-06	1.169153e-08	3.524155e+01	7.680065e+02
1.450000e-06	5.117872e-06	1.172387e-08	3.552391e+01	7.696394e+02
1.460000e-06	5.156874e-06	1.175436e-08	3.579463e+01	7.711103e+02
1.470000e-06	5.194231e-06	1.178649e-08	3.605393e+01	7.725159e+02
1.480000e-06	5.229766e-06	1.181888e-08	3.630058e+01	7.739389e+02
1.490000e-06	5.263268e-06	1.184666e-08	3.653312e+01	7.754370e+02
1.500000e-06	5.294902e-06	1.186905e-08	3.675270e+01	7.770366e+02
1.510000e-06	5.324852e-06	1.188968e-08	3.696059e+01	7.787309e+02
1.520000e-06	5.353083e-06	1.191028e-08	3.715654e+01	7.804820e+02
1.530000e-06	5.379304e-06	1.192791e-08	3.733854e+01	7.822280e+02
1.540000e-06	5.403415e-06	1.194333e-08	3.750590e+01	7.838925e+02
1.550000e-06	5.425672e-06	1.195806e-08	3.766039e+01	7.853965e+02
1.560000e-06	5.446242e-06	1.197299e-08	3.780317e+01	7.866697e+02
1.570000e-06	5.464895e-06	1.198717e-08	3.793264e+01	7.876606e+02
1.580000e-06	5.481438e-06	1.199854e-08	3.804747e+01	7.883436e+02
1.590000e-06	5.496014e-06	1.200664e-08	3.814864e+01	7.887226e+02
1.600000e-06	5.508522e-06	1.201392e-08	3.823547e+01	7.888299e+02
1.610000e-06	5.518786e-06	1.202149e-08	3.830671e+01	7.887216e+02
1.620000e-06	5.526974e-06	1.202761e-08	3.836354e+01	7.884694e+02
1.630000e-06	5.533323e-06	1.203117e-08	3.840761e+01	7.881507e+02
1.640000e-06	5.537856e-06	1.203184e-08	3.843908e+01	7.878380e+02
1.650000e-06	5.540382e-06	1.203350e-08	3.845661e+01	7.875886e+02
1.660000e-06	5.540870e-06	1.203689e-08	3.846000e+01	7.874378e+02
1.670000e-06	5.539575e-06	1.203301e-08	3.845101e+01	7.873937e+02
1.680000e-06	5.536642e-06	1.202557e-08	3.843065e+01	7.874376e+02
1.690000e-06	5.531772e-06	1.201828e-08	3.839685e+01	7.875264e+02
1.700000e-06	5.524971e-06	1.201294e-08	3.834964e+01	7.875999e+02
1.710000e-06	5.516522e-06	1.200988e-08	3.829100e+01	7.875895e+02
1.720000e-06	5.506368e-06	1.200586e-08	3.822051e+01	7.874281e+02
1.730000e-06	5.494250e-06	1.201244e-08	3.813640e+01	7.870598e+02
1.740000e-06	5.480100e-06	1.199498e-08	3.803819e+01	7.864482e+02
1.750000e-06	5.463982e-06	1.192246e-08	3.792631e+01	7.855810e+02
1.760000e-06	5.445345e-06	1.189913e-08	3.779694e+01	7.844718e+02
1.770000e-06	5.423882e-06	1.189630e-08	3.764797e+01	7.831581e+02
1.780000e-06	5.400266e-06	1.193498e-08	3.748405e+01	7.816956e+02
1.790000e-06	5.375527e-06	1.199373e-08	3.731233e+01	7.801501e+02
1.800000e-06	5.349989e-06	1.186230e-08	3.713507e+01	7.785879e+02
1.810000e-06	5.322683e-06	1.185465e-08	3.694553e+01	7.770660e+02
1.820000e-06	5.293071e-06	1.190593e-08	3.673999e+01	7.756234e+02
1.830000e-06	5.261810e-06	1.175864e-08	3.652300e+01	7.742759e+02
1.840000e-06	5.228787e-06	1.180443e-08	3.629378e+01	7.730123e+02
1.850000e-06	5.193908e-06	1.181863e-08	3.605168e+01	7.717964e+02
1.860000e-06	5.157334e-06	1.168259e-08	3.579782e+01	7.705712e+02
1.870000e-06	5.118657e-06	1.176820e-08	3.552935e+01	7.692666e+02
1.880000e-06	5.078216e-06	1.173130e-08	3.524865e+01	7.678089e+02
1.890000e-06	5.036205e-06	1.162124e-08	3.495704e+01	7.661311e+02
1.900000e-06	4.992248e-06	1.161537e-08	3.465193e+01	7.641819e+02
1.910000e-06	4.946509e-06	1.152863e-08	3.433445e+01	7.619335e+02
1.920000e-06	4.898926e-06	1.159505e-08	3.400417e+01	7.593849e+02
1.930000e-06	4.849503e-06	1.157175e-08	3.366111e+01	7.565627e+02
1.940000e-06	4.798338e-06	1.145373e-08	3.330597e+01	7.535175e+02
1.950000e-06	4.745098e-06	1.146563e-08	3.293643e+01	7.503170e+02
1.960000e-06	4.689996e-06	1.138682e-08	3.255396e+01	7.470366e+02
1.970000e-06	4.633233e-06	1.134997e-08	3.215995e+01	7.437487e+02
1.980000e-06	4.574861e-06	1.127801e-08	3.175479e+01	7.405125e+02
1.990000e-06	4.514909e-06	1.122618e-08	3.133865e+01	7.373655e+02
2.000000e-06	4.453181e-06	1.125348e-08	3.091019e+01	7.343175e+02
2.010000e-06	4.389843e-06	1.117692e-08	3.047055e+01	7.313490e+02
2.020000e-06	4.324969e-06	1.114771e-08	3.002025e+01	7.284129e+02
2.030000e-06	4.258660e-06	1.104963e-08	2.955999e+01	7.254406e+02
2.040000e-06	4.190843e-06	1.098134e-08	2.908926e+01	7.223510e+02
2.050000e-06	4.121213e-06	1.095299e-08	2.860595e+01	7.190612e+02
2.060000e-06	4.050051e-06	1.085326e-08	2.811200e+01	7.154979e+02
2.070000e-06	3.977522e-06	1.082298e-08	2.760857e+01	7.116070e+02
2.080000e-06	3.903616e-06	1.075538e-08	2.709558e+01	7.073615e+02
2.090000e-06	3.828188e-06	1.072289e-08	2.657202e+01	7.027653e+02
2.100000e-06	3.751003e-06	1.065500e-08	2.603627e+01	6.978523e+02
2.110000e-06	3.672298e-06	1.055205e-08	2.548996e+01	6.926820e+02
2.120000e-06	3.592366e-06	1.048132e-08	2.493514e+01	6.873310e+02
2.130000e-06	3.511276e-06	1.038671e-08	2.437229e+01	6.818823e+02
2.140000e-06	3.429057e-06	1.034066e-08	2.380159e+01	6.764125e+02
2.150000e-06	3.345717e-06	1.025751e-08	2.322312e+01	6.709809e+02
2.160000e-06	3.261010e-06	1.017670e-08	2.263515e+01	6.656202e+02
2.170000e-06	3.174925e-06	1.009189e-08	2.203762e+01	6.603300e+02
2.180000e-06	3.087743e-06	9.997991e-09	2.143248e+01	6.550763e+02
2.190000e-06	2.999599e-06	9.913380e-09	2.082066e+01	6.497945e+02
2.200000e-06	2.910532e-06	9.805876e-09	2.020243e+01	6.443970e+02
2.210000e-06	2.820514e-06	9.724752e-09	1.957761e+01	6.387848e+02
2.220000e-06	2.729595e-06	9.637137e-09	1.894652e+01	6.328605e+02
2.230000e-06	2.637666e-06	9.542518e-09	1.830843e+01	6.265413e+02
2.240000e-06	2.544649e-06	9.425679e-09	1.766278e+01	6.197707e+02
2.250000e-06	2.450591e-06	9.304520e-09	1.700991e+01	6.125268e+02
2.260000e-06	2.355597e-06	9.200465e-09	1.635055e+01	6.048253e+02
2.270000e-06	2.259858e-06	9.095993e-09	1.568601e+01	5.967177e+02
2.280000e-06	2.163387e-06	8.988558e-09	1.501639e+01	5.882843e+02
2.290000e-06	2.066167e-06	8.865685e-09	1.434157e+01	5.796219e+02
2.300000e-06	1.968276e-06	8.740343e-09	1.366209e+01	5.708294e+02
2.310000e-06	1.869829e-06	8.611060e-09	1.297876e+01	5.619919e+02
2.320000e-06	1.770816e-06	8.476560e-09	1.229149e+01	5.531656e+02
2.330000e-06	1.671238e-06	8.333806e-09	1.160031e+01	5.443666e+02
2.340000e-06	1.571100e-06	8.192802e-09	1.090524e+01	5.355643e+02
2.350000e-06	1.470314e-06	8.054487e-09	1.020567e+01	5.266807e+02
2.360000e-06	1.368880e-06	7.905890e-09	9.501600e+00	5.175972e+02
2.370000e-06	1.266828e-06	7.744615e-09	8.793244e+00	5.081668e+02
2.380000e-06	1.164228e-06	7.576462e-09	8.081076e+00	4.982307e+02
2.390000e-06	1.061163e-06	7.409976e-09	7.365687e+00	4.876388e+02
2.400000e-06	9.577191e-07	7.238917e-09	6.647670e+00	4.762686e+02
2.410000e-06	8.539470e-07	7.058819e-09	5.927373e+00	4.640429e+02
2.420000e-06	7.498817e-07	6.867860e-09	5.205040e+00	4.509405e+02
2.430000e-06	6.456211e-07	6.668188e-09	4.481351e+00	4.370013e+02
2.440000e-06	5.412110e-07	6.460882e-09	3.756625e+00	4.223212e+02
2.450000e-06	4.366575e-07	6.245702e-09	3.030904e+00	4.070391e+02
2.460000e-06	3.319512e-07	6.021533e-09	2.304123e+00	3.913158e+02
2.470000e-06	2.271390e-07	5.789430e-09	1.576605e+00	3.753072e+02
2.480000e-06	1.222625e-07	5.552071e-09	8.486419e-01	3.591340e+02
2.490000e-06	1.731915e-08	5.304905e-09	1.202148e-01	3.428532e+02
2.500000e-06	-8.763485e-08	5.042146e-09	-6.082864e-01	3.264335e+02
2.510000e-06	-1.925554e-07	4.761279e-09	-1.336556e+00	3.097380e+02
2.520000e-06	-2.974064e-07	4.467217e-09	-2.064342e+00	2.925187e+02
2.530000e-06	-4.021662e-07	4.161955e-09	-2.791495e+00	2.744233e+02
2.540000e-06	-5.068067e-07	3.840200e-09	-3.517821e+00	2.550144e+02
2.550000e-06	-6.112741e-07	3.498745e-09	-4.242944e+00	2.338016e+02
2.560000e-06	-7.154977e-07	3.136415e-09	-4.966375e+00	2.102827e+02
2.570000e-06	-8.193884e-07	2.750406e-09	-5.687496e+00	1.839913e+02
2.580000e-06	-9.229809e-07	2.335056e-09	-6.406547e+00	1.545456e+02
2.590000e-06	-1.026316e-06	1.881704e-09	-7.123810e+00	1.216944e+02
2.600000e-06	-1.129288e-06	1.381456e-09	-7.838558e+00	8.535471e+01
2.610000e-06	-1.231795e-06	8.240128e-10	-8.550074e+00	4.563724e+01
2.620000e-06	-1.333701e-06	2.006930e-10	-9.257414e+00	2.856469e+00
2.630000e-06	-1.434904e-06	-4.917216e-10	-9.959880e+00	-4.247616e+01
2.640000e-06	-1.535436e-06	-1.245088e-09	-1.065769e+01	-8.967601e+01
2.650000e-06	-1.635418e-06	-2.037961e-09	-1.135168e+01	-1.379244e+02
2.660000e-06	-1.734923e-06	-2.842218e-09	-1.204236e+01	-1.863195e+02
2.670000e-06	-1.833882e-06	-3.625540e-09	-1.272924e+01	-2.339354e+02
2.680000e-06	-1.932170e-06	-4.360242e-09	-1.341148e+01	-2.798827e+02
2.690000e-06	-2.029752e-06	-5.027168e-09	-1.408881e+01	-3.233668e+02
2.700000e-06	-2.126655e-06	-5.619091e-09	-1.476143e+01	-3.637373e+02
2.710000e-06	-2.222850e-06	-6.140526e-09	-1.542913e+01	-4.005252e+02
2.720000e-06	-2.318420e-06	-6.601507e-09	-1.609250e+01	-4.334644e+02
2.730000e-06	-2.413380e-06	-7.009431e-09	-1.675163e+01	-4.624955e+02
2.740000e-06	-2.507524e-06	-7.369784e-09	-1.740509e+01	-4.877539e+02
2.750000e-06	-2.600590e-06	-7.692466e-09	-1.805108e+01	-5.095417e+02
2.760000e-06	-2.692519e-06	-7.988157e-09	-1.868917e+01	-5.282880e+02
2.770000e-06	-2.783427e-06	-8.257581e-09	-1.932018e+01	-5.445026e+02
2.780000e-06	-2.873343e-06	-8.499856e-09	-1.994430e+01	-5.587257e+02
2.790000e-06	-2.962244e-06	-8.721390e-09	-2.056137e+01	-5.714806e+02
2.800000e-06	-3.050146e-06	-8.927362e-09	-2.117151e+01	-5.832328e+02
2.810000e-06	-3.137093e-06	-9.119877e-09	-2.177503e+01	-5.943591e+02
2.820000e-06	-3.222925e-06	-9.300337e-09	-2.237080e+01	-6.051292e+02
2.830000e-06	-3.307390e-06	-9.467702e-09	-2.295708e+01	-6.156997e+02
2.840000e-06	-3.390596e-06	-9.623170e-09	-2.353463e+01	-6.261216e+02
2.850000e-06	-3.472679e-06	-9.767526e-09	-2.410438e+01	-6.363575e+02
2.860000e-06	-3.553580e-06	-9.901685e-09	-2.466592e+01	-6.463068e+02
2.870000e-06	-3.633320e-06	-1.002622e-08	-2.521941e+01	-6.558345e+02
2.880000e-06	-3.711808e-06	-1.014353e-08	-2.576421e+01	-6.648012e+02
2.890000e-06	-3.788796e-06	-1.025577e-08	-2.629859e+01	-6.730889e+02
2.900000e-06	-3.864228e-06	-1.036097e-08	-2.682218e+01	-6.806216e+02
2.910000e-06	-3.938172e-06	-1.045959e-08	-2.733544e+01	-6.873771e+02
2.920000e-06	-4.010694e-06	-1.055498e-08	-2.783882e+01	-6.933910e+02
2.930000e-06	-4.081930e-06	-1.064988e-08	-2.833328e+01	-6.987515e+02
2.940000e-06	-4.151701e-06	-1.074051e-08	-2.881757e+01	-7.035872e+02
