# Temperatura_=_30.11
# Concentracion g/m^3_=_15500.0
# C_Vs_to_Am_M_A/Vsm_=_65563218390.804596
# pendiente_HvsI_1/m_=_3716.3
# ordenada_HvsI_A/m_=_1297.0
# frecuencia_Hz_=_300806.8424935238

Tiempo_(s)	Campo_(V.s)	Magnetizacion_(V.s)	Campo_(kA/m)	Magnetizacion_(A/m)
0.000000e+00	-5.515807e-06	-1.205713e-08	-3.830388e+01	-7.883068e+02
1.000000e-08	-5.513967e-06	-1.205648e-08	-3.829111e+01	-7.883654e+02
2.000000e-08	-5.510153e-06	-1.205559e-08	-3.826462e+01	-7.884919e+02
3.000000e-08	-5.504541e-06	-1.204948e-08	-3.822565e+01	-7.886277e+02
4.000000e-08	-5.497322e-06	-1.203700e-08	-3.817551e+01	-7.887020e+02
5.000000e-08	-5.488482e-06	-1.202221e-08	-3.811413e+01	-7.886418e+02
6.000000e-08	-5.477734e-06	-1.200949e-08	-3.803949e+01	-7.883825e+02
7.000000e-08	-5.464887e-06	-1.199750e-08	-3.795027e+01	-7.878769e+02
8.000000e-08	-5.449909e-06	-1.199866e-08	-3.784626e+01	-7.871020e+02
9.000000e-08	-5.432609e-06	-1.200701e-08	-3.772612e+01	-7.860617e+02
1.000000e-07	-5.413052e-06	-1.200458e-08	-3.759031e+01	-7.847867e+02
1.100000e-07	-5.391494e-06	-1.199157e-08	-3.744061e+01	-7.833294e+02
1.200000e-07	-5.368115e-06	-1.194526e-08	-3.727825e+01	-7.817568e+02
1.300000e-07	-5.343279e-06	-1.188279e-08	-3.710578e+01	-7.801402e+02
1.400000e-07	-5.316945e-06	-1.188524e-08	-3.692291e+01	-7.785454e+02
1.500000e-07	-5.288718e-06	-1.187168e-08	-3.672689e+01	-7.770232e+02
1.600000e-07	-5.258740e-06	-1.184997e-08	-3.651871e+01	-7.756014e+02
1.700000e-07	-5.227178e-06	-1.186357e-08	-3.629953e+01	-7.742813e+02
1.800000e-07	-5.193652e-06	-1.181282e-08	-3.606672e+01	-7.730364e+02
1.900000e-07	-5.158119e-06	-1.177005e-08	-3.581996e+01	-7.718166e+02
2.000000e-07	-5.120987e-06	-1.175824e-08	-3.556210e+01	-7.705544e+02
2.100000e-07	-5.082170e-06	-1.170159e-08	-3.529254e+01	-7.691742e+02
2.200000e-07	-5.041559e-06	-1.165745e-08	-3.501052e+01	-7.676030e+02
2.300000e-07	-4.999035e-06	-1.165441e-08	-3.471522e+01	-7.657801e+02
2.400000e-07	-4.954531e-06	-1.164769e-08	-3.440617e+01	-7.636662e+02
2.500000e-07	-4.908266e-06	-1.161799e-08	-3.408488e+01	-7.612484e+02
2.600000e-07	-4.860113e-06	-1.154202e-08	-3.375049e+01	-7.585422e+02
2.700000e-07	-4.809846e-06	-1.147987e-08	-3.340142e+01	-7.555897e+02
2.800000e-07	-4.757530e-06	-1.145509e-08	-3.303811e+01	-7.524536e+02
2.900000e-07	-4.703385e-06	-1.143602e-08	-3.266211e+01	-7.492083e+02
3.000000e-07	-4.647550e-06	-1.139790e-08	-3.227437e+01	-7.459297e+02
3.100000e-07	-4.589996e-06	-1.134789e-08	-3.187470e+01	-7.426841e+02
3.200000e-07	-4.530665e-06	-1.131226e-08	-3.146268e+01	-7.395184e+02
3.300000e-07	-4.469729e-06	-1.126485e-08	-3.103951e+01	-7.364536e+02
3.400000e-07	-4.407311e-06	-1.119955e-08	-3.060606e+01	-7.334807e+02
3.500000e-07	-4.343417e-06	-1.112691e-08	-3.016236e+01	-7.305615e+02
3.600000e-07	-4.278010e-06	-1.107618e-08	-2.970814e+01	-7.276333e+02
3.700000e-07	-4.210905e-06	-1.104993e-08	-2.924214e+01	-7.246172e+02
3.800000e-07	-4.142123e-06	-1.100462e-08	-2.876449e+01	-7.214284e+02
3.900000e-07	-4.071894e-06	-1.093417e-08	-2.827680e+01	-7.179878e+02
4.000000e-07	-4.000399e-06	-1.086261e-08	-2.778031e+01	-7.142331e+02
4.100000e-07	-3.927630e-06	-1.080073e-08	-2.727497e+01	-7.101272e+02
4.200000e-07	-3.853353e-06	-1.073898e-08	-2.675917e+01	-7.056637e+02
4.300000e-07	-3.777404e-06	-1.066225e-08	-2.623175e+01	-7.008678e+02
4.400000e-07	-3.699870e-06	-1.058800e-08	-2.569332e+01	-6.957931e+02
4.500000e-07	-3.620799e-06	-1.052754e-08	-2.514422e+01	-6.905139e+02
4.600000e-07	-3.540247e-06	-1.046789e-08	-2.458483e+01	-6.851149e+02
4.700000e-07	-3.458370e-06	-1.039397e-08	-2.401625e+01	-6.796784e+02
4.800000e-07	-3.375266e-06	-1.030342e-08	-2.343914e+01	-6.742727e+02
4.900000e-07	-3.291089e-06	-1.021685e-08	-2.285459e+01	-6.689409e+02
5.000000e-07	-3.205918e-06	-1.013828e-08	-2.226313e+01	-6.636941e+02
5.100000e-07	-3.119714e-06	-1.005768e-08	-2.166449e+01	-6.585076e+02
5.200000e-07	-3.032550e-06	-9.966109e-09	-2.105919e+01	-6.533236e+02
5.300000e-07	-2.944462e-06	-9.872843e-09	-2.044748e+01	-6.480574e+02
5.400000e-07	-2.855403e-06	-9.785351e-09	-1.982902e+01	-6.426080e+02
5.500000e-07	-2.765248e-06	-9.693420e-09	-1.920294e+01	-6.368713e+02
5.600000e-07	-2.673901e-06	-9.588105e-09	-1.856860e+01	-6.307540e+02
5.700000e-07	-2.581492e-06	-9.475056e-09	-1.792687e+01	-6.241869e+02
5.800000e-07	-2.488246e-06	-9.369201e-09	-1.727934e+01	-6.171339e+02
5.900000e-07	-2.394215e-06	-9.267596e-09	-1.662635e+01	-6.095983e+02
6.000000e-07	-2.299380e-06	-9.159873e-09	-1.596778e+01	-6.016221e+02
6.100000e-07	-2.203818e-06	-9.042429e-09	-1.530416e+01	-5.932807e+02
6.200000e-07	-2.107500e-06	-8.921298e-09	-1.463529e+01	-5.846719e+02
6.300000e-07	-2.010377e-06	-8.799166e-09	-1.396083e+01	-5.759014e+02
6.400000e-07	-1.912426e-06	-8.671652e-09	-1.328062e+01	-5.670668e+02
6.500000e-07	-1.813585e-06	-8.536353e-09	-1.259423e+01	-5.582408e+02
6.600000e-07	-1.713906e-06	-8.397908e-09	-1.190203e+01	-5.494580e+02
6.700000e-07	-1.613598e-06	-8.260346e-09	-1.120545e+01	-5.407061e+02
6.800000e-07	-1.512837e-06	-8.117046e-09	-1.050572e+01	-5.319229e+02
6.900000e-07	-1.411651e-06	-7.963975e-09	-9.803044e+00	-5.230004e+02
7.000000e-07	-1.309966e-06	-7.804831e-09	-9.096908e+00	-5.137951e+02
7.100000e-07	-1.207784e-06	-7.644779e-09	-8.387314e+00	-5.041446e+02
7.200000e-07	-1.105179e-06	-7.481157e-09	-7.674789e+00	-4.938872e+02
7.300000e-07	-1.002229e-06	-7.307874e-09	-6.959861e+00	-4.828826e+02
7.400000e-07	-8.989828e-07	-7.124967e-09	-6.242882e+00	-4.710311e+02
7.500000e-07	-7.954211e-07	-6.936523e-09	-5.523710e+00	-4.582880e+02
7.600000e-07	-6.915132e-07	-6.743509e-09	-4.802134e+00	-4.446707e+02
7.700000e-07	-5.873366e-07	-6.539171e-09	-4.078691e+00	-4.302582e+02
7.800000e-07	-4.830106e-07	-6.323786e-09	-3.354211e+00	-4.151798e+02
7.900000e-07	-3.785772e-07	-6.105103e-09	-2.628986e+00	-3.995969e+02
8.000000e-07	-2.740341e-07	-5.882860e-09	-1.902998e+00	-3.836767e+02
8.100000e-07	-1.694089e-07	-5.649999e-09	-1.176440e+00	-3.675616e+02
8.200000e-07	-6.476797e-08	-5.402656e-09	-4.497736e-01	-3.513392e+02
8.300000e-07	3.990301e-08	-5.142182e-09	2.771018e-01	-3.350138e+02
8.400000e-07	1.445964e-07	-4.871107e-09	1.004133e+00	-3.184861e+02
8.500000e-07	2.492226e-07	-4.586340e-09	1.730697e+00	-3.015425e+02
8.600000e-07	3.537763e-07	-4.280728e-09	2.456759e+00	-2.838572e+02
8.700000e-07	4.582448e-07	-3.958812e-09	3.182228e+00	-2.650073e+02
8.800000e-07	5.625566e-07	-3.627950e-09	3.906609e+00	-2.445015e+02
8.900000e-07	6.666879e-07	-3.280615e-09	4.629737e+00	-2.218193e+02
9.000000e-07	7.706494e-07	-2.901254e-09	5.351685e+00	-1.964589e+02
9.100000e-07	8.743601e-07	-2.486991e-09	6.071892e+00	-1.679872e+02
9.200000e-07	9.776958e-07	-2.040139e-09	6.789495e+00	-1.360896e+02
9.300000e-07	1.080643e-06	-1.552128e-09	7.504397e+00	-1.006120e+02
9.400000e-07	1.183224e-06	-1.005688e-09	8.216764e+00	-6.159286e+01
9.500000e-07	1.285425e-06	-3.877887e-10	8.926485e+00	-1.927907e+01
9.600000e-07	1.387204e-06	3.013303e-10	9.633275e+00	2.587419e+01
9.700000e-07	1.488501e-06	1.052967e-09	1.033672e+01	7.322205e+01
9.800000e-07	1.589343e-06	1.851740e-09	1.103701e+01	1.219649e+02
9.900000e-07	1.689746e-06	2.671724e-09	1.173424e+01	1.711973e+02
1.000000e-06	1.789665e-06	3.475418e-09	1.242812e+01	2.199663e+02
1.010000e-06	1.888817e-06	4.228683e-09	1.311667e+01	2.673346e+02
1.020000e-06	1.986936e-06	4.913263e-09	1.379805e+01	3.124421e+02
1.030000e-06	2.084179e-06	5.526139e-09	1.447334e+01	3.545612e+02
1.040000e-06	2.180713e-06	6.070361e-09	1.514371e+01	3.931397e+02
1.050000e-06	2.276526e-06	6.548000e-09	1.580907e+01	4.278295e+02
1.060000e-06	2.371565e-06	6.965486e-09	1.646906e+01	4.584971e+02
1.070000e-06	2.465780e-06	7.335222e-09	1.712332e+01	4.852169e+02
1.080000e-06	2.559215e-06	7.666545e-09	1.777217e+01	5.082472e+02
1.090000e-06	2.651903e-06	7.962953e-09	1.841584e+01	5.279939e+02
1.100000e-06	2.743681e-06	8.230339e-09	1.905318e+01	5.449631e+02
1.110000e-06	2.834277e-06	8.475026e-09	1.968231e+01	5.597106e+02
1.120000e-06	2.923669e-06	8.701959e-09	2.030308e+01	5.727911e+02
1.130000e-06	3.012082e-06	8.913286e-09	2.091705e+01	5.847125e+02
1.140000e-06	3.099539e-06	9.108725e-09	2.152439e+01	5.959006e+02
1.150000e-06	3.185918e-06	9.288245e-09	2.212424e+01	6.066744e+02
1.160000e-06	3.271237e-06	9.451631e-09	2.271673e+01	6.172358e+02
1.170000e-06	3.355545e-06	9.602648e-09	2.330220e+01	6.276727e+02
1.180000e-06	3.438711e-06	9.747976e-09	2.387973e+01	6.379734e+02
1.190000e-06	3.520586e-06	9.890183e-09	2.444830e+01	6.480503e+02
1.200000e-06	3.601182e-06	1.002454e-08	2.500799e+01	6.577694e+02
1.210000e-06	3.680470e-06	1.014715e-08	2.555859e+01	6.669810e+02
1.220000e-06	3.758408e-06	1.025996e-08	2.609983e+01	6.755487e+02
1.230000e-06	3.835006e-06	1.036825e-08	2.663176e+01	6.833734e+02
1.240000e-06	3.910084e-06	1.047045e-08	2.715313e+01	6.904087e+02
1.250000e-06	3.983551e-06	1.056401e-08	2.766331e+01	6.966683e+02
1.260000e-06	4.055555e-06	1.065033e-08	2.816333e+01	7.022236e+02
1.270000e-06	4.126131e-06	1.073458e-08	2.865344e+01	7.071940e+02
1.280000e-06	4.195319e-06	1.082100e-08	2.913391e+01	7.117300e+02
1.290000e-06	4.263091e-06	1.090531e-08	2.960454e+01	7.159944e+02
1.300000e-06	4.329225e-06	1.098276e-08	3.006380e+01	7.201409e+02
1.310000e-06	4.393701e-06	1.105394e-08	3.051155e+01	7.242964e+02
1.320000e-06	4.456689e-06	1.112184e-08	3.094896e+01	7.285469e+02
1.330000e-06	4.518305e-06	1.118761e-08	3.137685e+01	7.329296e+02
1.340000e-06	4.578477e-06	1.124957e-08	3.179470e+01	7.374319e+02
1.350000e-06	4.636942e-06	1.130824e-08	3.220071e+01	7.419965e+02
1.360000e-06	4.693613e-06	1.136584e-08	3.259425e+01	7.465333e+02
1.370000e-06	4.748624e-06	1.142196e-08	3.297627e+01	7.509333e+02
1.380000e-06	4.801939e-06	1.147539e-08	3.334651e+01	7.550858e+02
1.390000e-06	4.853228e-06	1.152531e-08	3.370268e+01	7.588944e+02
1.400000e-06	4.902461e-06	1.157323e-08	3.404458e+01	7.622900e+02
1.410000e-06	4.949929e-06	1.161881e-08	3.437421e+01	7.652398e+02
1.420000e-06	4.995770e-06	1.166003e-08	3.469255e+01	7.677513e+02
1.430000e-06	5.039925e-06	1.169728e-08	3.499918e+01	7.698697e+02
1.440000e-06	5.082188e-06	1.173214e-08	3.529266e+01	7.716711e+02
1.450000e-06	5.122581e-06	1.176495e-08	3.557317e+01	7.732512e+02
1.460000e-06	5.161246e-06	1.179694e-08	3.584168e+01	7.747123e+02
1.470000e-06	5.198252e-06	1.183034e-08	3.609866e+01	7.761489e+02
1.480000e-06	5.233432e-06	1.186266e-08	3.634296e+01	7.776360e+02
1.490000e-06	5.266648e-06	1.189063e-08	3.657362e+01	7.792193e+02
1.500000e-06	5.298069e-06	1.191303e-08	3.679182e+01	7.809109e+02
1.510000e-06	5.327777e-06	1.193108e-08	3.699813e+01	7.826889e+02
1.520000e-06	5.355650e-06	1.194808e-08	3.719169e+01	7.845020e+02
1.530000e-06	5.381441e-06	1.196521e-08	3.737079e+01	7.862780e+02
1.540000e-06	5.405190e-06	1.198338e-08	3.753572e+01	7.879350e+02
1.550000e-06	5.427135e-06	1.200184e-08	3.768811e+01	7.893936e+02
1.560000e-06	5.447279e-06	1.201854e-08	3.782800e+01	7.905886e+02
1.570000e-06	5.465437e-06	1.203339e-08	3.795410e+01	7.914777e+02
1.580000e-06	5.481590e-06	1.204406e-08	3.806626e+01	7.920479e+02
1.590000e-06	5.495811e-06	1.204929e-08	3.816503e+01	7.923168e+02
1.600000e-06	5.507903e-06	1.205314e-08	3.824900e+01	7.923301e+02
1.610000e-06	5.517798e-06	1.205939e-08	3.831771e+01	7.921546e+02
1.620000e-06	5.525726e-06	1.206722e-08	3.837276e+01	7.918693e+02
1.630000e-06	5.531819e-06	1.207242e-08	3.841507e+01	7.915538e+02
1.640000e-06	5.535989e-06	1.207445e-08	3.844404e+01	7.912779e+02
1.650000e-06	5.538120e-06	1.207659e-08	3.845883e+01	7.910921e+02
1.660000e-06	5.538288e-06	1.207724e-08	3.846000e+01	7.910205e+02
1.670000e-06	5.536693e-06	1.207258e-08	3.844892e+01	7.910588e+02
1.680000e-06	5.533402e-06	1.206462e-08	3.842607e+01	7.911750e+02
1.690000e-06	5.528184e-06	1.205774e-08	3.838984e+01	7.913145e+02
1.700000e-06	5.521081e-06	1.205409e-08	3.834051e+01	7.914081e+02
1.710000e-06	5.512340e-06	1.205115e-08	3.827981e+01	7.913826e+02
1.720000e-06	5.501896e-06	1.204469e-08	3.820728e+01	7.911707e+02
1.730000e-06	5.489470e-06	1.203521e-08	3.812099e+01	7.907207e+02
1.740000e-06	5.475031e-06	1.200859e-08	3.802072e+01	7.900040e+02
1.750000e-06	5.458531e-06	1.198099e-08	3.790614e+01	7.890188e+02
1.760000e-06	5.439393e-06	1.195439e-08	3.777323e+01	7.877903e+02
1.770000e-06	5.417520e-06	1.194428e-08	3.762134e+01	7.863668e+02
1.780000e-06	5.393668e-06	1.197840e-08	3.745570e+01	7.848128e+02
1.790000e-06	5.368797e-06	1.197098e-08	3.728299e+01	7.831996e+02
1.800000e-06	5.343010e-06	1.193725e-08	3.710391e+01	7.815953e+02
1.810000e-06	5.315276e-06	1.191146e-08	3.691132e+01	7.800542e+02
1.820000e-06	5.285330e-06	1.186748e-08	3.670336e+01	7.786099e+02
1.830000e-06	5.253753e-06	1.187129e-08	3.648408e+01	7.772692e+02
1.840000e-06	5.220420e-06	1.187548e-08	3.625260e+01	7.760117e+02
1.850000e-06	5.185310e-06	1.182506e-08	3.600878e+01	7.747917e+02
1.860000e-06	5.148391e-06	1.181406e-08	3.575241e+01	7.735448e+02
1.870000e-06	5.109410e-06	1.181701e-08	3.548170e+01	7.721962e+02
1.880000e-06	5.068698e-06	1.177308e-08	3.519899e+01	7.706715e+02
1.890000e-06	5.026360e-06	1.170377e-08	3.490497e+01	7.689067e+02
1.900000e-06	4.982110e-06	1.163485e-08	3.459768e+01	7.668572e+02
1.910000e-06	4.936044e-06	1.163189e-08	3.427779e+01	7.645041e+02
1.920000e-06	4.888132e-06	1.164170e-08	3.394507e+01	7.618569e+02
1.930000e-06	4.838447e-06	1.160163e-08	3.360004e+01	7.589525e+02
1.940000e-06	4.786935e-06	1.154871e-08	3.324231e+01	7.558497e+02
1.950000e-06	4.733303e-06	1.149302e-08	3.286987e+01	7.526213e+02
1.960000e-06	4.677871e-06	1.145696e-08	3.248493e+01	7.493437e+02
1.970000e-06	4.620806e-06	1.140474e-08	3.208865e+01	7.460862e+02
1.980000e-06	4.562223e-06	1.133679e-08	3.168183e+01	7.429007e+02
1.990000e-06	4.502064e-06	1.130748e-08	3.126407e+01	7.398139e+02
2.000000e-06	4.440118e-06	1.128721e-08	3.083388e+01	7.368235e+02
2.010000e-06	4.376571e-06	1.124841e-08	3.039259e+01	7.338973e+02
2.020000e-06	4.311483e-06	1.117488e-08	2.994059e+01	7.309773e+02
2.030000e-06	4.244905e-06	1.110358e-08	2.947825e+01	7.279871e+02
2.040000e-06	4.176775e-06	1.105481e-08	2.900513e+01	7.248422e+02
2.050000e-06	4.106896e-06	1.099637e-08	2.851986e+01	7.214616e+02
2.060000e-06	4.035515e-06	1.093129e-08	2.802417e+01	7.177782e+02
2.070000e-06	3.962812e-06	1.086487e-08	2.751929e+01	7.137492e+02
2.080000e-06	3.888702e-06	1.081686e-08	2.700464e+01	7.093612e+02
2.090000e-06	3.812993e-06	1.076738e-08	2.647889e+01	7.046329e+02
2.100000e-06	3.735602e-06	1.069487e-08	2.594146e+01	6.996122e+02
2.110000e-06	3.656748e-06	1.060942e-08	2.539386e+01	6.943698e+02
2.120000e-06	3.576657e-06	1.052140e-08	2.483768e+01	6.889892e+02
2.130000e-06	3.495430e-06	1.045025e-08	2.427361e+01	6.835543e+02
2.140000e-06	3.413051e-06	1.038410e-08	2.370154e+01	6.781373e+02
2.150000e-06	3.329508e-06	1.030652e-08	2.312138e+01	6.727876e+02
2.160000e-06	3.244626e-06	1.021950e-08	2.253193e+01	6.675233e+02
2.170000e-06	3.158394e-06	1.013563e-08	2.193310e+01	6.623277e+02
2.180000e-06	3.071079e-06	1.004936e-08	2.132675e+01	6.571495e+02
2.190000e-06	2.982778e-06	9.951382e-09	2.071355e+01	6.519091e+02
2.200000e-06	2.893488e-06	9.851412e-09	2.009349e+01	6.465077e+02
2.210000e-06	2.803241e-06	9.762864e-09	1.946678e+01	6.408409e+02
2.220000e-06	2.712108e-06	9.682339e-09	1.883392e+01	6.348120e+02
2.230000e-06	2.620085e-06	9.584405e-09	1.819487e+01	6.283455e+02
2.240000e-06	2.527040e-06	9.467051e-09	1.754873e+01	6.213977e+02
2.250000e-06	2.432937e-06	9.348349e-09	1.689525e+01	6.139632e+02
2.260000e-06	2.337919e-06	9.239160e-09	1.623541e+01	6.060761e+02
2.270000e-06	2.242126e-06	9.133698e-09	1.557018e+01	5.978052e+02
2.280000e-06	2.145569e-06	9.020550e-09	1.489966e+01	5.892448e+02
2.290000e-06	2.048277e-06	8.899716e-09	1.422402e+01	5.805002e+02
2.300000e-06	1.950305e-06	8.774920e-09	1.354367e+01	5.716721e+02
2.310000e-06	1.851728e-06	8.644277e-09	1.285911e+01	5.628397e+02
2.320000e-06	1.752620e-06	8.504802e-09	1.217086e+01	5.540470e+02
2.330000e-06	1.652982e-06	8.358534e-09	1.147894e+01	5.452920e+02
2.340000e-06	1.552807e-06	8.216181e-09	1.078329e+01	5.365232e+02
2.350000e-06	1.452021e-06	8.076154e-09	1.008339e+01	5.276415e+02
2.360000e-06	1.350536e-06	7.925776e-09	9.378644e+00	5.185101e+02
2.370000e-06	1.248387e-06	7.761727e-09	8.669276e+00	5.089689e+02
2.380000e-06	1.145710e-06	7.591848e-09	7.956250e+00	4.988544e+02
2.390000e-06	1.042652e-06	7.424486e-09	7.240579e+00	4.880199e+02
2.400000e-06	9.392769e-07	7.253181e-09	6.522699e+00	4.763557e+02
2.410000e-06	8.356252e-07	7.072210e-09	5.802902e+00	4.638043e+02
2.420000e-06	7.317065e-07	6.878714e-09	5.081251e+00	4.503696e+02
2.430000e-06	6.275035e-07	6.674574e-09	4.357626e+00	4.361180e+02
2.440000e-06	5.230412e-07	6.463126e-09	3.632199e+00	4.211694e+02
2.450000e-06	4.183741e-07	6.242535e-09	2.905350e+00	4.056803e+02
2.460000e-06	3.135671e-07	6.013926e-09	2.177530e+00	3.898190e+02
2.470000e-06	2.086823e-07	5.778168e-09	1.449170e+00	3.737360e+02
2.480000e-06	1.037819e-07	5.536107e-09	7.207016e-01	3.575329e+02
2.490000e-06	-1.144253e-09	5.284150e-09	-7.946131e-03	3.412341e+02
2.500000e-06	-1.060915e-07	5.016982e-09	-7.367403e-01	3.247638e+02
2.510000e-06	-2.109934e-07	4.731890e-09	-1.465220e+00	3.079330e+02
2.520000e-06	-3.158041e-07	4.432126e-09	-2.193065e+00	2.904393e+02
2.530000e-06	-4.205127e-07	4.119016e-09	-2.920202e+00	2.718785e+02
2.540000e-06	-5.250475e-07	3.786335e-09	-3.646132e+00	2.517709e+02
2.550000e-06	-6.293412e-07	3.432692e-09	-4.370387e+00	2.295987e+02
2.560000e-06	-7.334132e-07	3.058956e-09	-5.093103e+00	2.048518e+02
2.570000e-06	-8.371816e-07	2.660779e-09	-5.813711e+00	1.770780e+02
2.580000e-06	-9.406331e-07	2.227536e-09	-6.532118e+00	1.459335e+02
2.590000e-06	-1.043816e-06	1.748865e-09	-7.248661e+00	1.112267e+02
2.600000e-06	-1.146664e-06	1.218965e-09	-7.962877e+00	7.295281e+01
2.610000e-06	-1.249025e-06	6.299510e-10	-8.673711e+00	3.131358e+01
2.620000e-06	-1.350774e-06	-2.737489e-11	-9.380295e+00	-1.327951e+01
2.630000e-06	-1.451895e-06	-7.565426e-10	-1.008252e+01	-6.021984e+01
2.640000e-06	-1.552368e-06	-1.545712e-09	-1.078024e+01	-1.087373e+02
2.650000e-06	-1.652192e-06	-2.366343e-09	-1.147346e+01	-1.579443e+02
2.660000e-06	-1.751456e-06	-3.184006e-09	-1.216278e+01	-2.068931e+02
2.670000e-06	-1.850228e-06	-3.964177e-09	-1.284869e+01	-2.546375e+02
2.680000e-06	-1.948373e-06	-4.681448e-09	-1.353025e+01	-3.002961e+02
2.690000e-06	-2.045803e-06	-5.322477e-09	-1.420684e+01	-3.431085e+02
2.700000e-06	-2.142561e-06	-5.886695e-09	-1.487877e+01	-3.824823e+02
2.710000e-06	-2.238661e-06	-6.383722e-09	-1.554612e+01	-4.180240e+02
2.720000e-06	-2.334095e-06	-6.823495e-09	-1.620885e+01	-4.495541e+02
2.730000e-06	-2.428850e-06	-7.211160e-09	-1.686687e+01	-4.771039e+02
2.740000e-06	-2.522765e-06	-7.554642e-09	-1.751905e+01	-5.008951e+02
2.750000e-06	-2.615597e-06	-7.865228e-09	-1.816371e+01	-5.213055e+02
2.760000e-06	-2.707295e-06	-8.149483e-09	-1.880050e+01	-5.388240e+02
2.770000e-06	-2.797990e-06	-8.407705e-09	-1.943031e+01	-5.540002e+02
2.780000e-06	-2.887688e-06	-8.639227e-09	-2.005322e+01	-5.673929e+02
2.790000e-06	-2.976286e-06	-8.852500e-09	-2.066847e+01	-5.795237e+02
2.800000e-06	-3.063944e-06	-9.053936e-09	-2.127720e+01	-5.908383e+02
2.810000e-06	-3.150681e-06	-9.239690e-09	-2.187954e+01	-6.016798e+02
2.820000e-06	-3.236184e-06	-9.408484e-09	-2.247331e+01	-6.122756e+02
2.830000e-06	-3.320323e-06	-9.566291e-09	-2.305760e+01	-6.227371e+02
2.840000e-06	-3.403278e-06	-9.718441e-09	-2.363367e+01	-6.330723e+02
2.850000e-06	-3.485142e-06	-9.861917e-09	-2.420217e+01	-6.432074e+02
2.860000e-06	-3.565869e-06	-9.993296e-09	-2.476276e+01	-6.530157e+02
2.870000e-06	-3.645436e-06	-1.011508e-08	-2.531531e+01	-6.623484e+02
2.880000e-06	-3.723618e-06	-1.023112e-08	-2.585823e+01	-6.710640e+02
2.890000e-06	-3.800192e-06	-1.034135e-08	-2.639000e+01	-6.790539e+02
2.900000e-06	-3.875249e-06	-1.044281e-08	-2.691122e+01	-6.862593e+02
2.910000e-06	-3.948943e-06	-1.053609e-08	-2.742297e+01	-6.926810e+02
2.920000e-06	-4.021277e-06	-1.062745e-08	-2.792529e+01	-6.983787e+02
2.930000e-06	-4.092208e-06	-1.072149e-08	-2.841786e+01	-7.034625e+02
2.940000e-06	-4.161569e-06	-1.081272e-08	-2.889953e+01	-7.080780e+02
