# Temperatura_=_28.68
# Concentracion g/m^3_=_15500.0
# C_Vs_to_Am_M_A/Vsm_=_65563218390.804596
# pendiente_HvsI_1/m_=_3716.3
# ordenada_HvsI_A/m_=_1297.0
# frecuencia_Hz_=_300807.6606815264

Tiempo_(s)	Campo_(V.s)	Magnetizacion_(V.s)	Campo_(kA/m)	Magnetizacion_(A/m)
0.000000e+00	-5.519552e-06	-1.204804e-08	-3.831072e+01	-7.874026e+02
1.000000e-08	-5.517931e-06	-1.205782e-08	-3.829947e+01	-7.874472e+02
2.000000e-08	-5.514298e-06	-1.205693e-08	-3.827425e+01	-7.875660e+02
3.000000e-08	-5.508937e-06	-1.204568e-08	-3.823704e+01	-7.877037e+02
4.000000e-08	-5.501975e-06	-1.203080e-08	-3.818872e+01	-7.877910e+02
5.000000e-08	-5.493364e-06	-1.201408e-08	-3.812895e+01	-7.877553e+02
6.000000e-08	-5.482826e-06	-1.199863e-08	-3.805581e+01	-7.875306e+02
7.000000e-08	-5.470167e-06	-1.198310e-08	-3.796794e+01	-7.870673e+02
8.000000e-08	-5.455485e-06	-1.197540e-08	-3.786604e+01	-7.863389e+02
9.000000e-08	-5.438487e-06	-1.200730e-08	-3.774805e+01	-7.853460e+02
1.000000e-07	-5.419075e-06	-1.202223e-08	-3.761332e+01	-7.841156e+02
1.100000e-07	-5.397647e-06	-1.199285e-08	-3.746459e+01	-7.826975e+02
1.200000e-07	-5.374452e-06	-1.195804e-08	-3.730360e+01	-7.811568e+02
1.300000e-07	-5.349761e-06	-1.187469e-08	-3.713221e+01	-7.795645e+02
1.400000e-07	-5.323553e-06	-1.184570e-08	-3.695031e+01	-7.779875e+02
1.500000e-07	-5.295479e-06	-1.190236e-08	-3.675545e+01	-7.764782e+02
1.600000e-07	-5.265671e-06	-1.183359e-08	-3.654856e+01	-7.750673e+02
1.700000e-07	-5.234284e-06	-1.182296e-08	-3.633070e+01	-7.737588e+02
1.800000e-07	-5.200925e-06	-1.186085e-08	-3.609916e+01	-7.725292e+02
1.900000e-07	-5.165570e-06	-1.176610e-08	-3.585377e+01	-7.713300e+02
2.000000e-07	-5.128639e-06	-1.176239e-08	-3.559743e+01	-7.700946e+02
2.100000e-07	-5.089962e-06	-1.173903e-08	-3.532897e+01	-7.687469e+02
2.200000e-07	-5.049441e-06	-1.164485e-08	-3.504772e+01	-7.672120e+02
2.300000e-07	-5.007047e-06	-1.166792e-08	-3.475347e+01	-7.654266e+02
2.400000e-07	-4.962698e-06	-1.166539e-08	-3.444565e+01	-7.633474e+02
2.500000e-07	-4.916627e-06	-1.161229e-08	-3.412587e+01	-7.609580e+02
2.600000e-07	-4.868744e-06	-1.157373e-08	-3.379352e+01	-7.582706e+02
2.700000e-07	-4.818809e-06	-1.149105e-08	-3.344692e+01	-7.553249e+02
2.800000e-07	-4.766793e-06	-1.145590e-08	-3.308588e+01	-7.521827e+02
2.900000e-07	-4.712806e-06	-1.144405e-08	-3.271117e+01	-7.489193e+02
3.000000e-07	-4.657129e-06	-1.139896e-08	-3.232472e+01	-7.456131e+02
3.100000e-07	-4.599806e-06	-1.134747e-08	-3.192684e+01	-7.423342e+02
3.200000e-07	-4.540709e-06	-1.132285e-08	-3.151666e+01	-7.391350e+02
3.300000e-07	-4.479949e-06	-1.129149e-08	-3.109493e+01	-7.360417e+02
3.400000e-07	-4.417690e-06	-1.120200e-08	-3.066279e+01	-7.330507e+02
3.500000e-07	-4.353951e-06	-1.113754e-08	-3.022039e+01	-7.301280e+02
3.600000e-07	-4.288609e-06	-1.108665e-08	-2.976686e+01	-7.272137e+02
3.700000e-07	-4.221572e-06	-1.103977e-08	-2.930156e+01	-7.242293e+02
3.800000e-07	-4.152887e-06	-1.101333e-08	-2.882482e+01	-7.210885e+02
3.900000e-07	-4.082737e-06	-1.094813e-08	-2.833791e+01	-7.177083e+02
4.000000e-07	-4.011363e-06	-1.087714e-08	-2.784251e+01	-7.140209e+02
4.100000e-07	-3.938697e-06	-1.081935e-08	-2.733814e+01	-7.099826e+02
4.200000e-07	-3.864501e-06	-1.075424e-08	-2.682316e+01	-7.055800e+02
4.300000e-07	-3.788651e-06	-1.067671e-08	-2.629669e+01	-7.008320e+02
4.400000e-07	-3.711176e-06	-1.059710e-08	-2.575894e+01	-6.957873e+02
4.500000e-07	-3.632217e-06	-1.053525e-08	-2.521090e+01	-6.905176e+02
4.600000e-07	-3.551830e-06	-1.047505e-08	-2.465294e+01	-6.851071e+02
4.700000e-07	-3.470012e-06	-1.040697e-08	-2.408504e+01	-6.796411e+02
4.800000e-07	-3.386930e-06	-1.031842e-08	-2.350838e+01	-6.741925e+02
4.900000e-07	-3.302827e-06	-1.022150e-08	-2.292463e+01	-6.688116e+02
5.000000e-07	-3.217772e-06	-1.014224e-08	-2.233427e+01	-6.635172e+02
5.100000e-07	-3.131691e-06	-1.006396e-08	-2.173679e+01	-6.582929e+02
5.200000e-07	-3.044605e-06	-9.977807e-09	-2.113233e+01	-6.530882e+02
5.300000e-07	-2.956584e-06	-9.883713e-09	-2.052139e+01	-6.478235e+02
5.400000e-07	-2.867523e-06	-9.789527e-09	-1.990322e+01	-6.424007e+02
5.500000e-07	-2.777375e-06	-9.699261e-09	-1.927751e+01	-6.367154e+02
5.600000e-07	-2.686133e-06	-9.596197e-09	-1.864421e+01	-6.306712e+02
5.700000e-07	-2.593813e-06	-9.484191e-09	-1.800343e+01	-6.241927e+02
5.800000e-07	-2.500585e-06	-9.375814e-09	-1.735634e+01	-6.172362e+02
5.900000e-07	-2.406567e-06	-9.274637e-09	-1.670377e+01	-6.097960e+02
6.000000e-07	-2.311783e-06	-9.169458e-09	-1.604588e+01	-6.019055e+02
6.100000e-07	-2.216250e-06	-9.053225e-09	-1.538279e+01	-5.936327e+02
6.200000e-07	-2.119920e-06	-8.927825e-09	-1.471418e+01	-5.850705e+02
6.300000e-07	-2.022735e-06	-8.799983e-09	-1.403962e+01	-5.763227e+02
6.400000e-07	-1.924754e-06	-8.674125e-09	-1.335955e+01	-5.674883e+02
6.500000e-07	-1.826011e-06	-8.541451e-09	-1.267418e+01	-5.586446e+02
6.600000e-07	-1.726551e-06	-8.403575e-09	-1.198384e+01	-5.498340e+02
6.700000e-07	-1.626437e-06	-8.266507e-09	-1.128895e+01	-5.410533e+02
6.800000e-07	-1.525699e-06	-8.127393e-09	-1.058974e+01	-5.322503e+02
6.900000e-07	-1.424468e-06	-7.975369e-09	-9.887107e+00	-5.233262e+02
7.000000e-07	-1.322795e-06	-7.811639e-09	-9.181400e+00	-5.141447e+02
7.100000e-07	-1.220653e-06	-7.645185e-09	-8.472447e+00	-5.045477e+02
7.200000e-07	-1.118050e-06	-7.479039e-09	-7.760285e+00	-4.943739e+02
7.300000e-07	-1.015083e-06	-7.309687e-09	-7.045602e+00	-4.834797e+02
7.400000e-07	-9.118264e-07	-7.131058e-09	-6.328906e+00	-4.717585e+02
7.500000e-07	-8.082743e-07	-6.944601e-09	-5.610160e+00	-4.591557e+02
7.600000e-07	-7.044780e-07	-6.750057e-09	-4.889720e+00	-4.456781e+02
7.700000e-07	-6.004261e-07	-6.546153e-09	-4.167505e+00	-4.313937e+02
7.800000e-07	-4.961850e-07	-6.331867e-09	-3.443976e+00	-4.164232e+02
7.900000e-07	-3.918230e-07	-6.110448e-09	-2.719609e+00	-4.009227e+02
8.000000e-07	-2.873221e-07	-5.886018e-09	-1.994277e+00	-3.850587e+02
8.100000e-07	-1.827333e-07	-5.655345e-09	-1.268336e+00	-3.689790e+02
8.200000e-07	-7.800705e-08	-5.412860e-09	-5.414400e-01	-3.527817e+02
8.300000e-07	2.684236e-08	-5.155376e-09	1.863104e-01	-3.364869e+02
8.400000e-07	1.316491e-07	-4.884382e-09	9.137651e-01	-3.200149e+02
8.500000e-07	2.363343e-07	-4.601791e-09	1.640376e+00	-3.031732e+02
8.600000e-07	3.408986e-07	-4.304754e-09	2.366147e+00	-2.856571e+02
8.700000e-07	4.452832e-07	-3.988922e-09	3.090672e+00	-2.670617e+02
8.800000e-07	5.494832e-07	-3.654351e-09	3.813914e+00	-2.469083e+02
8.900000e-07	6.535563e-07	-3.301362e-09	4.536277e+00	-2.246821e+02
9.000000e-07	7.574813e-07	-2.928181e-09	5.257611e+00	-1.998778e+02
9.100000e-07	8.611943e-07	-2.527624e-09	5.977473e+00	-1.720499e+02
9.200000e-07	9.646106e-07	-2.090672e-09	6.695277e+00	-1.408620e+02
9.300000e-07	1.067665e-06	-1.609147e-09	7.410570e+00	-1.061304e+02
9.400000e-07	1.170359e-06	-1.073094e-09	8.123358e+00	-6.785791e+01
9.500000e-07	1.272668e-06	-4.727517e-10	8.833474e+00	-2.625273e+01
9.600000e-07	1.374541e-06	2.000010e-10	9.540565e+00	1.826902e+01
9.700000e-07	1.475943e-06	9.412127e-10	1.024439e+01	6.509847e+01
9.800000e-07	1.576833e-06	1.732986e-09	1.094465e+01	1.134660e+02
9.900000e-07	1.677218e-06	2.547244e-09	1.164142e+01	1.624874e+02
1.000000e-06	1.777117e-06	3.350687e-09	1.233481e+01	2.112210e+02
1.010000e-06	1.876388e-06	4.110664e-09	1.302384e+01	2.587291e+02
1.020000e-06	1.974812e-06	4.804894e-09	1.370699e+01	3.041403e+02
1.030000e-06	2.072332e-06	5.428208e-09	1.438387e+01	3.467053e+02
1.040000e-06	2.169010e-06	5.983147e-09	1.505490e+01	3.858423e+02
1.050000e-06	2.264933e-06	6.472920e-09	1.572070e+01	4.211681e+02
1.060000e-06	2.360151e-06	6.901494e-09	1.638160e+01	4.525113e+02
1.070000e-06	2.454580e-06	7.282295e-09	1.703702e+01	4.799090e+02
1.080000e-06	2.548155e-06	7.622948e-09	1.768652e+01	5.035860e+02
1.090000e-06	2.640946e-06	7.925496e-09	1.833057e+01	5.239200e+02
1.100000e-06	2.732927e-06	8.194480e-09	1.896900e+01	5.413972e+02
1.110000e-06	2.823806e-06	8.439704e-09	1.959979e+01	5.565620e+02
1.120000e-06	2.913420e-06	8.671250e-09	2.022179e+01	5.699661e+02
1.130000e-06	3.001951e-06	8.889340e-09	2.083628e+01	5.821228e+02
1.140000e-06	3.089519e-06	9.090544e-09	2.144408e+01	5.934696e+02
1.150000e-06	3.176073e-06	9.273573e-09	2.204484e+01	6.043418e+02
1.160000e-06	3.261575e-06	9.440784e-09	2.263830e+01	6.149602e+02
1.170000e-06	3.346054e-06	9.594303e-09	2.322467e+01	6.254317e+02
1.180000e-06	3.429446e-06	9.739176e-09	2.380348e+01	6.357617e+02
1.190000e-06	3.511521e-06	9.879779e-09	2.437315e+01	6.458761e+02
1.200000e-06	3.592251e-06	1.001461e-08	2.493350e+01	6.556502e+02
1.210000e-06	3.671702e-06	1.014065e-08	2.548496e+01	6.649385e+02
1.220000e-06	3.749855e-06	1.025825e-08	2.602741e+01	6.736042e+02
1.230000e-06	3.826705e-06	1.036745e-08	2.656082e+01	6.815437e+02
1.240000e-06	3.902068e-06	1.046834e-08	2.708391e+01	6.887031e+02
1.250000e-06	3.975770e-06	1.056146e-08	2.759547e+01	6.950874e+02
1.260000e-06	4.047969e-06	1.064878e-08	2.809659e+01	7.007590e+02
1.270000e-06	4.118819e-06	1.073448e-08	2.858836e+01	7.058295e+02
1.280000e-06	4.188319e-06	1.082160e-08	2.907075e+01	7.104441e+02
1.290000e-06	4.256419e-06	1.090679e-08	2.954343e+01	7.147626e+02
1.300000e-06	4.322850e-06	1.098651e-08	3.000452e+01	7.189392e+02
1.310000e-06	4.387559e-06	1.105960e-08	3.045366e+01	7.231037e+02
1.320000e-06	4.450779e-06	1.112720e-08	3.089246e+01	7.273474e+02
1.330000e-06	4.512641e-06	1.119159e-08	3.132184e+01	7.317141e+02
1.340000e-06	4.573174e-06	1.125202e-08	3.174199e+01	7.361980e+02
1.350000e-06	4.632004e-06	1.131009e-08	3.215033e+01	7.407482e+02
1.360000e-06	4.688962e-06	1.136902e-08	3.254567e+01	7.452793e+02
1.370000e-06	4.744252e-06	1.142875e-08	3.292943e+01	7.496852e+02
1.380000e-06	4.797848e-06	1.148460e-08	3.330143e+01	7.538560e+02
1.390000e-06	4.849468e-06	1.153279e-08	3.365973e+01	7.576933e+02
1.400000e-06	4.898943e-06	1.157817e-08	3.400313e+01	7.611249e+02
1.410000e-06	4.946563e-06	1.162140e-08	3.433366e+01	7.641134e+02
1.420000e-06	4.992595e-06	1.165934e-08	3.465316e+01	7.666612e+02
1.430000e-06	5.037003e-06	1.169395e-08	3.496139e+01	7.688088e+02
1.440000e-06	5.079517e-06	1.173036e-08	3.525648e+01	7.706287e+02
1.450000e-06	5.120145e-06	1.176862e-08	3.553847e+01	7.722148e+02
1.460000e-06	5.159056e-06	1.180256e-08	3.580855e+01	7.736691e+02
1.470000e-06	5.196310e-06	1.183381e-08	3.606713e+01	7.750879e+02
1.480000e-06	5.231791e-06	1.186458e-08	3.631340e+01	7.765495e+02
1.490000e-06	5.265264e-06	1.189279e-08	3.654573e+01	7.781043e+02
1.500000e-06	5.296894e-06	1.191575e-08	3.676527e+01	7.797692e+02
1.510000e-06	5.326837e-06	1.193437e-08	3.697310e+01	7.815272e+02
1.520000e-06	5.354971e-06	1.195278e-08	3.716838e+01	7.833307e+02
1.530000e-06	5.381008e-06	1.197103e-08	3.734910e+01	7.851101e+02
1.540000e-06	5.404955e-06	1.198803e-08	3.751531e+01	7.867844e+02
1.550000e-06	5.427091e-06	1.200327e-08	3.766895e+01	7.882731e+02
1.560000e-06	5.447539e-06	1.201685e-08	3.781089e+01	7.895081e+02
1.570000e-06	5.466090e-06	1.202974e-08	3.793964e+01	7.904433e+02
1.580000e-06	5.482569e-06	1.204081e-08	3.805403e+01	7.910611e+02
1.590000e-06	5.497040e-06	1.204911e-08	3.815447e+01	7.913744e+02
1.600000e-06	5.509416e-06	1.205670e-08	3.824037e+01	7.914246e+02
1.610000e-06	5.519566e-06	1.206364e-08	3.831082e+01	7.912756e+02
1.620000e-06	5.527618e-06	1.206908e-08	3.836671e+01	7.910049e+02
1.630000e-06	5.533829e-06	1.207200e-08	3.840981e+01	7.906922e+02
1.640000e-06	5.538250e-06	1.207184e-08	3.844050e+01	7.904093e+02
1.650000e-06	5.540651e-06	1.207335e-08	3.845717e+01	7.902096e+02
1.660000e-06	5.541059e-06	1.207731e-08	3.846000e+01	7.901215e+02
1.670000e-06	5.539717e-06	1.207485e-08	3.845068e+01	7.901448e+02
1.680000e-06	5.536683e-06	1.206878e-08	3.842962e+01	7.902517e+02
1.690000e-06	5.531725e-06	1.206220e-08	3.839521e+01	7.903907e+02
1.700000e-06	5.524798e-06	1.205595e-08	3.834713e+01	7.904949e+02
1.710000e-06	5.516198e-06	1.205007e-08	3.828744e+01	7.904914e+02
1.720000e-06	5.505924e-06	1.204319e-08	3.821613e+01	7.903120e+02
1.730000e-06	5.493719e-06	1.204293e-08	3.813141e+01	7.899028e+02
1.740000e-06	5.479478e-06	1.202648e-08	3.803257e+01	7.892321e+02
1.750000e-06	5.463203e-06	1.196969e-08	3.791961e+01	7.882943e+02
1.760000e-06	5.444461e-06	1.195178e-08	3.778952e+01	7.871112e+02
1.770000e-06	5.422948e-06	1.194965e-08	3.764020e+01	7.857281e+02
1.780000e-06	5.399255e-06	1.197852e-08	3.747575e+01	7.842076e+02
1.790000e-06	5.374439e-06	1.201778e-08	3.730351e+01	7.826204e+02
1.800000e-06	5.348802e-06	1.190803e-08	3.712556e+01	7.810350e+02
1.810000e-06	5.321335e-06	1.189673e-08	3.693491e+01	7.795076e+02
1.820000e-06	5.291528e-06	1.192393e-08	3.672803e+01	7.780742e+02
1.830000e-06	5.260105e-06	1.181007e-08	3.650992e+01	7.767448e+02
1.840000e-06	5.227001e-06	1.184323e-08	3.628015e+01	7.755015e+02
1.850000e-06	5.192108e-06	1.183026e-08	3.603796e+01	7.743008e+02
1.860000e-06	5.155501e-06	1.172611e-08	3.578387e+01	7.730793e+02
1.870000e-06	5.116762e-06	1.179777e-08	3.551499e+01	7.717620e+02
1.880000e-06	5.076233e-06	1.174355e-08	3.523368e+01	7.702731e+02
1.890000e-06	5.034119e-06	1.165068e-08	3.494137e+01	7.685457e+02
1.900000e-06	4.990025e-06	1.164858e-08	3.463532e+01	7.665317e+02
1.910000e-06	4.944126e-06	1.156133e-08	3.431674e+01	7.642086e+02
1.920000e-06	4.896467e-06	1.160317e-08	3.398595e+01	7.615825e+02
1.930000e-06	4.846994e-06	1.158847e-08	3.364255e+01	7.586875e+02
1.940000e-06	4.795762e-06	1.147508e-08	3.328696e+01	7.555813e+02
1.950000e-06	4.742447e-06	1.146418e-08	3.291690e+01	7.523371e+02
1.960000e-06	4.687278e-06	1.140869e-08	3.253398e+01	7.490336e+02
1.970000e-06	4.630450e-06	1.136802e-08	3.213954e+01	7.457437e+02
1.980000e-06	4.572003e-06	1.129521e-08	3.173387e+01	7.425241e+02
1.990000e-06	4.511972e-06	1.125459e-08	3.131720e+01	7.394073e+02
2.000000e-06	4.450163e-06	1.126501e-08	3.088819e+01	7.363961e+02
2.010000e-06	4.386753e-06	1.118420e-08	3.044807e+01	7.334629e+02
2.020000e-06	4.321812e-06	1.115290e-08	2.999731e+01	7.305528e+02
2.030000e-06	4.255419e-06	1.106791e-08	2.953648e+01	7.275906e+02
2.040000e-06	4.187527e-06	1.099633e-08	2.906525e+01	7.244904e+02
2.050000e-06	4.117917e-06	1.096735e-08	2.858210e+01	7.211678e+02
2.060000e-06	4.046760e-06	1.087424e-08	2.808820e+01	7.175508e+02
2.070000e-06	3.974176e-06	1.084017e-08	2.758440e+01	7.135898e+02
2.080000e-06	3.900223e-06	1.077918e-08	2.707110e+01	7.092646e+02
2.090000e-06	3.824701e-06	1.073274e-08	2.654691e+01	7.045874e+02
2.100000e-06	3.747470e-06	1.066997e-08	2.601086e+01	6.996008e+02
2.110000e-06	3.668765e-06	1.056470e-08	2.546457e+01	6.943723e+02
2.120000e-06	3.588777e-06	1.049088e-08	2.490939e+01	6.889846e+02
2.130000e-06	3.507644e-06	1.040479e-08	2.434625e+01	6.835236e+02
2.140000e-06	3.425415e-06	1.035413e-08	2.377550e+01	6.780661e+02
2.150000e-06	3.342061e-06	1.027708e-08	2.319695e+01	6.726678e+02
2.160000e-06	3.257396e-06	1.019177e-08	2.260930e+01	6.673549e+02
2.170000e-06	3.171332e-06	1.011185e-08	2.201194e+01	6.621187e+02
2.180000e-06	3.084047e-06	1.001168e-08	2.140610e+01	6.569155e+02
2.190000e-06	2.995760e-06	9.926410e-09	2.079331e+01	6.516714e+02
2.200000e-06	2.906555e-06	9.825919e-09	2.017414e+01	6.462911e+02
2.210000e-06	2.816460e-06	9.736560e-09	1.954880e+01	6.406706e+02
2.220000e-06	2.725438e-06	9.652744e-09	1.891702e+01	6.347104e+02
2.230000e-06	2.633360e-06	9.555554e-09	1.827792e+01	6.283298e+02
2.240000e-06	2.540252e-06	9.444029e-09	1.763167e+01	6.214774e+02
2.250000e-06	2.446186e-06	9.324354e-09	1.697876e+01	6.141393e+02
2.260000e-06	2.351218e-06	9.216323e-09	1.631959e+01	6.063405e+02
2.270000e-06	2.255471e-06	9.112257e-09	1.565503e+01	5.981424e+02
2.280000e-06	2.158995e-06	9.000788e-09	1.498539e+01	5.896335e+02
2.290000e-06	2.061781e-06	8.882251e-09	1.431064e+01	5.809167e+02
2.300000e-06	1.963885e-06	8.758032e-09	1.363115e+01	5.720932e+02
2.310000e-06	1.865439e-06	8.625893e-09	1.294785e+01	5.632465e+02
2.320000e-06	1.766394e-06	8.488629e-09	1.226038e+01	5.544273e+02
2.330000e-06	1.666699e-06	8.344422e-09	1.156841e+01	5.456428e+02
2.340000e-06	1.566437e-06	8.206020e-09	1.087250e+01	5.368514e+02
2.350000e-06	1.465604e-06	8.065654e-09	1.017263e+01	5.279635e+02
2.360000e-06	1.364168e-06	7.915228e-09	9.468569e+00	5.188499e+02
2.370000e-06	1.262119e-06	7.755561e-09	8.760257e+00	5.093556e+02
2.380000e-06	1.159527e-06	7.586644e-09	8.048171e+00	4.993184e+02
2.390000e-06	1.056459e-06	7.418754e-09	7.332790e+00	4.885889e+02
2.400000e-06	9.530189e-07	7.244228e-09	6.614820e+00	4.770513e+02
2.410000e-06	8.492643e-07	7.064084e-09	5.894668e+00	4.646390e+02
2.420000e-06	7.452085e-07	6.876021e-09	5.172426e+00	4.513450e+02
2.430000e-06	6.409039e-07	6.676078e-09	4.448457e+00	4.372248e+02
2.440000e-06	5.364259e-07	6.466965e-09	3.723285e+00	4.223889e+02
2.450000e-06	4.318380e-07	6.248015e-09	2.997349e+00	4.069878e+02
2.460000e-06	3.271197e-07	6.022488e-09	2.270509e+00	3.911881e+02
2.470000e-06	2.222442e-07	5.791042e-09	1.542577e+00	3.751442e+02
2.480000e-06	1.173006e-07	5.552621e-09	8.141732e-01	3.589672e+02
2.490000e-06	1.237879e-08	5.301480e-09	8.592012e-02	3.426963e+02
2.500000e-06	-9.255989e-08	5.033688e-09	-6.424500e-01	3.262744e+02
2.510000e-06	-1.974626e-07	4.751402e-09	-1.370570e+00	3.095338e+02
2.520000e-06	-3.022642e-07	4.456982e-09	-2.097989e+00	2.921931e+02
2.530000e-06	-4.069811e-07	4.147654e-09	-2.824819e+00	2.738671e+02
2.540000e-06	-5.115648e-07	3.818564e-09	-3.550726e+00	2.540902e+02
2.550000e-06	-6.159837e-07	3.471015e-09	-4.275488e+00	2.323517e+02
2.560000e-06	-7.201576e-07	3.107070e-09	-4.998550e+00	2.081401e+02
2.570000e-06	-8.240602e-07	2.717732e-09	-5.719729e+00	1.809928e+02
2.580000e-06	-9.277077e-07	2.291660e-09	-6.439137e+00	1.505460e+02
2.590000e-06	-1.031004e-06	1.822914e-09	-7.156106e+00	1.165802e+02
2.600000e-06	-1.133894e-06	1.304644e-09	-7.870258e+00	7.905600e+01
2.610000e-06	-1.236280e-06	7.272579e-10	-8.580912e+00	3.813681e+01
2.620000e-06	-1.338132e-06	8.142995e-11	-9.287853e+00	-5.805126e+00
2.630000e-06	-1.439446e-06	-6.335618e-10	-9.991068e+00	-5.220010e+01
2.640000e-06	-1.540168e-06	-1.406627e-09	-1.069017e+01	-1.003094e+02
2.650000e-06	-1.640200e-06	-2.215339e-09	-1.138448e+01	-1.492691e+02
2.660000e-06	-1.739543e-06	-3.030335e-09	-1.207401e+01	-1.981445e+02
2.670000e-06	-1.838325e-06	-3.817834e-09	-1.275965e+01	-2.459919e+02
2.680000e-06	-1.936534e-06	-4.547765e-09	-1.344131e+01	-2.919205e+02
2.690000e-06	-2.034081e-06	-5.202256e-09	-1.411837e+01	-3.351507e+02
2.700000e-06	-2.130893e-06	-5.777927e-09	-1.479034e+01	-3.750618e+02
2.710000e-06	-2.227077e-06	-6.284103e-09	-1.545794e+01	-4.112260e+02
2.720000e-06	-2.322657e-06	-6.732754e-09	-1.612135e+01	-4.434265e+02
2.730000e-06	-2.417532e-06	-7.129018e-09	-1.677988e+01	-4.716568e+02
2.740000e-06	-2.511625e-06	-7.479660e-09	-1.743297e+01	-4.961040e+02
2.750000e-06	-2.604669e-06	-7.794431e-09	-1.807877e+01	-5.171165e+02
2.760000e-06	-2.696512e-06	-8.082790e-09	-1.871625e+01	-5.351614e+02
2.770000e-06	-2.787338e-06	-8.345869e-09	-1.934667e+01	-5.507748e+02
2.780000e-06	-2.877212e-06	-8.581675e-09	-1.997047e+01	-5.645111e+02
2.790000e-06	-2.966038e-06	-8.799184e-09	-2.058701e+01	-5.768953e+02
2.800000e-06	-3.053851e-06	-9.004197e-09	-2.119651e+01	-5.883837e+02
2.810000e-06	-3.140703e-06	-9.194397e-09	-2.179934e+01	-5.993352e+02
2.820000e-06	-3.226463e-06	-9.367222e-09	-2.239459e+01	-6.099953e+02
2.830000e-06	-3.310915e-06	-9.525724e-09	-2.298077e+01	-6.204948e+02
2.840000e-06	-3.394103e-06	-9.677069e-09	-2.355816e+01	-6.308591e+02
2.850000e-06	-3.476181e-06	-9.821324e-09	-2.412786e+01	-6.410291e+02
2.860000e-06	-3.557139e-06	-9.954741e-09	-2.468979e+01	-6.508882e+02
2.870000e-06	-3.636916e-06	-1.007657e-08	-2.524351e+01	-6.602929e+02
2.880000e-06	-3.715399e-06	-1.019160e-08	-2.578825e+01	-6.691023e+02
2.890000e-06	-3.792301e-06	-1.030460e-08	-2.632202e+01	-6.772039e+02
2.900000e-06	-3.867628e-06	-1.041144e-08	-2.684486e+01	-6.845322e+02
2.910000e-06	-3.941535e-06	-1.050735e-08	-2.735784e+01	-6.910793e+02
2.920000e-06	-4.014043e-06	-1.059670e-08	-2.786111e+01	-6.968958e+02
2.930000e-06	-4.085273e-06	-1.068743e-08	-2.835552e+01	-7.020839e+02
2.940000e-06	-4.154990e-06	-1.077851e-08	-2.883942e+01	-7.067830e+02
