# Temperatura_=_58.98
# Concentracion g/m^3_=_15500.0
# C_Vs_to_Am_M_A/Vsm_=_65563218390.804596
# pendiente_HvsI_1/m_=_3716.3
# ordenada_HvsI_A/m_=_1297.0
# frecuencia_Hz_=_300795.89529163716

Tiempo_(s)	Campo_(V.s)	Magnetizacion_(V.s)	Campo_(kA/m)	Magnetizacion_(A/m)
0.000000e+00	-5.500945e-06	-1.261784e-08	-3.830838e+01	-8.258771e+02
1.000000e-08	-5.498804e-06	-1.261798e-08	-3.829346e+01	-8.260739e+02
2.000000e-08	-5.494714e-06	-1.261565e-08	-3.826498e+01	-8.262788e+02
3.000000e-08	-5.488914e-06	-1.260946e-08	-3.822459e+01	-8.264099e+02
4.000000e-08	-5.481477e-06	-1.259493e-08	-3.817280e+01	-8.263834e+02
5.000000e-08	-5.472344e-06	-1.257623e-08	-3.810920e+01	-8.261251e+02
6.000000e-08	-5.461269e-06	-1.256142e-08	-3.803207e+01	-8.255813e+02
7.000000e-08	-5.448144e-06	-1.254105e-08	-3.794067e+01	-8.247264e+02
8.000000e-08	-5.432930e-06	-1.253082e-08	-3.783472e+01	-8.235665e+02
9.000000e-08	-5.415256e-06	-1.257932e-08	-3.771164e+01	-8.221386e+02
1.000000e-07	-5.395287e-06	-1.258660e-08	-3.757258e+01	-8.205052e+02
1.100000e-07	-5.373413e-06	-1.254179e-08	-3.742025e+01	-8.187453e+02
1.200000e-07	-5.349741e-06	-1.251158e-08	-3.725540e+01	-8.169431e+02
1.300000e-07	-5.324658e-06	-1.239869e-08	-3.708072e+01	-8.151760e+02
1.400000e-07	-5.298124e-06	-1.238395e-08	-3.689594e+01	-8.135034e+02
1.500000e-07	-5.269708e-06	-1.247003e-08	-3.669805e+01	-8.119576e+02
1.600000e-07	-5.239593e-06	-1.233895e-08	-3.648833e+01	-8.105393e+02
1.700000e-07	-5.207886e-06	-1.234900e-08	-3.626752e+01	-8.092166e+02
1.800000e-07	-5.174207e-06	-1.241780e-08	-3.603298e+01	-8.079290e+02
1.900000e-07	-5.138519e-06	-1.228137e-08	-3.578445e+01	-8.065958e+02
2.000000e-07	-5.101214e-06	-1.230147e-08	-3.552467e+01	-8.051263e+02
2.100000e-07	-5.062228e-06	-1.225891e-08	-3.525317e+01	-8.034329e+02
2.200000e-07	-5.021430e-06	-1.213042e-08	-3.496905e+01	-8.014425e+02
2.300000e-07	-4.978688e-06	-1.216227e-08	-3.467139e+01	-7.991069e+02
2.400000e-07	-4.933976e-06	-1.213780e-08	-3.436003e+01	-7.964100e+02
2.500000e-07	-4.887515e-06	-1.209764e-08	-3.403647e+01	-7.933692e+02
2.600000e-07	-4.839249e-06	-1.205964e-08	-3.370035e+01	-7.900342e+02
2.700000e-07	-4.789048e-06	-1.196407e-08	-3.335075e+01	-7.864796e+02
2.800000e-07	-4.736733e-06	-1.195403e-08	-3.298643e+01	-7.827950e+02
2.900000e-07	-4.682426e-06	-1.190506e-08	-3.260824e+01	-7.790722e+02
3.000000e-07	-4.626445e-06	-1.182757e-08	-3.221839e+01	-7.753928e+02
3.100000e-07	-4.568822e-06	-1.177920e-08	-3.181711e+01	-7.718164e+02
3.200000e-07	-4.509436e-06	-1.175142e-08	-3.140354e+01	-7.683717e+02
3.300000e-07	-4.448464e-06	-1.172249e-08	-3.097893e+01	-7.650524e+02
3.400000e-07	-4.386017e-06	-1.163188e-08	-3.054406e+01	-7.618174e+02
3.500000e-07	-4.322083e-06	-1.156855e-08	-3.009882e+01	-7.585961e+02
3.600000e-07	-4.256642e-06	-1.149936e-08	-2.964309e+01	-7.552974e+02
3.700000e-07	-4.189488e-06	-1.144514e-08	-2.917544e+01	-7.518223e+02
3.800000e-07	-4.120662e-06	-1.140791e-08	-2.869614e+01	-7.480772e+02
3.900000e-07	-4.050431e-06	-1.131667e-08	-2.820705e+01	-7.439872e+02
4.000000e-07	-3.978935e-06	-1.124815e-08	-2.770915e+01	-7.395060e+02
4.100000e-07	-3.906170e-06	-1.118122e-08	-2.720242e+01	-7.346232e+02
4.200000e-07	-3.831894e-06	-1.110622e-08	-2.668516e+01	-7.293654e+02
4.300000e-07	-3.755884e-06	-1.102344e-08	-2.615583e+01	-7.237931e+02
4.400000e-07	-3.678279e-06	-1.093917e-08	-2.561540e+01	-7.179918e+02
4.500000e-07	-3.599297e-06	-1.087946e-08	-2.506537e+01	-7.120608e+02
4.600000e-07	-3.518937e-06	-1.080400e-08	-2.450575e+01	-7.060979e+02
4.700000e-07	-3.437144e-06	-1.071657e-08	-2.393614e+01	-7.001858e+02
4.800000e-07	-3.354025e-06	-1.061538e-08	-2.335730e+01	-6.943791e+02
4.900000e-07	-3.269817e-06	-1.052213e-08	-2.277088e+01	-6.886955e+02
5.000000e-07	-3.184660e-06	-1.044015e-08	-2.217785e+01	-6.831115e+02
5.100000e-07	-3.098552e-06	-1.034436e-08	-2.157820e+01	-6.775647e+02
5.200000e-07	-3.011455e-06	-1.024379e-08	-2.097166e+01	-6.719604e+02
5.300000e-07	-2.923392e-06	-1.013970e-08	-2.035839e+01	-6.661838e+02
5.400000e-07	-2.834423e-06	-1.004169e-08	-1.973881e+01	-6.601153e+02
5.500000e-07	-2.744380e-06	-9.939942e-09	-1.911176e+01	-6.536463e+02
5.600000e-07	-2.653122e-06	-9.824234e-09	-1.847624e+01	-6.466947e+02
5.700000e-07	-2.560811e-06	-9.707971e-09	-1.783339e+01	-6.392166e+02
5.800000e-07	-2.467609e-06	-9.594271e-09	-1.718433e+01	-6.312131e+02
5.900000e-07	-2.373644e-06	-9.482406e-09	-1.652997e+01	-6.227305e+02
6.000000e-07	-2.278963e-06	-9.358329e-09	-1.587061e+01	-6.138547e+02
6.100000e-07	-2.183488e-06	-9.225431e-09	-1.520573e+01	-6.046991e+02
6.200000e-07	-2.087250e-06	-9.094410e-09	-1.453553e+01	-5.953882e+02
6.300000e-07	-1.990295e-06	-8.965682e-09	-1.386034e+01	-5.860386e+02
6.400000e-07	-1.892569e-06	-8.833439e-09	-1.317978e+01	-5.767401e+02
6.500000e-07	-1.793994e-06	-8.686755e-09	-1.249331e+01	-5.675403e+02
6.600000e-07	-1.694598e-06	-8.536452e-09	-1.180111e+01	-5.584332e+02
6.700000e-07	-1.594569e-06	-8.386689e-09	-1.110452e+01	-5.493555e+02
6.800000e-07	-1.494040e-06	-8.230286e-09	-1.040444e+01	-5.401905e+02
6.900000e-07	-1.393003e-06	-8.061458e-09	-9.700817e+00	-5.307798e+02
7.000000e-07	-1.291482e-06	-7.890392e-09	-8.993835e+00	-5.209413e+02
7.100000e-07	-1.189589e-06	-7.724545e-09	-8.284251e+00	-5.104915e+02
7.200000e-07	-1.087309e-06	-7.554741e-09	-7.571979e+00	-4.992698e+02
7.300000e-07	-9.845814e-07	-7.371773e-09	-6.856588e+00	-4.871605e+02
7.400000e-07	-8.814513e-07	-7.174900e-09	-6.138394e+00	-4.741097e+02
7.500000e-07	-7.780113e-07	-6.972154e-09	-5.418041e+00	-4.601344e+02
7.600000e-07	-6.743371e-07	-6.764092e-09	-4.696058e+00	-4.453226e+02
7.700000e-07	-5.704473e-07	-6.548880e-09	-3.972574e+00	-4.298216e+02
7.800000e-07	-4.663862e-07	-6.324721e-09	-3.247896e+00	-4.138171e+02
7.900000e-07	-3.622304e-07	-6.096225e-09	-2.522559e+00	-3.975040e+02
8.000000e-07	-2.580010e-07	-5.861942e-09	-1.796710e+00	-3.810521e+02
8.100000e-07	-1.536835e-07	-5.613449e-09	-1.070246e+00	-3.645707e+02
8.200000e-07	-4.929693e-08	-5.348716e-09	-3.433020e-01	-3.480765e+02
8.300000e-07	5.509834e-08	-5.068272e-09	3.837027e-01	-3.314692e+02
8.400000e-07	1.594217e-07	-4.777479e-09	1.110207e+00	-3.145185e+02
8.500000e-07	2.637011e-07	-4.473973e-09	1.836405e+00	-2.968650e+02
8.600000e-07	3.679247e-07	-4.152785e-09	2.562214e+00	-2.780369e+02
8.700000e-07	4.720303e-07	-3.809275e-09	3.287201e+00	-2.574811e+02
8.800000e-07	5.759953e-07	-3.443393e-09	4.011210e+00	-2.346074e+02
8.900000e-07	6.798232e-07	-3.055580e-09	4.734263e+00	-2.088422e+02
9.000000e-07	7.835109e-07	-2.638461e-09	5.456340e+00	-1.796852e+02
9.100000e-07	8.868996e-07	-2.180662e-09	6.176335e+00	-1.467661e+02
9.200000e-07	9.899352e-07	-1.672551e-09	6.893872e+00	-1.098933e+02
9.300000e-07	1.092623e-06	-1.109062e-09	7.608988e+00	-6.909009e+01
9.400000e-07	1.194903e-06	-4.780521e-10	8.321258e+00	-2.461436e+01
9.500000e-07	1.296788e-06	2.373488e-10	9.030783e+00	2.304110e+01
9.600000e-07	1.398274e-06	1.039391e-09	9.737526e+00	7.316861e+01
9.700000e-07	1.499284e-06	1.902497e-09	1.044096e+01	1.248845e+02
9.800000e-07	1.599790e-06	2.785558e-09	1.114088e+01	1.771840e+02
9.900000e-07	1.699759e-06	3.648797e-09	1.183705e+01	2.290070e+02
1.000000e-06	1.799110e-06	4.458654e-09	1.252894e+01	2.793095e+02
1.010000e-06	1.897725e-06	5.188177e-09	1.321569e+01	3.271330e+02
1.020000e-06	1.995426e-06	5.828385e-09	1.389607e+01	3.716676e+02
1.030000e-06	2.092221e-06	6.387019e-09	1.457015e+01	4.123011e+02
1.040000e-06	2.188313e-06	6.876889e-09	1.523933e+01	4.486511e+02
1.050000e-06	2.283747e-06	7.309035e-09	1.590393e+01	4.805775e+02
1.060000e-06	2.378429e-06	7.688483e-09	1.656329e+01	5.081744e+02
1.070000e-06	2.472378e-06	8.024883e-09	1.721755e+01	5.317436e+02
1.080000e-06	2.565529e-06	8.325573e-09	1.786625e+01	5.517520e+02
1.090000e-06	2.657776e-06	8.597924e-09	1.850865e+01	5.687791e+02
1.100000e-06	2.749105e-06	8.846351e-09	1.914467e+01	5.834582e+02
1.110000e-06	2.839330e-06	9.072509e-09	1.977299e+01	5.964189e+02
1.120000e-06	2.928357e-06	9.282273e-09	2.039297e+01	6.082353e+02
1.130000e-06	3.016359e-06	9.480705e-09	2.100581e+01	6.193849e+02
1.140000e-06	3.103367e-06	9.669303e-09	2.161173e+01	6.302218e+02
1.150000e-06	3.189378e-06	9.844018e-09	2.221071e+01	6.409643e+02
1.160000e-06	3.274387e-06	1.000219e-08	2.280271e+01	6.516993e+02
1.170000e-06	3.358334e-06	1.014714e-08	2.338731e+01	6.623989e+02
1.180000e-06	3.441064e-06	1.028805e-08	2.396344e+01	6.729485e+02
1.190000e-06	3.522459e-06	1.042693e-08	2.453027e+01	6.831804e+02
1.200000e-06	3.602652e-06	1.055642e-08	2.508873e+01	6.929099e+02
1.210000e-06	3.681581e-06	1.067438e-08	2.563839e+01	7.019692e+02
1.220000e-06	3.759129e-06	1.078696e-08	2.617843e+01	7.102341e+02
1.230000e-06	3.835299e-06	1.089612e-08	2.670888e+01	7.176433e+02
1.240000e-06	3.909953e-06	1.099731e-08	2.722877e+01	7.242060e+02
1.250000e-06	3.983034e-06	1.108904e-08	2.773770e+01	7.299997e+02
1.260000e-06	4.054654e-06	1.117698e-08	2.823646e+01	7.351585e+02
1.270000e-06	4.124873e-06	1.126564e-08	2.872546e+01	7.398539e+02
1.280000e-06	4.193748e-06	1.135335e-08	2.920510e+01	7.442724e+02
1.290000e-06	4.261153e-06	1.143654e-08	2.967451e+01	7.485913e+02
1.300000e-06	4.326844e-06	1.151508e-08	3.013198e+01	7.529570e+02
1.310000e-06	4.390954e-06	1.158967e-08	3.057844e+01	7.574694e+02
1.320000e-06	4.453613e-06	1.165970e-08	3.101479e+01	7.621719e+02
1.330000e-06	4.514811e-06	1.172586e-08	3.144097e+01	7.670500e+02
1.340000e-06	4.574549e-06	1.178859e-08	3.185699e+01	7.720376e+02
1.350000e-06	4.632577e-06	1.184996e-08	3.226109e+01	7.770297e+02
1.360000e-06	4.688877e-06	1.191100e-08	3.265316e+01	7.818991e+02
1.370000e-06	4.743526e-06	1.197060e-08	3.303374e+01	7.865163e+02
1.380000e-06	4.796320e-06	1.202818e-08	3.340139e+01	7.907671e+02
1.390000e-06	4.847076e-06	1.208135e-08	3.375486e+01	7.945692e+02
1.400000e-06	4.895853e-06	1.212931e-08	3.409453e+01	7.978817e+02
1.410000e-06	4.942913e-06	1.217311e-08	3.442226e+01	8.007100e+02
1.420000e-06	4.988392e-06	1.221461e-08	3.473897e+01	8.031036e+02
1.430000e-06	5.032123e-06	1.225507e-08	3.504352e+01	8.051477e+02
1.440000e-06	5.073917e-06	1.229462e-08	3.533457e+01	8.069508e+02
1.450000e-06	5.113917e-06	1.233391e-08	3.561313e+01	8.086291e+02
1.460000e-06	5.152282e-06	1.237143e-08	3.588030e+01	8.102903e+02
1.470000e-06	5.188986e-06	1.240650e-08	3.613590e+01	8.120200e+02
1.480000e-06	5.223753e-06	1.243863e-08	3.637802e+01	8.138704e+02
1.490000e-06	5.256531e-06	1.246783e-08	3.660628e+01	8.158547e+02
1.500000e-06	5.287583e-06	1.249316e-08	3.682253e+01	8.179470e+02
1.510000e-06	5.316911e-06	1.251530e-08	3.702677e+01	8.200875e+02
1.520000e-06	5.344348e-06	1.253611e-08	3.721784e+01	8.221921e+02
1.530000e-06	5.369688e-06	1.255646e-08	3.739431e+01	8.241653e+02
1.540000e-06	5.393047e-06	1.257623e-08	3.755698e+01	8.259145e+02
1.550000e-06	5.414674e-06	1.259422e-08	3.770759e+01	8.273629e+02
1.560000e-06	5.434544e-06	1.261109e-08	3.784596e+01	8.284608e+02
1.570000e-06	5.452430e-06	1.262605e-08	3.797052e+01	8.291918e+02
1.580000e-06	5.468274e-06	1.263769e-08	3.808086e+01	8.295752e+02
1.590000e-06	5.482178e-06	1.264657e-08	3.817768e+01	8.296627e+02
1.600000e-06	5.493924e-06	1.265425e-08	3.825948e+01	8.295308e+02
1.610000e-06	5.503440e-06	1.266163e-08	3.832575e+01	8.292699e+02
1.620000e-06	5.511031e-06	1.266743e-08	3.837861e+01	8.289718e+02
1.630000e-06	5.516850e-06	1.267002e-08	3.841914e+01	8.287167e+02
1.640000e-06	5.520820e-06	1.267123e-08	3.844678e+01	8.285627e+02
1.650000e-06	5.522718e-06	1.267569e-08	3.846000e+01	8.285379e+02
1.660000e-06	5.522635e-06	1.268106e-08	3.845942e+01	8.286371e+02
1.670000e-06	5.520847e-06	1.267630e-08	3.844697e+01	8.288233e+02
1.680000e-06	5.517338e-06	1.266767e-08	3.842254e+01	8.290335e+02
1.690000e-06	5.511873e-06	1.265781e-08	3.838447e+01	8.291882e+02
1.700000e-06	5.504466e-06	1.264934e-08	3.833290e+01	8.292028e+02
1.710000e-06	5.495424e-06	1.264095e-08	3.826993e+01	8.290000e+02
1.720000e-06	5.484724e-06	1.263250e-08	3.819541e+01	8.285211e+02
1.730000e-06	5.472048e-06	1.264085e-08	3.810713e+01	8.277340e+02
1.740000e-06	5.457331e-06	1.260464e-08	3.800465e+01	8.266379e+02
1.750000e-06	5.440488e-06	1.252580e-08	3.788735e+01	8.252635e+02
1.760000e-06	5.421004e-06	1.251847e-08	3.775167e+01	8.236684e+02
1.770000e-06	5.398854e-06	1.251169e-08	3.759742e+01	8.219290e+02
1.780000e-06	5.374862e-06	1.256787e-08	3.743034e+01	8.201294e+02
1.790000e-06	5.349950e-06	1.258707e-08	3.725685e+01	8.183497e+02
1.800000e-06	5.324070e-06	1.241924e-08	3.707662e+01	8.166536e+02
1.810000e-06	5.296091e-06	1.248261e-08	3.688178e+01	8.150800e+02
1.820000e-06	5.265919e-06	1.249150e-08	3.667166e+01	8.136365e+02
1.830000e-06	5.234261e-06	1.231843e-08	3.645120e+01	8.122980e+02
1.840000e-06	5.200781e-06	1.241773e-08	3.621804e+01	8.110097e+02
1.850000e-06	5.165495e-06	1.235586e-08	3.597231e+01	8.096943e+02
1.860000e-06	5.128401e-06	1.223146e-08	3.571399e+01	8.082622e+02
1.870000e-06	5.089172e-06	1.236894e-08	3.544080e+01	8.066242e+02
1.880000e-06	5.048339e-06	1.226798e-08	3.515644e+01	8.047029e+02
1.890000e-06	5.005892e-06	1.218973e-08	3.486085e+01	8.024444e+02
1.900000e-06	4.961445e-06	1.217056e-08	3.455132e+01	7.998251e+02
1.910000e-06	4.915271e-06	1.203444e-08	3.422976e+01	7.968554e+02
1.920000e-06	4.867252e-06	1.212075e-08	3.389536e+01	7.935784e+02
1.930000e-06	4.817434e-06	1.204469e-08	3.354843e+01	7.900642e+02
1.940000e-06	4.765810e-06	1.196142e-08	3.318892e+01	7.864001e+02
1.950000e-06	4.712067e-06	1.200015e-08	3.281466e+01	7.826787e+02
1.960000e-06	4.656598e-06	1.189184e-08	3.242838e+01	7.789846e+02
1.970000e-06	4.599468e-06	1.185945e-08	3.203052e+01	7.753831e+02
1.980000e-06	4.540799e-06	1.174201e-08	3.162195e+01	7.719100e+02
1.990000e-06	4.480562e-06	1.169730e-08	3.120247e+01	7.685667e+02
2.000000e-06	4.418479e-06	1.170115e-08	3.077012e+01	7.653193e+02
2.010000e-06	4.354822e-06	1.160302e-08	3.032681e+01	7.621027e+02
2.020000e-06	4.289647e-06	1.160330e-08	2.987294e+01	7.588294e+02
2.030000e-06	4.223079e-06	1.148013e-08	2.940936e+01	7.554009e+02
2.040000e-06	4.154945e-06	1.142623e-08	2.893488e+01	7.517213e+02
2.050000e-06	4.085011e-06	1.137475e-08	2.844787e+01	7.477107e+02
2.060000e-06	4.013641e-06	1.126213e-08	2.795085e+01	7.433161e+02
2.070000e-06	3.940929e-06	1.124119e-08	2.744448e+01	7.385189e+02
2.080000e-06	3.866854e-06	1.114060e-08	2.692862e+01	7.333380e+02
2.090000e-06	3.791152e-06	1.110528e-08	2.640144e+01	7.278270e+02
2.100000e-06	3.713709e-06	1.100939e-08	2.586213e+01	7.220673e+02
2.110000e-06	3.634861e-06	1.091168e-08	2.531303e+01	7.161561e+02
2.120000e-06	3.554820e-06	1.084329e-08	2.475563e+01	7.101929e+02
2.130000e-06	3.473655e-06	1.073717e-08	2.419040e+01	7.042647e+02
2.140000e-06	3.391421e-06	1.069328e-08	2.361773e+01	6.984331e+02
2.150000e-06	3.308093e-06	1.058811e-08	2.303744e+01	6.927242e+02
2.160000e-06	3.223372e-06	1.050370e-08	2.244744e+01	6.871234e+02
2.170000e-06	3.137252e-06	1.039607e-08	2.184770e+01	6.815763e+02
2.180000e-06	3.050027e-06	1.029094e-08	2.124028e+01	6.759940e+02
2.190000e-06	2.961821e-06	1.020493e-08	2.062601e+01	6.702650e+02
2.200000e-06	2.872673e-06	1.008923e-08	2.000519e+01	6.642693e+02
2.210000e-06	2.782607e-06	1.000072e-08	1.937797e+01	6.578947e+02
2.220000e-06	2.691662e-06	9.893400e-09	1.874464e+01	6.510522e+02
2.230000e-06	2.599741e-06	9.792264e-09	1.810450e+01	6.436890e+02
2.240000e-06	2.506706e-06	9.667825e-09	1.745661e+01	6.357962e+02
2.250000e-06	2.412656e-06	9.540636e-09	1.680165e+01	6.274107e+02
2.260000e-06	2.317782e-06	9.424942e-09	1.614095e+01	6.186109e+02
2.270000e-06	2.222129e-06	9.304124e-09	1.547483e+01	6.095055e+02
2.280000e-06	2.125683e-06	9.182357e-09	1.480318e+01	6.002180e+02
2.290000e-06	2.028520e-06	9.042864e-09	1.412654e+01	5.908684e+02
2.300000e-06	1.930730e-06	8.905953e-09	1.344553e+01	5.815539e+02
2.310000e-06	1.832396e-06	8.769402e-09	1.276074e+01	5.723321e+02
2.320000e-06	1.733594e-06	8.630527e-09	1.207268e+01	5.632090e+02
2.330000e-06	1.634287e-06	8.479433e-09	1.138112e+01	5.541337e+02
2.340000e-06	1.534354e-06	8.324691e-09	1.068519e+01	5.450001e+02
2.350000e-06	1.433711e-06	8.168049e-09	9.984310e+00	5.356575e+02
2.360000e-06	1.332343e-06	8.002985e-09	9.278388e+00	5.259269e+02
2.370000e-06	1.230355e-06	7.825184e-09	8.568148e+00	5.156233e+02
2.380000e-06	1.127932e-06	7.641871e-09	7.854877e+00	5.045791e+02
2.390000e-06	1.025163e-06	7.466167e-09	7.139198e+00	4.926674e+02
2.400000e-06	9.220388e-07	7.287961e-09	6.421044e+00	4.798199e+02
2.410000e-06	8.185724e-07	7.098827e-09	5.700507e+00	4.660382e+02
2.420000e-06	7.148508e-07	6.891143e-09	4.978194e+00	4.513956e+02
2.430000e-06	6.109278e-07	6.672047e-09	4.254479e+00	4.360281e+02
2.440000e-06	5.068017e-07	6.447727e-09	3.529348e+00	4.201154e+02
2.450000e-06	4.024910e-07	6.218499e-09	2.802932e+00	4.038532e+02
2.460000e-06	2.980410e-07	5.981416e-09	2.075546e+00	3.874198e+02
2.470000e-06	1.935211e-07	5.734552e-09	1.347674e+00	3.709403e+02
2.480000e-06	8.896162e-08	5.479369e-09	6.195254e-01	3.544535e+02
2.490000e-06	-1.567365e-08	5.210958e-09	-1.091507e-01	3.378859e+02
2.500000e-06	-1.203425e-07	4.924304e-09	-8.380606e-01	3.210353e+02
2.510000e-06	-2.249291e-07	4.618171e-09	-1.566398e+00	3.035692e+02
2.520000e-06	-3.294076e-07	4.297547e-09	-2.293982e+00	2.850378e+02
2.530000e-06	-4.337651e-07	3.964354e-09	-3.020724e+00	2.649019e+02
2.540000e-06	-5.379579e-07	3.610406e-09	-3.746318e+00	2.425752e+02
2.550000e-06	-6.419937e-07	3.228417e-09	-4.470820e+00	2.174756e+02
2.560000e-06	-7.457778e-07	2.818809e-09	-5.193569e+00	1.890823e+02
2.570000e-06	-8.492708e-07	2.376901e-09	-5.914290e+00	1.569928e+02
2.580000e-06	-9.524767e-07	1.890642e-09	-6.633012e+00	1.209736e+02
2.590000e-06	-1.055295e-06	1.346536e-09	-7.349037e+00	8.099956e+01
2.600000e-06	-1.157704e-06	7.332471e-10	-8.062209e+00	3.727768e+01
2.610000e-06	-1.259704e-06	4.503300e-11	-8.772533e+00	-9.748595e+00
2.620000e-06	-1.361213e-06	-7.210798e-10	-9.479434e+00	-5.941497e+01
2.630000e-06	-1.462056e-06	-1.558395e-09	-1.018170e+01	-1.108714e+02
2.640000e-06	-1.562191e-06	-2.437904e-09	-1.087904e+01	-1.631337e+02
2.650000e-06	-1.661719e-06	-3.317285e-09	-1.157215e+01	-2.151478e+02
2.660000e-06	-1.760604e-06	-4.154717e-09	-1.226078e+01	-2.658602e+02
2.670000e-06	-1.858914e-06	-4.920086e-09	-1.294541e+01	-3.142884e+02
2.680000e-06	-1.956669e-06	-5.602521e-09	-1.362617e+01	-3.595862e+02
2.690000e-06	-2.053740e-06	-6.199547e-09	-1.430217e+01	-4.010954e+02
2.700000e-06	-2.150143e-06	-6.714038e-09	-1.497352e+01	-4.383829e+02
2.710000e-06	-2.245896e-06	-7.160378e-09	-1.564034e+01	-4.712565e+02
2.720000e-06	-2.341006e-06	-7.555456e-09	-1.630268e+01	-4.997617e+02
2.730000e-06	-2.435408e-06	-7.904926e-09	-1.696009e+01	-5.241589e+02
2.740000e-06	-2.528942e-06	-8.214695e-09	-1.761146e+01	-5.448840e+02
2.750000e-06	-2.621398e-06	-8.496860e-09	-1.825532e+01	-5.624970e+02
2.760000e-06	-2.712656e-06	-8.760785e-09	-1.889083e+01	-5.776248e+02
2.770000e-06	-2.802862e-06	-9.006656e-09	-1.951902e+01	-5.909022e+02
2.780000e-06	-2.892109e-06	-9.228373e-09	-2.014054e+01	-6.029193e+02
2.790000e-06	-2.980389e-06	-9.427700e-09	-2.075531e+01	-6.141770e+02
2.800000e-06	-3.067660e-06	-9.612277e-09	-2.136307e+01	-6.250573e+02
2.810000e-06	-3.153910e-06	-9.784593e-09	-2.196371e+01	-6.358078e+02
2.820000e-06	-3.239078e-06	-9.944036e-09	-2.255682e+01	-6.465427e+02
2.830000e-06	-3.322886e-06	-1.009472e-08	-2.314045e+01	-6.572565e+02
2.840000e-06	-3.405452e-06	-1.024238e-08	-2.371544e+01	-6.678506e+02
2.850000e-06	-3.486960e-06	-1.038529e-08	-2.428306e+01	-6.781655e+02
2.860000e-06	-3.567332e-06	-1.051812e-08	-2.484276e+01	-6.880174e+02
2.870000e-06	-3.646509e-06	-1.063747e-08	-2.539415e+01	-6.972320e+02
2.880000e-06	-3.724356e-06	-1.074754e-08	-2.593627e+01	-7.056741e+02
2.890000e-06	-3.800585e-06	-1.085259e-08	-2.646713e+01	-7.132678e+02
2.900000e-06	-3.875220e-06	-1.095279e-08	-2.698689e+01	-7.200070e+02
2.910000e-06	-3.948486e-06	-1.104722e-08	-2.749711e+01	-7.259554e+02
2.920000e-06	-4.020389e-06	-1.113846e-08	-2.799784e+01	-7.312362e+02
2.930000e-06	-4.090964e-06	-1.123040e-08	-2.848932e+01	-7.360148e+02
2.940000e-06	-4.160009e-06	-1.131940e-08	-2.897014e+01	-7.404765e+02
