# Temperatura_=_52.5
# Concentracion g/m^3_=_15500.0
# C_Vs_to_Am_M_A/Vsm_=_65563218390.804596
# pendiente_HvsI_1/m_=_3716.3
# ordenada_HvsI_A/m_=_1297.0
# frecuencia_Hz_=_300798.94115688367

Tiempo_(s)	Campo_(V.s)	Magnetizacion_(V.s)	Campo_(kA/m)	Magnetizacion_(A/m)
0.000000e+00	-5.505316e-06	-1.247211e-08	-3.830857e+01	-8.158242e+02
1.000000e-08	-5.503774e-06	-1.247636e-08	-3.829784e+01	-8.160015e+02
2.000000e-08	-5.500239e-06	-1.247571e-08	-3.827325e+01	-8.162131e+02
3.000000e-08	-5.494905e-06	-1.246958e-08	-3.823613e+01	-8.163832e+02
4.000000e-08	-5.487941e-06	-1.246055e-08	-3.818767e+01	-8.164294e+02
5.000000e-08	-5.479364e-06	-1.244705e-08	-3.812798e+01	-8.162746e+02
6.000000e-08	-5.468872e-06	-1.242980e-08	-3.805498e+01	-8.158582e+02
7.000000e-08	-5.456273e-06	-1.240400e-08	-3.796731e+01	-8.151446e+02
8.000000e-08	-5.441706e-06	-1.237819e-08	-3.786595e+01	-8.141286e+02
9.000000e-08	-5.424855e-06	-1.242260e-08	-3.774869e+01	-8.128357e+02
1.000000e-07	-5.405641e-06	-1.245360e-08	-3.761499e+01	-8.113189e+02
1.100000e-07	-5.384374e-06	-1.240970e-08	-3.746700e+01	-8.096509e+02
1.200000e-07	-5.361239e-06	-1.238498e-08	-3.730602e+01	-8.079142e+02
1.300000e-07	-5.336624e-06	-1.228819e-08	-3.713474e+01	-8.061887e+02
1.400000e-07	-5.310569e-06	-1.222447e-08	-3.695343e+01	-8.045410e+02
1.500000e-07	-5.282700e-06	-1.234638e-08	-3.675950e+01	-8.030141e+02
1.600000e-07	-5.253021e-06	-1.223697e-08	-3.655299e+01	-8.016215e+02
1.700000e-07	-5.221720e-06	-1.216258e-08	-3.633518e+01	-8.003446e+02
1.800000e-07	-5.188466e-06	-1.228900e-08	-3.610378e+01	-7.991348e+02
1.900000e-07	-5.153147e-06	-1.216575e-08	-3.585801e+01	-7.979200e+02
2.000000e-07	-5.116258e-06	-1.213425e-08	-3.560132e+01	-7.966143e+02
2.100000e-07	-5.077730e-06	-1.216107e-08	-3.533323e+01	-7.951292e+02
2.200000e-07	-5.037407e-06	-1.202261e-08	-3.505264e+01	-7.933862e+02
2.300000e-07	-4.995222e-06	-1.202486e-08	-3.475910e+01	-7.913270e+02
2.400000e-07	-4.951031e-06	-1.204070e-08	-3.445160e+01	-7.889221e+02
2.500000e-07	-4.905028e-06	-1.198109e-08	-3.413149e+01	-7.861743e+02
2.600000e-07	-4.857242e-06	-1.195053e-08	-3.379897e+01	-7.831188e+02
2.700000e-07	-4.807445e-06	-1.186198e-08	-3.345246e+01	-7.798181e+02
2.800000e-07	-4.755585e-06	-1.183624e-08	-3.309159e+01	-7.763535e+02
2.900000e-07	-4.701813e-06	-1.180860e-08	-3.271742e+01	-7.728136e+02
3.000000e-07	-4.646374e-06	-1.174769e-08	-3.233165e+01	-7.692819e+02
3.100000e-07	-4.589239e-06	-1.169708e-08	-3.193408e+01	-7.658249e+02
3.200000e-07	-4.530277e-06	-1.165123e-08	-3.152379e+01	-7.624825e+02
3.300000e-07	-4.469647e-06	-1.163598e-08	-3.110190e+01	-7.592619e+02
3.400000e-07	-4.407519e-06	-1.155234e-08	-3.066958e+01	-7.561363e+02
3.500000e-07	-4.343980e-06	-1.147591e-08	-3.022745e+01	-7.530479e+02
3.600000e-07	-4.278929e-06	-1.141934e-08	-2.977479e+01	-7.499153e+02
3.700000e-07	-4.212203e-06	-1.136270e-08	-2.931049e+01	-7.466447e+02
3.800000e-07	-4.143806e-06	-1.133419e-08	-2.883455e+01	-7.431426e+02
3.900000e-07	-4.073883e-06	-1.125744e-08	-2.834799e+01	-7.393284e+02
4.000000e-07	-4.002685e-06	-1.117884e-08	-2.785256e+01	-7.351461e+02
4.100000e-07	-3.930218e-06	-1.111535e-08	-2.734830e+01	-7.305716e+02
4.200000e-07	-3.856305e-06	-1.104561e-08	-2.683398e+01	-7.256170e+02
4.300000e-07	-3.780747e-06	-1.096749e-08	-2.630821e+01	-7.203284e+02
4.400000e-07	-3.703516e-06	-1.087571e-08	-2.577080e+01	-7.147800e+02
4.500000e-07	-3.624806e-06	-1.081195e-08	-2.522310e+01	-7.090634e+02
4.600000e-07	-3.544631e-06	-1.074624e-08	-2.466520e+01	-7.032747e+02
4.700000e-07	-3.463060e-06	-1.066906e-08	-2.409760e+01	-6.975002e+02
4.800000e-07	-3.380290e-06	-1.057744e-08	-2.352164e+01	-6.918035e+02
4.900000e-07	-3.296388e-06	-1.047663e-08	-2.293781e+01	-6.862152e+02
5.000000e-07	-3.211427e-06	-1.039501e-08	-2.234662e+01	-6.807276e+02
5.100000e-07	-3.125497e-06	-1.031054e-08	-2.174867e+01	-6.752935e+02
5.200000e-07	-3.038611e-06	-1.021531e-08	-2.114408e+01	-6.698320e+02
5.300000e-07	-2.950693e-06	-1.010840e-08	-2.053230e+01	-6.642379e+02
5.400000e-07	-2.861825e-06	-1.000752e-08	-1.991392e+01	-6.583956e+02
5.500000e-07	-2.772052e-06	-9.913332e-09	-1.928924e+01	-6.521949e+02
5.600000e-07	-2.681153e-06	-9.807095e-09	-1.865672e+01	-6.455455e+02
5.700000e-07	-2.589109e-06	-9.693704e-09	-1.801623e+01	-6.383906e+02
5.800000e-07	-2.496119e-06	-9.576511e-09	-1.736916e+01	-6.307151e+02
5.900000e-07	-2.402353e-06	-9.466027e-09	-1.671670e+01	-6.225482e+02
6.000000e-07	-2.307830e-06	-9.350059e-09	-1.605896e+01	-6.139604e+02
6.100000e-07	-2.212528e-06	-9.220889e-09	-1.539581e+01	-6.050536e+02
6.200000e-07	-2.116414e-06	-9.087535e-09	-1.472700e+01	-5.959465e+02
6.300000e-07	-2.019529e-06	-8.958494e-09	-1.405283e+01	-5.867572e+02
6.400000e-07	-1.921985e-06	-8.833901e-09	-1.337407e+01	-5.775843e+02
6.500000e-07	-1.823680e-06	-8.698128e-09	-1.269002e+01	-5.684904e+02
6.600000e-07	-1.724530e-06	-8.552624e-09	-1.200009e+01	-5.594895e+02
6.700000e-07	-1.624607e-06	-8.402431e-09	-1.130478e+01	-5.505401e+02
6.800000e-07	-1.524043e-06	-8.251683e-09	-1.060501e+01	-5.415465e+02
6.900000e-07	-1.423033e-06	-8.094404e-09	-9.902132e+00	-5.323674e+02
7.000000e-07	-1.321625e-06	-7.926903e-09	-9.196487e+00	-5.228310e+02
7.100000e-07	-1.219770e-06	-7.755916e-09	-8.487732e+00	-5.127558e+02
7.200000e-07	-1.117503e-06	-7.585587e-09	-7.776109e+00	-5.019735e+02
7.300000e-07	-1.014855e-06	-7.411200e-09	-7.061836e+00	-4.903518e+02
7.400000e-07	-9.118679e-07	-7.223511e-09	-6.345205e+00	-4.778130e+02
7.500000e-07	-8.085982e-07	-7.025805e-09	-5.626606e+00	-4.643463e+02
7.600000e-07	-7.050351e-07	-6.822746e-09	-4.905965e+00	-4.500110e+02
7.700000e-07	-6.011790e-07	-6.614324e-09	-4.183285e+00	-4.349296e+02
7.800000e-07	-4.971302e-07	-6.395390e-09	-3.459265e+00	-4.192711e+02
7.900000e-07	-3.928832e-07	-6.166914e-09	-2.733866e+00	-4.032249e+02
8.000000e-07	-2.884822e-07	-5.933993e-09	-2.007395e+00	-3.869691e+02
8.100000e-07	-1.840277e-07	-5.694210e-09	-1.280551e+00	-3.706363e+02
8.200000e-07	-7.943990e-08	-5.442180e-09	-5.527801e-01	-3.542798e+02
8.300000e-07	2.521162e-08	-5.173973e-09	1.754343e-01	-3.378472e+02
8.400000e-07	1.297946e-07	-4.891642e-09	9.031716e-01	-3.211626e+02
8.500000e-07	2.343089e-07	-4.597207e-09	1.630431e+00	-3.039224e+02
8.600000e-07	3.387134e-07	-4.287413e-09	2.356927e+00	-2.857049e+02
8.700000e-07	4.429504e-07	-3.954753e-09	3.082257e+00	-2.659961e+02
8.800000e-07	5.470319e-07	-3.599161e-09	3.806504e+00	-2.442277e+02
8.900000e-07	6.509331e-07	-3.221839e-09	4.529498e+00	-2.198262e+02
9.000000e-07	7.546210e-07	-2.820491e-09	5.251007e+00	-1.922681e+02
9.100000e-07	8.580189e-07	-2.385427e-09	5.970498e+00	-1.611357e+02
9.200000e-07	9.610986e-07	-1.904464e-09	6.687775e+00	-1.261682e+02
9.300000e-07	1.063911e-06	-1.369954e-09	7.403193e+00	-8.730248e+01
9.400000e-07	1.166393e-06	-7.714992e-10	8.116310e+00	-4.469932e+01
9.500000e-07	1.268421e-06	-9.655764e-11	8.826266e+00	1.248790e+00
9.600000e-07	1.369967e-06	6.599403e-10	9.532875e+00	4.992922e+01
9.700000e-07	1.471119e-06	1.485468e-09	1.023674e+01	1.005400e+02
9.800000e-07	1.571900e-06	2.351867e-09	1.093802e+01	1.521375e+02
9.900000e-07	1.672223e-06	3.218603e-09	1.163611e+01	2.036971e+02
1.000000e-06	1.771855e-06	4.044641e-09	1.232940e+01	2.541810e+02
1.010000e-06	1.870673e-06	4.800213e-09	1.301702e+01	3.026082e+02
1.020000e-06	1.968689e-06	5.472047e-09	1.369906e+01	3.481183e+02
1.030000e-06	2.065914e-06	6.062781e-09	1.437560e+01	3.900263e+02
1.040000e-06	2.162360e-06	6.580102e-09	1.504671e+01	4.278606e+02
1.050000e-06	2.258054e-06	7.032279e-09	1.571260e+01	4.613835e+02
1.060000e-06	2.353052e-06	7.428786e-09	1.637364e+01	4.905914e+02
1.070000e-06	2.447285e-06	7.782073e-09	1.702936e+01	5.156960e+02
1.080000e-06	2.540733e-06	8.099719e-09	1.767961e+01	5.370893e+02
1.090000e-06	2.633404e-06	8.384970e-09	1.832446e+01	5.552953e+02
1.100000e-06	2.725144e-06	8.641581e-09	1.896283e+01	5.709152e+02
1.110000e-06	2.815753e-06	8.874587e-09	1.959333e+01	5.845698e+02
1.120000e-06	2.905211e-06	9.089872e-09	2.021582e+01	5.968466e+02
1.130000e-06	2.993595e-06	9.291996e-09	2.083084e+01	6.082548e+02
1.140000e-06	3.080955e-06	9.483142e-09	2.143873e+01	6.191934e+02
1.150000e-06	3.167276e-06	9.660636e-09	2.203939e+01	6.299328e+02
1.160000e-06	3.252600e-06	9.823284e-09	2.263311e+01	6.406128e+02
1.170000e-06	3.336945e-06	9.974437e-09	2.322003e+01	6.512539e+02
1.180000e-06	3.420141e-06	1.011911e-08	2.379895e+01	6.617797e+02
1.190000e-06	3.502038e-06	1.025794e-08	2.436883e+01	6.720484e+02
1.200000e-06	3.582596e-06	1.038747e-08	2.492938e+01	6.818871e+02
1.210000e-06	3.661821e-06	1.050726e-08	2.548067e+01	6.911254e+02
1.220000e-06	3.739801e-06	1.062020e-08	2.602329e+01	6.996255e+02
1.230000e-06	3.816495e-06	1.072796e-08	2.655696e+01	7.073030e+02
1.240000e-06	3.891658e-06	1.083096e-08	2.707999e+01	7.141397e+02
1.250000e-06	3.965164e-06	1.092871e-08	2.759147e+01	7.201854e+02
1.260000e-06	4.037191e-06	1.101991e-08	2.809267e+01	7.255496e+02
1.270000e-06	4.107863e-06	1.110570e-08	2.858444e+01	7.303863e+02
1.280000e-06	4.177129e-06	1.118875e-08	2.906642e+01	7.348728e+02
1.290000e-06	4.244944e-06	1.127081e-08	2.953831e+01	7.391866e+02
1.300000e-06	4.311118e-06	1.135148e-08	2.999878e+01	7.434838e+02
1.310000e-06	4.375670e-06	1.142789e-08	3.044797e+01	7.478804e+02
1.320000e-06	4.438764e-06	1.149921e-08	3.088700e+01	7.524411e+02
1.330000e-06	4.500462e-06	1.156515e-08	3.131632e+01	7.571740e+02
1.340000e-06	4.560800e-06	1.162721e-08	3.173619e+01	7.620340e+02
1.350000e-06	4.619429e-06	1.168781e-08	3.214415e+01	7.669328e+02
1.360000e-06	4.676189e-06	1.174711e-08	3.253912e+01	7.717537e+02
1.370000e-06	4.731316e-06	1.180477e-08	3.292272e+01	7.763699e+02
1.380000e-06	4.784798e-06	1.186195e-08	3.329487e+01	7.806630e+02
1.390000e-06	4.836357e-06	1.191564e-08	3.365364e+01	7.845394e+02
1.400000e-06	4.885794e-06	1.196525e-08	3.399765e+01	7.879427e+02
1.410000e-06	4.933386e-06	1.201158e-08	3.432881e+01	7.908602e+02
1.420000e-06	4.979361e-06	1.205377e-08	3.464873e+01	7.933239e+02
1.430000e-06	5.023674e-06	1.209176e-08	3.495708e+01	7.954041e+02
1.440000e-06	5.066123e-06	1.212654e-08	3.525246e+01	7.971994e+02
1.450000e-06	5.106687e-06	1.216029e-08	3.553473e+01	7.988220e+02
1.460000e-06	5.145558e-06	1.219368e-08	3.580521e+01	8.003827e+02
1.470000e-06	5.182727e-06	1.222739e-08	3.606385e+01	8.019756e+02
1.480000e-06	5.218000e-06	1.226019e-08	3.630929e+01	8.036666e+02
1.490000e-06	5.251310e-06	1.229034e-08	3.654108e+01	8.054855e+02
1.500000e-06	5.282828e-06	1.231711e-08	3.676040e+01	8.074234e+02
1.510000e-06	5.312660e-06	1.234037e-08	3.696798e+01	8.094359e+02
1.520000e-06	5.340714e-06	1.236028e-08	3.716320e+01	8.114509e+02
1.530000e-06	5.366688e-06	1.237690e-08	3.734393e+01	8.133796e+02
1.540000e-06	5.390652e-06	1.239248e-08	3.751069e+01	8.151304e+02
1.550000e-06	5.412857e-06	1.240826e-08	3.766520e+01	8.166217e+02
1.560000e-06	5.433316e-06	1.242341e-08	3.780756e+01	8.177941e+02
1.570000e-06	5.451815e-06	1.243802e-08	3.793629e+01	8.186183e+02
1.580000e-06	5.468228e-06	1.245083e-08	3.805050e+01	8.190992e+02
1.590000e-06	5.482687e-06	1.246200e-08	3.815111e+01	8.192747e+02
1.600000e-06	5.495113e-06	1.247186e-08	3.823757e+01	8.192099e+02
1.610000e-06	5.505305e-06	1.247834e-08	3.830849e+01	8.189882e+02
1.620000e-06	5.513404e-06	1.248059e-08	3.836485e+01	8.186989e+02
1.630000e-06	5.519668e-06	1.248122e-08	3.840844e+01	8.184254e+02
1.640000e-06	5.524121e-06	1.248294e-08	3.843942e+01	8.182330e+02
1.650000e-06	5.526593e-06	1.248677e-08	3.845662e+01	8.181609e+02
1.660000e-06	5.527078e-06	1.249153e-08	3.846000e+01	8.182165e+02
1.670000e-06	5.525765e-06	1.248821e-08	3.845087e+01	8.183755e+02
1.680000e-06	5.522760e-06	1.248251e-08	3.842995e+01	8.185855e+02
1.690000e-06	5.517861e-06	1.247846e-08	3.839587e+01	8.187740e+02
1.700000e-06	5.511020e-06	1.247126e-08	3.834826e+01	8.188592e+02
1.710000e-06	5.502513e-06	1.246071e-08	3.828907e+01	8.187615e+02
1.720000e-06	5.492382e-06	1.245061e-08	3.821857e+01	8.184153e+02
1.730000e-06	5.480326e-06	1.246021e-08	3.813468e+01	8.177781e+02
1.740000e-06	5.466194e-06	1.244466e-08	3.803634e+01	8.168368e+02
1.750000e-06	5.450056e-06	1.235191e-08	3.792405e+01	8.156095e+02
1.760000e-06	5.431406e-06	1.232607e-08	3.779427e+01	8.141428e+02
1.770000e-06	5.409883e-06	1.232614e-08	3.764450e+01	8.125054e+02
1.780000e-06	5.386188e-06	1.236455e-08	3.747962e+01	8.107784e+02
1.790000e-06	5.361410e-06	1.243570e-08	3.730720e+01	8.090436e+02
1.800000e-06	5.335884e-06	1.225429e-08	3.712959e+01	8.073717e+02
1.810000e-06	5.308561e-06	1.226030e-08	3.693946e+01	8.058125e+02
1.820000e-06	5.278861e-06	1.237523e-08	3.673279e+01	8.043871e+02
1.830000e-06	5.247554e-06	1.218653e-08	3.651494e+01	8.030851e+02
1.840000e-06	5.214546e-06	1.224764e-08	3.628526e+01	8.018648e+02
1.850000e-06	5.179703e-06	1.228247e-08	3.604281e+01	8.006593e+02
1.860000e-06	5.143143e-06	1.209010e-08	3.578840e+01	7.993851e+02
1.870000e-06	5.104468e-06	1.220507e-08	3.551928e+01	7.979532e+02
1.880000e-06	5.064051e-06	1.217782e-08	3.523804e+01	7.962814e+02
1.890000e-06	5.022102e-06	1.205198e-08	3.494614e+01	7.943057e+02
1.900000e-06	4.978210e-06	1.207647e-08	3.464072e+01	7.919886e+02
1.910000e-06	4.932495e-06	1.194508e-08	3.432261e+01	7.893247e+02
1.920000e-06	4.884959e-06	1.199773e-08	3.399183e+01	7.863416e+02
1.930000e-06	4.835636e-06	1.198344e-08	3.364862e+01	7.830955e+02
1.940000e-06	4.784544e-06	1.184691e-08	3.329310e+01	7.796640e+02
1.950000e-06	4.731321e-06	1.188029e-08	3.292275e+01	7.761350e+02
1.960000e-06	4.676224e-06	1.179781e-08	3.253936e+01	7.725946e+02
1.970000e-06	4.619466e-06	1.176768e-08	3.214441e+01	7.691143e+02
1.980000e-06	4.561134e-06	1.168117e-08	3.173851e+01	7.657416e+02
1.990000e-06	4.501299e-06	1.160681e-08	3.132215e+01	7.624921e+02
2.000000e-06	4.439685e-06	1.164210e-08	3.089341e+01	7.593475e+02
2.010000e-06	4.376449e-06	1.154169e-08	3.045338e+01	7.562570e+02
2.020000e-06	4.311697e-06	1.152878e-08	3.000281e+01	7.531443e+02
2.030000e-06	4.245475e-06	1.142973e-08	2.954200e+01	7.499176e+02
2.040000e-06	4.177785e-06	1.134693e-08	2.907099e+01	7.464820e+02
2.050000e-06	4.108330e-06	1.132737e-08	2.858769e+01	7.427525e+02
2.060000e-06	4.037283e-06	1.120740e-08	2.809331e+01	7.386662e+02
2.070000e-06	3.964912e-06	1.117763e-08	2.758972e+01	7.341904e+02
2.080000e-06	3.891200e-06	1.109609e-08	2.707679e+01	7.293281e+02
2.090000e-06	3.815962e-06	1.105826e-08	2.655326e+01	7.241173e+02
2.100000e-06	3.739012e-06	1.099174e-08	2.601780e+01	7.186261e+02
2.110000e-06	3.660539e-06	1.087926e-08	2.547175e+01	7.129429e+02
2.120000e-06	3.580775e-06	1.081162e-08	2.491671e+01	7.071639e+02
2.130000e-06	3.499852e-06	1.070443e-08	2.435361e+01	7.013791e+02
2.140000e-06	3.417782e-06	1.065829e-08	2.378253e+01	6.956590e+02
2.150000e-06	3.334555e-06	1.056480e-08	2.320340e+01	6.900431e+02
2.160000e-06	3.250088e-06	1.047454e-08	2.261564e+01	6.845336e+02
2.170000e-06	3.164275e-06	1.038765e-08	2.201851e+01	6.790929e+02
2.180000e-06	3.077313e-06	1.028581e-08	2.141339e+01	6.736477e+02
2.190000e-06	2.989362e-06	1.019885e-08	2.080138e+01	6.680978e+02
2.200000e-06	2.900468e-06	1.007901e-08	2.018282e+01	6.623288e+02
2.210000e-06	2.810620e-06	9.989742e-09	1.955761e+01	6.562275e+02
2.220000e-06	2.719832e-06	9.891707e-09	1.892586e+01	6.496975e+02
2.230000e-06	2.628116e-06	9.793180e-09	1.828767e+01	6.426724e+02
2.240000e-06	2.535402e-06	9.674892e-09	1.764252e+01	6.351264e+02
2.250000e-06	2.441649e-06	9.544881e-09	1.699014e+01	6.270776e+02
2.260000e-06	2.346939e-06	9.432553e-09	1.633110e+01	6.185869e+02
2.270000e-06	2.251404e-06	9.316457e-09	1.566633e+01	6.097494e+02
2.280000e-06	2.155095e-06	9.199766e-09	1.499616e+01	6.006813e+02
2.290000e-06	2.058085e-06	9.066288e-09	1.432112e+01	5.915026e+02
2.300000e-06	1.960413e-06	8.934618e-09	1.364147e+01	5.823184e+02
2.310000e-06	1.862113e-06	8.803072e-09	1.295746e+01	5.732018e+02
2.320000e-06	1.763217e-06	8.663534e-09	1.226929e+01	5.641796e+02
2.330000e-06	1.663790e-06	8.512058e-09	1.157743e+01	5.552246e+02
2.340000e-06	1.563899e-06	8.359404e-09	1.088234e+01	5.462542e+02
2.350000e-06	1.463472e-06	8.211263e-09	1.018353e+01	5.371370e+02
2.360000e-06	1.362404e-06	8.054120e-09	9.480247e+00	5.277073e+02
2.370000e-06	1.260642e-06	7.883878e-09	8.772139e+00	5.177839e+02
2.380000e-06	1.158270e-06	7.704853e-09	8.059785e+00	5.071929e+02
2.390000e-06	1.055457e-06	7.530952e-09	7.344363e+00	4.957911e+02
2.400000e-06	9.522806e-07	7.356259e-09	6.626415e+00	4.834857e+02
2.410000e-06	8.487864e-07	7.170394e-09	5.906254e+00	4.702484e+02
2.420000e-06	7.450501e-07	6.971046e-09	5.184408e+00	4.561214e+02
2.430000e-06	6.410933e-07	6.762161e-09	4.461028e+00	4.412125e+02
2.440000e-06	5.369412e-07	6.544835e-09	3.736288e+00	4.256811e+02
2.450000e-06	4.325991e-07	6.317545e-09	3.010228e+00	4.097144e+02
2.460000e-06	3.281118e-07	6.081013e-09	2.283156e+00	3.934967e+02
2.470000e-06	2.234800e-07	5.837697e-09	1.555078e+00	3.771748e+02
2.480000e-06	1.187550e-07	5.589082e-09	8.263530e-01	3.608250e+02
2.490000e-06	1.401131e-08	5.330318e-09	9.749728e-02	3.444233e+02
2.500000e-06	-9.072014e-08	5.056000e-09	-6.312733e-01	3.278256e+02
2.510000e-06	-1.954168e-07	4.763253e-09	-1.359801e+00	3.107598e+02
2.520000e-06	-3.000105e-07	4.453492e-09	-2.087614e+00	2.928322e+02
2.530000e-06	-4.043970e-07	4.127357e-09	-2.813984e+00	2.735485e+02
2.540000e-06	-5.086430e-07	3.779164e-09	-3.539377e+00	2.523498e+02
2.550000e-06	-6.127737e-07	3.406805e-09	-4.263967e+00	2.286589e+02
2.560000e-06	-7.166878e-07	3.013164e-09	-4.987050e+00	2.019346e+02
2.570000e-06	-8.203459e-07	2.591703e-09	-5.708352e+00	1.717275e+02
2.580000e-06	-9.237697e-07	2.130236e-09	-6.428023e+00	1.377333e+02
2.590000e-06	-1.026873e-06	1.616597e-09	-7.145463e+00	9.983646e+01
2.600000e-06	-1.129525e-06	1.039783e-09	-7.859765e+00	5.814024e+01
2.610000e-06	-1.231659e-06	3.905347e-10	-8.570462e+00	1.297950e+01
2.620000e-06	-1.333179e-06	-3.377606e-10	-9.276883e+00	-3.508598e+01
2.630000e-06	-1.434080e-06	-1.140479e-09	-9.979004e+00	-8.529769e+01
2.640000e-06	-1.534454e-06	-1.997453e-09	-1.067745e+01	-1.367422e+02
2.650000e-06	-1.634322e-06	-2.870634e-09	-1.137238e+01	-1.884089e+02
2.660000e-06	-1.733592e-06	-3.718918e-09	-1.206314e+01	-2.392567e+02
2.670000e-06	-1.832178e-06	-4.509131e-09	-1.274915e+01	-2.882841e+02
2.680000e-06	-1.930146e-06	-5.222062e-09	-1.343086e+01	-3.345950e+02
2.690000e-06	-2.027490e-06	-5.852355e-09	-1.410823e+01	-3.774562e+02
2.700000e-06	-2.124121e-06	-6.398844e-09	-1.478063e+01	-4.163402e+02
2.710000e-06	-2.220093e-06	-6.870775e-09	-1.544845e+01	-4.509499e+02
2.720000e-06	-2.315518e-06	-7.285152e-09	-1.611246e+01	-4.812242e+02
2.730000e-06	-2.410321e-06	-7.651860e-09	-1.677215e+01	-5.073239e+02
2.740000e-06	-2.504156e-06	-7.977777e-09	-1.742509e+01	-5.295997e+02
2.750000e-06	-2.596827e-06	-8.272154e-09	-1.806994e+01	-5.485479e+02
2.760000e-06	-2.688454e-06	-8.542938e-09	-1.870752e+01	-5.647556e+02
2.770000e-06	-2.779090e-06	-8.793936e-09	-1.933821e+01	-5.788439e+02
2.780000e-06	-2.868730e-06	-9.023080e-09	-1.996197e+01	-5.914134e+02
2.790000e-06	-2.957355e-06	-9.230811e-09	-2.057867e+01	-6.029963e+02
2.800000e-06	-3.045033e-06	-9.421945e-09	-2.118876e+01	-6.140213e+02
2.810000e-06	-3.131747e-06	-9.601060e-09	-2.179216e+01	-6.247920e+02
2.820000e-06	-3.217259e-06	-9.768727e-09	-2.238720e+01	-6.354803e+02
2.830000e-06	-3.301409e-06	-9.924927e-09	-2.297275e+01	-6.461346e+02
2.840000e-06	-3.384364e-06	-1.007404e-08	-2.354999e+01	-6.567002e+02
2.850000e-06	-3.466295e-06	-1.021606e-08	-2.412011e+01	-6.670484e+02
2.860000e-06	-3.547075e-06	-1.034973e-08	-2.468221e+01	-6.770109e+02
2.870000e-06	-3.626638e-06	-1.047191e-08	-2.523585e+01	-6.864136e+02
2.880000e-06	-3.704861e-06	-1.058495e-08	-2.578016e+01	-6.951081e+02
2.890000e-06	-3.781510e-06	-1.069428e-08	-2.631352e+01	-7.029953e+02
2.900000e-06	-3.856647e-06	-1.079836e-08	-2.683636e+01	-7.100398e+02
2.910000e-06	-3.930380e-06	-1.089512e-08	-2.734943e+01	-7.162748e+02
2.920000e-06	-4.002709e-06	-1.098713e-08	-2.785273e+01	-7.217960e+02
2.930000e-06	-4.073750e-06	-1.107756e-08	-2.834706e+01	-7.267481e+02
2.940000e-06	-4.143336e-06	-1.116564e-08	-2.883127e+01	-7.313047e+02
