# Temperatura_=_25.4
# Concentracion g/m^3_=_15500.0
# C_Vs_to_Am_M_A/Vsm_=_65563218390.804596
# pendiente_HvsI_1/m_=_3716.3
# ordenada_HvsI_A/m_=_1297.0
# frecuencia_Hz_=_300808.3910592204

Tiempo_(s)	Campo_(V.s)	Magnetizacion_(V.s)	Campo_(kA/m)	Magnetizacion_(A/m)
0.000000e+00	-5.522018e-06	-1.201245e-08	-3.830966e+01	-7.858980e+02
1.000000e-08	-5.520410e-06	-1.201644e-08	-3.829851e+01	-7.858909e+02
2.000000e-08	-5.516771e-06	-1.201523e-08	-3.827326e+01	-7.859608e+02
3.000000e-08	-5.511338e-06	-1.200656e-08	-3.823557e+01	-7.860586e+02
4.000000e-08	-5.504292e-06	-1.199269e-08	-3.818669e+01	-7.861199e+02
5.000000e-08	-5.495617e-06	-1.197764e-08	-3.812650e+01	-7.860747e+02
6.000000e-08	-5.485012e-06	-1.196607e-08	-3.805293e+01	-7.858574e+02
7.000000e-08	-5.472263e-06	-1.195144e-08	-3.796448e+01	-7.854164e+02
8.000000e-08	-5.457507e-06	-1.193556e-08	-3.786211e+01	-7.847213e+02
9.000000e-08	-5.440449e-06	-1.197623e-08	-3.774376e+01	-7.837671e+02
1.000000e-07	-5.421042e-06	-1.200424e-08	-3.760913e+01	-7.825750e+02
1.100000e-07	-5.399599e-06	-1.195997e-08	-3.746036e+01	-7.811891e+02
1.200000e-07	-5.376330e-06	-1.192337e-08	-3.729894e+01	-7.796701e+02
1.300000e-07	-5.351614e-06	-1.183682e-08	-3.712746e+01	-7.780863e+02
1.400000e-07	-5.325405e-06	-1.177858e-08	-3.694564e+01	-7.765037e+02
1.500000e-07	-5.297310e-06	-1.188816e-08	-3.675072e+01	-7.749766e+02
1.600000e-07	-5.267453e-06	-1.180554e-08	-3.654358e+01	-7.735393e+02
1.700000e-07	-5.236035e-06	-1.174499e-08	-3.632562e+01	-7.722012e+02
1.800000e-07	-5.202713e-06	-1.185740e-08	-3.609444e+01	-7.709444e+02
1.900000e-07	-5.167335e-06	-1.175238e-08	-3.584901e+01	-7.697266e+02
2.000000e-07	-5.130341e-06	-1.172218e-08	-3.559236e+01	-7.684859e+02
2.100000e-07	-5.091654e-06	-1.172938e-08	-3.532396e+01	-7.671497e+02
2.200000e-07	-5.051142e-06	-1.159739e-08	-3.504290e+01	-7.656440e+02
2.300000e-07	-5.008724e-06	-1.161558e-08	-3.474862e+01	-7.639041e+02
2.400000e-07	-4.964282e-06	-1.163169e-08	-3.444030e+01	-7.618834e+02
2.500000e-07	-4.918086e-06	-1.157238e-08	-3.411981e+01	-7.595598e+02
2.600000e-07	-4.870067e-06	-1.155609e-08	-3.378667e+01	-7.569391e+02
2.700000e-07	-4.820047e-06	-1.145478e-08	-3.343965e+01	-7.540542e+02
2.800000e-07	-4.768028e-06	-1.143033e-08	-3.307877e+01	-7.509605e+02
2.900000e-07	-4.714032e-06	-1.142917e-08	-3.270416e+01	-7.477286e+02
3.000000e-07	-4.658302e-06	-1.136308e-08	-3.231753e+01	-7.444341e+02
3.100000e-07	-4.600945e-06	-1.131705e-08	-3.191961e+01	-7.411471e+02
3.200000e-07	-4.541740e-06	-1.128993e-08	-3.150887e+01	-7.379220e+02
3.300000e-07	-4.480858e-06	-1.126493e-08	-3.108649e+01	-7.347898e+02
3.400000e-07	-4.418536e-06	-1.117404e-08	-3.065413e+01	-7.317532e+02
3.500000e-07	-4.354748e-06	-1.110791e-08	-3.021158e+01	-7.287852e+02
3.600000e-07	-4.289432e-06	-1.106026e-08	-2.975845e+01	-7.258329e+02
3.700000e-07	-4.222433e-06	-1.101136e-08	-2.929364e+01	-7.228240e+02
3.800000e-07	-4.153754e-06	-1.099866e-08	-2.881717e+01	-7.196764e+02
3.900000e-07	-4.083606e-06	-1.092620e-08	-2.833050e+01	-7.163090e+02
4.000000e-07	-4.012198e-06	-1.084293e-08	-2.783511e+01	-7.126535e+02
4.100000e-07	-3.939519e-06	-1.078606e-08	-2.733089e+01	-7.086629e+02
4.200000e-07	-3.865342e-06	-1.071613e-08	-2.681628e+01	-7.043190e+02
4.300000e-07	-3.789445e-06	-1.064696e-08	-2.628973e+01	-6.996343e+02
4.400000e-07	-3.711897e-06	-1.056875e-08	-2.575173e+01	-6.946506e+02
4.500000e-07	-3.632895e-06	-1.051564e-08	-2.520365e+01	-6.894335e+02
4.600000e-07	-3.552395e-06	-1.045926e-08	-2.464517e+01	-6.840626e+02
4.700000e-07	-3.470461e-06	-1.038450e-08	-2.407674e+01	-6.786203e+02
4.800000e-07	-3.387354e-06	-1.029311e-08	-2.350018e+01	-6.731795e+02
4.900000e-07	-3.303210e-06	-1.019431e-08	-2.291642e+01	-6.677926e+02
5.000000e-07	-3.218086e-06	-1.012177e-08	-2.232586e+01	-6.624829e+02
5.100000e-07	-3.131952e-06	-1.004365e-08	-2.172830e+01	-6.572402e+02
5.200000e-07	-3.044811e-06	-9.959171e-09	-2.112374e+01	-6.520203e+02
5.300000e-07	-2.956757e-06	-9.863520e-09	-2.051286e+01	-6.467500e+02
5.400000e-07	-2.867717e-06	-9.769246e-09	-1.989513e+01	-6.413362e+02
5.500000e-07	-2.777546e-06	-9.681923e-09	-1.926956e+01	-6.356773e+02
5.600000e-07	-2.686196e-06	-9.580627e-09	-1.863581e+01	-6.296773e+02
5.700000e-07	-2.593757e-06	-9.472702e-09	-1.799450e+01	-6.232585e+02
5.800000e-07	-2.500457e-06	-9.363817e-09	-1.734722e+01	-6.163724e+02
5.900000e-07	-2.406369e-06	-9.264971e-09	-1.669448e+01	-6.090067e+02
6.000000e-07	-2.311462e-06	-9.158579e-09	-1.603605e+01	-6.011874e+02
6.100000e-07	-2.215829e-06	-9.037163e-09	-1.537258e+01	-5.929752e+02
6.200000e-07	-2.119489e-06	-8.911361e-09	-1.470421e+01	-5.844570e+02
6.300000e-07	-2.022322e-06	-8.789522e-09	-1.403010e+01	-5.757330e+02
6.400000e-07	-1.924249e-06	-8.671249e-09	-1.334971e+01	-5.669013e+02
6.500000e-07	-1.825298e-06	-8.539910e-09	-1.266322e+01	-5.580421e+02
6.600000e-07	-1.725603e-06	-8.399850e-09	-1.197158e+01	-5.492031e+02
6.700000e-07	-1.625307e-06	-8.259455e-09	-1.127576e+01	-5.403893e+02
6.800000e-07	-1.524484e-06	-8.119190e-09	-1.057629e+01	-5.315579e+02
6.900000e-07	-1.423219e-06	-7.968740e-09	-9.873750e+00	-5.226194e+02
7.000000e-07	-1.321501e-06	-7.809640e-09	-9.168070e+00	-5.134459e+02
7.100000e-07	-1.219295e-06	-7.649674e-09	-8.459002e+00	-5.038849e+02
7.200000e-07	-1.116628e-06	-7.489522e-09	-7.746743e+00	-4.937771e+02
7.300000e-07	-1.013561e-06	-7.321034e-09	-7.031703e+00	-4.829765e+02
7.400000e-07	-9.101888e-07	-7.137672e-09	-6.314544e+00	-4.713700e+02
7.500000e-07	-8.065498e-07	-6.947012e-09	-5.595536e+00	-4.588930e+02
7.600000e-07	-7.026943e-07	-6.753995e-09	-4.875026e+00	-4.455396e+02
7.700000e-07	-5.986253e-07	-6.555487e-09	-4.153035e+00	-4.313644e+02
7.800000e-07	-4.943306e-07	-6.344275e-09	-3.429478e+00	-4.164759e+02
7.900000e-07	-3.899088e-07	-6.124318e-09	-2.705039e+00	-4.010211e+02
8.000000e-07	-2.854160e-07	-5.901900e-09	-1.980108e+00	-3.851627e+02
8.100000e-07	-1.808031e-07	-5.673966e-09	-1.254343e+00	-3.690508e+02
8.200000e-07	-7.608803e-08	-5.431041e-09	-5.278698e-01	-3.527932e+02
8.300000e-07	2.869881e-08	-5.171430e-09	1.991014e-01	-3.364268e+02
8.400000e-07	1.334913e-07	-4.900505e-09	9.261121e-01	-3.198950e+02
8.500000e-07	2.381930e-07	-4.621409e-09	1.652493e+00	-3.030332e+02
8.600000e-07	3.427550e-07	-4.330049e-09	2.377904e+00	-2.855662e+02
8.700000e-07	4.471853e-07	-4.018441e-09	3.102402e+00	-2.671179e+02
8.800000e-07	5.515087e-07	-3.687215e-09	3.826157e+00	-2.472349e+02
8.900000e-07	6.556788e-07	-3.339743e-09	4.548850e+00	-2.254204e+02
9.000000e-07	7.596665e-07	-2.974284e-09	5.270277e+00	-2.011776e+02
9.100000e-07	8.634571e-07	-2.578889e-09	5.990337e+00	-1.740585e+02
9.200000e-07	9.669724e-07	-2.146856e-09	6.708487e+00	-1.437121e+02
9.300000e-07	1.070110e-06	-1.676168e-09	7.424019e+00	-1.099287e+02
9.400000e-07	1.172844e-06	-1.157383e-09	8.136745e+00	-7.267461e+01
9.500000e-07	1.275169e-06	-5.759598e-10	8.846637e+00	-3.211386e+01
9.600000e-07	1.377095e-06	7.712405e-11	9.553764e+00	1.138603e+01
9.700000e-07	1.478576e-06	7.951823e-10	1.025780e+01	5.726549e+01
9.800000e-07	1.579534e-06	1.563491e-09	1.095821e+01	1.048009e+02
9.900000e-07	1.679986e-06	2.363312e-09	1.165510e+01	1.531474e+02
1.000000e-06	1.779938e-06	3.166095e-09	1.234853e+01	2.013922e+02
1.010000e-06	1.879242e-06	3.931357e-09	1.303746e+01	2.486145e+02
1.020000e-06	1.977694e-06	4.630271e-09	1.372049e+01	2.939463e+02
1.030000e-06	2.075164e-06	5.257948e-09	1.439670e+01	3.366282e+02
1.040000e-06	2.171757e-06	5.820726e-09	1.506682e+01	3.760565e+02
1.050000e-06	2.267642e-06	6.320954e-09	1.573204e+01	4.118160e+02
1.060000e-06	2.362853e-06	6.758333e-09	1.639258e+01	4.436968e+02
1.070000e-06	2.457346e-06	7.143830e-09	1.704813e+01	4.716940e+02
1.080000e-06	2.551046e-06	7.488480e-09	1.769818e+01	4.959908e+02
1.090000e-06	2.643908e-06	7.799467e-09	1.834243e+01	5.169275e+02
1.100000e-06	2.735898e-06	8.079600e-09	1.898062e+01	5.349592e+02
1.110000e-06	2.826797e-06	8.332973e-09	1.961124e+01	5.506076e+02
1.120000e-06	2.916418e-06	8.566063e-09	2.023300e+01	5.644120e+02
1.130000e-06	3.004958e-06	8.783165e-09	2.084725e+01	5.768827e+02
1.140000e-06	3.092547e-06	8.986398e-09	2.145491e+01	5.884626e+02
1.150000e-06	3.179114e-06	9.172924e-09	2.205548e+01	5.994998e+02
1.160000e-06	3.264635e-06	9.342649e-09	2.264880e+01	6.102324e+02
1.170000e-06	3.349146e-06	9.498796e-09	2.323510e+01	6.207867e+02
1.180000e-06	3.432540e-06	9.647350e-09	2.381366e+01	6.311871e+02
1.190000e-06	3.514632e-06	9.792632e-09	2.438318e+01	6.413759e+02
1.200000e-06	3.595400e-06	9.930489e-09	2.494352e+01	6.512401e+02
1.210000e-06	3.674909e-06	1.005659e-08	2.549512e+01	6.606412e+02
1.220000e-06	3.753139e-06	1.017482e-08	2.603785e+01	6.694434e+02
1.230000e-06	3.830019e-06	1.028786e-08	2.657122e+01	6.775389e+02
1.240000e-06	3.905378e-06	1.039149e-08	2.709403e+01	6.848663e+02
1.250000e-06	3.979094e-06	1.048423e-08	2.760544e+01	6.914198e+02
1.260000e-06	4.051322e-06	1.057270e-08	2.810653e+01	6.972509e+02
1.270000e-06	4.122173e-06	1.066083e-08	2.859807e+01	7.024611e+02
1.280000e-06	4.191644e-06	1.074759e-08	2.908003e+01	7.071878e+02
1.290000e-06	4.259681e-06	1.083052e-08	2.955204e+01	7.115867e+02
1.300000e-06	4.326044e-06	1.090993e-08	3.001245e+01	7.158117e+02
1.310000e-06	4.390749e-06	1.098700e-08	3.046135e+01	7.199966e+02
1.320000e-06	4.454027e-06	1.105846e-08	3.090035e+01	7.242397e+02
1.330000e-06	4.515899e-06	1.112370e-08	3.132959e+01	7.285942e+02
1.340000e-06	4.576367e-06	1.118438e-08	3.174910e+01	7.330650e+02
1.350000e-06	4.635143e-06	1.124387e-08	3.215686e+01	7.376115e+02
1.360000e-06	4.692063e-06	1.130232e-08	3.255175e+01	7.421566e+02
1.370000e-06	4.747324e-06	1.135893e-08	3.293513e+01	7.466002e+02
1.380000e-06	4.800873e-06	1.141391e-08	3.330663e+01	7.508350e+02
1.390000e-06	4.852419e-06	1.146442e-08	3.366424e+01	7.547618e+02
1.400000e-06	4.901901e-06	1.151269e-08	3.400753e+01	7.583040e+02
1.410000e-06	4.949548e-06	1.156016e-08	3.433808e+01	7.614176e+02
1.420000e-06	4.995557e-06	1.160375e-08	3.465727e+01	7.640965e+02
1.430000e-06	5.039989e-06	1.164251e-08	3.496553e+01	7.663728e+02
1.440000e-06	5.082534e-06	1.167784e-08	3.526069e+01	7.683108e+02
1.450000e-06	5.123143e-06	1.171148e-08	3.554242e+01	7.699983e+02
1.460000e-06	5.162043e-06	1.174283e-08	3.581229e+01	7.715335e+02
1.470000e-06	5.199287e-06	1.177308e-08	3.607067e+01	7.730120e+02
1.480000e-06	5.234713e-06	1.180440e-08	3.631645e+01	7.745141e+02
1.490000e-06	5.268126e-06	1.183684e-08	3.654825e+01	7.760945e+02
1.500000e-06	5.299666e-06	1.186757e-08	3.676707e+01	7.777763e+02
1.510000e-06	5.329484e-06	1.189301e-08	3.697393e+01	7.795492e+02
1.520000e-06	5.357563e-06	1.191289e-08	3.716873e+01	7.813723e+02
1.530000e-06	5.383526e-06	1.192872e-08	3.734886e+01	7.831811e+02
1.540000e-06	5.407401e-06	1.194239e-08	3.751449e+01	7.848979e+02
1.550000e-06	5.429551e-06	1.195502e-08	3.766816e+01	7.864429e+02
1.560000e-06	5.449988e-06	1.196955e-08	3.780994e+01	7.877464e+02
1.570000e-06	5.468563e-06	1.198746e-08	3.793881e+01	7.887582e+02
1.580000e-06	5.485133e-06	1.200488e-08	3.805377e+01	7.894549e+02
1.590000e-06	5.499688e-06	1.201697e-08	3.815474e+01	7.898428e+02
1.600000e-06	5.512109e-06	1.202468e-08	3.824091e+01	7.899567e+02
1.610000e-06	5.522233e-06	1.202925e-08	3.831115e+01	7.898550e+02
1.620000e-06	5.530254e-06	1.203051e-08	3.836680e+01	7.896111e+02
1.630000e-06	5.536478e-06	1.202896e-08	3.840998e+01	7.893034e+02
1.640000e-06	5.540938e-06	1.202896e-08	3.844092e+01	7.890045e+02
1.650000e-06	5.543337e-06	1.203618e-08	3.845756e+01	7.887711e+02
1.660000e-06	5.543688e-06	1.204654e-08	3.846000e+01	7.886371e+02
1.670000e-06	5.542322e-06	1.204653e-08	3.845052e+01	7.886088e+02
1.680000e-06	5.539285e-06	1.203850e-08	3.842945e+01	7.886654e+02
1.690000e-06	5.534321e-06	1.203167e-08	3.839502e+01	7.887620e+02
1.700000e-06	5.527377e-06	1.202309e-08	3.834684e+01	7.888367e+02
1.710000e-06	5.518710e-06	1.201151e-08	3.828671e+01	7.888199e+02
1.720000e-06	5.508340e-06	1.200147e-08	3.821477e+01	7.886442e+02
1.730000e-06	5.496087e-06	1.200847e-08	3.812976e+01	7.882542e+02
1.740000e-06	5.481845e-06	1.200529e-08	3.803096e+01	7.876146e+02
1.750000e-06	5.465560e-06	1.192048e-08	3.791797e+01	7.867147e+02
1.760000e-06	5.446769e-06	1.189981e-08	3.778761e+01	7.855703e+02
1.770000e-06	5.425141e-06	1.190925e-08	3.763756e+01	7.842210e+02
1.780000e-06	5.401379e-06	1.193184e-08	3.747272e+01	7.827246e+02
1.790000e-06	5.376552e-06	1.200982e-08	3.730047e+01	7.811486e+02
1.800000e-06	5.350950e-06	1.185435e-08	3.712286e+01	7.795604e+02
1.810000e-06	5.323513e-06	1.182894e-08	3.693251e+01	7.780175e+02
1.820000e-06	5.293675e-06	1.194155e-08	3.672550e+01	7.765590e+02
1.830000e-06	5.262264e-06	1.177380e-08	3.650758e+01	7.751999e+02
1.840000e-06	5.229137e-06	1.181658e-08	3.627777e+01	7.739282e+02
1.850000e-06	5.194175e-06	1.187209e-08	3.603521e+01	7.727065e+02
1.860000e-06	5.157551e-06	1.169654e-08	3.578113e+01	7.714763e+02
1.870000e-06	5.118761e-06	1.180735e-08	3.551202e+01	7.701666e+02
1.880000e-06	5.078107e-06	1.179087e-08	3.522998e+01	7.687028e+02
1.890000e-06	5.035896e-06	1.164033e-08	3.493713e+01	7.670175e+02
1.900000e-06	4.991746e-06	1.166695e-08	3.463084e+01	7.650595e+02
1.910000e-06	4.945840e-06	1.154825e-08	3.431236e+01	7.628010e+02
1.920000e-06	4.898127e-06	1.159998e-08	3.398134e+01	7.602419e+02
1.930000e-06	4.848548e-06	1.161397e-08	3.363738e+01	7.574093e+02
1.940000e-06	4.797271e-06	1.145723e-08	3.328164e+01	7.543545e+02
1.950000e-06	4.743866e-06	1.150618e-08	3.291114e+01	7.511456e+02
1.960000e-06	4.688611e-06	1.143233e-08	3.252780e+01	7.478580e+02
1.970000e-06	4.631711e-06	1.137614e-08	3.213305e+01	7.445638e+02
1.980000e-06	4.573177e-06	1.131318e-08	3.172697e+01	7.413217e+02
1.990000e-06	4.513150e-06	1.123718e-08	3.131052e+01	7.381681e+02
2.000000e-06	4.451302e-06	1.128563e-08	3.088144e+01	7.351120e+02
2.010000e-06	4.387792e-06	1.118888e-08	3.044083e+01	7.321327e+02
2.020000e-06	4.322725e-06	1.116952e-08	2.998942e+01	7.291824e+02
2.030000e-06	4.256212e-06	1.108534e-08	2.952798e+01	7.261921e+02
2.040000e-06	4.188289e-06	1.099638e-08	2.905676e+01	7.230809e+02
2.050000e-06	4.118564e-06	1.099836e-08	2.857303e+01	7.197667e+02
2.060000e-06	4.047260e-06	1.087993e-08	2.807835e+01	7.161774e+02
2.070000e-06	3.974620e-06	1.085984e-08	2.757440e+01	7.122610e+02
2.080000e-06	3.900640e-06	1.078568e-08	2.706116e+01	7.079925e+02
2.090000e-06	3.825092e-06	1.073444e-08	2.653704e+01	7.033779e+02
2.100000e-06	3.747760e-06	1.067960e-08	2.600054e+01	6.984533e+02
2.110000e-06	3.668974e-06	1.056287e-08	2.545395e+01	6.932795e+02
2.120000e-06	3.588977e-06	1.051618e-08	2.489896e+01	6.879343e+02
2.130000e-06	3.507821e-06	1.042093e-08	2.433593e+01	6.825003e+02
2.140000e-06	3.425527e-06	1.037690e-08	2.376500e+01	6.770537e+02
2.150000e-06	3.342065e-06	1.028656e-08	2.318598e+01	6.716519e+02
2.160000e-06	3.257238e-06	1.019343e-08	2.259748e+01	6.663251e+02
2.170000e-06	3.171035e-06	1.011678e-08	2.199943e+01	6.610704e+02
2.180000e-06	3.083759e-06	1.001511e-08	2.139395e+01	6.558506e+02
2.190000e-06	2.995583e-06	9.945540e-09	2.078221e+01	6.505982e+02
2.200000e-06	2.906439e-06	9.839208e-09	2.016377e+01	6.452233e+02
2.210000e-06	2.816294e-06	9.756745e-09	1.953838e+01	6.396251e+02
2.220000e-06	2.725211e-06	9.662846e-09	1.890648e+01	6.337053e+02
2.230000e-06	2.633115e-06	9.562183e-09	1.826755e+01	6.273812e+02
2.240000e-06	2.539969e-06	9.452040e-09	1.762134e+01	6.205973e+02
2.250000e-06	2.445829e-06	9.331756e-09	1.696823e+01	6.133332e+02
2.260000e-06	2.350772e-06	9.234892e-09	1.630876e+01	6.056068e+02
2.270000e-06	2.254956e-06	9.127135e-09	1.564403e+01	5.974719e+02
2.280000e-06	2.158408e-06	9.015846e-09	1.497421e+01	5.890108e+02
2.290000e-06	2.061121e-06	8.888481e-09	1.429927e+01	5.803220e+02
2.300000e-06	1.963189e-06	8.762213e-09	1.361986e+01	5.715056e+02
2.310000e-06	1.864751e-06	8.637341e-09	1.293693e+01	5.626467e+02
2.320000e-06	1.765806e-06	8.503084e-09	1.225049e+01	5.538011e+02
2.330000e-06	1.666224e-06	8.359504e-09	1.155963e+01	5.449836e+02
2.340000e-06	1.565929e-06	8.215031e-09	1.086382e+01	5.361617e+02
2.350000e-06	1.464936e-06	8.075452e-09	1.016317e+01	5.272555e+02
2.360000e-06	1.363362e-06	7.927247e-09	9.458486e+00	5.181444e+02
2.370000e-06	1.261204e-06	7.766163e-09	8.749752e+00	5.086796e+02
2.380000e-06	1.158480e-06	7.594439e-09	8.037093e+00	4.987018e+02
2.390000e-06	1.055358e-06	7.425846e-09	7.321674e+00	4.880602e+02
2.400000e-06	9.518943e-07	7.256002e-09	6.603881e+00	4.766334e+02
2.410000e-06	8.480844e-07	7.077129e-09	5.883687e+00	4.643453e+02
2.420000e-06	7.439869e-07	6.885108e-09	5.161498e+00	4.511769e+02
2.430000e-06	6.397059e-07	6.682811e-09	4.438036e+00	4.371700e+02
2.440000e-06	5.352406e-07	6.474112e-09	3.713296e+00	4.224227e+02
2.450000e-06	4.305736e-07	6.257388e-09	2.987156e+00	4.070755e+02
2.460000e-06	3.257685e-07	6.030124e-09	2.260058e+00	3.912898e+02
2.470000e-06	2.208422e-07	5.793750e-09	1.532119e+00	3.752210e+02
2.480000e-06	1.158838e-07	5.554216e-09	8.039577e-01	3.589884e+02
2.490000e-06	1.091320e-08	5.306540e-09	7.571161e-02	3.426463e+02
2.500000e-06	-9.411313e-08	5.042631e-09	-6.529211e-01	3.261597e+02
2.510000e-06	-1.991015e-07	4.759806e-09	-1.381291e+00	3.093878e+02
2.520000e-06	-3.039781e-07	4.464838e-09	-2.108885e+00	2.920787e+02
2.530000e-06	-4.087644e-07	4.159834e-09	-2.835852e+00	2.738764e+02
2.540000e-06	-5.134423e-07	3.835842e-09	-3.562067e+00	2.543416e+02
2.550000e-06	-6.179108e-07	3.489382e-09	-4.286830e+00	2.329832e+02
2.560000e-06	-7.221005e-07	3.123852e-09	-5.009659e+00	2.093006e+02
2.570000e-06	-8.260321e-07	2.738040e-09	-5.730697e+00	1.828312e+02
2.580000e-06	-9.296604e-07	2.322795e-09	-6.449631e+00	1.531991e+02
2.590000e-06	-1.032942e-06	1.865347e-09	-7.166158e+00	1.201612e+02
2.600000e-06	-1.135852e-06	1.358718e-09	-7.880107e+00	8.364370e+01
2.610000e-06	-1.238337e-06	7.982612e-10	-8.591113e+00	4.376719e+01
2.620000e-06	-1.340326e-06	1.760523e-10	-9.298676e+00	8.559604e-01
2.630000e-06	-1.441740e-06	-5.162943e-10	-1.000224e+01	-4.456974e+01
2.640000e-06	-1.542530e-06	-1.273055e-09	-1.070149e+01	-9.181836e+01
2.650000e-06	-1.642644e-06	-2.068161e-09	-1.139604e+01	-1.400668e+02
2.660000e-06	-1.742112e-06	-2.870837e-09	-1.208611e+01	-1.884118e+02
2.670000e-06	-1.840969e-06	-3.651176e-09	-1.277195e+01	-2.359292e+02
2.680000e-06	-1.939216e-06	-4.383335e-09	-1.345354e+01	-2.817348e+02
2.690000e-06	-2.036827e-06	-5.047405e-09	-1.413073e+01	-3.250415e+02
2.700000e-06	-2.133775e-06	-5.634360e-09	-1.480332e+01	-3.652091e+02
2.710000e-06	-2.230059e-06	-6.149061e-09	-1.547130e+01	-4.017798e+02
2.720000e-06	-2.325676e-06	-6.605873e-09	-1.613466e+01	-4.344992e+02
2.730000e-06	-2.420601e-06	-7.012055e-09	-1.679321e+01	-4.633195e+02
2.740000e-06	-2.514710e-06	-7.369596e-09	-1.744611e+01	-4.883856e+02
2.750000e-06	-2.607824e-06	-7.688031e-09	-1.809209e+01	-5.100075e+02
2.760000e-06	-2.699779e-06	-7.981913e-09	-1.873004e+01	-5.286196e+02
2.770000e-06	-2.790659e-06	-8.254297e-09	-1.936053e+01	-5.447334e+02
2.780000e-06	-2.880551e-06	-8.498807e-09	-1.998417e+01	-5.588887e+02
2.790000e-06	-2.969395e-06	-8.718773e-09	-2.060054e+01	-5.716053e+02
2.800000e-06	-3.057257e-06	-8.922007e-09	-2.121008e+01	-5.833435e+02
2.810000e-06	-3.144166e-06	-9.113952e-09	-2.181303e+01	-5.944734e+02
2.820000e-06	-3.229925e-06	-9.292415e-09	-2.240799e+01	-6.052572e+02
2.830000e-06	-3.314342e-06	-9.455494e-09	-2.299364e+01	-6.158447e+02
2.840000e-06	-3.397548e-06	-9.609268e-09	-2.357090e+01	-6.262807e+02
2.850000e-06	-3.479630e-06	-9.756723e-09	-2.414035e+01	-6.365232e+02
2.860000e-06	-3.560529e-06	-9.896179e-09	-2.470160e+01	-6.464685e+02
2.870000e-06	-3.640229e-06	-1.002351e-08	-2.525452e+01	-6.559811e+02
2.880000e-06	-3.718649e-06	-1.013981e-08	-2.579857e+01	-6.649222e+02
2.890000e-06	-3.795589e-06	-1.025036e-08	-2.633236e+01	-6.731764e+02
2.900000e-06	-3.870932e-06	-1.035564e-08	-2.685506e+01	-6.806711e+02
2.910000e-06	-3.944828e-06	-1.045375e-08	-2.736772e+01	-6.873882e+02
2.920000e-06	-4.017340e-06	-1.054756e-08	-2.787078e+01	-6.933674e+02
2.930000e-06	-4.088492e-06	-1.063968e-08	-2.836441e+01	-6.987003e+02
2.940000e-06	-4.158210e-06	-1.072808e-08	-2.884808e+01	-7.035181e+02
