# Temperatura_=_50.55
# Concentracion g/m^3_=_15500.0
# C_Vs_to_Am_M_A/Vsm_=_65563218390.804596
# pendiente_HvsI_1/m_=_3716.3
# ordenada_HvsI_A/m_=_1297.0
# frecuencia_Hz_=_300798.65769894974

Tiempo_(s)	Campo_(V.s)	Magnetizacion_(V.s)	Campo_(kA/m)	Magnetizacion_(A/m)
0.000000e+00	-5.505928e-06	-1.243410e-08	-3.830800e+01	-8.137737e+02
1.000000e-08	-5.504220e-06	-1.243783e-08	-3.829612e+01	-8.139919e+02
2.000000e-08	-5.500551e-06	-1.243607e-08	-3.827059e+01	-8.142551e+02
3.000000e-08	-5.495135e-06	-1.243141e-08	-3.823291e+01	-8.144856e+02
4.000000e-08	-5.488118e-06	-1.242289e-08	-3.818409e+01	-8.145979e+02
5.000000e-08	-5.479459e-06	-1.240675e-08	-3.812384e+01	-8.145107e+02
6.000000e-08	-5.468815e-06	-1.238735e-08	-3.804979e+01	-8.141584e+02
7.000000e-08	-5.456093e-06	-1.235887e-08	-3.796127e+01	-8.135002e+02
8.000000e-08	-5.441432e-06	-1.233306e-08	-3.785927e+01	-8.125261e+02
9.000000e-08	-5.424421e-06	-1.240847e-08	-3.774091e+01	-8.112576e+02
1.000000e-07	-5.405017e-06	-1.244795e-08	-3.760591e+01	-8.097451e+02
1.100000e-07	-5.383583e-06	-1.238119e-08	-3.745678e+01	-8.080601e+02
1.200000e-07	-5.360308e-06	-1.235807e-08	-3.729484e+01	-8.062856e+02
1.300000e-07	-5.335587e-06	-1.222993e-08	-3.712283e+01	-8.045038e+02
1.400000e-07	-5.309442e-06	-1.216045e-08	-3.694093e+01	-8.027847e+02
1.500000e-07	-5.281445e-06	-1.235050e-08	-3.674614e+01	-8.011761e+02
1.600000e-07	-5.251664e-06	-1.218125e-08	-3.653894e+01	-7.996963e+02
1.700000e-07	-5.220346e-06	-1.211491e-08	-3.632104e+01	-7.983318e+02
1.800000e-07	-5.187126e-06	-1.232274e-08	-3.608991e+01	-7.970385e+02
1.900000e-07	-5.151824e-06	-1.213079e-08	-3.584429e+01	-7.957479e+02
2.000000e-07	-5.114948e-06	-1.211861e-08	-3.558772e+01	-7.943763e+02
2.100000e-07	-5.076392e-06	-1.215304e-08	-3.531946e+01	-7.928361e+02
2.200000e-07	-5.036027e-06	-1.194674e-08	-3.503862e+01	-7.910484e+02
2.300000e-07	-4.993770e-06	-1.199737e-08	-3.474462e+01	-7.889535e+02
2.400000e-07	-4.949465e-06	-1.202551e-08	-3.443636e+01	-7.865194e+02
2.500000e-07	-4.903440e-06	-1.195206e-08	-3.411613e+01	-7.837463e+02
2.600000e-07	-4.855652e-06	-1.194751e-08	-3.378365e+01	-7.806665e+02
2.700000e-07	-4.805808e-06	-1.181511e-08	-3.343685e+01	-7.773404e+02
2.800000e-07	-4.753836e-06	-1.179501e-08	-3.307525e+01	-7.738476e+02
2.900000e-07	-4.699914e-06	-1.178133e-08	-3.270008e+01	-7.702760e+02
3.000000e-07	-4.644318e-06	-1.170744e-08	-3.231327e+01	-7.667094e+02
3.100000e-07	-4.587100e-06	-1.166075e-08	-3.191517e+01	-7.632154e+02
3.200000e-07	-4.528048e-06	-1.162497e-08	-3.150431e+01	-7.598357e+02
3.300000e-07	-4.467346e-06	-1.162363e-08	-3.108197e+01	-7.565799e+02
3.400000e-07	-4.405210e-06	-1.151523e-08	-3.064966e+01	-7.534233e+02
3.500000e-07	-4.341588e-06	-1.144165e-08	-3.020700e+01	-7.503102e+02
3.600000e-07	-4.276505e-06	-1.138444e-08	-2.975418e+01	-7.471606e+02
3.700000e-07	-4.209700e-06	-1.131697e-08	-2.928938e+01	-7.438815e+02
3.800000e-07	-4.141165e-06	-1.131188e-08	-2.881254e+01	-7.403793e+02
3.900000e-07	-4.071146e-06	-1.122656e-08	-2.832537e+01	-7.365728e+02
4.000000e-07	-3.999789e-06	-1.114363e-08	-2.782890e+01	-7.324046e+02
4.100000e-07	-3.927241e-06	-1.109046e-08	-2.732414e+01	-7.278492e+02
4.200000e-07	-3.853336e-06	-1.102190e-08	-2.680994e+01	-7.229170e+02
4.300000e-07	-3.777716e-06	-1.094365e-08	-2.628380e+01	-7.176532e+02
4.400000e-07	-3.700411e-06	-1.083955e-08	-2.574595e+01	-7.121312e+02
4.500000e-07	-3.621707e-06	-1.077813e-08	-2.519836e+01	-7.064429e+02
4.600000e-07	-3.541472e-06	-1.071544e-08	-2.464012e+01	-7.006854e+02
4.700000e-07	-3.459830e-06	-1.064198e-08	-2.407209e+01	-6.949465e+02
4.800000e-07	-3.377016e-06	-1.055025e-08	-2.349590e+01	-6.892922e+02
4.900000e-07	-3.293031e-06	-1.044532e-08	-2.291157e+01	-6.837555e+02
5.000000e-07	-3.208080e-06	-1.037303e-08	-2.232051e+01	-6.783309e+02
5.100000e-07	-3.122166e-06	-1.028745e-08	-2.172275e+01	-6.729731e+02
5.200000e-07	-3.035241e-06	-1.019116e-08	-2.111797e+01	-6.676020e+02
5.300000e-07	-2.947363e-06	-1.008390e-08	-2.050655e+01	-6.621123e+02
5.400000e-07	-2.858581e-06	-9.987339e-09	-1.988884e+01	-6.563872e+02
5.500000e-07	-2.768817e-06	-9.897485e-09	-1.926430e+01	-6.503137e+02
5.600000e-07	-2.677764e-06	-9.783239e-09	-1.863079e+01	-6.437984e+02
5.700000e-07	-2.585511e-06	-9.662868e-09	-1.798893e+01	-6.367803e+02
5.800000e-07	-2.492432e-06	-9.546302e-09	-1.734133e+01	-6.292399e+02
5.900000e-07	-2.398641e-06	-9.449739e-09	-1.668877e+01	-6.212025e+02
6.000000e-07	-2.304049e-06	-9.342895e-09	-1.603063e+01	-6.127352e+02
6.100000e-07	-2.208646e-06	-9.216313e-09	-1.536686e+01	-6.039372e+02
6.200000e-07	-2.112482e-06	-9.084518e-09	-1.469779e+01	-5.949264e+02
6.300000e-07	-2.015600e-06	-8.954234e-09	-1.402372e+01	-5.858209e+02
6.400000e-07	-1.918021e-06	-8.824242e-09	-1.334481e+01	-5.767209e+02
6.500000e-07	-1.819575e-06	-8.677324e-09	-1.265986e+01	-5.676915e+02
6.600000e-07	-1.720239e-06	-8.529149e-09	-1.196872e+01	-5.587497e+02
6.700000e-07	-1.620218e-06	-8.390421e-09	-1.127281e+01	-5.498574e+02
6.800000e-07	-1.519717e-06	-8.254070e-09	-1.057357e+01	-5.409220e+02
6.900000e-07	-1.418793e-06	-8.098372e-09	-9.871384e+00	-5.318044e+02
7.000000e-07	-1.317369e-06	-7.926665e-09	-9.165719e+00	-5.223339e+02
7.100000e-07	-1.215463e-06	-7.755589e-09	-8.456695e+00	-5.123288e+02
7.200000e-07	-1.113168e-06	-7.585531e-09	-7.744972e+00	-5.016194e+02
7.300000e-07	-1.010501e-06	-7.406901e-09	-7.030653e+00	-4.900707e+02
7.400000e-07	-9.074358e-07	-7.214929e-09	-6.313568e+00	-4.776014e+02
7.500000e-07	-8.040489e-07	-7.020799e-09	-5.594244e+00	-4.641969e+02
7.600000e-07	-7.004109e-07	-6.825708e-09	-4.873173e+00	-4.499129e+02
7.700000e-07	-5.965277e-07	-6.622057e-09	-4.150397e+00	-4.348691e+02
7.800000e-07	-4.924285e-07	-6.401668e-09	-3.426117e+00	-4.192329e+02
7.900000e-07	-3.881854e-07	-6.171805e-09	-2.700835e+00	-4.031937e+02
8.000000e-07	-2.838539e-07	-5.941430e-09	-1.974940e+00	-3.869318e+02
8.100000e-07	-1.794237e-07	-5.704264e-09	-1.248357e+00	-3.705832e+02
8.200000e-07	-7.489604e-08	-5.450160e-09	-5.210961e-01	-3.542066e+02
8.300000e-07	2.967449e-08	-5.178344e-09	2.064630e-01	-3.377559e+02
8.400000e-07	1.342100e-07	-4.894048e-09	9.337788e-01	-3.210618e+02
8.500000e-07	2.386554e-07	-4.596867e-09	1.660467e+00	-3.038270e+02
8.600000e-07	3.430123e-07	-4.283258e-09	2.386540e+00	-2.856353e+02
8.700000e-07	4.472552e-07	-3.947738e-09	3.111819e+00	-2.659762e+02
8.800000e-07	5.513477e-07	-3.595430e-09	3.836052e+00	-2.442828e+02
8.900000e-07	6.552955e-07	-3.228094e-09	4.559279e+00	-2.199805e+02
9.000000e-07	7.590295e-07	-2.835318e-09	5.281018e+00	-1.925423e+02
9.100000e-07	8.624912e-07	-2.400221e-09	6.000862e+00	-1.615445e+02
9.200000e-07	9.656497e-07	-1.914052e-09	6.718597e+00	-1.267188e+02
9.300000e-07	1.068457e-06	-1.376349e-09	7.433888e+00	-8.799333e+01
9.400000e-07	1.170907e-06	-7.775849e-10	8.146690e+00	-4.551999e+01
9.500000e-07	1.272973e-06	-1.030930e-10	8.856824e+00	3.170608e-01
9.600000e-07	1.374583e-06	6.540251e-10	9.563790e+00	4.891204e+01
9.700000e-07	1.475737e-06	1.476927e-09	1.026758e+01	9.946774e+01
9.800000e-07	1.576470e-06	2.337012e-09	1.096844e+01	1.510427e+02
9.900000e-07	1.676720e-06	3.198958e-09	1.166594e+01	2.026117e+02
1.000000e-06	1.776331e-06	4.026286e-09	1.235899e+01	2.531337e+02
1.010000e-06	1.875145e-06	4.785952e-09	1.304649e+01	3.016217e+02
1.020000e-06	1.973100e-06	5.459852e-09	1.372803e+01	3.472083e+02
1.030000e-06	2.070255e-06	6.053365e-09	1.440399e+01	3.891998e+02
1.040000e-06	2.166644e-06	6.575586e-09	1.507462e+01	4.271160e+02
1.050000e-06	2.262323e-06	7.029947e-09	1.574032e+01	4.607110e+02
1.060000e-06	2.357336e-06	7.420620e-09	1.640138e+01	4.899747e+02
1.070000e-06	2.451582e-06	7.765214e-09	1.705710e+01	5.151140e+02
1.080000e-06	2.545000e-06	8.077379e-09	1.770707e+01	5.365183e+02
1.090000e-06	2.637587e-06	8.363020e-09	1.835125e+01	5.547118e+02
1.100000e-06	2.729180e-06	8.621089e-09	1.898852e+01	5.702975e+02
1.110000e-06	2.819649e-06	8.856160e-09	1.961797e+01	5.839002e+02
1.120000e-06	2.909061e-06	9.075356e-09	2.024006e+01	5.961127e+02
1.130000e-06	2.997455e-06	9.282198e-09	2.085507e+01	6.074498e+02
1.140000e-06	3.084831e-06	9.476412e-09	2.146300e+01	6.183163e+02
1.150000e-06	3.171186e-06	9.651037e-09	2.206382e+01	6.289877e+02
1.160000e-06	3.256505e-06	9.807843e-09	2.265743e+01	6.396075e+02
1.170000e-06	3.340750e-06	9.953379e-09	2.324358e+01	6.501984e+02
1.180000e-06	3.423843e-06	1.009493e-08	2.382171e+01	6.606847e+02
1.190000e-06	3.505632e-06	1.023276e-08	2.439075e+01	6.709236e+02
1.200000e-06	3.586066e-06	1.036260e-08	2.495039e+01	6.807396e+02
1.210000e-06	3.665243e-06	1.048500e-08	2.550127e+01	6.899591e+02
1.220000e-06	3.743207e-06	1.060367e-08	2.604371e+01	6.984403e+02
1.230000e-06	3.819849e-06	1.071500e-08	2.657695e+01	7.060952e+02
1.240000e-06	3.894905e-06	1.081308e-08	2.709916e+01	7.129023e+02
1.250000e-06	3.968317e-06	1.090240e-08	2.760993e+01	7.189089e+02
1.260000e-06	4.040261e-06	1.099061e-08	2.811049e+01	7.242232e+02
1.270000e-06	4.110833e-06	1.107848e-08	2.860150e+01	7.289994e+02
1.280000e-06	4.180097e-06	1.116209e-08	2.908341e+01	7.334158e+02
1.290000e-06	4.247960e-06	1.124135e-08	2.955557e+01	7.376523e+02
1.300000e-06	4.314165e-06	1.132050e-08	3.001620e+01	7.418679e+02
1.310000e-06	4.378722e-06	1.139810e-08	3.046536e+01	7.461817e+02
1.320000e-06	4.441783e-06	1.146933e-08	3.090411e+01	7.506617e+02
1.330000e-06	4.503421e-06	1.153451e-08	3.133297e+01	7.553188e+02
1.340000e-06	4.563632e-06	1.159812e-08	3.175189e+01	7.601102e+02
1.350000e-06	4.622187e-06	1.166145e-08	3.215929e+01	7.649490e+02
1.360000e-06	4.678977e-06	1.171985e-08	3.255441e+01	7.697191e+02
1.370000e-06	4.734089e-06	1.177146e-08	3.293786e+01	7.742935e+02
1.380000e-06	4.787447e-06	1.182135e-08	3.330910e+01	7.785532e+02
1.390000e-06	4.838784e-06	1.187305e-08	3.366629e+01	7.824035e+02
1.400000e-06	4.888041e-06	1.192523e-08	3.400900e+01	7.857867e+02
1.410000e-06	4.935524e-06	1.197338e-08	3.433937e+01	7.886891e+02
1.420000e-06	4.981408e-06	1.201523e-08	3.465860e+01	7.911419e+02
1.430000e-06	5.025663e-06	1.205438e-08	3.496651e+01	7.932150e+02
1.440000e-06	5.068041e-06	1.209242e-08	3.526136e+01	7.950070e+02
1.450000e-06	5.108501e-06	1.212676e-08	3.554286e+01	7.966306e+02
1.460000e-06	5.147259e-06	1.215676e-08	3.581253e+01	7.981971e+02
1.470000e-06	5.184420e-06	1.218827e-08	3.607108e+01	7.998014e+02
1.480000e-06	5.219773e-06	1.222351e-08	3.631705e+01	8.015097e+02
1.490000e-06	5.253093e-06	1.225619e-08	3.654888e+01	8.033519e+02
1.500000e-06	5.284540e-06	1.228182e-08	3.676768e+01	8.053188e+02
1.510000e-06	5.314303e-06	1.230329e-08	3.697475e+01	8.073651e+02
1.520000e-06	5.342294e-06	1.232469e-08	3.716950e+01	8.094172e+02
1.530000e-06	5.368191e-06	1.234380e-08	3.734968e+01	8.113844e+02
1.540000e-06	5.392041e-06	1.235959e-08	3.751562e+01	8.131731e+02
1.550000e-06	5.414115e-06	1.237486e-08	3.766921e+01	8.146997e+02
1.560000e-06	5.434513e-06	1.239181e-08	3.781113e+01	8.159030e+02
1.570000e-06	5.452987e-06	1.240880e-08	3.793966e+01	8.167527e+02
1.580000e-06	5.469366e-06	1.242137e-08	3.805362e+01	8.172532e+02
1.590000e-06	5.483829e-06	1.243027e-08	3.815425e+01	8.174427e+02
1.600000e-06	5.496222e-06	1.243824e-08	3.824047e+01	8.173877e+02
1.610000e-06	5.506288e-06	1.244392e-08	3.831051e+01	8.171734e+02
1.620000e-06	5.514300e-06	1.244732e-08	3.836625e+01	8.168918e+02
1.630000e-06	5.520537e-06	1.244977e-08	3.840964e+01	8.166288e+02
1.640000e-06	5.524974e-06	1.245317e-08	3.844051e+01	8.164524e+02
1.650000e-06	5.527403e-06	1.245959e-08	3.845741e+01	8.164038e+02
1.660000e-06	5.527774e-06	1.246807e-08	3.846000e+01	8.164919e+02
1.670000e-06	5.526346e-06	1.246452e-08	3.845006e+01	8.166926e+02
1.680000e-06	5.523259e-06	1.245566e-08	3.842858e+01	8.169528e+02
1.690000e-06	5.518252e-06	1.244950e-08	3.839375e+01	8.171979e+02
1.700000e-06	5.511274e-06	1.244145e-08	3.834520e+01	8.173433e+02
1.710000e-06	5.502641e-06	1.243088e-08	3.828513e+01	8.173056e+02
1.720000e-06	5.492399e-06	1.242349e-08	3.821387e+01	8.170150e+02
1.730000e-06	5.480230e-06	1.244612e-08	3.812920e+01	8.164248e+02
1.740000e-06	5.466017e-06	1.243260e-08	3.803032e+01	8.155182e+02
1.750000e-06	5.449859e-06	1.230177e-08	3.791790e+01	8.143100e+02
1.760000e-06	5.431190e-06	1.229143e-08	3.778801e+01	8.128448e+02
1.770000e-06	5.409639e-06	1.230395e-08	3.763806e+01	8.111905e+02
1.780000e-06	5.385964e-06	1.235556e-08	3.747334e+01	8.094286e+02
1.790000e-06	5.361237e-06	1.246216e-08	3.730130e+01	8.076424e+02
1.800000e-06	5.335745e-06	1.219617e-08	3.712394e+01	8.059056e+02
1.810000e-06	5.308359e-06	1.223480e-08	3.693340e+01	8.042712e+02
1.820000e-06	5.278481e-06	1.239347e-08	3.672552e+01	8.027644e+02
1.830000e-06	5.247086e-06	1.209003e-08	3.650708e+01	8.013784e+02
1.840000e-06	5.214016e-06	1.222024e-08	3.627700e+01	8.000755e+02
1.850000e-06	5.179128e-06	1.228582e-08	3.603426e+01	7.987915e+02
1.860000e-06	5.142588e-06	1.201634e-08	3.578003e+01	7.974452e+02
1.870000e-06	5.103878e-06	1.223486e-08	3.551070e+01	7.959488e+02
1.880000e-06	5.063402e-06	1.216747e-08	3.522909e+01	7.942205e+02
1.890000e-06	5.021342e-06	1.198104e-08	3.493645e+01	7.921957e+02
1.900000e-06	4.977250e-06	1.205830e-08	3.462968e+01	7.898359e+02
1.910000e-06	4.931401e-06	1.185527e-08	3.431068e+01	7.871343e+02
1.920000e-06	4.883760e-06	1.197371e-08	3.397921e+01	7.841166e+02
1.930000e-06	4.834334e-06	1.197839e-08	3.363532e+01	7.808376e+02
1.940000e-06	4.783220e-06	1.178155e-08	3.327969e+01	7.773738e+02
1.950000e-06	4.729871e-06	1.187655e-08	3.290851e+01	7.738122e+02
1.960000e-06	4.674671e-06	1.174992e-08	3.252445e+01	7.702386e+02
1.970000e-06	4.617860e-06	1.172690e-08	3.212918e+01	7.667250e+02
1.980000e-06	4.559424e-06	1.163297e-08	3.172261e+01	7.633194e+02
1.990000e-06	4.499513e-06	1.154838e-08	3.130578e+01	7.600385e+02
2.000000e-06	4.437762e-06	1.162773e-08	3.087614e+01	7.568650e+02
2.010000e-06	4.374421e-06	1.147304e-08	3.043544e+01	7.537491e+02
2.020000e-06	4.309596e-06	1.150011e-08	2.998441e+01	7.506154e+02
2.030000e-06	4.243279e-06	1.137603e-08	2.952300e+01	7.473727e+02
2.040000e-06	4.175518e-06	1.128349e-08	2.905155e+01	7.439263e+02
2.050000e-06	4.105912e-06	1.130388e-08	2.856726e+01	7.401913e+02
2.060000e-06	4.034787e-06	1.114514e-08	2.807240e+01	7.361045e+02
2.070000e-06	3.962416e-06	1.115465e-08	2.756888e+01	7.316329e+02
2.080000e-06	3.888667e-06	1.104535e-08	2.705576e+01	7.267794e+02
2.090000e-06	3.813372e-06	1.101807e-08	2.653189e+01	7.215818e+02
2.100000e-06	3.736248e-06	1.095871e-08	2.599529e+01	7.161083e+02
2.110000e-06	3.657564e-06	1.082460e-08	2.544784e+01	7.104480e+02
2.120000e-06	3.577673e-06	1.077782e-08	2.489199e+01	7.046979e+02
2.130000e-06	3.496680e-06	1.064625e-08	2.432847e+01	6.989491e+02
2.140000e-06	3.414600e-06	1.062513e-08	2.375739e+01	6.932732e+02
2.150000e-06	3.331424e-06	1.052018e-08	2.317869e+01	6.877109e+02
2.160000e-06	3.246952e-06	1.043715e-08	2.259097e+01	6.822653e+02
2.170000e-06	3.160979e-06	1.035979e-08	2.199280e+01	6.768994e+02
2.180000e-06	3.073864e-06	1.024718e-08	2.138669e+01	6.715399e+02
2.190000e-06	2.985851e-06	1.017392e-08	2.077433e+01	6.660858e+02
2.200000e-06	2.896898e-06	1.004049e-08	2.015544e+01	6.604216e+02
2.210000e-06	2.806953e-06	9.959937e-09	1.952964e+01	6.544320e+02
2.220000e-06	2.716099e-06	9.859100e-09	1.889751e+01	6.480183e+02
2.230000e-06	2.624408e-06	9.770101e-09	1.825956e+01	6.411116e+02
2.240000e-06	2.531625e-06	9.657035e-09	1.761401e+01	6.336831e+02
2.250000e-06	2.437657e-06	9.526867e-09	1.696022e+01	6.257484e+02
2.260000e-06	2.342785e-06	9.423234e-09	1.630014e+01	6.173663e+02
2.270000e-06	2.247261e-06	9.303788e-09	1.563553e+01	6.086302e+02
2.280000e-06	2.150974e-06	9.191538e-09	1.496560e+01	5.996553e+02
2.290000e-06	2.053940e-06	9.054373e-09	1.429047e+01	5.905613e+02
2.300000e-06	1.956287e-06	8.924320e-09	1.361105e+01	5.814537e+02
2.310000e-06	1.858017e-06	8.792350e-09	1.292733e+01	5.724065e+02
2.320000e-06	1.759178e-06	8.653572e-09	1.223964e+01	5.634477e+02
2.330000e-06	1.659837e-06	8.505513e-09	1.154847e+01	5.545514e+02
2.340000e-06	1.559992e-06	8.353834e-09	1.085379e+01	5.456361e+02
2.350000e-06	1.459509e-06	8.207563e-09	1.015467e+01	5.365716e+02
2.360000e-06	1.358303e-06	8.051023e-09	9.450516e+00	5.271925e+02
2.370000e-06	1.256409e-06	7.883385e-09	8.741580e+00	5.173176e+02
2.380000e-06	1.153970e-06	7.706104e-09	8.028852e+00	5.067725e+02
2.390000e-06	1.051158e-06	7.532501e-09	7.313532e+00	4.954131e+02
2.400000e-06	9.480000e-07	7.353988e-09	6.595797e+00	4.831452e+02
2.410000e-06	8.444997e-07	7.165485e-09	5.875685e+00	4.699394e+02
2.420000e-06	7.407622e-07	6.965986e-09	5.153921e+00	4.558363e+02
2.430000e-06	6.368147e-07	6.757379e-09	4.430697e+00	4.409431e+02
2.440000e-06	5.326568e-07	6.539767e-09	3.706009e+00	4.254186e+02
2.450000e-06	4.283215e-07	6.315712e-09	2.980086e+00	4.094503e+02
2.460000e-06	3.237989e-07	6.084347e-09	2.252861e+00	3.932232e+02
2.470000e-06	2.191246e-07	5.843077e-09	1.524579e+00	3.768856e+02
2.480000e-06	1.143993e-07	5.592243e-09	7.959434e-01	3.605155e+02
2.490000e-06	9.698626e-09	5.328767e-09	6.747908e-02	3.440911e+02
2.500000e-06	-9.496535e-08	5.050316e-09	-6.607302e-01	3.274704e+02
2.510000e-06	-1.995381e-07	4.754464e-09	-1.388305e+00	3.103833e+02
2.520000e-06	-3.040219e-07	4.445662e-09	-2.115260e+00	2.924375e+02
2.530000e-06	-4.084403e-07	4.123938e-09	-2.841761e+00	2.731398e+02
2.540000e-06	-5.127404e-07	3.780086e-09	-3.567439e+00	2.519318e+02
2.550000e-06	-6.169066e-07	3.408642e-09	-4.292184e+00	2.282359e+02
2.560000e-06	-7.208756e-07	3.014272e-09	-5.015559e+00	2.015102e+02
2.570000e-06	-8.245716e-07	2.591833e-09	-5.737033e+00	1.713043e+02
2.580000e-06	-9.279543e-07	2.128394e-09	-6.456328e+00	1.373127e+02
2.590000e-06	-1.031010e-06	1.613580e-09	-7.173348e+00	9.941853e+01
2.600000e-06	-1.133681e-06	1.038916e-09	-7.887693e+00	5.772439e+01
2.610000e-06	-1.235842e-06	3.937218e-10	-8.598484e+00	1.256488e+01
2.620000e-06	-1.337500e-06	-3.325151e-10	-9.305780e+00	-3.549979e+01
2.630000e-06	-1.438556e-06	-1.136105e-09	-1.000889e+01	-8.570998e+01
2.640000e-06	-1.538904e-06	-1.992817e-09	-1.070706e+01	-1.371505e+02
2.650000e-06	-1.638686e-06	-2.864844e-09	-1.140131e+01	-1.888084e+02
2.660000e-06	-1.737921e-06	-3.713160e-09	-1.209174e+01	-2.396401e+02
2.670000e-06	-1.836544e-06	-4.503156e-09	-1.277792e+01	-2.886415e+02
2.680000e-06	-1.934489e-06	-5.214641e-09	-1.345938e+01	-3.349144e+02
2.690000e-06	-2.031794e-06	-5.841204e-09	-1.413639e+01	-3.777238e+02
2.700000e-06	-2.128465e-06	-6.385944e-09	-1.480899e+01	-4.165416e+02
2.710000e-06	-2.224464e-06	-6.859641e-09	-1.547692e+01	-4.510708e+02
2.720000e-06	-2.319822e-06	-7.276197e-09	-1.614038e+01	-4.812516e+02
2.730000e-06	-2.414437e-06	-7.642730e-09	-1.679867e+01	-5.072469e+02
2.740000e-06	-2.508169e-06	-7.967203e-09	-1.745082e+01	-5.294108e+02
2.750000e-06	-2.600874e-06	-8.261602e-09	-1.809582e+01	-5.482428e+02
2.760000e-06	-2.692509e-06	-8.531664e-09	-1.873338e+01	-5.643341e+02
2.770000e-06	-2.783149e-06	-8.778168e-09	-1.936402e+01	-5.783094e+02
2.780000e-06	-2.872770e-06	-9.002402e-09	-1.998756e+01	-5.907727e+02
2.790000e-06	-2.961349e-06	-9.211503e-09	-2.060386e+01	-6.022586e+02
2.800000e-06	-3.049003e-06	-9.407160e-09	-2.121372e+01	-6.131977e+02
2.810000e-06	-3.135722e-06	-9.585663e-09	-2.181708e+01	-6.238938e+02
2.820000e-06	-3.221225e-06	-9.749015e-09	-2.241197e+01	-6.345184e+02
2.830000e-06	-3.305373e-06	-9.903502e-09	-2.299744e+01	-6.451185e+02
2.840000e-06	-3.388325e-06	-1.005277e-08	-2.357458e+01	-6.556369e+02
2.850000e-06	-3.470161e-06	-1.019234e-08	-2.414396e+01	-6.659424e+02
2.860000e-06	-3.550890e-06	-1.032065e-08	-2.470565e+01	-6.758637e+02
2.870000e-06	-3.630492e-06	-1.044121e-08	-2.525948e+01	-6.852239e+02
2.880000e-06	-3.708787e-06	-1.055814e-08	-2.580423e+01	-6.938723e+02
2.890000e-06	-3.785469e-06	-1.066913e-08	-2.633775e+01	-7.017079e+02
2.900000e-06	-3.860576e-06	-1.076953e-08	-2.686031e+01	-7.086945e+02
2.910000e-06	-3.934317e-06	-1.086324e-08	-2.737337e+01	-7.148648e+02
2.920000e-06	-4.006712e-06	-1.095899e-08	-2.787707e+01	-7.203153e+02
2.930000e-06	-4.077763e-06	-1.105463e-08	-2.837141e+01	-7.251917e+02
2.940000e-06	-4.147249e-06	-1.114014e-08	-2.885487e+01	-7.296692e+02
