# Temperatura_=_60.61
# Concentracion g/m^3_=_15500.0
# C_Vs_to_Am_M_A/Vsm_=_65563218390.804596
# pendiente_HvsI_1/m_=_3716.3
# ordenada_HvsI_A/m_=_1297.0
# frecuencia_Hz_=_300797.9118680444

Tiempo_(s)	Campo_(V.s)	Magnetizacion_(V.s)	Campo_(kA/m)	Magnetizacion_(A/m)
0.000000e+00	-5.485942e-06	-1.255162e-08	-3.830792e+01	-8.218806e+02
1.000000e-08	-5.483737e-06	-1.255709e-08	-3.829253e+01	-8.220744e+02
2.000000e-08	-5.479619e-06	-1.255596e-08	-3.826377e+01	-8.222786e+02
3.000000e-08	-5.473836e-06	-1.254684e-08	-3.822339e+01	-8.224113e+02
4.000000e-08	-5.466428e-06	-1.253029e-08	-3.817166e+01	-8.223885e+02
5.000000e-08	-5.457365e-06	-1.251074e-08	-3.810837e+01	-8.221357e+02
6.000000e-08	-5.446290e-06	-1.249170e-08	-3.803104e+01	-8.215991e+02
7.000000e-08	-5.433139e-06	-1.245755e-08	-3.793920e+01	-8.207530e+02
8.000000e-08	-5.417922e-06	-1.246059e-08	-3.783294e+01	-8.196031e+02
9.000000e-08	-5.400298e-06	-1.253757e-08	-3.770988e+01	-8.181859e+02
1.000000e-07	-5.380436e-06	-1.252809e-08	-3.757119e+01	-8.165631e+02
1.100000e-07	-5.358594e-06	-1.248011e-08	-3.741867e+01	-8.148125e+02
1.200000e-07	-5.335007e-06	-1.244482e-08	-3.725396e+01	-8.130170e+02
1.300000e-07	-5.310094e-06	-1.227434e-08	-3.707999e+01	-8.112527e+02
1.400000e-07	-5.283648e-06	-1.234514e-08	-3.689532e+01	-8.095772e+02
1.500000e-07	-5.255256e-06	-1.243522e-08	-3.669706e+01	-8.080214e+02
1.600000e-07	-5.225195e-06	-1.220584e-08	-3.648715e+01	-8.065849e+02
1.700000e-07	-5.193554e-06	-1.232488e-08	-3.626620e+01	-8.052351e+02
1.800000e-07	-5.159873e-06	-1.237232e-08	-3.603101e+01	-8.039114e+02
1.900000e-07	-5.124228e-06	-1.215837e-08	-3.578210e+01	-8.025336e+02
2.000000e-07	-5.087002e-06	-1.224914e-08	-3.552216e+01	-8.010124e+02
2.100000e-07	-5.048025e-06	-1.216293e-08	-3.524999e+01	-7.992620e+02
2.200000e-07	-5.007275e-06	-1.203411e-08	-3.496543e+01	-7.972117e+02
2.300000e-07	-4.964600e-06	-1.213594e-08	-3.466744e+01	-7.948163e+02
2.400000e-07	-4.919984e-06	-1.208441e-08	-3.435589e+01	-7.920622e+02
2.500000e-07	-4.873659e-06	-1.205558e-08	-3.403240e+01	-7.889697e+02
2.600000e-07	-4.825492e-06	-1.198858e-08	-3.369605e+01	-7.855906e+02
2.700000e-07	-4.775286e-06	-1.186642e-08	-3.334547e+01	-7.820012e+02
2.800000e-07	-4.722987e-06	-1.187775e-08	-3.298027e+01	-7.782915e+02
2.900000e-07	-4.668811e-06	-1.183176e-08	-3.260196e+01	-7.745536e+02
3.000000e-07	-4.612970e-06	-1.177243e-08	-3.221203e+01	-7.708679e+02
3.100000e-07	-4.555479e-06	-1.173118e-08	-3.181057e+01	-7.672922e+02
3.200000e-07	-4.496226e-06	-1.171796e-08	-3.139682e+01	-7.638529e+02
3.300000e-07	-4.435344e-06	-1.167151e-08	-3.097168e+01	-7.605411e+02
3.400000e-07	-4.373021e-06	-1.154639e-08	-3.053648e+01	-7.573132e+02
3.500000e-07	-4.309248e-06	-1.148342e-08	-3.009116e+01	-7.540958e+02
3.600000e-07	-4.243954e-06	-1.140709e-08	-2.963522e+01	-7.507960e+02
3.700000e-07	-4.176989e-06	-1.137392e-08	-2.916761e+01	-7.473134e+02
3.800000e-07	-4.108345e-06	-1.135735e-08	-2.868827e+01	-7.435540e+02
3.900000e-07	-4.038203e-06	-1.126071e-08	-2.819847e+01	-7.394429e+02
4.000000e-07	-3.966763e-06	-1.119976e-08	-2.769961e+01	-7.349348e+02
4.100000e-07	-3.894111e-06	-1.112584e-08	-2.719229e+01	-7.300206e+02
4.200000e-07	-3.820065e-06	-1.104253e-08	-2.667523e+01	-7.247286e+02
4.300000e-07	-3.744289e-06	-1.093778e-08	-2.614609e+01	-7.191210e+02
4.400000e-07	-3.666840e-06	-1.085048e-08	-2.560527e+01	-7.132853e+02
4.500000e-07	-3.588009e-06	-1.080538e-08	-2.505480e+01	-7.073217e+02
4.600000e-07	-3.507739e-06	-1.073997e-08	-2.449428e+01	-7.013289e+02
4.700000e-07	-3.426079e-06	-1.066043e-08	-2.392406e+01	-6.953900e+02
4.800000e-07	-3.343212e-06	-1.054543e-08	-2.334540e+01	-6.895591e+02
4.900000e-07	-3.259217e-06	-1.044133e-08	-2.275887e+01	-6.838532e+02
5.000000e-07	-3.174257e-06	-1.035700e-08	-2.216560e+01	-6.782479e+02
5.100000e-07	-3.088369e-06	-1.026874e-08	-2.156585e+01	-6.726797e+02
5.200000e-07	-3.001463e-06	-1.017399e-08	-2.095899e+01	-6.670529e+02
5.300000e-07	-2.913603e-06	-1.006936e-08	-2.034547e+01	-6.612522e+02
5.400000e-07	-2.824876e-06	-9.971148e-09	-1.972590e+01	-6.551578e+02
5.500000e-07	-2.735162e-06	-9.866570e-09	-1.909944e+01	-6.486617e+02
5.600000e-07	-2.644193e-06	-9.743488e-09	-1.846420e+01	-6.416829e+02
5.700000e-07	-2.552047e-06	-9.617153e-09	-1.782076e+01	-6.341789e+02
5.800000e-07	-2.459104e-06	-9.506203e-09	-1.717174e+01	-6.261525e+02
5.900000e-07	-2.365451e-06	-9.408918e-09	-1.651777e+01	-6.176522e+02
6.000000e-07	-2.271017e-06	-9.296888e-09	-1.585834e+01	-6.087656e+02
6.100000e-07	-2.175795e-06	-9.161704e-09	-1.519341e+01	-5.996076e+02
6.200000e-07	-2.079788e-06	-9.016315e-09	-1.452301e+01	-5.903035e+02
6.300000e-07	-1.983054e-06	-8.876891e-09	-1.384752e+01	-5.809702e+02
6.400000e-07	-1.885631e-06	-8.745259e-09	-1.316722e+01	-5.716972e+02
6.500000e-07	-1.787391e-06	-8.604487e-09	-1.248122e+01	-5.625308e+02
6.600000e-07	-1.688278e-06	-8.458644e-09	-1.178912e+01	-5.534635e+02
6.700000e-07	-1.588407e-06	-8.315697e-09	-1.109173e+01	-5.444302e+02
6.800000e-07	-1.487977e-06	-8.167872e-09	-1.039043e+01	-5.353122e+02
6.900000e-07	-1.387140e-06	-8.001609e-09	-9.686293e+00	-5.259495e+02
7.000000e-07	-1.285907e-06	-7.822235e-09	-8.979394e+00	-5.161586e+02
7.100000e-07	-1.184234e-06	-7.645167e-09	-8.269420e+00	-5.057557e+02
7.200000e-07	-1.082113e-06	-7.471322e-09	-7.556316e+00	-4.945805e+02
7.300000e-07	-9.796172e-07	-7.293862e-09	-6.840594e+00	-4.825182e+02
7.400000e-07	-8.768341e-07	-7.104430e-09	-6.122867e+00	-4.695165e+02
7.500000e-07	-7.737781e-07	-6.906892e-09	-5.403235e+00	-4.555949e+02
7.600000e-07	-6.704152e-07	-6.702539e-09	-4.681459e+00	-4.408435e+02
7.700000e-07	-5.668226e-07	-6.486108e-09	-3.958080e+00	-4.254120e+02
7.800000e-07	-4.630692e-07	-6.257023e-09	-3.233578e+00	-4.094881e+02
7.900000e-07	-3.591327e-07	-6.023938e-09	-2.507797e+00	-3.932681e+02
8.000000e-07	-2.550409e-07	-5.791957e-09	-1.780932e+00	-3.769221e+02
8.100000e-07	-1.508602e-07	-5.551763e-09	-1.053445e+00	-3.605593e+02
8.200000e-07	-4.660511e-08	-5.294763e-09	-3.254400e-01	-3.441951e+02
8.300000e-07	5.770732e-08	-5.016973e-09	4.029659e-01	-3.277274e+02
8.400000e-07	1.619532e-07	-4.725287e-09	1.130907e+00	-3.109239e+02
8.500000e-07	2.660771e-07	-4.421865e-09	1.857997e+00	-2.934229e+02
8.600000e-07	3.701286e-07	-4.100840e-09	2.584580e+00	-2.747507e+02
8.700000e-07	4.740680e-07	-3.759120e-09	3.310382e+00	-2.543532e+02
8.800000e-07	5.778287e-07	-3.398496e-09	4.034935e+00	-2.316401e+02
8.900000e-07	6.813444e-07	-3.017203e-09	4.757777e+00	-2.060386e+02
9.000000e-07	7.846064e-07	-2.603878e-09	5.478848e+00	-1.770507e+02
9.100000e-07	8.876488e-07	-2.146613e-09	6.198386e+00	-1.443095e+02
9.200000e-07	9.904082e-07	-1.638216e-09	6.915947e+00	-1.076272e+02
9.300000e-07	1.092789e-06	-1.075022e-09	7.630867e+00	-6.703159e+01
9.400000e-07	1.194722e-06	-4.459534e-10	8.342655e+00	-2.278479e+01
9.500000e-07	1.296170e-06	2.635452e-10	9.051056e+00	2.461684e+01
9.600000e-07	1.397183e-06	1.056118e-09	9.756428e+00	7.446325e+01
9.700000e-07	1.497895e-06	1.911415e-09	1.045969e+01	1.258701e+02
9.800000e-07	1.598312e-06	2.791797e-09	1.116090e+01	1.778337e+02
9.900000e-07	1.698208e-06	3.652489e-09	1.185846e+01	2.292975e+02
1.000000e-06	1.797253e-06	4.454697e-09	1.255009e+01	2.792225e+02
1.010000e-06	1.895350e-06	5.174819e-09	1.323509e+01	3.266577e+02
1.020000e-06	1.992659e-06	5.808063e-09	1.391459e+01	3.708015e+02
1.030000e-06	2.089277e-06	6.363514e-09	1.458926e+01	4.110509e+02
1.040000e-06	2.185162e-06	6.848507e-09	1.525882e+01	4.470329e+02
1.050000e-06	2.280307e-06	7.273762e-09	1.592322e+01	4.786159e+02
1.060000e-06	2.374732e-06	7.649126e-09	1.658258e+01	5.059015e+02
1.070000e-06	2.468362e-06	7.983840e-09	1.723639e+01	5.291968e+02
1.080000e-06	2.561238e-06	8.283522e-09	1.788493e+01	5.489725e+02
1.090000e-06	2.653367e-06	8.552977e-09	1.852827e+01	5.658089e+02
1.100000e-06	2.744428e-06	8.798133e-09	1.916414e+01	5.803379e+02
1.110000e-06	2.834231e-06	9.023266e-09	1.979122e+01	5.931857e+02
1.120000e-06	2.922968e-06	9.234079e-09	2.041087e+01	6.049213e+02
1.130000e-06	3.010735e-06	9.431660e-09	2.102374e+01	6.160159e+02
1.140000e-06	3.097472e-06	9.617742e-09	2.162942e+01	6.268167e+02
1.150000e-06	3.183184e-06	9.791280e-09	2.222793e+01	6.375355e+02
1.160000e-06	3.267944e-06	9.949912e-09	2.281981e+01	6.482532e+02
1.170000e-06	3.351672e-06	1.009378e-08	2.340448e+01	6.589370e+02
1.180000e-06	3.434083e-06	1.023073e-08	2.397995e+01	6.694688e+02
1.190000e-06	3.515191e-06	1.036834e-08	2.454632e+01	6.796792e+02
1.200000e-06	3.595064e-06	1.050163e-08	2.510407e+01	6.893832e+02
1.210000e-06	3.673665e-06	1.062386e-08	2.565293e+01	6.984140e+02
1.220000e-06	3.751034e-06	1.073527e-08	2.619319e+01	7.066496e+02
1.230000e-06	3.827011e-06	1.084089e-08	2.672373e+01	7.140310e+02
1.240000e-06	3.901327e-06	1.094124e-08	2.724268e+01	7.205701e+02
1.250000e-06	3.974092e-06	1.103346e-08	2.775079e+01	7.263466e+02
1.260000e-06	4.045488e-06	1.111954e-08	2.824934e+01	7.314962e+02
1.270000e-06	4.115495e-06	1.120562e-08	2.873820e+01	7.361911e+02
1.280000e-06	4.184203e-06	1.129455e-08	2.921798e+01	7.406172e+02
1.290000e-06	4.251401e-06	1.138186e-08	2.968722e+01	7.449503e+02
1.300000e-06	4.316821e-06	1.146240e-08	3.014404e+01	7.493347e+02
1.310000e-06	4.380699e-06	1.153596e-08	3.059009e+01	7.538673e+02
1.320000e-06	4.443148e-06	1.160455e-08	3.102617e+01	7.585883e+02
1.330000e-06	4.504190e-06	1.166922e-08	3.145242e+01	7.634805e+02
1.340000e-06	4.563764e-06	1.173044e-08	3.186842e+01	7.684753e+02
1.350000e-06	4.621560e-06	1.179202e-08	3.227201e+01	7.734659e+02
1.360000e-06	4.677640e-06	1.185615e-08	3.266361e+01	7.783245e+02
1.370000e-06	4.732083e-06	1.191780e-08	3.304378e+01	7.829217e+02
1.380000e-06	4.784717e-06	1.197393e-08	3.341132e+01	7.871449e+02
1.390000e-06	4.835268e-06	1.202607e-08	3.376432e+01	7.909134e+02
1.400000e-06	4.883827e-06	1.207640e-08	3.410340e+01	7.941891e+02
1.410000e-06	4.930693e-06	1.212276e-08	3.443066e+01	7.969802e+02
1.420000e-06	4.975986e-06	1.216308e-08	3.474694e+01	7.993389e+02
1.430000e-06	5.019645e-06	1.220036e-08	3.505181e+01	8.013528e+02
1.440000e-06	5.061345e-06	1.223874e-08	3.534299e+01	8.031320e+02
1.450000e-06	5.101209e-06	1.227837e-08	3.562136e+01	8.047936e+02
1.460000e-06	5.139440e-06	1.231579e-08	3.588832e+01	8.064457e+02
1.470000e-06	5.175987e-06	1.235183e-08	3.614353e+01	8.081729e+02
1.480000e-06	5.210577e-06	1.238631e-08	3.638507e+01	8.100261e+02
1.490000e-06	5.243203e-06	1.241615e-08	3.661290e+01	8.120167e+02
1.500000e-06	5.274133e-06	1.243956e-08	3.682888e+01	8.141168e+02
1.510000e-06	5.303398e-06	1.245901e-08	3.703323e+01	8.162644e+02
1.520000e-06	5.330731e-06	1.247999e-08	3.722410e+01	8.183736e+02
1.530000e-06	5.355915e-06	1.250196e-08	3.739996e+01	8.203477e+02
1.540000e-06	5.379179e-06	1.252142e-08	3.756241e+01	8.220930e+02
1.550000e-06	5.400728e-06	1.253699e-08	3.771288e+01	8.235326e+02
1.560000e-06	5.420494e-06	1.255292e-08	3.785091e+01	8.246170e+02
1.570000e-06	5.438259e-06	1.257039e-08	3.797496e+01	8.253307e+02
1.580000e-06	5.453981e-06	1.258411e-08	3.808474e+01	8.256941e+02
1.590000e-06	5.467786e-06	1.259360e-08	3.818114e+01	8.257600e+02
1.600000e-06	5.479478e-06	1.260043e-08	3.826279e+01	8.256065e+02
1.610000e-06	5.488925e-06	1.260586e-08	3.832875e+01	8.253251e+02
1.620000e-06	5.496403e-06	1.260891e-08	3.838097e+01	8.250085e+02
1.630000e-06	5.502107e-06	1.260950e-08	3.842080e+01	8.247377e+02
1.640000e-06	5.505935e-06	1.261083e-08	3.844754e+01	8.245710e+02
1.650000e-06	5.507720e-06	1.261818e-08	3.846000e+01	8.245366e+02
1.660000e-06	5.507613e-06	1.262443e-08	3.845926e+01	8.246293e+02
1.670000e-06	5.505811e-06	1.261670e-08	3.844667e+01	8.248118e+02
1.680000e-06	5.502336e-06	1.260840e-08	3.842240e+01	8.250209e+02
1.690000e-06	5.496881e-06	1.260011e-08	3.838431e+01	8.251767e+02
1.700000e-06	5.489501e-06	1.259160e-08	3.833278e+01	8.251945e+02
1.710000e-06	5.480527e-06	1.258224e-08	3.827011e+01	8.249968e+02
1.720000e-06	5.469804e-06	1.257744e-08	3.819523e+01	8.245248e+02
1.730000e-06	5.457027e-06	1.260310e-08	3.810601e+01	8.237462e+02
1.740000e-06	5.442258e-06	1.253187e-08	3.800288e+01	8.226598e+02
1.750000e-06	5.425441e-06	1.244179e-08	3.788545e+01	8.212960e+02
1.760000e-06	5.405929e-06	1.245344e-08	3.774920e+01	8.197115e+02
1.770000e-06	5.383701e-06	1.244042e-08	3.759398e+01	8.179818e+02
1.780000e-06	5.359651e-06	1.257152e-08	3.742604e+01	8.161897e+02
1.790000e-06	5.334767e-06	1.253135e-08	3.725228e+01	8.144136e+02
1.800000e-06	5.308994e-06	1.229478e-08	3.707231e+01	8.127160e+02
1.810000e-06	5.281022e-06	1.248282e-08	3.687698e+01	8.111340e+02
1.820000e-06	5.250766e-06	1.241190e-08	3.666571e+01	8.096742e+02
1.830000e-06	5.219038e-06	1.221694e-08	3.644416e+01	8.083105e+02
1.840000e-06	5.185500e-06	1.244105e-08	3.620996e+01	8.069880e+02
1.850000e-06	5.150302e-06	1.227068e-08	3.596418e+01	8.056297e+02
1.860000e-06	5.113354e-06	1.217528e-08	3.570617e+01	8.041473e+02
1.870000e-06	5.074179e-06	1.236123e-08	3.543262e+01	8.024531e+02
1.880000e-06	5.033355e-06	1.213432e-08	3.514754e+01	8.004724e+02
1.890000e-06	4.990924e-06	1.212677e-08	3.485125e+01	7.981538e+02
1.900000e-06	4.946608e-06	1.208733e-08	3.454180e+01	7.954765e+02
1.910000e-06	4.900521e-06	1.194079e-08	3.421997e+01	7.924537e+02
1.920000e-06	4.852497e-06	1.213348e-08	3.388463e+01	7.891308e+02
1.930000e-06	4.802796e-06	1.195883e-08	3.353757e+01	7.855797e+02
1.940000e-06	4.751318e-06	1.188548e-08	3.317810e+01	7.818884e+02
1.950000e-06	4.697655e-06	1.192967e-08	3.280338e+01	7.781497e+02
1.960000e-06	4.642270e-06	1.178239e-08	3.241663e+01	7.744476e+02
1.970000e-06	4.585237e-06	1.178501e-08	3.201837e+01	7.708454e+02
1.980000e-06	4.526636e-06	1.164186e-08	3.160916e+01	7.673769e+02
1.990000e-06	4.466451e-06	1.165350e-08	3.118889e+01	7.640409e+02
2.000000e-06	4.404496e-06	1.165170e-08	3.075627e+01	7.608008e+02
2.010000e-06	4.340968e-06	1.154380e-08	3.031266e+01	7.575890e+02
2.020000e-06	4.275875e-06	1.155521e-08	2.985812e+01	7.543158e+02
2.030000e-06	4.209415e-06	1.137853e-08	2.939403e+01	7.508812e+02
2.040000e-06	4.141453e-06	1.135634e-08	2.891946e+01	7.471888e+02
2.050000e-06	4.071675e-06	1.128526e-08	2.843221e+01	7.431585e+02
2.060000e-06	4.000421e-06	1.117720e-08	2.793464e+01	7.387381e+02
2.070000e-06	3.927865e-06	1.117607e-08	2.742799e+01	7.339103e+02
2.080000e-06	3.853945e-06	1.107405e-08	2.691181e+01	7.286956e+02
2.090000e-06	3.778476e-06	1.106607e-08	2.638482e+01	7.231495e+02
2.100000e-06	3.701305e-06	1.094255e-08	2.584594e+01	7.173550e+02
2.110000e-06	3.622636e-06	1.083576e-08	2.529660e+01	7.114107e+02
2.120000e-06	3.542744e-06	1.075078e-08	2.473872e+01	7.054170e+02
2.130000e-06	3.461748e-06	1.064991e-08	2.417313e+01	6.994613e+02
2.140000e-06	3.379636e-06	1.062007e-08	2.359975e+01	6.936050e+02
2.150000e-06	3.296406e-06	1.051122e-08	2.301856e+01	6.878734e+02
2.160000e-06	3.211880e-06	1.043503e-08	2.242832e+01	6.822512e+02
2.170000e-06	3.125976e-06	1.032144e-08	2.182845e+01	6.766827e+02
2.180000e-06	3.038939e-06	1.021491e-08	2.122068e+01	6.710782e+02
2.190000e-06	2.950962e-06	1.011649e-08	2.060635e+01	6.653255e+02
2.200000e-06	2.862057e-06	1.000507e-08	1.998553e+01	6.593043e+02
2.210000e-06	2.772209e-06	9.926892e-09	1.935813e+01	6.529028e+02
2.220000e-06	2.681492e-06	9.826280e-09	1.872466e+01	6.460329e+02
2.230000e-06	2.589912e-06	9.719633e-09	1.808517e+01	6.386433e+02
2.240000e-06	2.497349e-06	9.580461e-09	1.743881e+01	6.307269e+02
2.250000e-06	2.403634e-06	9.452534e-09	1.678440e+01	6.223224e+02
2.260000e-06	2.308883e-06	9.333624e-09	1.612276e+01	6.135102e+02
2.270000e-06	2.213425e-06	9.224128e-09	1.545618e+01	6.044004e+02
2.280000e-06	2.117272e-06	9.108078e-09	1.478475e+01	5.951177e+02
2.290000e-06	2.020378e-06	8.974878e-09	1.410815e+01	5.857824e+02
2.300000e-06	1.922845e-06	8.838103e-09	1.342708e+01	5.764914e+02
2.310000e-06	1.824739e-06	8.687697e-09	1.274202e+01	5.673014e+02
2.320000e-06	1.726056e-06	8.537728e-09	1.205292e+01	5.582169e+02
2.330000e-06	1.626894e-06	8.378950e-09	1.136048e+01	5.491851e+02
2.340000e-06	1.527308e-06	8.234134e-09	1.066507e+01	5.400981e+02
2.350000e-06	1.427146e-06	8.085896e-09	9.965655e+00	5.308033e+02
2.360000e-06	1.326275e-06	7.927633e-09	9.261281e+00	5.211205e+02
2.370000e-06	1.224712e-06	7.756533e-09	8.552072e+00	5.108640e+02
2.380000e-06	1.122561e-06	7.573887e-09	7.838758e+00	4.998663e+02
2.390000e-06	1.019935e-06	7.394781e-09	7.122133e+00	4.880013e+02
2.400000e-06	9.169688e-07	7.206919e-09	6.403125e+00	4.752023e+02
2.410000e-06	8.137349e-07	7.014349e-09	5.682250e+00	4.614731e+02
2.420000e-06	7.102846e-07	6.811976e-09	4.959864e+00	4.468892e+02
2.430000e-06	6.066726e-07	6.600447e-09	4.236350e+00	4.315890e+02
2.440000e-06	5.028841e-07	6.381824e-09	3.511602e+00	4.157545e+02
2.450000e-06	3.989094e-07	6.152356e-09	2.785555e+00	3.995826e+02
2.460000e-06	2.947771e-07	5.911199e-09	2.058407e+00	3.832524e+02
2.470000e-06	1.905080e-07	5.663641e-09	1.330303e+00	3.668888e+02
2.480000e-06	8.618800e-08	5.410863e-09	6.018444e-01	3.505297e+02
2.490000e-06	-1.814300e-08	5.144236e-09	-1.266912e-01	3.340998e+02
2.500000e-06	-1.224788e-07	4.858879e-09	-8.552603e-01	3.173949e+02
2.510000e-06	-2.267562e-07	4.556463e-09	-1.583421e+00	3.000803e+02
2.520000e-06	-3.309358e-07	4.243470e-09	-2.310900e+00	2.817041e+02
2.530000e-06	-4.350100e-07	3.913679e-09	-3.037642e+00	2.617261e+02
2.540000e-06	-5.389277e-07	3.557795e-09	-3.763292e+00	2.395594e+02
2.550000e-06	-6.426402e-07	3.176559e-09	-4.487509e+00	2.146227e+02
2.560000e-06	-7.461060e-07	2.773308e-09	-5.210003e+00	1.863972e+02
2.570000e-06	-8.493227e-07	2.337426e-09	-5.930757e+00	1.544833e+02
2.580000e-06	-9.523224e-07	1.852542e-09	-6.649996e+00	1.186515e+02
2.590000e-06	-1.054970e-06	1.310804e-09	-7.366774e+00	7.888102e+01
2.600000e-06	-1.157054e-06	7.031331e-10	-8.079621e+00	3.538315e+01
2.610000e-06	-1.258563e-06	1.972389e-11	-8.788450e+00	-1.139490e+01
2.620000e-06	-1.359499e-06	-7.449123e-10	-9.493279e+00	-6.078616e+01
2.630000e-06	-1.459800e-06	-1.580127e-09	-1.019367e+01	-1.119395e+02
2.640000e-06	-1.559525e-06	-2.456172e-09	-1.089005e+01	-1.638715e+02
2.650000e-06	-1.658789e-06	-3.331239e-09	-1.158320e+01	-2.155310e+02
2.660000e-06	-1.757523e-06	-4.163018e-09	-1.227265e+01	-2.658693e+02
2.670000e-06	-1.855626e-06	-4.922012e-09	-1.295770e+01	-3.139109e+02
2.680000e-06	-1.953104e-06	-5.594985e-09	-1.363838e+01	-3.588176e+02
2.690000e-06	-2.049945e-06	-6.180194e-09	-1.431461e+01	-3.999406e+02
2.700000e-06	-2.146106e-06	-6.685973e-09	-1.498610e+01	-4.368558e+02
2.710000e-06	-2.241623e-06	-7.129640e-09	-1.565309e+01	-4.693801e+02
2.720000e-06	-2.336592e-06	-7.523723e-09	-1.631625e+01	-4.975665e+02
2.730000e-06	-2.430866e-06	-7.870478e-09	-1.697456e+01	-5.216816e+02
2.740000e-06	-2.524024e-06	-8.178368e-09	-1.762507e+01	-5.421650e+02
2.750000e-06	-2.615923e-06	-8.458929e-09	-1.826680e+01	-5.595784e+02
2.760000e-06	-2.706848e-06	-8.717363e-09	-1.890172e+01	-5.745475e+02
2.770000e-06	-2.796899e-06	-8.954740e-09	-1.953054e+01	-5.877045e+02
2.780000e-06	-2.885965e-06	-9.169860e-09	-2.015248e+01	-5.996344e+02
2.790000e-06	-2.973988e-06	-9.369349e-09	-2.076714e+01	-6.108322e+02
2.800000e-06	-3.061109e-06	-9.557453e-09	-2.137549e+01	-6.216729e+02
2.810000e-06	-3.147262e-06	-9.732628e-09	-2.197710e+01	-6.323977e+02
2.820000e-06	-3.232084e-06	-9.894975e-09	-2.256940e+01	-6.431143e+02
2.830000e-06	-3.315579e-06	-1.004677e-08	-2.315244e+01	-6.538124e+02
2.840000e-06	-3.397934e-06	-1.019384e-08	-2.372752e+01	-6.643893e+02
2.850000e-06	-3.479185e-06	-1.033442e-08	-2.429489e+01	-6.746836e+02
2.860000e-06	-3.559339e-06	-1.046181e-08	-2.485460e+01	-6.845108e+02
2.870000e-06	-3.638328e-06	-1.057695e-08	-2.540617e+01	-6.936975e+02
2.880000e-06	-3.715796e-06	-1.068700e-08	-2.594713e+01	-7.021102e+02
2.890000e-06	-3.791599e-06	-1.079638e-08	-2.647646e+01	-7.096756e+02
2.900000e-06	-3.866022e-06	-1.090018e-08	-2.699615e+01	-7.163901e+02
2.910000e-06	-3.939082e-06	-1.099390e-08	-2.750632e+01	-7.223198e+02
2.920000e-06	-4.010777e-06	-1.108449e-08	-2.800696e+01	-7.275896e+02
2.930000e-06	-4.081130e-06	-1.117862e-08	-2.849822e+01	-7.323659e+02
2.940000e-06	-4.149841e-06	-1.127103e-08	-2.897803e+01	-7.368336e+02
