# Temperatura_=_54.22
# Concentracion g/m^3_=_15500.0
# C_Vs_to_Am_M_A/Vsm_=_65563218390.804596
# pendiente_HvsI_1/m_=_3716.3
# ordenada_HvsI_A/m_=_1297.0
# frecuencia_Hz_=_300798.97182934417

Tiempo_(s)	Campo_(V.s)	Magnetizacion_(V.s)	Campo_(kA/m)	Magnetizacion_(A/m)
0.000000e+00	-5.511281e-06	-1.254072e-08	-3.830866e+01	-8.209656e+02
1.000000e-08	-5.509760e-06	-1.254524e-08	-3.829809e+01	-8.211768e+02
2.000000e-08	-5.506232e-06	-1.254720e-08	-3.827356e+01	-8.214300e+02
3.000000e-08	-5.500871e-06	-1.254032e-08	-3.823630e+01	-8.216463e+02
4.000000e-08	-5.493888e-06	-1.252589e-08	-3.818776e+01	-8.217402e+02
5.000000e-08	-5.485281e-06	-1.250866e-08	-3.812793e+01	-8.216316e+02
6.000000e-08	-5.474754e-06	-1.249616e-08	-3.805476e+01	-8.212569e+02
7.000000e-08	-5.462118e-06	-1.248011e-08	-3.796693e+01	-8.205785e+02
8.000000e-08	-5.447523e-06	-1.245038e-08	-3.786548e+01	-8.195898e+02
9.000000e-08	-5.430601e-06	-1.249274e-08	-3.774785e+01	-8.183158e+02
1.000000e-07	-5.411285e-06	-1.253620e-08	-3.761359e+01	-8.168101e+02
1.100000e-07	-5.389958e-06	-1.248977e-08	-3.746534e+01	-8.151464e+02
1.200000e-07	-5.366835e-06	-1.246136e-08	-3.730462e+01	-8.134088e+02
1.300000e-07	-5.342249e-06	-1.237049e-08	-3.713372e+01	-8.116792e+02
1.400000e-07	-5.316206e-06	-1.227412e-08	-3.695270e+01	-8.100256e+02
1.500000e-07	-5.288278e-06	-1.241816e-08	-3.675857e+01	-8.084927e+02
1.600000e-07	-5.258522e-06	-1.233136e-08	-3.655174e+01	-8.070945e+02
1.700000e-07	-5.227176e-06	-1.221650e-08	-3.633386e+01	-8.058126e+02
1.800000e-07	-5.193975e-06	-1.237496e-08	-3.610307e+01	-8.045976e+02
1.900000e-07	-5.158734e-06	-1.226464e-08	-3.585812e+01	-8.033762e+02
2.000000e-07	-5.121883e-06	-1.221135e-08	-3.560197e+01	-8.020605e+02
2.100000e-07	-5.083380e-06	-1.225483e-08	-3.533434e+01	-8.005602e+02
2.200000e-07	-5.043077e-06	-1.209375e-08	-3.505419e+01	-7.987944e+02
2.300000e-07	-5.000942e-06	-1.209217e-08	-3.476131e+01	-7.967034e+02
2.400000e-07	-4.956772e-06	-1.212344e-08	-3.445429e+01	-7.942562e+02
2.500000e-07	-4.910794e-06	-1.205164e-08	-3.413470e+01	-7.914553e+02
2.600000e-07	-4.863010e-06	-1.204376e-08	-3.380255e+01	-7.883362e+02
2.700000e-07	-4.813187e-06	-1.193646e-08	-3.345624e+01	-7.849623e+02
2.800000e-07	-4.761253e-06	-1.190590e-08	-3.309525e+01	-7.814167e+02
2.900000e-07	-4.707360e-06	-1.190149e-08	-3.272064e+01	-7.777902e+02
3.000000e-07	-4.651847e-06	-1.182044e-08	-3.233477e+01	-7.741684e+02
3.100000e-07	-4.594727e-06	-1.176295e-08	-3.193773e+01	-7.706203e+02
3.200000e-07	-4.535724e-06	-1.171907e-08	-3.152761e+01	-7.671877e+02
3.300000e-07	-4.475039e-06	-1.170637e-08	-3.110579e+01	-7.638794e+02
3.400000e-07	-4.412896e-06	-1.162039e-08	-3.067383e+01	-7.606693e+02
3.500000e-07	-4.349274e-06	-1.154512e-08	-3.023160e+01	-7.574996e+02
3.600000e-07	-4.284184e-06	-1.149545e-08	-2.977916e+01	-7.542884e+02
3.700000e-07	-4.217379e-06	-1.142683e-08	-2.931480e+01	-7.509409e+02
3.800000e-07	-4.148890e-06	-1.140391e-08	-2.883874e+01	-7.473618e+02
3.900000e-07	-4.078926e-06	-1.132588e-08	-2.835242e+01	-7.434690e+02
4.000000e-07	-4.007627e-06	-1.123348e-08	-2.785682e+01	-7.392049e+02
4.100000e-07	-3.935144e-06	-1.117663e-08	-2.735300e+01	-7.345443e+02
4.200000e-07	-3.861203e-06	-1.110744e-08	-2.683904e+01	-7.294981e+02
4.300000e-07	-3.785516e-06	-1.103604e-08	-2.631294e+01	-7.241125e+02
4.400000e-07	-3.708204e-06	-1.094066e-08	-2.577555e+01	-7.184619e+02
4.500000e-07	-3.629436e-06	-1.087395e-08	-2.522804e+01	-7.126388e+02
4.600000e-07	-3.549159e-06	-1.080960e-08	-2.467004e+01	-7.067405e+02
4.700000e-07	-3.467481e-06	-1.072614e-08	-2.410230e+01	-7.008549e+02
4.800000e-07	-3.384585e-06	-1.062990e-08	-2.352609e+01	-6.950471e+02
4.900000e-07	-3.300607e-06	-1.052366e-08	-2.294236e+01	-6.893493e+02
5.000000e-07	-3.215662e-06	-1.044779e-08	-2.235192e+01	-6.837549e+02
5.100000e-07	-3.129730e-06	-1.036235e-08	-2.175461e+01	-6.782176e+02
5.200000e-07	-3.042795e-06	-1.026569e-08	-2.115033e+01	-6.726569e+02
5.300000e-07	-2.954903e-06	-1.015886e-08	-2.053939e+01	-6.669676e+02
5.400000e-07	-2.866106e-06	-1.005620e-08	-1.992217e+01	-6.610340e+02
5.500000e-07	-2.776253e-06	-9.960209e-09	-1.929760e+01	-6.547451e+02
5.600000e-07	-2.685195e-06	-9.846479e-09	-1.866466e+01	-6.480103e+02
5.700000e-07	-2.593063e-06	-9.730474e-09	-1.802426e+01	-6.407721e+02
5.800000e-07	-2.500013e-06	-9.616369e-09	-1.737747e+01	-6.330151e+02
5.900000e-07	-2.406173e-06	-9.511332e-09	-1.672519e+01	-6.247685e+02
6.000000e-07	-2.311536e-06	-9.393993e-09	-1.606738e+01	-6.161027e+02
6.100000e-07	-2.216065e-06	-9.260713e-09	-1.540376e+01	-6.071198e+02
6.200000e-07	-2.119888e-06	-9.126434e-09	-1.473524e+01	-5.979391e+02
6.300000e-07	-2.023017e-06	-8.996444e-09	-1.406189e+01	-5.886789e+02
6.400000e-07	-1.925290e-06	-8.868828e-09	-1.338260e+01	-5.794379e+02
6.500000e-07	-1.826656e-06	-8.727359e-09	-1.269700e+01	-5.702787e+02
6.600000e-07	-1.727281e-06	-8.578999e-09	-1.200625e+01	-5.612147e+02
6.700000e-07	-1.627321e-06	-8.431850e-09	-1.131143e+01	-5.522037e+02
6.800000e-07	-1.526801e-06	-8.284707e-09	-1.061272e+01	-5.431491e+02
6.900000e-07	-1.425770e-06	-8.124079e-09	-9.910463e+00	-5.339080e+02
7.000000e-07	-1.324218e-06	-7.952470e-09	-9.204574e+00	-5.243075e+02
7.100000e-07	-1.222209e-06	-7.781666e-09	-8.495517e+00	-5.141650e+02
7.200000e-07	-1.119823e-06	-7.611381e-09	-7.783837e+00	-5.033114e+02
7.300000e-07	-1.017003e-06	-7.433478e-09	-7.069144e+00	-4.916142e+02
7.400000e-07	-9.137788e-07	-7.242965e-09	-6.351634e+00	-4.789962e+02
7.500000e-07	-8.102586e-07	-7.047652e-09	-5.632069e+00	-4.654475e+02
7.600000e-07	-7.065301e-07	-6.846144e-09	-4.911058e+00	-4.510292e+02
7.700000e-07	-6.026151e-07	-6.634738e-09	-4.188749e+00	-4.358658e+02
7.800000e-07	-4.985796e-07	-6.412655e-09	-3.465604e+00	-4.201282e+02
7.900000e-07	-3.944288e-07	-6.184707e-09	-2.741656e+00	-4.040077e+02
8.000000e-07	-2.901424e-07	-5.953425e-09	-2.016766e+00	-3.876836e+02
8.100000e-07	-1.857714e-07	-5.712411e-09	-1.291289e+00	-3.712885e+02
8.200000e-07	-8.130677e-08	-5.455351e-09	-5.651596e-01	-3.548748e+02
8.300000e-07	2.320216e-08	-5.183320e-09	1.612772e-01	-3.383875e+02
8.400000e-07	1.276782e-07	-4.899641e-09	8.874854e-01	-3.216468e+02
8.500000e-07	2.320707e-07	-4.604117e-09	1.613113e+00	-3.043439e+02
8.600000e-07	3.363560e-07	-4.293287e-09	2.337995e+00	-2.860511e+02
8.700000e-07	4.405720e-07	-3.960555e-09	3.062395e+00	-2.662479e+02
8.800000e-07	5.446704e-07	-3.605880e-09	3.785979e+00	-2.443598e+02
8.900000e-07	6.486137e-07	-3.227782e-09	4.508484e+00	-2.198077e+02
9.000000e-07	7.524073e-07	-2.823122e-09	5.229948e+00	-1.920645e+02
9.100000e-07	8.560054e-07	-2.383078e-09	5.950054e+00	-1.607104e+02
9.200000e-07	9.593167e-07	-1.897973e-09	6.668165e+00	-1.254853e+02
9.300000e-07	1.062272e-06	-1.361075e-09	7.383801e+00	-8.632955e+01
9.400000e-07	1.164833e-06	-7.609687e-10	8.096702e+00	-4.340978e+01
9.500000e-07	1.266960e-06	-8.300118e-11	8.806579e+00	2.873138e+00
9.600000e-07	1.368680e-06	6.816350e-10	9.513633e+00	5.189636e+01
9.700000e-07	1.470015e-06	1.517661e-09	1.021801e+01	1.028466e+02
9.800000e-07	1.570856e-06	2.391538e-09	1.091894e+01	1.547687e+02
9.900000e-07	1.671156e-06	3.262493e-09	1.161613e+01	2.066270e+02
1.000000e-06	1.770883e-06	4.092432e-09	1.230933e+01	2.573745e+02
1.010000e-06	1.869939e-06	4.852095e-09	1.299786e+01	3.060228e+02
1.020000e-06	1.968165e-06	5.525604e-09	1.368062e+01	3.517076e+02
1.030000e-06	2.065476e-06	6.115107e-09	1.435703e+01	3.937428e+02
1.040000e-06	2.161963e-06	6.631553e-09	1.502770e+01	4.316590e+02
1.050000e-06	2.257738e-06	7.085746e-09	1.569343e+01	4.652237e+02
1.060000e-06	2.352833e-06	7.483668e-09	1.635443e+01	4.944411e+02
1.070000e-06	2.447181e-06	7.835042e-09	1.701024e+01	5.195323e+02
1.080000e-06	2.540733e-06	8.148654e-09	1.766052e+01	5.408998e+02
1.090000e-06	2.633480e-06	8.432612e-09	1.830519e+01	5.590779e+02
1.100000e-06	2.725324e-06	8.692534e-09	1.894360e+01	5.746771e+02
1.110000e-06	2.816091e-06	8.931171e-09	1.957452e+01	5.883262e+02
1.120000e-06	2.905626e-06	9.148960e-09	2.019687e+01	6.006181e+02
1.130000e-06	2.994033e-06	9.351353e-09	2.081138e+01	6.120650e+02
1.140000e-06	3.081495e-06	9.543194e-09	2.141933e+01	6.230661e+02
1.150000e-06	3.167940e-06	9.721514e-09	2.202020e+01	6.338900e+02
1.160000e-06	3.253378e-06	9.884922e-09	2.261407e+01	6.446722e+02
1.170000e-06	3.337795e-06	1.003571e-08	2.320085e+01	6.554275e+02
1.180000e-06	3.421074e-06	1.018003e-08	2.377973e+01	6.660733e+02
1.190000e-06	3.503055e-06	1.032031e-08	2.434957e+01	6.764616e+02
1.200000e-06	3.583706e-06	1.045561e-08	2.491017e+01	6.864135e+02
1.210000e-06	3.663103e-06	1.058073e-08	2.546206e+01	6.957541e+02
1.220000e-06	3.741189e-06	1.069615e-08	2.600483e+01	7.043425e+02
1.230000e-06	3.817910e-06	1.080532e-08	2.653812e+01	7.120928e+02
1.240000e-06	3.893157e-06	1.090841e-08	2.706116e+01	7.189870e+02
1.250000e-06	3.966824e-06	1.100452e-08	2.757320e+01	7.250762e+02
1.260000e-06	4.039034e-06	1.109430e-08	2.807514e+01	7.304727e+02
1.270000e-06	4.109852e-06	1.118068e-08	2.856739e+01	7.353333e+02
1.280000e-06	4.179255e-06	1.126576e-08	2.904980e+01	7.398386e+02
1.290000e-06	4.247256e-06	1.134885e-08	2.952248e+01	7.441689e+02
1.300000e-06	4.313626e-06	1.142971e-08	2.998381e+01	7.484823e+02
1.310000e-06	4.378315e-06	1.150664e-08	3.043347e+01	7.528960e+02
1.320000e-06	4.441541e-06	1.157804e-08	3.087295e+01	7.574747e+02
1.330000e-06	4.503341e-06	1.164578e-08	3.130251e+01	7.622259e+02
1.340000e-06	4.563718e-06	1.171100e-08	3.172219e+01	7.671031e+02
1.350000e-06	4.622497e-06	1.177235e-08	3.213076e+01	7.720161e+02
1.360000e-06	4.679462e-06	1.182835e-08	3.252672e+01	7.768465e+02
1.370000e-06	4.734732e-06	1.188255e-08	3.291090e+01	7.814661e+02
1.380000e-06	4.788301e-06	1.193984e-08	3.328325e+01	7.857557e+02
1.390000e-06	4.839873e-06	1.199645e-08	3.364173e+01	7.896217e+02
1.400000e-06	4.889349e-06	1.204802e-08	3.398564e+01	7.930086e+02
1.410000e-06	4.937001e-06	1.209356e-08	3.431686e+01	7.959058e+02
1.420000e-06	4.983037e-06	1.213587e-08	3.463686e+01	7.983475e+02
1.430000e-06	5.027449e-06	1.217622e-08	3.494556e+01	8.004071e+02
1.440000e-06	5.069995e-06	1.221203e-08	3.524130e+01	8.021860e+02
1.450000e-06	5.110635e-06	1.224445e-08	3.552378e+01	8.037990e+02
1.460000e-06	5.149562e-06	1.227721e-08	3.579437e+01	8.053586e+02
1.470000e-06	5.186831e-06	1.231380e-08	3.605342e+01	8.069600e+02
1.480000e-06	5.222304e-06	1.234882e-08	3.629999e+01	8.086688e+02
1.490000e-06	5.255810e-06	1.237700e-08	3.653289e+01	8.105136e+02
1.500000e-06	5.287477e-06	1.240072e-08	3.675300e+01	8.124833e+02
1.510000e-06	5.317437e-06	1.242509e-08	3.696125e+01	8.145306e+02
1.520000e-06	5.345630e-06	1.244863e-08	3.715723e+01	8.165800e+02
1.530000e-06	5.371705e-06	1.246674e-08	3.733847e+01	8.185396e+02
1.540000e-06	5.395699e-06	1.248100e-08	3.750525e+01	8.203147e+02
1.550000e-06	5.417929e-06	1.249552e-08	3.765977e+01	8.218218e+02
1.560000e-06	5.438403e-06	1.251328e-08	3.780208e+01	8.230004e+02
1.570000e-06	5.456996e-06	1.252997e-08	3.793132e+01	8.238214e+02
1.580000e-06	5.473587e-06	1.254069e-08	3.804665e+01	8.242909e+02
1.590000e-06	5.488165e-06	1.254876e-08	3.814798e+01	8.244489e+02
1.600000e-06	5.500639e-06	1.255832e-08	3.823468e+01	8.243639e+02
1.610000e-06	5.510882e-06	1.256625e-08	3.830588e+01	8.241223e+02
1.620000e-06	5.519051e-06	1.256883e-08	3.836267e+01	8.238172e+02
1.630000e-06	5.525396e-06	1.256956e-08	3.840677e+01	8.235348e+02
1.640000e-06	5.529948e-06	1.257308e-08	3.843841e+01	8.233429e+02
1.650000e-06	5.532516e-06	1.257910e-08	3.845626e+01	8.232818e+02
1.660000e-06	5.533054e-06	1.258345e-08	3.846000e+01	8.233594e+02
1.670000e-06	5.531789e-06	1.257682e-08	3.845121e+01	8.235503e+02
1.680000e-06	5.528834e-06	1.256790e-08	3.843067e+01	8.238002e+02
1.690000e-06	5.524027e-06	1.256511e-08	3.839725e+01	8.240341e+02
1.700000e-06	5.517248e-06	1.255847e-08	3.835013e+01	8.241670e+02
1.710000e-06	5.508750e-06	1.254590e-08	3.829107e+01	8.241162e+02
1.720000e-06	5.498591e-06	1.253736e-08	3.822045e+01	8.238132e+02
1.730000e-06	5.486432e-06	1.255253e-08	3.813593e+01	8.232130e+02
1.740000e-06	5.472217e-06	1.255879e-08	3.803712e+01	8.223012e+02
1.750000e-06	5.456055e-06	1.244620e-08	3.792478e+01	8.210950e+02
1.760000e-06	5.437458e-06	1.240574e-08	3.779552e+01	8.196413e+02
1.770000e-06	5.416033e-06	1.241767e-08	3.764659e+01	8.180099e+02
1.780000e-06	5.392412e-06	1.244107e-08	3.748240e+01	8.162832e+02
1.790000e-06	5.367661e-06	1.255154e-08	3.731036e+01	8.145449e+02
1.800000e-06	5.342139e-06	1.236501e-08	3.713296e+01	8.128676e+02
1.810000e-06	5.314825e-06	1.232842e-08	3.694310e+01	8.113023e+02
1.820000e-06	5.285118e-06	1.249492e-08	3.673661e+01	8.098714e+02
1.830000e-06	5.253831e-06	1.227049e-08	3.651913e+01	8.085643e+02
1.840000e-06	5.220872e-06	1.229556e-08	3.629004e+01	8.073391e+02
1.850000e-06	5.186063e-06	1.238531e-08	3.604808e+01	8.061276e+02
1.860000e-06	5.149552e-06	1.215366e-08	3.579430e+01	8.048445e+02
1.870000e-06	5.110887e-06	1.228786e-08	3.552554e+01	8.033989e+02
1.880000e-06	5.070403e-06	1.229584e-08	3.524414e+01	8.017066e+02
1.890000e-06	5.028384e-06	1.211775e-08	3.495206e+01	7.997014e+02
1.900000e-06	4.984470e-06	1.217703e-08	3.464682e+01	7.973448e+02
1.910000e-06	4.938846e-06	1.201775e-08	3.432969e+01	7.946307e+02
1.920000e-06	4.891379e-06	1.205739e-08	3.399974e+01	7.915866e+02
1.930000e-06	4.841960e-06	1.209385e-08	3.365624e+01	7.882697e+02
1.940000e-06	4.790835e-06	1.189479e-08	3.330087e+01	7.847590e+02
1.950000e-06	4.737609e-06	1.196009e-08	3.293090e+01	7.811447e+02
1.960000e-06	4.682522e-06	1.188767e-08	3.254799e+01	7.775148e+02
1.970000e-06	4.625848e-06	1.183143e-08	3.215406e+01	7.739436e+02
1.980000e-06	4.567503e-06	1.176919e-08	3.174850e+01	7.704804e+02
1.990000e-06	4.507626e-06	1.166670e-08	3.133230e+01	7.671426e+02
2.000000e-06	4.445992e-06	1.172187e-08	3.090389e+01	7.639126e+02
2.010000e-06	4.382682e-06	1.159527e-08	3.046382e+01	7.607402e+02
2.020000e-06	4.317827e-06	1.158210e-08	3.001301e+01	7.575484e+02
2.030000e-06	4.251524e-06	1.149747e-08	2.955215e+01	7.542445e+02
2.040000e-06	4.183787e-06	1.138761e-08	2.908131e+01	7.507322e+02
2.050000e-06	4.114245e-06	1.140803e-08	2.859793e+01	7.469248e+02
2.060000e-06	4.043145e-06	1.126833e-08	2.810371e+01	7.427577e+02
2.070000e-06	3.970767e-06	1.124661e-08	2.760062e+01	7.381970e+02
2.080000e-06	3.897031e-06	1.115725e-08	2.708808e+01	7.332447e+02
2.090000e-06	3.821721e-06	1.109454e-08	2.656460e+01	7.279384e+02
2.100000e-06	3.744604e-06	1.104370e-08	2.602856e+01	7.223463e+02
2.110000e-06	3.666000e-06	1.090934e-08	2.548219e+01	7.165576e+02
2.120000e-06	3.586185e-06	1.086133e-08	2.492740e+01	7.106697e+02
2.130000e-06	3.505214e-06	1.075032e-08	2.436458e+01	7.047741e+02
2.140000e-06	3.423108e-06	1.070877e-08	2.379386e+01	6.989428e+02
2.150000e-06	3.339859e-06	1.061444e-08	2.321520e+01	6.932170e+02
2.160000e-06	3.255317e-06	1.051009e-08	2.262756e+01	6.876000e+02
2.170000e-06	3.169393e-06	1.042743e-08	2.203030e+01	6.820552e+02
2.180000e-06	3.082297e-06	1.030942e-08	2.142490e+01	6.765099e+02
2.190000e-06	2.994207e-06	1.023443e-08	2.081259e+01	6.708639e+02
2.200000e-06	2.905190e-06	1.011264e-08	2.019384e+01	6.650027e+02
2.210000e-06	2.815289e-06	1.002161e-08	1.956894e+01	6.588126e+02
2.220000e-06	2.724524e-06	9.922123e-09	1.893804e+01	6.521966e+02
2.230000e-06	2.632732e-06	9.819821e-09	1.830000e+01	6.450879e+02
2.240000e-06	2.539813e-06	9.703852e-09	1.765412e+01	6.374600e+02
2.250000e-06	2.445876e-06	9.567868e-09	1.700117e+01	6.293311e+02
2.260000e-06	2.351030e-06	9.460820e-09	1.634190e+01	6.207620e+02
2.270000e-06	2.255413e-06	9.343113e-09	1.567727e+01	6.118480e+02
2.280000e-06	2.159039e-06	9.227062e-09	1.500738e+01	6.027058e+02
2.290000e-06	2.061903e-06	9.089059e-09	1.433219e+01	5.934555e+02
2.300000e-06	1.964129e-06	8.951999e-09	1.365257e+01	5.842026e+02
2.310000e-06	1.865825e-06	8.820168e-09	1.296926e+01	5.750201e+02
2.320000e-06	1.767000e-06	8.681172e-09	1.228234e+01	5.659344e+02
2.330000e-06	1.667614e-06	8.533799e-09	1.159150e+01	5.569177e+02
2.340000e-06	1.567637e-06	8.379306e-09	1.089657e+01	5.478862e+02
2.350000e-06	1.466955e-06	8.229438e-09	1.019674e+01	5.387075e+02
2.360000e-06	1.365593e-06	8.070544e-09	9.492172e+00	5.292145e+02
2.370000e-06	1.263667e-06	7.898972e-09	8.783687e+00	5.192247e+02
2.380000e-06	1.161260e-06	7.719509e-09	8.071863e+00	5.085635e+02
2.390000e-06	1.058401e-06	7.545365e-09	7.356895e+00	4.970873e+02
2.400000e-06	9.551272e-07	7.369707e-09	6.639044e+00	4.847036e+02
2.410000e-06	8.515272e-07	7.182223e-09	5.918926e+00	4.713851e+02
2.420000e-06	7.476355e-07	6.981784e-09	5.196779e+00	4.571752e+02
2.430000e-06	6.435344e-07	6.771238e-09	4.473177e+00	4.421839e+02
2.440000e-06	5.392786e-07	6.551339e-09	3.748500e+00	4.265726e+02
2.450000e-06	4.348755e-07	6.322571e-09	3.022799e+00	4.105304e+02
2.460000e-06	3.303526e-07	6.086306e-09	2.296265e+00	3.942428e+02
2.470000e-06	2.257086e-07	5.844350e-09	1.568890e+00	3.778573e+02
2.480000e-06	1.209848e-07	5.597584e-09	8.409598e-01	3.614493e+02
2.490000e-06	1.619182e-08	5.338114e-09	1.125486e-01	3.449926e+02
2.500000e-06	-8.864898e-08	5.058475e-09	-6.161949e-01	3.283397e+02
2.510000e-06	-1.933797e-07	4.760045e-09	-1.344173e+00	3.112135e+02
2.520000e-06	-2.980136e-07	4.449205e-09	-2.071478e+00	2.932144e+02
2.530000e-06	-4.025627e-07	4.124232e-09	-2.798195e+00	2.738418e+02
2.540000e-06	-5.069361e-07	3.775471e-09	-3.523689e+00	2.525303e+02
2.550000e-06	-6.111587e-07	3.401692e-09	-4.248135e+00	2.286971e+02
2.560000e-06	-7.151946e-07	3.008114e-09	-4.971284e+00	2.017966e+02
2.570000e-06	-8.189745e-07	2.585535e-09	-5.692653e+00	1.713771e+02
2.580000e-06	-9.224752e-07	2.118861e-09	-6.412082e+00	1.371342e+02
2.590000e-06	-1.025605e-06	1.597350e-09	-7.128931e+00	9.895504e+01
2.600000e-06	-1.128268e-06	1.015059e-09	-7.842541e+00	5.694822e+01
2.610000e-06	-1.230482e-06	3.630782e-10	-8.553022e+00	1.145641e+01
2.620000e-06	-1.332241e-06	-3.699363e-10	-9.260344e+00	-3.695081e+01
2.630000e-06	-1.433479e-06	-1.181027e-09	-9.964046e+00	-8.750384e+01
2.640000e-06	-1.534104e-06	-2.044002e-09	-1.066348e+01	-1.392776e+02
2.650000e-06	-1.634044e-06	-2.921393e-09	-1.135816e+01	-1.912503e+02
2.660000e-06	-1.733276e-06	-3.775662e-09	-1.204792e+01	-2.423712e+02
2.670000e-06	-1.831908e-06	-4.570393e-09	-1.273351e+01	-2.916308e+02
2.680000e-06	-1.930015e-06	-5.284327e-09	-1.341544e+01	-3.381282e+02
2.690000e-06	-2.027532e-06	-5.911772e-09	-1.409328e+01	-3.811282e+02
2.700000e-06	-2.124350e-06	-6.456471e-09	-1.476625e+01	-4.201049e+02
2.710000e-06	-2.220454e-06	-6.929841e-09	-1.543427e+01	-4.547658e+02
2.720000e-06	-2.315922e-06	-7.345996e-09	-1.609787e+01	-4.850568e+02
2.730000e-06	-2.410697e-06	-7.713897e-09	-1.675664e+01	-5.111477e+02
2.740000e-06	-2.504639e-06	-8.040127e-09	-1.740963e+01	-5.333998e+02
2.750000e-06	-2.597570e-06	-8.334869e-09	-1.805558e+01	-5.523196e+02
2.760000e-06	-2.689363e-06	-8.606172e-09	-1.869363e+01	-5.685039e+02
2.770000e-06	-2.780102e-06	-8.856651e-09	-1.932436e+01	-5.825822e+02
2.780000e-06	-2.869900e-06	-9.085056e-09	-1.994854e+01	-5.951611e+02
2.790000e-06	-2.958679e-06	-9.292739e-09	-2.056564e+01	-6.067766e+02
2.800000e-06	-3.046420e-06	-9.485496e-09	-2.117552e+01	-6.178583e+02
2.810000e-06	-3.133191e-06	-9.666393e-09	-2.177866e+01	-6.287082e+02
2.820000e-06	-3.218850e-06	-9.834365e-09	-2.237408e+01	-6.394946e+02
2.830000e-06	-3.303169e-06	-9.991316e-09	-2.296017e+01	-6.502606e+02
2.840000e-06	-3.386237e-06	-1.014066e-08	-2.353758e+01	-6.609453e+02
2.850000e-06	-3.468222e-06	-1.028206e-08	-2.410745e+01	-6.714137e+02
2.860000e-06	-3.549123e-06	-1.041557e-08	-2.466979e+01	-6.814914e+02
2.870000e-06	-3.628866e-06	-1.054051e-08	-2.522407e+01	-6.909994e+02
2.880000e-06	-3.707322e-06	-1.065775e-08	-2.576942e+01	-6.997859e+02
2.890000e-06	-3.784233e-06	-1.076758e-08	-2.630402e+01	-7.077497e+02
2.900000e-06	-3.859498e-06	-1.086935e-08	-2.682719e+01	-7.148553e+02
2.910000e-06	-3.933315e-06	-1.096516e-08	-2.734029e+01	-7.211370e+02
2.920000e-06	-4.005764e-06	-1.105998e-08	-2.784388e+01	-7.266929e+02
2.930000e-06	-4.076867e-06	-1.115344e-08	-2.833811e+01	-7.316707e+02
2.940000e-06	-4.146516e-06	-1.124249e-08	-2.882224e+01	-7.362470e+02
