# Temperatura_=_34.99
# Concentracion g/m^3_=_15500.0
# C_Vs_to_Am_M_A/Vsm_=_65563218390.804596
# pendiente_HvsI_1/m_=_3716.3
# ordenada_HvsI_A/m_=_1297.0
# frecuencia_Hz_=_300803.57157657604

Tiempo_(s)	Campo_(V.s)	Magnetizacion_(V.s)	Campo_(kA/m)	Magnetizacion_(A/m)
0.000000e+00	-5.511598e-06	-1.207570e-08	-3.830944e+01	-7.902228e+02
1.000000e-08	-5.510212e-06	-1.207749e-08	-3.829980e+01	-7.903193e+02
2.000000e-08	-5.506846e-06	-1.207890e-08	-3.827641e+01	-7.904871e+02
3.000000e-08	-5.501640e-06	-1.207647e-08	-3.824022e+01	-7.906651e+02
4.000000e-08	-5.494789e-06	-1.206863e-08	-3.819261e+01	-7.907793e+02
5.000000e-08	-5.486316e-06	-1.205267e-08	-3.813371e+01	-7.907535e+02
6.000000e-08	-5.475939e-06	-1.203415e-08	-3.806158e+01	-7.905202e+02
7.000000e-08	-5.463482e-06	-1.201318e-08	-3.797500e+01	-7.900301e+02
8.000000e-08	-5.449061e-06	-1.198570e-08	-3.787476e+01	-7.892591e+02
9.000000e-08	-5.432310e-06	-1.202701e-08	-3.775834e+01	-7.882117e+02
1.000000e-07	-5.413174e-06	-1.207577e-08	-3.762532e+01	-7.869200e+02
1.100000e-07	-5.392025e-06	-1.202875e-08	-3.747832e+01	-7.854392e+02
1.200000e-07	-5.369023e-06	-1.199130e-08	-3.731844e+01	-7.838399e+02
1.300000e-07	-5.344498e-06	-1.191384e-08	-3.714798e+01	-7.821976e+02
1.400000e-07	-5.318512e-06	-1.182111e-08	-3.696736e+01	-7.805821e+02
1.500000e-07	-5.290711e-06	-1.195172e-08	-3.677412e+01	-7.790477e+02
1.600000e-07	-5.261138e-06	-1.189521e-08	-3.656857e+01	-7.776249e+02
1.700000e-07	-5.229992e-06	-1.178120e-08	-3.635208e+01	-7.763162e+02
1.800000e-07	-5.196993e-06	-1.192509e-08	-3.612272e+01	-7.750952e+02
1.900000e-07	-5.161868e-06	-1.182274e-08	-3.587857e+01	-7.739102e+02
2.000000e-07	-5.125128e-06	-1.174230e-08	-3.562321e+01	-7.726908e+02
2.100000e-07	-5.086805e-06	-1.179413e-08	-3.535684e+01	-7.713578e+02
2.200000e-07	-5.046609e-06	-1.165901e-08	-3.507744e+01	-7.698339e+02
2.300000e-07	-5.004515e-06	-1.166156e-08	-3.478486e+01	-7.680543e+02
2.400000e-07	-4.960404e-06	-1.171054e-08	-3.447826e+01	-7.659758e+02
2.500000e-07	-4.914549e-06	-1.163854e-08	-3.415953e+01	-7.635825e+02
2.600000e-07	-4.866953e-06	-1.161703e-08	-3.382871e+01	-7.608885e+02
2.700000e-07	-4.817283e-06	-1.150798e-08	-3.348347e+01	-7.579355e+02
2.800000e-07	-4.765487e-06	-1.147443e-08	-3.312345e+01	-7.547871e+02
2.900000e-07	-4.711777e-06	-1.148206e-08	-3.275013e+01	-7.515199e+02
3.000000e-07	-4.656437e-06	-1.141825e-08	-3.236548e+01	-7.482128e+02
3.100000e-07	-4.599454e-06	-1.138410e-08	-3.196940e+01	-7.449354e+02
3.200000e-07	-4.540577e-06	-1.134593e-08	-3.156017e+01	-7.417381e+02
3.300000e-07	-4.479993e-06	-1.132357e-08	-3.113906e+01	-7.386447e+02
3.400000e-07	-4.417976e-06	-1.123547e-08	-3.070801e+01	-7.356483e+02
3.500000e-07	-4.354500e-06	-1.115162e-08	-3.026680e+01	-7.327117e+02
3.600000e-07	-4.289518e-06	-1.110839e-08	-2.981513e+01	-7.297722e+02
3.700000e-07	-4.222869e-06	-1.105280e-08	-2.935188e+01	-7.267495e+02
3.800000e-07	-4.154563e-06	-1.104300e-08	-2.887710e+01	-7.235571e+02
3.900000e-07	-4.084762e-06	-1.098211e-08	-2.839193e+01	-7.201133e+02
4.000000e-07	-4.013649e-06	-1.089636e-08	-2.789765e+01	-7.163533e+02
4.100000e-07	-3.941284e-06	-1.084056e-08	-2.739466e+01	-7.122378e+02
4.200000e-07	-3.867403e-06	-1.076579e-08	-2.688114e+01	-7.077588e+02
4.300000e-07	-3.791817e-06	-1.069548e-08	-2.635576e+01	-7.029411e+02
4.400000e-07	-3.714594e-06	-1.060680e-08	-2.581901e+01	-6.978390e+02
4.500000e-07	-3.635889e-06	-1.054779e-08	-2.527195e+01	-6.925283e+02
4.600000e-07	-3.555708e-06	-1.049586e-08	-2.471464e+01	-6.870963e+02
4.700000e-07	-3.474120e-06	-1.042464e-08	-2.414755e+01	-6.816288e+02
4.800000e-07	-3.391306e-06	-1.034063e-08	-2.357194e+01	-6.761973e+02
4.900000e-07	-3.307399e-06	-1.023686e-08	-2.298872e+01	-6.708482e+02
5.000000e-07	-3.222529e-06	-1.015956e-08	-2.239882e+01	-6.655951e+02
5.100000e-07	-3.136698e-06	-1.007873e-08	-2.180223e+01	-6.604151e+02
5.200000e-07	-3.049876e-06	-9.994494e-09	-2.119876e+01	-6.552510e+02
5.300000e-07	-2.962129e-06	-9.900305e-09	-2.058886e+01	-6.500172e+02
5.400000e-07	-2.873444e-06	-9.805400e-09	-1.997243e+01	-6.446110e+02
5.500000e-07	-2.783691e-06	-9.718018e-09	-1.934859e+01	-6.389257e+02
5.600000e-07	-2.692718e-06	-9.615251e-09	-1.871626e+01	-6.328648e+02
5.700000e-07	-2.600640e-06	-9.507362e-09	-1.807626e+01	-6.263558e+02
5.800000e-07	-2.507690e-06	-9.397752e-09	-1.743019e+01	-6.193600e+02
5.900000e-07	-2.413927e-06	-9.297522e-09	-1.677847e+01	-6.118783e+02
6.000000e-07	-2.319376e-06	-9.192220e-09	-1.612128e+01	-6.039516e+02
6.100000e-07	-2.224033e-06	-9.073249e-09	-1.545858e+01	-5.956553e+02
6.200000e-07	-2.127916e-06	-8.948626e-09	-1.479050e+01	-5.870881e+02
6.300000e-07	-2.031084e-06	-8.825316e-09	-1.411745e+01	-5.783578e+02
6.400000e-07	-1.933501e-06	-8.703324e-09	-1.343918e+01	-5.695642e+02
6.500000e-07	-1.835024e-06	-8.570739e-09	-1.275470e+01	-5.607826e+02
6.600000e-07	-1.735667e-06	-8.431464e-09	-1.206409e+01	-5.520500e+02
6.700000e-07	-1.635627e-06	-8.292262e-09	-1.136875e+01	-5.433554e+02
6.800000e-07	-1.535082e-06	-8.152769e-09	-1.066989e+01	-5.346373e+02
6.900000e-07	-1.434108e-06	-8.004062e-09	-9.968046e+00	-5.257869e+02
7.000000e-07	-1.332673e-06	-7.847049e-09	-9.263005e+00	-5.166594e+02
7.100000e-07	-1.230740e-06	-7.685366e-09	-8.554502e+00	-5.070897e+02
7.200000e-07	-1.128422e-06	-7.519371e-09	-7.843317e+00	-4.969132e+02
7.300000e-07	-1.025787e-06	-7.346042e-09	-7.129936e+00	-4.859867e+02
7.400000e-07	-9.227761e-07	-7.164183e-09	-6.413936e+00	-4.742082e+02
7.500000e-07	-8.193949e-07	-6.977215e-09	-5.695364e+00	-4.615317e+02
7.600000e-07	-7.156261e-07	-6.784378e-09	-4.974099e+00	-4.479748e+02
7.700000e-07	-6.115149e-07	-6.583853e-09	-4.250454e+00	-4.336182e+02
7.800000e-07	-5.072123e-07	-6.371279e-09	-3.525479e+00	-4.185947e+02
7.900000e-07	-4.027762e-07	-6.150605e-09	-2.799575e+00	-4.030704e+02
8.000000e-07	-2.982125e-07	-5.927435e-09	-2.072784e+00	-3.872175e+02
8.100000e-07	-1.935466e-07	-5.698864e-09	-1.345284e+00	-3.711839e+02
8.200000e-07	-8.883405e-08	-5.454714e-09	-6.174584e-01	-3.550615e+02
8.300000e-07	1.593866e-08	-5.193847e-09	1.107848e-01	-3.388570e+02
8.400000e-07	1.207327e-07	-4.921182e-09	8.391762e-01	-3.224710e+02
8.500000e-07	2.254300e-07	-4.637891e-09	1.566895e+00	-3.056865e+02
8.600000e-07	3.300214e-07	-4.341212e-09	2.293878e+00	-2.881706e+02
8.700000e-07	4.345130e-07	-4.025684e-09	3.020168e+00	-2.694900e+02
8.800000e-07	5.388559e-07	-3.691914e-09	3.745423e+00	-2.491397e+02
8.900000e-07	6.430050e-07	-3.340785e-09	4.469332e+00	-2.265838e+02
9.000000e-07	7.468638e-07	-2.966449e-09	5.191223e+00	-2.013035e+02
9.100000e-07	8.503812e-07	-2.556884e-09	5.910741e+00	-1.728494e+02
9.200000e-07	9.535803e-07	-2.105906e-09	6.628046e+00	-1.408923e+02
9.300000e-07	1.056418e-06	-1.611965e-09	7.342837e+00	-1.052671e+02
9.400000e-07	1.158911e-06	-1.067519e-09	8.055240e+00	-6.600555e+01
9.500000e-07	1.261082e-06	-4.560791e-10	8.765400e+00	-2.335377e+01
9.600000e-07	1.362834e-06	2.324739e-10	9.472642e+00	2.222808e+01
9.700000e-07	1.464136e-06	9.922963e-10	1.017677e+01	7.008407e+01
9.800000e-07	1.565015e-06	1.804918e-09	1.087795e+01	1.193980e+02
9.900000e-07	1.665442e-06	2.637842e-09	1.157598e+01	1.692436e+02
1.000000e-06	1.765298e-06	3.455521e-09	1.227005e+01	2.186440e+02
1.010000e-06	1.864323e-06	4.225306e-09	1.295834e+01	2.666369e+02
1.020000e-06	1.962430e-06	4.923517e-09	1.364025e+01	3.123377e+02
1.030000e-06	2.059782e-06	5.543079e-09	1.431692e+01	3.549967e+02
1.040000e-06	2.156451e-06	6.089292e-09	1.498884e+01	3.940440e+02
1.050000e-06	2.252371e-06	6.570060e-09	1.565554e+01	4.291187e+02
1.060000e-06	2.347514e-06	6.990658e-09	1.631686e+01	4.600807e+02
1.070000e-06	2.441871e-06	7.361768e-09	1.697270e+01	4.870038e+02
1.080000e-06	2.535423e-06	7.693885e-09	1.762295e+01	5.101519e+02
1.090000e-06	2.628221e-06	7.993727e-09	1.826797e+01	5.299409e+02
1.100000e-06	2.720109e-06	8.263156e-09	1.890665e+01	5.468914e+02
1.110000e-06	2.810793e-06	8.506411e-09	1.953697e+01	5.615754e+02
1.120000e-06	2.900314e-06	8.730588e-09	2.015920e+01	5.745647e+02
1.130000e-06	2.988874e-06	8.940774e-09	2.077475e+01	5.863837e+02
1.140000e-06	3.076440e-06	9.137568e-09	2.138340e+01	5.974717e+02
1.150000e-06	3.162971e-06	9.318547e-09	2.198485e+01	6.081586e+02
1.160000e-06	3.248497e-06	9.482888e-09	2.257932e+01	6.186533e+02
1.170000e-06	3.332999e-06	9.633746e-09	2.316666e+01	6.290463e+02
1.180000e-06	3.416337e-06	9.777757e-09	2.374592e+01	6.393252e+02
1.190000e-06	3.498409e-06	9.915705e-09	2.431637e+01	6.493983e+02
1.200000e-06	3.579200e-06	1.004610e-08	2.487793e+01	6.591255e+02
1.210000e-06	3.658668e-06	1.016765e-08	2.543028e+01	6.683499e+02
1.220000e-06	3.736832e-06	1.028296e-08	2.597358e+01	6.769281e+02
1.230000e-06	3.813679e-06	1.039252e-08	2.650772e+01	6.847549e+02
1.240000e-06	3.889054e-06	1.049427e-08	2.703163e+01	6.917795e+02
1.250000e-06	3.962843e-06	1.058812e-08	2.754451e+01	6.980135e+02
1.260000e-06	4.035122e-06	1.067549e-08	2.804691e+01	7.035290e+02
1.270000e-06	4.105962e-06	1.075781e-08	2.853929e+01	7.084478e+02
1.280000e-06	4.175399e-06	1.083923e-08	2.902192e+01	7.129251e+02
1.290000e-06	4.243463e-06	1.092052e-08	2.949502e+01	7.171289e+02
1.300000e-06	4.309916e-06	1.099891e-08	2.995692e+01	7.212191e+02
1.310000e-06	4.374723e-06	1.107165e-08	3.040737e+01	7.253279e+02
1.320000e-06	4.438045e-06	1.113878e-08	3.084750e+01	7.295454e+02
1.330000e-06	4.499911e-06	1.120345e-08	3.127751e+01	7.339115e+02
1.340000e-06	4.560389e-06	1.126671e-08	3.169788e+01	7.384140e+02
1.350000e-06	4.619292e-06	1.132713e-08	3.210729e+01	7.429944e+02
1.360000e-06	4.676390e-06	1.138319e-08	3.250416e+01	7.475593e+02
1.370000e-06	4.731745e-06	1.143718e-08	3.288892e+01	7.519953e+02
1.380000e-06	4.785387e-06	1.149064e-08	3.326177e+01	7.561867e+02
1.390000e-06	4.837058e-06	1.154153e-08	3.362092e+01	7.600320e+02
1.400000e-06	4.886659e-06	1.158844e-08	3.396568e+01	7.634576e+02
1.410000e-06	4.934415e-06	1.163261e-08	3.429762e+01	7.664276e+02
1.420000e-06	4.980518e-06	1.167576e-08	3.461807e+01	7.689477e+02
1.430000e-06	5.025015e-06	1.171620e-08	3.492735e+01	7.710632e+02
1.440000e-06	5.067690e-06	1.175103e-08	3.522397e+01	7.728519e+02
1.450000e-06	5.108427e-06	1.178166e-08	3.550712e+01	7.744126e+02
1.460000e-06	5.147446e-06	1.181146e-08	3.577833e+01	7.758514e+02
1.470000e-06	5.184845e-06	1.184391e-08	3.603828e+01	7.772672e+02
1.480000e-06	5.220401e-06	1.187591e-08	3.628542e+01	7.787388e+02
1.490000e-06	5.253950e-06	1.190341e-08	3.651861e+01	7.803156e+02
1.500000e-06	5.285663e-06	1.192720e-08	3.673903e+01	7.820118e+02
1.510000e-06	5.315694e-06	1.194964e-08	3.694777e+01	7.838061e+02
1.520000e-06	5.344000e-06	1.197041e-08	3.714452e+01	7.856468e+02
1.530000e-06	5.370308e-06	1.198786e-08	3.732738e+01	7.874597e+02
1.540000e-06	5.394508e-06	1.200280e-08	3.749558e+01	7.891601e+02
1.550000e-06	5.416807e-06	1.201811e-08	3.765057e+01	7.906652e+02
1.560000e-06	5.437394e-06	1.203402e-08	3.779367e+01	7.919063e+02
1.570000e-06	5.456129e-06	1.204924e-08	3.792389e+01	7.928382e+02
1.580000e-06	5.472806e-06	1.206255e-08	3.803981e+01	7.934456e+02
1.590000e-06	5.487472e-06	1.207223e-08	3.814174e+01	7.937452e+02
1.600000e-06	5.500077e-06	1.208010e-08	3.822936e+01	7.937825e+02
1.610000e-06	5.510445e-06	1.208651e-08	3.830143e+01	7.936258e+02
1.620000e-06	5.518769e-06	1.209054e-08	3.835928e+01	7.933559e+02
1.630000e-06	5.525284e-06	1.209274e-08	3.840456e+01	7.930552e+02
1.640000e-06	5.529955e-06	1.209556e-08	3.843703e+01	7.927962e+02
1.650000e-06	5.532622e-06	1.210226e-08	3.845557e+01	7.926314e+02
1.660000e-06	5.533259e-06	1.211077e-08	3.846000e+01	7.925868e+02
1.670000e-06	5.532078e-06	1.210975e-08	3.845179e+01	7.926584e+02
1.680000e-06	5.529212e-06	1.210132e-08	3.843187e+01	7.928135e+02
1.690000e-06	5.524509e-06	1.209469e-08	3.839918e+01	7.929956e+02
1.700000e-06	5.517837e-06	1.208530e-08	3.835280e+01	7.931331e+02
1.710000e-06	5.509444e-06	1.207442e-08	3.829447e+01	7.931492e+02
1.720000e-06	5.499445e-06	1.206785e-08	3.822497e+01	7.929733e+02
1.730000e-06	5.487531e-06	1.208104e-08	3.814216e+01	7.925507e+02
1.740000e-06	5.473554e-06	1.209249e-08	3.804500e+01	7.918508e+02
1.750000e-06	5.457592e-06	1.198920e-08	3.793406e+01	7.908705e+02
1.760000e-06	5.439170e-06	1.194994e-08	3.780601e+01	7.896355e+02
1.770000e-06	5.417886e-06	1.196761e-08	3.765808e+01	7.881959e+02
1.780000e-06	5.394381e-06	1.198515e-08	3.749470e+01	7.866192e+02
1.790000e-06	5.369693e-06	1.209990e-08	3.732310e+01	7.849808e+02
1.800000e-06	5.344240e-06	1.193509e-08	3.714618e+01	7.833528e+02
1.810000e-06	5.317134e-06	1.185806e-08	3.695778e+01	7.817943e+02
1.820000e-06	5.287599e-06	1.202619e-08	3.675249e+01	7.803423e+02
1.830000e-06	5.256353e-06	1.183338e-08	3.653531e+01	7.790065e+02
1.840000e-06	5.223501e-06	1.183812e-08	3.630696e+01	7.777676e+02
1.850000e-06	5.188768e-06	1.196595e-08	3.606555e+01	7.765796e+02
1.860000e-06	5.152363e-06	1.174327e-08	3.581250e+01	7.753761e+02
1.870000e-06	5.113859e-06	1.183590e-08	3.554488e+01	7.740791e+02
1.880000e-06	5.073459e-06	1.185951e-08	3.526407e+01	7.726097e+02
1.890000e-06	5.031545e-06	1.165491e-08	3.497274e+01	7.708992e+02
1.900000e-06	4.987743e-06	1.171236e-08	3.466828e+01	7.688980e+02
1.910000e-06	4.942151e-06	1.160643e-08	3.435139e+01	7.665834e+02
1.920000e-06	4.894752e-06	1.164879e-08	3.402193e+01	7.639617e+02
1.930000e-06	4.845491e-06	1.170634e-08	3.367953e+01	7.610682e+02
1.940000e-06	4.794519e-06	1.149895e-08	3.332524e+01	7.579619e+02
1.950000e-06	4.741423e-06	1.154748e-08	3.295618e+01	7.547169e+02
1.960000e-06	4.686424e-06	1.147269e-08	3.257391e+01	7.514128e+02
1.970000e-06	4.629843e-06	1.141003e-08	3.218063e+01	7.481224e+02
1.980000e-06	4.571622e-06	1.137844e-08	3.177595e+01	7.449018e+02
1.990000e-06	4.511851e-06	1.127844e-08	3.136050e+01	7.417819e+02
2.000000e-06	4.450277e-06	1.135404e-08	3.093252e+01	7.387636e+02
2.010000e-06	4.387056e-06	1.124217e-08	3.049309e+01	7.358171e+02
2.020000e-06	4.322334e-06	1.121292e-08	3.004323e+01	7.328854e+02
2.030000e-06	4.256087e-06	1.114356e-08	2.958277e+01	7.298917e+02
2.040000e-06	4.188397e-06	1.102021e-08	2.911227e+01	7.267498e+02
2.050000e-06	4.118922e-06	1.104661e-08	2.862937e+01	7.233758e+02
2.060000e-06	4.047844e-06	1.092029e-08	2.813533e+01	7.196997e+02
2.070000e-06	3.975512e-06	1.090235e-08	2.763257e+01	7.156751e+02
2.080000e-06	3.901860e-06	1.083195e-08	2.712064e+01	7.112860e+02
2.090000e-06	3.826650e-06	1.077558e-08	2.659788e+01	7.065491e+02
2.100000e-06	3.749674e-06	1.074273e-08	2.606284e+01	7.015117e+02
2.110000e-06	3.671152e-06	1.060363e-08	2.551706e+01	6.962452e+02
2.120000e-06	3.591360e-06	1.055786e-08	2.496245e+01	6.908353e+02
2.130000e-06	3.510448e-06	1.045343e-08	2.440006e+01	6.853693e+02
2.140000e-06	3.428412e-06	1.041484e-08	2.382985e+01	6.799233e+02
2.150000e-06	3.345231e-06	1.033307e-08	2.325168e+01	6.745510e+02
2.160000e-06	3.260813e-06	1.023269e-08	2.266492e+01	6.692747e+02
2.170000e-06	3.174992e-06	1.016685e-08	2.206840e+01	6.640806e+02
2.180000e-06	3.087956e-06	1.005916e-08	2.146344e+01	6.589196e+02
2.190000e-06	2.999972e-06	9.993597e-09	2.085189e+01	6.537125e+02
2.200000e-06	2.911060e-06	9.878159e-09	2.023389e+01	6.483596e+02
2.210000e-06	2.821163e-06	9.792965e-09	1.960905e+01	6.427537e+02
2.220000e-06	2.730339e-06	9.703084e-09	1.897775e+01	6.367948e+02
2.230000e-06	2.638632e-06	9.604082e-09	1.834033e+01	6.304029e+02
2.240000e-06	2.545937e-06	9.497274e-09	1.769603e+01	6.235304e+02
2.250000e-06	2.452194e-06	9.367961e-09	1.704445e+01	6.161678e+02
2.260000e-06	2.357483e-06	9.271433e-09	1.638615e+01	6.083466e+02
2.270000e-06	2.261945e-06	9.166264e-09	1.572209e+01	6.001342e+02
2.280000e-06	2.165615e-06	9.060348e-09	1.505253e+01	5.916247e+02
2.290000e-06	2.068578e-06	8.931903e-09	1.437805e+01	5.829254e+02
2.300000e-06	1.970904e-06	8.801583e-09	1.369916e+01	5.741394e+02
2.310000e-06	1.872595e-06	8.677153e-09	1.301584e+01	5.653496e+02
2.320000e-06	1.773679e-06	8.543753e-09	1.232830e+01	5.566038e+02
2.330000e-06	1.674232e-06	8.402688e-09	1.163708e+01	5.479036e+02
2.340000e-06	1.574338e-06	8.256023e-09	1.094274e+01	5.391999e+02
2.350000e-06	1.473912e-06	8.116279e-09	1.024471e+01	5.303951e+02
2.360000e-06	1.372840e-06	7.967877e-09	9.542194e+00	5.213519e+02
2.370000e-06	1.271051e-06	7.806031e-09	8.834690e+00	5.119086e+02
2.380000e-06	1.168650e-06	7.634412e-09	8.122932e+00	5.018985e+02
2.390000e-06	1.065779e-06	7.464927e-09	7.407902e+00	4.911711e+02
2.400000e-06	9.625074e-07	7.296097e-09	6.690096e+00	4.796123e+02
2.410000e-06	8.589593e-07	7.117221e-09	5.970365e+00	4.671612e+02
2.420000e-06	7.551807e-07	6.924722e-09	5.249031e+00	4.538193e+02
2.430000e-06	6.511494e-07	6.723309e-09	4.525941e+00	4.396520e+02
2.440000e-06	5.468949e-07	6.516495e-09	3.801300e+00	4.247806e+02
2.450000e-06	4.424272e-07	6.301394e-09	3.075176e+00	4.093651e+02
2.460000e-06	3.377879e-07	6.074244e-09	2.347861e+00	3.935791e+02
2.470000e-06	2.330642e-07	5.838341e-09	1.619958e+00	3.775794e+02
2.480000e-06	1.282823e-07	5.598318e-09	8.916510e-01	3.614749e+02
2.490000e-06	2.347132e-08	5.349167e-09	1.631420e-01	3.452958e+02
2.500000e-06	-8.138424e-08	5.084297e-09	-5.656771e-01	3.289709e+02
2.510000e-06	-1.861926e-07	4.801392e-09	-1.294168e+00	3.123129e+02
2.520000e-06	-2.908877e-07	4.504092e-09	-2.021872e+00	2.950171e+02
2.530000e-06	-3.954634e-07	4.192078e-09	-2.748746e+00	2.766728e+02
2.540000e-06	-4.998577e-07	3.860075e-09	-3.474359e+00	2.567899e+02
2.550000e-06	-6.040900e-07	3.507973e-09	-4.198845e+00	2.348356e+02
2.560000e-06	-7.080912e-07	3.136515e-09	-4.921727e+00	2.102822e+02
2.570000e-06	-8.117981e-07	2.741116e-09	-5.642561e+00	1.826580e+02
2.580000e-06	-9.152799e-07	2.311386e-09	-6.361832e+00	1.515992e+02
2.590000e-06	-1.018508e-06	1.835517e-09	-7.079340e+00	1.168962e+02
2.600000e-06	-1.121317e-06	1.305223e-09	-7.793935e+00	7.852928e+01
2.610000e-06	-1.223604e-06	7.117910e-10	-8.504897e+00	3.669017e+01
2.620000e-06	-1.325299e-06	5.012384e-11	-9.211746e+00	-8.213440e+00
2.630000e-06	-1.426327e-06	-6.841662e-10	-9.913963e+00	-5.557184e+01
2.640000e-06	-1.526741e-06	-1.482904e-09	-1.061191e+01	-1.046048e+02
2.650000e-06	-1.626667e-06	-2.315689e-09	-1.130647e+01	-1.544081e+02
2.660000e-06	-1.726166e-06	-3.144114e-09	-1.199805e+01	-2.040116e+02
2.670000e-06	-1.825107e-06	-3.936653e-09	-1.268576e+01	-2.524433e+02
2.680000e-06	-1.923343e-06	-4.670022e-09	-1.336857e+01	-2.987935e+02
2.690000e-06	-2.020828e-06	-5.328194e-09	-1.404616e+01	-3.422740e+02
2.700000e-06	-2.117624e-06	-5.905289e-09	-1.471896e+01	-3.822665e+02
2.710000e-06	-2.213803e-06	-6.408583e-09	-1.538747e+01	-4.183561e+02
2.720000e-06	-2.309391e-06	-6.851712e-09	-1.605188e+01	-4.503473e+02
2.730000e-06	-2.404331e-06	-7.240316e-09	-1.671177e+01	-4.782623e+02
2.740000e-06	-2.498299e-06	-7.581227e-09	-1.736491e+01	-5.023202e+02
2.750000e-06	-2.591112e-06	-7.887828e-09	-1.801003e+01	-5.229034e+02
2.760000e-06	-2.682906e-06	-8.170067e-09	-1.864806e+01	-5.405109e+02
2.770000e-06	-2.773760e-06	-8.429822e-09	-1.927956e+01	-5.557070e+02
2.780000e-06	-2.863582e-06	-8.664509e-09	-1.990388e+01	-5.690682e+02
2.790000e-06	-2.952363e-06	-8.878966e-09	-2.052098e+01	-5.811346e+02
2.800000e-06	-3.040196e-06	-9.079649e-09	-2.113148e+01	-5.923699e+02
2.810000e-06	-3.127093e-06	-9.267192e-09	-2.173547e+01	-6.031326e+02
2.820000e-06	-3.212795e-06	-9.438574e-09	-2.233116e+01	-6.136624e+02
2.830000e-06	-3.297193e-06	-9.594545e-09	-2.291779e+01	-6.240782e+02
2.840000e-06	-3.380449e-06	-9.742304e-09	-2.349647e+01	-6.343916e+02
2.850000e-06	-3.462551e-06	-9.884349e-09	-2.406713e+01	-6.445278e+02
2.860000e-06	-3.543457e-06	-1.001806e-08	-2.462949e+01	-6.543560e+02
2.870000e-06	-3.623202e-06	-1.013952e-08	-2.518378e+01	-6.637205e+02
2.880000e-06	-3.701706e-06	-1.025293e-08	-2.572943e+01	-6.724720e+02
2.890000e-06	-3.778702e-06	-1.036263e-08	-2.626460e+01	-6.804936e+02
2.900000e-06	-3.854142e-06	-1.046605e-08	-2.678896e+01	-6.877201e+02
2.910000e-06	-3.928110e-06	-1.056198e-08	-2.730310e+01	-6.941472e+02
2.920000e-06	-4.000678e-06	-1.065435e-08	-2.780750e+01	-6.998326e+02
2.930000e-06	-4.071938e-06	-1.074548e-08	-2.830280e+01	-7.048869e+02
2.940000e-06	-4.141642e-06	-1.083211e-08	-2.878729e+01	-7.094588e+02
