# Temperatura_=_51.02
# Concentracion g/m^3_=_15500.0
# C_Vs_to_Am_M_A/Vsm_=_65563218390.804596
# pendiente_HvsI_1/m_=_3716.3
# ordenada_HvsI_A/m_=_1297.0
# frecuencia_Hz_=_300801.1232866997

Tiempo_(s)	Campo_(V.s)	Magnetizacion_(V.s)	Campo_(kA/m)	Magnetizacion_(A/m)
0.000000e+00	-5.515254e-06	-1.246802e-08	-3.830522e+01	-8.153728e+02
1.000000e-08	-5.513363e-06	-1.246807e-08	-3.829208e+01	-8.155419e+02
2.000000e-08	-5.509518e-06	-1.246366e-08	-3.826537e+01	-8.157406e+02
3.000000e-08	-5.503902e-06	-1.245365e-08	-3.822637e+01	-8.158905e+02
4.000000e-08	-5.496608e-06	-1.244057e-08	-3.817571e+01	-8.159084e+02
5.000000e-08	-5.487650e-06	-1.242715e-08	-3.811350e+01	-8.157179e+02
6.000000e-08	-5.476758e-06	-1.241459e-08	-3.803785e+01	-8.152604e+02
7.000000e-08	-5.463798e-06	-1.239996e-08	-3.794784e+01	-8.145037e+02
8.000000e-08	-5.448789e-06	-1.239055e-08	-3.784359e+01	-8.134464e+02
9.000000e-08	-5.431457e-06	-1.240832e-08	-3.772322e+01	-8.121184e+02
1.000000e-07	-5.411809e-06	-1.241869e-08	-3.758675e+01	-8.105763e+02
1.100000e-07	-5.390135e-06	-1.239099e-08	-3.743622e+01	-8.088958e+02
1.200000e-07	-5.366679e-06	-1.234450e-08	-3.727331e+01	-8.071603e+02
1.300000e-07	-5.341772e-06	-1.227034e-08	-3.710032e+01	-8.054497e+02
1.400000e-07	-5.315328e-06	-1.224400e-08	-3.691666e+01	-8.038283e+02
1.500000e-07	-5.286977e-06	-1.228188e-08	-3.671976e+01	-8.023357e+02
1.600000e-07	-5.256905e-06	-1.224044e-08	-3.651090e+01	-8.009805e+02
1.700000e-07	-5.225254e-06	-1.221051e-08	-3.629107e+01	-7.997389e+02
1.800000e-07	-5.191636e-06	-1.222409e-08	-3.605758e+01	-7.985570e+02
1.900000e-07	-5.156001e-06	-1.216341e-08	-3.581009e+01	-7.973585e+02
2.000000e-07	-5.118755e-06	-1.212636e-08	-3.555140e+01	-7.960539e+02
2.100000e-07	-5.079870e-06	-1.209837e-08	-3.528133e+01	-7.945533e+02
2.200000e-07	-5.039174e-06	-1.203952e-08	-3.499868e+01	-7.927782e+02
2.300000e-07	-4.996521e-06	-1.203361e-08	-3.470244e+01	-7.906726e+02
2.400000e-07	-4.951901e-06	-1.202490e-08	-3.439254e+01	-7.882104e+02
2.500000e-07	-4.905546e-06	-1.198619e-08	-3.407059e+01	-7.853990e+02
2.600000e-07	-4.857316e-06	-1.191854e-08	-3.373562e+01	-7.822790e+02
2.700000e-07	-4.807028e-06	-1.183246e-08	-3.338635e+01	-7.789179e+02
2.800000e-07	-4.754755e-06	-1.181883e-08	-3.302331e+01	-7.754014e+02
2.900000e-07	-4.700597e-06	-1.180124e-08	-3.264716e+01	-7.718211e+02
3.000000e-07	-4.644743e-06	-1.173881e-08	-3.225923e+01	-7.682624e+02
3.100000e-07	-4.587174e-06	-1.169532e-08	-3.185940e+01	-7.647914e+02
3.200000e-07	-4.527816e-06	-1.165382e-08	-3.144714e+01	-7.614467e+02
3.300000e-07	-4.466867e-06	-1.160240e-08	-3.102383e+01	-7.582324e+02
3.400000e-07	-4.404427e-06	-1.153042e-08	-3.059016e+01	-7.551178e+02
3.500000e-07	-4.340513e-06	-1.145330e-08	-3.014626e+01	-7.520411e+02
3.600000e-07	-4.275080e-06	-1.139846e-08	-2.969181e+01	-7.489170e+02
3.700000e-07	-4.207946e-06	-1.136509e-08	-2.922554e+01	-7.456486e+02
3.800000e-07	-4.139171e-06	-1.132676e-08	-2.874788e+01	-7.421403e+02
3.900000e-07	-4.068955e-06	-1.124939e-08	-2.826020e+01	-7.383110e+02
4.000000e-07	-3.997412e-06	-1.117065e-08	-2.776331e+01	-7.341054e+02
4.100000e-07	-3.924565e-06	-1.110338e-08	-2.725737e+01	-7.295013e+02
4.200000e-07	-3.850163e-06	-1.102798e-08	-2.674062e+01	-7.245136e+02
4.300000e-07	-3.774040e-06	-1.094450e-08	-2.621192e+01	-7.191916e+02
4.400000e-07	-3.696365e-06	-1.086422e-08	-2.567244e+01	-7.136125e+02
4.500000e-07	-3.617297e-06	-1.080756e-08	-2.512329e+01	-7.078707e+02
4.600000e-07	-3.536779e-06	-1.074806e-08	-2.456407e+01	-7.020637e+02
4.700000e-07	-3.454885e-06	-1.066386e-08	-2.399528e+01	-6.962784e+02
4.800000e-07	-3.371768e-06	-1.056147e-08	-2.341801e+01	-6.905778e+02
4.900000e-07	-3.287535e-06	-1.045874e-08	-2.283299e+01	-6.849909e+02
5.000000e-07	-3.202290e-06	-1.037444e-08	-2.224093e+01	-6.795074e+02
5.100000e-07	-3.116075e-06	-1.029430e-08	-2.164214e+01	-6.740776e+02
5.200000e-07	-3.028932e-06	-1.020348e-08	-2.103691e+01	-6.686180e+02
5.300000e-07	-2.940781e-06	-1.010305e-08	-2.042467e+01	-6.630213e+02
5.400000e-07	-2.851627e-06	-1.000500e-08	-1.980547e+01	-6.571708e+02
5.500000e-07	-2.761436e-06	-9.902348e-09	-1.917906e+01	-6.509563e+02
5.600000e-07	-2.670044e-06	-9.783812e-09	-1.854432e+01	-6.442886e+02
5.700000e-07	-2.577605e-06	-9.666313e-09	-1.790230e+01	-6.371129e+02
5.800000e-07	-2.484335e-06	-9.559442e-09	-1.725450e+01	-6.294165e+02
5.900000e-07	-2.390284e-06	-9.457449e-09	-1.660129e+01	-6.212315e+02
6.000000e-07	-2.295480e-06	-9.345372e-09	-1.594285e+01	-6.126303e+02
6.100000e-07	-2.199871e-06	-9.216316e-09	-1.527881e+01	-6.037163e+02
6.200000e-07	-2.103500e-06	-9.076792e-09	-1.460948e+01	-5.946081e+02
6.300000e-07	-2.006362e-06	-8.940088e-09	-1.393483e+01	-5.854225e+02
6.400000e-07	-1.908371e-06	-8.808879e-09	-1.325425e+01	-5.762551e+02
6.500000e-07	-1.809530e-06	-8.673175e-09	-1.256777e+01	-5.671645e+02
6.600000e-07	-1.709919e-06	-8.532912e-09	-1.187593e+01	-5.581600e+02
6.700000e-07	-1.609683e-06	-8.391014e-09	-1.117977e+01	-5.491953e+02
6.800000e-07	-1.508927e-06	-8.242210e-09	-1.047998e+01	-5.401708e+02
6.900000e-07	-1.407677e-06	-8.078901e-09	-9.776771e+00	-5.309423e+02
7.000000e-07	-1.305955e-06	-7.905239e-09	-9.070279e+00	-5.213374e+02
7.100000e-07	-1.203814e-06	-7.732541e-09	-8.360876e+00	-5.111758e+02
7.200000e-07	-1.101266e-06	-7.562066e-09	-7.648647e+00	-5.002929e+02
7.300000e-07	-9.983251e-07	-7.385809e-09	-6.933689e+00	-4.885621e+02
7.400000e-07	-8.950429e-07	-7.198692e-09	-6.216360e+00	-4.759124e+02
7.500000e-07	-7.914626e-07	-7.003140e-09	-5.496962e+00	-4.623401e+02
7.600000e-07	-6.876069e-07	-6.801170e-09	-4.775651e+00	-4.479109e+02
7.700000e-07	-5.835431e-07	-6.587904e-09	-4.052894e+00	-4.327521e+02
7.800000e-07	-4.792955e-07	-6.362748e-09	-3.328862e+00	-4.170341e+02
7.900000e-07	-3.748926e-07	-6.133642e-09	-2.603750e+00	-4.009445e+02
8.000000e-07	-2.704194e-07	-5.903824e-09	-1.878150e+00	-3.846555e+02
8.100000e-07	-1.658504e-07	-5.665277e-09	-1.151885e+00	-3.682895e+02
8.200000e-07	-6.121412e-08	-5.408455e-09	-4.251517e-01	-3.518869e+02
8.300000e-07	4.347710e-08	-5.133803e-09	3.019624e-01	-3.353797e+02
8.400000e-07	1.481715e-07	-4.847036e-09	1.029099e+00	-3.185761e+02
8.500000e-07	2.527522e-07	-4.548208e-09	1.755446e+00	-3.011573e+02
8.600000e-07	3.572049e-07	-4.231865e-09	2.480903e+00	-2.826901e+02
8.700000e-07	4.615342e-07	-3.895346e-09	3.205503e+00	-2.626529e+02
8.800000e-07	5.657247e-07	-3.539237e-09	3.929140e+00	-2.404768e+02
8.900000e-07	6.697790e-07	-3.161765e-09	4.651830e+00	-2.155945e+02
9.000000e-07	7.736542e-07	-2.754715e-09	5.373277e+00	-1.874962e+02
9.100000e-07	8.772800e-07	-2.307791e-09	6.092992e+00	-1.557852e+02
9.200000e-07	9.805990e-07	-1.814084e-09	6.810576e+00	-1.202272e+02
9.300000e-07	1.083533e-06	-1.267762e-09	7.525486e+00	-8.079008e+01
9.400000e-07	1.186105e-06	-6.580646e-10	8.237883e+00	-3.766703e+01
9.500000e-07	1.288301e-06	2.977947e-11	8.947662e+00	8.717758e+00
9.600000e-07	1.390031e-06	7.989619e-10	9.654213e+00	5.772354e+01
9.700000e-07	1.491325e-06	1.633154e-09	1.035773e+01	1.085262e+02
9.800000e-07	1.592187e-06	2.499351e-09	1.105825e+01	1.601682e+02
9.900000e-07	1.692546e-06	3.358187e-09	1.175527e+01	2.116200e+02
1.000000e-06	1.792273e-06	4.173102e-09	1.244792e+01	2.618491e+02
1.010000e-06	1.891250e-06	4.915863e-09	1.313534e+01	3.098889e+02
1.020000e-06	1.989370e-06	5.576283e-09	1.381681e+01	3.549024e+02
1.030000e-06	2.086616e-06	6.156770e-09	1.449222e+01	3.962336e+02
1.040000e-06	2.183045e-06	6.664133e-09	1.516195e+01	4.334445e+02
1.050000e-06	2.278742e-06	7.108536e-09	1.582659e+01	4.663316e+02
1.060000e-06	2.373763e-06	7.498476e-09	1.648655e+01	4.949241e+02
1.070000e-06	2.467988e-06	7.843525e-09	1.714097e+01	5.194624e+02
1.080000e-06	2.561405e-06	8.150316e-09	1.778978e+01	5.403603e+02
1.090000e-06	2.654080e-06	8.427953e-09	1.843344e+01	5.581565e+02
1.100000e-06	2.745864e-06	8.684934e-09	1.907091e+01	5.734580e+02
1.110000e-06	2.836464e-06	8.920945e-09	1.970016e+01	5.868835e+02
1.120000e-06	2.925879e-06	9.137897e-09	2.032117e+01	5.990109e+02
1.130000e-06	3.014282e-06	9.339381e-09	2.093516e+01	6.103346e+02
1.140000e-06	3.101660e-06	9.526290e-09	2.154203e+01	6.212348e+02
1.150000e-06	3.187974e-06	9.697309e-09	2.214150e+01	6.319622e+02
1.160000e-06	3.273273e-06	9.855322e-09	2.273393e+01	6.426373e+02
1.170000e-06	3.357530e-06	1.000445e-08	2.331913e+01	6.532645e+02
1.180000e-06	3.440601e-06	1.014715e-08	2.389608e+01	6.637554e+02
1.190000e-06	3.522405e-06	1.028553e-08	2.446423e+01	6.739616e+02
1.200000e-06	3.602878e-06	1.041853e-08	2.502315e+01	6.837084e+02
1.210000e-06	3.682056e-06	1.054325e-08	2.557306e+01	6.928292e+02
1.220000e-06	3.759992e-06	1.065811e-08	2.611436e+01	7.011934e+02
1.230000e-06	3.836602e-06	1.076236e-08	2.664644e+01	7.087269e+02
1.240000e-06	3.911626e-06	1.085778e-08	2.716750e+01	7.154223e+02
1.250000e-06	3.984981e-06	1.094954e-08	2.767698e+01	7.213398e+02
1.260000e-06	4.056902e-06	1.104089e-08	2.817649e+01	7.265975e+02
1.270000e-06	4.127448e-06	1.112885e-08	2.866645e+01	7.313548e+02
1.280000e-06	4.196656e-06	1.121291e-08	2.914713e+01	7.357906e+02
1.290000e-06	4.264423e-06	1.129679e-08	2.961779e+01	7.400808e+02
1.300000e-06	4.330467e-06	1.137890e-08	3.007648e+01	7.443760e+02
1.310000e-06	4.394888e-06	1.145227e-08	3.052391e+01	7.487847e+02
1.320000e-06	4.457878e-06	1.151666e-08	3.096140e+01	7.533623e+02
1.330000e-06	4.519461e-06	1.158133e-08	3.138911e+01	7.581079e+02
1.340000e-06	4.579598e-06	1.164780e-08	3.180678e+01	7.629683e+02
1.350000e-06	4.637986e-06	1.171037e-08	3.221231e+01	7.678492e+02
1.360000e-06	4.694567e-06	1.176791e-08	3.260528e+01	7.726310e+02
1.370000e-06	4.749518e-06	1.182513e-08	3.298693e+01	7.771869e+02
1.380000e-06	4.802734e-06	1.188348e-08	3.335653e+01	7.814019e+02
1.390000e-06	4.853914e-06	1.193757e-08	3.371200e+01	7.851881e+02
1.400000e-06	4.903092e-06	1.198568e-08	3.405355e+01	7.884965e+02
1.410000e-06	4.950533e-06	1.202875e-08	3.438304e+01	7.913229e+02
1.420000e-06	4.996323e-06	1.206833e-08	3.470107e+01	7.937069e+02
1.430000e-06	5.040456e-06	1.210652e-08	3.500759e+01	7.957254e+02
1.440000e-06	5.082696e-06	1.214478e-08	3.530096e+01	7.974812e+02
1.450000e-06	5.123030e-06	1.218284e-08	3.558109e+01	7.990879e+02
1.460000e-06	5.161657e-06	1.221734e-08	3.584937e+01	8.006547e+02
1.470000e-06	5.198616e-06	1.224891e-08	3.610606e+01	8.022720e+02
1.480000e-06	5.233730e-06	1.227940e-08	3.634994e+01	8.039992e+02
1.490000e-06	5.266852e-06	1.230868e-08	3.657998e+01	8.058589e+02
1.500000e-06	5.298126e-06	1.233407e-08	3.679719e+01	8.078343e+02
1.510000e-06	5.327739e-06	1.235519e-08	3.700286e+01	8.098741e+02
1.520000e-06	5.355557e-06	1.237610e-08	3.719607e+01	8.119006e+02
1.530000e-06	5.381245e-06	1.239791e-08	3.737447e+01	8.138215e+02
1.540000e-06	5.404918e-06	1.241700e-08	3.753890e+01	8.155444e+02
1.550000e-06	5.426836e-06	1.243141e-08	3.769112e+01	8.169894e+02
1.560000e-06	5.446978e-06	1.244448e-08	3.783102e+01	8.181007e+02
1.570000e-06	5.465149e-06	1.245827e-08	3.795721e+01	8.188545e+02
1.580000e-06	5.481268e-06	1.247000e-08	3.806917e+01	8.192619e+02
1.590000e-06	5.495428e-06	1.247824e-08	3.816751e+01	8.193666e+02
1.600000e-06	5.507475e-06	1.248432e-08	3.825119e+01	8.192395e+02
1.610000e-06	5.517304e-06	1.249000e-08	3.831945e+01	8.189673e+02
1.620000e-06	5.525129e-06	1.249559e-08	3.837380e+01	8.186413e+02
1.630000e-06	5.531133e-06	1.249916e-08	3.841550e+01	8.183445e+02
1.640000e-06	5.535295e-06	1.250076e-08	3.844440e+01	8.181401e+02
1.650000e-06	5.537411e-06	1.250343e-08	3.845910e+01	8.180631e+02
1.660000e-06	5.537541e-06	1.250613e-08	3.846000e+01	8.181165e+02
1.670000e-06	5.535912e-06	1.250293e-08	3.844869e+01	8.182710e+02
1.680000e-06	5.532555e-06	1.249469e-08	3.842537e+01	8.184699e+02
1.690000e-06	5.527270e-06	1.248582e-08	3.838867e+01	8.186377e+02
1.700000e-06	5.520071e-06	1.247806e-08	3.833867e+01	8.186912e+02
1.710000e-06	5.511223e-06	1.246921e-08	3.827722e+01	8.185514e+02
1.720000e-06	5.500706e-06	1.246020e-08	3.820417e+01	8.181552e+02
1.730000e-06	5.488214e-06	1.245625e-08	3.811741e+01	8.174642e+02
1.740000e-06	5.473661e-06	1.243631e-08	3.801633e+01	8.164702e+02
1.750000e-06	5.457027e-06	1.238546e-08	3.790081e+01	8.151967e+02
1.760000e-06	5.437835e-06	1.235741e-08	3.776751e+01	8.136950e+02
1.770000e-06	5.415964e-06	1.235283e-08	3.761561e+01	8.120376e+02
1.780000e-06	5.392133e-06	1.237857e-08	3.745010e+01	8.103073e+02
1.790000e-06	5.367255e-06	1.239028e-08	3.727732e+01	8.085856e+02
1.800000e-06	5.341375e-06	1.230478e-08	3.709757e+01	8.069413e+02
1.810000e-06	5.313550e-06	1.228329e-08	3.690431e+01	8.054196e+02
1.820000e-06	5.283515e-06	1.229944e-08	3.669571e+01	8.040362e+02
1.830000e-06	5.251879e-06	1.223889e-08	3.647599e+01	8.027742e+02
1.840000e-06	5.218487e-06	1.224764e-08	3.624407e+01	8.015858e+02
1.850000e-06	5.183280e-06	1.223374e-08	3.599954e+01	8.003985e+02
1.860000e-06	5.146320e-06	1.215552e-08	3.574285e+01	7.991248e+02
1.870000e-06	5.107288e-06	1.216314e-08	3.547176e+01	7.976737e+02
1.880000e-06	5.066505e-06	1.212300e-08	3.518851e+01	7.959635e+02
1.890000e-06	5.024013e-06	1.204681e-08	3.489339e+01	7.939325e+02
1.900000e-06	4.979598e-06	1.201589e-08	3.458491e+01	7.915476e+02
1.910000e-06	4.933465e-06	1.198157e-08	3.426450e+01	7.888091e+02
1.920000e-06	4.885498e-06	1.200890e-08	3.393135e+01	7.857507e+02
1.930000e-06	4.835743e-06	1.195419e-08	3.358579e+01	7.824349e+02
1.940000e-06	4.784180e-06	1.184772e-08	3.322767e+01	7.789444e+02
1.950000e-06	4.730531e-06	1.183309e-08	3.285506e+01	7.753706e+02
1.960000e-06	4.675131e-06	1.177239e-08	3.247029e+01	7.718012e+02
1.970000e-06	4.618053e-06	1.172060e-08	3.207386e+01	7.683076e+02
1.980000e-06	4.559327e-06	1.167109e-08	3.166599e+01	7.649346e+02
1.990000e-06	4.499018e-06	1.161869e-08	3.124712e+01	7.616942e+02
2.000000e-06	4.436934e-06	1.161080e-08	3.081593e+01	7.585629e+02
2.010000e-06	4.373307e-06	1.154455e-08	3.037402e+01	7.554850e+02
2.020000e-06	4.308199e-06	1.147762e-08	2.992183e+01	7.523794e+02
2.030000e-06	4.241625e-06	1.139560e-08	2.945945e+01	7.491506e+02
2.040000e-06	4.173488e-06	1.132810e-08	2.898621e+01	7.457016e+02
2.050000e-06	4.103581e-06	1.128350e-08	2.850069e+01	7.419472e+02
2.060000e-06	4.032176e-06	1.119880e-08	2.800476e+01	7.378257e+02
2.070000e-06	3.959449e-06	1.115195e-08	2.749965e+01	7.333074e+02
2.080000e-06	3.885277e-06	1.109195e-08	2.698450e+01	7.283993e+02
2.090000e-06	3.809490e-06	1.103161e-08	2.645813e+01	7.231436e+02
2.100000e-06	3.732055e-06	1.095521e-08	2.592032e+01	7.176125e+02
2.110000e-06	3.653167e-06	1.085059e-08	2.537242e+01	7.118976e+02
2.120000e-06	3.573052e-06	1.077080e-08	2.481600e+01	7.060971e+02
2.130000e-06	3.491809e-06	1.068442e-08	2.425174e+01	7.003012e+02
2.140000e-06	3.409413e-06	1.062407e-08	2.367947e+01	6.945792e+02
2.150000e-06	3.325879e-06	1.054404e-08	2.309930e+01	6.889678e+02
2.160000e-06	3.241037e-06	1.044826e-08	2.251004e+01	6.834654e+02
2.170000e-06	3.154806e-06	1.035322e-08	2.191114e+01	6.780306e+02
2.180000e-06	3.067482e-06	1.024958e-08	2.130465e+01	6.725861e+02
2.190000e-06	2.979221e-06	1.015626e-08	2.069165e+01	6.670289e+02
2.200000e-06	2.890006e-06	1.005414e-08	2.007202e+01	6.612430e+02
2.210000e-06	2.799789e-06	9.968353e-09	1.944543e+01	6.551153e+02
2.220000e-06	2.708646e-06	9.873810e-09	1.881242e+01	6.485510e+02
2.230000e-06	2.616579e-06	9.761194e-09	1.817298e+01	6.414872e+02
2.240000e-06	2.523465e-06	9.637426e-09	1.752627e+01	6.339016e+02
2.250000e-06	2.429315e-06	9.511550e-09	1.687237e+01	6.258168e+02
2.260000e-06	2.334278e-06	9.400820e-09	1.621231e+01	6.172974e+02
2.270000e-06	2.238448e-06	9.291154e-09	1.554674e+01	6.084411e+02
2.280000e-06	2.141843e-06	9.176165e-09	1.487579e+01	5.993647e+02
2.290000e-06	2.044532e-06	9.047398e-09	1.419993e+01	5.901870e+02
2.300000e-06	1.946582e-06	8.912051e-09	1.351964e+01	5.810097e+02
2.310000e-06	1.848054e-06	8.769901e-09	1.283533e+01	5.719005e+02
2.320000e-06	1.748980e-06	8.620188e-09	1.214723e+01	5.628799e+02
2.330000e-06	1.649385e-06	8.468112e-09	1.145551e+01	5.539137e+02
2.340000e-06	1.549235e-06	8.323632e-09	1.075993e+01	5.449133e+02
2.350000e-06	1.448365e-06	8.181013e-09	1.005936e+01	5.357428e+02
2.360000e-06	1.346761e-06	8.023387e-09	9.353691e+00	5.262341e+02
2.370000e-06	1.244576e-06	7.850114e-09	8.643982e+00	5.162069e+02
2.380000e-06	1.141936e-06	7.671105e-09	7.931113e+00	5.054913e+02
2.390000e-06	1.038953e-06	7.494595e-09	7.215862e+00	4.939507e+02
2.400000e-06	9.355965e-07	7.311609e-09	6.498019e+00	4.815010e+02
2.410000e-06	8.318611e-07	7.120505e-09	5.777543e+00	4.681235e+02
2.420000e-06	7.278864e-07	6.923740e-09	5.055405e+00	4.538696e+02
2.430000e-06	6.237320e-07	6.719640e-09	4.332019e+00	4.388543e+02
2.440000e-06	5.193428e-07	6.502804e-09	3.607003e+00	4.232408e+02
2.450000e-06	4.147395e-07	6.272302e-09	2.880499e+00	4.072157e+02
2.460000e-06	3.100084e-07	6.032861e-09	2.153108e+00	3.909573e+02
2.470000e-06	2.051916e-07	5.788917e-09	1.425122e+00	3.746016e+02
2.480000e-06	1.003220e-07	5.539457e-09	6.967684e-01	3.582089e+02
2.490000e-06	-4.545346e-09	5.275434e-09	-3.156889e-02	3.417363e+02
2.500000e-06	-1.093967e-07	4.994225e-09	-7.597953e-01	3.250192e+02
2.510000e-06	-2.142328e-07	4.696580e-09	-1.487916e+00	3.077656e+02
2.520000e-06	-3.189611e-07	4.385024e-09	-2.215288e+00	2.895648e+02
2.530000e-06	-4.235335e-07	4.056655e-09	-2.941576e+00	2.699115e+02
2.540000e-06	-5.279764e-07	3.704415e-09	-3.666966e+00	2.482427e+02
2.550000e-06	-6.322578e-07	3.329050e-09	-4.391234e+00	2.239864e+02
2.560000e-06	-7.363364e-07	2.932266e-09	-5.114093e+00	1.966158e+02
2.570000e-06	-8.401576e-07	2.504137e-09	-5.835165e+00	1.657052e+02
2.580000e-06	-9.436618e-07	2.031663e-09	-6.554034e+00	1.309821e+02
2.590000e-06	-1.046807e-06	1.505606e-09	-7.270410e+00	9.236821e+01
2.600000e-06	-1.149571e-06	9.165086e-10	-7.984141e+00	5.000748e+01
2.610000e-06	-1.251861e-06	2.551328e-10	-8.694579e+00	4.275088e+00
2.620000e-06	-1.353589e-06	-4.841344e-10	-9.401113e+00	-4.423244e+01
2.630000e-06	-1.454712e-06	-1.295426e-09	-1.010344e+01	-9.472663e+01
2.640000e-06	-1.555198e-06	-2.154868e-09	-1.080135e+01	-1.462736e+02
2.650000e-06	-1.655069e-06	-3.025299e-09	-1.149499e+01	-1.978536e+02
2.660000e-06	-1.754321e-06	-3.866188e-09	-1.218432e+01	-2.484289e+02
2.670000e-06	-1.852957e-06	-4.643824e-09	-1.286938e+01	-2.970133e+02
2.680000e-06	-1.951004e-06	-5.340220e-09	-1.355035e+01	-3.427369e+02
2.690000e-06	-2.048405e-06	-5.950601e-09	-1.422683e+01	-3.849015e+02
2.700000e-06	-2.145105e-06	-6.481244e-09	-1.489844e+01	-4.230201e+02
2.710000e-06	-2.241128e-06	-6.945925e-09	-1.556536e+01	-4.568386e+02
2.720000e-06	-2.336563e-06	-7.356227e-09	-1.622818e+01	-4.863375e+02
2.730000e-06	-2.431364e-06	-7.717812e-09	-1.688661e+01	-5.117145e+02
2.740000e-06	-2.525238e-06	-8.038790e-09	-1.753859e+01	-5.333502e+02
2.750000e-06	-2.617991e-06	-8.330493e-09	-1.818279e+01	-5.517610e+02
2.760000e-06	-2.709631e-06	-8.598437e-09	-1.881926e+01	-5.675442e+02
2.770000e-06	-2.800217e-06	-8.841258e-09	-1.944841e+01	-5.813205e+02
2.780000e-06	-2.889785e-06	-9.061564e-09	-2.007048e+01	-5.936806e+02
2.790000e-06	-2.978282e-06	-9.265613e-09	-2.068512e+01	-6.051400e+02
2.800000e-06	-3.065853e-06	-9.457927e-09	-2.129333e+01	-6.161049e+02
2.810000e-06	-3.152552e-06	-9.637441e-09	-2.189549e+01	-6.268544e+02
2.820000e-06	-3.238019e-06	-9.802729e-09	-2.248909e+01	-6.375363e+02
2.830000e-06	-3.322108e-06	-9.958059e-09	-2.307311e+01	-6.481781e+02
2.840000e-06	-3.404991e-06	-1.010646e-08	-2.364876e+01	-6.587088e+02
2.850000e-06	-3.486763e-06	-1.024471e-08	-2.421669e+01	-6.689899e+02
2.860000e-06	-3.567395e-06	-1.037218e-08	-2.477671e+01	-6.788495e+02
2.870000e-06	-3.646895e-06	-1.049097e-08	-2.532886e+01	-6.881167e+02
2.880000e-06	-3.725188e-06	-1.060437e-08	-2.587263e+01	-6.966510e+02
2.890000e-06	-3.801900e-06	-1.071264e-08	-2.640542e+01	-7.043650e+02
2.900000e-06	-3.876940e-06	-1.081351e-08	-2.692660e+01	-7.112368e+02
2.910000e-06	-3.950548e-06	-1.091073e-08	-2.743782e+01	-7.173124e+02
2.920000e-06	-4.022779e-06	-1.100825e-08	-2.793949e+01	-7.226988e+02
2.930000e-06	-4.093646e-06	-1.110231e-08	-2.843169e+01	-7.275482e+02
2.940000e-06	-4.162996e-06	-1.118807e-08	-2.891334e+01	-7.320372e+02
