# Temperatura_=_59.87
# Concentracion g/m^3_=_15500.0
# C_Vs_to_Am_M_A/Vsm_=_65563218390.804596
# pendiente_HvsI_1/m_=_3716.3
# ordenada_HvsI_A/m_=_1297.0
# frecuencia_Hz_=_300795.37291130377

Tiempo_(s)	Campo_(V.s)	Magnetizacion_(V.s)	Campo_(kA/m)	Magnetizacion_(A/m)
0.000000e+00	-5.508698e-06	-1.264870e-08	-3.831224e+01	-8.281462e+02
1.000000e-08	-5.506696e-06	-1.265123e-08	-3.829832e+01	-8.283660e+02
2.000000e-08	-5.502760e-06	-1.264822e-08	-3.827094e+01	-8.285976e+02
3.000000e-08	-5.497097e-06	-1.264079e-08	-3.823156e+01	-8.287589e+02
4.000000e-08	-5.489810e-06	-1.262980e-08	-3.818087e+01	-8.287651e+02
5.000000e-08	-5.480876e-06	-1.261307e-08	-3.811874e+01	-8.285402e+02
6.000000e-08	-5.470005e-06	-1.259337e-08	-3.804313e+01	-8.280287e+02
7.000000e-08	-5.457032e-06	-1.256714e-08	-3.795291e+01	-8.272028e+02
8.000000e-08	-5.442023e-06	-1.255912e-08	-3.784852e+01	-8.260667e+02
9.000000e-08	-5.424603e-06	-1.260764e-08	-3.772737e+01	-8.246554e+02
1.000000e-07	-5.404794e-06	-1.261920e-08	-3.758960e+01	-8.230301e+02
1.100000e-07	-5.383016e-06	-1.257959e-08	-3.743814e+01	-8.212690e+02
1.200000e-07	-5.359523e-06	-1.254512e-08	-3.727475e+01	-8.194560e+02
1.300000e-07	-5.334620e-06	-1.243456e-08	-3.710155e+01	-8.176690e+02
1.400000e-07	-5.308190e-06	-1.241569e-08	-3.691773e+01	-8.159680e+02
1.500000e-07	-5.279876e-06	-1.249071e-08	-3.672081e+01	-8.143868e+02
1.600000e-07	-5.249846e-06	-1.237386e-08	-3.651196e+01	-8.129272e+02
1.700000e-07	-5.218212e-06	-1.237676e-08	-3.629195e+01	-8.115588e+02
1.800000e-07	-5.184553e-06	-1.244661e-08	-3.605785e+01	-8.102226e+02
1.900000e-07	-5.148909e-06	-1.232641e-08	-3.580995e+01	-8.088385e+02
2.000000e-07	-5.111730e-06	-1.233048e-08	-3.555138e+01	-8.073170e+02
2.100000e-07	-5.072815e-06	-1.229603e-08	-3.528073e+01	-8.055706e+02
2.200000e-07	-5.032075e-06	-1.216826e-08	-3.499739e+01	-8.035266e+02
2.300000e-07	-4.989474e-06	-1.219175e-08	-3.470111e+01	-8.011370e+02
2.400000e-07	-4.944873e-06	-1.218831e-08	-3.439091e+01	-7.983855e+02
2.500000e-07	-4.898486e-06	-1.214620e-08	-3.406830e+01	-7.952899e+02
2.600000e-07	-4.850252e-06	-1.209798e-08	-3.373284e+01	-7.919003e+02
2.700000e-07	-4.799993e-06	-1.200596e-08	-3.338329e+01	-7.882918e+02
2.800000e-07	-4.747697e-06	-1.197885e-08	-3.301958e+01	-7.845550e+02
2.900000e-07	-4.693482e-06	-1.193668e-08	-3.264252e+01	-7.807828e+02
3.000000e-07	-4.637577e-06	-1.187699e-08	-3.225371e+01	-7.770581e+02
3.100000e-07	-4.580009e-06	-1.182472e-08	-3.185333e+01	-7.734414e+02
3.200000e-07	-4.520655e-06	-1.179328e-08	-3.144054e+01	-7.699628e+02
3.300000e-07	-4.459664e-06	-1.177402e-08	-3.101635e+01	-7.666165e+02
3.400000e-07	-4.397207e-06	-1.168232e-08	-3.058197e+01	-7.633617e+02
3.500000e-07	-4.333317e-06	-1.159917e-08	-3.013763e+01	-7.601275e+02
3.600000e-07	-4.267944e-06	-1.152673e-08	-2.968297e+01	-7.568218e+02
3.700000e-07	-4.200827e-06	-1.147168e-08	-2.921617e+01	-7.533445e+02
3.800000e-07	-4.132033e-06	-1.144123e-08	-2.873772e+01	-7.496003e+02
3.900000e-07	-4.061841e-06	-1.136445e-08	-2.824955e+01	-7.455123e+02
4.000000e-07	-3.990384e-06	-1.129150e-08	-2.775257e+01	-7.410325e+02
4.100000e-07	-3.917683e-06	-1.122435e-08	-2.724695e+01	-7.361487e+02
4.200000e-07	-3.843395e-06	-1.115189e-08	-2.673028e+01	-7.308864e+02
4.300000e-07	-3.767340e-06	-1.106242e-08	-2.620133e+01	-7.253054e+02
4.400000e-07	-3.689740e-06	-1.096762e-08	-2.566164e+01	-7.194913e+02
4.500000e-07	-3.610709e-06	-1.090281e-08	-2.511199e+01	-7.135439e+02
4.600000e-07	-3.530163e-06	-1.083317e-08	-2.455180e+01	-7.075622e+02
4.700000e-07	-3.448252e-06	-1.075370e-08	-2.398212e+01	-7.016305e+02
4.800000e-07	-3.365154e-06	-1.065480e-08	-2.340419e+01	-6.958050e+02
4.900000e-07	-3.280960e-06	-1.055211e-08	-2.281863e+01	-6.901049e+02
5.000000e-07	-3.195801e-06	-1.046982e-08	-2.222636e+01	-6.845082e+02
5.100000e-07	-3.109667e-06	-1.038328e-08	-2.162730e+01	-6.789531e+02
5.200000e-07	-3.022569e-06	-1.028431e-08	-2.102156e+01	-6.733450e+02
5.300000e-07	-2.934522e-06	-1.017527e-08	-2.040919e+01	-6.675687e+02
5.400000e-07	-2.845489e-06	-1.007008e-08	-1.978999e+01	-6.615032e+02
5.500000e-07	-2.755419e-06	-9.966709e-09	-1.916356e+01	-6.550384e+02
5.600000e-07	-2.664184e-06	-9.852048e-09	-1.852903e+01	-6.480902e+02
5.700000e-07	-2.571853e-06	-9.733545e-09	-1.788688e+01	-6.406128e+02
5.800000e-07	-2.478636e-06	-9.621346e-09	-1.723857e+01	-6.326053e+02
5.900000e-07	-2.384613e-06	-9.517706e-09	-1.658465e+01	-6.241131e+02
6.000000e-07	-2.289847e-06	-9.402510e-09	-1.592557e+01	-6.152215e+02
6.100000e-07	-2.194347e-06	-9.268347e-09	-1.526138e+01	-6.060442e+02
6.200000e-07	-2.098084e-06	-9.124731e-09	-1.459189e+01	-5.967066e+02
6.300000e-07	-2.001064e-06	-8.984266e-09	-1.391713e+01	-5.873272e+02
6.400000e-07	-1.903184e-06	-8.848935e-09	-1.323638e+01	-5.779980e+02
6.500000e-07	-1.804458e-06	-8.707347e-09	-1.254976e+01	-5.687688e+02
6.600000e-07	-1.705024e-06	-8.561735e-09	-1.185821e+01	-5.596358e+02
6.700000e-07	-1.604914e-06	-8.417094e-09	-1.116195e+01	-5.505374e+02
6.800000e-07	-1.504240e-06	-8.268861e-09	-1.046178e+01	-5.413579e+02
6.900000e-07	-1.403111e-06	-8.104919e-09	-9.758445e+00	-5.319389e+02
7.000000e-07	-1.301544e-06	-7.926025e-09	-9.052059e+00	-5.220973e+02
7.100000e-07	-1.199525e-06	-7.745782e-09	-8.342533e+00	-5.116479e+02
7.200000e-07	-1.097040e-06	-7.568385e-09	-7.629765e+00	-5.004278e+02
7.300000e-07	-9.941969e-07	-7.386886e-09	-6.914503e+00	-4.883181e+02
7.400000e-07	-8.910520e-07	-7.195026e-09	-6.197144e+00	-4.752625e+02
7.500000e-07	-7.875824e-07	-6.996974e-09	-5.477527e+00	-4.612758e+02
7.600000e-07	-6.838605e-07	-6.796510e-09	-4.756156e+00	-4.464446e+02
7.700000e-07	-5.799202e-07	-6.585430e-09	-4.033266e+00	-4.309163e+02
7.800000e-07	-4.757690e-07	-6.355628e-09	-3.308908e+00	-4.148780e+02
7.900000e-07	-3.714631e-07	-6.114437e-09	-2.583475e+00	-3.985275e+02
8.000000e-07	-2.670851e-07	-5.872894e-09	-1.857540e+00	-3.820387e+02
8.100000e-07	-1.626515e-07	-5.627635e-09	-1.131219e+00	-3.655263e+02
8.200000e-07	-5.814738e-08	-5.367467e-09	-4.044071e-01	-3.490124e+02
8.300000e-07	4.639525e-08	-5.089001e-09	3.226726e-01	-3.324022e+02
8.400000e-07	1.509154e-07	-4.800897e-09	1.049596e+00	-3.154701e+02
8.500000e-07	2.553471e-07	-4.505060e-09	1.775904e+00	-2.978599e+02
8.600000e-07	3.596989e-07	-4.187050e-09	2.501657e+00	-2.791009e+02
8.700000e-07	4.639263e-07	-3.836328e-09	3.226544e+00	-2.586391e+02
8.800000e-07	5.679822e-07	-3.462722e-09	3.950238e+00	-2.358808e+02
8.900000e-07	6.718726e-07	-3.074775e-09	4.672781e+00	-2.102462e+02
9.000000e-07	7.755717e-07	-2.662673e-09	5.393995e+00	-1.812273e+02
9.100000e-07	8.790244e-07	-2.207025e-09	6.113494e+00	-1.484442e+02
9.200000e-07	9.821779e-07	-1.699066e-09	6.830912e+00	-1.116951e+02
9.300000e-07	1.084994e-06	-1.139539e-09	7.545983e+00	-7.099331e+01
9.400000e-07	1.187421e-06	-5.146783e-10	8.258352e+00	-2.658760e+01
9.500000e-07	1.289424e-06	1.983486e-10	8.967770e+00	2.103653e+01
9.600000e-07	1.391043e-06	1.002577e-09	9.674513e+00	7.117624e+01
9.700000e-07	1.492256e-06	1.868078e-09	1.037843e+01	1.229498e+02
9.800000e-07	1.592965e-06	2.752953e-09	1.107885e+01	1.753514e+02
9.900000e-07	1.693122e-06	3.619129e-09	1.177543e+01	2.273166e+02
1.000000e-06	1.792632e-06	4.433153e-09	1.246751e+01	2.777945e+02
1.010000e-06	1.891360e-06	5.167218e-09	1.315415e+01	3.258181e+02
1.020000e-06	1.989208e-06	5.809632e-09	1.383467e+01	3.705671e+02
1.030000e-06	2.086247e-06	6.370484e-09	1.450956e+01	4.114190e+02
1.040000e-06	2.182584e-06	6.865920e-09	1.517957e+01	4.479813e+02
1.050000e-06	2.278244e-06	7.303251e-09	1.584488e+01	4.801052e+02
1.060000e-06	2.373149e-06	7.683979e-09	1.650493e+01	5.078779e+02
1.070000e-06	2.467234e-06	8.017593e-09	1.715927e+01	5.315970e+02
1.080000e-06	2.560536e-06	8.317218e-09	1.780818e+01	5.517276e+02
1.090000e-06	2.653008e-06	8.591848e-09	1.845131e+01	5.688501e+02
1.100000e-06	2.744483e-06	8.842563e-09	1.908750e+01	5.836006e+02
1.110000e-06	2.834852e-06	9.070254e-09	1.971601e+01	5.966134e+02
1.120000e-06	2.924115e-06	9.282852e-09	2.033682e+01	6.084685e+02
1.130000e-06	3.012332e-06	9.485237e-09	2.095035e+01	6.196495e+02
1.140000e-06	3.099558e-06	9.674628e-09	2.155700e+01	6.305162e+02
1.150000e-06	3.185768e-06	9.846065e-09	2.215658e+01	6.412920e+02
1.160000e-06	3.270958e-06	1.000268e-08	2.274906e+01	6.520673e+02
1.170000e-06	3.355066e-06	1.015110e-08	2.333402e+01	6.628163e+02
1.180000e-06	3.437992e-06	1.029447e-08	2.391076e+01	6.734246e+02
1.190000e-06	3.519655e-06	1.043229e-08	2.447871e+01	6.837234e+02
1.200000e-06	3.600014e-06	1.056178e-08	2.503760e+01	6.935257e+02
1.210000e-06	3.679061e-06	1.068305e-08	2.558737e+01	7.026603e+02
1.220000e-06	3.756825e-06	1.079964e-08	2.612820e+01	7.109998e+02
1.230000e-06	3.833241e-06	1.090957e-08	2.665967e+01	7.184797e+02
1.240000e-06	3.908090e-06	1.100860e-08	2.718023e+01	7.251064e+02
1.250000e-06	3.981359e-06	1.110061e-08	2.768981e+01	7.309560e+02
1.260000e-06	4.053181e-06	1.119047e-08	2.818931e+01	7.361618e+02
1.270000e-06	4.123599e-06	1.127855e-08	2.867906e+01	7.408961e+02
1.280000e-06	4.192669e-06	1.136418e-08	2.915944e+01	7.453470e+02
1.290000e-06	4.260303e-06	1.144737e-08	2.962982e+01	7.496939e+02
1.300000e-06	4.326267e-06	1.153043e-08	3.008859e+01	7.540864e+02
1.310000e-06	4.390620e-06	1.160998e-08	3.053616e+01	7.586267e+02
1.320000e-06	4.453538e-06	1.168093e-08	3.097374e+01	7.633608e+02
1.330000e-06	4.515046e-06	1.174395e-08	3.140153e+01	7.682760e+02
1.340000e-06	4.575076e-06	1.180441e-08	3.181902e+01	7.733069e+02
1.350000e-06	4.633370e-06	1.186602e-08	3.222445e+01	7.783483e+02
1.360000e-06	4.689867e-06	1.192678e-08	3.261738e+01	7.832722e+02
1.370000e-06	4.744759e-06	1.198732e-08	3.299914e+01	7.879469e+02
1.380000e-06	4.797882e-06	1.204764e-08	3.336861e+01	7.922564e+02
1.390000e-06	4.848954e-06	1.210425e-08	3.372381e+01	7.961153e+02
1.400000e-06	4.898049e-06	1.215551e-08	3.406526e+01	7.994807e+02
1.410000e-06	4.945375e-06	1.220011e-08	3.439440e+01	8.023560e+02
1.420000e-06	4.991052e-06	1.223913e-08	3.471208e+01	8.047893e+02
1.430000e-06	5.035003e-06	1.227753e-08	3.501775e+01	8.068655e+02
1.440000e-06	5.077022e-06	1.231804e-08	3.530999e+01	8.086934e+02
1.450000e-06	5.117199e-06	1.235879e-08	3.558942e+01	8.103904e+02
1.460000e-06	5.155719e-06	1.239651e-08	3.585731e+01	8.120662e+02
1.470000e-06	5.192578e-06	1.243277e-08	3.611367e+01	8.138084e+02
1.480000e-06	5.227536e-06	1.246654e-08	3.635680e+01	8.156715e+02
1.490000e-06	5.260517e-06	1.249458e-08	3.658617e+01	8.176708e+02
1.500000e-06	5.291741e-06	1.251738e-08	3.680333e+01	8.197820e+02
1.510000e-06	5.321281e-06	1.253839e-08	3.700878e+01	8.219462e+02
1.520000e-06	5.348968e-06	1.256097e-08	3.720134e+01	8.240796e+02
1.530000e-06	5.374548e-06	1.258389e-08	3.737924e+01	8.260862e+02
1.540000e-06	5.398123e-06	1.260466e-08	3.754320e+01	8.278722e+02
1.550000e-06	5.419958e-06	1.262266e-08	3.769506e+01	8.293593e+02
1.560000e-06	5.440062e-06	1.263828e-08	3.783489e+01	8.304960e+02
1.570000e-06	5.458167e-06	1.265102e-08	3.796080e+01	8.312641e+02
1.580000e-06	5.474214e-06	1.266106e-08	3.807241e+01	8.316815e+02
1.590000e-06	5.488325e-06	1.267052e-08	3.817055e+01	8.317989e+02
1.600000e-06	5.500271e-06	1.268124e-08	3.825363e+01	8.316923e+02
1.610000e-06	5.509986e-06	1.269088e-08	3.832120e+01	8.314527e+02
1.620000e-06	5.517761e-06	1.269622e-08	3.837527e+01	8.311724e+02
1.630000e-06	5.523712e-06	1.269800e-08	3.841666e+01	8.309331e+02
1.640000e-06	5.527789e-06	1.269819e-08	3.844501e+01	8.307943e+02
1.650000e-06	5.529831e-06	1.269973e-08	3.845921e+01	8.307858e+02
1.660000e-06	5.529944e-06	1.270092e-08	3.846000e+01	8.309038e+02
1.670000e-06	5.528346e-06	1.269571e-08	3.844889e+01	8.311122e+02
1.680000e-06	5.525042e-06	1.269136e-08	3.842591e+01	8.313484e+02
1.690000e-06	5.519790e-06	1.268841e-08	3.838938e+01	8.315327e+02
1.700000e-06	5.512569e-06	1.268207e-08	3.833916e+01	8.315795e+02
1.710000e-06	5.503687e-06	1.267193e-08	3.827739e+01	8.314103e+02
1.720000e-06	5.493078e-06	1.266267e-08	3.820360e+01	8.309642e+02
1.730000e-06	5.480462e-06	1.267025e-08	3.811586e+01	8.302071e+02
1.740000e-06	5.465839e-06	1.263132e-08	3.801416e+01	8.291361e+02
1.750000e-06	5.449174e-06	1.254899e-08	3.789826e+01	8.277800e+02
1.760000e-06	5.429952e-06	1.253557e-08	3.776457e+01	8.261950e+02
1.770000e-06	5.407995e-06	1.253455e-08	3.761186e+01	8.244565e+02
1.780000e-06	5.384082e-06	1.259854e-08	3.744555e+01	8.226483e+02
1.790000e-06	5.359219e-06	1.261811e-08	3.727263e+01	8.208505e+02
1.800000e-06	5.333448e-06	1.245871e-08	3.709340e+01	8.191279e+02
1.810000e-06	5.305635e-06	1.250301e-08	3.689996e+01	8.175203e+02
1.820000e-06	5.275560e-06	1.251830e-08	3.669080e+01	8.160368e+02
1.830000e-06	5.243971e-06	1.237026e-08	3.647110e+01	8.146535e+02
1.840000e-06	5.210628e-06	1.245326e-08	3.623920e+01	8.133172e+02
1.850000e-06	5.175504e-06	1.239594e-08	3.599492e+01	8.119514e+02
1.860000e-06	5.138595e-06	1.228301e-08	3.573822e+01	8.104675e+02
1.870000e-06	5.099565e-06	1.240014e-08	3.546678e+01	8.087767e+02
1.880000e-06	5.058834e-06	1.230299e-08	3.518350e+01	8.068021e+02
1.890000e-06	5.016453e-06	1.222103e-08	3.488874e+01	8.044897e+02
1.900000e-06	4.972096e-06	1.219196e-08	3.458024e+01	8.018160e+02
1.910000e-06	4.925975e-06	1.206883e-08	3.425948e+01	7.987916e+02
1.920000e-06	4.878042e-06	1.214965e-08	3.392611e+01	7.954600e+02
1.930000e-06	4.828329e-06	1.207421e-08	3.358036e+01	7.918918e+02
1.940000e-06	4.776789e-06	1.197934e-08	3.322191e+01	7.881751e+02
1.950000e-06	4.723119e-06	1.201461e-08	3.284865e+01	7.844036e+02
1.960000e-06	4.667702e-06	1.190860e-08	3.246323e+01	7.806633e+02
1.970000e-06	4.610665e-06	1.187299e-08	3.206654e+01	7.770204e+02
1.980000e-06	4.552052e-06	1.177088e-08	3.165890e+01	7.735120e+02
1.990000e-06	4.491858e-06	1.171472e-08	3.124025e+01	7.701403e+02
2.000000e-06	4.429897e-06	1.172915e-08	3.080932e+01	7.668716e+02
2.010000e-06	4.366358e-06	1.163975e-08	3.036742e+01	7.636407e+02
2.020000e-06	4.301280e-06	1.162099e-08	2.991481e+01	7.603593e+02
2.030000e-06	4.234805e-06	1.150840e-08	2.945249e+01	7.569278e+02
2.040000e-06	4.166818e-06	1.143941e-08	2.897965e+01	7.532487e+02
2.050000e-06	4.097039e-06	1.139092e-08	2.849434e+01	7.492401e+02
2.060000e-06	4.025724e-06	1.128104e-08	2.799836e+01	7.448472e+02
2.070000e-06	3.953086e-06	1.125381e-08	2.749317e+01	7.400497e+02
2.080000e-06	3.879096e-06	1.117255e-08	2.697858e+01	7.348652e+02
2.090000e-06	3.803435e-06	1.113185e-08	2.645237e+01	7.293465e+02
2.100000e-06	3.726035e-06	1.104707e-08	2.591406e+01	7.235749e+02
2.110000e-06	3.647231e-06	1.093684e-08	2.536599e+01	7.176481e+02
2.120000e-06	3.567216e-06	1.085974e-08	2.480950e+01	7.116665e+02
2.130000e-06	3.486077e-06	1.075393e-08	2.424519e+01	7.057189e+02
2.140000e-06	3.403810e-06	1.070298e-08	2.367303e+01	6.998682e+02
2.150000e-06	3.320356e-06	1.061251e-08	2.309262e+01	6.941423e+02
2.160000e-06	3.235525e-06	1.051954e-08	2.250263e+01	6.885279e+02
2.170000e-06	3.149349e-06	1.042342e-08	2.190329e+01	6.829715e+02
2.180000e-06	3.062096e-06	1.031622e-08	2.129646e+01	6.773846e+02
2.190000e-06	2.973873e-06	1.022120e-08	2.068288e+01	6.716552e+02
2.200000e-06	2.884672e-06	1.011163e-08	2.006250e+01	6.656622e+02
2.210000e-06	2.794574e-06	1.001959e-08	1.943588e+01	6.592917e+02
2.220000e-06	2.703668e-06	9.920411e-09	1.880364e+01	6.524530e+02
2.230000e-06	2.611763e-06	9.812316e-09	1.816445e+01	6.450913e+02
2.240000e-06	2.518781e-06	9.686794e-09	1.751777e+01	6.371957e+02
2.250000e-06	2.424756e-06	9.559454e-09	1.686384e+01	6.288020e+02
2.260000e-06	2.329792e-06	9.439336e-09	1.620338e+01	6.199878e+02
2.270000e-06	2.234089e-06	9.324529e-09	1.553778e+01	6.108618e+02
2.280000e-06	2.137653e-06	9.204900e-09	1.486708e+01	6.015488e+02
2.290000e-06	2.040482e-06	9.071767e-09	1.419127e+01	5.921700e+02
2.300000e-06	1.942647e-06	8.934742e-09	1.351084e+01	5.828248e+02
2.310000e-06	1.844236e-06	8.791617e-09	1.282641e+01	5.735731e+02
2.320000e-06	1.745325e-06	8.647199e-09	1.213849e+01	5.644233e+02
2.330000e-06	1.645890e-06	8.492298e-09	1.144694e+01	5.553262e+02
2.340000e-06	1.545821e-06	8.340600e-09	1.075097e+01	5.461768e+02
2.350000e-06	1.445052e-06	8.186966e-09	1.005014e+01	5.368246e+02
2.360000e-06	1.343608e-06	8.024645e-09	9.344609e+00	5.270900e+02
2.370000e-06	1.241556e-06	7.851449e-09	8.634849e+00	5.167864e+02
2.380000e-06	1.139024e-06	7.667307e-09	7.921755e+00	5.057438e+02
2.390000e-06	1.036078e-06	7.487665e-09	7.205782e+00	4.938324e+02
2.400000e-06	9.327377e-07	7.304968e-09	6.487063e+00	4.809814e+02
2.410000e-06	8.291079e-07	7.114294e-09	5.766332e+00	4.671898e+02
2.420000e-06	7.252349e-07	6.910089e-09	5.043909e+00	4.525296e+02
2.430000e-06	6.211495e-07	6.693480e-09	4.320009e+00	4.371365e+02
2.440000e-06	5.168782e-07	6.469568e-09	3.594817e+00	4.211913e+02
2.450000e-06	4.124180e-07	6.237565e-09	2.868311e+00	4.048923e+02
2.460000e-06	3.077967e-07	5.997387e-09	2.140683e+00	3.884216e+02
2.470000e-06	2.030764e-07	5.750479e-09	1.412368e+00	3.719094e+02
2.480000e-06	9.833104e-08	5.496511e-09	6.838789e-01	3.554001e+02
2.490000e-06	-6.416537e-09	5.230548e-09	-4.462613e-02	3.388256e+02
2.500000e-06	-1.111514e-07	4.947394e-09	-7.730427e-01	3.219888e+02
2.510000e-06	-2.158875e-07	4.644184e-09	-1.501468e+00	3.045606e+02
2.520000e-06	-3.205489e-07	4.324182e-09	-2.229374e+00	2.860928e+02
2.530000e-06	-4.250618e-07	3.988504e-09	-2.956247e+00	2.660459e+02
2.540000e-06	-5.294098e-07	3.631631e-09	-3.681972e+00	2.438304e+02
2.550000e-06	-6.335821e-07	3.251270e-09	-4.406476e+00	2.188589e+02
2.560000e-06	-7.375214e-07	2.846450e-09	-5.129360e+00	1.906029e+02
2.570000e-06	-8.411264e-07	2.407319e-09	-5.849919e+00	1.586507e+02
2.580000e-06	-9.444621e-07	1.922865e-09	-6.568604e+00	1.227588e+02
2.590000e-06	-1.047512e-06	1.382099e-09	-7.285301e+00	8.289185e+01
2.600000e-06	-1.150130e-06	7.736110e-10	-7.998999e+00	3.924748e+01
2.610000e-06	-1.252289e-06	8.903619e-11	-8.709500e+00	-7.738600e+00
2.620000e-06	-1.353903e-06	-6.766035e-10	-9.416208e+00	-5.740752e+01
2.630000e-06	-1.454914e-06	-1.515520e-09	-1.011872e+01	-1.089118e+02
2.640000e-06	-1.555384e-06	-2.398057e-09	-1.081748e+01	-1.612668e+02
2.650000e-06	-1.655230e-06	-3.281739e-09	-1.151190e+01	-2.134149e+02
2.660000e-06	-1.754381e-06	-4.123746e-09	-1.220148e+01	-2.642963e+02
2.670000e-06	-1.852908e-06	-4.891391e-09	-1.288672e+01	-3.129201e+02
2.680000e-06	-1.950843e-06	-5.573770e-09	-1.356785e+01	-3.584300e+02
2.690000e-06	-2.048160e-06	-6.173191e-09	-1.424467e+01	-4.001576e+02
2.700000e-06	-2.144785e-06	-6.693682e-09	-1.491669e+01	-4.376593e+02
2.710000e-06	-2.240709e-06	-7.144801e-09	-1.558383e+01	-4.707341e+02
2.720000e-06	-2.336012e-06	-7.541284e-09	-1.624664e+01	-4.994202e+02
2.730000e-06	-2.430674e-06	-7.891986e-09	-1.690500e+01	-5.239731e+02
2.740000e-06	-2.524441e-06	-8.204259e-09	-1.755714e+01	-5.448263e+02
2.750000e-06	-2.617083e-06	-8.487500e-09	-1.820146e+01	-5.625402e+02
2.760000e-06	-2.708611e-06	-8.748715e-09	-1.883802e+01	-5.777440e+02
2.770000e-06	-2.799117e-06	-8.991614e-09	-1.946747e+01	-5.910773e+02
2.780000e-06	-2.888629e-06	-9.213732e-09	-2.009002e+01	-6.031353e+02
2.790000e-06	-2.977116e-06	-9.415499e-09	-2.070544e+01	-6.144253e+02
2.800000e-06	-3.064618e-06	-9.601120e-09	-2.131400e+01	-6.253352e+02
2.810000e-06	-3.151149e-06	-9.774418e-09	-2.191581e+01	-6.361179e+02
2.820000e-06	-3.236517e-06	-9.937102e-09	-2.250953e+01	-6.468913e+02
2.830000e-06	-3.320537e-06	-1.009111e-08	-2.309388e+01	-6.576524e+02
2.840000e-06	-3.403347e-06	-1.023967e-08	-2.366981e+01	-6.683032e+02
2.850000e-06	-3.485090e-06	-1.037968e-08	-2.423832e+01	-6.786834e+02
2.860000e-06	-3.565696e-06	-1.050961e-08	-2.479892e+01	-6.886068e+02
2.870000e-06	-3.645067e-06	-1.063032e-08	-2.535094e+01	-6.978965e+02
2.880000e-06	-3.723034e-06	-1.074250e-08	-2.589319e+01	-7.064136e+02
2.890000e-06	-3.799412e-06	-1.084712e-08	-2.642439e+01	-7.140789e+02
2.900000e-06	-3.874273e-06	-1.094644e-08	-2.694504e+01	-7.208838e+02
2.910000e-06	-3.947701e-06	-1.104379e-08	-2.745572e+01	-7.268897e+02
2.920000e-06	-4.019741e-06	-1.114091e-08	-2.795674e+01	-7.322193e+02
2.930000e-06	-4.090533e-06	-1.123518e-08	-2.844910e+01	-7.370384e+02
2.940000e-06	-4.159821e-06	-1.132281e-08	-2.893098e+01	-7.415337e+02
