# Temperatura_=_22.85
# Concentracion g/m^3_=_15500.0
# C_Vs_to_Am_M_A/Vsm_=_65563218390.804596
# pendiente_HvsI_1/m_=_3716.3
# ordenada_HvsI_A/m_=_1297.0
# frecuencia_Hz_=_300811.8392003637

Tiempo_(s)	Campo_(V.s)	Magnetizacion_(V.s)	Campo_(kA/m)	Magnetizacion_(A/m)
0.000000e+00	-5.539114e-06	-1.215014e-08	-3.830747e+01	-7.939648e+02
1.000000e-08	-5.537087e-06	-1.215857e-08	-3.829345e+01	-7.939523e+02
2.000000e-08	-5.533083e-06	-1.215841e-08	-3.826576e+01	-7.940122e+02
3.000000e-08	-5.527360e-06	-1.215250e-08	-3.822618e+01	-7.940970e+02
4.000000e-08	-5.520005e-06	-1.214018e-08	-3.817531e+01	-7.941441e+02
5.000000e-08	-5.511006e-06	-1.212076e-08	-3.811308e+01	-7.940858e+02
6.000000e-08	-5.500003e-06	-1.209833e-08	-3.803698e+01	-7.938590e+02
7.000000e-08	-5.486848e-06	-1.207076e-08	-3.794600e+01	-7.934139e+02
8.000000e-08	-5.471653e-06	-1.208543e-08	-3.784092e+01	-7.927217e+02
9.000000e-08	-5.454121e-06	-1.214270e-08	-3.771967e+01	-7.917786e+02
1.000000e-07	-5.434293e-06	-1.212144e-08	-3.758254e+01	-7.906060e+02
1.100000e-07	-5.412456e-06	-1.208853e-08	-3.743152e+01	-7.892478e+02
1.200000e-07	-5.388830e-06	-1.206323e-08	-3.726813e+01	-7.877638e+02
1.300000e-07	-5.363731e-06	-1.193634e-08	-3.709455e+01	-7.862211e+02
1.400000e-07	-5.337074e-06	-1.199670e-08	-3.691020e+01	-7.846841e+02
1.500000e-07	-5.308622e-06	-1.202183e-08	-3.671343e+01	-7.832055e+02
1.600000e-07	-5.278471e-06	-1.185152e-08	-3.650491e+01	-7.818181e+02
1.700000e-07	-5.246666e-06	-1.197036e-08	-3.628495e+01	-7.805296e+02
1.800000e-07	-5.212823e-06	-1.197011e-08	-3.605090e+01	-7.793210e+02
1.900000e-07	-5.177058e-06	-1.183376e-08	-3.580356e+01	-7.781488e+02
2.000000e-07	-5.139738e-06	-1.191745e-08	-3.554546e+01	-7.769499e+02
2.100000e-07	-5.100643e-06	-1.181808e-08	-3.527509e+01	-7.756507e+02
2.200000e-07	-5.059690e-06	-1.174365e-08	-3.499186e+01	-7.741761e+02
2.300000e-07	-5.016763e-06	-1.179970e-08	-3.469499e+01	-7.724602e+02
2.400000e-07	-4.971932e-06	-1.172584e-08	-3.438494e+01	-7.704547e+02
2.500000e-07	-4.925394e-06	-1.172190e-08	-3.406309e+01	-7.681361e+02
2.600000e-07	-4.876956e-06	-1.166424e-08	-3.372811e+01	-7.655084e+02
2.700000e-07	-4.826400e-06	-1.158533e-08	-3.337847e+01	-7.626030e+02
2.800000e-07	-4.773748e-06	-1.159732e-08	-3.301434e+01	-7.594742e+02
2.900000e-07	-4.719221e-06	-1.155187e-08	-3.263724e+01	-7.561918e+02
3.000000e-07	-4.663094e-06	-1.150228e-08	-3.224907e+01	-7.528313e+02
3.100000e-07	-4.605227e-06	-1.144686e-08	-3.184888e+01	-7.494635e+02
3.200000e-07	-4.545507e-06	-1.141727e-08	-3.143587e+01	-7.461444e+02
3.300000e-07	-4.484209e-06	-1.136021e-08	-3.101194e+01	-7.429075e+02
3.400000e-07	-4.421451e-06	-1.128133e-08	-3.057792e+01	-7.397581e+02
3.500000e-07	-4.357245e-06	-1.125206e-08	-3.013388e+01	-7.366731e+02
3.600000e-07	-4.291411e-06	-1.118054e-08	-2.967859e+01	-7.336029e+02
3.700000e-07	-4.223853e-06	-1.114863e-08	-2.921137e+01	-7.304785e+02
3.800000e-07	-4.154736e-06	-1.110917e-08	-2.873337e+01	-7.272203e+02
3.900000e-07	-4.084191e-06	-1.101375e-08	-2.824550e+01	-7.237492e+02
4.000000e-07	-4.012327e-06	-1.095643e-08	-2.774849e+01	-7.199974e+02
4.100000e-07	-3.939094e-06	-1.088695e-08	-2.724203e+01	-7.159175e+02
4.200000e-07	-3.864244e-06	-1.082847e-08	-2.672438e+01	-7.114894e+02
4.300000e-07	-3.787729e-06	-1.075157e-08	-2.619522e+01	-7.067229e+02
4.400000e-07	-3.709713e-06	-1.068379e-08	-2.565567e+01	-7.016566e+02
4.500000e-07	-3.630193e-06	-1.062844e-08	-2.510573e+01	-6.963522e+02
4.600000e-07	-3.549215e-06	-1.055619e-08	-2.454570e+01	-6.908861e+02
4.700000e-07	-3.466966e-06	-1.047731e-08	-2.397688e+01	-6.853376e+02
4.800000e-07	-3.383503e-06	-1.037239e-08	-2.339967e+01	-6.797781e+02
4.900000e-07	-3.299005e-06	-1.028868e-08	-2.281529e+01	-6.742592e+02
5.000000e-07	-3.213533e-06	-1.021004e-08	-2.222419e+01	-6.688052e+02
5.100000e-07	-3.127009e-06	-1.013090e-08	-2.162580e+01	-6.634077e+02
5.200000e-07	-3.039522e-06	-1.004524e-08	-2.102076e+01	-6.580259e+02
5.300000e-07	-2.951081e-06	-9.949273e-09	-2.040912e+01	-6.525905e+02
5.400000e-07	-2.861503e-06	-9.856240e-09	-1.978962e+01	-6.470121e+02
5.500000e-07	-2.770722e-06	-9.755092e-09	-1.916179e+01	-6.411932e+02
5.600000e-07	-2.678889e-06	-9.644874e-09	-1.852669e+01	-6.350404e+02
5.700000e-07	-2.586066e-06	-9.530233e-09	-1.788474e+01	-6.284776e+02
5.800000e-07	-2.492335e-06	-9.426256e-09	-1.723652e+01	-6.214562e+02
5.900000e-07	-2.397831e-06	-9.327836e-09	-1.658295e+01	-6.139622e+02
6.000000e-07	-2.302564e-06	-9.220106e-09	-1.592410e+01	-6.060185e+02
6.100000e-07	-2.206536e-06	-9.103127e-09	-1.525999e+01	-5.976812e+02
6.200000e-07	-2.109814e-06	-8.980679e-09	-1.459108e+01	-5.890321e+02
6.300000e-07	-2.012220e-06	-8.853657e-09	-1.391614e+01	-5.801662e+02
6.400000e-07	-1.913579e-06	-8.720378e-09	-1.323395e+01	-5.711767e+02
6.500000e-07	-1.814132e-06	-8.578504e-09	-1.254620e+01	-5.621402e+02
6.600000e-07	-1.714095e-06	-8.438242e-09	-1.185436e+01	-5.531024e+02
6.700000e-07	-1.613493e-06	-8.302394e-09	-1.115861e+01	-5.440682e+02
6.800000e-07	-1.512340e-06	-8.161855e-09	-1.045906e+01	-5.349969e+02
6.900000e-07	-1.410674e-06	-8.009643e-09	-9.755958e+00	-5.258030e+02
7.000000e-07	-1.308552e-06	-7.847649e-09	-9.049698e+00	-5.163640e+02
7.100000e-07	-1.206027e-06	-7.683711e-09	-8.340653e+00	-5.065336e+02
7.200000e-07	-1.103065e-06	-7.515790e-09	-7.628593e+00	-4.961591e+02
7.300000e-07	-9.996741e-07	-7.339259e-09	-6.913558e+00	-4.851004e+02
7.400000e-07	-8.959369e-07	-7.152135e-09	-6.196131e+00	-4.732488e+02
7.500000e-07	-7.919049e-07	-6.962058e-09	-5.476665e+00	-4.605425e+02
7.600000e-07	-6.876504e-07	-6.768904e-09	-4.755661e+00	-4.469758e+02
7.700000e-07	-5.831697e-07	-6.564949e-09	-4.033092e+00	-4.326014e+02
7.800000e-07	-4.785011e-07	-6.348211e-09	-3.309223e+00	-4.175234e+02
7.900000e-07	-3.736451e-07	-6.126607e-09	-2.584059e+00	-4.018831e+02
8.000000e-07	-2.686582e-07	-5.903841e-09	-1.857989e+00	-3.858363e+02
8.100000e-07	-1.636220e-07	-5.669115e-09	-1.131579e+00	-3.695263e+02
8.200000e-07	-5.852176e-08	-5.420032e-09	-4.047255e-01	-3.530550e+02
8.300000e-07	4.662149e-08	-5.158144e-09	3.224254e-01	-3.364556e+02
8.400000e-07	1.517390e-07	-4.886572e-09	1.049398e+00	-3.196699e+02
8.500000e-07	2.567726e-07	-4.603861e-09	1.775791e+00	-3.025352e+02
8.600000e-07	3.616982e-07	-4.305549e-09	2.501437e+00	-2.847813e+02
8.700000e-07	4.665195e-07	-3.989023e-09	3.226361e+00	-2.660403e+02
8.800000e-07	5.711961e-07	-3.655491e-09	3.950284e+00	-2.458692e+02
8.900000e-07	6.756974e-07	-3.306242e-09	4.672996e+00	-2.237832e+02
9.000000e-07	7.799826e-07	-2.935383e-09	5.394212e+00	-1.992982e+02
9.100000e-07	8.839460e-07	-2.535834e-09	6.113204e+00	-1.719777e+02
9.200000e-07	9.875856e-07	-2.101958e-09	6.829956e+00	-1.414800e+02
9.300000e-07	1.090862e-06	-1.629852e-09	7.544193e+00	-1.076017e+02
9.400000e-07	1.193825e-06	-1.108273e-09	8.256266e+00	-7.031114e+01
9.500000e-07	1.296466e-06	-5.244674e-10	8.966115e+00	-2.977001e+01
9.600000e-07	1.398668e-06	1.268045e-10	9.672927e+00	1.366130e+01
9.700000e-07	1.500342e-06	8.412410e-10	1.037608e+01	5.943452e+01
9.800000e-07	1.601505e-06	1.608697e-09	1.107571e+01	1.068408e+02
9.900000e-07	1.702246e-06	2.407828e-09	1.177241e+01	1.550522e+02
1.000000e-06	1.802458e-06	3.202778e-09	1.246546e+01	2.031739e+02
1.010000e-06	1.901953e-06	3.957946e-09	1.315355e+01	2.503023e+02
1.020000e-06	2.000583e-06	4.654760e-09	1.383566e+01	2.955847e+02
1.030000e-06	2.098269e-06	5.288600e-09	1.451123e+01	3.382739e+02
1.040000e-06	2.195072e-06	5.856344e-09	1.518070e+01	3.777740e+02
1.050000e-06	2.291127e-06	6.358932e-09	1.584500e+01	4.136726e+02
1.060000e-06	2.386476e-06	6.800429e-09	1.650442e+01	4.457582e+02
1.070000e-06	2.481101e-06	7.192453e-09	1.715883e+01	4.740195e+02
1.080000e-06	2.574905e-06	7.543229e-09	1.780756e+01	4.986297e+02
1.090000e-06	2.667839e-06	7.857775e-09	1.845027e+01	5.199161e+02
1.100000e-06	2.759932e-06	8.141089e-09	1.908717e+01	5.383192e+02
1.110000e-06	2.850983e-06	8.397932e-09	1.971686e+01	5.543462e+02
1.120000e-06	2.940740e-06	8.636528e-09	2.033760e+01	5.685227e+02
1.130000e-06	3.029345e-06	8.859522e-09	2.095038e+01	5.813474e+02
1.140000e-06	3.116970e-06	9.066680e-09	2.155638e+01	5.932545e+02
1.150000e-06	3.203598e-06	9.257077e-09	2.215548e+01	6.045868e+02
1.160000e-06	3.289176e-06	9.431733e-09	2.274732e+01	6.155803e+02
1.170000e-06	3.373735e-06	9.592943e-09	2.333211e+01	6.263625e+02
1.180000e-06	3.457175e-06	9.745443e-09	2.390917e+01	6.369613e+02
1.190000e-06	3.539244e-06	9.893079e-09	2.447674e+01	6.473247e+02
1.200000e-06	3.619980e-06	1.003291e-08	2.503510e+01	6.573461e+02
1.210000e-06	3.699445e-06	1.016216e-08	2.558466e+01	6.668934e+02
1.220000e-06	3.777589e-06	1.028267e-08	2.612509e+01	6.758364e+02
1.230000e-06	3.854427e-06	1.039583e-08	2.665649e+01	6.840717e+02
1.240000e-06	3.929828e-06	1.049997e-08	2.717795e+01	6.915403e+02
1.250000e-06	4.003567e-06	1.059685e-08	2.768791e+01	6.982371e+02
1.260000e-06	4.075784e-06	1.069071e-08	2.818735e+01	7.042125e+02
1.270000e-06	4.146658e-06	1.078197e-08	2.867751e+01	7.095653e+02
1.280000e-06	4.216141e-06	1.086947e-08	2.915803e+01	7.144295e+02
1.290000e-06	4.284211e-06	1.095328e-08	2.962879e+01	7.189570e+02
1.300000e-06	4.350592e-06	1.103473e-08	3.008787e+01	7.232983e+02
1.310000e-06	4.415276e-06	1.111188e-08	3.053522e+01	7.275844e+02
1.320000e-06	4.478515e-06	1.118138e-08	3.097257e+01	7.319120e+02
1.330000e-06	4.540304e-06	1.124570e-08	3.139989e+01	7.363343e+02
1.340000e-06	4.600663e-06	1.130844e-08	3.181732e+01	7.408570e+02
1.350000e-06	4.659362e-06	1.137284e-08	3.222327e+01	7.454420e+02
1.360000e-06	4.716254e-06	1.143544e-08	3.261672e+01	7.500156e+02
1.370000e-06	4.771444e-06	1.149239e-08	3.299840e+01	7.544812e+02
1.380000e-06	4.824932e-06	1.154628e-08	3.336832e+01	7.587351e+02
1.390000e-06	4.876372e-06	1.159799e-08	3.372407e+01	7.626813e+02
1.400000e-06	4.925692e-06	1.164625e-08	3.406516e+01	7.662454e+02
1.410000e-06	4.973251e-06	1.168950e-08	3.439406e+01	7.693846e+02
1.420000e-06	5.019148e-06	1.172827e-08	3.471148e+01	7.720930e+02
1.430000e-06	5.063435e-06	1.176697e-08	3.501776e+01	7.744015e+02
1.440000e-06	5.105780e-06	1.180570e-08	3.531061e+01	7.763727e+02
1.450000e-06	5.146135e-06	1.184117e-08	3.558970e+01	7.780919e+02
1.460000e-06	5.184840e-06	1.187328e-08	3.585737e+01	7.796548e+02
1.470000e-06	5.221911e-06	1.190619e-08	3.611375e+01	7.811546e+02
1.480000e-06	5.257122e-06	1.194056e-08	3.635726e+01	7.826698e+02
1.490000e-06	5.290339e-06	1.197042e-08	3.658699e+01	7.842543e+02
1.500000e-06	5.321710e-06	1.199350e-08	3.680394e+01	7.859314e+02
1.510000e-06	5.351346e-06	1.201300e-08	3.700890e+01	7.876916e+02
1.520000e-06	5.379186e-06	1.203288e-08	3.720144e+01	7.894960e+02
1.530000e-06	5.404950e-06	1.205190e-08	3.737962e+01	7.912827e+02
1.540000e-06	5.428699e-06	1.206859e-08	3.754386e+01	7.929765e+02
1.550000e-06	5.450643e-06	1.208385e-08	3.769562e+01	7.945007e+02
1.560000e-06	5.470793e-06	1.209967e-08	3.783497e+01	7.957876e+02
1.570000e-06	5.488958e-06	1.211633e-08	3.796059e+01	7.967888e+02
1.580000e-06	5.505075e-06	1.212929e-08	3.807206e+01	7.974816e+02
1.590000e-06	5.519270e-06	1.213742e-08	3.817023e+01	7.978721e+02
1.600000e-06	5.531390e-06	1.214287e-08	3.825405e+01	7.979943e+02
1.610000e-06	5.541215e-06	1.214759e-08	3.832200e+01	7.979047e+02
1.620000e-06	5.548960e-06	1.215172e-08	3.837556e+01	7.976747e+02
1.630000e-06	5.554971e-06	1.215472e-08	3.841713e+01	7.973804e+02
1.640000e-06	5.559099e-06	1.215749e-08	3.844568e+01	7.970922e+02
1.650000e-06	5.561106e-06	1.216235e-08	3.845956e+01	7.968653e+02
1.660000e-06	5.561170e-06	1.216591e-08	3.846000e+01	7.967325e+02
1.670000e-06	5.559497e-06	1.216165e-08	3.844843e+01	7.967000e+02
1.680000e-06	5.556132e-06	1.215762e-08	3.842516e+01	7.967475e+02
1.690000e-06	5.550790e-06	1.214987e-08	3.838821e+01	7.968315e+02
1.700000e-06	5.543490e-06	1.214139e-08	3.833773e+01	7.968921e+02
1.710000e-06	5.534578e-06	1.213555e-08	3.827610e+01	7.968618e+02
1.720000e-06	5.523982e-06	1.213253e-08	3.820282e+01	7.966755e+02
1.730000e-06	5.511336e-06	1.214444e-08	3.811536e+01	7.962801e+02
1.740000e-06	5.496611e-06	1.207950e-08	3.801352e+01	7.956418e+02
1.750000e-06	5.479829e-06	1.203610e-08	3.789747e+01	7.947512e+02
1.760000e-06	5.460414e-06	1.205418e-08	3.776319e+01	7.936246e+02
1.770000e-06	5.438274e-06	1.203031e-08	3.761008e+01	7.923013e+02
1.780000e-06	5.414196e-06	1.211505e-08	3.744356e+01	7.908384e+02
1.790000e-06	5.389182e-06	1.206074e-08	3.727057e+01	7.893023e+02
1.800000e-06	5.363289e-06	1.191646e-08	3.709149e+01	7.877588e+02
1.810000e-06	5.335287e-06	1.206596e-08	3.689784e+01	7.862639e+02
1.820000e-06	5.305044e-06	1.197675e-08	3.668868e+01	7.848551e+02
1.830000e-06	5.273303e-06	1.187667e-08	3.646917e+01	7.835459e+02
1.840000e-06	5.239711e-06	1.204518e-08	3.623685e+01	7.823228e+02
1.850000e-06	5.204354e-06	1.189041e-08	3.599233e+01	7.811472e+02
1.860000e-06	5.167208e-06	1.186378e-08	3.573544e+01	7.799598e+02
1.870000e-06	5.127873e-06	1.196812e-08	3.546340e+01	7.786882e+02
1.880000e-06	5.086944e-06	1.178940e-08	3.518035e+01	7.772570e+02
1.890000e-06	5.044373e-06	1.181674e-08	3.488593e+01	7.755972e+02
1.900000e-06	4.999752e-06	1.176092e-08	3.457734e+01	7.736564e+02
1.910000e-06	4.953371e-06	1.168056e-08	3.425658e+01	7.714052e+02
1.920000e-06	4.905142e-06	1.179882e-08	3.392303e+01	7.688418e+02
1.930000e-06	4.855160e-06	1.165261e-08	3.357737e+01	7.659917e+02
1.940000e-06	4.803328e-06	1.162899e-08	3.321891e+01	7.629051e+02
1.950000e-06	4.749335e-06	1.159735e-08	3.284550e+01	7.596490e+02
1.960000e-06	4.693586e-06	1.151757e-08	3.245996e+01	7.562986e+02
1.970000e-06	4.636164e-06	1.152739e-08	3.206283e+01	7.529267e+02
1.980000e-06	4.577204e-06	1.140740e-08	3.165508e+01	7.495933e+02
1.990000e-06	4.516637e-06	1.143846e-08	3.123621e+01	7.463370e+02
2.000000e-06	4.454259e-06	1.136798e-08	3.080481e+01	7.431696e+02
2.010000e-06	4.390333e-06	1.130290e-08	3.036271e+01	7.400739e+02
2.020000e-06	4.324879e-06	1.129108e-08	2.991005e+01	7.370055e+02
2.030000e-06	4.258003e-06	1.114585e-08	2.944755e+01	7.338989e+02
2.040000e-06	4.189466e-06	1.115624e-08	2.897356e+01	7.306759e+02
2.050000e-06	4.119150e-06	1.106851e-08	2.848727e+01	7.272565e+02
2.060000e-06	4.047431e-06	1.101258e-08	2.799127e+01	7.235694e+02
2.070000e-06	3.974384e-06	1.096858e-08	2.748609e+01	7.195622e+02
2.080000e-06	3.899949e-06	1.087548e-08	2.697131e+01	7.152086e+02
2.090000e-06	3.823774e-06	1.086483e-08	2.644450e+01	7.105120e+02
2.100000e-06	3.745877e-06	1.074982e-08	2.590578e+01	7.055051e+02
2.110000e-06	3.666646e-06	1.069300e-08	2.535783e+01	7.002454e+02
2.120000e-06	3.586196e-06	1.059640e-08	2.480146e+01	6.948069e+02
2.130000e-06	3.504595e-06	1.052155e-08	2.423711e+01	6.892694e+02
2.140000e-06	3.421900e-06	1.046555e-08	2.366522e+01	6.837068e+02
2.150000e-06	3.337972e-06	1.036231e-08	2.308478e+01	6.781758e+02
2.160000e-06	3.252578e-06	1.030709e-08	2.249421e+01	6.727072e+02
2.170000e-06	3.165947e-06	1.020132e-08	2.189509e+01	6.672997e+02
2.180000e-06	3.078300e-06	1.012936e-08	2.128894e+01	6.619192e+02
2.190000e-06	2.989632e-06	1.002909e-08	2.067573e+01	6.565020e+02
2.200000e-06	2.899983e-06	9.924863e-09	2.005573e+01	6.509621e+02
2.210000e-06	2.809417e-06	9.833021e-09	1.942940e+01	6.452027e+02
2.220000e-06	2.717944e-06	9.731728e-09	1.879679e+01	6.391283e+02
2.230000e-06	2.625374e-06	9.643900e-09	1.815659e+01	6.326583e+02
2.240000e-06	2.531687e-06	9.523394e-09	1.750867e+01	6.257373e+02
2.250000e-06	2.437095e-06	9.420997e-09	1.685449e+01	6.183436e+02
2.260000e-06	2.341700e-06	9.310817e-09	1.619476e+01	6.104923e+02
2.270000e-06	2.245489e-06	9.201935e-09	1.552938e+01	6.022329e+02
2.280000e-06	2.148546e-06	9.083150e-09	1.485894e+01	5.936426e+02
2.290000e-06	2.050927e-06	8.951670e-09	1.418383e+01	5.848147e+02
2.300000e-06	1.952618e-06	8.824679e-09	1.350394e+01	5.758442e+02
2.310000e-06	1.853774e-06	8.691051e-09	1.282035e+01	5.668124e+02
2.320000e-06	1.754386e-06	8.558751e-09	1.213301e+01	5.577726e+02
2.330000e-06	1.654348e-06	8.415614e-09	1.144116e+01	5.487393e+02
2.340000e-06	1.553648e-06	8.272586e-09	1.074473e+01	5.396814e+02
2.350000e-06	1.452193e-06	8.122927e-09	1.004310e+01	5.305227e+02
2.360000e-06	1.350082e-06	7.967021e-09	9.336910e+00	5.211477e+02
2.370000e-06	1.247463e-06	7.803470e-09	8.627219e+00	5.114138e+02
2.380000e-06	1.144375e-06	7.632427e-09	7.914281e+00	5.011682e+02
2.390000e-06	1.040886e-06	7.459836e-09	7.198572e+00	4.902662e+02
2.400000e-06	9.370487e-07	7.282727e-09	6.480452e+00	4.785913e+02
2.410000e-06	8.329103e-07	7.098892e-09	5.760251e+00	4.660704e+02
2.420000e-06	7.284975e-07	6.905016e-09	5.038152e+00	4.526853e+02
2.430000e-06	6.238555e-07	6.702335e-09	4.314467e+00	4.384764e+02
2.440000e-06	5.189852e-07	6.488504e-09	3.589204e+00	4.235380e+02
2.450000e-06	4.139171e-07	6.264704e-09	2.862573e+00	4.080050e+02
2.460000e-06	3.087593e-07	6.034555e-09	2.135321e+00	3.920320e+02
2.470000e-06	2.034974e-07	5.801342e-09	1.407349e+00	3.757677e+02
2.480000e-06	9.813636e-08	5.560086e-09	6.786926e-01	3.593252e+02
2.490000e-06	-7.197131e-09	5.303714e-09	-4.977400e-02	3.427545e+02
2.500000e-06	-1.125039e-07	5.034264e-09	-7.780555e-01	3.260185e+02
2.510000e-06	-2.178024e-07	4.752923e-09	-1.506280e+00	3.089774e+02
2.520000e-06	-3.230086e-07	4.457083e-09	-2.233867e+00	2.913838e+02
2.530000e-06	-4.280808e-07	4.143142e-09	-2.960526e+00	2.728893e+02
2.540000e-06	-5.329951e-07	3.812988e-09	-3.686094e+00	2.530643e+02
2.550000e-06	-6.377215e-07	3.467867e-09	-4.410361e+00	2.314299e+02
2.560000e-06	-7.422174e-07	3.104778e-09	-5.133036e+00	2.074978e+02
2.570000e-06	-8.464007e-07	2.714966e-09	-5.853548e+00	1.808172e+02
2.580000e-06	-9.502411e-07	2.290638e-09	-6.571688e+00	1.510225e+02
2.590000e-06	-1.053805e-06	1.829578e-09	-7.287915e+00	1.178773e+02
2.600000e-06	-1.157068e-06	1.323774e-09	-8.002066e+00	8.131084e+01
2.610000e-06	-1.259887e-06	7.636800e-10	-8.713140e+00	4.144237e+01
2.620000e-06	-1.362159e-06	1.385406e-10	-9.420433e+00	-1.409951e+00
2.630000e-06	-1.463793e-06	-5.544567e-10	-1.012332e+01	-4.673635e+01
2.640000e-06	-1.564735e-06	-1.306323e-09	-1.082141e+01	-9.385936e+01
2.650000e-06	-1.665010e-06	-2.098019e-09	-1.151489e+01	-1.419724e+02
2.660000e-06	-1.764685e-06	-2.900071e-09	-1.220423e+01	-1.901903e+02
2.670000e-06	-1.863774e-06	-3.678793e-09	-1.288951e+01	-2.376062e+02
2.680000e-06	-1.962190e-06	-4.405190e-09	-1.357014e+01	-2.833518e+02
2.690000e-06	-2.059941e-06	-5.063269e-09	-1.424616e+01	-3.266529e+02
2.700000e-06	-2.157032e-06	-5.650607e-09	-1.491763e+01	-3.668779e+02
2.710000e-06	-2.253410e-06	-6.174720e-09	-1.558416e+01	-4.035733e+02
2.720000e-06	-2.349120e-06	-6.639534e-09	-1.624607e+01	-4.364838e+02
2.730000e-06	-2.444200e-06	-7.048837e-09	-1.690362e+01	-4.655563e+02
2.740000e-06	-2.538514e-06	-7.412639e-09	-1.755589e+01	-4.909263e+02
2.750000e-06	-2.631767e-06	-7.740690e-09	-1.820080e+01	-5.128912e+02
2.760000e-06	-2.723811e-06	-8.040213e-09	-1.883737e+01	-5.318713e+02
2.770000e-06	-2.814754e-06	-8.310864e-09	-1.946631e+01	-5.483634e+02
2.780000e-06	-2.904691e-06	-8.553798e-09	-2.008829e+01	-5.628932e+02
2.790000e-06	-2.993621e-06	-8.779769e-09	-2.070332e+01	-5.759686e+02
2.800000e-06	-3.081577e-06	-8.994568e-09	-2.131160e+01	-5.880404e+02
2.810000e-06	-3.168615e-06	-9.194034e-09	-2.191354e+01	-5.994725e+02
2.820000e-06	-3.254500e-06	-9.374581e-09	-2.250751e+01	-6.105245e+02
2.830000e-06	-3.338977e-06	-9.540878e-09	-2.309174e+01	-6.213467e+02
2.840000e-06	-3.422174e-06	-9.700889e-09	-2.366711e+01	-6.319871e+02
2.850000e-06	-3.504241e-06	-9.852423e-09	-2.423467e+01	-6.424087e+02
2.860000e-06	-3.585160e-06	-9.990829e-09	-2.479429e+01	-6.525144e+02
2.870000e-06	-3.664946e-06	-1.011737e-08	-2.534608e+01	-6.621750e+02
2.880000e-06	-3.743454e-06	-1.023753e-08	-2.588902e+01	-6.712577e+02
2.890000e-06	-3.820376e-06	-1.035326e-08	-2.642100e+01	-6.796516e+02
2.900000e-06	-3.895689e-06	-1.046188e-08	-2.694185e+01	-6.872871e+02
2.910000e-06	-3.969602e-06	-1.056247e-08	-2.745302e+01	-6.941472e+02
2.920000e-06	-4.042144e-06	-1.065982e-08	-2.795471e+01	-7.002707e+02
2.930000e-06	-4.113297e-06	-1.075592e-08	-2.844679e+01	-7.057468e+02
2.940000e-06	-4.182957e-06	-1.084593e-08	-2.892854e+01	-7.107035e+02
