# Temperatura_=_41.82
# Concentracion g/m^3_=_15500.0
# C_Vs_to_Am_M_A/Vsm_=_65563218390.804596
# pendiente_HvsI_1/m_=_3716.3
# ordenada_HvsI_A/m_=_1297.0
# frecuencia_Hz_=_300799.6506625304

Tiempo_(s)	Campo_(V.s)	Magnetizacion_(V.s)	Campo_(kA/m)	Magnetizacion_(A/m)
0.000000e+00	-5.508313e-06	-1.229044e-08	-3.830865e+01	-8.044121e+02
1.000000e-08	-5.506457e-06	-1.229445e-08	-3.829575e+01	-8.045796e+02
2.000000e-08	-5.502627e-06	-1.229469e-08	-3.826911e+01	-8.047945e+02
3.000000e-08	-5.497011e-06	-1.228621e-08	-3.823005e+01	-8.049849e+02
4.000000e-08	-5.489773e-06	-1.227129e-08	-3.817971e+01	-8.050712e+02
5.000000e-08	-5.480881e-06	-1.225472e-08	-3.811787e+01	-8.049779e+02
6.000000e-08	-5.470000e-06	-1.224118e-08	-3.804220e+01	-8.046436e+02
7.000000e-08	-5.456996e-06	-1.222597e-08	-3.795176e+01	-8.040304e+02
8.000000e-08	-5.441995e-06	-1.220959e-08	-3.784743e+01	-8.031284e+02
9.000000e-08	-5.424661e-06	-1.224105e-08	-3.772688e+01	-8.019574e+02
1.000000e-07	-5.404962e-06	-1.226611e-08	-3.758987e+01	-8.005635e+02
1.100000e-07	-5.383279e-06	-1.223210e-08	-3.743908e+01	-7.990127e+02
1.200000e-07	-5.359834e-06	-1.219784e-08	-3.727602e+01	-7.973806e+02
1.300000e-07	-5.334944e-06	-1.212332e-08	-3.710292e+01	-7.957422e+02
1.400000e-07	-5.308548e-06	-1.206450e-08	-3.691935e+01	-7.941605e+02
1.500000e-07	-5.280248e-06	-1.214670e-08	-3.672253e+01	-7.926770e+02
1.600000e-07	-5.250171e-06	-1.208675e-08	-3.651336e+01	-7.913061e+02
1.700000e-07	-5.218499e-06	-1.202371e-08	-3.629309e+01	-7.900322e+02
1.800000e-07	-5.184880e-06	-1.209884e-08	-3.605927e+01	-7.888113e+02
1.900000e-07	-5.149286e-06	-1.201449e-08	-3.581173e+01	-7.875772e+02
2.000000e-07	-5.112122e-06	-1.198576e-08	-3.555326e+01	-7.862502e+02
2.100000e-07	-5.073196e-06	-1.198931e-08	-3.528255e+01	-7.847480e+02
2.200000e-07	-5.032455e-06	-1.187761e-08	-3.499920e+01	-7.829974e+02
2.300000e-07	-4.989868e-06	-1.187580e-08	-3.470302e+01	-7.809439e+02
2.400000e-07	-4.945300e-06	-1.188490e-08	-3.439307e+01	-7.785601e+02
2.500000e-07	-4.898944e-06	-1.182377e-08	-3.407068e+01	-7.758494e+02
2.600000e-07	-4.850803e-06	-1.178457e-08	-3.373587e+01	-7.728455e+02
2.700000e-07	-4.800696e-06	-1.171211e-08	-3.338739e+01	-7.696082e+02
2.800000e-07	-4.748429e-06	-1.169885e-08	-3.302389e+01	-7.662153e+02
2.900000e-07	-4.694207e-06	-1.166765e-08	-3.264679e+01	-7.627513e+02
3.000000e-07	-4.638392e-06	-1.160013e-08	-3.225861e+01	-7.592962e+02
3.100000e-07	-4.580899e-06	-1.155755e-08	-3.185877e+01	-7.559135e+02
3.200000e-07	-4.521617e-06	-1.151343e-08	-3.144648e+01	-7.526413e+02
3.300000e-07	-4.460701e-06	-1.149253e-08	-3.102283e+01	-7.494865e+02
3.400000e-07	-4.398284e-06	-1.141506e-08	-3.058874e+01	-7.464229e+02
3.500000e-07	-4.334436e-06	-1.133415e-08	-3.014469e+01	-7.433947e+02
3.600000e-07	-4.269056e-06	-1.128690e-08	-2.968999e+01	-7.403234e+02
3.700000e-07	-4.201968e-06	-1.123977e-08	-2.922342e+01	-7.371180e+02
3.800000e-07	-4.133218e-06	-1.119970e-08	-2.874528e+01	-7.336878e+02
3.900000e-07	-4.063002e-06	-1.112172e-08	-2.825695e+01	-7.299544e+02
4.000000e-07	-3.991530e-06	-1.104623e-08	-2.775988e+01	-7.258628e+02
4.100000e-07	-3.918812e-06	-1.098827e-08	-2.725416e+01	-7.213891e+02
4.200000e-07	-3.844544e-06	-1.091850e-08	-2.673764e+01	-7.165441e+02
4.300000e-07	-3.768506e-06	-1.084134e-08	-2.620882e+01	-7.113717e+02
4.400000e-07	-3.690891e-06	-1.075843e-08	-2.566903e+01	-7.059431e+02
4.500000e-07	-3.611856e-06	-1.070246e-08	-2.511937e+01	-7.003470e+02
4.600000e-07	-3.531349e-06	-1.063719e-08	-2.455946e+01	-6.946765e+02
4.700000e-07	-3.449471e-06	-1.054944e-08	-2.399003e+01	-6.890161e+02
4.800000e-07	-3.366402e-06	-1.045358e-08	-2.341231e+01	-6.834285e+02
4.900000e-07	-3.282246e-06	-1.035530e-08	-2.282703e+01	-6.779447e+02
5.000000e-07	-3.197109e-06	-1.028230e-08	-2.223492e+01	-6.725589e+02
5.100000e-07	-3.111030e-06	-1.020334e-08	-2.163628e+01	-6.672271e+02
5.200000e-07	-3.023974e-06	-1.010863e-08	-2.103083e+01	-6.618720e+02
5.300000e-07	-2.935958e-06	-1.000589e-08	-2.041870e+01	-6.563927e+02
5.400000e-07	-2.846987e-06	-9.907022e-09	-1.979993e+01	-6.506776e+02
5.500000e-07	-2.756950e-06	-9.808463e-09	-1.917375e+01	-6.446192e+02
5.600000e-07	-2.665727e-06	-9.696310e-09	-1.853933e+01	-6.381291e+02
5.700000e-07	-2.573382e-06	-9.584708e-09	-1.789709e+01	-6.311506e+02
5.800000e-07	-2.480160e-06	-9.479006e-09	-1.724876e+01	-6.236666e+02
5.900000e-07	-2.386205e-06	-9.377601e-09	-1.659534e+01	-6.157033e+02
6.000000e-07	-2.291473e-06	-9.263103e-09	-1.593650e+01	-6.073262e+02
6.100000e-07	-2.195958e-06	-9.134520e-09	-1.527222e+01	-5.986319e+02
6.200000e-07	-2.099698e-06	-9.003315e-09	-1.460276e+01	-5.897337e+02
6.300000e-07	-2.002671e-06	-8.876500e-09	-1.392797e+01	-5.807448e+02
6.400000e-07	-1.904814e-06	-8.750149e-09	-1.324740e+01	-5.717604e+02
6.500000e-07	-1.806068e-06	-8.613017e-09	-1.256066e+01	-5.628412e+02
6.600000e-07	-1.706498e-06	-8.469722e-09	-1.186818e+01	-5.540015e+02
6.700000e-07	-1.606266e-06	-8.325939e-09	-1.117109e+01	-5.452020e+02
6.800000e-07	-1.505561e-06	-8.179534e-09	-1.047072e+01	-5.363511e+02
6.900000e-07	-1.404504e-06	-8.021183e-09	-9.767902e+00	-5.273126e+02
7.000000e-07	-1.303021e-06	-7.856608e-09	-9.062117e+00	-5.179204e+02
7.100000e-07	-1.201023e-06	-7.693478e-09	-8.352754e+00	-5.079981e+02
7.200000e-07	-1.098584e-06	-7.528025e-09	-7.640322e+00	-4.973814e+02
7.300000e-07	-9.958208e-07	-7.352130e-09	-6.925632e+00	-4.859400e+02
7.400000e-07	-8.927030e-07	-7.161223e-09	-6.208480e+00	-4.735957e+02
7.500000e-07	-7.892677e-07	-6.964195e-09	-5.489118e+00	-4.603350e+02
7.600000e-07	-6.855925e-07	-6.766381e-09	-4.768089e+00	-4.462117e+02
7.700000e-07	-5.816428e-07	-6.562260e-09	-4.045150e+00	-4.313417e+02
7.800000e-07	-4.774559e-07	-6.346447e-09	-3.320562e+00	-4.158859e+02
7.900000e-07	-3.731256e-07	-6.123540e-09	-2.594976e+00	-4.000265e+02
8.000000e-07	-2.686921e-07	-5.896022e-09	-1.868672e+00	-3.839358e+02
8.100000e-07	-1.641894e-07	-5.658359e-09	-1.141888e+00	-3.677429e+02
8.200000e-07	-5.958997e-08	-5.403244e-09	-4.144302e-01	-3.515018e+02
8.300000e-07	4.507275e-08	-5.130763e-09	3.134674e-01	-3.351650e+02
8.400000e-07	1.496993e-07	-4.848775e-09	1.041113e+00	-3.185657e+02
8.500000e-07	2.542143e-07	-4.559577e-09	1.767983e+00	-3.014137e+02
8.600000e-07	3.586316e-07	-4.255361e-09	2.494175e+00	-2.833041e+02
8.700000e-07	4.629362e-07	-3.926657e-09	3.219581e+00	-2.637415e+02
8.800000e-07	5.670457e-07	-3.575050e-09	3.943631e+00	-2.421764e+02
8.900000e-07	6.709314e-07	-3.203077e-09	4.666125e+00	-2.180527e+02
9.000000e-07	7.745702e-07	-2.807514e-09	5.386902e+00	-1.908606e+02
9.100000e-07	8.780038e-07	-2.375460e-09	6.106251e+00	-1.601911e+02
9.200000e-07	9.811617e-07	-1.897327e-09	6.823683e+00	-1.257855e+02
9.300000e-07	1.083932e-06	-1.369919e-09	7.538420e+00	-8.757573e+01
9.400000e-07	1.186324e-06	-7.819002e-10	8.250525e+00	-4.571007e+01
9.500000e-07	1.288300e-06	-1.162490e-10	8.959736e+00	-5.617495e-01
9.600000e-07	1.389842e-06	6.319297e-10	9.665932e+00	4.728148e+01
9.700000e-07	1.490984e-06	1.444127e-09	1.036934e+01	9.704643e+01
9.800000e-07	1.591710e-06	2.290329e-09	1.106986e+01	1.478200e+02
9.900000e-07	1.691935e-06	3.134710e-09	1.176689e+01	1.986074e+02
1.000000e-06	1.791527e-06	3.943965e-09	1.245953e+01	2.483980e+02
1.010000e-06	1.890336e-06	4.689374e-09	1.314671e+01	2.962323e+02
1.020000e-06	1.988301e-06	5.356178e-09	1.382803e+01	3.412654e+02
1.030000e-06	2.085429e-06	5.946211e-09	1.450353e+01	3.828198e+02
1.040000e-06	2.181735e-06	6.466256e-09	1.517331e+01	4.204230e+02
1.050000e-06	2.277301e-06	6.921957e-09	1.583794e+01	4.538290e+02
1.060000e-06	2.372186e-06	7.318428e-09	1.649784e+01	4.830190e+02
1.070000e-06	2.466293e-06	7.668781e-09	1.715232e+01	5.081845e+02
1.080000e-06	2.559561e-06	7.982666e-09	1.780097e+01	5.296937e+02
1.090000e-06	2.652060e-06	8.265497e-09	1.844428e+01	5.480462e+02
1.100000e-06	2.743622e-06	8.522310e-09	1.908106e+01	5.638194e+02
1.110000e-06	2.834062e-06	8.759441e-09	1.971005e+01	5.776137e+02
1.120000e-06	2.923330e-06	8.982524e-09	2.033088e+01	5.900004e+02
1.130000e-06	3.011558e-06	9.191926e-09	2.094448e+01	6.014780e+02
1.140000e-06	3.098835e-06	9.384681e-09	2.155146e+01	6.124404e+02
1.150000e-06	3.185056e-06	9.559015e-09	2.215110e+01	6.231587e+02
1.160000e-06	3.270225e-06	9.718331e-09	2.274342e+01	6.337781e+02
1.170000e-06	3.354360e-06	9.867077e-09	2.332856e+01	6.443277e+02
1.180000e-06	3.437352e-06	1.000925e-08	2.390574e+01	6.547423e+02
1.190000e-06	3.519002e-06	1.014593e-08	2.447360e+01	6.648917e+02
1.200000e-06	3.599284e-06	1.027773e-08	2.503193e+01	6.746135e+02
1.210000e-06	3.678303e-06	1.040230e-08	2.558149e+01	6.837461e+02
1.220000e-06	3.756094e-06	1.051808e-08	2.612250e+01	6.921569e+02
1.230000e-06	3.832557e-06	1.062559e-08	2.665427e+01	6.997640e+02
1.240000e-06	3.907418e-06	1.072659e-08	2.717491e+01	7.065479e+02
1.250000e-06	3.980664e-06	1.082204e-08	2.768431e+01	7.125539e+02
1.260000e-06	4.052542e-06	1.090991e-08	2.818420e+01	7.178854e+02
1.270000e-06	4.123064e-06	1.099210e-08	2.867467e+01	7.226884e+02
1.280000e-06	4.192156e-06	1.107408e-08	2.915518e+01	7.271325e+02
1.290000e-06	4.259767e-06	1.115794e-08	2.962539e+01	7.313883e+02
1.300000e-06	4.325720e-06	1.124024e-08	3.008407e+01	7.356064e+02
1.310000e-06	4.390079e-06	1.131704e-08	3.053168e+01	7.399002e+02
1.320000e-06	4.453002e-06	1.138746e-08	3.096928e+01	7.443338e+02
1.330000e-06	4.514484e-06	1.145411e-08	3.139687e+01	7.489174e+02
1.340000e-06	4.574472e-06	1.151593e-08	3.181407e+01	7.536105e+02
1.350000e-06	4.632771e-06	1.157122e-08	3.221952e+01	7.583304e+02
1.360000e-06	4.689304e-06	1.162351e-08	3.261269e+01	7.629672e+02
1.370000e-06	4.744180e-06	1.167802e-08	3.299434e+01	7.674009e+02
1.380000e-06	4.797305e-06	1.173412e-08	3.336381e+01	7.715189e+02
1.390000e-06	4.848389e-06	1.178680e-08	3.371908e+01	7.752322e+02
1.400000e-06	4.897442e-06	1.183594e-08	3.406023e+01	7.784873e+02
1.410000e-06	4.944743e-06	1.188201e-08	3.438919e+01	7.812724e+02
1.420000e-06	4.990417e-06	1.192377e-08	3.470684e+01	7.836187e+02
1.430000e-06	5.034471e-06	1.196043e-08	3.501322e+01	7.855944e+02
1.440000e-06	5.076670e-06	1.199298e-08	3.530671e+01	7.872948e+02
1.450000e-06	5.116991e-06	1.202512e-08	3.558712e+01	7.888288e+02
1.460000e-06	5.155632e-06	1.205880e-08	3.585586e+01	7.903035e+02
1.470000e-06	5.192526e-06	1.209288e-08	3.611245e+01	7.918107e+02
1.480000e-06	5.227542e-06	1.212533e-08	3.635597e+01	7.934144e+02
1.490000e-06	5.260590e-06	1.215451e-08	3.658582e+01	7.951442e+02
1.500000e-06	5.291790e-06	1.217871e-08	3.680280e+01	7.969921e+02
1.510000e-06	5.321266e-06	1.219789e-08	3.700780e+01	7.989153e+02
1.520000e-06	5.348929e-06	1.221559e-08	3.720018e+01	8.008442e+02
1.530000e-06	5.374499e-06	1.223347e-08	3.737802e+01	8.026926e+02
1.540000e-06	5.398054e-06	1.225063e-08	3.754184e+01	8.043711e+02
1.550000e-06	5.419879e-06	1.226485e-08	3.769362e+01	8.058001e+02
1.560000e-06	5.439957e-06	1.227729e-08	3.783326e+01	8.069209e+02
1.570000e-06	5.458070e-06	1.229205e-08	3.795923e+01	8.077040e+02
1.580000e-06	5.474122e-06	1.230697e-08	3.807086e+01	8.081530e+02
1.590000e-06	5.488176e-06	1.231753e-08	3.816861e+01	8.083037e+02
1.600000e-06	5.500175e-06	1.232361e-08	3.825206e+01	8.082192e+02
1.610000e-06	5.510012e-06	1.232743e-08	3.832047e+01	8.079801e+02
1.620000e-06	5.517819e-06	1.233090e-08	3.837476e+01	8.076740e+02
1.630000e-06	5.523788e-06	1.233281e-08	3.841628e+01	8.073830e+02
1.640000e-06	5.527906e-06	1.233347e-08	3.844492e+01	8.071724e+02
1.650000e-06	5.529982e-06	1.233618e-08	3.845935e+01	8.070825e+02
1.660000e-06	5.530075e-06	1.234274e-08	3.846000e+01	8.071232e+02
1.670000e-06	5.528451e-06	1.234395e-08	3.844871e+01	8.072732e+02
1.680000e-06	5.525126e-06	1.233716e-08	3.842558e+01	8.074839e+02
1.690000e-06	5.519888e-06	1.232772e-08	3.838915e+01	8.076865e+02
1.700000e-06	5.512745e-06	1.231827e-08	3.833948e+01	8.078021e+02
1.710000e-06	5.503943e-06	1.231108e-08	3.827826e+01	8.077535e+02
1.720000e-06	5.493409e-06	1.230448e-08	3.820500e+01	8.074753e+02
1.730000e-06	5.480862e-06	1.230467e-08	3.811774e+01	8.069240e+02
1.740000e-06	5.466279e-06	1.229664e-08	3.801632e+01	8.060836e+02
1.750000e-06	5.449639e-06	1.222941e-08	3.790059e+01	8.049675e+02
1.760000e-06	5.430410e-06	1.220799e-08	3.776686e+01	8.036168e+02
1.770000e-06	5.408515e-06	1.221220e-08	3.761459e+01	8.020937e+02
1.780000e-06	5.384726e-06	1.222516e-08	3.744914e+01	8.004729e+02
1.790000e-06	5.359896e-06	1.227839e-08	3.727646e+01	7.988304e+02
1.800000e-06	5.334119e-06	1.215621e-08	3.709719e+01	7.972325e+02
1.810000e-06	5.306405e-06	1.212105e-08	3.690445e+01	7.957261e+02
1.820000e-06	5.276391e-06	1.219069e-08	3.669570e+01	7.943318e+02
1.830000e-06	5.244772e-06	1.207386e-08	3.647580e+01	7.930402e+02
1.840000e-06	5.211410e-06	1.209904e-08	3.624378e+01	7.918132e+02
1.850000e-06	5.176223e-06	1.210321e-08	3.599907e+01	7.905887e+02
1.860000e-06	5.139286e-06	1.196301e-08	3.574218e+01	7.892890e+02
1.870000e-06	5.100217e-06	1.204038e-08	3.547047e+01	7.878314e+02
1.880000e-06	5.059402e-06	1.200265e-08	3.518661e+01	7.861397e+02
1.890000e-06	5.017031e-06	1.189405e-08	3.489194e+01	7.841548e+02
1.900000e-06	4.972742e-06	1.190954e-08	3.458392e+01	7.818430e+02
1.910000e-06	4.926642e-06	1.180878e-08	3.426330e+01	7.792008e+02
1.920000e-06	4.878721e-06	1.183917e-08	3.393003e+01	7.762558e+02
1.930000e-06	4.829028e-06	1.180600e-08	3.358443e+01	7.730629e+02
1.940000e-06	4.777527e-06	1.168450e-08	3.322626e+01	7.696966e+02
1.950000e-06	4.723870e-06	1.172641e-08	3.285309e+01	7.662411e+02
1.960000e-06	4.668405e-06	1.164271e-08	3.246735e+01	7.627784e+02
1.970000e-06	4.611333e-06	1.160120e-08	3.207043e+01	7.593764e+02
1.980000e-06	4.552693e-06	1.153331e-08	3.166261e+01	7.560792e+02
1.990000e-06	4.492486e-06	1.144726e-08	3.124388e+01	7.529006e+02
2.000000e-06	4.430521e-06	1.148288e-08	3.081294e+01	7.498216e+02
2.010000e-06	4.366982e-06	1.138826e-08	3.037104e+01	7.467922e+02
2.020000e-06	4.301889e-06	1.135370e-08	2.991834e+01	7.437379e+02
2.030000e-06	4.235341e-06	1.127979e-08	2.945552e+01	7.405694e+02
2.040000e-06	4.167258e-06	1.119486e-08	2.898202e+01	7.371949e+02
2.050000e-06	4.097412e-06	1.117432e-08	2.849626e+01	7.335324e+02
2.060000e-06	4.026093e-06	1.106066e-08	2.800026e+01	7.295211e+02
2.070000e-06	3.953427e-06	1.102869e-08	2.749489e+01	7.251300e+02
2.080000e-06	3.879377e-06	1.095802e-08	2.697989e+01	7.203623e+02
2.090000e-06	3.803695e-06	1.090274e-08	2.645355e+01	7.152552e+02
2.100000e-06	3.726311e-06	1.084136e-08	2.591537e+01	7.098748e+02
2.110000e-06	3.647560e-06	1.072447e-08	2.536768e+01	7.043070e+02
2.120000e-06	3.567593e-06	1.066404e-08	2.481153e+01	6.986453e+02
2.130000e-06	3.486444e-06	1.057015e-08	2.424716e+01	6.929769e+02
2.140000e-06	3.404140e-06	1.051967e-08	2.367476e+01	6.873702e+02
2.150000e-06	3.320684e-06	1.043342e-08	2.309435e+01	6.818638e+02
2.160000e-06	3.235885e-06	1.032566e-08	2.250460e+01	6.764598e+02
2.170000e-06	3.149765e-06	1.024132e-08	2.190567e+01	6.711222e+02
2.180000e-06	3.062560e-06	1.013984e-08	2.129918e+01	6.657803e+02
2.190000e-06	2.974359e-06	1.005709e-08	2.068577e+01	6.603373e+02
2.200000e-06	2.885179e-06	9.958083e-09	2.006555e+01	6.546825e+02
2.210000e-06	2.795072e-06	9.872788e-09	1.943888e+01	6.487063e+02
2.220000e-06	2.704121e-06	9.780166e-09	1.880634e+01	6.423151e+02
2.230000e-06	2.612148e-06	9.668819e-09	1.816670e+01	6.354445e+02
2.240000e-06	2.519039e-06	9.545575e-09	1.751916e+01	6.280685e+02
2.250000e-06	2.424946e-06	9.420257e-09	1.686476e+01	6.202039e+02
2.260000e-06	2.329986e-06	9.311482e-09	1.620435e+01	6.119086e+02
2.270000e-06	2.234277e-06	9.206461e-09	1.553872e+01	6.032734e+02
2.280000e-06	2.137832e-06	9.093080e-09	1.486798e+01	5.944094e+02
2.290000e-06	2.040620e-06	8.965197e-09	1.419189e+01	5.854315e+02
2.300000e-06	1.942742e-06	8.833174e-09	1.351118e+01	5.764399e+02
2.310000e-06	1.844350e-06	8.698258e-09	1.282690e+01	5.675042e+02
2.320000e-06	1.745490e-06	8.561307e-09	1.213935e+01	5.586492e+02
2.330000e-06	1.646102e-06	8.415857e-09	1.144815e+01	5.498475e+02
2.340000e-06	1.546075e-06	8.272231e-09	1.075249e+01	5.410181e+02
2.350000e-06	1.445364e-06	8.123830e-09	1.005207e+01	5.320335e+02
2.360000e-06	1.344007e-06	7.963195e-09	9.347165e+00	5.227322e+02
2.370000e-06	1.242053e-06	7.793949e-09	8.638100e+00	5.129385e+02
2.380000e-06	1.139550e-06	7.620198e-09	7.925229e+00	5.024834e+02
2.390000e-06	1.036604e-06	7.453838e-09	7.209270e+00	4.912276e+02
2.400000e-06	9.333517e-07	7.281945e-09	6.491179e+00	4.790806e+02
2.410000e-06	8.298020e-07	7.099361e-09	5.771022e+00	4.660144e+02
2.420000e-06	7.259788e-07	6.904718e-09	5.048963e+00	4.520685e+02
2.430000e-06	6.219230e-07	6.695899e-09	4.325286e+00	4.373465e+02
2.440000e-06	5.176912e-07	6.474441e-09	3.600386e+00	4.220016e+02
2.450000e-06	4.132722e-07	6.243899e-09	2.874184e+00	4.062137e+02
2.460000e-06	3.086739e-07	6.010729e-09	2.146733e+00	3.901601e+02
2.470000e-06	2.039732e-07	5.776354e-09	1.418572e+00	3.739818e+02
2.480000e-06	9.921714e-08	5.534834e-09	6.900252e-01	3.577517e+02
2.490000e-06	-5.518573e-09	5.277512e-09	-3.838000e-02	3.414455e+02
2.500000e-06	-1.102496e-07	5.001899e-09	-7.667530e-01	3.249231e+02
2.510000e-06	-2.149893e-07	4.709731e-09	-1.495185e+00	3.079203e+02
2.520000e-06	-3.196294e-07	4.403249e-09	-2.222926e+00	2.900554e+02
2.530000e-06	-4.240917e-07	4.078285e-09	-2.949429e+00	2.708496e+02
2.540000e-06	-5.284229e-07	3.731154e-09	-3.675021e+00	2.497613e+02
2.550000e-06	-6.326080e-07	3.363396e-09	-4.399598e+00	2.262316e+02
2.560000e-06	-7.365286e-07	2.976988e-09	-5.122334e+00	1.997360e+02
2.570000e-06	-8.401539e-07	2.561721e-09	-5.843016e+00	1.698396e+02
2.580000e-06	-9.435598e-07	2.102234e-09	-6.562173e+00	1.362477e+02
2.590000e-06	-1.046624e-06	1.590760e-09	-7.278954e+00	9.884865e+01
2.600000e-06	-1.149224e-06	1.021764e-09	-7.992506e+00	5.774297e+01
2.610000e-06	-1.251360e-06	3.847724e-10	-8.702831e+00	1.325595e+01
2.620000e-06	-1.352908e-06	-3.314554e-10	-9.409068e+00	-3.406880e+01
2.630000e-06	-1.453837e-06	-1.123428e-09	-1.011099e+01	-8.349451e+01
2.640000e-06	-1.554191e-06	-1.966099e-09	-1.080893e+01	-1.341335e+02
2.650000e-06	-1.653945e-06	-2.822368e-09	-1.150269e+01	-1.850032e+02
2.660000e-06	-1.753074e-06	-3.654067e-09	-1.219210e+01	-2.350905e+02
2.670000e-06	-1.851563e-06	-4.430631e-09	-1.287706e+01	-2.834196e+02
2.680000e-06	-1.949468e-06	-5.133074e-09	-1.355796e+01	-3.291161e+02
2.690000e-06	-2.046782e-06	-5.752231e-09	-1.423475e+01	-3.714627e+02
2.700000e-06	-2.143373e-06	-6.292022e-09	-1.490651e+01	-4.099408e+02
2.710000e-06	-2.239281e-06	-6.766633e-09	-1.557352e+01	-4.442550e+02
2.720000e-06	-2.334633e-06	-7.188863e-09	-1.623666e+01	-4.743388e+02
2.730000e-06	-2.429309e-06	-7.560133e-09	-1.689511e+01	-5.003406e+02
2.740000e-06	-2.523011e-06	-7.885327e-09	-1.754678e+01	-5.225946e+02
2.750000e-06	-2.615584e-06	-8.178555e-09	-1.819060e+01	-5.415764e+02
2.760000e-06	-2.707075e-06	-8.448653e-09	-1.882689e+01	-5.578514e+02
2.770000e-06	-2.797580e-06	-8.695780e-09	-1.945632e+01	-5.720196e+02
2.780000e-06	-2.887122e-06	-8.919117e-09	-2.007906e+01	-5.846625e+02
2.790000e-06	-2.975647e-06	-9.126314e-09	-2.069473e+01	-5.962974e+02
2.800000e-06	-3.063201e-06	-9.322483e-09	-2.130364e+01	-6.073427e+02
2.810000e-06	-3.149757e-06	-9.504347e-09	-2.190561e+01	-6.180965e+02
2.820000e-06	-3.235096e-06	-9.670397e-09	-2.249911e+01	-6.287306e+02
2.830000e-06	-3.319106e-06	-9.823819e-09	-2.308338e+01	-6.392974e+02
2.840000e-06	-3.401910e-06	-9.971343e-09	-2.365926e+01	-6.497499e+02
2.850000e-06	-3.483573e-06	-1.011160e-08	-2.422719e+01	-6.599688e+02
2.860000e-06	-3.564090e-06	-1.024051e-08	-2.478717e+01	-6.697960e+02
2.870000e-06	-3.643452e-06	-1.036040e-08	-2.533911e+01	-6.790670e+02
2.880000e-06	-3.721471e-06	-1.047553e-08	-2.588171e+01	-6.876410e+02
2.890000e-06	-3.797937e-06	-1.058370e-08	-2.641351e+01	-6.954238e+02
2.900000e-06	-3.872864e-06	-1.068229e-08	-2.693460e+01	-7.023821e+02
2.910000e-06	-3.946393e-06	-1.077599e-08	-2.744597e+01	-7.085476e+02
2.920000e-06	-4.018558e-06	-1.087071e-08	-2.794786e+01	-7.140121e+02
2.930000e-06	-4.089365e-06	-1.096259e-08	-2.844030e+01	-7.189142e+02
2.940000e-06	-4.158630e-06	-1.104717e-08	-2.892201e+01	-7.234201e+02
