# Temperatura_=_23.77
# Concentracion g/m^3_=_15500.0
# C_Vs_to_Am_M_A/Vsm_=_65563218390.804596
# pendiente_HvsI_1/m_=_3716.3
# ordenada_HvsI_A/m_=_1297.0
# frecuencia_Hz_=_300811.9103559206

Tiempo_(s)	Campo_(V.s)	Magnetizacion_(V.s)	Campo_(kA/m)	Magnetizacion_(A/m)
0.000000e+00	-5.530208e-06	-1.208350e-08	-3.830692e+01	-7.900871e+02
1.000000e-08	-5.528515e-06	-1.208645e-08	-3.829519e+01	-7.900855e+02
2.000000e-08	-5.524837e-06	-1.208689e-08	-3.826971e+01	-7.901600e+02
3.000000e-08	-5.519363e-06	-1.208301e-08	-3.823180e+01	-7.902642e+02
4.000000e-08	-5.512209e-06	-1.207189e-08	-3.818224e+01	-7.903362e+02
5.000000e-08	-5.503413e-06	-1.205439e-08	-3.812132e+01	-7.903071e+02
6.000000e-08	-5.492721e-06	-1.203827e-08	-3.804725e+01	-7.901118e+02
7.000000e-08	-5.479956e-06	-1.202452e-08	-3.795883e+01	-7.896976e+02
8.000000e-08	-5.465128e-06	-1.202071e-08	-3.785612e+01	-7.890321e+02
9.000000e-08	-5.447937e-06	-1.204842e-08	-3.773704e+01	-7.881075e+02
1.000000e-07	-5.428406e-06	-1.204997e-08	-3.760176e+01	-7.869416e+02
1.100000e-07	-5.406880e-06	-1.202190e-08	-3.745265e+01	-7.855755e+02
1.200000e-07	-5.383537e-06	-1.199311e-08	-3.729095e+01	-7.840671e+02
1.300000e-07	-5.358685e-06	-1.190919e-08	-3.711881e+01	-7.824833e+02
1.400000e-07	-5.332342e-06	-1.189806e-08	-3.693633e+01	-7.808897e+02
1.500000e-07	-5.304175e-06	-1.194142e-08	-3.674123e+01	-7.793418e+02
1.600000e-07	-5.274273e-06	-1.186231e-08	-3.653410e+01	-7.778763e+02
1.700000e-07	-5.242788e-06	-1.188065e-08	-3.631600e+01	-7.765057e+02
1.800000e-07	-5.209355e-06	-1.189882e-08	-3.608442e+01	-7.752164e+02
1.900000e-07	-5.173895e-06	-1.180376e-08	-3.583879e+01	-7.739697e+02
2.000000e-07	-5.136862e-06	-1.181421e-08	-3.558227e+01	-7.727074e+02
2.100000e-07	-5.098125e-06	-1.177233e-08	-3.531394e+01	-7.713588e+02
2.200000e-07	-5.057537e-06	-1.169698e-08	-3.503280e+01	-7.698511e+02
2.300000e-07	-5.015040e-06	-1.170817e-08	-3.473843e+01	-7.681188e+02
2.400000e-07	-4.970568e-06	-1.168493e-08	-3.443038e+01	-7.661129e+02
2.500000e-07	-4.924311e-06	-1.166134e-08	-3.410997e+01	-7.638075e+02
2.600000e-07	-4.876189e-06	-1.160240e-08	-3.377663e+01	-7.612039e+02
2.700000e-07	-4.826003e-06	-1.151735e-08	-3.342900e+01	-7.583299e+02
2.800000e-07	-4.773719e-06	-1.152209e-08	-3.306684e+01	-7.552363e+02
2.900000e-07	-4.719601e-06	-1.149276e-08	-3.269197e+01	-7.519899e+02
3.000000e-07	-4.663845e-06	-1.143369e-08	-3.230575e+01	-7.486639e+02
3.100000e-07	-4.606359e-06	-1.139334e-08	-3.190756e+01	-7.453278e+02
3.200000e-07	-4.547033e-06	-1.134800e-08	-3.149662e+01	-7.420374e+02
3.300000e-07	-4.486067e-06	-1.130124e-08	-3.107431e+01	-7.388268e+02
3.400000e-07	-4.423653e-06	-1.123777e-08	-3.064198e+01	-7.357029e+02
3.500000e-07	-4.359753e-06	-1.118139e-08	-3.019935e+01	-7.326443e+02
3.600000e-07	-4.294306e-06	-1.112391e-08	-2.974601e+01	-7.296036e+02
3.700000e-07	-4.227158e-06	-1.109714e-08	-2.928089e+01	-7.265133e+02
3.800000e-07	-4.158352e-06	-1.105940e-08	-2.880428e+01	-7.232952e+02
3.900000e-07	-4.088096e-06	-1.096697e-08	-2.831763e+01	-7.198706e+02
4.000000e-07	-4.016511e-06	-1.089422e-08	-2.782177e+01	-7.161714e+02
4.100000e-07	-3.943651e-06	-1.083120e-08	-2.731708e+01	-7.121491e+02
4.200000e-07	-3.869235e-06	-1.077210e-08	-2.680161e+01	-7.077821e+02
4.300000e-07	-3.793097e-06	-1.070571e-08	-2.627422e+01	-7.030783e+02
4.400000e-07	-3.715393e-06	-1.063130e-08	-2.573597e+01	-6.980743e+02
4.500000e-07	-3.636177e-06	-1.057354e-08	-2.518725e+01	-6.928305e+02
4.600000e-07	-3.555435e-06	-1.051038e-08	-2.462796e+01	-6.874220e+02
4.700000e-07	-3.473346e-06	-1.042931e-08	-2.405935e+01	-6.819283e+02
4.800000e-07	-3.390107e-06	-1.033196e-08	-2.348276e+01	-6.764210e+02
4.900000e-07	-3.305816e-06	-1.024236e-08	-2.289889e+01	-6.709533e+02
5.000000e-07	-3.220579e-06	-1.016812e-08	-2.230847e+01	-6.655512e+02
5.100000e-07	-3.134353e-06	-1.009324e-08	-2.171119e+01	-6.602084e+02
5.200000e-07	-3.047091e-06	-1.000547e-08	-2.110674e+01	-6.548860e+02
5.300000e-07	-2.958835e-06	-9.904897e-09	-2.049541e+01	-6.495162e+02
5.400000e-07	-2.869602e-06	-9.811764e-09	-1.987730e+01	-6.440105e+02
5.500000e-07	-2.779223e-06	-9.721010e-09	-1.925126e+01	-6.382713e+02
5.600000e-07	-2.687675e-06	-9.615335e-09	-1.861712e+01	-6.322042e+02
5.700000e-07	-2.595143e-06	-9.502508e-09	-1.797616e+01	-6.257314e+02
5.800000e-07	-2.501710e-06	-9.394764e-09	-1.732897e+01	-6.188021e+02
5.900000e-07	-2.407469e-06	-9.294437e-09	-1.667618e+01	-6.114000e+02
6.000000e-07	-2.312459e-06	-9.185857e-09	-1.601805e+01	-6.035454e+02
6.100000e-07	-2.216681e-06	-9.064436e-09	-1.535461e+01	-5.952933e+02
6.200000e-07	-2.120155e-06	-8.940318e-09	-1.468600e+01	-5.867247e+02
6.300000e-07	-2.022797e-06	-8.820392e-09	-1.401161e+01	-5.779351e+02
6.400000e-07	-1.924517e-06	-8.699972e-09	-1.333084e+01	-5.690199e+02
6.500000e-07	-1.825319e-06	-8.565095e-09	-1.264371e+01	-5.600584e+02
6.600000e-07	-1.725442e-06	-8.422584e-09	-1.195188e+01	-5.511003e+02
6.700000e-07	-1.625070e-06	-8.280244e-09	-1.125661e+01	-5.421544e+02
6.800000e-07	-1.524159e-06	-8.136154e-09	-1.055762e+01	-5.331839e+02
6.900000e-07	-1.422725e-06	-7.981734e-09	-9.855006e+00	-5.241063e+02
7.000000e-07	-1.320814e-06	-7.820192e-09	-9.149077e+00	-5.148005e+02
7.100000e-07	-1.218443e-06	-7.661580e-09	-8.439970e+00	-5.051203e+02
7.200000e-07	-1.115617e-06	-7.502919e-09	-7.727711e+00	-4.949106e+02
7.300000e-07	-1.012388e-06	-7.333338e-09	-7.012660e+00	-4.840276e+02
7.400000e-07	-9.088574e-07	-7.147989e-09	-6.295519e+00	-4.723570e+02
7.500000e-07	-8.051045e-07	-6.955583e-09	-5.576838e+00	-4.598306e+02
7.600000e-07	-7.010777e-07	-6.758698e-09	-4.856260e+00	-4.464363e+02
7.700000e-07	-5.967922e-07	-6.553979e-09	-4.133890e+00	-4.322210e+02
7.800000e-07	-4.923541e-07	-6.337704e-09	-3.410463e+00	-4.172851e+02
7.900000e-07	-3.877861e-07	-6.117612e-09	-2.686136e+00	-4.017681e+02
8.000000e-07	-2.831012e-07	-5.899384e-09	-1.961000e+00	-3.858273e+02
8.100000e-07	-1.782836e-07	-5.673964e-09	-1.234944e+00	-3.696110e+02
8.200000e-07	-7.339421e-08	-5.430544e-09	-5.083907e-01	-3.532289e+02
8.300000e-07	3.152302e-08	-5.167961e-09	2.183553e-01	-3.367246e+02
8.400000e-07	1.364511e-07	-4.893778e-09	9.451760e-01	-3.200523e+02
8.500000e-07	2.413103e-07	-4.609964e-09	1.671520e+00	-3.030619e+02
8.600000e-07	3.460615e-07	-4.313253e-09	2.397116e+00	-2.854949e+02
8.700000e-07	4.506833e-07	-3.998903e-09	3.121815e+00	-2.669930e+02
8.800000e-07	5.551715e-07	-3.670184e-09	3.845590e+00	-2.471190e+02
8.900000e-07	6.594924e-07	-3.330730e-09	4.568205e+00	-2.253891e+02
9.000000e-07	7.635890e-07	-2.971621e-09	5.289266e+00	-2.013151e+02
9.100000e-07	8.674718e-07	-2.579017e-09	6.008847e+00	-1.744507e+02
9.200000e-07	9.710637e-07	-2.147223e-09	6.726412e+00	-1.444396e+02
9.300000e-07	1.074263e-06	-1.676402e-09	7.441257e+00	-1.110591e+02
9.400000e-07	1.177094e-06	-1.159265e-09	8.153550e+00	-7.425597e+01
9.500000e-07	1.279575e-06	-5.823223e-10	8.863427e+00	-3.416869e+01
9.600000e-07	1.381592e-06	6.159381e-11	9.570078e+00	8.864490e+00
9.700000e-07	1.483125e-06	7.657648e-10	1.027338e+01	5.431480e+01
9.800000e-07	1.584218e-06	1.520591e-09	1.097364e+01	1.014885e+02
9.900000e-07	1.684832e-06	2.311038e-09	1.167058e+01	1.495670e+02
1.000000e-06	1.784970e-06	3.107259e-09	1.236422e+01	1.976580e+02
1.010000e-06	1.884471e-06	3.871842e-09	1.305345e+01	2.448539e+02
1.020000e-06	1.983050e-06	4.578198e-09	1.373629e+01	2.902911e+02
1.030000e-06	2.080680e-06	5.217461e-09	1.441256e+01	3.332060e+02
1.040000e-06	2.177463e-06	5.790706e-09	1.508296e+01	3.729819e+02
1.050000e-06	2.273514e-06	6.300045e-09	1.574829e+01	4.091835e+02
1.060000e-06	2.368862e-06	6.745662e-09	1.640875e+01	4.415757e+02
1.070000e-06	2.463402e-06	7.136982e-09	1.706362e+01	4.701254e+02
1.080000e-06	2.557080e-06	7.486220e-09	1.771251e+01	4.949868e+02
1.090000e-06	2.649958e-06	7.802060e-09	1.835586e+01	5.164732e+02
1.100000e-06	2.742081e-06	8.086535e-09	1.899399e+01	5.350168e+02
1.110000e-06	2.833145e-06	8.343534e-09	1.962477e+01	5.511221e+02
1.120000e-06	2.922930e-06	8.584126e-09	2.024670e+01	5.653177e+02
1.130000e-06	3.011636e-06	8.812205e-09	2.086115e+01	5.781102e+02
1.140000e-06	3.099368e-06	9.022174e-09	2.146885e+01	5.899455e+02
1.150000e-06	3.186040e-06	9.210285e-09	2.206922e+01	6.011802e+02
1.160000e-06	3.271641e-06	9.380099e-09	2.266217e+01	6.120648e+02
1.170000e-06	3.356268e-06	9.537451e-09	2.324837e+01	6.227404e+02
1.180000e-06	3.439772e-06	9.688044e-09	2.382679e+01	6.332462e+02
1.190000e-06	3.521922e-06	9.834029e-09	2.439583e+01	6.435385e+02
1.200000e-06	3.602766e-06	9.973905e-09	2.495582e+01	6.535151e+02
1.210000e-06	3.682331e-06	1.010687e-08	2.550695e+01	6.630442e+02
1.220000e-06	3.760584e-06	1.023140e-08	2.604900e+01	6.719928e+02
1.230000e-06	3.837523e-06	1.034494e-08	2.658194e+01	6.802519e+02
1.240000e-06	3.912984e-06	1.044732e-08	2.710465e+01	6.877547e+02
1.250000e-06	3.986805e-06	1.054232e-08	2.761600e+01	6.944879e+02
1.260000e-06	4.059102e-06	1.063425e-08	2.811679e+01	7.004939e+02
1.270000e-06	4.129993e-06	1.072281e-08	2.860784e+01	7.058651e+02
1.280000e-06	4.199488e-06	1.080732e-08	2.908922e+01	7.107311e+02
1.290000e-06	4.267588e-06	1.089075e-08	2.956094e+01	7.152418e+02
1.300000e-06	4.334079e-06	1.097393e-08	3.002152e+01	7.195486e+02
1.310000e-06	4.398894e-06	1.105319e-08	3.047048e+01	7.237854e+02
1.320000e-06	4.462234e-06	1.112472e-08	3.090922e+01	7.280539e+02
1.330000e-06	4.524139e-06	1.118934e-08	3.133804e+01	7.324132e+02
1.340000e-06	4.584651e-06	1.124944e-08	3.175719e+01	7.368754e+02
1.350000e-06	4.643466e-06	1.130973e-08	3.216459e+01	7.414080e+02
1.360000e-06	4.700428e-06	1.137073e-08	3.255916e+01	7.459417e+02
1.370000e-06	4.755755e-06	1.142968e-08	3.294240e+01	7.503827e+02
1.380000e-06	4.809400e-06	1.148574e-08	3.331399e+01	7.546278e+02
1.390000e-06	4.861011e-06	1.153612e-08	3.367149e+01	7.585797e+02
1.400000e-06	4.910531e-06	1.158340e-08	3.401451e+01	7.621611e+02
1.410000e-06	4.958278e-06	1.162701e-08	3.434525e+01	7.653250e+02
1.420000e-06	5.004360e-06	1.166575e-08	3.466445e+01	7.680606e+02
1.430000e-06	5.048829e-06	1.170391e-08	3.497248e+01	7.703939e+02
1.440000e-06	5.091417e-06	1.174282e-08	3.526748e+01	7.723836e+02
1.450000e-06	5.132051e-06	1.178031e-08	3.554895e+01	7.741119e+02
1.460000e-06	5.170964e-06	1.181511e-08	3.581849e+01	7.756732e+02
1.470000e-06	5.208179e-06	1.184900e-08	3.607627e+01	7.771609e+02
1.480000e-06	5.243577e-06	1.188250e-08	3.632147e+01	7.786553e+02
1.490000e-06	5.276988e-06	1.191215e-08	3.655290e+01	7.802131e+02
1.500000e-06	5.308557e-06	1.193376e-08	3.677158e+01	7.818614e+02
1.510000e-06	5.338451e-06	1.195097e-08	3.697865e+01	7.835946e+02
1.520000e-06	5.366558e-06	1.197030e-08	3.717334e+01	7.853774e+02
1.530000e-06	5.392578e-06	1.199133e-08	3.735358e+01	7.871507e+02
1.540000e-06	5.416527e-06	1.201085e-08	3.751947e+01	7.888412e+02
1.550000e-06	5.438655e-06	1.202826e-08	3.767275e+01	7.903724e+02
1.560000e-06	5.459055e-06	1.204534e-08	3.781405e+01	7.916760e+02
1.570000e-06	5.477504e-06	1.206111e-08	3.794185e+01	7.927015e+02
1.580000e-06	5.493915e-06	1.207244e-08	3.805552e+01	7.934237e+02
1.590000e-06	5.508414e-06	1.207900e-08	3.815596e+01	7.938457e+02
1.600000e-06	5.520802e-06	1.208381e-08	3.824177e+01	7.939984e+02
1.610000e-06	5.530887e-06	1.208897e-08	3.831162e+01	7.939363e+02
1.620000e-06	5.538905e-06	1.209591e-08	3.836716e+01	7.937291e+02
1.630000e-06	5.545126e-06	1.210265e-08	3.841026e+01	7.934525e+02
1.640000e-06	5.549553e-06	1.210627e-08	3.844092e+01	7.931775e+02
1.650000e-06	5.551960e-06	1.211041e-08	3.845759e+01	7.929606e+02
1.660000e-06	5.552307e-06	1.211613e-08	3.846000e+01	7.928369e+02
1.670000e-06	5.550866e-06	1.211564e-08	3.845002e+01	7.928147e+02
1.680000e-06	5.547759e-06	1.210772e-08	3.842849e+01	7.928759e+02
1.690000e-06	5.542739e-06	1.209626e-08	3.839372e+01	7.929783e+02
1.700000e-06	5.535757e-06	1.208737e-08	3.834536e+01	7.930626e+02
1.710000e-06	5.527124e-06	1.208274e-08	3.828556e+01	7.930607e+02
1.720000e-06	5.516784e-06	1.208083e-08	3.821394e+01	7.929058e+02
1.730000e-06	5.504472e-06	1.208340e-08	3.812865e+01	7.925418e+02
1.740000e-06	5.490132e-06	1.206026e-08	3.802932e+01	7.919314e+02
1.750000e-06	5.473733e-06	1.201006e-08	3.791572e+01	7.910614e+02
1.760000e-06	5.454793e-06	1.199583e-08	3.778453e+01	7.899443e+02
1.770000e-06	5.433054e-06	1.198737e-08	3.763395e+01	7.886164e+02
1.780000e-06	5.409231e-06	1.202049e-08	3.746893e+01	7.871328e+02
1.790000e-06	5.384370e-06	1.203788e-08	3.729673e+01	7.855592e+02
1.800000e-06	5.358663e-06	1.194016e-08	3.711865e+01	7.839623e+02
1.810000e-06	5.331037e-06	1.195713e-08	3.692730e+01	7.824005e+02
1.820000e-06	5.301131e-06	1.194645e-08	3.672014e+01	7.809151e+02
1.830000e-06	5.269646e-06	1.185290e-08	3.650205e+01	7.795242e+02
1.840000e-06	5.236378e-06	1.191447e-08	3.627160e+01	7.782197e+02
1.850000e-06	5.201324e-06	1.187825e-08	3.602879e+01	7.769680e+02
1.860000e-06	5.164528e-06	1.179776e-08	3.577391e+01	7.757144e+02
1.870000e-06	5.125576e-06	1.185739e-08	3.550410e+01	7.743903e+02
1.880000e-06	5.084907e-06	1.179275e-08	3.522239e+01	7.729224e+02
1.890000e-06	5.042629e-06	1.172413e-08	3.492953e+01	7.712428e+02
1.900000e-06	4.998314e-06	1.168493e-08	3.462257e+01	7.692983e+02
1.910000e-06	4.952232e-06	1.162661e-08	3.430337e+01	7.670577e+02
1.920000e-06	4.904327e-06	1.169549e-08	3.397154e+01	7.645163e+02
1.930000e-06	4.854592e-06	1.162498e-08	3.362703e+01	7.616964e+02
1.940000e-06	4.803157e-06	1.153993e-08	3.327075e+01	7.586444e+02
1.950000e-06	4.749600e-06	1.153908e-08	3.289977e+01	7.554244e+02
1.960000e-06	4.694208e-06	1.146147e-08	3.251608e+01	7.521090e+02
1.970000e-06	4.637164e-06	1.144066e-08	3.212094e+01	7.487695e+02
1.980000e-06	4.578530e-06	1.137218e-08	3.171479e+01	7.454654e+02
1.990000e-06	4.518343e-06	1.132544e-08	3.129788e+01	7.422359e+02
2.000000e-06	4.456356e-06	1.131604e-08	3.086851e+01	7.390941e+02
2.010000e-06	4.392804e-06	1.124321e-08	3.042830e+01	7.360244e+02
2.020000e-06	4.327690e-06	1.120023e-08	2.997726e+01	7.329847e+02
2.030000e-06	4.261079e-06	1.110288e-08	2.951585e+01	7.299111e+02
2.040000e-06	4.192971e-06	1.106464e-08	2.904408e+01	7.267269e+02
2.050000e-06	4.123045e-06	1.102921e-08	2.855972e+01	7.233526e+02
2.060000e-06	4.051572e-06	1.094439e-08	2.806463e+01	7.197169e+02
2.070000e-06	3.978807e-06	1.090010e-08	2.756060e+01	7.157664e+02
2.080000e-06	3.904704e-06	1.082180e-08	2.704730e+01	7.114734e+02
2.090000e-06	3.828979e-06	1.078535e-08	2.652277e+01	7.068393e+02
2.100000e-06	3.751469e-06	1.070537e-08	2.598586e+01	7.018950e+02
2.110000e-06	3.672483e-06	1.061477e-08	2.543874e+01	6.966964e+02
2.120000e-06	3.592258e-06	1.054680e-08	2.488303e+01	6.913163e+02
2.130000e-06	3.510877e-06	1.046380e-08	2.431932e+01	6.858341e+02
2.140000e-06	3.428384e-06	1.041280e-08	2.374790e+01	6.803242e+02
2.150000e-06	3.344793e-06	1.032217e-08	2.316888e+01	6.748446e+02
2.160000e-06	3.259842e-06	1.023935e-08	2.258043e+01	6.694275e+02
2.170000e-06	3.173487e-06	1.014941e-08	2.198227e+01	6.640740e+02
2.180000e-06	3.086018e-06	1.006410e-08	2.137638e+01	6.587518e+02
2.190000e-06	2.997577e-06	9.977914e-09	2.076376e+01	6.533988e+02
2.200000e-06	2.908175e-06	9.871066e-09	2.014449e+01	6.479301e+02
2.210000e-06	2.817846e-06	9.786532e-09	1.951880e+01	6.422489e+02
2.220000e-06	2.726692e-06	9.692825e-09	1.888738e+01	6.362591e+02
2.230000e-06	2.634480e-06	9.595615e-09	1.824865e+01	6.298784e+02
2.240000e-06	2.541073e-06	9.479884e-09	1.760163e+01	6.230493e+02
2.250000e-06	2.446675e-06	9.366947e-09	1.694775e+01	6.157477e+02
2.260000e-06	2.351427e-06	9.264855e-09	1.628798e+01	6.079864e+02
2.270000e-06	2.255431e-06	9.158154e-09	1.562303e+01	5.998131e+02
2.280000e-06	2.158722e-06	9.042457e-09	1.495314e+01	5.913043e+02
2.290000e-06	2.061264e-06	8.912467e-09	1.427807e+01	5.825536e+02
2.300000e-06	1.963135e-06	8.784493e-09	1.359834e+01	5.736576e+02
2.310000e-06	1.864484e-06	8.652710e-09	1.291500e+01	5.647004e+02
2.320000e-06	1.765339e-06	8.518257e-09	1.222824e+01	5.557390e+02
2.330000e-06	1.665587e-06	8.378411e-09	1.153727e+01	5.467918e+02
2.340000e-06	1.565143e-06	8.239503e-09	1.084151e+01	5.378318e+02
2.350000e-06	1.463988e-06	8.099806e-09	1.014083e+01	5.287859e+02
2.360000e-06	1.362175e-06	7.947215e-09	9.435584e+00	5.195405e+02
2.370000e-06	1.259780e-06	7.781170e-09	8.726309e+00	5.099533e+02
2.380000e-06	1.156908e-06	7.609256e-09	8.013729e+00	4.998696e+02
2.390000e-06	1.053629e-06	7.439681e-09	7.298329e+00	4.891415e+02
2.400000e-06	9.499726e-07	7.266096e-09	6.580317e+00	4.776469e+02
2.410000e-06	8.460052e-07	7.083371e-09	5.860151e+00	4.653067e+02
2.420000e-06	7.417593e-07	6.891378e-09	5.138055e+00	4.520962e+02
2.430000e-06	6.373088e-07	6.691993e-09	4.414542e+00	4.380498e+02
2.440000e-06	5.326846e-07	6.483492e-09	3.689827e+00	4.232574e+02
2.450000e-06	4.278389e-07	6.265600e-09	2.963576e+00	4.078516e+02
2.460000e-06	3.228739e-07	6.038094e-09	2.236499e+00	3.919882e+02
2.470000e-06	2.178581e-07	5.803393e-09	1.509070e+00	3.758196e+02
2.480000e-06	1.127430e-07	5.562476e-09	7.809535e-01	3.594665e+02
2.490000e-06	7.630691e-09	5.310123e-09	5.285665e-02	3.429887e+02
2.500000e-06	-9.744970e-08	5.043125e-09	-6.750195e-01	3.263611e+02
2.510000e-06	-2.025311e-07	4.761322e-09	-1.402902e+00	3.094567e+02
2.520000e-06	-3.075093e-07	4.467543e-09	-2.130071e+00	2.920400e+02
2.530000e-06	-4.123621e-07	4.161154e-09	-2.856371e+00	2.737728e+02
2.540000e-06	-5.170857e-07	3.837643e-09	-3.581775e+00	2.542322e+02
2.550000e-06	-6.216481e-07	3.494430e-09	-4.306063e+00	2.329414e+02
2.560000e-06	-7.260045e-07	3.131597e-09	-5.028925e+00	2.094092e+02
2.570000e-06	-8.300958e-07	2.745838e-09	-5.749949e+00	1.831763e+02
2.580000e-06	-9.338973e-07	2.329985e-09	-6.468967e+00	1.538631e+02
2.590000e-06	-1.037382e-06	1.875971e-09	-7.185793e+00	1.212151e+02
2.600000e-06	-1.140538e-06	1.376446e-09	-7.900332e+00	8.514027e+01
2.610000e-06	-1.243298e-06	8.218670e-10	-8.612140e+00	4.573478e+01
2.620000e-06	-1.345539e-06	2.057114e-10	-9.320343e+00	3.294323e+00
2.630000e-06	-1.447102e-06	-4.762185e-10	-1.002386e+01	-4.169157e+01
2.640000e-06	-1.547945e-06	-1.220208e-09	-1.072238e+01	-8.856160e+01
2.650000e-06	-1.648092e-06	-2.006738e-09	-1.141609e+01	-1.365199e+02
2.660000e-06	-1.747602e-06	-2.806082e-09	-1.210537e+01	-1.846853e+02
2.670000e-06	-1.846551e-06	-3.584955e-09	-1.279078e+01	-2.321484e+02
2.680000e-06	-1.944910e-06	-4.318875e-09	-1.347210e+01	-2.780312e+02
2.690000e-06	-2.042609e-06	-4.990459e-09	-1.414884e+01	-3.215443e+02
2.700000e-06	-2.139630e-06	-5.589083e-09	-1.482090e+01	-3.620363e+02
2.710000e-06	-2.235937e-06	-6.114331e-09	-1.548800e+01	-3.990308e+02
2.720000e-06	-2.331562e-06	-6.577941e-09	-1.615038e+01	-4.322491e+02
2.730000e-06	-2.426618e-06	-6.992856e-09	-1.680882e+01	-4.616155e+02
2.740000e-06	-2.520901e-06	-7.363982e-09	-1.746191e+01	-4.872460e+02
2.750000e-06	-2.614036e-06	-7.693884e-09	-1.810703e+01	-5.094229e+02
2.760000e-06	-2.705971e-06	-7.989762e-09	-1.874386e+01	-5.285566e+02
2.770000e-06	-2.796951e-06	-8.259342e-09	-1.937406e+01	-5.451402e+02
2.780000e-06	-2.887009e-06	-8.505521e-09	-1.999788e+01	-5.597012e+02
2.790000e-06	-2.976022e-06	-8.732944e-09	-2.061446e+01	-5.727545e+02
2.800000e-06	-3.063996e-06	-8.944927e-09	-2.122384e+01	-5.847617e+02
2.810000e-06	-3.150989e-06	-9.142185e-09	-2.182643e+01	-5.961005e+02
2.820000e-06	-3.236811e-06	-9.325265e-09	-2.242090e+01	-6.070449e+02
2.830000e-06	-3.321276e-06	-9.493396e-09	-2.300598e+01	-6.177589e+02
2.840000e-06	-3.404553e-06	-9.649355e-09	-2.358283e+01	-6.283026e+02
2.850000e-06	-3.486698e-06	-9.794662e-09	-2.415183e+01	-6.386479e+02
2.860000e-06	-3.567678e-06	-9.930184e-09	-2.471277e+01	-6.487029e+02
2.870000e-06	-3.647513e-06	-1.005749e-08	-2.526578e+01	-6.583397e+02
2.880000e-06	-3.726087e-06	-1.017892e-08	-2.581004e+01	-6.674233e+02
2.890000e-06	-3.803088e-06	-1.029620e-08	-2.634342e+01	-6.758377e+02
2.900000e-06	-3.878455e-06	-1.040662e-08	-2.686547e+01	-6.835058e+02
2.910000e-06	-3.952365e-06	-1.050788e-08	-2.737744e+01	-6.904024e+02
2.920000e-06	-4.024908e-06	-1.060317e-08	-2.787993e+01	-6.965583e+02
2.930000e-06	-4.096179e-06	-1.069607e-08	-2.837362e+01	-7.020559e+02
2.940000e-06	-4.165967e-06	-1.078574e-08	-2.885703e+01	-7.070182e+02
