# Temperatura_=_39.68
# Concentracion g/m^3_=_15500.0
# C_Vs_to_Am_M_A/Vsm_=_65563218390.804596
# pendiente_HvsI_1/m_=_3716.3
# ordenada_HvsI_A/m_=_1297.0
# frecuencia_Hz_=_300800.98921083275

Tiempo_(s)	Campo_(V.s)	Magnetizacion_(V.s)	Campo_(kA/m)	Magnetizacion_(A/m)
0.000000e+00	-5.500356e-06	-1.223651e-08	-3.830777e+01	-8.002325e+02
1.000000e-08	-5.498420e-06	-1.223860e-08	-3.829429e+01	-8.003815e+02
2.000000e-08	-5.494525e-06	-1.224084e-08	-3.826717e+01	-8.005802e+02
3.000000e-08	-5.488871e-06	-1.223746e-08	-3.822779e+01	-8.007595e+02
4.000000e-08	-5.481620e-06	-1.222387e-08	-3.817729e+01	-8.008414e+02
5.000000e-08	-5.472719e-06	-1.220332e-08	-3.811529e+01	-8.007506e+02
6.000000e-08	-5.461854e-06	-1.218710e-08	-3.803963e+01	-8.004246e+02
7.000000e-08	-5.448866e-06	-1.217517e-08	-3.794917e+01	-7.998231e+02
8.000000e-08	-5.433867e-06	-1.215546e-08	-3.784471e+01	-7.989336e+02
9.000000e-08	-5.416551e-06	-1.217968e-08	-3.772410e+01	-7.977727e+02
1.000000e-07	-5.396883e-06	-1.220609e-08	-3.758713e+01	-7.963842e+02
1.100000e-07	-5.375258e-06	-1.217229e-08	-3.743652e+01	-7.948323e+02
1.200000e-07	-5.351906e-06	-1.214113e-08	-3.727388e+01	-7.931928e+02
1.300000e-07	-5.327111e-06	-1.206402e-08	-3.710119e+01	-7.915420e+02
1.400000e-07	-5.300820e-06	-1.199442e-08	-3.691809e+01	-7.899454e+02
1.500000e-07	-5.272650e-06	-1.208987e-08	-3.672190e+01	-7.884489e+02
1.600000e-07	-5.242691e-06	-1.202869e-08	-3.651325e+01	-7.870715e+02
1.700000e-07	-5.211095e-06	-1.196367e-08	-3.629319e+01	-7.858024e+02
1.800000e-07	-5.177530e-06	-1.205585e-08	-3.605942e+01	-7.846020e+02
1.900000e-07	-5.141997e-06	-1.195906e-08	-3.581195e+01	-7.834072e+02
2.000000e-07	-5.104886e-06	-1.192571e-08	-3.555348e+01	-7.821400e+02
2.100000e-07	-5.066058e-06	-1.193813e-08	-3.528306e+01	-7.807177e+02
2.200000e-07	-5.025398e-06	-1.181396e-08	-3.499988e+01	-7.790648e+02
2.300000e-07	-4.982812e-06	-1.182062e-08	-3.470329e+01	-7.771228e+02
2.400000e-07	-4.938280e-06	-1.184546e-08	-3.439314e+01	-7.748590e+02
2.500000e-07	-4.892023e-06	-1.178141e-08	-3.407098e+01	-7.722706e+02
2.600000e-07	-4.843902e-06	-1.174822e-08	-3.373584e+01	-7.693853e+02
2.700000e-07	-4.793756e-06	-1.165366e-08	-3.338659e+01	-7.662577e+02
2.800000e-07	-4.741561e-06	-1.162446e-08	-3.302307e+01	-7.629616e+02
2.900000e-07	-4.687477e-06	-1.161630e-08	-3.264640e+01	-7.595794e+02
3.000000e-07	-4.631740e-06	-1.155689e-08	-3.225821e+01	-7.561911e+02
3.100000e-07	-4.574350e-06	-1.151053e-08	-3.185852e+01	-7.528621e+02
3.200000e-07	-4.515154e-06	-1.147048e-08	-3.144624e+01	-7.496344e+02
3.300000e-07	-4.454307e-06	-1.144996e-08	-3.102247e+01	-7.465197e+02
3.400000e-07	-4.391962e-06	-1.136360e-08	-3.058825e+01	-7.434975e+02
3.500000e-07	-4.328118e-06	-1.128069e-08	-3.014361e+01	-7.405169e+02
3.600000e-07	-4.262786e-06	-1.123646e-08	-2.968859e+01	-7.375038e+02
3.700000e-07	-4.195794e-06	-1.118691e-08	-2.922202e+01	-7.343699e+02
3.800000e-07	-4.127183e-06	-1.115723e-08	-2.874418e+01	-7.310253e+02
3.900000e-07	-4.057105e-06	-1.108585e-08	-2.825611e+01	-7.273903e+02
4.000000e-07	-3.985742e-06	-1.100683e-08	-2.775909e+01	-7.234067e+02
4.100000e-07	-3.913127e-06	-1.095027e-08	-2.725336e+01	-7.190458e+02
4.200000e-07	-3.839046e-06	-1.087780e-08	-2.673741e+01	-7.143128e+02
4.300000e-07	-3.763275e-06	-1.080038e-08	-2.620971e+01	-7.092462e+02
4.400000e-07	-3.685813e-06	-1.071647e-08	-2.567021e+01	-7.039124e+02
4.500000e-07	-3.606878e-06	-1.065776e-08	-2.512046e+01	-6.983964e+02
4.600000e-07	-3.526514e-06	-1.059692e-08	-2.456076e+01	-6.927901e+02
4.700000e-07	-3.444771e-06	-1.051675e-08	-2.399145e+01	-6.871783e+02
4.800000e-07	-3.361825e-06	-1.042553e-08	-2.341377e+01	-6.816268e+02
4.900000e-07	-3.277777e-06	-1.032659e-08	-2.282840e+01	-6.761712e+02
5.000000e-07	-3.192740e-06	-1.025026e-08	-2.223616e+01	-6.708116e+02
5.100000e-07	-3.106759e-06	-1.016599e-08	-2.163733e+01	-6.655103e+02
5.200000e-07	-3.019806e-06	-1.007130e-08	-2.103174e+01	-6.601959e+02
5.300000e-07	-2.931888e-06	-9.973436e-09	-2.041942e+01	-6.547721e+02
5.400000e-07	-2.843005e-06	-9.879729e-09	-1.980039e+01	-6.491300e+02
5.500000e-07	-2.753069e-06	-9.786331e-09	-1.917403e+01	-6.431623e+02
5.600000e-07	-2.661941e-06	-9.673912e-09	-1.853936e+01	-6.367784e+02
5.700000e-07	-2.569773e-06	-9.558768e-09	-1.789744e+01	-6.299168e+02
5.800000e-07	-2.476764e-06	-9.449385e-09	-1.724967e+01	-6.225542e+02
5.900000e-07	-2.382956e-06	-9.350414e-09	-1.659633e+01	-6.147092e+02
6.000000e-07	-2.288368e-06	-9.242207e-09	-1.593756e+01	-6.064399e+02
6.100000e-07	-2.193023e-06	-9.117959e-09	-1.527353e+01	-5.978364e+02
6.200000e-07	-2.096917e-06	-8.987821e-09	-1.460419e+01	-5.890075e+02
6.300000e-07	-2.000064e-06	-8.858857e-09	-1.392964e+01	-5.800642e+02
6.400000e-07	-1.902438e-06	-8.730980e-09	-1.324972e+01	-5.711026e+02
6.500000e-07	-1.803969e-06	-8.593458e-09	-1.256392e+01	-5.621874e+02
6.600000e-07	-1.704692e-06	-8.452597e-09	-1.187249e+01	-5.533388e+02
6.700000e-07	-1.604723e-06	-8.312712e-09	-1.117625e+01	-5.445261e+02
6.800000e-07	-1.504224e-06	-8.170142e-09	-1.047632e+01	-5.356664e+02
6.900000e-07	-1.403288e-06	-8.012787e-09	-9.773339e+00	-5.266320e+02
7.000000e-07	-1.301894e-06	-7.844134e-09	-9.067167e+00	-5.172638e+02
7.100000e-07	-1.200072e-06	-7.677221e-09	-8.358018e+00	-5.073897e+02
7.200000e-07	-1.097843e-06	-7.512334e-09	-7.646036e+00	-4.968469e+02
7.300000e-07	-9.952205e-07	-7.339286e-09	-6.931312e+00	-4.855026e+02
7.400000e-07	-8.922386e-07	-7.153301e-09	-6.214084e+00	-4.732732e+02
7.500000e-07	-7.889375e-07	-6.961259e-09	-5.494634e+00	-4.601370e+02
7.600000e-07	-6.853351e-07	-6.765431e-09	-4.773084e+00	-4.461381e+02
7.700000e-07	-5.814750e-07	-6.558523e-09	-4.049741e+00	-4.313824e+02
7.800000e-07	-4.774400e-07	-6.336677e-09	-3.325178e+00	-4.160222e+02
7.900000e-07	-3.732882e-07	-6.111149e-09	-2.599803e+00	-4.002338e+02
8.000000e-07	-2.689908e-07	-5.887069e-09	-1.873413e+00	-3.841874e+02
8.100000e-07	-1.645613e-07	-5.655837e-09	-1.146104e+00	-3.680151e+02
8.200000e-07	-6.007997e-08	-5.406135e-09	-4.184330e-01	-3.517786e+02
8.300000e-07	4.444352e-08	-5.137626e-09	3.095313e-01	-3.354426e+02
8.400000e-07	1.489060e-07	-4.857650e-09	1.037071e+00	-3.188569e+02
8.500000e-07	2.532946e-07	-4.566226e-09	1.764095e+00	-3.017495e+02
8.600000e-07	3.576053e-07	-4.256479e-09	2.490577e+00	-2.837347e+02
8.700000e-07	4.617554e-07	-3.925302e-09	3.215941e+00	-2.643340e+02
8.800000e-07	5.657559e-07	-3.578666e-09	3.940263e+00	-2.430117e+02
8.900000e-07	6.696081e-07	-3.217394e-09	4.663552e+00	-2.192197e+02
9.000000e-07	7.732473e-07	-2.830613e-09	5.385357e+00	-1.924496e+02
9.100000e-07	8.765703e-07	-2.403044e-09	6.104961e+00	-1.622858e+02
9.200000e-07	9.795356e-07	-1.930531e-09	6.822073e+00	-1.284560e+02
9.300000e-07	1.082166e-06	-1.411547e-09	7.536850e+00	-9.087110e+01
9.400000e-07	1.184420e-06	-8.328754e-10	8.249014e+00	-4.965337e+01
9.500000e-07	1.286232e-06	-1.774241e-10	8.958088e+00	-5.146519e+00
9.600000e-07	1.387578e-06	5.581423e-10	9.663925e+00	4.209222e+01
9.700000e-07	1.488515e-06	1.355329e-09	1.036691e+01	9.131857e+01
9.800000e-07	1.589078e-06	2.189084e-09	1.106729e+01	1.416444e+02
9.900000e-07	1.689198e-06	3.028496e-09	1.176459e+01	1.920937e+02
1.000000e-06	1.788729e-06	3.837951e-09	1.245778e+01	2.416671e+02
1.010000e-06	1.887436e-06	4.585218e-09	1.314523e+01	2.894081e+02
1.020000e-06	1.985204e-06	5.254571e-09	1.382615e+01	3.344660e+02
1.030000e-06	2.082163e-06	5.847875e-09	1.450143e+01	3.761498e+02
1.040000e-06	2.178384e-06	6.372572e-09	1.517157e+01	4.139677e+02
1.050000e-06	2.273858e-06	6.833629e-09	1.583651e+01	4.476493e+02
1.060000e-06	2.368621e-06	7.234825e-09	1.649650e+01	4.771499e+02
1.070000e-06	2.462597e-06	7.589345e-09	1.715100e+01	5.026348e+02
1.080000e-06	2.555748e-06	7.906483e-09	1.779976e+01	5.244490e+02
1.090000e-06	2.648170e-06	8.191584e-09	1.844344e+01	5.430727e+02
1.100000e-06	2.739658e-06	8.448496e-09	1.908062e+01	5.590697e+02
1.110000e-06	2.829902e-06	8.682218e-09	1.970914e+01	5.730329e+02
1.120000e-06	2.918967e-06	8.900929e-09	2.032943e+01	5.855322e+02
1.130000e-06	3.007049e-06	9.108243e-09	2.094289e+01	5.970703e+02
1.140000e-06	3.094159e-06	9.302018e-09	2.154958e+01	6.080498e+02
1.150000e-06	3.180204e-06	9.478371e-09	2.214885e+01	6.187531e+02
1.160000e-06	3.265253e-06	9.639467e-09	2.274118e+01	6.293381e+02
1.170000e-06	3.349333e-06	9.791125e-09	2.332676e+01	6.398463e+02
1.180000e-06	3.432153e-06	9.936525e-09	2.390357e+01	6.502228e+02
1.190000e-06	3.513594e-06	1.007295e-08	2.447077e+01	6.603449e+02
1.200000e-06	3.593796e-06	1.019961e-08	2.502935e+01	6.700545e+02
1.210000e-06	3.672726e-06	1.031962e-08	2.557907e+01	6.791905e+02
1.220000e-06	3.750351e-06	1.043437e-08	2.611969e+01	6.876180e+02
1.230000e-06	3.826693e-06	1.054155e-08	2.665138e+01	6.952500e+02
1.240000e-06	3.901490e-06	1.063988e-08	2.717232e+01	7.020607e+02
1.250000e-06	3.974657e-06	1.073350e-08	2.768189e+01	7.080891e+02
1.260000e-06	4.046395e-06	1.082453e-08	2.818152e+01	7.134326e+02
1.270000e-06	4.116747e-06	1.091023e-08	2.867150e+01	7.182337e+02
1.280000e-06	4.185755e-06	1.099142e-08	2.915211e+01	7.226601e+02
1.290000e-06	4.253295e-06	1.107160e-08	2.962250e+01	7.268834e+02
1.300000e-06	4.319122e-06	1.115044e-08	3.008096e+01	7.310576e+02
1.310000e-06	4.383374e-06	1.122460e-08	3.052844e+01	7.353013e+02
1.320000e-06	4.446206e-06	1.129214e-08	3.096605e+01	7.396847e+02
1.330000e-06	4.507599e-06	1.135598e-08	3.139362e+01	7.442250e+02
1.340000e-06	4.567584e-06	1.141880e-08	3.181139e+01	7.488873e+02
1.350000e-06	4.625866e-06	1.147995e-08	3.221730e+01	7.535935e+02
1.360000e-06	4.682314e-06	1.153802e-08	3.261044e+01	7.582360e+02
1.370000e-06	4.737113e-06	1.159397e-08	3.299210e+01	7.626945e+02
1.380000e-06	4.790138e-06	1.164899e-08	3.336139e+01	7.668541e+02
1.390000e-06	4.841088e-06	1.170036e-08	3.371624e+01	7.706210e+02
1.400000e-06	4.890078e-06	1.174613e-08	3.405743e+01	7.739356e+02
1.410000e-06	4.937395e-06	1.178651e-08	3.438698e+01	7.767797e+02
1.420000e-06	4.983041e-06	1.182540e-08	3.470488e+01	7.791776e+02
1.430000e-06	5.027044e-06	1.186432e-08	3.501135e+01	7.811923e+02
1.440000e-06	5.069132e-06	1.190112e-08	3.530447e+01	7.829151e+02
1.450000e-06	5.109288e-06	1.193663e-08	3.558414e+01	7.844535e+02
1.460000e-06	5.147745e-06	1.197059e-08	3.585198e+01	7.859154e+02
1.470000e-06	5.184535e-06	1.200444e-08	3.610821e+01	7.873955e+02
1.480000e-06	5.219458e-06	1.203615e-08	3.635143e+01	7.889629e+02
1.490000e-06	5.252413e-06	1.206275e-08	3.658095e+01	7.906529e+02
1.500000e-06	5.283643e-06	1.208408e-08	3.679846e+01	7.924638e+02
1.510000e-06	5.313147e-06	1.210101e-08	3.700394e+01	7.943591e+02
1.520000e-06	5.340817e-06	1.211791e-08	3.719665e+01	7.962735e+02
1.530000e-06	5.366411e-06	1.213781e-08	3.737490e+01	7.981240e+02
1.540000e-06	5.390008e-06	1.215924e-08	3.753925e+01	7.998221e+02
1.550000e-06	5.411879e-06	1.217800e-08	3.769157e+01	8.012870e+02
1.560000e-06	5.431976e-06	1.219329e-08	3.783154e+01	8.024569e+02
1.570000e-06	5.450092e-06	1.220670e-08	3.795771e+01	8.032976e+02
1.580000e-06	5.466189e-06	1.221786e-08	3.806982e+01	8.038073e+02
1.590000e-06	5.480352e-06	1.222521e-08	3.816846e+01	8.040165e+02
1.600000e-06	5.492373e-06	1.222929e-08	3.825218e+01	8.039828e+02
1.610000e-06	5.502110e-06	1.223333e-08	3.831999e+01	8.037835e+02
1.620000e-06	5.509853e-06	1.223829e-08	3.837392e+01	8.035037e+02
1.630000e-06	5.515819e-06	1.224191e-08	3.841547e+01	8.032251e+02
1.640000e-06	5.519974e-06	1.224383e-08	3.844441e+01	8.030143e+02
1.650000e-06	5.522090e-06	1.224740e-08	3.845915e+01	8.029143e+02
1.660000e-06	5.522213e-06	1.225369e-08	3.846000e+01	8.029385e+02
1.670000e-06	5.520589e-06	1.225366e-08	3.844869e+01	8.030699e+02
1.680000e-06	5.517266e-06	1.224650e-08	3.842555e+01	8.032635e+02
1.690000e-06	5.512028e-06	1.223739e-08	3.838907e+01	8.034537e+02
1.700000e-06	5.504841e-06	1.222821e-08	3.833901e+01	8.035634e+02
1.710000e-06	5.495996e-06	1.222091e-08	3.827741e+01	8.035157e+02
1.720000e-06	5.485473e-06	1.221215e-08	3.820413e+01	8.032447e+02
1.730000e-06	5.472992e-06	1.220863e-08	3.811719e+01	8.027046e+02
1.740000e-06	5.458459e-06	1.220805e-08	3.801598e+01	8.018767e+02
1.750000e-06	5.441841e-06	1.213959e-08	3.790024e+01	8.007714e+02
1.760000e-06	5.422644e-06	1.211576e-08	3.776654e+01	7.994271e+02
1.770000e-06	5.400753e-06	1.212117e-08	3.761408e+01	7.979044e+02
1.780000e-06	5.376897e-06	1.212929e-08	3.744793e+01	7.962774e+02
1.790000e-06	5.352038e-06	1.220366e-08	3.727480e+01	7.946232e+02
1.800000e-06	5.326329e-06	1.207492e-08	3.709575e+01	7.930107e+02
1.810000e-06	5.298664e-06	1.202345e-08	3.690308e+01	7.914905e+02
1.820000e-06	5.268628e-06	1.212268e-08	3.669388e+01	7.900878e+02
1.830000e-06	5.237014e-06	1.199155e-08	3.647370e+01	7.887981e+02
1.840000e-06	5.203715e-06	1.200912e-08	3.624179e+01	7.875879e+02
1.850000e-06	5.168574e-06	1.206601e-08	3.599705e+01	7.863984e+02
1.860000e-06	5.131682e-06	1.191527e-08	3.574011e+01	7.851540e+02
1.870000e-06	5.092694e-06	1.198953e-08	3.546857e+01	7.837720e+02
1.880000e-06	5.052022e-06	1.197193e-08	3.518531e+01	7.821744e+02
1.890000e-06	5.009790e-06	1.181475e-08	3.489118e+01	7.802984e+02
1.900000e-06	4.965609e-06	1.183849e-08	3.458348e+01	7.781052e+02
1.910000e-06	4.919651e-06	1.175496e-08	3.426340e+01	7.755853e+02
1.920000e-06	4.871789e-06	1.178503e-08	3.393006e+01	7.727601e+02
1.930000e-06	4.822083e-06	1.180039e-08	3.358388e+01	7.696791e+02
1.940000e-06	4.770698e-06	1.165228e-08	3.322600e+01	7.664126e+02
1.950000e-06	4.717230e-06	1.167286e-08	3.285362e+01	7.630421e+02
1.960000e-06	4.661907e-06	1.160636e-08	3.246831e+01	7.596493e+02
1.970000e-06	4.604948e-06	1.155314e-08	3.207162e+01	7.563034e+02
1.980000e-06	4.546346e-06	1.149924e-08	3.166348e+01	7.530522e+02
1.990000e-06	4.486185e-06	1.142096e-08	3.124448e+01	7.499143e+02
2.000000e-06	4.424302e-06	1.146370e-08	3.081349e+01	7.468758e+02
2.010000e-06	4.360859e-06	1.136434e-08	3.037164e+01	7.438922e+02
2.020000e-06	4.295908e-06	1.132366e-08	2.991928e+01	7.408935e+02
2.030000e-06	4.229466e-06	1.125964e-08	2.945653e+01	7.377935e+02
2.040000e-06	4.161520e-06	1.116980e-08	2.898332e+01	7.345016e+02
2.050000e-06	4.091789e-06	1.115780e-08	2.849767e+01	7.309349e+02
2.060000e-06	4.020521e-06	1.103893e-08	2.800132e+01	7.270297e+02
2.070000e-06	3.947938e-06	1.101009e-08	2.749580e+01	7.227507e+02
2.080000e-06	3.874012e-06	1.094779e-08	2.698094e+01	7.180956e+02
2.090000e-06	3.798586e-06	1.088894e-08	2.645563e+01	7.130961e+02
2.100000e-06	3.721451e-06	1.083384e-08	2.591842e+01	7.078131e+02
2.110000e-06	3.642834e-06	1.071552e-08	2.537088e+01	7.023288e+02
2.120000e-06	3.562939e-06	1.065643e-08	2.481444e+01	6.967345e+02
2.130000e-06	3.481867e-06	1.055673e-08	2.424981e+01	6.911179e+02
2.140000e-06	3.399679e-06	1.050620e-08	2.367740e+01	6.855495e+02
2.150000e-06	3.316314e-06	1.042200e-08	2.309680e+01	6.800724e+02
2.160000e-06	3.231628e-06	1.032641e-08	2.250699e+01	6.746945e+02
2.170000e-06	3.145589e-06	1.025481e-08	2.190777e+01	6.693859e+02
2.180000e-06	3.058459e-06	1.014872e-08	2.130094e+01	6.640820e+02
2.190000e-06	2.970361e-06	1.006147e-08	2.068737e+01	6.586910e+02
2.200000e-06	2.881301e-06	9.946913e-09	2.006711e+01	6.531052e+02
2.210000e-06	2.791338e-06	9.862807e-09	1.944055e+01	6.472160e+02
2.220000e-06	2.700502e-06	9.773835e-09	1.880791e+01	6.409280e+02
2.230000e-06	2.608734e-06	9.670092e-09	1.816879e+01	6.341724e+02
2.240000e-06	2.515951e-06	9.555112e-09	1.752259e+01	6.269173e+02
2.250000e-06	2.422096e-06	9.428765e-09	1.686893e+01	6.191723e+02
2.260000e-06	2.327285e-06	9.327077e-09	1.620861e+01	6.109876e+02
2.270000e-06	2.231713e-06	9.217774e-09	1.554299e+01	6.024473e+02
2.280000e-06	2.135387e-06	9.105107e-09	1.487212e+01	5.936574e+02
2.290000e-06	2.038376e-06	8.977330e-09	1.419647e+01	5.847301e+02
2.300000e-06	1.940718e-06	8.847075e-09	1.351632e+01	5.757660e+02
2.310000e-06	1.842419e-06	8.713362e-09	1.283171e+01	5.668377e+02
2.320000e-06	1.743565e-06	8.568548e-09	1.214323e+01	5.579759e+02
2.330000e-06	1.644233e-06	8.420271e-09	1.145142e+01	5.491611e+02
2.340000e-06	1.544473e-06	8.275804e-09	1.075664e+01	5.403212e+02
2.350000e-06	1.444094e-06	8.135194e-09	1.005754e+01	5.313371e+02
2.360000e-06	1.342959e-06	7.981987e-09	9.353175e+00	5.220550e+02
2.370000e-06	1.241115e-06	7.815483e-09	8.643866e+00	5.123040e+02
2.380000e-06	1.138714e-06	7.642556e-09	7.930685e+00	5.019173e+02
2.390000e-06	1.035930e-06	7.471794e-09	7.214836e+00	4.907540e+02
2.400000e-06	9.327932e-07	7.294489e-09	6.496531e+00	4.787187e+02
2.410000e-06	8.293706e-07	7.107513e-09	5.776234e+00	4.657756e+02
2.420000e-06	7.257017e-07	6.911290e-09	5.054222e+00	4.519549e+02
2.430000e-06	6.217994e-07	6.707024e-09	4.330584e+00	4.373501e+02
2.440000e-06	5.176544e-07	6.493738e-09	3.605256e+00	4.221053e+02
2.450000e-06	4.132890e-07	6.271069e-09	2.878393e+00	4.063939e+02
2.460000e-06	3.088035e-07	6.041017e-09	2.150693e+00	3.903902e+02
2.470000e-06	2.042259e-07	5.803696e-09	1.422352e+00	3.742371e+02
2.480000e-06	9.959222e-08	5.559156e-09	6.936200e-01	3.580139e+02
2.490000e-06	-5.059711e-09	5.299712e-09	-3.523886e-02	3.417082e+02
2.500000e-06	-1.097251e-07	5.023568e-09	-7.641912e-01	3.251950e+02
2.510000e-06	-2.143499e-07	4.732196e-09	-1.492861e+00	3.082286e+02
2.520000e-06	-3.188709e-07	4.429043e-09	-2.220808e+00	2.904460e+02
2.530000e-06	-4.232432e-07	4.109067e-09	-2.947719e+00	2.713864e+02
2.540000e-06	-5.274572e-07	3.765895e-09	-3.673528e+00	2.505227e+02
2.550000e-06	-6.314579e-07	3.401173e-09	-4.397851e+00	2.273052e+02
2.560000e-06	-7.351991e-07	3.017524e-09	-5.120367e+00	2.012124e+02
2.570000e-06	-8.386904e-07	2.606516e-09	-5.841143e+00	1.718047e+02
2.580000e-06	-9.419000e-07	2.152591e-09	-6.559956e+00	1.387750e+02
2.590000e-06	-1.044811e-06	1.647876e-09	-7.276691e+00	1.019922e+02
2.600000e-06	-1.147316e-06	1.087101e-09	-7.990597e+00	6.153190e+01
2.610000e-06	-1.249276e-06	4.590088e-10	-8.700704e+00	1.769024e+01
2.620000e-06	-1.350667e-06	-2.460449e-10	-9.406857e+00	-2.901963e+01
2.630000e-06	-1.451403e-06	-1.022378e-09	-1.010844e+01	-7.789041e+01
2.640000e-06	-1.551493e-06	-1.848170e-09	-1.080553e+01	-1.280604e+02
2.650000e-06	-1.651081e-06	-2.693019e-09	-1.149912e+01	-1.785674e+02
2.660000e-06	-1.750187e-06	-3.523097e-09	-1.218935e+01	-2.284112e+02
2.670000e-06	-1.848702e-06	-4.304346e-09	-1.287547e+01	-2.766206e+02
2.680000e-06	-1.946547e-06	-5.012488e-09	-1.355692e+01	-3.223175e+02
2.690000e-06	-2.043700e-06	-5.638356e-09	-1.423355e+01	-3.647727e+02
2.700000e-06	-2.140128e-06	-6.185757e-09	-1.490514e+01	-4.034492e+02
2.710000e-06	-2.235908e-06	-6.665227e-09	-1.557221e+01	-4.380282e+02
2.720000e-06	-2.331147e-06	-7.089393e-09	-1.623551e+01	-4.684172e+02
2.730000e-06	-2.425702e-06	-7.463391e-09	-1.689404e+01	-4.947388e+02
2.740000e-06	-2.519246e-06	-7.794133e-09	-1.754554e+01	-5.173027e+02
2.750000e-06	-2.611634e-06	-8.093899e-09	-1.818898e+01	-5.365643e+02
2.760000e-06	-2.703002e-06	-8.368213e-09	-1.882533e+01	-5.530742e+02
2.770000e-06	-2.793406e-06	-8.615838e-09	-1.945496e+01	-5.674234e+02
2.780000e-06	-2.882774e-06	-8.837863e-09	-2.007737e+01	-5.801909e+02
2.790000e-06	-2.971101e-06	-9.045876e-09	-2.069253e+01	-5.918970e+02
2.800000e-06	-3.058538e-06	-9.245838e-09	-2.130149e+01	-6.029679e+02
2.810000e-06	-3.144989e-06	-9.431772e-09	-2.190359e+01	-6.137126e+02
2.820000e-06	-3.230152e-06	-9.599556e-09	-2.249671e+01	-6.243154e+02
2.830000e-06	-3.314013e-06	-9.754097e-09	-2.308077e+01	-6.348415e+02
2.840000e-06	-3.396705e-06	-9.902205e-09	-2.365669e+01	-6.452544e+02
2.850000e-06	-3.478282e-06	-1.004155e-08	-2.422484e+01	-6.554433e+02
2.860000e-06	-3.558692e-06	-1.016952e-08	-2.478487e+01	-6.652550e+02
2.870000e-06	-3.637921e-06	-1.028792e-08	-2.533666e+01	-6.745263e+02
2.880000e-06	-3.715835e-06	-1.040312e-08	-2.587930e+01	-6.831145e+02
2.890000e-06	-3.792176e-06	-1.051520e-08	-2.641099e+01	-6.909210e+02
2.900000e-06	-3.866982e-06	-1.061895e-08	-2.693198e+01	-6.979063e+02
2.910000e-06	-3.940413e-06	-1.071335e-08	-2.744340e+01	-7.040956e+02
2.920000e-06	-4.012506e-06	-1.080466e-08	-2.794550e+01	-7.095749e+02
2.930000e-06	-4.083238e-06	-1.089593e-08	-2.843812e+01	-7.144783e+02
2.940000e-06	-4.152370e-06	-1.098090e-08	-2.891959e+01	-7.189701e+02
