# Temperatura_=_22.03
# Concentracion g/m^3_=_15500.0
# C_Vs_to_Am_M_A/Vsm_=_65563218390.804596
# pendiente_HvsI_1/m_=_3716.3
# ordenada_HvsI_A/m_=_1297.0
# frecuencia_Hz_=_300811.743439921

Tiempo_(s)	Campo_(V.s)	Magnetizacion_(V.s)	Campo_(kA/m)	Magnetizacion_(A/m)
0.000000e+00	-5.509634e-06	-1.220340e-08	-3.830701e+01	-7.981966e+02
1.000000e-08	-5.508162e-06	-1.220711e-08	-3.829677e+01	-7.980890e+02
2.000000e-08	-5.504676e-06	-1.220924e-08	-3.827254e+01	-7.980557e+02
3.000000e-08	-5.499378e-06	-1.220407e-08	-3.823570e+01	-7.980578e+02
4.000000e-08	-5.492444e-06	-1.219010e-08	-3.818749e+01	-7.980394e+02
5.000000e-08	-5.483852e-06	-1.217147e-08	-3.812775e+01	-7.979362e+02
6.000000e-08	-5.473338e-06	-1.215622e-08	-3.805465e+01	-7.976847e+02
7.000000e-08	-5.460751e-06	-1.214084e-08	-3.796713e+01	-7.972318e+02
8.000000e-08	-5.446158e-06	-1.212424e-08	-3.786567e+01	-7.965421e+02
9.000000e-08	-5.429233e-06	-1.215422e-08	-3.774800e+01	-7.956034e+02
1.000000e-07	-5.409954e-06	-1.217953e-08	-3.761396e+01	-7.944282e+02
1.100000e-07	-5.388648e-06	-1.213998e-08	-3.746583e+01	-7.930521e+02
1.200000e-07	-5.365507e-06	-1.209905e-08	-3.730493e+01	-7.915284e+02
1.300000e-07	-5.340910e-06	-1.202326e-08	-3.713391e+01	-7.899206e+02
1.400000e-07	-5.314878e-06	-1.196969e-08	-3.695292e+01	-7.882934e+02
1.500000e-07	-5.286992e-06	-1.206017e-08	-3.675904e+01	-7.867028e+02
1.600000e-07	-5.257341e-06	-1.200060e-08	-3.655288e+01	-7.851882e+02
1.700000e-07	-5.226108e-06	-1.193609e-08	-3.633573e+01	-7.837663e+02
1.800000e-07	-5.192948e-06	-1.201842e-08	-3.610518e+01	-7.824284e+02
1.900000e-07	-5.157725e-06	-1.192504e-08	-3.586028e+01	-7.811406e+02
2.000000e-07	-5.120876e-06	-1.188263e-08	-3.560408e+01	-7.798487e+02
2.100000e-07	-5.082382e-06	-1.189255e-08	-3.533644e+01	-7.784849e+02
2.200000e-07	-5.042109e-06	-1.178285e-08	-3.505643e+01	-7.769770e+02
2.300000e-07	-4.999927e-06	-1.179737e-08	-3.476315e+01	-7.752583e+02
2.400000e-07	-4.955737e-06	-1.181700e-08	-3.445591e+01	-7.732766e+02
2.500000e-07	-4.909797e-06	-1.174970e-08	-3.413650e+01	-7.710015e+02
2.600000e-07	-4.862010e-06	-1.171943e-08	-3.380425e+01	-7.684287e+02
2.700000e-07	-4.812177e-06	-1.162296e-08	-3.345778e+01	-7.655804e+02
2.800000e-07	-4.760292e-06	-1.159005e-08	-3.309703e+01	-7.625028e+02
2.900000e-07	-4.706428e-06	-1.159577e-08	-3.272253e+01	-7.592593e+02
3.000000e-07	-4.650873e-06	-1.153898e-08	-3.233627e+01	-7.559218e+02
3.100000e-07	-4.593756e-06	-1.148610e-08	-3.193915e+01	-7.525605e+02
3.200000e-07	-4.534804e-06	-1.144822e-08	-3.152928e+01	-7.492342e+02
3.300000e-07	-4.474114e-06	-1.141542e-08	-3.110731e+01	-7.459815e+02
3.400000e-07	-4.411984e-06	-1.133411e-08	-3.067534e+01	-7.428147e+02
3.500000e-07	-4.348421e-06	-1.127146e-08	-3.023340e+01	-7.397182e+02
3.600000e-07	-4.283383e-06	-1.123143e-08	-2.978121e+01	-7.366495e+02
3.700000e-07	-4.216676e-06	-1.118505e-08	-2.931742e+01	-7.335446e+02
3.800000e-07	-4.148259e-06	-1.115964e-08	-2.884173e+01	-7.303265e+02
3.900000e-07	-4.078346e-06	-1.108315e-08	-2.835565e+01	-7.269155e+02
4.000000e-07	-4.007106e-06	-1.099407e-08	-2.786033e+01	-7.232398e+02
4.100000e-07	-3.934649e-06	-1.093828e-08	-2.735656e+01	-7.192453e+02
4.200000e-07	-3.860796e-06	-1.087680e-08	-2.684308e+01	-7.149033e+02
4.300000e-07	-3.785198e-06	-1.081131e-08	-2.631747e+01	-7.102143e+02
4.400000e-07	-3.707918e-06	-1.073014e-08	-2.578016e+01	-7.052081e+02
4.500000e-07	-3.629198e-06	-1.066908e-08	-2.523284e+01	-6.999396e+02
4.600000e-07	-3.548955e-06	-1.060971e-08	-2.467493e+01	-6.944811e+02
4.700000e-07	-3.467263e-06	-1.053029e-08	-2.410695e+01	-6.889115e+02
4.800000e-07	-3.384415e-06	-1.043611e-08	-2.353093e+01	-6.833054e+02
4.900000e-07	-3.300469e-06	-1.034108e-08	-2.294727e+01	-6.777212e+02
5.000000e-07	-3.215473e-06	-1.027129e-08	-2.235632e+01	-6.721923e+02
5.100000e-07	-3.129621e-06	-1.019310e-08	-2.175941e+01	-6.667210e+02
5.200000e-07	-3.042818e-06	-1.010220e-08	-2.115589e+01	-6.612765e+02
5.300000e-07	-2.954948e-06	-1.000159e-08	-2.054496e+01	-6.557981e+02
5.400000e-07	-2.866163e-06	-9.906437e-09	-1.992766e+01	-6.502020e+02
5.500000e-07	-2.776368e-06	-9.818549e-09	-1.930334e+01	-6.443922e+02
5.600000e-07	-2.685336e-06	-9.715717e-09	-1.867042e+01	-6.382726e+02
5.700000e-07	-2.593169e-06	-9.602054e-09	-1.802961e+01	-6.317601e+02
5.800000e-07	-2.500086e-06	-9.489001e-09	-1.738242e+01	-6.247963e+02
5.900000e-07	-2.406216e-06	-9.386212e-09	-1.672977e+01	-6.173551e+02
6.000000e-07	-2.311591e-06	-9.276362e-09	-1.607187e+01	-6.094472e+02
6.100000e-07	-2.216183e-06	-9.152909e-09	-1.540853e+01	-6.011181e+02
6.200000e-07	-2.120037e-06	-9.025759e-09	-1.474005e+01	-5.924424e+02
6.300000e-07	-2.023135e-06	-8.902517e-09	-1.406631e+01	-5.835125e+02
6.400000e-07	-1.925407e-06	-8.780108e-09	-1.338684e+01	-5.744242e+02
6.500000e-07	-1.826809e-06	-8.645598e-09	-1.270131e+01	-5.652623e+02
6.600000e-07	-1.727384e-06	-8.503499e-09	-1.201004e+01	-5.560854e+02
6.700000e-07	-1.627291e-06	-8.360140e-09	-1.131412e+01	-5.469142e+02
6.800000e-07	-1.526692e-06	-8.213802e-09	-1.061468e+01	-5.377253e+02
6.900000e-07	-1.425635e-06	-8.057440e-09	-9.912055e+00	-5.284493e+02
7.000000e-07	-1.324100e-06	-7.894993e-09	-9.206114e+00	-5.189767e+02
7.100000e-07	-1.222160e-06	-7.731189e-09	-8.497348e+00	-5.091685e+02
7.200000e-07	-1.119790e-06	-7.564612e-09	-7.785598e+00	-4.988730e+02
7.300000e-07	-1.016975e-06	-7.392746e-09	-7.070753e+00	-4.879438e+02
7.400000e-07	-9.138435e-07	-7.211914e-09	-6.353708e+00	-4.762592e+02
7.500000e-07	-8.104234e-07	-7.021742e-09	-5.634657e+00	-4.637390e+02
7.600000e-07	-7.066809e-07	-6.824069e-09	-4.913362e+00	-4.503560e+02
7.700000e-07	-6.027166e-07	-6.618967e-09	-4.190527e+00	-4.361416e+02
7.800000e-07	-4.985804e-07	-6.403288e-09	-3.466496e+00	-4.211816e+02
7.900000e-07	-3.942929e-07	-6.180845e-09	-2.741413e+00	-4.056052e+02
8.000000e-07	-2.898975e-07	-5.956359e-09	-2.015580e+00	-3.895652e+02
8.100000e-07	-1.854028e-07	-5.726365e-09	-1.289056e+00	-3.732123e+02
8.200000e-07	-8.086708e-08	-5.483451e-09	-5.622471e-01	-3.566673e+02
8.300000e-07	2.371475e-08	-5.225186e-09	1.648823e-01	-3.399923e+02
8.400000e-07	1.282873e-07	-4.953602e-09	8.919468e-01	-3.231667e+02
8.500000e-07	2.328041e-07	-4.671395e-09	1.618624e+00	-3.060699e+02
8.600000e-07	3.372600e-07	-4.377537e-09	2.344878e+00	-2.884744e+02
8.700000e-07	4.415655e-07	-4.066375e-09	3.070087e+00	-2.700508e+02
8.800000e-07	5.456886e-07	-3.737895e-09	3.794026e+00	-2.503854e+02
8.900000e-07	6.496533e-07	-3.394818e-09	4.516865e+00	-2.290091e+02
9.000000e-07	7.534700e-07	-3.033763e-09	5.238675e+00	-2.054371e+02
9.100000e-07	8.570335e-07	-2.646154e-09	5.958724e+00	-1.792133e+02
9.200000e-07	9.602437e-07	-2.225312e-09	6.676317e+00	-1.499583e+02
9.300000e-07	1.063098e-06	-1.767076e-09	7.391437e+00	-1.174140e+02
9.400000e-07	1.165593e-06	-1.263732e-09	8.104055e+00	-8.148068e+01
9.500000e-07	1.267723e-06	-7.036082e-10	8.814140e+00	-4.224372e+01
9.600000e-07	1.369442e-06	-7.824318e-11	9.521364e+00	1.505957e-02
9.700000e-07	1.470688e-06	6.118473e-10	1.022530e+01	4.482186e+01
9.800000e-07	1.571451e-06	1.357804e-09	1.092587e+01	9.153189e+01
9.900000e-07	1.671691e-06	2.141125e-09	1.162282e+01	1.393653e+02
1.000000e-06	1.771405e-06	2.933685e-09	1.231611e+01	1.874553e+02
1.010000e-06	1.870483e-06	3.702052e-09	1.300496e+01	2.349039e+02
1.020000e-06	1.968667e-06	4.421519e-09	1.368762e+01	2.808409e+02
1.030000e-06	2.065927e-06	5.080257e-09	1.436384e+01	3.244805e+02
1.040000e-06	2.162402e-06	5.674068e-09	1.503460e+01	3.651701e+02
1.050000e-06	2.258169e-06	6.202908e-09	1.570044e+01	4.024281e+02
1.060000e-06	2.353254e-06	6.667795e-09	1.636154e+01	4.359668e+02
1.070000e-06	2.447594e-06	7.077503e-09	1.701746e+01	4.656981e+02
1.080000e-06	2.541125e-06	7.440710e-09	1.766776e+01	4.917244e+02
1.090000e-06	2.633821e-06	7.766968e-09	1.831225e+01	5.143132e+02
1.100000e-06	2.725588e-06	8.061774e-09	1.895028e+01	5.338607e+02
1.110000e-06	2.816260e-06	8.329845e-09	1.958070e+01	5.508475e+02
1.120000e-06	2.905707e-06	8.578082e-09	2.020260e+01	5.657905e+02
1.130000e-06	2.994090e-06	8.811252e-09	2.081710e+01	5.791974e+02
1.140000e-06	3.081528e-06	9.030009e-09	2.142504e+01	5.915256e+02
1.150000e-06	3.167937e-06	9.229745e-09	2.202581e+01	6.031515e+02
1.160000e-06	3.253351e-06	9.408356e-09	2.261968e+01	6.143512e+02
1.170000e-06	3.337781e-06	9.570650e-09	2.320669e+01	6.252924e+02
1.180000e-06	3.421040e-06	9.724438e-09	2.378558e+01	6.360408e+02
1.190000e-06	3.502951e-06	9.873695e-09	2.435508e+01	6.465743e+02
1.200000e-06	3.583562e-06	1.001849e-08	2.491555e+01	6.568071e+02
1.210000e-06	3.662901e-06	1.015492e-08	2.546717e+01	6.666164e+02
1.220000e-06	3.740923e-06	1.028319e-08	2.600963e+01	6.758713e+02
1.230000e-06	3.817658e-06	1.040420e-08	2.654315e+01	6.844582e+02
1.240000e-06	3.892965e-06	1.051520e-08	2.706674e+01	6.923009e+02
1.250000e-06	3.966607e-06	1.061363e-08	2.757876e+01	6.993736e+02
1.260000e-06	4.038725e-06	1.070390e-08	2.808017e+01	7.057054e+02
1.270000e-06	4.109474e-06	1.079345e-08	2.857207e+01	7.113762e+02
1.280000e-06	4.178844e-06	1.088521e-08	2.905438e+01	7.165066e+02
1.290000e-06	4.246828e-06	1.097474e-08	2.952706e+01	7.212414e+02
1.300000e-06	4.313130e-06	1.105898e-08	2.998804e+01	7.257314e+02
1.310000e-06	4.377753e-06	1.113953e-08	3.043734e+01	7.301152e+02
1.320000e-06	4.440935e-06	1.121537e-08	3.087663e+01	7.345024e+02
1.330000e-06	4.502732e-06	1.128426e-08	3.130629e+01	7.389630e+02
1.340000e-06	4.563174e-06	1.134724e-08	3.172653e+01	7.435210e+02
1.350000e-06	4.621956e-06	1.140782e-08	3.213522e+01	7.481549e+02
1.360000e-06	4.678849e-06	1.146757e-08	3.253078e+01	7.528046e+02
1.370000e-06	4.734066e-06	1.152722e-08	3.291469e+01	7.573820e+02
1.380000e-06	4.787688e-06	1.158652e-08	3.328751e+01	7.617857e+02
1.390000e-06	4.839349e-06	1.164237e-08	3.364669e+01	7.659157e+02
1.400000e-06	4.888849e-06	1.169428e-08	3.399085e+01	7.696886e+02
1.410000e-06	4.936529e-06	1.174247e-08	3.432236e+01	7.730481e+02
1.420000e-06	4.982588e-06	1.178503e-08	3.464260e+01	7.759729e+02
1.430000e-06	5.027006e-06	1.182259e-08	3.495143e+01	7.784780e+02
1.440000e-06	5.069523e-06	1.185930e-08	3.524703e+01	7.806127e+02
1.450000e-06	5.110090e-06	1.189600e-08	3.552909e+01	7.824520e+02
1.460000e-06	5.148973e-06	1.193009e-08	3.579942e+01	7.840867e+02
1.470000e-06	5.186233e-06	1.196383e-08	3.605849e+01	7.856105e+02
1.480000e-06	5.221734e-06	1.199889e-08	3.630531e+01	7.871074e+02
1.490000e-06	5.255185e-06	1.203132e-08	3.653789e+01	7.886413e+02
1.500000e-06	5.286702e-06	1.205558e-08	3.675702e+01	7.902484e+02
1.510000e-06	5.316546e-06	1.207330e-08	3.696452e+01	7.919335e+02
1.520000e-06	5.344645e-06	1.209146e-08	3.715988e+01	7.936709e+02
1.530000e-06	5.370708e-06	1.211230e-08	3.734109e+01	7.954100e+02
1.540000e-06	5.394720e-06	1.213211e-08	3.750804e+01	7.970831e+02
1.550000e-06	5.416921e-06	1.214765e-08	3.766240e+01	7.986163e+02
1.560000e-06	5.437396e-06	1.216066e-08	3.780475e+01	7.999404e+02
1.570000e-06	5.455963e-06	1.217356e-08	3.793385e+01	8.010010e+02
1.580000e-06	5.472462e-06	1.218522e-08	3.804856e+01	8.017663e+02
1.590000e-06	5.487013e-06	1.219354e-08	3.814973e+01	8.022316e+02
1.600000e-06	5.499462e-06	1.220164e-08	3.823628e+01	8.024195e+02
1.610000e-06	5.509603e-06	1.221020e-08	3.830679e+01	8.023766e+02
1.620000e-06	5.517733e-06	1.221640e-08	3.836332e+01	8.021671e+02
1.630000e-06	5.524087e-06	1.221987e-08	3.840749e+01	8.018631e+02
1.640000e-06	5.528645e-06	1.222155e-08	3.843918e+01	8.015352e+02
1.650000e-06	5.531166e-06	1.222383e-08	3.845672e+01	8.012426e+02
1.660000e-06	5.531639e-06	1.222683e-08	3.846000e+01	8.010251e+02
1.670000e-06	5.530331e-06	1.222151e-08	3.845091e+01	8.008979e+02
1.680000e-06	5.527341e-06	1.221087e-08	3.843012e+01	8.008507e+02
1.690000e-06	5.522444e-06	1.220542e-08	3.839607e+01	8.008488e+02
1.700000e-06	5.515569e-06	1.220206e-08	3.834827e+01	8.008395e+02
1.710000e-06	5.507065e-06	1.219516e-08	3.828915e+01	8.007594e+02
1.720000e-06	5.496937e-06	1.218558e-08	3.821873e+01	8.005441e+02
1.730000e-06	5.484818e-06	1.218836e-08	3.813447e+01	8.001374e+02
1.740000e-06	5.470642e-06	1.218319e-08	3.803591e+01	7.994997e+02
1.750000e-06	5.454492e-06	1.210481e-08	3.792362e+01	7.986136e+02
1.760000e-06	5.435827e-06	1.207364e-08	3.779385e+01	7.974862e+02
1.770000e-06	5.414343e-06	1.207981e-08	3.764448e+01	7.961486e+02
1.780000e-06	5.390730e-06	1.210280e-08	3.748030e+01	7.946507e+02
1.790000e-06	5.366020e-06	1.217353e-08	3.730849e+01	7.930549e+02
1.800000e-06	5.340561e-06	1.204315e-08	3.713149e+01	7.914261e+02
1.810000e-06	5.313276e-06	1.199934e-08	3.694178e+01	7.898230e+02
1.820000e-06	5.283550e-06	1.210168e-08	3.673511e+01	7.882893e+02
1.830000e-06	5.252266e-06	1.196842e-08	3.651759e+01	7.868468e+02
1.840000e-06	5.219359e-06	1.198873e-08	3.628880e+01	7.854923e+02
1.850000e-06	5.184550e-06	1.204696e-08	3.604679e+01	7.841972e+02
1.860000e-06	5.148016e-06	1.189160e-08	3.579277e+01	7.829109e+02
1.870000e-06	5.109379e-06	1.196737e-08	3.552414e+01	7.815680e+02
1.880000e-06	5.068924e-06	1.194804e-08	3.524287e+01	7.800964e+02
1.890000e-06	5.026958e-06	1.179572e-08	3.495109e+01	7.784273e+02
1.900000e-06	4.983087e-06	1.182994e-08	3.464607e+01	7.765048e+02
1.910000e-06	4.937430e-06	1.174601e-08	3.432863e+01	7.742932e+02
1.920000e-06	4.889883e-06	1.177560e-08	3.399804e+01	7.717826e+02
1.930000e-06	4.840424e-06	1.179911e-08	3.365417e+01	7.689896e+02
1.940000e-06	4.789278e-06	1.163925e-08	3.329857e+01	7.659557e+02
1.950000e-06	4.736052e-06	1.164363e-08	3.292850e+01	7.627412e+02
1.960000e-06	4.680942e-06	1.158633e-08	3.254533e+01	7.594171e+02
1.970000e-06	4.624183e-06	1.153974e-08	3.215070e+01	7.560549e+02
1.980000e-06	4.565809e-06	1.149766e-08	3.174485e+01	7.527165e+02
1.990000e-06	4.505907e-06	1.142944e-08	3.132836e+01	7.494453e+02
2.000000e-06	4.444228e-06	1.145921e-08	3.089952e+01	7.462599e+02
2.010000e-06	4.380928e-06	1.136243e-08	3.045942e+01	7.431505e+02
2.020000e-06	4.316153e-06	1.132048e-08	3.000906e+01	7.400800e+02
2.030000e-06	4.249891e-06	1.124500e-08	2.954835e+01	7.369885e+02
2.040000e-06	4.182150e-06	1.115587e-08	2.907737e+01	7.338008e+02
2.050000e-06	4.112623e-06	1.116078e-08	2.859397e+01	7.304371e+02
2.060000e-06	4.041527e-06	1.106131e-08	2.809965e+01	7.268227e+02
2.070000e-06	3.969166e-06	1.102068e-08	2.759655e+01	7.228993e+02
2.080000e-06	3.895451e-06	1.094490e-08	2.708403e+01	7.186321e+02
2.090000e-06	3.820134e-06	1.088705e-08	2.656036e+01	7.140154e+02
2.100000e-06	3.743032e-06	1.083945e-08	2.602430e+01	7.090727e+02
2.110000e-06	3.664461e-06	1.072923e-08	2.547801e+01	7.038542e+02
2.120000e-06	3.584727e-06	1.067020e-08	2.492364e+01	6.984292e+02
2.130000e-06	3.503844e-06	1.057682e-08	2.436129e+01	6.928762e+02
2.140000e-06	3.421753e-06	1.052350e-08	2.379053e+01	6.872717e+02
2.150000e-06	3.338530e-06	1.043643e-08	2.321191e+01	6.816785e+02
2.160000e-06	3.254028e-06	1.034021e-08	2.262438e+01	6.761358e+02
2.170000e-06	3.168107e-06	1.026568e-08	2.202700e+01	6.706531e+02
2.180000e-06	3.081061e-06	1.016869e-08	2.142179e+01	6.652064e+02
2.190000e-06	2.993052e-06	1.009059e-08	2.080989e+01	6.597411e+02
2.200000e-06	2.904086e-06	9.979190e-09	2.019133e+01	6.541775e+02
2.210000e-06	2.814155e-06	9.887448e-09	1.956606e+01	6.484211e+02
2.220000e-06	2.723288e-06	9.796358e-09	1.893429e+01	6.423749e+02
2.230000e-06	2.631537e-06	9.698213e-09	1.829637e+01	6.359520e+02
2.240000e-06	2.538797e-06	9.587488e-09	1.765157e+01	6.290877e+02
2.250000e-06	2.444990e-06	9.464082e-09	1.699936e+01	6.217486e+02
2.260000e-06	2.350152e-06	9.359867e-09	1.633998e+01	6.139373e+02
2.270000e-06	2.254495e-06	9.246813e-09	1.567490e+01	6.056925e+02
2.280000e-06	2.158173e-06	9.130569e-09	1.500519e+01	5.970831e+02
2.290000e-06	2.061172e-06	9.001524e-09	1.433077e+01	5.881989e+02
2.300000e-06	1.963526e-06	8.872903e-09	1.365187e+01	5.791362e+02
2.310000e-06	1.865292e-06	8.743392e-09	1.296888e+01	5.699835e+02
2.320000e-06	1.766452e-06	8.606559e-09	1.228167e+01	5.608060e+02
2.330000e-06	1.667040e-06	8.464188e-09	1.159048e+01	5.516334e+02
2.340000e-06	1.567097e-06	8.315465e-09	1.089561e+01	5.424520e+02
2.350000e-06	1.466518e-06	8.167303e-09	1.019631e+01	5.332021e+02
2.360000e-06	1.365238e-06	8.009880e-09	9.492133e+00	5.237819e+02
2.370000e-06	1.263304e-06	7.844946e-09	8.783416e+00	5.140577e+02
2.380000e-06	1.160836e-06	7.674482e-09	8.070981e+00	5.038788e+02
2.390000e-06	1.057927e-06	7.505926e-09	7.355483e+00	4.930961e+02
2.400000e-06	9.546572e-07	7.334716e-09	6.637475e+00	4.815812e+02
2.410000e-06	8.511069e-07	7.151721e-09	5.917518e+00	4.692436e+02
2.420000e-06	7.473015e-07	6.956204e-09	5.195787e+00	4.560444e+02
2.430000e-06	6.432473e-07	6.749075e-09	4.472326e+00	4.420020e+02
2.440000e-06	5.389879e-07	6.534018e-09	3.747438e+00	4.271915e+02
2.450000e-06	4.345848e-07	6.312217e-09	3.021551e+00	4.117343e+02
2.460000e-06	3.300492e-07	6.084942e-09	2.294744e+00	3.957798e+02
2.470000e-06	2.253667e-07	5.853044e-09	1.566914e+00	3.794817e+02
2.480000e-06	1.205580e-07	5.615332e-09	8.382076e-01	3.629696e+02
2.490000e-06	1.574693e-08	5.364761e-09	1.094842e-01	3.463205e+02
2.500000e-06	-8.900803e-08	5.097196e-09	-6.188490e-01	3.295332e+02
2.510000e-06	-1.937346e-07	4.814539e-09	-1.346985e+00	3.125094e+02
2.520000e-06	-2.983662e-07	4.520598e-09	-2.074460e+00	2.950446e+02
2.530000e-06	-4.028547e-07	4.214433e-09	-2.800941e+00	2.768302e+02
2.540000e-06	-5.072067e-07	3.891799e-09	-3.526472e+00	2.574684e+02
2.550000e-06	-6.114020e-07	3.551818e-09	-4.250914e+00	2.364991e+02
2.560000e-06	-7.153803e-07	3.195368e-09	-4.973847e+00	2.134371e+02
2.570000e-06	-8.191052e-07	2.817409e-09	-5.695019e+00	1.878162e+02
2.580000e-06	-9.225635e-07	2.407531e-09	-6.414336e+00	1.592367e+02
2.590000e-06	-1.025734e-06	1.959864e-09	-7.131654e+00	1.274109e+02
2.600000e-06	-1.128581e-06	1.471892e-09	-7.846723e+00	9.220260e+01
2.610000e-06	-1.230942e-06	9.345338e-10	-8.558409e+00	5.365599e+01
2.620000e-06	-1.332639e-06	3.361892e-10	-9.265481e+00	1.201059e+01
2.630000e-06	-1.433629e-06	-3.294170e-10	-9.967637e+00	-3.229971e+01
2.640000e-06	-1.533982e-06	-1.057303e-09	-1.066536e+01	-7.866420e+01
2.650000e-06	-1.633779e-06	-1.832110e-09	-1.135923e+01	-1.263283e+02
2.660000e-06	-1.733040e-06	-2.629053e-09	-1.204936e+01	-1.744393e+02
2.670000e-06	-1.831754e-06	-3.416706e-09	-1.273569e+01	-2.221010e+02
2.680000e-06	-1.929886e-06	-4.164227e-09	-1.341798e+01	-2.684324e+02
2.690000e-06	-2.027397e-06	-4.848066e-09	-1.409595e+01	-3.126250e+02
2.700000e-06	-2.124171e-06	-5.460788e-09	-1.476879e+01	-3.539942e+02
2.710000e-06	-2.220192e-06	-6.007927e-09	-1.543640e+01	-3.920192e+02
2.720000e-06	-2.315625e-06	-6.496562e-09	-1.609992e+01	-4.263696e+02
2.730000e-06	-2.410432e-06	-6.929038e-09	-1.675909e+01	-4.569150e+02
2.740000e-06	-2.504408e-06	-7.310987e-09	-1.741248e+01	-4.837184e+02
2.750000e-06	-2.597372e-06	-7.651998e-09	-1.805883e+01	-5.070148e+02
2.760000e-06	-2.689153e-06	-7.962234e-09	-1.869696e+01	-5.271763e+02
2.770000e-06	-2.779883e-06	-8.245929e-09	-1.932778e+01	-5.446694e+02
2.780000e-06	-2.869692e-06	-8.500905e-09	-1.995220e+01	-5.600073e+02
2.790000e-06	-2.958414e-06	-8.734159e-09	-2.056906e+01	-5.737031e+02
2.800000e-06	-3.046100e-06	-8.955168e-09	-2.117872e+01	-5.862282e+02
2.810000e-06	-3.132852e-06	-9.162634e-09	-2.178188e+01	-5.979784e+02
2.820000e-06	-3.218501e-06	-9.350742e-09	-2.237737e+01	-6.092522e+02
2.830000e-06	-3.302800e-06	-9.522320e-09	-2.296348e+01	-6.202406e+02
2.840000e-06	-3.385852e-06	-9.685998e-09	-2.354092e+01	-6.310300e+02
2.850000e-06	-3.467798e-06	-9.841504e-09	-2.411067e+01	-6.416157e+02
2.860000e-06	-3.548589e-06	-9.984176e-09	-2.467239e+01	-6.519230e+02
2.870000e-06	-3.628231e-06	-1.011421e-08	-2.522612e+01	-6.618348e+02
2.880000e-06	-3.706601e-06	-1.023887e-08	-2.577100e+01	-6.712196e+02
2.890000e-06	-3.783415e-06	-1.036093e-08	-2.630507e+01	-6.799582e+02
2.900000e-06	-3.858620e-06	-1.047529e-08	-2.682795e+01	-6.879649e+02
2.910000e-06	-3.932416e-06	-1.057875e-08	-2.734103e+01	-6.952027e+02
2.920000e-06	-4.004830e-06	-1.067659e-08	-2.784451e+01	-7.016887e+02
2.930000e-06	-4.075909e-06	-1.077432e-08	-2.833870e+01	-7.074928e+02
2.940000e-06	-4.145500e-06	-1.086778e-08	-2.882255e+01	-7.127279e+02
