# Temperatura_=_36.87
# Concentracion g/m^3_=_15500.0
# C_Vs_to_Am_M_A/Vsm_=_65563218390.804596
# pendiente_HvsI_1/m_=_3716.3
# ordenada_HvsI_A/m_=_1297.0
# frecuencia_Hz_=_300803.3382572909

Tiempo_(s)	Campo_(V.s)	Magnetizacion_(V.s)	Campo_(kA/m)	Magnetizacion_(A/m)
0.000000e+00	-5.499386e-06	-1.213939e-08	-3.830933e+01	-7.928811e+02
1.000000e-08	-5.497722e-06	-1.213904e-08	-3.829774e+01	-7.929658e+02
2.000000e-08	-5.494118e-06	-1.214084e-08	-3.827264e+01	-7.931085e+02
3.000000e-08	-5.488765e-06	-1.213840e-08	-3.823534e+01	-7.932464e+02
4.000000e-08	-5.481760e-06	-1.212723e-08	-3.818655e+01	-7.933057e+02
5.000000e-08	-5.473066e-06	-1.211059e-08	-3.812599e+01	-7.932131e+02
6.000000e-08	-5.462419e-06	-1.209565e-08	-3.805182e+01	-7.929058e+02
7.000000e-08	-5.449746e-06	-1.207928e-08	-3.796353e+01	-7.923412e+02
8.000000e-08	-5.435070e-06	-1.207245e-08	-3.786130e+01	-7.915027e+02
9.000000e-08	-5.418080e-06	-1.208977e-08	-3.774294e+01	-7.904026e+02
1.000000e-07	-5.398743e-06	-1.209525e-08	-3.760825e+01	-7.890797e+02
1.100000e-07	-5.377367e-06	-1.207505e-08	-3.745934e+01	-7.875945e+02
1.200000e-07	-5.354176e-06	-1.203437e-08	-3.729779e+01	-7.860202e+02
1.300000e-07	-5.329527e-06	-1.195953e-08	-3.712608e+01	-7.844321e+02
1.400000e-07	-5.303443e-06	-1.195782e-08	-3.694437e+01	-7.828968e+02
1.500000e-07	-5.275468e-06	-1.196754e-08	-3.674950e+01	-7.814624e+02
1.600000e-07	-5.245710e-06	-1.191013e-08	-3.654220e+01	-7.801511e+02
1.700000e-07	-5.214364e-06	-1.192039e-08	-3.632384e+01	-7.789556e+02
1.800000e-07	-5.181100e-06	-1.190749e-08	-3.609212e+01	-7.778397e+02
1.900000e-07	-5.145859e-06	-1.184285e-08	-3.584663e+01	-7.767421e+02
2.000000e-07	-5.108991e-06	-1.183901e-08	-3.558980e+01	-7.755849e+02
2.100000e-07	-5.070425e-06	-1.178898e-08	-3.532115e+01	-7.742839e+02
2.200000e-07	-5.030085e-06	-1.172288e-08	-3.504013e+01	-7.727596e+02
2.300000e-07	-4.987839e-06	-1.173040e-08	-3.474584e+01	-7.709484e+02
2.400000e-07	-4.943574e-06	-1.171182e-08	-3.443749e+01	-7.688111e+02
2.500000e-07	-4.897535e-06	-1.168360e-08	-3.411677e+01	-7.663385e+02
2.600000e-07	-4.849719e-06	-1.162909e-08	-3.378368e+01	-7.635527e+02
2.700000e-07	-4.799923e-06	-1.154901e-08	-3.343680e+01	-7.605041e+02
2.800000e-07	-4.747996e-06	-1.152670e-08	-3.307507e+01	-7.572648e+02
2.900000e-07	-4.694114e-06	-1.151226e-08	-3.269972e+01	-7.539183e+02
3.000000e-07	-4.638632e-06	-1.145502e-08	-3.231322e+01	-7.505484e+02
3.100000e-07	-4.581524e-06	-1.140169e-08	-3.191541e+01	-7.472270e+02
3.200000e-07	-4.522594e-06	-1.137364e-08	-3.150489e+01	-7.440043e+02
3.300000e-07	-4.461979e-06	-1.132409e-08	-3.108264e+01	-7.409014e+02
3.400000e-07	-4.399865e-06	-1.125676e-08	-3.064995e+01	-7.379068e+02
3.500000e-07	-4.336309e-06	-1.119994e-08	-3.020721e+01	-7.349777e+02
3.600000e-07	-4.271318e-06	-1.113899e-08	-2.975448e+01	-7.320453e+02
3.700000e-07	-4.204656e-06	-1.109990e-08	-2.929010e+01	-7.290242e+02
3.800000e-07	-4.136275e-06	-1.106657e-08	-2.881375e+01	-7.258236e+02
3.900000e-07	-4.066375e-06	-1.098892e-08	-2.832682e+01	-7.223597e+02
4.000000e-07	-3.995166e-06	-1.091304e-08	-2.783077e+01	-7.185678e+02
4.100000e-07	-3.922730e-06	-1.085160e-08	-2.732618e+01	-7.144104e+02
4.200000e-07	-3.848839e-06	-1.078914e-08	-2.681144e+01	-7.098834e+02
4.300000e-07	-3.773238e-06	-1.071817e-08	-2.628480e+01	-7.050162e+02
4.400000e-07	-3.695966e-06	-1.064491e-08	-2.574651e+01	-6.998677e+02
4.500000e-07	-3.617249e-06	-1.058117e-08	-2.519816e+01	-6.945186e+02
4.600000e-07	-3.537072e-06	-1.051683e-08	-2.463964e+01	-6.890591e+02
4.700000e-07	-3.455508e-06	-1.044041e-08	-2.407146e+01	-6.835762e+02
4.800000e-07	-3.372754e-06	-1.034633e-08	-2.349498e+01	-6.781408e+02
4.900000e-07	-3.288862e-06	-1.025922e-08	-2.291058e+01	-6.727963e+02
5.000000e-07	-3.203943e-06	-1.018491e-08	-2.231902e+01	-6.675517e+02
5.100000e-07	-3.118059e-06	-1.010959e-08	-2.172075e+01	-6.623781e+02
5.200000e-07	-3.031213e-06	-1.002202e-08	-2.111577e+01	-6.572121e+02
5.300000e-07	-2.943419e-06	-9.921343e-09	-2.050419e+01	-6.519623e+02
5.400000e-07	-2.854747e-06	-9.823560e-09	-1.988648e+01	-6.465214e+02
5.500000e-07	-2.765115e-06	-9.731266e-09	-1.926210e+01	-6.407799e+02
5.600000e-07	-2.674199e-06	-9.630065e-09	-1.862877e+01	-6.346413e+02
5.700000e-07	-2.582070e-06	-9.518962e-09	-1.798698e+01	-6.280349e+02
5.800000e-07	-2.489113e-06	-9.412621e-09	-1.733944e+01	-6.209262e+02
5.900000e-07	-2.395425e-06	-9.313051e-09	-1.668680e+01	-6.133222e+02
6.000000e-07	-2.300977e-06	-9.206382e-09	-1.602886e+01	-6.052703e+02
6.100000e-07	-2.205725e-06	-9.084899e-09	-1.536532e+01	-5.968525e+02
6.200000e-07	-2.109657e-06	-8.956710e-09	-1.469610e+01	-5.881731e+02
6.300000e-07	-2.012893e-06	-8.831770e-09	-1.402204e+01	-5.793435e+02
6.400000e-07	-1.915458e-06	-8.709241e-09	-1.334329e+01	-5.704647e+02
6.500000e-07	-1.817124e-06	-8.576184e-09	-1.265829e+01	-5.616106e+02
6.600000e-07	-1.717852e-06	-8.435485e-09	-1.196675e+01	-5.528144e+02
6.700000e-07	-1.617896e-06	-8.296956e-09	-1.127044e+01	-5.440592e+02
6.800000e-07	-1.517452e-06	-8.155008e-09	-1.057074e+01	-5.352763e+02
6.900000e-07	-1.416617e-06	-8.002379e-09	-9.868315e+00	-5.263496e+02
7.000000e-07	-1.315360e-06	-7.840483e-09	-9.162942e+00	-5.171278e+02
7.100000e-07	-1.213660e-06	-7.677441e-09	-8.454492e+00	-5.074414e+02
7.200000e-07	-1.111533e-06	-7.511962e-09	-7.743061e+00	-4.971238e+02
7.300000e-07	-1.008965e-06	-7.338362e-09	-7.028563e+00	-4.860332e+02
7.400000e-07	-9.059776e-07	-7.155006e-09	-6.311141e+00	-4.740716e+02
7.500000e-07	-8.026793e-07	-6.965760e-09	-5.591554e+00	-4.612000e+02
7.600000e-07	-6.991073e-07	-6.770905e-09	-4.870059e+00	-4.474446e+02
7.700000e-07	-5.952679e-07	-6.565684e-09	-4.146702e+00	-4.328951e+02
7.800000e-07	-4.912766e-07	-6.350733e-09	-3.422287e+00	-4.176926e+02
7.900000e-07	-3.871561e-07	-6.130267e-09	-2.696973e+00	-4.020091e+02
8.000000e-07	-2.828916e-07	-5.906483e-09	-1.970654e+00	-3.860194e+02
8.100000e-07	-1.785639e-07	-5.673021e-09	-1.243896e+00	-3.698695e+02
8.200000e-07	-7.419059e-08	-5.424317e-09	-5.168199e-01	-3.536450e+02
8.300000e-07	3.021868e-08	-5.160378e-09	2.105067e-01	-3.373419e+02
8.400000e-07	1.345734e-07	-4.884247e-09	9.374533e-01	-3.208467e+02
8.500000e-07	2.388277e-07	-4.597068e-09	1.663700e+00	-3.039262e+02
8.600000e-07	3.430052e-07	-4.295644e-09	2.389412e+00	-2.862311e+02
8.700000e-07	4.471203e-07	-3.975671e-09	3.114690e+00	-2.673134e+02
8.800000e-07	5.511039e-07	-3.637674e-09	3.839051e+00	-2.466576e+02
8.900000e-07	6.549141e-07	-3.282719e-09	4.562204e+00	-2.237227e+02
9.000000e-07	7.585099e-07	-2.901891e-09	5.283864e+00	-1.979917e+02
9.100000e-07	8.618256e-07	-2.485844e-09	6.003573e+00	-1.690249e+02
9.200000e-07	9.648905e-07	-2.029165e-09	6.721534e+00	-1.365102e+02
9.300000e-07	1.067645e-06	-1.527044e-09	7.437336e+00	-1.003065e+02
9.400000e-07	1.169967e-06	-9.700891e-10	8.150122e+00	-6.047414e+01
9.500000e-07	1.271858e-06	-3.441896e-10	8.859907e+00	-1.729072e+01
9.600000e-07	1.373343e-06	3.576953e-10	9.566857e+00	2.875202e+01
9.700000e-07	1.474413e-06	1.128589e-09	1.027092e+01	7.696932e+01
9.800000e-07	1.575018e-06	1.946055e-09	1.097175e+01	1.265216e+02
9.900000e-07	1.675121e-06	2.779856e-09	1.166908e+01	1.764666e+02
1.000000e-06	1.774659e-06	3.595476e-09	1.236247e+01	2.258209e+02
1.010000e-06	1.873436e-06	4.357844e-09	1.305056e+01	2.736252e+02
1.020000e-06	1.971345e-06	5.044082e-09	1.373261e+01	3.190077e+02
1.030000e-06	2.068413e-06	5.651717e-09	1.440879e+01	3.612402e+02
1.040000e-06	2.164661e-06	6.188417e-09	1.507927e+01	3.997805e+02
1.050000e-06	2.260189e-06	6.660094e-09	1.574473e+01	4.343003e+02
1.060000e-06	2.355018e-06	7.071678e-09	1.640532e+01	4.646929e+02
1.070000e-06	2.449104e-06	7.434683e-09	1.706073e+01	4.910641e+02
1.080000e-06	2.542454e-06	7.760452e-09	1.771102e+01	5.137059e+02
1.090000e-06	2.634942e-06	8.055302e-09	1.835530e+01	5.330559e+02
1.100000e-06	2.726443e-06	8.321383e-09	1.899271e+01	5.496485e+02
1.110000e-06	2.816863e-06	8.562189e-09	1.962258e+01	5.640613e+02
1.120000e-06	2.906117e-06	8.785330e-09	2.024433e+01	5.768637e+02
1.130000e-06	2.994310e-06	8.993915e-09	2.085870e+01	5.885702e+02
1.140000e-06	3.081555e-06	9.188099e-09	2.146645e+01	5.996054e+02
1.150000e-06	3.167824e-06	9.365682e-09	2.206742e+01	6.102807e+02
1.160000e-06	3.253055e-06	9.527583e-09	2.266115e+01	6.207857e+02
1.170000e-06	3.337228e-06	9.679638e-09	2.324750e+01	6.311930e+02
1.180000e-06	3.420216e-06	9.826227e-09	2.382560e+01	6.414752e+02
1.190000e-06	3.501906e-06	9.966517e-09	2.439467e+01	6.515304e+02
1.200000e-06	3.582319e-06	1.009622e-08	2.495483e+01	6.612135e+02
1.210000e-06	3.661390e-06	1.021314e-08	2.550565e+01	6.703681e+02
1.220000e-06	3.739166e-06	1.032402e-08	2.604745e+01	6.788560e+02
1.230000e-06	3.815639e-06	1.043297e-08	2.658017e+01	6.865809e+02
1.240000e-06	3.890611e-06	1.053515e-08	2.710243e+01	6.935033e+02
1.250000e-06	3.963990e-06	1.062758e-08	2.761360e+01	6.996465e+02
1.260000e-06	4.035886e-06	1.071367e-08	2.811443e+01	7.050928e+02
1.270000e-06	4.106389e-06	1.079863e-08	2.860556e+01	7.099723e+02
1.280000e-06	4.175543e-06	1.088310e-08	2.908730e+01	7.144445e+02
1.290000e-06	4.243283e-06	1.096332e-08	2.955918e+01	7.186782e+02
1.300000e-06	4.309392e-06	1.103982e-08	3.001971e+01	7.228297e+02
1.310000e-06	4.373893e-06	1.111462e-08	3.046902e+01	7.270246e+02
1.320000e-06	4.436911e-06	1.118495e-08	3.090802e+01	7.313441e+02
1.330000e-06	4.498516e-06	1.124831e-08	3.133717e+01	7.358177e+02
1.340000e-06	4.558698e-06	1.130716e-08	3.175640e+01	7.404235e+02
1.350000e-06	4.617185e-06	1.136777e-08	3.216382e+01	7.450946e+02
1.360000e-06	4.673864e-06	1.142952e-08	3.255865e+01	7.497318e+02
1.370000e-06	4.728880e-06	1.148794e-08	3.294191e+01	7.542191e+02
1.380000e-06	4.782178e-06	1.154205e-08	3.331319e+01	7.584414e+02
1.390000e-06	4.833500e-06	1.159339e-08	3.367070e+01	7.623008e+02
1.400000e-06	4.882819e-06	1.164286e-08	3.401426e+01	7.657300e+02
1.410000e-06	4.930311e-06	1.168696e-08	3.434510e+01	7.687007e+02
1.420000e-06	4.976183e-06	1.172359e-08	3.466464e+01	7.712263e+02
1.430000e-06	5.020417e-06	1.175897e-08	3.497279e+01	7.733594e+02
1.440000e-06	5.062692e-06	1.179829e-08	3.526727e+01	7.751828e+02
1.450000e-06	5.103086e-06	1.183765e-08	3.554867e+01	7.767982e+02
1.460000e-06	5.141831e-06	1.187156e-08	3.581857e+01	7.783114e+02
1.470000e-06	5.178883e-06	1.190211e-08	3.607667e+01	7.798185e+02
1.480000e-06	5.214051e-06	1.193437e-08	3.632166e+01	7.813928e+02
1.490000e-06	5.247224e-06	1.196598e-08	3.655275e+01	7.830767e+02
1.500000e-06	5.278610e-06	1.198937e-08	3.677138e+01	7.848764e+02
1.510000e-06	5.308349e-06	1.200565e-08	3.697855e+01	7.867635e+02
1.520000e-06	5.336276e-06	1.202342e-08	3.717309e+01	7.886799e+02
1.530000e-06	5.362122e-06	1.204500e-08	3.735314e+01	7.905473e+02
1.540000e-06	5.385937e-06	1.206529e-08	3.751903e+01	7.922794e+02
1.550000e-06	5.407974e-06	1.208042e-08	3.767255e+01	7.937944e+02
1.560000e-06	5.428274e-06	1.209426e-08	3.781396e+01	7.950269e+02
1.570000e-06	5.446647e-06	1.211154e-08	3.794195e+01	7.959368e+02
1.580000e-06	5.462968e-06	1.212683e-08	3.805565e+01	7.965152e+02
1.590000e-06	5.477323e-06	1.213414e-08	3.815564e+01	7.967846e+02
1.600000e-06	5.489647e-06	1.213780e-08	3.824149e+01	7.967962e+02
1.610000e-06	5.499742e-06	1.214234e-08	3.831181e+01	7.966219e+02
1.620000e-06	5.507761e-06	1.214796e-08	3.836768e+01	7.963440e+02
1.630000e-06	5.513956e-06	1.215212e-08	3.841083e+01	7.960443e+02
1.640000e-06	5.518279e-06	1.215348e-08	3.844094e+01	7.957922e+02
1.650000e-06	5.520602e-06	1.215797e-08	3.845713e+01	7.956358e+02
1.660000e-06	5.521014e-06	1.216464e-08	3.846000e+01	7.955953e+02
1.670000e-06	5.519634e-06	1.216428e-08	3.845038e+01	7.956612e+02
1.680000e-06	5.516556e-06	1.215717e-08	3.842894e+01	7.957963e+02
1.690000e-06	5.511636e-06	1.214645e-08	3.839467e+01	7.959413e+02
1.700000e-06	5.504755e-06	1.213767e-08	3.834674e+01	7.960239e+02
1.710000e-06	5.496151e-06	1.213152e-08	3.828680e+01	7.959697e+02
1.720000e-06	5.485911e-06	1.212404e-08	3.821546e+01	7.957129e+02
1.730000e-06	5.473742e-06	1.212536e-08	3.813069e+01	7.952058e+02
1.740000e-06	5.459541e-06	1.210256e-08	3.803177e+01	7.944261e+02
1.750000e-06	5.443306e-06	1.205882e-08	3.791868e+01	7.933796e+02
1.760000e-06	5.424500e-06	1.203386e-08	3.778767e+01	7.921000e+02
1.770000e-06	5.402916e-06	1.202311e-08	3.763731e+01	7.906438e+02
1.780000e-06	5.379239e-06	1.206784e-08	3.747237e+01	7.890823e+02
1.790000e-06	5.354513e-06	1.207091e-08	3.730013e+01	7.874911e+02
1.800000e-06	5.329005e-06	1.198947e-08	3.712244e+01	7.859398e+02
1.810000e-06	5.301621e-06	1.199181e-08	3.693168e+01	7.844809e+02
1.820000e-06	5.271923e-06	1.197253e-08	3.672481e+01	7.831429e+02
1.830000e-06	5.240605e-06	1.190506e-08	3.650663e+01	7.819248e+02
1.840000e-06	5.207534e-06	1.193036e-08	3.627626e+01	7.807963e+02
1.850000e-06	5.172697e-06	1.188317e-08	3.603358e+01	7.797010e+02
1.860000e-06	5.136120e-06	1.182497e-08	3.577878e+01	7.785637e+02
1.870000e-06	5.097396e-06	1.187680e-08	3.550902e+01	7.773006e+02
1.880000e-06	5.056888e-06	1.182229e-08	3.522684e+01	7.758302e+02
1.890000e-06	5.014799e-06	1.175274e-08	3.493365e+01	7.740848e+02
1.900000e-06	4.970836e-06	1.171718e-08	3.462740e+01	7.720193e+02
1.910000e-06	4.925090e-06	1.165499e-08	3.430873e+01	7.696178e+02
1.920000e-06	4.877487e-06	1.169078e-08	3.397711e+01	7.668958e+02
1.930000e-06	4.828061e-06	1.166101e-08	3.363281e+01	7.638982e+02
1.940000e-06	4.776889e-06	1.156940e-08	3.327634e+01	7.606930e+02
1.950000e-06	4.723634e-06	1.154737e-08	3.290536e+01	7.573623e+02
1.960000e-06	4.668556e-06	1.151260e-08	3.252168e+01	7.539908e+02
1.970000e-06	4.611816e-06	1.146002e-08	3.212642e+01	7.506540e+02
1.980000e-06	4.553448e-06	1.138609e-08	3.171983e+01	7.474074e+02
1.990000e-06	4.493545e-06	1.135608e-08	3.130253e+01	7.442788e+02
2.000000e-06	4.431854e-06	1.133433e-08	3.087279e+01	7.412636e+02
2.010000e-06	4.368577e-06	1.127242e-08	3.043199e+01	7.383256e+02
2.020000e-06	4.303839e-06	1.122434e-08	2.998102e+01	7.354007e+02
2.030000e-06	4.237622e-06	1.113635e-08	2.951975e+01	7.324064e+02
2.040000e-06	4.169928e-06	1.108645e-08	2.904818e+01	7.292517e+02
2.050000e-06	4.100472e-06	1.104736e-08	2.856434e+01	7.258506e+02
2.060000e-06	4.029447e-06	1.097485e-08	2.806957e+01	7.221332e+02
2.070000e-06	3.957108e-06	1.092370e-08	2.756565e+01	7.180558e+02
2.080000e-06	3.883394e-06	1.085274e-08	2.705215e+01	7.136067e+02
2.090000e-06	3.808130e-06	1.080105e-08	2.652785e+01	7.088083e+02
2.100000e-06	3.731109e-06	1.072890e-08	2.599132e+01	7.037140e+02
2.110000e-06	3.652536e-06	1.063949e-08	2.544398e+01	6.984005e+02
2.120000e-06	3.572769e-06	1.056515e-08	2.488830e+01	6.929570e+02
2.130000e-06	3.491848e-06	1.049491e-08	2.432460e+01	6.874726e+02
2.140000e-06	3.409741e-06	1.043786e-08	2.375264e+01	6.820223e+02
2.150000e-06	3.326624e-06	1.035090e-08	2.317363e+01	6.766564e+02
2.160000e-06	3.242256e-06	1.026435e-08	2.258592e+01	6.713916e+02
2.170000e-06	3.156347e-06	1.017285e-08	2.198747e+01	6.662071e+02
2.180000e-06	3.069288e-06	1.008203e-08	2.138100e+01	6.610464e+02
2.190000e-06	2.981341e-06	9.996817e-09	2.076835e+01	6.558234e+02
2.200000e-06	2.892453e-06	9.897170e-09	2.014915e+01	6.504328e+02
2.210000e-06	2.802631e-06	9.810331e-09	1.952344e+01	6.447646e+02
2.220000e-06	2.711954e-06	9.721863e-09	1.889177e+01	6.387182e+02
2.230000e-06	2.620445e-06	9.624320e-09	1.825431e+01	6.322163e+02
2.240000e-06	2.527892e-06	9.508213e-09	1.760957e+01	6.252162e+02
2.250000e-06	2.434141e-06	9.391171e-09	1.695650e+01	6.177157e+02
2.260000e-06	2.339419e-06	9.285802e-09	1.629665e+01	6.097540e+02
2.270000e-06	2.243994e-06	9.178785e-09	1.563191e+01	6.014064e+02
2.280000e-06	2.147818e-06	9.064700e-09	1.496194e+01	5.927738e+02
2.290000e-06	2.050883e-06	8.937001e-09	1.428668e+01	5.839673e+02
2.300000e-06	1.953271e-06	8.809013e-09	1.360670e+01	5.750917e+02
2.310000e-06	1.854996e-06	8.679819e-09	1.292211e+01	5.662280e+02
2.320000e-06	1.756190e-06	8.545566e-09	1.223382e+01	5.574191e+02
2.330000e-06	1.657007e-06	8.403084e-09	1.154289e+01	5.486592e+02
2.340000e-06	1.557394e-06	8.259711e-09	1.084898e+01	5.398906e+02
2.350000e-06	1.457165e-06	8.116839e-09	1.015078e+01	5.310066e+02
2.360000e-06	1.356178e-06	7.964065e-09	9.447289e+00	5.218620e+02
2.370000e-06	1.254418e-06	7.798835e-09	8.738413e+00	5.122897e+02
2.380000e-06	1.152104e-06	7.626996e-09	8.025685e+00	5.021206e+02
2.390000e-06	1.049396e-06	7.457188e-09	7.310206e+00	4.912056e+02
2.400000e-06	9.463577e-07	7.283767e-09	6.592433e+00	4.794362e+02
2.410000e-06	8.430307e-07	7.101321e-09	5.872646e+00	4.667597e+02
2.420000e-06	7.393921e-07	6.906818e-09	5.150687e+00	4.531883e+02
2.430000e-06	6.355533e-07	6.703790e-09	4.427335e+00	4.387986e+02
2.440000e-06	5.315424e-07	6.493866e-09	3.702784e+00	4.237224e+02
2.450000e-06	4.272876e-07	6.273864e-09	2.976533e+00	4.081269e+02
2.460000e-06	3.228424e-07	6.043276e-09	2.248956e+00	3.921891e+02
2.470000e-06	2.183264e-07	5.805812e-09	1.520886e+00	3.760639e+02
2.480000e-06	1.137954e-07	5.564062e-09	7.927115e-01	3.598523e+02
2.490000e-06	9.214088e-09	5.311217e-09	6.418637e-02	3.435717e+02
2.500000e-06	-9.539360e-08	5.041629e-09	-6.645224e-01	3.271333e+02
2.510000e-06	-1.999682e-07	4.754971e-09	-1.393000e+00	3.103296e+02
2.520000e-06	-3.044407e-07	4.455356e-09	-2.120768e+00	2.928353e+02
2.530000e-06	-4.087345e-07	4.140991e-09	-2.847290e+00	2.742213e+02
2.540000e-06	-5.128818e-07	3.806255e-09	-3.572792e+00	2.539835e+02
2.550000e-06	-6.169254e-07	3.449125e-09	-4.297571e+00	2.315821e+02
2.560000e-06	-7.207778e-07	3.071726e-09	-5.021018e+00	2.064907e+02
2.570000e-06	-8.243363e-07	2.669779e-09	-5.742419e+00	1.782487e+02
2.580000e-06	-9.275614e-07	2.231219e-09	-6.461496e+00	1.465127e+02
2.590000e-06	-1.030419e-06	1.747445e-09	-7.178012e+00	1.111017e+02
2.600000e-06	-1.132863e-06	1.209335e-09	-7.891653e+00	7.203106e+01
2.610000e-06	-1.234853e-06	6.064813e-10	-8.602125e+00	2.953150e+01
2.620000e-06	-1.336314e-06	-6.856694e-11	-9.308914e+00	-1.595000e+01
2.630000e-06	-1.437174e-06	-8.165897e-10	-1.001152e+01	-6.376737e+01
2.640000e-06	-1.537381e-06	-1.622402e-09	-1.070956e+01	-1.131102e+02
2.650000e-06	-1.636912e-06	-2.456675e-09	-1.140291e+01	-1.630534e+02
2.660000e-06	-1.735855e-06	-3.284145e-09	-1.209216e+01	-2.126168e+02
2.670000e-06	-1.834301e-06	-4.069648e-09	-1.277795e+01	-2.608304e+02
2.680000e-06	-1.932196e-06	-4.790742e-09	-1.345989e+01	-3.067988e+02
2.690000e-06	-2.029471e-06	-5.434263e-09	-1.413752e+01	-3.497587e+02
2.700000e-06	-2.126072e-06	-5.996753e-09	-1.481045e+01	-3.891253e+02
2.710000e-06	-2.221977e-06	-6.491032e-09	-1.547854e+01	-4.245231e+02
2.720000e-06	-2.317249e-06	-6.928234e-09	-1.614221e+01	-4.557980e+02
2.730000e-06	-2.411840e-06	-7.310985e-09	-1.680114e+01	-4.830122e+02
2.740000e-06	-2.505574e-06	-7.646488e-09	-1.745411e+01	-5.064205e+02
2.750000e-06	-2.598193e-06	-7.949922e-09	-1.809930e+01	-5.264333e+02
2.760000e-06	-2.689617e-06	-8.231417e-09	-1.873617e+01	-5.435687e+02
2.770000e-06	-2.780078e-06	-8.487415e-09	-1.936633e+01	-5.583996e+02
2.780000e-06	-2.869593e-06	-8.715470e-09	-1.998990e+01	-5.715012e+02
2.790000e-06	-2.958049e-06	-8.925508e-09	-2.060610e+01	-5.834032e+02
2.800000e-06	-3.045531e-06	-9.125072e-09	-2.121551e+01	-5.945519e+02
2.810000e-06	-3.132074e-06	-9.310062e-09	-2.181837e+01	-6.052841e+02
2.820000e-06	-3.217513e-06	-9.476778e-09	-2.241356e+01	-6.158156e+02
2.830000e-06	-3.301631e-06	-9.629448e-09	-2.299953e+01	-6.262430e+02
2.840000e-06	-3.384484e-06	-9.777716e-09	-2.357669e+01	-6.365585e+02
2.850000e-06	-3.466242e-06	-9.921737e-09	-2.414622e+01	-6.466735e+02
2.860000e-06	-3.546893e-06	-1.005398e-08	-2.470805e+01	-6.564495e+02
2.870000e-06	-3.626321e-06	-1.017415e-08	-2.526136e+01	-6.657300e+02
2.880000e-06	-3.704375e-06	-1.028766e-08	-2.580509e+01	-6.743705e+02
2.890000e-06	-3.780880e-06	-1.039610e-08	-2.633803e+01	-6.822643e+02
2.900000e-06	-3.855857e-06	-1.049616e-08	-2.686033e+01	-6.893587e+02
2.910000e-06	-3.929426e-06	-1.058889e-08	-2.737282e+01	-6.956638e+02
2.920000e-06	-4.001646e-06	-1.068130e-08	-2.787591e+01	-7.012498e+02
2.930000e-06	-4.072558e-06	-1.077440e-08	-2.836989e+01	-7.062379e+02
2.940000e-06	-4.141968e-06	-1.086247e-08	-2.885341e+01	-7.107832e+02
