# Temperatura_=_33.87
# Concentracion g/m^3_=_15500.0
# C_Vs_to_Am_M_A/Vsm_=_65563218390.804596
# pendiente_HvsI_1/m_=_3716.3
# ordenada_HvsI_A/m_=_1297.0
# frecuencia_Hz_=_300803.1366429065

Tiempo_(s)	Campo_(V.s)	Magnetizacion_(V.s)	Campo_(kA/m)	Magnetizacion_(A/m)
0.000000e+00	-5.514529e-06	-1.209426e-08	-3.831247e+01	-7.903239e+02
1.000000e-08	-5.512829e-06	-1.209915e-08	-3.830066e+01	-7.904272e+02
2.000000e-08	-5.509125e-06	-1.210121e-08	-3.827492e+01	-7.906040e+02
3.000000e-08	-5.503646e-06	-1.209460e-08	-3.823686e+01	-7.907925e+02
4.000000e-08	-5.496582e-06	-1.208346e-08	-3.818778e+01	-7.909184e+02
5.000000e-08	-5.487869e-06	-1.207079e-08	-3.812725e+01	-7.909061e+02
6.000000e-08	-5.477271e-06	-1.205800e-08	-3.805361e+01	-7.906893e+02
7.000000e-08	-5.464548e-06	-1.204394e-08	-3.796522e+01	-7.902202e+02
8.000000e-08	-5.449682e-06	-1.202287e-08	-3.786194e+01	-7.894763e+02
9.000000e-08	-5.432512e-06	-1.203888e-08	-3.774265e+01	-7.884635e+02
1.000000e-07	-5.413076e-06	-1.207331e-08	-3.760761e+01	-7.872147e+02
1.100000e-07	-5.391613e-06	-1.204683e-08	-3.745850e+01	-7.857851e+02
1.200000e-07	-5.368290e-06	-1.200733e-08	-3.729647e+01	-7.842442e+02
1.300000e-07	-5.343518e-06	-1.195646e-08	-3.712436e+01	-7.826653e+02
1.400000e-07	-5.317318e-06	-1.187586e-08	-3.694234e+01	-7.811153e+02
1.500000e-07	-5.289250e-06	-1.194207e-08	-3.674733e+01	-7.796448e+02
1.600000e-07	-5.259416e-06	-1.193295e-08	-3.654006e+01	-7.782804e+02
1.700000e-07	-5.228039e-06	-1.183221e-08	-3.632206e+01	-7.770206e+02
1.800000e-07	-5.194727e-06	-1.189979e-08	-3.609062e+01	-7.758357e+02
1.900000e-07	-5.159339e-06	-1.185361e-08	-3.584477e+01	-7.746719e+02
2.000000e-07	-5.122307e-06	-1.177543e-08	-3.558749e+01	-7.734576e+02
2.100000e-07	-5.083613e-06	-1.180203e-08	-3.531866e+01	-7.721142e+02
2.200000e-07	-5.043106e-06	-1.171052e-08	-3.503723e+01	-7.705662e+02
2.300000e-07	-5.000721e-06	-1.167293e-08	-3.474276e+01	-7.687518e+02
2.400000e-07	-4.956357e-06	-1.170762e-08	-3.443454e+01	-7.666318e+02
2.500000e-07	-4.910221e-06	-1.165254e-08	-3.411400e+01	-7.641950e+02
2.600000e-07	-4.862298e-06	-1.160863e-08	-3.378106e+01	-7.614596e+02
2.700000e-07	-4.812368e-06	-1.153990e-08	-3.343417e+01	-7.584714e+02
2.800000e-07	-4.760327e-06	-1.151373e-08	-3.307261e+01	-7.552968e+02
2.900000e-07	-4.706315e-06	-1.149920e-08	-3.269736e+01	-7.520141e+02
3.000000e-07	-4.650643e-06	-1.143833e-08	-3.231058e+01	-7.487024e+02
3.100000e-07	-4.593325e-06	-1.139546e-08	-3.191236e+01	-7.454302e+02
3.200000e-07	-4.534211e-06	-1.134273e-08	-3.150166e+01	-7.422456e+02
3.300000e-07	-4.473422e-06	-1.131426e-08	-3.107932e+01	-7.391692e+02
3.400000e-07	-4.411133e-06	-1.125495e-08	-3.064656e+01	-7.361905e+02
3.500000e-07	-4.347372e-06	-1.117261e-08	-3.020359e+01	-7.332690e+02
3.600000e-07	-4.282101e-06	-1.113236e-08	-2.975011e+01	-7.303391e+02
3.700000e-07	-4.215159e-06	-1.108829e-08	-2.928503e+01	-7.273185e+02
3.800000e-07	-4.146560e-06	-1.104926e-08	-2.880844e+01	-7.241198e+02
3.900000e-07	-4.076508e-06	-1.098039e-08	-2.832174e+01	-7.206617e+02
4.000000e-07	-4.005206e-06	-1.089378e-08	-2.782637e+01	-7.168809e+02
4.100000e-07	-3.932625e-06	-1.083598e-08	-2.732211e+01	-7.127401e+02
4.200000e-07	-3.858428e-06	-1.077281e-08	-2.680662e+01	-7.082342e+02
4.300000e-07	-3.782520e-06	-1.071232e-08	-2.627925e+01	-7.033904e+02
4.400000e-07	-3.705040e-06	-1.063577e-08	-2.574095e+01	-6.982649e+02
4.500000e-07	-3.626065e-06	-1.057292e-08	-2.519227e+01	-6.929349e+02
4.600000e-07	-3.545604e-06	-1.050981e-08	-2.463326e+01	-6.874876e+02
4.700000e-07	-3.463798e-06	-1.042573e-08	-2.406491e+01	-6.820075e+02
4.800000e-07	-3.380813e-06	-1.033587e-08	-2.348837e+01	-6.765639e+02
4.900000e-07	-3.296735e-06	-1.023744e-08	-2.290423e+01	-6.712000e+02
5.000000e-07	-3.211659e-06	-1.016463e-08	-2.231316e+01	-6.659255e+02
5.100000e-07	-3.125593e-06	-1.009393e-08	-2.171522e+01	-6.607142e+02
5.200000e-07	-3.038568e-06	-1.000706e-08	-2.111060e+01	-6.555057e+02
5.300000e-07	-2.950592e-06	-9.905645e-09	-2.049939e+01	-6.502127e+02
5.400000e-07	-2.861605e-06	-9.807455e-09	-1.988114e+01	-6.447317e+02
5.500000e-07	-2.771546e-06	-9.716020e-09	-1.925546e+01	-6.389573e+02
5.600000e-07	-2.680344e-06	-9.612438e-09	-1.862182e+01	-6.327958e+02
5.700000e-07	-2.588068e-06	-9.502183e-09	-1.798073e+01	-6.261786e+02
5.800000e-07	-2.494914e-06	-9.391336e-09	-1.733354e+01	-6.190718e+02
5.900000e-07	-2.400957e-06	-9.288736e-09	-1.668077e+01	-6.114818e+02
6.000000e-07	-2.306224e-06	-9.180824e-09	-1.602261e+01	-6.034544e+02
6.100000e-07	-2.210748e-06	-9.059838e-09	-1.535928e+01	-5.950690e+02
6.200000e-07	-2.114518e-06	-8.936467e-09	-1.469072e+01	-5.864270e+02
6.300000e-07	-2.017465e-06	-8.817237e-09	-1.401644e+01	-5.776370e+02
6.400000e-07	-1.919564e-06	-8.695162e-09	-1.333627e+01	-5.687977e+02
6.500000e-07	-1.820839e-06	-8.557031e-09	-1.265037e+01	-5.599817e+02
6.600000e-07	-1.721355e-06	-8.409463e-09	-1.195920e+01	-5.512217e+02
6.700000e-07	-1.621221e-06	-8.267088e-09	-1.126352e+01	-5.425016e+02
6.800000e-07	-1.520574e-06	-8.129533e-09	-1.056426e+01	-5.337548e+02
6.900000e-07	-1.419444e-06	-7.981210e-09	-9.861659e+00	-5.248677e+02
7.000000e-07	-1.317812e-06	-7.820006e-09	-9.155564e+00	-5.156921e+02
7.100000e-07	-1.215703e-06	-7.656101e-09	-8.446161e+00	-5.060613e+02
7.200000e-07	-1.113162e-06	-7.493037e-09	-7.733746e+00	-4.958108e+02
7.300000e-07	-1.010285e-06	-7.322526e-09	-7.019003e+00	-4.848000e+02
7.400000e-07	-9.070421e-07	-7.139040e-09	-6.301720e+00	-4.729305e+02
7.500000e-07	-8.034445e-07	-6.947919e-09	-5.581971e+00	-4.601615e+02
7.600000e-07	-6.996508e-07	-6.755890e-09	-4.860859e+00	-4.465160e+02
7.700000e-07	-5.956868e-07	-6.558050e-09	-4.138564e+00	-4.320794e+02
7.800000e-07	-4.915054e-07	-6.345127e-09	-3.414758e+00	-4.169879e+02
7.900000e-07	-3.871505e-07	-6.120571e-09	-2.689748e+00	-4.014085e+02
8.000000e-07	-2.827086e-07	-5.893094e-09	-1.964132e+00	-3.855119e+02
8.100000e-07	-1.782019e-07	-5.662355e-09	-1.238066e+00	-3.694414e+02
8.200000e-07	-7.358761e-08	-5.418567e-09	-5.112536e-01	-3.532815e+02
8.300000e-07	3.109956e-08	-5.157363e-09	2.160657e-01	-3.370297e+02
8.400000e-07	1.357478e-07	-4.882871e-09	9.431145e-01	-3.205760e+02
8.500000e-07	2.403318e-07	-4.599388e-09	1.669717e+00	-3.036929e+02
8.600000e-07	3.448359e-07	-4.300201e-09	2.395765e+00	-2.860386e+02
8.700000e-07	4.492194e-07	-3.979130e-09	3.120974e+00	-2.671734e+02
8.800000e-07	5.534414e-07	-3.639372e-09	3.845062e+00	-2.465902e+02
8.900000e-07	6.574942e-07	-3.283069e-09	4.567974e+00	-2.237551e+02
9.000000e-07	7.613830e-07	-2.906254e-09	5.289746e+00	-1.981570e+02
9.100000e-07	8.650246e-07	-2.496100e-09	6.009802e+00	-1.693590e+02
9.200000e-07	9.683675e-07	-2.043846e-09	6.727782e+00	-1.370487e+02
9.300000e-07	1.071371e-06	-1.545479e-09	7.443405e+00	-1.010812e+02
9.400000e-07	1.173966e-06	-9.930163e-10	8.156190e+00	-6.150964e+01
9.500000e-07	1.276129e-06	-3.716494e-10	8.865972e+00	-1.860155e+01
9.600000e-07	1.377818e-06	3.279720e-10	9.572458e+00	2.716371e+01
9.700000e-07	1.479063e-06	1.096049e-09	1.027586e+01	7.511494e+01
9.800000e-07	1.579917e-06	1.908863e-09	1.097655e+01	1.244262e+02
9.900000e-07	1.680273e-06	2.736044e-09	1.167378e+01	1.741678e+02
1.000000e-06	1.780002e-06	3.545277e-09	1.236665e+01	2.233666e+02
1.010000e-06	1.878996e-06	4.304451e-09	1.305442e+01	2.710705e+02
1.020000e-06	1.977155e-06	4.991435e-09	1.373638e+01	3.164114e+02
1.030000e-06	2.074461e-06	5.600910e-09	1.441242e+01	3.586605e+02
1.040000e-06	2.170974e-06	6.139423e-09	1.508295e+01	3.972716e+02
1.050000e-06	2.266728e-06	6.614408e-09	1.574821e+01	4.319084e+02
1.060000e-06	2.361735e-06	7.030756e-09	1.640827e+01	4.624541e+02
1.070000e-06	2.456002e-06	7.397237e-09	1.706320e+01	4.890027e+02
1.080000e-06	2.549503e-06	7.723423e-09	1.771280e+01	5.118337e+02
1.090000e-06	2.642248e-06	8.018106e-09	1.835715e+01	5.313727e+02
1.100000e-06	2.734094e-06	8.286285e-09	1.899525e+01	5.481439e+02
1.110000e-06	2.824776e-06	8.531101e-09	1.962527e+01	5.627168e+02
1.120000e-06	2.914281e-06	8.755693e-09	2.024711e+01	5.756555e+02
1.130000e-06	3.002745e-06	8.963497e-09	2.086172e+01	5.874723e+02
1.140000e-06	3.090190e-06	9.157726e-09	2.146925e+01	5.985922e+02
1.150000e-06	3.176574e-06	9.337348e-09	2.206941e+01	6.093294e+02
1.160000e-06	3.261944e-06	9.502423e-09	2.266252e+01	6.198783e+02
1.170000e-06	3.346336e-06	9.655148e-09	2.324884e+01	6.303170e+02
1.180000e-06	3.429553e-06	9.799620e-09	2.382699e+01	6.406238e+02
1.190000e-06	3.511446e-06	9.938369e-09	2.439595e+01	6.507020e+02
1.200000e-06	3.592071e-06	1.006938e-08	2.495609e+01	6.604105e+02
1.210000e-06	3.671390e-06	1.019031e-08	2.550717e+01	6.695953e+02
1.220000e-06	3.749406e-06	1.030306e-08	2.604919e+01	6.781185e+02
1.230000e-06	3.826172e-06	1.040925e-08	2.658253e+01	6.858828e+02
1.240000e-06	3.901494e-06	1.050856e-08	2.710583e+01	6.928459e+02
1.250000e-06	3.975145e-06	1.060161e-08	2.761752e+01	6.990273e+02
1.260000e-06	4.047236e-06	1.069154e-08	2.811838e+01	7.045055e+02
1.270000e-06	4.117933e-06	1.077883e-08	2.860955e+01	7.094062e+02
1.280000e-06	4.187229e-06	1.086202e-08	2.909098e+01	7.138857e+02
1.290000e-06	4.255081e-06	1.094229e-08	2.956239e+01	7.181102e+02
1.300000e-06	4.321304e-06	1.101928e-08	3.002248e+01	7.222350e+02
1.310000e-06	4.385904e-06	1.109215e-08	3.047129e+01	7.263858e+02
1.320000e-06	4.449056e-06	1.116019e-08	3.091004e+01	7.306454e+02
1.330000e-06	4.510797e-06	1.122450e-08	3.133899e+01	7.350458e+02
1.340000e-06	4.571132e-06	1.128598e-08	3.175817e+01	7.395685e+02
1.350000e-06	4.629766e-06	1.134551e-08	3.216553e+01	7.441500e+02
1.360000e-06	4.686551e-06	1.140320e-08	3.256005e+01	7.486943e+02
1.370000e-06	4.741695e-06	1.145881e-08	3.294316e+01	7.530883e+02
1.380000e-06	4.795121e-06	1.151095e-08	3.331435e+01	7.572190e+02
1.390000e-06	4.846530e-06	1.155799e-08	3.367151e+01	7.609899e+02
1.400000e-06	4.895898e-06	1.160247e-08	3.401450e+01	7.643338e+02
1.410000e-06	4.943451e-06	1.164511e-08	3.434487e+01	7.672222e+02
1.420000e-06	4.989364e-06	1.168634e-08	3.466385e+01	7.696679e+02
1.430000e-06	5.033618e-06	1.172559e-08	3.497131e+01	7.717221e+02
1.440000e-06	5.075974e-06	1.176119e-08	3.526558e+01	7.734671e+02
1.450000e-06	5.116443e-06	1.179448e-08	3.554675e+01	7.750039e+02
1.460000e-06	5.155188e-06	1.182592e-08	3.581592e+01	7.764384e+02
1.470000e-06	5.192312e-06	1.185590e-08	3.607385e+01	7.778671e+02
1.480000e-06	5.227699e-06	1.188533e-08	3.631970e+01	7.793646e+02
1.490000e-06	5.261072e-06	1.191360e-08	3.655156e+01	7.809748e+02
1.500000e-06	5.292591e-06	1.193852e-08	3.677054e+01	7.827057e+02
1.510000e-06	5.322439e-06	1.195881e-08	3.697791e+01	7.845302e+02
1.520000e-06	5.350479e-06	1.197669e-08	3.717272e+01	7.863917e+02
1.530000e-06	5.376439e-06	1.199309e-08	3.735308e+01	7.882126e+02
1.540000e-06	5.400309e-06	1.200842e-08	3.751892e+01	7.899066e+02
1.550000e-06	5.422356e-06	1.202337e-08	3.767209e+01	7.913910e+02
1.560000e-06	5.442683e-06	1.203864e-08	3.781332e+01	7.925991e+02
1.570000e-06	5.461148e-06	1.205371e-08	3.794160e+01	7.934891e+02
1.580000e-06	5.477571e-06	1.206727e-08	3.805570e+01	7.940500e+02
1.590000e-06	5.491936e-06	1.207843e-08	3.815550e+01	7.943028e+02
1.600000e-06	5.504264e-06	1.208620e-08	3.824115e+01	7.942973e+02
1.610000e-06	5.514416e-06	1.208943e-08	3.831168e+01	7.941049e+02
1.620000e-06	5.522486e-06	1.208950e-08	3.836775e+01	7.938087e+02
1.630000e-06	5.528706e-06	1.208988e-08	3.841096e+01	7.934919e+02
1.640000e-06	5.533082e-06	1.209183e-08	3.844136e+01	7.932262e+02
1.650000e-06	5.535424e-06	1.209620e-08	3.845764e+01	7.930626e+02
1.660000e-06	5.535764e-06	1.210304e-08	3.846000e+01	7.930248e+02
1.670000e-06	5.534350e-06	1.210412e-08	3.845018e+01	7.931063e+02
1.680000e-06	5.531263e-06	1.209673e-08	3.842872e+01	7.932720e+02
1.690000e-06	5.526320e-06	1.208956e-08	3.839438e+01	7.934641e+02
1.700000e-06	5.519396e-06	1.208105e-08	3.834628e+01	7.936099e+02
1.710000e-06	5.510757e-06	1.207100e-08	3.828626e+01	7.936334e+02
1.720000e-06	5.500485e-06	1.206153e-08	3.821489e+01	7.934653e+02
1.730000e-06	5.488251e-06	1.205707e-08	3.812990e+01	7.930532e+02
1.740000e-06	5.473938e-06	1.206346e-08	3.803046e+01	7.923688e+02
1.750000e-06	5.457569e-06	1.200278e-08	3.791673e+01	7.914118e+02
1.760000e-06	5.438708e-06	1.196637e-08	3.778570e+01	7.902097e+02
1.770000e-06	5.417103e-06	1.197641e-08	3.763560e+01	7.888134e+02
1.780000e-06	5.393427e-06	1.197547e-08	3.747110e+01	7.872902e+02
1.790000e-06	5.368637e-06	1.205139e-08	3.729888e+01	7.857135e+02
1.800000e-06	5.342957e-06	1.196873e-08	3.712046e+01	7.841526e+02
1.810000e-06	5.315489e-06	1.187128e-08	3.692963e+01	7.826620e+02
1.820000e-06	5.285691e-06	1.197428e-08	3.672260e+01	7.812740e+02
1.830000e-06	5.254285e-06	1.188328e-08	3.650441e+01	7.799935e+02
1.840000e-06	5.221234e-06	1.184035e-08	3.627479e+01	7.787965e+02
1.850000e-06	5.186214e-06	1.192401e-08	3.603148e+01	7.776338e+02
1.860000e-06	5.149436e-06	1.179034e-08	3.577597e+01	7.764369e+02
1.870000e-06	5.110611e-06	1.181703e-08	3.550623e+01	7.751279e+02
1.880000e-06	5.069991e-06	1.186023e-08	3.522402e+01	7.736296e+02
1.890000e-06	5.027880e-06	1.170024e-08	3.493145e+01	7.718766e+02
1.900000e-06	4.983884e-06	1.170213e-08	3.462579e+01	7.698242e+02
1.910000e-06	4.938028e-06	1.165280e-08	3.430720e+01	7.674548e+02
1.920000e-06	4.890306e-06	1.163045e-08	3.397565e+01	7.647805e+02
1.930000e-06	4.840788e-06	1.166484e-08	3.363162e+01	7.618416e+02
1.940000e-06	4.789556e-06	1.153921e-08	3.327568e+01	7.587006e+02
1.950000e-06	4.736182e-06	1.154337e-08	3.290486e+01	7.554344e+02
1.960000e-06	4.680923e-06	1.149644e-08	3.252095e+01	7.521227e+02
1.970000e-06	4.624043e-06	1.143520e-08	3.212577e+01	7.488373e+02
1.980000e-06	4.565512e-06	1.140140e-08	3.171912e+01	7.456313e+02
1.990000e-06	4.505425e-06	1.130146e-08	3.130167e+01	7.425316e+02
2.000000e-06	4.443587e-06	1.133310e-08	3.087205e+01	7.395345e+02
2.010000e-06	4.380126e-06	1.125654e-08	3.043115e+01	7.366056e+02
2.020000e-06	4.315156e-06	1.119484e-08	2.997976e+01	7.336841e+02
2.030000e-06	4.248716e-06	1.115315e-08	2.951817e+01	7.306904e+02
2.040000e-06	4.180816e-06	1.105537e-08	2.904643e+01	7.275372e+02
2.050000e-06	4.111157e-06	1.105473e-08	2.856247e+01	7.241409e+02
2.060000e-06	4.039983e-06	1.095919e-08	2.806799e+01	7.204334e+02
2.070000e-06	3.967498e-06	1.090876e-08	2.756439e+01	7.163714e+02
2.080000e-06	3.893578e-06	1.084730e-08	2.705083e+01	7.119426e+02
2.090000e-06	3.818069e-06	1.076948e-08	2.652623e+01	7.071675e+02
2.100000e-06	3.740806e-06	1.072684e-08	2.598943e+01	7.020965e+02
2.110000e-06	3.662088e-06	1.062050e-08	2.544254e+01	6.968033e+02
2.120000e-06	3.582168e-06	1.057197e-08	2.488729e+01	6.913738e+02
2.130000e-06	3.501096e-06	1.048585e-08	2.432404e+01	6.858943e+02
2.140000e-06	3.418882e-06	1.042240e-08	2.375285e+01	6.804383e+02
2.150000e-06	3.335488e-06	1.034460e-08	2.317347e+01	6.750554e+02
2.160000e-06	3.250762e-06	1.023639e-08	2.258483e+01	6.697628e+02
2.170000e-06	3.164674e-06	1.016252e-08	2.198673e+01	6.645421e+02
2.180000e-06	3.077520e-06	1.006497e-08	2.138123e+01	6.593397e+02
2.190000e-06	2.989417e-06	9.993478e-09	2.076913e+01	6.540732e+02
2.200000e-06	2.900303e-06	9.892618e-09	2.015000e+01	6.486416e+02
2.210000e-06	2.810218e-06	9.798156e-09	1.952413e+01	6.429387e+02
2.220000e-06	2.719242e-06	9.704598e-09	1.889207e+01	6.368670e+02
2.230000e-06	2.627325e-06	9.598335e-09	1.825347e+01	6.303517e+02
2.240000e-06	2.534354e-06	9.493764e-09	1.760755e+01	6.233508e+02
2.250000e-06	2.440336e-06	9.374503e-09	1.695436e+01	6.158619e+02
2.260000e-06	2.345422e-06	9.275821e-09	1.629494e+01	6.079226e+02
2.270000e-06	2.249687e-06	9.167807e-09	1.562981e+01	5.996060e+02
2.280000e-06	2.153201e-06	9.054154e-09	1.495947e+01	5.910100e+02
2.290000e-06	2.056079e-06	8.928577e-09	1.428471e+01	5.822429e+02
2.300000e-06	1.958279e-06	8.797026e-09	1.360524e+01	5.734070e+02
2.310000e-06	1.859871e-06	8.667327e-09	1.292155e+01	5.645818e+02
2.320000e-06	1.760928e-06	8.531964e-09	1.223414e+01	5.558095e+02
2.330000e-06	1.661397e-06	8.396031e-09	1.154264e+01	5.470849e+02
2.340000e-06	1.561273e-06	8.254512e-09	1.084702e+01	5.383519e+02
2.350000e-06	1.460533e-06	8.110795e-09	1.014712e+01	5.295066e+02
2.360000e-06	1.359127e-06	7.957873e-09	9.442604e+00	5.204066e+02
2.370000e-06	1.257115e-06	7.796219e-09	8.733872e+00	5.108876e+02
2.380000e-06	1.154606e-06	7.626394e-09	8.021686e+00	5.007830e+02
2.390000e-06	1.051655e-06	7.456472e-09	7.306426e+00	4.899452e+02
2.400000e-06	9.483390e-07	7.284288e-09	6.588633e+00	4.782654e+02
2.410000e-06	8.447031e-07	7.102489e-09	5.868617e+00	4.656895e+02
2.420000e-06	7.407897e-07	6.911269e-09	5.146674e+00	4.522268e+02
2.430000e-06	6.366306e-07	6.710333e-09	4.423023e+00	4.379498e+02
2.440000e-06	5.322973e-07	6.501621e-09	3.698162e+00	4.229853e+02
2.450000e-06	4.277977e-07	6.284172e-09	2.972146e+00	4.074959e+02
2.460000e-06	3.231278e-07	6.057015e-09	2.244946e+00	3.916538e+02
2.470000e-06	2.183431e-07	5.820839e-09	1.516950e+00	3.756111e+02
2.480000e-06	1.134847e-07	5.577391e-09	7.884405e-01	3.594674e+02
2.490000e-06	8.620449e-09	5.320482e-09	5.989100e-02	3.432407e+02
2.500000e-06	-9.625369e-08	5.049316e-09	-6.687273e-01	3.268454e+02
2.510000e-06	-2.011010e-07	4.766250e-09	-1.397159e+00	3.100795e+02
2.520000e-06	-3.058524e-07	4.471422e-09	-2.124925e+00	2.926246e+02
2.530000e-06	-4.104812e-07	4.162144e-09	-2.851839e+00	2.740600e+02
2.540000e-06	-5.149261e-07	3.829929e-09	-3.577475e+00	2.538897e+02
2.550000e-06	-6.191864e-07	3.472970e-09	-4.301828e+00	2.315818e+02
2.560000e-06	-7.232663e-07	3.094388e-09	-5.024929e+00	2.066160e+02
2.570000e-06	-8.270749e-07	2.691748e-09	-5.746144e+00	1.785350e+02
2.580000e-06	-9.305982e-07	2.254132e-09	-6.465378e+00	1.469960e+02
2.590000e-06	-1.033800e-06	1.772040e-09	-7.182376e+00	1.118148e+02
2.600000e-06	-1.136616e-06	1.237958e-09	-7.896700e+00	7.300057e+01
2.610000e-06	-1.238986e-06	6.407909e-10	-8.607918e+00	3.077424e+01
2.620000e-06	-1.340712e-06	-2.927030e-11	-9.314661e+00	-1.442910e+01
2.630000e-06	-1.441797e-06	-7.734574e-10	-1.001695e+01	-6.197676e+01
2.640000e-06	-1.542317e-06	-1.574649e-09	-1.071532e+01	-1.110721e+02
2.650000e-06	-1.642257e-06	-2.404884e-09	-1.140966e+01	-1.608028e+02
2.660000e-06	-1.741655e-06	-3.230334e-09	-1.210023e+01	-2.101997e+02
2.670000e-06	-1.840428e-06	-4.015551e-09	-1.278647e+01	-2.583007e+02
2.680000e-06	-1.938532e-06	-4.735963e-09	-1.346805e+01	-3.042147e+02
2.690000e-06	-2.036037e-06	-5.378673e-09	-1.414547e+01	-3.471790e+02
2.700000e-06	-2.132826e-06	-5.942961e-09	-1.481791e+01	-3.866052e+02
2.710000e-06	-2.228857e-06	-6.437791e-09	-1.548510e+01	-4.221109e+02
2.720000e-06	-2.324319e-06	-6.874777e-09	-1.614832e+01	-4.535321e+02
2.730000e-06	-2.419186e-06	-7.261348e-09	-1.680742e+01	-4.809195e+02
2.740000e-06	-2.513177e-06	-7.604380e-09	-1.746042e+01	-5.045154e+02
2.750000e-06	-2.605995e-06	-7.912329e-09	-1.810528e+01	-5.247182e+02
2.760000e-06	-2.697696e-06	-8.193281e-09	-1.874238e+01	-5.420352e+02
2.770000e-06	-2.788427e-06	-8.449136e-09	-1.937274e+01	-5.570307e+02
2.780000e-06	-2.878166e-06	-8.680498e-09	-1.999620e+01	-5.702740e+02
2.790000e-06	-2.966837e-06	-8.893272e-09	-2.061225e+01	-5.822919e+02
2.800000e-06	-3.054498e-06	-9.091473e-09	-2.122128e+01	-5.935305e+02
2.810000e-06	-3.141260e-06	-9.275945e-09	-2.182406e+01	-6.043292e+02
2.820000e-06	-3.226870e-06	-9.447200e-09	-2.241884e+01	-6.149079e+02
2.830000e-06	-3.311130e-06	-9.607118e-09	-2.300424e+01	-6.253689e+02
2.840000e-06	-3.394188e-06	-9.758039e-09	-2.358129e+01	-6.357099e+02
2.850000e-06	-3.476148e-06	-9.899316e-09	-2.415071e+01	-6.458479e+02
2.860000e-06	-3.556949e-06	-1.003055e-08	-2.471208e+01	-6.556486e+02
2.870000e-06	-3.636640e-06	-1.015249e-08	-2.526574e+01	-6.649580e+02
2.880000e-06	-3.715024e-06	-1.026652e-08	-2.581031e+01	-6.736328e+02
2.890000e-06	-3.791750e-06	-1.037462e-08	-2.634337e+01	-6.815651e+02
2.900000e-06	-3.866926e-06	-1.047748e-08	-2.686566e+01	-6.887003e+02
2.910000e-06	-3.940691e-06	-1.057467e-08	-2.737815e+01	-6.950444e+02
2.920000e-06	-4.013059e-06	-1.066804e-08	-2.788093e+01	-7.006640e+02
2.930000e-06	-4.084134e-06	-1.075857e-08	-2.837473e+01	-7.056760e+02
2.940000e-06	-4.153716e-06	-1.084508e-08	-2.885815e+01	-7.102316e+02
