# Temperatura_=_38.73
# Concentracion g/m^3_=_15500.0
# C_Vs_to_Am_M_A/Vsm_=_65563218390.804596
# pendiente_HvsI_1/m_=_3716.3
# ordenada_HvsI_A/m_=_1297.0
# frecuencia_Hz_=_300803.02352936857

Tiempo_(s)	Campo_(V.s)	Magnetizacion_(V.s)	Campo_(kA/m)	Magnetizacion_(A/m)
0.000000e+00	-5.509409e-06	-1.220038e-08	-3.830838e+01	-7.973732e+02
1.000000e-08	-5.507665e-06	-1.220568e-08	-3.829626e+01	-7.974729e+02
2.000000e-08	-5.503898e-06	-1.220181e-08	-3.827006e+01	-7.976294e+02
3.000000e-08	-5.498357e-06	-1.219267e-08	-3.823154e+01	-7.977768e+02
4.000000e-08	-5.491261e-06	-1.218223e-08	-3.818220e+01	-7.978392e+02
5.000000e-08	-5.482554e-06	-1.216725e-08	-3.812165e+01	-7.977424e+02
6.000000e-08	-5.471832e-06	-1.214947e-08	-3.804710e+01	-7.974240e+02
7.000000e-08	-5.458973e-06	-1.212208e-08	-3.795768e+01	-7.968432e+02
8.000000e-08	-5.444158e-06	-1.210175e-08	-3.785467e+01	-7.959861e+02
9.000000e-08	-5.427030e-06	-1.217488e-08	-3.773558e+01	-7.948678e+02
1.000000e-07	-5.407481e-06	-1.220002e-08	-3.759965e+01	-7.935306e+02
1.100000e-07	-5.385912e-06	-1.213675e-08	-3.744967e+01	-7.920374e+02
1.200000e-07	-5.362583e-06	-1.211468e-08	-3.728746e+01	-7.904628e+02
1.300000e-07	-5.337885e-06	-1.198295e-08	-3.711573e+01	-7.888823e+02
1.400000e-07	-5.311700e-06	-1.195071e-08	-3.693365e+01	-7.873613e+02
1.500000e-07	-5.283589e-06	-1.212082e-08	-3.673820e+01	-7.859453e+02
1.600000e-07	-5.253753e-06	-1.193699e-08	-3.653074e+01	-7.846530e+02
1.700000e-07	-5.222390e-06	-1.192230e-08	-3.631266e+01	-7.834730e+02
1.800000e-07	-5.189083e-06	-1.208559e-08	-3.608107e+01	-7.823648e+02
1.900000e-07	-5.153699e-06	-1.188380e-08	-3.583504e+01	-7.812638e+02
2.000000e-07	-5.116744e-06	-1.191565e-08	-3.557808e+01	-7.800895e+02
2.100000e-07	-5.078111e-06	-1.192528e-08	-3.530945e+01	-7.787567e+02
2.200000e-07	-5.037634e-06	-1.174631e-08	-3.502800e+01	-7.771867e+02
2.300000e-07	-4.995194e-06	-1.181807e-08	-3.473291e+01	-7.753182e+02
2.400000e-07	-4.950769e-06	-1.181543e-08	-3.442401e+01	-7.731156e+02
2.500000e-07	-4.904645e-06	-1.174679e-08	-3.410330e+01	-7.705742e+02
2.600000e-07	-4.856698e-06	-1.173190e-08	-3.376991e+01	-7.677207e+02
2.700000e-07	-4.806688e-06	-1.160142e-08	-3.342217e+01	-7.646101e+02
2.800000e-07	-4.754595e-06	-1.160199e-08	-3.305996e+01	-7.613176e+02
2.900000e-07	-4.700583e-06	-1.159662e-08	-3.268440e+01	-7.579290e+02
3.000000e-07	-4.644914e-06	-1.152604e-08	-3.229732e+01	-7.545280e+02
3.100000e-07	-4.587646e-06	-1.147627e-08	-3.189912e+01	-7.511850e+02
3.200000e-07	-4.528535e-06	-1.144563e-08	-3.148810e+01	-7.479470e+02
3.300000e-07	-4.467767e-06	-1.142869e-08	-3.106557e+01	-7.448306e+02
3.400000e-07	-4.405546e-06	-1.131880e-08	-3.063293e+01	-7.418193e+02
3.500000e-07	-4.341792e-06	-1.126535e-08	-3.018963e+01	-7.388652e+02
3.600000e-07	-4.276530e-06	-1.120939e-08	-2.973585e+01	-7.358955e+02
3.700000e-07	-4.209647e-06	-1.115569e-08	-2.927079e+01	-7.328215e+02
3.800000e-07	-4.141087e-06	-1.115331e-08	-2.879408e+01	-7.295512e+02
3.900000e-07	-4.071004e-06	-1.106091e-08	-2.830677e+01	-7.260017e+02
4.000000e-07	-3.999636e-06	-1.098112e-08	-2.781053e+01	-7.221103e+02
4.100000e-07	-3.927031e-06	-1.092418e-08	-2.730569e+01	-7.178435e+02
4.200000e-07	-3.852915e-06	-1.085849e-08	-2.679034e+01	-7.132019e+02
4.300000e-07	-3.777059e-06	-1.078751e-08	-2.626289e+01	-7.082196e+02
4.400000e-07	-3.699598e-06	-1.070053e-08	-2.572429e+01	-7.029603e+02
4.500000e-07	-3.620719e-06	-1.064805e-08	-2.517582e+01	-6.975075e+02
4.600000e-07	-3.540345e-06	-1.058584e-08	-2.461696e+01	-6.919531e+02
4.700000e-07	-3.458587e-06	-1.050696e-08	-2.404848e+01	-6.863839e+02
4.800000e-07	-3.375624e-06	-1.040477e-08	-2.347161e+01	-6.808684e+02
4.900000e-07	-3.291530e-06	-1.030409e-08	-2.288688e+01	-6.754464e+02
5.000000e-07	-3.206458e-06	-1.023771e-08	-2.229536e+01	-6.701218e+02
5.100000e-07	-3.120457e-06	-1.015754e-08	-2.169737e+01	-6.648610e+02
5.200000e-07	-3.033472e-06	-1.006694e-08	-2.109253e+01	-6.595958e+02
5.300000e-07	-2.945464e-06	-9.963432e-09	-2.048059e+01	-6.542318e+02
5.400000e-07	-2.856516e-06	-9.866002e-09	-1.986211e+01	-6.486603e+02
5.500000e-07	-2.766551e-06	-9.774658e-09	-1.923656e+01	-6.427731e+02
5.600000e-07	-2.675343e-06	-9.666065e-09	-1.860237e+01	-6.364771e+02
5.700000e-07	-2.582999e-06	-9.553959e-09	-1.796027e+01	-6.297072e+02
5.800000e-07	-2.489796e-06	-9.444113e-09	-1.731221e+01	-6.224361e+02
5.900000e-07	-2.395870e-06	-9.347040e-09	-1.665912e+01	-6.146786e+02
6.000000e-07	-2.301201e-06	-9.235595e-09	-1.600086e+01	-6.064898e+02
6.100000e-07	-2.205798e-06	-9.107166e-09	-1.533750e+01	-5.979576e+02
6.200000e-07	-2.109640e-06	-8.979409e-09	-1.466888e+01	-5.891902e+02
6.300000e-07	-2.012669e-06	-8.857631e-09	-1.399462e+01	-5.803000e+02
6.400000e-07	-1.914868e-06	-8.736119e-09	-1.331458e+01	-5.713857e+02
6.500000e-07	-1.816194e-06	-8.595889e-09	-1.262848e+01	-5.625159e+02
6.600000e-07	-1.716756e-06	-8.451623e-09	-1.193706e+01	-5.537158e+02
6.700000e-07	-1.616705e-06	-8.310602e-09	-1.124138e+01	-5.449589e+02
6.800000e-07	-1.516097e-06	-8.169416e-09	-1.054183e+01	-5.361665e+02
6.900000e-07	-1.414958e-06	-8.014608e-09	-9.838577e+00	-5.272134e+02
7.000000e-07	-1.313364e-06	-7.849560e-09	-9.132165e+00	-5.179411e+02
7.100000e-07	-1.211365e-06	-7.685913e-09	-8.422939e+00	-5.081764e+02
7.200000e-07	-1.108969e-06	-7.521848e-09	-7.710953e+00	-4.977527e+02
7.300000e-07	-1.006202e-06	-7.349421e-09	-6.996386e+00	-4.865322e+02
7.400000e-07	-9.030479e-07	-7.161981e-09	-6.279131e+00	-4.744249e+02
7.500000e-07	-7.995663e-07	-6.969353e-09	-5.559596e+00	-4.614020e+02
7.600000e-07	-6.958223e-07	-6.773665e-09	-4.838237e+00	-4.475019e+02
7.700000e-07	-5.918762e-07	-6.570705e-09	-4.115472e+00	-4.328256e+02
7.800000e-07	-4.877865e-07	-6.353334e-09	-3.391709e+00	-4.175237e+02
7.900000e-07	-3.835280e-07	-6.127869e-09	-2.666772e+00	-4.017731e+02
8.000000e-07	-2.791435e-07	-5.903045e-09	-1.940959e+00	-3.857488e+02
8.100000e-07	-1.746634e-07	-5.671897e-09	-1.214481e+00	-3.695904e+02
8.200000e-07	-7.006882e-08	-5.423736e-09	-4.872071e-01	-3.533703e+02
8.300000e-07	3.458271e-08	-5.154867e-09	2.404628e-01	-3.370656e+02
8.400000e-07	1.391562e-07	-4.873193e-09	9.675900e-01	-3.205391e+02
8.500000e-07	2.436054e-07	-4.583751e-09	1.693853e+00	-3.035313e+02
8.600000e-07	3.480190e-07	-4.280778e-09	2.419868e+00	-2.856665e+02
8.700000e-07	4.523469e-07	-3.955591e-09	3.145288e+00	-2.664732e+02
8.800000e-07	5.565075e-07	-3.612329e-09	3.869544e+00	-2.454175e+02
8.900000e-07	6.604975e-07	-3.252079e-09	4.592614e+00	-2.219481e+02
9.000000e-07	7.642534e-07	-2.865941e-09	5.314056e+00	-1.955476e+02
9.100000e-07	8.677383e-07	-2.440883e-09	6.033615e+00	-1.657866e+02
9.200000e-07	9.709553e-07	-1.971590e-09	6.751310e+00	-1.323743e+02
9.300000e-07	1.073837e-06	-1.458361e-09	7.466672e+00	-9.520061e+01
9.400000e-07	1.176291e-06	-8.898772e-10	8.179065e+00	-5.436511e+01
9.500000e-07	1.278351e-06	-2.491688e-10	8.888710e+00	-1.018962e+01
9.600000e-07	1.380003e-06	4.743500e-10	9.595530e+00	3.678799e+01
9.700000e-07	1.481214e-06	1.268737e-09	1.029927e+01	8.583870e+01
9.800000e-07	1.581962e-06	2.106003e-09	1.099980e+01	1.360840e+02
9.900000e-07	1.682190e-06	2.950582e-09	1.169671e+01	1.865512e+02
1.000000e-06	1.781833e-06	3.767063e-09	1.238956e+01	2.362374e+02
1.010000e-06	1.880768e-06	4.523012e-09	1.307748e+01	2.841761e+02
1.020000e-06	1.978872e-06	5.200101e-09	1.375962e+01	3.295015e+02
1.030000e-06	2.076131e-06	5.798107e-09	1.443589e+01	3.715030e+02
1.040000e-06	2.172590e-06	6.323764e-09	1.510660e+01	4.096666e+02
1.050000e-06	2.268296e-06	6.786241e-09	1.577207e+01	4.436997e+02
1.060000e-06	2.363291e-06	7.191642e-09	1.643259e+01	4.735360e+02
1.070000e-06	2.457522e-06	7.551397e-09	1.708780e+01	4.993228e+02
1.080000e-06	2.550904e-06	7.872309e-09	1.773711e+01	5.213910e+02
1.090000e-06	2.643472e-06	8.160573e-09	1.838076e+01	5.402119e+02
1.100000e-06	2.735171e-06	8.421098e-09	1.901837e+01	5.563461e+02
1.110000e-06	2.825829e-06	8.657723e-09	1.964874e+01	5.703883e+02
1.120000e-06	2.915312e-06	8.876587e-09	2.027094e+01	5.829149e+02
1.130000e-06	3.003657e-06	9.081992e-09	2.088522e+01	5.944389e+02
1.140000e-06	3.090974e-06	9.274671e-09	2.149236e+01	6.053746e+02
1.150000e-06	3.177232e-06	9.452601e-09	2.209214e+01	6.160179e+02
1.160000e-06	3.262468e-06	9.616386e-09	2.268480e+01	6.265386e+02
1.170000e-06	3.346713e-06	9.765248e-09	2.327058e+01	6.369887e+02
1.180000e-06	3.429806e-06	9.904717e-09	2.384835e+01	6.473213e+02
1.190000e-06	3.511559e-06	1.004144e-08	2.441680e+01	6.574180e+02
1.200000e-06	3.592021e-06	1.017455e-08	2.497627e+01	6.671222e+02
1.210000e-06	3.671253e-06	1.029713e-08	2.552719e+01	6.762709e+02
1.220000e-06	3.749189e-06	1.040761e-08	2.606910e+01	6.847251e+02
1.230000e-06	3.825734e-06	1.051075e-08	2.660134e+01	6.923921e+02
1.240000e-06	3.900770e-06	1.061019e-08	2.712309e+01	6.992400e+02
1.250000e-06	3.974242e-06	1.070615e-08	2.763396e+01	7.053017e+02
1.260000e-06	4.046239e-06	1.079664e-08	2.813457e+01	7.106699e+02
1.270000e-06	4.116810e-06	1.088117e-08	2.862527e+01	7.154837e+02
1.280000e-06	4.186010e-06	1.096338e-08	2.910643e+01	7.199097e+02
1.290000e-06	4.253795e-06	1.104567e-08	2.957776e+01	7.241204e+02
1.300000e-06	4.319889e-06	1.112420e-08	3.003733e+01	7.282724e+02
1.310000e-06	4.384379e-06	1.119507e-08	3.048575e+01	7.324878e+02
1.320000e-06	4.447444e-06	1.126122e-08	3.092425e+01	7.368418e+02
1.330000e-06	4.509071e-06	1.132697e-08	3.135276e+01	7.413557e+02
1.340000e-06	4.569309e-06	1.139154e-08	3.177161e+01	7.459985e+02
1.350000e-06	4.627896e-06	1.145300e-08	3.217899e+01	7.506948e+02
1.360000e-06	4.684631e-06	1.151113e-08	3.257348e+01	7.553383e+02
1.370000e-06	4.739674e-06	1.156728e-08	3.295621e+01	7.598082e+02
1.380000e-06	4.793019e-06	1.162165e-08	3.332713e+01	7.639878e+02
1.390000e-06	4.844368e-06	1.167158e-08	3.368417e+01	7.677804e+02
1.400000e-06	4.893611e-06	1.171704e-08	3.402658e+01	7.711229e+02
1.410000e-06	4.941045e-06	1.175946e-08	3.435639e+01	7.739932e+02
1.420000e-06	4.986885e-06	1.179899e-08	3.467513e+01	7.764124e+02
1.430000e-06	5.031117e-06	1.183676e-08	3.498269e+01	7.784409e+02
1.440000e-06	5.073421e-06	1.187375e-08	3.527684e+01	7.801692e+02
1.450000e-06	5.113834e-06	1.191040e-08	3.555784e+01	7.817044e+02
1.460000e-06	5.152562e-06	1.194515e-08	3.582713e+01	7.831563e+02
1.470000e-06	5.189623e-06	1.197791e-08	3.608482e+01	7.846219e+02
1.480000e-06	5.224917e-06	1.200888e-08	3.633023e+01	7.861736e+02
1.490000e-06	5.258202e-06	1.203700e-08	3.656167e+01	7.878501e+02
1.500000e-06	5.289619e-06	1.205960e-08	3.678012e+01	7.896530e+02
1.510000e-06	5.319302e-06	1.207741e-08	3.698651e+01	7.915480e+02
1.520000e-06	5.347206e-06	1.209493e-08	3.718054e+01	7.934713e+02
1.530000e-06	5.373023e-06	1.211482e-08	3.736006e+01	7.953398e+02
1.540000e-06	5.396741e-06	1.213572e-08	3.752497e+01	7.970638e+02
1.550000e-06	5.418723e-06	1.215284e-08	3.767782e+01	7.985598e+02
1.560000e-06	5.438979e-06	1.216676e-08	3.781866e+01	7.997625e+02
1.570000e-06	5.457250e-06	1.218041e-08	3.794571e+01	8.006338e+02
1.580000e-06	5.473499e-06	1.219301e-08	3.805869e+01	8.011681e+02
1.590000e-06	5.487870e-06	1.220293e-08	3.815861e+01	8.013921e+02
1.600000e-06	5.500207e-06	1.220986e-08	3.824440e+01	8.013612e+02
1.610000e-06	5.510254e-06	1.221406e-08	3.831425e+01	8.011511e+02
1.620000e-06	5.518213e-06	1.221731e-08	3.836960e+01	8.008471e+02
1.630000e-06	5.524332e-06	1.222127e-08	3.841214e+01	8.005323e+02
1.640000e-06	5.528652e-06	1.222532e-08	3.844218e+01	8.002759e+02
1.650000e-06	5.530964e-06	1.222944e-08	3.845826e+01	8.001245e+02
1.660000e-06	5.531214e-06	1.223349e-08	3.846000e+01	8.000957e+02
1.670000e-06	5.529669e-06	1.222673e-08	3.844926e+01	8.001765e+02
1.680000e-06	5.526482e-06	1.221769e-08	3.842709e+01	8.003260e+02
1.690000e-06	5.521430e-06	1.221043e-08	3.839197e+01	8.004816e+02
1.700000e-06	5.514399e-06	1.220329e-08	3.834307e+01	8.005689e+02
1.710000e-06	5.505682e-06	1.219797e-08	3.828246e+01	8.005121e+02
1.720000e-06	5.495326e-06	1.219506e-08	3.821046e+01	8.002456e+02
1.730000e-06	5.483066e-06	1.221649e-08	3.812521e+01	7.997233e+02
1.740000e-06	5.468764e-06	1.219408e-08	3.802577e+01	7.989252e+02
1.750000e-06	5.452421e-06	1.207650e-08	3.791213e+01	7.978603e+02
1.760000e-06	5.433498e-06	1.207448e-08	3.778055e+01	7.965654e+02
1.770000e-06	5.411721e-06	1.208085e-08	3.762913e+01	7.950997e+02
1.780000e-06	5.387903e-06	1.214284e-08	3.746352e+01	7.935361e+02
1.790000e-06	5.363100e-06	1.222854e-08	3.729106e+01	7.919510e+02
1.800000e-06	5.337503e-06	1.197942e-08	3.711307e+01	7.904127e+02
1.810000e-06	5.309994e-06	1.205184e-08	3.692180e+01	7.889718e+02
1.820000e-06	5.280072e-06	1.215569e-08	3.671374e+01	7.876530e+02
1.830000e-06	5.248634e-06	1.186633e-08	3.649514e+01	7.864516e+02
1.840000e-06	5.215461e-06	1.201657e-08	3.626448e+01	7.853329e+02
1.850000e-06	5.180461e-06	1.203247e-08	3.602112e+01	7.842368e+02
1.860000e-06	5.143769e-06	1.180080e-08	3.576599e+01	7.830855e+02
1.870000e-06	5.104877e-06	1.201389e-08	3.549556e+01	7.817938e+02
1.880000e-06	5.064251e-06	1.191095e-08	3.521308e+01	7.802807e+02
1.890000e-06	5.022077e-06	1.177308e-08	3.491984e+01	7.784802e+02
1.900000e-06	4.977968e-06	1.184357e-08	3.461313e+01	7.763508e+02
1.910000e-06	4.932124e-06	1.165504e-08	3.429436e+01	7.738809e+02
1.920000e-06	4.884401e-06	1.179398e-08	3.396253e+01	7.710907e+02
1.930000e-06	4.834832e-06	1.176290e-08	3.361787e+01	7.680295e+02
1.940000e-06	4.783545e-06	1.157530e-08	3.326126e+01	7.647691e+02
1.950000e-06	4.730078e-06	1.166096e-08	3.288949e+01	7.613938e+02
1.960000e-06	4.674843e-06	1.154469e-08	3.250542e+01	7.579890e+02
1.970000e-06	4.617999e-06	1.152657e-08	3.211017e+01	7.546288e+02
1.980000e-06	4.559468e-06	1.143488e-08	3.170319e+01	7.513660e+02
1.990000e-06	4.499415e-06	1.138707e-08	3.128562e+01	7.482239e+02
2.000000e-06	4.437585e-06	1.144419e-08	3.085570e+01	7.451932e+02
2.010000e-06	4.374154e-06	1.129811e-08	3.041465e+01	7.422324e+02
2.020000e-06	4.309168e-06	1.132064e-08	2.996279e+01	7.392732e+02
2.030000e-06	4.242739e-06	1.118286e-08	2.950089e+01	7.362295e+02
2.040000e-06	4.174845e-06	1.111369e-08	2.902880e+01	7.330089e+02
2.050000e-06	4.105085e-06	1.112471e-08	2.854374e+01	7.295254e+02
2.060000e-06	4.033775e-06	1.098790e-08	2.804791e+01	7.257113e+02
2.070000e-06	3.961174e-06	1.099841e-08	2.754309e+01	7.215263e+02
2.080000e-06	3.887232e-06	1.088799e-08	2.702896e+01	7.169633e+02
2.090000e-06	3.811786e-06	1.086633e-08	2.650436e+01	7.120497e+02
2.100000e-06	3.734606e-06	1.079490e-08	2.596771e+01	7.068433e+02
2.110000e-06	3.655905e-06	1.067008e-08	2.542048e+01	7.014244e+02
2.120000e-06	3.575969e-06	1.062461e-08	2.486466e+01	6.958843e+02
2.130000e-06	3.494901e-06	1.051588e-08	2.430098e+01	6.903118e+02
2.140000e-06	3.412652e-06	1.049830e-08	2.372907e+01	6.847804e+02
2.150000e-06	3.329311e-06	1.038594e-08	2.314958e+01	6.793368e+02
2.160000e-06	3.244750e-06	1.030202e-08	2.256161e+01	6.739931e+02
2.170000e-06	3.158777e-06	1.021432e-08	2.196381e+01	6.687234e+02
2.180000e-06	3.071649e-06	1.011232e-08	2.135799e+01	6.634665e+02
2.190000e-06	2.983574e-06	1.004733e-08	2.074558e+01	6.581326e+02
2.200000e-06	2.894531e-06	9.925607e-09	2.012644e+01	6.526151e+02
2.210000e-06	2.804494e-06	9.847488e-09	1.950039e+01	6.468042e+02
2.220000e-06	2.713533e-06	9.742698e-09	1.886791e+01	6.406025e+02
2.230000e-06	2.621658e-06	9.648037e-09	1.822908e+01	6.339379e+02
2.240000e-06	2.528751e-06	9.528840e-09	1.758308e+01	6.267746e+02
2.250000e-06	2.434761e-06	9.406590e-09	1.692954e+01	6.191181e+02
2.260000e-06	2.339854e-06	9.312332e-09	1.626963e+01	6.110154e+02
2.270000e-06	2.244202e-06	9.203614e-09	1.560453e+01	6.025482e+02
2.280000e-06	2.147806e-06	9.093861e-09	1.493426e+01	5.938217e+02
2.290000e-06	2.050681e-06	8.956836e-09	1.425893e+01	5.849489e+02
2.300000e-06	1.952896e-06	8.828070e-09	1.357900e+01	5.760329e+02
2.310000e-06	1.854485e-06	8.699503e-09	1.289473e+01	5.671500e+02
2.320000e-06	1.755495e-06	8.563822e-09	1.220642e+01	5.583354e+02
2.330000e-06	1.656003e-06	8.415987e-09	1.151463e+01	5.495743e+02
2.340000e-06	1.556058e-06	8.268374e-09	1.081968e+01	5.407987e+02
2.350000e-06	1.455546e-06	8.127421e-09	1.012080e+01	5.318926e+02
2.360000e-06	1.354329e-06	7.976237e-09	9.417012e+00	5.227032e+02
2.370000e-06	1.252471e-06	7.811659e-09	8.708763e+00	5.130587e+02
2.380000e-06	1.150065e-06	7.638546e-09	7.996706e+00	5.027893e+02
2.390000e-06	1.047250e-06	7.469976e-09	7.281807e+00	4.917491e+02
2.400000e-06	9.440383e-07	7.295972e-09	6.564148e+00	4.798366e+02
2.410000e-06	8.403820e-07	7.111151e-09	5.843399e+00	4.670091e+02
2.420000e-06	7.364641e-07	6.914425e-09	5.120830e+00	4.532905e+02
2.430000e-06	6.323652e-07	6.710781e-09	4.397003e+00	4.387694e+02
2.440000e-06	5.281155e-07	6.500333e-09	3.672127e+00	4.235873e+02
2.450000e-06	4.237321e-07	6.281050e-09	2.946321e+00	4.079177e+02
2.460000e-06	3.192051e-07	6.051001e-09	2.219517e+00	3.919387e+02
2.470000e-06	2.145493e-07	5.813362e-09	1.491818e+00	3.758003e+02
2.480000e-06	1.097820e-07	5.570081e-09	7.633430e-01	3.595918e+02
2.490000e-06	4.951066e-09	5.313454e-09	3.442608e-02	3.433128e+02
2.500000e-06	-9.985356e-08	5.039735e-09	-6.943083e-01	3.268516e+02
2.510000e-06	-2.045661e-07	4.748827e-09	-1.422402e+00	3.099749e+02
2.520000e-06	-3.091881e-07	4.444985e-09	-2.149867e+00	2.923308e+02
2.530000e-06	-4.136839e-07	4.126622e-09	-2.876454e+00	2.734657e+02
2.540000e-06	-5.180372e-07	3.788094e-09	-3.602050e+00	2.528558e+02
2.550000e-06	-6.222376e-07	3.428306e-09	-4.326583e+00	2.299492e+02
2.560000e-06	-7.261982e-07	3.047543e-09	-5.049449e+00	2.042169e+02
2.570000e-06	-8.298724e-07	2.639764e-09	-5.770323e+00	1.752060e+02
2.580000e-06	-9.332648e-07	2.194200e-09	-6.489238e+00	1.425923e+02
2.590000e-06	-1.036352e-06	1.696733e-09	-7.206032e+00	1.062238e+02
2.600000e-06	-1.139022e-06	1.139733e-09	-7.919922e+00	6.615357e+01
2.610000e-06	-1.241191e-06	5.161521e-10	-8.630331e+00	2.265575e+01
2.620000e-06	-1.342801e-06	-1.795098e-10	-9.336853e+00	-2.377669e+01
2.630000e-06	-1.443825e-06	-9.461318e-10	-1.003930e+01	-7.245267e+01
2.640000e-06	-1.544298e-06	-1.769482e-09	-1.073791e+01	-1.225215e+02
2.650000e-06	-1.644219e-06	-2.616720e-09	-1.143269e+01	-1.730254e+02
2.660000e-06	-1.743524e-06	-3.449808e-09	-1.212319e+01	-2.229624e+02
2.670000e-06	-1.842133e-06	-4.232508e-09	-1.280884e+01	-2.713528e+02
2.680000e-06	-1.940137e-06	-4.946392e-09	-1.349028e+01	-3.173039e+02
2.690000e-06	-2.037545e-06	-5.583699e-09	-1.416759e+01	-3.600680e+02
2.700000e-06	-2.134225e-06	-6.141336e-09	-1.483983e+01	-3.990863e+02
2.710000e-06	-2.230257e-06	-6.625823e-09	-1.550757e+01	-4.340176e+02
2.720000e-06	-2.325727e-06	-7.048982e-09	-1.617140e+01	-4.647476e+02
2.730000e-06	-2.420493e-06	-7.421231e-09	-1.683033e+01	-4.913799e+02
2.740000e-06	-2.514315e-06	-7.751046e-09	-1.748270e+01	-5.142091e+02
2.750000e-06	-2.607022e-06	-8.049532e-09	-1.812731e+01	-5.336808e+02
2.760000e-06	-2.698664e-06	-8.323594e-09	-1.876453e+01	-5.503409e+02
2.770000e-06	-2.789297e-06	-8.576252e-09	-1.939472e+01	-5.647813e+02
2.780000e-06	-2.878872e-06	-8.808878e-09	-2.001756e+01	-5.775867e+02
2.790000e-06	-2.967435e-06	-9.022146e-09	-2.063336e+01	-5.892867e+02
2.800000e-06	-3.055034e-06	-9.217047e-09	-2.124246e+01	-6.003192e+02
2.810000e-06	-3.141614e-06	-9.394284e-09	-2.184447e+01	-6.110065e+02
2.820000e-06	-3.227070e-06	-9.556250e-09	-2.243867e+01	-6.215452e+02
2.830000e-06	-3.311277e-06	-9.709876e-09	-2.302419e+01	-6.320113e+02
2.840000e-06	-3.394224e-06	-9.860159e-09	-2.360094e+01	-6.423769e+02
2.850000e-06	-3.476027e-06	-1.000312e-08	-2.416974e+01	-6.525365e+02
2.860000e-06	-3.556709e-06	-1.013567e-08	-2.473074e+01	-6.623386e+02
2.870000e-06	-3.636241e-06	-1.025750e-08	-2.528375e+01	-6.716192e+02
2.880000e-06	-3.714456e-06	-1.037163e-08	-2.582759e+01	-6.802317e+02
2.890000e-06	-3.791095e-06	-1.047816e-08	-2.636049e+01	-6.880722e+02
2.900000e-06	-3.866180e-06	-1.057609e-08	-2.688257e+01	-6.950949e+02
2.910000e-06	-3.939814e-06	-1.066872e-08	-2.739457e+01	-7.013191e+02
2.920000e-06	-4.012082e-06	-1.076199e-08	-2.789707e+01	-7.068253e+02
2.930000e-06	-4.083028e-06	-1.085558e-08	-2.839038e+01	-7.117444e+02
2.940000e-06	-4.152466e-06	-1.094446e-08	-2.887320e+01	-7.162388e+02
