# Temperatura_=_24.96
# Concentracion g/m^3_=_15500.0
# C_Vs_to_Am_M_A/Vsm_=_65563218390.804596
# pendiente_HvsI_1/m_=_3716.3
# ordenada_HvsI_A/m_=_1297.0
# frecuencia_Hz_=_300810.8228161719

Tiempo_(s)	Campo_(V.s)	Magnetizacion_(V.s)	Campo_(kA/m)	Magnetizacion_(A/m)
0.000000e+00	-5.522768e-06	-1.201236e-08	-3.830926e+01	-7.851721e+02
1.000000e-08	-5.521198e-06	-1.201818e-08	-3.829837e+01	-7.851272e+02
2.000000e-08	-5.517640e-06	-1.201543e-08	-3.827369e+01	-7.851618e+02
3.000000e-08	-5.512262e-06	-1.200391e-08	-3.823638e+01	-7.852291e+02
4.000000e-08	-5.505199e-06	-1.198702e-08	-3.818739e+01	-7.852668e+02
5.000000e-08	-5.496528e-06	-1.196937e-08	-3.812724e+01	-7.852058e+02
6.000000e-08	-5.485972e-06	-1.195569e-08	-3.805402e+01	-7.849807e+02
7.000000e-08	-5.473294e-06	-1.193934e-08	-3.796608e+01	-7.845389e+02
8.000000e-08	-5.458552e-06	-1.192658e-08	-3.786382e+01	-7.838480e+02
9.000000e-08	-5.441470e-06	-1.197612e-08	-3.774533e+01	-7.829004e+02
1.000000e-07	-5.422061e-06	-1.199588e-08	-3.761070e+01	-7.817144e+02
1.100000e-07	-5.400649e-06	-1.194303e-08	-3.746217e+01	-7.803311e+02
1.200000e-07	-5.377419e-06	-1.191170e-08	-3.730103e+01	-7.788084e+02
1.300000e-07	-5.352741e-06	-1.181282e-08	-3.712985e+01	-7.772128e+02
1.400000e-07	-5.326604e-06	-1.176571e-08	-3.694855e+01	-7.756096e+02
1.500000e-07	-5.298612e-06	-1.188975e-08	-3.675438e+01	-7.740534e+02
1.600000e-07	-5.268881e-06	-1.177960e-08	-3.654814e+01	-7.725800e+02
1.700000e-07	-5.237577e-06	-1.174222e-08	-3.633100e+01	-7.712010e+02
1.800000e-07	-5.204278e-06	-1.186215e-08	-3.610002e+01	-7.699019e+02
1.900000e-07	-5.168940e-06	-1.171458e-08	-3.585489e+01	-7.686436e+02
2.000000e-07	-5.132055e-06	-1.169715e-08	-3.559904e+01	-7.673678e+02
2.100000e-07	-5.093461e-06	-1.170857e-08	-3.533133e+01	-7.660047e+02
2.200000e-07	-5.053071e-06	-1.157098e-08	-3.505115e+01	-7.644825e+02
2.300000e-07	-5.010738e-06	-1.160653e-08	-3.475751e+01	-7.627378e+02
2.400000e-07	-4.966345e-06	-1.162523e-08	-3.444957e+01	-7.607237e+02
2.500000e-07	-4.920233e-06	-1.156116e-08	-3.412971e+01	-7.584173e+02
2.600000e-07	-4.872291e-06	-1.152861e-08	-3.379715e+01	-7.558222e+02
2.700000e-07	-4.822250e-06	-1.143014e-08	-3.345005e+01	-7.529688e+02
2.800000e-07	-4.770140e-06	-1.141023e-08	-3.308858e+01	-7.499096e+02
2.900000e-07	-4.716136e-06	-1.139484e-08	-3.271397e+01	-7.467123e+02
3.000000e-07	-4.660460e-06	-1.134592e-08	-3.232777e+01	-7.434502e+02
3.100000e-07	-4.603170e-06	-1.130518e-08	-3.193037e+01	-7.401914e+02
3.200000e-07	-4.544079e-06	-1.127147e-08	-3.152048e+01	-7.369898e+02
3.300000e-07	-4.483276e-06	-1.125436e-08	-3.109871e+01	-7.338761e+02
3.400000e-07	-4.420986e-06	-1.115639e-08	-3.066663e+01	-7.308538e+02
3.500000e-07	-4.357230e-06	-1.108613e-08	-3.022438e+01	-7.278975e+02
3.600000e-07	-4.291948e-06	-1.104087e-08	-2.977155e+01	-7.249559e+02
3.700000e-07	-4.224981e-06	-1.099450e-08	-2.930702e+01	-7.219585e+02
3.800000e-07	-4.156389e-06	-1.097716e-08	-2.883123e+01	-7.188245e+02
3.900000e-07	-4.086315e-06	-1.090513e-08	-2.834515e+01	-7.154741e+02
4.000000e-07	-4.014946e-06	-1.083352e-08	-2.785009e+01	-7.118388e+02
4.100000e-07	-3.942319e-06	-1.077826e-08	-2.734631e+01	-7.078714e+02
4.200000e-07	-3.868123e-06	-1.071164e-08	-2.683164e+01	-7.035521e+02
4.300000e-07	-3.792155e-06	-1.063547e-08	-2.630468e+01	-6.988917e+02
4.400000e-07	-3.714569e-06	-1.054983e-08	-2.576650e+01	-6.939300e+02
4.500000e-07	-3.635564e-06	-1.049521e-08	-2.521847e+01	-6.887304e+02
4.600000e-07	-3.555094e-06	-1.043681e-08	-2.466028e+01	-6.833706e+02
4.700000e-07	-3.473264e-06	-1.036571e-08	-2.409266e+01	-6.779318e+02
4.800000e-07	-3.390262e-06	-1.027810e-08	-2.351691e+01	-6.724865e+02
4.900000e-07	-3.306140e-06	-1.018280e-08	-2.293339e+01	-6.670875e+02
5.000000e-07	-3.220992e-06	-1.011148e-08	-2.234275e+01	-6.617591e+02
5.100000e-07	-3.134869e-06	-1.003445e-08	-2.174535e+01	-6.564930e+02
5.200000e-07	-3.047778e-06	-9.946587e-09	-2.114123e+01	-6.512471e+02
5.300000e-07	-2.959760e-06	-9.847351e-09	-2.053069e+01	-6.459506e+02
5.400000e-07	-2.870706e-06	-9.753038e-09	-1.991295e+01	-6.405123e+02
5.500000e-07	-2.780546e-06	-9.663978e-09	-1.928755e+01	-6.348322e+02
5.600000e-07	-2.689238e-06	-9.559450e-09	-1.865418e+01	-6.288149e+02
5.700000e-07	-2.596846e-06	-9.449349e-09	-1.801329e+01	-6.223825e+02
5.800000e-07	-2.503610e-06	-9.341476e-09	-1.736655e+01	-6.154856e+02
5.900000e-07	-2.409580e-06	-9.245815e-09	-1.671430e+01	-6.081101e+02
6.000000e-07	-2.314751e-06	-9.142886e-09	-1.605651e+01	-6.002799e+02
6.100000e-07	-2.219170e-06	-9.021790e-09	-1.539350e+01	-5.920534e+02
6.200000e-07	-2.122833e-06	-8.890240e-09	-1.472526e+01	-5.835156e+02
6.300000e-07	-2.025662e-06	-8.760587e-09	-1.405122e+01	-5.747656e+02
6.400000e-07	-1.927631e-06	-8.637958e-09	-1.337122e+01	-5.659009e+02
6.500000e-07	-1.828742e-06	-8.506379e-09	-1.268526e+01	-5.570024e+02
6.600000e-07	-1.729066e-06	-8.369156e-09	-1.199385e+01	-5.481197e+02
6.700000e-07	-1.628781e-06	-8.234485e-09	-1.129821e+01	-5.392607e+02
6.800000e-07	-1.527961e-06	-8.099391e-09	-1.059886e+01	-5.303858e+02
6.900000e-07	-1.426647e-06	-7.947774e-09	-9.896084e+00	-5.214094e+02
7.000000e-07	-1.324880e-06	-7.780593e-09	-9.190171e+00	-5.122072e+02
7.100000e-07	-1.222637e-06	-7.612854e-09	-8.480951e+00	-5.026294e+02
7.200000e-07	-1.119956e-06	-7.449255e-09	-7.768690e+00	-4.925185e+02
7.300000e-07	-1.016928e-06	-7.281873e-09	-7.054025e+00	-4.817292e+02
7.400000e-07	-9.135900e-07	-7.103912e-09	-6.337213e+00	-4.701473e+02
7.500000e-07	-8.099516e-07	-6.919356e-09	-5.618314e+00	-4.577060e+02
7.600000e-07	-7.060633e-07	-6.728678e-09	-4.897682e+00	-4.443961e+02
7.700000e-07	-6.019574e-07	-6.528182e-09	-4.175541e+00	-4.302684e+02
7.800000e-07	-4.976648e-07	-6.311651e-09	-3.452104e+00	-4.154276e+02
7.900000e-07	-3.932765e-07	-6.085626e-09	-2.728003e+00	-4.000177e+02
8.000000e-07	-2.887589e-07	-5.861630e-09	-2.003007e+00	-3.841994e+02
8.100000e-07	-1.840551e-07	-5.637163e-09	-1.276717e+00	-3.681229e+02
8.200000e-07	-7.923604e-08	-5.399785e-09	-5.496291e-01	-3.518981e+02
8.300000e-07	2.559022e-08	-5.143448e-09	1.775093e-01	-3.355662e+02
8.400000e-07	1.303968e-07	-4.874282e-09	9.045111e-01	-3.190766e+02
8.500000e-07	2.351907e-07	-4.596909e-09	1.631425e+00	-3.022724e+02
8.600000e-07	3.399016e-07	-4.304866e-09	2.357763e+00	-2.848865e+02
8.700000e-07	4.444316e-07	-3.989809e-09	3.082846e+00	-2.665511e+02
8.800000e-07	5.487564e-07	-3.657558e-09	3.806506e+00	-2.468193e+02
8.900000e-07	6.529121e-07	-3.315259e-09	4.528993e+00	-2.251989e+02
9.000000e-07	7.568921e-07	-2.956835e-09	5.250262e+00	-2.011948e+02
9.100000e-07	8.606762e-07	-2.565607e-09	5.970171e+00	-1.743570e+02
9.200000e-07	9.642103e-07	-2.134787e-09	6.688346e+00	-1.443286e+02
9.300000e-07	1.067366e-06	-1.666499e-09	7.403893e+00	-1.108904e+02
9.400000e-07	1.170132e-06	-1.153197e-09	8.116743e+00	-7.399587e+01
9.500000e-07	1.272527e-06	-5.790067e-10	8.827018e+00	-3.379392e+01
9.600000e-07	1.374494e-06	6.622671e-11	9.534321e+00	9.364370e+00
9.700000e-07	1.476001e-06	7.767837e-10	1.023844e+01	5.493585e+01
9.800000e-07	1.576998e-06	1.539911e-09	1.093901e+01	1.022120e+02
9.900000e-07	1.677475e-06	2.336201e-09	1.163598e+01	1.503604e+02
1.000000e-06	1.777430e-06	3.135584e-09	1.232933e+01	1.984769e+02
1.010000e-06	1.876764e-06	3.900968e-09	1.301837e+01	2.456452e+02
1.020000e-06	1.975300e-06	4.602295e-09	1.370187e+01	2.909968e+02
1.030000e-06	2.072903e-06	5.231938e-09	1.437891e+01	3.337675e+02
1.040000e-06	2.169589e-06	5.795980e-09	1.504958e+01	3.733442e+02
1.050000e-06	2.265498e-06	6.298554e-09	1.571486e+01	4.092992e+02
1.060000e-06	2.360738e-06	6.739297e-09	1.637551e+01	4.414079e+02
1.070000e-06	2.455198e-06	7.129160e-09	1.703074e+01	4.696499e+02
1.080000e-06	2.548830e-06	7.478122e-09	1.768023e+01	4.941933e+02
1.090000e-06	2.641699e-06	7.791187e-09	1.832442e+01	5.153648e+02
1.100000e-06	2.733739e-06	8.071582e-09	1.896287e+01	5.336090e+02
1.110000e-06	2.824757e-06	8.324065e-09	1.959422e+01	5.494403e+02
1.120000e-06	2.914521e-06	8.557869e-09	2.021688e+01	5.633943e+02
1.130000e-06	3.003143e-06	8.777479e-09	2.083161e+01	5.759815e+02
1.140000e-06	3.090820e-06	8.983041e-09	2.143980e+01	5.876480e+02
1.150000e-06	3.177452e-06	9.170459e-09	2.204073e+01	5.987480e+02
1.160000e-06	3.263009e-06	9.340095e-09	2.263420e+01	6.095271e+02
1.170000e-06	3.347598e-06	9.498426e-09	2.322097e+01	6.201194e+02
1.180000e-06	3.431131e-06	9.650972e-09	2.380040e+01	6.305571e+02
1.190000e-06	3.513294e-06	9.797451e-09	2.437033e+01	6.407889e+02
1.200000e-06	3.594046e-06	9.934305e-09	2.493048e+01	6.507066e+02
1.210000e-06	3.673531e-06	1.006079e-08	2.548183e+01	6.601735e+02
1.220000e-06	3.751704e-06	1.018057e-08	2.602409e+01	6.690538e+02
1.230000e-06	3.828549e-06	1.029272e-08	2.655713e+01	6.772376e+02
1.240000e-06	3.903966e-06	1.039562e-08	2.708027e+01	6.846593e+02
1.250000e-06	3.977803e-06	1.049110e-08	2.759244e+01	6.913082e+02
1.260000e-06	4.050075e-06	1.058258e-08	2.809377e+01	6.972307e+02
1.270000e-06	4.120883e-06	1.067228e-08	2.858494e+01	7.025230e+02
1.280000e-06	4.190355e-06	1.075979e-08	2.906684e+01	7.073190e+02
1.290000e-06	4.258491e-06	1.084318e-08	2.953947e+01	7.117716e+02
1.300000e-06	4.324964e-06	1.092263e-08	3.000056e+01	7.160341e+02
1.310000e-06	4.389705e-06	1.099903e-08	3.044965e+01	7.202412e+02
1.320000e-06	4.452986e-06	1.107034e-08	3.088861e+01	7.244935e+02
1.330000e-06	4.514839e-06	1.113470e-08	3.131765e+01	7.288477e+02
1.340000e-06	4.575284e-06	1.119443e-08	3.173693e+01	7.333123e+02
1.350000e-06	4.634130e-06	1.125416e-08	3.214513e+01	7.378506e+02
1.360000e-06	4.691121e-06	1.131514e-08	3.254045e+01	7.423890e+02
1.370000e-06	4.746410e-06	1.137449e-08	3.292397e+01	7.468296e+02
1.380000e-06	4.800046e-06	1.143030e-08	3.329602e+01	7.510658e+02
1.390000e-06	4.851745e-06	1.148270e-08	3.365464e+01	7.549981e+02
1.400000e-06	4.901325e-06	1.153263e-08	3.399856e+01	7.585481e+02
1.410000e-06	4.949035e-06	1.157692e-08	3.432950e+01	7.616691e+02
1.420000e-06	4.995125e-06	1.161385e-08	3.464921e+01	7.643518e+02
1.430000e-06	5.039629e-06	1.164850e-08	3.495791e+01	7.666245e+02
1.440000e-06	5.082240e-06	1.168451e-08	3.525349e+01	7.685489e+02
1.450000e-06	5.122892e-06	1.172120e-08	3.553548e+01	7.702104e+02
1.460000e-06	5.161841e-06	1.175565e-08	3.580565e+01	7.717062e+02
1.470000e-06	5.199139e-06	1.178922e-08	3.606437e+01	7.731324e+02
1.480000e-06	5.234638e-06	1.182348e-08	3.631062e+01	7.745706e+02
1.490000e-06	5.268098e-06	1.185489e-08	3.654271e+01	7.760787e+02
1.500000e-06	5.299706e-06	1.187871e-08	3.676196e+01	7.776833e+02
1.510000e-06	5.329650e-06	1.189415e-08	3.696968e+01	7.793780e+02
1.520000e-06	5.357835e-06	1.190771e-08	3.716518e+01	7.811260e+02
1.530000e-06	5.383943e-06	1.192399e-08	3.734628e+01	7.828663e+02
1.540000e-06	5.407968e-06	1.194172e-08	3.751293e+01	7.845236e+02
1.550000e-06	5.430171e-06	1.195966e-08	3.766695e+01	7.860195e+02
1.560000e-06	5.450633e-06	1.197808e-08	3.780888e+01	7.872844e+02
1.570000e-06	5.469208e-06	1.199660e-08	3.793773e+01	7.882671e+02
1.580000e-06	5.485690e-06	1.201028e-08	3.805206e+01	7.889421e+02
1.590000e-06	5.500158e-06	1.201630e-08	3.815242e+01	7.893128e+02
1.600000e-06	5.512580e-06	1.202065e-08	3.823859e+01	7.894112e+02
1.610000e-06	5.522743e-06	1.202556e-08	3.830909e+01	7.892929e+02
1.620000e-06	5.530840e-06	1.202853e-08	3.836525e+01	7.890289e+02
1.630000e-06	5.537118e-06	1.202844e-08	3.840880e+01	7.886964e+02
1.640000e-06	5.541590e-06	1.202799e-08	3.843982e+01	7.883674e+02
1.650000e-06	5.544056e-06	1.203321e-08	3.845693e+01	7.880994e+02
1.660000e-06	5.544499e-06	1.204339e-08	3.846000e+01	7.879279e+02
1.670000e-06	5.543177e-06	1.204547e-08	3.845083e+01	7.878615e+02
1.680000e-06	5.540170e-06	1.203963e-08	3.842997e+01	7.878819e+02
1.690000e-06	5.535283e-06	1.203083e-08	3.839607e+01	7.879467e+02
1.700000e-06	5.528393e-06	1.202029e-08	3.834827e+01	7.879960e+02
1.710000e-06	5.519784e-06	1.200946e-08	3.828856e+01	7.879616e+02
1.720000e-06	5.509563e-06	1.199982e-08	3.821766e+01	7.877763e+02
1.730000e-06	5.497446e-06	1.200554e-08	3.813361e+01	7.873840e+02
1.740000e-06	5.483288e-06	1.199208e-08	3.803540e+01	7.867475e+02
1.750000e-06	5.467107e-06	1.190963e-08	3.792316e+01	7.858539e+02
1.760000e-06	5.448414e-06	1.190297e-08	3.779350e+01	7.847159e+02
1.770000e-06	5.426856e-06	1.191223e-08	3.764395e+01	7.833700e+02
1.780000e-06	5.403115e-06	1.194537e-08	3.747927e+01	7.818713e+02
1.790000e-06	5.378295e-06	1.201752e-08	3.730711e+01	7.802852e+02
1.800000e-06	5.352758e-06	1.184120e-08	3.712997e+01	7.786782e+02
1.810000e-06	5.325404e-06	1.184288e-08	3.694022e+01	7.771078e+02
1.820000e-06	5.295616e-06	1.192891e-08	3.673360e+01	7.756144e+02
1.830000e-06	5.264231e-06	1.172655e-08	3.651589e+01	7.742150e+02
1.840000e-06	5.231134e-06	1.180107e-08	3.628631e+01	7.729009e+02
1.850000e-06	5.196191e-06	1.184136e-08	3.604392e+01	7.716378e+02
1.860000e-06	5.159607e-06	1.166383e-08	3.579015e+01	7.703710e+02
1.870000e-06	5.120888e-06	1.178914e-08	3.552158e+01	7.690323e+02
1.880000e-06	5.080340e-06	1.174062e-08	3.524031e+01	7.675496e+02
1.890000e-06	5.038201e-06	1.160027e-08	3.494801e+01	7.658568e+02
1.900000e-06	4.994095e-06	1.162265e-08	3.464206e+01	7.639029e+02
1.910000e-06	4.948262e-06	1.150152e-08	3.432414e+01	7.616593e+02
1.920000e-06	4.900556e-06	1.158042e-08	3.399322e+01	7.591240e+02
1.930000e-06	4.850963e-06	1.157296e-08	3.364922e+01	7.563218e+02
1.940000e-06	4.799678e-06	1.143637e-08	3.329347e+01	7.533010e+02
1.950000e-06	4.746252e-06	1.147359e-08	3.292288e+01	7.501268e+02
1.960000e-06	4.690957e-06	1.137891e-08	3.253931e+01	7.468720e+02
1.970000e-06	4.634034e-06	1.135184e-08	3.214446e+01	7.436070e+02
1.980000e-06	4.575509e-06	1.127663e-08	3.173850e+01	7.403892e+02
1.990000e-06	4.515489e-06	1.121606e-08	3.132216e+01	7.372550e+02
2.000000e-06	4.453660e-06	1.126308e-08	3.089328e+01	7.342139e+02
2.010000e-06	4.390232e-06	1.115274e-08	3.045330e+01	7.312465e+02
2.020000e-06	4.325349e-06	1.114185e-08	3.000324e+01	7.283068e+02
2.030000e-06	4.258987e-06	1.104407e-08	2.954291e+01	7.253275e+02
2.040000e-06	4.191110e-06	1.096794e-08	2.907207e+01	7.222294e+02
2.050000e-06	4.121445e-06	1.095916e-08	2.858883e+01	7.189312e+02
2.060000e-06	4.050208e-06	1.084163e-08	2.809469e+01	7.153614e+02
2.070000e-06	3.977567e-06	1.083120e-08	2.759081e+01	7.114674e+02
2.080000e-06	3.903556e-06	1.075665e-08	2.707743e+01	7.072233e+02
2.090000e-06	3.827978e-06	1.072119e-08	2.655317e+01	7.026332e+02
2.100000e-06	3.750640e-06	1.065672e-08	2.601671e+01	6.977310e+02
2.110000e-06	3.671867e-06	1.054300e-08	2.547029e+01	6.925758e+02
2.120000e-06	3.591889e-06	1.048130e-08	2.491551e+01	6.872430e+02
2.130000e-06	3.510751e-06	1.037582e-08	2.435269e+01	6.818142e+02
2.140000e-06	3.428412e-06	1.034216e-08	2.378154e+01	6.763646e+02
2.150000e-06	3.344906e-06	1.025825e-08	2.320229e+01	6.709521e+02
2.160000e-06	3.260157e-06	1.017845e-08	2.261442e+01	6.656077e+02
2.170000e-06	3.174001e-06	1.009989e-08	2.201679e+01	6.603303e+02
2.180000e-06	3.086685e-06	9.995984e-09	2.141111e+01	6.550847e+02
2.190000e-06	2.998441e-06	9.913928e-09	2.079900e+01	6.498058e+02
2.200000e-06	2.909265e-06	9.801171e-09	2.018042e+01	6.444058e+02
2.210000e-06	2.819128e-06	9.723225e-09	1.955518e+01	6.387855e+02
2.220000e-06	2.728031e-06	9.635105e-09	1.892327e+01	6.328474e+02
2.230000e-06	2.635930e-06	9.542361e-09	1.828440e+01	6.265088e+02
2.240000e-06	2.542828e-06	9.429524e-09	1.763859e+01	6.197135e+02
2.250000e-06	2.448722e-06	9.306703e-09	1.698582e+01	6.124394e+02
2.260000e-06	2.353680e-06	9.202850e-09	1.632655e+01	6.047024e+02
2.270000e-06	2.257889e-06	9.094996e-09	1.566208e+01	5.965540e+02
2.280000e-06	2.161328e-06	8.988871e-09	1.499228e+01	5.880745e+02
2.290000e-06	2.064051e-06	8.865675e-09	1.431751e+01	5.793610e+02
2.300000e-06	1.966176e-06	8.739485e-09	1.363859e+01	5.705129e+02
2.310000e-06	1.867702e-06	8.608649e-09	1.295551e+01	5.616158e+02
2.320000e-06	1.768623e-06	8.472957e-09	1.226824e+01	5.527272e+02
2.330000e-06	1.668924e-06	8.329628e-09	1.157666e+01	5.438643e+02
2.340000e-06	1.568602e-06	8.188214e-09	1.088077e+01	5.349981e+02
2.350000e-06	1.467695e-06	8.049144e-09	1.018082e+01	5.260524e+02
2.360000e-06	1.366214e-06	7.899693e-09	9.476887e+00	5.169101e+02
2.370000e-06	1.264128e-06	7.738149e-09	8.768760e+00	5.074257e+02
2.380000e-06	1.161502e-06	7.567663e-09	8.056880e+00	4.974416e+02
2.390000e-06	1.058478e-06	7.400289e-09	7.342241e+00	4.868082e+02
2.400000e-06	9.550533e-07	7.228199e-09	6.624827e+00	4.754032e+02
2.410000e-06	8.512365e-07	7.047483e-09	5.904691e+00	4.631485e+02
2.420000e-06	7.471182e-07	6.856221e-09	5.182464e+00	4.500221e+02
2.430000e-06	6.427796e-07	6.656764e-09	4.458708e+00	4.360621e+02
2.440000e-06	5.382822e-07	6.449252e-09	3.733851e+00	4.213626e+02
2.450000e-06	4.336040e-07	6.233178e-09	3.007740e+00	4.060609e+02
2.460000e-06	3.287562e-07	6.009206e-09	2.280452e+00	3.903162e+02
2.470000e-06	2.238422e-07	5.776068e-09	1.552705e+00	3.742836e+02
2.480000e-06	1.188838e-07	5.536430e-09	8.246501e-01	3.580840e+02
2.490000e-06	1.387695e-08	5.287621e-09	9.625890e-02	3.417754e+02
2.500000e-06	-9.113830e-08	5.024598e-09	-6.321904e-01	3.253287e+02
2.510000e-06	-1.961334e-07	4.744950e-09	-1.360500e+00	3.086103e+02
2.520000e-06	-3.010361e-07	4.452414e-09	-2.088169e+00	2.913764e+02
2.530000e-06	-4.057780e-07	4.147983e-09	-2.814722e+00	2.732795e+02
2.540000e-06	-5.103940e-07	3.825335e-09	-3.540401e+00	2.538870e+02
2.550000e-06	-6.148674e-07	3.481299e-09	-4.265092e+00	2.327131e+02
2.560000e-06	-7.191328e-07	3.119359e-09	-4.988340e+00	2.092596e+02
2.570000e-06	-8.231451e-07	2.736885e-09	-5.709832e+00	1.830626e+02
2.580000e-06	-9.268767e-07	2.325815e-09	-6.429378e+00	1.537413e+02
2.590000e-06	-1.030284e-06	1.876298e-09	-7.146676e+00	1.210435e+02
2.600000e-06	-1.133279e-06	1.378262e-09	-7.861108e+00	8.488357e+01
2.610000e-06	-1.235827e-06	8.216977e-10	-8.572446e+00	4.536725e+01
2.620000e-06	-1.337850e-06	1.997497e-10	-9.280139e+00	2.802576e+00
2.630000e-06	-1.439230e-06	-4.883214e-10	-9.983373e+00	-4.230675e+01
2.640000e-06	-1.540032e-06	-1.235664e-09	-1.068260e+01	-8.928462e+01
2.650000e-06	-1.640274e-06	-2.023428e-09	-1.137793e+01	-1.373210e+02
2.660000e-06	-1.739838e-06	-2.824801e-09	-1.206857e+01	-1.855224e+02
2.670000e-06	-1.838741e-06	-3.605940e-09	-1.275462e+01	-2.329699e+02
2.680000e-06	-1.937048e-06	-4.338223e-09	-1.343654e+01	-2.787799e+02
2.690000e-06	-2.034726e-06	-5.004442e-09	-1.411409e+01	-3.221615e+02
2.700000e-06	-2.131699e-06	-5.597617e-09	-1.478675e+01	-3.624657e+02
2.710000e-06	-2.227986e-06	-6.119727e-09	-1.545466e+01	-3.992232e+02
2.720000e-06	-2.323609e-06	-6.579058e-09	-1.611796e+01	-4.321650e+02
2.730000e-06	-2.418589e-06	-6.985278e-09	-1.677679e+01	-4.612279e+02
2.740000e-06	-2.512769e-06	-7.347521e-09	-1.743009e+01	-4.865415e+02
2.750000e-06	-2.605875e-06	-7.673690e-09	-1.807593e+01	-5.084019e+02
2.760000e-06	-2.697816e-06	-7.970932e-09	-1.871368e+01	-5.272321e+02
2.770000e-06	-2.788671e-06	-8.240303e-09	-1.934391e+01	-5.435358e+02
2.780000e-06	-2.878559e-06	-8.482440e-09	-1.996743e+01	-5.578480e+02
2.790000e-06	-2.967431e-06	-8.706746e-09	-2.058389e+01	-5.706882e+02
2.800000e-06	-3.055302e-06	-8.916203e-09	-2.119342e+01	-5.825191e+02
2.810000e-06	-3.142265e-06	-9.110407e-09	-2.179665e+01	-5.937165e+02
2.820000e-06	-3.228125e-06	-9.289792e-09	-2.239222e+01	-6.045496e+02
2.830000e-06	-3.312638e-06	-9.455478e-09	-2.297846e+01	-6.151764e+02
2.840000e-06	-3.395862e-06	-9.613594e-09	-2.355575e+01	-6.256495e+02
2.850000e-06	-3.477997e-06	-9.762893e-09	-2.412549e+01	-6.359335e+02
2.860000e-06	-3.559015e-06	-9.900406e-09	-2.468748e+01	-6.459298e+02
2.870000e-06	-3.638821e-06	-1.002579e-08	-2.524107e+01	-6.555056e+02
2.880000e-06	-3.717326e-06	-1.014161e-08	-2.578562e+01	-6.645225e+02
2.890000e-06	-3.794291e-06	-1.025106e-08	-2.631949e+01	-6.728632e+02
2.900000e-06	-3.869673e-06	-1.035629e-08	-2.684239e+01	-6.804514e+02
2.910000e-06	-3.943625e-06	-1.045811e-08	-2.735537e+01	-6.872644e+02
2.920000e-06	-4.016206e-06	-1.055687e-08	-2.785883e+01	-6.933363e+02
2.930000e-06	-4.087459e-06	-1.065172e-08	-2.835309e+01	-6.987539e+02
2.940000e-06	-4.157233e-06	-1.074061e-08	-2.883708e+01	-7.036441e+02
