# Temperatura_=_40.0
# Concentracion g/m^3_=_15500.0
# C_Vs_to_Am_M_A/Vsm_=_65563218390.804596
# pendiente_HvsI_1/m_=_3716.3
# ordenada_HvsI_A/m_=_1297.0
# frecuencia_Hz_=_300801.96736272814

Tiempo_(s)	Campo_(V.s)	Magnetizacion_(V.s)	Campo_(kA/m)	Magnetizacion_(A/m)
0.000000e+00	-5.509218e-06	-1.225834e-08	-3.831170e+01	-8.027742e+02
1.000000e-08	-5.507460e-06	-1.226029e-08	-3.829947e+01	-8.029350e+02
2.000000e-08	-5.503736e-06	-1.226400e-08	-3.827357e+01	-8.031511e+02
3.000000e-08	-5.498262e-06	-1.226189e-08	-3.823551e+01	-8.033523e+02
4.000000e-08	-5.491153e-06	-1.225113e-08	-3.818607e+01	-8.034582e+02
5.000000e-08	-5.482376e-06	-1.223348e-08	-3.812503e+01	-8.033906e+02
6.000000e-08	-5.471681e-06	-1.221711e-08	-3.805066e+01	-8.030839e+02
7.000000e-08	-5.458859e-06	-1.220488e-08	-3.796149e+01	-8.024948e+02
8.000000e-08	-5.444031e-06	-1.217733e-08	-3.785838e+01	-8.016076e+02
9.000000e-08	-5.426917e-06	-1.219734e-08	-3.773937e+01	-8.004369e+02
1.000000e-07	-5.407432e-06	-1.223843e-08	-3.760387e+01	-7.990250e+02
1.100000e-07	-5.385904e-06	-1.220331e-08	-3.745416e+01	-7.974356e+02
1.200000e-07	-5.362551e-06	-1.217097e-08	-3.729176e+01	-7.957450e+02
1.300000e-07	-5.337727e-06	-1.211665e-08	-3.711913e+01	-7.940312e+02
1.400000e-07	-5.311439e-06	-1.200230e-08	-3.693632e+01	-7.923621e+02
1.500000e-07	-5.283307e-06	-1.210797e-08	-3.674069e+01	-7.907867e+02
1.600000e-07	-5.253443e-06	-1.208331e-08	-3.653301e+01	-7.893273e+02
1.700000e-07	-5.222012e-06	-1.195342e-08	-3.631443e+01	-7.879763e+02
1.800000e-07	-5.188608e-06	-1.207469e-08	-3.608214e+01	-7.866972e+02
1.900000e-07	-5.153130e-06	-1.200596e-08	-3.583542e+01	-7.854295e+02
2.000000e-07	-5.116077e-06	-1.192860e-08	-3.557775e+01	-7.840968e+02
2.100000e-07	-5.077359e-06	-1.196816e-08	-3.530850e+01	-7.826172e+02
2.200000e-07	-5.036821e-06	-1.184367e-08	-3.502659e+01	-7.809152e+02
2.300000e-07	-4.994393e-06	-1.183013e-08	-3.473155e+01	-7.789316e+02
2.400000e-07	-4.949959e-06	-1.186823e-08	-3.442255e+01	-7.766323e+02
2.500000e-07	-4.903762e-06	-1.179369e-08	-3.410129e+01	-7.740128e+02
2.600000e-07	-4.855797e-06	-1.177567e-08	-3.376773e+01	-7.710992e+02
2.700000e-07	-4.805794e-06	-1.167315e-08	-3.342001e+01	-7.679444e+02
2.800000e-07	-4.753672e-06	-1.164091e-08	-3.305755e+01	-7.646208e+02
2.900000e-07	-4.699588e-06	-1.164805e-08	-3.268144e+01	-7.612104e+02
3.000000e-07	-4.643867e-06	-1.157579e-08	-3.229395e+01	-7.577929e+02
3.100000e-07	-4.586601e-06	-1.153171e-08	-3.189572e+01	-7.544343e+02
3.200000e-07	-4.527511e-06	-1.148691e-08	-3.148480e+01	-7.511774e+02
3.300000e-07	-4.466679e-06	-1.146542e-08	-3.106177e+01	-7.480355e+02
3.400000e-07	-4.404398e-06	-1.138650e-08	-3.062866e+01	-7.449893e+02
3.500000e-07	-4.340650e-06	-1.130503e-08	-3.018535e+01	-7.419898e+02
3.600000e-07	-4.275349e-06	-1.126475e-08	-2.973123e+01	-7.389638e+02
3.700000e-07	-4.208377e-06	-1.120819e-08	-2.926551e+01	-7.358242e+02
3.800000e-07	-4.139721e-06	-1.118234e-08	-2.878807e+01	-7.324814e+02
3.900000e-07	-4.069567e-06	-1.111404e-08	-2.830021e+01	-7.288556e+02
4.000000e-07	-3.998117e-06	-1.102704e-08	-2.780334e+01	-7.248882e+02
4.100000e-07	-3.925444e-06	-1.097469e-08	-2.729796e+01	-7.205497e+02
4.200000e-07	-3.851307e-06	-1.090279e-08	-2.678240e+01	-7.158443e+02
4.300000e-07	-3.775478e-06	-1.083616e-08	-2.625508e+01	-7.108092e+02
4.400000e-07	-3.697986e-06	-1.075072e-08	-2.571619e+01	-7.055097e+02
4.500000e-07	-3.619025e-06	-1.068710e-08	-2.516709e+01	-7.000300e+02
4.600000e-07	-3.538682e-06	-1.062766e-08	-2.460837e+01	-6.944613e+02
4.700000e-07	-3.456929e-06	-1.054510e-08	-2.403985e+01	-6.888881e+02
4.800000e-07	-3.373921e-06	-1.045540e-08	-2.346261e+01	-6.833759e+02
4.900000e-07	-3.289874e-06	-1.035464e-08	-2.287814e+01	-6.779605e+02
5.000000e-07	-3.204853e-06	-1.028242e-08	-2.228689e+01	-6.726419e+02
5.100000e-07	-3.118826e-06	-1.020366e-08	-2.168865e+01	-6.673823e+02
5.200000e-07	-3.031806e-06	-1.011507e-08	-2.108351e+01	-6.621102e+02
5.300000e-07	-2.943836e-06	-1.001420e-08	-2.047175e+01	-6.567286e+02
5.400000e-07	-2.854888e-06	-9.911553e-09	-1.985320e+01	-6.511276e+02
5.500000e-07	-2.764827e-06	-9.816126e-09	-1.922691e+01	-6.451988e+02
5.600000e-07	-2.673654e-06	-9.707294e-09	-1.859288e+01	-6.388500e+02
5.700000e-07	-2.581440e-06	-9.598083e-09	-1.795161e+01	-6.320180e+02
5.800000e-07	-2.488267e-06	-9.490669e-09	-1.730368e+01	-6.246780e+02
5.900000e-07	-2.394326e-06	-9.392300e-09	-1.665040e+01	-6.168470e+02
6.000000e-07	-2.299624e-06	-9.285295e-09	-1.599183e+01	-6.085825e+02
6.100000e-07	-2.204157e-06	-9.161102e-09	-1.532794e+01	-5.999740e+02
6.200000e-07	-2.107950e-06	-9.029062e-09	-1.465891e+01	-5.911304e+02
6.300000e-07	-2.010936e-06	-8.898975e-09	-1.398426e+01	-5.821637e+02
6.400000e-07	-1.913087e-06	-8.771677e-09	-1.330381e+01	-5.731714e+02
6.500000e-07	-1.814431e-06	-8.633977e-09	-1.261775e+01	-5.642198e+02
6.600000e-07	-1.715044e-06	-8.492651e-09	-1.192660e+01	-5.553315e+02
6.700000e-07	-1.615026e-06	-8.352383e-09	-1.123106e+01	-5.464776e+02
6.800000e-07	-1.514424e-06	-8.209559e-09	-1.053147e+01	-5.375769e+02
6.900000e-07	-1.413270e-06	-8.052589e-09	-9.828033e+00	-5.285030e+02
7.000000e-07	-1.311684e-06	-7.885278e-09	-9.121592e+00	-5.190974e+02
7.100000e-07	-1.209738e-06	-7.716520e-09	-8.412651e+00	-5.091881e+02
7.200000e-07	-1.107377e-06	-7.547491e-09	-7.700817e+00	-4.986113e+02
7.300000e-07	-1.004583e-06	-7.372358e-09	-6.985976e+00	-4.872331e+02
7.400000e-07	-9.014184e-07	-7.186759e-09	-6.268561e+00	-4.749684e+02
7.500000e-07	-7.979625e-07	-6.994923e-09	-5.549117e+00	-4.617937e+02
7.600000e-07	-6.942744e-07	-6.798282e-09	-4.828059e+00	-4.477520e+02
7.700000e-07	-5.903768e-07	-6.594501e-09	-4.105544e+00	-4.329482e+02
7.800000e-07	-4.862729e-07	-6.376954e-09	-3.381594e+00	-4.175350e+02
7.900000e-07	-3.820028e-07	-6.149408e-09	-2.656488e+00	-4.016894e+02
8.000000e-07	-2.776600e-07	-5.919279e-09	-1.930877e+00	-3.855837e+02
8.100000e-07	-1.732290e-07	-5.685805e-09	-1.204653e+00	-3.693527e+02
8.200000e-07	-6.872203e-08	-5.436919e-09	-4.779004e-01	-3.530617e+02
8.300000e-07	3.588481e-08	-5.169178e-09	2.495468e-01	-3.366790e+02
8.400000e-07	1.405439e-07	-4.889687e-09	9.773572e-01	-3.200580e+02
8.500000e-07	2.450705e-07	-4.599831e-09	1.704246e+00	-3.029294e+02
8.600000e-07	3.494689e-07	-4.292794e-09	2.430244e+00	-2.849091e+02
8.700000e-07	4.537286e-07	-3.961447e-09	3.155277e+00	-2.655191e+02
8.800000e-07	5.578072e-07	-3.613304e-09	3.879052e+00	-2.442221e+02
8.900000e-07	6.616928e-07	-3.250291e-09	4.601483e+00	-2.204665e+02
9.000000e-07	7.653809e-07	-2.862775e-09	5.322541e+00	-1.937389e+02
9.100000e-07	8.688402e-07	-2.434267e-09	6.042009e+00	-1.636175e+02
9.200000e-07	9.720088e-07	-1.958127e-09	6.759454e+00	-1.298223e+02
9.300000e-07	1.074837e-06	-1.436581e-09	7.474535e+00	-9.225677e+01
9.400000e-07	1.177313e-06	-8.606537e-10	8.187162e+00	-5.103570e+01
9.500000e-07	1.279386e-06	-2.125544e-10	8.896987e+00	-6.496537e+00
9.600000e-07	1.380999e-06	5.178952e-10	9.603615e+00	4.080810e+01
9.700000e-07	1.482249e-06	1.317472e-09	1.030772e+01	9.013638e+01
9.800000e-07	1.583116e-06	2.157074e-09	1.100916e+01	1.406001e+02
9.900000e-07	1.683361e-06	3.002068e-09	1.170628e+01	1.912205e+02
1.000000e-06	1.782833e-06	3.817825e-09	1.239801e+01	2.409931e+02
1.010000e-06	1.881574e-06	4.572850e-09	1.308467e+01	2.889539e+02
1.020000e-06	1.979620e-06	5.249031e-09	1.376649e+01	3.342434e+02
1.030000e-06	2.076901e-06	5.845981e-09	1.444299e+01	3.761608e+02
1.040000e-06	2.173329e-06	6.371724e-09	1.511356e+01	4.142042e+02
1.050000e-06	2.268982e-06	6.832104e-09	1.577875e+01	4.480941e+02
1.060000e-06	2.363950e-06	7.233324e-09	1.643916e+01	4.777779e+02
1.070000e-06	2.458139e-06	7.587833e-09	1.709416e+01	5.034151e+02
1.080000e-06	2.551540e-06	7.905010e-09	1.774368e+01	5.253470e+02
1.090000e-06	2.644126e-06	8.192092e-09	1.838753e+01	5.440531e+02
1.100000e-06	2.735678e-06	8.452484e-09	1.902420e+01	5.600988e+02
1.110000e-06	2.826148e-06	8.690351e-09	1.965334e+01	5.740805e+02
1.120000e-06	2.915540e-06	8.910470e-09	2.027498e+01	5.865739e+02
1.130000e-06	3.003791e-06	9.115865e-09	2.088868e+01	5.980884e+02
1.140000e-06	3.091027e-06	9.306971e-09	2.149534e+01	6.090338e+02
1.150000e-06	3.177303e-06	9.482663e-09	2.209530e+01	6.196998e+02
1.160000e-06	3.262617e-06	9.642496e-09	2.268859e+01	6.302504e+02
1.170000e-06	3.346875e-06	9.789284e-09	2.327453e+01	6.407324e+02
1.180000e-06	3.429891e-06	9.932824e-09	2.385183e+01	6.510944e+02
1.190000e-06	3.511590e-06	1.007607e-08	2.441998e+01	6.612157e+02
1.200000e-06	3.592011e-06	1.021045e-08	2.497923e+01	6.709383e+02
1.210000e-06	3.671233e-06	1.033030e-08	2.553015e+01	6.800998e+02
1.220000e-06	3.749196e-06	1.044184e-08	2.607231e+01	6.885630e+02
1.230000e-06	3.825804e-06	1.054880e-08	2.660506e+01	6.962376e+02
1.240000e-06	3.900898e-06	1.064847e-08	2.712726e+01	7.030946e+02
1.250000e-06	3.974369e-06	1.073912e-08	2.763819e+01	7.091696e+02
1.260000e-06	4.046359e-06	1.082509e-08	2.813882e+01	7.145574e+02
1.270000e-06	4.116957e-06	1.091253e-08	2.862976e+01	7.193984e+02
1.280000e-06	4.186146e-06	1.100118e-08	2.911091e+01	7.238595e+02
1.290000e-06	4.253875e-06	1.108588e-08	2.958190e+01	7.281120e+02
1.300000e-06	4.319974e-06	1.116409e-08	3.004156e+01	7.323109e+02
1.310000e-06	4.384478e-06	1.123669e-08	3.049013e+01	7.365760e+02
1.320000e-06	4.447536e-06	1.130452e-08	3.092864e+01	7.409797e+02
1.330000e-06	4.509155e-06	1.136700e-08	3.135715e+01	7.455412e+02
1.340000e-06	4.569328e-06	1.142592e-08	3.177560e+01	7.502277e+02
1.350000e-06	4.627831e-06	1.148612e-08	3.218244e+01	7.549626e+02
1.360000e-06	4.684532e-06	1.154937e-08	3.257674e+01	7.596396e+02
1.370000e-06	4.739572e-06	1.161116e-08	3.295949e+01	7.641392e+02
1.380000e-06	4.792892e-06	1.166623e-08	3.333029e+01	7.683463e+02
1.390000e-06	4.844199e-06	1.171475e-08	3.368708e+01	7.721670e+02
1.400000e-06	4.893467e-06	1.176196e-08	3.402970e+01	7.755409e+02
1.410000e-06	4.940970e-06	1.180704e-08	3.436004e+01	7.784486e+02
1.420000e-06	4.986820e-06	1.184522e-08	3.467888e+01	7.809135e+02
1.430000e-06	5.031047e-06	1.187974e-08	3.498644e+01	7.829972e+02
1.440000e-06	5.073392e-06	1.191783e-08	3.528091e+01	7.847905e+02
1.450000e-06	5.113782e-06	1.196032e-08	3.556179e+01	7.863995e+02
1.460000e-06	5.152469e-06	1.199895e-08	3.583083e+01	7.879319e+02
1.470000e-06	5.189487e-06	1.203006e-08	3.608825e+01	7.894815e+02
1.480000e-06	5.224678e-06	1.205833e-08	3.633297e+01	7.911168e+02
1.490000e-06	5.257904e-06	1.208684e-08	3.656403e+01	7.928727e+02
1.500000e-06	5.289294e-06	1.211135e-08	3.678232e+01	7.947467e+02
1.510000e-06	5.318957e-06	1.213075e-08	3.698860e+01	7.967014e+02
1.520000e-06	5.346834e-06	1.215030e-08	3.718246e+01	7.986707e+02
1.530000e-06	5.372643e-06	1.217192e-08	3.736194e+01	8.005704e+02
1.540000e-06	5.396413e-06	1.219267e-08	3.752724e+01	8.023110e+02
1.550000e-06	5.418404e-06	1.220871e-08	3.768017e+01	8.038108e+02
1.560000e-06	5.438673e-06	1.222074e-08	3.782112e+01	8.050071e+02
1.570000e-06	5.457009e-06	1.223229e-08	3.794863e+01	8.058659e+02
1.580000e-06	5.473262e-06	1.224505e-08	3.806165e+01	8.063855e+02
1.590000e-06	5.487560e-06	1.225610e-08	3.816108e+01	8.065970e+02
1.600000e-06	5.499763e-06	1.226416e-08	3.824594e+01	8.065599e+02
1.610000e-06	5.509698e-06	1.227089e-08	3.831503e+01	8.063529e+02
1.620000e-06	5.517618e-06	1.227732e-08	3.837011e+01	8.060636e+02
1.630000e-06	5.523760e-06	1.228152e-08	3.841282e+01	8.057759e+02
1.640000e-06	5.528069e-06	1.228216e-08	3.844279e+01	8.055588e+02
1.650000e-06	5.530324e-06	1.228150e-08	3.845847e+01	8.054570e+02
1.660000e-06	5.530544e-06	1.228417e-08	3.846000e+01	8.054853e+02
1.670000e-06	5.529038e-06	1.228392e-08	3.844953e+01	8.056270e+02
1.680000e-06	5.525894e-06	1.227726e-08	3.842766e+01	8.058370e+02
1.690000e-06	5.520885e-06	1.227151e-08	3.839283e+01	8.060483e+02
1.700000e-06	5.513884e-06	1.226518e-08	3.834414e+01	8.061817e+02
1.710000e-06	5.505126e-06	1.225749e-08	3.828324e+01	8.061578e+02
1.720000e-06	5.494688e-06	1.224587e-08	3.821065e+01	8.059072e+02
1.730000e-06	5.482280e-06	1.223784e-08	3.812436e+01	8.053812e+02
1.740000e-06	5.467806e-06	1.225170e-08	3.802371e+01	8.045580e+02
1.750000e-06	5.451350e-06	1.217067e-08	3.790927e+01	8.034457e+02
1.760000e-06	5.432433e-06	1.213446e-08	3.777773e+01	8.020810e+02
1.770000e-06	5.410734e-06	1.214802e-08	3.762683e+01	8.005238e+02
1.780000e-06	5.386985e-06	1.212914e-08	3.746168e+01	7.988486e+02
1.790000e-06	5.362187e-06	1.224213e-08	3.728922e+01	7.971339e+02
1.800000e-06	5.336520e-06	1.212253e-08	3.711074e+01	7.954506e+02
1.810000e-06	5.308974e-06	1.201600e-08	3.691918e+01	7.938526e+02
1.820000e-06	5.279058e-06	1.218060e-08	3.671114e+01	7.923682e+02
1.830000e-06	5.247554e-06	1.204333e-08	3.649205e+01	7.909964e+02
1.840000e-06	5.214356e-06	1.201914e-08	3.626119e+01	7.897067e+02
1.850000e-06	5.179273e-06	1.213836e-08	3.601723e+01	7.884429e+02
1.860000e-06	5.142493e-06	1.194583e-08	3.576145e+01	7.871313e+02
1.870000e-06	5.103652e-06	1.200559e-08	3.549135e+01	7.856903e+02
1.880000e-06	5.063042e-06	1.203729e-08	3.520894e+01	7.840419e+02
1.890000e-06	5.020892e-06	1.184431e-08	3.491583e+01	7.821228e+02
1.900000e-06	4.976746e-06	1.188959e-08	3.460883e+01	7.798929e+02
1.910000e-06	4.930776e-06	1.179518e-08	3.428915e+01	7.773412e+02
1.920000e-06	4.883008e-06	1.180667e-08	3.395696e+01	7.744873e+02
1.930000e-06	4.833431e-06	1.185938e-08	3.361220e+01	7.713789e+02
1.940000e-06	4.782158e-06	1.166968e-08	3.325564e+01	7.680851e+02
1.950000e-06	4.728767e-06	1.171067e-08	3.288436e+01	7.646867e+02
1.960000e-06	4.673557e-06	1.164399e-08	3.250042e+01	7.612648e+02
1.970000e-06	4.616716e-06	1.157589e-08	3.210514e+01	7.578893e+02
1.980000e-06	4.558234e-06	1.154813e-08	3.169845e+01	7.546088e+02
1.990000e-06	4.498232e-06	1.143992e-08	3.128119e+01	7.514431e+02
2.000000e-06	4.436463e-06	1.149894e-08	3.085164e+01	7.483799e+02
2.010000e-06	4.373114e-06	1.139301e-08	3.041110e+01	7.453762e+02
2.020000e-06	4.308235e-06	1.135056e-08	2.995993e+01	7.423633e+02
2.030000e-06	4.241850e-06	1.129553e-08	2.949828e+01	7.392560e+02
2.040000e-06	4.173906e-06	1.117815e-08	2.902579e+01	7.359642e+02
2.050000e-06	4.104141e-06	1.119097e-08	2.854064e+01	7.324052e+02
2.060000e-06	4.032870e-06	1.106946e-08	2.804501e+01	7.285149e+02
2.070000e-06	3.960292e-06	1.104705e-08	2.754030e+01	7.242571e+02
2.080000e-06	3.886346e-06	1.098110e-08	2.702607e+01	7.196285e+02
2.090000e-06	3.810879e-06	1.090908e-08	2.650126e+01	7.146597e+02
2.100000e-06	3.733734e-06	1.086385e-08	2.596479e+01	7.094106e+02
2.110000e-06	3.655091e-06	1.072965e-08	2.541790e+01	7.039622e+02
2.120000e-06	3.575156e-06	1.068437e-08	2.486202e+01	6.984054e+02
2.130000e-06	3.494063e-06	1.058538e-08	2.429809e+01	6.928271e+02
2.140000e-06	3.411867e-06	1.053994e-08	2.372649e+01	6.872980e+02
2.150000e-06	3.328473e-06	1.046226e-08	2.314656e+01	6.818609e+02
2.160000e-06	3.243748e-06	1.036074e-08	2.255737e+01	6.765238e+02
2.170000e-06	3.157780e-06	1.028596e-08	2.195954e+01	6.712568e+02
2.180000e-06	3.070713e-06	1.016940e-08	2.135407e+01	6.659952e+02
2.190000e-06	2.982577e-06	1.009420e-08	2.074116e+01	6.606464e+02
2.200000e-06	2.893468e-06	9.984399e-09	2.012149e+01	6.551022e+02
2.210000e-06	2.803432e-06	9.901097e-09	1.949537e+01	6.492525e+02
2.220000e-06	2.712515e-06	9.810456e-09	1.886312e+01	6.430005e+02
2.230000e-06	2.620627e-06	9.705129e-09	1.822412e+01	6.362759e+02
2.240000e-06	2.527678e-06	9.595367e-09	1.757774e+01	6.290450e+02
2.250000e-06	2.433730e-06	9.466696e-09	1.692442e+01	6.213160e+02
2.260000e-06	2.338861e-06	9.364205e-09	1.626469e+01	6.131381e+02
2.270000e-06	2.243197e-06	9.250986e-09	1.559943e+01	6.045949e+02
2.280000e-06	2.146794e-06	9.137101e-09	1.492904e+01	5.957924e+02
2.290000e-06	2.049697e-06	9.008346e-09	1.425382e+01	5.868435e+02
2.300000e-06	1.951945e-06	8.875761e-09	1.357404e+01	5.778501e+02
2.310000e-06	1.853645e-06	8.742587e-09	1.289045e+01	5.688865e+02
2.320000e-06	1.754820e-06	8.600779e-09	1.220321e+01	5.599857e+02
2.330000e-06	1.655370e-06	8.458953e-09	1.151162e+01	5.511298e+02
2.340000e-06	1.555303e-06	8.314644e-09	1.081574e+01	5.422487e+02
2.350000e-06	1.454632e-06	8.171063e-09	1.011567e+01	5.332248e+02
2.360000e-06	1.353321e-06	8.014189e-09	9.411140e+00	5.239049e+02
2.370000e-06	1.251445e-06	7.846163e-09	8.702686e+00	5.141182e+02
2.380000e-06	1.149099e-06	7.671924e-09	7.990956e+00	5.036974e+02
2.390000e-06	1.046304e-06	7.498427e-09	7.276110e+00	4.925003e+02
2.400000e-06	9.430752e-07	7.321906e-09	6.558247e+00	4.804301e+02
2.410000e-06	8.394819e-07	7.134450e-09	5.837848e+00	4.674494e+02
2.420000e-06	7.356012e-07	6.938222e-09	5.115450e+00	4.535869e+02
2.430000e-06	6.314476e-07	6.735009e-09	4.391154e+00	4.389353e+02
2.440000e-06	5.271329e-07	6.521978e-09	3.665739e+00	4.236384e+02
2.450000e-06	4.227251e-07	6.296976e-09	2.939676e+00	4.078706e+02
2.460000e-06	3.181886e-07	6.061301e-09	2.212718e+00	3.918078e+02
2.470000e-06	2.135373e-07	5.819852e-09	1.484961e+00	3.755957e+02
2.480000e-06	1.087920e-07	5.574852e-09	7.565512e-01	3.593169e+02
2.490000e-06	3.999442e-09	5.318021e-09	2.781255e-02	3.429625e+02
2.500000e-06	-1.007465e-07	5.044418e-09	-7.006018e-01	3.264113e+02
2.510000e-06	-2.054128e-07	4.753384e-09	-1.428463e+00	3.094205e+02
2.520000e-06	-3.099878e-07	4.447496e-09	-2.155689e+00	2.916291e+02
2.530000e-06	-4.144830e-07	4.127666e-09	-2.882359e+00	2.725768e+02
2.540000e-06	-5.188390e-07	3.788000e-09	-3.608063e+00	2.517354e+02
2.550000e-06	-6.229856e-07	3.424084e-09	-4.332309e+00	2.285523e+02
2.560000e-06	-7.269411e-07	3.036904e-09	-5.055227e+00	2.025013e+02
2.570000e-06	-8.306798e-07	2.621972e-09	-5.776637e+00	1.731366e+02
2.580000e-06	-9.341194e-07	2.167868e-09	-6.495967e+00	1.401439e+02
2.590000e-06	-1.037175e-06	1.663876e-09	-7.212628e+00	1.033844e+02
2.600000e-06	-1.139743e-06	1.103738e-09	-7.925897e+00	6.292619e+01
2.610000e-06	-1.241792e-06	4.774432e-10	-8.635558e+00	1.905890e+01
2.620000e-06	-1.343367e-06	-2.237038e-10	-9.341920e+00	-2.770936e+01
2.630000e-06	-1.444400e-06	-9.976481e-10	-1.004452e+01	-7.667424e+01
2.640000e-06	-1.544884e-06	-1.825370e-09	-1.074329e+01	-1.269745e+02
2.650000e-06	-1.644862e-06	-2.676723e-09	-1.143855e+01	-1.776458e+02
2.660000e-06	-1.744212e-06	-3.514370e-09	-1.212944e+01	-2.276833e+02
2.670000e-06	-1.842829e-06	-4.299934e-09	-1.281523e+01	-2.761088e+02
2.680000e-06	-1.940783e-06	-5.011826e-09	-1.349641e+01	-3.220355e+02
2.690000e-06	-2.038129e-06	-5.641192e-09	-1.417337e+01	-3.647247e+02
2.700000e-06	-2.134801e-06	-6.189938e-09	-1.484563e+01	-4.036292e+02
2.710000e-06	-2.230816e-06	-6.668634e-09	-1.551333e+01	-4.384210e+02
2.720000e-06	-2.326250e-06	-7.092320e-09	-1.617699e+01	-4.689991e+02
2.730000e-06	-2.420950e-06	-7.468048e-09	-1.683555e+01	-4.954800e+02
2.740000e-06	-2.514652e-06	-7.801109e-09	-1.748716e+01	-5.181692e+02
2.750000e-06	-2.607325e-06	-8.101823e-09	-1.813162e+01	-5.375207e+02
2.760000e-06	-2.699006e-06	-8.378427e-09	-1.876918e+01	-5.540862e+02
2.770000e-06	-2.789625e-06	-8.631268e-09	-1.939936e+01	-5.684599e+02
2.780000e-06	-2.879229e-06	-8.856844e-09	-2.002247e+01	-5.812262e+02
2.790000e-06	-2.967856e-06	-9.060276e-09	-2.063879e+01	-5.929118e+02
2.800000e-06	-3.055525e-06	-9.251061e-09	-2.124845e+01	-6.039502e+02
2.810000e-06	-3.142160e-06	-9.432571e-09	-2.185092e+01	-6.146577e+02
2.820000e-06	-3.227580e-06	-9.602181e-09	-2.244494e+01	-6.252250e+02
2.830000e-06	-3.311756e-06	-9.759682e-09	-2.303030e+01	-6.357227e+02
2.840000e-06	-3.394708e-06	-9.909515e-09	-2.360716e+01	-6.461184e+02
2.850000e-06	-3.476509e-06	-1.005161e-08	-2.417602e+01	-6.563035e+02
2.860000e-06	-3.557197e-06	-1.018255e-08	-2.473713e+01	-6.661252e+02
2.870000e-06	-3.636695e-06	-1.030064e-08	-2.528997e+01	-6.754195e+02
2.880000e-06	-3.714875e-06	-1.041062e-08	-2.583364e+01	-6.840414e+02
2.890000e-06	-3.791518e-06	-1.051695e-08	-2.636663e+01	-6.918893e+02
2.900000e-06	-3.866565e-06	-1.061920e-08	-2.688851e+01	-6.989204e+02
2.910000e-06	-3.940180e-06	-1.071668e-08	-2.740043e+01	-7.051565e+02
2.920000e-06	-4.012455e-06	-1.081238e-08	-2.790305e+01	-7.106808e+02
2.930000e-06	-4.083392e-06	-1.090706e-08	-2.839635e+01	-7.156252e+02
2.940000e-06	-4.152859e-06	-1.099528e-08	-2.887943e+01	-7.201527e+02
