# Temperatura_=_42.34
# Concentracion g/m^3_=_15500.0
# C_Vs_to_Am_M_A/Vsm_=_65563218390.804596
# pendiente_HvsI_1/m_=_3716.3
# ordenada_HvsI_A/m_=_1297.0
# frecuencia_Hz_=_300799.2004977189

Tiempo_(s)	Campo_(V.s)	Magnetizacion_(V.s)	Campo_(kA/m)	Magnetizacion_(A/m)
0.000000e+00	-5.508954e-06	-1.229471e-08	-3.830790e+01	-8.052920e+02
1.000000e-08	-5.506973e-06	-1.229706e-08	-3.829413e+01	-8.054395e+02
2.000000e-08	-5.503007e-06	-1.229588e-08	-3.826655e+01	-8.056327e+02
3.000000e-08	-5.497308e-06	-1.228786e-08	-3.822692e+01	-8.057981e+02
4.000000e-08	-5.489979e-06	-1.227347e-08	-3.817596e+01	-8.058546e+02
5.000000e-08	-5.480975e-06	-1.225795e-08	-3.811334e+01	-8.057251e+02
6.000000e-08	-5.469993e-06	-1.224515e-08	-3.803698e+01	-8.053476e+02
7.000000e-08	-5.456922e-06	-1.222397e-08	-3.794609e+01	-8.046838e+02
8.000000e-08	-5.441842e-06	-1.221711e-08	-3.784122e+01	-8.037241e+02
9.000000e-08	-5.424400e-06	-1.225630e-08	-3.771994e+01	-8.024893e+02
1.000000e-07	-5.404649e-06	-1.225928e-08	-3.758259e+01	-8.010270e+02
1.100000e-07	-5.382893e-06	-1.222564e-08	-3.743131e+01	-7.994048e+02
1.200000e-07	-5.359359e-06	-1.219002e-08	-3.726766e+01	-7.977004e+02
1.300000e-07	-5.334402e-06	-1.208916e-08	-3.709411e+01	-7.959906e+02
1.400000e-07	-5.307874e-06	-1.208658e-08	-3.690964e+01	-7.943399e+02
1.500000e-07	-5.279458e-06	-1.214347e-08	-3.671204e+01	-7.927914e+02
1.600000e-07	-5.249366e-06	-1.203880e-08	-3.650279e+01	-7.913601e+02
1.700000e-07	-5.217719e-06	-1.206057e-08	-3.628273e+01	-7.900306e+02
1.800000e-07	-5.184048e-06	-1.209893e-08	-3.604859e+01	-7.887590e+02
1.900000e-07	-5.148408e-06	-1.199391e-08	-3.580075e+01	-7.874786e+02
2.000000e-07	-5.111224e-06	-1.201509e-08	-3.554219e+01	-7.861088e+02
2.100000e-07	-5.072304e-06	-1.196038e-08	-3.527155e+01	-7.845668e+02
2.200000e-07	-5.031590e-06	-1.186107e-08	-3.498844e+01	-7.827784e+02
2.300000e-07	-4.988904e-06	-1.189747e-08	-3.469161e+01	-7.806891e+02
2.400000e-07	-4.944255e-06	-1.187330e-08	-3.438113e+01	-7.782713e+02
2.500000e-07	-4.897919e-06	-1.183535e-08	-3.405892e+01	-7.755285e+02
2.600000e-07	-4.849721e-06	-1.178526e-08	-3.372376e+01	-7.724951e+02
2.700000e-07	-4.799429e-06	-1.169585e-08	-3.337404e+01	-7.692320e+02
2.800000e-07	-4.747047e-06	-1.168943e-08	-3.300979e+01	-7.658178e+02
2.900000e-07	-4.692826e-06	-1.165735e-08	-3.263275e+01	-7.623381e+02
3.000000e-07	-4.637003e-06	-1.159326e-08	-3.224457e+01	-7.588737e+02
3.100000e-07	-4.579487e-06	-1.154656e-08	-3.184462e+01	-7.554886e+02
3.200000e-07	-4.520181e-06	-1.152040e-08	-3.143222e+01	-7.522212e+02
3.300000e-07	-4.459263e-06	-1.148362e-08	-3.100861e+01	-7.490781e+02
3.400000e-07	-4.396842e-06	-1.139255e-08	-3.057455e+01	-7.460325e+02
3.500000e-07	-4.332977e-06	-1.132511e-08	-3.013045e+01	-7.430275e+02
3.600000e-07	-4.267565e-06	-1.126652e-08	-2.967559e+01	-7.399834e+02
3.700000e-07	-4.200465e-06	-1.123172e-08	-2.920899e+01	-7.368080e+02
3.800000e-07	-4.131722e-06	-1.120195e-08	-2.873097e+01	-7.334094e+02
3.900000e-07	-4.061471e-06	-1.111971e-08	-2.824246e+01	-7.297083e+02
4.000000e-07	-3.989940e-06	-1.104997e-08	-2.774506e+01	-7.256491e+02
4.100000e-07	-3.917175e-06	-1.098512e-08	-2.723907e+01	-7.212078e+02
4.200000e-07	-3.842853e-06	-1.091468e-08	-2.672225e+01	-7.163954e+02
4.300000e-07	-3.766783e-06	-1.083150e-08	-2.619328e+01	-7.112565e+02
4.400000e-07	-3.689184e-06	-1.075234e-08	-2.565368e+01	-7.058633e+02
4.500000e-07	-3.610141e-06	-1.069997e-08	-2.510403e+01	-7.003054e+02
4.600000e-07	-3.529543e-06	-1.063805e-08	-2.454357e+01	-6.946771e+02
4.700000e-07	-3.447582e-06	-1.055822e-08	-2.397363e+01	-6.890633e+02
4.800000e-07	-3.364447e-06	-1.045635e-08	-2.339553e+01	-6.835270e+02
4.900000e-07	-3.280262e-06	-1.036064e-08	-2.281013e+01	-6.780993e+02
5.000000e-07	-3.195136e-06	-1.028513e-08	-2.221818e+01	-6.727732e+02
5.100000e-07	-3.109010e-06	-1.020477e-08	-2.161929e+01	-6.675035e+02
5.200000e-07	-3.021878e-06	-1.011279e-08	-2.101339e+01	-6.622111e+02
5.300000e-07	-2.933818e-06	-1.001324e-08	-2.040104e+01	-6.567929e+02
5.400000e-07	-2.844865e-06	-9.919003e-09	-1.978249e+01	-6.511348e+02
5.500000e-07	-2.754784e-06	-9.820948e-09	-1.915609e+01	-6.451272e+02
5.600000e-07	-2.663454e-06	-9.707383e-09	-1.852100e+01	-6.386794e+02
5.700000e-07	-2.571100e-06	-9.593264e-09	-1.787879e+01	-6.317331e+02
5.800000e-07	-2.477885e-06	-9.490666e-09	-1.723060e+01	-6.242700e+02
5.900000e-07	-2.383866e-06	-9.392610e-09	-1.657681e+01	-6.163156e+02
6.000000e-07	-2.289074e-06	-9.279459e-09	-1.591766e+01	-6.079356e+02
6.100000e-07	-2.193492e-06	-9.151119e-09	-1.525300e+01	-5.992271e+02
6.200000e-07	-2.097212e-06	-9.020071e-09	-1.458349e+01	-5.903044e+02
6.300000e-07	-2.000229e-06	-8.893428e-09	-1.390910e+01	-5.812819e+02
6.400000e-07	-1.902376e-06	-8.764431e-09	-1.322865e+01	-5.722564e+02
6.500000e-07	-1.803629e-06	-8.623540e-09	-1.254199e+01	-5.632901e+02
6.600000e-07	-1.704122e-06	-8.481046e-09	-1.185004e+01	-5.543986e+02
6.700000e-07	-1.603984e-06	-8.342412e-09	-1.115371e+01	-5.455439e+02
6.800000e-07	-1.503283e-06	-8.197164e-09	-1.045346e+01	-5.366354e+02
6.900000e-07	-1.402109e-06	-8.036212e-09	-9.749921e+00	-5.275376e+02
7.000000e-07	-1.300492e-06	-7.869049e-09	-9.043297e+00	-5.180851e+02
7.100000e-07	-1.198446e-06	-7.704610e-09	-8.333697e+00	-5.081020e+02
7.200000e-07	-1.096017e-06	-7.536720e-09	-7.621429e+00	-4.974245e+02
7.300000e-07	-9.931897e-07	-7.357470e-09	-6.906396e+00	-4.859227e+02
7.400000e-07	-8.900100e-07	-7.167383e-09	-6.188909e+00	-4.735191e+02
7.500000e-07	-7.865144e-07	-6.974615e-09	-5.469227e+00	-4.602004e+02
7.600000e-07	-6.827556e-07	-6.779076e-09	-4.747713e+00	-4.460211e+02
7.700000e-07	-5.787946e-07	-6.572639e-09	-4.024795e+00	-4.310970e+02
7.800000e-07	-4.746898e-07	-6.353282e-09	-3.300876e+00	-4.155894e+02
7.900000e-07	-3.704474e-07	-6.128068e-09	-2.575999e+00	-3.996796e+02
8.000000e-07	-2.660722e-07	-5.899212e-09	-1.850201e+00	-3.835390e+02
8.100000e-07	-1.616085e-07	-5.658850e-09	-1.123786e+00	-3.672950e+02
8.200000e-07	-5.706192e-08	-5.401950e-09	-3.967945e-01	-3.509996e+02
8.300000e-07	4.749918e-08	-5.130516e-09	3.302976e-01	-3.346021e+02
8.400000e-07	1.520092e-07	-4.849553e-09	1.057035e+00	-3.179331e+02
8.500000e-07	2.564000e-07	-4.558225e-09	1.782942e+00	-3.006989e+02
8.600000e-07	3.607284e-07	-4.249714e-09	2.508416e+00	-2.824921e+02
8.700000e-07	4.649558e-07	-3.919667e-09	3.233188e+00	-2.628150e+02
8.800000e-07	5.690295e-07	-3.569229e-09	3.956890e+00	-2.411170e+02
8.900000e-07	6.729423e-07	-3.195826e-09	4.679475e+00	-2.168422e+02
9.000000e-07	7.766217e-07	-2.792225e-09	5.400435e+00	-1.894829e+02
9.100000e-07	8.800733e-07	-2.352907e-09	6.119812e+00	-1.586336e+02
9.200000e-07	9.832300e-07	-1.873963e-09	6.837139e+00	-1.240409e+02
9.300000e-07	1.086059e-06	-1.346686e-09	7.552184e+00	-8.564350e+01
9.400000e-07	1.188502e-06	-7.559926e-10	8.264548e+00	-4.359760e+01
9.500000e-07	1.290495e-06	-8.762996e-11	8.973782e+00	1.715132e+00
9.600000e-07	1.392082e-06	6.620606e-10	9.680194e+00	4.969852e+01
9.700000e-07	1.493301e-06	1.476442e-09	1.038404e+01	9.957164e+01
9.800000e-07	1.594079e-06	2.328557e-09	1.108483e+01	1.504150e+02
9.900000e-07	1.694297e-06	3.181438e-09	1.178172e+01	2.012294e+02
1.000000e-06	1.793866e-06	3.993634e-09	1.247410e+01	2.510018e+02
1.010000e-06	1.892695e-06	4.734165e-09	1.316134e+01	2.987736e+02
1.020000e-06	1.990732e-06	5.392857e-09	1.384306e+01	3.437027e+02
1.030000e-06	2.087885e-06	5.975963e-09	1.451864e+01	3.851171e+02
1.040000e-06	2.184162e-06	6.491469e-09	1.518812e+01	4.225522e+02
1.050000e-06	2.279740e-06	6.945015e-09	1.585275e+01	4.557708e+02
1.060000e-06	2.374622e-06	7.341669e-09	1.651253e+01	4.847640e+02
1.070000e-06	2.468729e-06	7.692215e-09	1.716693e+01	5.097330e+02
1.080000e-06	2.562068e-06	8.005993e-09	1.781599e+01	5.310551e+02
1.090000e-06	2.654610e-06	8.288922e-09	1.845950e+01	5.492373e+02
1.100000e-06	2.746190e-06	8.544973e-09	1.909633e+01	5.648627e+02
1.110000e-06	2.836660e-06	8.778346e-09	1.972543e+01	5.785346e+02
1.120000e-06	2.925929e-06	8.995137e-09	2.034618e+01	5.908251e+02
1.130000e-06	3.014097e-06	9.198971e-09	2.095929e+01	6.022312e+02
1.140000e-06	3.101322e-06	9.389389e-09	2.156583e+01	6.131429e+02
1.150000e-06	3.187528e-06	9.563979e-09	2.216528e+01	6.238264e+02
1.160000e-06	3.272705e-06	9.723347e-09	2.275758e+01	6.344206e+02
1.170000e-06	3.356799e-06	9.870705e-09	2.334235e+01	6.449486e+02
1.180000e-06	3.439720e-06	1.001348e-08	2.391896e+01	6.553394e+02
1.190000e-06	3.521351e-06	1.015428e-08	2.448661e+01	6.654582e+02
1.200000e-06	3.601635e-06	1.028764e-08	2.504488e+01	6.751393e+02
1.210000e-06	3.680660e-06	1.040793e-08	2.559440e+01	6.842198e+02
1.220000e-06	3.758457e-06	1.051857e-08	2.613538e+01	6.925676e+02
1.230000e-06	3.834900e-06	1.062455e-08	2.666695e+01	7.001029e+02
1.240000e-06	3.909735e-06	1.072302e-08	2.718733e+01	7.068096e+02
1.250000e-06	3.982916e-06	1.081399e-08	2.769621e+01	7.127376e+02
1.260000e-06	4.054662e-06	1.090088e-08	2.819512e+01	7.179951e+02
1.270000e-06	4.125064e-06	1.098716e-08	2.868468e+01	7.227331e+02
1.280000e-06	4.194056e-06	1.107302e-08	2.916443e+01	7.271253e+02
1.290000e-06	4.261581e-06	1.115644e-08	2.963398e+01	7.313455e+02
1.300000e-06	4.327480e-06	1.123459e-08	3.009222e+01	7.355463e+02
1.310000e-06	4.391806e-06	1.130724e-08	3.053953e+01	7.398415e+02
1.320000e-06	4.454713e-06	1.137660e-08	3.097697e+01	7.442944e+02
1.330000e-06	4.516219e-06	1.144219e-08	3.140467e+01	7.489134e+02
1.340000e-06	4.576252e-06	1.150303e-08	3.182213e+01	7.536549e+02
1.350000e-06	4.634532e-06	1.156142e-08	3.222739e+01	7.584329e+02
1.360000e-06	4.691023e-06	1.162035e-08	3.262022e+01	7.631340e+02
1.370000e-06	4.745879e-06	1.167988e-08	3.300167e+01	7.676347e+02
1.380000e-06	4.798979e-06	1.173716e-08	3.337092e+01	7.718198e+02
1.390000e-06	4.850093e-06	1.178787e-08	3.372635e+01	7.755982e+02
1.400000e-06	4.899183e-06	1.183375e-08	3.406770e+01	7.789151e+02
1.410000e-06	4.946459e-06	1.187874e-08	3.439646e+01	7.817585e+02
1.420000e-06	4.992108e-06	1.192099e-08	3.471389e+01	7.841598e+02
1.430000e-06	5.036083e-06	1.195784e-08	3.501968e+01	7.861880e+02
1.440000e-06	5.078147e-06	1.199136e-08	3.531218e+01	7.879393e+02
1.450000e-06	5.118359e-06	1.202619e-08	3.559181e+01	7.895235e+02
1.460000e-06	5.156904e-06	1.206317e-08	3.585984e+01	7.910486e+02
1.470000e-06	5.193771e-06	1.209960e-08	3.611620e+01	7.926064e+02
1.480000e-06	5.228733e-06	1.213217e-08	3.635932e+01	7.942608e+02
1.490000e-06	5.261704e-06	1.216102e-08	3.658859e+01	7.960403e+02
1.500000e-06	5.292903e-06	1.218633e-08	3.680554e+01	7.979355e+02
1.510000e-06	5.322423e-06	1.220701e-08	3.701081e+01	7.999022e+02
1.520000e-06	5.350135e-06	1.222530e-08	3.720351e+01	8.018689e+02
1.530000e-06	5.375751e-06	1.224317e-08	3.738164e+01	8.037479e+02
1.540000e-06	5.399338e-06	1.226067e-08	3.754566e+01	8.054486e+02
1.550000e-06	5.421151e-06	1.227630e-08	3.769735e+01	8.068904e+02
1.560000e-06	5.441158e-06	1.229177e-08	3.783647e+01	8.080147e+02
1.570000e-06	5.459203e-06	1.230826e-08	3.796195e+01	8.087924e+02
1.580000e-06	5.475246e-06	1.232280e-08	3.807351e+01	8.092285e+02
1.590000e-06	5.489313e-06	1.233208e-08	3.817132e+01	8.093604e+02
1.600000e-06	5.501248e-06	1.233698e-08	3.825432e+01	8.092528e+02
1.610000e-06	5.510986e-06	1.234093e-08	3.832204e+01	8.089885e+02
1.620000e-06	5.518713e-06	1.234426e-08	3.837576e+01	8.086567e+02
1.630000e-06	5.524636e-06	1.234618e-08	3.841695e+01	8.083407e+02
1.640000e-06	5.528749e-06	1.234765e-08	3.844555e+01	8.081069e+02
1.650000e-06	5.530785e-06	1.235293e-08	3.845971e+01	8.079956e+02
1.660000e-06	5.530827e-06	1.235930e-08	3.846000e+01	8.080160e+02
1.670000e-06	5.529120e-06	1.235657e-08	3.844813e+01	8.081460e+02
1.680000e-06	5.525709e-06	1.234824e-08	3.842441e+01	8.083355e+02
1.690000e-06	5.520411e-06	1.233841e-08	3.838757e+01	8.085139e+02
1.700000e-06	5.513210e-06	1.233015e-08	3.833750e+01	8.086008e+02
1.710000e-06	5.504345e-06	1.232331e-08	3.827585e+01	8.085173e+02
1.720000e-06	5.493761e-06	1.231745e-08	3.820225e+01	8.081975e+02
1.730000e-06	5.481166e-06	1.232346e-08	3.811467e+01	8.075971e+02
1.740000e-06	5.466540e-06	1.228680e-08	3.801297e+01	8.067004e+02
1.750000e-06	5.449845e-06	1.222489e-08	3.789688e+01	8.055217e+02
1.760000e-06	5.430506e-06	1.221763e-08	3.776239e+01	8.041032e+02
1.770000e-06	5.408512e-06	1.221048e-08	3.760945e+01	8.025092e+02
1.780000e-06	5.384656e-06	1.226573e-08	3.744356e+01	8.008160e+02
1.790000e-06	5.359824e-06	1.226985e-08	3.727089e+01	7.991017e+02
1.800000e-06	5.334047e-06	1.213731e-08	3.709164e+01	7.974341e+02
1.810000e-06	5.306178e-06	1.218888e-08	3.689785e+01	7.958617e+02
1.820000e-06	5.276078e-06	1.217773e-08	3.668854e+01	7.944059e+02
1.830000e-06	5.244430e-06	1.206840e-08	3.646847e+01	7.930577e+02
1.840000e-06	5.210960e-06	1.215833e-08	3.623573e+01	7.917790e+02
1.850000e-06	5.175779e-06	1.207374e-08	3.599109e+01	7.905071e+02
1.860000e-06	5.138836e-06	1.198975e-08	3.573419e+01	7.891639e+02
1.870000e-06	5.099700e-06	1.208297e-08	3.546205e+01	7.876658e+02
1.880000e-06	5.058884e-06	1.196216e-08	3.517823e+01	7.859359e+02
1.890000e-06	5.016504e-06	1.191855e-08	3.488353e+01	7.839147e+02
1.900000e-06	4.972221e-06	1.188943e-08	3.457560e+01	7.815683e+02
1.910000e-06	4.926100e-06	1.178393e-08	3.425488e+01	7.788936e+02
1.920000e-06	4.878081e-06	1.187972e-08	3.392097e+01	7.759185e+02
1.930000e-06	4.828329e-06	1.178810e-08	3.357500e+01	7.726987e+02
1.940000e-06	4.776761e-06	1.169529e-08	3.321641e+01	7.693100e+02
1.950000e-06	4.723054e-06	1.171907e-08	3.284295e+01	7.658375e+02
1.960000e-06	4.667589e-06	1.162429e-08	3.245726e+01	7.623640e+02
1.970000e-06	4.610463e-06	1.159301e-08	3.206002e+01	7.589580e+02
1.980000e-06	4.551768e-06	1.150175e-08	3.165187e+01	7.556640e+02
1.990000e-06	4.491482e-06	1.147112e-08	3.123266e+01	7.524957e+02
2.000000e-06	4.429412e-06	1.147133e-08	3.080104e+01	7.494333e+02
2.010000e-06	4.365822e-06	1.139184e-08	3.035885e+01	7.464260e+02
2.020000e-06	4.300680e-06	1.136956e-08	2.990587e+01	7.433980e+02
2.030000e-06	4.234106e-06	1.125478e-08	2.944293e+01	7.402590e+02
2.040000e-06	4.166034e-06	1.120744e-08	2.896957e+01	7.369158e+02
2.050000e-06	4.096221e-06	1.115562e-08	2.848411e+01	7.332855e+02
2.060000e-06	4.024905e-06	1.106085e-08	2.798819e+01	7.293065e+02
2.070000e-06	3.952196e-06	1.103334e-08	2.748259e+01	7.249477e+02
2.080000e-06	3.878101e-06	1.095505e-08	2.696736e+01	7.202124e+02
2.090000e-06	3.802391e-06	1.092253e-08	2.644088e+01	7.151385e+02
2.100000e-06	3.724915e-06	1.083436e-08	2.590214e+01	7.097929e+02
2.110000e-06	3.646046e-06	1.073235e-08	2.535370e+01	7.042626e+02
2.120000e-06	3.565985e-06	1.065802e-08	2.479698e+01	6.986420e+02
2.130000e-06	3.484758e-06	1.057235e-08	2.423215e+01	6.930192e+02
2.140000e-06	3.402427e-06	1.052432e-08	2.365964e+01	6.874628e+02
2.150000e-06	3.318964e-06	1.043052e-08	2.307925e+01	6.820113e+02
2.160000e-06	3.234109e-06	1.034176e-08	2.248919e+01	6.766663e+02
2.170000e-06	3.147849e-06	1.024783e-08	2.188937e+01	6.713904e+02
2.180000e-06	3.060539e-06	1.015519e-08	2.128223e+01	6.661112e+02
2.190000e-06	2.972281e-06	1.006704e-08	2.066851e+01	6.607297e+02
2.200000e-06	2.883056e-06	9.965902e-09	2.004806e+01	6.551330e+02
2.210000e-06	2.792896e-06	9.880510e-09	1.942111e+01	6.492090e+02
2.220000e-06	2.701887e-06	9.787219e-09	1.878826e+01	6.428620e+02
2.230000e-06	2.609917e-06	9.681013e-09	1.814872e+01	6.360258e+02
2.240000e-06	2.516845e-06	9.555409e-09	1.750152e+01	6.286731e+02
2.250000e-06	2.422761e-06	9.435871e-09	1.684728e+01	6.208200e+02
2.260000e-06	2.327833e-06	9.324854e-09	1.618717e+01	6.125242e+02
2.270000e-06	2.232112e-06	9.221210e-09	1.552156e+01	6.038771e+02
2.280000e-06	2.135614e-06	9.105338e-09	1.485053e+01	5.949907e+02
2.290000e-06	2.038392e-06	8.974559e-09	1.417448e+01	5.859809e+02
2.300000e-06	1.940505e-06	8.842147e-09	1.349379e+01	5.769497e+02
2.310000e-06	1.842070e-06	8.706311e-09	1.280930e+01	5.679680e+02
2.320000e-06	1.743095e-06	8.567637e-09	1.212105e+01	5.590620e+02
2.330000e-06	1.643613e-06	8.415309e-09	1.142928e+01	5.502056e+02
2.340000e-06	1.543529e-06	8.270169e-09	1.073332e+01	5.413190e+02
2.350000e-06	1.442717e-06	8.123220e-09	1.003230e+01	5.322753e+02
2.360000e-06	1.341291e-06	7.967638e-09	9.327007e+00	5.229139e+02
2.370000e-06	1.239337e-06	7.800625e-09	8.618043e+00	5.130593e+02
2.380000e-06	1.136908e-06	7.626446e-09	7.905777e+00	5.025433e+02
2.390000e-06	1.034023e-06	7.456821e-09	7.190343e+00	4.912270e+02
2.400000e-06	9.307206e-07	7.278537e-09	6.472001e+00	4.790203e+02
2.410000e-06	8.270800e-07	7.090554e-09	5.751310e+00	4.658957e+02
2.420000e-06	7.231546e-07	6.892849e-09	5.028638e+00	4.518932e+02
2.430000e-06	6.190309e-07	6.686254e-09	4.304588e+00	4.371167e+02
2.440000e-06	5.147790e-07	6.470235e-09	3.579646e+00	4.217194e+02
2.450000e-06	4.103808e-07	6.243957e-09	2.853687e+00	4.058808e+02
2.460000e-06	3.058404e-07	6.010089e-09	2.126739e+00	3.897772e+02
2.470000e-06	2.011585e-07	5.772169e-09	1.398807e+00	3.735483e+02
2.480000e-06	9.641463e-08	5.526228e-09	6.704435e-01	3.572646e+02
2.490000e-06	-8.324790e-09	5.264034e-09	-5.788853e-02	3.408994e+02
2.500000e-06	-1.131127e-07	4.983598e-09	-7.865578e-01	3.243093e+02
2.510000e-06	-2.178647e-07	4.689631e-09	-1.514977e+00	3.072273e+02
2.520000e-06	-3.224678e-07	4.385306e-09	-2.242361e+00	2.892685e+02
2.530000e-06	-4.269568e-07	4.063033e-09	-2.968952e+00	2.699519e+02
2.540000e-06	-5.313221e-07	3.716529e-09	-3.694683e+00	2.487347e+02
2.550000e-06	-6.354792e-07	3.347115e-09	-4.418965e+00	2.250576e+02
2.560000e-06	-7.394037e-07	2.957754e-09	-5.141631e+00	1.983980e+02
2.570000e-06	-8.431180e-07	2.538563e-09	-5.862834e+00	1.683240e+02
2.580000e-06	-9.465899e-07	2.074974e-09	-6.582352e+00	1.345459e+02
2.590000e-06	-1.049643e-06	1.560574e-09	-7.298957e+00	9.695867e+01
2.600000e-06	-1.152158e-06	9.899393e-10	-8.011825e+00	5.567040e+01
2.610000e-06	-1.254193e-06	3.516993e-10	-8.721350e+00	1.101479e+01
2.620000e-06	-1.355772e-06	-3.671190e-10	-9.427706e+00	-3.645607e+01
2.630000e-06	-1.456779e-06	-1.162220e-09	-1.013008e+01	-8.599746e+01
2.640000e-06	-1.557163e-06	-2.006408e-09	-1.082812e+01	-1.367150e+02
2.650000e-06	-1.656939e-06	-2.862310e-09	-1.152194e+01	-1.876211e+02
2.660000e-06	-1.756050e-06	-3.694398e-09	-1.221114e+01	-2.377001e+02
2.670000e-06	-1.854534e-06	-4.472048e-09	-1.289597e+01	-2.859760e+02
2.680000e-06	-1.952482e-06	-5.173123e-09	-1.357708e+01	-3.315771e+02
2.690000e-06	-2.049787e-06	-5.786578e-09	-1.425371e+01	-3.737910e+02
2.700000e-06	-2.146338e-06	-6.318345e-09	-1.492510e+01	-4.121063e+02
2.710000e-06	-2.242262e-06	-6.786932e-09	-1.559213e+01	-4.462365e+02
2.720000e-06	-2.337591e-06	-7.205134e-09	-1.625503e+01	-4.761247e+02
2.730000e-06	-2.432167e-06	-7.575254e-09	-1.691269e+01	-5.019293e+02
2.740000e-06	-2.525808e-06	-7.902407e-09	-1.756385e+01	-5.239935e+02
2.750000e-06	-2.618413e-06	-8.197501e-09	-1.820779e+01	-5.428009e+02
2.760000e-06	-2.709922e-06	-8.466834e-09	-1.884413e+01	-5.589230e+02
2.770000e-06	-2.800366e-06	-8.711830e-09	-1.947305e+01	-5.729633e+02
2.780000e-06	-2.889776e-06	-8.932021e-09	-2.009479e+01	-5.855046e+02
2.790000e-06	-2.978204e-06	-9.133731e-09	-2.070969e+01	-5.970630e+02
2.800000e-06	-3.065732e-06	-9.324481e-09	-2.131834e+01	-6.080536e+02
2.810000e-06	-3.152269e-06	-9.505152e-09	-2.192010e+01	-6.187697e+02
2.820000e-06	-3.237603e-06	-9.674617e-09	-2.251349e+01	-6.293772e+02
2.830000e-06	-3.321618e-06	-9.832546e-09	-2.309771e+01	-6.399222e+02
2.840000e-06	-3.404419e-06	-9.979903e-09	-2.367349e+01	-6.503519e+02
2.850000e-06	-3.486097e-06	-1.011738e-08	-2.424146e+01	-6.605420e+02
2.860000e-06	-3.566618e-06	-1.024493e-08	-2.480138e+01	-6.703309e+02
2.870000e-06	-3.645951e-06	-1.036271e-08	-2.535304e+01	-6.795524e+02
2.880000e-06	-3.723946e-06	-1.047325e-08	-2.589540e+01	-6.880657e+02
2.890000e-06	-3.800374e-06	-1.057890e-08	-2.642686e+01	-6.957783e+02
2.900000e-06	-3.875260e-06	-1.068015e-08	-2.694760e+01	-7.026603e+02
2.910000e-06	-3.948710e-06	-1.077709e-08	-2.745835e+01	-7.087476e+02
2.920000e-06	-4.020779e-06	-1.087175e-08	-2.795950e+01	-7.141369e+02
2.930000e-06	-4.091480e-06	-1.096224e-08	-2.845114e+01	-7.189718e+02
2.940000e-06	-4.160654e-06	-1.104693e-08	-2.893216e+01	-7.234228e+02
