# Temperatura_=_25.85
# Concentracion g/m^3_=_15500.0
# C_Vs_to_Am_M_A/Vsm_=_65563218390.804596
# pendiente_HvsI_1/m_=_3716.3
# ordenada_HvsI_A/m_=_1297.0
# frecuencia_Hz_=_300838.3340402351

Tiempo_(s)	Campo_(V.s)	Magnetizacion_(V.s)	Campo_(kA/m)	Magnetizacion_(A/m)
0.000000e+00	-2.858587e-06	-5.217073e-09	-1.980423e+01	-3.410091e+02
1.000000e-08	-2.858205e-06	-5.216601e-09	-1.980158e+01	-3.410725e+02
2.000000e-08	-2.857064e-06	-5.212205e-09	-1.979367e+01	-3.410672e+02
3.000000e-08	-2.854901e-06	-5.209119e-09	-1.977869e+01	-3.409905e+02
4.000000e-08	-2.851484e-06	-5.208797e-09	-1.975502e+01	-3.408409e+02
5.000000e-08	-2.847042e-06	-5.207155e-09	-1.972424e+01	-3.406184e+02
6.000000e-08	-2.841845e-06	-5.201312e-09	-1.968824e+01	-3.403250e+02
7.000000e-08	-2.835822e-06	-5.195978e-09	-1.964651e+01	-3.399643e+02
8.000000e-08	-2.828808e-06	-5.198524e-09	-1.959792e+01	-3.395410e+02
9.000000e-08	-2.820671e-06	-5.206021e-09	-1.954155e+01	-3.390610e+02
1.000000e-07	-2.811232e-06	-5.187167e-09	-1.947615e+01	-3.385302e+02
1.100000e-07	-2.800425e-06	-5.149766e-09	-1.940128e+01	-3.379542e+02
1.200000e-07	-2.788555e-06	-5.128019e-09	-1.931905e+01	-3.373376e+02
1.300000e-07	-2.775927e-06	-5.159743e-09	-1.923156e+01	-3.366834e+02
1.400000e-07	-2.762417e-06	-5.157646e-09	-1.913796e+01	-3.359927e+02
1.500000e-07	-2.747915e-06	-5.103660e-09	-1.903750e+01	-3.352646e+02
1.600000e-07	-2.732387e-06	-5.114568e-09	-1.892992e+01	-3.344966e+02
1.700000e-07	-2.715429e-06	-5.140136e-09	-1.881243e+01	-3.336846e+02
1.800000e-07	-2.697197e-06	-5.102382e-09	-1.868612e+01	-3.328234e+02
1.900000e-07	-2.678349e-06	-5.056184e-09	-1.855554e+01	-3.319076e+02
2.000000e-07	-2.658838e-06	-5.079964e-09	-1.842037e+01	-3.309319e+02
2.100000e-07	-2.638359e-06	-5.061675e-09	-1.827849e+01	-3.298918e+02
2.200000e-07	-2.617068e-06	-5.005685e-09	-1.813099e+01	-3.287842e+02
2.300000e-07	-2.595020e-06	-5.037560e-09	-1.797824e+01	-3.276072e+02
2.400000e-07	-2.571993e-06	-5.041248e-09	-1.781871e+01	-3.263608e+02
2.500000e-07	-2.548016e-06	-4.953693e-09	-1.765260e+01	-3.250464e+02
2.600000e-07	-2.523251e-06	-4.927704e-09	-1.748103e+01	-3.236664e+02
2.700000e-07	-2.497621e-06	-4.945371e-09	-1.730347e+01	-3.222243e+02
2.800000e-07	-2.470987e-06	-4.914212e-09	-1.711895e+01	-3.207235e+02
2.900000e-07	-2.443274e-06	-4.881982e-09	-1.692695e+01	-3.191677e+02
3.000000e-07	-2.414547e-06	-4.868393e-09	-1.672793e+01	-3.175597e+02
3.100000e-07	-2.385037e-06	-4.849920e-09	-1.652348e+01	-3.159017e+02
3.200000e-07	-2.354836e-06	-4.814859e-09	-1.631425e+01	-3.141948e+02
3.300000e-07	-2.323882e-06	-4.791482e-09	-1.609980e+01	-3.124391e+02
3.400000e-07	-2.292088e-06	-4.756583e-09	-1.587953e+01	-3.106341e+02
3.500000e-07	-2.259581e-06	-4.716329e-09	-1.565433e+01	-3.087789e+02
3.600000e-07	-2.226504e-06	-4.702374e-09	-1.542517e+01	-3.068721e+02
3.700000e-07	-2.192621e-06	-4.690574e-09	-1.519043e+01	-3.049129e+02
3.800000e-07	-2.157541e-06	-4.643913e-09	-1.494740e+01	-3.029007e+02
3.900000e-07	-2.121405e-06	-4.600263e-09	-1.469705e+01	-3.008357e+02
4.000000e-07	-2.084657e-06	-4.592281e-09	-1.444246e+01	-2.987190e+02
4.100000e-07	-2.047327e-06	-4.556060e-09	-1.418384e+01	-2.965521e+02
4.200000e-07	-2.009272e-06	-4.501323e-09	-1.392019e+01	-2.943370e+02
4.300000e-07	-1.970483e-06	-4.465905e-09	-1.365147e+01	-2.920760e+02
4.400000e-07	-1.930938e-06	-4.441552e-09	-1.337749e+01	-2.897707e+02
4.500000e-07	-1.890712e-06	-4.408877e-09	-1.309881e+01	-2.874226e+02
4.600000e-07	-1.850080e-06	-4.373534e-09	-1.281731e+01	-2.850317e+02
4.700000e-07	-1.809044e-06	-4.328769e-09	-1.253302e+01	-2.825973e+02
4.800000e-07	-1.767276e-06	-4.285787e-09	-1.224365e+01	-2.801171e+02
4.900000e-07	-1.724406e-06	-4.250045e-09	-1.194665e+01	-2.775877e+02
5.000000e-07	-1.680543e-06	-4.210444e-09	-1.164276e+01	-2.750050e+02
5.100000e-07	-1.636128e-06	-4.171657e-09	-1.133506e+01	-2.723641e+02
5.200000e-07	-1.591356e-06	-4.125620e-09	-1.102488e+01	-2.696602e+02
5.300000e-07	-1.546143e-06	-4.087630e-09	-1.071164e+01	-2.668885e+02
5.400000e-07	-1.500341e-06	-4.052424e-09	-1.039433e+01	-2.640455e+02
5.500000e-07	-1.453970e-06	-4.001978e-09	-1.007307e+01	-2.611283e+02
5.600000e-07	-1.407107e-06	-3.943450e-09	-9.748405e+00	-2.581355e+02
5.700000e-07	-1.359730e-06	-3.900923e-09	-9.420178e+00	-2.550670e+02
5.800000e-07	-1.311846e-06	-3.860118e-09	-9.088438e+00	-2.519238e+02
5.900000e-07	-1.263551e-06	-3.810630e-09	-8.753850e+00	-2.487074e+02
6.000000e-07	-1.214918e-06	-3.763931e-09	-8.416926e+00	-2.454202e+02
6.100000e-07	-1.165929e-06	-3.711040e-09	-8.077531e+00	-2.420640e+02
6.200000e-07	-1.116458e-06	-3.655555e-09	-7.734796e+00	-2.386403e+02
6.300000e-07	-1.066297e-06	-3.601741e-09	-7.387280e+00	-2.351498e+02
6.400000e-07	-1.015523e-06	-3.547707e-09	-7.035522e+00	-2.315917e+02
6.500000e-07	-9.642839e-07	-3.489677e-09	-6.680538e+00	-2.279642e+02
6.600000e-07	-9.124976e-07	-3.433439e-09	-6.321764e+00	-2.242641e+02
6.700000e-07	-8.602623e-07	-3.376991e-09	-5.959878e+00	-2.204875e+02
6.800000e-07	-8.077145e-07	-3.316004e-09	-5.595828e+00	-2.166297e+02
6.900000e-07	-7.549401e-07	-3.253254e-09	-5.230209e+00	-2.126859e+02
7.000000e-07	-7.019482e-07	-3.190462e-09	-4.863082e+00	-2.086516e+02
7.100000e-07	-6.487260e-07	-3.130749e-09	-4.494360e+00	-2.045227e+02
7.200000e-07	-5.952892e-07	-3.069422e-09	-4.124151e+00	-2.002961e+02
7.300000e-07	-5.416790e-07	-3.003647e-09	-3.752740e+00	-1.959692e+02
7.400000e-07	-4.878313e-07	-2.933438e-09	-3.379685e+00	-1.915406e+02
7.500000e-07	-4.337535e-07	-2.860571e-09	-3.005035e+00	-1.870089e+02
7.600000e-07	-3.795459e-07	-2.784854e-09	-2.629486e+00	-1.823728e+02
7.700000e-07	-3.251769e-07	-2.709655e-09	-2.252819e+00	-1.776307e+02
7.800000e-07	-2.707032e-07	-2.637150e-09	-1.875426e+00	-1.727799e+02
7.900000e-07	-2.161939e-07	-2.564387e-09	-1.497787e+00	-1.678163e+02
8.000000e-07	-1.616286e-07	-2.488775e-09	-1.119759e+00	-1.627343e+02
8.100000e-07	-1.070128e-07	-2.408617e-09	-7.413822e-01	-1.575266e+02
8.200000e-07	-5.238289e-08	-2.325747e-09	-3.629075e-01	-1.521846e+02
8.300000e-07	2.265943e-09	-2.239370e-09	1.569840e-02	-1.466983e+02
8.400000e-07	5.692507e-08	-2.149126e-09	3.943756e-01	-1.410572e+02
8.500000e-07	1.115641e-07	-2.055369e-09	7.729137e-01	-1.352510e+02
8.600000e-07	1.661776e-07	-1.962999e-09	1.151275e+00	-1.292695e+02
8.700000e-07	2.207352e-07	-1.872737e-09	1.529249e+00	-1.231037e+02
8.800000e-07	2.752462e-07	-1.780637e-09	1.906900e+00	-1.167457e+02
8.900000e-07	3.297022e-07	-1.682418e-09	2.284170e+00	-1.101888e+02
9.000000e-07	3.840283e-07	-1.575323e-09	2.660540e+00	-1.034266e+02
9.100000e-07	4.382146e-07	-1.466705e-09	3.035941e+00	-9.645304e+01
9.200000e-07	4.922131e-07	-1.359314e-09	3.410042e+00	-8.926078e+01
9.300000e-07	5.459414e-07	-1.247785e-09	3.782270e+00	-8.184042e+01
9.400000e-07	5.994687e-07	-1.127882e-09	4.153106e+00	-7.417937e+01
9.500000e-07	6.528041e-07	-1.002179e-09	4.522612e+00	-6.626091e+01
9.600000e-07	7.058677e-07	-8.748301e-10	4.890236e+00	-5.806368e+01
9.700000e-07	7.586883e-07	-7.473481e-10	5.256176e+00	-4.956169e+01
9.800000e-07	8.112775e-07	-6.142474e-10	5.620513e+00	-4.072498e+01
9.900000e-07	8.635762e-07	-4.697621e-10	5.982837e+00	-3.152094e+01
1.000000e-06	9.155420e-07	-3.178265e-10	6.342855e+00	-2.191642e+01
1.010000e-06	9.670407e-07	-1.622517e-10	6.699637e+00	-1.188036e+01
1.020000e-06	1.017957e-06	-2.757085e-12	7.052385e+00	-1.386976e+00
1.030000e-06	1.068183e-06	1.645766e-10	7.400348e+00	9.580973e+00
1.040000e-06	1.117762e-06	3.409331e-10	7.743829e+00	2.102885e+01
1.050000e-06	1.166874e-06	5.241650e-10	8.084075e+00	3.294728e+01
1.060000e-06	1.215648e-06	7.111481e-10	8.421986e+00	4.530987e+01
1.070000e-06	1.264201e-06	9.027470e-10	8.758354e+00	5.807196e+01
1.080000e-06	1.312449e-06	1.102061e-09	9.092620e+00	7.117037e+01
1.090000e-06	1.360204e-06	1.305929e-09	9.423461e+00	8.452450e+01
1.100000e-06	1.407405e-06	1.511011e-09	9.750474e+00	9.803859e+01
1.110000e-06	1.454167e-06	1.717111e-09	1.007444e+01	1.116051e+02
1.120000e-06	1.500449e-06	1.924502e-09	1.039508e+01	1.251092e+02
1.130000e-06	1.546131e-06	2.128102e-09	1.071156e+01	1.384334e+02
1.140000e-06	1.591236e-06	2.323563e-09	1.102405e+01	1.514632e+02
1.150000e-06	1.635962e-06	2.513351e-09	1.133391e+01	1.640921e+02
1.160000e-06	1.680423e-06	2.696505e-09	1.164194e+01	1.762261e+02
1.170000e-06	1.724353e-06	2.871747e-09	1.194628e+01	1.877876e+02
1.180000e-06	1.767378e-06	3.036691e-09	1.224436e+01	1.987184e+02
1.190000e-06	1.809367e-06	3.190290e-09	1.253526e+01	2.089809e+02
1.200000e-06	1.850521e-06	3.334997e-09	1.282037e+01	2.185581e+02
1.210000e-06	1.891178e-06	3.471774e-09	1.310204e+01	2.274529e+02
1.220000e-06	1.931334e-06	3.598341e-09	1.338024e+01	2.356853e+02
1.230000e-06	1.970812e-06	3.711980e-09	1.365374e+01	2.432895e+02
1.240000e-06	2.009639e-06	3.813781e-09	1.392273e+01	2.503100e+02
1.250000e-06	2.047810e-06	3.908578e-09	1.418718e+01	2.567978e+02
1.260000e-06	2.085217e-06	3.999887e-09	1.444634e+01	2.628061e+02
1.270000e-06	2.122032e-06	4.086471e-09	1.470139e+01	2.683870e+02
1.280000e-06	2.158382e-06	4.166920e-09	1.495323e+01	2.735887e+02
1.290000e-06	2.193915e-06	4.240794e-09	1.519940e+01	2.784532e+02
1.300000e-06	2.228312e-06	4.307968e-09	1.543770e+01	2.830155e+02
1.310000e-06	2.261699e-06	4.369724e-09	1.566900e+01	2.873027e+02
1.320000e-06	2.294395e-06	4.428471e-09	1.589552e+01	2.913354e+02
1.330000e-06	2.326454e-06	4.483547e-09	1.611762e+01	2.951281e+02
1.340000e-06	2.357712e-06	4.534636e-09	1.633418e+01	2.986908e+02
1.350000e-06	2.388153e-06	4.583057e-09	1.654507e+01	3.020311e+02
1.360000e-06	2.417759e-06	4.629677e-09	1.675018e+01	3.051556e+02
1.370000e-06	2.446662e-06	4.673097e-09	1.695042e+01	3.080710e+02
1.380000e-06	2.474927e-06	4.711978e-09	1.714624e+01	3.107857e+02
1.390000e-06	2.502165e-06	4.747152e-09	1.733494e+01	3.133100e+02
1.400000e-06	2.528083e-06	4.779166e-09	1.751450e+01	3.156563e+02
1.410000e-06	2.552994e-06	4.808834e-09	1.768708e+01	3.178387e+02
1.420000e-06	2.577158e-06	4.838810e-09	1.785450e+01	3.198722e+02
1.430000e-06	2.600458e-06	4.869271e-09	1.801591e+01	3.217721e+02
1.440000e-06	2.622854e-06	4.897802e-09	1.817108e+01	3.235531e+02
1.450000e-06	2.644341e-06	4.922462e-09	1.831994e+01	3.252278e+02
1.460000e-06	2.665099e-06	4.943355e-09	1.846374e+01	3.268068e+02
1.470000e-06	2.685149e-06	4.963109e-09	1.860266e+01	3.282981e+02
1.480000e-06	2.704226e-06	4.983311e-09	1.873482e+01	3.297067e+02
1.490000e-06	2.722299e-06	5.002885e-09	1.886003e+01	3.310353e+02
1.500000e-06	2.739497e-06	5.022568e-09	1.897918e+01	3.322845e+02
1.510000e-06	2.755600e-06	5.042033e-09	1.909074e+01	3.334536e+02
1.520000e-06	2.770501e-06	5.059964e-09	1.919397e+01	3.345415e+02
1.530000e-06	2.784376e-06	5.075236e-09	1.929009e+01	3.355471e+02
1.540000e-06	2.797281e-06	5.087809e-09	1.937950e+01	3.364702e+02
1.550000e-06	2.809055e-06	5.099007e-09	1.946107e+01	3.373117e+02
1.560000e-06	2.819468e-06	5.108776e-09	1.953321e+01	3.380739e+02
1.570000e-06	2.828707e-06	5.119243e-09	1.959722e+01	3.387601e+02
1.580000e-06	2.837084e-06	5.132458e-09	1.965525e+01	3.393748e+02
1.590000e-06	2.844551e-06	5.146358e-09	1.970699e+01	3.399227e+02
1.600000e-06	2.851007e-06	5.155566e-09	1.975171e+01	3.404082e+02
1.610000e-06	2.856531e-06	5.159736e-09	1.978998e+01	3.408351e+02
1.620000e-06	2.861273e-06	5.163225e-09	1.982283e+01	3.412060e+02
1.630000e-06	2.865067e-06	5.168342e-09	1.984912e+01	3.415219e+02
1.640000e-06	2.867554e-06	5.173899e-09	1.986635e+01	3.417823e+02
1.650000e-06	2.868875e-06	5.178114e-09	1.987550e+01	3.419852e+02
1.660000e-06	2.869308e-06	5.181454e-09	1.987850e+01	3.421274e+02
1.670000e-06	2.868835e-06	5.184564e-09	1.987523e+01	3.422054e+02
1.680000e-06	2.867441e-06	5.185553e-09	1.986557e+01	3.422155e+02
1.690000e-06	2.865130e-06	5.183049e-09	1.984956e+01	3.421547e+02
1.700000e-06	2.862036e-06	5.180907e-09	1.982812e+01	3.420211e+02
1.710000e-06	2.858167e-06	5.181966e-09	1.980132e+01	3.418146e+02
1.720000e-06	2.853170e-06	5.181488e-09	1.976670e+01	3.415365e+02
1.730000e-06	2.846962e-06	5.172046e-09	1.972369e+01	3.411902e+02
1.740000e-06	2.839894e-06	5.155060e-09	1.967472e+01	3.407802e+02
1.750000e-06	2.831950e-06	5.133068e-09	1.961969e+01	3.403122e+02
1.760000e-06	2.822521e-06	5.138761e-09	1.955436e+01	3.397922e+02
1.770000e-06	2.811501e-06	5.161870e-09	1.947802e+01	3.392259e+02
1.780000e-06	2.799764e-06	5.148486e-09	1.939671e+01	3.386181e+02
1.790000e-06	2.787922e-06	5.116369e-09	1.931466e+01	3.379722e+02
1.800000e-06	2.775118e-06	5.092101e-09	1.922596e+01	3.372896e+02
1.810000e-06	2.760543e-06	5.109366e-09	1.912498e+01	3.365701e+02
1.820000e-06	2.744989e-06	5.090325e-09	1.901723e+01	3.358114e+02
1.830000e-06	2.728947e-06	5.083979e-09	1.890609e+01	3.350096e+02
1.840000e-06	2.711668e-06	5.134775e-09	1.878638e+01	3.341597e+02
1.850000e-06	2.693130e-06	5.118916e-09	1.865795e+01	3.332565e+02
1.860000e-06	2.674000e-06	5.060235e-09	1.852542e+01	3.322944e+02
1.870000e-06	2.653970e-06	5.060351e-09	1.838665e+01	3.312688e+02
1.880000e-06	2.632574e-06	5.068572e-09	1.823841e+01	3.301762e+02
1.890000e-06	2.610204e-06	5.006090e-09	1.808344e+01	3.290146e+02
1.900000e-06	2.586910e-06	4.981699e-09	1.792206e+01	3.277834e+02
1.910000e-06	2.562612e-06	5.024772e-09	1.775372e+01	3.264837e+02
1.920000e-06	2.537662e-06	4.994378e-09	1.758087e+01	3.251179e+02
1.930000e-06	2.511917e-06	4.928115e-09	1.740250e+01	3.236892e+02
1.940000e-06	2.485285e-06	4.927321e-09	1.721800e+01	3.222011e+02
1.950000e-06	2.458028e-06	4.913270e-09	1.702917e+01	3.206571e+02
1.960000e-06	2.429822e-06	4.878301e-09	1.683375e+01	3.190605e+02
1.970000e-06	2.400272e-06	4.853282e-09	1.662903e+01	3.174135e+02
1.980000e-06	2.369700e-06	4.836571e-09	1.641723e+01	3.157173e+02
1.990000e-06	2.338410e-06	4.814508e-09	1.620045e+01	3.139725e+02
2.000000e-06	2.306387e-06	4.785814e-09	1.597860e+01	3.121786e+02
2.010000e-06	2.273603e-06	4.756309e-09	1.575147e+01	3.103346e+02
2.020000e-06	2.239994e-06	4.714558e-09	1.551863e+01	3.084393e+02
2.030000e-06	2.205677e-06	4.670193e-09	1.528088e+01	3.064918e+02
2.040000e-06	2.170805e-06	4.655710e-09	1.503929e+01	3.044913e+02
2.050000e-06	2.135285e-06	4.632137e-09	1.479321e+01	3.024380e+02
2.060000e-06	2.098988e-06	4.580985e-09	1.454174e+01	3.003326e+02
2.070000e-06	2.061650e-06	4.561297e-09	1.428307e+01	2.981767e+02
2.080000e-06	2.023225e-06	4.540663e-09	1.401686e+01	2.959722e+02
2.090000e-06	1.984112e-06	4.495901e-09	1.374588e+01	2.937211e+02
2.100000e-06	1.944457e-06	4.461756e-09	1.347116e+01	2.914256e+02
2.110000e-06	1.904159e-06	4.421963e-09	1.319197e+01	2.890870e+02
2.120000e-06	1.863247e-06	4.376840e-09	1.290853e+01	2.867057e+02
2.130000e-06	1.821771e-06	4.346363e-09	1.262119e+01	2.842811e+02
2.140000e-06	1.779728e-06	4.314896e-09	1.232992e+01	2.818114e+02
2.150000e-06	1.737097e-06	4.277698e-09	1.203457e+01	2.792933e+02
2.160000e-06	1.693997e-06	4.234750e-09	1.173598e+01	2.767228e+02
2.170000e-06	1.650465e-06	4.189716e-09	1.143439e+01	2.740951e+02
2.180000e-06	1.606303e-06	4.157293e-09	1.112843e+01	2.714055e+02
2.190000e-06	1.561497e-06	4.112936e-09	1.081802e+01	2.686491e+02
2.200000e-06	1.516174e-06	4.062508e-09	1.050402e+01	2.658220e+02
2.210000e-06	1.470387e-06	4.027550e-09	1.018681e+01	2.629212e+02
2.220000e-06	1.424179e-06	3.985171e-09	9.866681e+00	2.599451e+02
2.230000e-06	1.377462e-06	3.930477e-09	9.543023e+00	2.568931e+02
2.240000e-06	1.330097e-06	3.878281e-09	9.214885e+00	2.537661e+02
2.250000e-06	1.282091e-06	3.833768e-09	8.882300e+00	2.505657e+02
2.260000e-06	1.233526e-06	3.792786e-09	8.545844e+00	2.472938e+02
2.270000e-06	1.184533e-06	3.750207e-09	8.206420e+00	2.439526e+02
2.280000e-06	1.135151e-06	3.697824e-09	7.864298e+00	2.405438e+02
2.290000e-06	1.085373e-06	3.640305e-09	7.519443e+00	2.370679e+02
2.300000e-06	1.035150e-06	3.585670e-09	7.171497e+00	2.335248e+02
2.310000e-06	9.844738e-07	3.529416e-09	6.820413e+00	2.299127e+02
2.320000e-06	9.334889e-07	3.466971e-09	6.467191e+00	2.262289e+02
2.330000e-06	8.822204e-07	3.405397e-09	6.112004e+00	2.224695e+02
2.340000e-06	8.306745e-07	3.350852e-09	5.754895e+00	2.186299e+02
2.350000e-06	7.787583e-07	3.298314e-09	5.395220e+00	2.147053e+02
2.360000e-06	7.263411e-07	3.240121e-09	5.032075e+00	2.106911e+02
2.370000e-06	6.734470e-07	3.173427e-09	4.665626e+00	2.065832e+02
2.380000e-06	6.201305e-07	3.110418e-09	4.296251e+00	2.023781e+02
2.390000e-06	5.664355e-07	3.051047e-09	3.924253e+00	1.980733e+02
2.400000e-06	5.124101e-07	2.984882e-09	3.549966e+00	1.936669e+02
2.410000e-06	4.581256e-07	2.913471e-09	3.173884e+00	1.891578e+02
2.420000e-06	4.036435e-07	2.843928e-09	2.796433e+00	1.845446e+02
2.430000e-06	3.490353e-07	2.776525e-09	2.418109e+00	1.798258e+02
2.440000e-06	2.943135e-07	2.704644e-09	2.038998e+00	1.749989e+02
2.450000e-06	2.394822e-07	2.628025e-09	1.659127e+00	1.700602e+02
2.460000e-06	1.845870e-07	2.551231e-09	1.278815e+00	1.650046e+02
2.470000e-06	1.296653e-07	2.475247e-09	8.983183e-01	1.598249e+02
2.480000e-06	7.471546e-08	2.395470e-09	5.176270e-01	1.545128e+02
2.490000e-06	1.974185e-08	2.310760e-09	1.367711e-01	1.490587e+02
2.500000e-06	-3.524260e-08	2.223325e-09	-2.441600e-01	1.434521e+02
2.510000e-06	-9.023875e-08	2.134084e-09	-6.251721e-01	1.376825e+02
2.520000e-06	-1.452171e-07	2.044924e-09	-1.006061e+00	1.317397e+02
2.530000e-06	-2.001585e-07	1.952736e-09	-1.386694e+00	1.256145e+02
2.540000e-06	-2.550620e-07	1.856947e-09	-1.767064e+00	1.192987e+02
2.550000e-06	-3.099063e-07	1.760305e-09	-2.147024e+00	1.127853e+02
2.560000e-06	-3.646045e-07	1.663233e-09	-2.525972e+00	1.060680e+02
2.570000e-06	-4.191223e-07	1.559817e-09	-2.903670e+00	9.914070e+01
2.580000e-06	-4.734677e-07	1.447171e-09	-3.280174e+00	9.199638e+01
2.590000e-06	-5.275731e-07	1.330538e-09	-3.655015e+00	8.462622e+01
2.600000e-06	-5.813936e-07	1.215600e-09	-4.027882e+00	7.701838e+01
2.610000e-06	-6.348734e-07	1.099766e-09	-4.398389e+00	6.915710e+01
2.620000e-06	-6.879510e-07	9.760046e-10	-4.766109e+00	6.102202e+01
2.630000e-06	-7.404955e-07	8.464517e-10	-5.130137e+00	5.258812e+01
2.640000e-06	-7.925569e-07	7.132228e-10	-5.490817e+00	4.382620e+01
2.650000e-06	-8.442469e-07	5.756018e-10	-5.848924e+00	3.470406e+01
2.660000e-06	-8.956068e-07	4.300165e-10	-6.204744e+00	2.518847e+01
2.670000e-06	-9.467162e-07	2.768492e-10	-6.558829e+00	1.524767e+01
2.680000e-06	-9.975533e-07	1.203496e-10	-6.911027e+00	4.854457e+00
2.690000e-06	-1.048072e-06	-4.190672e-11	-7.261021e+00	-6.010516e+00
2.700000e-06	-1.098157e-06	-2.128921e-10	-7.608010e+00	-1.735542e+01
2.710000e-06	-1.147729e-06	-3.925753e-10	-7.951443e+00	-2.917425e+01
2.720000e-06	-1.196892e-06	-5.795345e-10	-8.292045e+00	-4.144441e+01
2.730000e-06	-1.245606e-06	-7.705391e-10	-8.629533e+00	-5.412521e+01
2.740000e-06	-1.293629e-06	-9.670662e-10	-8.962233e+00	-6.715738e+01
2.750000e-06	-1.340863e-06	-1.172020e-09	-9.289469e+00	-8.046393e+01
2.760000e-06	-1.387314e-06	-1.382703e-09	-9.611283e+00	-9.395207e+01
2.770000e-06	-1.433201e-06	-1.593983e-09	-9.929186e+00	-1.075165e+02
2.780000e-06	-1.478751e-06	-1.802600e-09	-1.024476e+01	-1.210434e+02
2.790000e-06	-1.524031e-06	-2.008303e-09	-1.055845e+01	-1.344156e+02
2.800000e-06	-1.568945e-06	-2.210651e-09	-1.086961e+01	-1.475174e+02
2.810000e-06	-1.613345e-06	-2.406040e-09	-1.117722e+01	-1.602403e+02
2.820000e-06	-1.657142e-06	-2.593231e-09	-1.148064e+01	-1.724870e+02
2.830000e-06	-1.700424e-06	-2.772442e-09	-1.178050e+01	-1.841765e+02
2.840000e-06	-1.743379e-06	-2.942772e-09	-1.207809e+01	-1.952460e+02
2.850000e-06	-1.785841e-06	-3.103813e-09	-1.237227e+01	-2.056534e+02
2.860000e-06	-1.827634e-06	-3.252952e-09	-1.266181e+01	-2.153775e+02
2.870000e-06	-1.868820e-06	-3.388637e-09	-1.294714e+01	-2.244170e+02
2.880000e-06	-1.909413e-06	-3.515692e-09	-1.322837e+01	-2.327884e+02
2.890000e-06	-1.949290e-06	-3.636722e-09	-1.350464e+01	-2.405234e+02
2.900000e-06	-1.988566e-06	-3.748277e-09	-1.377674e+01	-2.476645e+02
2.910000e-06	-2.027358e-06	-3.849857e-09	-1.404549e+01	-2.542616e+02
2.920000e-06	-2.065435e-06	-3.946390e-09	-1.430929e+01	-2.603678e+02
2.930000e-06	-2.102549e-06	-4.037894e-09	-1.456641e+01	-2.660357e+02
2.940000e-06	-2.138603e-06	-4.119586e-09	-1.481620e+01	-2.713145e+02
