# Temperatura_=_22.73
# Concentracion g/m^3_=_15500.0
# C_Vs_to_Am_M_A/Vsm_=_65563218390.804596
# pendiente_HvsI_1/m_=_3716.3
# ordenada_HvsI_A/m_=_1297.0
# frecuencia_Hz_=_300836.9784886706

Tiempo_(s)	Campo_(V.s)	Magnetizacion_(V.s)	Campo_(kA/m)	Magnetizacion_(A/m)
0.000000e+00	-2.861343e-06	-5.125583e-09	-1.979996e+01	-3.356929e+02
1.000000e-08	-2.860330e-06	-5.123328e-09	-1.979295e+01	-3.357378e+02
2.000000e-08	-2.858389e-06	-5.119172e-09	-1.977952e+01	-3.357192e+02
3.000000e-08	-2.855203e-06	-5.116798e-09	-1.975747e+01	-3.356327e+02
4.000000e-08	-2.850906e-06	-5.116380e-09	-1.972774e+01	-3.354751e+02
5.000000e-08	-2.845840e-06	-5.112331e-09	-1.969268e+01	-3.352452e+02
6.000000e-08	-2.839956e-06	-5.107645e-09	-1.965197e+01	-3.349435e+02
7.000000e-08	-2.833066e-06	-5.098449e-09	-1.960429e+01	-3.345726e+02
8.000000e-08	-2.825112e-06	-5.097682e-09	-1.954925e+01	-3.341367e+02
9.000000e-08	-2.815943e-06	-5.093279e-09	-1.948580e+01	-3.336410e+02
1.000000e-07	-2.805369e-06	-5.109127e-09	-1.941263e+01	-3.330914e+02
1.100000e-07	-2.793615e-06	-5.055984e-09	-1.933130e+01	-3.324937e+02
1.200000e-07	-2.781096e-06	-5.039651e-09	-1.924466e+01	-3.318529e+02
1.300000e-07	-2.767706e-06	-5.054147e-09	-1.915201e+01	-3.311726e+02
1.400000e-07	-2.753274e-06	-5.053647e-09	-1.905214e+01	-3.304548e+02
1.500000e-07	-2.737895e-06	-5.019075e-09	-1.894573e+01	-3.296995e+02
1.600000e-07	-2.721201e-06	-5.010866e-09	-1.883020e+01	-3.289052e+02
1.700000e-07	-2.703104e-06	-5.088586e-09	-1.870498e+01	-3.280686e+02
1.800000e-07	-2.684325e-06	-5.003212e-09	-1.857503e+01	-3.271855e+02
1.900000e-07	-2.664908e-06	-4.962259e-09	-1.844067e+01	-3.262511e+02
2.000000e-07	-2.644583e-06	-5.007891e-09	-1.830002e+01	-3.252606e+02
2.100000e-07	-2.623428e-06	-4.943510e-09	-1.815363e+01	-3.242097e+02
2.200000e-07	-2.601502e-06	-4.910979e-09	-1.800191e+01	-3.230952e+02
2.300000e-07	-2.578593e-06	-4.968844e-09	-1.784339e+01	-3.219152e+02
2.400000e-07	-2.554672e-06	-4.923311e-09	-1.767786e+01	-3.206688e+02
2.500000e-07	-2.530047e-06	-4.872355e-09	-1.750746e+01	-3.193567e+02
2.600000e-07	-2.504565e-06	-4.870854e-09	-1.733112e+01	-3.179804e+02
2.700000e-07	-2.477939e-06	-4.851877e-09	-1.714688e+01	-3.165421e+02
2.800000e-07	-2.450272e-06	-4.806696e-09	-1.695542e+01	-3.150442e+02
2.900000e-07	-2.421739e-06	-4.785179e-09	-1.675798e+01	-3.134892e+02
3.000000e-07	-2.392364e-06	-4.782213e-09	-1.655472e+01	-3.118786e+02
3.100000e-07	-2.362217e-06	-4.752521e-09	-1.634610e+01	-3.102137e+02
3.200000e-07	-2.331326e-06	-4.750900e-09	-1.613234e+01	-3.084945e+02
3.300000e-07	-2.299622e-06	-4.697958e-09	-1.591296e+01	-3.067208e+02
3.400000e-07	-2.267223e-06	-4.663800e-09	-1.568876e+01	-3.048913e+02
3.500000e-07	-2.234245e-06	-4.641429e-09	-1.546056e+01	-3.030049e+02
3.600000e-07	-2.200482e-06	-4.614080e-09	-1.522692e+01	-3.010602e+02
3.700000e-07	-2.165640e-06	-4.591377e-09	-1.498583e+01	-2.990564e+02
3.800000e-07	-2.129703e-06	-4.556125e-09	-1.473715e+01	-2.969933e+02
3.900000e-07	-2.093042e-06	-4.527172e-09	-1.448346e+01	-2.948717e+02
4.000000e-07	-2.055826e-06	-4.495152e-09	-1.422593e+01	-2.926930e+02
4.100000e-07	-2.017889e-06	-4.453377e-09	-1.396342e+01	-2.904595e+02
4.200000e-07	-1.979181e-06	-4.403690e-09	-1.369557e+01	-2.881741e+02
4.300000e-07	-1.939714e-06	-4.385593e-09	-1.342246e+01	-2.858396e+02
4.400000e-07	-1.899608e-06	-4.349817e-09	-1.314493e+01	-2.834589e+02
4.500000e-07	-1.859044e-06	-4.315032e-09	-1.286424e+01	-2.810339e+02
4.600000e-07	-1.818039e-06	-4.275722e-09	-1.258049e+01	-2.785657e+02
4.700000e-07	-1.776343e-06	-4.238562e-09	-1.229196e+01	-2.760543e+02
4.800000e-07	-1.733665e-06	-4.190770e-09	-1.199664e+01	-2.734981e+02
4.900000e-07	-1.690008e-06	-4.140283e-09	-1.169454e+01	-2.708944e+02
5.000000e-07	-1.645694e-06	-4.110449e-09	-1.138789e+01	-2.682394e+02
5.100000e-07	-1.600916e-06	-4.070485e-09	-1.107804e+01	-2.655287e+02
5.200000e-07	-1.555687e-06	-4.033141e-09	-1.076506e+01	-2.627574e+02
5.300000e-07	-1.509981e-06	-3.993297e-09	-1.044879e+01	-2.599209e+02
5.400000e-07	-1.463710e-06	-3.948922e-09	-1.012860e+01	-2.570152e+02
5.500000e-07	-1.416880e-06	-3.885264e-09	-9.804544e+00	-2.540372e+02
5.600000e-07	-1.369544e-06	-3.839782e-09	-9.476992e+00	-2.509848e+02
5.700000e-07	-1.321742e-06	-3.795610e-09	-9.146208e+00	-2.478572e+02
5.800000e-07	-1.273526e-06	-3.745732e-09	-8.812563e+00	-2.446548e+02
5.900000e-07	-1.224959e-06	-3.704412e-09	-8.476490e+00	-2.413787e+02
6.000000e-07	-1.175979e-06	-3.659045e-09	-8.137554e+00	-2.380305e+02
6.100000e-07	-1.126385e-06	-3.604961e-09	-7.794373e+00	-2.346122e+02
6.200000e-07	-1.076077e-06	-3.541972e-09	-7.446256e+00	-2.311253e+02
6.300000e-07	-1.025208e-06	-3.489566e-09	-7.094251e+00	-2.275704e+02
6.400000e-07	-9.738378e-07	-3.430766e-09	-6.738776e+00	-2.239478e+02
6.500000e-07	-9.219502e-07	-3.371061e-09	-6.379724e+00	-2.202563e+02
6.600000e-07	-8.696818e-07	-3.310612e-09	-6.018036e+00	-2.164939e+02
6.700000e-07	-8.171635e-07	-3.252999e-09	-5.654620e+00	-2.126577e+02
6.800000e-07	-7.644693e-07	-3.193993e-09	-5.289985e+00	-2.087444e+02
6.900000e-07	-7.115285e-07	-3.129778e-09	-4.923645e+00	-2.047501e+02
7.000000e-07	-6.582781e-07	-3.068677e-09	-4.555162e+00	-2.006712e+02
7.100000e-07	-6.048143e-07	-3.008854e-09	-4.185202e+00	-1.965043e+02
7.200000e-07	-5.511585e-07	-2.950059e-09	-3.813914e+00	-1.922463e+02
7.300000e-07	-4.972664e-07	-2.878772e-09	-3.440991e+00	-1.878948e+02
7.400000e-07	-4.431624e-07	-2.801397e-09	-3.066602e+00	-1.834477e+02
7.500000e-07	-3.888951e-07	-2.724676e-09	-2.691082e+00	-1.789029e+02
7.600000e-07	-3.345001e-07	-2.655712e-09	-2.314679e+00	-1.742582e+02
7.700000e-07	-2.800097e-07	-2.586934e-09	-1.937615e+00	-1.695109e+02
7.800000e-07	-2.254746e-07	-2.511907e-09	-1.560242e+00	-1.646573e+02
7.900000e-07	-1.709238e-07	-2.437799e-09	-1.182761e+00	-1.596924e+02
8.000000e-07	-1.163485e-07	-2.365161e-09	-8.051100e-01	-1.546100e+02
8.100000e-07	-6.172575e-08	-2.290707e-09	-4.271307e-01	-1.494025e+02
8.200000e-07	-7.043585e-09	-2.203119e-09	-4.874030e-02	-1.440609e+02
8.300000e-07	4.766027e-08	-2.109671e-09	3.298002e-01	-1.385756e+02
8.400000e-07	1.023068e-07	-2.017478e-09	7.079438e-01	-1.329363e+02
8.500000e-07	1.568920e-07	-1.931427e-09	1.085663e+00	-1.271329e+02
8.600000e-07	2.114493e-07	-1.842453e-09	1.463190e+00	-1.211555e+02
8.700000e-07	2.659516e-07	-1.749456e-09	1.840336e+00	-1.149949e+02
8.800000e-07	3.204025e-07	-1.657450e-09	2.217126e+00	-1.086426e+02
8.900000e-07	3.747803e-07	-1.560342e-09	2.593410e+00	-1.020908e+02
9.000000e-07	4.290055e-07	-1.457276e-09	2.968639e+00	-9.533173e+01
9.100000e-07	4.830571e-07	-1.346627e-09	3.342665e+00	-8.835698e+01
9.200000e-07	5.369155e-07	-1.232450e-09	3.715355e+00	-8.115692e+01
9.300000e-07	5.905523e-07	-1.113163e-09	4.086512e+00	-7.371964e+01
9.400000e-07	6.439552e-07	-9.939483e-10	4.456050e+00	-6.603018e+01
9.500000e-07	6.971205e-07	-8.724400e-10	4.823944e+00	-5.806998e+01
9.600000e-07	7.500515e-07	-7.479452e-10	5.190217e+00	-4.981676e+01
9.700000e-07	8.027666e-07	-6.200753e-10	5.554995e+00	-4.124477e+01
9.800000e-07	8.552672e-07	-4.869063e-10	5.918290e+00	-3.232578e+01
9.900000e-07	9.074758e-07	-3.431065e-10	6.279564e+00	-2.303062e+01
1.000000e-06	9.592714e-07	-1.853784e-10	6.637980e+00	-1.333127e+01
1.010000e-06	1.010552e-06	-2.578823e-11	6.992832e+00	-3.203521e+00
1.020000e-06	1.061207e-06	1.344821e-10	7.343353e+00	7.370200e+00
1.030000e-06	1.111128e-06	3.017182e-10	7.688798e+00	1.839781e+01
1.040000e-06	1.160359e-06	4.819399e-10	8.029471e+00	2.987484e+01
1.050000e-06	1.209170e-06	6.658630e-10	8.367232e+00	4.178211e+01
1.060000e-06	1.257768e-06	8.482414e-10	8.703523e+00	5.408413e+01
1.070000e-06	1.306127e-06	1.034641e-09	9.038153e+00	6.672847e+01
1.080000e-06	1.354093e-06	1.230580e-09	9.370070e+00	7.964615e+01
1.090000e-06	1.401509e-06	1.433651e-09	9.698179e+00	9.275316e+01
1.100000e-06	1.448342e-06	1.635723e-09	1.002226e+01	1.059531e+02
1.110000e-06	1.494638e-06	1.836270e-09	1.034262e+01	1.191408e+02
1.120000e-06	1.540383e-06	2.034734e-09	1.065916e+01	1.322064e+02
1.130000e-06	1.585645e-06	2.232671e-09	1.097237e+01	1.450404e+02
1.140000e-06	1.630532e-06	2.425039e-09	1.128298e+01	1.575383e+02
1.150000e-06	1.675078e-06	2.605110e-09	1.159123e+01	1.696051e+02
1.160000e-06	1.719157e-06	2.774045e-09	1.189624e+01	1.811594e+02
1.170000e-06	1.762439e-06	2.937162e-09	1.219575e+01	1.921364e+02
1.180000e-06	1.804719e-06	3.096236e-09	1.248832e+01	2.024900e+02
1.190000e-06	1.846105e-06	3.245426e-09	1.277470e+01	2.121934e+02
1.200000e-06	1.886874e-06	3.382669e-09	1.305682e+01	2.212389e+02
1.210000e-06	1.927157e-06	3.510294e-09	1.333557e+01	2.296362e+02
1.220000e-06	1.966828e-06	3.629944e-09	1.361008e+01	2.374098e+02
1.230000e-06	2.005836e-06	3.738345e-09	1.388001e+01	2.445957e+02
1.240000e-06	2.044160e-06	3.834271e-09	1.414521e+01	2.512383e+02
1.250000e-06	2.081654e-06	3.921494e-09	1.440466e+01	2.573860e+02
1.260000e-06	2.118512e-06	4.008639e-09	1.465971e+01	2.630879e+02
1.270000e-06	2.154935e-06	4.094695e-09	1.491175e+01	2.683912e+02
1.280000e-06	2.190670e-06	4.172357e-09	1.515903e+01	2.733385e+02
1.290000e-06	2.225398e-06	4.240442e-09	1.539934e+01	2.779660e+02
1.300000e-06	2.259023e-06	4.302247e-09	1.563202e+01	2.823038e+02
1.310000e-06	2.291805e-06	4.363385e-09	1.585886e+01	2.863748e+02
1.320000e-06	2.323958e-06	4.421330e-09	1.608136e+01	2.901964e+02
1.330000e-06	2.355332e-06	4.472410e-09	1.629846e+01	2.937811e+02
1.340000e-06	2.385909e-06	4.518180e-09	1.651004e+01	2.971386e+02
1.350000e-06	2.415705e-06	4.565028e-09	1.671623e+01	3.002766e+02
1.360000e-06	2.444745e-06	4.611464e-09	1.691718e+01	3.032030e+02
1.370000e-06	2.473182e-06	4.651410e-09	1.711396e+01	3.059264e+02
1.380000e-06	2.500717e-06	4.684547e-09	1.730450e+01	3.084570e+02
1.390000e-06	2.526942e-06	4.716517e-09	1.748597e+01	3.108071e+02
1.400000e-06	2.552069e-06	4.750164e-09	1.765984e+01	3.129904e+02
1.410000e-06	2.576382e-06	4.781554e-09	1.782809e+01	3.150218e+02
1.420000e-06	2.599839e-06	4.809343e-09	1.799040e+01	3.169165e+02
1.430000e-06	2.622429e-06	4.835652e-09	1.814672e+01	3.186893e+02
1.440000e-06	2.644114e-06	4.862223e-09	1.829678e+01	3.203532e+02
1.450000e-06	2.665002e-06	4.886181e-09	1.844132e+01	3.219193e+02
1.460000e-06	2.685184e-06	4.905684e-09	1.858097e+01	3.233956e+02
1.470000e-06	2.704452e-06	4.922627e-09	1.871431e+01	3.247878e+02
1.480000e-06	2.722718e-06	4.943246e-09	1.884070e+01	3.260986e+02
1.490000e-06	2.740048e-06	4.966748e-09	1.896062e+01	3.273286e+02
1.500000e-06	2.756330e-06	4.985408e-09	1.907329e+01	3.284768e+02
1.510000e-06	2.771468e-06	4.999519e-09	1.917804e+01	3.295418e+02
1.520000e-06	2.785560e-06	5.012687e-09	1.927555e+01	3.305220e+02
1.530000e-06	2.798657e-06	5.025312e-09	1.936618e+01	3.314168e+02
1.540000e-06	2.810648e-06	5.034962e-09	1.944916e+01	3.322271e+02
1.550000e-06	2.821309e-06	5.042056e-09	1.952293e+01	3.329553e+02
1.560000e-06	2.830715e-06	5.052344e-09	1.958802e+01	3.336054e+02
1.570000e-06	2.839203e-06	5.068272e-09	1.964676e+01	3.341830e+02
1.580000e-06	2.846827e-06	5.083909e-09	1.969951e+01	3.346944e+02
1.590000e-06	2.853468e-06	5.092805e-09	1.974547e+01	3.351461e+02
1.600000e-06	2.859148e-06	5.095612e-09	1.978477e+01	3.355442e+02
1.610000e-06	2.864000e-06	5.099134e-09	1.981835e+01	3.358935e+02
1.620000e-06	2.867966e-06	5.103906e-09	1.984579e+01	3.361971e+02
1.630000e-06	2.870703e-06	5.106183e-09	1.986473e+01	3.364564e+02
1.640000e-06	2.872175e-06	5.107699e-09	1.987491e+01	3.366703e+02
1.650000e-06	2.872693e-06	5.112699e-09	1.987850e+01	3.368360e+02
1.660000e-06	2.872335e-06	5.119657e-09	1.987602e+01	3.369495e+02
1.670000e-06	2.871091e-06	5.121603e-09	1.986742e+01	3.370055e+02
1.680000e-06	2.868952e-06	5.118548e-09	1.985261e+01	3.369989e+02
1.690000e-06	2.865980e-06	5.116153e-09	1.983205e+01	3.369251e+02
1.700000e-06	2.862185e-06	5.116597e-09	1.980579e+01	3.367807e+02
1.710000e-06	2.857283e-06	5.114311e-09	1.977187e+01	3.365641e+02
1.720000e-06	2.851201e-06	5.102524e-09	1.972978e+01	3.362755e+02
1.730000e-06	2.844230e-06	5.106919e-09	1.968154e+01	3.359170e+02
1.740000e-06	2.836414e-06	5.094930e-09	1.962746e+01	3.354926e+02
1.750000e-06	2.827230e-06	5.086162e-09	1.956390e+01	3.350075e+02
1.760000e-06	2.816425e-06	5.066417e-09	1.948913e+01	3.344674e+02
1.770000e-06	2.804711e-06	5.088827e-09	1.940808e+01	3.338783e+02
1.780000e-06	2.792914e-06	5.105198e-09	1.932644e+01	3.332452e+02
1.790000e-06	2.780401e-06	5.013368e-09	1.923985e+01	3.325721e+02
1.800000e-06	2.766136e-06	5.034856e-09	1.914115e+01	3.318612e+02
1.810000e-06	2.750623e-06	5.063945e-09	1.903380e+01	3.311131e+02
1.820000e-06	2.734620e-06	5.023347e-09	1.892306e+01	3.303262e+02
1.830000e-06	2.717549e-06	4.991682e-09	1.880493e+01	3.294978e+02
1.840000e-06	2.699148e-06	5.037192e-09	1.867760e+01	3.286237e+02
1.850000e-06	2.680064e-06	5.040053e-09	1.854555e+01	3.276991e+02
1.860000e-06	2.660253e-06	4.942053e-09	1.840845e+01	3.267193e+02
1.870000e-06	2.639104e-06	4.989106e-09	1.826211e+01	3.256798e+02
1.880000e-06	2.616848e-06	5.000561e-09	1.810810e+01	3.245772e+02
1.890000e-06	2.593773e-06	4.872999e-09	1.794843e+01	3.234093e+02
1.900000e-06	2.569670e-06	4.906750e-09	1.778164e+01	3.221750e+02
1.910000e-06	2.544811e-06	4.936204e-09	1.760962e+01	3.208749e+02
1.920000e-06	2.519253e-06	4.860458e-09	1.743276e+01	3.195102e+02
1.930000e-06	2.492786e-06	4.867657e-09	1.724961e+01	3.180832e+02
1.940000e-06	2.465606e-06	4.855947e-09	1.706154e+01	3.165961e+02
1.950000e-06	2.437578e-06	4.809760e-09	1.686759e+01	3.150515e+02
1.960000e-06	2.408210e-06	4.779875e-09	1.666436e+01	3.134511e+02
1.970000e-06	2.377735e-06	4.750277e-09	1.645349e+01	3.117961e+02
1.980000e-06	2.346563e-06	4.722534e-09	1.623778e+01	3.100870e+02
1.990000e-06	2.314692e-06	4.718924e-09	1.601724e+01	3.083234e+02
2.000000e-06	2.282090e-06	4.679970e-09	1.579164e+01	3.065043e+02
2.010000e-06	2.248602e-06	4.656896e-09	1.555991e+01	3.046285e+02
2.020000e-06	2.214345e-06	4.635638e-09	1.532285e+01	3.026946e+02
2.030000e-06	2.179543e-06	4.580033e-09	1.508203e+01	3.007017e+02
2.040000e-06	2.144083e-06	4.555696e-09	1.483666e+01	2.986495e+02
2.050000e-06	2.107914e-06	4.513100e-09	1.458637e+01	2.965386e+02
2.060000e-06	2.070777e-06	4.475320e-09	1.432939e+01	2.943703e+02
2.070000e-06	2.032516e-06	4.471937e-09	1.406464e+01	2.921467e+02
2.080000e-06	1.993507e-06	4.427481e-09	1.379470e+01	2.898707e+02
2.090000e-06	1.953983e-06	4.380988e-09	1.352120e+01	2.875451e+02
2.100000e-06	1.913835e-06	4.364845e-09	1.324338e+01	2.851728e+02
2.110000e-06	1.873012e-06	4.308524e-09	1.296089e+01	2.827559e+02
2.120000e-06	1.831560e-06	4.262746e-09	1.267405e+01	2.802957e+02
2.130000e-06	1.789526e-06	4.233145e-09	1.238319e+01	2.777924e+02
2.140000e-06	1.746928e-06	4.199129e-09	1.208842e+01	2.752447e+02
2.150000e-06	1.703841e-06	4.170876e-09	1.179026e+01	2.726501e+02
2.160000e-06	1.660310e-06	4.111443e-09	1.148904e+01	2.700049e+02
2.170000e-06	1.616158e-06	4.073247e-09	1.118351e+01	2.673049e+02
2.180000e-06	1.571378e-06	4.036324e-09	1.087364e+01	2.645451e+02
2.190000e-06	1.526032e-06	3.982420e-09	1.055986e+01	2.617209e+02
2.200000e-06	1.480209e-06	3.950445e-09	1.024277e+01	2.588281e+02
2.210000e-06	1.433982e-06	3.910863e-09	9.922892e+00	2.558635e+02
2.220000e-06	1.387257e-06	3.858712e-09	9.599564e+00	2.528248e+02
2.230000e-06	1.340012e-06	3.812784e-09	9.272634e+00	2.497110e+02
2.240000e-06	1.292107e-06	3.758920e-09	8.941141e+00	2.465222e+02
2.250000e-06	1.243549e-06	3.703840e-09	8.605127e+00	2.432595e+02
2.260000e-06	1.194538e-06	3.661234e-09	8.265982e+00	2.399244e+02
2.270000e-06	1.145119e-06	3.617460e-09	7.924008e+00	2.365189e+02
2.280000e-06	1.095282e-06	3.571355e-09	7.579150e+00	2.330444e+02
2.290000e-06	1.045031e-06	3.511690e-09	7.231420e+00	2.295020e+02
2.300000e-06	9.943274e-07	3.453788e-09	6.880561e+00	2.258918e+02
2.310000e-06	9.432817e-07	3.395368e-09	6.527334e+00	2.222131e+02
2.320000e-06	8.920282e-07	3.329757e-09	6.172669e+00	2.184638e+02
2.330000e-06	8.404936e-07	3.274366e-09	5.816059e+00	2.146414e+02
2.340000e-06	7.885678e-07	3.222020e-09	5.456742e+00	2.107425e+02
2.350000e-06	7.361542e-07	3.170304e-09	5.094050e+00	2.067633e+02
2.360000e-06	6.833096e-07	3.107703e-09	4.728375e+00	2.027001e+02
2.370000e-06	6.300518e-07	3.041710e-09	4.359841e+00	1.985494e+02
2.380000e-06	5.763935e-07	2.979409e-09	3.988536e+00	1.943082e+02
2.390000e-06	5.224037e-07	2.912524e-09	3.614937e+00	1.899739e+02
2.400000e-06	4.680607e-07	2.843496e-09	3.238893e+00	1.855443e+02
2.410000e-06	4.135493e-07	2.777442e-09	2.861684e+00	1.810175e+02
2.420000e-06	3.589436e-07	2.712309e-09	2.483823e+00	1.763911e+02
2.430000e-06	3.041717e-07	2.642864e-09	2.104811e+00	1.716627e+02
2.440000e-06	2.492897e-07	2.567887e-09	1.725038e+00	1.668288e+02
2.450000e-06	1.943302e-07	2.492003e-09	1.344729e+00	1.618845e+02
2.460000e-06	1.393577e-07	2.416844e-09	9.643296e-01	1.568240e+02
2.470000e-06	8.438294e-08	2.335474e-09	5.839143e-01	1.516397e+02
2.480000e-06	2.939002e-08	2.253952e-09	2.033735e-01	1.463231e+02
2.490000e-06	-2.560893e-08	2.172544e-09	-1.772091e-01	1.408645e+02
2.500000e-06	-8.063146e-08	2.088848e-09	-5.579547e-01	1.352539e+02
2.510000e-06	-1.356434e-07	2.003501e-09	-9.386268e-01	1.294808e+02
2.520000e-06	-1.906220e-07	1.912250e-09	-1.319069e+00	1.235355e+02
2.530000e-06	-2.455604e-07	1.818054e-09	-1.699232e+00	1.174086e+02
2.540000e-06	-3.004463e-07	1.720932e-09	-2.079033e+00	1.110915e+02
2.550000e-06	-3.552504e-07	1.624791e-09	-2.458266e+00	1.045762e+02
2.560000e-06	-4.099218e-07	1.525281e-09	-2.836583e+00	9.785503e+01
2.570000e-06	-4.644083e-07	1.419505e-09	-3.213619e+00	9.091978e+01
2.580000e-06	-5.186654e-07	1.311154e-09	-3.589068e+00	8.376109e+01
2.590000e-06	-5.726768e-07	1.201157e-09	-3.962817e+00	7.636750e+01
2.600000e-06	-6.263039e-07	1.085346e-09	-4.333907e+00	6.872465e+01
2.610000e-06	-6.794885e-07	9.619978e-10	-4.701934e+00	6.081466e+01
2.620000e-06	-7.322641e-07	8.370286e-10	-5.067131e+00	5.261590e+01
2.630000e-06	-7.845633e-07	7.094692e-10	-5.429032e+00	4.410318e+01
2.640000e-06	-8.364188e-07	5.759524e-10	-5.787863e+00	3.524862e+01
2.650000e-06	-8.879340e-07	4.349413e-10	-6.144338e+00	2.602309e+01
2.660000e-06	-9.391725e-07	2.890149e-10	-6.498899e+00	1.639817e+01
2.670000e-06	-9.900980e-07	1.362432e-10	-6.851294e+00	6.348770e+00
2.680000e-06	-1.040658e-06	-2.296296e-11	-7.201157e+00	-4.144084e+00
2.690000e-06	-1.090911e-06	-1.876107e-10	-7.548898e+00	-1.509025e+01
2.700000e-06	-1.140807e-06	-3.576012e-10	-7.894170e+00	-2.648765e+01
2.710000e-06	-1.190206e-06	-5.351614e-10	-8.236005e+00	-3.831988e+01
2.720000e-06	-1.239107e-06	-7.222682e-10	-8.574390e+00	-5.055443e+01
2.730000e-06	-1.287373e-06	-9.151374e-10	-8.908384e+00	-6.314191e+01
2.740000e-06	-1.334880e-06	-1.112663e-09	-9.237124e+00	-7.601620e+01
2.750000e-06	-1.381667e-06	-1.315329e-09	-9.560879e+00	-8.909582e+01
2.760000e-06	-1.427796e-06	-1.520880e-09	-9.880084e+00	-1.022864e+02
2.770000e-06	-1.473469e-06	-1.724824e-09	-1.019613e+01	-1.154839e+02
2.780000e-06	-1.518819e-06	-1.926285e-09	-1.050995e+01	-1.285790e+02
2.790000e-06	-1.563863e-06	-2.123166e-09	-1.082164e+01	-1.414620e+02
2.800000e-06	-1.608438e-06	-2.314261e-09	-1.113009e+01	-1.540268e+02
2.810000e-06	-1.652365e-06	-2.501033e-09	-1.143406e+01	-1.661767e+02
2.820000e-06	-1.695782e-06	-2.681637e-09	-1.173449e+01	-1.778274e+02
2.830000e-06	-1.738870e-06	-2.852662e-09	-1.203266e+01	-1.889111e+02
2.840000e-06	-1.781537e-06	-3.012136e-09	-1.232791e+01	-1.993782e+02
2.850000e-06	-1.823558e-06	-3.162347e-09	-1.261868e+01	-2.091985e+02
2.860000e-06	-1.864951e-06	-3.304353e-09	-1.290512e+01	-2.183610e+02
2.870000e-06	-1.905733e-06	-3.436023e-09	-1.318732e+01	-2.268723e+02
2.880000e-06	-1.945815e-06	-3.556638e-09	-1.346468e+01	-2.347545e+02
2.890000e-06	-1.985276e-06	-3.668608e-09	-1.373774e+01	-2.420420e+02
2.900000e-06	-2.024204e-06	-3.772341e-09	-1.400711e+01	-2.487778e+02
2.910000e-06	-2.062457e-06	-3.868918e-09	-1.427182e+01	-2.550099e+02
2.920000e-06	-2.099730e-06	-3.959116e-09	-1.452974e+01	-2.607876e+02
2.930000e-06	-2.135922e-06	-4.043149e-09	-1.478018e+01	-2.661584e+02
2.940000e-06	-2.171300e-06	-4.122323e-09	-1.502499e+01	-2.711661e+02
