# Temperatura_=_18.88
# Concentracion g/m^3_=_15500.0
# C_Vs_to_Am_M_A/Vsm_=_65563218390.804596
# pendiente_HvsI_1/m_=_3716.3
# ordenada_HvsI_A/m_=_1297.0
# frecuencia_Hz_=_300845.7620685364

Tiempo_(s)	Campo_(V.s)	Magnetizacion_(V.s)	Campo_(kA/m)	Magnetizacion_(A/m)
0.000000e+00	-2.855948e-06	-4.960885e-09	-1.980226e+01	-3.244583e+02
1.000000e-08	-2.854934e-06	-4.953808e-09	-1.979523e+01	-3.244645e+02
2.000000e-08	-2.852916e-06	-4.948802e-09	-1.978124e+01	-3.244119e+02
3.000000e-08	-2.849596e-06	-4.950345e-09	-1.975822e+01	-3.242968e+02
4.000000e-08	-2.845256e-06	-4.952159e-09	-1.972812e+01	-3.241167e+02
5.000000e-08	-2.840173e-06	-4.946481e-09	-1.969288e+01	-3.238705e+02
6.000000e-08	-2.834233e-06	-4.935793e-09	-1.965169e+01	-3.235591e+02
7.000000e-08	-2.827359e-06	-4.926198e-09	-1.960403e+01	-3.231852e+02
8.000000e-08	-2.819449e-06	-4.948996e-09	-1.954919e+01	-3.227532e+02
9.000000e-08	-2.810246e-06	-4.968858e-09	-1.948537e+01	-3.222688e+02
1.000000e-07	-2.799529e-06	-4.936487e-09	-1.941107e+01	-3.217381e+02
1.100000e-07	-2.787681e-06	-4.830529e-09	-1.932892e+01	-3.211674e+02
1.200000e-07	-2.775160e-06	-4.857940e-09	-1.924210e+01	-3.205619e+02
1.300000e-07	-2.761716e-06	-4.952636e-09	-1.914889e+01	-3.199255e+02
1.400000e-07	-2.747212e-06	-4.893281e-09	-1.904831e+01	-3.192600e+02
1.500000e-07	-2.731804e-06	-4.803408e-09	-1.894148e+01	-3.185652e+02
1.600000e-07	-2.715083e-06	-4.884677e-09	-1.882554e+01	-3.178384e+02
1.700000e-07	-2.697001e-06	-4.927679e-09	-1.870017e+01	-3.170750e+02
1.800000e-07	-2.678242e-06	-4.769069e-09	-1.857010e+01	-3.162687e+02
1.900000e-07	-2.658824e-06	-4.789126e-09	-1.843546e+01	-3.154124e+02
2.000000e-07	-2.638461e-06	-4.849611e-09	-1.829427e+01	-3.144986e+02
2.100000e-07	-2.617244e-06	-4.732281e-09	-1.814716e+01	-3.135203e+02
2.200000e-07	-2.595256e-06	-4.744972e-09	-1.799470e+01	-3.124718e+02
2.300000e-07	-2.572291e-06	-4.839984e-09	-1.783547e+01	-3.113490e+02
2.400000e-07	-2.548360e-06	-4.740186e-09	-1.766954e+01	-3.101499e+02
2.500000e-07	-2.523732e-06	-4.679592e-09	-1.749878e+01	-3.088744e+02
2.600000e-07	-2.498252e-06	-4.702788e-09	-1.732210e+01	-3.075245e+02
2.700000e-07	-2.471594e-06	-4.666124e-09	-1.713727e+01	-3.061038e+02
2.800000e-07	-2.443848e-06	-4.632726e-09	-1.694488e+01	-3.046169e+02
2.900000e-07	-2.415170e-06	-4.619762e-09	-1.674604e+01	-3.030691e+02
3.000000e-07	-2.385670e-06	-4.598439e-09	-1.654150e+01	-3.014653e+02
3.100000e-07	-2.355522e-06	-4.606300e-09	-1.633246e+01	-2.998099e+02
3.200000e-07	-2.324691e-06	-4.583321e-09	-1.611868e+01	-2.981062e+02
3.300000e-07	-2.293028e-06	-4.492312e-09	-1.589915e+01	-2.963561e+02
3.400000e-07	-2.260643e-06	-4.498148e-09	-1.567460e+01	-2.945600e+02
3.500000e-07	-2.227715e-06	-4.478337e-09	-1.544629e+01	-2.927169e+02
3.600000e-07	-2.193956e-06	-4.422329e-09	-1.521221e+01	-2.908250e+02
3.700000e-07	-2.158975e-06	-4.436283e-09	-1.496966e+01	-2.888815e+02
3.800000e-07	-2.122969e-06	-4.404138e-09	-1.472001e+01	-2.868835e+02
3.900000e-07	-2.086360e-06	-4.344034e-09	-1.446617e+01	-2.848283e+02
4.000000e-07	-2.049129e-06	-4.344308e-09	-1.420803e+01	-2.827138e+02
4.100000e-07	-2.011148e-06	-4.307633e-09	-1.394468e+01	-2.805389e+02
4.200000e-07	-1.972430e-06	-4.225976e-09	-1.367622e+01	-2.783033e+02
4.300000e-07	-1.932977e-06	-4.212821e-09	-1.340266e+01	-2.760078e+02
4.400000e-07	-1.892866e-06	-4.195780e-09	-1.312454e+01	-2.736539e+02
4.500000e-07	-1.852350e-06	-4.156017e-09	-1.284362e+01	-2.712437e+02
4.600000e-07	-1.811497e-06	-4.118005e-09	-1.256036e+01	-2.687795e+02
4.700000e-07	-1.769849e-06	-4.079424e-09	-1.227158e+01	-2.662634e+02
4.800000e-07	-1.727096e-06	-4.031466e-09	-1.197515e+01	-2.636968e+02
4.900000e-07	-1.683408e-06	-3.990642e-09	-1.167223e+01	-2.610803e+02
5.000000e-07	-1.639100e-06	-3.953916e-09	-1.136501e+01	-2.584136e+02
5.100000e-07	-1.594412e-06	-3.904710e-09	-1.105516e+01	-2.556952e+02
5.200000e-07	-1.549279e-06	-3.870506e-09	-1.074222e+01	-2.529228e+02
5.300000e-07	-1.503593e-06	-3.835304e-09	-1.042545e+01	-2.500933e+02
5.400000e-07	-1.457350e-06	-3.790741e-09	-1.010482e+01	-2.472032e+02
5.500000e-07	-1.410598e-06	-3.731370e-09	-9.780648e+00	-2.442489e+02
5.600000e-07	-1.363337e-06	-3.681612e-09	-9.452958e+00	-2.412270e+02
5.700000e-07	-1.315541e-06	-3.638423e-09	-9.121552e+00	-2.381346e+02
5.800000e-07	-1.267358e-06	-3.597418e-09	-8.787470e+00	-2.349695e+02
5.900000e-07	-1.218856e-06	-3.551257e-09	-8.451167e+00	-2.317306e+02
6.000000e-07	-1.169946e-06	-3.497593e-09	-8.112041e+00	-2.284172e+02
6.100000e-07	-1.120495e-06	-3.448249e-09	-7.769163e+00	-2.250296e+02
6.200000e-07	-1.070427e-06	-3.393245e-09	-7.422006e+00	-2.215685e+02
6.300000e-07	-1.019730e-06	-3.337847e-09	-7.070492e+00	-2.180348e+02
6.400000e-07	-9.684442e-07	-3.276362e-09	-6.714892e+00	-2.144296e+02
6.500000e-07	-9.166773e-07	-3.219636e-09	-6.355956e+00	-2.107534e+02
6.600000e-07	-8.645256e-07	-3.168416e-09	-5.994352e+00	-2.070067e+02
6.700000e-07	-8.121193e-07	-3.115715e-09	-5.630983e+00	-2.031891e+02
6.800000e-07	-7.595034e-07	-3.052619e-09	-5.266161e+00	-1.992997e+02
6.900000e-07	-7.066026e-07	-2.986353e-09	-4.899363e+00	-1.953370e+02
7.000000e-07	-6.534330e-07	-2.925765e-09	-4.530702e+00	-1.912990e+02
7.100000e-07	-5.999944e-07	-2.862255e-09	-4.160175e+00	-1.871831e+02
7.200000e-07	-5.463366e-07	-2.796470e-09	-3.788128e+00	-1.829867e+02
7.300000e-07	-4.924882e-07	-2.725689e-09	-3.414761e+00	-1.787067e+02
7.400000e-07	-4.384535e-07	-2.656666e-09	-3.040101e+00	-1.743399e+02
7.500000e-07	-3.843181e-07	-2.589210e-09	-2.664742e+00	-1.698827e+02
7.600000e-07	-3.300936e-07	-2.521638e-09	-2.288766e+00	-1.653316e+02
7.700000e-07	-2.757509e-07	-2.446700e-09	-1.911971e+00	-1.606825e+02
7.800000e-07	-2.213255e-07	-2.370032e-09	-1.534602e+00	-1.559308e+02
7.900000e-07	-1.668581e-07	-2.300268e-09	-1.156943e+00	-1.510714e+02
8.000000e-07	-1.123403e-07	-2.227059e-09	-7.789325e-01	-1.460985e+02
8.100000e-07	-5.782111e-08	-2.147500e-09	-4.009137e-01	-1.410059e+02
8.200000e-07	-3.299243e-09	-2.062929e-09	-2.287593e-02	-1.357866e+02
8.300000e-07	5.123176e-08	-1.979152e-09	3.552251e-01	-1.304331e+02
8.400000e-07	1.057237e-07	-1.894372e-09	7.330556e-01	-1.249378e+02
8.500000e-07	1.601794e-07	-1.808406e-09	1.110634e+00	-1.192929e+02
8.600000e-07	2.146401e-07	-1.719915e-09	1.488248e+00	-1.134907e+02
8.700000e-07	2.690744e-07	-1.631997e-09	1.865679e+00	-1.075239e+02
8.800000e-07	3.234718e-07	-1.543644e-09	2.242853e+00	-1.013850e+02
8.900000e-07	3.777950e-07	-1.445924e-09	2.619514e+00	-9.506684e+01
9.000000e-07	4.319394e-07	-1.341211e-09	2.994934e+00	-8.856193e+01
9.100000e-07	4.858737e-07	-1.236674e-09	3.368898e+00	-8.186206e+01
9.200000e-07	5.396491e-07	-1.135599e-09	3.741760e+00	-7.495782e+01
9.300000e-07	5.932446e-07	-1.026477e-09	4.113374e+00	-6.783805e+01
9.400000e-07	6.465993e-07	-9.114360e-10	4.483319e+00	-6.048930e+01
9.500000e-07	6.996828e-07	-7.952736e-10	4.851384e+00	-5.289556e+01
9.600000e-07	7.524570e-07	-6.783272e-10	5.217304e+00	-4.503811e+01
9.700000e-07	8.049888e-07	-5.548988e-10	5.581543e+00	-3.689588e+01
9.800000e-07	8.572664e-07	-4.209387e-10	5.944019e+00	-2.844609e+01
9.900000e-07	9.092498e-07	-2.825539e-10	6.304457e+00	-1.966544e+01
1.000000e-06	9.608549e-07	-1.419087e-10	6.662270e+00	-1.053170e+01
1.010000e-06	1.011898e-06	1.246592e-12	7.016186e+00	-1.025639e+00
1.020000e-06	1.062246e-06	1.529420e-10	7.365283e+00	8.866743e+00
1.030000e-06	1.111838e-06	3.123891e-10	7.709139e+00	1.915192e+01
1.040000e-06	1.160896e-06	4.777437e-10	8.049291e+00	2.982661e+01
1.050000e-06	1.209634e-06	6.462325e-10	8.387225e+00	4.087591e+01
1.060000e-06	1.258094e-06	8.201714e-10	8.723236e+00	5.227185e+01
1.070000e-06	1.306292e-06	9.994818e-10	9.057422e+00	6.397267e+01
1.080000e-06	1.354092e-06	1.180030e-09	9.388852e+00	7.592292e+01
1.090000e-06	1.401342e-06	1.363290e-09	9.716470e+00	8.805440e+01
1.100000e-06	1.448067e-06	1.549445e-09	1.004045e+01	1.002880e+02
1.110000e-06	1.494317e-06	1.739358e-09	1.036113e+01	1.125363e+02
1.120000e-06	1.540021e-06	1.925385e-09	1.067803e+01	1.247070e+02
1.130000e-06	1.585147e-06	2.106282e-09	1.099092e+01	1.367065e+02
1.140000e-06	1.629851e-06	2.285038e-09	1.130088e+01	1.484438e+02
1.150000e-06	1.674278e-06	2.460177e-09	1.160893e+01	1.598347e+02
1.160000e-06	1.718296e-06	2.627320e-09	1.191413e+01	1.708045e+02
1.170000e-06	1.761553e-06	2.784927e-09	1.221407e+01	1.812920e+02
1.180000e-06	1.803720e-06	2.935285e-09	1.250644e+01	1.912502e+02
1.190000e-06	1.844916e-06	3.079072e-09	1.279208e+01	2.006486e+02
1.200000e-06	1.885558e-06	3.215673e-09	1.307388e+01	2.094724e+02
1.210000e-06	1.925757e-06	3.341782e-09	1.335260e+01	2.177222e+02
1.220000e-06	1.965325e-06	3.456056e-09	1.362695e+01	2.254117e+02
1.230000e-06	2.004202e-06	3.559472e-09	1.389652e+01	2.325659e+02
1.240000e-06	2.042388e-06	3.656038e-09	1.416129e+01	2.392177e+02
1.250000e-06	2.079779e-06	3.748511e-09	1.442054e+01	2.454053e+02
1.260000e-06	2.116556e-06	3.838338e-09	1.467554e+01	2.511686e+02
1.270000e-06	2.152926e-06	3.921329e-09	1.492772e+01	2.565471e+02
1.280000e-06	2.188600e-06	3.995864e-09	1.517508e+01	2.615776e+02
1.290000e-06	2.223208e-06	4.064101e-09	1.541504e+01	2.662922e+02
1.300000e-06	2.256691e-06	4.130248e-09	1.564720e+01	2.707179e+02
1.310000e-06	2.289363e-06	4.195592e-09	1.587373e+01	2.748762e+02
1.320000e-06	2.321420e-06	4.254486e-09	1.609600e+01	2.787836e+02
1.330000e-06	2.352694e-06	4.307174e-09	1.631285e+01	2.824523e+02
1.340000e-06	2.383176e-06	4.358473e-09	1.652421e+01	2.858915e+02
1.350000e-06	2.412857e-06	4.408108e-09	1.673000e+01	2.891089e+02
1.360000e-06	2.441761e-06	4.450727e-09	1.693042e+01	2.921114e+02
1.370000e-06	2.470054e-06	4.486588e-09	1.712659e+01	2.949068e+02
1.380000e-06	2.497521e-06	4.521937e-09	1.731704e+01	2.975042e+02
1.390000e-06	2.523723e-06	4.559036e-09	1.749872e+01	2.999145e+02
1.400000e-06	2.548726e-06	4.594085e-09	1.767207e+01	3.021501e+02
1.410000e-06	2.572853e-06	4.624973e-09	1.783937e+01	3.042249e+02
1.420000e-06	2.596177e-06	4.653995e-09	1.800109e+01	3.061535e+02
1.430000e-06	2.618643e-06	4.683046e-09	1.815686e+01	3.079503e+02
1.440000e-06	2.640199e-06	4.708393e-09	1.830632e+01	3.096287e+02
1.450000e-06	2.660941e-06	4.726068e-09	1.845014e+01	3.112006e+02
1.460000e-06	2.681033e-06	4.742590e-09	1.858945e+01	3.126754e+02
1.470000e-06	2.700256e-06	4.763743e-09	1.872274e+01	3.140601e+02
1.480000e-06	2.718389e-06	4.787812e-09	1.884847e+01	3.153591e+02
1.490000e-06	2.735554e-06	4.808764e-09	1.896749e+01	3.165746e+02
1.500000e-06	2.751644e-06	4.824638e-09	1.907904e+01	3.177070e+02
1.510000e-06	2.766610e-06	4.840632e-09	1.918282e+01	3.187555e+02
1.520000e-06	2.780572e-06	4.856392e-09	1.927962e+01	3.197191e+02
1.530000e-06	2.793570e-06	4.867581e-09	1.936975e+01	3.205973e+02
1.540000e-06	2.805507e-06	4.874992e-09	1.945251e+01	3.213904e+02
1.550000e-06	2.816148e-06	4.882998e-09	1.952630e+01	3.221001e+02
1.560000e-06	2.825534e-06	4.894665e-09	1.959138e+01	3.227295e+02
1.570000e-06	2.833955e-06	4.908512e-09	1.964977e+01	3.232834e+02
1.580000e-06	2.841500e-06	4.919574e-09	1.970208e+01	3.237672e+02
1.590000e-06	2.848064e-06	4.926214e-09	1.974759e+01	3.241871e+02
1.600000e-06	2.853656e-06	4.930974e-09	1.978636e+01	3.245491e+02
1.610000e-06	2.858443e-06	4.935226e-09	1.981956e+01	3.248584e+02
1.620000e-06	2.862363e-06	4.939122e-09	1.984674e+01	3.251189e+02
1.630000e-06	2.865041e-06	4.942073e-09	1.986531e+01	3.253330e+02
1.640000e-06	2.866465e-06	4.944344e-09	1.987518e+01	3.255010e+02
1.650000e-06	2.866944e-06	4.948604e-09	1.987850e+01	3.256217e+02
1.660000e-06	2.866535e-06	4.952562e-09	1.987566e+01	3.256921e+02
1.670000e-06	2.865218e-06	4.951288e-09	1.986653e+01	3.257086e+02
1.680000e-06	2.862991e-06	4.947216e-09	1.985109e+01	3.256669e+02
1.690000e-06	2.859956e-06	4.946627e-09	1.983005e+01	3.255634e+02
1.700000e-06	2.856190e-06	4.949289e-09	1.980394e+01	3.253952e+02
1.710000e-06	2.851372e-06	4.948319e-09	1.977053e+01	3.251609e+02
1.720000e-06	2.845295e-06	4.945213e-09	1.972839e+01	3.248612e+02
1.730000e-06	2.838244e-06	4.946772e-09	1.967950e+01	3.244984e+02
1.740000e-06	2.830357e-06	4.901492e-09	1.962482e+01	3.240766e+02
1.750000e-06	2.821136e-06	4.868942e-09	1.956088e+01	3.236012e+02
1.760000e-06	2.810216e-06	4.917726e-09	1.948517e+01	3.230785e+02
1.770000e-06	2.798381e-06	4.976829e-09	1.940311e+01	3.225147e+02
1.780000e-06	2.786626e-06	4.910804e-09	1.932160e+01	3.219152e+02
1.790000e-06	2.774153e-06	4.797492e-09	1.923512e+01	3.212843e+02
1.800000e-06	2.759746e-06	4.902212e-09	1.913522e+01	3.206242e+02
1.810000e-06	2.744123e-06	4.926755e-09	1.902690e+01	3.199349e+02
1.820000e-06	2.728152e-06	4.790456e-09	1.891616e+01	3.192143e+02
1.830000e-06	2.711027e-06	4.830159e-09	1.879742e+01	3.184580e+02
1.840000e-06	2.692453e-06	4.940054e-09	1.866863e+01	3.176601e+02
1.850000e-06	2.673314e-06	4.828232e-09	1.853593e+01	3.168134e+02
1.860000e-06	2.653480e-06	4.755330e-09	1.839841e+01	3.159105e+02
1.870000e-06	2.632265e-06	4.886724e-09	1.825131e+01	3.149444e+02
1.880000e-06	2.610031e-06	4.802763e-09	1.809715e+01	3.139090e+02
1.890000e-06	2.586946e-06	4.671419e-09	1.793708e+01	3.127999e+02
1.900000e-06	2.562751e-06	4.787504e-09	1.776932e+01	3.116146e+02
1.910000e-06	2.537847e-06	4.784719e-09	1.759664e+01	3.103528e+02
1.920000e-06	2.512223e-06	4.699760e-09	1.741898e+01	3.090161e+02
1.930000e-06	2.485599e-06	4.724419e-09	1.723437e+01	3.076079e+02
1.940000e-06	2.458327e-06	4.672349e-09	1.704528e+01	3.061327e+02
1.950000e-06	2.430334e-06	4.651343e-09	1.685119e+01	3.045955e+02
1.960000e-06	2.401064e-06	4.640274e-09	1.664823e+01	3.030015e+02
1.970000e-06	2.370641e-06	4.551819e-09	1.643729e+01	3.013553e+02
1.980000e-06	2.339459e-06	4.581497e-09	1.622108e+01	2.996602e+02
1.990000e-06	2.307566e-06	4.607785e-09	1.599995e+01	2.979185e+02
2.000000e-06	2.274983e-06	4.495362e-09	1.577403e+01	2.961308e+02
2.010000e-06	2.241539e-06	4.508391e-09	1.554213e+01	2.942964e+02
2.020000e-06	2.207279e-06	4.501945e-09	1.530459e+01	2.924135e+02
2.030000e-06	2.172492e-06	4.387201e-09	1.506339e+01	2.904796e+02
2.040000e-06	2.137088e-06	4.410812e-09	1.481791e+01	2.884917e+02
2.050000e-06	2.100963e-06	4.388978e-09	1.456743e+01	2.864471e+02
2.060000e-06	2.063899e-06	4.302718e-09	1.431044e+01	2.843435e+02
2.070000e-06	2.025668e-06	4.325187e-09	1.404536e+01	2.821796e+02
2.080000e-06	1.986627e-06	4.297555e-09	1.377466e+01	2.799550e+02
2.090000e-06	1.947097e-06	4.230362e-09	1.350057e+01	2.776702e+02
2.100000e-06	1.906947e-06	4.209560e-09	1.322218e+01	2.753268e+02
2.110000e-06	1.866101e-06	4.150017e-09	1.293896e+01	2.729266e+02
2.120000e-06	1.824663e-06	4.116839e-09	1.265165e+01	2.704721e+02
2.130000e-06	1.782692e-06	4.095982e-09	1.236063e+01	2.679653e+02
2.140000e-06	1.740090e-06	4.045620e-09	1.206524e+01	2.654078e+02
2.150000e-06	1.696963e-06	4.017579e-09	1.176621e+01	2.628004e+02
2.160000e-06	1.653474e-06	3.971504e-09	1.146468e+01	2.601429e+02
2.170000e-06	1.609449e-06	3.928931e-09	1.115942e+01	2.574341e+02
2.180000e-06	1.564724e-06	3.884096e-09	1.084931e+01	2.546717e+02
2.190000e-06	1.519360e-06	3.831335e-09	1.053477e+01	2.518529e+02
2.200000e-06	1.473490e-06	3.798567e-09	1.021673e+01	2.489740e+02
2.210000e-06	1.427258e-06	3.757134e-09	9.896162e+00	2.460316e+02
2.220000e-06	1.380614e-06	3.708756e-09	9.572748e+00	2.430221e+02
2.230000e-06	1.333446e-06	3.654743e-09	9.245704e+00	2.399426e+02
2.240000e-06	1.285648e-06	3.594909e-09	8.914287e+00	2.367909e+02
2.250000e-06	1.237202e-06	3.558300e-09	8.578373e+00	2.335654e+02
2.260000e-06	1.188296e-06	3.519162e-09	8.239278e+00	2.302655e+02
2.270000e-06	1.139014e-06	3.461722e-09	7.897571e+00	2.268913e+02
2.280000e-06	1.089327e-06	3.411654e-09	7.553056e+00	2.234434e+02
2.290000e-06	1.039191e-06	3.356413e-09	7.205431e+00	2.199228e+02
2.300000e-06	9.885967e-07	3.303802e-09	6.854623e+00	2.163304e+02
2.310000e-06	9.376313e-07	3.240254e-09	6.501245e+00	2.126670e+02
2.320000e-06	8.863611e-07	3.169001e-09	6.145754e+00	2.089331e+02
2.330000e-06	8.348446e-07	3.119308e-09	5.788554e+00	2.051283e+02
2.340000e-06	7.831007e-07	3.071480e-09	5.429778e+00	2.012520e+02
2.350000e-06	7.309641e-07	3.016258e-09	5.068279e+00	1.973027e+02
2.360000e-06	6.784328e-07	2.949298e-09	4.704043e+00	1.932785e+02
2.370000e-06	6.254397e-07	2.882816e-09	4.336605e+00	1.891769e+02
2.380000e-06	5.719074e-07	2.824608e-09	3.965428e+00	1.849953e+02
2.390000e-06	5.180002e-07	2.760377e-09	3.591653e+00	1.807306e+02
2.400000e-06	4.638661e-07	2.691750e-09	3.216304e+00	1.763797e+02
2.410000e-06	4.095484e-07	2.625581e-09	2.839682e+00	1.719391e+02
2.420000e-06	3.549994e-07	2.564501e-09	2.461456e+00	1.674053e+02
2.430000e-06	3.002851e-07	2.502083e-09	2.082084e+00	1.627741e+02
2.440000e-06	2.454686e-07	2.426488e-09	1.702004e+00	1.580412e+02
2.450000e-06	1.905490e-07	2.347071e-09	1.321207e+00	1.532016e+02
2.460000e-06	1.355872e-07	2.274509e-09	9.401198e-01	1.482497e+02
2.470000e-06	8.062937e-08	2.198974e-09	5.590591e-01	1.431792e+02
2.480000e-06	2.563963e-08	2.118175e-09	1.777772e-01	1.379831e+02
2.490000e-06	-2.937870e-08	2.034467e-09	-2.037028e-01	1.326543e+02
2.500000e-06	-8.439346e-08	1.952823e-09	-5.851581e-01	1.271851e+02
2.510000e-06	-1.394069e-07	1.873013e-09	-9.666042e-01	1.215676e+02
2.520000e-06	-1.943800e-07	1.786552e-09	-1.347771e+00	1.157943e+02
2.530000e-06	-2.492924e-07	1.693720e-09	-1.728516e+00	1.098575e+02
2.540000e-06	-3.040975e-07	1.597326e-09	-2.108518e+00	1.037501e+02
2.550000e-06	-3.586683e-07	1.503699e-09	-2.486895e+00	9.746465e+01
2.560000e-06	-4.130774e-07	1.407978e-09	-2.864151e+00	9.099384e+01
2.570000e-06	-4.673520e-07	1.302398e-09	-3.240474e+00	8.432960e+01
2.580000e-06	-5.213773e-07	1.193000e-09	-3.615069e+00	7.746279e+01
2.590000e-06	-5.750931e-07	1.088510e-09	-3.987518e+00	7.038259e+01
2.600000e-06	-6.283884e-07	9.853325e-10	-4.357050e+00	6.307601e+01
2.610000e-06	-6.812248e-07	8.730783e-10	-4.723402e+00	5.552748e+01
2.620000e-06	-7.336128e-07	7.500471e-10	-5.086644e+00	4.771878e+01
2.630000e-06	-7.856212e-07	6.223092e-10	-5.447254e+00	3.962920e+01
2.640000e-06	-8.372969e-07	4.972335e-10	-5.805558e+00	3.123622e+01
2.650000e-06	-8.887013e-07	3.691913e-10	-6.161980e+00	2.251651e+01
2.660000e-06	-9.398839e-07	2.302401e-10	-6.516864e+00	1.344752e+01
2.670000e-06	-9.907674e-07	8.322142e-11	-6.869674e+00	4.009324e+00
2.680000e-06	-1.041300e-06	-6.463289e-11	-7.220048e+00	-5.813179e+00
2.690000e-06	-1.091369e-06	-2.153056e-10	-7.567213e+00	-1.602797e+01
2.700000e-06	-1.140947e-06	-3.746623e-10	-7.910972e+00	-2.663367e+01
2.710000e-06	-1.190138e-06	-5.425048e-10	-8.252049e+00	-3.761757e+01
2.720000e-06	-1.238875e-06	-7.149953e-10	-8.589978e+00	-4.895409e+01
2.730000e-06	-1.286899e-06	-8.893286e-10	-8.922961e+00	-6.060398e+01
2.740000e-06	-1.334161e-06	-1.069553e-09	-9.250659e+00	-7.251417e+01
2.750000e-06	-1.380711e-06	-1.258807e-09	-9.573419e+00	-8.461864e+01
2.760000e-06	-1.426708e-06	-1.451353e-09	-9.892349e+00	-9.684003e+01
2.770000e-06	-1.472394e-06	-1.638186e-09	-1.020912e+01	-1.090922e+02
2.780000e-06	-1.517793e-06	-1.820816e-09	-1.052390e+01	-1.212835e+02
2.790000e-06	-1.562821e-06	-2.004247e-09	-1.083612e+01	-1.333202e+02
2.800000e-06	-1.607307e-06	-2.185564e-09	-1.114457e+01	-1.451106e+02
2.810000e-06	-1.651154e-06	-2.359956e-09	-1.144859e+01	-1.565689e+02
2.820000e-06	-1.694550e-06	-2.528146e-09	-1.174949e+01	-1.676187e+02
2.830000e-06	-1.737610e-06	-2.692083e-09	-1.204805e+01	-1.781960e+02
2.840000e-06	-1.780123e-06	-2.848459e-09	-1.234282e+01	-1.882513e+02
2.850000e-06	-1.821994e-06	-2.994686e-09	-1.263314e+01	-1.977510e+02
2.860000e-06	-1.863301e-06	-3.130003e-09	-1.291955e+01	-2.066776e+02
2.870000e-06	-1.903961e-06	-3.257200e-09	-1.320148e+01	-2.150290e+02
2.880000e-06	-1.943907e-06	-3.378565e-09	-1.347845e+01	-2.228169e+02
2.890000e-06	-1.983310e-06	-3.492195e-09	-1.375166e+01	-2.300643e+02
2.900000e-06	-2.022205e-06	-3.597393e-09	-1.402134e+01	-2.368030e+02
2.910000e-06	-2.060322e-06	-3.695877e-09	-1.428564e+01	-2.430703e+02
2.920000e-06	-2.097418e-06	-3.787797e-09	-1.454284e+01	-2.489063e+02
2.930000e-06	-2.133505e-06	-3.870625e-09	-1.479306e+01	-2.543506e+02
2.940000e-06	-2.168886e-06	-3.946568e-09	-1.503838e+01	-2.594405e+02
