# Temperatura_=_30.9
# Concentracion g/m^3_=_15500.0
# C_Vs_to_Am_M_A/Vsm_=_65563218390.804596
# pendiente_HvsI_1/m_=_3716.3
# ordenada_HvsI_A/m_=_1297.0
# frecuencia_Hz_=_300835.7597017484

Tiempo_(s)	Campo_(V.s)	Magnetizacion_(V.s)	Campo_(kA/m)	Magnetizacion_(A/m)
0.000000e+00	-2.859454e-06	-5.246070e-09	-1.980416e+01	-3.445139e+02
1.000000e-08	-2.858690e-06	-5.248226e-09	-1.979888e+01	-3.445737e+02
2.000000e-08	-2.857152e-06	-5.246294e-09	-1.978822e+01	-3.445714e+02
3.000000e-08	-2.854440e-06	-5.240789e-09	-1.976944e+01	-3.445006e+02
4.000000e-08	-2.850461e-06	-5.238566e-09	-1.974188e+01	-3.443559e+02
5.000000e-08	-2.845615e-06	-5.238343e-09	-1.970832e+01	-3.441335e+02
6.000000e-08	-2.840027e-06	-5.234103e-09	-1.966962e+01	-3.438317e+02
7.000000e-08	-2.833505e-06	-5.216028e-09	-1.962445e+01	-3.434508e+02
8.000000e-08	-2.825856e-06	-5.222531e-09	-1.957147e+01	-3.429934e+02
9.000000e-08	-2.817062e-06	-5.272864e-09	-1.951056e+01	-3.424641e+02
1.000000e-07	-2.806981e-06	-5.283376e-09	-1.944074e+01	-3.418688e+02
1.100000e-07	-2.795537e-06	-5.135719e-09	-1.936149e+01	-3.412142e+02
1.200000e-07	-2.783202e-06	-5.083833e-09	-1.927605e+01	-3.405071e+02
1.300000e-07	-2.770079e-06	-5.235599e-09	-1.918517e+01	-3.397537e+02
1.400000e-07	-2.755929e-06	-5.294059e-09	-1.908717e+01	-3.389593e+02
1.500000e-07	-2.740918e-06	-5.056267e-09	-1.898320e+01	-3.381272e+02
1.600000e-07	-2.724776e-06	-5.113759e-09	-1.887140e+01	-3.372595e+02
1.700000e-07	-2.707074e-06	-5.323408e-09	-1.874880e+01	-3.363559e+02
1.800000e-07	-2.688446e-06	-5.111249e-09	-1.861979e+01	-3.354149e+02
1.900000e-07	-2.669311e-06	-5.044968e-09	-1.848726e+01	-3.344334e+02
2.000000e-07	-2.649250e-06	-5.214420e-09	-1.834832e+01	-3.334077e+02
2.100000e-07	-2.628232e-06	-5.097079e-09	-1.820276e+01	-3.323333e+02
2.200000e-07	-2.606578e-06	-4.957108e-09	-1.805278e+01	-3.312059e+02
2.300000e-07	-2.584084e-06	-5.152165e-09	-1.789699e+01	-3.300218e+02
2.400000e-07	-2.560510e-06	-5.118860e-09	-1.773372e+01	-3.287776e+02
2.500000e-07	-2.536099e-06	-4.943992e-09	-1.756466e+01	-3.274712e+02
2.600000e-07	-2.510995e-06	-5.002663e-09	-1.739079e+01	-3.261010e+02
2.700000e-07	-2.484925e-06	-5.031814e-09	-1.721023e+01	-3.246664e+02
2.800000e-07	-2.457682e-06	-4.925277e-09	-1.702155e+01	-3.231675e+02
2.900000e-07	-2.429375e-06	-4.934852e-09	-1.682550e+01	-3.216047e+02
3.000000e-07	-2.400144e-06	-4.896584e-09	-1.662305e+01	-3.199788e+02
3.100000e-07	-2.370166e-06	-4.883469e-09	-1.641543e+01	-3.182903e+02
3.200000e-07	-2.339588e-06	-4.925209e-09	-1.620364e+01	-3.165400e+02
3.300000e-07	-2.308246e-06	-4.809393e-09	-1.598658e+01	-3.147283e+02
3.400000e-07	-2.276044e-06	-4.788076e-09	-1.576355e+01	-3.128556e+02
3.500000e-07	-2.243267e-06	-4.805911e-09	-1.553654e+01	-3.109222e+02
3.600000e-07	-2.209881e-06	-4.726533e-09	-1.530532e+01	-3.089285e+02
3.700000e-07	-2.175433e-06	-4.714140e-09	-1.506673e+01	-3.068750e+02
3.800000e-07	-2.139736e-06	-4.733869e-09	-1.481950e+01	-3.047626e+02
3.900000e-07	-2.103174e-06	-4.625182e-09	-1.456628e+01	-3.025926e+02
4.000000e-07	-2.066132e-06	-4.614725e-09	-1.430973e+01	-3.003666e+02
4.100000e-07	-2.028457e-06	-4.628659e-09	-1.404880e+01	-2.980865e+02
4.200000e-07	-1.990010e-06	-4.529297e-09	-1.378252e+01	-2.957543e+02
4.300000e-07	-1.950829e-06	-4.486888e-09	-1.351116e+01	-2.933720e+02
4.400000e-07	-1.910909e-06	-4.486924e-09	-1.323468e+01	-2.909410e+02
4.500000e-07	-1.870436e-06	-4.446963e-09	-1.295437e+01	-2.884628e+02
4.600000e-07	-1.829675e-06	-4.393065e-09	-1.267207e+01	-2.859375e+02
4.700000e-07	-1.788465e-06	-4.363907e-09	-1.238665e+01	-2.833651e+02
4.800000e-07	-1.746285e-06	-4.312853e-09	-1.209452e+01	-2.807442e+02
4.900000e-07	-1.702927e-06	-4.273917e-09	-1.179423e+01	-2.780733e+02
5.000000e-07	-1.658695e-06	-4.235187e-09	-1.148788e+01	-2.753498e+02
5.100000e-07	-1.614022e-06	-4.190022e-09	-1.117849e+01	-2.725712e+02
5.200000e-07	-1.569049e-06	-4.145670e-09	-1.086701e+01	-2.697346e+02
5.300000e-07	-1.523577e-06	-4.106806e-09	-1.055208e+01	-2.668374e+02
5.400000e-07	-1.477466e-06	-4.066698e-09	-1.023272e+01	-2.638774e+02
5.500000e-07	-1.430786e-06	-4.012735e-09	-9.909415e+00	-2.608529e+02
5.600000e-07	-1.383662e-06	-3.962472e-09	-9.583041e+00	-2.577626e+02
5.700000e-07	-1.336052e-06	-3.905859e-09	-9.253300e+00	-2.546059e+02
5.800000e-07	-1.287920e-06	-3.870969e-09	-8.919947e+00	-2.513824e+02
5.900000e-07	-1.239435e-06	-3.826042e-09	-8.584148e+00	-2.480920e+02
6.000000e-07	-1.190657e-06	-3.766493e-09	-8.246318e+00	-2.447344e+02
6.100000e-07	-1.141500e-06	-3.712395e-09	-7.905864e+00	-2.413091e+02
6.200000e-07	-1.091794e-06	-3.661684e-09	-7.561607e+00	-2.378151e+02
6.300000e-07	-1.041391e-06	-3.607774e-09	-7.212525e+00	-2.342507e+02
6.400000e-07	-9.903350e-07	-3.544592e-09	-6.858917e+00	-2.306137e+02
6.500000e-07	-9.387018e-07	-3.483672e-09	-6.501313e+00	-2.269014e+02
6.600000e-07	-8.865735e-07	-3.424374e-09	-6.140280e+00	-2.231105e+02
6.700000e-07	-8.341302e-07	-3.372954e-09	-5.777065e+00	-2.192380e+02
6.800000e-07	-7.814670e-07	-3.310885e-09	-5.412328e+00	-2.152807e+02
6.900000e-07	-7.285748e-07	-3.244066e-09	-5.046003e+00	-2.112361e+02
7.000000e-07	-6.754508e-07	-3.179246e-09	-4.678074e+00	-2.071019e+02
7.100000e-07	-6.220722e-07	-3.118984e-09	-4.308382e+00	-2.028767e+02
7.200000e-07	-5.684761e-07	-3.055087e-09	-3.937183e+00	-1.985596e+02
7.300000e-07	-5.147430e-07	-2.981520e-09	-3.565035e+00	-1.941499e+02
7.400000e-07	-4.607830e-07	-2.907488e-09	-3.191317e+00	-1.896469e+02
7.500000e-07	-4.065365e-07	-2.833635e-09	-2.815613e+00	-1.850495e+02
7.600000e-07	-3.521774e-07	-2.765432e-09	-2.439130e+00	-1.803556e+02
7.700000e-07	-2.977805e-07	-2.690165e-09	-2.062385e+00	-1.755620e+02
7.800000e-07	-2.433198e-07	-2.612358e-09	-1.685198e+00	-1.706635e+02
7.900000e-07	-1.887809e-07	-2.538121e-09	-1.307469e+00	-1.656533e+02
8.000000e-07	-1.341621e-07	-2.463758e-09	-9.291874e-01	-1.605227e+02
8.100000e-07	-7.951732e-08	-2.378187e-09	-5.507255e-01	-1.552615e+02
8.200000e-07	-2.486473e-08	-2.287584e-09	-1.722095e-01	-1.498582e+02
8.300000e-07	2.981036e-08	-2.202605e-09	2.064622e-01	-1.443008e+02
8.400000e-07	8.449120e-08	-2.116926e-09	5.851738e-01	-1.385773e+02
8.500000e-07	1.391338e-07	-2.026858e-09	9.636207e-01	-1.326765e+02
8.600000e-07	1.937454e-07	-1.930112e-09	1.341853e+00	-1.265881e+02
8.700000e-07	2.483383e-07	-1.836561e-09	1.719955e+00	-1.203033e+02
8.800000e-07	3.028598e-07	-1.743575e-09	2.097563e+00	-1.138148e+02
8.900000e-07	3.572550e-07	-1.644786e-09	2.474296e+00	-1.071163e+02
9.000000e-07	4.114795e-07	-1.533891e-09	2.849847e+00	-1.002018e+02
9.100000e-07	4.655767e-07	-1.420281e-09	3.224517e+00	-9.306474e+01
9.200000e-07	5.195120e-07	-1.310085e-09	3.598065e+00	-8.569686e+01
9.300000e-07	5.732307e-07	-1.194314e-09	3.970113e+00	-7.808700e+01
9.400000e-07	6.267613e-07	-1.070910e-09	4.340858e+00	-7.022003e+01
9.500000e-07	6.800329e-07	-9.405225e-10	4.709810e+00	-6.207616e+01
9.600000e-07	7.329904e-07	-8.116294e-10	5.076585e+00	-5.363069e+01
9.700000e-07	7.856911e-07	-6.812389e-10	5.441583e+00	-4.485434e+01
9.800000e-07	8.382089e-07	-5.430133e-10	5.805314e+00	-3.571441e+01
9.900000e-07	8.904456e-07	-3.925636e-10	6.167098e+00	-2.617653e+01
1.000000e-06	9.422573e-07	-2.344416e-10	6.525938e+00	-1.620716e+01
1.010000e-06	9.935098e-07	-7.220636e-11	6.880905e+00	-5.776666e+00
1.020000e-06	1.044131e-06	9.513525e-11	7.231503e+00	5.137375e+00
1.030000e-06	1.094093e-06	2.691789e-10	7.577533e+00	1.654671e+01
1.040000e-06	1.143494e-06	4.517627e-10	7.919671e+00	2.844921e+01
1.050000e-06	1.192491e-06	6.386851e-10	8.259023e+00	4.082625e+01
1.060000e-06	1.241168e-06	8.314803e-10	8.596151e+00	5.364080e+01
1.070000e-06	1.289557e-06	1.029768e-09	8.931283e+00	6.683674e+01
1.080000e-06	1.337583e-06	1.235662e-09	9.263908e+00	8.033924e+01
1.090000e-06	1.385117e-06	1.446790e-09	9.593120e+00	9.405649e+01
1.100000e-06	1.432043e-06	1.658421e-09	9.918125e+00	1.078827e+02
1.110000e-06	1.478470e-06	1.869210e-09	1.023967e+01	1.217019e+02
1.120000e-06	1.524385e-06	2.076185e-09	1.055767e+01	1.353932e+02
1.130000e-06	1.569725e-06	2.278512e-09	1.087169e+01	1.488356e+02
1.140000e-06	1.614667e-06	2.477051e-09	1.118295e+01	1.619139e+02
1.150000e-06	1.659293e-06	2.670699e-09	1.149202e+01	1.745233e+02
1.160000e-06	1.703494e-06	2.853381e-09	1.179816e+01	1.865744e+02
1.170000e-06	1.747020e-06	3.025478e-09	1.209961e+01	1.979964e+02
1.180000e-06	1.789572e-06	3.185261e-09	1.239431e+01	2.087394e+02
1.190000e-06	1.831196e-06	3.334493e-09	1.268260e+01	2.187752e+02
1.200000e-06	1.872168e-06	3.476596e-09	1.296637e+01	2.280971e+02
1.210000e-06	1.912618e-06	3.609847e-09	1.324651e+01	2.367178e+02
1.220000e-06	1.952486e-06	3.730352e-09	1.352263e+01	2.446669e+02
1.230000e-06	1.991672e-06	3.838795e-09	1.379403e+01	2.519870e+02
1.240000e-06	2.030188e-06	3.941146e-09	1.406079e+01	2.587294e+02
1.250000e-06	2.067981e-06	4.035800e-09	1.432254e+01	2.649504e+02
1.260000e-06	2.105064e-06	4.122203e-09	1.457937e+01	2.707068e+02
1.270000e-06	2.141624e-06	4.200659e-09	1.483257e+01	2.760527e+02
1.280000e-06	2.177607e-06	4.276144e-09	1.508179e+01	2.810367e+02
1.290000e-06	2.212607e-06	4.348105e-09	1.532420e+01	2.857001e+02
1.300000e-06	2.246475e-06	4.413632e-09	1.555876e+01	2.900761e+02
1.310000e-06	2.279491e-06	4.473766e-09	1.578742e+01	2.941898e+02
1.320000e-06	2.311880e-06	4.531236e-09	1.601175e+01	2.980591e+02
1.330000e-06	2.343541e-06	4.587044e-09	1.623103e+01	3.016961e+02
1.340000e-06	2.374384e-06	4.637513e-09	1.644464e+01	3.051089e+02
1.350000e-06	2.404437e-06	4.682820e-09	1.665278e+01	3.083036e+02
1.360000e-06	2.433716e-06	4.724296e-09	1.685556e+01	3.112856e+02
1.370000e-06	2.462371e-06	4.763720e-09	1.705402e+01	3.140615e+02
1.380000e-06	2.490236e-06	4.799862e-09	1.724701e+01	3.166397e+02
1.390000e-06	2.516872e-06	4.832663e-09	1.743149e+01	3.190313e+02
1.400000e-06	2.542268e-06	4.863880e-09	1.760738e+01	3.212494e+02
1.410000e-06	2.566797e-06	4.895285e-09	1.777726e+01	3.233091e+02
1.420000e-06	2.590501e-06	4.927333e-09	1.794144e+01	3.252265e+02
1.430000e-06	2.613289e-06	4.957919e-09	1.809926e+01	3.270176e+02
1.440000e-06	2.635217e-06	4.984728e-09	1.825113e+01	3.286970e+02
1.450000e-06	2.656322e-06	5.006189e-09	1.839730e+01	3.302775e+02
1.460000e-06	2.676709e-06	5.024977e-09	1.853850e+01	3.317691e+02
1.470000e-06	2.696282e-06	5.042986e-09	1.867406e+01	3.331784e+02
1.480000e-06	2.714853e-06	5.062039e-09	1.880268e+01	3.345091e+02
1.490000e-06	2.732413e-06	5.081257e-09	1.892430e+01	3.357622e+02
1.500000e-06	2.748990e-06	5.100233e-09	1.903911e+01	3.369366e+02
1.510000e-06	2.764474e-06	5.119567e-09	1.914635e+01	3.380299e+02
1.520000e-06	2.778837e-06	5.136094e-09	1.924582e+01	3.390395e+02
1.530000e-06	2.792211e-06	5.147703e-09	1.933845e+01	3.399635e+02
1.540000e-06	2.804557e-06	5.155357e-09	1.942395e+01	3.408013e+02
1.550000e-06	2.815659e-06	5.162950e-09	1.950085e+01	3.415539e+02
1.560000e-06	2.825448e-06	5.171923e-09	1.956864e+01	3.422245e+02
1.570000e-06	2.834242e-06	5.183566e-09	1.962955e+01	3.428181e+02
1.580000e-06	2.842165e-06	5.197213e-09	1.968442e+01	3.433410e+02
1.590000e-06	2.849084e-06	5.209016e-09	1.973234e+01	3.438003e+02
1.600000e-06	2.855013e-06	5.216563e-09	1.977340e+01	3.442029e+02
1.610000e-06	2.860090e-06	5.220570e-09	1.980857e+01	3.445552e+02
1.620000e-06	2.864391e-06	5.223618e-09	1.983836e+01	3.448618e+02
1.630000e-06	2.867563e-06	5.228054e-09	1.986033e+01	3.451253e+02
1.640000e-06	2.869406e-06	5.231794e-09	1.987309e+01	3.453460e+02
1.650000e-06	2.870187e-06	5.235087e-09	1.987850e+01	3.455219e+02
1.660000e-06	2.870065e-06	5.239690e-09	1.987765e+01	3.456490e+02
1.670000e-06	2.869055e-06	5.241038e-09	1.987066e+01	3.457216e+02
1.680000e-06	2.867177e-06	5.238018e-09	1.985766e+01	3.457335e+02
1.690000e-06	2.864451e-06	5.236198e-09	1.983878e+01	3.456782e+02
1.700000e-06	2.860990e-06	5.234187e-09	1.981480e+01	3.455500e+02
1.710000e-06	2.856585e-06	5.230014e-09	1.978429e+01	3.453449e+02
1.720000e-06	2.850915e-06	5.227018e-09	1.974503e+01	3.450605e+02
1.730000e-06	2.844225e-06	5.244333e-09	1.969869e+01	3.446967e+02
1.740000e-06	2.836751e-06	5.209313e-09	1.964692e+01	3.442558e+02
1.750000e-06	2.828113e-06	5.132757e-09	1.958710e+01	3.437418e+02
1.760000e-06	2.817841e-06	5.142594e-09	1.951596e+01	3.431604e+02
1.770000e-06	2.806271e-06	5.302797e-09	1.943583e+01	3.425183e+02
1.780000e-06	2.794457e-06	5.256650e-09	1.935400e+01	3.418222e+02
1.790000e-06	2.782325e-06	5.054169e-09	1.926998e+01	3.410786e+02
1.800000e-06	2.768624e-06	5.103566e-09	1.917509e+01	3.402929e+02
1.810000e-06	2.753300e-06	5.263904e-09	1.906896e+01	3.394691e+02
1.820000e-06	2.737499e-06	5.111527e-09	1.895952e+01	3.386093e+02
1.830000e-06	2.720990e-06	4.999776e-09	1.884518e+01	3.377138e+02
1.840000e-06	2.702958e-06	5.271235e-09	1.872029e+01	3.367814e+02
1.850000e-06	2.684000e-06	5.204618e-09	1.858899e+01	3.358093e+02
1.860000e-06	2.664574e-06	4.950849e-09	1.845445e+01	3.347937e+02
1.870000e-06	2.643980e-06	5.182215e-09	1.831182e+01	3.337304e+02
1.880000e-06	2.622020e-06	5.216320e-09	1.815973e+01	3.326151e+02
1.890000e-06	2.599176e-06	4.907607e-09	1.800151e+01	3.314438e+02
1.900000e-06	2.575328e-06	5.032303e-09	1.783635e+01	3.302131e+02
1.910000e-06	2.550615e-06	5.129502e-09	1.766519e+01	3.289205e+02
1.920000e-06	2.525334e-06	4.958384e-09	1.749009e+01	3.275644e+02
1.930000e-06	2.499137e-06	4.981916e-09	1.730866e+01	3.261440e+02
1.940000e-06	2.472153e-06	5.014080e-09	1.712177e+01	3.246592e+02
1.950000e-06	2.444614e-06	4.916981e-09	1.693104e+01	3.231104e+02
1.960000e-06	2.415779e-06	4.957083e-09	1.673134e+01	3.214982e+02
1.970000e-06	2.385573e-06	4.868981e-09	1.652213e+01	3.198235e+02
1.980000e-06	2.354646e-06	4.794514e-09	1.630793e+01	3.180867e+02
1.990000e-06	2.323040e-06	4.919686e-09	1.608904e+01	3.162885e+02
2.000000e-06	2.290726e-06	4.797139e-09	1.586524e+01	3.144292e+02
2.010000e-06	2.257634e-06	4.731888e-09	1.563604e+01	3.125091e+02
2.020000e-06	2.223660e-06	4.824957e-09	1.540074e+01	3.105286e+02
2.030000e-06	2.189047e-06	4.673833e-09	1.516102e+01	3.084882e+02
2.040000e-06	2.153858e-06	4.640258e-09	1.491731e+01	3.063887e+02
2.050000e-06	2.117923e-06	4.714616e-09	1.466843e+01	3.042313e+02
2.060000e-06	2.081171e-06	4.572471e-09	1.441389e+01	3.020175e+02
2.070000e-06	2.043299e-06	4.559307e-09	1.415159e+01	2.997492e+02
2.080000e-06	2.004475e-06	4.590707e-09	1.388271e+01	2.974283e+02
2.090000e-06	1.965175e-06	4.491511e-09	1.361051e+01	2.950569e+02
2.100000e-06	1.925250e-06	4.475439e-09	1.333401e+01	2.926366e+02
2.110000e-06	1.884596e-06	4.431952e-09	1.305244e+01	2.901688e+02
2.120000e-06	1.843337e-06	4.381250e-09	1.276669e+01	2.876539e+02
2.130000e-06	1.801490e-06	4.371102e-09	1.247686e+01	2.850920e+02
2.140000e-06	1.759082e-06	4.305311e-09	1.218314e+01	2.824820e+02
2.150000e-06	1.716166e-06	4.271803e-09	1.188592e+01	2.798223e+02
2.160000e-06	1.672848e-06	4.233888e-09	1.158591e+01	2.771107e+02
2.170000e-06	1.629011e-06	4.181637e-09	1.128229e+01	2.743445e+02
2.180000e-06	1.584407e-06	4.152252e-09	1.097337e+01	2.715209e+02
2.190000e-06	1.539153e-06	4.099235e-09	1.065995e+01	2.686372e+02
2.200000e-06	1.493453e-06	4.051521e-09	1.034344e+01	2.656912e+02
2.210000e-06	1.447453e-06	4.012604e-09	1.002485e+01	2.626809e+02
2.220000e-06	1.401037e-06	3.961250e-09	9.703377e+00	2.596052e+02
2.230000e-06	1.353920e-06	3.927303e-09	9.377051e+00	2.564631e+02
2.240000e-06	1.306091e-06	3.861464e-09	9.045796e+00	2.532543e+02
2.250000e-06	1.257692e-06	3.813115e-09	8.710596e+00	2.499786e+02
2.260000e-06	1.208895e-06	3.785560e-09	8.372631e+00	2.466358e+02
2.270000e-06	1.159745e-06	3.719745e-09	8.032226e+00	2.432254e+02
2.280000e-06	1.110175e-06	3.670183e-09	7.688914e+00	2.397466e+02
2.290000e-06	1.060152e-06	3.613167e-09	7.342456e+00	2.361978e+02
2.300000e-06	1.009672e-06	3.558164e-09	6.992844e+00	2.325769e+02
2.310000e-06	9.588327e-07	3.505044e-09	6.640736e+00	2.288813e+02
2.320000e-06	9.077466e-07	3.434454e-09	6.286922e+00	2.251079e+02
2.330000e-06	8.563854e-07	3.377897e-09	5.931201e+00	2.212535e+02
2.340000e-06	8.046879e-07	3.325602e-09	5.573152e+00	2.173150e+02
2.350000e-06	7.525701e-07	3.269589e-09	5.212192e+00	2.132896e+02
2.360000e-06	6.999279e-07	3.211464e-09	4.847599e+00	2.091751e+02
2.370000e-06	6.467599e-07	3.144010e-09	4.479366e+00	2.049699e+02
2.380000e-06	5.931683e-07	3.083110e-09	4.108198e+00	2.006729e+02
2.390000e-06	5.392822e-07	3.021308e-09	3.734991e+00	1.962834e+02
2.400000e-06	4.850897e-07	2.950662e-09	3.359661e+00	1.918008e+02
2.410000e-06	4.306452e-07	2.883446e-09	2.982586e+00	1.872241e+02
2.420000e-06	3.760890e-07	2.812172e-09	2.604738e+00	1.825515e+02
2.430000e-06	3.214345e-07	2.745945e-09	2.226209e+00	1.777799e+02
2.440000e-06	2.666790e-07	2.674264e-09	1.846980e+00	1.729048e+02
2.450000e-06	2.118240e-07	2.595080e-09	1.467063e+00	1.679195e+02
2.460000e-06	1.569111e-07	2.520885e-09	1.086743e+00	1.628159e+02
2.470000e-06	1.019920e-07	2.439875e-09	7.063821e-01	1.575840e+02
2.480000e-06	4.705614e-08	2.357638e-09	3.259040e-01	1.522124e+02
2.490000e-06	-7.903745e-09	2.272084e-09	-5.474020e-02	1.466895e+02
2.500000e-06	-6.287454e-08	2.185215e-09	-4.354599e-01	1.410029e+02
2.510000e-06	-1.178395e-07	2.101157e-09	-8.161390e-01	1.351413e+02
2.520000e-06	-1.727795e-07	2.012349e-09	-1.196646e+00	1.290942e+02
2.530000e-06	-2.276782e-07	1.917599e-09	-1.576866e+00	1.228526e+02
2.540000e-06	-2.825295e-07	1.819368e-09	-1.956758e+00	1.164086e+02
2.550000e-06	-3.372890e-07	1.719892e-09	-2.336015e+00	1.097560e+02
2.560000e-06	-3.919437e-07	1.617251e-09	-2.714545e+00	1.028886e+02
2.570000e-06	-4.465067e-07	1.508725e-09	-3.092441e+00	9.580021e+01
2.580000e-06	-5.008519e-07	1.395613e-09	-3.468827e+00	8.848297e+01
2.590000e-06	-5.548944e-07	1.283082e-09	-3.843118e+00	8.092643e+01
2.600000e-06	-6.086143e-07	1.167196e-09	-4.215175e+00	7.311640e+01
2.610000e-06	-6.619794e-07	1.045691e-09	-4.584773e+00	6.503413e+01
2.620000e-06	-7.149076e-07	9.169254e-10	-4.951347e+00	5.665595e+01
2.630000e-06	-7.673473e-07	7.836093e-10	-5.314537e+00	4.795352e+01
2.640000e-06	-8.193138e-07	6.477632e-10	-5.674449e+00	3.889472e+01
2.650000e-06	-8.708348e-07	5.058610e-10	-6.031276e+00	2.944535e+01
2.660000e-06	-9.220220e-07	3.547520e-10	-6.385791e+00	1.957147e+01
2.670000e-06	-9.729701e-07	1.958207e-10	-6.738650e+00	9.242322e+00
2.680000e-06	-1.023661e-06	3.466900e-11	-7.089731e+00	-1.566350e+00
2.690000e-06	-1.074010e-06	-1.342493e-10	-7.438440e+00	-1.286886e+01
2.700000e-06	-1.123927e-06	-3.120518e-10	-7.784155e+00	-2.466631e+01
2.710000e-06	-1.173359e-06	-4.966202e-10	-8.126517e+00	-3.694378e+01
2.720000e-06	-1.222371e-06	-6.884005e-10	-8.465965e+00	-4.966831e+01
2.730000e-06	-1.270856e-06	-8.877337e-10	-8.801764e+00	-6.278785e+01
2.740000e-06	-1.318569e-06	-1.093346e-09	-9.132221e+00	-7.623150e+01
2.750000e-06	-1.365506e-06	-1.304431e-09	-9.457296e+00	-8.991087e+01
2.760000e-06	-1.411803e-06	-1.519998e-09	-9.777943e+00	-1.037228e+02
2.770000e-06	-1.457605e-06	-1.736279e-09	-1.009516e+01	-1.175533e+02
2.780000e-06	-1.503037e-06	-1.950736e-09	-1.040981e+01	-1.312819e+02
2.790000e-06	-1.548130e-06	-2.160612e-09	-1.072213e+01	-1.447873e+02
2.800000e-06	-1.592812e-06	-2.363266e-09	-1.103158e+01	-1.579525e+02
2.810000e-06	-1.636919e-06	-2.555580e-09	-1.133707e+01	-1.706702e+02
2.820000e-06	-1.680438e-06	-2.739133e-09	-1.163847e+01	-1.828472e+02
2.830000e-06	-1.723531e-06	-2.916011e-09	-1.193692e+01	-1.944086e+02
2.840000e-06	-1.766200e-06	-3.083675e-09	-1.223244e+01	-2.052998e+02
2.850000e-06	-1.808330e-06	-3.238635e-09	-1.252423e+01	-2.154881e+02
2.860000e-06	-1.849848e-06	-3.382452e-09	-1.281178e+01	-2.249622e+02
2.870000e-06	-1.890774e-06	-3.518056e-09	-1.309523e+01	-2.337309e+02
2.880000e-06	-1.931005e-06	-3.645301e-09	-1.337386e+01	-2.418204e+02
2.890000e-06	-1.970527e-06	-3.763195e-09	-1.364759e+01	-2.492707e+02
2.900000e-06	-2.009551e-06	-3.870725e-09	-1.391786e+01	-2.561320e+02
2.910000e-06	-2.048019e-06	-3.969241e-09	-1.418428e+01	-2.624595e+02
2.920000e-06	-2.085564e-06	-4.058999e-09	-1.444431e+01	-2.683105e+02
2.930000e-06	-2.122007e-06	-4.140070e-09	-1.469672e+01	-2.737397e+02
2.940000e-06	-2.157569e-06	-4.216847e-09	-1.494301e+01	-2.787972e+02
