# Temperatura_=_19.68
# Concentracion g/m^3_=_15500.0
# C_Vs_to_Am_M_A/Vsm_=_65563218390.804596
# pendiente_HvsI_1/m_=_3716.3
# ordenada_HvsI_A/m_=_1297.0
# frecuencia_Hz_=_300844.0615927037

Tiempo_(s)	Campo_(V.s)	Magnetizacion_(V.s)	Campo_(kA/m)	Magnetizacion_(A/m)
0.000000e+00	-2.855792e-06	-5.008690e-09	-1.979807e+01	-3.277402e+02
1.000000e-08	-2.854803e-06	-5.006237e-09	-1.979121e+01	-3.277737e+02
2.000000e-08	-2.852725e-06	-5.001109e-09	-1.977681e+01	-3.277439e+02
3.000000e-08	-2.849331e-06	-4.997147e-09	-1.975328e+01	-3.276471e+02
4.000000e-08	-2.844985e-06	-4.996123e-09	-1.972315e+01	-3.274807e+02
5.000000e-08	-2.839912e-06	-4.993968e-09	-1.968798e+01	-3.272438e+02
6.000000e-08	-2.833963e-06	-4.992622e-09	-1.964674e+01	-3.269375e+02
7.000000e-08	-2.827031e-06	-4.996416e-09	-1.959868e+01	-3.265648e+02
8.000000e-08	-2.819041e-06	-4.986937e-09	-1.954329e+01	-3.261306e+02
9.000000e-08	-2.809797e-06	-4.966950e-09	-1.947920e+01	-3.256409e+02
1.000000e-07	-2.799100e-06	-4.958843e-09	-1.940504e+01	-3.251027e+02
1.100000e-07	-2.787256e-06	-4.967568e-09	-1.932294e+01	-3.245224e+02
1.200000e-07	-2.774639e-06	-4.949882e-09	-1.923547e+01	-3.239059e+02
1.300000e-07	-2.761136e-06	-4.904165e-09	-1.914185e+01	-3.232575e+02
1.400000e-07	-2.746676e-06	-4.946962e-09	-1.904161e+01	-3.225794e+02
1.500000e-07	-2.731248e-06	-4.949459e-09	-1.893466e+01	-3.218715e+02
1.600000e-07	-2.714499e-06	-4.904161e-09	-1.881854e+01	-3.211316e+02
1.700000e-07	-2.696497e-06	-4.914880e-09	-1.869374e+01	-3.203552e+02
1.800000e-07	-2.677814e-06	-4.922233e-09	-1.856422e+01	-3.195362e+02
1.900000e-07	-2.658426e-06	-4.874515e-09	-1.842981e+01	-3.186674e+02
2.000000e-07	-2.638081e-06	-4.841422e-09	-1.828877e+01	-3.177415e+02
2.100000e-07	-2.616926e-06	-4.873091e-09	-1.814211e+01	-3.167517e+02
2.200000e-07	-2.594971e-06	-4.847600e-09	-1.798990e+01	-3.156920e+02
2.300000e-07	-2.572008e-06	-4.813270e-09	-1.783071e+01	-3.145583e+02
2.400000e-07	-2.548116e-06	-4.819526e-09	-1.766507e+01	-3.133483e+02
2.500000e-07	-2.523486e-06	-4.788190e-09	-1.749432e+01	-3.120617e+02
2.600000e-07	-2.497978e-06	-4.741664e-09	-1.731749e+01	-3.107003e+02
2.700000e-07	-2.471395e-06	-4.741286e-09	-1.713319e+01	-3.092670e+02
2.800000e-07	-2.443738e-06	-4.713053e-09	-1.694146e+01	-3.077661e+02
2.900000e-07	-2.415152e-06	-4.691599e-09	-1.674328e+01	-3.062023e+02
3.000000e-07	-2.385750e-06	-4.671851e-09	-1.653945e+01	-3.045801e+02
3.100000e-07	-2.355617e-06	-4.654478e-09	-1.633055e+01	-3.029036e+02
3.200000e-07	-2.324790e-06	-4.641227e-09	-1.611684e+01	-3.011758e+02
3.300000e-07	-2.293177e-06	-4.588744e-09	-1.589768e+01	-2.993986e+02
3.400000e-07	-2.260860e-06	-4.548880e-09	-1.567364e+01	-2.975727e+02
3.500000e-07	-2.227923e-06	-4.540139e-09	-1.544530e+01	-2.956976e+02
3.600000e-07	-2.194131e-06	-4.514008e-09	-1.521103e+01	-2.937722e+02
3.700000e-07	-2.159179e-06	-4.472803e-09	-1.496873e+01	-2.917946e+02
3.800000e-07	-2.123206e-06	-4.470975e-09	-1.471934e+01	-2.897631e+02
3.900000e-07	-2.086611e-06	-4.437957e-09	-1.446564e+01	-2.876762e+02
4.000000e-07	-2.049406e-06	-4.389202e-09	-1.420771e+01	-2.855328e+02
4.100000e-07	-2.011469e-06	-4.354574e-09	-1.394471e+01	-2.833327e+02
4.200000e-07	-1.972819e-06	-4.314841e-09	-1.367677e+01	-2.810765e+02
4.300000e-07	-1.933378e-06	-4.277539e-09	-1.340334e+01	-2.787654e+02
4.400000e-07	-1.893265e-06	-4.251841e-09	-1.312525e+01	-2.764009e+02
4.500000e-07	-1.852788e-06	-4.219257e-09	-1.284464e+01	-2.739847e+02
4.600000e-07	-1.811951e-06	-4.179606e-09	-1.256153e+01	-2.715185e+02
4.700000e-07	-1.770317e-06	-4.146950e-09	-1.227290e+01	-2.690032e+02
4.800000e-07	-1.727539e-06	-4.097126e-09	-1.197634e+01	-2.664389e+02
4.900000e-07	-1.683786e-06	-4.049350e-09	-1.167302e+01	-2.638249e+02
5.000000e-07	-1.639500e-06	-4.008731e-09	-1.136600e+01	-2.611594e+02
5.100000e-07	-1.594900e-06	-3.974781e-09	-1.105681e+01	-2.584399e+02
5.200000e-07	-1.549841e-06	-3.935129e-09	-1.074443e+01	-2.556629e+02
5.300000e-07	-1.504145e-06	-3.891064e-09	-1.042764e+01	-2.528250e+02
5.400000e-07	-1.457870e-06	-3.840621e-09	-1.010683e+01	-2.499226e+02
5.500000e-07	-1.411079e-06	-3.789780e-09	-9.782450e+00	-2.469524e+02
5.600000e-07	-1.363724e-06	-3.747552e-09	-9.454154e+00	-2.439118e+02
5.700000e-07	-1.315917e-06	-3.697029e-09	-9.122729e+00	-2.407992e+02
5.800000e-07	-1.267767e-06	-3.650212e-09	-8.788925e+00	-2.376138e+02
5.900000e-07	-1.219266e-06	-3.607176e-09	-8.452683e+00	-2.343557e+02
6.000000e-07	-1.170378e-06	-3.561447e-09	-8.113762e+00	-2.310260e+02
6.100000e-07	-1.120921e-06	-3.503479e-09	-7.770900e+00	-2.276259e+02
6.200000e-07	-1.070777e-06	-3.442105e-09	-7.423272e+00	-2.241571e+02
6.300000e-07	-1.019976e-06	-3.385098e-09	-7.071086e+00	-2.206209e+02
6.400000e-07	-9.686042e-07	-3.331325e-09	-6.714946e+00	-2.170183e+02
6.500000e-07	-9.167987e-07	-3.276820e-09	-6.355800e+00	-2.133495e+02
6.600000e-07	-8.646542e-07	-3.217512e-09	-5.994303e+00	-2.096139e+02
6.700000e-07	-8.122859e-07	-3.160665e-09	-5.631255e+00	-2.058099e+02
6.800000e-07	-7.596982e-07	-3.101661e-09	-5.266684e+00	-2.019353e+02
6.900000e-07	-7.068214e-07	-3.041173e-09	-4.900111e+00	-1.979870e+02
7.000000e-07	-6.536554e-07	-2.976074e-09	-4.531532e+00	-1.939617e+02
7.100000e-07	-6.002392e-07	-2.911103e-09	-4.161219e+00	-1.898557e+02
7.200000e-07	-5.466196e-07	-2.847599e-09	-3.789496e+00	-1.856654e+02
7.300000e-07	-4.927805e-07	-2.782138e-09	-3.416251e+00	-1.813872e+02
7.400000e-07	-4.387053e-07	-2.710174e-09	-3.041369e+00	-1.770176e+02
7.500000e-07	-3.844974e-07	-2.635604e-09	-2.665567e+00	-1.725535e+02
7.600000e-07	-3.302405e-07	-2.565852e-09	-2.289425e+00	-1.679913e+02
7.700000e-07	-2.759269e-07	-2.495642e-09	-1.912891e+00	-1.633276e+02
7.800000e-07	-2.215606e-07	-2.424093e-09	-1.535992e+00	-1.585582e+02
7.900000e-07	-1.671070e-07	-2.350013e-09	-1.158486e+00	-1.536783e+02
8.000000e-07	-1.125904e-07	-2.275484e-09	-7.805442e-01	-1.486823e+02
8.100000e-07	-5.808638e-08	-2.196842e-09	-4.026897e-01	-1.435636e+02
8.200000e-07	-3.568808e-09	-2.113178e-09	-2.474112e-02	-1.383148e+02
8.300000e-07	5.097315e-08	-2.026342e-09	3.533765e-01	-1.329276e+02
8.400000e-07	1.054838e-07	-1.938778e-09	7.312774e-01	-1.273935e+02
8.500000e-07	1.599445e-07	-1.852455e-09	1.108831e+00	-1.217035e+02
8.600000e-07	2.143700e-07	-1.764399e-09	1.486142e+00	-1.158488e+02
8.700000e-07	2.688029e-07	-1.674935e-09	1.863504e+00	-1.098208e+02
8.800000e-07	3.231981e-07	-1.581384e-09	2.240604e+00	-1.036115e+02
8.900000e-07	3.774683e-07	-1.483235e-09	2.616837e+00	-9.721323e+01
9.000000e-07	4.315994e-07	-1.381472e-09	2.992106e+00	-9.061829e+01
9.100000e-07	4.855563e-07	-1.278941e-09	3.366168e+00	-8.381876e+01
9.200000e-07	5.393257e-07	-1.171927e-09	3.738930e+00	-7.680582e+01
9.300000e-07	5.928896e-07	-1.058498e-09	4.110267e+00	-6.956911e+01
9.400000e-07	6.462112e-07	-9.428657e-10	4.479924e+00	-6.209607e+01
9.500000e-07	6.992682e-07	-8.234126e-10	4.847747e+00	-5.437154e+01
9.600000e-07	7.520537e-07	-7.010196e-10	5.213688e+00	-4.637746e+01
9.700000e-07	8.045711e-07	-5.750913e-10	5.577771e+00	-3.809307e+01
9.800000e-07	8.568489e-07	-4.444862e-10	5.940192e+00	-2.949552e+01
9.900000e-07	9.088465e-07	-3.065128e-10	6.300671e+00	-2.056097e+01
1.000000e-06	9.604687e-07	-1.597954e-10	6.658546e+00	-1.126622e+01
1.010000e-06	1.011567e-06	-7.724004e-12	7.012788e+00	-1.590759e+00
1.020000e-06	1.062006e-06	1.475091e-10	7.362462e+00	8.480893e+00
1.030000e-06	1.111821e-06	3.092658e-10	7.707813e+00	1.895666e+01
1.040000e-06	1.161065e-06	4.782047e-10	8.049198e+00	2.983449e+01
1.050000e-06	1.209844e-06	6.497522e-10	8.387365e+00	4.110023e+01
1.060000e-06	1.258316e-06	8.233946e-10	8.723400e+00	5.272598e+01
1.070000e-06	1.306514e-06	1.001924e-09	9.057537e+00	6.466922e+01
1.080000e-06	1.354303e-06	1.188753e-09	9.388844e+00	7.687279e+01
1.090000e-06	1.401595e-06	1.380549e-09	9.716699e+00	8.926581e+01
1.100000e-06	1.448371e-06	1.572840e-09	1.004098e+01	1.017656e+02
1.110000e-06	1.494586e-06	1.762527e-09	1.036137e+01	1.142804e+02
1.120000e-06	1.540271e-06	1.949882e-09	1.067808e+01	1.267131e+02
1.130000e-06	1.585465e-06	2.136696e-09	1.099140e+01	1.389647e+02
1.140000e-06	1.630238e-06	2.321668e-09	1.130179e+01	1.509395e+02
1.150000e-06	1.674637e-06	2.500122e-09	1.160959e+01	1.625481e+02
1.160000e-06	1.718575e-06	2.669153e-09	1.191419e+01	1.737121e+02
1.170000e-06	1.761763e-06	2.830927e-09	1.221360e+01	1.843669e+02
1.180000e-06	1.803974e-06	2.982754e-09	1.250624e+01	1.944634e+02
1.190000e-06	1.845330e-06	3.124863e-09	1.279294e+01	2.039702e+02
1.200000e-06	1.886011e-06	3.258243e-09	1.307496e+01	2.128728e+02
1.210000e-06	1.926108e-06	3.383032e-09	1.335294e+01	2.211729e+02
1.220000e-06	1.965649e-06	3.499517e-09	1.362706e+01	2.288869e+02
1.230000e-06	2.004516e-06	3.608018e-09	1.389651e+01	2.360426e+02
1.240000e-06	2.042667e-06	3.708953e-09	1.416100e+01	2.426766e+02
1.250000e-06	2.080138e-06	3.801620e-09	1.442076e+01	2.488308e+02
1.260000e-06	2.116979e-06	3.887271e-09	1.467617e+01	2.545489e+02
1.270000e-06	2.153296e-06	3.967835e-09	1.492794e+01	2.598741e+02
1.280000e-06	2.188931e-06	4.043797e-09	1.517499e+01	2.648461e+02
1.290000e-06	2.223514e-06	4.112979e-09	1.541474e+01	2.694998e+02
1.300000e-06	2.256996e-06	4.176400e-09	1.564686e+01	2.738640e+02
1.310000e-06	2.289702e-06	4.236218e-09	1.587359e+01	2.779618e+02
1.320000e-06	2.321752e-06	4.294373e-09	1.609578e+01	2.818105e+02
1.330000e-06	2.353037e-06	4.350260e-09	1.631267e+01	2.854227e+02
1.340000e-06	2.383531e-06	4.401247e-09	1.652407e+01	2.888079e+02
1.350000e-06	2.413163e-06	4.446836e-09	1.672950e+01	2.919737e+02
1.360000e-06	2.442056e-06	4.488336e-09	1.692980e+01	2.949271e+02
1.370000e-06	2.470377e-06	4.527125e-09	1.712614e+01	2.976760e+02
1.380000e-06	2.497782e-06	4.562185e-09	1.731612e+01	3.002296e+02
1.390000e-06	2.523931e-06	4.593687e-09	1.749741e+01	3.025991e+02
1.400000e-06	2.548974e-06	4.622899e-09	1.767102e+01	3.047975e+02
1.410000e-06	2.573140e-06	4.654682e-09	1.783855e+01	3.068394e+02
1.420000e-06	2.596466e-06	4.688138e-09	1.800027e+01	3.087401e+02
1.430000e-06	2.618900e-06	4.717024e-09	1.815579e+01	3.105146e+02
1.440000e-06	2.640457e-06	4.740770e-09	1.830523e+01	3.121772e+02
1.450000e-06	2.661279e-06	4.761195e-09	1.844959e+01	3.137401e+02
1.460000e-06	2.681388e-06	4.780769e-09	1.858899e+01	3.152132e+02
1.470000e-06	2.700594e-06	4.799665e-09	1.872214e+01	3.166036e+02
1.480000e-06	2.718747e-06	4.818769e-09	1.884799e+01	3.179155e+02
1.490000e-06	2.735928e-06	4.838909e-09	1.896710e+01	3.191508e+02
1.500000e-06	2.752111e-06	4.858989e-09	1.907929e+01	3.203092e+02
1.510000e-06	2.767219e-06	4.876440e-09	1.918403e+01	3.213893e+02
1.520000e-06	2.781269e-06	4.890682e-09	1.928143e+01	3.223894e+02
1.530000e-06	2.794279e-06	4.902903e-09	1.937162e+01	3.233080e+02
1.540000e-06	2.806210e-06	4.913441e-09	1.945433e+01	3.241445e+02
1.550000e-06	2.816814e-06	4.922169e-09	1.952785e+01	3.249000e+02
1.560000e-06	2.826149e-06	4.931778e-09	1.959256e+01	3.255768e+02
1.570000e-06	2.834562e-06	4.944829e-09	1.965089e+01	3.261789e+02
1.580000e-06	2.842114e-06	4.956820e-09	1.970324e+01	3.267112e+02
1.590000e-06	2.848714e-06	4.964183e-09	1.974900e+01	3.271794e+02
1.600000e-06	2.854323e-06	4.969459e-09	1.978788e+01	3.275888e+02
1.610000e-06	2.859025e-06	4.975734e-09	1.982048e+01	3.279442e+02
1.620000e-06	2.862853e-06	4.981256e-09	1.984702e+01	3.282491e+02
1.630000e-06	2.865516e-06	4.984363e-09	1.986548e+01	3.285052e+02
1.640000e-06	2.866955e-06	4.987653e-09	1.987545e+01	3.287124e+02
1.650000e-06	2.867394e-06	4.991869e-09	1.987850e+01	3.288690e+02
1.660000e-06	2.866911e-06	4.994270e-09	1.987515e+01	3.289717e+02
1.670000e-06	2.865545e-06	4.992961e-09	1.986568e+01	3.290163e+02
1.680000e-06	2.863294e-06	4.990278e-09	1.985007e+01	3.289984e+02
1.690000e-06	2.860223e-06	4.991039e-09	1.982879e+01	3.289141e+02
1.700000e-06	2.856441e-06	4.992206e-09	1.980256e+01	3.287605e+02
1.710000e-06	2.851697e-06	4.988804e-09	1.976968e+01	3.285365e+02
1.720000e-06	2.845755e-06	4.976995e-09	1.972849e+01	3.282426e+02
1.730000e-06	2.838770e-06	4.965845e-09	1.968006e+01	3.278818e+02
1.740000e-06	2.830845e-06	4.971156e-09	1.962512e+01	3.274584e+02
1.750000e-06	2.821584e-06	4.976585e-09	1.956092e+01	3.269785e+02
1.760000e-06	2.810770e-06	4.941298e-09	1.948595e+01	3.264487e+02
1.770000e-06	2.799078e-06	4.944095e-09	1.940489e+01	3.258757e+02
1.780000e-06	2.787230e-06	4.954577e-09	1.932275e+01	3.252656e+02
1.790000e-06	2.774579e-06	4.942752e-09	1.923505e+01	3.246230e+02
1.800000e-06	2.760188e-06	4.883958e-09	1.913529e+01	3.239504e+02
1.810000e-06	2.744656e-06	4.898686e-09	1.902761e+01	3.232483e+02
1.820000e-06	2.728600e-06	4.951216e-09	1.891629e+01	3.225147e+02
1.830000e-06	2.711421e-06	4.888996e-09	1.879720e+01	3.217455e+02
1.840000e-06	2.692908e-06	4.882261e-09	1.866886e+01	3.209348e+02
1.850000e-06	2.673725e-06	4.923338e-09	1.853587e+01	3.200757e+02
1.860000e-06	2.653810e-06	4.868236e-09	1.839780e+01	3.191609e+02
1.870000e-06	2.632692e-06	4.830705e-09	1.825140e+01	3.181832e+02
1.880000e-06	2.610522e-06	4.866043e-09	1.809771e+01	3.171366e+02
1.890000e-06	2.587370e-06	4.826278e-09	1.793720e+01	3.160167e+02
1.900000e-06	2.563174e-06	4.784009e-09	1.776946e+01	3.148207e+02
1.910000e-06	2.538251e-06	4.801196e-09	1.759668e+01	3.135480e+02
1.920000e-06	2.512604e-06	4.788028e-09	1.741888e+01	3.122000e+02
1.930000e-06	2.486013e-06	4.738813e-09	1.723453e+01	3.107796e+02
1.940000e-06	2.458695e-06	4.737071e-09	1.704515e+01	3.092907e+02
1.950000e-06	2.430574e-06	4.704112e-09	1.685020e+01	3.077380e+02
1.960000e-06	2.401241e-06	4.670659e-09	1.664684e+01	3.061262e+02
1.970000e-06	2.370834e-06	4.658356e-09	1.643604e+01	3.044595e+02
1.980000e-06	2.339654e-06	4.617032e-09	1.621989e+01	3.027409e+02
1.990000e-06	2.307758e-06	4.610791e-09	1.599877e+01	3.009728e+02
2.000000e-06	2.275125e-06	4.589152e-09	1.577253e+01	2.991559e+02
2.010000e-06	2.241627e-06	4.533042e-09	1.554030e+01	2.972900e+02
2.020000e-06	2.207348e-06	4.521136e-09	1.530266e+01	2.953739e+02
2.030000e-06	2.172513e-06	4.489239e-09	1.506117e+01	2.934061e+02
2.040000e-06	2.137069e-06	4.425227e-09	1.481545e+01	2.913846e+02
2.050000e-06	2.100888e-06	4.413292e-09	1.456462e+01	2.893080e+02
2.060000e-06	2.063821e-06	4.392498e-09	1.430765e+01	2.871750e+02
2.070000e-06	2.025624e-06	4.355294e-09	1.404284e+01	2.849853e+02
2.080000e-06	1.986539e-06	4.328854e-09	1.377189e+01	2.827393e+02
2.090000e-06	1.946954e-06	4.281948e-09	1.349745e+01	2.804382e+02
2.100000e-06	1.906793e-06	4.244758e-09	1.321904e+01	2.780834e+02
2.110000e-06	1.865930e-06	4.202717e-09	1.293575e+01	2.756766e+02
2.120000e-06	1.824439e-06	4.155403e-09	1.264811e+01	2.732196e+02
2.130000e-06	1.782447e-06	4.130996e-09	1.235699e+01	2.707132e+02
2.140000e-06	1.739858e-06	4.102494e-09	1.206174e+01	2.681580e+02
2.150000e-06	1.696713e-06	4.059647e-09	1.176264e+01	2.655533e+02
2.160000e-06	1.653189e-06	4.013051e-09	1.146090e+01	2.628974e+02
2.170000e-06	1.609126e-06	3.964993e-09	1.115543e+01	2.601881e+02
2.180000e-06	1.564340e-06	3.925032e-09	1.084494e+01	2.574219e+02
2.190000e-06	1.518916e-06	3.887176e-09	1.053004e+01	2.545955e+02
2.200000e-06	1.473015e-06	3.844498e-09	1.021182e+01	2.517051e+02
2.210000e-06	1.426741e-06	3.800848e-09	9.891025e+00	2.487475e+02
2.220000e-06	1.380104e-06	3.748340e-09	9.567709e+00	2.457199e+02
2.230000e-06	1.332957e-06	3.704248e-09	9.240859e+00	2.426205e+02
2.240000e-06	1.285110e-06	3.652359e-09	8.909155e+00	2.394484e+02
2.250000e-06	1.236612e-06	3.599704e-09	8.572935e+00	2.362036e+02
2.260000e-06	1.187645e-06	3.562587e-09	8.233466e+00	2.328868e+02
2.270000e-06	1.138308e-06	3.517024e-09	7.891438e+00	2.294995e+02
2.280000e-06	1.088643e-06	3.463142e-09	7.547130e+00	2.260431e+02
2.290000e-06	1.038535e-06	3.403972e-09	7.199748e+00	2.225192e+02
2.300000e-06	9.878853e-07	3.344851e-09	6.848615e+00	2.189287e+02
2.310000e-06	9.368645e-07	3.287619e-09	6.494908e+00	2.152720e+02
2.320000e-06	8.856111e-07	3.228202e-09	6.139588e+00	2.115487e+02
2.330000e-06	8.341146e-07	3.173499e-09	5.782584e+00	2.077574e+02
2.340000e-06	7.823173e-07	3.123930e-09	5.423494e+00	2.038958e+02
2.350000e-06	7.301265e-07	3.066743e-09	5.061676e+00	1.999612e+02
2.360000e-06	6.775340e-07	3.004561e-09	4.697073e+00	1.959502e+02
2.370000e-06	6.244727e-07	2.940492e-09	4.329220e+00	1.918592e+02
2.380000e-06	5.710141e-07	2.877719e-09	3.958613e+00	1.876845e+02
2.390000e-06	5.172760e-07	2.817359e-09	3.586068e+00	1.834225e+02
2.400000e-06	4.632181e-07	2.754115e-09	3.211306e+00	1.790698e+02
2.410000e-06	4.088984e-07	2.689698e-09	2.834729e+00	1.746231e+02
2.420000e-06	3.543948e-07	2.622100e-09	2.456878e+00	1.700790e+02
2.430000e-06	2.997173e-07	2.551832e-09	2.077821e+00	1.654340e+02
2.440000e-06	2.449019e-07	2.478462e-09	1.697807e+00	1.606840e+02
2.450000e-06	1.900000e-07	2.404144e-09	1.317194e+00	1.558245e+02
2.460000e-06	1.350510e-07	2.331450e-09	9.362546e-01	1.508500e+02
2.470000e-06	8.007881e-08	2.255622e-09	5.551544e-01	1.457541e+02
2.480000e-06	2.508487e-08	2.177636e-09	1.739034e-01	1.405294e+02
2.490000e-06	-2.991985e-08	2.097156e-09	-2.074224e-01	1.351679e+02
2.500000e-06	-8.493429e-08	2.011795e-09	-5.888156e-01	1.296609e+02
2.510000e-06	-1.399400e-07	1.922391e-09	-9.701479e-01	1.239997e+02
2.520000e-06	-1.949146e-07	1.831842e-09	-1.351265e+00	1.181753e+02
2.530000e-06	-2.498131e-07	1.741874e-09	-1.731855e+00	1.121791e+02
2.540000e-06	-3.046052e-07	1.651347e-09	-2.111707e+00	1.060031e+02
2.550000e-06	-3.592557e-07	1.557879e-09	-2.490576e+00	9.963941e+01
2.560000e-06	-4.136912e-07	1.459470e-09	-2.867956e+00	9.308044e+01
2.570000e-06	-4.679146e-07	1.356638e-09	-3.243865e+00	8.631834e+01
2.580000e-06	-5.219040e-07	1.249441e-09	-3.618152e+00	7.934451e+01
2.590000e-06	-5.755327e-07	1.139270e-09	-3.989939e+00	7.214889e+01
2.600000e-06	-6.287907e-07	1.025518e-09	-4.359155e+00	6.471938e+01
2.610000e-06	-6.816645e-07	9.083366e-10	-4.725708e+00	5.704129e+01
2.620000e-06	-7.340388e-07	7.889691e-10	-5.088798e+00	4.909708e+01
2.630000e-06	-7.859914e-07	6.655529e-10	-5.448965e+00	4.086645e+01
2.640000e-06	-8.376877e-07	5.353348e-10	-5.807355e+00	3.232685e+01
2.650000e-06	-8.891268e-07	4.002961e-10	-6.163962e+00	2.345451e+01
2.660000e-06	-9.402732e-07	2.614395e-10	-6.518539e+00	1.422598e+01
2.670000e-06	-9.910862e-07	1.161539e-10	-6.870805e+00	4.620102e+00
2.680000e-06	-1.041515e-06	-3.615879e-11	-7.220408e+00	-5.379681e+00
2.690000e-06	-1.091567e-06	-1.945378e-10	-7.567396e+00	-1.578283e+01
2.700000e-06	-1.141169e-06	-3.566700e-10	-7.911270e+00	-2.658924e+01
2.710000e-06	-1.190319e-06	-5.247191e-10	-8.252005e+00	-3.778705e+01
2.720000e-06	-1.239026e-06	-7.005736e-10	-8.589674e+00	-4.935092e+01
2.730000e-06	-1.287040e-06	-8.816626e-10	-8.922534e+00	-6.124095e+01
2.740000e-06	-1.334273e-06	-1.065627e-09	-9.249983e+00	-7.340257e+01
2.750000e-06	-1.380897e-06	-1.254068e-09	-9.573208e+00	-8.576723e+01
2.760000e-06	-1.426983e-06	-1.448210e-09	-9.892704e+00	-9.825417e+01
2.770000e-06	-1.472666e-06	-1.644591e-09	-1.020941e+01	-1.107730e+02
2.780000e-06	-1.518012e-06	-1.836935e-09	-1.052377e+01	-1.232273e+02
2.790000e-06	-1.562874e-06	-2.023917e-09	-1.083478e+01	-1.355182e+02
2.800000e-06	-1.607163e-06	-2.208208e-09	-1.114182e+01	-1.475489e+02
2.810000e-06	-1.650943e-06	-2.388040e-09	-1.144533e+01	-1.592287e+02
2.820000e-06	-1.694345e-06	-2.559027e-09	-1.174622e+01	-1.704770e+02
2.830000e-06	-1.737373e-06	-2.720361e-09	-1.204452e+01	-1.812265e+02
2.840000e-06	-1.779883e-06	-2.875880e-09	-1.233922e+01	-1.914253e+02
2.850000e-06	-1.821759e-06	-3.027176e-09	-1.262953e+01	-2.010386e+02
2.860000e-06	-1.862996e-06	-3.168726e-09	-1.291541e+01	-2.100491e+02
2.870000e-06	-1.903589e-06	-3.297547e-09	-1.319682e+01	-2.184557e+02
2.880000e-06	-1.943555e-06	-3.417606e-09	-1.347389e+01	-2.262723e+02
2.890000e-06	-1.982976e-06	-3.531630e-09	-1.374718e+01	-2.335250e+02
2.900000e-06	-2.021857e-06	-3.637039e-09	-1.401672e+01	-2.402489e+02
2.910000e-06	-2.059974e-06	-3.732953e-09	-1.428098e+01	-2.464852e+02
2.920000e-06	-2.097054e-06	-3.820549e-09	-1.453804e+01	-2.522778e+02
2.930000e-06	-2.133145e-06	-3.901432e-09	-1.478824e+01	-2.576698e+02
2.940000e-06	-2.168540e-06	-3.981206e-09	-1.503362e+01	-2.627019e+02
