# Temperatura_=_19.16
# Concentracion g/m^3_=_15500.0
# C_Vs_to_Am_M_A/Vsm_=_65563218390.804596
# pendiente_HvsI_1/m_=_3716.3
# ordenada_HvsI_A/m_=_1297.0
# frecuencia_Hz_=_300842.7108191208

Tiempo_(s)	Campo_(V.s)	Magnetizacion_(V.s)	Campo_(kA/m)	Magnetizacion_(A/m)
0.000000e+00	-2.858034e-06	-4.978201e-09	-1.980446e+01	-3.263024e+02
1.000000e-08	-2.857038e-06	-4.973023e-09	-1.979756e+01	-3.262978e+02
2.000000e-08	-2.854971e-06	-4.966404e-09	-1.978323e+01	-3.262310e+02
3.000000e-08	-2.851630e-06	-4.962078e-09	-1.976008e+01	-3.260995e+02
4.000000e-08	-2.847300e-06	-4.958848e-09	-1.973008e+01	-3.259017e+02
5.000000e-08	-2.842186e-06	-4.954916e-09	-1.969465e+01	-3.256370e+02
6.000000e-08	-2.836208e-06	-4.954130e-09	-1.965322e+01	-3.253063e+02
7.000000e-08	-2.829290e-06	-4.959301e-09	-1.960528e+01	-3.249120e+02
8.000000e-08	-2.821315e-06	-4.956952e-09	-1.955002e+01	-3.244578e+02
9.000000e-08	-2.812088e-06	-4.917929e-09	-1.948608e+01	-3.239481e+02
1.000000e-07	-2.801429e-06	-4.896827e-09	-1.941222e+01	-3.233881e+02
1.100000e-07	-2.789635e-06	-4.912823e-09	-1.933050e+01	-3.227829e+02
1.200000e-07	-2.777084e-06	-4.958912e-09	-1.924353e+01	-3.221370e+02
1.300000e-07	-2.763579e-06	-4.885442e-09	-1.914995e+01	-3.214538e+02
1.400000e-07	-2.749021e-06	-4.844676e-09	-1.904907e+01	-3.207356e+02
1.500000e-07	-2.733490e-06	-4.907729e-09	-1.894145e+01	-3.199827e+02
1.600000e-07	-2.716664e-06	-4.915279e-09	-1.882485e+01	-3.191942e+02
1.700000e-07	-2.698630e-06	-4.874026e-09	-1.869988e+01	-3.183672e+02
1.800000e-07	-2.679958e-06	-4.850842e-09	-1.857050e+01	-3.174978e+02
1.900000e-07	-2.660549e-06	-4.896047e-09	-1.843601e+01	-3.165814e+02
2.000000e-07	-2.640193e-06	-4.832489e-09	-1.829495e+01	-3.156127e+02
2.100000e-07	-2.618975e-06	-4.789489e-09	-1.814793e+01	-3.145868e+02
2.200000e-07	-2.596967e-06	-4.844118e-09	-1.799542e+01	-3.134991e+02
2.300000e-07	-2.574023e-06	-4.803897e-09	-1.783644e+01	-3.123462e+02
2.400000e-07	-2.550102e-06	-4.735020e-09	-1.767067e+01	-3.111255e+02
2.500000e-07	-2.525453e-06	-4.772040e-09	-1.749987e+01	-3.098359e+02
2.600000e-07	-2.499956e-06	-4.750670e-09	-1.732319e+01	-3.084774e+02
2.700000e-07	-2.473319e-06	-4.703125e-09	-1.713861e+01	-3.070509e+02
2.800000e-07	-2.445589e-06	-4.681293e-09	-1.694647e+01	-3.055582e+02
2.900000e-07	-2.416966e-06	-4.659383e-09	-1.674813e+01	-3.040016e+02
3.000000e-07	-2.387540e-06	-4.646616e-09	-1.654422e+01	-3.023834e+02
3.100000e-07	-2.357387e-06	-4.622571e-09	-1.633528e+01	-3.007060e+02
3.200000e-07	-2.326499e-06	-4.598316e-09	-1.612125e+01	-2.989713e+02
3.300000e-07	-2.294746e-06	-4.567165e-09	-1.590122e+01	-2.971811e+02
3.400000e-07	-2.262312e-06	-4.552879e-09	-1.567646e+01	-2.953366e+02
3.500000e-07	-2.229326e-06	-4.503027e-09	-1.544789e+01	-2.934387e+02
3.600000e-07	-2.195490e-06	-4.488125e-09	-1.521343e+01	-2.914879e+02
3.700000e-07	-2.160490e-06	-4.466254e-09	-1.497090e+01	-2.894848e+02
3.800000e-07	-2.124501e-06	-4.408708e-09	-1.472151e+01	-2.874300e+02
3.900000e-07	-2.087888e-06	-4.394691e-09	-1.446781e+01	-2.853242e+02
4.000000e-07	-2.050615e-06	-4.377986e-09	-1.420953e+01	-2.831682e+02
4.100000e-07	-2.012579e-06	-4.315952e-09	-1.394596e+01	-2.809630e+02
4.200000e-07	-1.973830e-06	-4.273815e-09	-1.367746e+01	-2.787098e+02
4.300000e-07	-1.934336e-06	-4.264113e-09	-1.340379e+01	-2.764095e+02
4.400000e-07	-1.894216e-06	-4.217734e-09	-1.312578e+01	-2.740626e+02
4.500000e-07	-1.853727e-06	-4.178119e-09	-1.284521e+01	-2.716695e+02
4.600000e-07	-1.812835e-06	-4.141829e-09	-1.256186e+01	-2.692295e+02
4.700000e-07	-1.771132e-06	-4.106878e-09	-1.227288e+01	-2.667413e+02
4.800000e-07	-1.728330e-06	-4.062403e-09	-1.197629e+01	-2.642030e+02
4.900000e-07	-1.684646e-06	-4.016199e-09	-1.167359e+01	-2.616116e+02
5.000000e-07	-1.640391e-06	-3.977688e-09	-1.136692e+01	-2.589637e+02
5.100000e-07	-1.595703e-06	-3.939228e-09	-1.105726e+01	-2.562556e+02
5.200000e-07	-1.550552e-06	-3.904266e-09	-1.074440e+01	-2.534835e+02
5.300000e-07	-1.504834e-06	-3.862381e-09	-1.042760e+01	-2.506439e+02
5.400000e-07	-1.458559e-06	-3.819816e-09	-1.010694e+01	-2.477339e+02
5.500000e-07	-1.411746e-06	-3.760230e-09	-9.782552e+00	-2.447513e+02
5.600000e-07	-1.364406e-06	-3.710717e-09	-9.454513e+00	-2.416950e+02
5.700000e-07	-1.316608e-06	-3.662679e-09	-9.123305e+00	-2.385645e+02
5.800000e-07	-1.268457e-06	-3.614333e-09	-8.789647e+00	-2.353607e+02
5.900000e-07	-1.219954e-06	-3.568831e-09	-8.453547e+00	-2.320848e+02
6.000000e-07	-1.171001e-06	-3.525308e-09	-8.114337e+00	-2.287386e+02
6.100000e-07	-1.121499e-06	-3.477804e-09	-7.771312e+00	-2.253241e+02
6.200000e-07	-1.071320e-06	-3.417432e-09	-7.423608e+00	-2.218431e+02
6.300000e-07	-1.020566e-06	-3.360281e-09	-7.071912e+00	-2.182967e+02
6.400000e-07	-9.693110e-07	-3.300350e-09	-6.716744e+00	-2.146857e+02
6.500000e-07	-9.175643e-07	-3.244804e-09	-6.358170e+00	-2.110098e+02
6.600000e-07	-8.653919e-07	-3.185774e-09	-5.996646e+00	-2.072679e+02
6.700000e-07	-8.129071e-07	-3.128488e-09	-5.632958e+00	-2.034582e+02
6.800000e-07	-7.602097e-07	-3.068456e-09	-5.267797e+00	-1.995782e+02
6.900000e-07	-7.072663e-07	-3.005414e-09	-4.900931e+00	-1.956250e+02
7.000000e-07	-6.540921e-07	-2.944348e-09	-4.532465e+00	-1.915956e+02
7.100000e-07	-6.006291e-07	-2.881936e-09	-4.161999e+00	-1.874866e+02
7.200000e-07	-5.469394e-07	-2.819852e-09	-3.789962e+00	-1.832952e+02
7.300000e-07	-4.930977e-07	-2.750429e-09	-3.416871e+00	-1.790184e+02
7.400000e-07	-4.390360e-07	-2.679210e-09	-3.042256e+00	-1.746535e+02
7.500000e-07	-3.848012e-07	-2.607031e-09	-2.666441e+00	-1.701978e+02
7.600000e-07	-3.304685e-07	-2.537879e-09	-2.289948e+00	-1.656481e+02
7.700000e-07	-2.760895e-07	-2.465974e-09	-1.913134e+00	-1.610010e+02
7.800000e-07	-2.216305e-07	-2.393963e-09	-1.535766e+00	-1.562524e+02
7.900000e-07	-1.670922e-07	-2.324679e-09	-1.157849e+00	-1.513972e+02
8.000000e-07	-1.125242e-07	-2.251516e-09	-7.797248e-01	-1.464291e+02
8.100000e-07	-5.793229e-08	-2.173655e-09	-4.014360e-01	-1.413412e+02
8.200000e-07	-3.384750e-09	-2.088428e-09	-2.345428e-02	-1.361254e+02
8.300000e-07	5.115519e-08	-2.000991e-09	3.544748e-01	-1.307730e+02
8.400000e-07	1.057442e-07	-1.912436e-09	7.327436e-01	-1.252750e+02
8.500000e-07	1.603090e-07	-1.826734e-09	1.110845e+00	-1.196224e+02
8.600000e-07	2.148213e-07	-1.739127e-09	1.488583e+00	-1.138063e+02
8.700000e-07	2.692820e-07	-1.649709e-09	1.865963e+00	-1.078185e+02
8.800000e-07	3.236739e-07	-1.558267e-09	2.242866e+00	-1.016511e+02
8.900000e-07	3.779804e-07	-1.461093e-09	2.619177e+00	-9.529689e+01
9.000000e-07	4.321345e-07	-1.359935e-09	2.994433e+00	-8.874862e+01
9.100000e-07	4.861092e-07	-1.253716e-09	3.368445e+00	-8.199878e+01
9.200000e-07	5.399252e-07	-1.146448e-09	3.741358e+00	-7.503884e+01
9.300000e-07	5.935404e-07	-1.034886e-09	4.112879e+00	-6.785864e+01
9.400000e-07	6.468776e-07	-9.216371e-10	4.482473e+00	-6.044577e+01
9.500000e-07	6.999248e-07	-8.035254e-10	4.850059e+00	-5.278512e+01
9.600000e-07	7.527309e-07	-6.822128e-10	5.215973e+00	-4.485872e+01
9.700000e-07	8.052974e-07	-5.559040e-10	5.580228e+00	-3.664593e+01
9.800000e-07	8.576183e-07	-4.220191e-10	5.942780e+00	-2.812417e+01
9.900000e-07	9.096099e-07	-2.838033e-10	6.303051e+00	-1.927003e+01
1.000000e-06	9.612222e-07	-1.405595e-10	6.660693e+00	-1.006096e+01
1.010000e-06	1.012337e-06	6.142743e-12	7.014887e+00	-4.772694e-01
1.020000e-06	1.062772e-06	1.586563e-10	7.364370e+00	9.495566e+00
1.030000e-06	1.112516e-06	3.164715e-10	7.709067e+00	1.986449e+01
1.040000e-06	1.161678e-06	4.826526e-10	8.049730e+00	3.062656e+01
1.050000e-06	1.210474e-06	6.545464e-10	8.387856e+00	4.176700e+01
1.060000e-06	1.258997e-06	8.311243e-10	8.724094e+00	5.325770e+01
1.070000e-06	1.307212e-06	1.010570e-09	9.058195e+00	6.505651e+01
1.080000e-06	1.355004e-06	1.192089e-09	9.389367e+00	7.710728e+01
1.090000e-06	1.402274e-06	1.377775e-09	9.716917e+00	8.934089e+01
1.100000e-06	1.449032e-06	1.565614e-09	1.004092e+01	1.016771e+02
1.110000e-06	1.495334e-06	1.755499e-09	1.036176e+01	1.140275e+02
1.120000e-06	1.541115e-06	1.940854e-09	1.067900e+01	1.262982e+02
1.130000e-06	1.586322e-06	2.123465e-09	1.099226e+01	1.383947e+02
1.140000e-06	1.631078e-06	2.305916e-09	1.130239e+01	1.502247e+02
1.150000e-06	1.675487e-06	2.484395e-09	1.161012e+01	1.617030e+02
1.160000e-06	1.719440e-06	2.653204e-09	1.191469e+01	1.727543e+02
1.170000e-06	1.762662e-06	2.811134e-09	1.221419e+01	1.833163e+02
1.180000e-06	1.804912e-06	2.961020e-09	1.250696e+01	1.933418e+02
1.190000e-06	1.846229e-06	3.105432e-09	1.279326e+01	2.027997e+02
1.200000e-06	1.886923e-06	3.242930e-09	1.307524e+01	2.116750e+02
1.210000e-06	1.927105e-06	3.367993e-09	1.335368e+01	2.199680e+02
1.220000e-06	1.966691e-06	3.481874e-09	1.362799e+01	2.276924e+02
1.230000e-06	2.005624e-06	3.586981e-09	1.389777e+01	2.348732e+02
1.240000e-06	2.043835e-06	3.686205e-09	1.416255e+01	2.415434e+02
1.250000e-06	2.081289e-06	3.777631e-09	1.442209e+01	2.477413e+02
1.260000e-06	2.118109e-06	3.864745e-09	1.467722e+01	2.535073e+02
1.270000e-06	2.154444e-06	3.948774e-09	1.492900e+01	2.588814e+02
1.280000e-06	2.190116e-06	4.028009e-09	1.517619e+01	2.639008e+02
1.290000e-06	2.224740e-06	4.099243e-09	1.541612e+01	2.685984e+02
1.300000e-06	2.258251e-06	4.162798e-09	1.564832e+01	2.730022e+02
1.310000e-06	2.290985e-06	4.223461e-09	1.587515e+01	2.771344e+02
1.320000e-06	2.323114e-06	4.280820e-09	1.609779e+01	2.810123e+02
1.330000e-06	2.354480e-06	4.335144e-09	1.631513e+01	2.846489e+02
1.340000e-06	2.384998e-06	4.385971e-09	1.652660e+01	2.880543e+02
1.350000e-06	2.414658e-06	4.432938e-09	1.673213e+01	2.912364e+02
1.360000e-06	2.443565e-06	4.475719e-09	1.693244e+01	2.942027e+02
1.370000e-06	2.471810e-06	4.516209e-09	1.712816e+01	2.969611e+02
1.380000e-06	2.499151e-06	4.553280e-09	1.731762e+01	2.995209e+02
1.390000e-06	2.525311e-06	4.586206e-09	1.749889e+01	3.018928e+02
1.400000e-06	2.550402e-06	4.615838e-09	1.767276e+01	3.040892e+02
1.410000e-06	2.574642e-06	4.645113e-09	1.784073e+01	3.061239e+02
1.420000e-06	2.597997e-06	4.675572e-09	1.800256e+01	3.080117e+02
1.430000e-06	2.620449e-06	4.705157e-09	1.815814e+01	3.097672e+02
1.440000e-06	2.642073e-06	4.731368e-09	1.830798e+01	3.114044e+02
1.450000e-06	2.662953e-06	4.751319e-09	1.845266e+01	3.129361e+02
1.460000e-06	2.683052e-06	4.769258e-09	1.859194e+01	3.143726e+02
1.470000e-06	2.702179e-06	4.789166e-09	1.872448e+01	3.157224e+02
1.480000e-06	2.720281e-06	4.810051e-09	1.884991e+01	3.169912e+02
1.490000e-06	2.737459e-06	4.828421e-09	1.896895e+01	3.181824e+02
1.500000e-06	2.753573e-06	4.843952e-09	1.908061e+01	3.192978e+02
1.510000e-06	2.768601e-06	4.859897e-09	1.918475e+01	3.203375e+02
1.520000e-06	2.782627e-06	4.874404e-09	1.928193e+01	3.213010e+02
1.530000e-06	2.795602e-06	4.885222e-09	1.937185e+01	3.221878e+02
1.540000e-06	2.807515e-06	4.894419e-09	1.945439e+01	3.229976e+02
1.550000e-06	2.818172e-06	4.903491e-09	1.952824e+01	3.237312e+02
1.560000e-06	2.827559e-06	4.913755e-09	1.959329e+01	3.243900e+02
1.570000e-06	2.835983e-06	4.925728e-09	1.965166e+01	3.249769e+02
1.580000e-06	2.843492e-06	4.937253e-09	1.970369e+01	3.254952e+02
1.590000e-06	2.850005e-06	4.947003e-09	1.974882e+01	3.259489e+02
1.600000e-06	2.855586e-06	4.954439e-09	1.978750e+01	3.263418e+02
1.610000e-06	2.860354e-06	4.957872e-09	1.982054e+01	3.266775e+02
1.620000e-06	2.864222e-06	4.958451e-09	1.984734e+01	3.269585e+02
1.630000e-06	2.866860e-06	4.959870e-09	1.986562e+01	3.271864e+02
1.640000e-06	2.868268e-06	4.963714e-09	1.987538e+01	3.273614e+02
1.650000e-06	2.868719e-06	4.969127e-09	1.987850e+01	3.274824e+02
1.660000e-06	2.868238e-06	4.972258e-09	1.987517e+01	3.275475e+02
1.670000e-06	2.866855e-06	4.971175e-09	1.986559e+01	3.275538e+02
1.680000e-06	2.864648e-06	4.969449e-09	1.985029e+01	3.274984e+02
1.690000e-06	2.861661e-06	4.968782e-09	1.982959e+01	3.273788e+02
1.700000e-06	2.857940e-06	4.967937e-09	1.980381e+01	3.271930e+02
1.710000e-06	2.853125e-06	4.962832e-09	1.977044e+01	3.269404e+02
1.720000e-06	2.847084e-06	4.947312e-09	1.972858e+01	3.266215e+02
1.730000e-06	2.840117e-06	4.934232e-09	1.968030e+01	3.262385e+02
1.740000e-06	2.832260e-06	4.931773e-09	1.962586e+01	3.257948e+02
1.750000e-06	2.823060e-06	4.969515e-09	1.956211e+01	3.252948e+02
1.760000e-06	2.812262e-06	4.952663e-09	1.948729e+01	3.247435e+02
1.770000e-06	2.800650e-06	4.906321e-09	1.940682e+01	3.241462e+02
1.780000e-06	2.788865e-06	4.893109e-09	1.932516e+01	3.235074e+02
1.790000e-06	2.776153e-06	4.906368e-09	1.923707e+01	3.228308e+02
1.800000e-06	2.761726e-06	4.920451e-09	1.913710e+01	3.221189e+02
1.810000e-06	2.746263e-06	4.842938e-09	1.902995e+01	3.213724e+02
1.820000e-06	2.730316e-06	4.874547e-09	1.891945e+01	3.205905e+02
1.830000e-06	2.713171e-06	4.918135e-09	1.880065e+01	3.197708e+02
1.840000e-06	2.694739e-06	4.852346e-09	1.867293e+01	3.189095e+02
1.850000e-06	2.675657e-06	4.833504e-09	1.854070e+01	3.180019e+02
1.860000e-06	2.655773e-06	4.865896e-09	1.840291e+01	3.170431e+02
1.870000e-06	2.634592e-06	4.849095e-09	1.825614e+01	3.160279e+02
1.880000e-06	2.612397e-06	4.777946e-09	1.810234e+01	3.149517e+02
1.890000e-06	2.589278e-06	4.788940e-09	1.794214e+01	3.138107e+02
1.900000e-06	2.565068e-06	4.816257e-09	1.777438e+01	3.126024e+02
1.910000e-06	2.540173e-06	4.742339e-09	1.760188e+01	3.113253e+02
1.920000e-06	2.514485e-06	4.730915e-09	1.742387e+01	3.099792e+02
1.930000e-06	2.487830e-06	4.741588e-09	1.723917e+01	3.085649e+02
1.940000e-06	2.460552e-06	4.696190e-09	1.705015e+01	3.070840e+02
1.950000e-06	2.432396e-06	4.684282e-09	1.685504e+01	3.055388e+02
1.960000e-06	2.402947e-06	4.638102e-09	1.665098e+01	3.039315e+02
1.970000e-06	2.372497e-06	4.612543e-09	1.643998e+01	3.022647e+02
1.980000e-06	2.341327e-06	4.616217e-09	1.622399e+01	3.005402e+02
1.990000e-06	2.309450e-06	4.564128e-09	1.600310e+01	2.987600e+02
2.000000e-06	2.276854e-06	4.531813e-09	1.577723e+01	2.969253e+02
2.010000e-06	2.243444e-06	4.540343e-09	1.554572e+01	2.950370e+02
2.020000e-06	2.209256e-06	4.473294e-09	1.530882e+01	2.930957e+02
2.030000e-06	2.174434e-06	4.437013e-09	1.506753e+01	2.911021e+02
2.040000e-06	2.138979e-06	4.441946e-09	1.482184e+01	2.890566e+02
2.050000e-06	2.102827e-06	4.360938e-09	1.457133e+01	2.869600e+02
2.060000e-06	2.065701e-06	4.329252e-09	1.431407e+01	2.848130e+02
2.070000e-06	2.027432e-06	4.341095e-09	1.404889e+01	2.826167e+02
2.080000e-06	1.988422e-06	4.285001e-09	1.377857e+01	2.803721e+02
2.090000e-06	1.948902e-06	4.244785e-09	1.350472e+01	2.780802e+02
2.100000e-06	1.908694e-06	4.225295e-09	1.322610e+01	2.757418e+02
2.110000e-06	1.867790e-06	4.173556e-09	1.294266e+01	2.733571e+02
2.120000e-06	1.826339e-06	4.133551e-09	1.265543e+01	2.709257e+02
2.130000e-06	1.784338e-06	4.090356e-09	1.236439e+01	2.684464e+02
2.140000e-06	1.741700e-06	4.057911e-09	1.206894e+01	2.659174e+02
2.150000e-06	1.698574e-06	4.035738e-09	1.177010e+01	2.633358e+02
2.160000e-06	1.655069e-06	3.979977e-09	1.146863e+01	2.606984e+02
2.170000e-06	1.610960e-06	3.942418e-09	1.116298e+01	2.580014e+02
2.180000e-06	1.566138e-06	3.903078e-09	1.085240e+01	2.552412e+02
2.190000e-06	1.520729e-06	3.852545e-09	1.053774e+01	2.524141e+02
2.200000e-06	1.474866e-06	3.810250e-09	1.021994e+01	2.495170e+02
2.210000e-06	1.428640e-06	3.765959e-09	9.899620e+00	2.465476e+02
2.220000e-06	1.381952e-06	3.718691e-09	9.576099e+00	2.435046e+02
2.230000e-06	1.334670e-06	3.668888e-09	9.248464e+00	2.403875e+02
2.240000e-06	1.286770e-06	3.621206e-09	8.916543e+00	2.371968e+02
2.250000e-06	1.238356e-06	3.573533e-09	8.581063e+00	2.339338e+02
2.260000e-06	1.189468e-06	3.521382e-09	8.242296e+00	2.306002e+02
2.270000e-06	1.140106e-06	3.472667e-09	7.900250e+00	2.271979e+02
2.280000e-06	1.090350e-06	3.429416e-09	7.555468e+00	2.237288e+02
2.290000e-06	1.040175e-06	3.373121e-09	7.207791e+00	2.201942e+02
2.300000e-06	9.895545e-07	3.314646e-09	6.857019e+00	2.165948e+02
2.310000e-06	9.386011e-07	3.251142e-09	6.503942e+00	2.129307e+02
2.320000e-06	8.874078e-07	3.190428e-09	6.149204e+00	2.092008e+02
2.330000e-06	8.359525e-07	3.138428e-09	5.792649e+00	2.054036e+02
2.340000e-06	7.841340e-07	3.082312e-09	5.433578e+00	2.015365e+02
2.350000e-06	7.318218e-07	3.027085e-09	5.071086e+00	1.975967e+02
2.360000e-06	6.790510e-07	2.967245e-09	4.705416e+00	1.935812e+02
2.370000e-06	6.259175e-07	2.907100e-09	4.337233e+00	1.894868e+02
2.380000e-06	5.724354e-07	2.843901e-09	3.966634e+00	1.853105e+02
2.390000e-06	5.185882e-07	2.775447e-09	3.593505e+00	1.810493e+02
2.400000e-06	4.644038e-07	2.709047e-09	3.218040e+00	1.767005e+02
2.410000e-06	4.100377e-07	2.645206e-09	2.841315e+00	1.722613e+02
2.420000e-06	3.555343e-07	2.582402e-09	2.463639e+00	1.677288e+02
2.430000e-06	3.008111e-07	2.514734e-09	2.084441e+00	1.630996e+02
2.440000e-06	2.459407e-07	2.439382e-09	1.704222e+00	1.583696e+02
2.450000e-06	1.909892e-07	2.364684e-09	1.323440e+00	1.535339e+02
2.460000e-06	1.359780e-07	2.292899e-09	9.422462e-01	1.485866e+02
2.470000e-06	8.096006e-08	2.214662e-09	5.610046e-01	1.435208e+02
2.480000e-06	2.594184e-08	2.132944e-09	1.797614e-01	1.383286e+02
2.490000e-06	-2.908227e-08	2.052253e-09	-2.015227e-01	1.330014e+02
2.500000e-06	-8.409705e-08	1.973400e-09	-5.827421e-01	1.275303e+02
2.510000e-06	-1.391053e-07	1.889551e-09	-9.639165e-01	1.219061e+02
2.520000e-06	-1.941214e-07	1.797653e-09	-1.345145e+00	1.161199e+02
2.530000e-06	-2.491063e-07	1.705294e-09	-1.726157e+00	1.101635e+02
2.540000e-06	-3.039966e-07	1.611973e-09	-2.106514e+00	1.040288e+02
2.550000e-06	-3.587473e-07	1.520533e-09	-2.485903e+00	9.770865e+01
2.560000e-06	-4.133463e-07	1.425975e-09	-2.864242e+00	9.119572e+01
2.570000e-06	-4.677370e-07	1.324860e-09	-3.241137e+00	8.448260e+01
2.580000e-06	-5.217541e-07	1.218907e-09	-3.615443e+00	7.756100e+01
2.590000e-06	-5.754928e-07	1.112233e-09	-3.987820e+00	7.042111e+01
2.600000e-06	-6.289263e-07	1.002198e-09	-4.358082e+00	6.305096e+01
2.610000e-06	-6.818463e-07	8.826810e-10	-4.724785e+00	5.543594e+01
2.620000e-06	-7.343287e-07	7.581321e-10	-5.088457e+00	4.755857e+01
2.630000e-06	-7.863851e-07	6.341003e-10	-5.449177e+00	3.939868e+01
2.640000e-06	-8.380426e-07	5.114265e-10	-5.807132e+00	3.093394e+01
2.650000e-06	-8.894590e-07	3.812669e-10	-6.163417e+00	2.214100e+01
2.660000e-06	-9.406743e-07	2.405637e-10	-6.518309e+00	1.299701e+01
2.670000e-06	-9.915961e-07	9.416343e-11	-6.871166e+00	3.481600e+00
2.680000e-06	-1.042158e-06	-5.368578e-11	-7.221529e+00	-6.420846e+00
2.690000e-06	-1.092308e-06	-2.084887e-10	-7.569039e+00	-1.671880e+01
2.700000e-06	-1.142031e-06	-3.722999e-10	-7.913586e+00	-2.741125e+01
2.710000e-06	-1.191355e-06	-5.401517e-10	-8.255374e+00	-3.848564e+01
2.720000e-06	-1.240192e-06	-7.114674e-10	-8.593786e+00	-4.991634e+01
2.730000e-06	-1.288381e-06	-8.878334e-10	-8.927709e+00	-6.166371e+01
2.740000e-06	-1.335709e-06	-1.070992e-09	-9.255664e+00	-7.367406e+01
2.750000e-06	-1.382264e-06	-1.259463e-09	-9.578260e+00	-8.588048e+01
2.760000e-06	-1.428369e-06	-1.449614e-09	-9.897741e+00	-9.820456e+01
2.770000e-06	-1.474073e-06	-1.639166e-09	-1.021444e+01	-1.105590e+02
2.780000e-06	-1.519436e-06	-1.828704e-09	-1.052878e+01	-1.228508e+02
2.790000e-06	-1.564405e-06	-2.015324e-09	-1.084039e+01	-1.349851e+02
2.800000e-06	-1.608816e-06	-2.196584e-09	-1.114813e+01	-1.468691e+02
2.810000e-06	-1.652676e-06	-2.372061e-09	-1.145205e+01	-1.584159e+02
2.820000e-06	-1.696083e-06	-2.541065e-09	-1.175283e+01	-1.695483e+02
2.830000e-06	-1.739110e-06	-2.704618e-09	-1.205099e+01	-1.802014e+02
2.840000e-06	-1.781643e-06	-2.861527e-09	-1.234572e+01	-1.903254e+02
2.850000e-06	-1.823569e-06	-3.010111e-09	-1.263624e+01	-1.998860e+02
2.860000e-06	-1.864879e-06	-3.148196e-09	-1.292249e+01	-2.088656e+02
2.870000e-06	-1.905572e-06	-3.275800e-09	-1.320447e+01	-2.172618e+02
2.880000e-06	-1.945592e-06	-3.394890e-09	-1.348179e+01	-2.250861e+02
2.890000e-06	-1.985039e-06	-3.509663e-09	-1.375513e+01	-2.323615e+02
2.900000e-06	-2.023964e-06	-3.617356e-09	-1.402486e+01	-2.391201e+02
2.910000e-06	-2.062045e-06	-3.715710e-09	-1.428873e+01	-2.453992e+02
2.920000e-06	-2.099076e-06	-3.805758e-09	-1.454534e+01	-2.512392e+02
2.930000e-06	-2.135121e-06	-3.888667e-09	-1.479511e+01	-2.566803e+02
2.940000e-06	-2.170475e-06	-3.969156e-09	-1.504009e+01	-2.617604e+02
