# Temperatura_=_18.25
# Concentracion g/m^3_=_15500.0
# C_Vs_to_Am_M_A/Vsm_=_65563218390.804596
# pendiente_HvsI_1/m_=_3716.3
# ordenada_HvsI_A/m_=_1297.0
# frecuencia_Hz_=_300843.2955175587

Tiempo_(s)	Campo_(V.s)	Magnetizacion_(V.s)	Campo_(kA/m)	Magnetizacion_(A/m)
0.000000e+00	-2.856495e-06	-4.983212e-09	-1.980133e+01	-3.264093e+02
1.000000e-08	-2.855509e-06	-4.977082e-09	-1.979450e+01	-3.264143e+02
2.000000e-08	-2.853433e-06	-4.974951e-09	-1.978011e+01	-3.263570e+02
3.000000e-08	-2.850048e-06	-4.975412e-09	-1.975665e+01	-3.262334e+02
4.000000e-08	-2.845674e-06	-4.974183e-09	-1.972632e+01	-3.260402e+02
5.000000e-08	-2.840487e-06	-4.971399e-09	-1.969036e+01	-3.257751e+02
6.000000e-08	-2.834400e-06	-4.972504e-09	-1.964817e+01	-3.254373e+02
7.000000e-08	-2.827334e-06	-4.975301e-09	-1.959919e+01	-3.250279e+02
8.000000e-08	-2.819249e-06	-4.956640e-09	-1.954315e+01	-3.245497e+02
9.000000e-08	-2.809913e-06	-4.911835e-09	-1.947842e+01	-3.240071e+02
1.000000e-07	-2.799069e-06	-4.917149e-09	-1.940326e+01	-3.234054e+02
1.100000e-07	-2.787143e-06	-4.957351e-09	-1.932058e+01	-3.227509e+02
1.200000e-07	-2.774548e-06	-4.949791e-09	-1.923328e+01	-3.220496e+02
1.300000e-07	-2.761059e-06	-4.857218e-09	-1.913977e+01	-3.213070e+02
1.400000e-07	-2.746576e-06	-4.879811e-09	-1.903937e+01	-3.205275e+02
1.500000e-07	-2.731089e-06	-4.946805e-09	-1.893201e+01	-3.197136e+02
1.600000e-07	-2.714233e-06	-4.861049e-09	-1.881517e+01	-3.188663e+02
1.700000e-07	-2.696200e-06	-4.845490e-09	-1.869016e+01	-3.179845e+02
1.800000e-07	-2.677496e-06	-4.897022e-09	-1.856050e+01	-3.170653e+02
1.900000e-07	-2.658025e-06	-4.862330e-09	-1.842553e+01	-3.161046e+02
2.000000e-07	-2.637650e-06	-4.801940e-09	-1.828429e+01	-3.150973e+02
2.100000e-07	-2.616435e-06	-4.830251e-09	-1.813723e+01	-3.140381e+02
2.200000e-07	-2.594368e-06	-4.830980e-09	-1.798426e+01	-3.129216e+02
2.300000e-07	-2.571310e-06	-4.758609e-09	-1.782442e+01	-3.117434e+02
2.400000e-07	-2.547381e-06	-4.751462e-09	-1.765854e+01	-3.105002e+02
2.500000e-07	-2.522730e-06	-4.770142e-09	-1.748766e+01	-3.091898e+02
2.600000e-07	-2.497127e-06	-4.721129e-09	-1.731018e+01	-3.078117e+02
2.700000e-07	-2.470437e-06	-4.698061e-09	-1.712516e+01	-3.063665e+02
2.800000e-07	-2.442705e-06	-4.676914e-09	-1.693292e+01	-3.048560e+02
2.900000e-07	-2.414053e-06	-4.643070e-09	-1.673431e+01	-3.032827e+02
3.000000e-07	-2.384606e-06	-4.634746e-09	-1.653018e+01	-3.016495e+02
3.100000e-07	-2.354444e-06	-4.597177e-09	-1.632110e+01	-2.999592e+02
3.200000e-07	-2.323568e-06	-4.583551e-09	-1.610706e+01	-2.982143e+02
3.300000e-07	-2.291862e-06	-4.565295e-09	-1.588728e+01	-2.964164e+02
3.400000e-07	-2.259478e-06	-4.516842e-09	-1.566279e+01	-2.945667e+02
3.500000e-07	-2.226488e-06	-4.488152e-09	-1.543410e+01	-2.926654e+02
3.600000e-07	-2.192610e-06	-4.476536e-09	-1.519925e+01	-2.907122e+02
3.700000e-07	-2.157588e-06	-4.424328e-09	-1.495648e+01	-2.887063e+02
3.800000e-07	-2.121592e-06	-4.393963e-09	-1.470696e+01	-2.866468e+02
3.900000e-07	-2.084993e-06	-4.391199e-09	-1.445325e+01	-2.845329e+02
4.000000e-07	-2.047759e-06	-4.337673e-09	-1.419514e+01	-2.823640e+02
4.100000e-07	-2.009755e-06	-4.288020e-09	-1.393170e+01	-2.801402e+02
4.200000e-07	-1.970973e-06	-4.265996e-09	-1.366286e+01	-2.778619e+02
4.300000e-07	-1.931486e-06	-4.237027e-09	-1.338913e+01	-2.755300e+02
4.400000e-07	-1.891440e-06	-4.193279e-09	-1.311154e+01	-2.731460e+02
4.500000e-07	-1.850962e-06	-4.157512e-09	-1.283094e+01	-2.707111e+02
4.600000e-07	-1.810064e-06	-4.113842e-09	-1.254743e+01	-2.682265e+02
4.700000e-07	-1.768385e-06	-4.078291e-09	-1.225852e+01	-2.656930e+02
4.800000e-07	-1.725532e-06	-4.040043e-09	-1.196146e+01	-2.631105e+02
4.900000e-07	-1.681723e-06	-3.990553e-09	-1.165777e+01	-2.604782e+02
5.000000e-07	-1.637429e-06	-3.949259e-09	-1.135072e+01	-2.577941e+02
5.100000e-07	-1.592786e-06	-3.911900e-09	-1.104125e+01	-2.550554e+02
5.200000e-07	-1.547678e-06	-3.874896e-09	-1.072857e+01	-2.522587e+02
5.300000e-07	-1.501982e-06	-3.831011e-09	-1.041180e+01	-2.493998e+02
5.400000e-07	-1.455739e-06	-3.785645e-09	-1.009124e+01	-2.464746e+02
5.500000e-07	-1.408978e-06	-3.735030e-09	-9.767089e+00	-2.434792e+02
5.600000e-07	-1.361675e-06	-3.693014e-09	-9.439187e+00	-2.404100e+02
5.700000e-07	-1.313910e-06	-3.640424e-09	-9.108074e+00	-2.372644e+02
5.800000e-07	-1.265784e-06	-3.579863e-09	-8.774463e+00	-2.340407e+02
5.900000e-07	-1.217319e-06	-3.533824e-09	-8.438506e+00	-2.307385e+02
6.000000e-07	-1.168414e-06	-3.490992e-09	-8.099492e+00	-2.273580e+02
6.100000e-07	-1.118890e-06	-3.438757e-09	-7.756186e+00	-2.239007e+02
6.200000e-07	-1.068578e-06	-3.379288e-09	-7.407422e+00	-2.203683e+02
6.300000e-07	-1.017662e-06	-3.324291e-09	-7.054473e+00	-2.167631e+02
6.400000e-07	-9.663353e-07	-3.268908e-09	-6.698674e+00	-2.130869e+02
6.500000e-07	-9.145166e-07	-3.211247e-09	-6.339464e+00	-2.093415e+02
6.600000e-07	-8.623056e-07	-3.146435e-09	-5.977536e+00	-2.055277e+02
6.700000e-07	-8.098733e-07	-3.084651e-09	-5.614073e+00	-2.016456e+02
6.800000e-07	-7.572212e-07	-3.029251e-09	-5.249087e+00	-1.976942e+02
6.900000e-07	-7.043080e-07	-2.970660e-09	-4.882291e+00	-1.936715e+02
7.000000e-07	-6.511126e-07	-2.906286e-09	-4.513538e+00	-1.895747e+02
7.100000e-07	-5.976590e-07	-2.841502e-09	-4.142995e+00	-1.854002e+02
7.200000e-07	-5.440096e-07	-2.781254e-09	-3.771096e+00	-1.811438e+02
7.300000e-07	-4.901535e-07	-2.715072e-09	-3.397763e+00	-1.768010e+02
7.400000e-07	-4.361001e-07	-2.639423e-09	-3.023063e+00	-1.723672e+02
7.500000e-07	-3.819155e-07	-2.559856e-09	-2.647453e+00	-1.678376e+02
7.600000e-07	-3.276425e-07	-2.486602e-09	-2.271230e+00	-1.632075e+02
7.700000e-07	-2.732865e-07	-2.417665e-09	-1.894433e+00	-1.584723e+02
7.800000e-07	-2.188497e-07	-2.346949e-09	-1.517075e+00	-1.536275e+02
7.900000e-07	-1.643475e-07	-2.273128e-09	-1.139263e+00	-1.486685e+02
8.000000e-07	-1.098282e-07	-2.196069e-09	-7.613334e-01	-1.435905e+02
8.100000e-07	-5.529089e-08	-2.116757e-09	-3.832786e-01	-1.383887e+02
8.200000e-07	-7.269916e-10	-2.032331e-09	-5.039534e-03	-1.330580e+02
8.300000e-07	5.381262e-08	-1.944374e-09	3.730312e-01	-1.275931e+02
8.400000e-07	1.083279e-07	-1.853948e-09	7.509331e-01	-1.219885e+02
8.500000e-07	1.628163e-07	-1.767001e-09	1.128649e+00	-1.162386e+02
8.600000e-07	2.172541e-07	-1.681797e-09	1.506014e+00	-1.103376e+02
8.700000e-07	2.716432e-07	-1.593601e-09	1.883041e+00	-1.042797e+02
8.800000e-07	3.260100e-07	-1.500077e-09	2.259914e+00	-9.805859e+01
8.900000e-07	3.802825e-07	-1.399086e-09	2.636133e+00	-9.166792e+01
9.000000e-07	4.343785e-07	-1.295833e-09	3.011129e+00	-8.510060e+01
9.100000e-07	4.883120e-07	-1.190716e-09	3.384998e+00	-7.834858e+01
9.200000e-07	5.420620e-07	-1.082037e-09	3.757595e+00	-7.140249e+01
9.300000e-07	5.956063e-07	-9.702829e-10	4.128766e+00	-6.425116e+01
9.400000e-07	6.489300e-07	-8.588837e-10	4.498408e+00	-5.688131e+01
9.500000e-07	7.019552e-07	-7.439143e-10	4.865981e+00	-4.927730e+01
9.600000e-07	7.546760e-07	-6.243222e-10	5.231443e+00	-4.142110e+01
9.700000e-07	8.072126e-07	-4.995397e-10	5.595629e+00	-3.329265e+01
9.800000e-07	8.595331e-07	-3.689808e-10	5.958317e+00	-2.487045e+01
9.900000e-07	9.115486e-07	-2.341639e-10	6.318890e+00	-1.613261e+01
1.000000e-06	9.632396e-07	-9.300941e-11	6.677214e+00	-7.058310e+00
1.010000e-06	1.014387e-06	5.382784e-11	7.031773e+00	2.370503e+00
1.020000e-06	1.064861e-06	2.048221e-10	7.381656e+00	1.216708e+01
1.030000e-06	1.114654e-06	3.573040e-10	7.726822e+00	2.233779e+01
1.040000e-06	1.163799e-06	5.160980e-10	8.067500e+00	3.288007e+01
1.050000e-06	1.212541e-06	6.849030e-10	8.405381e+00	4.378059e+01
1.060000e-06	1.261003e-06	8.613709e-10	8.741325e+00	5.501394e+01
1.070000e-06	1.309205e-06	1.038503e-09	9.075459e+00	6.654176e+01
1.080000e-06	1.356984e-06	1.214117e-09	9.406668e+00	7.831270e+01
1.090000e-06	1.404189e-06	1.393984e-09	9.733894e+00	9.026316e+01
1.100000e-06	1.450902e-06	1.580086e-09	1.005771e+01	1.023188e+02
1.110000e-06	1.497130e-06	1.768503e-09	1.037817e+01	1.143969e+02
1.120000e-06	1.542789e-06	1.951116e-09	1.069468e+01	1.264092e+02
1.130000e-06	1.587913e-06	2.129452e-09	1.100747e+01	1.382657e+02
1.140000e-06	1.632644e-06	2.307357e-09	1.131755e+01	1.498779e+02
1.150000e-06	1.677015e-06	2.481688e-09	1.162513e+01	1.611627e+02
1.160000e-06	1.720894e-06	2.645875e-09	1.192931e+01	1.720459e+02
1.170000e-06	1.764004e-06	2.799451e-09	1.222814e+01	1.824652e+02
1.180000e-06	1.806175e-06	2.948586e-09	1.252048e+01	1.923719e+02
1.190000e-06	1.847483e-06	3.094779e-09	1.280683e+01	2.017329e+02
1.200000e-06	1.888154e-06	3.232295e-09	1.308876e+01	2.105305e+02
1.210000e-06	1.928325e-06	3.354976e-09	1.336722e+01	2.187622e+02
1.220000e-06	1.967872e-06	3.466883e-09	1.364136e+01	2.264392e+02
1.230000e-06	2.006755e-06	3.573591e-09	1.391090e+01	2.335839e+02
1.240000e-06	2.044997e-06	3.673507e-09	1.417600e+01	2.402279e+02
1.250000e-06	2.082497e-06	3.765224e-09	1.443595e+01	2.464084e+02
1.260000e-06	2.119334e-06	3.850440e-09	1.469130e+01	2.521654e+02
1.270000e-06	2.155619e-06	3.931391e-09	1.494283e+01	2.575390e+02
1.280000e-06	2.191152e-06	4.008749e-09	1.518915e+01	2.625673e+02
1.290000e-06	2.225658e-06	4.080874e-09	1.542835e+01	2.672837e+02
1.300000e-06	2.259105e-06	4.146496e-09	1.566021e+01	2.717169e+02
1.310000e-06	2.291719e-06	4.206520e-09	1.588629e+01	2.758895e+02
1.320000e-06	2.323671e-06	4.263756e-09	1.610778e+01	2.798188e+02
1.330000e-06	2.354912e-06	4.318943e-09	1.632434e+01	2.835170e+02
1.340000e-06	2.385420e-06	4.370618e-09	1.653582e+01	2.869928e+02
1.350000e-06	2.415111e-06	4.418792e-09	1.674164e+01	2.902524e+02
1.360000e-06	2.444004e-06	4.463117e-09	1.694193e+01	2.933011e+02
1.370000e-06	2.472243e-06	4.502983e-09	1.713769e+01	2.961441e+02
1.380000e-06	2.499581e-06	4.540495e-09	1.732720e+01	2.987881e+02
1.390000e-06	2.525695e-06	4.577797e-09	1.750821e+01	3.012415e+02
1.400000e-06	2.550693e-06	4.612157e-09	1.768150e+01	3.035147e+02
1.410000e-06	2.574777e-06	4.642168e-09	1.784845e+01	3.056201e+02
1.420000e-06	2.597998e-06	4.670976e-09	1.800942e+01	3.075715e+02
1.430000e-06	2.620375e-06	4.699014e-09	1.816454e+01	3.093834e+02
1.440000e-06	2.641888e-06	4.723800e-09	1.831367e+01	3.110703e+02
1.450000e-06	2.662629e-06	4.743370e-09	1.845745e+01	3.126455e+02
1.460000e-06	2.682677e-06	4.761900e-09	1.859642e+01	3.141207e+02
1.470000e-06	2.701822e-06	4.783038e-09	1.872914e+01	3.155055e+02
1.480000e-06	2.719907e-06	4.805426e-09	1.885450e+01	3.168068e+02
1.490000e-06	2.737053e-06	4.825060e-09	1.897336e+01	3.180289e+02
1.500000e-06	2.753172e-06	4.839708e-09	1.908509e+01	3.191741e+02
1.510000e-06	2.768133e-06	4.853722e-09	1.918880e+01	3.202429e+02
1.520000e-06	2.782065e-06	4.869930e-09	1.928538e+01	3.212345e+02
1.530000e-06	2.795034e-06	4.883089e-09	1.937529e+01	3.221481e+02
1.540000e-06	2.806902e-06	4.891112e-09	1.945755e+01	3.229827e+02
1.550000e-06	2.817457e-06	4.898773e-09	1.953072e+01	3.237384e+02
1.560000e-06	2.826798e-06	4.910132e-09	1.959547e+01	3.244163e+02
1.570000e-06	2.835188e-06	4.924658e-09	1.965364e+01	3.250187e+02
1.580000e-06	2.842675e-06	4.937766e-09	1.970553e+01	3.255490e+02
1.590000e-06	2.849170e-06	4.946364e-09	1.975056e+01	3.260114e+02
1.600000e-06	2.854699e-06	4.951788e-09	1.978888e+01	3.264106e+02
1.610000e-06	2.859428e-06	4.956895e-09	1.982167e+01	3.267509e+02
1.620000e-06	2.863229e-06	4.960632e-09	1.984802e+01	3.270359e+02
1.630000e-06	2.865810e-06	4.962107e-09	1.986591e+01	3.272681e+02
1.640000e-06	2.867205e-06	4.963354e-09	1.987558e+01	3.274485e+02
1.650000e-06	2.867627e-06	4.967398e-09	1.987850e+01	3.275765e+02
1.660000e-06	2.867169e-06	4.972097e-09	1.987533e+01	3.276501e+02
1.670000e-06	2.865828e-06	4.971735e-09	1.986603e+01	3.276660e+02
1.680000e-06	2.863565e-06	4.968256e-09	1.985034e+01	3.276203e+02
1.690000e-06	2.860474e-06	4.967209e-09	1.982892e+01	3.275090e+02
1.700000e-06	2.856602e-06	4.967330e-09	1.980207e+01	3.273286e+02
1.710000e-06	2.851704e-06	4.962163e-09	1.976812e+01	3.270766e+02
1.720000e-06	2.845592e-06	4.943032e-09	1.972576e+01	3.267520e+02
1.730000e-06	2.838518e-06	4.929064e-09	1.967671e+01	3.263554e+02
1.740000e-06	2.830550e-06	4.942232e-09	1.962148e+01	3.258894e+02
1.750000e-06	2.821213e-06	4.973501e-09	1.955676e+01	3.253580e+02
1.760000e-06	2.810361e-06	4.923243e-09	1.948153e+01	3.247666e+02
1.770000e-06	2.798706e-06	4.874421e-09	1.940074e+01	3.241213e+02
1.780000e-06	2.786854e-06	4.914528e-09	1.931858e+01	3.234281e+02
1.790000e-06	2.774093e-06	4.923178e-09	1.923012e+01	3.226927e+02
1.800000e-06	2.759700e-06	4.865966e-09	1.913035e+01	3.219197e+02
1.810000e-06	2.744228e-06	4.843686e-09	1.902310e+01	3.211120e+02
1.820000e-06	2.728115e-06	4.929091e-09	1.891140e+01	3.202709e+02
1.830000e-06	2.710857e-06	4.890580e-09	1.879177e+01	3.193956e+02
1.840000e-06	2.692398e-06	4.795756e-09	1.866380e+01	3.184835e+02
1.850000e-06	2.673263e-06	4.862696e-09	1.853116e+01	3.175307e+02
1.860000e-06	2.653288e-06	4.859963e-09	1.839269e+01	3.165324e+02
1.870000e-06	2.632041e-06	4.772028e-09	1.824541e+01	3.154830e+02
1.880000e-06	2.609761e-06	4.805602e-09	1.809097e+01	3.143772e+02
1.890000e-06	2.586571e-06	4.819517e-09	1.793021e+01	3.132106e+02
1.900000e-06	2.562355e-06	4.753512e-09	1.776235e+01	3.119793e+02
1.910000e-06	2.537396e-06	4.729489e-09	1.758933e+01	3.106812e+02
1.920000e-06	2.511647e-06	4.729392e-09	1.741084e+01	3.093153e+02
1.930000e-06	2.484983e-06	4.703156e-09	1.722600e+01	3.078821e+02
1.940000e-06	2.457675e-06	4.688987e-09	1.703670e+01	3.063833e+02
1.950000e-06	2.429507e-06	4.660059e-09	1.684144e+01	3.048212e+02
1.960000e-06	2.400126e-06	4.613368e-09	1.663777e+01	3.031987e+02
1.970000e-06	2.369701e-06	4.623027e-09	1.642686e+01	3.015186e+02
1.980000e-06	2.338470e-06	4.578930e-09	1.621037e+01	2.997834e+02
1.990000e-06	2.306535e-06	4.530449e-09	1.598899e+01	2.979951e+02
2.000000e-06	2.273920e-06	4.545931e-09	1.576290e+01	2.961547e+02
2.010000e-06	2.240520e-06	4.499676e-09	1.553137e+01	2.942628e+02
2.020000e-06	2.206321e-06	4.448499e-09	1.529431e+01	2.923191e+02
2.030000e-06	2.171456e-06	4.455271e-09	1.505262e+01	2.903229e+02
2.040000e-06	2.135915e-06	4.399931e-09	1.480625e+01	2.882732e+02
2.050000e-06	2.099658e-06	4.342709e-09	1.455491e+01	2.861693e+02
2.060000e-06	2.062480e-06	4.347672e-09	1.429719e+01	2.840104e+02
2.070000e-06	2.024170e-06	4.310856e-09	1.403162e+01	2.817965e+02
2.080000e-06	1.985084e-06	4.263220e-09	1.376068e+01	2.795280e+02
2.090000e-06	1.945528e-06	4.237174e-09	1.348648e+01	2.772059e+02
2.100000e-06	1.905376e-06	4.200956e-09	1.320814e+01	2.748312e+02
2.110000e-06	1.864540e-06	4.162198e-09	1.292507e+01	2.724054e+02
2.120000e-06	1.823101e-06	4.119370e-09	1.263781e+01	2.699299e+02
2.130000e-06	1.781094e-06	4.075992e-09	1.234661e+01	2.674053e+02
2.140000e-06	1.738425e-06	4.046487e-09	1.205083e+01	2.648317e+02
2.150000e-06	1.695245e-06	4.008822e-09	1.175150e+01	2.622086e+02
2.160000e-06	1.651718e-06	3.960074e-09	1.144977e+01	2.595341e+02
2.170000e-06	1.607634e-06	3.921988e-09	1.114418e+01	2.568056e+02
2.180000e-06	1.562866e-06	3.879014e-09	1.083385e+01	2.540197e+02
2.190000e-06	1.517505e-06	3.835289e-09	1.051940e+01	2.511724e+02
2.200000e-06	1.471641e-06	3.795354e-09	1.020148e+01	2.482595e+02
2.210000e-06	1.425376e-06	3.749203e-09	9.880765e+00	2.452771e+02
2.220000e-06	1.378693e-06	3.696550e-09	9.557156e+00	2.422214e+02
2.230000e-06	1.331468e-06	3.649213e-09	9.229788e+00	2.390898e+02
2.240000e-06	1.283579e-06	3.605538e-09	8.897822e+00	2.358803e+02
2.250000e-06	1.235100e-06	3.551826e-09	8.561764e+00	2.325923e+02
2.260000e-06	1.186202e-06	3.502609e-09	8.222799e+00	2.292259e+02
2.270000e-06	1.136876e-06	3.455417e-09	7.880869e+00	2.257824e+02
2.280000e-06	1.087145e-06	3.403690e-09	7.536134e+00	2.222634e+02
2.290000e-06	1.036980e-06	3.350004e-09	7.188383e+00	2.186712e+02
2.300000e-06	9.863224e-07	3.290108e-09	6.837225e+00	2.150078e+02
2.310000e-06	9.352880e-07	3.226783e-09	6.483453e+00	2.112748e+02
2.320000e-06	8.840028e-07	3.168048e-09	6.127941e+00	2.074734e+02
2.330000e-06	8.325539e-07	3.111986e-09	5.771296e+00	2.036037e+02
2.340000e-06	7.808115e-07	3.054532e-09	5.412616e+00	1.996650e+02
2.350000e-06	7.286364e-07	2.993839e-09	5.050936e+00	1.956554e+02
2.360000e-06	6.760414e-07	2.929143e-09	4.686345e+00	1.915722e+02
2.370000e-06	6.229904e-07	2.868925e-09	4.318594e+00	1.874120e+02
2.380000e-06	5.694910e-07	2.808962e-09	3.947734e+00	1.831708e+02
2.390000e-06	5.156238e-07	2.745262e-09	3.574324e+00	1.788439e+02
2.400000e-06	4.614443e-07	2.679111e-09	3.198750e+00	1.744269e+02
2.410000e-06	4.070455e-07	2.612129e-09	2.821655e+00	1.699149e+02
2.420000e-06	3.524607e-07	2.544483e-09	2.443271e+00	1.653032e+02
2.430000e-06	2.977118e-07	2.471489e-09	2.063750e+00	1.605873e+02
2.440000e-06	2.428409e-07	2.395104e-09	1.683383e+00	1.557626e+02
2.450000e-06	1.878801e-07	2.320385e-09	1.302392e+00	1.508245e+02
2.460000e-06	1.328930e-07	2.248049e-09	9.212196e-01	1.457683e+02
2.470000e-06	7.790159e-08	2.171935e-09	5.400168e-01	1.405891e+02
2.480000e-06	2.290045e-08	2.089593e-09	1.587468e-01	1.352820e+02
2.490000e-06	-3.211276e-08	2.005186e-09	-2.226069e-01	1.298416e+02
2.500000e-06	-8.713127e-08	1.921239e-09	-6.039973e-01	1.242626e+02
2.510000e-06	-1.421237e-07	1.834300e-09	-9.852069e-01	1.185393e+02
2.520000e-06	-1.970879e-07	1.742045e-09	-1.366221e+00	1.126659e+02
2.530000e-06	-2.520345e-07	1.649246e-09	-1.747113e+00	1.066366e+02
2.540000e-06	-3.068739e-07	1.558185e-09	-2.127262e+00	1.004452e+02
2.550000e-06	-3.615261e-07	1.466086e-09	-2.506113e+00	9.408552e+01
2.560000e-06	-4.160039e-07	1.366868e-09	-2.883755e+00	8.755048e+01
2.570000e-06	-4.703210e-07	1.262699e-09	-3.260283e+00	8.083226e+01
2.580000e-06	-5.243569e-07	1.157820e-09	-3.634862e+00	7.392177e+01
2.590000e-06	-5.779889e-07	1.052763e-09	-4.006642e+00	6.680817e+01
2.600000e-06	-6.312371e-07	9.437407e-10	-4.375760e+00	5.947860e+01
2.610000e-06	-6.840787e-07	8.264824e-10	-4.742060e+00	5.191783e+01
2.620000e-06	-7.365162e-07	7.060690e-10	-5.105559e+00	4.410826e+01
2.630000e-06	-7.885673e-07	5.845642e-10	-5.466379e+00	3.603015e+01
2.640000e-06	-8.402487e-07	4.599335e-10	-5.824637e+00	2.766219e+01
2.650000e-06	-8.916662e-07	3.281742e-10	-6.181065e+00	1.898247e+01
2.660000e-06	-9.428035e-07	1.889395e-10	-6.535550e+00	9.969860e+00
2.670000e-06	-9.936350e-07	4.576891e-11	-6.887917e+00	6.056655e-01
2.680000e-06	-1.044156e-06	-1.005935e-10	-7.238128e+00	-9.124373e+00
2.690000e-06	-1.094272e-06	-2.537384e-10	-7.585538e+00	-1.922800e+01
2.700000e-06	-1.143930e-06	-4.129757e-10	-7.929767e+00	-2.970440e+01
2.710000e-06	-1.193130e-06	-5.758558e-10	-8.270822e+00	-4.054227e+01
2.720000e-06	-1.241846e-06	-7.437340e-10	-8.608528e+00	-5.171845e+01
2.730000e-06	-1.289839e-06	-9.163936e-10	-8.941213e+00	-6.319690e+01
2.740000e-06	-1.337022e-06	-1.094160e-09	-9.268286e+00	-7.492858e+01
2.750000e-06	-1.383569e-06	-1.277313e-09	-9.590956e+00	-8.685197e+01
2.760000e-06	-1.429640e-06	-1.464370e-09	-9.910320e+00	-9.889451e+01
2.770000e-06	-1.475339e-06	-1.651301e-09	-1.022710e+01	-1.109748e+02
2.780000e-06	-1.520690e-06	-1.835604e-09	-1.054148e+01	-1.230053e+02
2.790000e-06	-1.565625e-06	-2.015982e-09	-1.085297e+01	-1.348960e+02
2.800000e-06	-1.610018e-06	-2.191052e-09	-1.116071e+01	-1.465579e+02
2.810000e-06	-1.653875e-06	-2.362194e-09	-1.146472e+01	-1.579067e+02
2.820000e-06	-1.697294e-06	-2.530109e-09	-1.176571e+01	-1.688665e+02
2.830000e-06	-1.740298e-06	-2.692335e-09	-1.206381e+01	-1.793724e+02
2.840000e-06	-1.782802e-06	-2.846198e-09	-1.235845e+01	-1.893734e+02
2.850000e-06	-1.824721e-06	-2.993368e-09	-1.264904e+01	-1.988333e+02
2.860000e-06	-1.866023e-06	-3.132781e-09	-1.293535e+01	-2.077320e+02
2.870000e-06	-1.906645e-06	-3.260921e-09	-1.321694e+01	-2.160641e+02
2.880000e-06	-1.946572e-06	-3.378091e-09	-1.349372e+01	-2.238386e+02
2.890000e-06	-1.985964e-06	-3.488099e-09	-1.376678e+01	-2.310761e+02
2.900000e-06	-2.024832e-06	-3.593491e-09	-1.403621e+01	-2.378068e+02
2.910000e-06	-2.062899e-06	-3.691941e-09	-1.430009e+01	-2.440669e+02
2.920000e-06	-2.099915e-06	-3.781741e-09	-1.455669e+01	-2.498964e+02
2.930000e-06	-2.135970e-06	-3.864825e-09	-1.480662e+01	-2.553355e+02
2.940000e-06	-2.171317e-06	-3.946000e-09	-1.505166e+01	-2.604226e+02
