# Temperatura_=_20.2
# Concentracion g/m^3_=_15500.0
# C_Vs_to_Am_M_A/Vsm_=_65563218390.804596
# pendiente_HvsI_1/m_=_3716.3
# ordenada_HvsI_A/m_=_1297.0
# frecuencia_Hz_=_300844.84464446694

Tiempo_(s)	Campo_(V.s)	Magnetizacion_(V.s)	Campo_(kA/m)	Magnetizacion_(A/m)
0.000000e+00	-2.858403e-06	-5.042415e-09	-1.980055e+01	-3.297722e+02
1.000000e-08	-2.857332e-06	-5.037708e-09	-1.979313e+01	-3.297960e+02
2.000000e-08	-2.855245e-06	-5.032291e-09	-1.977868e+01	-3.297503e+02
3.000000e-08	-2.851955e-06	-5.030047e-09	-1.975588e+01	-3.296334e+02
4.000000e-08	-2.847621e-06	-5.029299e-09	-1.972586e+01	-3.294458e+02
5.000000e-08	-2.842501e-06	-5.026761e-09	-1.969040e+01	-3.291903e+02
6.000000e-08	-2.836547e-06	-5.026870e-09	-1.964915e+01	-3.288721e+02
7.000000e-08	-2.829653e-06	-5.029897e-09	-1.960140e+01	-3.284981e+02
8.000000e-08	-2.821727e-06	-5.009290e-09	-1.954649e+01	-3.280764e+02
9.000000e-08	-2.812486e-06	-4.975402e-09	-1.948248e+01	-3.276154e+02
1.000000e-07	-2.801750e-06	-4.980226e-09	-1.940811e+01	-3.271227e+02
1.100000e-07	-2.789926e-06	-5.031975e-09	-1.932620e+01	-3.266043e+02
1.200000e-07	-2.777370e-06	-4.991051e-09	-1.923922e+01	-3.260636e+02
1.300000e-07	-2.763908e-06	-4.916990e-09	-1.914597e+01	-3.255013e+02
1.400000e-07	-2.749417e-06	-4.961264e-09	-1.904559e+01	-3.249146e+02
1.500000e-07	-2.733890e-06	-5.004902e-09	-1.893803e+01	-3.242979e+02
1.600000e-07	-2.717021e-06	-4.918806e-09	-1.882118e+01	-3.236428e+02
1.700000e-07	-2.698889e-06	-4.900237e-09	-1.869557e+01	-3.229392e+02
1.800000e-07	-2.680098e-06	-4.982401e-09	-1.856541e+01	-3.221764e+02
1.900000e-07	-2.660680e-06	-4.908958e-09	-1.843090e+01	-3.213436e+02
2.000000e-07	-2.640309e-06	-4.856397e-09	-1.828978e+01	-3.204316e+02
2.100000e-07	-2.619094e-06	-4.919129e-09	-1.814282e+01	-3.194334e+02
2.200000e-07	-2.597150e-06	-4.871767e-09	-1.799082e+01	-3.183448e+02
2.300000e-07	-2.574204e-06	-4.812551e-09	-1.783187e+01	-3.171649e+02
2.400000e-07	-2.550290e-06	-4.847101e-09	-1.766621e+01	-3.158958e+02
2.500000e-07	-2.525623e-06	-4.806644e-09	-1.749533e+01	-3.145425e+02
2.600000e-07	-2.500094e-06	-4.769861e-09	-1.731850e+01	-3.131119e+02
2.700000e-07	-2.473453e-06	-4.781792e-09	-1.713395e+01	-3.116125e+02
2.800000e-07	-2.445741e-06	-4.734734e-09	-1.694198e+01	-3.100527e+02
2.900000e-07	-2.417127e-06	-4.703429e-09	-1.674377e+01	-3.084402e+02
3.000000e-07	-2.387706e-06	-4.708468e-09	-1.653997e+01	-3.067814e+02
3.100000e-07	-2.357583e-06	-4.652264e-09	-1.633130e+01	-3.050805e+02
3.200000e-07	-2.326691e-06	-4.627047e-09	-1.611731e+01	-3.033392e+02
3.300000e-07	-2.295000e-06	-4.648017e-09	-1.589778e+01	-3.015569e+02
3.400000e-07	-2.262666e-06	-4.573666e-09	-1.567380e+01	-2.997310e+02
3.500000e-07	-2.229711e-06	-4.546383e-09	-1.544552e+01	-2.978574e+02
3.600000e-07	-2.195848e-06	-4.566787e-09	-1.521094e+01	-2.959311e+02
3.700000e-07	-2.160850e-06	-4.496724e-09	-1.496850e+01	-2.939473e+02
3.800000e-07	-2.124880e-06	-4.451593e-09	-1.471934e+01	-2.919020e+02
3.900000e-07	-2.088277e-06	-4.463340e-09	-1.446578e+01	-2.897925e+02
4.000000e-07	-2.051068e-06	-4.410656e-09	-1.420803e+01	-2.876179e+02
4.100000e-07	-2.013105e-06	-4.352078e-09	-1.394506e+01	-2.853792e+02
4.200000e-07	-1.974337e-06	-4.344225e-09	-1.367650e+01	-2.830792e+02
4.300000e-07	-1.934809e-06	-4.307001e-09	-1.340269e+01	-2.807219e+02
4.400000e-07	-1.894695e-06	-4.263464e-09	-1.312481e+01	-2.783122e+02
4.500000e-07	-1.854198e-06	-4.231875e-09	-1.284429e+01	-2.758548e+02
4.600000e-07	-1.813242e-06	-4.194837e-09	-1.256058e+01	-2.733538e+02
4.700000e-07	-1.771502e-06	-4.155195e-09	-1.227144e+01	-2.708121e+02
4.800000e-07	-1.728696e-06	-4.112708e-09	-1.197492e+01	-2.682306e+02
4.900000e-07	-1.684950e-06	-4.060454e-09	-1.167188e+01	-2.656083e+02
5.000000e-07	-1.640641e-06	-4.021818e-09	-1.136495e+01	-2.629421e+02
5.100000e-07	-1.595932e-06	-3.989194e-09	-1.105524e+01	-2.602273e+02
5.200000e-07	-1.550788e-06	-3.941168e-09	-1.074252e+01	-2.574578e+02
5.300000e-07	-1.505087e-06	-3.905568e-09	-1.042595e+01	-2.546271e+02
5.400000e-07	-1.458794e-06	-3.862309e-09	-1.010527e+01	-2.517288e+02
5.500000e-07	-1.412012e-06	-3.804221e-09	-9.781203e+00	-2.487573e+02
5.600000e-07	-1.364753e-06	-3.757394e-09	-9.453833e+00	-2.457082e+02
5.700000e-07	-1.316987e-06	-3.716551e-09	-9.122949e+00	-2.425792e+02
5.800000e-07	-1.268835e-06	-3.660242e-09	-8.789395e+00	-2.393697e+02
5.900000e-07	-1.220352e-06	-3.612841e-09	-8.453546e+00	-2.360811e+02
6.000000e-07	-1.171451e-06	-3.572344e-09	-8.114803e+00	-2.327160e+02
6.100000e-07	-1.122003e-06	-3.515222e-09	-7.772271e+00	-2.292783e+02
6.200000e-07	-1.071875e-06	-3.458083e-09	-7.425025e+00	-2.257720e+02
6.300000e-07	-1.020999e-06	-3.403566e-09	-7.072600e+00	-2.222010e+02
6.400000e-07	-9.695314e-07	-3.348269e-09	-6.716078e+00	-2.185682e+02
6.500000e-07	-9.176739e-07	-3.288133e-09	-6.356853e+00	-2.148752e+02
6.600000e-07	-8.655078e-07	-3.228611e-09	-5.995491e+00	-2.111218e+02
6.700000e-07	-8.131155e-07	-3.169802e-09	-5.632563e+00	-2.073060e+02
6.800000e-07	-7.604881e-07	-3.111142e-09	-5.268005e+00	-2.034244e+02
6.900000e-07	-7.075560e-07	-3.050024e-09	-4.901338e+00	-1.994722e+02
7.000000e-07	-6.543208e-07	-2.986529e-09	-4.532570e+00	-1.954435e+02
7.100000e-07	-6.008442e-07	-2.925938e-09	-4.162131e+00	-1.913322e+02
7.200000e-07	-5.471292e-07	-2.862466e-09	-3.790039e+00	-1.871323e+02
7.300000e-07	-4.931965e-07	-2.795347e-09	-3.416440e+00	-1.828381e+02
7.400000e-07	-4.390845e-07	-2.722458e-09	-3.041599e+00	-1.784450e+02
7.500000e-07	-3.848431e-07	-2.648657e-09	-2.665861e+00	-1.739487e+02
7.600000e-07	-3.305210e-07	-2.576414e-09	-2.289564e+00	-1.693461e+02
7.700000e-07	-2.761467e-07	-2.507417e-09	-1.912906e+00	-1.646343e+02
7.800000e-07	-2.217244e-07	-2.436419e-09	-1.535915e+00	-1.598107e+02
7.900000e-07	-1.672597e-07	-2.360512e-09	-1.158631e+00	-1.548723e+02
8.000000e-07	-1.127481e-07	-2.283268e-09	-7.810217e-01	-1.498155e+02
8.100000e-07	-5.820402e-08	-2.204550e-09	-4.031873e-01	-1.446358e+02
8.200000e-07	-3.611084e-09	-2.124243e-09	-2.501448e-02	-1.393273e+02
8.300000e-07	5.101094e-08	-2.036204e-09	3.533598e-01	-1.338833e+02
8.400000e-07	1.055604e-07	-1.943938e-09	7.312316e-01	-1.282959e+02
8.500000e-07	1.600661e-07	-1.854889e-09	1.108800e+00	-1.225562e+02
8.600000e-07	2.145520e-07	-1.769471e-09	1.486231e+00	-1.166550e+02
8.700000e-07	2.689970e-07	-1.680359e-09	1.863379e+00	-1.105831e+02
8.800000e-07	3.233859e-07	-1.584731e-09	2.240138e+00	-1.043309e+02
8.900000e-07	3.776696e-07	-1.484368e-09	2.616169e+00	-9.788942e+01
9.000000e-07	4.318243e-07	-1.382424e-09	2.991306e+00	-9.124936e+01
9.100000e-07	4.858265e-07	-1.280464e-09	3.365387e+00	-8.440137e+01
9.200000e-07	5.396045e-07	-1.171574e-09	3.737915e+00	-7.733532e+01
9.300000e-07	5.932318e-07	-1.055911e-09	4.109398e+00	-7.003979e+01
9.400000e-07	6.466671e-07	-9.375233e-10	4.479552e+00	-6.250144e+01
9.500000e-07	6.998081e-07	-8.198178e-10	4.847667e+00	-5.470450e+01
9.600000e-07	7.526748e-07	-6.996257e-10	5.213882e+00	-4.663050e+01
9.700000e-07	8.052604e-07	-5.722291e-10	5.578150e+00	-3.825840e+01
9.800000e-07	8.576000e-07	-4.359705e-10	5.940713e+00	-2.956508e+01
9.900000e-07	9.096804e-07	-2.945416e-10	6.301481e+00	-2.052647e+01
1.000000e-06	9.613808e-07	-1.497934e-10	6.659617e+00	-1.111915e+01
1.010000e-06	1.012523e-06	2.470881e-12	7.013886e+00	-1.322379e+00
1.020000e-06	1.063024e-06	1.609688e-10	7.363711e+00	8.879419e+00
1.030000e-06	1.112918e-06	3.255181e-10	7.709339e+00	1.949410e+01
1.040000e-06	1.162219e-06	4.949840e-10	8.050851e+00	3.051924e+01
1.050000e-06	1.211008e-06	6.689223e-10	8.388822e+00	4.193990e+01
1.060000e-06	1.259482e-06	8.462918e-10	8.724604e+00	5.372693e+01
1.070000e-06	1.307654e-06	1.027596e-09	9.058296e+00	6.583601e+01
1.080000e-06	1.355454e-06	1.214387e-09	9.389414e+00	7.820767e+01
1.090000e-06	1.402771e-06	1.404798e-09	9.717186e+00	9.076823e+01
1.100000e-06	1.449544e-06	1.599663e-09	1.004119e+01	1.034319e+02
1.110000e-06	1.495816e-06	1.795998e-09	1.036172e+01	1.161036e+02
1.120000e-06	1.541548e-06	1.989190e-09	1.067851e+01	1.286829e+02
1.130000e-06	1.586716e-06	2.176693e-09	1.099140e+01	1.410681e+02
1.140000e-06	1.631453e-06	2.361041e-09	1.130130e+01	1.531608e+02
1.150000e-06	1.675852e-06	2.539922e-09	1.160886e+01	1.648700e+02
1.160000e-06	1.719856e-06	2.709650e-09	1.191368e+01	1.761162e+02
1.170000e-06	1.763147e-06	2.869365e-09	1.221356e+01	1.868348e+02
1.180000e-06	1.805451e-06	3.021588e-09	1.250661e+01	1.969776e+02
1.190000e-06	1.846839e-06	3.169319e-09	1.279331e+01	2.065146e+02
1.200000e-06	1.887480e-06	3.308343e-09	1.307483e+01	2.154335e+02
1.210000e-06	1.927574e-06	3.434772e-09	1.335257e+01	2.237387e+02
1.220000e-06	1.967143e-06	3.547741e-09	1.362667e+01	2.314491e+02
1.230000e-06	2.006103e-06	3.652594e-09	1.389655e+01	2.385954e+02
1.240000e-06	2.044368e-06	3.751802e-09	1.416162e+01	2.452164e+02
1.250000e-06	2.081877e-06	3.843422e-09	1.442145e+01	2.513560e+02
1.260000e-06	2.118751e-06	3.926954e-09	1.467688e+01	2.570595e+02
1.270000e-06	2.155072e-06	4.007652e-09	1.492848e+01	2.623707e+02
1.280000e-06	2.190684e-06	4.085857e-09	1.517517e+01	2.673296e+02
1.290000e-06	2.225365e-06	4.156752e-09	1.541541e+01	2.719711e+02
1.300000e-06	2.258993e-06	4.219332e-09	1.564835e+01	2.763236e+02
1.310000e-06	2.291745e-06	4.277493e-09	1.587524e+01	2.804097e+02
1.320000e-06	2.323823e-06	4.335030e-09	1.609744e+01	2.842461e+02
1.330000e-06	2.355124e-06	4.391356e-09	1.631427e+01	2.878453e+02
1.340000e-06	2.385581e-06	4.442125e-09	1.652524e+01	2.912166e+02
1.350000e-06	2.415229e-06	4.484789e-09	1.673062e+01	2.943678e+02
1.360000e-06	2.444137e-06	4.525112e-09	1.693088e+01	2.973064e+02
1.370000e-06	2.472400e-06	4.565654e-09	1.712666e+01	3.000407e+02
1.380000e-06	2.499844e-06	4.603497e-09	1.731677e+01	3.025807e+02
1.390000e-06	2.526105e-06	4.636573e-09	1.749867e+01	3.049380e+02
1.400000e-06	2.551224e-06	4.666731e-09	1.767268e+01	3.071260e+02
1.410000e-06	2.575457e-06	4.697936e-09	1.784055e+01	3.091592e+02
1.420000e-06	2.598780e-06	4.729436e-09	1.800211e+01	3.110524e+02
1.430000e-06	2.621163e-06	4.756967e-09	1.815716e+01	3.128201e+02
1.440000e-06	2.642730e-06	4.779026e-09	1.830656e+01	3.144752e+02
1.450000e-06	2.663542e-06	4.798402e-09	1.845073e+01	3.160290e+02
1.460000e-06	2.683592e-06	4.818205e-09	1.858961e+01	3.174899e+02
1.470000e-06	2.702767e-06	4.838978e-09	1.872244e+01	3.188640e+02
1.480000e-06	2.720970e-06	4.860136e-09	1.884853e+01	3.201549e+02
1.490000e-06	2.738264e-06	4.879879e-09	1.896833e+01	3.213643e+02
1.500000e-06	2.754563e-06	4.897508e-09	1.908124e+01	3.224923e+02
1.510000e-06	2.769681e-06	4.913232e-09	1.918596e+01	3.235387e+02
1.520000e-06	2.783652e-06	4.925968e-09	1.928274e+01	3.245032e+02
1.530000e-06	2.796616e-06	4.935961e-09	1.937254e+01	3.253865e+02
1.540000e-06	2.808511e-06	4.944974e-09	1.945494e+01	3.261901e+02
1.550000e-06	2.819139e-06	4.953462e-09	1.952856e+01	3.269173e+02
1.560000e-06	2.828540e-06	4.964314e-09	1.959368e+01	3.275722e+02
1.570000e-06	2.836938e-06	4.978117e-09	1.965186e+01	3.281600e+02
1.580000e-06	2.844422e-06	4.991190e-09	1.970370e+01	3.286862e+02
1.590000e-06	2.850938e-06	5.000527e-09	1.974884e+01	3.291560e+02
1.600000e-06	2.856491e-06	5.004076e-09	1.978731e+01	3.295736e+02
1.610000e-06	2.861203e-06	5.005348e-09	1.981995e+01	3.299419e+02
1.620000e-06	2.865027e-06	5.007689e-09	1.984643e+01	3.302617e+02
1.630000e-06	2.867714e-06	5.011458e-09	1.986505e+01	3.305321e+02
1.640000e-06	2.869184e-06	5.018048e-09	1.987523e+01	3.307504e+02
1.650000e-06	2.869656e-06	5.025155e-09	1.987850e+01	3.309126e+02
1.660000e-06	2.869217e-06	5.029888e-09	1.987546e+01	3.310141e+02
1.670000e-06	2.867839e-06	5.031702e-09	1.986592e+01	3.310502e+02
1.680000e-06	2.865607e-06	5.029681e-09	1.985045e+01	3.310174e+02
1.690000e-06	2.862561e-06	5.025325e-09	1.982935e+01	3.309135e+02
1.700000e-06	2.858691e-06	5.020180e-09	1.980255e+01	3.307386e+02
1.710000e-06	2.853830e-06	5.014475e-09	1.976888e+01	3.304952e+02
1.720000e-06	2.847822e-06	5.002051e-09	1.972726e+01	3.301880e+02
1.730000e-06	2.840820e-06	4.993002e-09	1.967875e+01	3.298237e+02
1.740000e-06	2.832886e-06	5.016817e-09	1.962379e+01	3.294102e+02
1.750000e-06	2.823596e-06	5.030416e-09	1.955944e+01	3.289559e+02
1.760000e-06	2.812758e-06	4.986504e-09	1.948436e+01	3.284686e+02
1.770000e-06	2.801050e-06	4.940192e-09	1.940326e+01	3.279547e+02
1.780000e-06	2.789162e-06	4.983625e-09	1.932091e+01	3.274181e+02
1.790000e-06	2.776441e-06	5.008650e-09	1.923279e+01	3.268601e+02
1.800000e-06	2.762059e-06	4.893883e-09	1.913316e+01	3.262783e+02
1.810000e-06	2.746588e-06	4.900174e-09	1.902599e+01	3.256678e+02
1.820000e-06	2.730519e-06	5.003901e-09	1.891468e+01	3.250205e+02
1.830000e-06	2.713319e-06	4.955686e-09	1.879553e+01	3.243267e+02
1.840000e-06	2.694884e-06	4.886740e-09	1.866783e+01	3.235755e+02
1.850000e-06	2.675756e-06	4.956184e-09	1.853533e+01	3.227561e+02
1.860000e-06	2.655853e-06	4.937293e-09	1.839746e+01	3.218592e+02
1.870000e-06	2.634751e-06	4.823070e-09	1.825128e+01	3.208770e+02
1.880000e-06	2.612515e-06	4.885398e-09	1.809725e+01	3.198050e+02
1.890000e-06	2.589321e-06	4.896730e-09	1.793658e+01	3.186416e+02
1.900000e-06	2.565168e-06	4.794411e-09	1.776927e+01	3.173884e+02
1.910000e-06	2.540220e-06	4.829412e-09	1.759645e+01	3.160499e+02
1.920000e-06	2.514493e-06	4.818963e-09	1.741824e+01	3.146329e+02
1.930000e-06	2.487860e-06	4.740373e-09	1.723375e+01	3.131454e+02
1.940000e-06	2.460557e-06	4.770825e-09	1.704462e+01	3.115960e+02
1.950000e-06	2.432444e-06	4.730122e-09	1.684987e+01	3.099927e+02
1.960000e-06	2.403108e-06	4.677160e-09	1.664666e+01	3.083421e+02
1.970000e-06	2.372707e-06	4.717290e-09	1.643607e+01	3.066487e+02
1.980000e-06	2.341519e-06	4.653308e-09	1.622003e+01	3.049149e+02
1.990000e-06	2.309661e-06	4.592928e-09	1.599934e+01	3.031403e+02
2.000000e-06	2.277042e-06	4.633142e-09	1.577338e+01	3.013228e+02
2.010000e-06	2.243559e-06	4.560707e-09	1.554144e+01	2.994583e+02
2.020000e-06	2.209358e-06	4.505182e-09	1.530453e+01	2.975421e+02
2.030000e-06	2.174539e-06	4.542785e-09	1.506333e+01	2.955692e+02
2.040000e-06	2.139040e-06	4.471384e-09	1.481742e+01	2.935353e+02
2.050000e-06	2.102827e-06	4.413921e-09	1.456657e+01	2.914377e+02
2.060000e-06	2.065747e-06	4.426490e-09	1.430971e+01	2.892750e+02
2.070000e-06	2.027582e-06	4.378609e-09	1.404534e+01	2.870478e+02
2.080000e-06	1.988510e-06	4.332711e-09	1.377468e+01	2.847588e+02
2.090000e-06	1.948847e-06	4.307608e-09	1.349993e+01	2.824116e+02
2.100000e-06	1.908625e-06	4.264966e-09	1.322131e+01	2.800112e+02
2.110000e-06	1.867757e-06	4.229580e-09	1.293821e+01	2.775622e+02
2.120000e-06	1.826291e-06	4.183538e-09	1.265097e+01	2.750690e+02
2.130000e-06	1.784267e-06	4.147194e-09	1.235986e+01	2.725347e+02
2.140000e-06	1.741619e-06	4.126229e-09	1.206443e+01	2.699606e+02
2.150000e-06	1.698458e-06	4.077702e-09	1.176545e+01	2.673461e+02
2.160000e-06	1.654906e-06	4.027865e-09	1.146376e+01	2.646883e+02
2.170000e-06	1.610759e-06	3.989306e-09	1.115795e+01	2.619828e+02
2.180000e-06	1.565922e-06	3.948414e-09	1.084736e+01	2.592239e+02
2.190000e-06	1.520504e-06	3.894484e-09	1.053274e+01	2.564049e+02
2.200000e-06	1.474615e-06	3.853750e-09	1.021486e+01	2.535194e+02
2.210000e-06	1.428342e-06	3.822895e-09	9.894321e+00	2.505615e+02
2.220000e-06	1.381549e-06	3.768390e-09	9.570180e+00	2.475268e+02
2.230000e-06	1.334227e-06	3.720285e-09	9.242376e+00	2.444124e+02
2.240000e-06	1.286380e-06	3.679738e-09	8.910929e+00	2.412176e+02
2.250000e-06	1.237917e-06	3.623082e-09	8.575218e+00	2.379431e+02
2.260000e-06	1.188972e-06	3.572476e-09	8.236176e+00	2.345917e+02
2.270000e-06	1.139659e-06	3.526147e-09	7.894575e+00	2.311669e+02
2.280000e-06	1.089922e-06	3.468092e-09	7.550041e+00	2.276729e+02
2.290000e-06	1.039693e-06	3.414525e-09	7.202097e+00	2.241135e+02
2.300000e-06	9.890350e-07	3.358697e-09	6.851181e+00	2.204918e+02
2.310000e-06	9.380238e-07	3.302467e-09	6.497820e+00	2.168098e+02
2.320000e-06	8.867254e-07	3.247199e-09	6.142469e+00	2.130675e+02
2.330000e-06	8.351805e-07	3.189280e-09	5.785410e+00	2.092634e+02
2.340000e-06	7.833060e-07	3.136540e-09	5.426068e+00	2.053941e+02
2.350000e-06	7.310460e-07	3.076538e-09	5.064056e+00	2.014552e+02
2.360000e-06	6.783833e-07	3.009774e-09	4.699255e+00	1.974408e+02
2.370000e-06	6.252677e-07	2.945668e-09	4.331316e+00	1.933450e+02
2.380000e-06	5.717335e-07	2.887115e-09	3.960476e+00	1.891616e+02
2.390000e-06	5.179473e-07	2.827320e-09	3.587892e+00	1.848850e+02
2.400000e-06	4.639215e-07	2.762196e-09	3.213648e+00	1.805100e+02
2.410000e-06	4.096240e-07	2.699703e-09	2.837522e+00	1.760327e+02
2.420000e-06	3.550722e-07	2.637140e-09	2.459634e+00	1.714496e+02
2.430000e-06	3.003527e-07	2.564386e-09	2.080585e+00	1.667578e+02
2.440000e-06	2.455022e-07	2.485132e-09	1.700627e+00	1.619546e+02
2.450000e-06	1.905363e-07	2.407703e-09	1.319871e+00	1.570372e+02
2.460000e-06	1.355800e-07	2.332791e-09	9.391815e-01	1.520021e+02
2.470000e-06	8.059958e-08	2.257396e-09	5.583244e-01	1.468450e+02
2.480000e-06	2.553714e-08	2.178613e-09	1.768993e-01	1.415603e+02
2.490000e-06	-2.957112e-08	2.099144e-09	-2.048432e-01	1.361413e+02
2.500000e-06	-8.466201e-08	2.016594e-09	-5.864654e-01	1.305804e+02
2.510000e-06	-1.396861e-07	1.928408e-09	-9.676247e-01	1.248688e+02
2.520000e-06	-1.946648e-07	1.836849e-09	-1.348470e+00	1.189975e+02
2.530000e-06	-2.496047e-07	1.742551e-09	-1.729046e+00	1.129570e+02
2.540000e-06	-3.044898e-07	1.647009e-09	-2.109243e+00	1.067379e+02
2.550000e-06	-3.592773e-07	1.552036e-09	-2.488763e+00	1.003312e+02
2.560000e-06	-4.138282e-07	1.455818e-09	-2.866645e+00	9.372751e+01
2.570000e-06	-4.681153e-07	1.354630e-09	-3.242699e+00	8.691763e+01
2.580000e-06	-5.221961e-07	1.248741e-09	-3.617324e+00	7.989159e+01
2.590000e-06	-5.760240e-07	1.139223e-09	-3.990197e+00	7.263823e+01
2.600000e-06	-6.294075e-07	1.025124e-09	-4.359993e+00	6.514459e+01
2.610000e-06	-6.822874e-07	9.045530e-10	-4.726298e+00	5.739536e+01
2.620000e-06	-7.347328e-07	7.797498e-10	-5.089595e+00	4.937258e+01
2.630000e-06	-7.868156e-07	6.533752e-10	-5.450380e+00	4.105563e+01
2.640000e-06	-8.385959e-07	5.247682e-10	-5.809069e+00	3.242170e+01
2.650000e-06	-8.900473e-07	3.920192e-10	-6.165480e+00	2.344678e+01
2.660000e-06	-9.411776e-07	2.516925e-10	-6.519666e+00	1.410720e+01
2.670000e-06	-9.919924e-07	1.024618e-10	-6.871668e+00	4.381565e+00
2.680000e-06	-1.042484e-06	-5.547186e-11	-7.221427e+00	-5.746804e+00
2.690000e-06	-1.092594e-06	-2.170889e-10	-7.568550e+00	-1.628733e+01
2.700000e-06	-1.142277e-06	-3.806132e-10	-7.912712e+00	-2.723961e+01
2.710000e-06	-1.191509e-06	-5.506558e-10	-8.253746e+00	-3.859109e+01
2.720000e-06	-1.240204e-06	-7.284258e-10	-8.591064e+00	-5.031523e+01
2.730000e-06	-1.288216e-06	-9.108164e-10	-8.923647e+00	-6.237047e+01
2.740000e-06	-1.335502e-06	-1.096484e-09	-9.251205e+00	-7.469999e+01
2.750000e-06	-1.382095e-06	-1.287418e-09	-9.573961e+00	-8.723252e+01
2.760000e-06	-1.428138e-06	-1.483712e-09	-9.892906e+00	-9.988423e+01
2.770000e-06	-1.473845e-06	-1.683018e-09	-1.020953e+01	-1.125615e+02
2.780000e-06	-1.519238e-06	-1.879902e-09	-1.052397e+01	-1.251645e+02
2.790000e-06	-1.564176e-06	-2.070322e-09	-1.083527e+01	-1.375915e+02
2.800000e-06	-1.608576e-06	-2.252253e-09	-1.114283e+01	-1.497431e+02
2.810000e-06	-1.652453e-06	-2.429725e-09	-1.144677e+01	-1.615267e+02
2.820000e-06	-1.695898e-06	-2.604445e-09	-1.174772e+01	-1.728606e+02
2.830000e-06	-1.738950e-06	-2.770472e-09	-1.204594e+01	-1.836771e+02
2.840000e-06	-1.781463e-06	-2.925757e-09	-1.234044e+01	-1.939252e+02
2.850000e-06	-1.823388e-06	-3.073879e-09	-1.263086e+01	-2.035715e+02
2.860000e-06	-1.864735e-06	-3.216052e-09	-1.291728e+01	-2.126006e+02
2.870000e-06	-1.905419e-06	-3.347576e-09	-1.319910e+01	-2.210141e+02
2.880000e-06	-1.945400e-06	-3.467120e-09	-1.347605e+01	-2.288285e+02
2.890000e-06	-1.984795e-06	-3.577486e-09	-1.374895e+01	-2.360726e+02
2.900000e-06	-2.023653e-06	-3.681166e-09	-1.401813e+01	-2.427841e+02
2.910000e-06	-2.061750e-06	-3.779118e-09	-1.428203e+01	-2.490061e+02
2.920000e-06	-2.098825e-06	-3.868659e-09	-1.453885e+01	-2.547839e+02
2.930000e-06	-2.134927e-06	-3.949752e-09	-1.478893e+01	-2.601617e+02
2.940000e-06	-2.170349e-06	-4.026961e-09	-1.503431e+01	-2.651806e+02
