# Temperatura_=_19.6
# Concentracion g/m^3_=_15500.0
# C_Vs_to_Am_M_A/Vsm_=_65563218390.804596
# pendiente_HvsI_1/m_=_3716.3
# ordenada_HvsI_A/m_=_1297.0
# frecuencia_Hz_=_300842.62313118734

Tiempo_(s)	Campo_(V.s)	Magnetizacion_(V.s)	Campo_(kA/m)	Magnetizacion_(A/m)
0.000000e+00	-2.858680e-06	-5.012426e-09	-1.980435e+01	-3.280232e+02
1.000000e-08	-2.857627e-06	-5.007801e-09	-1.979705e+01	-3.280273e+02
2.000000e-08	-2.855512e-06	-5.001342e-09	-1.978240e+01	-3.279704e+02
3.000000e-08	-2.852115e-06	-4.997558e-09	-1.975887e+01	-3.278489e+02
4.000000e-08	-2.847760e-06	-4.995405e-09	-1.972870e+01	-3.276597e+02
5.000000e-08	-2.842648e-06	-4.992047e-09	-1.969328e+01	-3.274010e+02
6.000000e-08	-2.836629e-06	-4.986168e-09	-1.965158e+01	-3.270722e+02
7.000000e-08	-2.829654e-06	-4.978904e-09	-1.960326e+01	-3.266747e+02
8.000000e-08	-2.821643e-06	-4.991025e-09	-1.954776e+01	-3.262111e+02
9.000000e-08	-2.812356e-06	-4.988628e-09	-1.948342e+01	-3.256854e+02
1.000000e-07	-2.801540e-06	-4.966663e-09	-1.940850e+01	-3.251026e+02
1.100000e-07	-2.789628e-06	-4.910680e-09	-1.932597e+01	-3.244679e+02
1.200000e-07	-2.777031e-06	-4.938608e-09	-1.923870e+01	-3.237867e+02
1.300000e-07	-2.763438e-06	-4.965056e-09	-1.914453e+01	-3.230633e+02
1.400000e-07	-2.748807e-06	-4.903685e-09	-1.904317e+01	-3.223015e+02
1.500000e-07	-2.733243e-06	-4.896792e-09	-1.893535e+01	-3.215034e+02
1.600000e-07	-2.716365e-06	-4.933682e-09	-1.881842e+01	-3.206695e+02
1.700000e-07	-2.698231e-06	-4.931183e-09	-1.869279e+01	-3.197993e+02
1.800000e-07	-2.679443e-06	-4.837311e-09	-1.856263e+01	-3.188905e+02
1.900000e-07	-2.659969e-06	-4.864429e-09	-1.842772e+01	-3.179402e+02
2.000000e-07	-2.639480e-06	-4.884298e-09	-1.828578e+01	-3.169446e+02
2.100000e-07	-2.618137e-06	-4.786444e-09	-1.813792e+01	-3.159000e+02
2.200000e-07	-2.596097e-06	-4.818643e-09	-1.798523e+01	-3.148025e+02
2.300000e-07	-2.573073e-06	-4.865011e-09	-1.782572e+01	-3.136490e+02
2.400000e-07	-2.549094e-06	-4.766548e-09	-1.765960e+01	-3.124372e+02
2.500000e-07	-2.524381e-06	-4.738041e-09	-1.748839e+01	-3.111653e+02
2.600000e-07	-2.498762e-06	-4.762060e-09	-1.731091e+01	-3.098325e+02
2.700000e-07	-2.471987e-06	-4.724720e-09	-1.712542e+01	-3.084389e+02
2.800000e-07	-2.444138e-06	-4.683747e-09	-1.693248e+01	-3.069849e+02
2.900000e-07	-2.415426e-06	-4.661680e-09	-1.673357e+01	-3.054712e+02
3.000000e-07	-2.385914e-06	-4.665708e-09	-1.652912e+01	-3.038986e+02
3.100000e-07	-2.355724e-06	-4.639836e-09	-1.631997e+01	-3.022679e+02
3.200000e-07	-2.324831e-06	-4.608437e-09	-1.610595e+01	-3.005795e+02
3.300000e-07	-2.293097e-06	-4.571334e-09	-1.588611e+01	-2.988337e+02
3.400000e-07	-2.260704e-06	-4.551278e-09	-1.566169e+01	-2.970304e+02
3.500000e-07	-2.227747e-06	-4.511824e-09	-1.543337e+01	-2.951694e+02
3.600000e-07	-2.193903e-06	-4.495675e-09	-1.519891e+01	-2.932505e+02
3.700000e-07	-2.158851e-06	-4.485565e-09	-1.495607e+01	-2.912737e+02
3.800000e-07	-2.122784e-06	-4.423486e-09	-1.470621e+01	-2.892391e+02
3.900000e-07	-2.086132e-06	-4.410378e-09	-1.445229e+01	-2.871475e+02
4.000000e-07	-2.048849e-06	-4.395700e-09	-1.419400e+01	-2.849998e+02
4.100000e-07	-2.010787e-06	-4.329380e-09	-1.393032e+01	-2.827973e+02
4.200000e-07	-1.972024e-06	-4.279349e-09	-1.366178e+01	-2.805418e+02
4.300000e-07	-1.932568e-06	-4.274228e-09	-1.338843e+01	-2.782347e+02
4.400000e-07	-1.892473e-06	-4.238394e-09	-1.311067e+01	-2.758774e+02
4.500000e-07	-1.851968e-06	-4.203065e-09	-1.283005e+01	-2.734707e+02
4.600000e-07	-1.811028e-06	-4.164186e-09	-1.254643e+01	-2.710148e+02
4.700000e-07	-1.769233e-06	-4.119198e-09	-1.225689e+01	-2.685091e+02
4.800000e-07	-1.726330e-06	-4.078905e-09	-1.195966e+01	-2.659520e+02
4.900000e-07	-1.682543e-06	-4.031712e-09	-1.165631e+01	-2.633411e+02
5.000000e-07	-1.638227e-06	-3.994928e-09	-1.134930e+01	-2.606733e+02
5.100000e-07	-1.593515e-06	-3.952629e-09	-1.103954e+01	-2.579452e+02
5.200000e-07	-1.548339e-06	-3.918402e-09	-1.072658e+01	-2.551530e+02
5.300000e-07	-1.502620e-06	-3.877311e-09	-1.040984e+01	-2.522932e+02
5.400000e-07	-1.456345e-06	-3.829169e-09	-1.008926e+01	-2.493630e+02
5.500000e-07	-1.409530e-06	-3.767035e-09	-9.764936e+00	-2.463601e+02
5.600000e-07	-1.362186e-06	-3.720226e-09	-9.436942e+00	-2.432832e+02
5.700000e-07	-1.314322e-06	-3.681218e-09	-9.105352e+00	-2.401320e+02
5.800000e-07	-1.266052e-06	-3.631836e-09	-8.770947e+00	-2.369073e+02
5.900000e-07	-1.217489e-06	-3.584442e-09	-8.434513e+00	-2.336104e+02
6.000000e-07	-1.168525e-06	-3.533884e-09	-8.095298e+00	-2.302432e+02
6.100000e-07	-1.118978e-06	-3.482078e-09	-7.752048e+00	-2.268078e+02
6.200000e-07	-1.068746e-06	-3.423717e-09	-7.404055e+00	-2.233060e+02
6.300000e-07	-1.017880e-06	-3.371977e-09	-7.051663e+00	-2.197393e+02
6.400000e-07	-9.664607e-07	-3.312225e-09	-6.695441e+00	-2.161083e+02
6.500000e-07	-9.145673e-07	-3.254615e-09	-6.335934e+00	-2.124127e+02
6.600000e-07	-8.623560e-07	-3.198620e-09	-5.974225e+00	-2.086513e+02
6.700000e-07	-8.099032e-07	-3.137011e-09	-5.610843e+00	-2.048219e+02
6.800000e-07	-7.572240e-07	-3.074436e-09	-5.245892e+00	-2.009217e+02
6.900000e-07	-7.042666e-07	-3.012933e-09	-4.879014e+00	-1.969470e+02
7.000000e-07	-6.510494e-07	-2.956428e-09	-4.510337e+00	-1.928942e+02
7.100000e-07	-5.975886e-07	-2.894456e-09	-4.139971e+00	-1.887594e+02
7.200000e-07	-5.439337e-07	-2.831048e-09	-3.768261e+00	-1.845388e+02
7.300000e-07	-4.900724e-07	-2.761601e-09	-3.395121e+00	-1.802290e+02
7.400000e-07	-4.359660e-07	-2.691008e-09	-3.020283e+00	-1.758266e+02
7.500000e-07	-3.817206e-07	-2.619418e-09	-2.644482e+00	-1.713284e+02
7.600000e-07	-3.274124e-07	-2.549284e-09	-2.268246e+00	-1.667315e+02
7.700000e-07	-2.730699e-07	-2.477864e-09	-1.891772e+00	-1.620323e+02
7.800000e-07	-2.186386e-07	-2.403047e-09	-1.514683e+00	-1.572272e+02
7.900000e-07	-1.641252e-07	-2.330146e-09	-1.137026e+00	-1.523117e+02
8.000000e-07	-1.095728e-07	-2.252097e-09	-7.590976e-01	-1.472807e+02
8.100000e-07	-5.500651e-08	-2.171638e-09	-3.810738e-01	-1.421282e+02
8.200000e-07	-4.190836e-10	-2.086354e-09	-2.903325e-03	-1.368473e+02
8.300000e-07	5.418563e-08	-2.001745e-09	3.753869e-01	-1.314308e+02
8.400000e-07	1.087693e-07	-1.916754e-09	7.535313e-01	-1.258708e+02
8.500000e-07	1.633201e-07	-1.831050e-09	1.131448e+00	-1.201592e+02
8.600000e-07	2.178444e-07	-1.743114e-09	1.509181e+00	-1.142883e+02
8.700000e-07	2.723403e-07	-1.651809e-09	1.886717e+00	-1.082501e+02
8.800000e-07	3.267680e-07	-1.557804e-09	2.263781e+00	-1.020371e+02
8.900000e-07	3.810914e-07	-1.456364e-09	2.640123e+00	-9.564186e+01
9.000000e-07	4.352874e-07	-1.354523e-09	3.015581e+00	-8.905650e+01
9.100000e-07	4.893337e-07	-1.252535e-09	3.390003e+00	-8.227253e+01
9.200000e-07	5.431543e-07	-1.148951e-09	3.762861e+00	-7.528014e+01
9.300000e-07	5.967551e-07	-1.036529e-09	4.134197e+00	-6.806758e+01
9.400000e-07	6.501749e-07	-9.194056e-10	4.504278e+00	-6.062069e+01
9.500000e-07	7.033140e-07	-7.999454e-10	4.872415e+00	-5.292250e+01
9.600000e-07	7.561723e-07	-6.786416e-10	5.238607e+00	-4.495321e+01
9.700000e-07	8.087791e-07	-5.538881e-10	5.603056e+00	-3.669046e+01
9.800000e-07	8.610977e-07	-4.198865e-10	5.965508e+00	-2.811016e+01
9.900000e-07	9.131023e-07	-2.801541e-10	6.325785e+00	-1.918772e+01
1.000000e-06	9.647476e-07	-1.377327e-10	6.683573e+00	-9.899746e+00
1.010000e-06	1.015886e-06	6.768397e-12	7.037849e+00	-2.261746e-01
1.020000e-06	1.066354e-06	1.638314e-10	7.387483e+00	9.847421e+00
1.030000e-06	1.116151e-06	3.298338e-10	7.732466e+00	2.032740e+01
1.040000e-06	1.165350e-06	4.968147e-10	8.073303e+00	3.120975e+01
1.050000e-06	1.214106e-06	6.635173e-10	8.411077e+00	4.247814e+01
1.060000e-06	1.262589e-06	8.374231e-10	8.746958e+00	5.410252e+01
1.070000e-06	1.310780e-06	1.022810e-09	9.080816e+00	6.603843e+01
1.080000e-06	1.358513e-06	1.211025e-09	9.411498e+00	7.822714e+01
1.090000e-06	1.405700e-06	1.399754e-09	9.738403e+00	9.059679e+01
1.100000e-06	1.452400e-06	1.588119e-09	1.006193e+01	1.030644e+02
1.110000e-06	1.498633e-06	1.779197e-09	1.038222e+01	1.155385e+02
1.120000e-06	1.544306e-06	1.968482e-09	1.069864e+01	1.279230e+02
1.130000e-06	1.589418e-06	2.152860e-09	1.101116e+01	1.401207e+02
1.140000e-06	1.634100e-06	2.332057e-09	1.132071e+01	1.520375e+02
1.150000e-06	1.678485e-06	2.508233e-09	1.162820e+01	1.635867e+02
1.160000e-06	1.722438e-06	2.681080e-09	1.193270e+01	1.746918e+02
1.170000e-06	1.765590e-06	2.842202e-09	1.223165e+01	1.852904e+02
1.180000e-06	1.807724e-06	2.989766e-09	1.252354e+01	1.953351e+02
1.190000e-06	1.848946e-06	3.129265e-09	1.280912e+01	2.047958e+02
1.200000e-06	1.889562e-06	3.266308e-09	1.309050e+01	2.136587e+02
1.210000e-06	1.929732e-06	3.394085e-09	1.336879e+01	2.219259e+02
1.220000e-06	1.969278e-06	3.507617e-09	1.364275e+01	2.296133e+02
1.230000e-06	2.008117e-06	3.612039e-09	1.391182e+01	2.367484e+02
1.240000e-06	2.046269e-06	3.712465e-09	1.417613e+01	2.433667e+02
1.250000e-06	2.083661e-06	3.805852e-09	1.443517e+01	2.495094e+02
1.260000e-06	2.120461e-06	3.892654e-09	1.469011e+01	2.552195e+02
1.270000e-06	2.156780e-06	3.973201e-09	1.494173e+01	2.605393e+02
1.280000e-06	2.192380e-06	4.048166e-09	1.518836e+01	2.655082e+02
1.290000e-06	2.226961e-06	4.117986e-09	1.542793e+01	2.701609e+02
1.300000e-06	2.260464e-06	4.181383e-09	1.566003e+01	2.745267e+02
1.310000e-06	2.293150e-06	4.241807e-09	1.588647e+01	2.786288e+02
1.320000e-06	2.325160e-06	4.299538e-09	1.610823e+01	2.824850e+02
1.330000e-06	2.356396e-06	4.353233e-09	1.632463e+01	2.861083e+02
1.340000e-06	2.386862e-06	4.402799e-09	1.653569e+01	2.895084e+02
1.350000e-06	2.416509e-06	4.448697e-09	1.674108e+01	2.926928e+02
1.360000e-06	2.445392e-06	4.492911e-09	1.694117e+01	2.956682e+02
1.370000e-06	2.473681e-06	4.535441e-09	1.713715e+01	2.984415e+02
1.380000e-06	2.501158e-06	4.571833e-09	1.732751e+01	3.010209e+02
1.390000e-06	2.527377e-06	4.603730e-09	1.750915e+01	3.034160e+02
1.400000e-06	2.552436e-06	4.635419e-09	1.768275e+01	3.056384e+02
1.410000e-06	2.576587e-06	4.667667e-09	1.785007e+01	3.077007e+02
1.420000e-06	2.599843e-06	4.699969e-09	1.801118e+01	3.096169e+02
1.430000e-06	2.622288e-06	4.729500e-09	1.816667e+01	3.114009e+02
1.440000e-06	2.643843e-06	4.753840e-09	1.831600e+01	3.130659e+02
1.450000e-06	2.664633e-06	4.773787e-09	1.846003e+01	3.146239e+02
1.460000e-06	2.684729e-06	4.792098e-09	1.859925e+01	3.160850e+02
1.470000e-06	2.703835e-06	4.810619e-09	1.873161e+01	3.174569e+02
1.480000e-06	2.721939e-06	4.831609e-09	1.885704e+01	3.187449e+02
1.490000e-06	2.739095e-06	4.854149e-09	1.897589e+01	3.199521e+02
1.500000e-06	2.755158e-06	4.873471e-09	1.908717e+01	3.210799e+02
1.510000e-06	2.770120e-06	4.889243e-09	1.919082e+01	3.221283e+02
1.520000e-06	2.784066e-06	4.902629e-09	1.928744e+01	3.230966e+02
1.530000e-06	2.797032e-06	4.914422e-09	1.937726e+01	3.239843e+02
1.540000e-06	2.808975e-06	4.923406e-09	1.946000e+01	3.247914e+02
1.550000e-06	2.819611e-06	4.930996e-09	1.953369e+01	3.255190e+02
1.560000e-06	2.828924e-06	4.941874e-09	1.959820e+01	3.261693e+02
1.570000e-06	2.837253e-06	4.956073e-09	1.965591e+01	3.267457e+02
1.580000e-06	2.844677e-06	4.970479e-09	1.970734e+01	3.272524e+02
1.590000e-06	2.851156e-06	4.979494e-09	1.975222e+01	3.276944e+02
1.600000e-06	2.856676e-06	4.981371e-09	1.979046e+01	3.280764e+02
1.610000e-06	2.861355e-06	4.981721e-09	1.982288e+01	3.284029e+02
1.620000e-06	2.865132e-06	4.985235e-09	1.984905e+01	3.286772e+02
1.630000e-06	2.867648e-06	4.989671e-09	1.986647e+01	3.289014e+02
1.640000e-06	2.868964e-06	4.993778e-09	1.987559e+01	3.290761e+02
1.650000e-06	2.869384e-06	4.998662e-09	1.987850e+01	3.292001e+02
1.660000e-06	2.868895e-06	5.002181e-09	1.987512e+01	3.292712e+02
1.670000e-06	2.867493e-06	5.001136e-09	1.986540e+01	3.292859e+02
1.680000e-06	2.865166e-06	5.000152e-09	1.984928e+01	3.292404e+02
1.690000e-06	2.862034e-06	5.000439e-09	1.982758e+01	3.291308e+02
1.700000e-06	2.858207e-06	4.999041e-09	1.980107e+01	3.289541e+02
1.710000e-06	2.853322e-06	4.994190e-09	1.976723e+01	3.287080e+02
1.720000e-06	2.847233e-06	4.986965e-09	1.972505e+01	3.283919e+02
1.730000e-06	2.840228e-06	4.985532e-09	1.967651e+01	3.280066e+02
1.740000e-06	2.832315e-06	4.955909e-09	1.962170e+01	3.275547e+02
1.750000e-06	2.822980e-06	4.951547e-09	1.955703e+01	3.270400e+02
1.760000e-06	2.812059e-06	4.976027e-09	1.948137e+01	3.264671e+02
1.770000e-06	2.800362e-06	4.975567e-09	1.940033e+01	3.258415e+02
1.780000e-06	2.788565e-06	4.945087e-09	1.931861e+01	3.251684e+02
1.790000e-06	2.775821e-06	4.879799e-09	1.923031e+01	3.244524e+02
1.800000e-06	2.761272e-06	4.946673e-09	1.912953e+01	3.236975e+02
1.810000e-06	2.745720e-06	4.915574e-09	1.902179e+01	3.229059e+02
1.820000e-06	2.729719e-06	4.851477e-09	1.891093e+01	3.220786e+02
1.830000e-06	2.712464e-06	4.918566e-09	1.879140e+01	3.212151e+02
1.840000e-06	2.693869e-06	4.928503e-09	1.866257e+01	3.203136e+02
1.850000e-06	2.674695e-06	4.846528e-09	1.852974e+01	3.193711e+02
1.860000e-06	2.654799e-06	4.824448e-09	1.839190e+01	3.183841e+02
1.870000e-06	2.633546e-06	4.888289e-09	1.824467e+01	3.173486e+02
1.880000e-06	2.611210e-06	4.816410e-09	1.808993e+01	3.162610e+02
1.890000e-06	2.588003e-06	4.749576e-09	1.792916e+01	3.151179e+02
1.900000e-06	2.563744e-06	4.829209e-09	1.776109e+01	3.139168e+02
1.910000e-06	2.538771e-06	4.801572e-09	1.758808e+01	3.126559e+02
1.920000e-06	2.513025e-06	4.720073e-09	1.740972e+01	3.113342e+02
1.930000e-06	2.486330e-06	4.748869e-09	1.722478e+01	3.099516e+02
1.940000e-06	2.459024e-06	4.724401e-09	1.703561e+01	3.085085e+02
1.950000e-06	2.430862e-06	4.691852e-09	1.684051e+01	3.070055e+02
1.960000e-06	2.401371e-06	4.646852e-09	1.663620e+01	3.054436e+02
1.970000e-06	2.370857e-06	4.629820e-09	1.642481e+01	3.038234e+02
1.980000e-06	2.339631e-06	4.647393e-09	1.620848e+01	3.021454e+02
1.990000e-06	2.307713e-06	4.591847e-09	1.598736e+01	3.004100e+02
2.000000e-06	2.275044e-06	4.551919e-09	1.576104e+01	2.986172e+02
2.010000e-06	2.241497e-06	4.575477e-09	1.552863e+01	2.967667e+02
2.020000e-06	2.207196e-06	4.503632e-09	1.529100e+01	2.948583e+02
2.030000e-06	2.172322e-06	4.444790e-09	1.504940e+01	2.928920e+02
2.040000e-06	2.136812e-06	4.463948e-09	1.480339e+01	2.908679e+02
2.050000e-06	2.100635e-06	4.391751e-09	1.455277e+01	2.887865e+02
2.060000e-06	2.063530e-06	4.364550e-09	1.429571e+01	2.866489e+02
2.070000e-06	2.025214e-06	4.380438e-09	1.403026e+01	2.844563e+02
2.080000e-06	1.986096e-06	4.309461e-09	1.375926e+01	2.822103e+02
2.090000e-06	1.946505e-06	4.276016e-09	1.348499e+01	2.799125e+02
2.100000e-06	1.906283e-06	4.258116e-09	1.320633e+01	2.775642e+02
2.110000e-06	1.865395e-06	4.193858e-09	1.292307e+01	2.751665e+02
2.120000e-06	1.823907e-06	4.165303e-09	1.263566e+01	2.727196e+02
2.130000e-06	1.781852e-06	4.128926e-09	1.234430e+01	2.702230e+02
2.140000e-06	1.739220e-06	4.092293e-09	1.204896e+01	2.676754e+02
2.150000e-06	1.696068e-06	4.068542e-09	1.175001e+01	2.650745e+02
2.160000e-06	1.652485e-06	3.997318e-09	1.144808e+01	2.624173e+02
2.170000e-06	1.608308e-06	3.957953e-09	1.114203e+01	2.597004e+02
2.180000e-06	1.563437e-06	3.928730e-09	1.083117e+01	2.569200e+02
2.190000e-06	1.517998e-06	3.879739e-09	1.051638e+01	2.540728e+02
2.200000e-06	1.472115e-06	3.844772e-09	1.019851e+01	2.511555e+02
2.210000e-06	1.425831e-06	3.795407e-09	9.877865e+00	2.481658e+02
2.220000e-06	1.379157e-06	3.747057e-09	9.554519e+00	2.451024e+02
2.230000e-06	1.332044e-06	3.696861e-09	9.228130e+00	2.419646e+02
2.240000e-06	1.284220e-06	3.641875e-09	8.896810e+00	2.387531e+02
2.250000e-06	1.235673e-06	3.594409e-09	8.560486e+00	2.354691e+02
2.260000e-06	1.186705e-06	3.551184e-09	8.221248e+00	2.321145e+02
2.270000e-06	1.137388e-06	3.509304e-09	7.879587e+00	2.286913e+02
2.280000e-06	1.087639e-06	3.457933e-09	7.534942e+00	2.252014e+02
2.290000e-06	1.037385e-06	3.393121e-09	7.186791e+00	2.216464e+02
2.300000e-06	9.866816e-07	3.337386e-09	6.835527e+00	2.180271e+02
2.310000e-06	9.356690e-07	3.277580e-09	6.482123e+00	2.143433e+02
2.320000e-06	8.843991e-07	3.213823e-09	6.126935e+00	2.105939e+02
2.330000e-06	8.328629e-07	3.160077e-09	5.769903e+00	2.067770e+02
2.340000e-06	7.810221e-07	3.103281e-09	5.410761e+00	2.028898e+02
2.350000e-06	7.288040e-07	3.050595e-09	5.049004e+00	1.989289e+02
2.360000e-06	6.761467e-07	2.987069e-09	4.684205e+00	1.948905e+02
2.370000e-06	6.230195e-07	2.921166e-09	4.316151e+00	1.907708e+02
2.380000e-06	5.694412e-07	2.861882e-09	3.944972e+00	1.865659e+02
2.390000e-06	5.155425e-07	2.798581e-09	3.571572e+00	1.822725e+02
2.400000e-06	4.613987e-07	2.733635e-09	3.196475e+00	1.778870e+02
2.410000e-06	4.070208e-07	2.664215e-09	2.819756e+00	1.734063e+02
2.420000e-06	3.524124e-07	2.594753e-09	2.441441e+00	1.688274e+02
2.430000e-06	2.976268e-07	2.526117e-09	2.061898e+00	1.641469e+02
2.440000e-06	2.427240e-07	2.453013e-09	1.681542e+00	1.593612e+02
2.450000e-06	1.877404e-07	2.378019e-09	1.300627e+00	1.544660e+02
2.460000e-06	1.327190e-07	2.303602e-09	9.194499e-01	1.494562e+02
2.470000e-06	7.767288e-08	2.227018e-09	5.381018e-01	1.443260e+02
2.480000e-06	2.261536e-08	2.148707e-09	1.566745e-01	1.390688e+02
2.490000e-06	-3.246143e-08	2.064716e-09	-2.248861e-01	1.336772e+02
2.500000e-06	-8.752211e-08	1.978877e-09	-6.063352e-01	1.281435e+02
2.510000e-06	-1.425205e-07	1.895149e-09	-9.873529e-01	1.224598e+02
2.520000e-06	-1.974570e-07	1.809070e-09	-1.367941e+00	1.166181e+02
2.530000e-06	-2.523614e-07	1.719227e-09	-1.748308e+00	1.106105e+02
2.540000e-06	-3.072224e-07	1.621269e-09	-2.128374e+00	1.044294e+02
2.550000e-06	-3.619734e-07	1.523504e-09	-2.507677e+00	9.806745e+01
2.560000e-06	-4.165883e-07	1.426771e-09	-2.886038e+00	9.151681e+01
2.570000e-06	-4.709894e-07	1.325577e-09	-3.262917e+00	8.476915e+01
2.580000e-06	-5.250894e-07	1.219183e-09	-3.637711e+00	7.781494e+01
2.590000e-06	-5.788989e-07	1.111264e-09	-4.010493e+00	7.064283e+01
2.600000e-06	-6.323011e-07	1.003602e-09	-4.380452e+00	6.323911e+01
2.610000e-06	-6.852020e-07	8.885951e-10	-4.746939e+00	5.558734e+01
2.620000e-06	-7.376858e-07	7.634483e-10	-5.110535e+00	4.766820e+01
2.630000e-06	-7.897570e-07	6.316031e-10	-5.471274e+00	3.945976e+01
2.640000e-06	-8.414659e-07	5.015589e-10	-5.829503e+00	3.093814e+01
2.650000e-06	-8.929036e-07	3.703447e-10	-6.185852e+00	2.207874e+01
2.660000e-06	-9.440855e-07	2.327120e-10	-6.540430e+00	1.285781e+01
2.670000e-06	-9.949497e-07	8.794270e-11	-6.892807e+00	3.254517e+00
2.680000e-06	-1.045457e-06	-6.217504e-11	-7.242710e+00	-6.746747e+00
2.690000e-06	-1.095468e-06	-2.177748e-10	-7.589180e+00	-1.715395e+01
2.700000e-06	-1.144994e-06	-3.815490e-10	-7.932285e+00	-2.796510e+01
2.710000e-06	-1.194150e-06	-5.521083e-10	-8.272824e+00	-3.916619e+01
2.720000e-06	-1.242815e-06	-7.278704e-10	-8.609968e+00	-5.072967e+01
2.730000e-06	-1.290822e-06	-9.071230e-10	-8.942548e+00	-6.261368e+01
2.740000e-06	-1.338074e-06	-1.091727e-09	-9.269900e+00	-7.476199e+01
2.750000e-06	-1.384673e-06	-1.282654e-09	-9.592727e+00	-8.710496e+01
2.760000e-06	-1.430709e-06	-1.479418e-09	-9.911660e+00	-9.956138e+01
2.770000e-06	-1.476339e-06	-1.675395e-09	-1.022777e+01	-1.120411e+02
2.780000e-06	-1.521693e-06	-1.863692e-09	-1.054198e+01	-1.244486e+02
2.790000e-06	-1.566665e-06	-2.045184e-09	-1.085354e+01	-1.366865e+02
2.800000e-06	-1.611073e-06	-2.223799e-09	-1.116118e+01	-1.486600e+02
2.810000e-06	-1.654897e-06	-2.402529e-09	-1.146479e+01	-1.602806e+02
2.820000e-06	-1.698315e-06	-2.576488e-09	-1.176558e+01	-1.714699e+02
2.830000e-06	-1.741356e-06	-2.742427e-09	-1.206376e+01	-1.821626e+02
2.840000e-06	-1.783859e-06	-2.900488e-09	-1.235821e+01	-1.923088e+02
2.850000e-06	-1.825768e-06	-3.051369e-09	-1.264854e+01	-2.018751e+02
2.860000e-06	-1.867088e-06	-3.190810e-09	-1.293481e+01	-2.108449e+02
2.870000e-06	-1.907741e-06	-3.315306e-09	-1.321644e+01	-2.192175e+02
2.880000e-06	-1.947720e-06	-3.429981e-09	-1.349340e+01	-2.270065e+02
2.890000e-06	-1.987155e-06	-3.542303e-09	-1.376660e+01	-2.342376e+02
2.900000e-06	-2.026046e-06	-3.650182e-09	-1.403603e+01	-2.409452e+02
2.910000e-06	-2.064120e-06	-3.750127e-09	-1.429980e+01	-2.471695e+02
2.920000e-06	-2.101150e-06	-3.841454e-09	-1.455633e+01	-2.529535e+02
2.930000e-06	-2.137212e-06	-3.923814e-09	-1.480617e+01	-2.583398e+02
2.940000e-06	-2.172579e-06	-4.003737e-09	-1.505118e+01	-2.633685e+02
