# Temperatura_=_16.85
# Concentracion g/m^3_=_15500.0
# C_Vs_to_Am_M_A/Vsm_=_65563218390.804596
# pendiente_HvsI_1/m_=_3716.3
# ordenada_HvsI_A/m_=_1297.0
# frecuencia_Hz_=_300849.3038850618

Tiempo_(s)	Campo_(V.s)	Magnetizacion_(V.s)	Campo_(kA/m)	Magnetizacion_(A/m)
0.000000e+00	-2.858528e-06	-5.491515e-09	-1.980497e+01	-3.581959e+02
1.000000e-08	-2.858104e-06	-5.490233e-09	-1.980204e+01	-3.582541e+02
2.000000e-08	-2.856920e-06	-5.483790e-09	-1.979383e+01	-3.582391e+02
3.000000e-08	-2.854643e-06	-5.479295e-09	-1.977806e+01	-3.581501e+02
4.000000e-08	-2.851106e-06	-5.481125e-09	-1.975355e+01	-3.579871e+02
5.000000e-08	-2.846621e-06	-5.483836e-09	-1.972248e+01	-3.577511e+02
6.000000e-08	-2.841353e-06	-5.480019e-09	-1.968598e+01	-3.574444e+02
7.000000e-08	-2.835215e-06	-5.471020e-09	-1.964345e+01	-3.570708e+02
8.000000e-08	-2.828117e-06	-5.470643e-09	-1.959427e+01	-3.566348e+02
9.000000e-08	-2.819924e-06	-5.479755e-09	-1.953751e+01	-3.561416e+02
1.000000e-07	-2.810415e-06	-5.462877e-09	-1.947163e+01	-3.555964e+02
1.100000e-07	-2.799493e-06	-5.417579e-09	-1.939596e+01	-3.550042e+02
1.200000e-07	-2.787548e-06	-5.404383e-09	-1.931320e+01	-3.543688e+02
1.300000e-07	-2.774879e-06	-5.433216e-09	-1.922542e+01	-3.536927e+02
1.400000e-07	-2.761206e-06	-5.428285e-09	-1.913069e+01	-3.529764e+02
1.500000e-07	-2.746490e-06	-5.359612e-09	-1.902873e+01	-3.522187e+02
1.600000e-07	-2.730843e-06	-5.384159e-09	-1.892032e+01	-3.514164e+02
1.700000e-07	-2.713841e-06	-5.400052e-09	-1.880253e+01	-3.505647e+02
1.800000e-07	-2.695578e-06	-5.330130e-09	-1.867600e+01	-3.496574e+02
1.900000e-07	-2.676677e-06	-5.317209e-09	-1.854504e+01	-3.486877e+02
2.000000e-07	-2.657047e-06	-5.333723e-09	-1.840903e+01	-3.476485e+02
2.100000e-07	-2.636460e-06	-5.287502e-09	-1.826640e+01	-3.465334e+02
2.200000e-07	-2.615096e-06	-5.246230e-09	-1.811838e+01	-3.453369e+02
2.300000e-07	-2.592924e-06	-5.290993e-09	-1.796477e+01	-3.440549e+02
2.400000e-07	-2.569785e-06	-5.273458e-09	-1.780445e+01	-3.426850e+02
2.500000e-07	-2.545755e-06	-5.199483e-09	-1.763796e+01	-3.412267e+02
2.600000e-07	-2.520965e-06	-5.184060e-09	-1.746620e+01	-3.396810e+02
2.700000e-07	-2.495275e-06	-5.184780e-09	-1.728822e+01	-3.380502e+02
2.800000e-07	-2.468457e-06	-5.137285e-09	-1.710241e+01	-3.363379e+02
2.900000e-07	-2.440567e-06	-5.100835e-09	-1.690918e+01	-3.345481e+02
3.000000e-07	-2.411744e-06	-5.075949e-09	-1.670948e+01	-3.326848e+02
3.100000e-07	-2.382135e-06	-5.073124e-09	-1.650434e+01	-3.307517e+02
3.200000e-07	-2.351868e-06	-5.036681e-09	-1.629464e+01	-3.287522e+02
3.300000e-07	-2.320867e-06	-4.984239e-09	-1.607986e+01	-3.266885e+02
3.400000e-07	-2.289022e-06	-4.976791e-09	-1.585922e+01	-3.245621e+02
3.500000e-07	-2.256519e-06	-4.927944e-09	-1.563403e+01	-3.223740e+02
3.600000e-07	-2.223436e-06	-4.877800e-09	-1.540482e+01	-3.201244e+02
3.700000e-07	-2.189461e-06	-4.879219e-09	-1.516942e+01	-3.178133e+02
3.800000e-07	-2.154298e-06	-4.839386e-09	-1.492580e+01	-3.154407e+02
3.900000e-07	-2.118152e-06	-4.762062e-09	-1.467536e+01	-3.130069e+02
4.000000e-07	-2.081425e-06	-4.765875e-09	-1.442091e+01	-3.105127e+02
4.100000e-07	-2.044069e-06	-4.740807e-09	-1.416209e+01	-3.079593e+02
4.200000e-07	-2.005974e-06	-4.661414e-09	-1.389815e+01	-3.053485e+02
4.300000e-07	-1.967159e-06	-4.624294e-09	-1.362923e+01	-3.026822e+02
4.400000e-07	-1.927583e-06	-4.597203e-09	-1.335503e+01	-2.999626e+02
4.500000e-07	-1.887366e-06	-4.548287e-09	-1.307639e+01	-2.971914e+02
4.600000e-07	-1.846751e-06	-4.504021e-09	-1.279499e+01	-2.943699e+02
4.700000e-07	-1.805746e-06	-4.461846e-09	-1.251090e+01	-2.914982e+02
4.800000e-07	-1.763932e-06	-4.415838e-09	-1.222119e+01	-2.885756e+02
4.900000e-07	-1.720992e-06	-4.376095e-09	-1.192369e+01	-2.856000e+02
5.000000e-07	-1.677146e-06	-4.319721e-09	-1.161991e+01	-2.825683e+02
5.100000e-07	-1.632749e-06	-4.270391e-09	-1.131231e+01	-2.794764e+02
5.200000e-07	-1.587945e-06	-4.222247e-09	-1.100189e+01	-2.763195e+02
5.300000e-07	-1.542662e-06	-4.173544e-09	-1.068815e+01	-2.730927e+02
5.400000e-07	-1.496844e-06	-4.132355e-09	-1.037071e+01	-2.697912e+02
5.500000e-07	-1.450472e-06	-4.081812e-09	-1.004942e+01	-2.664109e+02
5.600000e-07	-1.403506e-06	-4.012764e-09	-9.724025e+00	-2.629488e+02
5.700000e-07	-1.356041e-06	-3.953770e-09	-9.395168e+00	-2.594032e+02
5.800000e-07	-1.308136e-06	-3.911793e-09	-9.063263e+00	-2.557735e+02
5.900000e-07	-1.259846e-06	-3.851453e-09	-8.728692e+00	-2.520608e+02
6.000000e-07	-1.211224e-06	-3.790979e-09	-8.391820e+00	-2.482670e+02
6.100000e-07	-1.162163e-06	-3.738469e-09	-8.051912e+00	-2.443950e+02
6.200000e-07	-1.112508e-06	-3.680699e-09	-7.707881e+00	-2.404478e+02
6.300000e-07	-1.062243e-06	-3.614147e-09	-7.359624e+00	-2.364286e+02
6.400000e-07	-1.011399e-06	-3.546823e-09	-7.007360e+00	-2.323398e+02
6.500000e-07	-9.599857e-07	-3.480950e-09	-6.651147e+00	-2.281830e+02
6.600000e-07	-9.080988e-07	-3.417804e-09	-6.291655e+00	-2.239585e+02
6.700000e-07	-8.558448e-07	-3.356532e-09	-5.929620e+00	-2.196655e+02
6.800000e-07	-8.033566e-07	-3.288992e-09	-5.565961e+00	-2.153017e+02
6.900000e-07	-7.506597e-07	-3.219786e-09	-5.200857e+00	-2.108640e+02
7.000000e-07	-6.976755e-07	-3.147333e-09	-4.833762e+00	-2.063483e+02
7.100000e-07	-6.444442e-07	-3.075078e-09	-4.464955e+00	-2.017500e+02
7.200000e-07	-5.910256e-07	-3.003845e-09	-4.094851e+00	-1.970647e+02
7.300000e-07	-5.373576e-07	-2.931805e-09	-3.723019e+00	-1.922878e+02
7.400000e-07	-4.834508e-07	-2.857098e-09	-3.349532e+00	-1.874154e+02
7.500000e-07	-4.293516e-07	-2.778222e-09	-2.974712e+00	-1.824438e+02
7.600000e-07	-3.750663e-07	-2.696877e-09	-2.598602e+00	-1.773700e+02
7.700000e-07	-3.206766e-07	-2.613216e-09	-2.221770e+00	-1.721912e+02
7.800000e-07	-2.662559e-07	-2.531336e-09	-1.844723e+00	-1.669046e+02
7.900000e-07	-2.117905e-07	-2.450635e-09	-1.467365e+00	-1.615073e+02
8.000000e-07	-1.572319e-07	-2.369510e-09	-1.089363e+00	-1.559955e+02
8.100000e-07	-1.026140e-07	-2.282087e-09	-7.109487e-01	-1.503650e+02
8.200000e-07	-4.797305e-08	-2.191679e-09	-3.323756e-01	-1.446102e+02
8.300000e-07	6.675313e-09	-2.101013e-09	4.624912e-02	-1.387248e+02
8.400000e-07	6.127807e-08	-2.006869e-09	4.245579e-01	-1.327011e+02
8.500000e-07	1.158457e-07	-1.909905e-09	8.026230e-01	-1.265309e+02
8.600000e-07	1.704146e-07	-1.812451e-09	1.180697e+00	-1.202055e+02
8.700000e-07	2.249527e-07	-1.716269e-09	1.558558e+00	-1.137160e+02
8.800000e-07	2.793976e-07	-1.618767e-09	1.935773e+00	-1.070536e+02
8.900000e-07	3.337577e-07	-1.517781e-09	2.312401e+00	-1.002101e+02
9.000000e-07	3.880311e-07	-1.407176e-09	2.688427e+00	-9.317755e+01
9.100000e-07	4.421790e-07	-1.291918e-09	3.063585e+00	-8.594875e+01
9.200000e-07	4.962084e-07	-1.177383e-09	3.437921e+00	-7.851656e+01
9.300000e-07	5.500635e-07	-1.061373e-09	3.811050e+00	-7.087370e+01
9.400000e-07	6.036430e-07	-9.420928e-10	4.182269e+00	-6.301222e+01
9.500000e-07	6.569291e-07	-8.193823e-10	4.551456e+00	-5.492299e+01
9.600000e-07	7.099467e-07	-6.938061e-10	4.918782e+00	-4.659516e+01
9.700000e-07	7.627296e-07	-5.639505e-10	5.284482e+00	-3.801594e+01
9.800000e-07	8.152799e-07	-4.281725e-10	5.648571e+00	-2.917051e+01
9.900000e-07	8.675755e-07	-2.846337e-10	6.010894e+00	-2.004241e+01
1.000000e-06	9.195915e-07	-1.378611e-10	6.371281e+00	-1.061424e+01
1.010000e-06	9.711600e-07	1.237517e-11	6.728567e+00	-8.688524e-01
1.020000e-06	1.022061e-06	1.673700e-10	7.081230e+00	9.209082e+00
1.030000e-06	1.072309e-06	3.271277e-10	7.429366e+00	1.963122e+01
1.040000e-06	1.121967e-06	4.921480e-10	7.773419e+00	3.040351e+01
1.050000e-06	1.171061e-06	6.617242e-10	8.113558e+00	4.152414e+01
1.060000e-06	1.219799e-06	8.366639e-10	8.451232e+00	5.298169e+01
1.070000e-06	1.268307e-06	1.015660e-09	8.787313e+00	6.475363e+01
1.080000e-06	1.316454e-06	1.197981e-09	9.120897e+00	7.680536e+01
1.090000e-06	1.364141e-06	1.383517e-09	9.451293e+00	8.908999e+01
1.100000e-06	1.411322e-06	1.574003e-09	9.778176e+00	1.015488e+02
1.110000e-06	1.458002e-06	1.767981e-09	1.010159e+01	1.141127e+02
1.120000e-06	1.504168e-06	1.961325e-09	1.042145e+01	1.267040e+02
1.130000e-06	1.549792e-06	2.150476e-09	1.073755e+01	1.392394e+02
1.140000e-06	1.594942e-06	2.337247e-09	1.105037e+01	1.516332e+02
1.150000e-06	1.639681e-06	2.524101e-09	1.136034e+01	1.638006e+02
1.160000e-06	1.684026e-06	2.706520e-09	1.166758e+01	1.756611e+02
1.170000e-06	1.727834e-06	2.880383e-09	1.197110e+01	1.871420e+02
1.180000e-06	1.770820e-06	3.044648e-09	1.226892e+01	1.981812e+02
1.190000e-06	1.812823e-06	3.203740e-09	1.255993e+01	2.087288e+02
1.200000e-06	1.854002e-06	3.357488e-09	1.284523e+01	2.187492e+02
1.210000e-06	1.894617e-06	3.502077e-09	1.312663e+01	2.282207e+02
1.220000e-06	1.934710e-06	3.636992e-09	1.340441e+01	2.371360e+02
1.230000e-06	1.974174e-06	3.764143e-09	1.367783e+01	2.455003e+02
1.240000e-06	2.012967e-06	3.884265e-09	1.394661e+01	2.533297e+02
1.250000e-06	2.051014e-06	3.994642e-09	1.421021e+01	2.606490e+02
1.260000e-06	2.088361e-06	4.095055e-09	1.446896e+01	2.674890e+02
1.270000e-06	2.125185e-06	4.189174e-09	1.472409e+01	2.738839e+02
1.280000e-06	2.161489e-06	4.280401e-09	1.497562e+01	2.798689e+02
1.290000e-06	2.197003e-06	4.365970e-09	1.522168e+01	2.854783e+02
1.300000e-06	2.231359e-06	4.444264e-09	1.545971e+01	2.907434e+02
1.310000e-06	2.264656e-06	4.517302e-09	1.569040e+01	2.956920e+02
1.320000e-06	2.297241e-06	4.588545e-09	1.591616e+01	3.003475e+02
1.330000e-06	2.329165e-06	4.656967e-09	1.613735e+01	3.047291e+02
1.340000e-06	2.360348e-06	4.719488e-09	1.635340e+01	3.088523e+02
1.350000e-06	2.390714e-06	4.776225e-09	1.656378e+01	3.127294e+02
1.360000e-06	2.420237e-06	4.828622e-09	1.676833e+01	3.163707e+02
1.370000e-06	2.449062e-06	4.876792e-09	1.696803e+01	3.197853e+02
1.380000e-06	2.477207e-06	4.920774e-09	1.716304e+01	3.229821e+02
1.390000e-06	2.504350e-06	4.963898e-09	1.735109e+01	3.259704e+02
1.400000e-06	2.530283e-06	5.006870e-09	1.753076e+01	3.287601e+02
1.410000e-06	2.555164e-06	5.047566e-09	1.770315e+01	3.313623e+02
1.420000e-06	2.579127e-06	5.084260e-09	1.786918e+01	3.337888e+02
1.430000e-06	2.602219e-06	5.116979e-09	1.802916e+01	3.360520e+02
1.440000e-06	2.624459e-06	5.146808e-09	1.818325e+01	3.381641e+02
1.450000e-06	2.645885e-06	5.173523e-09	1.833170e+01	3.401373e+02
1.460000e-06	2.666645e-06	5.197077e-09	1.847554e+01	3.419824e+02
1.470000e-06	2.686643e-06	5.219726e-09	1.861409e+01	3.437091e+02
1.480000e-06	2.705649e-06	5.244838e-09	1.874577e+01	3.453253e+02
1.490000e-06	2.723676e-06	5.271869e-09	1.887067e+01	3.468374e+02
1.500000e-06	2.740731e-06	5.295246e-09	1.898883e+01	3.482503e+02
1.510000e-06	2.756639e-06	5.313268e-09	1.909905e+01	3.495672e+02
1.520000e-06	2.771441e-06	5.330152e-09	1.920160e+01	3.507909e+02
1.530000e-06	2.785288e-06	5.346895e-09	1.929754e+01	3.519233e+02
1.540000e-06	2.798141e-06	5.361104e-09	1.938659e+01	3.529661e+02
1.550000e-06	2.809889e-06	5.371404e-09	1.946798e+01	3.539213e+02
1.560000e-06	2.820297e-06	5.381238e-09	1.954009e+01	3.547912e+02
1.570000e-06	2.829459e-06	5.394859e-09	1.960357e+01	3.555785e+02
1.580000e-06	2.837732e-06	5.410533e-09	1.966089e+01	3.562862e+02
1.590000e-06	2.845148e-06	5.424038e-09	1.971227e+01	3.569175e+02
1.600000e-06	2.851559e-06	5.432924e-09	1.975669e+01	3.574754e+02
1.610000e-06	2.857000e-06	5.438803e-09	1.979439e+01	3.579625e+02
1.620000e-06	2.861662e-06	5.444213e-09	1.982669e+01	3.583807e+02
1.630000e-06	2.865348e-06	5.449553e-09	1.985223e+01	3.587312e+02
1.640000e-06	2.867693e-06	5.452701e-09	1.986847e+01	3.590142e+02
1.650000e-06	2.868857e-06	5.453858e-09	1.987654e+01	3.592289e+02
1.660000e-06	2.869140e-06	5.455642e-09	1.987850e+01	3.593740e+02
1.670000e-06	2.868523e-06	5.458360e-09	1.987422e+01	3.594480e+02
1.680000e-06	2.867003e-06	5.459224e-09	1.986369e+01	3.594492e+02
1.690000e-06	2.864610e-06	5.459730e-09	1.984711e+01	3.593765e+02
1.700000e-06	2.861444e-06	5.460608e-09	1.982518e+01	3.592297e+02
1.710000e-06	2.857515e-06	5.460155e-09	1.979795e+01	3.590095e+02
1.720000e-06	2.852455e-06	5.457492e-09	1.976290e+01	3.587181e+02
1.730000e-06	2.846165e-06	5.451682e-09	1.971932e+01	3.583589e+02
1.740000e-06	2.839009e-06	5.431266e-09	1.966974e+01	3.579362e+02
1.750000e-06	2.830917e-06	5.407250e-09	1.961367e+01	3.574552e+02
1.760000e-06	2.821295e-06	5.417583e-09	1.954701e+01	3.569211e+02
1.770000e-06	2.810170e-06	5.448449e-09	1.946993e+01	3.563390e+02
1.780000e-06	2.798404e-06	5.408291e-09	1.938841e+01	3.557129e+02
1.790000e-06	2.786521e-06	5.375298e-09	1.930608e+01	3.550458e+02
1.800000e-06	2.773553e-06	5.385462e-09	1.921624e+01	3.543385e+02
1.810000e-06	2.758801e-06	5.390037e-09	1.911402e+01	3.535903e+02
1.820000e-06	2.743158e-06	5.331343e-09	1.900565e+01	3.527983e+02
1.830000e-06	2.727002e-06	5.328307e-09	1.889371e+01	3.519580e+02
1.840000e-06	2.709582e-06	5.400254e-09	1.877302e+01	3.510636e+02
1.850000e-06	2.690934e-06	5.337542e-09	1.864382e+01	3.501082e+02
1.860000e-06	2.671727e-06	5.278748e-09	1.851075e+01	3.490848e+02
1.870000e-06	2.651602e-06	5.336370e-09	1.837131e+01	3.479869e+02
1.880000e-06	2.630193e-06	5.301251e-09	1.822298e+01	3.468086e+02
1.890000e-06	2.607816e-06	5.218542e-09	1.806795e+01	3.455456e+02
1.900000e-06	2.584431e-06	5.251460e-09	1.790593e+01	3.441950e+02
1.910000e-06	2.560052e-06	5.256766e-09	1.773702e+01	3.427560e+02
1.920000e-06	2.535019e-06	5.202249e-09	1.756358e+01	3.412292e+02
1.930000e-06	2.509198e-06	5.176957e-09	1.738468e+01	3.396168e+02
1.940000e-06	2.482512e-06	5.169112e-09	1.719979e+01	3.379220e+02
1.950000e-06	2.455230e-06	5.131567e-09	1.701077e+01	3.361488e+02
1.960000e-06	2.426949e-06	5.100759e-09	1.681483e+01	3.343013e+02
1.970000e-06	2.397341e-06	5.051564e-09	1.660969e+01	3.323833e+02
1.980000e-06	2.366746e-06	5.042067e-09	1.639772e+01	3.303981e+02
1.990000e-06	2.335432e-06	5.036527e-09	1.618077e+01	3.283484e+02
2.000000e-06	2.303466e-06	4.962520e-09	1.595929e+01	3.262357e+02
2.010000e-06	2.270736e-06	4.952453e-09	1.573253e+01	3.240612e+02
2.020000e-06	2.237126e-06	4.934606e-09	1.549966e+01	3.218251e+02
2.030000e-06	2.202785e-06	4.840794e-09	1.526174e+01	3.195276e+02
2.040000e-06	2.167887e-06	4.837239e-09	1.501995e+01	3.171685e+02
2.050000e-06	2.132318e-06	4.829334e-09	1.477351e+01	3.147482e+02
2.060000e-06	2.095946e-06	4.728994e-09	1.452151e+01	3.122672e+02
2.070000e-06	2.058539e-06	4.711592e-09	1.426234e+01	3.097267e+02
2.080000e-06	2.020053e-06	4.702743e-09	1.399570e+01	3.071284e+02
2.090000e-06	1.980924e-06	4.635837e-09	1.372460e+01	3.044743e+02
2.100000e-06	1.941270e-06	4.600704e-09	1.344986e+01	3.017663e+02
2.110000e-06	1.900942e-06	4.559785e-09	1.317045e+01	2.990064e+02
2.120000e-06	1.859978e-06	4.513449e-09	1.288664e+01	2.961960e+02
2.130000e-06	1.818462e-06	4.472505e-09	1.259900e+01	2.933355e+02
2.140000e-06	1.776377e-06	4.416273e-09	1.230742e+01	2.904243e+02
2.150000e-06	1.733684e-06	4.382886e-09	1.201163e+01	2.874607e+02
2.160000e-06	1.690538e-06	4.343386e-09	1.171269e+01	2.844417e+02
2.170000e-06	1.646965e-06	4.284075e-09	1.141080e+01	2.813634e+02
2.180000e-06	1.602829e-06	4.243955e-09	1.110501e+01	2.782212e+02
2.190000e-06	1.558085e-06	4.193911e-09	1.079501e+01	2.750102e+02
2.200000e-06	1.512746e-06	4.132936e-09	1.048088e+01	2.717254e+02
2.210000e-06	1.466868e-06	4.092630e-09	1.016302e+01	2.683627e+02
2.220000e-06	1.420587e-06	4.049037e-09	9.842369e+00	2.649187e+02
2.230000e-06	1.373768e-06	3.988566e-09	9.517988e+00	2.613915e+02
2.240000e-06	1.326315e-06	3.922902e-09	9.189216e+00	2.577801e+02
2.250000e-06	1.278307e-06	3.872517e-09	8.856596e+00	2.540854e+02
2.260000e-06	1.229736e-06	3.817943e-09	8.520079e+00	2.503092e+02
2.270000e-06	1.180716e-06	3.751649e-09	8.180448e+00	2.464540e+02
2.280000e-06	1.131345e-06	3.699571e-09	7.838387e+00	2.425231e+02
2.290000e-06	1.081570e-06	3.647167e-09	7.493532e+00	2.385195e+02
2.300000e-06	1.031258e-06	3.589308e-09	7.144951e+00	2.344458e+02
2.310000e-06	9.805014e-07	3.520217e-09	6.793288e+00	2.303039e+02
2.320000e-06	9.294639e-07	3.442508e-09	6.439681e+00	2.260943e+02
2.330000e-06	8.781854e-07	3.374360e-09	6.084404e+00	2.218165e+02
2.340000e-06	8.266323e-07	3.312071e-09	5.727224e+00	2.174685e+02
2.350000e-06	7.746739e-07	3.250599e-09	5.367236e+00	2.130473e+02
2.360000e-06	7.222429e-07	3.188171e-09	5.003974e+00	2.085490e+02
2.370000e-06	6.693645e-07	3.119084e-09	4.637613e+00	2.039693e+02
2.380000e-06	6.160708e-07	3.050802e-09	4.268374e+00	1.993034e+02
2.390000e-06	5.623755e-07	2.981464e-09	3.896353e+00	1.945468e+02
2.400000e-06	5.082969e-07	2.904457e-09	3.521675e+00	1.896956e+02
2.410000e-06	4.539424e-07	2.827802e-09	3.145086e+00	1.847459e+02
2.420000e-06	3.994746e-07	2.754183e-09	2.767713e+00	1.796946e+02
2.430000e-06	3.448547e-07	2.683782e-09	2.389285e+00	1.745389e+02
2.440000e-06	2.900622e-07	2.605497e-09	2.009662e+00	1.692760e+02
2.450000e-06	2.351798e-07	2.520483e-09	1.629416e+00	1.639030e+02
2.460000e-06	1.802397e-07	2.438542e-09	1.248770e+00	1.584165e+02
2.470000e-06	1.253013e-07	2.354783e-09	8.681350e-01	1.528123e+02
2.480000e-06	7.034149e-08	2.265287e-09	4.873527e-01	1.470850e+02
2.490000e-06	1.533498e-08	2.172739e-09	1.062466e-01	1.412285e+02
2.500000e-06	-3.969634e-08	2.084615e-09	-2.750314e-01	1.352355e+02
2.510000e-06	-9.471418e-08	1.998513e-09	-6.562160e-01	1.290978e+02
2.520000e-06	-1.496901e-07	1.904594e-09	-1.037110e+00	1.228068e+02
2.530000e-06	-2.046227e-07	1.801928e-09	-1.417704e+00	1.163536e+02
2.540000e-06	-2.594697e-07	1.698334e-09	-1.797705e+00	1.097293e+02
2.550000e-06	-3.142431e-07	1.595449e-09	-2.177196e+00	1.029257e+02
2.560000e-06	-3.689242e-07	1.491863e-09	-2.556048e+00	9.593466e+01
2.570000e-06	-4.234524e-07	1.382511e-09	-2.933840e+00	8.874890e+01
2.580000e-06	-4.778060e-07	1.268541e-09	-3.310423e+00	8.136127e+01
2.590000e-06	-5.319065e-07	1.154806e-09	-3.685252e+00	7.376457e+01
2.600000e-06	-5.856726e-07	1.038108e-09	-4.057764e+00	6.595104e+01
2.610000e-06	-6.390725e-07	9.162590e-10	-4.427738e+00	5.791183e+01
2.620000e-06	-6.920758e-07	7.870479e-10	-4.794965e+00	4.963652e+01
2.630000e-06	-7.446477e-07	6.541323e-10	-5.159204e+00	4.111272e+01
2.640000e-06	-7.967522e-07	5.216872e-10	-5.520203e+00	3.232606e+01
2.650000e-06	-8.484294e-07	3.873346e-10	-5.878243e+00	2.326036e+01
2.660000e-06	-8.997863e-07	2.460071e-10	-6.234063e+00	1.389833e+01
2.670000e-06	-9.508692e-07	9.720020e-11	-6.587985e+00	4.222678e+00
2.680000e-06	-1.001651e-06	-5.580313e-11	-6.939820e+00	-5.782482e+00
2.690000e-06	-1.052089e-06	-2.127681e-10	-7.289277e+00	-1.612976e+01
2.700000e-06	-1.102130e-06	-3.743242e-10	-7.635978e+00	-2.682650e+01
2.710000e-06	-1.151707e-06	-5.420896e-10	-7.979466e+00	-3.787272e+01
2.720000e-06	-1.200810e-06	-7.154303e-10	-8.319672e+00	-4.925919e+01
2.730000e-06	-1.249453e-06	-8.934262e-10	-8.656687e+00	-6.096587e+01
2.740000e-06	-1.297418e-06	-1.075591e-09	-8.989006e+00	-7.296080e+01
2.750000e-06	-1.344566e-06	-1.263327e-09	-9.315667e+00	-8.519971e+01
2.760000e-06	-1.391044e-06	-1.456931e-09	-9.637683e+00	-9.762633e+01
2.770000e-06	-1.437003e-06	-1.650505e-09	-9.956106e+00	-1.101736e+02
2.780000e-06	-1.482587e-06	-1.841679e-09	-1.027193e+01	-1.227655e+02
2.790000e-06	-1.527833e-06	-2.033641e-09	-1.058541e+01	-1.353197e+02
2.800000e-06	-1.572648e-06	-2.226168e-09	-1.089590e+01	-1.477507e+02
2.810000e-06	-1.616912e-06	-2.414394e-09	-1.120259e+01	-1.599732e+02
2.820000e-06	-1.660632e-06	-2.595977e-09	-1.150550e+01	-1.719055e+02
2.830000e-06	-1.703927e-06	-2.771359e-09	-1.180545e+01	-1.834730e+02
2.840000e-06	-1.746788e-06	-2.942298e-09	-1.210241e+01	-1.946111e+02
2.850000e-06	-1.789101e-06	-3.106792e-09	-1.239558e+01	-2.052672e+02
2.860000e-06	-1.830811e-06	-3.263031e-09	-1.268456e+01	-2.154025e+02
2.870000e-06	-1.871953e-06	-3.409916e-09	-1.296960e+01	-2.249923e+02
2.880000e-06	-1.912525e-06	-3.547848e-09	-1.325070e+01	-2.340264e+02
2.890000e-06	-1.952405e-06	-3.680019e-09	-1.352701e+01	-2.425074e+02
2.900000e-06	-1.991706e-06	-3.805964e-09	-1.379930e+01	-2.504492e+02
2.910000e-06	-2.030483e-06	-3.922742e-09	-1.406796e+01	-2.578750e+02
2.920000e-06	-2.068422e-06	-4.030780e-09	-1.433081e+01	-2.648145e+02
2.930000e-06	-2.105395e-06	-4.131623e-09	-1.458698e+01	-2.713014e+02
2.940000e-06	-2.141440e-06	-4.224458e-09	-1.483671e+01	-2.773710e+02
