# Temperatura_=_17.65
# Concentracion g/m^3_=_15500.0
# C_Vs_to_Am_M_A/Vsm_=_65563218390.804596
# pendiente_HvsI_1/m_=_3716.3
# ordenada_HvsI_A/m_=_1297.0
# frecuencia_Hz_=_300846.61640684033

Tiempo_(s)	Campo_(V.s)	Magnetizacion_(V.s)	Campo_(kA/m)	Magnetizacion_(A/m)
0.000000e+00	-2.860213e-06	-5.012196e-09	-1.980226e+01	-3.283386e+02
1.000000e-08	-2.859238e-06	-5.006961e-09	-1.979550e+01	-3.283759e+02
2.000000e-08	-2.857225e-06	-5.002781e-09	-1.978157e+01	-3.283514e+02
3.000000e-08	-2.853948e-06	-5.000727e-09	-1.975888e+01	-3.282603e+02
4.000000e-08	-2.849682e-06	-5.000180e-09	-1.972934e+01	-3.280987e+02
5.000000e-08	-2.844660e-06	-4.997980e-09	-1.969458e+01	-3.278634e+02
6.000000e-08	-2.838744e-06	-4.995697e-09	-1.965362e+01	-3.275533e+02
7.000000e-08	-2.831839e-06	-4.994611e-09	-1.960581e+01	-3.271690e+02
8.000000e-08	-2.823906e-06	-4.990645e-09	-1.955089e+01	-3.267130e+02
9.000000e-08	-2.814782e-06	-4.985094e-09	-1.948772e+01	-3.261896e+02
1.000000e-07	-2.804188e-06	-4.982655e-09	-1.941437e+01	-3.256042e+02
1.100000e-07	-2.792390e-06	-4.955168e-09	-1.933269e+01	-3.249633e+02
1.200000e-07	-2.779873e-06	-4.930651e-09	-1.924603e+01	-3.242730e+02
1.300000e-07	-2.766444e-06	-4.925447e-09	-1.915306e+01	-3.235393e+02
1.400000e-07	-2.751920e-06	-4.958602e-09	-1.905250e+01	-3.227667e+02
1.500000e-07	-2.736411e-06	-4.928137e-09	-1.894513e+01	-3.219582e+02
1.600000e-07	-2.719639e-06	-4.905744e-09	-1.882901e+01	-3.211147e+02
1.700000e-07	-2.701592e-06	-4.938607e-09	-1.870407e+01	-3.202354e+02
1.800000e-07	-2.682856e-06	-4.900291e-09	-1.857435e+01	-3.193172e+02
1.900000e-07	-2.663468e-06	-4.865264e-09	-1.844012e+01	-3.183559e+02
2.000000e-07	-2.643097e-06	-4.861430e-09	-1.829909e+01	-3.173460e+02
2.100000e-07	-2.621861e-06	-4.845525e-09	-1.815206e+01	-3.162817e+02
2.200000e-07	-2.599876e-06	-4.820220e-09	-1.799985e+01	-3.151573e+02
2.300000e-07	-2.576932e-06	-4.831182e-09	-1.784100e+01	-3.139678e+02
2.400000e-07	-2.553065e-06	-4.809748e-09	-1.767576e+01	-3.127094e+02
2.500000e-07	-2.528482e-06	-4.761423e-09	-1.750556e+01	-3.113795e+02
2.600000e-07	-2.503000e-06	-4.741113e-09	-1.732915e+01	-3.099773e+02
2.700000e-07	-2.476320e-06	-4.731099e-09	-1.714443e+01	-3.085035e+02
2.800000e-07	-2.448528e-06	-4.692437e-09	-1.695202e+01	-3.069600e+02
2.900000e-07	-2.419849e-06	-4.679851e-09	-1.675346e+01	-3.053496e+02
3.000000e-07	-2.390392e-06	-4.657436e-09	-1.654952e+01	-3.036757e+02
3.100000e-07	-2.360217e-06	-4.636328e-09	-1.634060e+01	-3.019418e+02
3.200000e-07	-2.329313e-06	-4.635461e-09	-1.612665e+01	-3.001513e+02
3.300000e-07	-2.297623e-06	-4.576208e-09	-1.590725e+01	-2.983069e+02
3.400000e-07	-2.265261e-06	-4.533175e-09	-1.568319e+01	-2.964105e+02
3.500000e-07	-2.232308e-06	-4.524949e-09	-1.545505e+01	-2.944632e+02
3.600000e-07	-2.198492e-06	-4.497813e-09	-1.522093e+01	-2.924655e+02
3.700000e-07	-2.163495e-06	-4.458727e-09	-1.497864e+01	-2.904171e+02
3.800000e-07	-2.127511e-06	-4.448570e-09	-1.472951e+01	-2.883173e+02
3.900000e-07	-2.090920e-06	-4.412150e-09	-1.447617e+01	-2.861654e+02
4.000000e-07	-2.053717e-06	-4.368772e-09	-1.421860e+01	-2.839604e+02
4.100000e-07	-2.015767e-06	-4.337817e-09	-1.395586e+01	-2.817021e+02
4.200000e-07	-1.977056e-06	-4.291739e-09	-1.368785e+01	-2.793901e+02
4.300000e-07	-1.937611e-06	-4.252968e-09	-1.341476e+01	-2.770248e+02
4.400000e-07	-1.897510e-06	-4.227576e-09	-1.313712e+01	-2.746067e+02
4.500000e-07	-1.857007e-06	-4.197284e-09	-1.285671e+01	-2.721365e+02
4.600000e-07	-1.816086e-06	-4.152572e-09	-1.257340e+01	-2.696148e+02
4.700000e-07	-1.774354e-06	-4.114558e-09	-1.228447e+01	-2.670419e+02
4.800000e-07	-1.731519e-06	-4.065241e-09	-1.198791e+01	-2.644179e+02
4.900000e-07	-1.687738e-06	-4.019387e-09	-1.168480e+01	-2.617418e+02
5.000000e-07	-1.643430e-06	-3.977764e-09	-1.137804e+01	-2.590124e+02
5.100000e-07	-1.598732e-06	-3.936003e-09	-1.106858e+01	-2.562275e+02
5.200000e-07	-1.553560e-06	-3.898293e-09	-1.075584e+01	-2.533846e+02
5.300000e-07	-1.507845e-06	-3.861264e-09	-1.043934e+01	-2.504805e+02
5.400000e-07	-1.461560e-06	-3.812671e-09	-1.011889e+01	-2.475121e+02
5.500000e-07	-1.414714e-06	-3.755670e-09	-9.794558e+00	-2.444764e+02
5.600000e-07	-1.367348e-06	-3.710077e-09	-9.466629e+00	-2.413707e+02
5.700000e-07	-1.319496e-06	-3.657415e-09	-9.135332e+00	-2.381930e+02
5.800000e-07	-1.271220e-06	-3.607157e-09	-8.801102e+00	-2.349420e+02
5.900000e-07	-1.222623e-06	-3.560999e-09	-8.464650e+00	-2.316171e+02
6.000000e-07	-1.173636e-06	-3.512714e-09	-8.125493e+00	-2.282185e+02
6.100000e-07	-1.124022e-06	-3.459551e-09	-7.781997e+00	-2.247471e+02
6.200000e-07	-1.073705e-06	-3.404177e-09	-7.433636e+00	-2.212040e+02
6.300000e-07	-1.022821e-06	-3.345648e-09	-7.081345e+00	-2.175905e+02
6.400000e-07	-9.714799e-07	-3.284070e-09	-6.725895e+00	-2.139080e+02
6.500000e-07	-9.196761e-07	-3.228053e-09	-6.367239e+00	-2.101572e+02
6.600000e-07	-8.674274e-07	-3.170138e-09	-6.005503e+00	-2.063385e+02
6.700000e-07	-8.148830e-07	-3.109936e-09	-5.641720e+00	-2.024512e+02
6.800000e-07	-7.621626e-07	-3.046680e-09	-5.276718e+00	-1.984942e+02
6.900000e-07	-7.092073e-07	-2.985831e-09	-4.910090e+00	-1.944653e+02
7.000000e-07	-6.559408e-07	-2.924965e-09	-4.541308e+00	-1.903618e+02
7.100000e-07	-6.024369e-07	-2.862704e-09	-4.170881e+00	-1.861802e+02
7.200000e-07	-5.487972e-07	-2.796517e-09	-3.799515e+00	-1.819167e+02
7.300000e-07	-4.949911e-07	-2.727187e-09	-3.426997e+00	-1.775669e+02
7.400000e-07	-4.409605e-07	-2.656287e-09	-3.052923e+00	-1.731264e+02
7.500000e-07	-3.867523e-07	-2.581945e-09	-2.677622e+00	-1.685904e+02
7.600000e-07	-3.324514e-07	-2.509383e-09	-2.301677e+00	-1.639542e+02
7.700000e-07	-2.780855e-07	-2.435890e-09	-1.925283e+00	-1.592128e+02
7.800000e-07	-2.236168e-07	-2.363548e-09	-1.548177e+00	-1.543611e+02
7.900000e-07	-1.690914e-07	-2.290766e-09	-1.170679e+00	-1.493937e+02
8.000000e-07	-1.145166e-07	-2.214283e-09	-7.928382e-01	-1.443051e+02
8.100000e-07	-5.989772e-08	-2.132662e-09	-4.146929e-01	-1.390895e+02
8.200000e-07	-5.292724e-09	-2.049764e-09	-3.664338e-02	-1.337409e+02
8.300000e-07	4.931053e-08	-1.965389e-09	3.413940e-01	-1.282534e+02
8.400000e-07	1.038939e-07	-1.876034e-09	7.192935e-01	-1.226207e+02
8.500000e-07	1.584466e-07	-1.784526e-09	1.096981e+00	-1.168371e+02
8.600000e-07	2.129425e-07	-1.692913e-09	1.474276e+00	-1.108966e+02
8.700000e-07	2.673816e-07	-1.603506e-09	1.851177e+00	-1.047938e+02
8.800000e-07	3.217984e-07	-1.511096e-09	2.227923e+00	-9.852329e+01
8.900000e-07	3.761229e-07	-1.411503e-09	2.604030e+00	-9.207949e+01
9.000000e-07	4.303078e-07	-1.307568e-09	2.979171e+00	-8.545666e+01
9.100000e-07	4.843197e-07	-1.204789e-09	3.353115e+00	-7.864824e+01
9.200000e-07	5.381533e-07	-1.099324e-09	3.725824e+00	-7.164645e+01
9.300000e-07	5.918175e-07	-9.864198e-10	4.097359e+00	-6.444182e+01
9.400000e-07	6.452598e-07	-8.702496e-10	4.467359e+00	-5.702267e+01
9.500000e-07	6.984170e-07	-7.513157e-10	4.835385e+00	-4.937493e+01
9.600000e-07	7.513291e-07	-6.308193e-10	5.201714e+00	-4.148195e+01
9.700000e-07	8.040011e-07	-5.074817e-10	5.566381e+00	-3.332485e+01
9.800000e-07	8.563816e-07	-3.779068e-10	5.929029e+00	-2.488308e+01
9.900000e-07	9.084861e-07	-2.410099e-10	6.289767e+00	-1.613546e+01
1.000000e-06	9.602085e-07	-9.989050e-11	6.647859e+00	-7.061579e+00
1.010000e-06	1.011458e-06	4.506261e-11	7.002677e+00	2.356442e+00
1.020000e-06	1.062127e-06	1.952420e-10	7.353475e+00	1.213197e+01
1.030000e-06	1.112086e-06	3.498437e-10	7.699363e+00	2.227176e+01
1.040000e-06	1.161404e-06	5.112059e-10	8.040805e+00	3.277389e+01
1.050000e-06	1.210262e-06	6.796855e-10	8.379065e+00	4.362601e+01
1.060000e-06	1.258794e-06	8.529638e-10	8.715068e+00	5.480389e+01
1.070000e-06	1.307034e-06	1.027010e-09	9.049050e+00	6.627068e+01
1.080000e-06	1.354896e-06	1.204338e-09	9.380416e+00	7.797683e+01
1.090000e-06	1.402260e-06	1.386155e-09	9.708337e+00	8.986073e+01
1.100000e-06	1.449106e-06	1.570616e-09	1.003266e+01	1.018503e+02
1.110000e-06	1.495434e-06	1.754235e-09	1.035342e+01	1.138652e+02
1.120000e-06	1.541154e-06	1.933894e-09	1.066995e+01	1.258198e+02
1.130000e-06	1.586319e-06	2.112056e-09	1.098264e+01	1.376264e+02
1.140000e-06	1.631060e-06	2.291405e-09	1.129240e+01	1.491989e+02
1.150000e-06	1.675428e-06	2.467554e-09	1.159957e+01	1.604564e+02
1.160000e-06	1.719385e-06	2.633829e-09	1.190391e+01	1.713265e+02
1.170000e-06	1.762633e-06	2.790161e-09	1.220332e+01	1.817480e+02
1.180000e-06	1.804923e-06	2.938414e-09	1.249611e+01	1.916731e+02
1.190000e-06	1.846292e-06	3.079898e-09	1.278252e+01	2.010687e+02
1.200000e-06	1.886985e-06	3.213372e-09	1.306426e+01	2.099166e+02
1.210000e-06	1.927230e-06	3.338181e-09	1.334289e+01	2.182130e+02
1.220000e-06	1.966888e-06	3.455083e-09	1.361746e+01	2.259673e+02
1.230000e-06	2.005846e-06	3.565324e-09	1.388717e+01	2.331996e+02
1.240000e-06	2.044127e-06	3.667824e-09	1.415221e+01	2.399387e+02
1.250000e-06	2.081691e-06	3.761039e-09	1.441227e+01	2.462189e+02
1.260000e-06	2.118588e-06	3.846873e-09	1.466772e+01	2.520773e+02
1.270000e-06	2.154950e-06	3.928170e-09	1.491947e+01	2.575513e+02
1.280000e-06	2.190716e-06	4.005420e-09	1.516710e+01	2.626762e+02
1.290000e-06	2.225534e-06	4.076445e-09	1.540815e+01	2.674838e+02
1.300000e-06	2.259236e-06	4.143233e-09	1.564148e+01	2.720010e+02
1.310000e-06	2.292025e-06	4.207594e-09	1.586849e+01	2.762499e+02
1.320000e-06	2.324126e-06	4.267575e-09	1.609074e+01	2.802474e+02
1.330000e-06	2.355492e-06	4.323204e-09	1.630789e+01	2.840063e+02
1.340000e-06	2.386063e-06	4.374564e-09	1.651955e+01	2.875364e+02
1.350000e-06	2.415839e-06	4.422059e-09	1.672570e+01	2.908453e+02
1.360000e-06	2.444844e-06	4.466870e-09	1.692651e+01	2.939399e+02
1.370000e-06	2.473205e-06	4.507811e-09	1.712286e+01	2.968273e+02
1.380000e-06	2.500692e-06	4.545166e-09	1.731316e+01	2.995160e+02
1.390000e-06	2.526953e-06	4.581977e-09	1.749498e+01	3.020157e+02
1.400000e-06	2.552066e-06	4.616973e-09	1.766885e+01	3.043383e+02
1.410000e-06	2.576304e-06	4.648442e-09	1.783665e+01	3.064968e+02
1.420000e-06	2.599691e-06	4.677639e-09	1.799857e+01	3.085054e+02
1.430000e-06	2.622196e-06	4.705938e-09	1.815438e+01	3.103784e+02
1.440000e-06	2.643860e-06	4.731786e-09	1.830437e+01	3.121296e+02
1.450000e-06	2.664707e-06	4.752776e-09	1.844870e+01	3.137713e+02
1.460000e-06	2.684796e-06	4.772483e-09	1.858778e+01	3.153141e+02
1.470000e-06	2.704011e-06	4.794045e-09	1.872082e+01	3.167660e+02
1.480000e-06	2.722214e-06	4.816791e-09	1.884684e+01	3.181324e+02
1.490000e-06	2.739431e-06	4.836987e-09	1.896604e+01	3.194166e+02
1.500000e-06	2.755608e-06	4.853612e-09	1.907804e+01	3.206194e+02
1.510000e-06	2.770679e-06	4.871395e-09	1.918238e+01	3.217407e+02
1.520000e-06	2.784684e-06	4.887929e-09	1.927934e+01	3.227792e+02
1.530000e-06	2.797667e-06	4.897944e-09	1.936923e+01	3.237337e+02
1.540000e-06	2.809630e-06	4.905430e-09	1.945205e+01	3.246038e+02
1.550000e-06	2.820330e-06	4.915186e-09	1.952613e+01	3.253901e+02
1.560000e-06	2.829722e-06	4.928506e-09	1.959115e+01	3.260943e+02
1.570000e-06	2.838186e-06	4.943568e-09	1.964976e+01	3.267199e+02
1.580000e-06	2.845796e-06	4.956832e-09	1.970244e+01	3.272715e+02
1.590000e-06	2.852405e-06	4.966188e-09	1.974819e+01	3.277543e+02
1.600000e-06	2.858042e-06	4.971831e-09	1.978723e+01	3.281739e+02
1.610000e-06	2.862805e-06	4.974827e-09	1.982020e+01	3.285357e+02
1.620000e-06	2.866702e-06	4.976166e-09	1.984718e+01	3.288438e+02
1.630000e-06	2.869394e-06	4.978707e-09	1.986582e+01	3.291012e+02
1.640000e-06	2.870771e-06	4.984434e-09	1.987535e+01	3.293089e+02
1.650000e-06	2.871226e-06	4.990683e-09	1.987850e+01	3.294663e+02
1.660000e-06	2.870868e-06	4.992638e-09	1.987602e+01	3.295709e+02
1.670000e-06	2.869600e-06	4.991772e-09	1.986724e+01	3.296191e+02
1.680000e-06	2.867418e-06	4.992717e-09	1.985214e+01	3.296063e+02
1.690000e-06	2.864418e-06	4.995634e-09	1.983137e+01	3.295278e+02
1.700000e-06	2.860651e-06	4.992963e-09	1.980529e+01	3.293792e+02
1.710000e-06	2.855835e-06	4.983657e-09	1.977194e+01	3.291576e+02
1.720000e-06	2.849790e-06	4.973912e-09	1.973010e+01	3.288612e+02
1.730000e-06	2.842802e-06	4.971949e-09	1.968172e+01	3.284903e+02
1.740000e-06	2.834958e-06	4.965415e-09	1.962741e+01	3.280471e+02
1.750000e-06	2.825779e-06	4.952014e-09	1.956386e+01	3.275356e+02
1.760000e-06	2.814982e-06	4.930887e-09	1.948911e+01	3.269612e+02
1.770000e-06	2.803266e-06	4.960803e-09	1.940799e+01	3.263300e+02
1.780000e-06	2.791429e-06	4.959342e-09	1.932604e+01	3.256484e+02
1.790000e-06	2.778870e-06	4.905507e-09	1.923909e+01	3.249224e+02
1.800000e-06	2.764616e-06	4.881527e-09	1.914040e+01	3.241568e+02
1.810000e-06	2.749152e-06	4.917789e-09	1.903334e+01	3.233548e+02
1.820000e-06	2.733179e-06	4.930749e-09	1.892275e+01	3.225179e+02
1.830000e-06	2.716113e-06	4.887662e-09	1.880460e+01	3.216454e+02
1.840000e-06	2.697663e-06	4.917822e-09	1.867686e+01	3.207347e+02
1.850000e-06	2.678512e-06	4.920390e-09	1.854428e+01	3.197818e+02
1.860000e-06	2.658643e-06	4.851332e-09	1.840672e+01	3.187813e+02
1.870000e-06	2.637501e-06	4.864999e-09	1.826034e+01	3.177275e+02
1.880000e-06	2.615253e-06	4.873460e-09	1.810631e+01	3.166145e+02
1.890000e-06	2.592087e-06	4.796338e-09	1.794593e+01	3.154373e+02
1.900000e-06	2.567897e-06	4.805193e-09	1.777845e+01	3.141916e+02
1.910000e-06	2.542961e-06	4.820284e-09	1.760581e+01	3.128749e+02
1.920000e-06	2.517316e-06	4.764075e-09	1.742826e+01	3.114860e+02
1.930000e-06	2.490697e-06	4.740707e-09	1.724397e+01	3.100252e+02
1.940000e-06	2.463390e-06	4.741677e-09	1.705491e+01	3.084942e+02
1.950000e-06	2.435296e-06	4.693287e-09	1.686040e+01	3.068957e+02
1.960000e-06	2.405911e-06	4.671444e-09	1.665697e+01	3.052332e+02
1.970000e-06	2.375456e-06	4.653245e-09	1.644612e+01	3.035101e+02
1.980000e-06	2.344290e-06	4.605544e-09	1.623034e+01	3.017298e+02
1.990000e-06	2.312421e-06	4.611310e-09	1.600970e+01	2.998951e+02
2.000000e-06	2.279815e-06	4.587998e-09	1.578396e+01	2.980082e+02
2.010000e-06	2.246354e-06	4.527224e-09	1.555229e+01	2.960703e+02
2.020000e-06	2.212047e-06	4.505822e-09	1.531477e+01	2.940819e+02
2.030000e-06	2.177162e-06	4.471625e-09	1.507325e+01	2.920429e+02
2.040000e-06	2.141718e-06	4.421086e-09	1.482786e+01	2.899526e+02
2.050000e-06	2.105558e-06	4.400836e-09	1.457752e+01	2.878103e+02
2.060000e-06	2.068425e-06	4.368806e-09	1.432043e+01	2.856152e+02
2.070000e-06	2.030138e-06	4.336354e-09	1.405536e+01	2.833667e+02
2.080000e-06	1.991038e-06	4.313726e-09	1.378465e+01	2.810646e+02
2.090000e-06	1.951413e-06	4.270861e-09	1.351032e+01	2.787091e+02
2.100000e-06	1.911214e-06	4.227930e-09	1.323200e+01	2.763007e+02
2.110000e-06	1.870392e-06	4.180895e-09	1.294938e+01	2.738401e+02
2.120000e-06	1.828949e-06	4.138507e-09	1.266246e+01	2.713278e+02
2.130000e-06	1.786922e-06	4.108272e-09	1.237149e+01	2.687644e+02
2.140000e-06	1.744280e-06	4.074470e-09	1.207626e+01	2.661498e+02
2.150000e-06	1.701124e-06	4.033209e-09	1.177748e+01	2.634834e+02
2.160000e-06	1.657599e-06	3.987119e-09	1.147613e+01	2.607639e+02
2.170000e-06	1.613523e-06	3.946603e-09	1.117098e+01	2.579894e+02
2.180000e-06	1.568753e-06	3.900412e-09	1.086102e+01	2.551574e+02
2.190000e-06	1.523351e-06	3.852145e-09	1.054669e+01	2.522647e+02
2.200000e-06	1.477478e-06	3.813575e-09	1.022910e+01	2.493084e+02
2.210000e-06	1.431285e-06	3.768689e-09	9.909287e+00	2.462852e+02
2.220000e-06	1.384630e-06	3.714072e-09	9.586276e+00	2.431925e+02
2.230000e-06	1.337398e-06	3.669648e-09	9.259271e+00	2.400281e+02
2.240000e-06	1.289559e-06	3.617053e-09	8.928068e+00	2.367905e+02
2.250000e-06	1.241095e-06	3.563316e-09	8.592532e+00	2.334791e+02
2.260000e-06	1.192149e-06	3.522290e-09	8.253663e+00	2.300939e+02
2.270000e-06	1.142820e-06	3.473809e-09	7.912144e+00	2.266357e+02
2.280000e-06	1.093105e-06	3.421114e-09	7.567947e+00	2.231056e+02
2.290000e-06	1.042923e-06	3.365439e-09	7.220518e+00	2.195049e+02
2.300000e-06	9.922448e-07	3.308752e-09	6.869658e+00	2.158350e+02
2.310000e-06	9.411793e-07	3.247358e-09	6.516113e+00	2.120966e+02
2.320000e-06	8.898989e-07	3.183639e-09	6.161081e+00	2.082903e+02
2.330000e-06	8.383639e-07	3.125963e-09	5.804287e+00	2.044156e+02
2.340000e-06	7.864179e-07	3.072423e-09	5.444646e+00	2.004715e+02
2.350000e-06	7.340486e-07	3.014872e-09	5.082075e+00	1.964560e+02
2.360000e-06	6.812925e-07	2.951842e-09	4.716826e+00	1.923663e+02
2.370000e-06	6.280863e-07	2.888613e-09	4.348461e+00	1.881993e+02
2.380000e-06	5.744550e-07	2.826975e-09	3.977153e+00	1.839510e+02
2.390000e-06	5.205121e-07	2.764483e-09	3.603687e+00	1.796172e+02
2.400000e-06	4.662896e-07	2.698884e-09	3.228286e+00	1.751935e+02
2.410000e-06	4.118511e-07	2.633457e-09	2.851389e+00	1.706753e+02
2.420000e-06	3.572205e-07	2.564038e-09	2.473163e+00	1.660576e+02
2.430000e-06	3.024203e-07	2.490332e-09	2.093761e+00	1.613357e+02
2.440000e-06	2.475070e-07	2.414339e-09	1.713578e+00	1.565043e+02
2.450000e-06	1.925147e-07	2.339470e-09	1.332846e+00	1.515583e+02
2.460000e-06	1.374787e-07	2.266631e-09	9.518132e-01	1.464920e+02
2.470000e-06	8.241480e-08	2.189380e-09	5.705865e-01	1.412998e+02
2.480000e-06	2.732387e-08	2.107247e-09	1.891727e-01	1.359757e+02
2.490000e-06	-2.777185e-08	2.023627e-09	-1.922742e-01	1.305137e+02
2.500000e-06	-8.285442e-08	1.939689e-09	-5.736301e-01	1.249078e+02
2.510000e-06	-1.379001e-07	1.851831e-09	-9.547306e-01	1.191518e+02
2.520000e-06	-1.929207e-07	1.760210e-09	-1.335658e+00	1.132401e+02
2.530000e-06	-2.479192e-07	1.666577e-09	-1.716431e+00	1.071670e+02
2.540000e-06	-3.028600e-07	1.570715e-09	-2.096806e+00	1.009271e+02
2.550000e-06	-3.576500e-07	1.474945e-09	-2.476136e+00	9.451492e+01
2.560000e-06	-4.122364e-07	1.378517e-09	-2.854057e+00	8.792481e+01
2.570000e-06	-4.666608e-07	1.278493e-09	-3.230856e+00	8.115036e+01
2.580000e-06	-5.208238e-07	1.171674e-09	-3.605846e+00	7.418404e+01
2.590000e-06	-5.746316e-07	1.061725e-09	-3.978376e+00	6.701672e+01
2.600000e-06	-6.280281e-07	9.496547e-10	-4.348058e+00	5.963714e+01
2.610000e-06	-6.809819e-07	8.329476e-10	-4.714676e+00	5.203166e+01
2.620000e-06	-7.335174e-07	7.122076e-10	-5.078398e+00	4.418410e+01
2.630000e-06	-7.856397e-07	5.892302e-10	-5.439258e+00	3.607593e+01
2.640000e-06	-8.374277e-07	4.645083e-10	-5.797805e+00	2.768685e+01
2.650000e-06	-8.889385e-07	3.358025e-10	-6.154432e+00	1.899568e+01
2.660000e-06	-9.401633e-07	1.989506e-10	-6.509079e+00	9.981772e+00
2.670000e-06	-9.910784e-07	5.376293e-11	-6.861582e+00	6.266415e-01
2.680000e-06	-1.041652e-06	-9.563057e-11	-7.211724e+00	-9.084035e+00
2.690000e-06	-1.091813e-06	-2.485159e-10	-7.559003e+00	-1.915834e+01
2.700000e-06	-1.141549e-06	-4.041430e-10	-7.903345e+00	-2.959606e+01
2.710000e-06	-1.190840e-06	-5.654557e-10	-8.244603e+00	-4.038680e+01
2.720000e-06	-1.239557e-06	-7.333930e-10	-8.581889e+00	-5.150854e+01
2.730000e-06	-1.287636e-06	-9.063595e-10	-8.914757e+00	-6.292672e+01
2.740000e-06	-1.334994e-06	-1.083117e-09	-9.242631e+00	-7.459401e+01
2.750000e-06	-1.381621e-06	-1.265130e-09	-9.565444e+00	-8.645088e+01
2.760000e-06	-1.427698e-06	-1.452576e-09	-9.884454e+00	-9.842698e+01
2.770000e-06	-1.473404e-06	-1.638789e-09	-1.020089e+01	-1.104432e+02
2.780000e-06	-1.518795e-06	-1.820084e-09	-1.051515e+01	-1.224147e+02
2.790000e-06	-1.563825e-06	-1.998314e-09	-1.082691e+01	-1.342538e+02
2.800000e-06	-1.608358e-06	-2.174862e-09	-1.113523e+01	-1.458740e+02
2.810000e-06	-1.652312e-06	-2.349100e-09	-1.143953e+01	-1.571930e+02
2.820000e-06	-1.695782e-06	-2.517001e-09	-1.174049e+01	-1.681368e+02
2.830000e-06	-1.738871e-06	-2.675956e-09	-1.203881e+01	-1.786421e+02
2.840000e-06	-1.781473e-06	-2.829611e-09	-1.233376e+01	-1.886584e+02
2.850000e-06	-1.823455e-06	-2.979157e-09	-1.262442e+01	-1.981500e+02
2.860000e-06	-1.864836e-06	-3.119091e-09	-1.291091e+01	-2.070961e+02
2.870000e-06	-1.905568e-06	-3.246764e-09	-1.319291e+01	-2.154904e+02
2.880000e-06	-1.945639e-06	-3.365424e-09	-1.347034e+01	-2.233399e+02
2.890000e-06	-1.985151e-06	-3.479487e-09	-1.374390e+01	-2.306632e+02
2.900000e-06	-2.024112e-06	-3.586972e-09	-1.401364e+01	-2.374877e+02
2.910000e-06	-2.062302e-06	-3.685578e-09	-1.427803e+01	-2.438469e+02
2.920000e-06	-2.099453e-06	-3.776167e-09	-1.453525e+01	-2.497775e+02
2.930000e-06	-2.135622e-06	-3.862094e-09	-1.478566e+01	-2.553172e+02
2.940000e-06	-2.171055e-06	-3.946470e-09	-1.503098e+01	-2.605017e+02
