# Temperatura_=_25.34
# Concentracion g/m^3_=_15500.0
# C_Vs_to_Am_M_A/Vsm_=_65563218390.804596
# pendiente_HvsI_1/m_=_3716.3
# ordenada_HvsI_A/m_=_1297.0
# frecuencia_Hz_=_300837.3322788169

Tiempo_(s)	Campo_(V.s)	Magnetizacion_(V.s)	Campo_(kA/m)	Magnetizacion_(A/m)
0.000000e+00	-2.859237e-06	-5.202447e-09	-1.979959e+01	-3.407747e+02
1.000000e-08	-2.858770e-06	-5.200858e-09	-1.979635e+01	-3.408270e+02
2.000000e-08	-2.857549e-06	-5.194149e-09	-1.978790e+01	-3.408187e+02
3.000000e-08	-2.855391e-06	-5.188424e-09	-1.977296e+01	-3.407463e+02
4.000000e-08	-2.851978e-06	-5.187161e-09	-1.974932e+01	-3.406071e+02
5.000000e-08	-2.847484e-06	-5.187083e-09	-1.971820e+01	-3.403999e+02
6.000000e-08	-2.842217e-06	-5.182504e-09	-1.968173e+01	-3.401249e+02
7.000000e-08	-2.836132e-06	-5.176364e-09	-1.963959e+01	-3.397840e+02
8.000000e-08	-2.829110e-06	-5.178648e-09	-1.959097e+01	-3.393807e+02
9.000000e-08	-2.821020e-06	-5.182888e-09	-1.953494e+01	-3.389195e+02
1.000000e-07	-2.811615e-06	-5.168083e-09	-1.946982e+01	-3.384055e+02
1.100000e-07	-2.800805e-06	-5.135535e-09	-1.939496e+01	-3.378440e+02
1.200000e-07	-2.788928e-06	-5.111393e-09	-1.931272e+01	-3.372396e+02
1.300000e-07	-2.776280e-06	-5.144893e-09	-1.922513e+01	-3.365960e+02
1.400000e-07	-2.762624e-06	-5.131495e-09	-1.913056e+01	-3.359151e+02
1.500000e-07	-2.747916e-06	-5.111644e-09	-1.902872e+01	-3.351976e+02
1.600000e-07	-2.732296e-06	-5.110119e-09	-1.892055e+01	-3.344421e+02
1.700000e-07	-2.715302e-06	-5.134008e-09	-1.880287e+01	-3.336459e+02
1.800000e-07	-2.697012e-06	-5.136379e-09	-1.867621e+01	-3.328050e+02
1.900000e-07	-2.678088e-06	-5.077067e-09	-1.854517e+01	-3.319145e+02
2.000000e-07	-2.658456e-06	-5.090190e-09	-1.840922e+01	-3.309696e+02
2.100000e-07	-2.637866e-06	-5.070026e-09	-1.826664e+01	-3.299655e+02
2.200000e-07	-2.616508e-06	-5.019779e-09	-1.811874e+01	-3.288981e+02
2.300000e-07	-2.594399e-06	-5.041964e-09	-1.796565e+01	-3.277645e+02
2.400000e-07	-2.571279e-06	-5.054171e-09	-1.780555e+01	-3.265628e+02
2.500000e-07	-2.547193e-06	-4.988977e-09	-1.763875e+01	-3.252925e+02
2.600000e-07	-2.522394e-06	-4.963863e-09	-1.746703e+01	-3.239541e+02
2.700000e-07	-2.496806e-06	-4.968529e-09	-1.728983e+01	-3.225487e+02
2.800000e-07	-2.470168e-06	-4.941457e-09	-1.710537e+01	-3.210784e+02
2.900000e-07	-2.442428e-06	-4.890414e-09	-1.691328e+01	-3.195449e+02
3.000000e-07	-2.413661e-06	-4.886263e-09	-1.671407e+01	-3.179503e+02
3.100000e-07	-2.384047e-06	-4.870098e-09	-1.650900e+01	-3.162959e+02
3.200000e-07	-2.353782e-06	-4.833614e-09	-1.629943e+01	-3.145827e+02
3.300000e-07	-2.322789e-06	-4.832093e-09	-1.608480e+01	-3.128111e+02
3.400000e-07	-2.290929e-06	-4.782896e-09	-1.586418e+01	-3.109812e+02
3.500000e-07	-2.258369e-06	-4.732239e-09	-1.563871e+01	-3.090925e+02
3.600000e-07	-2.225235e-06	-4.724073e-09	-1.540927e+01	-3.071449e+02
3.700000e-07	-2.191309e-06	-4.712305e-09	-1.517434e+01	-3.051385e+02
3.800000e-07	-2.156245e-06	-4.651486e-09	-1.493152e+01	-3.030735e+02
3.900000e-07	-2.120104e-06	-4.620076e-09	-1.468125e+01	-3.009511e+02
4.000000e-07	-2.083268e-06	-4.608327e-09	-1.442618e+01	-2.987730e+02
4.100000e-07	-2.045834e-06	-4.568334e-09	-1.416695e+01	-2.965413e+02
4.200000e-07	-2.007688e-06	-4.520523e-09	-1.390280e+01	-2.942585e+02
4.300000e-07	-1.968832e-06	-4.480961e-09	-1.363373e+01	-2.919272e+02
4.400000e-07	-1.929242e-06	-4.448322e-09	-1.335958e+01	-2.895497e+02
4.500000e-07	-1.888981e-06	-4.414727e-09	-1.308078e+01	-2.871276e+02
4.600000e-07	-1.848337e-06	-4.384464e-09	-1.279933e+01	-2.846617e+02
4.700000e-07	-1.807359e-06	-4.336870e-09	-1.251557e+01	-2.821514e+02
4.800000e-07	-1.765677e-06	-4.295048e-09	-1.222693e+01	-2.795953e+02
4.900000e-07	-1.722895e-06	-4.249521e-09	-1.193067e+01	-2.769904e+02
5.000000e-07	-1.679067e-06	-4.209593e-09	-1.162717e+01	-2.743332e+02
5.100000e-07	-1.634617e-06	-4.169731e-09	-1.131936e+01	-2.716190e+02
5.200000e-07	-1.589752e-06	-4.120865e-09	-1.100869e+01	-2.688434e+02
5.300000e-07	-1.544425e-06	-4.081888e-09	-1.069480e+01	-2.660017e+02
5.400000e-07	-1.498573e-06	-4.048860e-09	-1.037729e+01	-2.630900e+02
5.500000e-07	-1.452146e-06	-3.997529e-09	-1.005579e+01	-2.601053e+02
5.600000e-07	-1.405213e-06	-3.931361e-09	-9.730794e+00	-2.570455e+02
5.700000e-07	-1.357848e-06	-3.889015e-09	-9.402799e+00	-2.539099e+02
5.800000e-07	-1.309993e-06	-3.844265e-09	-9.071415e+00	-2.506989e+02
5.900000e-07	-1.261680e-06	-3.794793e-09	-8.736860e+00	-2.474136e+02
6.000000e-07	-1.213022e-06	-3.747546e-09	-8.399908e+00	-2.440561e+02
6.100000e-07	-1.163975e-06	-3.696983e-09	-8.060274e+00	-2.406285e+02
6.200000e-07	-1.114462e-06	-3.640955e-09	-7.717407e+00	-2.371327e+02
6.300000e-07	-1.064282e-06	-3.583466e-09	-7.369918e+00	-2.335702e+02
6.400000e-07	-1.013436e-06	-3.525027e-09	-7.017820e+00	-2.299420e+02
6.500000e-07	-9.621082e-07	-3.462092e-09	-6.662389e+00	-2.262478e+02
6.600000e-07	-9.102623e-07	-3.406022e-09	-6.303367e+00	-2.224865e+02
6.700000e-07	-8.579630e-07	-3.349114e-09	-5.941206e+00	-2.186564e+02
6.800000e-07	-8.054141e-07	-3.291306e-09	-5.577316e+00	-2.147547e+02
6.900000e-07	-7.526612e-07	-3.227232e-09	-5.212014e+00	-2.107784e+02
7.000000e-07	-6.996610e-07	-3.160649e-09	-4.844999e+00	-2.067244e+02
7.100000e-07	-6.464270e-07	-3.096171e-09	-4.476365e+00	-2.025892e+02
7.200000e-07	-5.929659e-07	-3.032942e-09	-4.106159e+00	-1.983698e+02
7.300000e-07	-5.392791e-07	-2.967567e-09	-3.734389e+00	-1.940632e+02
7.400000e-07	-4.854158e-07	-2.900255e-09	-3.361398e+00	-1.896664e+02
7.500000e-07	-4.313403e-07	-2.833168e-09	-2.986937e+00	-1.851764e+02
7.600000e-07	-3.770484e-07	-2.759577e-09	-2.610977e+00	-1.805897e+02
7.700000e-07	-3.226791e-07	-2.683703e-09	-2.234482e+00	-1.759021e+02
7.800000e-07	-2.682425e-07	-2.605822e-09	-1.857520e+00	-1.711084e+02
7.900000e-07	-2.136946e-07	-2.529760e-09	-1.479788e+00	-1.662024e+02
8.000000e-07	-1.590662e-07	-2.454915e-09	-1.101499e+00	-1.611765e+02
8.100000e-07	-1.044134e-07	-2.379675e-09	-7.230399e-01	-1.560222e+02
8.200000e-07	-4.975222e-08	-2.299730e-09	-3.445232e-01	-1.507298e+02
8.300000e-07	4.936804e-09	-2.212353e-09	3.418628e-02	-1.452895e+02
8.400000e-07	5.962063e-08	-2.121768e-09	4.128598e-01	-1.396913e+02
8.500000e-07	1.142437e-07	-2.029840e-09	7.911122e-01	-1.339255e+02
8.600000e-07	1.688281e-07	-1.939581e-09	1.169098e+00	-1.279834e+02
8.700000e-07	2.233899e-07	-1.847205e-09	1.546926e+00	-1.218574e+02
8.800000e-07	2.779202e-07	-1.754758e-09	1.924536e+00	-1.155407e+02
8.900000e-07	3.323928e-07	-1.659473e-09	2.301747e+00	-1.090277e+02
9.000000e-07	3.867679e-07	-1.556898e-09	2.678283e+00	-1.023127e+02
9.100000e-07	4.410197e-07	-1.449543e-09	3.053965e+00	-9.538955e+01
9.200000e-07	4.951131e-07	-1.339616e-09	3.428550e+00	-8.825034e+01
9.300000e-07	5.489748e-07	-1.225381e-09	3.801530e+00	-8.088456e+01
9.400000e-07	6.025641e-07	-1.105869e-09	4.172624e+00	-7.327794e+01
9.500000e-07	6.558744e-07	-9.859335e-10	4.541786e+00	-6.541173e+01
9.600000e-07	7.088928e-07	-8.644855e-10	4.908928e+00	-5.726229e+01
9.700000e-07	7.616889e-07	-7.373654e-10	5.274529e+00	-4.880133e+01
9.800000e-07	8.142980e-07	-5.987621e-10	5.638835e+00	-3.999670e+01
9.900000e-07	8.666278e-07	-4.523243e-10	6.001207e+00	-3.081396e+01
1.000000e-06	9.185602e-07	-3.028941e-10	6.360828e+00	-2.121853e+01
1.010000e-06	9.700338e-07	-1.488632e-10	6.717271e+00	-1.117853e+01
1.020000e-06	1.020948e-06	1.385435e-11	7.069844e+00	-6.678680e-01
1.030000e-06	1.071178e-06	1.844484e-10	7.417670e+00	1.033038e+01
1.040000e-06	1.120707e-06	3.581923e-10	7.760651e+00	2.182074e+01
1.050000e-06	1.169742e-06	5.367539e-10	8.100208e+00	3.379259e+01
1.060000e-06	1.218513e-06	7.234468e-10	8.437938e+00	4.621797e+01
1.070000e-06	1.267080e-06	9.205852e-10	8.774253e+00	5.905042e+01
1.080000e-06	1.315304e-06	1.121362e-09	9.108194e+00	7.222494e+01
1.090000e-06	1.363060e-06	1.323026e-09	9.438894e+00	8.565910e+01
1.100000e-06	1.410275e-06	1.527731e-09	9.765844e+00	9.925543e+01
1.110000e-06	1.456954e-06	1.737814e-09	1.008909e+01	1.129049e+02
1.120000e-06	1.503159e-06	1.949089e-09	1.040905e+01	1.264911e+02
1.130000e-06	1.548780e-06	2.150248e-09	1.072496e+01	1.398957e+02
1.140000e-06	1.593886e-06	2.344122e-09	1.103731e+01	1.530031e+02
1.150000e-06	1.638668e-06	2.536403e-09	1.134742e+01	1.657057e+02
1.160000e-06	1.683130e-06	2.723779e-09	1.165530e+01	1.779089e+02
1.170000e-06	1.727082e-06	2.899348e-09	1.195966e+01	1.895345e+02
1.180000e-06	1.770141e-06	3.063199e-09	1.225784e+01	2.005235e+02
1.190000e-06	1.812138e-06	3.219674e-09	1.254866e+01	2.108376e+02
1.200000e-06	1.853322e-06	3.368248e-09	1.283385e+01	2.204596e+02
1.210000e-06	1.893974e-06	3.504666e-09	1.311535e+01	2.293918e+02
1.220000e-06	1.934134e-06	3.627459e-09	1.339346e+01	2.376540e+02
1.230000e-06	1.973662e-06	3.739199e-09	1.366718e+01	2.452803e+02
1.240000e-06	2.012485e-06	3.843963e-09	1.393602e+01	2.523153e+02
1.250000e-06	2.050564e-06	3.942899e-09	1.419971e+01	2.588102e+02
1.260000e-06	2.087945e-06	4.034050e-09	1.445856e+01	2.648187e+02
1.270000e-06	2.124822e-06	4.119824e-09	1.471393e+01	2.703936e+02
1.280000e-06	2.161189e-06	4.201758e-09	1.496576e+01	2.755836e+02
1.290000e-06	2.196713e-06	4.278448e-09	1.521176e+01	2.804317e+02
1.300000e-06	2.231111e-06	4.346076e-09	1.544995e+01	2.849732e+02
1.310000e-06	2.264491e-06	4.406397e-09	1.568110e+01	2.892363e+02
1.320000e-06	2.297159e-06	4.465239e-09	1.590732e+01	2.932415e+02
1.330000e-06	2.329139e-06	4.522712e-09	1.612878e+01	2.970035e+02
1.340000e-06	2.360333e-06	4.575983e-09	1.634479e+01	3.005326e+02
1.350000e-06	2.390730e-06	4.624305e-09	1.655528e+01	3.038358e+02
1.360000e-06	2.420274e-06	4.669244e-09	1.675987e+01	3.069194e+02
1.370000e-06	2.449139e-06	4.710284e-09	1.695975e+01	3.097895e+02
1.380000e-06	2.477383e-06	4.746805e-09	1.715533e+01	3.124540e+02
1.390000e-06	2.504576e-06	4.779981e-09	1.734364e+01	3.149227e+02
1.400000e-06	2.530504e-06	4.812544e-09	1.752318e+01	3.172077e+02
1.410000e-06	2.555447e-06	4.844506e-09	1.769591e+01	3.193228e+02
1.420000e-06	2.579528e-06	4.875176e-09	1.786266e+01	3.212834e+02
1.430000e-06	2.602704e-06	4.903941e-09	1.802315e+01	3.231053e+02
1.440000e-06	2.625017e-06	4.930035e-09	1.817766e+01	3.248037e+02
1.450000e-06	2.646459e-06	4.953254e-09	1.832615e+01	3.263925e+02
1.460000e-06	2.667222e-06	4.972998e-09	1.846993e+01	3.278833e+02
1.470000e-06	2.687284e-06	4.991865e-09	1.860885e+01	3.292853e+02
1.480000e-06	2.706385e-06	5.011562e-09	1.874112e+01	3.306046e+02
1.490000e-06	2.724480e-06	5.031970e-09	1.886642e+01	3.318449e+02
1.500000e-06	2.741631e-06	5.050420e-09	1.898519e+01	3.330078e+02
1.510000e-06	2.757721e-06	5.065944e-09	1.909661e+01	3.340931e+02
1.520000e-06	2.772624e-06	5.081526e-09	1.919981e+01	3.351000e+02
1.530000e-06	2.786498e-06	5.097165e-09	1.929589e+01	3.360276e+02
1.540000e-06	2.799403e-06	5.108424e-09	1.938525e+01	3.368756e+02
1.550000e-06	2.811136e-06	5.115486e-09	1.946650e+01	3.376446e+02
1.560000e-06	2.821483e-06	5.122684e-09	1.953815e+01	3.383369e+02
1.570000e-06	2.830664e-06	5.132824e-09	1.960172e+01	3.389557e+02
1.580000e-06	2.839000e-06	5.146299e-09	1.965945e+01	3.395055e+02
1.590000e-06	2.846429e-06	5.159134e-09	1.971090e+01	3.399912e+02
1.600000e-06	2.852885e-06	5.168150e-09	1.975561e+01	3.404178e+02
1.610000e-06	2.858427e-06	5.173791e-09	1.979398e+01	3.407899e+02
1.620000e-06	2.863088e-06	5.178617e-09	1.982626e+01	3.411109e+02
1.630000e-06	2.866730e-06	5.182741e-09	1.985148e+01	3.413828e+02
1.640000e-06	2.869108e-06	5.185285e-09	1.986795e+01	3.416061e+02
1.650000e-06	2.870315e-06	5.185996e-09	1.987630e+01	3.417796e+02
1.660000e-06	2.870632e-06	5.186720e-09	1.987850e+01	3.419006e+02
1.670000e-06	2.870051e-06	5.189885e-09	1.987447e+01	3.419657e+02
1.680000e-06	2.868514e-06	5.193274e-09	1.986383e+01	3.419710e+02
1.690000e-06	2.866136e-06	5.194337e-09	1.984736e+01	3.419129e+02
1.700000e-06	2.863022e-06	5.193019e-09	1.982580e+01	3.417886e+02
1.710000e-06	2.859046e-06	5.190216e-09	1.979827e+01	3.415962e+02
1.720000e-06	2.853909e-06	5.187032e-09	1.976270e+01	3.413360e+02
1.730000e-06	2.847622e-06	5.180245e-09	1.971916e+01	3.410093e+02
1.740000e-06	2.840460e-06	5.167278e-09	1.966956e+01	3.406193e+02
1.750000e-06	2.832364e-06	5.153603e-09	1.961350e+01	3.401704e+02
1.760000e-06	2.822788e-06	5.165901e-09	1.954719e+01	3.396676e+02
1.770000e-06	2.811638e-06	5.165093e-09	1.946998e+01	3.391162e+02
1.780000e-06	2.799854e-06	5.165637e-09	1.938838e+01	3.385210e+02
1.790000e-06	2.787977e-06	5.128101e-09	1.930613e+01	3.378859e+02
1.800000e-06	2.775010e-06	5.102356e-09	1.921634e+01	3.372132e+02
1.810000e-06	2.760289e-06	5.116722e-09	1.911439e+01	3.365039e+02
1.820000e-06	2.744643e-06	5.101190e-09	1.900605e+01	3.357571e+02
1.830000e-06	2.728498e-06	5.091873e-09	1.889425e+01	3.349702e+02
1.840000e-06	2.711145e-06	5.084281e-09	1.877409e+01	3.341396e+02
1.850000e-06	2.692575e-06	5.094558e-09	1.864549e+01	3.332605e+02
1.860000e-06	2.673416e-06	5.068029e-09	1.851282e+01	3.323279e+02
1.870000e-06	2.653337e-06	5.028825e-09	1.837378e+01	3.313372e+02
1.880000e-06	2.631872e-06	5.048383e-09	1.822514e+01	3.302840e+02
1.890000e-06	2.609402e-06	5.007257e-09	1.806953e+01	3.291651e+02
1.900000e-06	2.586066e-06	4.953986e-09	1.790794e+01	3.279784e+02
1.910000e-06	2.561736e-06	5.006844e-09	1.773946e+01	3.267232e+02
1.920000e-06	2.536715e-06	4.986519e-09	1.756620e+01	3.253995e+02
1.930000e-06	2.510913e-06	4.920973e-09	1.738752e+01	3.240087e+02
1.940000e-06	2.484208e-06	4.924375e-09	1.720259e+01	3.225524e+02
1.950000e-06	2.456886e-06	4.919224e-09	1.701340e+01	3.210327e+02
1.960000e-06	2.428603e-06	4.861884e-09	1.681754e+01	3.194514e+02
1.970000e-06	2.398978e-06	4.842721e-09	1.661240e+01	3.178100e+02
1.980000e-06	2.368412e-06	4.836999e-09	1.640073e+01	3.161097e+02
1.990000e-06	2.337159e-06	4.786860e-09	1.618431e+01	3.143509e+02
2.000000e-06	2.305160e-06	4.779765e-09	1.596273e+01	3.125338e+02
2.010000e-06	2.272388e-06	4.760991e-09	1.573579e+01	3.106581e+02
2.020000e-06	2.238789e-06	4.698267e-09	1.550312e+01	3.087235e+02
2.030000e-06	2.204463e-06	4.672587e-09	1.526542e+01	3.067299e+02
2.040000e-06	2.169547e-06	4.660767e-09	1.502364e+01	3.046777e+02
2.050000e-06	2.133964e-06	4.610327e-09	1.477723e+01	3.025679e+02
2.060000e-06	2.097546e-06	4.568619e-09	1.452504e+01	3.004018e+02
2.070000e-06	2.060060e-06	4.550112e-09	1.426547e+01	2.981817e+02
2.080000e-06	2.021571e-06	4.522980e-09	1.399894e+01	2.959100e+02
2.090000e-06	1.982461e-06	4.485546e-09	1.372811e+01	2.935892e+02
2.100000e-06	1.942823e-06	4.445158e-09	1.345362e+01	2.912217e+02
2.110000e-06	1.902505e-06	4.410109e-09	1.317443e+01	2.888094e+02
2.120000e-06	1.861520e-06	4.368964e-09	1.289062e+01	2.863532e+02
2.130000e-06	1.819916e-06	4.328416e-09	1.260252e+01	2.838529e+02
2.140000e-06	1.777748e-06	4.293133e-09	1.231051e+01	2.813071e+02
2.150000e-06	1.735079e-06	4.256351e-09	1.201504e+01	2.787133e+02
2.160000e-06	1.691979e-06	4.212701e-09	1.171658e+01	2.760679e+02
2.170000e-06	1.648464e-06	4.169962e-09	1.141525e+01	2.733667e+02
2.180000e-06	1.604269e-06	4.136459e-09	1.110921e+01	2.706049e+02
2.190000e-06	1.559375e-06	4.086507e-09	1.079833e+01	2.677781e+02
2.200000e-06	1.514001e-06	4.038660e-09	1.048412e+01	2.648820e+02
2.210000e-06	1.468204e-06	4.006811e-09	1.016699e+01	2.619134e+02
2.220000e-06	1.421952e-06	3.963378e-09	9.846709e+00	2.588702e+02
2.230000e-06	1.375163e-06	3.904509e-09	9.522703e+00	2.557512e+02
2.240000e-06	1.327790e-06	3.857023e-09	9.194652e+00	2.525565e+02
2.250000e-06	1.279811e-06	3.809084e-09	8.862412e+00	2.492874e+02
2.260000e-06	1.231288e-06	3.756330e-09	8.526400e+00	2.459455e+02
2.270000e-06	1.182319e-06	3.711182e-09	8.187300e+00	2.425330e+02
2.280000e-06	1.132934e-06	3.661532e-09	7.845322e+00	2.390520e+02
2.290000e-06	1.083087e-06	3.611131e-09	7.500143e+00	2.355041e+02
2.300000e-06	1.032772e-06	3.555741e-09	7.151720e+00	2.318902e+02
2.310000e-06	9.820558e-07	3.495801e-09	6.800521e+00	2.282105e+02
2.320000e-06	9.310513e-07	3.432635e-09	6.447326e+00	2.244641e+02
2.330000e-06	8.798157e-07	3.369794e-09	6.092531e+00	2.206493e+02
2.340000e-06	8.282694e-07	3.313224e-09	5.735584e+00	2.167635e+02
2.350000e-06	7.762996e-07	3.260991e-09	5.375704e+00	2.128038e+02
2.360000e-06	7.238222e-07	3.204561e-09	5.012310e+00	2.087670e+02
2.370000e-06	6.708876e-07	3.140429e-09	4.645750e+00	2.046498e+02
2.380000e-06	6.175281e-07	3.077993e-09	4.276247e+00	2.004490e+02
2.390000e-06	5.637708e-07	3.016201e-09	3.903989e+00	1.961616e+02
2.400000e-06	5.096772e-07	2.948834e-09	3.529403e+00	1.917848e+02
2.410000e-06	4.553598e-07	2.878480e-09	3.153267e+00	1.873154e+02
2.420000e-06	4.009070e-07	2.814071e-09	2.776193e+00	1.827500e+02
2.430000e-06	3.462688e-07	2.750422e-09	2.397835e+00	1.780847e+02
2.440000e-06	2.914971e-07	2.679411e-09	2.018554e+00	1.733146e+02
2.450000e-06	2.366933e-07	2.602295e-09	1.639049e+00	1.684336e+02
2.460000e-06	1.818442e-07	2.525667e-09	1.259231e+00	1.634344e+02
2.470000e-06	1.269378e-07	2.449411e-09	8.790168e-01	1.583087e+02
2.480000e-06	7.200718e-08	2.367836e-09	4.986339e-01	1.530471e+02
2.490000e-06	1.705278e-08	2.284493e-09	1.180868e-01	1.476396e+02
2.500000e-06	-3.791297e-08	2.200965e-09	-2.625390e-01	1.420764e+02
2.510000e-06	-9.287548e-08	2.116905e-09	-6.431424e-01	1.363476e+02
2.520000e-06	-1.478224e-07	2.029390e-09	-1.023638e+00	1.304443e+02
2.530000e-06	-2.027122e-07	1.935167e-09	-1.403737e+00	1.243586e+02
2.540000e-06	-2.575456e-07	1.836544e-09	-1.783447e+00	1.180836e+02
2.550000e-06	-3.122975e-07	1.738467e-09	-2.162592e+00	1.116135e+02
2.560000e-06	-3.669773e-07	1.642428e-09	-2.541237e+00	1.049426e+02
2.570000e-06	-4.215542e-07	1.540915e-09	-2.919171e+00	9.806492e+01
2.580000e-06	-4.759594e-07	1.431832e-09	-3.295914e+00	9.097310e+01
2.590000e-06	-5.302001e-07	1.319672e-09	-3.671519e+00	8.365726e+01
2.600000e-06	-5.841927e-07	1.207780e-09	-4.045406e+00	7.610399e+01
2.610000e-06	-6.378048e-07	1.090916e-09	-4.416659e+00	6.829554e+01
2.620000e-06	-6.909792e-07	9.657423e-10	-4.784879e+00	6.020935e+01
2.630000e-06	-7.436715e-07	8.364603e-10	-5.149762e+00	5.181806e+01
2.640000e-06	-7.958394e-07	7.050913e-10	-5.511013e+00	4.309025e+01
2.650000e-06	-8.475640e-07	5.682270e-10	-5.869195e+00	3.399179e+01
2.660000e-06	-8.989745e-07	4.217708e-10	-6.225201e+00	2.448795e+01
2.670000e-06	-9.501097e-07	2.688141e-10	-6.579302e+00	1.454598e+01
2.680000e-06	-1.000985e-06	1.118446e-10	-6.931600e+00	4.138282e+00
2.690000e-06	-1.051506e-06	-5.020881e-11	-7.281449e+00	-6.754306e+00
2.700000e-06	-1.101552e-06	-2.208505e-10	-7.628003e+00	-1.813924e+01
2.710000e-06	-1.151108e-06	-3.994870e-10	-7.971171e+00	-3.000933e+01
2.720000e-06	-1.200203e-06	-5.856855e-10	-8.311145e+00	-4.234047e+01
2.730000e-06	-1.248894e-06	-7.797215e-10	-8.648320e+00	-5.509022e+01
2.740000e-06	-1.296989e-06	-9.816990e-10	-8.981365e+00	-6.819749e+01
2.750000e-06	-1.344251e-06	-1.190124e-09	-9.308645e+00	-8.158342e+01
2.760000e-06	-1.390699e-06	-1.401084e-09	-9.630285e+00	-9.515353e+01
2.770000e-06	-1.436572e-06	-1.612336e-09	-9.947948e+00	-1.088009e+02
2.780000e-06	-1.482108e-06	-1.823589e-09	-1.026327e+01	-1.224104e+02
2.790000e-06	-1.527320e-06	-2.034644e-09	-1.057635e+01	-1.358635e+02
2.800000e-06	-1.572174e-06	-2.238419e-09	-1.088696e+01	-1.490436e+02
2.810000e-06	-1.616511e-06	-2.430976e-09	-1.119398e+01	-1.618411e+02
2.820000e-06	-1.660210e-06	-2.617681e-09	-1.149659e+01	-1.741582e+02
2.830000e-06	-1.703441e-06	-2.800398e-09	-1.179595e+01	-1.859128e+02
2.840000e-06	-1.746324e-06	-2.973477e-09	-1.209291e+01	-1.970418e+02
2.850000e-06	-1.788750e-06	-3.133010e-09	-1.238670e+01	-2.075025e+02
2.860000e-06	-1.830589e-06	-3.282889e-09	-1.267642e+01	-2.172729e+02
2.870000e-06	-1.871804e-06	-3.424724e-09	-1.296183e+01	-2.263515e+02
2.880000e-06	-1.912363e-06	-3.555321e-09	-1.324270e+01	-2.347544e+02
2.890000e-06	-1.952207e-06	-3.673018e-09	-1.351861e+01	-2.425132e+02
2.900000e-06	-1.991447e-06	-3.782529e-09	-1.379033e+01	-2.496705e+02
2.910000e-06	-2.030233e-06	-3.885130e-09	-1.405892e+01	-2.562763e+02
2.920000e-06	-2.068294e-06	-3.980290e-09	-1.432249e+01	-2.623842e+02
2.930000e-06	-2.105255e-06	-4.069108e-09	-1.457843e+01	-2.680474e+02
2.940000e-06	-2.141163e-06	-4.151983e-09	-1.482709e+01	-2.733158e+02
