# Temperatura_=_28.67
# Concentracion g/m^3_=_15500.0
# C_Vs_to_Am_M_A/Vsm_=_65563218390.804596
# pendiente_HvsI_1/m_=_3716.3
# ordenada_HvsI_A/m_=_1297.0
# frecuencia_Hz_=_300835.2389256795

Tiempo_(s)	Campo_(V.s)	Magnetizacion_(V.s)	Campo_(kA/m)	Magnetizacion_(A/m)
0.000000e+00	-2.860819e-06	-5.221799e-09	-1.980699e+01	-3.422353e+02
1.000000e-08	-2.860442e-06	-5.216847e-09	-1.980438e+01	-3.422481e+02
2.000000e-08	-2.859287e-06	-5.210973e-09	-1.979638e+01	-3.421972e+02
3.000000e-08	-2.857056e-06	-5.210325e-09	-1.978094e+01	-3.420798e+02
4.000000e-08	-2.853602e-06	-5.209261e-09	-1.975702e+01	-3.418940e+02
5.000000e-08	-2.849149e-06	-5.205723e-09	-1.972619e+01	-3.416395e+02
6.000000e-08	-2.843896e-06	-5.201989e-09	-1.968982e+01	-3.413177e+02
7.000000e-08	-2.837819e-06	-5.208947e-09	-1.964775e+01	-3.409317e+02
8.000000e-08	-2.830766e-06	-5.217975e-09	-1.959892e+01	-3.404859e+02
9.000000e-08	-2.822610e-06	-5.180469e-09	-1.954245e+01	-3.399861e+02
1.000000e-07	-2.813185e-06	-5.109503e-09	-1.947720e+01	-3.394381e+02
1.100000e-07	-2.802385e-06	-5.128486e-09	-1.940242e+01	-3.388479e+02
1.200000e-07	-2.790551e-06	-5.231868e-09	-1.932049e+01	-3.382204e+02
1.300000e-07	-2.777948e-06	-5.183473e-09	-1.923323e+01	-3.375594e+02
1.400000e-07	-2.764382e-06	-5.051258e-09	-1.913930e+01	-3.368668e+02
1.500000e-07	-2.749792e-06	-5.108033e-09	-1.903829e+01	-3.361428e+02
1.600000e-07	-2.734121e-06	-5.217606e-09	-1.892979e+01	-3.353854e+02
1.700000e-07	-2.717064e-06	-5.075527e-09	-1.881170e+01	-3.345911e+02
1.800000e-07	-2.698835e-06	-5.030339e-09	-1.868548e+01	-3.337552e+02
1.900000e-07	-2.679909e-06	-5.174897e-09	-1.855445e+01	-3.328723e+02
2.000000e-07	-2.660278e-06	-5.076812e-09	-1.841854e+01	-3.319367e+02
2.100000e-07	-2.639788e-06	-4.987849e-09	-1.827667e+01	-3.309434e+02
2.200000e-07	-2.618487e-06	-5.102676e-09	-1.812920e+01	-3.298882e+02
2.300000e-07	-2.596339e-06	-5.067672e-09	-1.797585e+01	-3.287681e+02
2.400000e-07	-2.573229e-06	-4.949401e-09	-1.781585e+01	-3.275815e+02
2.500000e-07	-2.549262e-06	-4.997909e-09	-1.764991e+01	-3.263284e+02
2.600000e-07	-2.524527e-06	-5.000104e-09	-1.747866e+01	-3.250099e+02
2.700000e-07	-2.498894e-06	-4.931684e-09	-1.730119e+01	-3.236280e+02
2.800000e-07	-2.472171e-06	-4.920650e-09	-1.711617e+01	-3.221851e+02
2.900000e-07	-2.444331e-06	-4.903609e-09	-1.692342e+01	-3.206840e+02
3.000000e-07	-2.415535e-06	-4.874208e-09	-1.672405e+01	-3.191267e+02
3.100000e-07	-2.385955e-06	-4.871993e-09	-1.651925e+01	-3.175151e+02
3.200000e-07	-2.355653e-06	-4.811833e-09	-1.630945e+01	-3.158500e+02
3.300000e-07	-2.324614e-06	-4.800399e-09	-1.609455e+01	-3.141314e+02
3.400000e-07	-2.292779e-06	-4.822003e-09	-1.587414e+01	-3.123587e+02
3.500000e-07	-2.260231e-06	-4.729814e-09	-1.564880e+01	-3.105308e+02
3.600000e-07	-2.227055e-06	-4.714415e-09	-1.541910e+01	-3.086461e+02
3.700000e-07	-2.193021e-06	-4.731602e-09	-1.518346e+01	-3.067034e+02
3.800000e-07	-2.157881e-06	-4.646036e-09	-1.494017e+01	-3.047018e+02
3.900000e-07	-2.121744e-06	-4.625312e-09	-1.468997e+01	-3.026408e+02
4.000000e-07	-2.084895e-06	-4.652799e-09	-1.443485e+01	-3.005207e+02
4.100000e-07	-2.047423e-06	-4.571743e-09	-1.417541e+01	-2.983425e+02
4.200000e-07	-2.009267e-06	-4.519628e-09	-1.391124e+01	-2.961077e+02
4.300000e-07	-1.970375e-06	-4.523392e-09	-1.364196e+01	-2.938180e+02
4.400000e-07	-1.930702e-06	-4.473801e-09	-1.336729e+01	-2.914752e+02
4.500000e-07	-1.890408e-06	-4.427305e-09	-1.308831e+01	-2.890806e+02
4.600000e-07	-1.849735e-06	-4.398178e-09	-1.280671e+01	-2.866350e+02
4.700000e-07	-1.808628e-06	-4.359714e-09	-1.252210e+01	-2.841383e+02
4.800000e-07	-1.766771e-06	-4.320931e-09	-1.223230e+01	-2.815893e+02
4.900000e-07	-1.723903e-06	-4.281719e-09	-1.193551e+01	-2.789860e+02
5.000000e-07	-1.680090e-06	-4.228171e-09	-1.163217e+01	-2.763256e+02
5.100000e-07	-1.635643e-06	-4.191172e-09	-1.132444e+01	-2.736045e+02
5.200000e-07	-1.590747e-06	-4.158407e-09	-1.101360e+01	-2.708192e+02
5.300000e-07	-1.545431e-06	-4.113522e-09	-1.069985e+01	-2.679659e+02
5.400000e-07	-1.499622e-06	-4.071550e-09	-1.038269e+01	-2.650417e+02
5.500000e-07	-1.453241e-06	-4.018516e-09	-1.006157e+01	-2.620441e+02
5.600000e-07	-1.406383e-06	-3.962864e-09	-9.737149e+00	-2.589719e+02
5.700000e-07	-1.359055e-06	-3.921610e-09	-9.409472e+00	-2.558245e+02
5.800000e-07	-1.311184e-06	-3.878109e-09	-9.078034e+00	-2.526025e+02
5.900000e-07	-1.262877e-06	-3.819132e-09	-8.743577e+00	-2.493068e+02
6.000000e-07	-1.214201e-06	-3.777640e-09	-8.406570e+00	-2.459392e+02
6.100000e-07	-1.165125e-06	-3.735619e-09	-8.066787e+00	-2.425011e+02
6.200000e-07	-1.115575e-06	-3.673796e-09	-7.723727e+00	-2.389939e+02
6.300000e-07	-1.065312e-06	-3.610863e-09	-7.375732e+00	-2.354182e+02
6.400000e-07	-1.014388e-06	-3.552510e-09	-7.023153e+00	-2.317740e+02
6.500000e-07	-9.630437e-07	-3.499197e-09	-6.667670e+00	-2.280602e+02
6.600000e-07	-9.112081e-07	-3.443234e-09	-6.308784e+00	-2.242752e+02
6.700000e-07	-8.589556e-07	-3.383151e-09	-5.947012e+00	-2.204164e+02
6.800000e-07	-8.064359e-07	-3.318042e-09	-5.583390e+00	-2.164809e+02
6.900000e-07	-7.536728e-07	-3.256576e-09	-5.218082e+00	-2.124658e+02
7.000000e-07	-7.006931e-07	-3.195826e-09	-4.851275e+00	-2.083679e+02
7.100000e-07	-6.474866e-07	-3.131211e-09	-4.482898e+00	-2.041847e+02
7.200000e-07	-5.940086e-07	-3.064714e-09	-4.112641e+00	-1.999140e+02
7.300000e-07	-5.402888e-07	-2.997937e-09	-3.740710e+00	-1.955539e+02
7.400000e-07	-4.863618e-07	-2.931686e-09	-3.367344e+00	-1.911027e+02
7.500000e-07	-4.322493e-07	-2.859491e-09	-2.992695e+00	-1.865588e+02
7.600000e-07	-3.779782e-07	-2.783872e-09	-2.616947e+00	-1.819200e+02
7.700000e-07	-3.235610e-07	-2.708139e-09	-2.240187e+00	-1.771834e+02
7.800000e-07	-2.690930e-07	-2.637292e-09	-1.863075e+00	-1.723448e+02
7.900000e-07	-2.145686e-07	-2.564628e-09	-1.485574e+00	-1.673987e+02
8.000000e-07	-1.599533e-07	-2.486622e-09	-1.107443e+00	-1.623377e+02
8.100000e-07	-1.053060e-07	-2.405133e-09	-7.290902e-01	-1.571532e+02
8.200000e-07	-5.064564e-08	-2.322191e-09	-3.506470e-01	-1.518353e+02
8.300000e-07	4.008213e-09	-2.239343e-09	2.775102e-02	-1.463731e+02
8.400000e-07	5.864356e-08	-2.150501e-09	4.060209e-01	-1.407554e+02
8.500000e-07	1.132688e-07	-2.057786e-09	7.842209e-01	-1.349712e+02
8.600000e-07	1.678880e-07	-1.965753e-09	1.162379e+00	-1.290101e+02
8.700000e-07	2.224862e-07	-1.876254e-09	1.540392e+00	-1.228630e+02
8.800000e-07	2.770062e-07	-1.782930e-09	1.917863e+00	-1.165217e+02
8.900000e-07	3.314809e-07	-1.682231e-09	2.295021e+00	-1.099791e+02
9.000000e-07	3.858900e-07	-1.576951e-09	2.671724e+00	-1.032283e+02
9.100000e-07	4.401590e-07	-1.471000e-09	3.047458e+00	-9.626249e+01
9.200000e-07	4.942469e-07	-1.361475e-09	3.421937e+00	-8.907333e+01
9.300000e-07	5.481220e-07	-1.245749e-09	3.794943e+00	-8.165017e+01
9.400000e-07	6.017353e-07	-1.127342e-09	4.166137e+00	-7.397899e+01
9.500000e-07	6.550934e-07	-1.005230e-09	4.535564e+00	-6.604153e+01
9.600000e-07	7.082065e-07	-8.779860e-10	4.903295e+00	-5.781491e+01
9.700000e-07	7.610860e-07	-7.448236e-10	5.269408e+00	-4.927176e+01
9.800000e-07	8.137294e-07	-6.088690e-10	5.633886e+00	-4.038093e+01
9.900000e-07	8.660644e-07	-4.668555e-10	5.996230e+00	-3.110905e+01
1.000000e-06	9.180672e-07	-3.170271e-10	6.356273e+00	-2.142260e+01
1.010000e-06	9.696511e-07	-1.584359e-10	6.713417e+00	-1.129068e+01
1.020000e-06	1.020664e-06	7.838987e-12	7.066609e+00	-6.881488e-01
1.030000e-06	1.071030e-06	1.777043e-10	7.415315e+00	1.040105e+01
1.040000e-06	1.120759e-06	3.533811e-10	7.759615e+00	2.198067e+01
1.050000e-06	1.169919e-06	5.363876e-10	8.099982e+00	3.403934e+01
1.060000e-06	1.218723e-06	7.268972e-10	8.437878e+00	4.654843e+01
1.070000e-06	1.267286e-06	9.205710e-10	8.774101e+00	5.946083e+01
1.080000e-06	1.315499e-06	1.119844e-09	9.107910e+00	7.271094e+01
1.090000e-06	1.363219e-06	1.326396e-09	9.438302e+00	8.621577e+01
1.100000e-06	1.410430e-06	1.535990e-09	9.765166e+00	9.987731e+01
1.110000e-06	1.457153e-06	1.745649e-09	1.008866e+01	1.135861e+02
1.120000e-06	1.503348e-06	1.952862e-09	1.040849e+01	1.272254e+02
1.130000e-06	1.549034e-06	2.155868e-09	1.072479e+01	1.406767e+02
1.140000e-06	1.594236e-06	2.353949e-09	1.103775e+01	1.538243e+02
1.150000e-06	1.639036e-06	2.548174e-09	1.134793e+01	1.665609e+02
1.160000e-06	1.683457e-06	2.734298e-09	1.165548e+01	1.787923e+02
1.170000e-06	1.727284e-06	2.910134e-09	1.195892e+01	1.904408e+02
1.180000e-06	1.770253e-06	3.074977e-09	1.225641e+01	2.014483e+02
1.190000e-06	1.812270e-06	3.229779e-09	1.254732e+01	2.117775e+02
1.200000e-06	1.853477e-06	3.374579e-09	1.283262e+01	2.214123e+02
1.210000e-06	1.894129e-06	3.510185e-09	1.311408e+01	2.303561e+02
1.220000e-06	1.934284e-06	3.637357e-09	1.339209e+01	2.386298e+02
1.230000e-06	1.973775e-06	3.754273e-09	1.366550e+01	2.462686e+02
1.240000e-06	2.012591e-06	3.863105e-09	1.393425e+01	2.533181e+02
1.250000e-06	2.050735e-06	3.962369e-09	1.419834e+01	2.598300e+02
1.260000e-06	2.088136e-06	4.051133e-09	1.445729e+01	2.658587e+02
1.270000e-06	2.124968e-06	4.132682e-09	1.471230e+01	2.714569e+02
1.280000e-06	2.161265e-06	4.210504e-09	1.496360e+01	2.766736e+02
1.290000e-06	2.196752e-06	4.284269e-09	1.520930e+01	2.815511e+02
1.300000e-06	2.231176e-06	4.354899e-09	1.544763e+01	2.861247e+02
1.310000e-06	2.264624e-06	4.420516e-09	1.567921e+01	2.904216e+02
1.320000e-06	2.297330e-06	4.480339e-09	1.590565e+01	2.944620e+02
1.330000e-06	2.329297e-06	4.536801e-09	1.612697e+01	2.982598e+02
1.340000e-06	2.360526e-06	4.589720e-09	1.634319e+01	3.018246e+02
1.350000e-06	2.390971e-06	4.638970e-09	1.655398e+01	3.051629e+02
1.360000e-06	2.420605e-06	4.683649e-09	1.675915e+01	3.082806e+02
1.370000e-06	2.449562e-06	4.725041e-09	1.695963e+01	3.111835e+02
1.380000e-06	2.477807e-06	4.764022e-09	1.715519e+01	3.138793e+02
1.390000e-06	2.505012e-06	4.799797e-09	1.734354e+01	3.163776e+02
1.400000e-06	2.531023e-06	4.833858e-09	1.752363e+01	3.186906e+02
1.410000e-06	2.556043e-06	4.867547e-09	1.769686e+01	3.208322e+02
1.420000e-06	2.580178e-06	4.898842e-09	1.786396e+01	3.228178e+02
1.430000e-06	2.603419e-06	4.926828e-09	1.802487e+01	3.246632e+02
1.440000e-06	2.625747e-06	4.953040e-09	1.817946e+01	3.263837e+02
1.450000e-06	2.647234e-06	4.976658e-09	1.832822e+01	3.279929e+02
1.460000e-06	2.667970e-06	4.996420e-09	1.847179e+01	3.295026e+02
1.470000e-06	2.687902e-06	5.014648e-09	1.860979e+01	3.309216e+02
1.480000e-06	2.706912e-06	5.033509e-09	1.874141e+01	3.322560e+02
1.490000e-06	2.724991e-06	5.052920e-09	1.886658e+01	3.335094e+02
1.500000e-06	2.742068e-06	5.071612e-09	1.898482e+01	3.346829e+02
1.510000e-06	2.758039e-06	5.090343e-09	1.909539e+01	3.357765e+02
1.520000e-06	2.772967e-06	5.109049e-09	1.919874e+01	3.367892e+02
1.530000e-06	2.786875e-06	5.124587e-09	1.929504e+01	3.377200e+02
1.540000e-06	2.799730e-06	5.135550e-09	1.938404e+01	3.385686e+02
1.550000e-06	2.811374e-06	5.143296e-09	1.946465e+01	3.393357e+02
1.560000e-06	2.821729e-06	5.150295e-09	1.953635e+01	3.400235e+02
1.570000e-06	2.830963e-06	5.159966e-09	1.960028e+01	3.406354e+02
1.580000e-06	2.839237e-06	5.172409e-09	1.965756e+01	3.411756e+02
1.590000e-06	2.846644e-06	5.183818e-09	1.970885e+01	3.416491e+02
1.600000e-06	2.853119e-06	5.192706e-09	1.975368e+01	3.420609e+02
1.610000e-06	2.858634e-06	5.200383e-09	1.979186e+01	3.424151e+02
1.620000e-06	2.863325e-06	5.208026e-09	1.982434e+01	3.427150e+02
1.630000e-06	2.867038e-06	5.212203e-09	1.985005e+01	3.429625e+02
1.640000e-06	2.869483e-06	5.211585e-09	1.986698e+01	3.431578e+02
1.650000e-06	2.870786e-06	5.210762e-09	1.987599e+01	3.432994e+02
1.660000e-06	2.871148e-06	5.211237e-09	1.987850e+01	3.433850e+02
1.670000e-06	2.870621e-06	5.211147e-09	1.987485e+01	3.434111e+02
1.680000e-06	2.869160e-06	5.210911e-09	1.986474e+01	3.433743e+02
1.690000e-06	2.866818e-06	5.211423e-09	1.984852e+01	3.432715e+02
1.700000e-06	2.863692e-06	5.213833e-09	1.982688e+01	3.431007e+02
1.710000e-06	2.859706e-06	5.215576e-09	1.979929e+01	3.428611e+02
1.720000e-06	2.854599e-06	5.208064e-09	1.976393e+01	3.425537e+02
1.730000e-06	2.848341e-06	5.179236e-09	1.972059e+01	3.421813e+02
1.740000e-06	2.841248e-06	5.160624e-09	1.967149e+01	3.417481e+02
1.750000e-06	2.833186e-06	5.202800e-09	1.961567e+01	3.412595e+02
1.760000e-06	2.823697e-06	5.237346e-09	1.954998e+01	3.407215e+02
1.770000e-06	2.812771e-06	5.159209e-09	1.947432e+01	3.401401e+02
1.780000e-06	2.801110e-06	5.073961e-09	1.939359e+01	3.395204e+02
1.790000e-06	2.789156e-06	5.175527e-09	1.931083e+01	3.388666e+02
1.800000e-06	2.776187e-06	5.223979e-09	1.922104e+01	3.381809e+02
1.810000e-06	2.761654e-06	5.049223e-09	1.912041e+01	3.374639e+02
1.820000e-06	2.746119e-06	5.046204e-09	1.901286e+01	3.367140e+02
1.830000e-06	2.729905e-06	5.217405e-09	1.890060e+01	3.359282e+02
1.840000e-06	2.712567e-06	5.142929e-09	1.878056e+01	3.351019e+02
1.850000e-06	2.694121e-06	4.999215e-09	1.865285e+01	3.342297e+02
1.860000e-06	2.674975e-06	5.137259e-09	1.852029e+01	3.333061e+02
1.870000e-06	2.654892e-06	5.138367e-09	1.838125e+01	3.323258e+02
1.880000e-06	2.633541e-06	4.946254e-09	1.823342e+01	3.312843e+02
1.890000e-06	2.611104e-06	5.054437e-09	1.807808e+01	3.301785e+02
1.900000e-06	2.587754e-06	5.113335e-09	1.791641e+01	3.290064e+02
1.910000e-06	2.563514e-06	4.958054e-09	1.774859e+01	3.277677e+02
1.920000e-06	2.538520e-06	4.991624e-09	1.757554e+01	3.264633e+02
1.930000e-06	2.512725e-06	5.000814e-09	1.739695e+01	3.250949e+02
1.940000e-06	2.486119e-06	4.912788e-09	1.721274e+01	3.236651e+02
1.950000e-06	2.458765e-06	4.948497e-09	1.702336e+01	3.221764e+02
1.960000e-06	2.430389e-06	4.906033e-09	1.682689e+01	3.206312e+02
1.970000e-06	2.400841e-06	4.842996e-09	1.662232e+01	3.190313e+02
1.980000e-06	2.370273e-06	4.909246e-09	1.641067e+01	3.173778e+02
1.990000e-06	2.338916e-06	4.829189e-09	1.619357e+01	3.156709e+02
2.000000e-06	2.306869e-06	4.751851e-09	1.597170e+01	3.139101e+02
2.010000e-06	2.274079e-06	4.829473e-09	1.574467e+01	3.120943e+02
2.020000e-06	2.240488e-06	4.738278e-09	1.551211e+01	3.102221e+02
2.030000e-06	2.206157e-06	4.671797e-09	1.527441e+01	3.082921e+02
2.040000e-06	2.171212e-06	4.740532e-09	1.503247e+01	3.063034e+02
2.050000e-06	2.135644e-06	4.638616e-09	1.478621e+01	3.042553e+02
2.060000e-06	2.099302e-06	4.571136e-09	1.453460e+01	3.021480e+02
2.070000e-06	2.061904e-06	4.617208e-09	1.427567e+01	2.999824e+02
2.080000e-06	2.023479e-06	4.552485e-09	1.400963e+01	2.977597e+02
2.090000e-06	1.984375e-06	4.504547e-09	1.373889e+01	2.954819e+02
2.100000e-06	1.944675e-06	4.495088e-09	1.346403e+01	2.931505e+02
2.110000e-06	1.904362e-06	4.443553e-09	1.318492e+01	2.907671e+02
2.120000e-06	1.863434e-06	4.413324e-09	1.290156e+01	2.883326e+02
2.130000e-06	1.821915e-06	4.361025e-09	1.261410e+01	2.858471e+02
2.140000e-06	1.779784e-06	4.315689e-09	1.232240e+01	2.833096e+02
2.150000e-06	1.737066e-06	4.304610e-09	1.202665e+01	2.807184e+02
2.160000e-06	1.693873e-06	4.256507e-09	1.172760e+01	2.780707e+02
2.170000e-06	1.650179e-06	4.204250e-09	1.142507e+01	2.753631e+02
2.180000e-06	1.605942e-06	4.164147e-09	1.111880e+01	2.725920e+02
2.190000e-06	1.561092e-06	4.120769e-09	1.080828e+01	2.697538e+02
2.200000e-06	1.515683e-06	4.072407e-09	1.049389e+01	2.668452e+02
2.210000e-06	1.469848e-06	4.031970e-09	1.017655e+01	2.638637e+02
2.220000e-06	1.423562e-06	3.994057e-09	9.856088e+00	2.608078e+02
2.230000e-06	1.376794e-06	3.937661e-09	9.532289e+00	2.576767e+02
2.240000e-06	1.329448e-06	3.889242e-09	9.204484e+00	2.544707e+02
2.250000e-06	1.281424e-06	3.846950e-09	8.871987e+00	2.511910e+02
2.260000e-06	1.232826e-06	3.781860e-09	8.535521e+00	2.478388e+02
2.270000e-06	1.183821e-06	3.729297e-09	8.196229e+00	2.444159e+02
2.280000e-06	1.134416e-06	3.687526e-09	7.854175e+00	2.409236e+02
2.290000e-06	1.084554e-06	3.631335e-09	7.508948e+00	2.373628e+02
2.300000e-06	1.034227e-06	3.578784e-09	7.160513e+00	2.337335e+02
2.310000e-06	9.835075e-07	3.517081e-09	6.809352e+00	2.300349e+02
2.320000e-06	9.324955e-07	3.456852e-09	6.456168e+00	2.262655e+02
2.330000e-06	8.812142e-07	3.400597e-09	6.101120e+00	2.224230e+02
2.340000e-06	8.296035e-07	3.338017e-09	5.743791e+00	2.185044e+02
2.350000e-06	7.775957e-07	3.280558e-09	5.383714e+00	2.145068e+02
2.360000e-06	7.251474e-07	3.218496e-09	5.020585e+00	2.104271e+02
2.370000e-06	6.722479e-07	3.153452e-09	4.654334e+00	2.062626e+02
2.380000e-06	6.189100e-07	3.091156e-09	4.285047e+00	2.020110e+02
2.390000e-06	5.651525e-07	3.028197e-09	3.912855e+00	1.976703e+02
2.400000e-06	5.110812e-07	2.963228e-09	3.538490e+00	1.932390e+02
2.410000e-06	4.567947e-07	2.894620e-09	3.162636e+00	1.887153e+02
2.420000e-06	4.023312e-07	2.828829e-09	2.785556e+00	1.840973e+02
2.430000e-06	3.476978e-07	2.763127e-09	2.407299e+00	1.793821e+02
2.440000e-06	2.929071e-07	2.685352e-09	2.027953e+00	1.745660e+02
2.450000e-06	2.380319e-07	2.603469e-09	1.648023e+00	1.696436e+02
2.460000e-06	1.831324e-07	2.526999e-09	1.267924e+00	1.646081e+02
2.470000e-06	1.282212e-07	2.452291e-09	8.877444e-01	1.594511e+02
2.480000e-06	7.327849e-08	2.373228e-09	5.073464e-01	1.541629e+02
2.490000e-06	1.831261e-08	2.287267e-09	1.267880e-01	1.487327e+02
2.500000e-06	-3.666003e-08	2.205144e-09	-2.538171e-01	1.431495e+02
2.510000e-06	-9.163951e-08	2.123015e-09	-6.344697e-01	1.374020e+02
2.520000e-06	-1.465915e-07	2.033210e-09	-1.014932e+00	1.314799e+02
2.530000e-06	-2.015069e-07	1.937467e-09	-1.395141e+00	1.253736e+02
2.540000e-06	-2.563648e-07	1.839241e-09	-1.774951e+00	1.190748e+02
2.550000e-06	-3.111531e-07	1.740496e-09	-2.154280e+00	1.125760e+02
2.560000e-06	-3.658479e-07	1.638802e-09	-2.532962e+00	1.058706e+02
2.570000e-06	-4.204160e-07	1.534249e-09	-2.910766e+00	9.895168e+01
2.580000e-06	-4.748607e-07	1.428482e-09	-3.287716e+00	9.181137e+01
2.590000e-06	-5.291007e-07	1.321222e-09	-3.663249e+00	8.443960e+01
2.600000e-06	-5.830249e-07	1.209082e-09	-4.036595e+00	7.682315e+01
2.610000e-06	-6.366066e-07	1.090525e-09	-4.407570e+00	6.894471e+01
2.620000e-06	-6.897111e-07	9.625267e-10	-4.775241e+00	6.078241e+01
2.630000e-06	-7.422925e-07	8.290937e-10	-5.139290e+00	5.230978e+01
2.640000e-06	-7.944605e-07	6.933918e-10	-5.500477e+00	4.349642e+01
2.650000e-06	-8.462804e-07	5.548555e-10	-5.859255e+00	3.430924e+01
2.660000e-06	-8.977618e-07	4.123962e-10	-6.215688e+00	2.471456e+01
2.670000e-06	-9.489523e-07	2.638113e-10	-6.570108e+00	1.468065e+01
2.680000e-06	-9.998760e-07	1.082357e-10	-6.922679e+00	4.180872e+00
2.690000e-06	-1.050377e-06	-5.778680e-11	-7.272328e+00	-6.803064e+00
2.700000e-06	-1.100418e-06	-2.335509e-10	-7.618788e+00	-1.827780e+01
2.710000e-06	-1.150085e-06	-4.161238e-10	-7.962661e+00	-3.023542e+01
2.720000e-06	-1.199314e-06	-6.034262e-10	-8.303497e+00	-4.265112e+01
2.730000e-06	-1.248059e-06	-7.970314e-10	-8.640985e+00	-5.548181e+01
2.740000e-06	-1.296154e-06	-9.986610e-10	-8.973971e+00	-6.866579e+01
2.750000e-06	-1.343464e-06	-1.205029e-09	-9.301523e+00	-8.212361e+01
2.760000e-06	-1.390092e-06	-1.414251e-09	-9.624355e+00	-9.576027e+01
2.770000e-06	-1.436118e-06	-1.627402e-09	-9.943019e+00	-1.094684e+02
2.780000e-06	-1.481710e-06	-1.841998e-09	-1.025868e+01	-1.231324e+02
2.790000e-06	-1.526958e-06	-2.052454e-09	-1.057195e+01	-1.366337e+02
2.800000e-06	-1.571806e-06	-2.254570e-09	-1.088246e+01	-1.498556e+02
2.810000e-06	-1.616118e-06	-2.447611e-09	-1.118926e+01	-1.626885e+02
2.820000e-06	-1.659862e-06	-2.636519e-09	-1.149212e+01	-1.750351e+02
2.830000e-06	-1.703141e-06	-2.819363e-09	-1.179176e+01	-1.868139e+02
2.840000e-06	-1.746021e-06	-2.990195e-09	-1.208864e+01	-1.979624e+02
2.850000e-06	-1.788475e-06	-3.147534e-09	-1.238258e+01	-2.084389e+02
2.860000e-06	-1.830369e-06	-3.296436e-09	-1.267263e+01	-2.182226e+02
2.870000e-06	-1.871574e-06	-3.439342e-09	-1.295792e+01	-2.273130e+02
2.880000e-06	-1.912090e-06	-3.571116e-09	-1.323843e+01	-2.357276e+02
2.890000e-06	-1.952026e-06	-3.689397e-09	-1.351493e+01	-2.434988e+02
2.900000e-06	-1.991420e-06	-3.797875e-09	-1.378767e+01	-2.506701e+02
2.910000e-06	-2.030230e-06	-3.901378e-09	-1.405637e+01	-2.572925e+02
2.920000e-06	-2.068297e-06	-3.999793e-09	-1.431993e+01	-2.634200e+02
2.930000e-06	-2.105355e-06	-4.088527e-09	-1.457651e+01	-2.691060e+02
2.940000e-06	-2.141408e-06	-4.167144e-09	-1.482612e+01	-2.744004e+02
