# Temperatura_=_27.74
# Concentracion g/m^3_=_15500.0
# C_Vs_to_Am_M_A/Vsm_=_65563218390.804596
# pendiente_HvsI_1/m_=_3716.3
# ordenada_HvsI_A/m_=_1297.0
# frecuencia_Hz_=_300832.6195941413

Tiempo_(s)	Campo_(V.s)	Magnetizacion_(V.s)	Campo_(kA/m)	Magnetizacion_(A/m)
0.000000e+00	-2.862738e-06	-5.221119e-09	-1.980604e+01	-3.419366e+02
1.000000e-08	-2.862366e-06	-5.219313e-09	-1.980346e+01	-3.419851e+02
2.000000e-08	-2.861232e-06	-5.213301e-09	-1.979562e+01	-3.419677e+02
3.000000e-08	-2.859148e-06	-5.210554e-09	-1.978120e+01	-3.418803e+02
4.000000e-08	-2.855793e-06	-5.210467e-09	-1.975799e+01	-3.417207e+02
5.000000e-08	-2.851338e-06	-5.208255e-09	-1.972717e+01	-3.414886e+02
6.000000e-08	-2.846137e-06	-5.201920e-09	-1.969119e+01	-3.411858e+02
7.000000e-08	-2.840128e-06	-5.195905e-09	-1.964961e+01	-3.408164e+02
8.000000e-08	-2.833080e-06	-5.197368e-09	-1.960085e+01	-3.403863e+02
9.000000e-08	-2.824937e-06	-5.202719e-09	-1.954451e+01	-3.399026e+02
1.000000e-07	-2.815549e-06	-5.195052e-09	-1.947956e+01	-3.393726e+02
1.100000e-07	-2.804703e-06	-5.161880e-09	-1.940452e+01	-3.388035e+02
1.200000e-07	-2.792753e-06	-5.136333e-09	-1.932184e+01	-3.382009e+02
1.300000e-07	-2.780040e-06	-5.147753e-09	-1.923389e+01	-3.375687e+02
1.400000e-07	-2.766377e-06	-5.154692e-09	-1.913936e+01	-3.369084e+02
1.500000e-07	-2.751804e-06	-5.130524e-09	-1.903854e+01	-3.362190e+02
1.600000e-07	-2.736269e-06	-5.109396e-09	-1.893106e+01	-3.354972e+02
1.700000e-07	-2.719296e-06	-5.131776e-09	-1.881362e+01	-3.347374e+02
1.800000e-07	-2.701044e-06	-5.122507e-09	-1.868735e+01	-3.339328e+02
1.900000e-07	-2.682203e-06	-5.082081e-09	-1.855700e+01	-3.330758e+02
2.000000e-07	-2.662680e-06	-5.087616e-09	-1.842192e+01	-3.321591e+02
2.100000e-07	-2.642167e-06	-5.071878e-09	-1.828000e+01	-3.311761e+02
2.200000e-07	-2.620883e-06	-5.020453e-09	-1.813275e+01	-3.301219e+02
2.300000e-07	-2.598821e-06	-5.020571e-09	-1.798012e+01	-3.289934e+02
2.400000e-07	-2.575747e-06	-5.041859e-09	-1.782047e+01	-3.277896e+02
2.500000e-07	-2.551732e-06	-4.997240e-09	-1.765433e+01	-3.265116e+02
2.600000e-07	-2.526974e-06	-4.959136e-09	-1.748303e+01	-3.251620e+02
2.700000e-07	-2.501331e-06	-4.972707e-09	-1.730562e+01	-3.237449e+02
2.800000e-07	-2.474613e-06	-4.946178e-09	-1.712077e+01	-3.222647e+02
2.900000e-07	-2.446843e-06	-4.886148e-09	-1.692864e+01	-3.207260e+02
3.000000e-07	-2.418094e-06	-4.875623e-09	-1.672974e+01	-3.191325e+02
3.100000e-07	-2.388477e-06	-4.866587e-09	-1.652484e+01	-3.174870e+02
3.200000e-07	-2.358184e-06	-4.834381e-09	-1.631525e+01	-3.157911e+02
3.300000e-07	-2.327230e-06	-4.819021e-09	-1.610109e+01	-3.140448e+02
3.400000e-07	-2.295401e-06	-4.800858e-09	-1.588088e+01	-3.122471e+02
3.500000e-07	-2.262846e-06	-4.754688e-09	-1.565565e+01	-3.103960e+02
3.600000e-07	-2.229749e-06	-4.719236e-09	-1.542667e+01	-3.084890e+02
3.700000e-07	-2.195855e-06	-4.711227e-09	-1.519217e+01	-3.065239e+02
3.800000e-07	-2.160736e-06	-4.674426e-09	-1.494919e+01	-3.044987e+02
3.900000e-07	-2.124519e-06	-4.631179e-09	-1.469862e+01	-3.024124e+02
4.000000e-07	-2.087693e-06	-4.618555e-09	-1.444384e+01	-3.002652e+02
4.100000e-07	-2.050251e-06	-4.591144e-09	-1.418479e+01	-2.980583e+02
4.200000e-07	-2.012072e-06	-4.537728e-09	-1.392065e+01	-2.957939e+02
4.300000e-07	-1.973195e-06	-4.503313e-09	-1.365168e+01	-2.934750e+02
4.400000e-07	-1.933583e-06	-4.475367e-09	-1.337762e+01	-2.911047e+02
4.500000e-07	-1.893321e-06	-4.435354e-09	-1.309906e+01	-2.886860e+02
4.600000e-07	-1.852628e-06	-4.395664e-09	-1.281752e+01	-2.862211e+02
4.700000e-07	-1.811569e-06	-4.358049e-09	-1.253346e+01	-2.837113e+02
4.800000e-07	-1.769790e-06	-4.322245e-09	-1.224441e+01	-2.811563e+02
4.900000e-07	-1.726916e-06	-4.278483e-09	-1.194778e+01	-2.785546e+02
5.000000e-07	-1.683045e-06	-4.233914e-09	-1.164426e+01	-2.759033e+02
5.100000e-07	-1.638551e-06	-4.198093e-09	-1.133642e+01	-2.731983e+02
5.200000e-07	-1.593709e-06	-4.157361e-09	-1.102618e+01	-2.704350e+02
5.300000e-07	-1.548494e-06	-4.108862e-09	-1.071335e+01	-2.676085e+02
5.400000e-07	-1.502687e-06	-4.067301e-09	-1.039644e+01	-2.647144e+02
5.500000e-07	-1.456252e-06	-4.019682e-09	-1.007517e+01	-2.617487e+02
5.600000e-07	-1.409339e-06	-3.964703e-09	-9.750601e+00	-2.587089e+02
5.700000e-07	-1.361936e-06	-3.920664e-09	-9.422640e+00	-2.555934e+02
5.800000e-07	-1.314005e-06	-3.874536e-09	-9.091030e+00	-2.524020e+02
5.900000e-07	-1.265640e-06	-3.820352e-09	-8.756413e+00	-2.491357e+02
6.000000e-07	-1.216960e-06	-3.772298e-09	-8.419620e+00	-2.457961e+02
6.100000e-07	-1.167949e-06	-3.727371e-09	-8.080529e+00	-2.423853e+02
6.200000e-07	-1.118417e-06	-3.670871e-09	-7.737840e+00	-2.389051e+02
6.300000e-07	-1.068229e-06	-3.611182e-09	-7.390610e+00	-2.353571e+02
6.400000e-07	-1.017373e-06	-3.555265e-09	-7.038760e+00	-2.317417e+02
6.500000e-07	-9.659006e-07	-3.498700e-09	-6.682646e+00	-2.280584e+02
6.600000e-07	-9.139367e-07	-3.438566e-09	-6.323130e+00	-2.243056e+02
6.700000e-07	-8.616041e-07	-3.375043e-09	-5.961064e+00	-2.204806e+02
6.800000e-07	-8.090502e-07	-3.314573e-09	-5.597466e+00	-2.165798e+02
6.900000e-07	-7.562832e-07	-3.256093e-09	-5.232395e+00	-2.125992e+02
7.000000e-07	-7.032127e-07	-3.195776e-09	-4.865222e+00	-2.085347e+02
7.100000e-07	-6.499090e-07	-3.131190e-09	-4.496438e+00	-2.043823e+02
7.200000e-07	-5.963715e-07	-3.065753e-09	-4.126035e+00	-2.001386e+02
7.300000e-07	-5.426161e-07	-2.998721e-09	-3.754125e+00	-1.958007e+02
7.400000e-07	-4.886801e-07	-2.928111e-09	-3.380965e+00	-1.913661e+02
7.500000e-07	-4.345105e-07	-2.852674e-09	-3.006189e+00	-1.868329e+02
7.600000e-07	-3.801671e-07	-2.776021e-09	-2.630211e+00	-1.821991e+02
7.700000e-07	-3.257405e-07	-2.704070e-09	-2.253657e+00	-1.774624e+02
7.800000e-07	-2.712856e-07	-2.633590e-09	-1.876907e+00	-1.726196e+02
7.900000e-07	-2.167479e-07	-2.559310e-09	-1.499585e+00	-1.676665e+02
8.000000e-07	-1.620992e-07	-2.481217e-09	-1.121494e+00	-1.625976e+02
8.100000e-07	-1.073753e-07	-2.402247e-09	-7.428832e-01	-1.574057e+02
8.200000e-07	-5.263018e-08	-2.321045e-09	-3.641253e-01	-1.520826e+02
8.300000e-07	2.096937e-09	-2.234192e-09	1.450780e-02	-1.466187e+02
8.400000e-07	5.680576e-08	-2.141329e-09	3.930144e-01	-1.410039e+02
8.500000e-07	1.114714e-07	-2.050258e-09	7.712219e-01	-1.352279e+02
8.600000e-07	1.661095e-07	-1.961521e-09	1.149239e+00	-1.292807e+02
8.700000e-07	2.206976e-07	-1.869715e-09	1.526910e+00	-1.231531e+02
8.800000e-07	2.752305e-07	-1.775181e-09	1.904200e+00	-1.168366e+02
8.900000e-07	3.297196e-07	-1.679584e-09	2.281187e+00	-1.103236e+02
9.000000e-07	3.840995e-07	-1.579117e-09	2.657418e+00	-1.036067e+02
9.100000e-07	4.383503e-07	-1.472188e-09	3.032755e+00	-9.667852e+01
9.200000e-07	4.924950e-07	-1.361563e-09	3.407359e+00	-8.953012e+01
9.300000e-07	5.464215e-07	-1.247101e-09	3.780453e+00	-8.215050e+01
9.400000e-07	6.000428e-07	-1.128633e-09	4.151435e+00	-7.452530e+01
9.500000e-07	6.534516e-07	-1.005069e-09	4.520947e+00	-6.663608e+01
9.600000e-07	7.066164e-07	-8.769146e-10	4.888771e+00	-5.845980e+01
9.700000e-07	7.595389e-07	-7.476601e-10	5.254919e+00	-4.996884e+01
9.800000e-07	8.122507e-07	-6.158969e-10	5.619610e+00	-4.113172e+01
9.900000e-07	8.646804e-07	-4.760774e-10	5.982347e+00	-3.191449e+01
1.000000e-06	9.167493e-07	-3.247804e-10	6.342590e+00	-2.228280e+01
1.010000e-06	9.683635e-07	-1.655666e-10	6.699686e+00	-1.220460e+01
1.020000e-06	1.019457e-06	-3.696063e-12	7.053179e+00	-1.653362e+00
1.030000e-06	1.069878e-06	1.634280e-10	7.402022e+00	9.388626e+00
1.040000e-06	1.119626e-06	3.428017e-10	7.746204e+00	2.092687e+01
1.050000e-06	1.168867e-06	5.310645e-10	8.086883e+00	3.295177e+01
1.060000e-06	1.217738e-06	7.192925e-10	8.425000e+00	4.543627e+01
1.070000e-06	1.266321e-06	9.088516e-10	8.761121e+00	5.833462e+01
1.080000e-06	1.314552e-06	1.106968e-09	9.094814e+00	7.158206e+01
1.090000e-06	1.362309e-06	1.315497e-09	9.425222e+00	8.509596e+01
1.100000e-06	1.409582e-06	1.524751e-09	9.752287e+00	9.877811e+01
1.110000e-06	1.456391e-06	1.731422e-09	1.007614e+01	1.125182e+02
1.120000e-06	1.502721e-06	1.939825e-09	1.039668e+01	1.261982e+02
1.130000e-06	1.548510e-06	2.148858e-09	1.071347e+01	1.396977e+02
1.140000e-06	1.593734e-06	2.351475e-09	1.102635e+01	1.528989e+02
1.150000e-06	1.638574e-06	2.544505e-09	1.133658e+01	1.656923e+02
1.160000e-06	1.683061e-06	2.728599e-09	1.164437e+01	1.779812e+02
1.170000e-06	1.727009e-06	2.904237e-09	1.194843e+01	1.896859e+02
1.180000e-06	1.770135e-06	3.070635e-09	1.224679e+01	2.007464e+02
1.190000e-06	1.812258e-06	3.225810e-09	1.253823e+01	2.111241e+02
1.200000e-06	1.853517e-06	3.371751e-09	1.282367e+01	2.208014e+02
1.210000e-06	1.894196e-06	3.510814e-09	1.310512e+01	2.297814e+02
1.220000e-06	1.934408e-06	3.640920e-09	1.338333e+01	2.380846e+02
1.230000e-06	1.974010e-06	3.757740e-09	1.365732e+01	2.457462e+02
1.240000e-06	2.012915e-06	3.863137e-09	1.392648e+01	2.528121e+02
1.250000e-06	2.051087e-06	3.961015e-09	1.419058e+01	2.593344e+02
1.260000e-06	2.088526e-06	4.052071e-09	1.444960e+01	2.653678e+02
1.270000e-06	2.125389e-06	4.135283e-09	1.470464e+01	2.709656e+02
1.280000e-06	2.161779e-06	4.212745e-09	1.495641e+01	2.761770e+02
1.290000e-06	2.197397e-06	4.287667e-09	1.520283e+01	2.810448e+02
1.300000e-06	2.231874e-06	4.358417e-09	1.544137e+01	2.856044e+02
1.310000e-06	2.265323e-06	4.422340e-09	1.567278e+01	2.898833e+02
1.320000e-06	2.298039e-06	4.480576e-09	1.589913e+01	2.939022e+02
1.330000e-06	2.330065e-06	4.536223e-09	1.612071e+01	2.976755e+02
1.340000e-06	2.361343e-06	4.590381e-09	1.633710e+01	3.012136e+02
1.350000e-06	2.391803e-06	4.639620e-09	1.654784e+01	3.045240e+02
1.360000e-06	2.421423e-06	4.683173e-09	1.675277e+01	3.076137e+02
1.370000e-06	2.450366e-06	4.723809e-09	1.695302e+01	3.104900e+02
1.380000e-06	2.478658e-06	4.761872e-09	1.714875e+01	3.131620e+02
1.390000e-06	2.505947e-06	4.797452e-09	1.733755e+01	3.156408e+02
1.400000e-06	2.531954e-06	4.830750e-09	1.751749e+01	3.179397e+02
1.410000e-06	2.556894e-06	4.862062e-09	1.769003e+01	3.200736e+02
1.420000e-06	2.581058e-06	4.894003e-09	1.785722e+01	3.220586e+02
1.430000e-06	2.604415e-06	4.926281e-09	1.801882e+01	3.239104e+02
1.440000e-06	2.626860e-06	4.954507e-09	1.817410e+01	3.256440e+02
1.450000e-06	2.648431e-06	4.975168e-09	1.832334e+01	3.272721e+02
1.460000e-06	2.669277e-06	4.990925e-09	1.846757e+01	3.288050e+02
1.470000e-06	2.689360e-06	5.009239e-09	1.860651e+01	3.302499e+02
1.480000e-06	2.708413e-06	5.031308e-09	1.873833e+01	3.316112e+02
1.490000e-06	2.726453e-06	5.054423e-09	1.886314e+01	3.328906e+02
1.500000e-06	2.743582e-06	5.075901e-09	1.898165e+01	3.340879e+02
1.510000e-06	2.759620e-06	5.095105e-09	1.909261e+01	3.352016e+02
1.520000e-06	2.774565e-06	5.112164e-09	1.919601e+01	3.362303e+02
1.530000e-06	2.788525e-06	5.123236e-09	1.929259e+01	3.371729e+02
1.540000e-06	2.801445e-06	5.129562e-09	1.938198e+01	3.380295e+02
1.550000e-06	2.813162e-06	5.137943e-09	1.946304e+01	3.388019e+02
1.560000e-06	2.823530e-06	5.148995e-09	1.953477e+01	3.394936e+02
1.570000e-06	2.832789e-06	5.160960e-09	1.959884e+01	3.401095e+02
1.580000e-06	2.841198e-06	5.173723e-09	1.965702e+01	3.406558e+02
1.590000e-06	2.848679e-06	5.186566e-09	1.970877e+01	3.411387e+02
1.600000e-06	2.855162e-06	5.197246e-09	1.975362e+01	3.415642e+02
1.610000e-06	2.860713e-06	5.203109e-09	1.979203e+01	3.419375e+02
1.620000e-06	2.865403e-06	5.204244e-09	1.982448e+01	3.422619e+02
1.630000e-06	2.869088e-06	5.203924e-09	1.984997e+01	3.425386e+02
1.640000e-06	2.871545e-06	5.205371e-09	1.986697e+01	3.427670e+02
1.650000e-06	2.872852e-06	5.209256e-09	1.987601e+01	3.429444e+02
1.660000e-06	2.873211e-06	5.213329e-09	1.987850e+01	3.430668e+02
1.670000e-06	2.872697e-06	5.215322e-09	1.987494e+01	3.431291e+02
1.680000e-06	2.871294e-06	5.215228e-09	1.986523e+01	3.431265e+02
1.690000e-06	2.868990e-06	5.214779e-09	1.984929e+01	3.430547e+02
1.700000e-06	2.865907e-06	5.215493e-09	1.982796e+01	3.429110e+02
1.710000e-06	2.862049e-06	5.213792e-09	1.980128e+01	3.426947e+02
1.720000e-06	2.857032e-06	5.206663e-09	1.976656e+01	3.424071e+02
1.730000e-06	2.850804e-06	5.195557e-09	1.972347e+01	3.420518e+02
1.740000e-06	2.843755e-06	5.182240e-09	1.967471e+01	3.416345e+02
1.750000e-06	2.835796e-06	5.168288e-09	1.961964e+01	3.411620e+02
1.760000e-06	2.826332e-06	5.166533e-09	1.955416e+01	3.406416e+02
1.770000e-06	2.815244e-06	5.182143e-09	1.947745e+01	3.400806e+02
1.780000e-06	2.803482e-06	5.183560e-09	1.939607e+01	3.394851e+02
1.790000e-06	2.791666e-06	5.147424e-09	1.931432e+01	3.388594e+02
1.800000e-06	2.778873e-06	5.124520e-09	1.922582e+01	3.382055e+02
1.810000e-06	2.764278e-06	5.122633e-09	1.912484e+01	3.375229e+02
1.820000e-06	2.748686e-06	5.115810e-09	1.901696e+01	3.368087e+02
1.830000e-06	2.732607e-06	5.100745e-09	1.890572e+01	3.360579e+02
1.840000e-06	2.715313e-06	5.114125e-09	1.878607e+01	3.352638e+02
1.850000e-06	2.696768e-06	5.132165e-09	1.865777e+01	3.344190e+02
1.860000e-06	2.677622e-06	5.089186e-09	1.852530e+01	3.335160e+02
1.870000e-06	2.657586e-06	5.072865e-09	1.838668e+01	3.325481e+02
1.880000e-06	2.636109e-06	5.097545e-09	1.823809e+01	3.315098e+02
1.890000e-06	2.613632e-06	5.050944e-09	1.808259e+01	3.303976e+02
1.900000e-06	2.590330e-06	4.988781e-09	1.792137e+01	3.292103e+02
1.910000e-06	2.566068e-06	5.003992e-09	1.775351e+01	3.279483e+02
1.920000e-06	2.541162e-06	4.996561e-09	1.758120e+01	3.266141e+02
1.930000e-06	2.515503e-06	4.942928e-09	1.740367e+01	3.252114e+02
1.940000e-06	2.488881e-06	4.943484e-09	1.721949e+01	3.237447e+02
1.950000e-06	2.461580e-06	4.958617e-09	1.703060e+01	3.222184e+02
1.960000e-06	2.433303e-06	4.900109e-09	1.683497e+01	3.206367e+02
1.970000e-06	2.403639e-06	4.851893e-09	1.662973e+01	3.190025e+02
1.980000e-06	2.373013e-06	4.848603e-09	1.641784e+01	3.173177e+02
1.990000e-06	2.341691e-06	4.813442e-09	1.620114e+01	3.155826e+02
2.000000e-06	2.309658e-06	4.774760e-09	1.597952e+01	3.137964e+02
2.010000e-06	2.276916e-06	4.771987e-09	1.575299e+01	3.119572e+02
2.020000e-06	2.243365e-06	4.744967e-09	1.552087e+01	3.100628e+02
2.030000e-06	2.209046e-06	4.689916e-09	1.528343e+01	3.081106e+02
2.040000e-06	2.174136e-06	4.675578e-09	1.504190e+01	3.060987e+02
2.050000e-06	2.138551e-06	4.649522e-09	1.479570e+01	3.040259e+02
2.060000e-06	2.102118e-06	4.585996e-09	1.454364e+01	3.018920e+02
2.070000e-06	2.064685e-06	4.563875e-09	1.428466e+01	2.996980e+02
2.080000e-06	2.026226e-06	4.549630e-09	1.401857e+01	2.974460e+02
2.090000e-06	1.987103e-06	4.497688e-09	1.374790e+01	2.951389e+02
2.100000e-06	1.947427e-06	4.461914e-09	1.347340e+01	2.927796e+02
2.110000e-06	1.907092e-06	4.430527e-09	1.319434e+01	2.903714e+02
2.120000e-06	1.866180e-06	4.384031e-09	1.291129e+01	2.879166e+02
2.130000e-06	1.824693e-06	4.345262e-09	1.262426e+01	2.854167e+02
2.140000e-06	1.782544e-06	4.306701e-09	1.233265e+01	2.828718e+02
2.150000e-06	1.739818e-06	4.278539e-09	1.203705e+01	2.802806e+02
2.160000e-06	1.696681e-06	4.237054e-09	1.173860e+01	2.776405e+02
2.170000e-06	1.653112e-06	4.176170e-09	1.143717e+01	2.749477e+02
2.180000e-06	1.608934e-06	4.141543e-09	1.113152e+01	2.721977e+02
2.190000e-06	1.564062e-06	4.106911e-09	1.082107e+01	2.693855e+02
2.200000e-06	1.518604e-06	4.055186e-09	1.050656e+01	2.665065e+02
2.210000e-06	1.472707e-06	4.017281e-09	1.018902e+01	2.635568e+02
2.220000e-06	1.426438e-06	3.975410e-09	9.868907e+00	2.605333e+02
2.230000e-06	1.379586e-06	3.923789e-09	9.544753e+00	2.574344e+02
2.240000e-06	1.332098e-06	3.877850e-09	9.216210e+00	2.542596e+02
2.250000e-06	1.284044e-06	3.824379e-09	8.883742e+00	2.510095e+02
2.260000e-06	1.235452e-06	3.770270e-09	8.547554e+00	2.476858e+02
2.270000e-06	1.186476e-06	3.723923e-09	8.208713e+00	2.442904e+02
2.280000e-06	1.137050e-06	3.678933e-09	7.866758e+00	2.408253e+02
2.290000e-06	1.087188e-06	3.626986e-09	7.521782e+00	2.372920e+02
2.300000e-06	1.036934e-06	3.568710e-09	7.174093e+00	2.336913e+02
2.310000e-06	9.862326e-07	3.511804e-09	6.823314e+00	2.300231e+02
2.320000e-06	9.351783e-07	3.452307e-09	6.470092e+00	2.262857e+02
2.330000e-06	8.838237e-07	3.392409e-09	6.114792e+00	2.224767e+02
2.340000e-06	8.321971e-07	3.334085e-09	5.757609e+00	2.185928e+02
2.350000e-06	7.801579e-07	3.277727e-09	5.397573e+00	2.146299e+02
2.360000e-06	7.275737e-07	3.220174e-09	5.033766e+00	2.105841e+02
2.370000e-06	6.745076e-07	3.156260e-09	4.666625e+00	2.064512e+02
2.380000e-06	6.209419e-07	3.092178e-09	4.296027e+00	2.022277e+02
2.390000e-06	5.669794e-07	3.031920e-09	3.922684e+00	1.979105e+02
2.400000e-06	5.127716e-07	2.968359e-09	3.547643e+00	1.934971e+02
2.410000e-06	4.583418e-07	2.900263e-09	3.171068e+00	1.889855e+02
2.420000e-06	4.037406e-07	2.831007e-09	2.793306e+00	1.843738e+02
2.430000e-06	3.490118e-07	2.761634e-09	2.414661e+00	1.796596e+02
2.440000e-06	2.941512e-07	2.690406e-09	2.035105e+00	1.748402e+02
2.450000e-06	2.392386e-07	2.614974e-09	1.655187e+00	1.699115e+02
2.460000e-06	1.843177e-07	2.539984e-09	1.275214e+00	1.648683e+02
2.470000e-06	1.293805e-07	2.462676e-09	8.951271e-01	1.597037e+02
2.480000e-06	7.443537e-08	2.381173e-09	5.149860e-01	1.544098e+02
2.490000e-06	1.948017e-08	2.297913e-09	1.347748e-01	1.489772e+02
2.500000e-06	-3.548400e-08	2.212553e-09	-2.454984e-01	1.433959e+02
2.510000e-06	-9.046246e-08	2.125824e-09	-6.258704e-01	1.376557e+02
2.520000e-06	-1.454457e-07	2.036392e-09	-1.006276e+00	1.317463e+02
2.530000e-06	-2.004188e-07	1.945021e-09	-1.386610e+00	1.256584e+02
2.540000e-06	-2.553434e-07	1.851915e-09	-1.766610e+00	1.193834e+02
2.550000e-06	-3.102068e-07	1.753626e-09	-2.146186e+00	1.129134e+02
2.560000e-06	-3.649854e-07	1.651084e-09	-2.525175e+00	1.062412e+02
2.570000e-06	-4.196061e-07	1.546529e-09	-2.903072e+00	9.935927e+01
2.580000e-06	-4.740497e-07	1.440597e-09	-3.279744e+00	9.225922e+01
2.590000e-06	-5.282778e-07	1.330748e-09	-3.654924e+00	8.493054e+01
2.600000e-06	-5.822114e-07	1.215578e-09	-4.028068e+00	7.735969e+01
2.610000e-06	-6.357568e-07	1.096892e-09	-4.398525e+00	6.952916e+01
2.620000e-06	-6.888798e-07	9.739854e-10	-4.766060e+00	6.141688e+01
2.630000e-06	-7.415496e-07	8.447239e-10	-5.130459e+00	5.299620e+01
2.640000e-06	-7.938299e-07	7.094870e-10	-5.492164e+00	4.423639e+01
2.650000e-06	-8.457142e-07	5.696346e-10	-5.851129e+00	3.510385e+01
2.660000e-06	-8.971695e-07	4.255127e-10	-6.207125e+00	2.556411e+01
2.670000e-06	-9.483181e-07	2.766245e-10	-6.561000e+00	1.558439e+01
2.680000e-06	-9.992049e-07	1.218742e-10	-6.913064e+00	5.136680e+00
2.690000e-06	-1.049805e-06	-4.075866e-11	-7.263141e+00	-5.798899e+00
2.700000e-06	-1.099951e-06	-2.141705e-10	-7.610086e+00	-1.723074e+01
2.710000e-06	-1.149596e-06	-3.970163e-10	-7.953556e+00	-2.915268e+01
2.720000e-06	-1.198818e-06	-5.874516e-10	-8.294098e+00	-4.154158e+01
2.730000e-06	-1.247504e-06	-7.843498e-10	-8.630938e+00	-5.435574e+01
2.740000e-06	-1.295523e-06	-9.871137e-10	-8.963162e+00	-6.753442e+01
2.750000e-06	-1.342841e-06	-1.192997e-09	-9.290534e+00	-8.099869e+01
2.760000e-06	-1.389410e-06	-1.400666e-09	-9.612724e+00	-9.465340e+01
2.770000e-06	-1.435384e-06	-1.611298e-09	-9.930801e+00	-1.083905e+02
2.780000e-06	-1.481000e-06	-1.823721e-09	-1.024639e+01	-1.220932e+02
2.790000e-06	-1.526266e-06	-2.035106e-09	-1.055957e+01	-1.356412e+02
2.800000e-06	-1.571156e-06	-2.241606e-09	-1.087015e+01	-1.489155e+02
2.810000e-06	-1.615601e-06	-2.440037e-09	-1.117764e+01	-1.618046e+02
2.820000e-06	-1.659459e-06	-2.630738e-09	-1.148108e+01	-1.742086e+02
2.830000e-06	-1.702795e-06	-2.811964e-09	-1.178090e+01	-1.860440e+02
2.840000e-06	-1.745750e-06	-2.980034e-09	-1.207808e+01	-1.972462e+02
2.850000e-06	-1.788225e-06	-3.137042e-09	-1.237195e+01	-2.077720e+02
2.860000e-06	-1.830080e-06	-3.287846e-09	-1.266153e+01	-2.175995e+02
2.870000e-06	-1.871345e-06	-3.431433e-09	-1.294702e+01	-2.267274e+02
2.880000e-06	-1.912011e-06	-3.563079e-09	-1.322837e+01	-2.351728e+02
2.890000e-06	-1.951981e-06	-3.681074e-09	-1.350491e+01	-2.429680e+02
2.900000e-06	-1.991332e-06	-3.791918e-09	-1.377716e+01	-2.501570e+02
2.910000e-06	-2.030172e-06	-3.900001e-09	-1.404588e+01	-2.567909e+02
2.920000e-06	-2.068290e-06	-3.998602e-09	-1.430960e+01	-2.629242e+02
2.930000e-06	-2.105351e-06	-4.082036e-09	-1.456601e+01	-2.686107e+02
2.940000e-06	-2.141385e-06	-4.157571e-09	-1.481531e+01	-2.739008e+02
