# Temperatura_=_17.74
# Concentracion g/m^3_=_15500.0
# C_Vs_to_Am_M_A/Vsm_=_65563218390.804596
# pendiente_HvsI_1/m_=_3716.3
# ordenada_HvsI_A/m_=_1297.0
# frecuencia_Hz_=_300843.40313640947

Tiempo_(s)	Campo_(V.s)	Magnetizacion_(V.s)	Campo_(kA/m)	Magnetizacion_(A/m)
0.000000e+00	-2.860441e-06	-5.003064e-09	-1.980749e+01	-3.269686e+02
1.000000e-08	-2.860052e-06	-5.000704e-09	-1.980479e+01	-3.270134e+02
2.000000e-08	-2.858905e-06	-4.997656e-09	-1.979685e+01	-3.269963e+02
3.000000e-08	-2.856609e-06	-4.997574e-09	-1.978095e+01	-3.269142e+02
4.000000e-08	-2.853038e-06	-4.997114e-09	-1.975622e+01	-3.267643e+02
5.000000e-08	-2.848591e-06	-4.992176e-09	-1.972543e+01	-3.265450e+02
6.000000e-08	-2.843404e-06	-4.983758e-09	-1.968951e+01	-3.262559e+02
7.000000e-08	-2.837289e-06	-4.974686e-09	-1.964717e+01	-3.258983e+02
8.000000e-08	-2.830126e-06	-4.974035e-09	-1.959756e+01	-3.254752e+02
9.000000e-08	-2.821908e-06	-4.991270e-09	-1.954066e+01	-3.249912e+02
1.000000e-07	-2.812454e-06	-4.992257e-09	-1.947519e+01	-3.244519e+02
1.100000e-07	-2.801528e-06	-4.946718e-09	-1.939953e+01	-3.238638e+02
1.200000e-07	-2.789521e-06	-4.892053e-09	-1.931639e+01	-3.232329e+02
1.300000e-07	-2.776812e-06	-4.929296e-09	-1.922838e+01	-3.225649e+02
1.400000e-07	-2.763096e-06	-4.961336e-09	-1.913341e+01	-3.218639e+02
1.500000e-07	-2.748306e-06	-4.896058e-09	-1.903099e+01	-3.211323e+02
1.600000e-07	-2.732548e-06	-4.880951e-09	-1.892187e+01	-3.203703e+02
1.700000e-07	-2.715473e-06	-4.941867e-09	-1.880363e+01	-3.195759e+02
1.800000e-07	-2.697227e-06	-4.910575e-09	-1.867729e+01	-3.187452e+02
1.900000e-07	-2.678342e-06	-4.818614e-09	-1.854652e+01	-3.178726e+02
2.000000e-07	-2.658721e-06	-4.859490e-09	-1.841065e+01	-3.169512e+02
2.100000e-07	-2.638137e-06	-4.858654e-09	-1.826811e+01	-3.159740e+02
2.200000e-07	-2.616802e-06	-4.768065e-09	-1.812037e+01	-3.149340e+02
2.300000e-07	-2.594790e-06	-4.811609e-09	-1.796795e+01	-3.138252e+02
2.400000e-07	-2.571768e-06	-4.853252e-09	-1.780853e+01	-3.126429e+02
2.500000e-07	-2.547775e-06	-4.749288e-09	-1.764239e+01	-3.113843e+02
2.600000e-07	-2.523032e-06	-4.705751e-09	-1.747106e+01	-3.100484e+02
2.700000e-07	-2.497339e-06	-4.733613e-09	-1.729314e+01	-3.086363e+02
2.800000e-07	-2.470514e-06	-4.694905e-09	-1.710739e+01	-3.071505e+02
2.900000e-07	-2.442629e-06	-4.648756e-09	-1.691429e+01	-3.055949e+02
3.000000e-07	-2.413804e-06	-4.647309e-09	-1.671469e+01	-3.039740e+02
3.100000e-07	-2.384163e-06	-4.643678e-09	-1.650944e+01	-3.022926e+02
3.200000e-07	-2.353854e-06	-4.610223e-09	-1.629956e+01	-3.005552e+02
3.300000e-07	-2.322841e-06	-4.574794e-09	-1.608481e+01	-2.987655e+02
3.400000e-07	-2.290979e-06	-4.537877e-09	-1.586417e+01	-2.969261e+02
3.500000e-07	-2.258494e-06	-4.502789e-09	-1.563922e+01	-2.950386e+02
3.600000e-07	-2.225455e-06	-4.467758e-09	-1.541044e+01	-2.931032e+02
3.700000e-07	-2.191417e-06	-4.468441e-09	-1.517474e+01	-2.911194e+02
3.800000e-07	-2.156106e-06	-4.451601e-09	-1.493023e+01	-2.890859e+02
3.900000e-07	-2.119883e-06	-4.392863e-09	-1.467940e+01	-2.870008e+02
4.000000e-07	-2.083157e-06	-4.377039e-09	-1.442508e+01	-2.848627e+02
4.100000e-07	-2.045852e-06	-4.353993e-09	-1.416676e+01	-2.826699e+02
4.200000e-07	-2.007787e-06	-4.286658e-09	-1.390318e+01	-2.804217e+02
4.300000e-07	-1.968942e-06	-4.241967e-09	-1.363419e+01	-2.781177e+02
4.400000e-07	-1.929339e-06	-4.226369e-09	-1.335995e+01	-2.757583e+02
4.500000e-07	-1.889128e-06	-4.195644e-09	-1.308150e+01	-2.733443e+02
4.600000e-07	-1.848563e-06	-4.163409e-09	-1.280061e+01	-2.708767e+02
4.700000e-07	-1.807533e-06	-4.122092e-09	-1.251649e+01	-2.683567e+02
4.800000e-07	-1.765602e-06	-4.076752e-09	-1.222614e+01	-2.657850e+02
4.900000e-07	-1.722515e-06	-4.033122e-09	-1.192777e+01	-2.631617e+02
5.000000e-07	-1.678520e-06	-3.988207e-09	-1.162312e+01	-2.604863e+02
5.100000e-07	-1.634081e-06	-3.950774e-09	-1.131540e+01	-2.577573e+02
5.200000e-07	-1.589356e-06	-3.908500e-09	-1.100569e+01	-2.549725e+02
5.300000e-07	-1.544167e-06	-3.870663e-09	-1.069278e+01	-2.521290e+02
5.400000e-07	-1.498362e-06	-3.835179e-09	-1.037560e+01	-2.492234e+02
5.500000e-07	-1.451978e-06	-3.784616e-09	-1.005440e+01	-2.462521e+02
5.600000e-07	-1.405113e-06	-3.720253e-09	-9.729883e+00	-2.432120e+02
5.700000e-07	-1.357750e-06	-3.673631e-09	-9.401914e+00	-2.401000e+02
5.800000e-07	-1.309879e-06	-3.633487e-09	-9.070421e+00	-2.369141e+02
5.900000e-07	-1.261614e-06	-3.583966e-09	-8.736204e+00	-2.336530e+02
6.000000e-07	-1.213001e-06	-3.534965e-09	-8.399576e+00	-2.303164e+02
6.100000e-07	-1.163929e-06	-3.483038e-09	-8.059772e+00	-2.269049e+02
6.200000e-07	-1.114264e-06	-3.427522e-09	-7.715861e+00	-2.234195e+02
6.300000e-07	-1.063964e-06	-3.370188e-09	-7.367553e+00	-2.198621e+02
6.400000e-07	-1.013000e-06	-3.312019e-09	-7.014647e+00	-2.162343e+02
6.500000e-07	-9.614716e-07	-3.251072e-09	-6.657831e+00	-2.125377e+02
6.600000e-07	-9.094958e-07	-3.197967e-09	-6.297918e+00	-2.087735e+02
6.700000e-07	-8.571927e-07	-3.145924e-09	-5.935739e+00	-2.049419e+02
6.800000e-07	-8.046813e-07	-3.084950e-09	-5.572117e+00	-2.010425e+02
6.900000e-07	-7.519349e-07	-3.018249e-09	-5.206868e+00	-1.970739e+02
7.000000e-07	-6.989214e-07	-2.952915e-09	-4.839769e+00	-1.930339e+02
7.100000e-07	-6.456635e-07	-2.892165e-09	-4.470978e+00	-1.889194e+02
7.200000e-07	-5.921959e-07	-2.830055e-09	-4.100735e+00	-1.847270e+02
7.300000e-07	-5.384929e-07	-2.763200e-09	-3.728862e+00	-1.804526e+02
7.400000e-07	-4.845635e-07	-2.691913e-09	-3.355421e+00	-1.760920e+02
7.500000e-07	-4.304695e-07	-2.621967e-09	-2.980840e+00	-1.716409e+02
7.600000e-07	-3.762421e-07	-2.551661e-09	-2.605335e+00	-1.670950e+02
7.700000e-07	-3.219050e-07	-2.478762e-09	-2.229071e+00	-1.624502e+02
7.800000e-07	-2.675233e-07	-2.402978e-09	-1.852499e+00	-1.577020e+02
7.900000e-07	-2.130885e-07	-2.328776e-09	-1.475558e+00	-1.528462e+02
8.000000e-07	-1.585354e-07	-2.258808e-09	-1.097799e+00	-1.478782e+02
8.100000e-07	-1.039097e-07	-2.183742e-09	-7.195359e-01	-1.427931e+02
8.200000e-07	-4.928071e-08	-2.099959e-09	-3.412505e-01	-1.375859e+02
8.300000e-07	5.342655e-09	-2.013208e-09	3.699589e-02	-1.322508e+02
8.400000e-07	5.996233e-08	-1.929065e-09	4.152167e-01	-1.267820e+02
8.500000e-07	1.145677e-07	-1.843173e-09	7.933383e-01	-1.211733e+02
8.600000e-07	1.691399e-07	-1.753600e-09	1.171231e+00	-1.154180e+02
8.700000e-07	2.236827e-07	-1.662908e-09	1.548919e+00	-1.095097e+02
8.800000e-07	2.781744e-07	-1.574618e-09	1.926254e+00	-1.034416e+02
8.900000e-07	3.325723e-07	-1.485077e-09	2.302939e+00	-9.720697e+01
9.000000e-07	3.868614e-07	-1.384165e-09	2.678871e+00	-9.079871e+01
9.100000e-07	4.410429e-07	-1.275899e-09	3.054057e+00	-8.420937e+01
9.200000e-07	4.951170e-07	-1.170635e-09	3.428500e+00	-7.743068e+01
9.300000e-07	5.489920e-07	-1.067968e-09	3.801564e+00	-7.045322e+01
9.400000e-07	6.026190e-07	-9.601480e-10	4.172911e+00	-6.326597e+01
9.500000e-07	6.560105e-07	-8.451082e-10	4.542627e+00	-5.585599e+01
9.600000e-07	7.091191e-07	-7.249478e-10	4.910384e+00	-4.820817e+01
9.700000e-07	7.619228e-07	-6.056764e-10	5.276030e+00	-4.030520e+01
9.800000e-07	8.144700e-07	-4.832751e-10	5.639900e+00	-3.212791e+01
9.900000e-07	8.667707e-07	-3.504272e-10	6.002062e+00	-2.365589e+01
1.000000e-06	9.187759e-07	-2.118793e-10	6.362180e+00	-1.486853e+01
1.010000e-06	9.703878e-07	-7.193267e-11	6.719572e+00	-5.746438e+00
1.020000e-06	1.021468e-06	7.041341e-11	7.073285e+00	3.726822e+00
1.030000e-06	1.071920e-06	2.200810e-10	7.422643e+00	1.356277e+01
1.040000e-06	1.121703e-06	3.778516e-10	7.767376e+00	2.376598e+01
1.050000e-06	1.170876e-06	5.414314e-10	8.107878e+00	3.433203e+01
1.060000e-06	1.219614e-06	7.092389e-10	8.445371e+00	4.524590e+01
1.070000e-06	1.268111e-06	8.823899e-10	8.781195e+00	5.648056e+01
1.080000e-06	1.316324e-06	1.058860e-09	9.115051e+00	6.799637e+01
1.090000e-06	1.364095e-06	1.236426e-09	9.445847e+00	7.974110e+01
1.100000e-06	1.411371e-06	1.415525e-09	9.773217e+00	9.165074e+01
1.110000e-06	1.458110e-06	1.597432e-09	1.009687e+01	1.036511e+02
1.120000e-06	1.504320e-06	1.783008e-09	1.041685e+01	1.156603e+02
1.130000e-06	1.549973e-06	1.965940e-09	1.073299e+01	1.275915e+02
1.140000e-06	1.595084e-06	2.143809e-09	1.104536e+01	1.393566e+02
1.150000e-06	1.639798e-06	2.319597e-09	1.135499e+01	1.508698e+02
1.160000e-06	1.684145e-06	2.492990e-09	1.166208e+01	1.620509e+02
1.170000e-06	1.727977e-06	2.659274e-09	1.196560e+01	1.728289e+02
1.180000e-06	1.771033e-06	2.813866e-09	1.226374e+01	1.831446e+02
1.190000e-06	1.813084e-06	2.958626e-09	1.255493e+01	1.929525e+02
1.200000e-06	1.854273e-06	3.098689e-09	1.284014e+01	2.022220e+02
1.210000e-06	1.894909e-06	3.233473e-09	1.312154e+01	2.109378e+02
1.220000e-06	1.935048e-06	3.358278e-09	1.339948e+01	2.190987e+02
1.230000e-06	1.974574e-06	3.472142e-09	1.367319e+01	2.267168e+02
1.240000e-06	2.013385e-06	3.578496e-09	1.394194e+01	2.338147e+02
1.250000e-06	2.051480e-06	3.678698e-09	1.420573e+01	2.404230e+02
1.260000e-06	2.088865e-06	3.771312e-09	1.446461e+01	2.465776e+02
1.270000e-06	2.125634e-06	3.856541e-09	1.471922e+01	2.523170e+02
1.280000e-06	2.161867e-06	3.935644e-09	1.497012e+01	2.576792e+02
1.290000e-06	2.197339e-06	4.010106e-09	1.521575e+01	2.626999e+02
1.300000e-06	2.231732e-06	4.079880e-09	1.545391e+01	2.674109e+02
1.310000e-06	2.265099e-06	4.145750e-09	1.568496e+01	2.718388e+02
1.320000e-06	2.297741e-06	4.208872e-09	1.591100e+01	2.760053e+02
1.330000e-06	2.329722e-06	4.268888e-09	1.613245e+01	2.799268e+02
1.340000e-06	2.360920e-06	4.325779e-09	1.634849e+01	2.836156e+02
1.350000e-06	2.391330e-06	4.378352e-09	1.655907e+01	2.870808e+02
1.360000e-06	2.420899e-06	4.424766e-09	1.676382e+01	2.903294e+02
1.370000e-06	2.449710e-06	4.465829e-09	1.696333e+01	2.933680e+02
1.380000e-06	2.477953e-06	4.503367e-09	1.715890e+01	2.962033e+02
1.390000e-06	2.505274e-06	4.538268e-09	1.734808e+01	2.988434e+02
1.400000e-06	2.531296e-06	4.571709e-09	1.752828e+01	3.012979e+02
1.410000e-06	2.556236e-06	4.605926e-09	1.770098e+01	3.035781e+02
1.420000e-06	2.580328e-06	4.640795e-09	1.786780e+01	3.056971e+02
1.430000e-06	2.603536e-06	4.673481e-09	1.802851e+01	3.076684e+02
1.440000e-06	2.625857e-06	4.702086e-09	1.818308e+01	3.095063e+02
1.450000e-06	2.647326e-06	4.724322e-09	1.833174e+01	3.112241e+02
1.460000e-06	2.668037e-06	4.741735e-09	1.847516e+01	3.128341e+02
1.470000e-06	2.687985e-06	4.759644e-09	1.861329e+01	3.143463e+02
1.480000e-06	2.707023e-06	4.781110e-09	1.874512e+01	3.157688e+02
1.490000e-06	2.725099e-06	4.804910e-09	1.887029e+01	3.171069e+02
1.500000e-06	2.742179e-06	4.827205e-09	1.898857e+01	3.183637e+02
1.510000e-06	2.758165e-06	4.847144e-09	1.909926e+01	3.195405e+02
1.520000e-06	2.773014e-06	4.865153e-09	1.920208e+01	3.206371e+02
1.530000e-06	2.786839e-06	4.879459e-09	1.929782e+01	3.216525e+02
1.540000e-06	2.799683e-06	4.888796e-09	1.938676e+01	3.225857e+02
1.550000e-06	2.811437e-06	4.895480e-09	1.946815e+01	3.234363e+02
1.560000e-06	2.821845e-06	4.903292e-09	1.954022e+01	3.242048e+02
1.570000e-06	2.830996e-06	4.915672e-09	1.960359e+01	3.248929e+02
1.580000e-06	2.839258e-06	4.932353e-09	1.966080e+01	3.255033e+02
1.590000e-06	2.846637e-06	4.947128e-09	1.971189e+01	3.260398e+02
1.600000e-06	2.853051e-06	4.955456e-09	1.975631e+01	3.265069e+02
1.610000e-06	2.858487e-06	4.958213e-09	1.979396e+01	3.269090e+02
1.620000e-06	2.863096e-06	4.959409e-09	1.982587e+01	3.272503e+02
1.630000e-06	2.866789e-06	4.961862e-09	1.985144e+01	3.275338e+02
1.640000e-06	2.869161e-06	4.964925e-09	1.986786e+01	3.277615e+02
1.650000e-06	2.870355e-06	4.969632e-09	1.987613e+01	3.279339e+02
1.660000e-06	2.870697e-06	4.976835e-09	1.987850e+01	3.280502e+02
1.670000e-06	2.870143e-06	4.982156e-09	1.987467e+01	3.281081e+02
1.680000e-06	2.868663e-06	4.981047e-09	1.986442e+01	3.281048e+02
1.690000e-06	2.866258e-06	4.977495e-09	1.984776e+01	3.280372e+02
1.700000e-06	2.863081e-06	4.976091e-09	1.982576e+01	3.279024e+02
1.710000e-06	2.859148e-06	4.975993e-09	1.979853e+01	3.276983e+02
1.720000e-06	2.854079e-06	4.974315e-09	1.976343e+01	3.274244e+02
1.730000e-06	2.847803e-06	4.971523e-09	1.971997e+01	3.270816e+02
1.740000e-06	2.840637e-06	4.960002e-09	1.967035e+01	3.266725e+02
1.750000e-06	2.832551e-06	4.924831e-09	1.961436e+01	3.262014e+02
1.760000e-06	2.823027e-06	4.918350e-09	1.954840e+01	3.256738e+02
1.770000e-06	2.811951e-06	4.956240e-09	1.947171e+01	3.250959e+02
1.780000e-06	2.800201e-06	4.965359e-09	1.939034e+01	3.244740e+02
1.790000e-06	2.788411e-06	4.903351e-09	1.930870e+01	3.238138e+02
1.800000e-06	2.775590e-06	4.859117e-09	1.921992e+01	3.231199e+02
1.810000e-06	2.760918e-06	4.912283e-09	1.911833e+01	3.223951e+02
1.820000e-06	2.745278e-06	4.894045e-09	1.901002e+01	3.216400e+02
1.830000e-06	2.729148e-06	4.846441e-09	1.889833e+01	3.208531e+02
1.840000e-06	2.711740e-06	4.904003e-09	1.877778e+01	3.200309e+02
1.850000e-06	2.693044e-06	4.921594e-09	1.864832e+01	3.191681e+02
1.860000e-06	2.673811e-06	4.827725e-09	1.851514e+01	3.182581e+02
1.870000e-06	2.653795e-06	4.824414e-09	1.837654e+01	3.172938e+02
1.880000e-06	2.632411e-06	4.877646e-09	1.822846e+01	3.162681e+02
1.890000e-06	2.609991e-06	4.783625e-09	1.807321e+01	3.151747e+02
1.900000e-06	2.586674e-06	4.738404e-09	1.791175e+01	3.140088e+02
1.910000e-06	2.562311e-06	4.820904e-09	1.774304e+01	3.127670e+02
1.920000e-06	2.537235e-06	4.784542e-09	1.756941e+01	3.114479e+02
1.930000e-06	2.511359e-06	4.710202e-09	1.739022e+01	3.100523e+02
1.940000e-06	2.484571e-06	4.729200e-09	1.720472e+01	3.085823e+02
1.950000e-06	2.457196e-06	4.708203e-09	1.701516e+01	3.070415e+02
1.960000e-06	2.428995e-06	4.659435e-09	1.681988e+01	3.054345e+02
1.970000e-06	2.399499e-06	4.625643e-09	1.661563e+01	3.037660e+02
1.980000e-06	2.368930e-06	4.610896e-09	1.640395e+01	3.020406e+02
1.990000e-06	2.337611e-06	4.604769e-09	1.618708e+01	3.002621e+02
2.000000e-06	2.305591e-06	4.568241e-09	1.596535e+01	2.984335e+02
2.010000e-06	2.272848e-06	4.542813e-09	1.573862e+01	2.965565e+02
2.020000e-06	2.239269e-06	4.528911e-09	1.550610e+01	2.946318e+02
2.030000e-06	2.204951e-06	4.457038e-09	1.526846e+01	2.926587e+02
2.040000e-06	2.170016e-06	4.428847e-09	1.502655e+01	2.906363e+02
2.050000e-06	2.134374e-06	4.430638e-09	1.477974e+01	2.885627e+02
2.060000e-06	2.098028e-06	4.356059e-09	1.452806e+01	2.864364e+02
2.070000e-06	2.060720e-06	4.330846e-09	1.426972e+01	2.842557e+02
2.080000e-06	2.022233e-06	4.334684e-09	1.400321e+01	2.820197e+02
2.090000e-06	1.983032e-06	4.275827e-09	1.373176e+01	2.797280e+02
2.100000e-06	1.943369e-06	4.237008e-09	1.345710e+01	2.773807e+02
2.110000e-06	1.903019e-06	4.198018e-09	1.317769e+01	2.749786e+02
2.120000e-06	1.861995e-06	4.145589e-09	1.289362e+01	2.725227e+02
2.130000e-06	1.820415e-06	4.123872e-09	1.260569e+01	2.700142e+02
2.140000e-06	1.778242e-06	4.084545e-09	1.231366e+01	2.674538e+02
2.150000e-06	1.735463e-06	4.048466e-09	1.201743e+01	2.648419e+02
2.160000e-06	1.692241e-06	4.014267e-09	1.171814e+01	2.621780e+02
2.170000e-06	1.648667e-06	3.952588e-09	1.141640e+01	2.594610e+02
2.180000e-06	1.604555e-06	3.917888e-09	1.111094e+01	2.566887e+02
2.190000e-06	1.559737e-06	3.877638e-09	1.080060e+01	2.538583e+02
2.200000e-06	1.514290e-06	3.824684e-09	1.048589e+01	2.509666e+02
2.210000e-06	1.468337e-06	3.791871e-09	1.016769e+01	2.480100e+02
2.220000e-06	1.421950e-06	3.746756e-09	9.846469e+00	2.449852e+02
2.230000e-06	1.375127e-06	3.692496e-09	9.522238e+00	2.418891e+02
2.240000e-06	1.327746e-06	3.639153e-09	9.194144e+00	2.387195e+02
2.250000e-06	1.279721e-06	3.586717e-09	8.861590e+00	2.354749e+02
2.260000e-06	1.231118e-06	3.542665e-09	8.525030e+00	2.321548e+02
2.270000e-06	1.182068e-06	3.497824e-09	8.185379e+00	2.287595e+02
2.280000e-06	1.132696e-06	3.450466e-09	7.843495e+00	2.252901e+02
2.290000e-06	1.082935e-06	3.397765e-09	7.498918e+00	2.217483e+02
2.300000e-06	1.032621e-06	3.338422e-09	7.150515e+00	2.181357e+02
2.310000e-06	9.818162e-07	3.280806e-09	6.798710e+00	2.144541e+02
2.320000e-06	9.307271e-07	3.214614e-09	6.444937e+00	2.107046e+02
2.330000e-06	8.794466e-07	3.152756e-09	6.089839e+00	2.068877e+02
2.340000e-06	8.279239e-07	3.101304e-09	5.733064e+00	2.030032e+02
2.350000e-06	7.760130e-07	3.047354e-09	5.373600e+00	1.990499e+02
2.360000e-06	7.236138e-07	2.991003e-09	5.010755e+00	1.950258e+02
2.370000e-06	6.707316e-07	2.925175e-09	4.644565e+00	1.909279e+02
2.380000e-06	6.174357e-07	2.859857e-09	4.275511e+00	1.867528e+02
2.390000e-06	5.638062e-07	2.798123e-09	3.904147e+00	1.824965e+02
2.400000e-06	5.098603e-07	2.731543e-09	3.530592e+00	1.781551e+02
2.410000e-06	4.556225e-07	2.665169e-09	3.155015e+00	1.737240e+02
2.420000e-06	4.011319e-07	2.598389e-09	2.777688e+00	1.691991e+02
2.430000e-06	3.464249e-07	2.532481e-09	2.398863e+00	1.645761e+02
2.440000e-06	2.916096e-07	2.464583e-09	2.019288e+00	1.598508e+02
2.450000e-06	2.367089e-07	2.388775e-09	1.639120e+00	1.550187e+02
2.460000e-06	1.817020e-07	2.313134e-09	1.258218e+00	1.500754e+02
2.470000e-06	1.266861e-07	2.239754e-09	8.772539e-01	1.450162e+02
2.480000e-06	7.167652e-08	2.162038e-09	4.963331e-01	1.398359e+02
2.490000e-06	1.663260e-08	2.078317e-09	1.151745e-01	1.345290e+02
2.500000e-06	-3.844148e-08	1.992958e-09	-2.661929e-01	1.290897e+02
2.510000e-06	-9.353329e-08	1.911458e-09	-6.476830e-01	1.235118e+02
2.520000e-06	-1.485983e-07	1.827959e-09	-1.028988e+00	1.177888e+02
2.530000e-06	-2.035942e-07	1.735855e-09	-1.409814e+00	1.119141e+02
2.540000e-06	-2.584962e-07	1.639634e-09	-1.789990e+00	1.058811e+02
2.550000e-06	-3.133035e-07	1.544927e-09	-2.169510e+00	9.968305e+01
2.560000e-06	-3.680214e-07	1.454037e-09	-2.548411e+00	9.331291e+01
2.570000e-06	-4.225688e-07	1.358246e-09	-2.926131e+00	8.676334e+01
2.580000e-06	-4.768925e-07	1.254362e-09	-3.302302e+00	8.002627e+01
2.590000e-06	-5.309201e-07	1.148204e-09	-3.676423e+00	7.309257e+01
2.600000e-06	-5.846069e-07	1.042329e-09	-4.048184e+00	6.595159e+01
2.610000e-06	-6.379487e-07	9.317697e-10	-4.417556e+00	5.859084e+01
2.620000e-06	-6.908463e-07	8.120079e-10	-4.783852e+00	5.099567e+01
2.630000e-06	-7.433194e-07	6.883248e-10	-5.147209e+00	4.314923e+01
2.640000e-06	-7.954073e-07	5.656603e-10	-5.507898e+00	3.503272e+01
2.650000e-06	-8.471291e-07	4.441753e-10	-5.866052e+00	2.662590e+01
2.660000e-06	-8.985892e-07	3.148657e-10	-6.222394e+00	1.790811e+01
2.670000e-06	-9.497973e-07	1.734886e-10	-6.576991e+00	8.859564e+00
2.680000e-06	-1.000673e-06	2.837340e-11	-6.929283e+00	-5.369751e-01
2.690000e-06	-1.051189e-06	-1.186607e-10	-7.279087e+00	-1.029425e+01
2.700000e-06	-1.101269e-06	-2.732057e-10	-7.625878e+00	-2.041850e+01
2.710000e-06	-1.150862e-06	-4.361345e-10	-7.969286e+00	-3.090738e+01
2.720000e-06	-1.200020e-06	-6.022169e-10	-8.309692e+00	-4.174826e+01
2.730000e-06	-1.248716e-06	-7.667736e-10	-8.646892e+00	-5.291678e+01
2.740000e-06	-1.296726e-06	-9.343170e-10	-8.979342e+00	-6.437602e+01
2.750000e-06	-1.343916e-06	-1.112390e-09	-9.306115e+00	-7.607641e+01
2.760000e-06	-1.390429e-06	-1.299535e-09	-9.628201e+00	-8.795633e+01
2.770000e-06	-1.436429e-06	-1.487835e-09	-9.946732e+00	-9.994363e+01
2.780000e-06	-1.482064e-06	-1.672432e-09	-1.026274e+01	-1.119578e+02
2.790000e-06	-1.527422e-06	-1.854646e-09	-1.057683e+01	-1.239128e+02
2.800000e-06	-1.572349e-06	-2.035481e-09	-1.088793e+01	-1.357206e+02
2.810000e-06	-1.616704e-06	-2.210248e-09	-1.119507e+01	-1.472945e+02
2.820000e-06	-1.660509e-06	-2.378158e-09	-1.149840e+01	-1.585528e+02
2.830000e-06	-1.703850e-06	-2.542656e-09	-1.179852e+01	-1.694223e+02
2.840000e-06	-1.746825e-06	-2.703582e-09	-1.209611e+01	-1.798411e+02
2.850000e-06	-1.789291e-06	-2.858525e-09	-1.239017e+01	-1.897606e+02
2.860000e-06	-1.831108e-06	-3.005591e-09	-1.267974e+01	-1.991470e+02
2.870000e-06	-1.872360e-06	-3.142458e-09	-1.296539e+01	-2.079816e+02
2.880000e-06	-1.912989e-06	-3.268925e-09	-1.324673e+01	-2.162606e+02
2.890000e-06	-1.952915e-06	-3.387518e-09	-1.352321e+01	-2.239931e+02
2.900000e-06	-1.992311e-06	-3.499644e-09	-1.379601e+01	-2.311998e+02
2.910000e-06	-2.031180e-06	-3.603381e-09	-1.406516e+01	-2.379098e+02
2.920000e-06	-2.069222e-06	-3.699205e-09	-1.432859e+01	-2.441582e+02
2.930000e-06	-2.106164e-06	-3.788949e-09	-1.458440e+01	-2.499830e+02
2.940000e-06	-2.142116e-06	-3.873162e-09	-1.483335e+01	-2.554226e+02
