# Temperatura_=_22.78
# Concentracion g/m^3_=_15500.0
# C_Vs_to_Am_M_A/Vsm_=_65563218390.804596
# pendiente_HvsI_1/m_=_3716.3
# ordenada_HvsI_A/m_=_1297.0
# frecuencia_Hz_=_300840.257568456

Tiempo_(s)	Campo_(V.s)	Magnetizacion_(V.s)	Campo_(kA/m)	Magnetizacion_(A/m)
0.000000e+00	-2.860351e-06	-5.140725e-09	-1.980085e+01	-3.360300e+02
1.000000e-08	-2.859460e-06	-5.139489e-09	-1.979468e+01	-3.360801e+02
2.000000e-08	-2.857666e-06	-5.137151e-09	-1.978226e+01	-3.360693e+02
3.000000e-08	-2.854589e-06	-5.134707e-09	-1.976096e+01	-3.359922e+02
4.000000e-08	-2.850385e-06	-5.133420e-09	-1.973186e+01	-3.358445e+02
5.000000e-08	-2.845427e-06	-5.130768e-09	-1.969754e+01	-3.356239e+02
6.000000e-08	-2.839659e-06	-5.127171e-09	-1.965761e+01	-3.353302e+02
7.000000e-08	-2.832883e-06	-5.110078e-09	-1.961070e+01	-3.349659e+02
8.000000e-08	-2.825048e-06	-5.109422e-09	-1.955646e+01	-3.345353e+02
9.000000e-08	-2.816066e-06	-5.143497e-09	-1.949429e+01	-3.340445e+02
1.000000e-07	-2.805690e-06	-5.173058e-09	-1.942246e+01	-3.335006e+02
1.100000e-07	-2.794078e-06	-5.043785e-09	-1.934207e+01	-3.329109e+02
1.200000e-07	-2.781697e-06	-4.993448e-09	-1.925637e+01	-3.322821e+02
1.300000e-07	-2.768438e-06	-5.096982e-09	-1.916458e+01	-3.316195e+02
1.400000e-07	-2.754070e-06	-5.178406e-09	-1.906512e+01	-3.309264e+02
1.500000e-07	-2.738719e-06	-4.970963e-09	-1.895885e+01	-3.302040e+02
1.600000e-07	-2.722178e-06	-4.981024e-09	-1.884434e+01	-3.294508e+02
1.700000e-07	-2.704248e-06	-5.191299e-09	-1.872022e+01	-3.286635e+02
1.800000e-07	-2.685548e-06	-4.976223e-09	-1.859077e+01	-3.278365e+02
1.900000e-07	-2.666311e-06	-4.909241e-09	-1.845760e+01	-3.269634e+02
2.000000e-07	-2.646097e-06	-5.070203e-09	-1.831767e+01	-3.260370e+02
2.100000e-07	-2.624914e-06	-4.970595e-09	-1.817103e+01	-3.250504e+02
2.200000e-07	-2.603020e-06	-4.845015e-09	-1.801947e+01	-3.239977e+02
2.300000e-07	-2.580259e-06	-5.017258e-09	-1.786190e+01	-3.228742e+02
2.400000e-07	-2.556477e-06	-4.994443e-09	-1.769727e+01	-3.216772e+02
2.500000e-07	-2.531927e-06	-4.844959e-09	-1.752733e+01	-3.204057e+02
2.600000e-07	-2.506635e-06	-4.868589e-09	-1.735224e+01	-3.190605e+02
2.700000e-07	-2.480265e-06	-4.902232e-09	-1.716970e+01	-3.176439e+02
2.800000e-07	-2.452712e-06	-4.805267e-09	-1.697896e+01	-3.161594e+02
2.900000e-07	-2.424147e-06	-4.804181e-09	-1.678121e+01	-3.146108e+02
3.000000e-07	-2.394740e-06	-4.786741e-09	-1.657765e+01	-3.130021e+02
3.100000e-07	-2.364633e-06	-4.770919e-09	-1.636923e+01	-3.113368e+02
3.200000e-07	-2.333852e-06	-4.799879e-09	-1.615614e+01	-3.096177e+02
3.300000e-07	-2.302233e-06	-4.683216e-09	-1.593726e+01	-3.078464e+02
3.400000e-07	-2.269855e-06	-4.677317e-09	-1.571313e+01	-3.060235e+02
3.500000e-07	-2.236930e-06	-4.677425e-09	-1.548520e+01	-3.041488e+02
3.600000e-07	-2.203289e-06	-4.604956e-09	-1.525232e+01	-3.022213e+02
3.700000e-07	-2.168463e-06	-4.602712e-09	-1.501124e+01	-3.002393e+02
3.800000e-07	-2.132477e-06	-4.611740e-09	-1.476213e+01	-2.982014e+02
3.900000e-07	-2.095860e-06	-4.515048e-09	-1.450864e+01	-2.961064e+02
4.000000e-07	-2.058682e-06	-4.505890e-09	-1.425128e+01	-2.939533e+02
4.100000e-07	-2.020753e-06	-4.505238e-09	-1.398871e+01	-2.917421e+02
4.200000e-07	-1.982101e-06	-4.414149e-09	-1.372114e+01	-2.894732e+02
4.300000e-07	-1.942702e-06	-4.388717e-09	-1.344840e+01	-2.871477e+02
4.400000e-07	-1.902588e-06	-4.372567e-09	-1.317071e+01	-2.847670e+02
4.500000e-07	-1.862039e-06	-4.335813e-09	-1.289001e+01	-2.823327e+02
4.600000e-07	-1.821163e-06	-4.290021e-09	-1.260704e+01	-2.798461e+02
4.700000e-07	-1.779611e-06	-4.260099e-09	-1.231940e+01	-2.773080e+02
4.800000e-07	-1.737000e-06	-4.200752e-09	-1.202442e+01	-2.747186e+02
4.900000e-07	-1.693374e-06	-4.160288e-09	-1.172242e+01	-2.720775e+02
5.000000e-07	-1.649065e-06	-4.127383e-09	-1.141569e+01	-2.693833e+02
5.100000e-07	-1.604358e-06	-4.084271e-09	-1.110621e+01	-2.666339e+02
5.200000e-07	-1.559290e-06	-4.042252e-09	-1.079422e+01	-2.638268e+02
5.300000e-07	-1.513653e-06	-3.999833e-09	-1.047830e+01	-2.609593e+02
5.400000e-07	-1.467399e-06	-3.960690e-09	-1.015811e+01	-2.580288e+02
5.500000e-07	-1.420665e-06	-3.901159e-09	-9.834590e+00	-2.550327e+02
5.600000e-07	-1.373485e-06	-3.854586e-09	-9.507986e+00	-2.519693e+02
5.700000e-07	-1.325766e-06	-3.799824e-09	-9.177650e+00	-2.488371e+02
5.800000e-07	-1.277564e-06	-3.761928e-09	-8.843966e+00	-2.456357e+02
5.900000e-07	-1.229045e-06	-3.717446e-09	-8.508090e+00	-2.423647e+02
6.000000e-07	-1.180200e-06	-3.662702e-09	-8.169963e+00	-2.390247e+02
6.100000e-07	-1.130838e-06	-3.606484e-09	-7.828255e+00	-2.356159e+02
6.200000e-07	-1.080750e-06	-3.549102e-09	-7.481519e+00	-2.321387e+02
6.300000e-07	-1.030022e-06	-3.502005e-09	-7.130349e+00	-2.285931e+02
6.400000e-07	-9.787090e-07	-3.443684e-09	-6.775137e+00	-2.249786e+02
6.500000e-07	-9.268708e-07	-3.385076e-09	-6.416285e+00	-2.212941e+02
6.600000e-07	-8.746684e-07	-3.322592e-09	-6.054913e+00	-2.175378e+02
6.700000e-07	-8.222077e-07	-3.269532e-09	-5.691753e+00	-2.137075e+02
6.800000e-07	-7.695554e-07	-3.207514e-09	-5.327266e+00	-2.098004e+02
6.900000e-07	-7.166640e-07	-3.141212e-09	-4.961124e+00	-2.058137e+02
7.000000e-07	-6.635178e-07	-3.076707e-09	-4.593218e+00	-2.017444e+02
7.100000e-07	-6.100933e-07	-3.015278e-09	-4.223385e+00	-1.975897e+02
7.200000e-07	-5.564309e-07	-2.955015e-09	-3.851906e+00	-1.933469e+02
7.300000e-07	-5.025648e-07	-2.884872e-09	-3.479017e+00	-1.890137e+02
7.400000e-07	-4.484660e-07	-2.812522e-09	-3.104517e+00	-1.845878e+02
7.500000e-07	-3.942043e-07	-2.737372e-09	-2.728889e+00	-1.800666e+02
7.600000e-07	-3.398583e-07	-2.671361e-09	-2.352677e+00	-1.754473e+02
7.700000e-07	-2.854520e-07	-2.599367e-09	-1.976048e+00	-1.707264e+02
7.800000e-07	-2.309556e-07	-2.521941e-09	-1.598796e+00	-1.658994e+02
7.900000e-07	-1.763553e-07	-2.445142e-09	-1.220824e+00	-1.609607e+02
8.000000e-07	-1.217366e-07	-2.371431e-09	-8.427245e-01	-1.559032e+02
8.100000e-07	-6.711310e-08	-2.294666e-09	-4.645921e-01	-1.507189e+02
8.200000e-07	-1.244164e-08	-2.208996e-09	-8.612758e-02	-1.453984e+02
8.300000e-07	4.218449e-08	-2.122830e-09	2.920231e-01	-1.399320e+02
8.400000e-07	9.675938e-08	-2.034925e-09	6.698191e-01	-1.343092e+02
8.500000e-07	1.513391e-07	-1.948803e-09	1.047648e+00	-1.285199e+02
8.600000e-07	2.058857e-07	-1.856367e-09	1.425249e+00	-1.225544e+02
8.700000e-07	2.604235e-07	-1.763305e-09	1.802788e+00	-1.164034e+02
8.800000e-07	3.149343e-07	-1.668624e-09	2.180140e+00	-1.100588e+02
8.900000e-07	3.693074e-07	-1.568621e-09	2.556539e+00	-1.035127e+02
9.000000e-07	4.235632e-07	-1.462660e-09	2.932127e+00	-9.675740e+01
9.100000e-07	4.776975e-07	-1.353786e-09	3.306872e+00	-8.978472e+01
9.200000e-07	5.316326e-07	-1.244759e-09	3.680240e+00	-8.258516e+01
9.300000e-07	5.853218e-07	-1.128344e-09	4.051904e+00	-7.514704e+01
9.400000e-07	6.387491e-07	-1.011127e-09	4.421756e+00	-6.745576e+01
9.500000e-07	6.918754e-07	-8.896823e-10	4.789524e+00	-5.949319e+01
9.600000e-07	7.447231e-07	-7.640897e-10	5.155363e+00	-5.123752e+01
9.700000e-07	7.973851e-07	-6.309110e-10	5.519918e+00	-4.266356e+01
9.800000e-07	8.498760e-07	-4.924470e-10	5.883287e+00	-3.374355e+01
9.900000e-07	9.020789e-07	-3.471585e-10	6.244663e+00	-2.444868e+01
1.000000e-06	9.538763e-07	-1.948448e-10	6.603232e+00	-1.475111e+01
1.010000e-06	1.005133e-06	-3.946274e-11	6.958055e+00	-4.626456e+00
1.020000e-06	1.055731e-06	1.218758e-10	7.308325e+00	5.943328e+00
1.030000e-06	1.105646e-06	2.886703e-10	7.653859e+00	1.696707e+01
1.040000e-06	1.154931e-06	4.648506e-10	7.995038e+00	2.844156e+01
1.050000e-06	1.203753e-06	6.452969e-10	8.333007e+00	4.034926e+01
1.060000e-06	1.252316e-06	8.327776e-10	8.669185e+00	5.265656e+01
1.070000e-06	1.300661e-06	1.026850e-09	9.003857e+00	6.531301e+01
1.080000e-06	1.348605e-06	1.223395e-09	9.335753e+00	7.825156e+01
1.090000e-06	1.396008e-06	1.422392e-09	9.663902e+00	9.138992e+01
1.100000e-06	1.442839e-06	1.624041e-09	9.988088e+00	1.046330e+02
1.110000e-06	1.489167e-06	1.828533e-09	1.030879e+01	1.178764e+02
1.120000e-06	1.535001e-06	2.029479e-09	1.062608e+01	1.310105e+02
1.130000e-06	1.580270e-06	2.225782e-09	1.093946e+01	1.439252e+02
1.140000e-06	1.625086e-06	2.415851e-09	1.124970e+01	1.565145e+02
1.150000e-06	1.669598e-06	2.599944e-09	1.155783e+01	1.686818e+02
1.160000e-06	1.713710e-06	2.775056e-09	1.186320e+01	1.803431e+02
1.170000e-06	1.757105e-06	2.941746e-09	1.216360e+01	1.914310e+02
1.180000e-06	1.799521e-06	3.099508e-09	1.245723e+01	2.018966e+02
1.190000e-06	1.841002e-06	3.248455e-09	1.274438e+01	2.117105e+02
1.200000e-06	1.881816e-06	3.388240e-09	1.302692e+01	2.208625e+02
1.210000e-06	1.922155e-06	3.517855e-09	1.330616e+01	2.293603e+02
1.220000e-06	1.961865e-06	3.638061e-09	1.358106e+01	2.372273e+02
1.230000e-06	2.000864e-06	3.746656e-09	1.385103e+01	2.444989e+02
1.240000e-06	2.039217e-06	3.847769e-09	1.411653e+01	2.512193e+02
1.250000e-06	2.076840e-06	3.939727e-09	1.437698e+01	2.574375e+02
1.260000e-06	2.113774e-06	4.026646e-09	1.463265e+01	2.632037e+02
1.270000e-06	2.150227e-06	4.109844e-09	1.488500e+01	2.685663e+02
1.280000e-06	2.186140e-06	4.187917e-09	1.513360e+01	2.735690e+02
1.290000e-06	2.221068e-06	4.257803e-09	1.537540e+01	2.782496e+02
1.300000e-06	2.254771e-06	4.321030e-09	1.560871e+01	2.826387e+02
1.310000e-06	2.287604e-06	4.381762e-09	1.583599e+01	2.867601e+02
1.320000e-06	2.319831e-06	4.440253e-09	1.605909e+01	2.906309e+02
1.330000e-06	2.351296e-06	4.495178e-09	1.627690e+01	2.942636e+02
1.340000e-06	2.381967e-06	4.544607e-09	1.648922e+01	2.976668e+02
1.350000e-06	2.411847e-06	4.591462e-09	1.669607e+01	3.008475e+02
1.360000e-06	2.440924e-06	4.634466e-09	1.689735e+01	3.038122e+02
1.370000e-06	2.469384e-06	4.672852e-09	1.709437e+01	3.065685e+02
1.380000e-06	2.497052e-06	4.707230e-09	1.728590e+01	3.091256e+02
1.390000e-06	2.523438e-06	4.740912e-09	1.746856e+01	3.114951e+02
1.400000e-06	2.548611e-06	4.774655e-09	1.764282e+01	3.136904e+02
1.410000e-06	2.572981e-06	4.808062e-09	1.781152e+01	3.157267e+02
1.420000e-06	2.596500e-06	4.839413e-09	1.797433e+01	3.176198e+02
1.430000e-06	2.619111e-06	4.866306e-09	1.813086e+01	3.193853e+02
1.440000e-06	2.640871e-06	4.889128e-09	1.828149e+01	3.210373e+02
1.450000e-06	2.661831e-06	4.907131e-09	1.842659e+01	3.225883e+02
1.460000e-06	2.682109e-06	4.924116e-09	1.856696e+01	3.240477e+02
1.470000e-06	2.701465e-06	4.942570e-09	1.870096e+01	3.254221e+02
1.480000e-06	2.719770e-06	4.963233e-09	1.882768e+01	3.267150e+02
1.490000e-06	2.737180e-06	4.984360e-09	1.894819e+01	3.279276e+02
1.500000e-06	2.753629e-06	5.003633e-09	1.906207e+01	3.290591e+02
1.510000e-06	2.768930e-06	5.021626e-09	1.916799e+01	3.301078e+02
1.520000e-06	2.783084e-06	5.037036e-09	1.926597e+01	3.310720e+02
1.530000e-06	2.796228e-06	5.045476e-09	1.935695e+01	3.319505e+02
1.540000e-06	2.808406e-06	5.048856e-09	1.944126e+01	3.327437e+02
1.550000e-06	2.819297e-06	5.054950e-09	1.951665e+01	3.334535e+02
1.560000e-06	2.828820e-06	5.065258e-09	1.958257e+01	3.340840e+02
1.570000e-06	2.837388e-06	5.078058e-09	1.964189e+01	3.346408e+02
1.580000e-06	2.845115e-06	5.090326e-09	1.969538e+01	3.351306e+02
1.590000e-06	2.851863e-06	5.100761e-09	1.974209e+01	3.355607e+02
1.600000e-06	2.857588e-06	5.108834e-09	1.978172e+01	3.359381e+02
1.610000e-06	2.862464e-06	5.112634e-09	1.981548e+01	3.362686e+02
1.620000e-06	2.866519e-06	5.112570e-09	1.984355e+01	3.365563e+02
1.630000e-06	2.869419e-06	5.112092e-09	1.986362e+01	3.368034e+02
1.640000e-06	2.870983e-06	5.112717e-09	1.987445e+01	3.370095e+02
1.650000e-06	2.871568e-06	5.116755e-09	1.987850e+01	3.371719e+02
1.660000e-06	2.871341e-06	5.122539e-09	1.987692e+01	3.372863e+02
1.670000e-06	2.870166e-06	5.122461e-09	1.986879e+01	3.373470e+02
1.680000e-06	2.868063e-06	5.120772e-09	1.985423e+01	3.373479e+02
1.690000e-06	2.865145e-06	5.124864e-09	1.983403e+01	3.372833e+02
1.700000e-06	2.861546e-06	5.127010e-09	1.980912e+01	3.371488e+02
1.710000e-06	2.856969e-06	5.120412e-09	1.977744e+01	3.369416e+02
1.720000e-06	2.851086e-06	5.110492e-09	1.973671e+01	3.366612e+02
1.730000e-06	2.844150e-06	5.132154e-09	1.968870e+01	3.363096e+02
1.740000e-06	2.836461e-06	5.104137e-09	1.963547e+01	3.358907e+02
1.750000e-06	2.827560e-06	5.039100e-09	1.957385e+01	3.354105e+02
1.760000e-06	2.816944e-06	5.017235e-09	1.950036e+01	3.348759e+02
1.770000e-06	2.805194e-06	5.173440e-09	1.941902e+01	3.342942e+02
1.780000e-06	2.793348e-06	5.153446e-09	1.933702e+01	3.336723e+02
1.790000e-06	2.781057e-06	4.951065e-09	1.925193e+01	3.330158e+02
1.800000e-06	2.767002e-06	5.016382e-09	1.915464e+01	3.323283e+02
1.810000e-06	2.751473e-06	5.153191e-09	1.904714e+01	3.316115e+02
1.820000e-06	2.735534e-06	5.004689e-09	1.893680e+01	3.308644e+02
1.830000e-06	2.718680e-06	4.871052e-09	1.882012e+01	3.300839e+02
1.840000e-06	2.700327e-06	5.124216e-09	1.869308e+01	3.292648e+02
1.850000e-06	2.681205e-06	5.089458e-09	1.856070e+01	3.284007e+02
1.860000e-06	2.661536e-06	4.821357e-09	1.842454e+01	3.274847e+02
1.870000e-06	2.640543e-06	5.044569e-09	1.827922e+01	3.265097e+02
1.880000e-06	2.618329e-06	5.087054e-09	1.812545e+01	3.254695e+02
1.890000e-06	2.595296e-06	4.774035e-09	1.796600e+01	3.243593e+02
1.900000e-06	2.571208e-06	4.910377e-09	1.779925e+01	3.231759e+02
1.910000e-06	2.546343e-06	5.003245e-09	1.762712e+01	3.219180e+02
1.920000e-06	2.520855e-06	4.838216e-09	1.745068e+01	3.205862e+02
1.930000e-06	2.494398e-06	4.864375e-09	1.726753e+01	3.191825e+02
1.940000e-06	2.467223e-06	4.888523e-09	1.707941e+01	3.177101e+02
1.950000e-06	2.439374e-06	4.798879e-09	1.688662e+01	3.161730e+02
1.960000e-06	2.410187e-06	4.816769e-09	1.668458e+01	3.145751e+02
1.970000e-06	2.379804e-06	4.744676e-09	1.647425e+01	3.129201e+02
1.980000e-06	2.348750e-06	4.689082e-09	1.625928e+01	3.112107e+02
1.990000e-06	2.316967e-06	4.794269e-09	1.603926e+01	3.094490e+02
2.000000e-06	2.284388e-06	4.679457e-09	1.581373e+01	3.076357e+02
2.010000e-06	2.250983e-06	4.633881e-09	1.558248e+01	3.057707e+02
2.020000e-06	2.216798e-06	4.704353e-09	1.534584e+01	3.038530e+02
2.030000e-06	2.182036e-06	4.556787e-09	1.510520e+01	3.018812e+02
2.040000e-06	2.146692e-06	4.531385e-09	1.486053e+01	2.998538e+02
2.050000e-06	2.110605e-06	4.582109e-09	1.461071e+01	2.977693e+02
2.060000e-06	2.073564e-06	4.466734e-09	1.435430e+01	2.956270e+02
2.070000e-06	2.035371e-06	4.471002e-09	1.408991e+01	2.934265e+02
2.080000e-06	1.996379e-06	4.476293e-09	1.381998e+01	2.911682e+02
2.090000e-06	1.956910e-06	4.384985e-09	1.354676e+01	2.888531e+02
2.100000e-06	1.916810e-06	4.378583e-09	1.326917e+01	2.864825e+02
2.110000e-06	1.876053e-06	4.315125e-09	1.298703e+01	2.840580e+02
2.120000e-06	1.834643e-06	4.267016e-09	1.270036e+01	2.815809e+02
2.130000e-06	1.792600e-06	4.264820e-09	1.240931e+01	2.790523e+02
2.140000e-06	1.750005e-06	4.208829e-09	1.211445e+01	2.764725e+02
2.150000e-06	1.706946e-06	4.181586e-09	1.181638e+01	2.738410e+02
2.160000e-06	1.663506e-06	4.129122e-09	1.151566e+01	2.711567e+02
2.170000e-06	1.619553e-06	4.077830e-09	1.121139e+01	2.684177e+02
2.180000e-06	1.574921e-06	4.047587e-09	1.090243e+01	2.656215e+02
2.190000e-06	1.529633e-06	3.996441e-09	1.058892e+01	2.627654e+02
2.200000e-06	1.483825e-06	3.958466e-09	1.027181e+01	2.598466e+02
2.210000e-06	1.437668e-06	3.920920e-09	9.952291e+00	2.568627e+02
2.220000e-06	1.391076e-06	3.867623e-09	9.629760e+00	2.538118e+02
2.230000e-06	1.343833e-06	3.827809e-09	9.302715e+00	2.506923e+02
2.240000e-06	1.295930e-06	3.757546e-09	8.971106e+00	2.475036e+02
2.250000e-06	1.247473e-06	3.703888e-09	8.635661e+00	2.442454e+02
2.260000e-06	1.198567e-06	3.676866e-09	8.297110e+00	2.409180e+02
2.270000e-06	1.149250e-06	3.623419e-09	7.955714e+00	2.375218e+02
2.280000e-06	1.099528e-06	3.580262e-09	7.611506e+00	2.340571e+02
2.290000e-06	1.049368e-06	3.516255e-09	7.264278e+00	2.305241e+02
2.300000e-06	9.987218e-07	3.461616e-09	6.913676e+00	2.269223e+02
2.310000e-06	9.477291e-07	3.409942e-09	6.560677e+00	2.232508e+02
2.320000e-06	8.965059e-07	3.337606e-09	6.206084e+00	2.195078e+02
2.330000e-06	8.450007e-07	3.281727e-09	5.849538e+00	2.156913e+02
2.340000e-06	7.931311e-07	3.230785e-09	5.490470e+00	2.117985e+02
2.350000e-06	7.407746e-07	3.178689e-09	5.128030e+00	2.078265e+02
2.360000e-06	6.880485e-07	3.116609e-09	4.763032e+00	2.037725e+02
2.370000e-06	6.349018e-07	3.045264e-09	4.395123e+00	1.996336e+02
2.380000e-06	5.812655e-07	2.985972e-09	4.023825e+00	1.954071e+02
2.390000e-06	5.272553e-07	2.929664e-09	3.649937e+00	1.910905e+02
2.400000e-06	4.729487e-07	2.862496e-09	3.273999e+00	1.866817e+02
2.410000e-06	4.184759e-07	2.792896e-09	2.896909e+00	1.821780e+02
2.420000e-06	3.639135e-07	2.720612e-09	2.519200e+00	1.775768e+02
2.430000e-06	3.092393e-07	2.656715e-09	2.140717e+00	1.728747e+02
2.440000e-06	2.544244e-07	2.587259e-09	1.761259e+00	1.680674e+02
2.450000e-06	1.994930e-07	2.505246e-09	1.380995e+00	1.631495e+02
2.460000e-06	1.444914e-07	2.427138e-09	1.000245e+00	1.581141e+02
2.470000e-06	8.949054e-08	2.349711e-09	6.195005e-01	1.529534e+02
2.480000e-06	3.447993e-08	2.276144e-09	2.386882e-01	1.476583e+02
2.490000e-06	-2.053171e-08	2.192753e-09	-1.421313e-01	1.422190e+02
2.500000e-06	-7.552753e-08	2.101535e-09	-5.228411e-01	1.366253e+02
2.510000e-06	-1.305103e-07	2.015040e-09	-9.034610e-01	1.308668e+02
2.520000e-06	-1.854609e-07	1.930614e-09	-1.283857e+00	1.249337e+02
2.530000e-06	-2.403807e-07	1.840844e-09	-1.664041e+00	1.188169e+02
2.540000e-06	-2.952571e-07	1.740876e-09	-2.043925e+00	1.125078e+02
2.550000e-06	-3.500536e-07	1.640528e-09	-2.423254e+00	1.059986e+02
2.560000e-06	-4.046872e-07	1.541312e-09	-2.801457e+00	9.928153e+01
2.570000e-06	-4.590840e-07	1.438325e-09	-3.178020e+00	9.234866e+01
2.580000e-06	-5.132743e-07	1.327847e-09	-3.553153e+00	8.519074e+01
2.590000e-06	-5.672714e-07	1.216582e-09	-3.926950e+00	7.779655e+01
2.600000e-06	-6.209301e-07	1.104777e-09	-4.298403e+00	7.015204e+01
2.610000e-06	-6.741239e-07	9.877136e-10	-4.666639e+00	6.223975e+01
2.620000e-06	-7.268092e-07	8.616047e-10	-5.031354e+00	5.403852e+01
2.630000e-06	-7.790392e-07	7.281249e-10	-5.392918e+00	4.552372e+01
2.640000e-06	-8.309188e-07	5.931030e-10	-5.752055e+00	3.666795e+01
2.650000e-06	-8.824450e-07	4.546524e-10	-6.108747e+00	2.744247e+01
2.660000e-06	-9.336627e-07	3.091141e-10	-6.463303e+00	1.781908e+01
2.670000e-06	-9.846069e-07	1.545297e-10	-6.815965e+00	7.772576e+00
2.680000e-06	-1.035243e-06	-3.501241e-12	-7.166494e+00	-2.716426e+00
2.690000e-06	-1.085472e-06	-1.666477e-10	-7.514208e+00	-1.365861e+01
2.700000e-06	-1.135254e-06	-3.370835e-10	-7.858825e+00	-2.505312e+01
2.710000e-06	-1.184601e-06	-5.172841e-10	-8.200432e+00	-3.688510e+01
2.720000e-06	-1.233491e-06	-7.049730e-10	-8.538870e+00	-4.912391e+01
2.730000e-06	-1.281778e-06	-8.957588e-10	-8.873138e+00	-6.172212e+01
2.740000e-06	-1.329233e-06	-1.091129e-09	-9.201649e+00	-7.461557e+01
2.750000e-06	-1.376010e-06	-1.293618e-09	-9.525460e+00	-8.772455e+01
2.760000e-06	-1.422228e-06	-1.502050e-09	-9.845407e+00	-1.009561e+02
2.770000e-06	-1.467926e-06	-1.708699e-09	-1.016175e+01	-1.142070e+02
2.780000e-06	-1.513280e-06	-1.912384e-09	-1.047572e+01	-1.273684e+02
2.790000e-06	-1.558269e-06	-2.111126e-09	-1.078716e+01	-1.403298e+02
2.800000e-06	-1.602835e-06	-2.304096e-09	-1.109566e+01	-1.529844e+02
2.810000e-06	-1.646847e-06	-2.491109e-09	-1.140034e+01	-1.652332e+02
2.820000e-06	-1.690309e-06	-2.670861e-09	-1.170120e+01	-1.769900e+02
2.830000e-06	-1.733383e-06	-2.840472e-09	-1.199939e+01	-1.881841e+02
2.840000e-06	-1.776067e-06	-3.000986e-09	-1.229486e+01	-1.987632e+02
2.850000e-06	-1.818159e-06	-3.156743e-09	-1.258625e+01	-2.086944e+02
2.860000e-06	-1.859575e-06	-3.303250e-09	-1.287295e+01	-2.179641e+02
2.870000e-06	-1.900394e-06	-3.436904e-09	-1.315552e+01	-2.265772e+02
2.880000e-06	-1.940547e-06	-3.558503e-09	-1.343348e+01	-2.345542e+02
2.890000e-06	-1.980002e-06	-3.672368e-09	-1.370661e+01	-2.419287e+02
2.900000e-06	-2.018910e-06	-3.777800e-09	-1.397595e+01	-2.487437e+02
2.910000e-06	-2.057234e-06	-3.875239e-09	-1.424125e+01	-2.550475e+02
2.920000e-06	-2.094601e-06	-3.965145e-09	-1.449992e+01	-2.608905e+02
2.930000e-06	-2.130842e-06	-4.047959e-09	-1.475081e+01	-2.663214e+02
2.940000e-06	-2.166250e-06	-4.127245e-09	-1.499592e+01	-2.713851e+02
