# Temperatura_=_23.41
# Concentracion g/m^3_=_15500.0
# C_Vs_to_Am_M_A/Vsm_=_65563218390.804596
# pendiente_HvsI_1/m_=_3716.3
# ordenada_HvsI_A/m_=_1297.0
# frecuencia_Hz_=_300839.37923537026

Tiempo_(s)	Campo_(V.s)	Magnetizacion_(V.s)	Campo_(kA/m)	Magnetizacion_(A/m)
0.000000e+00	-2.859085e-06	-5.154777e-09	-1.980151e+01	-3.383083e+02
1.000000e-08	-2.858024e-06	-5.150072e-09	-1.979416e+01	-3.383097e+02
2.000000e-08	-2.855976e-06	-5.146339e-09	-1.977998e+01	-3.382441e+02
3.000000e-08	-2.852609e-06	-5.145804e-09	-1.975666e+01	-3.381091e+02
4.000000e-08	-2.848185e-06	-5.147524e-09	-1.972602e+01	-3.379038e+02
5.000000e-08	-2.842979e-06	-5.146341e-09	-1.968996e+01	-3.376293e+02
6.000000e-08	-2.836926e-06	-5.141286e-09	-1.964804e+01	-3.372883e+02
7.000000e-08	-2.829919e-06	-5.127741e-09	-1.959952e+01	-3.368854e+02
8.000000e-08	-2.821850e-06	-5.147286e-09	-1.954363e+01	-3.364261e+02
9.000000e-08	-2.812591e-06	-5.166212e-09	-1.947951e+01	-3.359169e+02
1.000000e-07	-2.801870e-06	-5.150095e-09	-1.940525e+01	-3.353640e+02
1.100000e-07	-2.789968e-06	-5.023674e-09	-1.932282e+01	-3.347730e+02
1.200000e-07	-2.777425e-06	-5.055260e-09	-1.923595e+01	-3.341480e+02
1.300000e-07	-2.763935e-06	-5.162495e-09	-1.914252e+01	-3.334914e+02
1.400000e-07	-2.749365e-06	-5.098704e-09	-1.904161e+01	-3.328035e+02
1.500000e-07	-2.733928e-06	-5.007468e-09	-1.893470e+01	-3.320823e+02
1.600000e-07	-2.717064e-06	-5.101278e-09	-1.881790e+01	-3.313241e+02
1.700000e-07	-2.698762e-06	-5.188916e-09	-1.869115e+01	-3.305235e+02
1.800000e-07	-2.679879e-06	-4.984428e-09	-1.856036e+01	-3.296742e+02
1.900000e-07	-2.660379e-06	-5.007989e-09	-1.842531e+01	-3.287695e+02
2.000000e-07	-2.639912e-06	-5.114424e-09	-1.828356e+01	-3.278031e+02
2.100000e-07	-2.618608e-06	-4.944161e-09	-1.813601e+01	-3.267696e+02
2.200000e-07	-2.596566e-06	-4.943060e-09	-1.798335e+01	-3.256650e+02
2.300000e-07	-2.573580e-06	-5.088000e-09	-1.782416e+01	-3.244868e+02
2.400000e-07	-2.549598e-06	-4.953434e-09	-1.765807e+01	-3.232342e+02
2.500000e-07	-2.524856e-06	-4.876458e-09	-1.748671e+01	-3.219081e+02
2.600000e-07	-2.499334e-06	-4.943247e-09	-1.730994e+01	-3.205105e+02
2.700000e-07	-2.472769e-06	-4.906059e-09	-1.712596e+01	-3.190443e+02
2.800000e-07	-2.445047e-06	-4.836523e-09	-1.693396e+01	-3.175127e+02
2.900000e-07	-2.416295e-06	-4.835735e-09	-1.673483e+01	-3.159191e+02
3.000000e-07	-2.386780e-06	-4.831407e-09	-1.653041e+01	-3.142661e+02
3.100000e-07	-2.356593e-06	-4.802254e-09	-1.632134e+01	-3.125558e+02
3.200000e-07	-2.325634e-06	-4.796154e-09	-1.610693e+01	-3.107893e+02
3.300000e-07	-2.293810e-06	-4.716697e-09	-1.588652e+01	-3.089671e+02
3.400000e-07	-2.261316e-06	-4.705471e-09	-1.566147e+01	-3.070889e+02
3.500000e-07	-2.228289e-06	-4.684417e-09	-1.543273e+01	-3.051542e+02
3.600000e-07	-2.194454e-06	-4.647151e-09	-1.519840e+01	-3.031624e+02
3.700000e-07	-2.159427e-06	-4.650265e-09	-1.495581e+01	-3.011132e+02
3.800000e-07	-2.123311e-06	-4.598997e-09	-1.470568e+01	-2.990068e+02
3.900000e-07	-2.086592e-06	-4.553296e-09	-1.445137e+01	-2.968442e+02
4.000000e-07	-2.049347e-06	-4.547306e-09	-1.419341e+01	-2.946272e+02
4.100000e-07	-2.011373e-06	-4.501315e-09	-1.393041e+01	-2.923579e+02
4.200000e-07	-1.972613e-06	-4.429230e-09	-1.366197e+01	-2.900392e+02
4.300000e-07	-1.933062e-06	-4.424843e-09	-1.338805e+01	-2.876736e+02
4.400000e-07	-1.892830e-06	-4.395229e-09	-1.310940e+01	-2.852636e+02
4.500000e-07	-1.852192e-06	-4.357409e-09	-1.282795e+01	-2.828110e+02
4.600000e-07	-1.811228e-06	-4.314208e-09	-1.254424e+01	-2.803163e+02
4.700000e-07	-1.769593e-06	-4.271951e-09	-1.225589e+01	-2.777790e+02
4.800000e-07	-1.726890e-06	-4.221978e-09	-1.196013e+01	-2.751973e+02
4.900000e-07	-1.683175e-06	-4.175088e-09	-1.165737e+01	-2.725682e+02
5.000000e-07	-1.638810e-06	-4.151381e-09	-1.135011e+01	-2.698878e+02
5.100000e-07	-1.594048e-06	-4.106744e-09	-1.104009e+01	-2.671516e+02
5.200000e-07	-1.548918e-06	-4.064521e-09	-1.072753e+01	-2.643549e+02
5.300000e-07	-1.503211e-06	-4.023156e-09	-1.041097e+01	-2.614932e+02
5.400000e-07	-1.456858e-06	-3.983274e-09	-1.008994e+01	-2.585629e+02
5.500000e-07	-1.410000e-06	-3.919008e-09	-9.765409e+00	-2.555609e+02
5.600000e-07	-1.362658e-06	-3.870079e-09	-9.437525e+00	-2.524859e+02
5.700000e-07	-1.314819e-06	-3.826802e-09	-9.106205e+00	-2.493371e+02
5.800000e-07	-1.266540e-06	-3.783008e-09	-8.771833e+00	-2.461152e+02
5.900000e-07	-1.217906e-06	-3.741302e-09	-8.435001e+00	-2.428214e+02
6.000000e-07	-1.168909e-06	-3.688456e-09	-8.095654e+00	-2.394574e+02
6.100000e-07	-1.119427e-06	-3.633613e-09	-7.752951e+00	-2.360248e+02
6.200000e-07	-1.069300e-06	-3.572202e-09	-7.405783e+00	-2.325250e+02
6.300000e-07	-1.018464e-06	-3.522396e-09	-7.053698e+00	-2.289585e+02
6.400000e-07	-9.670367e-07	-3.461476e-09	-6.697524e+00	-2.253248e+02
6.500000e-07	-9.151917e-07	-3.399532e-09	-6.338455e+00	-2.216224e+02
6.600000e-07	-8.630186e-07	-3.340063e-09	-5.977114e+00	-2.178490e+02
6.700000e-07	-8.105109e-07	-3.287215e-09	-5.613454e+00	-2.140011e+02
6.800000e-07	-7.577800e-07	-3.231443e-09	-5.248250e+00	-2.100751e+02
6.900000e-07	-7.048268e-07	-3.164391e-09	-4.881505e+00	-2.060667e+02
7.000000e-07	-6.516028e-07	-3.099797e-09	-4.512885e+00	-2.019721e+02
7.100000e-07	-5.981581e-07	-3.036826e-09	-4.142737e+00	-1.977874e+02
7.200000e-07	-5.445425e-07	-2.974558e-09	-3.771404e+00	-1.935095e+02
7.300000e-07	-4.907430e-07	-2.899746e-09	-3.398799e+00	-1.891355e+02
7.400000e-07	-4.366736e-07	-2.824504e-09	-3.024324e+00	-1.846630e+02
7.500000e-07	-3.824236e-07	-2.752949e-09	-2.648598e+00	-1.800895e+02
7.600000e-07	-3.280907e-07	-2.688562e-09	-2.272298e+00	-1.754126e+02
7.700000e-07	-2.736492e-07	-2.617462e-09	-1.895246e+00	-1.706290e+02
7.800000e-07	-2.190963e-07	-2.536390e-09	-1.517422e+00	-1.657345e+02
7.900000e-07	-1.644975e-07	-2.460810e-09	-1.139280e+00	-1.607239e+02
8.000000e-07	-1.098670e-07	-2.384488e-09	-7.609192e-01	-1.555905e+02
8.100000e-07	-5.520938e-08	-2.303277e-09	-3.823704e-01	-1.503267e+02
8.200000e-07	-5.742703e-10	-2.211720e-09	-3.977294e-03	-1.449233e+02
8.300000e-07	5.404856e-08	-2.121640e-09	3.743307e-01	-1.393710e+02
8.400000e-07	1.086557e-07	-2.034719e-09	7.525301e-01	-1.336597e+02
8.500000e-07	1.632402e-07	-1.949564e-09	1.130573e+00	-1.277797e+02
8.600000e-07	2.178206e-07	-1.857943e-09	1.508587e+00	-1.217217e+02
8.700000e-07	2.723557e-07	-1.762134e-09	1.886287e+00	-1.154769e+02
8.800000e-07	3.267842e-07	-1.667836e-09	2.263249e+00	-1.090374e+02
8.900000e-07	3.810849e-07	-1.566355e-09	2.639326e+00	-1.023955e+02
9.000000e-07	4.352304e-07	-1.458272e-09	3.014329e+00	-9.554330e+01
9.100000e-07	4.892158e-07	-1.345318e-09	3.388222e+00	-8.847218e+01
9.200000e-07	5.430108e-07	-1.235594e-09	3.760797e+00	-8.117162e+01
9.300000e-07	5.965432e-07	-1.120506e-09	4.131552e+00	-7.362851e+01
9.400000e-07	6.498708e-07	-1.000487e-09	4.500890e+00	-6.582632e+01
9.500000e-07	7.029813e-07	-8.748764e-10	4.868723e+00	-5.774467e+01
9.600000e-07	7.558328e-07	-7.457721e-10	5.234764e+00	-4.935928e+01
9.700000e-07	8.084471e-07	-6.118210e-10	5.599161e+00	-4.064250e+01
9.800000e-07	8.607782e-07	-4.706249e-10	5.961597e+00	-3.156441e+01
9.900000e-07	9.127627e-07	-3.239961e-10	6.321632e+00	-2.209460e+01
1.000000e-06	9.643592e-07	-1.685698e-10	6.678980e+00	-1.220445e+01
1.010000e-06	1.015398e-06	-8.980672e-12	7.032466e+00	-1.869977e+00
1.020000e-06	1.065792e-06	1.563771e-10	7.381484e+00	8.925246e+00
1.030000e-06	1.115539e-06	3.271285e-10	7.726022e+00	2.018701e+01
1.040000e-06	1.164695e-06	5.072038e-10	8.066471e+00	3.190776e+01
1.050000e-06	1.213498e-06	6.920947e-10	8.404473e+00	4.406433e+01
1.060000e-06	1.262090e-06	8.807320e-10	8.741014e+00	5.661659e+01
1.070000e-06	1.310396e-06	1.075769e-09	9.075568e+00	6.950695e+01
1.080000e-06	1.358210e-06	1.276437e-09	9.406725e+00	8.266107e+01
1.090000e-06	1.405440e-06	1.481056e-09	9.733827e+00	9.598972e+01
1.100000e-06	1.452158e-06	1.684222e-09	1.005739e+01	1.093916e+02
1.110000e-06	1.498406e-06	1.887955e-09	1.037770e+01	1.227574e+02
1.120000e-06	1.544078e-06	2.087292e-09	1.069401e+01	1.359740e+02
1.130000e-06	1.589181e-06	2.284613e-09	1.100639e+01	1.489298e+02
1.140000e-06	1.633927e-06	2.478955e-09	1.131629e+01	1.615191e+02
1.150000e-06	1.678409e-06	2.663799e-09	1.162436e+01	1.736473e+02
1.160000e-06	1.722394e-06	2.837042e-09	1.192900e+01	1.852343e+02
1.170000e-06	1.765544e-06	3.000530e-09	1.222785e+01	1.962177e+02
1.180000e-06	1.807653e-06	3.155859e-09	1.251948e+01	2.065545e+02
1.190000e-06	1.848877e-06	3.300360e-09	1.280499e+01	2.162218e+02
1.200000e-06	1.889581e-06	3.436478e-09	1.308690e+01	2.252160e+02
1.210000e-06	1.929821e-06	3.564773e-09	1.336560e+01	2.335507e+02
1.220000e-06	1.969402e-06	3.683736e-09	1.363973e+01	2.412545e+02
1.230000e-06	2.008286e-06	3.791266e-09	1.390903e+01	2.483671e+02
1.240000e-06	2.046483e-06	3.891259e-09	1.417358e+01	2.549359e+02
1.250000e-06	2.083901e-06	3.982446e-09	1.443273e+01	2.610116e+02
1.260000e-06	2.120734e-06	4.065904e-09	1.468783e+01	2.666454e+02
1.270000e-06	2.157134e-06	4.143986e-09	1.493992e+01	2.718853e+02
1.280000e-06	2.192756e-06	4.217605e-09	1.518664e+01	2.767746e+02
1.290000e-06	2.227313e-06	4.286089e-09	1.542597e+01	2.813497e+02
1.300000e-06	2.260801e-06	4.350417e-09	1.565790e+01	2.856401e+02
1.310000e-06	2.293499e-06	4.411353e-09	1.588436e+01	2.896682e+02
1.320000e-06	2.325551e-06	4.467034e-09	1.610635e+01	2.934507e+02
1.330000e-06	2.356831e-06	4.519097e-09	1.632299e+01	2.969994e+02
1.340000e-06	2.387377e-06	4.566928e-09	1.653455e+01	3.003229e+02
1.350000e-06	2.417091e-06	4.611233e-09	1.674034e+01	3.034285e+02
1.360000e-06	2.446021e-06	4.651647e-09	1.694071e+01	3.063234e+02
1.370000e-06	2.474328e-06	4.688083e-09	1.713675e+01	3.090158e+02
1.380000e-06	2.501654e-06	4.721486e-09	1.732601e+01	3.115156e+02
1.390000e-06	2.527704e-06	4.756322e-09	1.750643e+01	3.138349e+02
1.400000e-06	2.552711e-06	4.791523e-09	1.767962e+01	3.159873e+02
1.410000e-06	2.576882e-06	4.822455e-09	1.784703e+01	3.179879e+02
1.420000e-06	2.600189e-06	4.851174e-09	1.800845e+01	3.198521e+02
1.430000e-06	2.622628e-06	4.878459e-09	1.816386e+01	3.215947e+02
1.440000e-06	2.644191e-06	4.903272e-09	1.831319e+01	3.232292e+02
1.450000e-06	2.665029e-06	4.922910e-09	1.845752e+01	3.247670e+02
1.460000e-06	2.685190e-06	4.939599e-09	1.859715e+01	3.262167e+02
1.470000e-06	2.704360e-06	4.957652e-09	1.872992e+01	3.275844e+02
1.480000e-06	2.722473e-06	4.978510e-09	1.885537e+01	3.288734e+02
1.490000e-06	2.739685e-06	4.998455e-09	1.897457e+01	3.300849e+02
1.500000e-06	2.755820e-06	5.014411e-09	1.908632e+01	3.312184e+02
1.510000e-06	2.770749e-06	5.029889e-09	1.918971e+01	3.322728e+02
1.520000e-06	2.784634e-06	5.044692e-09	1.928588e+01	3.332466e+02
1.530000e-06	2.797597e-06	5.057495e-09	1.937566e+01	3.341394e+02
1.540000e-06	2.809506e-06	5.066694e-09	1.945814e+01	3.349515e+02
1.550000e-06	2.820014e-06	5.073804e-09	1.953091e+01	3.356847e+02
1.560000e-06	2.829270e-06	5.083926e-09	1.959502e+01	3.363423e+02
1.570000e-06	2.837683e-06	5.097856e-09	1.965329e+01	3.369284e+02
1.580000e-06	2.845172e-06	5.111359e-09	1.970516e+01	3.374479e+02
1.590000e-06	2.851680e-06	5.120418e-09	1.975023e+01	3.379058e+02
1.600000e-06	2.857254e-06	5.126318e-09	1.978883e+01	3.383066e+02
1.610000e-06	2.861981e-06	5.131038e-09	1.982157e+01	3.386537e+02
1.620000e-06	2.865857e-06	5.133905e-09	1.984842e+01	3.389489e+02
1.630000e-06	2.868447e-06	5.135940e-09	1.986635e+01	3.391927e+02
1.640000e-06	2.869774e-06	5.137890e-09	1.987555e+01	3.393836e+02
1.650000e-06	2.870201e-06	5.142311e-09	1.987850e+01	3.395189e+02
1.660000e-06	2.869699e-06	5.148682e-09	1.987503e+01	3.395952e+02
1.670000e-06	2.868267e-06	5.148626e-09	1.986511e+01	3.396085e+02
1.680000e-06	2.865945e-06	5.145299e-09	1.984903e+01	3.395552e+02
1.690000e-06	2.862875e-06	5.142766e-09	1.982776e+01	3.394329e+02
1.700000e-06	2.859115e-06	5.140414e-09	1.980172e+01	3.392403e+02
1.710000e-06	2.854226e-06	5.137505e-09	1.976786e+01	3.389782e+02
1.720000e-06	2.848050e-06	5.133797e-09	1.972509e+01	3.386490e+02
1.730000e-06	2.840978e-06	5.144566e-09	1.967611e+01	3.382569e+02
1.740000e-06	2.833097e-06	5.094723e-09	1.962152e+01	3.378074e+02
1.750000e-06	2.823835e-06	5.062681e-09	1.955738e+01	3.373068e+02
1.760000e-06	2.812880e-06	5.102794e-09	1.948151e+01	3.367614e+02
1.770000e-06	2.801064e-06	5.171059e-09	1.939967e+01	3.361770e+02
1.780000e-06	2.789269e-06	5.113662e-09	1.931798e+01	3.355580e+02
1.790000e-06	2.776701e-06	4.949831e-09	1.923094e+01	3.349072e+02
1.800000e-06	2.762207e-06	5.076390e-09	1.913055e+01	3.342251e+02
1.810000e-06	2.746541e-06	5.126516e-09	1.902205e+01	3.335103e+02
1.820000e-06	2.730573e-06	4.986648e-09	1.891147e+01	3.327593e+02
1.830000e-06	2.713444e-06	5.027396e-09	1.879283e+01	3.319668e+02
1.840000e-06	2.694882e-06	5.162277e-09	1.866427e+01	3.311269e+02
1.850000e-06	2.675747e-06	5.045909e-09	1.853175e+01	3.302327e+02
1.860000e-06	2.655888e-06	4.930985e-09	1.839421e+01	3.292780e+02
1.870000e-06	2.634589e-06	5.110675e-09	1.824669e+01	3.282570e+02
1.880000e-06	2.612176e-06	5.027687e-09	1.809147e+01	3.271655e+02
1.890000e-06	2.588960e-06	4.832620e-09	1.793067e+01	3.260007e+02
1.900000e-06	2.564679e-06	5.007883e-09	1.776251e+01	3.247615e+02
1.910000e-06	2.539676e-06	5.006589e-09	1.758935e+01	3.234486e+02
1.920000e-06	2.513995e-06	4.848330e-09	1.741148e+01	3.220637e+02
1.930000e-06	2.487374e-06	4.926462e-09	1.722711e+01	3.206097e+02
1.940000e-06	2.460139e-06	4.903929e-09	1.703849e+01	3.190898e+02
1.950000e-06	2.432078e-06	4.837056e-09	1.684414e+01	3.175072e+02
1.960000e-06	2.402614e-06	4.835292e-09	1.664007e+01	3.158648e+02
1.970000e-06	2.372061e-06	4.777963e-09	1.642847e+01	3.141648e+02
1.980000e-06	2.340817e-06	4.772127e-09	1.621208e+01	3.124085e+02
1.990000e-06	2.308881e-06	4.792333e-09	1.599090e+01	3.105964e+02
2.000000e-06	2.276247e-06	4.697822e-09	1.576488e+01	3.087284e+02
2.010000e-06	2.242756e-06	4.696916e-09	1.553293e+01	3.068040e+02
2.020000e-06	2.208466e-06	4.684113e-09	1.529545e+01	3.048226e+02
2.030000e-06	2.173601e-06	4.583367e-09	1.505397e+01	3.027838e+02
2.040000e-06	2.138070e-06	4.605584e-09	1.480789e+01	3.006878e+02
2.050000e-06	2.101734e-06	4.567336e-09	1.455624e+01	2.985353e+02
2.060000e-06	2.064417e-06	4.494979e-09	1.429778e+01	2.963280e+02
2.070000e-06	2.026009e-06	4.523344e-09	1.403178e+01	2.940681e+02
2.080000e-06	1.986917e-06	4.473032e-09	1.376103e+01	2.917581e+02
2.090000e-06	1.947349e-06	4.406395e-09	1.348699e+01	2.894009e+02
2.100000e-06	1.907126e-06	4.396591e-09	1.320842e+01	2.869989e+02
2.110000e-06	1.866240e-06	4.331594e-09	1.292525e+01	2.845540e+02
2.120000e-06	1.824742e-06	4.300097e-09	1.263784e+01	2.820669e+02
2.130000e-06	1.782684e-06	4.275234e-09	1.234655e+01	2.795375e+02
2.140000e-06	1.740049e-06	4.229849e-09	1.205127e+01	2.769641e+02
2.150000e-06	1.696949e-06	4.208140e-09	1.175277e+01	2.743440e+02
2.160000e-06	1.653479e-06	4.139483e-09	1.145170e+01	2.716732e+02
2.170000e-06	1.609368e-06	4.103572e-09	1.114619e+01	2.689475e+02
2.180000e-06	1.564528e-06	4.070813e-09	1.083565e+01	2.661621e+02
2.190000e-06	1.519096e-06	4.010716e-09	1.052099e+01	2.633125e+02
2.200000e-06	1.473189e-06	3.981482e-09	1.020305e+01	2.603948e+02
2.210000e-06	1.426966e-06	3.936412e-09	9.882909e+00	2.574060e+02
2.220000e-06	1.380272e-06	3.883320e-09	9.559519e+00	2.543443e+02
2.230000e-06	1.332928e-06	3.837742e-09	9.231620e+00	2.512088e+02
2.240000e-06	1.284932e-06	3.781323e-09	8.899212e+00	2.480001e+02
2.250000e-06	1.236349e-06	3.738160e-09	8.562733e+00	2.447192e+02
2.260000e-06	1.187399e-06	3.696959e-09	8.223713e+00	2.413678e+02
2.270000e-06	1.138073e-06	3.643974e-09	7.882089e+00	2.379475e+02
2.280000e-06	1.088246e-06	3.596894e-09	7.537000e+00	2.344598e+02
2.290000e-06	1.037957e-06	3.531643e-09	7.188706e+00	2.309054e+02
2.300000e-06	9.872500e-07	3.473499e-09	6.837518e+00	2.272839e+02
2.310000e-06	9.362460e-07	3.416737e-09	6.484273e+00	2.235941e+02
2.320000e-06	8.849683e-07	3.354654e-09	6.129133e+00	2.198338e+02
2.330000e-06	8.333749e-07	3.306389e-09	5.771806e+00	2.159997e+02
2.340000e-06	7.814309e-07	3.250453e-09	5.412052e+00	2.120881e+02
2.350000e-06	7.290188e-07	3.196042e-09	5.049055e+00	2.080949e+02
2.360000e-06	6.761829e-07	3.130498e-09	4.683123e+00	2.040161e+02
2.370000e-06	6.228901e-07	3.061910e-09	4.314026e+00	1.998479e+02
2.380000e-06	5.691624e-07	3.002981e-09	3.941918e+00	1.955871e+02
2.390000e-06	5.151545e-07	2.939052e-09	3.567869e+00	1.912306e+02
2.400000e-06	4.609161e-07	2.873530e-09	3.192223e+00	1.867760e+02
2.410000e-06	4.065237e-07	2.806888e-09	2.815511e+00	1.822210e+02
2.420000e-06	3.519792e-07	2.738186e-09	2.437746e+00	1.775629e+02
2.430000e-06	2.972613e-07	2.669406e-09	2.058779e+00	1.727988e+02
2.440000e-06	2.424344e-07	2.594445e-09	1.679058e+00	1.679246e+02
2.450000e-06	1.875453e-07	2.516866e-09	1.298905e+00	1.629354e+02
2.460000e-06	1.325882e-07	2.442164e-09	9.182823e-01	1.578247e+02
2.470000e-06	7.761751e-08	2.361947e-09	5.375651e-01	1.525849e+02
2.480000e-06	2.264058e-08	2.280422e-09	1.568047e-01	1.472073e+02
2.490000e-06	-3.235081e-08	2.194846e-09	-2.240559e-01	1.416825e+02
2.500000e-06	-8.732526e-08	2.106897e-09	-6.047992e-01	1.360005e+02
2.510000e-06	-1.422737e-07	2.020162e-09	-9.853627e-01	1.301515e+02
2.520000e-06	-1.971829e-07	1.930737e-09	-1.365654e+00	1.241261e+02
2.530000e-06	-2.521036e-07	1.839647e-09	-1.746025e+00	1.179155e+02
2.540000e-06	-3.069619e-07	1.741510e-09	-2.125963e+00	1.115115e+02
2.550000e-06	-3.616695e-07	1.644109e-09	-2.504859e+00	1.049064e+02
2.560000e-06	-4.162370e-07	1.543635e-09	-2.882783e+00	9.809257e+01
2.570000e-06	-4.706530e-07	1.434730e-09	-3.259659e+00	9.106143e+01
2.580000e-06	-5.248923e-07	1.321261e-09	-3.635311e+00	8.380290e+01
2.590000e-06	-5.788247e-07	1.207108e-09	-4.008837e+00	7.630438e+01
2.600000e-06	-6.322898e-07	1.092827e-09	-4.379127e+00	6.855001e+01
2.610000e-06	-6.852764e-07	9.731769e-10	-4.746102e+00	6.052011e+01
2.620000e-06	-7.377988e-07	8.464960e-10	-5.109864e+00	5.219108e+01
2.630000e-06	-7.898910e-07	7.123822e-10	-5.470645e+00	4.353580e+01
2.640000e-06	-8.416044e-07	5.748497e-10	-5.828803e+00	3.452466e+01
2.650000e-06	-8.929738e-07	4.340226e-10	-6.184578e+00	2.512715e+01
2.660000e-06	-9.440814e-07	2.884161e-10	-6.538540e+00	1.531417e+01
2.670000e-06	-9.949645e-07	1.318144e-10	-6.890947e+00	5.060683e+00
2.680000e-06	-1.045551e-06	-3.247191e-11	-7.241298e+00	-5.651319e+00
2.690000e-06	-1.095738e-06	-2.007634e-10	-7.588886e+00	-1.682974e+01
2.700000e-06	-1.145414e-06	-3.746085e-10	-7.932934e+00	-2.846957e+01
2.710000e-06	-1.194634e-06	-5.560625e-10	-8.273821e+00	-4.055058e+01
2.720000e-06	-1.243407e-06	-7.466844e-10	-8.611617e+00	-5.303573e+01
2.730000e-06	-1.291504e-06	-9.412677e-10	-8.944731e+00	-6.587052e+01
2.740000e-06	-1.338825e-06	-1.140563e-09	-9.272463e+00	-7.898352e+01
2.750000e-06	-1.385438e-06	-1.346557e-09	-9.595298e+00	-9.228795e+01
2.760000e-06	-1.431428e-06	-1.556901e-09	-9.913813e+00	-1.056844e+02
2.770000e-06	-1.477001e-06	-1.765595e-09	-1.022944e+01	-1.190647e+02
2.780000e-06	-1.522297e-06	-1.971139e-09	-1.054316e+01	-1.323161e+02
2.790000e-06	-1.567260e-06	-2.171871e-09	-1.085457e+01	-1.453263e+02
2.800000e-06	-1.611744e-06	-2.365094e-09	-1.116266e+01	-1.579882e+02
2.810000e-06	-1.655564e-06	-2.551156e-09	-1.146614e+01	-1.702049e+02
2.820000e-06	-1.698871e-06	-2.730739e-09	-1.176608e+01	-1.818934e+02
2.830000e-06	-1.741859e-06	-2.900265e-09	-1.206380e+01	-1.929882e+02
2.840000e-06	-1.784352e-06	-3.056934e-09	-1.235810e+01	-2.034425e+02
2.850000e-06	-1.826165e-06	-3.207079e-09	-1.264769e+01	-2.132300e+02
2.860000e-06	-1.867422e-06	-3.350434e-09	-1.293343e+01	-2.223437e+02
2.870000e-06	-1.908098e-06	-3.482743e-09	-1.321515e+01	-2.307942e+02
2.880000e-06	-1.948038e-06	-3.602251e-09	-1.349176e+01	-2.386079e+02
2.890000e-06	-1.987385e-06	-3.712624e-09	-1.376427e+01	-2.458226e+02
2.900000e-06	-2.026272e-06	-3.817788e-09	-1.403360e+01	-2.524847e+02
2.910000e-06	-2.064452e-06	-3.914829e-09	-1.429803e+01	-2.586445e+02
2.920000e-06	-2.101540e-06	-4.001770e-09	-1.455490e+01	-2.643533e+02
2.930000e-06	-2.137552e-06	-4.081002e-09	-1.480431e+01	-2.696601e+02
2.940000e-06	-2.172867e-06	-4.158138e-09	-1.504889e+01	-2.746089e+02
