# Temperatura_=_17.38
# Concentracion g/m^3_=_15500.0
# C_Vs_to_Am_M_A/Vsm_=_65563218390.804596
# pendiente_HvsI_1/m_=_3716.3
# ordenada_HvsI_A/m_=_1297.0
# frecuencia_Hz_=_300847.64989607944

Tiempo_(s)	Campo_(V.s)	Magnetizacion_(V.s)	Campo_(kA/m)	Magnetizacion_(A/m)
0.000000e+00	-2.858111e-06	-5.100072e-09	-1.980241e+01	-3.343017e+02
1.000000e-08	-2.857181e-06	-5.097400e-09	-1.979597e+01	-3.342924e+02
2.000000e-08	-2.855265e-06	-5.091505e-09	-1.978269e+01	-3.342135e+02
3.000000e-08	-2.852092e-06	-5.087051e-09	-1.976071e+01	-3.340633e+02
4.000000e-08	-2.847898e-06	-5.086270e-09	-1.973165e+01	-3.338415e+02
5.000000e-08	-2.842923e-06	-5.084356e-09	-1.969718e+01	-3.335495e+02
6.000000e-08	-2.837098e-06	-5.078503e-09	-1.965682e+01	-3.331906e+02
7.000000e-08	-2.830328e-06	-5.071416e-09	-1.960992e+01	-3.327695e+02
8.000000e-08	-2.822543e-06	-5.073638e-09	-1.955598e+01	-3.322922e+02
9.000000e-08	-2.813526e-06	-5.065487e-09	-1.949350e+01	-3.317654e+02
1.000000e-07	-2.803041e-06	-5.049410e-09	-1.942086e+01	-3.311961e+02
1.100000e-07	-2.791346e-06	-5.023507e-09	-1.933983e+01	-3.305905e+02
1.200000e-07	-2.778881e-06	-5.031139e-09	-1.925347e+01	-3.299535e+02
1.300000e-07	-2.765530e-06	-5.025567e-09	-1.916097e+01	-3.292883e+02
1.400000e-07	-2.751151e-06	-4.996359e-09	-1.906134e+01	-3.285958e+02
1.500000e-07	-2.735881e-06	-4.999985e-09	-1.895554e+01	-3.278743e+02
1.600000e-07	-2.719350e-06	-5.017169e-09	-1.884100e+01	-3.271202e+02
1.700000e-07	-2.701483e-06	-5.015256e-09	-1.871721e+01	-3.263275e+02
1.800000e-07	-2.682907e-06	-4.977458e-09	-1.858851e+01	-3.254889e+02
1.900000e-07	-2.663677e-06	-4.979133e-09	-1.845527e+01	-3.245961e+02
2.000000e-07	-2.643492e-06	-4.958765e-09	-1.831542e+01	-3.236409e+02
2.100000e-07	-2.622443e-06	-4.911758e-09	-1.816959e+01	-3.226155e+02
2.200000e-07	-2.600596e-06	-4.925526e-09	-1.801822e+01	-3.215134e+02
2.300000e-07	-2.577799e-06	-4.929065e-09	-1.786027e+01	-3.203300e+02
2.400000e-07	-2.554008e-06	-4.873921e-09	-1.769544e+01	-3.190626e+02
2.500000e-07	-2.529446e-06	-4.856619e-09	-1.752526e+01	-3.177105e+02
2.600000e-07	-2.504129e-06	-4.847684e-09	-1.734985e+01	-3.162753e+02
2.700000e-07	-2.477721e-06	-4.811666e-09	-1.716688e+01	-3.147598e+02
2.800000e-07	-2.450148e-06	-4.780976e-09	-1.697584e+01	-3.131685e+02
2.900000e-07	-2.421617e-06	-4.755633e-09	-1.677817e+01	-3.115061e+02
3.000000e-07	-2.392268e-06	-4.738176e-09	-1.657482e+01	-3.097776e+02
3.100000e-07	-2.362188e-06	-4.725825e-09	-1.636641e+01	-3.079875e+02
3.200000e-07	-2.331412e-06	-4.710630e-09	-1.615318e+01	-3.061397e+02
3.300000e-07	-2.299819e-06	-4.665038e-09	-1.593429e+01	-3.042369e+02
3.400000e-07	-2.267492e-06	-4.637675e-09	-1.571031e+01	-3.022807e+02
3.500000e-07	-2.234653e-06	-4.609216e-09	-1.548279e+01	-3.002718e+02
3.600000e-07	-2.201100e-06	-4.577106e-09	-1.525031e+01	-2.982103e+02
3.700000e-07	-2.166366e-06	-4.554111e-09	-1.500966e+01	-2.960955e+02
3.800000e-07	-2.130498e-06	-4.519658e-09	-1.476115e+01	-2.939268e+02
3.900000e-07	-2.093963e-06	-4.492265e-09	-1.450802e+01	-2.917039e+02
4.000000e-07	-2.056875e-06	-4.465901e-09	-1.425105e+01	-2.894266e+02
4.100000e-07	-2.019060e-06	-4.419242e-09	-1.398905e+01	-2.870955e+02
4.200000e-07	-1.980502e-06	-4.368773e-09	-1.372190e+01	-2.847116e+02
4.300000e-07	-1.941174e-06	-4.346318e-09	-1.344942e+01	-2.822766e+02
4.400000e-07	-1.901141e-06	-4.314398e-09	-1.317205e+01	-2.797919e+02
4.500000e-07	-1.860683e-06	-4.272271e-09	-1.289174e+01	-2.772591e+02
4.600000e-07	-1.819866e-06	-4.230138e-09	-1.260893e+01	-2.746791e+02
4.700000e-07	-1.778391e-06	-4.189616e-09	-1.232158e+01	-2.720522e+02
4.800000e-07	-1.735901e-06	-4.142857e-09	-1.202719e+01	-2.693772e+02
4.900000e-07	-1.692361e-06	-4.093700e-09	-1.172552e+01	-2.666522e+02
5.000000e-07	-1.648121e-06	-4.053329e-09	-1.141900e+01	-2.638737e+02
5.100000e-07	-1.603464e-06	-4.012809e-09	-1.110960e+01	-2.610373e+02
5.200000e-07	-1.558383e-06	-3.976791e-09	-1.079725e+01	-2.581381e+02
5.300000e-07	-1.512785e-06	-3.935278e-09	-1.048132e+01	-2.551705e+02
5.400000e-07	-1.466578e-06	-3.885560e-09	-1.016118e+01	-2.521294e+02
5.500000e-07	-1.419836e-06	-3.827313e-09	-9.837331e+00	-2.490101e+02
5.600000e-07	-1.372627e-06	-3.777120e-09	-9.510244e+00	-2.458089e+02
5.700000e-07	-1.324887e-06	-3.729108e-09	-9.179476e+00	-2.425234e+02
5.800000e-07	-1.276712e-06	-3.677700e-09	-8.845694e+00	-2.391529e+02
5.900000e-07	-1.228229e-06	-3.627868e-09	-8.509779e+00	-2.356979e+02
6.000000e-07	-1.179459e-06	-3.577814e-09	-8.171879e+00	-2.321604e+02
6.100000e-07	-1.130220e-06	-3.525356e-09	-7.830724e+00	-2.285433e+02
6.200000e-07	-1.080225e-06	-3.464116e-09	-7.484334e+00	-2.248502e+02
6.300000e-07	-1.029561e-06	-3.403772e-09	-7.133310e+00	-2.210849e+02
6.400000e-07	-9.783382e-07	-3.342501e-09	-6.778412e+00	-2.172507e+02
6.500000e-07	-9.265519e-07	-3.282991e-09	-6.419611e+00	-2.133506e+02
6.600000e-07	-8.743802e-07	-3.221934e-09	-6.058140e+00	-2.093861e+02
6.700000e-07	-8.219749e-07	-3.158454e-09	-5.695050e+00	-2.053578e+02
6.800000e-07	-7.693997e-07	-3.093392e-09	-5.330783e+00	-2.012648e+02
6.900000e-07	-7.166088e-07	-3.028861e-09	-4.965021e+00	-1.971050e+02
7.000000e-07	-6.635325e-07	-2.966794e-09	-4.597282e+00	-1.928754e+02
7.100000e-07	-6.102026e-07	-2.900888e-09	-4.227786e+00	-1.885719e+02
7.200000e-07	-5.566617e-07	-2.832255e-09	-3.856828e+00	-1.841901e+02
7.300000e-07	-5.028683e-07	-2.759904e-09	-3.484121e+00	-1.797252e+02
7.400000e-07	-4.488016e-07	-2.686051e-09	-3.109520e+00	-1.751725e+02
7.500000e-07	-3.945463e-07	-2.610723e-09	-2.733613e+00	-1.705273e+02
7.600000e-07	-3.402230e-07	-2.537367e-09	-2.357234e+00	-1.657853e+02
7.700000e-07	-2.858561e-07	-2.463459e-09	-1.980553e+00	-1.609420e+02
7.800000e-07	-2.313851e-07	-2.388297e-09	-1.603151e+00	-1.559932e+02
7.900000e-07	-1.768472e-07	-2.315149e-09	-1.225285e+00	-1.509348e+02
8.000000e-07	-1.222959e-07	-2.237815e-09	-8.473264e-01	-1.457619e+02
8.100000e-07	-6.772485e-08	-2.155409e-09	-4.692314e-01	-1.404697e+02
8.200000e-07	-1.312969e-08	-2.070077e-09	-9.096903e-02	-1.350527e+02
8.300000e-07	4.145092e-08	-1.983576e-09	2.871925e-01	-1.295048e+02
8.400000e-07	9.600618e-08	-1.893966e-09	6.651784e-01	-1.238194e+02
8.500000e-07	1.505662e-07	-1.804559e-09	1.043197e+00	-1.179895e+02
8.600000e-07	2.050962e-07	-1.715539e-09	1.421008e+00	-1.120080e+02
8.700000e-07	2.595541e-07	-1.622192e-09	1.798320e+00	-1.058673e+02
8.800000e-07	3.139610e-07	-1.525602e-09	2.175278e+00	-9.956000e+01
8.900000e-07	3.682908e-07	-1.425754e-09	2.551702e+00	-9.307848e+01
9.000000e-07	4.224638e-07	-1.323416e-09	2.927039e+00	-8.641501e+01
9.100000e-07	4.765032e-07	-1.217993e-09	3.301451e+00	-7.956146e+01
9.200000e-07	5.304070e-07	-1.109957e-09	3.674923e+00	-7.250902e+01
9.300000e-07	5.841167e-07	-9.990389e-10	4.047050e+00	-6.524780e+01
9.400000e-07	6.375521e-07	-8.854365e-10	4.417277e+00	-5.776647e+01
9.500000e-07	6.906687e-07	-7.662297e-10	4.785295e+00	-5.005197e+01
9.600000e-07	7.435390e-07	-6.427809e-10	5.151607e+00	-4.208934e+01
9.700000e-07	7.961810e-07	-5.173602e-10	5.516337e+00	-3.386181e+01
9.800000e-07	8.485791e-07	-3.871536e-10	5.879377e+00	-2.535126e+01
9.900000e-07	9.007103e-07	-2.504303e-10	6.240568e+00	-1.653895e+01
1.000000e-06	9.524476e-07	-1.069961e-10	6.599029e+00	-7.406716e+00
1.010000e-06	1.003638e-06	3.895454e-11	6.953706e+00	2.061599e+00
1.020000e-06	1.054222e-06	1.877261e-10	7.304176e+00	1.187833e+01
1.030000e-06	1.104148e-06	3.412446e-10	7.650084e+00	2.205009e+01
1.040000e-06	1.153462e-06	5.031907e-10	7.991756e+00	3.257585e+01
1.050000e-06	1.202321e-06	6.713896e-10	8.330277e+00	4.344514e+01
1.060000e-06	1.250877e-06	8.421636e-10	8.666694e+00	5.463667e+01
1.070000e-06	1.299143e-06	1.016784e-09	9.001105e+00	6.611737e+01
1.080000e-06	1.346962e-06	1.194840e-09	9.332422e+00	7.784211e+01
1.090000e-06	1.394250e-06	1.377472e-09	9.660056e+00	8.975415e+01
1.100000e-06	1.441057e-06	1.561103e-09	9.984361e+00	1.017863e+02
1.110000e-06	1.487409e-06	1.745005e-09	1.030551e+01	1.138629e+02
1.120000e-06	1.533238e-06	1.926434e-09	1.062303e+01	1.259025e+02
1.130000e-06	1.578541e-06	2.105858e-09	1.093691e+01	1.378206e+02
1.140000e-06	1.623420e-06	2.284955e-09	1.124786e+01	1.495333e+02
1.150000e-06	1.667955e-06	2.461715e-09	1.155642e+01	1.609606e+02
1.160000e-06	1.712012e-06	2.631772e-09	1.186167e+01	1.720297e+02
1.170000e-06	1.755346e-06	2.792758e-09	1.216191e+01	1.826776e+02
1.180000e-06	1.797740e-06	2.945654e-09	1.245564e+01	1.928533e+02
1.190000e-06	1.839204e-06	3.092937e-09	1.274292e+01	2.025196e+02
1.200000e-06	1.880000e-06	3.233783e-09	1.302557e+01	2.116533e+02
1.210000e-06	1.920244e-06	3.362624e-09	1.330440e+01	2.202451e+02
1.220000e-06	1.959925e-06	3.480421e-09	1.357934e+01	2.282985e+02
1.230000e-06	1.998983e-06	3.590863e-09	1.384994e+01	2.358281e+02
1.240000e-06	2.037338e-06	3.697380e-09	1.411569e+01	2.428575e+02
1.250000e-06	2.074958e-06	3.795738e-09	1.437634e+01	2.494163e+02
1.260000e-06	2.111960e-06	3.886412e-09	1.463271e+01	2.555384e+02
1.270000e-06	2.148458e-06	3.973059e-09	1.488558e+01	2.612587e+02
1.280000e-06	2.184281e-06	4.056038e-09	1.513378e+01	2.666111e+02
1.290000e-06	2.219065e-06	4.132268e-09	1.537478e+01	2.716273e+02
1.300000e-06	2.252727e-06	4.200801e-09	1.560801e+01	2.763352e+02
1.310000e-06	2.285584e-06	4.265411e-09	1.583566e+01	2.807583e+02
1.320000e-06	2.317769e-06	4.328329e-09	1.605865e+01	2.849159e+02
1.330000e-06	2.349217e-06	4.388293e-09	1.627654e+01	2.888234e+02
1.340000e-06	2.379942e-06	4.442880e-09	1.648942e+01	2.924929e+02
1.350000e-06	2.409854e-06	4.493181e-09	1.669666e+01	2.959342e+02
1.360000e-06	2.438980e-06	4.540213e-09	1.689847e+01	2.991561e+02
1.370000e-06	2.467475e-06	4.584984e-09	1.709589e+01	3.021668e+02
1.380000e-06	2.495060e-06	4.626333e-09	1.728702e+01	3.049749e+02
1.390000e-06	2.521400e-06	4.662864e-09	1.746951e+01	3.075900e+02
1.400000e-06	2.546639e-06	4.696406e-09	1.764438e+01	3.100225e+02
1.410000e-06	2.570948e-06	4.730461e-09	1.781280e+01	3.122840e+02
1.420000e-06	2.594373e-06	4.764658e-09	1.797510e+01	3.143867e+02
1.430000e-06	2.616955e-06	4.794257e-09	1.813157e+01	3.163429e+02
1.440000e-06	2.638693e-06	4.819823e-09	1.828217e+01	3.181645e+02
1.450000e-06	2.659686e-06	4.843383e-09	1.842762e+01	3.198626e+02
1.460000e-06	2.679907e-06	4.865345e-09	1.856772e+01	3.214469e+02
1.470000e-06	2.699173e-06	4.886915e-09	1.870121e+01	3.229255e+02
1.480000e-06	2.717491e-06	4.909158e-09	1.882812e+01	3.243048e+02
1.490000e-06	2.734893e-06	4.931323e-09	1.894869e+01	3.255896e+02
1.500000e-06	2.751223e-06	4.952463e-09	1.906184e+01	3.267833e+02
1.510000e-06	2.766431e-06	4.969957e-09	1.916721e+01	3.278885e+02
1.520000e-06	2.780605e-06	4.982271e-09	1.926541e+01	3.289071e+02
1.530000e-06	2.793770e-06	4.992156e-09	1.935662e+01	3.298411e+02
1.540000e-06	2.805898e-06	5.002881e-09	1.944065e+01	3.306926e+02
1.550000e-06	2.816730e-06	5.013654e-09	1.951570e+01	3.314642e+02
1.560000e-06	2.826269e-06	5.024002e-09	1.958179e+01	3.321594e+02
1.570000e-06	2.834881e-06	5.037643e-09	1.964146e+01	3.327817e+02
1.580000e-06	2.842572e-06	5.053175e-09	1.969475e+01	3.333351e+02
1.590000e-06	2.849267e-06	5.062928e-09	1.974114e+01	3.338236e+02
1.600000e-06	2.854978e-06	5.064818e-09	1.978071e+01	3.342504e+02
1.610000e-06	2.859837e-06	5.066757e-09	1.981437e+01	3.346181e+02
1.620000e-06	2.863893e-06	5.072502e-09	1.984248e+01	3.349282e+02
1.630000e-06	2.866783e-06	5.077420e-09	1.986250e+01	3.351807e+02
1.640000e-06	2.868426e-06	5.079474e-09	1.987388e+01	3.353746e+02
1.650000e-06	2.869093e-06	5.083010e-09	1.987850e+01	3.355078e+02
1.660000e-06	2.868819e-06	5.086620e-09	1.987660e+01	3.355775e+02
1.670000e-06	2.867618e-06	5.085263e-09	1.986828e+01	3.355806e+02
1.680000e-06	2.865533e-06	5.081845e-09	1.985383e+01	3.355144e+02
1.690000e-06	2.862616e-06	5.080459e-09	1.983363e+01	3.353770e+02
1.700000e-06	2.858903e-06	5.080111e-09	1.980790e+01	3.351681e+02
1.710000e-06	2.854191e-06	5.075714e-09	1.977525e+01	3.348887e+02
1.720000e-06	2.848315e-06	5.064382e-09	1.973454e+01	3.345415e+02
1.730000e-06	2.841424e-06	5.058517e-09	1.968680e+01	3.341312e+02
1.740000e-06	2.833683e-06	5.045587e-09	1.963316e+01	3.336636e+02
1.750000e-06	2.824703e-06	5.043951e-09	1.957095e+01	3.331454e+02
1.760000e-06	2.814106e-06	5.043285e-09	1.949752e+01	3.325833e+02
1.770000e-06	2.802529e-06	5.037253e-09	1.941731e+01	3.319839e+02
1.780000e-06	2.790789e-06	5.025572e-09	1.933597e+01	3.313524e+02
1.790000e-06	2.778313e-06	4.992334e-09	1.924953e+01	3.306922e+02
1.800000e-06	2.764174e-06	4.997427e-09	1.915157e+01	3.300048e+02
1.810000e-06	2.748838e-06	4.984837e-09	1.904532e+01	3.292888e+02
1.820000e-06	2.732928e-06	4.991123e-09	1.893508e+01	3.285411e+02
1.830000e-06	2.715948e-06	5.028465e-09	1.881744e+01	3.277559e+02
1.840000e-06	2.697648e-06	5.028881e-09	1.869064e+01	3.269262e+02
1.850000e-06	2.678623e-06	4.991936e-09	1.855883e+01	3.260439e+02
1.860000e-06	2.658903e-06	4.976245e-09	1.842220e+01	3.251005e+02
1.870000e-06	2.637952e-06	4.993839e-09	1.827704e+01	3.240883e+02
1.880000e-06	2.615902e-06	4.946557e-09	1.812427e+01	3.230005e+02
1.890000e-06	2.592878e-06	4.903226e-09	1.796475e+01	3.218320e+02
1.900000e-06	2.568814e-06	4.925107e-09	1.779802e+01	3.205798e+02
1.910000e-06	2.544052e-06	4.893315e-09	1.762646e+01	3.192430e+02
1.920000e-06	2.518559e-06	4.855995e-09	1.744983e+01	3.178225e+02
1.930000e-06	2.492123e-06	4.859268e-09	1.726666e+01	3.163213e+02
1.940000e-06	2.464997e-06	4.824211e-09	1.707873e+01	3.147433e+02
1.950000e-06	2.437095e-06	4.799893e-09	1.688540e+01	3.130934e+02
1.960000e-06	2.407898e-06	4.770656e-09	1.668311e+01	3.113764e+02
1.970000e-06	2.377555e-06	4.725230e-09	1.647288e+01	3.095972e+02
1.980000e-06	2.346471e-06	4.720834e-09	1.625751e+01	3.077596e+02
1.990000e-06	2.314742e-06	4.706707e-09	1.603768e+01	3.058666e+02
2.000000e-06	2.282344e-06	4.654032e-09	1.581321e+01	3.039200e+02
2.010000e-06	2.249131e-06	4.642460e-09	1.558310e+01	3.019207e+02
2.020000e-06	2.215095e-06	4.611186e-09	1.534728e+01	2.998687e+02
2.030000e-06	2.180404e-06	4.545937e-09	1.510692e+01	2.977636e+02
2.040000e-06	2.145072e-06	4.524240e-09	1.486212e+01	2.956048e+02
2.050000e-06	2.108997e-06	4.482608e-09	1.461218e+01	2.933917e+02
2.060000e-06	2.071972e-06	4.440504e-09	1.435565e+01	2.911242e+02
2.070000e-06	2.033849e-06	4.436690e-09	1.409151e+01	2.888028e+02
2.080000e-06	1.994923e-06	4.395169e-09	1.382182e+01	2.864284e+02
2.090000e-06	1.955465e-06	4.343808e-09	1.354843e+01	2.840025e+02
2.100000e-06	1.915367e-06	4.314971e-09	1.327061e+01	2.815267e+02
2.110000e-06	1.874594e-06	4.266435e-09	1.298812e+01	2.790026e+02
2.120000e-06	1.833271e-06	4.221960e-09	1.270181e+01	2.764312e+02
2.130000e-06	1.791404e-06	4.186645e-09	1.241174e+01	2.738128e+02
2.140000e-06	1.748911e-06	4.151412e-09	1.211732e+01	2.711467e+02
2.150000e-06	1.705875e-06	4.119510e-09	1.181915e+01	2.684309e+02
2.160000e-06	1.662429e-06	4.066433e-09	1.151813e+01	2.656624e+02
2.170000e-06	1.618426e-06	4.019629e-09	1.121326e+01	2.628368e+02
2.180000e-06	1.573776e-06	3.977717e-09	1.090390e+01	2.599494e+02
2.190000e-06	1.528511e-06	3.931469e-09	1.059028e+01	2.569945e+02
2.200000e-06	1.482700e-06	3.887538e-09	1.027288e+01	2.539671e+02
2.210000e-06	1.436479e-06	3.835272e-09	9.952636e+00	2.508622e+02
2.220000e-06	1.389805e-06	3.785217e-09	9.629259e+00	2.476759e+02
2.230000e-06	1.342593e-06	3.737621e-09	9.302151e+00	2.444058e+02
2.240000e-06	1.294758e-06	3.683108e-09	8.970724e+00	2.410506e+02
2.250000e-06	1.246315e-06	3.630781e-09	8.635092e+00	2.376107e+02
2.260000e-06	1.197457e-06	3.581710e-09	8.296574e+00	2.340879e+02
2.270000e-06	1.148251e-06	3.532669e-09	7.955655e+00	2.304849e+02
2.280000e-06	1.098672e-06	3.483211e-09	7.612142e+00	2.268052e+02
2.290000e-06	1.048614e-06	3.418781e-09	7.265315e+00	2.230527e+02
2.300000e-06	9.980228e-07	3.356168e-09	6.914797e+00	2.192308e+02
2.310000e-06	9.470744e-07	3.297246e-09	6.561801e+00	2.153424e+02
2.320000e-06	8.958763e-07	3.234687e-09	6.207075e+00	2.113895e+02
2.330000e-06	8.444395e-07	3.173717e-09	5.850696e+00	2.073727e+02
2.340000e-06	7.927136e-07	3.112224e-09	5.492313e+00	2.032915e+02
2.350000e-06	7.405399e-07	3.055500e-09	5.130828e+00	1.991440e+02
2.360000e-06	6.878741e-07	2.993916e-09	4.765933e+00	1.949273e+02
2.370000e-06	6.347330e-07	2.927133e-09	4.397745e+00	1.906374e+02
2.380000e-06	5.811980e-07	2.862289e-09	4.026828e+00	1.862701e+02
2.390000e-06	5.273626e-07	2.797556e-09	3.653829e+00	1.818205e+02
2.400000e-06	4.732464e-07	2.732496e-09	3.278886e+00	1.772840e+02
2.410000e-06	4.188739e-07	2.664028e-09	2.902166e+00	1.726558e+02
2.420000e-06	3.643032e-07	2.592525e-09	2.524074e+00	1.679315e+02
2.430000e-06	3.096267e-07	2.519976e-09	2.145247e+00	1.631068e+02
2.440000e-06	2.548306e-07	2.443579e-09	1.765593e+00	1.581773e+02
2.450000e-06	1.999359e-07	2.366957e-09	1.385255e+00	1.531389e+02
2.460000e-06	1.450067e-07	2.291028e-09	1.004678e+00	1.479870e+02
2.470000e-06	9.004308e-08	2.211715e-09	6.238631e-01	1.427166e+02
2.480000e-06	3.504833e-08	2.130288e-09	2.428322e-01	1.373225e+02
2.490000e-06	-1.996220e-08	2.044988e-09	-1.383080e-01	1.317985e+02
2.500000e-06	-7.494971e-08	1.957363e-09	-5.192888e-01	1.261383e+02
2.510000e-06	-1.299132e-07	1.869888e-09	-9.001029e-01	1.203349e+02
2.520000e-06	-1.848616e-07	1.781234e-09	-1.280813e+00	1.143812e+02
2.530000e-06	-2.397564e-07	1.690488e-09	-1.661151e+00	1.082696e+02
2.540000e-06	-2.946089e-07	1.593245e-09	-2.041197e+00	1.019927e+02
2.550000e-06	-3.493757e-07	1.493718e-09	-2.420648e+00	9.554303e+01
2.560000e-06	-4.039834e-07	1.393535e-09	-2.798997e+00	8.891278e+01
2.570000e-06	-4.583943e-07	1.290086e-09	-3.175983e+00	8.209394e+01
2.580000e-06	-5.125099e-07	1.184096e-09	-3.550923e+00	7.507785e+01
2.590000e-06	-5.662803e-07	1.076093e-09	-3.923471e+00	6.785484e+01
2.600000e-06	-6.196938e-07	9.649317e-10	-4.293546e+00	6.041386e+01
2.610000e-06	-6.727267e-07	8.482319e-10	-4.660985e+00	5.274219e+01
2.620000e-06	-7.253649e-07	7.261716e-10	-5.025688e+00	4.482518e+01
2.630000e-06	-7.775731e-07	5.994332e-10	-5.387412e+00	3.664640e+01
2.640000e-06	-8.293731e-07	4.699243e-10	-5.746309e+00	2.818790e+01
2.650000e-06	-8.808815e-07	3.392015e-10	-6.103184e+00	1.943099e+01
2.660000e-06	-9.321219e-07	2.032747e-10	-6.458203e+00	1.035729e+01
2.670000e-06	-9.830551e-07	5.955536e-11	-6.811094e+00	9.501753e-01
2.680000e-06	-1.033636e-06	-8.820912e-11	-7.161540e+00	-8.803520e+00
2.690000e-06	-1.083830e-06	-2.386175e-10	-7.509314e+00	-1.891157e+01
2.700000e-06	-1.133580e-06	-3.947158e-10	-7.854003e+00	-2.937444e+01
2.710000e-06	-1.182860e-06	-5.597315e-10	-8.195443e+00	-4.018348e+01
2.720000e-06	-1.231745e-06	-7.324509e-10	-8.534143e+00	-5.131940e+01
2.730000e-06	-1.280041e-06	-9.087909e-10	-8.868762e+00	-6.275129e+01
2.740000e-06	-1.327563e-06	-1.087143e-09	-9.198015e+00	-7.443615e+01
2.750000e-06	-1.374408e-06	-1.268756e-09	-9.522580e+00	-8.631924e+01
2.760000e-06	-1.420665e-06	-1.452163e-09	-9.843070e+00	-9.833514e+01
2.770000e-06	-1.466429e-06	-1.635171e-09	-1.016015e+01	-1.104095e+02
2.780000e-06	-1.511816e-06	-1.817980e-09	-1.047461e+01	-1.224617e+02
2.790000e-06	-1.556779e-06	-1.999510e-09	-1.078614e+01	-1.344076e+02
2.800000e-06	-1.601246e-06	-2.179443e-09	-1.109422e+01	-1.461629e+02
2.810000e-06	-1.645165e-06	-2.358666e-09	-1.139852e+01	-1.576466e+02
2.820000e-06	-1.688593e-06	-2.532937e-09	-1.169941e+01	-1.687844e+02
2.830000e-06	-1.731625e-06	-2.696656e-09	-1.199756e+01	-1.795115e+02
2.840000e-06	-1.774154e-06	-2.849474e-09	-1.229222e+01	-1.897745e+02
2.850000e-06	-1.816133e-06	-2.998074e-09	-1.258307e+01	-1.995338e+02
2.860000e-06	-1.857567e-06	-3.142410e-09	-1.287014e+01	-2.087635e+02
2.870000e-06	-1.898359e-06	-3.276390e-09	-1.315278e+01	-2.174520e+02
2.880000e-06	-1.938474e-06	-3.401446e-09	-1.343071e+01	-2.256006e+02
2.890000e-06	-1.978010e-06	-3.521746e-09	-1.370464e+01	-2.332221e+02
2.900000e-06	-2.017001e-06	-3.635688e-09	-1.397479e+01	-2.403386e+02
2.910000e-06	-2.055234e-06	-3.740124e-09	-1.423968e+01	-2.469790e+02
2.920000e-06	-2.092499e-06	-3.834112e-09	-1.449787e+01	-2.531764e+02
2.930000e-06	-2.128779e-06	-3.921031e-09	-1.474924e+01	-2.589657e+02
2.940000e-06	-2.164278e-06	-4.005903e-09	-1.499519e+01	-2.643812e+02
