# Temperatura_=_22.4
# Concentracion g/m^3_=_15500.0
# C_Vs_to_Am_M_A/Vsm_=_65563218390.804596
# pendiente_HvsI_1/m_=_3716.3
# ordenada_HvsI_A/m_=_1297.0
# frecuencia_Hz_=_300840.27234243986

Tiempo_(s)	Campo_(V.s)	Magnetizacion_(V.s)	Campo_(kA/m)	Magnetizacion_(A/m)
0.000000e+00	-2.858768e-06	-5.103855e-09	-1.980409e+01	-3.333770e+02
1.000000e-08	-2.857977e-06	-5.099208e-09	-1.979861e+01	-3.334059e+02
2.000000e-08	-2.856214e-06	-5.096115e-09	-1.978640e+01	-3.333730e+02
3.000000e-08	-2.853172e-06	-5.095965e-09	-1.976533e+01	-3.332756e+02
4.000000e-08	-2.849032e-06	-5.094734e-09	-1.973664e+01	-3.331116e+02
5.000000e-08	-2.844157e-06	-5.089759e-09	-1.970287e+01	-3.328805e+02
6.000000e-08	-2.838460e-06	-5.082885e-09	-1.966340e+01	-3.325834e+02
7.000000e-08	-2.831766e-06	-5.081590e-09	-1.961703e+01	-3.322227e+02
8.000000e-08	-2.824100e-06	-5.086380e-09	-1.956393e+01	-3.318022e+02
9.000000e-08	-2.815299e-06	-5.095037e-09	-1.950296e+01	-3.313265e+02
1.000000e-07	-2.805058e-06	-5.074168e-09	-1.943202e+01	-3.308006e+02
1.100000e-07	-2.793571e-06	-5.038401e-09	-1.935244e+01	-3.302293e+02
1.200000e-07	-2.781256e-06	-5.008206e-09	-1.926713e+01	-3.296167e+02
1.300000e-07	-2.768082e-06	-5.038161e-09	-1.917586e+01	-3.289657e+02
1.400000e-07	-2.753873e-06	-5.059154e-09	-1.907743e+01	-3.282776e+02
1.500000e-07	-2.738587e-06	-4.991745e-09	-1.897154e+01	-3.275524e+02
1.600000e-07	-2.722048e-06	-4.984298e-09	-1.885696e+01	-3.267884e+02
1.700000e-07	-2.704269e-06	-5.018429e-09	-1.873380e+01	-3.259826e+02
1.800000e-07	-2.685662e-06	-4.990463e-09	-1.860490e+01	-3.251311e+02
1.900000e-07	-2.666462e-06	-4.932598e-09	-1.847189e+01	-3.242295e+02
2.000000e-07	-2.646396e-06	-4.941972e-09	-1.833289e+01	-3.232733e+02
2.100000e-07	-2.625387e-06	-4.938728e-09	-1.818734e+01	-3.222587e+02
2.200000e-07	-2.603632e-06	-4.891547e-09	-1.803664e+01	-3.211823e+02
2.300000e-07	-2.580988e-06	-4.915517e-09	-1.787977e+01	-3.200421e+02
2.400000e-07	-2.557381e-06	-4.917017e-09	-1.771623e+01	-3.188368e+02
2.500000e-07	-2.533008e-06	-4.846622e-09	-1.754739e+01	-3.175664e+02
2.600000e-07	-2.507794e-06	-4.836675e-09	-1.737272e+01	-3.162315e+02
2.700000e-07	-2.481505e-06	-4.833401e-09	-1.719061e+01	-3.148336e+02
2.800000e-07	-2.454072e-06	-4.785944e-09	-1.700056e+01	-3.133742e+02
2.900000e-07	-2.425647e-06	-4.770586e-09	-1.680365e+01	-3.118549e+02
3.000000e-07	-2.396419e-06	-4.750206e-09	-1.660117e+01	-3.102768e+02
3.100000e-07	-2.366481e-06	-4.735268e-09	-1.639377e+01	-3.086409e+02
3.200000e-07	-2.335864e-06	-4.720585e-09	-1.618168e+01	-3.069475e+02
3.300000e-07	-2.304449e-06	-4.675558e-09	-1.596405e+01	-3.051966e+02
3.400000e-07	-2.272266e-06	-4.630468e-09	-1.574110e+01	-3.033881e+02
3.500000e-07	-2.239504e-06	-4.623408e-09	-1.551415e+01	-3.015215e+02
3.600000e-07	-2.205993e-06	-4.593318e-09	-1.528200e+01	-2.995969e+02
3.700000e-07	-2.171357e-06	-4.553817e-09	-1.504206e+01	-2.976146e+02
3.800000e-07	-2.135649e-06	-4.544828e-09	-1.479469e+01	-2.955757e+02
3.900000e-07	-2.099196e-06	-4.510064e-09	-1.454216e+01	-2.934816e+02
4.000000e-07	-2.062106e-06	-4.473108e-09	-1.428522e+01	-2.913346e+02
4.100000e-07	-2.024330e-06	-4.438989e-09	-1.402353e+01	-2.891372e+02
4.200000e-07	-1.985775e-06	-4.394319e-09	-1.375644e+01	-2.868920e+02
4.300000e-07	-1.946440e-06	-4.355659e-09	-1.348395e+01	-2.846015e+02
4.400000e-07	-1.906514e-06	-4.335928e-09	-1.320736e+01	-2.822674e+02
4.500000e-07	-1.866175e-06	-4.295579e-09	-1.292791e+01	-2.798909e+02
4.600000e-07	-1.825379e-06	-4.252783e-09	-1.264529e+01	-2.774717e+02
4.700000e-07	-1.783897e-06	-4.219696e-09	-1.235793e+01	-2.750085e+02
4.800000e-07	-1.741448e-06	-4.177055e-09	-1.206387e+01	-2.724987e+02
4.900000e-07	-1.697976e-06	-4.131331e-09	-1.176272e+01	-2.699388e+02
5.000000e-07	-1.653813e-06	-4.089498e-09	-1.145678e+01	-2.673245e+02
5.100000e-07	-1.609222e-06	-4.054127e-09	-1.114787e+01	-2.646511e+02
5.200000e-07	-1.564192e-06	-4.013112e-09	-1.083593e+01	-2.619141e+02
5.300000e-07	-1.518632e-06	-3.977293e-09	-1.052031e+01	-2.591094e+02
5.400000e-07	-1.472538e-06	-3.929843e-09	-1.020099e+01	-2.562338e+02
5.500000e-07	-1.425914e-06	-3.877214e-09	-9.878007e+00	-2.532852e+02
5.600000e-07	-1.378761e-06	-3.829330e-09	-9.551357e+00	-2.502628e+02
5.700000e-07	-1.331134e-06	-3.781572e-09	-9.221421e+00	-2.471668e+02
5.800000e-07	-1.283043e-06	-3.731062e-09	-8.888269e+00	-2.439984e+02
5.900000e-07	-1.234576e-06	-3.683964e-09	-8.552511e+00	-2.407594e+02
6.000000e-07	-1.185759e-06	-3.639860e-09	-8.214335e+00	-2.374519e+02
6.100000e-07	-1.136436e-06	-3.585677e-09	-7.872648e+00	-2.340778e+02
6.200000e-07	-1.086375e-06	-3.529779e-09	-7.525852e+00	-2.306381e+02
6.300000e-07	-1.035632e-06	-3.474661e-09	-7.174332e+00	-2.271333e+02
6.400000e-07	-9.843951e-07	-3.422805e-09	-6.819388e+00	-2.235625e+02
6.500000e-07	-9.326948e-07	-3.364487e-09	-6.461235e+00	-2.199240e+02
6.600000e-07	-8.806078e-07	-3.302454e-09	-6.100403e+00	-2.162148e+02
6.700000e-07	-8.282432e-07	-3.243187e-09	-5.737647e+00	-2.124313e+02
6.800000e-07	-7.756457e-07	-3.184414e-09	-5.373279e+00	-2.085697e+02
6.900000e-07	-7.228178e-07	-3.124288e-09	-5.007314e+00	-2.046259e+02
7.000000e-07	-6.697490e-07	-3.061574e-09	-4.639681e+00	-2.005964e+02
7.100000e-07	-6.163810e-07	-3.001581e-09	-4.269974e+00	-1.964780e+02
7.200000e-07	-5.627549e-07	-2.939163e-09	-3.898480e+00	-1.922686e+02
7.300000e-07	-5.089332e-07	-2.871905e-09	-3.525630e+00	-1.879665e+02
7.400000e-07	-4.549163e-07	-2.798189e-09	-3.151429e+00	-1.835705e+02
7.500000e-07	-4.007281e-07	-2.724604e-09	-2.776041e+00	-1.790797e+02
7.600000e-07	-3.464266e-07	-2.653871e-09	-2.399867e+00	-1.744928e+02
7.700000e-07	-2.920671e-07	-2.582056e-09	-2.023292e+00	-1.698078e+02
7.800000e-07	-2.376361e-07	-2.508211e-09	-1.646222e+00	-1.650214e+02
7.900000e-07	-1.831385e-07	-2.433939e-09	-1.268690e+00	-1.601288e+02
8.000000e-07	-1.286283e-07	-2.359549e-09	-8.910712e-01	-1.551236e+02
8.100000e-07	-7.406426e-08	-2.279906e-09	-5.130795e-01	-1.499976e+02
8.200000e-07	-1.943411e-08	-2.197328e-09	-1.346296e-01	-1.447412e+02
8.300000e-07	3.518113e-08	-2.111648e-09	2.437170e-01	-1.393434e+02
8.400000e-07	8.975647e-08	-2.025220e-09	6.217871e-01	-1.337931e+02
8.500000e-07	1.442704e-07	-1.938167e-09	9.994316e-01	-1.280789e+02
8.600000e-07	1.987258e-07	-1.847277e-09	1.376671e+00	-1.221901e+02
8.700000e-07	2.531516e-07	-1.752872e-09	1.753705e+00	-1.161167e+02
8.800000e-07	3.075304e-07	-1.659361e-09	2.130414e+00	-1.098501e+02
8.900000e-07	3.618607e-07	-1.563113e-09	2.506787e+00	-1.033825e+02
9.000000e-07	4.161016e-07	-1.458621e-09	2.882540e+00	-9.670671e+01
9.100000e-07	4.701844e-07	-1.351692e-09	3.257199e+00	-8.981551e+01
9.200000e-07	5.240858e-07	-1.244112e-09	3.630600e+00	-8.270069e+01
9.300000e-07	5.777653e-07	-1.133347e-09	4.002464e+00	-7.535213e+01
9.400000e-07	6.312185e-07	-1.016250e-09	4.372761e+00	-6.775683e+01
9.500000e-07	6.844125e-07	-8.948939e-10	4.741262e+00	-5.989825e+01
9.600000e-07	7.373163e-07	-7.697009e-10	5.107752e+00	-5.175588e+01
9.700000e-07	7.899939e-07	-6.398401e-10	5.472676e+00	-4.330551e+01
9.800000e-07	8.424183e-07	-5.057518e-10	5.835846e+00	-3.451988e+01
9.900000e-07	8.945850e-07	-3.639145e-10	6.197230e+00	-2.537016e+01
1.000000e-06	9.464482e-07	-2.125282e-10	6.556512e+00	-1.582793e+01
1.010000e-06	9.978525e-07	-5.474709e-11	6.912614e+00	-5.867717e+00
1.020000e-06	1.048620e-06	1.037305e-10	7.264305e+00	4.530099e+00
1.030000e-06	1.098668e-06	2.668974e-10	7.611016e+00	1.537629e+01
1.040000e-06	1.148092e-06	4.401125e-10	7.953398e+00	2.666992e+01
1.050000e-06	1.197023e-06	6.211650e-10	8.292363e+00	3.839584e+01
1.060000e-06	1.245603e-06	8.046966e-10	8.628902e+00	5.052295e+01
1.070000e-06	1.293917e-06	9.917275e-10	8.963597e+00	6.300330e+01
1.080000e-06	1.341838e-06	1.186988e-09	9.295574e+00	7.577220e+01
1.090000e-06	1.389262e-06	1.387028e-09	9.624101e+00	8.874959e+01
1.100000e-06	1.436210e-06	1.587765e-09	9.949333e+00	1.018424e+02
1.110000e-06	1.482633e-06	1.787402e-09	1.027093e+01	1.149478e+02
1.120000e-06	1.528498e-06	1.983792e-09	1.058865e+01	1.279577e+02
1.130000e-06	1.573811e-06	2.175518e-09	1.090256e+01	1.407629e+02
1.140000e-06	1.618644e-06	2.364891e-09	1.121315e+01	1.532584e+02
1.150000e-06	1.663129e-06	2.549974e-09	1.152131e+01	1.653477e+02
1.160000e-06	1.707270e-06	2.727590e-09	1.182709e+01	1.769467e+02
1.170000e-06	1.750782e-06	2.894907e-09	1.212853e+01	1.879876e+02
1.180000e-06	1.793343e-06	3.051493e-09	1.242337e+01	1.984205e+02
1.190000e-06	1.834950e-06	3.199516e-09	1.271160e+01	2.082146e+02
1.200000e-06	1.875822e-06	3.338224e-09	1.299474e+01	2.173582e+02
1.210000e-06	1.916165e-06	3.467122e-09	1.327422e+01	2.258571e+02
1.220000e-06	1.955926e-06	3.585344e-09	1.354966e+01	2.337324e+02
1.230000e-06	1.994956e-06	3.692971e-09	1.382004e+01	2.410174e+02
1.240000e-06	2.033340e-06	3.792052e-09	1.408594e+01	2.477541e+02
1.250000e-06	2.071062e-06	3.886328e-09	1.434726e+01	2.539895e+02
1.260000e-06	2.108085e-06	3.975981e-09	1.460374e+01	2.597721e+02
1.270000e-06	2.144580e-06	4.059433e-09	1.485656e+01	2.651489e+02
1.280000e-06	2.180404e-06	4.134950e-09	1.510473e+01	2.701627e+02
1.290000e-06	2.215246e-06	4.203377e-09	1.534610e+01	2.748507e+02
1.300000e-06	2.249061e-06	4.268712e-09	1.558035e+01	2.792438e+02
1.310000e-06	2.282004e-06	4.330813e-09	1.580856e+01	2.833659e+02
1.320000e-06	2.314272e-06	4.386136e-09	1.603210e+01	2.872352e+02
1.330000e-06	2.345821e-06	4.436889e-09	1.625065e+01	2.908649e+02
1.340000e-06	2.376544e-06	4.489684e-09	1.646349e+01	2.942649e+02
1.350000e-06	2.406459e-06	4.540749e-09	1.667073e+01	2.974430e+02
1.360000e-06	2.435630e-06	4.582318e-09	1.687280e+01	3.004067e+02
1.370000e-06	2.464141e-06	4.616258e-09	1.707032e+01	3.031641e+02
1.380000e-06	2.491860e-06	4.650497e-09	1.726234e+01	3.057249e+02
1.390000e-06	2.518431e-06	4.687614e-09	1.744641e+01	3.081006e+02
1.400000e-06	2.543824e-06	4.720834e-09	1.762232e+01	3.103045e+02
1.410000e-06	2.568325e-06	4.747298e-09	1.779205e+01	3.123514e+02
1.420000e-06	2.591961e-06	4.773544e-09	1.795579e+01	3.142565e+02
1.430000e-06	2.614688e-06	4.804492e-09	1.811323e+01	3.160351e+02
1.440000e-06	2.636536e-06	4.834367e-09	1.826458e+01	3.177010e+02
1.450000e-06	2.657530e-06	4.855786e-09	1.841001e+01	3.192665e+02
1.460000e-06	2.677761e-06	4.871553e-09	1.855016e+01	3.207411e+02
1.470000e-06	2.697189e-06	4.890499e-09	1.868475e+01	3.221320e+02
1.480000e-06	2.715676e-06	4.913120e-09	1.881282e+01	3.234432e+02
1.490000e-06	2.733178e-06	4.932924e-09	1.893406e+01	3.246768e+02
1.500000e-06	2.749682e-06	4.948742e-09	1.904840e+01	3.258328e+02
1.510000e-06	2.765111e-06	4.964581e-09	1.915528e+01	3.269103e+02
1.520000e-06	2.779446e-06	4.982227e-09	1.925458e+01	3.279077e+02
1.530000e-06	2.792715e-06	4.997234e-09	1.934651e+01	3.288241e+02
1.540000e-06	2.804923e-06	5.006929e-09	1.943108e+01	3.296593e+02
1.550000e-06	2.815960e-06	5.014289e-09	1.950754e+01	3.304145e+02
1.560000e-06	2.825719e-06	5.023453e-09	1.957515e+01	3.310922e+02
1.570000e-06	2.834396e-06	5.036243e-09	1.963525e+01	3.316961e+02
1.580000e-06	2.842138e-06	5.049178e-09	1.968889e+01	3.322309e+02
1.590000e-06	2.848956e-06	5.057190e-09	1.973612e+01	3.327017e+02
1.600000e-06	2.854861e-06	5.061898e-09	1.977703e+01	3.331135e+02
1.610000e-06	2.859881e-06	5.067267e-09	1.981180e+01	3.334704e+02
1.620000e-06	2.864016e-06	5.072352e-09	1.984045e+01	3.337757e+02
1.630000e-06	2.867036e-06	5.074293e-09	1.986137e+01	3.340308e+02
1.640000e-06	2.868802e-06	5.075013e-09	1.987360e+01	3.342359e+02
1.650000e-06	2.869509e-06	5.078707e-09	1.987850e+01	3.343894e+02
1.660000e-06	2.869310e-06	5.083850e-09	1.987712e+01	3.344888e+02
1.670000e-06	2.868221e-06	5.084757e-09	1.986958e+01	3.345306e+02
1.680000e-06	2.866259e-06	5.081590e-09	1.985599e+01	3.345115e+02
1.690000e-06	2.863442e-06	5.080383e-09	1.983647e+01	3.344284e+02
1.700000e-06	2.859840e-06	5.080084e-09	1.981151e+01	3.342790e+02
1.710000e-06	2.855311e-06	5.076833e-09	1.978014e+01	3.340625e+02
1.720000e-06	2.849634e-06	5.072014e-09	1.974081e+01	3.337796e+02
1.730000e-06	2.842891e-06	5.065582e-09	1.969410e+01	3.334325e+02
1.740000e-06	2.835229e-06	5.051637e-09	1.964102e+01	3.330247e+02
1.750000e-06	2.826380e-06	5.023759e-09	1.957972e+01	3.325607e+02
1.760000e-06	2.815975e-06	5.034154e-09	1.950764e+01	3.320454e+02
1.770000e-06	2.804436e-06	5.069308e-09	1.942771e+01	3.314837e+02
1.780000e-06	2.792636e-06	5.048482e-09	1.934596e+01	3.308799e+02
1.790000e-06	2.780333e-06	5.001747e-09	1.926073e+01	3.302371e+02
1.800000e-06	2.766483e-06	4.977358e-09	1.916479e+01	3.295572e+02
1.810000e-06	2.751207e-06	5.015829e-09	1.905896e+01	3.288403e+02
1.820000e-06	2.735296e-06	4.977499e-09	1.894874e+01	3.280851e+02
1.830000e-06	2.718522e-06	4.941846e-09	1.883254e+01	3.272888e+02
1.840000e-06	2.700370e-06	4.997340e-09	1.870679e+01	3.264477e+02
1.850000e-06	2.681294e-06	4.977527e-09	1.857464e+01	3.255574e+02
1.860000e-06	2.661578e-06	4.919449e-09	1.843806e+01	3.246136e+02
1.870000e-06	2.640742e-06	4.937774e-09	1.829372e+01	3.236120e+02
1.880000e-06	2.618785e-06	4.945352e-09	1.814161e+01	3.225493e+02
1.890000e-06	2.595954e-06	4.871976e-09	1.798345e+01	3.214231e+02
1.900000e-06	2.572083e-06	4.856066e-09	1.781808e+01	3.202321e+02
1.910000e-06	2.547374e-06	4.885821e-09	1.764691e+01	3.189758e+02
1.920000e-06	2.521974e-06	4.845276e-09	1.747096e+01	3.176549e+02
1.930000e-06	2.495639e-06	4.813423e-09	1.728852e+01	3.162707e+02
1.940000e-06	2.468523e-06	4.819277e-09	1.710067e+01	3.148246e+02
1.950000e-06	2.440659e-06	4.780093e-09	1.690764e+01	3.133182e+02
1.960000e-06	2.411645e-06	4.755199e-09	1.670665e+01	3.117528e+02
1.970000e-06	2.381466e-06	4.713316e-09	1.649758e+01	3.101295e+02
1.980000e-06	2.350445e-06	4.682015e-09	1.628269e+01	3.084487e+02
1.990000e-06	2.318722e-06	4.696932e-09	1.606292e+01	3.067104e+02
2.000000e-06	2.286301e-06	4.660233e-09	1.583833e+01	3.049145e+02
2.010000e-06	2.253120e-06	4.610309e-09	1.560847e+01	3.030606e+02
2.020000e-06	2.219097e-06	4.605258e-09	1.537277e+01	3.011486e+02
2.030000e-06	2.184390e-06	4.559167e-09	1.513234e+01	2.991789e+02
2.040000e-06	2.149118e-06	4.507271e-09	1.488800e+01	2.971522e+02
2.050000e-06	2.113163e-06	4.494994e-09	1.463892e+01	2.950701e+02
2.060000e-06	2.076312e-06	4.454750e-09	1.438363e+01	2.929345e+02
2.070000e-06	2.038394e-06	4.428655e-09	1.412095e+01	2.907479e+02
2.080000e-06	1.999570e-06	4.411187e-09	1.385200e+01	2.885130e+02
2.090000e-06	1.960118e-06	4.362072e-09	1.357870e+01	2.862322e+02
2.100000e-06	1.920070e-06	4.326075e-09	1.330127e+01	2.839076e+02
2.110000e-06	1.879353e-06	4.290176e-09	1.301920e+01	2.815404e+02
2.120000e-06	1.838090e-06	4.238337e-09	1.273335e+01	2.791306e+02
2.130000e-06	1.796263e-06	4.206748e-09	1.244359e+01	2.766773e+02
2.140000e-06	1.753804e-06	4.182543e-09	1.214946e+01	2.741780e+02
2.150000e-06	1.710819e-06	4.146134e-09	1.185168e+01	2.716294e+02
2.160000e-06	1.667420e-06	4.102177e-09	1.155104e+01	2.690274e+02
2.170000e-06	1.623528e-06	4.052250e-09	1.124698e+01	2.663673e+02
2.180000e-06	1.578984e-06	4.013553e-09	1.093840e+01	2.636445e+02
2.190000e-06	1.533802e-06	3.973481e-09	1.062540e+01	2.608549e+02
2.200000e-06	1.488086e-06	3.930087e-09	1.030870e+01	2.579949e+02
2.210000e-06	1.442012e-06	3.885658e-09	9.989527e+00	2.550624e+02
2.220000e-06	1.395562e-06	3.837816e-09	9.667746e+00	2.520560e+02
2.230000e-06	1.348541e-06	3.798155e-09	9.342009e+00	2.489760e+02
2.240000e-06	1.300928e-06	3.747791e-09	9.012169e+00	2.458232e+02
2.250000e-06	1.252701e-06	3.691348e-09	8.678075e+00	2.425994e+02
2.260000e-06	1.203914e-06	3.644207e-09	8.340105e+00	2.393067e+02
2.270000e-06	1.154699e-06	3.600493e-09	7.999170e+00	2.359469e+02
2.280000e-06	1.105075e-06	3.552210e-09	7.655398e+00	2.325215e+02
2.290000e-06	1.055027e-06	3.495950e-09	7.308690e+00	2.290309e+02
2.300000e-06	1.004513e-06	3.437446e-09	6.958757e+00	2.254747e+02
2.310000e-06	9.535933e-07	3.383989e-09	6.606009e+00	2.218511e+02
2.320000e-06	9.024173e-07	3.327212e-09	6.251488e+00	2.181575e+02
2.330000e-06	8.510199e-07	3.267558e-09	5.895433e+00	2.143906e+02
2.340000e-06	7.992943e-07	3.212180e-09	5.537104e+00	2.105463e+02
2.350000e-06	7.471536e-07	3.155083e-09	5.175900e+00	2.066207e+02
2.360000e-06	6.945981e-07	3.095293e-09	4.811822e+00	2.026100e+02
2.370000e-06	6.415998e-07	3.031310e-09	4.444677e+00	1.985112e+02
2.380000e-06	5.880976e-07	2.969120e-09	4.074041e+00	1.943217e+02
2.390000e-06	5.341928e-07	2.908655e-09	3.700616e+00	1.900398e+02
2.400000e-06	4.800183e-07	2.846699e-09	3.325323e+00	1.856642e+02
2.410000e-06	4.256439e-07	2.782686e-09	2.948644e+00	1.811941e+02
2.420000e-06	3.710891e-07	2.712886e-09	2.570716e+00	1.766282e+02
2.430000e-06	3.163454e-07	2.640818e-09	2.191480e+00	1.719646e+02
2.440000e-06	2.615029e-07	2.566991e-09	1.811559e+00	1.672005e+02
2.450000e-06	2.066090e-07	2.493256e-09	1.431282e+00	1.623314e+02
2.460000e-06	1.516447e-07	2.419879e-09	1.050517e+00	1.573513e+02
2.470000e-06	9.661964e-08	2.343584e-09	6.693317e-01	1.522522e+02
2.480000e-06	4.155390e-08	2.267372e-09	2.878643e-01	1.470248e+02
2.490000e-06	-1.353173e-08	2.189597e-09	-9.374092e-02	1.416585e+02
2.500000e-06	-6.858270e-08	2.104031e-09	-4.751060e-01	1.361421e+02
2.510000e-06	-1.235773e-07	2.013661e-09	-8.560807e-01	1.304642e+02
2.520000e-06	-1.785327e-07	1.924690e-09	-1.236784e+00	1.246139e+02
2.530000e-06	-2.334783e-07	1.835227e-09	-1.617419e+00	1.185811e+02
2.540000e-06	-2.883651e-07	1.740233e-09	-1.997646e+00	1.123568e+02
2.550000e-06	-3.431277e-07	1.640032e-09	-2.377014e+00	1.059332e+02
2.560000e-06	-3.977025e-07	1.541641e-09	-2.755081e+00	9.930281e+01
2.570000e-06	-4.520479e-07	1.443619e-09	-3.131558e+00	9.245866e+01
2.580000e-06	-5.062241e-07	1.338207e-09	-3.506863e+00	8.539278e+01
2.590000e-06	-5.601433e-07	1.225818e-09	-3.880388e+00	7.809553e+01
2.600000e-06	-6.136998e-07	1.110633e-09	-4.251400e+00	7.055462e+01
2.610000e-06	-6.667666e-07	9.937961e-10	-4.619020e+00	6.275428e+01
2.620000e-06	-7.193649e-07	8.705016e-10	-4.983394e+00	5.467490e+01
2.630000e-06	-7.715915e-07	7.384345e-10	-5.345193e+00	4.629298e+01
2.640000e-06	-8.234015e-07	6.026077e-10	-5.704106e+00	3.758184e+01
2.650000e-06	-8.748995e-07	4.679764e-10	-6.060858e+00	2.851282e+01
2.660000e-06	-9.261777e-07	3.292568e-10	-6.416088e+00	1.905723e+01
2.670000e-06	-9.772086e-07	1.807260e-10	-6.769604e+00	9.188728e+00
2.680000e-06	-1.027894e-06	2.344161e-11	-7.120727e+00	-1.113816e+00
2.690000e-06	-1.078157e-06	-1.395400e-10	-7.468922e+00	-1.186332e+01
2.700000e-06	-1.127968e-06	-3.085337e-10	-7.813986e+00	-2.306158e+01
2.710000e-06	-1.177328e-06	-4.858424e-10	-8.155926e+00	-3.469668e+01
2.720000e-06	-1.226206e-06	-6.696479e-10	-8.494528e+00	-4.674104e+01
2.730000e-06	-1.274474e-06	-8.586058e-10	-8.828910e+00	-5.915033e+01
2.740000e-06	-1.322008e-06	-1.051171e-09	-9.158199e+00	-7.186340e+01
2.750000e-06	-1.368783e-06	-1.249165e-09	-9.482235e+00	-8.480331e+01
2.760000e-06	-1.414959e-06	-1.452162e-09	-9.802119e+00	-9.787950e+01
2.770000e-06	-1.460719e-06	-1.656636e-09	-1.011912e+01	-1.109910e+02
2.780000e-06	-1.506180e-06	-1.859091e-09	-1.043405e+01	-1.240303e+02
2.790000e-06	-1.551306e-06	-2.057191e-09	-1.074666e+01	-1.368882e+02
2.800000e-06	-1.595905e-06	-2.250284e-09	-1.105562e+01	-1.494583e+02
2.810000e-06	-1.639935e-06	-2.437475e-09	-1.136063e+01	-1.616419e+02
2.820000e-06	-1.683492e-06	-2.617831e-09	-1.166238e+01	-1.733520e+02
2.830000e-06	-1.726646e-06	-2.787500e-09	-1.196132e+01	-1.845171e+02
2.840000e-06	-1.769323e-06	-2.947027e-09	-1.225697e+01	-1.950833e+02
2.850000e-06	-1.811397e-06	-3.098747e-09	-1.254843e+01	-2.050157e+02
2.860000e-06	-1.852856e-06	-3.243651e-09	-1.283564e+01	-2.142985e+02
2.870000e-06	-1.893719e-06	-3.377897e-09	-1.311872e+01	-2.229340e+02
2.880000e-06	-1.933905e-06	-3.501530e-09	-1.339711e+01	-2.309402e+02
2.890000e-06	-1.973489e-06	-3.618794e-09	-1.367133e+01	-2.383482e+02
2.900000e-06	-2.012584e-06	-3.726509e-09	-1.394216e+01	-2.451983e+02
2.910000e-06	-2.050940e-06	-3.821641e-09	-1.420787e+01	-2.515368e+02
2.920000e-06	-2.088296e-06	-3.909649e-09	-1.446665e+01	-2.574122e+02
2.930000e-06	-2.124672e-06	-3.995436e-09	-1.471865e+01	-2.628719e+02
2.940000e-06	-2.160238e-06	-4.077008e-09	-1.496503e+01	-2.679599e+02
