# Temperatura_=_24.7
# Concentracion g/m^3_=_15500.0
# C_Vs_to_Am_M_A/Vsm_=_65563218390.804596
# pendiente_HvsI_1/m_=_3716.3
# ordenada_HvsI_A/m_=_1297.0
# frecuencia_Hz_=_300835.6082904654

Tiempo_(s)	Campo_(V.s)	Magnetizacion_(V.s)	Campo_(kA/m)	Magnetizacion_(A/m)
0.000000e+00	-2.863595e-06	-5.174550e-09	-1.980885e+01	-3.393463e+02
1.000000e-08	-2.863148e-06	-5.175916e-09	-1.980576e+01	-3.394303e+02
2.000000e-08	-2.861921e-06	-5.174124e-09	-1.979727e+01	-3.394541e+02
3.000000e-08	-2.859577e-06	-5.171948e-09	-1.978105e+01	-3.394130e+02
4.000000e-08	-2.855944e-06	-5.170575e-09	-1.975593e+01	-3.393035e+02
5.000000e-08	-2.851379e-06	-5.168996e-09	-1.972435e+01	-3.391233e+02
6.000000e-08	-2.846094e-06	-5.164945e-09	-1.968779e+01	-3.388718e+02
7.000000e-08	-2.839887e-06	-5.163504e-09	-1.964485e+01	-3.385505e+02
8.000000e-08	-2.832701e-06	-5.166754e-09	-1.959515e+01	-3.381622e+02
9.000000e-08	-2.824435e-06	-5.154057e-09	-1.953796e+01	-3.377116e+02
1.000000e-07	-2.814822e-06	-5.118954e-09	-1.947146e+01	-3.372040e+02
1.100000e-07	-2.803789e-06	-5.115339e-09	-1.939514e+01	-3.366449e+02
1.200000e-07	-2.791728e-06	-5.142394e-09	-1.931171e+01	-3.360397e+02
1.300000e-07	-2.778917e-06	-5.132193e-09	-1.922309e+01	-3.353928e+02
1.400000e-07	-2.765122e-06	-5.071347e-09	-1.912767e+01	-3.347070e+02
1.500000e-07	-2.750363e-06	-5.096076e-09	-1.902557e+01	-3.339836e+02
1.600000e-07	-2.734595e-06	-5.136501e-09	-1.891650e+01	-3.332219e+02
1.700000e-07	-2.717404e-06	-5.075504e-09	-1.879758e+01	-3.324196e+02
1.800000e-07	-2.699087e-06	-5.070143e-09	-1.867087e+01	-3.315729e+02
1.900000e-07	-2.680165e-06	-5.107907e-09	-1.853998e+01	-3.306772e+02
2.000000e-07	-2.660462e-06	-5.060752e-09	-1.840369e+01	-3.297274e+02
2.100000e-07	-2.639828e-06	-5.015327e-09	-1.826095e+01	-3.287184e+02
2.200000e-07	-2.618392e-06	-5.047496e-09	-1.811266e+01	-3.276460e+02
2.300000e-07	-2.596171e-06	-5.032595e-09	-1.795895e+01	-3.265068e+02
2.400000e-07	-2.572993e-06	-4.975894e-09	-1.779862e+01	-3.252988e+02
2.500000e-07	-2.548892e-06	-4.961971e-09	-1.763190e+01	-3.240214e+02
2.600000e-07	-2.523990e-06	-4.954577e-09	-1.745964e+01	-3.226752e+02
2.700000e-07	-2.498178e-06	-4.926726e-09	-1.728109e+01	-3.212620e+02
2.800000e-07	-2.471339e-06	-4.909813e-09	-1.709543e+01	-3.197840e+02
2.900000e-07	-2.443405e-06	-4.876099e-09	-1.690220e+01	-3.182442e+02
3.000000e-07	-2.414500e-06	-4.854638e-09	-1.670225e+01	-3.166452e+02
3.100000e-07	-2.384842e-06	-4.839641e-09	-1.649709e+01	-3.149894e+02
3.200000e-07	-2.354452e-06	-4.799832e-09	-1.628686e+01	-3.132787e+02
3.300000e-07	-2.323297e-06	-4.792224e-09	-1.607135e+01	-3.115142e+02
3.400000e-07	-2.291379e-06	-4.762891e-09	-1.585056e+01	-3.096964e+02
3.500000e-07	-2.258780e-06	-4.708748e-09	-1.562505e+01	-3.078250e+02
3.600000e-07	-2.225554e-06	-4.706193e-09	-1.539522e+01	-3.058996e+02
3.700000e-07	-2.191442e-06	-4.691430e-09	-1.515925e+01	-3.039197e+02
3.800000e-07	-2.156167e-06	-4.624042e-09	-1.491523e+01	-3.018848e+02
3.900000e-07	-2.119948e-06	-4.607330e-09	-1.466469e+01	-2.997948e+02
4.000000e-07	-2.083153e-06	-4.600693e-09	-1.441016e+01	-2.976501e+02
4.100000e-07	-2.045691e-06	-4.542679e-09	-1.415102e+01	-2.954517e+02
4.200000e-07	-2.007433e-06	-4.499607e-09	-1.388637e+01	-2.932009e+02
4.300000e-07	-1.968451e-06	-4.473585e-09	-1.361671e+01	-2.908994e+02
4.400000e-07	-1.928752e-06	-4.435427e-09	-1.334210e+01	-2.885489e+02
4.500000e-07	-1.888440e-06	-4.398958e-09	-1.306324e+01	-2.861510e+02
4.600000e-07	-1.847723e-06	-4.362398e-09	-1.278158e+01	-2.837067e+02
4.700000e-07	-1.806599e-06	-4.316606e-09	-1.249711e+01	-2.812163e+02
4.800000e-07	-1.764691e-06	-4.280084e-09	-1.220721e+01	-2.786793e+02
4.900000e-07	-1.721659e-06	-4.240373e-09	-1.190954e+01	-2.760944e+02
5.000000e-07	-1.677664e-06	-4.196090e-09	-1.160520e+01	-2.734593e+02
5.100000e-07	-1.633168e-06	-4.154954e-09	-1.129740e+01	-2.707711e+02
5.200000e-07	-1.588331e-06	-4.111766e-09	-1.098724e+01	-2.680266e+02
5.300000e-07	-1.542999e-06	-4.071953e-09	-1.067366e+01	-2.652221e+02
5.400000e-07	-1.497052e-06	-4.032693e-09	-1.035582e+01	-2.623544e+02
5.500000e-07	-1.450513e-06	-3.979579e-09	-1.003389e+01	-2.594205e+02
5.600000e-07	-1.403484e-06	-3.922935e-09	-9.708571e+00	-2.564179e+02
5.700000e-07	-1.355958e-06	-3.883623e-09	-9.379806e+00	-2.533449e+02
5.800000e-07	-1.307945e-06	-3.839152e-09	-9.047677e+00	-2.502004e+02
5.900000e-07	-1.259584e-06	-3.786205e-09	-8.713140e+00	-2.469839e+02
6.000000e-07	-1.210903e-06	-3.738327e-09	-8.376390e+00	-2.436953e+02
6.100000e-07	-1.161835e-06	-3.689287e-09	-8.036964e+00	-2.403347e+02
6.200000e-07	-1.112198e-06	-3.635604e-09	-7.693602e+00	-2.369022e+02
6.300000e-07	-1.061835e-06	-3.579050e-09	-7.345218e+00	-2.333978e+02
6.400000e-07	-1.010823e-06	-3.519725e-09	-6.992343e+00	-2.298210e+02
6.500000e-07	-9.592937e-07	-3.461488e-09	-6.635892e+00	-2.261710e+02
6.600000e-07	-9.073363e-07	-3.407800e-09	-6.276478e+00	-2.224465e+02
6.700000e-07	-8.550060e-07	-3.350292e-09	-5.914484e+00	-2.186459e+02
6.800000e-07	-8.024165e-07	-3.288003e-09	-5.550697e+00	-2.147673e+02
6.900000e-07	-7.495988e-07	-3.224484e-09	-5.185332e+00	-2.108089e+02
7.000000e-07	-6.964712e-07	-3.162707e-09	-4.817823e+00	-2.067688e+02
7.100000e-07	-6.430549e-07	-3.101366e-09	-4.448317e+00	-2.026452e+02
7.200000e-07	-5.893912e-07	-3.036342e-09	-4.077100e+00	-1.984363e+02
7.300000e-07	-5.355214e-07	-2.967847e-09	-3.704457e+00	-1.941405e+02
7.400000e-07	-4.814900e-07	-2.899125e-09	-3.330696e+00	-1.897557e+02
7.500000e-07	-4.272980e-07	-2.830522e-09	-2.955824e+00	-1.852795e+02
7.600000e-07	-3.729906e-07	-2.756634e-09	-2.580153e+00	-1.807087e+02
7.700000e-07	-3.185917e-07	-2.680279e-09	-2.203851e+00	-1.760388e+02
7.800000e-07	-2.641335e-07	-2.607538e-09	-1.827137e+00	-1.712643e+02
7.900000e-07	-2.096085e-07	-2.537421e-09	-1.449962e+00	-1.663781e+02
8.000000e-07	-1.549854e-07	-2.462720e-09	-1.072108e+00	-1.613716e+02
8.100000e-07	-1.003472e-07	-2.381600e-09	-6.941497e-01	-1.562352e+02
8.200000e-07	-4.572654e-08	-2.298634e-09	-3.163123e-01	-1.509583e+02
8.300000e-07	8.923461e-09	-2.216825e-09	6.172783e-02	-1.455301e+02
8.400000e-07	6.360563e-08	-2.130576e-09	4.399904e-01	-1.399396e+02
8.500000e-07	1.182633e-07	-2.036461e-09	8.180839e-01	-1.341767e+02
8.600000e-07	1.728606e-07	-1.943070e-09	1.195759e+00	-1.282323e+02
8.700000e-07	2.274180e-07	-1.852939e-09	1.573159e+00	-1.220984e+02
8.800000e-07	2.819372e-07	-1.762213e-09	1.950294e+00	-1.157685e+02
8.900000e-07	3.364206e-07	-1.664002e-09	2.327182e+00	-1.092368e+02
9.000000e-07	3.908152e-07	-1.557500e-09	2.703455e+00	-1.024981e+02
9.100000e-07	4.450056e-07	-1.450750e-09	3.078316e+00	-9.554625e+01
9.200000e-07	4.989865e-07	-1.344566e-09	3.451727e+00	-8.837390e+01
9.300000e-07	5.528397e-07	-1.230945e-09	3.824256e+00	-8.097081e+01
9.400000e-07	6.065075e-07	-1.109135e-09	4.195501e+00	-7.332308e+01
9.500000e-07	6.598862e-07	-9.861135e-10	4.564748e+00	-6.541236e+01
9.600000e-07	7.129948e-07	-8.627969e-10	4.932125e+00	-5.721554e+01
9.700000e-07	7.658364e-07	-7.339744e-10	5.297655e+00	-4.870496e+01
9.800000e-07	8.184246e-07	-5.951612e-10	5.661433e+00	-3.984930e+01
9.900000e-07	8.707571e-07	-4.510437e-10	6.023442e+00	-3.061516e+01
1.000000e-06	9.228008e-07	-3.031046e-10	6.383453e+00	-2.096928e+01
1.010000e-06	9.744651e-07	-1.465067e-10	6.740840e+00	-1.088129e+01
1.020000e-06	1.025490e-06	1.831601e-11	7.093802e+00	-3.268982e-01
1.030000e-06	1.075799e-06	1.868385e-10	7.441812e+00	1.070888e+01
1.040000e-06	1.125439e-06	3.596854e-10	7.785196e+00	2.222855e+01
1.050000e-06	1.174539e-06	5.416190e-10	8.124846e+00	3.421947e+01
1.060000e-06	1.223299e-06	7.308753e-10	8.462142e+00	4.665179e+01
1.070000e-06	1.271795e-06	9.241026e-10	8.797611e+00	5.947746e+01
1.080000e-06	1.320014e-06	1.122848e-09	9.131167e+00	7.263025e+01
1.090000e-06	1.367789e-06	1.327578e-09	9.461649e+00	8.602702e+01
1.100000e-06	1.415027e-06	1.534625e-09	9.788417e+00	9.957015e+01
1.110000e-06	1.461752e-06	1.740206e-09	1.011164e+01	1.131511e+02
1.120000e-06	1.507890e-06	1.943435e-09	1.043079e+01	1.266547e+02
1.130000e-06	1.553462e-06	2.142839e-09	1.074604e+01	1.399641e+02
1.140000e-06	1.598592e-06	2.339288e-09	1.105822e+01	1.529660e+02
1.150000e-06	1.643336e-06	2.531557e-09	1.136774e+01	1.655555e+02
1.160000e-06	1.687736e-06	2.715131e-09	1.167488e+01	1.776409e+02
1.170000e-06	1.731622e-06	2.889476e-09	1.197845e+01	1.891469e+02
1.180000e-06	1.774698e-06	3.054961e-09	1.227643e+01	2.000174e+02
1.190000e-06	1.816821e-06	3.210975e-09	1.256782e+01	2.102169e+02
1.200000e-06	1.858080e-06	3.356058e-09	1.285322e+01	2.197303e+02
1.210000e-06	1.898722e-06	3.489139e-09	1.313437e+01	2.285617e+02
1.220000e-06	1.938853e-06	3.610961e-09	1.341197e+01	2.367322e+02
1.230000e-06	1.978360e-06	3.722719e-09	1.368526e+01	2.442765e+02
1.240000e-06	2.017181e-06	3.826857e-09	1.395380e+01	2.512392e+02
1.250000e-06	2.055278e-06	3.924827e-09	1.421734e+01	2.576709e+02
1.260000e-06	2.092606e-06	4.015189e-09	1.447555e+01	2.636243e+02
1.270000e-06	2.129372e-06	4.099533e-09	1.472988e+01	2.691508e+02
1.280000e-06	2.165654e-06	4.178737e-09	1.498086e+01	2.742977e+02
1.290000e-06	2.201144e-06	4.252625e-09	1.522636e+01	2.791060e+02
1.300000e-06	2.235556e-06	4.319507e-09	1.546440e+01	2.836098e+02
1.310000e-06	2.268934e-06	4.379250e-09	1.569530e+01	2.878356e+02
1.320000e-06	2.301564e-06	4.436107e-09	1.592102e+01	2.918031e+02
1.330000e-06	2.333518e-06	4.492077e-09	1.614206e+01	2.955262e+02
1.340000e-06	2.364683e-06	4.544683e-09	1.635764e+01	2.990147e+02
1.350000e-06	2.395035e-06	4.593465e-09	1.656760e+01	3.022761e+02
1.360000e-06	2.424594e-06	4.638623e-09	1.677207e+01	3.053168e+02
1.370000e-06	2.453451e-06	4.678238e-09	1.697169e+01	3.081440e+02
1.380000e-06	2.481644e-06	4.713012e-09	1.716671e+01	3.107667e+02
1.390000e-06	2.508872e-06	4.745234e-09	1.735506e+01	3.131959e+02
1.400000e-06	2.534849e-06	4.776944e-09	1.753476e+01	3.154447e+02
1.410000e-06	2.559783e-06	4.809007e-09	1.770724e+01	3.175285e+02
1.420000e-06	2.583846e-06	4.840252e-09	1.787370e+01	3.194636e+02
1.430000e-06	2.607010e-06	4.870155e-09	1.803393e+01	3.212663e+02
1.440000e-06	2.629291e-06	4.897216e-09	1.818806e+01	3.229524e+02
1.450000e-06	2.650733e-06	4.919418e-09	1.833638e+01	3.245358e+02
1.460000e-06	2.671429e-06	4.938402e-09	1.847955e+01	3.260279e+02
1.470000e-06	2.691336e-06	4.957074e-09	1.861725e+01	3.274372e+02
1.480000e-06	2.710324e-06	4.976104e-09	1.874861e+01	3.287691e+02
1.490000e-06	2.728368e-06	4.996488e-09	1.887342e+01	3.300261e+02
1.500000e-06	2.745448e-06	5.016387e-09	1.899157e+01	3.312087e+02
1.510000e-06	2.761410e-06	5.033421e-09	1.910199e+01	3.323156e+02
1.520000e-06	2.776264e-06	5.048974e-09	1.920474e+01	3.333450e+02
1.530000e-06	2.790096e-06	5.063697e-09	1.930042e+01	3.342949e+02
1.540000e-06	2.802932e-06	5.076156e-09	1.938922e+01	3.351645e+02
1.550000e-06	2.814685e-06	5.084554e-09	1.947052e+01	3.359541e+02
1.560000e-06	2.825113e-06	5.091698e-09	1.954265e+01	3.366658e+02
1.570000e-06	2.834326e-06	5.102513e-09	1.960638e+01	3.373030e+02
1.580000e-06	2.842569e-06	5.117850e-09	1.966340e+01	3.378705e+02
1.590000e-06	2.849884e-06	5.132139e-09	1.971400e+01	3.383740e+02
1.600000e-06	2.856213e-06	5.139931e-09	1.975779e+01	3.388190e+02
1.610000e-06	2.861616e-06	5.143331e-09	1.979516e+01	3.392108e+02
1.620000e-06	2.866241e-06	5.147303e-09	1.982715e+01	3.395534e+02
1.630000e-06	2.869906e-06	5.153002e-09	1.985251e+01	3.398490e+02
1.640000e-06	2.872283e-06	5.157822e-09	1.986895e+01	3.400985e+02
1.650000e-06	2.873457e-06	5.160699e-09	1.987707e+01	3.403003e+02
1.660000e-06	2.873664e-06	5.163230e-09	1.987850e+01	3.404517e+02
1.670000e-06	2.873000e-06	5.166351e-09	1.987391e+01	3.405484e+02
1.680000e-06	2.871481e-06	5.168191e-09	1.986340e+01	3.405859e+02
1.690000e-06	2.869139e-06	5.168037e-09	1.984720e+01	3.405595e+02
1.700000e-06	2.866043e-06	5.167217e-09	1.982579e+01	3.404653e+02
1.710000e-06	2.862056e-06	5.165650e-09	1.979821e+01	3.403008e+02
1.720000e-06	2.856900e-06	5.161928e-09	1.976254e+01	3.400650e+02
1.730000e-06	2.850568e-06	5.147093e-09	1.971874e+01	3.397588e+02
1.740000e-06	2.843340e-06	5.135940e-09	1.966874e+01	3.393850e+02
1.750000e-06	2.835119e-06	5.148519e-09	1.961187e+01	3.389478e+02
1.760000e-06	2.825431e-06	5.169878e-09	1.954485e+01	3.384523e+02
1.770000e-06	2.814299e-06	5.128441e-09	1.946785e+01	3.379042e+02
1.780000e-06	2.802541e-06	5.092012e-09	1.938651e+01	3.373090e+02
1.790000e-06	2.790565e-06	5.122795e-09	1.930367e+01	3.366711e+02
1.800000e-06	2.777498e-06	5.121312e-09	1.921328e+01	3.359939e+02
1.810000e-06	2.762793e-06	5.048985e-09	1.911156e+01	3.352790e+02
1.820000e-06	2.747210e-06	5.055439e-09	1.900376e+01	3.345261e+02
1.830000e-06	2.731022e-06	5.136277e-09	1.889178e+01	3.337332e+02
1.840000e-06	2.713579e-06	5.082887e-09	1.877112e+01	3.328968e+02
1.850000e-06	2.694950e-06	5.017302e-09	1.864225e+01	3.320125e+02
1.860000e-06	2.675670e-06	5.076830e-09	1.850888e+01	3.310751e+02
1.870000e-06	2.655458e-06	5.053316e-09	1.836907e+01	3.300796e+02
1.880000e-06	2.633949e-06	4.978201e-09	1.822028e+01	3.290215e+02
1.890000e-06	2.611447e-06	5.019279e-09	1.806462e+01	3.278973e+02
1.900000e-06	2.588055e-06	5.015146e-09	1.790281e+01	3.267046e+02
1.910000e-06	2.563702e-06	4.959346e-09	1.773435e+01	3.254425e+02
1.920000e-06	2.538626e-06	4.951466e-09	1.756088e+01	3.241114e+02
1.930000e-06	2.512785e-06	4.924215e-09	1.738213e+01	3.227127e+02
1.940000e-06	2.486074e-06	4.895193e-09	1.719736e+01	3.212488e+02
1.950000e-06	2.458660e-06	4.905045e-09	1.700773e+01	3.197224e+02
1.960000e-06	2.430251e-06	4.861303e-09	1.681120e+01	3.181363e+02
1.970000e-06	2.400535e-06	4.827587e-09	1.660564e+01	3.164930e+02
1.980000e-06	2.369862e-06	4.836332e-09	1.639346e+01	3.147944e+02
1.990000e-06	2.338487e-06	4.774810e-09	1.617643e+01	3.130418e+02
2.000000e-06	2.306369e-06	4.747648e-09	1.595425e+01	3.112358e+02
2.010000e-06	2.273477e-06	4.750831e-09	1.572673e+01	3.093763e+02
2.020000e-06	2.239746e-06	4.676440e-09	1.549339e+01	3.074630e+02
2.030000e-06	2.205301e-06	4.655040e-09	1.525511e+01	3.054952e+02
2.040000e-06	2.170320e-06	4.663732e-09	1.501314e+01	3.034725e+02
2.050000e-06	2.134686e-06	4.588884e-09	1.476664e+01	3.013948e+02
2.060000e-06	2.098244e-06	4.553381e-09	1.451455e+01	2.992622e+02
2.070000e-06	2.060770e-06	4.550778e-09	1.425533e+01	2.970756e+02
2.080000e-06	2.022242e-06	4.502656e-09	1.398881e+01	2.948363e+02
2.090000e-06	1.983038e-06	4.466664e-09	1.371762e+01	2.925460e+02
2.100000e-06	1.943254e-06	4.432412e-09	1.344241e+01	2.902063e+02
2.110000e-06	1.902809e-06	4.393259e-09	1.316264e+01	2.878189e+02
2.120000e-06	1.861775e-06	4.359512e-09	1.287879e+01	2.853849e+02
2.130000e-06	1.820184e-06	4.312453e-09	1.259108e+01	2.829048e+02
2.140000e-06	1.778032e-06	4.278428e-09	1.229950e+01	2.803783e+02
2.150000e-06	1.735310e-06	4.249643e-09	1.200396e+01	2.778043e+02
2.160000e-06	1.692087e-06	4.202427e-09	1.170497e+01	2.751806e+02
2.170000e-06	1.648391e-06	4.157873e-09	1.140270e+01	2.725045e+02
2.180000e-06	1.604066e-06	4.120265e-09	1.109609e+01	2.697727e+02
2.190000e-06	1.559110e-06	4.076747e-09	1.078510e+01	2.669818e+02
2.200000e-06	1.513595e-06	4.032415e-09	1.047026e+01	2.641284e+02
2.210000e-06	1.467660e-06	3.992535e-09	1.015250e+01	2.612093e+02
2.220000e-06	1.421341e-06	3.949045e-09	9.832096e+00	2.582220e+02
2.230000e-06	1.374439e-06	3.895042e-09	9.507650e+00	2.551646e+02
2.240000e-06	1.326865e-06	3.849349e-09	9.178560e+00	2.520360e+02
2.250000e-06	1.278681e-06	3.803928e-09	8.845248e+00	2.488353e+02
2.260000e-06	1.230032e-06	3.751145e-09	8.508720e+00	2.455626e+02
2.270000e-06	1.180997e-06	3.709203e-09	8.169519e+00	2.422178e+02
2.280000e-06	1.131502e-06	3.660912e-09	7.827140e+00	2.388012e+02
2.290000e-06	1.081557e-06	3.605062e-09	7.481644e+00	2.353126e+02
2.300000e-06	1.031188e-06	3.551543e-09	7.133220e+00	2.317518e+02
2.310000e-06	9.803810e-07	3.493455e-09	6.781763e+00	2.281180e+02
2.320000e-06	9.292712e-07	3.434000e-09	6.428212e+00	2.244100e+02
2.330000e-06	8.779318e-07	3.373220e-09	6.073073e+00	2.206263e+02
2.340000e-06	8.262772e-07	3.315261e-09	5.715753e+00	2.167650e+02
2.350000e-06	7.741838e-07	3.264055e-09	5.355398e+00	2.128243e+02
2.360000e-06	7.216271e-07	3.205601e-09	4.991838e+00	2.088023e+02
2.370000e-06	6.686053e-07	3.139118e-09	4.625061e+00	2.046972e+02
2.380000e-06	6.150940e-07	3.075898e-09	4.254898e+00	2.005071e+02
2.390000e-06	5.612587e-07	3.016570e-09	3.882494e+00	1.962305e+02
2.400000e-06	5.071414e-07	2.954081e-09	3.508139e+00	1.918654e+02
2.410000e-06	4.527272e-07	2.886013e-09	3.131730e+00	1.874095e+02
2.420000e-06	3.981847e-07	2.820453e-09	2.754434e+00	1.828597e+02
2.430000e-06	3.435373e-07	2.753880e-09	2.376411e+00	1.782119e+02
2.440000e-06	2.887017e-07	2.681087e-09	1.997087e+00	1.734608e+02
2.450000e-06	2.337257e-07	2.605410e-09	1.616792e+00	1.685996e+02
2.460000e-06	1.787107e-07	2.528446e-09	1.236227e+00	1.636201e+02
2.470000e-06	1.237038e-07	2.451750e-09	8.557184e-01	1.585128e+02
2.480000e-06	6.869228e-08	2.373024e-09	4.751772e-01	1.532674e+02
2.490000e-06	1.368425e-08	2.291337e-09	9.466048e-02	1.478730e+02
2.500000e-06	-4.132333e-08	2.206163e-09	-2.858531e-01	1.423186e+02
2.510000e-06	-9.637050e-08	2.117714e-09	-6.666407e-01	1.365939e+02
2.520000e-06	-1.513951e-07	2.029113e-09	-1.047272e+00	1.306895e+02
2.530000e-06	-2.063771e-07	1.938212e-09	-1.427609e+00	1.245972e+02
2.540000e-06	-2.613482e-07	1.841898e-09	-1.807870e+00	1.183103e+02
2.550000e-06	-3.162456e-07	1.742212e-09	-2.187622e+00	1.118227e+02
2.560000e-06	-3.710313e-07	1.643932e-09	-2.566600e+00	1.051292e+02
2.570000e-06	-4.257019e-07	1.543398e-09	-2.944783e+00	9.822403e+01
2.580000e-06	-4.802013e-07	1.435662e-09	-3.321781e+00	9.110011e+01
2.590000e-06	-5.344386e-07	1.322251e-09	-3.696966e+00	8.374792e+01
2.600000e-06	-5.883035e-07	1.205887e-09	-4.069575e+00	7.615443e+01
2.610000e-06	-6.418034e-07	1.085149e-09	-4.439660e+00	6.830228e+01
2.620000e-06	-6.948920e-07	9.586734e-10	-4.806899e+00	6.016938e+01
2.630000e-06	-7.475567e-07	8.297015e-10	-5.171206e+00	5.172899e+01
2.640000e-06	-7.997660e-07	6.986205e-10	-5.532363e+00	4.295048e+01
2.650000e-06	-8.515304e-07	5.623031e-10	-5.890441e+00	3.380072e+01
2.660000e-06	-9.029954e-07	4.173969e-10	-6.246449e+00	2.424619e+01
2.670000e-06	-9.541893e-07	2.647879e-10	-6.600582e+00	1.425568e+01
2.680000e-06	-1.005107e-06	1.063041e-10	-6.952804e+00	3.803285e+00
2.690000e-06	-1.055659e-06	-5.925400e-11	-7.302498e+00	-7.128228e+00
2.700000e-06	-1.105759e-06	-2.335477e-10	-7.649063e+00	-1.854429e+01
2.710000e-06	-1.155395e-06	-4.135566e-10	-7.992417e+00	-3.043570e+01
2.720000e-06	-1.204619e-06	-5.966402e-10	-8.332924e+00	-4.277642e+01
2.730000e-06	-1.253387e-06	-7.878854e-10	-8.670277e+00	-5.552234e+01
2.740000e-06	-1.301471e-06	-9.900537e-10	-9.002898e+00	-6.861106e+01
2.750000e-06	-1.348679e-06	-1.197323e-09	-9.329453e+00	-8.196289e+01
2.760000e-06	-1.395196e-06	-1.405335e-09	-9.651238e+00	-9.548306e+01
2.770000e-06	-1.441203e-06	-1.616307e-09	-9.969485e+00	-1.090650e+02
2.780000e-06	-1.486794e-06	-1.830945e-09	-1.028486e+01	-1.225946e+02
2.790000e-06	-1.532076e-06	-2.042565e-09	-1.059810e+01	-1.359549e+02
2.800000e-06	-1.576984e-06	-2.242791e-09	-1.090875e+01	-1.490314e+02
2.810000e-06	-1.621370e-06	-2.431249e-09	-1.121579e+01	-1.617172e+02
2.820000e-06	-1.665142e-06	-2.614809e-09	-1.151858e+01	-1.739171e+02
2.830000e-06	-1.708469e-06	-2.794579e-09	-1.181829e+01	-1.855522e+02
2.840000e-06	-1.751418e-06	-2.964842e-09	-1.211539e+01	-1.965622e+02
2.850000e-06	-1.793888e-06	-3.120556e-09	-1.240918e+01	-2.069070e+02
2.860000e-06	-1.835763e-06	-3.266197e-09	-1.269885e+01	-2.165673e+02
2.870000e-06	-1.876974e-06	-3.407550e-09	-1.298392e+01	-2.255432e+02
2.880000e-06	-1.917526e-06	-3.540137e-09	-1.326444e+01	-2.338524e+02
2.890000e-06	-1.957407e-06	-3.658171e-09	-1.354031e+01	-2.415269e+02
2.900000e-06	-1.996715e-06	-3.764696e-09	-1.381223e+01	-2.486097e+02
2.910000e-06	-2.035503e-06	-3.865871e-09	-1.408055e+01	-2.551503e+02
2.920000e-06	-2.073503e-06	-3.963165e-09	-1.434341e+01	-2.612014e+02
2.930000e-06	-2.110422e-06	-4.051595e-09	-1.459880e+01	-2.668148e+02
2.940000e-06	-2.146372e-06	-4.128627e-09	-1.484748e+01	-2.720388e+02
