# Temperatura_=_27.2
# Concentracion g/m^3_=_15500.0
# C_Vs_to_Am_M_A/Vsm_=_65563218390.804596
# pendiente_HvsI_1/m_=_3716.3
# ordenada_HvsI_A/m_=_1297.0
# frecuencia_Hz_=_300840.01702358987

Tiempo_(s)	Campo_(V.s)	Magnetizacion_(V.s)	Campo_(kA/m)	Magnetizacion_(A/m)
0.000000e+00	-2.857777e-06	-5.213277e-09	-1.980569e+01	-3.414417e+02
1.000000e-08	-2.857190e-06	-5.214884e-09	-1.980163e+01	-3.414925e+02
2.000000e-08	-2.855860e-06	-5.212236e-09	-1.979241e+01	-3.414759e+02
3.000000e-08	-2.853405e-06	-5.205792e-09	-1.977539e+01	-3.413888e+02
4.000000e-08	-2.849692e-06	-5.204595e-09	-1.974966e+01	-3.412290e+02
5.000000e-08	-2.845047e-06	-5.207059e-09	-1.971747e+01	-3.409963e+02
6.000000e-08	-2.839598e-06	-5.202729e-09	-1.967970e+01	-3.406923e+02
7.000000e-08	-2.833229e-06	-5.193917e-09	-1.963556e+01	-3.403205e+02
8.000000e-08	-2.825856e-06	-5.194184e-09	-1.958447e+01	-3.398859e+02
9.000000e-08	-2.817404e-06	-5.205380e-09	-1.952589e+01	-3.393945e+02
1.000000e-07	-2.807595e-06	-5.183081e-09	-1.945791e+01	-3.388527e+02
1.100000e-07	-2.796420e-06	-5.144878e-09	-1.938046e+01	-3.382667e+02
1.200000e-07	-2.784297e-06	-5.117851e-09	-1.929645e+01	-3.376416e+02
1.300000e-07	-2.771395e-06	-5.172076e-09	-1.920703e+01	-3.369812e+02
1.400000e-07	-2.757517e-06	-5.160464e-09	-1.911085e+01	-3.362873e+02
1.500000e-07	-2.742711e-06	-5.105704e-09	-1.900824e+01	-3.355598e+02
1.600000e-07	-2.726849e-06	-5.122386e-09	-1.889830e+01	-3.347965e+02
1.700000e-07	-2.709489e-06	-5.137205e-09	-1.877799e+01	-3.339936e+02
1.800000e-07	-2.691035e-06	-5.113782e-09	-1.865010e+01	-3.331460e+02
1.900000e-07	-2.671986e-06	-5.052277e-09	-1.851808e+01	-3.322480e+02
2.000000e-07	-2.652139e-06	-5.080708e-09	-1.838053e+01	-3.312939e+02
2.100000e-07	-2.631383e-06	-5.060980e-09	-1.823668e+01	-3.302783e+02
2.200000e-07	-2.609856e-06	-5.001846e-09	-1.808749e+01	-3.291969e+02
2.300000e-07	-2.587509e-06	-5.054702e-09	-1.793261e+01	-3.280467e+02
2.400000e-07	-2.564170e-06	-5.047625e-09	-1.777086e+01	-3.268260e+02
2.500000e-07	-2.539904e-06	-4.941093e-09	-1.760269e+01	-3.255345e+02
2.600000e-07	-2.514877e-06	-4.951776e-09	-1.742924e+01	-3.241731e+02
2.700000e-07	-2.489002e-06	-4.956558e-09	-1.724992e+01	-3.227438e+02
2.800000e-07	-2.462081e-06	-4.896672e-09	-1.706334e+01	-3.212487e+02
2.900000e-07	-2.434058e-06	-4.876596e-09	-1.686913e+01	-3.196903e+02
3.000000e-07	-2.405096e-06	-4.875368e-09	-1.666841e+01	-3.180709e+02
3.100000e-07	-2.375337e-06	-4.849929e-09	-1.646217e+01	-3.163922e+02
3.200000e-07	-2.344837e-06	-4.824483e-09	-1.625079e+01	-3.146554e+02
3.300000e-07	-2.313584e-06	-4.812543e-09	-1.603419e+01	-3.128613e+02
3.400000e-07	-2.281541e-06	-4.742324e-09	-1.581212e+01	-3.110101e+02
3.500000e-07	-2.248857e-06	-4.716484e-09	-1.558560e+01	-3.091020e+02
3.600000e-07	-2.215590e-06	-4.717524e-09	-1.535504e+01	-3.071373e+02
3.700000e-07	-2.181383e-06	-4.685716e-09	-1.511798e+01	-3.051164e+02
3.800000e-07	-2.145984e-06	-4.646575e-09	-1.487264e+01	-3.030405e+02
3.900000e-07	-2.109646e-06	-4.622956e-09	-1.462081e+01	-3.009113e+02
4.000000e-07	-2.072718e-06	-4.597424e-09	-1.436488e+01	-2.987312e+02
4.100000e-07	-2.035162e-06	-4.555869e-09	-1.410460e+01	-2.965028e+02
4.200000e-07	-1.996849e-06	-4.513935e-09	-1.383907e+01	-2.942290e+02
4.300000e-07	-1.957856e-06	-4.468373e-09	-1.356884e+01	-2.919127e+02
4.400000e-07	-1.918150e-06	-4.445340e-09	-1.329365e+01	-2.895559e+02
4.500000e-07	-1.877783e-06	-4.415095e-09	-1.301389e+01	-2.871598e+02
4.600000e-07	-1.837008e-06	-4.375265e-09	-1.273130e+01	-2.847245e+02
4.700000e-07	-1.795816e-06	-4.328542e-09	-1.244582e+01	-2.822485e+02
4.800000e-07	-1.753895e-06	-4.289824e-09	-1.215529e+01	-2.797292e+02
4.900000e-07	-1.710925e-06	-4.247518e-09	-1.185749e+01	-2.771624e+02
5.000000e-07	-1.666961e-06	-4.208092e-09	-1.155280e+01	-2.745432e+02
5.100000e-07	-1.622423e-06	-4.170334e-09	-1.124413e+01	-2.718660e+02
5.200000e-07	-1.577536e-06	-4.121204e-09	-1.093304e+01	-2.691255e+02
5.300000e-07	-1.532182e-06	-4.086929e-09	-1.061872e+01	-2.663162e+02
5.400000e-07	-1.486224e-06	-4.044350e-09	-1.030021e+01	-2.634342e+02
5.500000e-07	-1.439705e-06	-3.990484e-09	-9.977810e+00	-2.604761e+02
5.600000e-07	-1.392671e-06	-3.937675e-09	-9.651842e+00	-2.574404e+02
5.700000e-07	-1.345186e-06	-3.900609e-09	-9.322754e+00	-2.543267e+02
5.800000e-07	-1.297249e-06	-3.852963e-09	-8.990529e+00	-2.511359e+02
5.900000e-07	-1.248844e-06	-3.802858e-09	-8.655058e+00	-2.478699e+02
6.000000e-07	-1.200111e-06	-3.756272e-09	-8.317317e+00	-2.445309e+02
6.100000e-07	-1.151014e-06	-3.699188e-09	-7.977049e+00	-2.411214e+02
6.200000e-07	-1.101408e-06	-3.643790e-09	-7.633262e+00	-2.376432e+02
6.300000e-07	-1.051191e-06	-3.588078e-09	-7.285230e+00	-2.340976e+02
6.400000e-07	-1.000389e-06	-3.532702e-09	-6.933151e+00	-2.304846e+02
6.500000e-07	-9.490277e-07	-3.472984e-09	-6.577194e+00	-2.268034e+02
6.600000e-07	-8.971314e-07	-3.418543e-09	-6.217528e+00	-2.230516e+02
6.700000e-07	-8.448786e-07	-3.361617e-09	-5.855393e+00	-2.192264e+02
6.800000e-07	-7.923443e-07	-3.301070e-09	-5.491306e+00	-2.153239e+02
6.900000e-07	-7.395495e-07	-3.236742e-09	-5.125414e+00	-2.113404e+02
7.000000e-07	-6.865013e-07	-3.172407e-09	-4.757766e+00	-2.072718e+02
7.100000e-07	-6.332042e-07	-3.111993e-09	-4.388393e+00	-2.031147e+02
7.200000e-07	-5.796718e-07	-3.047465e-09	-4.017389e+00	-1.988659e+02
7.300000e-07	-5.259716e-07	-2.980682e-09	-3.645222e+00	-1.945230e+02
7.400000e-07	-4.720592e-07	-2.909856e-09	-3.271585e+00	-1.900836e+02
7.500000e-07	-4.179088e-07	-2.838801e-09	-2.896298e+00	-1.855457e+02
7.600000e-07	-3.636236e-07	-2.765298e-09	-2.520077e+00	-1.809069e+02
7.700000e-07	-3.092215e-07	-2.693043e-09	-2.143046e+00	-1.761639e+02
7.800000e-07	-2.547152e-07	-2.619347e-09	-1.765292e+00	-1.713127e+02
7.900000e-07	-2.001431e-07	-2.544561e-09	-1.387083e+00	-1.663474e+02
8.000000e-07	-1.455451e-07	-2.469228e-09	-1.008694e+00	-1.612611e+02
8.100000e-07	-9.091971e-08	-2.387551e-09	-6.301149e-01	-1.560451e+02
8.200000e-07	-3.624679e-08	-2.302300e-09	-2.512067e-01	-1.506894e+02
8.300000e-07	1.841250e-08	-2.214633e-09	1.276070e-01	-1.451835e+02
8.400000e-07	7.300750e-08	-2.127525e-09	5.059752e-01	-1.395164e+02
8.500000e-07	1.275973e-07	-2.037771e-09	8.843070e-01	-1.336773e+02
8.600000e-07	1.822013e-07	-1.946769e-09	1.262738e+00	-1.276563e+02
8.700000e-07	2.367801e-07	-1.853443e-09	1.640994e+00	-1.214446e+02
8.800000e-07	2.913081e-07	-1.759028e-09	2.018898e+00	-1.150344e+02
8.900000e-07	3.457057e-07	-1.658429e-09	2.395898e+00	-1.084192e+02
9.000000e-07	3.999363e-07	-1.548251e-09	2.771741e+00	-1.015928e+02
9.100000e-07	4.540299e-07	-1.438758e-09	3.146634e+00	-9.454879e+01
9.200000e-07	5.079437e-07	-1.330528e-09	3.520281e+00	-8.727930e+01
9.300000e-07	5.616511e-07	-1.218165e-09	3.892498e+00	-7.977418e+01
9.400000e-07	6.151226e-07	-1.096317e-09	4.263079e+00	-7.201977e+01
9.500000e-07	6.683373e-07	-9.707166e-10	4.631882e+00	-6.399818e+01
9.600000e-07	7.213511e-07	-8.428271e-10	4.999291e+00	-5.568688e+01
9.700000e-07	7.741445e-07	-7.109290e-10	5.365174e+00	-4.705889e+01
9.800000e-07	8.266633e-07	-5.717473e-10	5.729153e+00	-3.808364e+01
9.900000e-07	8.788864e-07	-4.246840e-10	6.091082e+00	-2.872848e+01
1.000000e-06	9.307059e-07	-2.743868e-10	6.450215e+00	-1.896096e+01
1.010000e-06	9.819966e-07	-1.200016e-10	6.805683e+00	-8.751573e+00
1.020000e-06	1.032699e-06	4.291112e-11	7.157077e+00	1.923006e+00
1.030000e-06	1.082726e-06	2.181506e-10	7.503785e+00	1.307663e+01
1.040000e-06	1.132149e-06	3.990265e-10	7.846308e+00	2.471050e+01
1.050000e-06	1.181179e-06	5.824362e-10	8.186110e+00	3.681040e+01
1.060000e-06	1.229911e-06	7.694316e-10	8.523846e+00	4.934473e+01
1.070000e-06	1.278310e-06	9.648261e-10	8.859272e+00	6.226350e+01
1.080000e-06	1.326319e-06	1.167686e-09	9.191992e+00	7.549839e+01
1.090000e-06	1.373865e-06	1.371735e-09	9.521509e+00	8.896419e+01
1.100000e-06	1.420926e-06	1.577661e-09	9.847661e+00	1.025614e+02
1.110000e-06	1.467484e-06	1.785463e-09	1.017033e+01	1.161797e+02
1.120000e-06	1.513487e-06	1.993714e-09	1.048916e+01	1.297027e+02
1.130000e-06	1.558944e-06	2.195955e-09	1.080419e+01	1.430129e+02
1.140000e-06	1.603948e-06	2.392641e-09	1.111609e+01	1.559971e+02
1.150000e-06	1.648635e-06	2.582295e-09	1.142579e+01	1.685510e+02
1.160000e-06	1.692951e-06	2.762544e-09	1.173292e+01	1.805842e+02
1.170000e-06	1.736600e-06	2.935098e-09	1.203543e+01	1.920234e+02
1.180000e-06	1.779313e-06	3.100037e-09	1.233145e+01	2.028152e+02
1.190000e-06	1.821082e-06	3.253988e-09	1.262093e+01	2.129269e+02
1.200000e-06	1.862143e-06	3.394678e-09	1.290550e+01	2.223466e+02
1.210000e-06	1.902691e-06	3.527279e-09	1.318652e+01	2.310813e+02
1.220000e-06	1.942678e-06	3.652399e-09	1.346364e+01	2.391550e+02
1.230000e-06	1.982022e-06	3.765465e-09	1.373632e+01	2.466049e+02
1.240000e-06	2.020657e-06	3.864934e-09	1.400407e+01	2.534775e+02
1.250000e-06	2.058537e-06	3.956648e-09	1.426660e+01	2.598248e+02
1.260000e-06	2.095766e-06	4.044340e-09	1.452461e+01	2.657005e+02
1.270000e-06	2.132477e-06	4.129170e-09	1.477904e+01	2.711563e+02
1.280000e-06	2.168583e-06	4.208274e-09	1.502927e+01	2.762393e+02
1.290000e-06	2.203747e-06	4.280567e-09	1.527297e+01	2.809904e+02
1.300000e-06	2.237807e-06	4.348457e-09	1.550902e+01	2.854431e+02
1.310000e-06	2.270990e-06	4.411285e-09	1.573899e+01	2.896236e+02
1.320000e-06	2.303503e-06	4.468687e-09	1.596433e+01	2.935510e+02
1.330000e-06	2.335300e-06	4.522319e-09	1.618469e+01	2.972394e+02
1.340000e-06	2.366319e-06	4.572540e-09	1.639967e+01	3.006986e+02
1.350000e-06	2.396539e-06	4.617821e-09	1.660910e+01	3.039363e+02
1.360000e-06	2.425921e-06	4.660463e-09	1.681274e+01	3.069597e+02
1.370000e-06	2.454606e-06	4.702183e-09	1.701153e+01	3.097766e+02
1.380000e-06	2.482574e-06	4.741727e-09	1.720537e+01	3.123963e+02
1.390000e-06	2.509466e-06	4.777892e-09	1.739174e+01	3.148303e+02
1.400000e-06	2.535119e-06	4.809732e-09	1.756952e+01	3.170918e+02
1.410000e-06	2.559806e-06	4.838739e-09	1.774062e+01	3.191959e+02
1.420000e-06	2.583655e-06	4.868895e-09	1.790590e+01	3.211582e+02
1.430000e-06	2.606588e-06	4.899056e-09	1.806484e+01	3.229940e+02
1.440000e-06	2.628677e-06	4.924693e-09	1.821792e+01	3.247178e+02
1.450000e-06	2.649989e-06	4.946792e-09	1.836563e+01	3.263417e+02
1.460000e-06	2.670537e-06	4.968143e-09	1.850804e+01	3.278756e+02
1.470000e-06	2.690255e-06	4.989566e-09	1.864469e+01	3.293262e+02
1.480000e-06	2.709059e-06	5.010276e-09	1.877501e+01	3.306975e+02
1.490000e-06	2.726826e-06	5.031272e-09	1.889815e+01	3.319909e+02
1.500000e-06	2.743547e-06	5.050340e-09	1.901403e+01	3.332061e+02
1.510000e-06	2.759226e-06	5.066759e-09	1.912269e+01	3.343416e+02
1.520000e-06	2.773831e-06	5.084461e-09	1.922391e+01	3.353954e+02
1.530000e-06	2.787459e-06	5.099470e-09	1.931836e+01	3.363661e+02
1.540000e-06	2.800068e-06	5.109153e-09	1.940575e+01	3.372535e+02
1.550000e-06	2.811451e-06	5.117598e-09	1.948463e+01	3.380587e+02
1.560000e-06	2.821525e-06	5.127389e-09	1.955445e+01	3.387842e+02
1.570000e-06	2.830500e-06	5.140130e-09	1.961665e+01	3.394341e+02
1.580000e-06	2.838577e-06	5.154784e-09	1.967263e+01	3.400133e+02
1.590000e-06	2.845712e-06	5.166724e-09	1.972207e+01	3.405271e+02
1.600000e-06	2.851874e-06	5.173891e-09	1.976479e+01	3.409808e+02
1.610000e-06	2.857154e-06	5.178163e-09	1.980138e+01	3.413784e+02
1.620000e-06	2.861608e-06	5.181800e-09	1.983225e+01	3.417229e+02
1.630000e-06	2.865007e-06	5.186030e-09	1.985580e+01	3.420156e+02
1.640000e-06	2.867135e-06	5.191454e-09	1.987055e+01	3.422557e+02
1.650000e-06	2.868168e-06	5.195241e-09	1.987771e+01	3.424411e+02
1.660000e-06	2.868282e-06	5.196680e-09	1.987850e+01	3.425684e+02
1.670000e-06	2.867452e-06	5.198033e-09	1.987274e+01	3.426334e+02
1.680000e-06	2.865733e-06	5.198012e-09	1.986083e+01	3.426320e+02
1.690000e-06	2.863216e-06	5.197702e-09	1.984339e+01	3.425605e+02
1.700000e-06	2.859929e-06	5.196069e-09	1.982061e+01	3.424167e+02
1.710000e-06	2.855704e-06	5.192527e-09	1.979133e+01	3.421998e+02
1.720000e-06	2.850252e-06	5.189022e-09	1.975354e+01	3.419112e+02
1.730000e-06	2.843749e-06	5.179148e-09	1.970847e+01	3.415540e+02
1.740000e-06	2.836403e-06	5.162861e-09	1.965756e+01	3.411327e+02
1.750000e-06	2.827986e-06	5.135662e-09	1.959923e+01	3.406532e+02
1.760000e-06	2.818076e-06	5.160705e-09	1.953055e+01	3.401220e+02
1.770000e-06	2.806751e-06	5.176338e-09	1.945206e+01	3.395453e+02
1.780000e-06	2.794952e-06	5.158747e-09	1.937029e+01	3.389286e+02
1.790000e-06	2.782932e-06	5.121419e-09	1.928699e+01	3.382759e+02
1.800000e-06	2.769629e-06	5.082800e-09	1.919479e+01	3.375895e+02
1.810000e-06	2.754699e-06	5.124520e-09	1.909132e+01	3.368696e+02
1.820000e-06	2.738999e-06	5.098035e-09	1.898251e+01	3.361145e+02
1.830000e-06	2.722662e-06	5.095435e-09	1.886929e+01	3.353208e+02
1.840000e-06	2.705056e-06	5.136528e-09	1.874727e+01	3.344836e+02
1.850000e-06	2.686377e-06	5.106259e-09	1.861781e+01	3.335973e+02
1.860000e-06	2.667077e-06	5.065045e-09	1.848405e+01	3.326560e+02
1.870000e-06	2.646704e-06	5.058348e-09	1.834286e+01	3.316543e+02
1.880000e-06	2.624973e-06	5.067624e-09	1.819226e+01	3.305877e+02
1.890000e-06	2.602310e-06	5.008843e-09	1.803519e+01	3.294527e+02
1.900000e-06	2.578748e-06	4.985548e-09	1.787190e+01	3.282475e+02
1.910000e-06	2.554227e-06	5.043262e-09	1.770195e+01	3.269714e+02
1.920000e-06	2.529026e-06	4.984061e-09	1.752730e+01	3.256253e+02
1.930000e-06	2.503062e-06	4.931903e-09	1.734736e+01	3.242107e+02
1.940000e-06	2.476303e-06	4.961457e-09	1.716191e+01	3.227298e+02
1.950000e-06	2.448838e-06	4.912406e-09	1.697156e+01	3.211851e+02
1.960000e-06	2.420271e-06	4.869702e-09	1.677358e+01	3.195789e+02
1.970000e-06	2.390402e-06	4.863807e-09	1.656658e+01	3.179131e+02
1.980000e-06	2.359618e-06	4.834522e-09	1.635322e+01	3.161891e+02
1.990000e-06	2.328140e-06	4.810009e-09	1.613507e+01	3.144075e+02
2.000000e-06	2.295920e-06	4.803466e-09	1.591177e+01	3.125689e+02
2.010000e-06	2.262945e-06	4.755119e-09	1.568324e+01	3.106733e+02
2.020000e-06	2.229143e-06	4.712066e-09	1.544898e+01	3.087210e+02
2.030000e-06	2.194640e-06	4.690504e-09	1.520985e+01	3.067124e+02
2.040000e-06	2.159603e-06	4.648696e-09	1.496703e+01	3.046486e+02
2.050000e-06	2.123908e-06	4.610154e-09	1.471965e+01	3.025309e+02
2.060000e-06	2.087318e-06	4.581404e-09	1.446606e+01	3.003618e+02
2.070000e-06	2.049681e-06	4.562286e-09	1.420522e+01	2.981438e+02
2.080000e-06	2.011128e-06	4.533932e-09	1.393803e+01	2.958799e+02
2.090000e-06	1.971949e-06	4.487445e-09	1.366650e+01	2.935728e+02
2.100000e-06	1.932169e-06	4.445366e-09	1.339081e+01	2.912249e+02
2.110000e-06	1.891737e-06	4.409911e-09	1.311060e+01	2.888375e+02
2.120000e-06	1.850716e-06	4.365176e-09	1.282630e+01	2.864110e+02
2.130000e-06	1.809099e-06	4.329523e-09	1.253788e+01	2.839443e+02
2.140000e-06	1.766910e-06	4.302441e-09	1.224549e+01	2.814349e+02
2.150000e-06	1.724186e-06	4.268018e-09	1.194939e+01	2.788789e+02
2.160000e-06	1.680986e-06	4.223170e-09	1.164999e+01	2.762718e+02
2.170000e-06	1.637286e-06	4.172388e-09	1.134714e+01	2.736079e+02
2.180000e-06	1.592921e-06	4.137600e-09	1.103967e+01	2.708816e+02
2.190000e-06	1.547881e-06	4.089839e-09	1.072752e+01	2.680879e+02
2.200000e-06	1.502317e-06	4.048617e-09	1.041174e+01	2.652220e+02
2.210000e-06	1.456341e-06	4.015903e-09	1.009310e+01	2.622808e+02
2.220000e-06	1.409959e-06	3.962827e-09	9.771657e+00	2.592621e+02
2.230000e-06	1.362991e-06	3.911280e-09	9.446148e+00	2.561654e+02
2.240000e-06	1.315399e-06	3.863917e-09	9.116314e+00	2.529914e+02
2.250000e-06	1.267212e-06	3.810429e-09	8.782354e+00	2.497416e+02
2.260000e-06	1.218518e-06	3.763113e-09	8.444885e+00	2.464184e+02
2.270000e-06	1.169502e-06	3.724764e-09	8.105181e+00	2.430241e+02
2.280000e-06	1.120066e-06	3.675304e-09	7.762567e+00	2.395609e+02
2.290000e-06	1.070182e-06	3.617840e-09	7.416845e+00	2.360300e+02
2.300000e-06	1.019882e-06	3.556842e-09	7.068247e+00	2.324319e+02
2.310000e-06	9.691700e-07	3.501714e-09	6.716789e+00	2.287657e+02
2.320000e-06	9.181086e-07	3.443395e-09	6.362910e+00	2.250296e+02
2.330000e-06	8.667833e-07	3.379434e-09	6.007202e+00	2.212207e+02
2.340000e-06	8.151948e-07	3.324564e-09	5.649671e+00	2.173355e+02
2.350000e-06	7.632106e-07	3.272469e-09	5.289396e+00	2.133700e+02
2.360000e-06	7.107040e-07	3.214422e-09	4.925502e+00	2.093203e+02
2.370000e-06	6.577203e-07	3.146548e-09	4.558301e+00	2.051828e+02
2.380000e-06	6.043058e-07	3.081183e-09	4.188114e+00	2.009542e+02
2.390000e-06	5.504773e-07	3.019272e-09	3.815058e+00	1.966320e+02
2.400000e-06	4.963689e-07	2.955522e-09	3.440062e+00	1.922138e+02
2.410000e-06	4.420348e-07	2.889501e-09	3.063502e+00	1.876975e+02
2.420000e-06	3.875559e-07	2.821330e-09	2.685938e+00	1.830809e+02
2.430000e-06	3.329435e-07	2.752456e-09	2.307450e+00	1.783609e+02
2.440000e-06	2.782061e-07	2.679377e-09	1.928095e+00	1.735336e+02
2.450000e-06	2.233926e-07	2.600456e-09	1.548213e+00	1.685937e+02
2.460000e-06	1.685057e-07	2.520256e-09	1.167821e+00	1.635343e+02
2.470000e-06	1.136283e-07	2.443456e-09	7.874956e-01	1.583472e+02
2.480000e-06	5.876655e-08	2.364615e-09	4.072789e-01	1.530227e+02
2.490000e-06	3.899549e-09	2.280619e-09	2.702564e-02	1.475502e+02
2.500000e-06	-5.101747e-08	2.192987e-09	-3.535743e-01	1.419189e+02
2.510000e-06	-1.059476e-07	2.105640e-09	-7.342648e-01	1.361179e+02
2.520000e-06	-1.608149e-07	2.016272e-09	-1.114520e+00	1.301370e+02
2.530000e-06	-2.156440e-07	1.921161e-09	-1.494511e+00	1.239671e+02
2.540000e-06	-2.704631e-07	1.822506e-09	-1.874432e+00	1.176004e+02
2.550000e-06	-3.252532e-07	1.724438e-09	-2.254153e+00	1.110300e+02
2.560000e-06	-3.799227e-07	1.628767e-09	-2.633037e+00	1.042497e+02
2.570000e-06	-4.344190e-07	1.524038e-09	-3.010722e+00	9.725324e+01
2.580000e-06	-4.887143e-07	1.410752e-09	-3.387012e+00	9.003315e+01
2.590000e-06	-5.427885e-07	1.296244e-09	-3.761771e+00	8.257987e+01
2.600000e-06	-5.965301e-07	1.181243e-09	-4.134224e+00	7.488057e+01
2.610000e-06	-6.498521e-07	1.061282e-09	-4.503771e+00	6.691830e+01
2.620000e-06	-7.027454e-07	9.330318e-10	-4.870345e+00	5.867154e+01
2.630000e-06	-7.551714e-07	8.015612e-10	-5.233681e+00	5.011422e+01
2.640000e-06	-8.071342e-07	6.680307e-10	-5.593807e+00	4.121642e+01
2.650000e-06	-8.587285e-07	5.286868e-10	-5.951379e+00	3.194578e+01
2.660000e-06	-9.100033e-07	3.795219e-10	-6.306737e+00	2.226958e+01
2.670000e-06	-9.609875e-07	2.250936e-10	-6.660080e+00	1.215744e+01
2.680000e-06	-1.011712e-06	6.724527e-11	-7.011624e+00	1.584421e+00
2.690000e-06	-1.062084e-06	-9.688917e-11	-7.360726e+00	-9.465641e+00
2.700000e-06	-1.112028e-06	-2.716132e-10	-7.706858e+00	-2.099690e+01
2.710000e-06	-1.161511e-06	-4.563317e-10	-8.049800e+00	-3.299865e+01
2.720000e-06	-1.210564e-06	-6.452868e-10	-8.389760e+00	-4.544313e+01
2.730000e-06	-1.259148e-06	-8.385053e-10	-8.726468e+00	-5.828432e+01
2.740000e-06	-1.307086e-06	-1.037502e-09	-9.058699e+00	-7.145777e+01
2.750000e-06	-1.354210e-06	-1.244047e-09	-9.385293e+00	-8.488170e+01
2.760000e-06	-1.400590e-06	-1.455157e-09	-9.706724e+00	-9.845937e+01
2.770000e-06	-1.446449e-06	-1.666791e-09	-1.002455e+01	-1.120825e+02
2.780000e-06	-1.491914e-06	-1.877580e-09	-1.033964e+01	-1.256355e+02
2.790000e-06	-1.537046e-06	-2.086634e-09	-1.065243e+01	-1.390008e+02
2.800000e-06	-1.581796e-06	-2.287762e-09	-1.096257e+01	-1.520636e+02
2.810000e-06	-1.625993e-06	-2.477837e-09	-1.126887e+01	-1.647175e+02
2.820000e-06	-1.669601e-06	-2.661321e-09	-1.157109e+01	-1.768687e+02
2.830000e-06	-1.712761e-06	-2.839018e-09	-1.187021e+01	-1.884401e+02
2.840000e-06	-1.755535e-06	-3.007044e-09	-1.216666e+01	-1.993738e+02
2.850000e-06	-1.797785e-06	-3.163571e-09	-1.245947e+01	-2.096326e+02
2.860000e-06	-1.839403e-06	-3.311538e-09	-1.274790e+01	-2.192003e+02
2.870000e-06	-1.880454e-06	-3.449742e-09	-1.303240e+01	-2.280799e+02
2.880000e-06	-1.920892e-06	-3.577259e-09	-1.331266e+01	-2.362922e+02
2.890000e-06	-1.960609e-06	-3.694901e-09	-1.358791e+01	-2.438718e+02
2.900000e-06	-1.999734e-06	-3.802345e-09	-1.385906e+01	-2.508635e+02
2.910000e-06	-2.038361e-06	-3.900466e-09	-1.412677e+01	-2.573185e+02
2.920000e-06	-2.076168e-06	-3.992030e-09	-1.438879e+01	-2.632905e+02
2.930000e-06	-2.112888e-06	-4.077973e-09	-1.464327e+01	-2.688318e+02
2.940000e-06	-2.148661e-06	-4.157718e-09	-1.489120e+01	-2.739907e+02
