# Temperatura_=_22.13
# Concentracion g/m^3_=_15500.0
# C_Vs_to_Am_M_A/Vsm_=_65563218390.804596
# pendiente_HvsI_1/m_=_3716.3
# ordenada_HvsI_A/m_=_1297.0
# frecuencia_Hz_=_300839.620066575

Tiempo_(s)	Campo_(V.s)	Magnetizacion_(V.s)	Campo_(kA/m)	Magnetizacion_(A/m)
0.000000e+00	-2.860706e-06	-5.108554e-09	-1.980342e+01	-3.347216e+02
1.000000e-08	-2.859774e-06	-5.107504e-09	-1.979697e+01	-3.347239e+02
2.000000e-08	-2.857882e-06	-5.102677e-09	-1.978387e+01	-3.346578e+02
3.000000e-08	-2.854735e-06	-5.097800e-09	-1.976208e+01	-3.345209e+02
4.000000e-08	-2.850547e-06	-5.095593e-09	-1.973309e+01	-3.343125e+02
5.000000e-08	-2.845602e-06	-5.092763e-09	-1.969886e+01	-3.340337e+02
6.000000e-08	-2.839784e-06	-5.085601e-09	-1.965858e+01	-3.336879e+02
7.000000e-08	-2.832923e-06	-5.074647e-09	-1.961109e+01	-3.332799e+02
8.000000e-08	-2.825031e-06	-5.087960e-09	-1.955646e+01	-3.328164e+02
9.000000e-08	-2.815952e-06	-5.110816e-09	-1.949361e+01	-3.323045e+02
1.000000e-07	-2.805370e-06	-5.093701e-09	-1.942036e+01	-3.317515e+02
1.100000e-07	-2.793593e-06	-5.004251e-09	-1.933883e+01	-3.311642e+02
1.200000e-07	-2.781087e-06	-4.999407e-09	-1.925225e+01	-3.305476e+02
1.300000e-07	-2.767674e-06	-5.075483e-09	-1.915940e+01	-3.299048e+02
1.400000e-07	-2.753256e-06	-5.052628e-09	-1.905959e+01	-3.292363e+02
1.500000e-07	-2.737839e-06	-4.957710e-09	-1.895287e+01	-3.285403e+02
1.600000e-07	-2.721110e-06	-5.015444e-09	-1.883706e+01	-3.278122e+02
1.700000e-07	-2.703094e-06	-5.082605e-09	-1.871234e+01	-3.270457e+02
1.800000e-07	-2.684386e-06	-4.963671e-09	-1.858284e+01	-3.262330e+02
1.900000e-07	-2.665014e-06	-4.958805e-09	-1.844873e+01	-3.253656e+02
2.000000e-07	-2.644709e-06	-5.007409e-09	-1.830816e+01	-3.244352e+02
2.100000e-07	-2.623576e-06	-4.909298e-09	-1.816187e+01	-3.234347e+02
2.200000e-07	-2.601633e-06	-4.893496e-09	-1.800997e+01	-3.223583e+02
2.300000e-07	-2.578702e-06	-4.983815e-09	-1.785123e+01	-3.212025e+02
2.400000e-07	-2.554819e-06	-4.915922e-09	-1.768590e+01	-3.199662e+02
2.500000e-07	-2.530263e-06	-4.853349e-09	-1.751591e+01	-3.186502e+02
2.600000e-07	-2.504846e-06	-4.882678e-09	-1.733996e+01	-3.172578e+02
2.700000e-07	-2.478228e-06	-4.845610e-09	-1.715569e+01	-3.157934e+02
2.800000e-07	-2.450502e-06	-4.790533e-09	-1.696376e+01	-3.142628e+02
2.900000e-07	-2.421894e-06	-4.786647e-09	-1.676571e+01	-3.126719e+02
3.000000e-07	-2.392493e-06	-4.758673e-09	-1.656219e+01	-3.110263e+02
3.100000e-07	-2.362372e-06	-4.753157e-09	-1.635367e+01	-3.093309e+02
3.200000e-07	-2.331553e-06	-4.757797e-09	-1.614033e+01	-3.075893e+02
3.300000e-07	-2.299913e-06	-4.676972e-09	-1.592129e+01	-3.058039e+02
3.400000e-07	-2.267550e-06	-4.650139e-09	-1.569726e+01	-3.039754e+02
3.500000e-07	-2.234630e-06	-4.646643e-09	-1.546937e+01	-3.021035e+02
3.600000e-07	-2.200893e-06	-4.596660e-09	-1.523582e+01	-3.001866e+02
3.700000e-07	-2.165913e-06	-4.572777e-09	-1.499367e+01	-2.982227e+02
3.800000e-07	-2.129857e-06	-4.558664e-09	-1.474407e+01	-2.962097e+02
3.900000e-07	-2.093204e-06	-4.511471e-09	-1.449034e+01	-2.941452e+02
4.000000e-07	-2.055951e-06	-4.489507e-09	-1.423246e+01	-2.920277e+02
4.100000e-07	-2.017937e-06	-4.463873e-09	-1.396930e+01	-2.898558e+02
4.200000e-07	-1.979231e-06	-4.400186e-09	-1.370135e+01	-2.876291e+02
4.300000e-07	-1.939808e-06	-4.370669e-09	-1.342844e+01	-2.853475e+02
4.400000e-07	-1.899734e-06	-4.351146e-09	-1.315103e+01	-2.830113e+02
4.500000e-07	-1.859271e-06	-4.312158e-09	-1.287092e+01	-2.806209e+02
4.600000e-07	-1.818402e-06	-4.269700e-09	-1.258800e+01	-2.781767e+02
4.700000e-07	-1.776751e-06	-4.236431e-09	-1.229968e+01	-2.756785e+02
4.800000e-07	-1.734005e-06	-4.191478e-09	-1.200376e+01	-2.731257e+02
4.900000e-07	-1.690245e-06	-4.149877e-09	-1.170083e+01	-2.705171e+02
5.000000e-07	-1.645877e-06	-4.114201e-09	-1.139369e+01	-2.678508e+02
5.100000e-07	-1.601173e-06	-4.067116e-09	-1.108422e+01	-2.651245e+02
5.200000e-07	-1.556046e-06	-4.027888e-09	-1.077183e+01	-2.623357e+02
5.300000e-07	-1.510353e-06	-3.991661e-09	-1.045551e+01	-2.594819e+02
5.400000e-07	-1.464051e-06	-3.941242e-09	-1.013499e+01	-2.565607e+02
5.500000e-07	-1.417239e-06	-3.882499e-09	-9.810926e+00	-2.535702e+02
5.600000e-07	-1.369935e-06	-3.837776e-09	-9.483465e+00	-2.505091e+02
5.700000e-07	-1.322145e-06	-3.790780e-09	-9.152634e+00	-2.473768e+02
5.800000e-07	-1.273965e-06	-3.746771e-09	-8.819106e+00	-2.441730e+02
5.900000e-07	-1.225472e-06	-3.703823e-09	-8.483406e+00	-2.408980e+02
6.000000e-07	-1.176559e-06	-3.652574e-09	-8.144805e+00	-2.375522e+02
6.100000e-07	-1.127000e-06	-3.597772e-09	-7.801729e+00	-2.341361e+02
6.200000e-07	-1.076743e-06	-3.539696e-09	-7.453819e+00	-2.306497e+02
6.300000e-07	-1.025858e-06	-3.483505e-09	-7.101565e+00	-2.270925e+02
6.400000e-07	-9.744168e-07	-3.424855e-09	-6.745463e+00	-2.234635e+02
6.500000e-07	-9.225007e-07	-3.367325e-09	-6.386070e+00	-2.197610e+02
6.600000e-07	-8.702505e-07	-3.310039e-09	-6.024365e+00	-2.159828e+02
6.700000e-07	-8.178338e-07	-3.255742e-09	-5.661507e+00	-2.121262e+02
6.800000e-07	-7.652268e-07	-3.196284e-09	-5.297331e+00	-2.081884e+02
6.900000e-07	-7.123155e-07	-3.130783e-09	-4.931050e+00	-2.041668e+02
7.000000e-07	-6.590885e-07	-3.066362e-09	-4.562582e+00	-2.000590e+02
7.100000e-07	-6.056055e-07	-3.002563e-09	-4.192343e+00	-1.958631e+02
7.200000e-07	-5.519741e-07	-2.937800e-09	-3.821076e+00	-1.915777e+02
7.300000e-07	-4.981711e-07	-2.867433e-09	-3.448622e+00	-1.872017e+02
7.400000e-07	-4.441387e-07	-2.792876e-09	-3.074579e+00	-1.827344e+02
7.500000e-07	-3.899568e-07	-2.718616e-09	-2.699501e+00	-1.781749e+02
7.600000e-07	-3.356590e-07	-2.650736e-09	-2.323621e+00	-1.735216e+02
7.700000e-07	-2.812545e-07	-2.581361e-09	-1.947002e+00	-1.687721e+02
7.800000e-07	-2.268009e-07	-2.504838e-09	-1.570044e+00	-1.639225e+02
7.900000e-07	-1.722899e-07	-2.428409e-09	-1.192688e+00	-1.589675e+02
8.000000e-07	-1.176933e-07	-2.354723e-09	-8.147394e-01	-1.538999e+02
8.100000e-07	-6.303565e-08	-2.276716e-09	-4.363683e-01	-1.487110e+02
8.200000e-07	-8.382542e-09	-2.189257e-09	-5.802868e-02	-1.433905e+02
8.300000e-07	4.623587e-08	-2.097607e-09	3.200707e-01	-1.379274e+02
8.400000e-07	1.008178e-07	-2.007833e-09	6.979176e-01	-1.323101e+02
8.500000e-07	1.553789e-07	-1.922465e-09	1.075620e+00	-1.265272e+02
8.600000e-07	2.099032e-07	-1.834297e-09	1.453068e+00	-1.205680e+02
8.700000e-07	2.643667e-07	-1.741858e-09	1.830095e+00	-1.144229e+02
8.800000e-07	3.187925e-07	-1.647933e-09	2.206862e+00	-1.080834e+02
8.900000e-07	3.731530e-07	-1.549378e-09	2.583176e+00	-1.015422e+02
9.000000e-07	4.273768e-07	-1.444529e-09	2.958543e+00	-9.479253e+01
9.100000e-07	4.814649e-07	-1.334982e-09	3.332972e+00	-8.782767e+01
9.200000e-07	5.353893e-07	-1.223022e-09	3.706267e+00	-8.063998e+01
9.300000e-07	5.891218e-07	-1.107445e-09	4.078233e+00	-7.321993e+01
9.400000e-07	6.426082e-07	-9.907302e-10	4.448497e+00	-6.555512e+01
9.500000e-07	6.957556e-07	-8.697609e-10	4.816413e+00	-5.762961e+01
9.600000e-07	7.486293e-07	-7.434431e-10	5.182434e+00	-4.942351e+01
9.700000e-07	8.012542e-07	-6.138168e-10	5.546734e+00	-4.091317e+01
9.800000e-07	8.536371e-07	-4.796331e-10	5.909357e+00	-3.207189e+01
9.900000e-07	9.057521e-07	-3.362443e-10	6.270127e+00	-2.287135e+01
1.000000e-06	9.575353e-07	-1.837795e-10	6.628599e+00	-1.328360e+01
1.010000e-06	1.008926e-06	-2.861922e-11	6.984357e+00	-3.283591e+00
1.020000e-06	1.059706e-06	1.304984e-10	7.335883e+00	7.147894e+00
1.030000e-06	1.109683e-06	2.978744e-10	7.681850e+00	1.802125e+01
1.040000e-06	1.158950e-06	4.742577e-10	8.022905e+00	2.933517e+01
1.050000e-06	1.207764e-06	6.539362e-10	8.360825e+00	4.107410e+01
1.060000e-06	1.256338e-06	8.357366e-10	8.697082e+00	5.320654e+01
1.070000e-06	1.304648e-06	1.023329e-09	9.031507e+00	6.568405e+01
1.080000e-06	1.352543e-06	1.218450e-09	9.363069e+00	7.844148e+01
1.090000e-06	1.399934e-06	1.418128e-09	9.691133e+00	9.139824e+01
1.100000e-06	1.446777e-06	1.615840e-09	1.001540e+01	1.044608e+02
1.110000e-06	1.493118e-06	1.811791e-09	1.033621e+01	1.175259e+02
1.120000e-06	1.538942e-06	2.006602e-09	1.065342e+01	1.304852e+02
1.130000e-06	1.584168e-06	2.202948e-09	1.096650e+01	1.432295e+02
1.140000e-06	1.628907e-06	2.397056e-09	1.127621e+01	1.556541e+02
1.150000e-06	1.673346e-06	2.580453e-09	1.158385e+01	1.676629e+02
1.160000e-06	1.717377e-06	2.752773e-09	1.188865e+01	1.791733e+02
1.170000e-06	1.760715e-06	2.917070e-09	1.218866e+01	1.901186e+02
1.180000e-06	1.803145e-06	3.072400e-09	1.248239e+01	2.004511e+02
1.190000e-06	1.844578e-06	3.217090e-09	1.276921e+01	2.101423e+02
1.200000e-06	1.885284e-06	3.352638e-09	1.305100e+01	2.191832e+02
1.210000e-06	1.925532e-06	3.480847e-09	1.332962e+01	2.275824e+02
1.220000e-06	1.965188e-06	3.601352e-09	1.360414e+01	2.353640e+02
1.230000e-06	2.004174e-06	3.711582e-09	1.387402e+01	2.425640e+02
1.240000e-06	2.042514e-06	3.812205e-09	1.413943e+01	2.492270e+02
1.250000e-06	2.080104e-06	3.904126e-09	1.439965e+01	2.554019e+02
1.260000e-06	2.116998e-06	3.988945e-09	1.465505e+01	2.611388e+02
1.270000e-06	2.153396e-06	4.068097e-09	1.490702e+01	2.664851e+02
1.280000e-06	2.189190e-06	4.143329e-09	1.515481e+01	2.714838e+02
1.290000e-06	2.223991e-06	4.213976e-09	1.539572e+01	2.761713e+02
1.300000e-06	2.257662e-06	4.280540e-09	1.562881e+01	2.805767e+02
1.310000e-06	2.290476e-06	4.344303e-09	1.585596e+01	2.847221e+02
1.320000e-06	2.322626e-06	4.403998e-09	1.607853e+01	2.886230e+02
1.330000e-06	2.353985e-06	4.459844e-09	1.629561e+01	2.922898e+02
1.340000e-06	2.384554e-06	4.512694e-09	1.650722e+01	2.957294e+02
1.350000e-06	2.414348e-06	4.559228e-09	1.671348e+01	2.989471e+02
1.360000e-06	2.443367e-06	4.597843e-09	1.691436e+01	3.019478e+02
1.370000e-06	2.471776e-06	4.633946e-09	1.711103e+01	3.047376e+02
1.380000e-06	2.499393e-06	4.671337e-09	1.730221e+01	3.073249e+02
1.390000e-06	2.525763e-06	4.709818e-09	1.748475e+01	3.097202e+02
1.400000e-06	2.550902e-06	4.746012e-09	1.765878e+01	3.119366e+02
1.410000e-06	2.575157e-06	4.776011e-09	1.782669e+01	3.139891e+02
1.420000e-06	2.598584e-06	4.804036e-09	1.798886e+01	3.158936e+02
1.430000e-06	2.621111e-06	4.835402e-09	1.814481e+01	3.176664e+02
1.440000e-06	2.642760e-06	4.863284e-09	1.829468e+01	3.193226e+02
1.450000e-06	2.663618e-06	4.880240e-09	1.843907e+01	3.208757e+02
1.460000e-06	2.683764e-06	4.893119e-09	1.857853e+01	3.223366e+02
1.470000e-06	2.703033e-06	4.911815e-09	1.871192e+01	3.237133e+02
1.480000e-06	2.721304e-06	4.937010e-09	1.883840e+01	3.250111e+02
1.490000e-06	2.738702e-06	4.960702e-09	1.895884e+01	3.262327e+02
1.500000e-06	2.755072e-06	4.978112e-09	1.907216e+01	3.273785e+02
1.510000e-06	2.770277e-06	4.994270e-09	1.917742e+01	3.284480e+02
1.520000e-06	2.784388e-06	5.010797e-09	1.927511e+01	3.294398e+02
1.530000e-06	2.797463e-06	5.023506e-09	1.936562e+01	3.303529e+02
1.540000e-06	2.809506e-06	5.031099e-09	1.944899e+01	3.311870e+02
1.550000e-06	2.820268e-06	5.037653e-09	1.952349e+01	3.319430e+02
1.560000e-06	2.829740e-06	5.049315e-09	1.958905e+01	3.326232e+02
1.570000e-06	2.838217e-06	5.064612e-09	1.964774e+01	3.332310e+02
1.580000e-06	2.845799e-06	5.077753e-09	1.970022e+01	3.337704e+02
1.590000e-06	2.852434e-06	5.085943e-09	1.974616e+01	3.342460e+02
1.600000e-06	2.858073e-06	5.090512e-09	1.978520e+01	3.346620e+02
1.610000e-06	2.862864e-06	5.094652e-09	1.981836e+01	3.350216e+02
1.620000e-06	2.866839e-06	5.098119e-09	1.984587e+01	3.353270e+02
1.630000e-06	2.869591e-06	5.100524e-09	1.986493e+01	3.355786e+02
1.640000e-06	2.871039e-06	5.104506e-09	1.987495e+01	3.357754e+02
1.650000e-06	2.871552e-06	5.110640e-09	1.987850e+01	3.359149e+02
1.660000e-06	2.871210e-06	5.114529e-09	1.987614e+01	3.359937e+02
1.670000e-06	2.869929e-06	5.111056e-09	1.986727e+01	3.360081e+02
1.680000e-06	2.867729e-06	5.105874e-09	1.985204e+01	3.359546e+02
1.690000e-06	2.864722e-06	5.106304e-09	1.983122e+01	3.358306e+02
1.700000e-06	2.861016e-06	5.106884e-09	1.980556e+01	3.356351e+02
1.710000e-06	2.856330e-06	5.102758e-09	1.977313e+01	3.353690e+02
1.720000e-06	2.850363e-06	5.097747e-09	1.973182e+01	3.350350e+02
1.730000e-06	2.843356e-06	5.099920e-09	1.968332e+01	3.346379e+02
1.740000e-06	2.835502e-06	5.066878e-09	1.962895e+01	3.341839e+02
1.750000e-06	2.826349e-06	5.029808e-09	1.956558e+01	3.336803e+02
1.760000e-06	2.815592e-06	5.056831e-09	1.949111e+01	3.331343e+02
1.770000e-06	2.803911e-06	5.117288e-09	1.941025e+01	3.325529e+02
1.780000e-06	2.792126e-06	5.072423e-09	1.932867e+01	3.319414e+02
1.790000e-06	2.779675e-06	4.973079e-09	1.924248e+01	3.313033e+02
1.800000e-06	2.765449e-06	5.024824e-09	1.914400e+01	3.306397e+02
1.810000e-06	2.749916e-06	5.060074e-09	1.903647e+01	3.299490e+02
1.820000e-06	2.733926e-06	4.957682e-09	1.892578e+01	3.292273e+02
1.830000e-06	2.716884e-06	4.961278e-09	1.880781e+01	3.284684e+02
1.840000e-06	2.698432e-06	5.072320e-09	1.868007e+01	3.276647e+02
1.850000e-06	2.679294e-06	4.994850e-09	1.854759e+01	3.268079e+02
1.860000e-06	2.659558e-06	4.914010e-09	1.841096e+01	3.258895e+02
1.870000e-06	2.638556e-06	5.027982e-09	1.826557e+01	3.249021e+02
1.880000e-06	2.616406e-06	4.971596e-09	1.811224e+01	3.238398e+02
1.890000e-06	2.593343e-06	4.829981e-09	1.795258e+01	3.226986e+02
1.900000e-06	2.569156e-06	4.911299e-09	1.778515e+01	3.214768e+02
1.910000e-06	2.544240e-06	4.914064e-09	1.761267e+01	3.201750e+02
1.920000e-06	2.518650e-06	4.830189e-09	1.743551e+01	3.187961e+02
1.930000e-06	2.492053e-06	4.863309e-09	1.725140e+01	3.173444e+02
1.940000e-06	2.464779e-06	4.838186e-09	1.706259e+01	3.158254e+02
1.950000e-06	2.436782e-06	4.788091e-09	1.686878e+01	3.142450e+02
1.960000e-06	2.407532e-06	4.789820e-09	1.666629e+01	3.126089e+02
1.970000e-06	2.377179e-06	4.714783e-09	1.645617e+01	3.109223e+02
1.980000e-06	2.346053e-06	4.691481e-09	1.624070e+01	3.091890e+02
1.990000e-06	2.314155e-06	4.733893e-09	1.601989e+01	3.074115e+02
2.000000e-06	2.281535e-06	4.650943e-09	1.579407e+01	3.055909e+02
2.010000e-06	2.248113e-06	4.619919e-09	1.556271e+01	3.037269e+02
2.020000e-06	2.213911e-06	4.635500e-09	1.532594e+01	3.018184e+02
2.030000e-06	2.179111e-06	4.551144e-09	1.508504e+01	2.998633e+02
2.040000e-06	2.143708e-06	4.526370e-09	1.483996e+01	2.978594e+02
2.050000e-06	2.107609e-06	4.519928e-09	1.459006e+01	2.958044e+02
2.060000e-06	2.070566e-06	4.456496e-09	1.433363e+01	2.936966e+02
2.070000e-06	2.032332e-06	4.446316e-09	1.406895e+01	2.915347e+02
2.080000e-06	1.993233e-06	4.423230e-09	1.379828e+01	2.893180e+02
2.090000e-06	1.953650e-06	4.369433e-09	1.352427e+01	2.870463e+02
2.100000e-06	1.913507e-06	4.344828e-09	1.324638e+01	2.847200e+02
2.110000e-06	1.872682e-06	4.295310e-09	1.296376e+01	2.823395e+02
2.120000e-06	1.831189e-06	4.254620e-09	1.267653e+01	2.799051e+02
2.130000e-06	1.789174e-06	4.232183e-09	1.238567e+01	2.774168e+02
2.140000e-06	1.746626e-06	4.194762e-09	1.209113e+01	2.748740e+02
2.150000e-06	1.703542e-06	4.157196e-09	1.179288e+01	2.722756e+02
2.160000e-06	1.660074e-06	4.105078e-09	1.149197e+01	2.696199e+02
2.170000e-06	1.616074e-06	4.062837e-09	1.118737e+01	2.669047e+02
2.180000e-06	1.571380e-06	4.021153e-09	1.087798e+01	2.641275e+02
2.190000e-06	1.526077e-06	3.976264e-09	1.056436e+01	2.612856e+02
2.200000e-06	1.480267e-06	3.944595e-09	1.024724e+01	2.583768e+02
2.210000e-06	1.434039e-06	3.896127e-09	9.927225e+00	2.553990e+02
2.220000e-06	1.387398e-06	3.847227e-09	9.604354e+00	2.523508e+02
2.230000e-06	1.340265e-06	3.807809e-09	9.278069e+00	2.492313e+02
2.240000e-06	1.292470e-06	3.746955e-09	8.947209e+00	2.460405e+02
2.250000e-06	1.243950e-06	3.693242e-09	8.611325e+00	2.427784e+02
2.260000e-06	1.194914e-06	3.651566e-09	8.271867e+00	2.394454e+02
2.270000e-06	1.145545e-06	3.603067e-09	7.930111e+00	2.360420e+02
2.280000e-06	1.095851e-06	3.556795e-09	7.586098e+00	2.325683e+02
2.290000e-06	1.045717e-06	3.497661e-09	7.239041e+00	2.290240e+02
2.300000e-06	9.950484e-07	3.440351e-09	6.888287e+00	2.254081e+02
2.310000e-06	9.439896e-07	3.385752e-09	6.534829e+00	2.217191e+02
2.320000e-06	8.927536e-07	3.323970e-09	6.180144e+00	2.179548e+02
2.330000e-06	8.413134e-07	3.267444e-09	5.824046e+00	2.141125e+02
2.340000e-06	7.894815e-07	3.209903e-09	5.465236e+00	2.101897e+02
2.350000e-06	7.371830e-07	3.149970e-09	5.103196e+00	2.061834e+02
2.360000e-06	6.844689e-07	3.086432e-09	4.738280e+00	2.020913e+02
2.370000e-06	6.313427e-07	3.022645e-09	4.370510e+00	1.979115e+02
2.380000e-06	5.777918e-07	2.962970e-09	3.999801e+00	1.936423e+02
2.390000e-06	5.238937e-07	2.900284e-09	3.626688e+00	1.892827e+02
2.400000e-06	4.696931e-07	2.834885e-09	3.251480e+00	1.848320e+02
2.410000e-06	4.152822e-07	2.767460e-09	2.874817e+00	1.802892e+02
2.420000e-06	3.606719e-07	2.697303e-09	2.496774e+00	1.756530e+02
2.430000e-06	3.058212e-07	2.627086e-09	2.117067e+00	1.709211e+02
2.440000e-06	2.508557e-07	2.552561e-09	1.736565e+00	1.660899e+02
2.450000e-06	1.958694e-07	2.475401e-09	1.355919e+00	1.611544e+02
2.460000e-06	1.408446e-07	2.400046e-09	9.750056e-01	1.561077e+02
2.470000e-06	8.578112e-08	2.323217e-09	5.938253e-01	1.509413e+02
2.480000e-06	3.070308e-08	2.245698e-09	2.125440e-01	1.456453e+02
2.490000e-06	-2.440782e-08	2.163213e-09	-1.689647e-01	1.402087e+02
2.500000e-06	-7.950880e-08	2.075771e-09	-5.504048e-01	1.346199e+02
2.510000e-06	-1.345862e-07	1.988662e-09	-9.316818e-01	1.288676e+02
2.520000e-06	-1.896513e-07	1.899498e-09	-1.312874e+00	1.229408e+02
2.530000e-06	-2.446419e-07	1.806022e-09	-1.693549e+00	1.168298e+02
2.540000e-06	-2.995270e-07	1.707335e-09	-2.073495e+00	1.105258e+02
2.550000e-06	-3.543284e-07	1.609716e-09	-2.452861e+00	1.040213e+02
2.560000e-06	-4.089864e-07	1.512717e-09	-2.831235e+00	9.730946e+01
2.570000e-06	-4.634520e-07	1.409991e-09	-3.208276e+00	9.038373e+01
2.580000e-06	-5.176511e-07	1.300950e-09	-3.583473e+00	8.323665e+01
2.590000e-06	-5.715128e-07	1.189509e-09	-3.956334e+00	7.585909e+01
2.600000e-06	-6.250166e-07	1.075306e-09	-4.326717e+00	6.823923e+01
2.610000e-06	-6.780962e-07	9.534825e-10	-4.694164e+00	6.036180e+01
2.620000e-06	-7.307314e-07	8.240474e-10	-5.058535e+00	5.220762e+01
2.630000e-06	-7.829383e-07	6.915066e-10	-5.419941e+00	4.375368e+01
2.640000e-06	-8.347391e-07	5.617797e-10	-5.778535e+00	3.497373e+01
2.650000e-06	-8.862299e-07	4.301554e-10	-6.134983e+00	2.583962e+01
2.660000e-06	-9.374749e-07	2.889985e-10	-6.489730e+00	1.632315e+01
2.670000e-06	-9.884402e-07	1.374331e-10	-6.842541e+00	6.398565e+00
2.680000e-06	-1.039069e-06	-2.022867e-11	-7.193022e+00	-3.954629e+00
2.690000e-06	-1.089258e-06	-1.831021e-10	-7.540461e+00	-1.474862e+01
2.700000e-06	-1.139026e-06	-3.543405e-10	-7.884983e+00	-2.598438e+01
2.710000e-06	-1.188382e-06	-5.336522e-10	-8.226652e+00	-3.764907e+01
2.720000e-06	-1.237221e-06	-7.174360e-10	-8.564738e+00	-4.971412e+01
2.730000e-06	-1.285420e-06	-9.026505e-10	-8.898405e+00	-6.213414e+01
2.740000e-06	-1.332763e-06	-1.092405e-09	-9.226136e+00	-7.484688e+01
2.750000e-06	-1.379320e-06	-1.291173e-09	-9.548428e+00	-8.777439e+01
2.760000e-06	-1.425388e-06	-1.496942e-09	-9.867337e+00	-1.008252e+02
2.770000e-06	-1.471083e-06	-1.702508e-09	-1.018367e+01	-1.138975e+02
2.780000e-06	-1.516446e-06	-1.901969e-09	-1.049770e+01	-1.268836e+02
2.790000e-06	-1.561455e-06	-2.096517e-09	-1.080927e+01	-1.396740e+02
2.800000e-06	-1.605969e-06	-2.288738e-09	-1.111742e+01	-1.521628e+02
2.810000e-06	-1.649891e-06	-2.476344e-09	-1.142148e+01	-1.642522e+02
2.820000e-06	-1.693335e-06	-2.653030e-09	-1.172222e+01	-1.758568e+02
2.830000e-06	-1.736406e-06	-2.817798e-09	-1.202038e+01	-1.869069e+02
2.840000e-06	-1.778993e-06	-2.977188e-09	-1.231520e+01	-1.973513e+02
2.850000e-06	-1.820984e-06	-3.132174e-09	-1.260588e+01	-2.071580e+02
2.860000e-06	-1.862413e-06	-3.275164e-09	-1.289267e+01	-2.163147e+02
2.870000e-06	-1.903231e-06	-3.402319e-09	-1.317524e+01	-2.248270e+02
2.880000e-06	-1.943321e-06	-3.521096e-09	-1.345276e+01	-2.327163e+02
2.890000e-06	-1.982833e-06	-3.637628e-09	-1.372629e+01	-2.400169e+02
2.900000e-06	-2.021846e-06	-3.746867e-09	-1.399636e+01	-2.467721e+02
2.910000e-06	-2.060086e-06	-3.843551e-09	-1.426108e+01	-2.530303e+02
2.920000e-06	-2.097296e-06	-3.931093e-09	-1.451867e+01	-2.588416e+02
2.930000e-06	-2.133497e-06	-4.014602e-09	-1.476927e+01	-2.642542e+02
2.940000e-06	-2.168982e-06	-4.094662e-09	-1.501491e+01	-2.693119e+02
