# Temperatura_=_23.46
# Concentracion g/m^3_=_15500.0
# C_Vs_to_Am_M_A/Vsm_=_65563218390.804596
# pendiente_HvsI_1/m_=_3716.3
# ordenada_HvsI_A/m_=_1297.0
# frecuencia_Hz_=_300835.54946006933

Tiempo_(s)	Campo_(V.s)	Magnetizacion_(V.s)	Campo_(kA/m)	Magnetizacion_(A/m)
0.000000e+00	-2.861170e-06	-5.174573e-09	-1.980427e+01	-3.391436e+02
1.000000e-08	-2.860755e-06	-5.173384e-09	-1.980140e+01	-3.392120e+02
2.000000e-08	-2.859566e-06	-5.168771e-09	-1.979317e+01	-3.392161e+02
3.000000e-08	-2.857306e-06	-5.164506e-09	-1.977753e+01	-3.391513e+02
4.000000e-08	-2.853829e-06	-5.164624e-09	-1.975346e+01	-3.390143e+02
5.000000e-08	-2.849435e-06	-5.165515e-09	-1.972304e+01	-3.388031e+02
6.000000e-08	-2.844256e-06	-5.159797e-09	-1.968720e+01	-3.385175e+02
7.000000e-08	-2.838166e-06	-5.153579e-09	-1.964505e+01	-3.381595e+02
8.000000e-08	-2.831048e-06	-5.153978e-09	-1.959577e+01	-3.377327e+02
9.000000e-08	-2.822813e-06	-5.157588e-09	-1.953877e+01	-3.372424e+02
1.000000e-07	-2.813320e-06	-5.151494e-09	-1.947307e+01	-3.366947e+02
1.100000e-07	-2.802433e-06	-5.137406e-09	-1.939771e+01	-3.360963e+02
1.200000e-07	-2.790472e-06	-5.098746e-09	-1.931492e+01	-3.354532e+02
1.300000e-07	-2.777793e-06	-5.099352e-09	-1.922716e+01	-3.347704e+02
1.400000e-07	-2.764148e-06	-5.098884e-09	-1.913271e+01	-3.340515e+02
1.500000e-07	-2.749439e-06	-5.108393e-09	-1.903090e+01	-3.332981e+02
1.600000e-07	-2.733739e-06	-5.080004e-09	-1.892223e+01	-3.325096e+02
1.700000e-07	-2.716732e-06	-5.079922e-09	-1.880451e+01	-3.316839e+02
1.800000e-07	-2.698508e-06	-5.112434e-09	-1.867837e+01	-3.308170e+02
1.900000e-07	-2.679587e-06	-5.038279e-09	-1.854740e+01	-3.299037e+02
2.000000e-07	-2.659955e-06	-5.015839e-09	-1.841151e+01	-3.289385e+02
2.100000e-07	-2.639398e-06	-5.031206e-09	-1.826922e+01	-3.279158e+02
2.200000e-07	-2.618049e-06	-4.991685e-09	-1.812146e+01	-3.268309e+02
2.300000e-07	-2.595893e-06	-4.973880e-09	-1.796809e+01	-3.256799e+02
2.400000e-07	-2.572746e-06	-5.005402e-09	-1.780788e+01	-3.244605e+02
2.500000e-07	-2.548697e-06	-4.958978e-09	-1.764141e+01	-3.231721e+02
2.600000e-07	-2.523880e-06	-4.903287e-09	-1.746964e+01	-3.218154e+02
2.700000e-07	-2.498151e-06	-4.901944e-09	-1.729155e+01	-3.203923e+02
2.800000e-07	-2.471302e-06	-4.892993e-09	-1.710571e+01	-3.189060e+02
2.900000e-07	-2.443388e-06	-4.839649e-09	-1.691249e+01	-3.173598e+02
3.000000e-07	-2.414580e-06	-4.840095e-09	-1.671309e+01	-3.157573e+02
3.100000e-07	-2.385009e-06	-4.834532e-09	-1.650841e+01	-3.141015e+02
3.200000e-07	-2.354750e-06	-4.791348e-09	-1.629897e+01	-3.123949e+02
3.300000e-07	-2.323747e-06	-4.781010e-09	-1.608437e+01	-3.106393e+02
3.400000e-07	-2.291907e-06	-4.728977e-09	-1.586398e+01	-3.088351e+02
3.500000e-07	-2.259388e-06	-4.683644e-09	-1.563890e+01	-3.069824e+02
3.600000e-07	-2.226270e-06	-4.673325e-09	-1.540966e+01	-3.050802e+02
3.700000e-07	-2.192272e-06	-4.661526e-09	-1.517433e+01	-3.031273e+02
3.800000e-07	-2.157083e-06	-4.621704e-09	-1.493077e+01	-3.011224e+02
3.900000e-07	-2.120859e-06	-4.602350e-09	-1.468004e+01	-2.990642e+02
4.000000e-07	-2.084021e-06	-4.579005e-09	-1.442505e+01	-2.969518e+02
4.100000e-07	-2.046618e-06	-4.534572e-09	-1.416616e+01	-2.947847e+02
4.200000e-07	-2.008485e-06	-4.483452e-09	-1.390221e+01	-2.925632e+02
4.300000e-07	-1.969601e-06	-4.437974e-09	-1.363307e+01	-2.902875e+02
4.400000e-07	-1.929979e-06	-4.415380e-09	-1.335881e+01	-2.879584e+02
4.500000e-07	-1.889757e-06	-4.389397e-09	-1.308041e+01	-2.855766e+02
4.600000e-07	-1.849158e-06	-4.358262e-09	-1.279939e+01	-2.831427e+02
4.700000e-07	-1.808107e-06	-4.315924e-09	-1.251524e+01	-2.806568e+02
4.800000e-07	-1.766186e-06	-4.278857e-09	-1.222508e+01	-2.781185e+02
4.900000e-07	-1.723189e-06	-4.224679e-09	-1.192746e+01	-2.755269e+02
5.000000e-07	-1.679321e-06	-4.175845e-09	-1.162382e+01	-2.728804e+02
5.100000e-07	-1.634887e-06	-4.143401e-09	-1.131626e+01	-2.701769e+02
5.200000e-07	-1.590051e-06	-4.106491e-09	-1.100592e+01	-2.674141e+02
5.300000e-07	-1.544775e-06	-4.066261e-09	-1.069253e+01	-2.645895e+02
5.400000e-07	-1.498953e-06	-4.025861e-09	-1.037536e+01	-2.617007e+02
5.500000e-07	-1.452559e-06	-3.975616e-09	-1.005424e+01	-2.587457e+02
5.600000e-07	-1.405652e-06	-3.914219e-09	-9.729558e+00	-2.557231e+02
5.700000e-07	-1.358200e-06	-3.874036e-09	-9.401103e+00	-2.526317e+02
5.800000e-07	-1.310284e-06	-3.831313e-09	-9.069442e+00	-2.494712e+02
5.900000e-07	-1.261999e-06	-3.785229e-09	-8.735226e+00	-2.462412e+02
6.000000e-07	-1.213372e-06	-3.740418e-09	-8.398642e+00	-2.429418e+02
6.100000e-07	-1.164319e-06	-3.690308e-09	-8.059110e+00	-2.395732e+02
6.200000e-07	-1.114689e-06	-3.630765e-09	-7.715587e+00	-2.361350e+02
6.300000e-07	-1.064379e-06	-3.569620e-09	-7.367356e+00	-2.326266e+02
6.400000e-07	-1.013473e-06	-3.514879e-09	-7.014998e+00	-2.290470e+02
6.500000e-07	-9.620733e-07	-3.459473e-09	-6.659221e+00	-2.253943e+02
6.600000e-07	-9.102182e-07	-3.406676e-09	-6.300293e+00	-2.216664e+02
6.700000e-07	-8.580058e-07	-3.348950e-09	-5.938893e+00	-2.178608e+02
6.800000e-07	-8.055036e-07	-3.291919e-09	-5.575486e+00	-2.139746e+02
6.900000e-07	-7.527645e-07	-3.229042e-09	-5.210440e+00	-2.100051e+02
7.000000e-07	-6.997485e-07	-3.161158e-09	-4.843477e+00	-2.059499e+02
7.100000e-07	-6.464550e-07	-3.094423e-09	-4.474593e+00	-2.018068e+02
7.200000e-07	-5.929366e-07	-3.032381e-09	-4.104153e+00	-1.975740e+02
7.300000e-07	-5.392240e-07	-2.969865e-09	-3.732368e+00	-1.932503e+02
7.400000e-07	-4.852980e-07	-2.900091e-09	-3.359106e+00	-1.888341e+02
7.500000e-07	-4.311879e-07	-2.828137e-09	-2.984570e+00	-1.843242e+02
7.600000e-07	-3.769211e-07	-2.754784e-09	-2.608950e+00	-1.797186e+02
7.700000e-07	-3.225192e-07	-2.683177e-09	-2.232394e+00	-1.750142e+02
7.800000e-07	-2.680274e-07	-2.607106e-09	-1.855216e+00	-1.702072e+02
7.900000e-07	-2.134977e-07	-2.530409e-09	-1.477775e+00	-1.652919e+02
8.000000e-07	-1.589284e-07	-2.456149e-09	-1.100061e+00	-1.602612e+02
8.100000e-07	-1.042966e-07	-2.381536e-09	-7.219138e-01	-1.551066e+02
8.200000e-07	-4.965307e-08	-2.300483e-09	-3.436856e-01	-1.498183e+02
8.300000e-07	4.978973e-09	-2.211109e-09	3.446315e-02	-1.443856e+02
8.400000e-07	5.959553e-08	-2.119354e-09	4.125048e-01	-1.387978e+02
8.500000e-07	1.141847e-07	-2.027036e-09	7.903566e-01	-1.330441e+02
8.600000e-07	1.687606e-07	-1.938199e-09	1.168117e+00	-1.271146e+02
8.700000e-07	2.233321e-07	-1.848792e-09	1.545847e+00	-1.210006e+02
8.800000e-07	2.778707e-07	-1.757136e-09	1.923349e+00	-1.146943e+02
8.900000e-07	3.323287e-07	-1.661063e-09	2.300293e+00	-1.081892e+02
9.000000e-07	3.866656e-07	-1.558466e-09	2.676399e+00	-1.014794e+02
9.100000e-07	4.408909e-07	-1.449361e-09	3.051732e+00	-9.455881e+01
9.200000e-07	4.949307e-07	-1.337120e-09	3.425782e+00	-8.742036e+01
9.300000e-07	5.487410e-07	-1.222987e-09	3.798242e+00	-8.005491e+01
9.400000e-07	6.023692e-07	-1.104103e-09	4.169443e+00	-7.245022e+01
9.500000e-07	6.557011e-07	-9.834484e-10	4.538592e+00	-6.459010e+01
9.600000e-07	7.087712e-07	-8.593257e-10	4.905929e+00	-5.645400e+01
9.700000e-07	7.616575e-07	-7.308311e-10	5.271995e+00	-4.801699e+01
9.800000e-07	8.142615e-07	-5.952083e-10	5.636106e+00	-3.925040e+01
9.900000e-07	8.666016e-07	-4.537022e-10	5.998391e+00	-3.012311e+01
1.000000e-06	9.186662e-07	-3.060087e-10	6.358768e+00	-2.060353e+01
1.010000e-06	9.702729e-07	-1.499183e-10	6.715976e+00	-1.066211e+01
1.020000e-06	1.021303e-06	1.240631e-11	7.069193e+00	-2.743136e-01
1.030000e-06	1.071671e-06	1.803546e-10	7.417828e+00	1.057625e+01
1.040000e-06	1.121366e-06	3.547975e-10	7.761802e+00	2.189469e+01
1.050000e-06	1.170549e-06	5.355959e-10	8.102232e+00	3.367203e+01
1.060000e-06	1.219353e-06	7.197092e-10	8.440047e+00	4.588311e+01
1.070000e-06	1.267889e-06	9.093898e-10	8.775994e+00	5.848521e+01
1.080000e-06	1.316158e-06	1.104495e-09	9.110104e+00	7.141785e+01
1.090000e-06	1.363966e-06	1.303898e-09	9.441020e+00	8.460367e+01
1.100000e-06	1.411208e-06	1.507891e-09	9.768013e+00	9.795052e+01
1.110000e-06	1.457946e-06	1.714960e-09	1.009152e+01	1.113546e+02
1.120000e-06	1.504209e-06	1.921239e-09	1.041174e+01	1.247047e+02
1.130000e-06	1.549870e-06	2.121621e-09	1.072779e+01	1.378867e+02
1.140000e-06	1.594977e-06	2.315968e-09	1.104001e+01	1.507886e+02
1.150000e-06	1.639732e-06	2.505754e-09	1.134980e+01	1.633058e+02
1.160000e-06	1.684161e-06	2.688665e-09	1.165732e+01	1.753454e+02
1.170000e-06	1.728083e-06	2.860372e-09	1.196134e+01	1.868299e+02
1.180000e-06	1.771185e-06	3.022682e-09	1.225968e+01	1.977003e+02
1.190000e-06	1.813299e-06	3.178432e-09	1.255118e+01	2.079177e+02
1.200000e-06	1.854519e-06	3.327003e-09	1.283650e+01	2.174631e+02
1.210000e-06	1.895155e-06	3.462694e-09	1.311777e+01	2.263372e+02
1.220000e-06	1.935319e-06	3.584863e-09	1.339577e+01	2.345577e+02
1.230000e-06	1.974859e-06	3.696797e-09	1.366946e+01	2.421565e+02
1.240000e-06	2.013708e-06	3.800977e-09	1.393837e+01	2.491765e+02
1.250000e-06	2.051824e-06	3.898934e-09	1.420219e+01	2.556669e+02
1.260000e-06	2.089191e-06	3.988909e-09	1.446083e+01	2.616799e+02
1.270000e-06	2.125979e-06	4.073633e-09	1.471547e+01	2.672672e+02
1.280000e-06	2.162291e-06	4.156785e-09	1.496682e+01	2.724765e+02
1.290000e-06	2.197829e-06	4.235517e-09	1.521280e+01	2.773501e+02
1.300000e-06	2.232265e-06	4.302812e-09	1.545115e+01	2.819229e+02
1.310000e-06	2.265640e-06	4.361544e-09	1.568217e+01	2.862223e+02
1.320000e-06	2.298241e-06	4.419694e-09	1.590783e+01	2.902687e+02
1.330000e-06	2.330248e-06	4.477947e-09	1.612937e+01	2.940762e+02
1.340000e-06	2.361494e-06	4.533316e-09	1.634565e+01	2.976544e+02
1.350000e-06	2.391935e-06	4.583365e-09	1.655635e+01	3.010098e+02
1.360000e-06	2.421599e-06	4.629315e-09	1.676168e+01	3.041477e+02
1.370000e-06	2.450502e-06	4.671867e-09	1.696174e+01	3.070737e+02
1.380000e-06	2.478721e-06	4.709250e-09	1.715706e+01	3.097946e+02
1.390000e-06	2.505989e-06	4.742881e-09	1.734581e+01	3.123197e+02
1.400000e-06	2.532006e-06	4.773932e-09	1.752588e+01	3.146602e+02
1.410000e-06	2.556951e-06	4.804345e-09	1.769855e+01	3.168295e+02
1.420000e-06	2.581045e-06	4.836061e-09	1.786532e+01	3.188427e+02
1.430000e-06	2.604259e-06	4.868320e-09	1.802600e+01	3.207153e+02
1.440000e-06	2.626601e-06	4.897682e-09	1.818064e+01	3.224624e+02
1.450000e-06	2.648069e-06	4.921175e-09	1.832924e+01	3.240979e+02
1.460000e-06	2.668772e-06	4.940118e-09	1.847255e+01	3.256336e+02
1.470000e-06	2.688746e-06	4.957832e-09	1.861080e+01	3.270787e+02
1.480000e-06	2.707791e-06	4.975804e-09	1.874262e+01	3.284396e+02
1.490000e-06	2.725824e-06	4.994527e-09	1.886744e+01	3.297201e+02
1.500000e-06	2.742845e-06	5.014486e-09	1.898526e+01	3.309218e+02
1.510000e-06	2.758815e-06	5.035297e-09	1.909580e+01	3.320444e+02
1.520000e-06	2.773690e-06	5.054296e-09	1.919876e+01	3.330872e+02
1.530000e-06	2.787558e-06	5.069002e-09	1.929475e+01	3.340491e+02
1.540000e-06	2.800501e-06	5.078721e-09	1.938434e+01	3.349297e+02
1.550000e-06	2.812357e-06	5.085706e-09	1.946640e+01	3.357298e+02
1.560000e-06	2.822849e-06	5.094044e-09	1.953903e+01	3.364516e+02
1.570000e-06	2.832085e-06	5.105108e-09	1.960295e+01	3.370984e+02
1.580000e-06	2.840414e-06	5.117976e-09	1.966060e+01	3.376749e+02
1.590000e-06	2.847798e-06	5.131405e-09	1.971171e+01	3.381862e+02
1.600000e-06	2.854164e-06	5.143231e-09	1.975578e+01	3.386377e+02
1.610000e-06	2.859625e-06	5.150631e-09	1.979358e+01	3.390340e+02
1.620000e-06	2.864264e-06	5.153275e-09	1.982569e+01	3.393788e+02
1.630000e-06	2.867960e-06	5.154309e-09	1.985127e+01	3.396739e+02
1.640000e-06	2.870390e-06	5.158375e-09	1.986809e+01	3.399196e+02
1.650000e-06	2.871597e-06	5.165213e-09	1.987645e+01	3.401143e+02
1.660000e-06	2.871894e-06	5.170547e-09	1.987850e+01	3.402548e+02
1.670000e-06	2.871363e-06	5.171663e-09	1.987483e+01	3.403367e+02
1.680000e-06	2.869917e-06	5.169938e-09	1.986482e+01	3.403553e+02
1.690000e-06	2.867547e-06	5.168910e-09	1.984841e+01	3.403061e+02
1.700000e-06	2.864395e-06	5.168438e-09	1.982659e+01	3.401852e+02
1.710000e-06	2.860439e-06	5.163979e-09	1.979921e+01	3.399903e+02
1.720000e-06	2.855378e-06	5.156079e-09	1.976418e+01	3.397209e+02
1.730000e-06	2.849124e-06	5.145366e-09	1.972089e+01	3.393785e+02
1.740000e-06	2.841988e-06	5.141274e-09	1.967150e+01	3.389665e+02
1.750000e-06	2.833924e-06	5.130960e-09	1.961569e+01	3.384897e+02
1.760000e-06	2.824350e-06	5.124707e-09	1.954942e+01	3.379542e+02
1.770000e-06	2.813201e-06	5.107518e-09	1.947225e+01	3.373665e+02
1.780000e-06	2.801367e-06	5.131963e-09	1.939033e+01	3.367328e+02
1.790000e-06	2.789410e-06	5.118794e-09	1.930757e+01	3.360586e+02
1.800000e-06	2.776532e-06	5.060699e-09	1.921843e+01	3.353476e+02
1.810000e-06	2.761962e-06	5.053538e-09	1.911758e+01	3.346019e+02
1.820000e-06	2.746355e-06	5.080585e-09	1.900955e+01	3.338215e+02
1.830000e-06	2.730220e-06	5.084536e-09	1.889787e+01	3.330045e+02
1.840000e-06	2.712880e-06	5.049930e-09	1.877785e+01	3.321471e+02
1.850000e-06	2.694231e-06	5.090575e-09	1.864877e+01	3.312446e+02
1.860000e-06	2.674966e-06	5.083626e-09	1.851542e+01	3.302914e+02
1.870000e-06	2.654882e-06	5.001703e-09	1.837640e+01	3.292819e+02
1.880000e-06	2.633457e-06	5.030976e-09	1.822810e+01	3.282110e+02
1.890000e-06	2.610977e-06	5.022634e-09	1.807251e+01	3.270748e+02
1.900000e-06	2.587602e-06	4.924383e-09	1.791071e+01	3.258706e+02
1.910000e-06	2.563242e-06	4.963971e-09	1.774209e+01	3.245974e+02
1.920000e-06	2.538165e-06	4.981423e-09	1.756852e+01	3.232555e+02
1.930000e-06	2.512322e-06	4.908321e-09	1.738964e+01	3.218469e+02
1.940000e-06	2.485596e-06	4.902226e-09	1.720464e+01	3.203742e+02
1.950000e-06	2.458208e-06	4.904154e-09	1.701507e+01	3.188409e+02
1.960000e-06	2.429914e-06	4.833305e-09	1.681923e+01	3.172505e+02
1.970000e-06	2.400337e-06	4.813374e-09	1.661451e+01	3.156063e+02
1.980000e-06	2.369762e-06	4.815028e-09	1.640287e+01	3.139109e+02
1.990000e-06	2.338469e-06	4.760007e-09	1.618627e+01	3.121660e+02
2.000000e-06	2.306441e-06	4.760424e-09	1.596458e+01	3.103727e+02
2.010000e-06	2.273661e-06	4.743596e-09	1.573769e+01	3.085308e+02
2.020000e-06	2.240067e-06	4.679130e-09	1.550516e+01	3.066396e+02
2.030000e-06	2.205757e-06	4.655388e-09	1.526767e+01	3.046981e+02
2.040000e-06	2.170826e-06	4.628833e-09	1.502589e+01	3.027048e+02
2.050000e-06	2.135188e-06	4.579172e-09	1.477922e+01	3.006585e+02
2.060000e-06	2.098738e-06	4.551728e-09	1.452691e+01	2.985581e+02
2.070000e-06	2.061323e-06	4.532217e-09	1.426794e+01	2.964032e+02
2.080000e-06	2.022914e-06	4.507612e-09	1.400208e+01	2.941937e+02
2.090000e-06	1.983775e-06	4.468651e-09	1.373117e+01	2.919300e+02
2.100000e-06	1.944076e-06	4.421268e-09	1.345639e+01	2.896126e+02
2.110000e-06	1.903716e-06	4.390830e-09	1.317703e+01	2.872424e+02
2.120000e-06	1.862686e-06	4.345132e-09	1.289302e+01	2.848201e+02
2.130000e-06	1.821100e-06	4.302338e-09	1.260518e+01	2.823457e+02
2.140000e-06	1.778986e-06	4.277112e-09	1.231368e+01	2.798191e+02
2.150000e-06	1.736269e-06	4.249870e-09	1.201800e+01	2.772395e+02
2.160000e-06	1.693077e-06	4.206242e-09	1.171904e+01	2.746053e+02
2.170000e-06	1.649465e-06	4.144083e-09	1.141716e+01	2.719146e+02
2.180000e-06	1.605238e-06	4.104164e-09	1.111104e+01	2.691650e+02
2.190000e-06	1.560347e-06	4.065774e-09	1.080031e+01	2.663542e+02
2.200000e-06	1.514825e-06	4.017058e-09	1.048523e+01	2.634797e+02
2.210000e-06	1.468870e-06	3.982367e-09	1.016714e+01	2.605395e+02
2.220000e-06	1.422575e-06	3.943622e-09	9.846692e+00	2.575319e+02
2.230000e-06	1.375777e-06	3.887685e-09	9.522773e+00	2.544557e+02
2.240000e-06	1.328333e-06	3.840246e-09	9.194378e+00	2.513103e+02
2.250000e-06	1.280248e-06	3.785042e-09	8.861542e+00	2.480956e+02
2.260000e-06	1.231617e-06	3.729679e-09	8.524935e+00	2.448115e+02
2.270000e-06	1.182554e-06	3.691098e-09	8.185333e+00	2.414581e+02
2.280000e-06	1.133112e-06	3.646403e-09	7.843107e+00	2.380352e+02
2.290000e-06	1.083251e-06	3.597213e-09	7.497980e+00	2.345424e+02
2.300000e-06	1.032944e-06	3.537095e-09	7.149769e+00	2.309785e+02
2.310000e-06	9.822128e-07	3.474861e-09	6.798621e+00	2.273420e+02
2.320000e-06	9.311858e-07	3.414217e-09	6.445426e+00	2.236309e+02
2.330000e-06	8.799111e-07	3.351662e-09	6.090515e+00	2.198425e+02
2.340000e-06	8.283089e-07	3.295027e-09	5.733338e+00	2.159742e+02
2.350000e-06	7.763278e-07	3.242503e-09	5.373539e+00	2.120232e+02
2.360000e-06	7.238993e-07	3.187854e-09	5.010643e+00	2.079869e+02
2.370000e-06	6.710474e-07	3.126124e-09	4.644815e+00	2.038632e+02
2.380000e-06	6.177545e-07	3.059614e-09	4.275935e+00	1.996501e+02
2.390000e-06	5.639900e-07	2.993410e-09	3.903792e+00	1.953464e+02
2.400000e-06	5.099592e-07	2.927652e-09	3.529805e+00	1.909505e+02
2.410000e-06	4.557119e-07	2.860935e-09	3.154319e+00	1.864613e+02
2.420000e-06	4.012507e-07	2.796580e-09	2.777353e+00	1.818767e+02
2.430000e-06	3.466121e-07	2.729293e-09	2.399159e+00	1.771942e+02
2.440000e-06	2.918096e-07	2.657230e-09	2.019830e+00	1.724100e+02
2.450000e-06	2.369344e-07	2.581600e-09	1.639999e+00	1.675188e+02
2.460000e-06	1.820528e-07	2.504610e-09	1.260122e+00	1.625139e+02
2.470000e-06	1.271549e-07	2.427614e-09	8.801330e-01	1.573870e+02
2.480000e-06	7.219647e-08	2.345893e-09	4.997251e-01	1.521286e+02
2.490000e-06	1.719537e-08	2.263871e-09	1.190218e-01	1.467282e+02
2.500000e-06	-3.782197e-08	2.181393e-09	-2.617938e-01	1.411749e+02
2.510000e-06	-9.284477e-08	2.095539e-09	-6.426473e-01	1.354580e+02
2.520000e-06	-1.478766e-07	2.005386e-09	-1.023563e+00	1.295674e+02
2.530000e-06	-2.028702e-07	1.912024e-09	-1.404214e+00	1.234939e+02
2.540000e-06	-2.577938e-07	1.817070e-09	-1.784382e+00	1.172298e+02
2.550000e-06	-3.126566e-07	1.719539e-09	-2.164128e+00	1.107682e+02
2.560000e-06	-3.673678e-07	1.620441e-09	-2.542825e+00	1.041032e+02
2.570000e-06	-4.218906e-07	1.518364e-09	-2.920217e+00	9.722867e+01
2.580000e-06	-4.762721e-07	1.411761e-09	-3.296632e+00	9.013798e+01
2.590000e-06	-5.304052e-07	1.298875e-09	-3.671327e+00	8.282247e+01
2.600000e-06	-5.842436e-07	1.182838e-09	-4.043982e+00	7.527064e+01
2.610000e-06	-6.377428e-07	1.063774e-09	-4.414290e+00	6.746722e+01
2.620000e-06	-6.907635e-07	9.413459e-10	-4.781285e+00	5.939260e+01
2.630000e-06	-7.433201e-07	8.159704e-10	-5.145068e+00	5.102276e+01
2.640000e-06	-7.954837e-07	6.852925e-10	-5.506131e+00	4.232973e+01
2.650000e-06	-8.472891e-07	5.480706e-10	-5.864714e+00	3.328280e+01
2.660000e-06	-8.987672e-07	4.050993e-10	-6.221032e+00	2.385027e+01
2.670000e-06	-9.499240e-07	2.567576e-10	-6.575126e+00	1.400192e+01
2.680000e-06	-1.000778e-06	1.009891e-10	-6.927126e+00	3.711864e+00
2.690000e-06	-1.051246e-06	-6.328405e-11	-7.276452e+00	-7.038293e+00
2.700000e-06	-1.101237e-06	-2.351032e-10	-7.622473e+00	-1.825632e+01
2.710000e-06	-1.150845e-06	-4.101143e-10	-7.965847e+00	-2.993648e+01
2.720000e-06	-1.200093e-06	-5.887883e-10	-8.306733e+00	-4.205722e+01
2.730000e-06	-1.248828e-06	-7.762809e-10	-8.644064e+00	-5.457964e+01
2.740000e-06	-1.296872e-06	-9.736536e-10	-8.976612e+00	-6.744702e+01
2.750000e-06	-1.344213e-06	-1.177365e-09	-9.304289e+00	-8.058550e+01
2.760000e-06	-1.390818e-06	-1.384830e-09	-9.626883e+00	-9.390585e+01
2.770000e-06	-1.436854e-06	-1.593365e-09	-9.945526e+00	-1.073065e+02
2.780000e-06	-1.482544e-06	-1.800358e-09	-1.026178e+01	-1.206774e+02
2.790000e-06	-1.527892e-06	-2.004962e-09	-1.057567e+01	-1.339045e+02
2.800000e-06	-1.572844e-06	-2.203360e-09	-1.088682e+01	-1.468752e+02
2.810000e-06	-1.617238e-06	-2.393672e-09	-1.119410e+01	-1.594828e+02
2.820000e-06	-1.661030e-06	-2.579027e-09	-1.149722e+01	-1.716314e+02
2.830000e-06	-1.704360e-06	-2.758826e-09	-1.179714e+01	-1.832401e+02
2.840000e-06	-1.747309e-06	-2.927892e-09	-1.209442e+01	-1.942457e+02
2.850000e-06	-1.789774e-06	-3.083925e-09	-1.238835e+01	-2.046049e+02
2.860000e-06	-1.831603e-06	-3.232148e-09	-1.267788e+01	-2.142945e+02
2.870000e-06	-1.872834e-06	-3.373261e-09	-1.296327e+01	-2.233111e+02
2.880000e-06	-1.913448e-06	-3.502929e-09	-1.324439e+01	-2.316690e+02
2.890000e-06	-1.953344e-06	-3.620280e-09	-1.352054e+01	-2.393974e+02
2.900000e-06	-1.992721e-06	-3.729729e-09	-1.379310e+01	-2.465370e+02
2.910000e-06	-2.031573e-06	-3.834022e-09	-1.406202e+01	-2.531361e+02
2.920000e-06	-2.069631e-06	-3.932262e-09	-1.432544e+01	-2.592467e+02
2.930000e-06	-2.106672e-06	-4.020322e-09	-1.458184e+01	-2.649206e+02
2.940000e-06	-2.142694e-06	-4.097917e-09	-1.483117e+01	-2.702068e+02
