# Temperatura_=_19.31
# Concentracion g/m^3_=_15500.0
# C_Vs_to_Am_M_A/Vsm_=_65563218390.804596
# pendiente_HvsI_1/m_=_3716.3
# ordenada_HvsI_A/m_=_1297.0
# frecuencia_Hz_=_300842.2087621134

Tiempo_(s)	Campo_(V.s)	Magnetizacion_(V.s)	Campo_(kA/m)	Magnetizacion_(A/m)
0.000000e+00	-2.859758e-06	-4.983992e-09	-1.980006e+01	-3.276215e+02
1.000000e-08	-2.858845e-06	-4.980632e-09	-1.979374e+01	-3.276289e+02
2.000000e-08	-2.856911e-06	-4.974168e-09	-1.978035e+01	-3.275766e+02
3.000000e-08	-2.853655e-06	-4.969496e-09	-1.975781e+01	-3.274599e+02
4.000000e-08	-2.849407e-06	-4.968506e-09	-1.972839e+01	-3.272741e+02
5.000000e-08	-2.844405e-06	-4.964874e-09	-1.969376e+01	-3.270159e+02
6.000000e-08	-2.838522e-06	-4.956620e-09	-1.965303e+01	-3.266833e+02
7.000000e-08	-2.831650e-06	-4.945020e-09	-1.960545e+01	-3.262761e+02
8.000000e-08	-2.823722e-06	-4.968394e-09	-1.955056e+01	-3.257961e+02
9.000000e-08	-2.814599e-06	-4.977356e-09	-1.948740e+01	-3.252472e+02
1.000000e-07	-2.803986e-06	-4.950015e-09	-1.941391e+01	-3.246346e+02
1.100000e-07	-2.792209e-06	-4.846827e-09	-1.933237e+01	-3.239649e+02
1.200000e-07	-2.779775e-06	-4.903784e-09	-1.924628e+01	-3.232450e+02
1.300000e-07	-2.766405e-06	-4.976568e-09	-1.915372e+01	-3.224818e+02
1.400000e-07	-2.751958e-06	-4.870115e-09	-1.905369e+01	-3.216814e+02
1.500000e-07	-2.736603e-06	-4.837813e-09	-1.894738e+01	-3.208485e+02
1.600000e-07	-2.719933e-06	-4.950398e-09	-1.883196e+01	-3.199862e+02
1.700000e-07	-2.701933e-06	-4.976619e-09	-1.870733e+01	-3.190954e+02
1.800000e-07	-2.683240e-06	-4.806288e-09	-1.857791e+01	-3.181753e+02
1.900000e-07	-2.663864e-06	-4.876944e-09	-1.844375e+01	-3.172230e+02
2.000000e-07	-2.643516e-06	-4.920031e-09	-1.830287e+01	-3.162341e+02
2.100000e-07	-2.622320e-06	-4.746917e-09	-1.815611e+01	-3.152034e+02
2.200000e-07	-2.600398e-06	-4.808939e-09	-1.800434e+01	-3.141250e+02
2.300000e-07	-2.577513e-06	-4.906071e-09	-1.784588e+01	-3.129931e+02
2.400000e-07	-2.553649e-06	-4.757090e-09	-1.768066e+01	-3.118023e+02
2.500000e-07	-2.529058e-06	-4.740244e-09	-1.751040e+01	-3.105485e+02
2.600000e-07	-2.503556e-06	-4.778858e-09	-1.733383e+01	-3.092283e+02
2.700000e-07	-2.476925e-06	-4.709924e-09	-1.714944e+01	-3.078400e+02
2.800000e-07	-2.449243e-06	-4.689794e-09	-1.695779e+01	-3.063833e+02
2.900000e-07	-2.420626e-06	-4.678491e-09	-1.675965e+01	-3.048588e+02
3.000000e-07	-2.391174e-06	-4.656412e-09	-1.655573e+01	-3.032682e+02
3.100000e-07	-2.361061e-06	-4.652431e-09	-1.634724e+01	-3.016139e+02
3.200000e-07	-2.330280e-06	-4.637922e-09	-1.613412e+01	-2.998986e+02
3.300000e-07	-2.298612e-06	-4.558906e-09	-1.591486e+01	-2.981249e+02
3.400000e-07	-2.266245e-06	-4.562906e-09	-1.569076e+01	-2.962954e+02
3.500000e-07	-2.233374e-06	-4.527720e-09	-1.546318e+01	-2.944121e+02
3.600000e-07	-2.199696e-06	-4.487738e-09	-1.523000e+01	-2.924767e+02
3.700000e-07	-2.164799e-06	-4.504051e-09	-1.498839e+01	-2.904900e+02
3.800000e-07	-2.128820e-06	-4.439248e-09	-1.473928e+01	-2.884529e+02
3.900000e-07	-2.092255e-06	-4.399642e-09	-1.448611e+01	-2.863653e+02
4.000000e-07	-2.055102e-06	-4.407190e-09	-1.422888e+01	-2.842273e+02
4.100000e-07	-2.017181e-06	-4.355846e-09	-1.396633e+01	-2.820384e+02
4.200000e-07	-1.978513e-06	-4.278771e-09	-1.369860e+01	-2.797985e+02
4.300000e-07	-1.939038e-06	-4.276478e-09	-1.342529e+01	-2.775069e+02
4.400000e-07	-1.898881e-06	-4.243916e-09	-1.314725e+01	-2.751634e+02
4.500000e-07	-1.858342e-06	-4.205538e-09	-1.286657e+01	-2.727672e+02
4.600000e-07	-1.817407e-06	-4.170700e-09	-1.258315e+01	-2.703179e+02
4.700000e-07	-1.775682e-06	-4.128861e-09	-1.229426e+01	-2.678146e+02
4.800000e-07	-1.732907e-06	-4.081581e-09	-1.199810e+01	-2.652563e+02
4.900000e-07	-1.689203e-06	-4.037378e-09	-1.169551e+01	-2.626416e+02
5.000000e-07	-1.644926e-06	-4.006204e-09	-1.138895e+01	-2.599689e+02
5.100000e-07	-1.600271e-06	-3.953810e-09	-1.107977e+01	-2.572366e+02
5.200000e-07	-1.555141e-06	-3.920176e-09	-1.076731e+01	-2.544426e+02
5.300000e-07	-1.509425e-06	-3.885332e-09	-1.045078e+01	-2.515850e+02
5.400000e-07	-1.463139e-06	-3.845921e-09	-1.013031e+01	-2.486618e+02
5.500000e-07	-1.416367e-06	-3.779889e-09	-9.806475e+00	-2.456714e+02
5.600000e-07	-1.369074e-06	-3.727498e-09	-9.479036e+00	-2.426125e+02
5.700000e-07	-1.321249e-06	-3.687318e-09	-9.147914e+00	-2.394840e+02
5.800000e-07	-1.273043e-06	-3.642987e-09	-8.814149e+00	-2.362855e+02
5.900000e-07	-1.224552e-06	-3.595113e-09	-8.478413e+00	-2.330168e+02
6.000000e-07	-1.175669e-06	-3.540605e-09	-8.139962e+00	-2.296781e+02
6.100000e-07	-1.126262e-06	-3.492950e-09	-7.797882e+00	-2.262698e+02
6.200000e-07	-1.076142e-06	-3.433463e-09	-7.450870e+00	-2.227924e+02
6.300000e-07	-1.025285e-06	-3.379729e-09	-7.098752e+00	-2.192462e+02
6.400000e-07	-9.739127e-07	-3.317373e-09	-6.743064e+00	-2.156315e+02
6.500000e-07	-9.221152e-07	-3.260922e-09	-6.384435e+00	-2.119481e+02
6.600000e-07	-8.699310e-07	-3.208250e-09	-6.023128e+00	-2.081953e+02
6.700000e-07	-8.174528e-07	-3.152517e-09	-5.659785e+00	-2.043722e+02
6.800000e-07	-7.647493e-07	-3.088160e-09	-5.294883e+00	-2.004775e+02
6.900000e-07	-7.118096e-07	-3.020463e-09	-4.928345e+00	-1.965091e+02
7.000000e-07	-6.586508e-07	-2.964633e-09	-4.560290e+00	-1.924650e+02
7.100000e-07	-6.052300e-07	-2.904629e-09	-4.190421e+00	-1.883426e+02
7.200000e-07	-5.515439e-07	-2.840088e-09	-3.818716e+00	-1.841393e+02
7.300000e-07	-4.976121e-07	-2.766016e-09	-3.445309e+00	-1.798518e+02
7.400000e-07	-4.434675e-07	-2.696590e-09	-3.070429e+00	-1.754770e+02
7.500000e-07	-3.892202e-07	-2.629059e-09	-2.694837e+00	-1.710110e+02
7.600000e-07	-3.348892e-07	-2.560263e-09	-2.318667e+00	-1.664498e+02
7.700000e-07	-2.804629e-07	-2.485432e-09	-1.941837e+00	-1.617888e+02
7.800000e-07	-2.259555e-07	-2.409709e-09	-1.564444e+00	-1.570226e+02
7.900000e-07	-1.714033e-07	-2.341251e-09	-1.186743e+00	-1.521453e+02
8.000000e-07	-1.168400e-07	-2.265786e-09	-8.089633e-01	-1.471506e+02
8.100000e-07	-6.226809e-08	-2.184125e-09	-4.311246e-01	-1.420312e+02
8.200000e-07	-7.683030e-09	-2.098009e-09	-5.319487e-02	-1.367799e+02
8.300000e-07	4.690047e-08	-2.016413e-09	3.247241e-01	-1.313890e+02
8.400000e-07	1.014728e-07	-1.931691e-09	7.025653e-01	-1.258509e+02
8.500000e-07	1.560183e-07	-1.844082e-09	1.080221e+00	-1.201580e+02
8.600000e-07	2.105463e-07	-1.753271e-09	1.457756e+00	-1.143034e+02
8.700000e-07	2.650366e-07	-1.662696e-09	1.835029e+00	-1.082804e+02
8.800000e-07	3.194315e-07	-1.574308e-09	2.211643e+00	-1.020824e+02
8.900000e-07	3.737072e-07	-1.474138e-09	2.587431e+00	-9.570309e+01
9.000000e-07	4.278851e-07	-1.367251e-09	2.962542e+00	-8.913575e+01
9.100000e-07	4.819385e-07	-1.260829e-09	3.336790e+00	-8.237279e+01
9.200000e-07	5.358529e-07	-1.160159e-09	3.710076e+00	-7.540516e+01
9.300000e-07	5.895463e-07	-1.051438e-09	4.081833e+00	-6.822179e+01
9.400000e-07	6.429834e-07	-9.343577e-10	4.451814e+00	-6.080905e+01
9.500000e-07	6.961394e-07	-8.126523e-10	4.819850e+00	-5.315043e+01
9.600000e-07	7.490075e-07	-6.916818e-10	5.185892e+00	-4.522652e+01
9.700000e-07	8.016632e-07	-5.689356e-10	5.550463e+00	-3.701532e+01
9.800000e-07	8.540836e-07	-4.355949e-10	5.913405e+00	-2.849300e+01
9.900000e-07	9.061768e-07	-2.969908e-10	6.274082e+00	-1.963513e+01
1.000000e-06	9.578971e-07	-1.547542e-10	6.632177e+00	-1.041831e+01
1.010000e-06	1.009147e-06	-1.186470e-11	6.987012e+00	-8.221789e-01
1.020000e-06	1.059788e-06	1.409594e-10	7.337634e+00	9.168333e+00
1.030000e-06	1.109793e-06	3.043125e-10	7.683859e+00	1.956067e+01
1.040000e-06	1.159184e-06	4.736170e-10	8.025823e+00	3.035239e+01
1.050000e-06	1.208058e-06	6.425294e-10	8.364216e+00	4.152926e+01
1.060000e-06	1.256598e-06	8.153905e-10	8.700291e+00	5.306374e+01
1.070000e-06	1.304872e-06	9.975770e-10	9.034519e+00	6.491427e+01
1.080000e-06	1.352733e-06	1.183353e-09	9.365893e+00	7.702523e+01
1.090000e-06	1.400088e-06	1.370206e-09	9.693769e+00	8.932789e+01
1.100000e-06	1.446946e-06	1.556718e-09	1.001820e+01	1.017421e+02
1.110000e-06	1.493306e-06	1.748534e-09	1.033918e+01	1.141789e+02
1.120000e-06	1.539078e-06	1.939023e-09	1.065609e+01	1.265439e+02
1.130000e-06	1.584276e-06	2.124771e-09	1.096902e+01	1.387408e+02
1.140000e-06	1.629060e-06	2.304775e-09	1.127910e+01	1.506754e+02
1.150000e-06	1.673521e-06	2.481137e-09	1.158693e+01	1.622599e+02
1.160000e-06	1.717592e-06	2.651932e-09	1.189207e+01	1.734159e+02
1.170000e-06	1.760969e-06	2.811076e-09	1.219239e+01	1.840778e+02
1.180000e-06	1.803339e-06	2.960332e-09	1.248575e+01	1.941951e+02
1.190000e-06	1.844739e-06	3.103273e-09	1.277239e+01	2.037337e+02
1.200000e-06	1.885485e-06	3.243167e-09	1.305450e+01	2.126761e+02
1.210000e-06	1.925762e-06	3.373379e-09	1.333337e+01	2.210208e+02
1.220000e-06	1.965473e-06	3.490231e-09	1.360832e+01	2.287808e+02
1.230000e-06	2.004471e-06	3.596226e-09	1.387832e+01	2.359813e+02
1.240000e-06	2.042748e-06	3.696900e-09	1.414334e+01	2.426568e+02
1.250000e-06	2.080228e-06	3.789757e-09	1.440284e+01	2.488477e+02
1.260000e-06	2.117046e-06	3.874666e-09	1.465776e+01	2.545978e+02
1.270000e-06	2.153457e-06	3.954829e-09	1.490986e+01	2.599507e+02
1.280000e-06	2.189231e-06	4.031777e-09	1.515755e+01	2.649475e+02
1.290000e-06	2.223969e-06	4.103494e-09	1.539806e+01	2.696252e+02
1.300000e-06	2.257593e-06	4.167695e-09	1.563086e+01	2.740149e+02
1.310000e-06	2.290379e-06	4.228611e-09	1.585786e+01	2.781417e+02
1.320000e-06	2.322534e-06	4.287562e-09	1.608050e+01	2.820247e+02
1.330000e-06	2.353968e-06	4.344152e-09	1.629813e+01	2.856776e+02
1.340000e-06	2.384593e-06	4.394819e-09	1.651017e+01	2.891100e+02
1.350000e-06	2.414366e-06	4.439472e-09	1.671631e+01	2.923286e+02
1.360000e-06	2.443333e-06	4.481901e-09	1.691687e+01	2.953389e+02
1.370000e-06	2.471733e-06	4.523093e-09	1.711350e+01	2.981461e+02
1.380000e-06	2.499281e-06	4.559234e-09	1.730423e+01	3.007563e+02
1.390000e-06	2.525494e-06	4.591664e-09	1.748573e+01	3.031776e+02
1.400000e-06	2.550562e-06	4.626116e-09	1.765929e+01	3.054198e+02
1.410000e-06	2.574827e-06	4.661503e-09	1.782729e+01	3.074946e+02
1.420000e-06	2.598250e-06	4.693908e-09	1.798947e+01	3.094153e+02
1.430000e-06	2.620815e-06	4.720610e-09	1.814569e+01	3.111961e+02
1.440000e-06	2.642470e-06	4.743408e-09	1.829563e+01	3.128511e+02
1.450000e-06	2.663333e-06	4.762302e-09	1.844008e+01	3.143935e+02
1.460000e-06	2.683505e-06	4.779208e-09	1.857974e+01	3.158352e+02
1.470000e-06	2.702758e-06	4.797544e-09	1.871304e+01	3.171856e+02
1.480000e-06	2.721031e-06	4.818978e-09	1.883956e+01	3.184519e+02
1.490000e-06	2.738362e-06	4.842846e-09	1.895956e+01	3.196390e+02
1.500000e-06	2.754630e-06	4.863043e-09	1.907219e+01	3.207492e+02
1.510000e-06	2.769755e-06	4.877960e-09	1.917691e+01	3.217833e+02
1.520000e-06	2.783840e-06	4.889514e-09	1.927443e+01	3.227410e+02
1.530000e-06	2.796951e-06	4.900811e-09	1.936520e+01	3.236215e+02
1.540000e-06	2.809040e-06	4.911599e-09	1.944891e+01	3.244241e+02
1.550000e-06	2.819835e-06	4.918761e-09	1.952364e+01	3.251490e+02
1.560000e-06	2.829311e-06	4.926564e-09	1.958926e+01	3.257974e+02
1.570000e-06	2.837825e-06	4.940424e-09	1.964821e+01	3.263718e+02
1.580000e-06	2.845413e-06	4.957349e-09	1.970074e+01	3.268759e+02
1.590000e-06	2.852045e-06	4.969039e-09	1.974666e+01	3.273141e+02
1.600000e-06	2.857733e-06	4.972534e-09	1.978604e+01	3.276914e+02
1.610000e-06	2.862524e-06	4.972532e-09	1.981921e+01	3.280125e+02
1.620000e-06	2.866448e-06	4.975397e-09	1.984638e+01	3.282814e+02
1.630000e-06	2.869147e-06	4.981290e-09	1.986507e+01	3.285008e+02
1.640000e-06	2.870562e-06	4.984386e-09	1.987487e+01	3.286722e+02
1.650000e-06	2.871087e-06	4.985196e-09	1.987850e+01	3.287949e+02
1.660000e-06	2.870759e-06	4.988752e-09	1.987623e+01	3.288669e+02
1.670000e-06	2.869509e-06	4.991781e-09	1.986757e+01	3.288846e+02
1.680000e-06	2.867312e-06	4.993158e-09	1.985236e+01	3.288435e+02
1.690000e-06	2.864277e-06	4.990417e-09	1.983135e+01	3.287388e+02
1.700000e-06	2.860548e-06	4.984538e-09	1.980553e+01	3.285658e+02
1.710000e-06	2.855784e-06	4.981177e-09	1.977254e+01	3.283209e+02
1.720000e-06	2.849753e-06	4.979620e-09	1.973079e+01	3.280018e+02
1.730000e-06	2.842792e-06	4.981987e-09	1.968259e+01	3.276080e+02
1.740000e-06	2.835035e-06	4.930284e-09	1.962888e+01	3.271410e+02
1.750000e-06	2.825905e-06	4.918893e-09	1.956567e+01	3.266043e+02
1.760000e-06	2.815091e-06	4.969998e-09	1.949080e+01	3.260028e+02
1.770000e-06	2.803409e-06	4.994551e-09	1.940992e+01	3.253429e+02
1.780000e-06	2.791720e-06	4.929549e-09	1.932899e+01	3.246317e+02
1.790000e-06	2.779286e-06	4.823194e-09	1.924290e+01	3.238759e+02
1.800000e-06	2.765007e-06	4.954021e-09	1.914403e+01	3.230819e+02
1.810000e-06	2.749494e-06	4.922250e-09	1.903663e+01	3.222547e+02
1.820000e-06	2.733578e-06	4.801990e-09	1.892643e+01	3.213977e+02
1.830000e-06	2.716497e-06	4.911581e-09	1.880817e+01	3.205122e+02
1.840000e-06	2.697972e-06	4.975608e-09	1.867991e+01	3.195976e+02
1.850000e-06	2.678830e-06	4.843732e-09	1.854737e+01	3.186515e+02
1.860000e-06	2.659050e-06	4.820913e-09	1.841043e+01	3.176697e+02
1.870000e-06	2.637929e-06	4.956201e-09	1.826419e+01	3.166471e+02
1.880000e-06	2.615677e-06	4.818629e-09	1.811012e+01	3.155778e+02
1.890000e-06	2.592611e-06	4.715424e-09	1.795042e+01	3.144561e+02
1.900000e-06	2.568463e-06	4.868616e-09	1.778323e+01	3.132763e+02
1.910000e-06	2.543583e-06	4.805846e-09	1.761097e+01	3.120342e+02
1.920000e-06	2.518008e-06	4.714266e-09	1.743389e+01	3.107262e+02
1.930000e-06	2.491437e-06	4.791351e-09	1.724992e+01	3.093503e+02
1.940000e-06	2.464220e-06	4.715974e-09	1.706148e+01	3.079060e+02
1.950000e-06	2.436200e-06	4.695944e-09	1.686748e+01	3.063937e+02
1.960000e-06	2.406834e-06	4.685358e-09	1.666416e+01	3.048149e+02
1.970000e-06	2.376410e-06	4.599933e-09	1.645351e+01	3.031720e+02
1.980000e-06	2.345286e-06	4.633927e-09	1.623802e+01	3.014675e+02
1.990000e-06	2.313455e-06	4.628638e-09	1.601763e+01	2.997043e+02
2.000000e-06	2.280885e-06	4.526910e-09	1.579212e+01	2.978847e+02
2.010000e-06	2.247430e-06	4.563194e-09	1.556050e+01	2.960111e+02
2.020000e-06	2.213182e-06	4.521723e-09	1.532337e+01	2.940850e+02
2.030000e-06	2.178380e-06	4.423158e-09	1.508241e+01	2.921077e+02
2.040000e-06	2.142955e-06	4.470969e-09	1.483715e+01	2.900797e+02
2.050000e-06	2.106788e-06	4.398844e-09	1.458673e+01	2.880013e+02
2.060000e-06	2.069662e-06	4.326306e-09	1.432969e+01	2.858724e+02
2.070000e-06	2.031392e-06	4.369308e-09	1.406472e+01	2.836929e+02
2.080000e-06	1.992315e-06	4.313771e-09	1.379416e+01	2.814623e+02
2.090000e-06	1.952774e-06	4.258042e-09	1.352039e+01	2.791802e+02
2.100000e-06	1.912688e-06	4.246275e-09	1.324285e+01	2.768461e+02
2.110000e-06	1.871956e-06	4.181773e-09	1.296083e+01	2.744596e+02
2.120000e-06	1.830538e-06	4.153238e-09	1.267407e+01	2.720200e+02
2.130000e-06	1.788517e-06	4.121339e-09	1.238313e+01	2.695265e+02
2.140000e-06	1.745931e-06	4.075937e-09	1.208827e+01	2.669783e+02
2.150000e-06	1.702830e-06	4.056010e-09	1.178986e+01	2.643739e+02
2.160000e-06	1.659343e-06	3.996246e-09	1.148876e+01	2.617120e+02
2.170000e-06	1.615294e-06	3.963158e-09	1.118379e+01	2.589906e+02
2.180000e-06	1.570580e-06	3.916967e-09	1.087420e+01	2.562079e+02
2.190000e-06	1.525221e-06	3.856429e-09	1.056015e+01	2.533620e+02
2.200000e-06	1.479347e-06	3.829933e-09	1.024253e+01	2.504508e+02
2.210000e-06	1.433141e-06	3.787405e-09	9.922614e+00	2.474727e+02
2.220000e-06	1.386452e-06	3.743003e-09	9.599355e+00	2.444263e+02
2.230000e-06	1.339176e-06	3.689982e-09	9.272031e+00	2.413105e+02
2.240000e-06	1.291218e-06	3.633568e-09	8.939989e+00	2.381247e+02
2.250000e-06	1.242625e-06	3.593689e-09	8.603542e+00	2.348687e+02
2.260000e-06	1.193624e-06	3.543393e-09	8.264276e+00	2.315426e+02
2.270000e-06	1.144282e-06	3.487432e-09	7.922647e+00	2.281469e+02
2.280000e-06	1.094539e-06	3.442831e-09	7.578246e+00	2.246820e+02
2.290000e-06	1.044322e-06	3.386449e-09	7.230555e+00	2.211483e+02
2.300000e-06	9.936578e-07	3.336339e-09	6.879773e+00	2.175460e+02
2.310000e-06	9.426823e-07	3.274823e-09	6.526834e+00	2.138750e+02
2.320000e-06	8.914800e-07	3.203932e-09	6.172326e+00	2.101348e+02
2.330000e-06	8.400470e-07	3.152696e-09	5.816221e+00	2.063246e+02
2.340000e-06	7.883314e-07	3.099121e-09	5.458158e+00	2.024429e+02
2.350000e-06	7.361610e-07	3.046505e-09	5.096946e+00	1.984881e+02
2.360000e-06	6.835087e-07	2.981361e-09	4.732398e+00	1.944578e+02
2.370000e-06	6.303745e-07	2.917616e-09	4.364514e+00	1.903498e+02
2.380000e-06	5.768159e-07	2.861313e-09	3.993691e+00	1.861613e+02
2.390000e-06	5.229391e-07	2.796255e-09	3.620665e+00	1.818893e+02
2.400000e-06	4.687433e-07	2.729369e-09	3.245430e+00	1.775304e+02
2.410000e-06	4.143054e-07	2.663250e-09	2.868520e+00	1.730812e+02
2.420000e-06	3.596670e-07	2.600794e-09	2.490221e+00	1.685376e+02
2.430000e-06	3.048810e-07	2.532605e-09	2.110899e+00	1.638949e+02
2.440000e-06	2.499898e-07	2.453518e-09	1.730850e+00	1.591480e+02
2.450000e-06	1.949888e-07	2.377203e-09	1.350041e+00	1.542913e+02
2.460000e-06	1.399492e-07	2.307155e-09	9.689642e-01	1.493182e+02
2.470000e-06	8.490749e-08	2.230354e-09	5.878727e-01	1.442218e+02
2.480000e-06	2.983601e-08	2.149484e-09	2.065751e-01	1.389948e+02
2.490000e-06	-2.523470e-08	2.067540e-09	-1.747171e-01	1.336296e+02
2.500000e-06	-8.030920e-08	1.987048e-09	-5.560356e-01	1.281184e+02
2.510000e-06	-1.353767e-07	1.904205e-09	-9.373057e-01	1.224539e+02
2.520000e-06	-1.904005e-07	1.811972e-09	-1.318273e+00	1.166289e+02
2.530000e-06	-2.453939e-07	1.717959e-09	-1.699030e+00	1.106366e+02
2.540000e-06	-3.003263e-07	1.621756e-09	-2.079364e+00	1.044705e+02
2.550000e-06	-3.551208e-07	1.529350e-09	-2.458744e+00	9.812420e+01
2.560000e-06	-4.097442e-07	1.433944e-09	-2.836939e+00	9.159114e+01
2.570000e-06	-4.641692e-07	1.331397e-09	-3.213761e+00	8.486390e+01
2.580000e-06	-5.183684e-07	1.228486e-09	-3.589019e+00	7.793374e+01
2.590000e-06	-5.722543e-07	1.124663e-09	-3.962108e+00	7.079000e+01
2.600000e-06	-6.257472e-07	1.014842e-09	-4.332476e+00	6.341952e+01
2.610000e-06	-6.787979e-07	8.935377e-10	-4.699782e+00	5.580633e+01
2.620000e-06	-7.313986e-07	7.689427e-10	-5.063973e+00	4.793151e+01
2.630000e-06	-7.835741e-07	6.455256e-10	-5.425220e+00	3.977350e+01
2.640000e-06	-8.353417e-07	5.206638e-10	-5.783642e+00	3.130871e+01
2.650000e-06	-8.868147e-07	3.882429e-10	-6.140025e+00	2.251270e+01
2.660000e-06	-9.380810e-07	2.492799e-10	-6.494976e+00	1.336177e+01
2.670000e-06	-9.891058e-07	1.058463e-10	-6.848256e+00	3.834839e+00
2.680000e-06	-1.039731e-06	-4.352935e-11	-7.198768e+00	-6.084275e+00
2.690000e-06	-1.089883e-06	-2.012362e-10	-7.546003e+00	-1.640454e+01
2.700000e-06	-1.139594e-06	-3.654647e-10	-7.890188e+00	-2.712546e+01
2.710000e-06	-1.188889e-06	-5.313361e-10	-8.231489e+00	-3.823499e+01
2.720000e-06	-1.237683e-06	-7.023264e-10	-8.569324e+00	-4.970807e+01
2.730000e-06	-1.285841e-06	-8.804825e-10	-8.902759e+00	-6.150567e+01
2.740000e-06	-1.333261e-06	-1.065310e-09	-9.231081e+00	-7.357463e+01
2.750000e-06	-1.379941e-06	-1.254211e-09	-9.554275e+00	-8.584845e+01
2.760000e-06	-1.426073e-06	-1.445063e-09	-9.873681e+00	-9.824887e+01
2.770000e-06	-1.471798e-06	-1.636142e-09	-1.019026e+01	-1.106883e+02
2.780000e-06	-1.517195e-06	-1.828141e-09	-1.050458e+01	-1.230730e+02
2.790000e-06	-1.562252e-06	-2.017097e-09	-1.081654e+01	-1.353067e+02
2.800000e-06	-1.606702e-06	-2.198185e-09	-1.112430e+01	-1.472947e+02
2.810000e-06	-1.650554e-06	-2.375401e-09	-1.142792e+01	-1.589476e+02
2.820000e-06	-1.694008e-06	-2.548141e-09	-1.172878e+01	-1.701851e+02
2.830000e-06	-1.737087e-06	-2.713732e-09	-1.202704e+01	-1.809392e+02
2.840000e-06	-1.779661e-06	-2.869115e-09	-1.232181e+01	-1.911566e+02
2.850000e-06	-1.821583e-06	-3.017058e-09	-1.261206e+01	-2.008002e+02
2.860000e-06	-1.862920e-06	-3.158180e-09	-1.289827e+01	-2.098494e+02
2.870000e-06	-1.903627e-06	-3.289207e-09	-1.318011e+01	-2.183001e+02
2.880000e-06	-1.943632e-06	-3.409038e-09	-1.345709e+01	-2.261628e+02
2.890000e-06	-1.983095e-06	-3.520957e-09	-1.373032e+01	-2.334607e+02
2.900000e-06	-2.022034e-06	-3.627050e-09	-1.399992e+01	-2.402269e+02
2.910000e-06	-2.060238e-06	-3.725349e-09	-1.426444e+01	-2.465011e+02
2.920000e-06	-2.097429e-06	-3.815041e-09	-1.452194e+01	-2.523264e+02
2.930000e-06	-2.133577e-06	-3.896636e-09	-1.477221e+01	-2.577470e+02
2.940000e-06	-2.169016e-06	-3.975217e-09	-1.501758e+01	-2.628044e+02
