# Temperatura_=_29.09
# Concentracion g/m^3_=_15500.0
# C_Vs_to_Am_M_A/Vsm_=_65563218390.804596
# pendiente_HvsI_1/m_=_3716.3
# ordenada_HvsI_A/m_=_1297.0
# frecuencia_Hz_=_300836.7160270499

Tiempo_(s)	Campo_(V.s)	Magnetizacion_(V.s)	Campo_(kA/m)	Magnetizacion_(A/m)
0.000000e+00	-2.860208e-06	-5.245050e-09	-1.980526e+01	-3.426085e+02
1.000000e-08	-2.859206e-06	-5.240073e-09	-1.979832e+01	-3.426337e+02
2.000000e-08	-2.857235e-06	-5.235210e-09	-1.978467e+01	-3.425917e+02
3.000000e-08	-2.854006e-06	-5.234490e-09	-1.976231e+01	-3.424790e+02
4.000000e-08	-2.849748e-06	-5.232629e-09	-1.973283e+01	-3.422939e+02
5.000000e-08	-2.844721e-06	-5.227401e-09	-1.969802e+01	-3.420366e+02
6.000000e-08	-2.838829e-06	-5.223545e-09	-1.965722e+01	-3.417092e+02
7.000000e-08	-2.831987e-06	-5.230238e-09	-1.960985e+01	-3.413161e+02
8.000000e-08	-2.824129e-06	-5.240104e-09	-1.955543e+01	-3.408628e+02
9.000000e-08	-2.815009e-06	-5.214343e-09	-1.949228e+01	-3.403560e+02
1.000000e-07	-2.804459e-06	-5.165045e-09	-1.941923e+01	-3.398022e+02
1.100000e-07	-2.792768e-06	-5.170001e-09	-1.933827e+01	-3.392076e+02
1.200000e-07	-2.780247e-06	-5.204747e-09	-1.925158e+01	-3.385771e+02
1.300000e-07	-2.766775e-06	-5.180122e-09	-1.915829e+01	-3.379138e+02
1.400000e-07	-2.752311e-06	-5.101107e-09	-1.905814e+01	-3.372187e+02
1.500000e-07	-2.736909e-06	-5.169384e-09	-1.895148e+01	-3.364908e+02
1.600000e-07	-2.720192e-06	-5.181180e-09	-1.883573e+01	-3.357268e+02
1.700000e-07	-2.702172e-06	-5.076350e-09	-1.871095e+01	-3.349222e+02
1.800000e-07	-2.683436e-06	-5.094145e-09	-1.858122e+01	-3.340711e+02
1.900000e-07	-2.664026e-06	-5.106973e-09	-1.844682e+01	-3.331673e+02
2.000000e-07	-2.643680e-06	-5.030752e-09	-1.830593e+01	-3.322048e+02
2.100000e-07	-2.622532e-06	-5.020887e-09	-1.815949e+01	-3.311780e+02
2.200000e-07	-2.600597e-06	-5.084633e-09	-1.800761e+01	-3.300831e+02
2.300000e-07	-2.577637e-06	-5.033638e-09	-1.784862e+01	-3.289171e+02
2.400000e-07	-2.553729e-06	-4.987741e-09	-1.768307e+01	-3.276790e+02
2.500000e-07	-2.529076e-06	-4.992694e-09	-1.751236e+01	-3.263690e+02
2.600000e-07	-2.503627e-06	-4.947127e-09	-1.733614e+01	-3.249884e+02
2.700000e-07	-2.477149e-06	-4.909618e-09	-1.715280e+01	-3.235394e+02
2.800000e-07	-2.449576e-06	-4.922045e-09	-1.696188e+01	-3.220246e+02
2.900000e-07	-2.421055e-06	-4.872270e-09	-1.676438e+01	-3.204463e+02
3.000000e-07	-2.391690e-06	-4.873728e-09	-1.656105e+01	-3.188067e+02
3.100000e-07	-2.361558e-06	-4.871564e-09	-1.635240e+01	-3.171073e+02
3.200000e-07	-2.330711e-06	-4.794028e-09	-1.613880e+01	-3.153488e+02
3.300000e-07	-2.299025e-06	-4.783447e-09	-1.591940e+01	-3.135316e+02
3.400000e-07	-2.266636e-06	-4.760959e-09	-1.569512e+01	-3.116553e+02
3.500000e-07	-2.233741e-06	-4.702884e-09	-1.546735e+01	-3.097195e+02
3.600000e-07	-2.200076e-06	-4.700885e-09	-1.523424e+01	-3.077238e+02
3.700000e-07	-2.165262e-06	-4.695033e-09	-1.499317e+01	-3.056684e+02
3.800000e-07	-2.129372e-06	-4.624003e-09	-1.474465e+01	-3.035538e+02
3.900000e-07	-2.092764e-06	-4.621901e-09	-1.449116e+01	-3.013813e+02
4.000000e-07	-2.055485e-06	-4.602532e-09	-1.423303e+01	-2.991528e+02
4.100000e-07	-2.017464e-06	-4.522701e-09	-1.396975e+01	-2.968705e+02
4.200000e-07	-1.978707e-06	-4.484803e-09	-1.370138e+01	-2.945372e+02
4.300000e-07	-1.939214e-06	-4.471755e-09	-1.342791e+01	-2.921552e+02
4.400000e-07	-1.899065e-06	-4.434107e-09	-1.314991e+01	-2.897266e+02
4.500000e-07	-1.858471e-06	-4.393747e-09	-1.286882e+01	-2.872525e+02
4.600000e-07	-1.817504e-06	-4.362827e-09	-1.258515e+01	-2.847331e+02
4.700000e-07	-1.775877e-06	-4.316901e-09	-1.229690e+01	-2.821674e+02
4.800000e-07	-1.733293e-06	-4.277494e-09	-1.200203e+01	-2.795532e+02
4.900000e-07	-1.689719e-06	-4.230139e-09	-1.170031e+01	-2.768873e+02
5.000000e-07	-1.645409e-06	-4.188564e-09	-1.139349e+01	-2.741659e+02
5.100000e-07	-1.600682e-06	-4.147440e-09	-1.108378e+01	-2.713846e+02
5.200000e-07	-1.555548e-06	-4.107983e-09	-1.077125e+01	-2.685394e+02
5.300000e-07	-1.509831e-06	-4.067351e-09	-1.045469e+01	-2.656265e+02
5.400000e-07	-1.463583e-06	-4.016667e-09	-1.013445e+01	-2.626430e+02
5.500000e-07	-1.416841e-06	-3.957662e-09	-9.810793e+00	-2.595871e+02
5.600000e-07	-1.369515e-06	-3.906042e-09	-9.483083e+00	-2.564580e+02
5.700000e-07	-1.321716e-06	-3.873397e-09	-9.152105e+00	-2.532562e+02
5.800000e-07	-1.273550e-06	-3.825272e-09	-8.818584e+00	-2.499829e+02
5.900000e-07	-1.225002e-06	-3.775750e-09	-8.482416e+00	-2.466399e+02
6.000000e-07	-1.176094e-06	-3.726993e-09	-8.143760e+00	-2.432291e+02
6.100000e-07	-1.126670e-06	-3.668470e-09	-7.801528e+00	-2.397523e+02
6.200000e-07	-1.076572e-06	-3.605210e-09	-7.454630e+00	-2.362106e+02
6.300000e-07	-1.025817e-06	-3.548691e-09	-7.103177e+00	-2.326045e+02
6.400000e-07	-9.745132e-07	-3.495012e-09	-6.747930e+00	-2.289332e+02
6.500000e-07	-9.227758e-07	-3.439271e-09	-6.389680e+00	-2.251951e+02
6.600000e-07	-8.705856e-07	-3.387992e-09	-6.028293e+00	-2.213877e+02
6.700000e-07	-8.180665e-07	-3.328766e-09	-5.664629e+00	-2.175078e+02
6.800000e-07	-7.653673e-07	-3.263844e-09	-5.299718e+00	-2.135519e+02
6.900000e-07	-7.124425e-07	-3.195460e-09	-4.933245e+00	-2.095164e+02
7.000000e-07	-6.592768e-07	-3.130452e-09	-4.565104e+00	-2.053978e+02
7.100000e-07	-6.058867e-07	-3.067525e-09	-4.195409e+00	-2.011930e+02
7.200000e-07	-5.522828e-07	-3.004353e-09	-3.824233e+00	-1.968994e+02
7.300000e-07	-4.984432e-07	-2.937198e-09	-3.451426e+00	-1.925145e+02
7.400000e-07	-4.443373e-07	-2.865711e-09	-3.076774e+00	-1.880357e+02
7.500000e-07	-3.900569e-07	-2.795473e-09	-2.700915e+00	-1.834604e+02
7.600000e-07	-3.356668e-07	-2.719582e-09	-2.324295e+00	-1.787849e+02
7.700000e-07	-2.812134e-07	-2.644446e-09	-1.947237e+00	-1.740048e+02
7.800000e-07	-2.267036e-07	-2.571824e-09	-1.569789e+00	-1.691139e+02
7.900000e-07	-1.720997e-07	-2.499584e-09	-1.191689e+00	-1.641050e+02
8.000000e-07	-1.174329e-07	-2.421955e-09	-8.131537e-01	-1.589690e+02
8.100000e-07	-6.272239e-08	-2.339530e-09	-4.343157e-01	-1.536960e+02
8.200000e-07	-8.017841e-09	-2.253655e-09	-5.551883e-02	-1.482750e+02
8.300000e-07	4.666497e-08	-2.164452e-09	3.231275e-01	-1.426948e+02
8.400000e-07	1.013080e-07	-2.073153e-09	7.014981e-01	-1.369446e+02
8.500000e-07	1.559213e-07	-1.980847e-09	1.079663e+00	-1.310142e+02
8.600000e-07	2.105362e-07	-1.892725e-09	1.457840e+00	-1.248950e+02
8.700000e-07	2.650871e-07	-1.803511e-09	1.835572e+00	-1.185793e+02
8.800000e-07	3.195730e-07	-1.709083e-09	2.212855e+00	-1.120610e+02
8.900000e-07	3.740076e-07	-1.602657e-09	2.589782e+00	-1.053346e+02
9.000000e-07	4.283390e-07	-1.491702e-09	2.965996e+00	-9.839460e+01
9.100000e-07	4.823985e-07	-1.382189e-09	3.340326e+00	-9.123426e+01
9.200000e-07	5.362122e-07	-1.270270e-09	3.712954e+00	-8.384471e+01
9.300000e-07	5.898972e-07	-1.152861e-09	4.084691e+00	-7.621359e+01
9.400000e-07	6.433653e-07	-1.030809e-09	4.454926e+00	-6.832414e+01
9.500000e-07	6.965208e-07	-9.091916e-10	4.822997e+00	-6.015461e+01
9.600000e-07	7.493835e-07	-7.822313e-10	5.189040e+00	-5.167819e+01
9.700000e-07	8.020335e-07	-6.451962e-10	5.553610e+00	-4.286365e+01
9.800000e-07	8.544647e-07	-4.985982e-10	5.916665e+00	-3.367669e+01
9.900000e-07	9.065639e-07	-3.481135e-10	6.277422e+00	-2.408201e+01
1.000000e-06	9.582158e-07	-1.926130e-10	6.635081e+00	-1.404605e+01
1.010000e-06	1.009283e-06	-2.959585e-11	6.988694e+00	-3.540222e+00
1.020000e-06	1.059631e-06	1.396865e-10	7.337324e+00	7.455659e+00
1.030000e-06	1.109339e-06	3.139394e-10	7.681523e+00	1.894991e+01
1.040000e-06	1.158567e-06	4.937700e-10	8.022395e+00	3.093593e+01
1.050000e-06	1.207453e-06	6.824053e-10	8.360905e+00	4.338973e+01
1.060000e-06	1.256104e-06	8.788273e-10	8.697780e+00	5.626846e+01
1.070000e-06	1.304458e-06	1.081804e-09	9.032603e+00	6.951003e+01
1.080000e-06	1.352330e-06	1.289212e-09	9.364088e+00	8.303402e+01
1.090000e-06	1.399647e-06	1.498944e-09	9.691731e+00	9.674383e+01
1.100000e-06	1.446478e-06	1.708160e-09	1.001601e+01	1.105301e+02
1.110000e-06	1.492814e-06	1.916765e-09	1.033686e+01	1.242750e+02
1.120000e-06	1.538601e-06	2.121836e-09	1.065391e+01	1.378573e+02
1.130000e-06	1.583854e-06	2.321358e-09	1.096725e+01	1.511580e+02
1.140000e-06	1.628713e-06	2.516883e-09	1.127788e+01	1.640652e+02
1.150000e-06	1.673267e-06	2.705555e-09	1.158639e+01	1.764795e+02
1.160000e-06	1.717308e-06	2.885229e-09	1.189135e+01	1.883179e+02
1.170000e-06	1.760491e-06	3.054828e-09	1.219036e+01	1.995168e+02
1.180000e-06	1.802701e-06	3.213834e-09	1.248264e+01	2.100339e+02
1.190000e-06	1.844062e-06	3.361188e-09	1.276904e+01	2.198483e+02
1.200000e-06	1.884849e-06	3.500004e-09	1.305147e+01	2.289595e+02
1.210000e-06	1.925170e-06	3.628876e-09	1.333067e+01	2.373856e+02
1.220000e-06	1.964843e-06	3.744952e-09	1.360538e+01	2.451598e+02
1.230000e-06	2.003848e-06	3.850976e-09	1.387547e+01	2.523263e+02
1.240000e-06	2.042172e-06	3.948902e-09	1.414084e+01	2.589369e+02
1.250000e-06	2.079710e-06	4.040724e-09	1.440077e+01	2.650464e+02
1.260000e-06	2.116632e-06	4.127011e-09	1.465643e+01	2.707088e+02
1.270000e-06	2.153105e-06	4.208229e-09	1.490899e+01	2.759745e+02
1.280000e-06	2.188831e-06	4.283518e-09	1.515637e+01	2.808880e+02
1.290000e-06	2.223483e-06	4.353507e-09	1.539631e+01	2.854864e+02
1.300000e-06	2.257079e-06	4.418177e-09	1.562894e+01	2.897992e+02
1.310000e-06	2.289909e-06	4.476955e-09	1.585627e+01	2.938483e+02
1.320000e-06	2.322086e-06	4.531578e-09	1.607908e+01	2.976498e+02
1.330000e-06	2.353508e-06	4.583945e-09	1.629666e+01	3.012149e+02
1.340000e-06	2.384122e-06	4.633620e-09	1.650864e+01	3.045517e+02
1.350000e-06	2.413893e-06	4.679682e-09	1.671479e+01	3.076673e+02
1.360000e-06	2.442916e-06	4.722482e-09	1.691576e+01	3.105689e+02
1.370000e-06	2.471325e-06	4.761765e-09	1.711247e+01	3.132653e+02
1.380000e-06	2.498862e-06	4.798382e-09	1.730315e+01	3.157671e+02
1.390000e-06	2.525143e-06	4.832232e-09	1.748513e+01	3.180872e+02
1.400000e-06	2.550315e-06	4.864197e-09	1.765943e+01	3.202402e+02
1.410000e-06	2.574649e-06	4.894903e-09	1.782793e+01	3.222420e+02
1.420000e-06	2.598140e-06	4.924052e-09	1.799059e+01	3.241085e+02
1.430000e-06	2.620702e-06	4.950928e-09	1.814682e+01	3.258550e+02
1.440000e-06	2.642350e-06	4.974432e-09	1.829672e+01	3.274949e+02
1.450000e-06	2.663262e-06	4.995051e-09	1.844152e+01	3.290394e+02
1.460000e-06	2.683450e-06	5.014032e-09	1.858132e+01	3.304964e+02
1.470000e-06	2.702650e-06	5.033698e-09	1.871426e+01	3.318714e+02
1.480000e-06	2.720863e-06	5.055364e-09	1.884038e+01	3.331665e+02
1.490000e-06	2.738148e-06	5.075157e-09	1.896007e+01	3.343823e+02
1.500000e-06	2.754386e-06	5.091088e-09	1.907250e+01	3.355174e+02
1.510000e-06	2.769528e-06	5.106079e-09	1.917735e+01	3.365703e+02
1.520000e-06	2.783631e-06	5.120262e-09	1.927500e+01	3.375395e+02
1.530000e-06	2.796769e-06	5.132090e-09	1.936598e+01	3.384247e+02
1.540000e-06	2.808736e-06	5.141604e-09	1.944885e+01	3.392268e+02
1.550000e-06	2.819357e-06	5.149804e-09	1.952239e+01	3.399485e+02
1.560000e-06	2.828820e-06	5.159244e-09	1.958791e+01	3.405941e+02
1.570000e-06	2.837377e-06	5.171148e-09	1.964717e+01	3.411690e+02
1.580000e-06	2.845037e-06	5.183478e-09	1.970021e+01	3.416795e+02
1.590000e-06	2.851705e-06	5.194468e-09	1.974638e+01	3.421315e+02
1.600000e-06	2.857407e-06	5.201992e-09	1.978587e+01	3.425304e+02
1.610000e-06	2.862271e-06	5.205715e-09	1.981954e+01	3.428801e+02
1.620000e-06	2.866144e-06	5.207944e-09	1.984636e+01	3.431830e+02
1.630000e-06	2.868762e-06	5.211433e-09	1.986449e+01	3.434390e+02
1.640000e-06	2.870229e-06	5.216139e-09	1.987465e+01	3.436464e+02
1.650000e-06	2.870785e-06	5.220879e-09	1.987850e+01	3.438017e+02
1.660000e-06	2.870495e-06	5.223428e-09	1.987649e+01	3.439004e+02
1.670000e-06	2.869295e-06	5.223276e-09	1.986818e+01	3.439373e+02
1.680000e-06	2.867177e-06	5.223619e-09	1.985351e+01	3.439079e+02
1.690000e-06	2.864280e-06	5.222347e-09	1.983345e+01	3.438083e+02
1.700000e-06	2.860539e-06	5.218043e-09	1.980755e+01	3.436365e+02
1.710000e-06	2.855680e-06	5.213696e-09	1.977391e+01	3.433922e+02
1.720000e-06	2.849699e-06	5.209617e-09	1.973249e+01	3.430774e+02
1.730000e-06	2.842809e-06	5.192881e-09	1.968478e+01	3.426959e+02
1.740000e-06	2.835009e-06	5.174836e-09	1.963077e+01	3.422531e+02
1.750000e-06	2.825855e-06	5.188312e-09	1.956739e+01	3.417556e+02
1.760000e-06	2.815111e-06	5.222087e-09	1.949299e+01	3.412100e+02
1.770000e-06	2.803523e-06	5.168987e-09	1.941275e+01	3.406225e+02
1.780000e-06	2.791798e-06	5.145435e-09	1.933156e+01	3.399984e+02
1.790000e-06	2.779205e-06	5.170768e-09	1.924436e+01	3.393411e+02
1.800000e-06	2.764908e-06	5.162962e-09	1.914536e+01	3.386520e+02
1.810000e-06	2.749534e-06	5.089784e-09	1.903890e+01	3.379304e+02
1.820000e-06	2.733610e-06	5.106431e-09	1.892864e+01	3.371734e+02
1.830000e-06	2.716530e-06	5.194989e-09	1.881037e+01	3.363768e+02
1.840000e-06	2.698197e-06	5.110631e-09	1.868342e+01	3.355347e+02
1.850000e-06	2.679208e-06	5.074003e-09	1.855194e+01	3.346410e+02
1.860000e-06	2.659373e-06	5.150578e-09	1.841460e+01	3.336896e+02
1.870000e-06	2.638258e-06	5.073602e-09	1.826838e+01	3.326750e+02
1.880000e-06	2.616099e-06	5.002456e-09	1.811494e+01	3.315927e+02
1.890000e-06	2.593013e-06	5.069500e-09	1.795509e+01	3.304398e+02
1.900000e-06	2.568917e-06	5.040982e-09	1.778824e+01	3.292149e+02
1.910000e-06	2.544093e-06	5.008510e-09	1.761635e+01	3.279179e+02
1.920000e-06	2.518538e-06	5.022624e-09	1.743939e+01	3.265500e+02
1.930000e-06	2.492116e-06	4.960839e-09	1.725644e+01	3.251134e+02
1.940000e-06	2.465017e-06	4.918886e-09	1.706879e+01	3.236104e+02
1.950000e-06	2.436915e-06	4.953554e-09	1.687420e+01	3.220435e+02
1.960000e-06	2.407510e-06	4.870095e-09	1.667059e+01	3.204150e+02
1.970000e-06	2.377119e-06	4.848425e-09	1.646015e+01	3.187264e+02
1.980000e-06	2.345941e-06	4.907434e-09	1.624426e+01	3.169788e+02
1.990000e-06	2.314079e-06	4.811538e-09	1.602364e+01	3.151723e+02
2.000000e-06	2.281521e-06	4.782694e-09	1.579819e+01	3.133068e+02
2.010000e-06	2.248093e-06	4.802588e-09	1.556672e+01	3.113819e+02
2.020000e-06	2.213926e-06	4.694862e-09	1.533014e+01	3.093973e+02
2.030000e-06	2.179172e-06	4.680441e-09	1.508949e+01	3.073528e+02
2.040000e-06	2.143716e-06	4.700617e-09	1.484397e+01	3.052490e+02
2.050000e-06	2.107504e-06	4.602069e-09	1.459323e+01	3.030869e+02
2.060000e-06	2.070328e-06	4.587230e-09	1.433580e+01	3.008685e+02
2.070000e-06	2.032116e-06	4.592975e-09	1.407121e+01	2.985959e+02
2.080000e-06	1.993161e-06	4.528230e-09	1.380147e+01	2.962718e+02
2.090000e-06	1.953608e-06	4.497438e-09	1.352758e+01	2.938986e+02
2.100000e-06	1.913445e-06	4.455804e-09	1.324948e+01	2.914784e+02
2.110000e-06	1.872632e-06	4.404675e-09	1.296688e+01	2.890127e+02
2.120000e-06	1.831203e-06	4.371423e-09	1.268001e+01	2.865017e+02
2.130000e-06	1.789202e-06	4.330428e-09	1.238917e+01	2.839447e+02
2.140000e-06	1.746666e-06	4.303965e-09	1.209463e+01	2.813396e+02
2.150000e-06	1.703675e-06	4.265398e-09	1.179695e+01	2.786835e+02
2.160000e-06	1.660220e-06	4.209800e-09	1.149604e+01	2.759725e+02
2.170000e-06	1.616145e-06	4.169321e-09	1.119085e+01	2.732026e+02
2.180000e-06	1.571446e-06	4.125621e-09	1.088134e+01	2.703693e+02
2.190000e-06	1.526158e-06	4.077408e-09	1.056775e+01	2.674690e+02
2.200000e-06	1.480363e-06	4.039099e-09	1.025065e+01	2.644985e+02
2.210000e-06	1.434146e-06	3.999042e-09	9.930615e+00	2.614559e+02
2.220000e-06	1.387381e-06	3.951499e-09	9.606798e+00	2.583402e+02
2.230000e-06	1.340057e-06	3.887607e-09	9.279105e+00	2.551516e+02
2.240000e-06	1.292145e-06	3.840865e-09	8.947342e+00	2.518912e+02
2.250000e-06	1.243683e-06	3.796391e-09	8.611776e+00	2.485607e+02
2.260000e-06	1.194837e-06	3.742029e-09	8.273541e+00	2.451621e+02
2.270000e-06	1.145545e-06	3.702724e-09	7.932222e+00	2.416973e+02
2.280000e-06	1.095773e-06	3.650208e-09	7.587584e+00	2.381674e+02
2.290000e-06	1.045583e-06	3.590418e-09	7.240049e+00	2.345731e+02
2.300000e-06	9.949602e-07	3.528603e-09	6.889514e+00	2.309138e+02
2.310000e-06	9.440137e-07	3.461105e-09	6.536739e+00	2.271881e+02
2.320000e-06	8.928171e-07	3.399972e-09	6.182233e+00	2.233935e+02
2.330000e-06	8.413508e-07	3.345442e-09	5.825860e+00	2.195271e+02
2.340000e-06	7.894608e-07	3.292876e-09	5.466552e+00	2.155853e+02
2.350000e-06	7.370440e-07	3.237953e-09	5.103596e+00	2.115645e+02
2.360000e-06	6.841784e-07	3.174749e-09	4.737533e+00	2.074612e+02
2.370000e-06	6.308571e-07	3.112290e-09	4.368314e+00	2.032723e+02
2.380000e-06	5.771268e-07	3.049557e-09	3.996263e+00	1.989951e+02
2.390000e-06	5.230490e-07	2.980580e-09	3.621807e+00	1.946269e+02
2.400000e-06	4.687077e-07	2.911035e-09	3.245525e+00	1.901653e+02
2.410000e-06	4.141835e-07	2.844344e-09	2.867977e+00	1.856077e+02
2.420000e-06	3.595317e-07	2.784531e-09	2.489546e+00	1.809507e+02
2.430000e-06	3.047652e-07	2.714284e-09	2.110320e+00	1.761899e+02
2.440000e-06	2.499004e-07	2.632460e-09	1.730413e+00	1.713196e+02
2.450000e-06	1.950135e-07	2.554478e-09	1.350354e+00	1.663326e+02
2.460000e-06	1.401238e-07	2.479467e-09	9.702749e-01	1.612204e+02
2.470000e-06	8.521976e-08	2.402881e-09	5.900967e-01	1.559729e+02
2.480000e-06	3.027989e-08	2.319225e-09	2.096704e-01	1.505794e+02
2.490000e-06	-2.469192e-08	2.233392e-09	-1.709770e-01	1.450287e+02
2.500000e-06	-7.966465e-08	2.148289e-09	-5.516308e-01	1.393098e+02
2.510000e-06	-1.346191e-07	2.060774e-09	-9.321578e-01	1.334126e+02
2.520000e-06	-1.895242e-07	1.966785e-09	-1.312344e+00	1.273279e+02
2.530000e-06	-2.443992e-07	1.866892e-09	-1.692321e+00	1.210481e+02
2.540000e-06	-2.992624e-07	1.767010e-09	-2.072216e+00	1.145667e+02
2.550000e-06	-3.540265e-07	1.671859e-09	-2.451425e+00	1.078781e+02
2.560000e-06	-4.086549e-07	1.573654e-09	-2.829695e+00	1.009769e+02
2.570000e-06	-4.631326e-07	1.463821e-09	-3.206921e+00	9.385677e+01
2.580000e-06	-5.173605e-07	1.347295e-09	-3.582417e+00	8.650921e+01
2.590000e-06	-5.713343e-07	1.230795e-09	-3.956154e+00	7.892258e+01
2.600000e-06	-6.249955e-07	1.114578e-09	-4.327726e+00	7.108098e+01
2.610000e-06	-6.781945e-07	9.898471e-10	-4.696098e+00	6.296355e+01
2.620000e-06	-7.309078e-07	8.577154e-10	-5.061107e+00	5.454437e+01
2.630000e-06	-7.831930e-07	7.232675e-10	-5.423151e+00	4.579293e+01
2.640000e-06	-8.350454e-07	5.882519e-10	-5.782198e+00	3.667533e+01
2.650000e-06	-8.865211e-07	4.478882e-10	-6.138637e+00	2.715628e+01
2.660000e-06	-9.377254e-07	2.963794e-10	-6.493197e+00	1.720167e+01
2.670000e-06	-9.886563e-07	1.364406e-10	-6.845863e+00	6.781784e+00
2.680000e-06	-1.039302e-06	-2.921571e-11	-7.196552e+00	-4.125326e+00
2.690000e-06	-1.089495e-06	-2.002194e-10	-7.544109e+00	-1.553034e+01
2.700000e-06	-1.139174e-06	-3.804648e-10	-7.888107e+00	-2.742951e+01
2.710000e-06	-1.188453e-06	-5.696403e-10	-8.229341e+00	-3.980210e+01
2.720000e-06	-1.237361e-06	-7.634770e-10	-8.567998e+00	-5.260868e+01
2.730000e-06	-1.285772e-06	-9.613251e-10	-8.903212e+00	-6.579058e+01
2.740000e-06	-1.333294e-06	-1.165518e-09	-9.232280e+00	-7.927053e+01
2.750000e-06	-1.379892e-06	-1.378728e-09	-9.554940e+00	-9.295459e+01
2.760000e-06	-1.425998e-06	-1.597043e-09	-9.874200e+00	-1.067354e+02
2.770000e-06	-1.471702e-06	-1.813215e-09	-1.019067e+01	-1.204963e+02
2.780000e-06	-1.517018e-06	-2.024929e-09	-1.050446e+01	-1.341162e+02
2.790000e-06	-1.562010e-06	-2.232435e-09	-1.081600e+01	-1.474754e+02
2.800000e-06	-1.606563e-06	-2.431457e-09	-1.112450e+01	-1.604603e+02
2.810000e-06	-1.650532e-06	-2.619482e-09	-1.142896e+01	-1.729690e+02
2.820000e-06	-1.693934e-06	-2.798796e-09	-1.172949e+01	-1.849152e+02
2.830000e-06	-1.736941e-06	-2.971321e-09	-1.202729e+01	-1.962318e+02
2.840000e-06	-1.779548e-06	-3.136076e-09	-1.232232e+01	-2.068725e+02
2.850000e-06	-1.821557e-06	-3.291123e-09	-1.261321e+01	-2.168127e+02
2.860000e-06	-1.862944e-06	-3.434530e-09	-1.289979e+01	-2.260484e+02
2.870000e-06	-1.903734e-06	-3.565001e-09	-1.318224e+01	-2.345946e+02
2.880000e-06	-1.943799e-06	-3.685298e-09	-1.345966e+01	-2.424819e+02
2.890000e-06	-1.983230e-06	-3.798134e-09	-1.373270e+01	-2.497530e+02
2.900000e-06	-2.022171e-06	-3.903658e-09	-1.400235e+01	-2.564587e+02
2.910000e-06	-2.060444e-06	-3.999902e-09	-1.426736e+01	-2.626533e+02
2.920000e-06	-2.097708e-06	-4.088362e-09	-1.452539e+01	-2.683914e+02
2.930000e-06	-2.133898e-06	-4.171490e-09	-1.477599e+01	-2.737243e+02
2.940000e-06	-2.169289e-06	-4.250246e-09	-1.502105e+01	-2.786975e+02
