# Temperatura_=_29.92
# Concentracion g/m^3_=_15500.0
# C_Vs_to_Am_M_A/Vsm_=_65563218390.804596
# pendiente_HvsI_1/m_=_3716.3
# ordenada_HvsI_A/m_=_1297.0
# frecuencia_Hz_=_300836.53096304106

Tiempo_(s)	Campo_(V.s)	Magnetizacion_(V.s)	Campo_(kA/m)	Magnetizacion_(A/m)
0.000000e+00	-2.863536e-06	-5.235380e-09	-1.980546e+01	-3.424091e+02
1.000000e-08	-2.863150e-06	-5.236778e-09	-1.980279e+01	-3.424610e+02
2.000000e-08	-2.862000e-06	-5.232906e-09	-1.979484e+01	-3.424481e+02
3.000000e-08	-2.859789e-06	-5.227254e-09	-1.977954e+01	-3.423670e+02
4.000000e-08	-2.856328e-06	-5.224838e-09	-1.975560e+01	-3.422156e+02
5.000000e-08	-2.851870e-06	-5.223865e-09	-1.972477e+01	-3.419938e+02
6.000000e-08	-2.846683e-06	-5.218533e-09	-1.968889e+01	-3.417036e+02
7.000000e-08	-2.840652e-06	-5.215561e-09	-1.964718e+01	-3.413488e+02
8.000000e-08	-2.833620e-06	-5.219589e-09	-1.959855e+01	-3.409347e+02
9.000000e-08	-2.825511e-06	-5.211676e-09	-1.954246e+01	-3.404676e+02
1.000000e-07	-2.816177e-06	-5.178402e-09	-1.947790e+01	-3.399539e+02
1.100000e-07	-2.805437e-06	-5.168590e-09	-1.940362e+01	-3.393998e+02
1.200000e-07	-2.793596e-06	-5.192595e-09	-1.932172e+01	-3.388099e+02
1.300000e-07	-2.780941e-06	-5.186424e-09	-1.923420e+01	-3.381873e+02
1.400000e-07	-2.767303e-06	-5.127590e-09	-1.913987e+01	-3.375329e+02
1.500000e-07	-2.752690e-06	-5.138268e-09	-1.903880e+01	-3.368455e+02
1.600000e-07	-2.737110e-06	-5.177883e-09	-1.893104e+01	-3.361217e+02
1.700000e-07	-2.720192e-06	-5.119579e-09	-1.881403e+01	-3.353568e+02
1.800000e-07	-2.702019e-06	-5.095174e-09	-1.868834e+01	-3.345446e+02
1.900000e-07	-2.683147e-06	-5.123806e-09	-1.855781e+01	-3.336789e+02
2.000000e-07	-2.663543e-06	-5.082319e-09	-1.842222e+01	-3.327536e+02
2.100000e-07	-2.643073e-06	-5.032529e-09	-1.828064e+01	-3.317635e+02
2.200000e-07	-2.621840e-06	-5.060541e-09	-1.813378e+01	-3.307048e+02
2.300000e-07	-2.599724e-06	-5.055953e-09	-1.798082e+01	-3.295755e+02
2.400000e-07	-2.576544e-06	-5.004827e-09	-1.782050e+01	-3.283750e+02
2.500000e-07	-2.552452e-06	-4.992350e-09	-1.765386e+01	-3.271046e+02
2.600000e-07	-2.527677e-06	-4.981671e-09	-1.748251e+01	-3.257667e+02
2.700000e-07	-2.502056e-06	-4.943306e-09	-1.730530e+01	-3.243643e+02
2.800000e-07	-2.475353e-06	-4.924981e-09	-1.712062e+01	-3.229009e+02
2.900000e-07	-2.447570e-06	-4.902787e-09	-1.692846e+01	-3.213794e+02
3.000000e-07	-2.418834e-06	-4.878140e-09	-1.672970e+01	-3.198022e+02
3.100000e-07	-2.389303e-06	-4.866797e-09	-1.652546e+01	-3.181708e+02
3.200000e-07	-2.359060e-06	-4.835092e-09	-1.631628e+01	-3.164853e+02
3.300000e-07	-2.328049e-06	-4.815900e-09	-1.610180e+01	-3.147451e+02
3.400000e-07	-2.296228e-06	-4.787078e-09	-1.588171e+01	-3.129488e+02
3.500000e-07	-2.263709e-06	-4.739538e-09	-1.565680e+01	-3.110944e+02
3.600000e-07	-2.230593e-06	-4.725811e-09	-1.542774e+01	-3.091802e+02
3.700000e-07	-2.196674e-06	-4.711949e-09	-1.519315e+01	-3.072048e+02
3.800000e-07	-2.161621e-06	-4.658051e-09	-1.495071e+01	-3.051679e+02
3.900000e-07	-2.125493e-06	-4.636656e-09	-1.470083e+01	-3.030698e+02
4.000000e-07	-2.088700e-06	-4.627419e-09	-1.444635e+01	-3.009125e+02
4.100000e-07	-2.051308e-06	-4.569811e-09	-1.418773e+01	-2.986985e+02
4.200000e-07	-2.013174e-06	-4.523178e-09	-1.392398e+01	-2.964313e+02
4.300000e-07	-1.974304e-06	-4.502605e-09	-1.365514e+01	-2.941148e+02
4.400000e-07	-1.934684e-06	-4.470933e-09	-1.338112e+01	-2.917524e+02
4.500000e-07	-1.894441e-06	-4.433008e-09	-1.310278e+01	-2.893472e+02
4.600000e-07	-1.853779e-06	-4.400147e-09	-1.282154e+01	-2.869010e+02
4.700000e-07	-1.812672e-06	-4.361242e-09	-1.253723e+01	-2.844141e+02
4.800000e-07	-1.770784e-06	-4.318980e-09	-1.224751e+01	-2.818855e+02
4.900000e-07	-1.727799e-06	-4.269525e-09	-1.195020e+01	-2.793122e+02
5.000000e-07	-1.683882e-06	-4.223625e-09	-1.164646e+01	-2.766903e+02
5.100000e-07	-1.639416e-06	-4.190376e-09	-1.133892e+01	-2.740146e+02
5.200000e-07	-1.594558e-06	-4.154812e-09	-1.102866e+01	-2.712795e+02
5.300000e-07	-1.549268e-06	-4.117326e-09	-1.071541e+01	-2.684795e+02
5.400000e-07	-1.503464e-06	-4.077256e-09	-1.039861e+01	-2.656094e+02
5.500000e-07	-1.457146e-06	-4.022586e-09	-1.007825e+01	-2.626653e+02
5.600000e-07	-1.410289e-06	-3.963464e-09	-9.754170e+00	-2.596442e+02
5.700000e-07	-1.362886e-06	-3.920404e-09	-9.426313e+00	-2.565447e+02
5.800000e-07	-1.314957e-06	-3.874415e-09	-9.094812e+00	-2.533666e+02
5.900000e-07	-1.266595e-06	-3.823584e-09	-8.760321e+00	-2.501108e+02
6.000000e-07	-1.217911e-06	-3.783264e-09	-8.423598e+00	-2.467788e+02
6.100000e-07	-1.168847e-06	-3.738048e-09	-8.084253e+00	-2.433727e+02
6.200000e-07	-1.119247e-06	-3.678213e-09	-7.741195e+00	-2.398942e+02
6.300000e-07	-1.069013e-06	-3.617628e-09	-7.393758e+00	-2.363446e+02
6.400000e-07	-1.018156e-06	-3.561661e-09	-7.042010e+00	-2.327243e+02
6.500000e-07	-9.666781e-07	-3.502530e-09	-6.685965e+00	-2.290328e+02
6.600000e-07	-9.147241e-07	-3.443488e-09	-6.326628e+00	-2.252687e+02
6.700000e-07	-8.624529e-07	-3.386266e-09	-5.965098e+00	-2.214299e+02
6.800000e-07	-8.099259e-07	-3.328935e-09	-5.601799e+00	-2.175135e+02
6.900000e-07	-7.571823e-07	-3.268152e-09	-5.237001e+00	-2.135166e+02
7.000000e-07	-7.041706e-07	-3.203394e-09	-4.870349e+00	-2.094363e+02
7.100000e-07	-6.508830e-07	-3.138734e-09	-4.501789e+00	-2.052700e+02
7.200000e-07	-5.973554e-07	-3.075260e-09	-4.131569e+00	-2.010156e+02
7.300000e-07	-5.435906e-07	-3.009846e-09	-3.759708e+00	-1.966716e+02
7.400000e-07	-4.895726e-07	-2.939317e-09	-3.386097e+00	-1.922365e+02
7.500000e-07	-4.353164e-07	-2.865573e-09	-3.010837e+00	-1.877090e+02
7.600000e-07	-3.808966e-07	-2.793166e-09	-2.634446e+00	-1.830870e+02
7.700000e-07	-3.264081e-07	-2.723654e-09	-2.257580e+00	-1.783679e+02
7.800000e-07	-2.718697e-07	-2.651566e-09	-1.880369e+00	-1.735475e+02
7.900000e-07	-2.172621e-07	-2.573935e-09	-1.502679e+00	-1.686199e+02
8.000000e-07	-1.626133e-07	-2.494235e-09	-1.124704e+00	-1.635776e+02
8.100000e-07	-1.079454e-07	-2.416234e-09	-7.465971e-01	-1.584111e+02
8.200000e-07	-5.327536e-08	-2.337636e-09	-3.684755e-01	-1.531098e+02
8.300000e-07	1.432627e-09	-2.252583e-09	9.908672e-03	-1.476617e+02
8.400000e-07	5.617723e-08	-2.161482e-09	3.885461e-01	-1.420547e+02
8.500000e-07	1.108906e-07	-2.070715e-09	7.669675e-01	-1.362768e+02
8.600000e-07	1.655566e-07	-1.982350e-09	1.145061e+00	-1.303171e+02
8.700000e-07	2.201948e-07	-1.890494e-09	1.522963e+00	-1.241658e+02
8.800000e-07	2.747925e-07	-1.793299e-09	1.900584e+00	-1.178146e+02
8.900000e-07	3.293071e-07	-1.692823e-09	2.277630e+00	-1.112568e+02
9.000000e-07	3.836985e-07	-1.589181e-09	2.653825e+00	-1.044861e+02
9.100000e-07	4.379510e-07	-1.483407e-09	3.029059e+00	-9.749670e+01
9.200000e-07	4.920324e-07	-1.375089e-09	3.403110e+00	-9.028140e+01
9.300000e-07	5.459036e-07	-1.261340e-09	3.775706e+00	-8.283087e+01
9.400000e-07	5.995889e-07	-1.141810e-09	4.147017e+00	-7.513233e+01
9.500000e-07	6.530696e-07	-1.019587e-09	4.516913e+00	-6.716856e+01
9.600000e-07	7.062680e-07	-8.939339e-10	4.884856e+00	-5.891742e+01
9.700000e-07	7.591625e-07	-7.619868e-10	5.250697e+00	-5.035181e+01
9.800000e-07	8.117968e-07	-6.228443e-10	5.614738e+00	-4.144044e+01
9.900000e-07	8.641395e-07	-4.780233e-10	5.976763e+00	-3.214926e+01
1.000000e-06	9.161536e-07	-3.285103e-10	6.336515e+00	-2.244370e+01
1.010000e-06	9.677814e-07	-1.710432e-10	6.693596e+00	-1.229153e+01
1.020000e-06	1.018907e-06	-7.493452e-12	7.047200e+00	-1.666093e+00
1.030000e-06	1.069374e-06	1.610664e-10	7.396255e+00	9.450129e+00
1.040000e-06	1.119123e-06	3.374175e-10	7.740340e+00	2.106215e+01
1.050000e-06	1.168304e-06	5.218903e-10	8.080500e+00	3.315949e+01
1.060000e-06	1.217135e-06	7.128079e-10	8.418233e+00	4.571390e+01
1.070000e-06	1.265744e-06	9.093290e-10	8.754438e+00	5.867810e+01
1.080000e-06	1.314058e-06	1.112453e-09	9.088594e+00	7.198569e+01
1.090000e-06	1.361886e-06	1.318561e-09	9.419392e+00	8.555236e+01
1.100000e-06	1.409150e-06	1.526547e-09	9.746290e+00	9.927834e+01
1.110000e-06	1.455937e-06	1.736809e-09	1.006989e+01	1.130521e+02
1.120000e-06	1.502261e-06	1.944770e-09	1.039029e+01	1.267548e+02
1.130000e-06	1.548052e-06	2.145468e-09	1.070700e+01	1.402656e+02
1.140000e-06	1.593330e-06	2.341705e-09	1.102016e+01	1.534671e+02
1.150000e-06	1.638185e-06	2.536367e-09	1.133040e+01	1.662506e+02
1.160000e-06	1.682657e-06	2.724722e-09	1.163799e+01	1.785207e+02
1.170000e-06	1.726586e-06	2.901999e-09	1.194182e+01	1.901994e+02
1.180000e-06	1.769731e-06	3.067137e-09	1.224023e+01	2.012287e+02
1.190000e-06	1.811938e-06	3.222040e-09	1.253215e+01	2.115718e+02
1.200000e-06	1.853259e-06	3.368928e-09	1.281795e+01	2.212132e+02
1.210000e-06	1.893999e-06	3.507279e-09	1.309972e+01	2.301576e+02
1.220000e-06	1.934207e-06	3.633166e-09	1.337782e+01	2.384268e+02
1.230000e-06	1.973775e-06	3.745903e-09	1.365149e+01	2.460571e+02
1.240000e-06	2.012746e-06	3.850204e-09	1.392103e+01	2.530948e+02
1.250000e-06	2.051009e-06	3.948903e-09	1.418567e+01	2.595921e+02
1.260000e-06	2.088509e-06	4.040704e-09	1.444504e+01	2.656036e+02
1.270000e-06	2.125427e-06	4.124850e-09	1.470037e+01	2.711823e+02
1.280000e-06	2.161786e-06	4.203686e-09	1.495185e+01	2.763768e+02
1.290000e-06	2.197367e-06	4.278307e-09	1.519794e+01	2.812295e+02
1.300000e-06	2.231882e-06	4.346761e-09	1.543666e+01	2.857755e+02
1.310000e-06	2.265334e-06	4.408697e-09	1.566803e+01	2.900424e+02
1.320000e-06	2.298041e-06	4.466441e-09	1.589425e+01	2.940508e+02
1.330000e-06	2.330113e-06	4.523255e-09	1.611607e+01	2.978157e+02
1.340000e-06	2.361442e-06	4.577728e-09	1.633276e+01	3.013480e+02
1.350000e-06	2.391974e-06	4.627007e-09	1.654393e+01	3.046560e+02
1.360000e-06	2.421658e-06	4.671057e-09	1.674924e+01	3.077472e+02
1.370000e-06	2.450635e-06	4.711065e-09	1.694966e+01	3.106295e+02
1.380000e-06	2.478977e-06	4.748187e-09	1.714568e+01	3.133124e+02
1.390000e-06	2.506317e-06	4.783671e-09	1.733477e+01	3.158070e+02
1.400000e-06	2.532406e-06	4.818052e-09	1.751522e+01	3.181264e+02
1.410000e-06	2.557444e-06	4.850904e-09	1.768839e+01	3.202850e+02
1.420000e-06	2.581650e-06	4.883648e-09	1.785581e+01	3.222977e+02
1.430000e-06	2.604963e-06	4.914681e-09	1.801705e+01	3.241793e+02
1.440000e-06	2.627359e-06	4.941436e-09	1.817196e+01	3.259433e+02
1.450000e-06	2.648901e-06	4.964796e-09	1.832095e+01	3.276013e+02
1.460000e-06	2.669732e-06	4.985614e-09	1.846502e+01	3.291622e+02
1.470000e-06	2.689807e-06	5.006019e-09	1.860387e+01	3.306324e+02
1.480000e-06	2.708917e-06	5.027449e-09	1.873604e+01	3.320153e+02
1.490000e-06	2.727030e-06	5.048864e-09	1.886132e+01	3.333122e+02
1.500000e-06	2.744163e-06	5.068093e-09	1.897982e+01	3.345230e+02
1.510000e-06	2.760237e-06	5.084613e-09	1.909099e+01	3.356465e+02
1.520000e-06	2.775227e-06	5.100666e-09	1.919467e+01	3.366815e+02
1.530000e-06	2.789189e-06	5.116947e-09	1.929124e+01	3.376277e+02
1.540000e-06	2.802085e-06	5.130240e-09	1.938044e+01	3.384861e+02
1.550000e-06	2.813831e-06	5.138264e-09	1.946167e+01	3.392591e+02
1.560000e-06	2.824256e-06	5.144413e-09	1.953378e+01	3.399510e+02
1.570000e-06	2.833535e-06	5.155288e-09	1.959796e+01	3.405671e+02
1.580000e-06	2.841906e-06	5.170998e-09	1.965585e+01	3.411138e+02
1.590000e-06	2.849373e-06	5.182895e-09	1.970750e+01	3.415976e+02
1.600000e-06	2.855916e-06	5.187848e-09	1.975275e+01	3.420246e+02
1.610000e-06	2.861485e-06	5.192629e-09	1.979127e+01	3.423996e+02
1.620000e-06	2.866181e-06	5.200168e-09	1.982375e+01	3.427259e+02
1.630000e-06	2.869942e-06	5.205890e-09	1.984976e+01	3.430047e+02
1.640000e-06	2.872437e-06	5.207448e-09	1.986702e+01	3.432351e+02
1.650000e-06	2.873725e-06	5.208786e-09	1.987593e+01	3.434147e+02
1.660000e-06	2.874097e-06	5.213413e-09	1.987850e+01	3.435395e+02
1.670000e-06	2.873627e-06	5.218045e-09	1.987525e+01	3.436050e+02
1.680000e-06	2.872268e-06	5.217149e-09	1.986585e+01	3.436067e+02
1.690000e-06	2.870022e-06	5.213281e-09	1.985032e+01	3.435407e+02
1.700000e-06	2.866996e-06	5.212604e-09	1.982938e+01	3.434048e+02
1.710000e-06	2.863102e-06	5.213865e-09	1.980245e+01	3.431984e+02
1.720000e-06	2.858054e-06	5.210340e-09	1.976754e+01	3.429229e+02
1.730000e-06	2.851832e-06	5.193055e-09	1.972451e+01	3.425819e+02
1.740000e-06	2.844734e-06	5.178411e-09	1.967542e+01	3.421803e+02
1.750000e-06	2.836719e-06	5.185016e-09	1.961998e+01	3.417243e+02
1.760000e-06	2.827233e-06	5.203868e-09	1.955437e+01	3.412204e+02
1.770000e-06	2.816190e-06	5.176721e-09	1.947799e+01	3.406748e+02
1.780000e-06	2.804437e-06	5.141604e-09	1.939670e+01	3.400926e+02
1.790000e-06	2.792533e-06	5.163520e-09	1.931437e+01	3.394772e+02
1.800000e-06	2.779660e-06	5.163460e-09	1.922533e+01	3.388300e+02
1.810000e-06	2.765080e-06	5.104360e-09	1.912449e+01	3.381502e+02
1.820000e-06	2.749513e-06	5.103230e-09	1.901683e+01	3.374349e+02
1.830000e-06	2.733397e-06	5.171705e-09	1.890536e+01	3.366796e+02
1.840000e-06	2.716119e-06	5.149861e-09	1.878586e+01	3.358784e+02
1.850000e-06	2.697641e-06	5.094917e-09	1.865805e+01	3.350251e+02
1.860000e-06	2.678497e-06	5.131735e-09	1.852565e+01	3.341133e+02
1.870000e-06	2.658407e-06	5.117735e-09	1.838669e+01	3.331378e+02
1.880000e-06	2.636976e-06	5.046337e-09	1.823847e+01	3.320944e+02
1.890000e-06	2.614561e-06	5.064492e-09	1.808344e+01	3.309806e+02
1.900000e-06	2.591248e-06	5.062436e-09	1.792219e+01	3.297957e+02
1.910000e-06	2.566978e-06	5.017257e-09	1.775433e+01	3.285405e+02
1.920000e-06	2.542037e-06	5.020126e-09	1.758183e+01	3.272171e+02
1.930000e-06	2.516299e-06	5.002659e-09	1.740381e+01	3.258286e+02
1.940000e-06	2.489664e-06	4.960486e-09	1.721960e+01	3.243782e+02
1.950000e-06	2.462382e-06	4.958577e-09	1.703090e+01	3.228693e+02
1.960000e-06	2.434134e-06	4.926927e-09	1.683553e+01	3.213042e+02
1.970000e-06	2.404584e-06	4.878917e-09	1.663115e+01	3.196847e+02
1.980000e-06	2.374048e-06	4.878675e-09	1.641994e+01	3.180112e+02
1.990000e-06	2.342780e-06	4.847161e-09	1.620368e+01	3.162832e+02
2.000000e-06	2.310794e-06	4.816918e-09	1.598245e+01	3.144993e+02
2.010000e-06	2.278069e-06	4.813821e-09	1.575612e+01	3.126579e+02
2.020000e-06	2.244501e-06	4.757537e-09	1.552394e+01	3.107569e+02
2.030000e-06	2.210139e-06	4.722624e-09	1.528628e+01	3.087951e+02
2.040000e-06	2.175197e-06	4.718551e-09	1.504460e+01	3.067716e+02
2.050000e-06	2.139621e-06	4.649457e-09	1.479854e+01	3.046869e+02
2.060000e-06	2.103215e-06	4.607059e-09	1.454675e+01	3.025424e+02
2.070000e-06	2.065784e-06	4.611393e-09	1.428786e+01	3.003406e+02
2.080000e-06	2.027378e-06	4.573136e-09	1.402222e+01	2.980849e+02
2.090000e-06	1.988302e-06	4.532846e-09	1.375196e+01	2.957789e+02
2.100000e-06	1.948642e-06	4.502579e-09	1.347765e+01	2.934264e+02
2.110000e-06	1.908324e-06	4.455481e-09	1.319879e+01	2.910305e+02
2.120000e-06	1.867340e-06	4.410684e-09	1.291533e+01	2.885934e+02
2.130000e-06	1.825789e-06	4.368273e-09	1.262795e+01	2.861156e+02
2.140000e-06	1.783672e-06	4.338092e-09	1.233665e+01	2.835964e+02
2.150000e-06	1.740999e-06	4.311852e-09	1.204150e+01	2.810333e+02
2.160000e-06	1.697864e-06	4.264942e-09	1.174316e+01	2.784226e+02
2.170000e-06	1.654249e-06	4.216297e-09	1.144150e+01	2.757592e+02
2.180000e-06	1.609992e-06	4.175111e-09	1.113540e+01	2.730376e+02
2.190000e-06	1.565071e-06	4.127764e-09	1.082471e+01	2.702523e+02
2.200000e-06	1.519611e-06	4.086779e-09	1.051029e+01	2.673979e+02
2.210000e-06	1.473674e-06	4.052837e-09	1.019257e+01	2.644703e+02
2.220000e-06	1.427350e-06	4.008128e-09	9.872174e+00	2.614662e+02
2.230000e-06	1.380522e-06	3.955343e-09	9.548289e+00	2.583839e+02
2.240000e-06	1.333018e-06	3.908067e-09	9.219732e+00	2.552229e+02
2.250000e-06	1.284884e-06	3.857822e-09	8.886814e+00	2.519840e+02
2.260000e-06	1.236235e-06	3.801007e-09	8.550341e+00	2.486685e+02
2.270000e-06	1.187216e-06	3.756638e-09	8.211300e+00	2.452784e+02
2.280000e-06	1.137808e-06	3.712491e-09	7.869570e+00	2.418156e+02
2.290000e-06	1.087947e-06	3.656922e-09	7.524710e+00	2.382815e+02
2.300000e-06	1.037626e-06	3.600185e-09	7.176673e+00	2.346767e+02
2.310000e-06	9.869105e-07	3.542741e-09	6.825901e+00	2.310009e+02
2.320000e-06	9.358621e-07	3.479198e-09	6.472828e+00	2.272529e+02
2.330000e-06	8.845089e-07	3.414788e-09	6.117647e+00	2.234306e+02
2.340000e-06	8.329260e-07	3.358080e-09	5.760877e+00	2.195314e+02
2.350000e-06	7.809394e-07	3.305562e-09	5.401316e+00	2.155523e+02
2.360000e-06	7.283938e-07	3.245071e-09	5.037887e+00	2.114905e+02
2.370000e-06	6.753817e-07	3.178434e-09	4.671233e+00	2.073431e+02
2.380000e-06	6.219014e-07	3.115664e-09	4.301340e+00	2.031081e+02
2.390000e-06	5.680039e-07	3.054205e-09	3.928561e+00	1.987838e+02
2.400000e-06	5.138528e-07	2.988491e-09	3.554029e+00	1.943686e+02
2.410000e-06	4.595072e-07	2.918692e-09	3.178151e+00	1.898614e+02
2.420000e-06	4.050043e-07	2.851647e-09	2.801185e+00	1.852602e+02
2.430000e-06	3.503507e-07	2.785036e-09	2.423178e+00	1.805625e+02
2.440000e-06	2.955442e-07	2.711192e-09	2.044112e+00	1.757646e+02
2.450000e-06	2.406462e-07	2.631989e-09	1.664414e+00	1.708609e+02
2.460000e-06	1.857169e-07	2.554300e-09	1.284498e+00	1.658442e+02
2.470000e-06	1.307654e-07	2.478669e-09	9.044304e-01	1.607055e+02
2.480000e-06	7.578618e-08	2.399630e-09	5.241701e-01	1.554344e+02
2.490000e-06	2.079105e-08	2.316406e-09	1.437999e-01	1.500191e+02
2.500000e-06	-3.419241e-08	2.232632e-09	-2.364895e-01	1.444474e+02
2.510000e-06	-8.918165e-08	2.147293e-09	-6.168189e-01	1.387075e+02
2.520000e-06	-1.441744e-07	2.057691e-09	-9.971728e-01	1.327880e+02
2.530000e-06	-1.991407e-07	1.963362e-09	-1.377344e+00	1.266788e+02
2.540000e-06	-2.540661e-07	1.865008e-09	-1.757231e+00	1.203714e+02
2.550000e-06	-3.089468e-07	1.765437e-09	-2.136810e+00	1.138587e+02
2.560000e-06	-3.637549e-07	1.665851e-09	-2.515887e+00	1.071345e+02
2.570000e-06	-4.184313e-07	1.562542e-09	-2.894052e+00	1.001928e+02
2.580000e-06	-4.729459e-07	1.454140e-09	-3.271099e+00	9.302693e+01
2.590000e-06	-5.272230e-07	1.342410e-09	-3.646503e+00	8.562808e+01
2.600000e-06	-5.812356e-07	1.227640e-09	-4.020078e+00	7.798430e+01
2.610000e-06	-6.349005e-07	1.106277e-09	-4.391247e+00	7.007939e+01
2.620000e-06	-6.881151e-07	9.776956e-10	-4.759303e+00	6.189228e+01
2.630000e-06	-7.408740e-07	8.462788e-10	-5.124206e+00	5.339690e+01
2.640000e-06	-7.931559e-07	7.125012e-10	-5.485810e+00	4.456274e+01
2.650000e-06	-8.450179e-07	5.742415e-10	-5.844510e+00	3.535621e+01
2.660000e-06	-8.965331e-07	4.295184e-10	-6.200812e+00	2.574263e+01
2.670000e-06	-9.477406e-07	2.780006e-10	-6.554985e+00	1.568897e+01
2.680000e-06	-9.986904e-07	1.201378e-10	-6.907376e+00	5.167119e+00
2.690000e-06	-1.049325e-06	-4.563118e-11	-7.257585e+00	-5.842706e+00
2.700000e-06	-1.099497e-06	-2.211967e-10	-7.604596e+00	-1.734847e+01
2.710000e-06	-1.149141e-06	-4.045040e-10	-7.947961e+00	-2.934323e+01
2.720000e-06	-1.198357e-06	-5.923731e-10	-8.288355e+00	-4.180268e+01
2.730000e-06	-1.247123e-06	-7.861275e-10	-8.625644e+00	-5.468369e+01
2.740000e-06	-1.295262e-06	-9.888646e-10	-8.958594e+00	-6.792388e+01
2.750000e-06	-1.342638e-06	-1.198294e-09	-9.286266e+00	-8.144262e+01
2.760000e-06	-1.389258e-06	-1.410975e-09	-9.608714e+00	-9.514319e+01
2.770000e-06	-1.435295e-06	-1.625784e-09	-9.927123e+00	-1.089162e+02
2.780000e-06	-1.480953e-06	-1.841062e-09	-1.024291e+01	-1.226440e+02
2.790000e-06	-1.526282e-06	-2.054138e-09	-1.055642e+01	-1.362056e+02
2.800000e-06	-1.571237e-06	-2.258982e-09	-1.086735e+01	-1.494826e+02
2.810000e-06	-1.615685e-06	-2.452581e-09	-1.117478e+01	-1.623639e+02
2.820000e-06	-1.659529e-06	-2.639085e-09	-1.147802e+01	-1.747509e+02
2.830000e-06	-1.702874e-06	-2.820226e-09	-1.177782e+01	-1.865616e+02
2.840000e-06	-1.745831e-06	-2.994003e-09	-1.207493e+01	-1.977336e+02
2.850000e-06	-1.788366e-06	-3.157056e-09	-1.236912e+01	-2.082254e+02
2.860000e-06	-1.830311e-06	-3.308632e-09	-1.265922e+01	-2.180171e+02
2.870000e-06	-1.871642e-06	-3.449492e-09	-1.294509e+01	-2.271092e+02
2.880000e-06	-1.912356e-06	-3.578586e-09	-1.322668e+01	-2.355202e+02
2.890000e-06	-1.952344e-06	-3.696244e-09	-1.350326e+01	-2.432835e+02
2.900000e-06	-1.991720e-06	-3.804803e-09	-1.377560e+01	-2.504435e+02
2.910000e-06	-2.030581e-06	-3.905930e-09	-1.404438e+01	-2.570517e+02
2.920000e-06	-2.068723e-06	-4.001459e-09	-1.430818e+01	-2.631625e+02
2.930000e-06	-2.105847e-06	-4.091860e-09	-1.456495e+01	-2.688293e+02
2.940000e-06	-2.141949e-06	-4.175537e-09	-1.481465e+01	-2.741019e+02
