# Temperatura_=_27.96
# Concentracion g/m^3_=_15500.0
# C_Vs_to_Am_M_A/Vsm_=_65563218390.804596
# pendiente_HvsI_1/m_=_3716.3
# ordenada_HvsI_A/m_=_1297.0
# frecuencia_Hz_=_300834.3044391595

Tiempo_(s)	Campo_(V.s)	Magnetizacion_(V.s)	Campo_(kA/m)	Magnetizacion_(A/m)
0.000000e+00	-2.862012e-06	-5.213477e-09	-1.980601e+01	-3.416987e+02
1.000000e-08	-2.861580e-06	-5.212231e-09	-1.980302e+01	-3.417382e+02
2.000000e-08	-2.860389e-06	-5.206287e-09	-1.979478e+01	-3.417162e+02
3.000000e-08	-2.858211e-06	-5.201521e-09	-1.977971e+01	-3.416291e+02
4.000000e-08	-2.854806e-06	-5.201228e-09	-1.975614e+01	-3.414742e+02
5.000000e-08	-2.850331e-06	-5.201545e-09	-1.972518e+01	-3.412507e+02
6.000000e-08	-2.845045e-06	-5.197078e-09	-1.968859e+01	-3.409591e+02
7.000000e-08	-2.838916e-06	-5.187924e-09	-1.964617e+01	-3.406020e+02
8.000000e-08	-2.831813e-06	-5.189148e-09	-1.959702e+01	-3.401834e+02
9.000000e-08	-2.823616e-06	-5.208034e-09	-1.954030e+01	-3.397084e+02
1.000000e-07	-2.814120e-06	-5.201162e-09	-1.947458e+01	-3.391826e+02
1.100000e-07	-2.803257e-06	-5.140066e-09	-1.939940e+01	-3.386113e+02
1.200000e-07	-2.791414e-06	-5.102104e-09	-1.931745e+01	-3.379992e+02
1.300000e-07	-2.778831e-06	-5.157172e-09	-1.923037e+01	-3.373494e+02
1.400000e-07	-2.765242e-06	-5.177428e-09	-1.913633e+01	-3.366635e+02
1.500000e-07	-2.750624e-06	-5.091058e-09	-1.903517e+01	-3.359414e+02
1.600000e-07	-2.734968e-06	-5.098864e-09	-1.892683e+01	-3.351808e+02
1.700000e-07	-2.717874e-06	-5.169871e-09	-1.880853e+01	-3.343785e+02
1.800000e-07	-2.699558e-06	-5.113817e-09	-1.868178e+01	-3.335299e+02
1.900000e-07	-2.680668e-06	-5.052880e-09	-1.855105e+01	-3.326300e+02
2.000000e-07	-2.661068e-06	-5.098217e-09	-1.841542e+01	-3.316742e+02
2.100000e-07	-2.640455e-06	-5.061011e-09	-1.827276e+01	-3.306581e+02
2.200000e-07	-2.619055e-06	-4.984762e-09	-1.812467e+01	-3.295787e+02
2.300000e-07	-2.596916e-06	-5.049234e-09	-1.797146e+01	-3.284341e+02
2.400000e-07	-2.573759e-06	-5.058861e-09	-1.781121e+01	-3.272236e+02
2.500000e-07	-2.549649e-06	-4.961283e-09	-1.764436e+01	-3.259479e+02
2.600000e-07	-2.524834e-06	-4.953115e-09	-1.747263e+01	-3.246087e+02
2.700000e-07	-2.499127e-06	-4.970964e-09	-1.729473e+01	-3.232079e+02
2.800000e-07	-2.472342e-06	-4.916209e-09	-1.710937e+01	-3.217476e+02
2.900000e-07	-2.444532e-06	-4.884266e-09	-1.691692e+01	-3.202299e+02
3.000000e-07	-2.415765e-06	-4.873743e-09	-1.671784e+01	-3.186558e+02
3.100000e-07	-2.386161e-06	-4.862338e-09	-1.651297e+01	-3.170259e+02
3.200000e-07	-2.355850e-06	-4.848419e-09	-1.630321e+01	-3.153395e+02
3.300000e-07	-2.324805e-06	-4.811854e-09	-1.608837e+01	-3.135957e+02
3.400000e-07	-2.292906e-06	-4.773941e-09	-1.586762e+01	-3.117927e+02
3.500000e-07	-2.260297e-06	-4.745431e-09	-1.564195e+01	-3.099289e+02
3.600000e-07	-2.227167e-06	-4.714083e-09	-1.541268e+01	-3.080028e+02
3.700000e-07	-2.193215e-06	-4.698298e-09	-1.517773e+01	-3.060137e+02
3.800000e-07	-2.158043e-06	-4.673160e-09	-1.493432e+01	-3.039618e+02
3.900000e-07	-2.121845e-06	-4.624044e-09	-1.468383e+01	-3.018485e+02
4.000000e-07	-2.085003e-06	-4.611638e-09	-1.442887e+01	-2.996762e+02
4.100000e-07	-2.047579e-06	-4.584684e-09	-1.416988e+01	-2.974483e+02
4.200000e-07	-2.009425e-06	-4.517114e-09	-1.390584e+01	-2.951688e+02
4.300000e-07	-1.970507e-06	-4.474984e-09	-1.363652e+01	-2.928418e+02
4.400000e-07	-1.930810e-06	-4.458986e-09	-1.336180e+01	-2.904710e+02
4.500000e-07	-1.890477e-06	-4.425699e-09	-1.308268e+01	-2.880593e+02
4.600000e-07	-1.849771e-06	-4.385168e-09	-1.280099e+01	-2.856083e+02
4.700000e-07	-1.808666e-06	-4.350190e-09	-1.251653e+01	-2.831181e+02
4.800000e-07	-1.766804e-06	-4.309947e-09	-1.222683e+01	-2.805870e+02
4.900000e-07	-1.723880e-06	-4.262901e-09	-1.192978e+01	-2.780119e+02
5.000000e-07	-1.679949e-06	-4.217431e-09	-1.162576e+01	-2.753882e+02
5.100000e-07	-1.635416e-06	-4.180487e-09	-1.131759e+01	-2.727104e+02
5.200000e-07	-1.590551e-06	-4.138935e-09	-1.100710e+01	-2.699729e+02
5.300000e-07	-1.545246e-06	-4.101559e-09	-1.069358e+01	-2.671699e+02
5.400000e-07	-1.499383e-06	-4.064765e-09	-1.037620e+01	-2.642964e+02
5.500000e-07	-1.452929e-06	-4.013497e-09	-1.005471e+01	-2.613487e+02
5.600000e-07	-1.405954e-06	-3.956033e-09	-9.729633e+00	-2.583242e+02
5.700000e-07	-1.358436e-06	-3.911487e-09	-9.400798e+00	-2.552219e+02
5.800000e-07	-1.310452e-06	-3.869299e-09	-9.068732e+00	-2.520421e+02
5.900000e-07	-1.262121e-06	-3.818468e-09	-8.734265e+00	-2.487861e+02
6.000000e-07	-1.213453e-06	-3.771945e-09	-8.397469e+00	-2.454561e+02
6.100000e-07	-1.164415e-06	-3.724585e-09	-8.058115e+00	-2.420541e+02
6.200000e-07	-1.114882e-06	-3.668915e-09	-7.715329e+00	-2.385823e+02
6.300000e-07	-1.064745e-06	-3.609752e-09	-7.368365e+00	-2.350419e+02
6.400000e-07	-1.013963e-06	-3.553381e-09	-7.016938e+00	-2.314332e+02
6.500000e-07	-9.625572e-07	-3.496079e-09	-6.661194e+00	-2.277555e+02
6.600000e-07	-9.105818e-07	-3.438933e-09	-6.301507e+00	-2.240068e+02
6.700000e-07	-8.582355e-07	-3.381800e-09	-5.939255e+00	-2.201844e+02
6.800000e-07	-8.056815e-07	-3.321329e-09	-5.575565e+00	-2.162849e+02
6.900000e-07	-7.528633e-07	-3.258740e-09	-5.210046e+00	-2.123047e+02
7.000000e-07	-6.997533e-07	-3.195503e-09	-4.842509e+00	-2.082401e+02
7.100000e-07	-6.464426e-07	-3.134751e-09	-4.473583e+00	-2.040880e+02
7.200000e-07	-5.929208e-07	-3.072548e-09	-4.103195e+00	-1.998458e+02
7.300000e-07	-5.391890e-07	-3.005605e-09	-3.731355e+00	-1.955113e+02
7.400000e-07	-4.852334e-07	-2.934318e-09	-3.357965e+00	-1.910831e+02
7.500000e-07	-4.310261e-07	-2.859913e-09	-2.982834e+00	-1.865596e+02
7.600000e-07	-3.766663e-07	-2.785356e-09	-2.606647e+00	-1.819388e+02
7.700000e-07	-3.222183e-07	-2.711940e-09	-2.229850e+00	-1.772184e+02
7.800000e-07	-2.677252e-07	-2.638936e-09	-1.852741e+00	-1.723946e+02
7.900000e-07	-2.131840e-07	-2.566227e-09	-1.475299e+00	-1.674620e+02
8.000000e-07	-1.585778e-07	-2.492210e-09	-1.097407e+00	-1.624138e+02
8.100000e-07	-1.039206e-07	-2.412888e-09	-7.191629e-01	-1.572412e+02
8.200000e-07	-4.922330e-08	-2.329040e-09	-3.406405e-01	-1.519344e+02
8.300000e-07	5.482289e-09	-2.241625e-09	3.793914e-02	-1.464824e+02
8.400000e-07	6.015743e-08	-2.151779e-09	4.163080e-01	-1.408736e+02
8.500000e-07	1.147966e-07	-2.061237e-09	7.944282e-01	-1.350971e+02
8.600000e-07	1.694222e-07	-1.970666e-09	1.172454e+00	-1.291423e+02
8.700000e-07	2.240233e-07	-1.878412e-09	1.550311e+00	-1.230001e+02
8.800000e-07	2.786135e-07	-1.784222e-09	1.928091e+00	-1.166627e+02
8.900000e-07	3.331378e-07	-1.688830e-09	2.305416e+00	-1.101232e+02
9.000000e-07	3.875451e-07	-1.586852e-09	2.681932e+00	-1.033759e+02
9.100000e-07	4.418129e-07	-1.479064e-09	3.057482e+00	-9.641429e+01
9.200000e-07	4.958601e-07	-1.368025e-09	3.431506e+00	-8.923110e+01
9.300000e-07	5.496835e-07	-1.251554e-09	3.803980e+00	-8.181636e+01
9.400000e-07	6.032901e-07	-1.129626e-09	4.174954e+00	-7.415658e+01
9.500000e-07	6.566710e-07	-1.005202e-09	4.544366e+00	-6.623369e+01
9.600000e-07	7.098123e-07	-8.790770e-10	4.912120e+00	-5.802463e+01
9.700000e-07	7.626865e-07	-7.511854e-10	5.278026e+00	-4.950134e+01
9.800000e-07	8.153488e-07	-6.191660e-10	5.642466e+00	-4.063162e+01
9.900000e-07	8.677698e-07	-4.794525e-10	6.005235e+00	-3.138060e+01
1.000000e-06	9.198057e-07	-3.298593e-10	6.365340e+00	-2.171304e+01
1.010000e-06	9.713413e-07	-1.690732e-10	6.721982e+00	-1.159625e+01
1.020000e-06	1.022307e-06	-2.126434e-12	7.074679e+00	-1.003395e+00
1.030000e-06	1.072597e-06	1.686522e-10	7.422704e+00	1.008297e+01
1.040000e-06	1.122189e-06	3.454317e-10	7.765894e+00	2.166749e+01
1.050000e-06	1.171298e-06	5.286413e-10	8.105746e+00	3.373900e+01
1.060000e-06	1.220130e-06	7.170076e-10	8.443678e+00	4.626836e+01
1.070000e-06	1.268717e-06	9.106557e-10	8.779916e+00	5.920719e+01
1.080000e-06	1.316960e-06	1.110148e-09	9.113772e+00	7.248787e+01
1.090000e-06	1.364737e-06	1.315972e-09	9.444402e+00	8.602485e+01
1.100000e-06	1.412001e-06	1.526837e-09	9.771483e+00	9.971719e+01
1.110000e-06	1.458758e-06	1.738001e-09	1.009506e+01	1.134523e+02
1.120000e-06	1.505008e-06	1.947442e-09	1.041512e+01	1.271108e+02
1.130000e-06	1.550691e-06	2.151966e-09	1.073126e+01	1.405713e+02
1.140000e-06	1.595844e-06	2.348240e-09	1.104373e+01	1.537166e+02
1.150000e-06	1.640642e-06	2.537598e-09	1.135375e+01	1.664382e+02
1.160000e-06	1.685108e-06	2.721509e-09	1.166147e+01	1.786418e+02
1.170000e-06	1.729062e-06	2.898507e-09	1.196565e+01	1.902506e+02
1.180000e-06	1.772194e-06	3.063904e-09	1.226413e+01	2.012081e+02
1.190000e-06	1.814266e-06	3.218435e-09	1.255528e+01	2.114795e+02
1.200000e-06	1.855489e-06	3.366000e-09	1.284055e+01	2.210513e+02
1.210000e-06	1.896212e-06	3.504925e-09	1.312237e+01	2.299297e+02
1.220000e-06	1.936399e-06	3.631851e-09	1.340048e+01	2.381387e+02
1.230000e-06	1.975918e-06	3.745596e-09	1.367396e+01	2.457158e+02
1.240000e-06	2.014753e-06	3.849316e-09	1.394271e+01	2.527082e+02
1.250000e-06	2.052844e-06	3.946853e-09	1.420632e+01	2.591691e+02
1.260000e-06	2.090206e-06	4.038571e-09	1.446487e+01	2.651527e+02
1.270000e-06	2.127027e-06	4.123356e-09	1.471969e+01	2.707116e+02
1.280000e-06	2.163361e-06	4.202790e-09	1.497113e+01	2.758934e+02
1.290000e-06	2.198867e-06	4.278529e-09	1.521684e+01	2.807391e+02
1.300000e-06	2.233240e-06	4.349397e-09	1.545471e+01	2.852820e+02
1.310000e-06	2.266586e-06	4.413697e-09	1.568547e+01	2.895479e+02
1.320000e-06	2.299227e-06	4.471630e-09	1.591136e+01	2.935554e+02
1.330000e-06	2.331242e-06	4.525753e-09	1.613291e+01	2.973176e+02
1.340000e-06	2.362480e-06	4.577461e-09	1.634909e+01	3.008440e+02
1.350000e-06	2.392929e-06	4.626323e-09	1.655981e+01	3.041417e+02
1.360000e-06	2.422565e-06	4.671626e-09	1.676490e+01	3.072176e+02
1.370000e-06	2.451461e-06	4.712635e-09	1.696487e+01	3.100797e+02
1.380000e-06	2.479709e-06	4.750724e-09	1.716035e+01	3.127377e+02
1.390000e-06	2.506962e-06	4.788554e-09	1.734895e+01	3.152039e+02
1.400000e-06	2.532903e-06	4.824882e-09	1.752847e+01	3.174928e+02
1.410000e-06	2.557822e-06	4.856297e-09	1.770092e+01	3.196203e+02
1.420000e-06	2.581928e-06	4.883142e-09	1.786774e+01	3.216033e+02
1.430000e-06	2.605134e-06	4.909534e-09	1.802833e+01	3.234585e+02
1.440000e-06	2.627446e-06	4.938170e-09	1.818274e+01	3.252009e+02
1.450000e-06	2.648934e-06	4.964639e-09	1.833144e+01	3.268435e+02
1.460000e-06	2.669732e-06	4.984143e-09	1.847537e+01	3.283961e+02
1.470000e-06	2.689711e-06	5.001447e-09	1.861363e+01	3.298654e+02
1.480000e-06	2.708697e-06	5.023737e-09	1.874502e+01	3.312548e+02
1.490000e-06	2.726703e-06	5.048964e-09	1.886963e+01	3.325649e+02
1.500000e-06	2.743739e-06	5.068749e-09	1.898752e+01	3.337942e+02
1.510000e-06	2.759711e-06	5.082623e-09	1.909806e+01	3.349400e+02
1.520000e-06	2.774593e-06	5.096730e-09	1.920104e+01	3.359994e+02
1.530000e-06	2.788456e-06	5.112508e-09	1.929698e+01	3.369701e+02
1.540000e-06	2.801311e-06	5.125203e-09	1.938594e+01	3.378511e+02
1.550000e-06	2.812974e-06	5.133747e-09	1.946665e+01	3.386433e+02
1.560000e-06	2.823306e-06	5.143754e-09	1.953815e+01	3.393495e+02
1.570000e-06	2.832547e-06	5.158334e-09	1.960210e+01	3.399742e+02
1.580000e-06	2.840901e-06	5.173606e-09	1.965991e+01	3.405234e+02
1.590000e-06	2.848322e-06	5.182595e-09	1.971127e+01	3.410036e+02
1.600000e-06	2.854730e-06	5.185082e-09	1.975561e+01	3.414215e+02
1.610000e-06	2.860198e-06	5.186222e-09	1.979346e+01	3.417828e+02
1.620000e-06	2.864878e-06	5.189858e-09	1.982584e+01	3.420922e+02
1.630000e-06	2.868555e-06	5.196080e-09	1.985129e+01	3.423522e+02
1.640000e-06	2.870921e-06	5.202241e-09	1.986766e+01	3.425636e+02
1.650000e-06	2.872168e-06	5.208301e-09	1.987629e+01	3.427251e+02
1.660000e-06	2.872487e-06	5.213140e-09	1.987850e+01	3.428339e+02
1.670000e-06	2.871903e-06	5.214222e-09	1.987446e+01	3.428863e+02
1.680000e-06	2.870461e-06	5.208725e-09	1.986448e+01	3.428781e+02
1.690000e-06	2.868128e-06	5.202561e-09	1.984834e+01	3.428055e+02
1.700000e-06	2.865034e-06	5.202406e-09	1.982692e+01	3.426656e+02
1.710000e-06	2.861137e-06	5.203981e-09	1.979996e+01	3.424571e+02
1.720000e-06	2.856044e-06	5.204247e-09	1.976471e+01	3.421802e+02
1.730000e-06	2.849715e-06	5.203677e-09	1.972091e+01	3.418371e+02
1.740000e-06	2.842566e-06	5.187211e-09	1.967143e+01	3.414315e+02
1.750000e-06	2.834507e-06	5.151913e-09	1.961566e+01	3.409685e+02
1.760000e-06	2.824934e-06	5.155233e-09	1.954941e+01	3.404533e+02
1.770000e-06	2.813782e-06	5.204365e-09	1.947224e+01	3.398917e+02
1.780000e-06	2.801988e-06	5.190923e-09	1.939063e+01	3.392883e+02
1.790000e-06	2.790189e-06	5.122878e-09	1.930897e+01	3.386466e+02
1.800000e-06	2.777329e-06	5.107107e-09	1.921997e+01	3.379688e+02
1.810000e-06	2.762645e-06	5.150312e-09	1.911835e+01	3.372548e+02
1.820000e-06	2.747060e-06	5.105082e-09	1.901050e+01	3.365030e+02
1.830000e-06	2.730979e-06	5.070211e-09	1.889922e+01	3.357102e+02
1.840000e-06	2.713594e-06	5.149845e-09	1.877891e+01	3.348722e+02
1.850000e-06	2.695002e-06	5.134514e-09	1.865025e+01	3.339840e+02
1.860000e-06	2.675878e-06	5.044024e-09	1.851790e+01	3.330409e+02
1.870000e-06	2.655819e-06	5.081287e-09	1.837909e+01	3.320383e+02
1.880000e-06	2.634382e-06	5.104897e-09	1.823074e+01	3.309729e+02
1.890000e-06	2.611981e-06	5.002779e-09	1.807572e+01	3.298426e+02
1.900000e-06	2.588671e-06	4.995715e-09	1.791441e+01	3.286465e+02
1.910000e-06	2.564330e-06	5.044085e-09	1.774596e+01	3.273850e+02
1.920000e-06	2.539297e-06	4.988368e-09	1.757272e+01	3.260595e+02
1.930000e-06	2.513473e-06	4.948477e-09	1.739401e+01	3.246720e+02
1.940000e-06	2.486774e-06	4.960997e-09	1.720924e+01	3.232246e+02
1.950000e-06	2.459477e-06	4.931991e-09	1.702034e+01	3.217193e+02
1.960000e-06	2.431166e-06	4.907165e-09	1.682442e+01	3.201576e+02
1.970000e-06	2.401464e-06	4.860246e-09	1.661887e+01	3.185399e+02
1.980000e-06	2.370817e-06	4.826837e-09	1.640679e+01	3.168660e+02
1.990000e-06	2.339497e-06	4.841425e-09	1.619004e+01	3.151349e+02
2.000000e-06	2.307443e-06	4.800459e-09	1.596822e+01	3.133450e+02
2.010000e-06	2.274621e-06	4.760026e-09	1.574108e+01	3.114946e+02
2.020000e-06	2.240947e-06	4.757273e-09	1.550804e+01	3.095822e+02
2.030000e-06	2.206577e-06	4.698446e-09	1.527019e+01	3.076069e+02
2.040000e-06	2.171676e-06	4.662505e-09	1.502867e+01	3.055687e+02
2.050000e-06	2.136031e-06	4.650476e-09	1.478200e+01	3.034686e+02
2.060000e-06	2.099538e-06	4.582073e-09	1.452945e+01	3.013090e+02
2.070000e-06	2.062030e-06	4.564820e-09	1.426988e+01	2.990930e+02
2.080000e-06	2.023502e-06	4.564465e-09	1.400326e+01	2.968245e+02
2.090000e-06	1.984390e-06	4.504995e-09	1.373259e+01	2.945076e+02
2.100000e-06	1.944746e-06	4.466508e-09	1.345824e+01	2.921462e+02
2.110000e-06	1.904389e-06	4.432272e-09	1.317896e+01	2.897433e+02
2.120000e-06	1.863393e-06	4.381759e-09	1.289525e+01	2.873010e+02
2.130000e-06	1.821823e-06	4.345548e-09	1.260758e+01	2.848195e+02
2.140000e-06	1.779649e-06	4.308890e-09	1.231572e+01	2.822977e+02
2.150000e-06	1.736915e-06	4.282186e-09	1.201999e+01	2.797326e+02
2.160000e-06	1.693753e-06	4.244807e-09	1.172130e+01	2.771200e+02
2.170000e-06	1.650150e-06	4.190873e-09	1.141955e+01	2.744547e+02
2.180000e-06	1.605898e-06	4.153610e-09	1.111331e+01	2.717307e+02
2.190000e-06	1.560934e-06	4.106154e-09	1.080215e+01	2.689424e+02
2.200000e-06	1.515394e-06	4.056534e-09	1.048700e+01	2.660847e+02
2.210000e-06	1.469464e-06	4.021829e-09	1.016914e+01	2.631535e+02
2.220000e-06	1.423159e-06	3.976843e-09	9.848699e+00	2.601459e+02
2.230000e-06	1.376296e-06	3.930562e-09	9.524397e+00	2.570605e+02
2.240000e-06	1.328829e-06	3.880855e-09	9.195905e+00	2.538975e+02
2.250000e-06	1.280732e-06	3.829467e-09	8.863061e+00	2.506580e+02
2.260000e-06	1.232105e-06	3.781578e-09	8.526547e+00	2.473439e+02
2.270000e-06	1.183111e-06	3.729898e-09	8.187494e+00	2.439575e+02
2.280000e-06	1.133730e-06	3.679238e-09	7.845760e+00	2.405007e+02
2.290000e-06	1.083919e-06	3.622912e-09	7.501057e+00	2.369752e+02
2.300000e-06	1.033642e-06	3.564983e-09	7.153124e+00	2.333815e+02
2.310000e-06	9.829291e-07	3.512202e-09	6.802173e+00	2.297190e+02
2.320000e-06	9.319234e-07	3.453348e-09	6.449198e+00	2.259860e+02
2.330000e-06	8.806271e-07	3.393093e-09	6.094212e+00	2.221799e+02
2.340000e-06	8.289741e-07	3.337244e-09	5.736757e+00	2.182976e+02
2.350000e-06	7.768943e-07	3.280284e-09	5.376349e+00	2.143352e+02
2.360000e-06	7.243262e-07	3.219716e-09	5.012561e+00	2.102892e+02
2.370000e-06	6.712790e-07	3.152222e-09	4.645458e+00	2.061564e+02
2.380000e-06	6.177948e-07	3.088475e-09	4.275331e+00	2.019340e+02
2.390000e-06	5.639522e-07	3.029013e-09	3.902724e+00	1.976198e+02
2.400000e-06	5.097640e-07	2.965252e-09	3.527724e+00	1.932120e+02
2.410000e-06	4.553085e-07	2.899176e-09	3.150876e+00	1.887093e+02
2.420000e-06	4.007344e-07	2.831966e-09	2.773206e+00	1.841099e+02
2.430000e-06	3.460514e-07	2.764857e-09	2.394783e+00	1.794114e+02
2.440000e-06	2.912307e-07	2.690538e-09	2.015407e+00	1.746104e+02
2.450000e-06	2.363358e-07	2.609755e-09	1.635517e+00	1.697019e+02
2.460000e-06	1.814135e-07	2.534294e-09	1.255438e+00	1.646794e+02
2.470000e-06	1.265025e-07	2.461049e-09	8.754364e-01	1.595346e+02
2.480000e-06	7.158698e-08	2.382968e-09	4.954040e-01	1.542577e+02
2.490000e-06	1.665171e-08	2.299714e-09	1.152350e-01	1.488380e+02
2.500000e-06	-3.832028e-08	2.213754e-09	-2.651882e-01	1.432641e+02
2.510000e-06	-9.329868e-08	2.127982e-09	-6.456557e-01	1.375247e+02
2.520000e-06	-1.482552e-07	2.039138e-09	-1.025972e+00	1.316092e+02
2.530000e-06	-2.031970e-07	1.944222e-09	-1.406186e+00	1.255082e+02
2.540000e-06	-2.580649e-07	1.845585e-09	-1.785889e+00	1.192134e+02
2.550000e-06	-3.128288e-07	1.746784e-09	-2.164872e+00	1.127181e+02
2.560000e-06	-3.675064e-07	1.650633e-09	-2.543258e+00	1.060161e+02
2.570000e-06	-4.220923e-07	1.549197e-09	-2.921009e+00	9.910124e+01
2.580000e-06	-4.765120e-07	1.439241e-09	-3.297610e+00	9.196655e+01
2.590000e-06	-5.307853e-07	1.327238e-09	-3.673199e+00	8.460271e+01
2.600000e-06	-5.848003e-07	1.214309e-09	-4.046999e+00	7.699707e+01
2.610000e-06	-6.383516e-07	1.095773e-09	-4.417590e+00	6.913261e+01
2.620000e-06	-6.914873e-07	9.682439e-10	-4.785306e+00	6.098735e+01
2.630000e-06	-7.442031e-07	8.366026e-10	-5.150116e+00	5.253426e+01
2.640000e-06	-7.965028e-07	7.035857e-10	-5.512046e+00	4.374193e+01
2.650000e-06	-8.483573e-07	5.658073e-10	-5.870895e+00	3.457589e+01
2.660000e-06	-8.997477e-07	4.205900e-10	-6.226532e+00	2.500076e+01
2.670000e-06	-9.508285e-07	2.682620e-10	-6.580027e+00	1.498303e+01
2.680000e-06	-1.001645e-06	1.110819e-10	-6.931692e+00	4.494309e+00
2.690000e-06	-1.052190e-06	-5.284936e-11	-7.281478e+00	-6.485153e+00
2.700000e-06	-1.102301e-06	-2.272180e-10	-7.628263e+00	-1.796300e+01
2.710000e-06	-1.151862e-06	-4.100876e-10	-7.971241e+00	-2.993170e+01
2.720000e-06	-1.201015e-06	-5.986749e-10	-8.311396e+00	-4.236607e+01
2.730000e-06	-1.249816e-06	-7.945538e-10	-8.649115e+00	-5.522192e+01
2.740000e-06	-1.297966e-06	-9.965888e-10	-8.982329e+00	-6.843569e+01
2.750000e-06	-1.345241e-06	-1.202532e-09	-9.309483e+00	-8.192549e+01
2.760000e-06	-1.391823e-06	-1.413260e-09	-9.631847e+00	-9.559340e+01
2.770000e-06	-1.437833e-06	-1.628104e-09	-9.950246e+00	-1.093290e+02
2.780000e-06	-1.483434e-06	-1.842981e-09	-1.026582e+01	-1.230138e+02
2.790000e-06	-1.528760e-06	-2.053663e-09	-1.057949e+01	-1.365266e+02
2.800000e-06	-1.573717e-06	-2.256787e-09	-1.089061e+01	-1.497486e+02
2.810000e-06	-1.618125e-06	-2.450580e-09	-1.119792e+01	-1.625692e+02
2.820000e-06	-1.661906e-06	-2.638351e-09	-1.150090e+01	-1.748907e+02
2.830000e-06	-1.705220e-06	-2.818178e-09	-1.180065e+01	-1.866321e+02
2.840000e-06	-1.748159e-06	-2.986893e-09	-1.209780e+01	-1.977326e+02
2.850000e-06	-1.790606e-06	-3.146594e-09	-1.239155e+01	-2.081526e+02
2.860000e-06	-1.832455e-06	-3.297813e-09	-1.268116e+01	-2.178741e+02
2.870000e-06	-1.873714e-06	-3.437571e-09	-1.296668e+01	-2.268994e+02
2.880000e-06	-1.914348e-06	-3.564697e-09	-1.324788e+01	-2.352488e+02
2.890000e-06	-1.954264e-06	-3.681705e-09	-1.352411e+01	-2.429573e+02
2.900000e-06	-1.993566e-06	-3.791319e-09	-1.379609e+01	-2.500704e+02
2.910000e-06	-2.032391e-06	-3.893035e-09	-1.406478e+01	-2.566403e+02
2.920000e-06	-2.070457e-06	-3.986586e-09	-1.432820e+01	-2.627213e+02
2.930000e-06	-2.107467e-06	-4.073135e-09	-1.458432e+01	-2.683667e+02
2.940000e-06	-2.143469e-06	-4.153667e-09	-1.483347e+01	-2.736254e+02
