# Temperatura_=_26.48
# Concentracion g/m^3_=_15500.0
# C_Vs_to_Am_M_A/Vsm_=_65563218390.804596
# pendiente_HvsI_1/m_=_3716.3
# ordenada_HvsI_A/m_=_1297.0
# frecuencia_Hz_=_300838.3869138263

Tiempo_(s)	Campo_(V.s)	Magnetizacion_(V.s)	Campo_(kA/m)	Magnetizacion_(A/m)
0.000000e+00	-2.859904e-06	-5.216834e-09	-1.980225e+01	-3.413129e+02
1.000000e-08	-2.859488e-06	-5.216429e-09	-1.979937e+01	-3.413761e+02
2.000000e-08	-2.858363e-06	-5.211202e-09	-1.979158e+01	-3.413769e+02
3.000000e-08	-2.856216e-06	-5.206041e-09	-1.977671e+01	-3.413112e+02
4.000000e-08	-2.852768e-06	-5.203728e-09	-1.975284e+01	-3.411764e+02
5.000000e-08	-2.848339e-06	-5.201857e-09	-1.972217e+01	-3.409710e+02
6.000000e-08	-2.843193e-06	-5.197345e-09	-1.968654e+01	-3.406957e+02
7.000000e-08	-2.837160e-06	-5.191930e-09	-1.964477e+01	-3.403527e+02
8.000000e-08	-2.830079e-06	-5.199492e-09	-1.959574e+01	-3.399458e+02
9.000000e-08	-2.821905e-06	-5.209461e-09	-1.953914e+01	-3.394803e+02
1.000000e-07	-2.812469e-06	-5.185548e-09	-1.947380e+01	-3.389618e+02
1.100000e-07	-2.801633e-06	-5.122172e-09	-1.939878e+01	-3.383959e+02
1.200000e-07	-2.789758e-06	-5.132069e-09	-1.931655e+01	-3.377875e+02
1.300000e-07	-2.777107e-06	-5.181640e-09	-1.922896e+01	-3.371405e+02
1.400000e-07	-2.763469e-06	-5.150836e-09	-1.913452e+01	-3.364568e+02
1.500000e-07	-2.748818e-06	-5.073814e-09	-1.903307e+01	-3.357369e+02
1.600000e-07	-2.733145e-06	-5.134468e-09	-1.892456e+01	-3.349792e+02
1.700000e-07	-2.716067e-06	-5.171764e-09	-1.880631e+01	-3.341806e+02
1.800000e-07	-2.697793e-06	-5.072424e-09	-1.867978e+01	-3.333368e+02
1.900000e-07	-2.678932e-06	-5.082707e-09	-1.854918e+01	-3.324428e+02
2.000000e-07	-2.659359e-06	-5.112168e-09	-1.841365e+01	-3.314937e+02
2.100000e-07	-2.638835e-06	-5.026904e-09	-1.827155e+01	-3.304846e+02
2.200000e-07	-2.617509e-06	-5.004062e-09	-1.812388e+01	-3.294120e+02
2.300000e-07	-2.595414e-06	-5.072167e-09	-1.797090e+01	-3.282730e+02
2.400000e-07	-2.572304e-06	-5.025696e-09	-1.781088e+01	-3.270666e+02
2.500000e-07	-2.548213e-06	-4.961820e-09	-1.764407e+01	-3.257925e+02
2.600000e-07	-2.523384e-06	-4.971273e-09	-1.747215e+01	-3.244519e+02
2.700000e-07	-2.497753e-06	-4.958015e-09	-1.729468e+01	-3.230466e+02
2.800000e-07	-2.471056e-06	-4.903051e-09	-1.710983e+01	-3.215787e+02
2.900000e-07	-2.443200e-06	-4.882121e-09	-1.691695e+01	-3.200505e+02
3.000000e-07	-2.414426e-06	-4.864150e-09	-1.671772e+01	-3.184637e+02
3.100000e-07	-2.384890e-06	-4.858969e-09	-1.651321e+01	-3.168198e+02
3.200000e-07	-2.354648e-06	-4.843199e-09	-1.630380e+01	-3.151192e+02
3.300000e-07	-2.323672e-06	-4.796349e-09	-1.608933e+01	-3.133620e+02
3.400000e-07	-2.291843e-06	-4.779980e-09	-1.586894e+01	-3.115476e+02
3.500000e-07	-2.259343e-06	-4.732594e-09	-1.564391e+01	-3.096754e+02
3.600000e-07	-2.226301e-06	-4.695545e-09	-1.541512e+01	-3.077447e+02
3.700000e-07	-2.192410e-06	-4.698538e-09	-1.518046e+01	-3.057551e+02
3.800000e-07	-2.157271e-06	-4.658655e-09	-1.493715e+01	-3.037069e+02
3.900000e-07	-2.121079e-06	-4.607072e-09	-1.468655e+01	-3.016010e+02
4.000000e-07	-2.084289e-06	-4.617000e-09	-1.443181e+01	-2.994391e+02
4.100000e-07	-2.046869e-06	-4.579812e-09	-1.417272e+01	-2.972236e+02
4.200000e-07	-2.008711e-06	-4.502812e-09	-1.390851e+01	-2.949572e+02
4.300000e-07	-1.969875e-06	-4.477117e-09	-1.363960e+01	-2.926425e+02
4.400000e-07	-1.930291e-06	-4.454627e-09	-1.336552e+01	-2.902822e+02
4.500000e-07	-1.890019e-06	-4.415382e-09	-1.308667e+01	-2.878778e+02
4.600000e-07	-1.849367e-06	-4.374984e-09	-1.280520e+01	-2.854302e+02
4.700000e-07	-1.808317e-06	-4.338711e-09	-1.252096e+01	-2.829390e+02
4.800000e-07	-1.766467e-06	-4.297780e-09	-1.223119e+01	-2.804024e+02
4.900000e-07	-1.723553e-06	-4.256020e-09	-1.193405e+01	-2.778177e+02
5.000000e-07	-1.679710e-06	-4.209938e-09	-1.163047e+01	-2.751811e+02
5.100000e-07	-1.635294e-06	-4.171612e-09	-1.132293e+01	-2.724884e+02
5.200000e-07	-1.590488e-06	-4.133344e-09	-1.101269e+01	-2.697351e+02
5.300000e-07	-1.545223e-06	-4.093952e-09	-1.069927e+01	-2.669173e+02
5.400000e-07	-1.499419e-06	-4.057537e-09	-1.038212e+01	-2.640314e+02
5.500000e-07	-1.453059e-06	-4.001023e-09	-1.006112e+01	-2.610751e+02
5.600000e-07	-1.406186e-06	-3.940018e-09	-9.736566e+00	-2.580471e+02
5.700000e-07	-1.358797e-06	-3.895668e-09	-9.408442e+00	-2.549473e+02
5.800000e-07	-1.310896e-06	-3.859518e-09	-9.076768e+00	-2.517764e+02
5.900000e-07	-1.262596e-06	-3.811328e-09	-8.742332e+00	-2.485360e+02
6.000000e-07	-1.213904e-06	-3.767117e-09	-8.405185e+00	-2.452279e+02
6.100000e-07	-1.164822e-06	-3.721575e-09	-8.065342e+00	-2.418535e+02
6.200000e-07	-1.115267e-06	-3.661411e-09	-7.722218e+00	-2.384141e+02
6.300000e-07	-1.065098e-06	-3.599777e-09	-7.374839e+00	-2.349096e+02
6.400000e-07	-1.014261e-06	-3.541029e-09	-7.022837e+00	-2.313393e+02
6.500000e-07	-9.628113e-07	-3.485289e-09	-6.666597e+00	-2.277011e+02
6.600000e-07	-9.109238e-07	-3.429435e-09	-6.307323e+00	-2.239918e+02
6.700000e-07	-8.586868e-07	-3.375995e-09	-5.945629e+00	-2.202078e+02
6.800000e-07	-8.061950e-07	-3.318312e-09	-5.582171e+00	-2.163448e+02
6.900000e-07	-7.534699e-07	-3.257658e-09	-5.217097e+00	-2.123985e+02
7.000000e-07	-7.004465e-07	-3.194403e-09	-4.849958e+00	-2.083653e+02
7.100000e-07	-6.471392e-07	-3.129013e-09	-4.480853e+00	-2.042417e+02
7.200000e-07	-5.936324e-07	-3.062836e-09	-4.110367e+00	-2.000255e+02
7.300000e-07	-5.399362e-07	-2.995678e-09	-3.738570e+00	-1.957149e+02
7.400000e-07	-4.859957e-07	-2.928974e-09	-3.365081e+00	-1.913086e+02
7.500000e-07	-4.318737e-07	-2.856982e-09	-2.990335e+00	-1.868059e+02
7.600000e-07	-3.775893e-07	-2.783369e-09	-2.614464e+00	-1.822053e+02
7.700000e-07	-3.231883e-07	-2.709629e-09	-2.237787e+00	-1.775047e+02
7.800000e-07	-2.687411e-07	-2.637339e-09	-1.860789e+00	-1.727007e+02
7.900000e-07	-2.142220e-07	-2.563970e-09	-1.483294e+00	-1.677882e+02
8.000000e-07	-1.596387e-07	-2.487884e-09	-1.105354e+00	-1.627602e+02
8.100000e-07	-1.050109e-07	-2.409206e-09	-7.271053e-01	-1.576078e+02
8.200000e-07	-5.037442e-08	-2.327262e-09	-3.487973e-01	-1.523205e+02
8.300000e-07	4.277041e-09	-2.242080e-09	2.961464e-02	-1.468868e+02
8.400000e-07	5.895964e-08	-2.150810e-09	4.082421e-01	-1.412946e+02
8.500000e-07	1.136093e-07	-2.058021e-09	7.866419e-01	-1.355319e+02
8.600000e-07	1.681841e-07	-1.967191e-09	1.164523e+00	-1.295874e+02
8.700000e-07	2.227301e-07	-1.877642e-09	1.542205e+00	-1.234513e+02
8.800000e-07	2.772419e-07	-1.786186e-09	1.919649e+00	-1.171152e+02
8.900000e-07	3.316631e-07	-1.690476e-09	2.296467e+00	-1.105721e+02
9.000000e-07	3.859704e-07	-1.586280e-09	2.672495e+00	-1.038160e+02
9.100000e-07	4.401582e-07	-1.476968e-09	3.047697e+00	-9.684119e+01
9.200000e-07	4.941999e-07	-1.367263e-09	3.421887e+00	-8.964101e+01
9.300000e-07	5.480341e-07	-1.252626e-09	3.794640e+00	-8.220682e+01
9.400000e-07	6.016529e-07	-1.131431e-09	4.165902e+00	-7.452674e+01
9.500000e-07	6.550398e-07	-1.006510e-09	4.535558e+00	-6.658470e+01
9.600000e-07	7.081067e-07	-8.818654e-10	4.902998e+00	-5.835981e+01
9.700000e-07	7.609116e-07	-7.544381e-10	5.268625e+00	-4.982629e+01
9.800000e-07	8.135122e-07	-6.201671e-10	5.632836e+00	-4.095415e+01
9.900000e-07	8.658825e-07	-4.766743e-10	5.995453e+00	-3.171049e+01
1.000000e-06	9.179231e-07	-3.262955e-10	6.355787e+00	-2.206165e+01
1.010000e-06	9.695044e-07	-1.687413e-10	6.712941e+00	-1.197593e+01
1.020000e-06	1.020541e-06	-2.549206e-12	7.066325e+00	-1.426834e+00
1.030000e-06	1.070885e-06	1.688413e-10	7.414907e+00	9.603538e+00
1.040000e-06	1.120513e-06	3.428414e-10	7.758536e+00	2.112107e+01
1.050000e-06	1.169618e-06	5.208692e-10	8.098547e+00	3.311666e+01
1.060000e-06	1.218421e-06	7.069684e-10	8.436464e+00	4.556386e+01
1.070000e-06	1.266958e-06	9.015300e-10	8.772539e+00	5.841758e+01
1.080000e-06	1.315146e-06	1.103868e-09	9.106193e+00	7.161382e+01
1.090000e-06	1.362890e-06	1.309899e-09	9.436777e+00	8.507077e+01
1.100000e-06	1.410135e-06	1.517064e-09	9.763912e+00	9.869112e+01
1.110000e-06	1.456873e-06	1.726063e-09	1.008753e+01	1.123655e+02
1.120000e-06	1.503066e-06	1.933036e-09	1.040737e+01	1.259771e+02
1.130000e-06	1.548667e-06	2.132844e-09	1.072312e+01	1.394065e+02
1.140000e-06	1.593760e-06	2.326948e-09	1.103535e+01	1.525371e+02
1.150000e-06	1.638535e-06	2.520893e-09	1.134537e+01	1.652606e+02
1.160000e-06	1.682960e-06	2.710390e-09	1.165297e+01	1.774815e+02
1.170000e-06	1.726805e-06	2.888766e-09	1.195656e+01	1.891212e+02
1.180000e-06	1.769810e-06	3.052875e-09	1.225433e+01	2.001204e+02
1.190000e-06	1.811817e-06	3.205505e-09	1.254519e+01	2.104410e+02
1.200000e-06	1.853019e-06	3.350538e-09	1.283048e+01	2.200662e+02
1.210000e-06	1.893691e-06	3.487255e-09	1.311210e+01	2.289989e+02
1.220000e-06	1.933857e-06	3.613919e-09	1.339021e+01	2.372597e+02
1.230000e-06	1.973400e-06	3.727742e-09	1.366401e+01	2.448834e+02
1.240000e-06	2.012286e-06	3.832823e-09	1.393326e+01	2.519154e+02
1.250000e-06	2.050447e-06	3.932029e-09	1.419749e+01	2.584071e+02
1.260000e-06	2.087816e-06	4.023750e-09	1.445624e+01	2.644125e+02
1.270000e-06	2.124596e-06	4.107040e-09	1.471091e+01	2.699844e+02
1.280000e-06	2.160883e-06	4.184508e-09	1.496216e+01	2.751714e+02
1.290000e-06	2.196354e-06	4.258019e-09	1.520776e+01	2.800159e+02
1.300000e-06	2.230738e-06	4.326341e-09	1.544584e+01	2.845530e+02
1.310000e-06	2.264121e-06	4.387776e-09	1.567699e+01	2.888102e+02
1.320000e-06	2.296773e-06	4.444614e-09	1.590307e+01	2.928084e+02
1.330000e-06	2.328805e-06	4.501359e-09	1.612487e+01	2.965621e+02
1.340000e-06	2.360092e-06	4.556374e-09	1.634150e+01	3.000822e+02
1.350000e-06	2.390536e-06	4.606715e-09	1.655230e+01	3.033765e+02
1.360000e-06	2.420121e-06	4.650558e-09	1.675715e+01	3.064525e+02
1.370000e-06	2.449003e-06	4.689257e-09	1.695713e+01	3.093179e+02
1.380000e-06	2.477255e-06	4.725198e-09	1.715275e+01	3.119821e+02
1.390000e-06	2.504495e-06	4.759414e-09	1.734136e+01	3.144564e+02
1.400000e-06	2.530467e-06	4.792742e-09	1.752119e+01	3.167543e+02
1.410000e-06	2.555411e-06	4.824195e-09	1.769391e+01	3.188909e+02
1.420000e-06	2.579544e-06	4.855371e-09	1.786101e+01	3.208823e+02
1.430000e-06	2.602841e-06	4.888371e-09	1.802232e+01	3.227441e+02
1.440000e-06	2.625217e-06	4.919222e-09	1.817725e+01	3.244913e+02
1.450000e-06	2.646708e-06	4.942682e-09	1.832606e+01	3.261366e+02
1.460000e-06	2.667479e-06	4.960237e-09	1.846988e+01	3.276901e+02
1.470000e-06	2.687471e-06	4.977754e-09	1.860830e+01	3.291591e+02
1.480000e-06	2.706527e-06	4.999339e-09	1.874025e+01	3.305475e+02
1.490000e-06	2.724650e-06	5.022619e-09	1.886574e+01	3.318569e+02
1.500000e-06	2.741825e-06	5.041642e-09	1.898465e+01	3.330867e+02
1.510000e-06	2.757918e-06	5.058438e-09	1.909609e+01	3.342349e+02
1.520000e-06	2.772860e-06	5.077283e-09	1.919955e+01	3.352993e+02
1.530000e-06	2.786732e-06	5.094351e-09	1.929560e+01	3.362780e+02
1.540000e-06	2.799625e-06	5.105658e-09	1.938487e+01	3.371703e+02
1.550000e-06	2.811397e-06	5.112617e-09	1.946638e+01	3.379772e+02
1.560000e-06	2.821784e-06	5.120896e-09	1.953830e+01	3.387011e+02
1.570000e-06	2.831001e-06	5.134293e-09	1.960212e+01	3.393462e+02
1.580000e-06	2.839309e-06	5.148104e-09	1.965965e+01	3.399181e+02
1.590000e-06	2.846688e-06	5.158182e-09	1.971074e+01	3.404227e+02
1.600000e-06	2.853085e-06	5.166013e-09	1.975503e+01	3.408662e+02
1.610000e-06	2.858547e-06	5.173236e-09	1.979285e+01	3.412539e+02
1.620000e-06	2.863213e-06	5.179015e-09	1.982516e+01	3.415898e+02
1.630000e-06	2.866906e-06	5.182472e-09	1.985073e+01	3.418762e+02
1.640000e-06	2.869310e-06	5.184563e-09	1.986738e+01	3.421137e+02
1.650000e-06	2.870560e-06	5.188844e-09	1.987603e+01	3.423008e+02
1.660000e-06	2.870917e-06	5.194441e-09	1.987850e+01	3.424345e+02
1.670000e-06	2.870412e-06	5.196846e-09	1.987501e+01	3.425110e+02
1.680000e-06	2.868976e-06	5.195101e-09	1.986506e+01	3.425259e+02
1.690000e-06	2.866634e-06	5.193438e-09	1.984885e+01	3.424751e+02
1.700000e-06	2.863590e-06	5.194698e-09	1.982777e+01	3.423556e+02
1.710000e-06	2.859702e-06	5.194812e-09	1.980085e+01	3.421657e+02
1.720000e-06	2.854616e-06	5.191020e-09	1.976564e+01	3.419056e+02
1.730000e-06	2.848348e-06	5.185388e-09	1.972223e+01	3.415772e+02
1.740000e-06	2.841199e-06	5.162132e-09	1.967273e+01	3.411840e+02
1.750000e-06	2.833128e-06	5.144951e-09	1.961685e+01	3.407310e+02
1.760000e-06	2.823557e-06	5.165909e-09	1.955058e+01	3.402237e+02
1.770000e-06	2.812414e-06	5.201405e-09	1.947342e+01	3.396678e+02
1.780000e-06	2.800674e-06	5.151484e-09	1.939213e+01	3.390685e+02
1.790000e-06	2.788888e-06	5.105096e-09	1.931053e+01	3.384299e+02
1.800000e-06	2.775987e-06	5.141432e-09	1.922120e+01	3.377544e+02
1.810000e-06	2.761319e-06	5.131959e-09	1.911963e+01	3.370427e+02
1.820000e-06	2.745771e-06	5.066778e-09	1.901198e+01	3.362937e+02
1.830000e-06	2.729633e-06	5.095430e-09	1.890024e+01	3.355045e+02
1.840000e-06	2.712217e-06	5.175517e-09	1.877965e+01	3.346712e+02
1.850000e-06	2.693613e-06	5.103906e-09	1.865083e+01	3.337888e+02
1.860000e-06	2.674437e-06	5.055052e-09	1.851806e+01	3.328522e+02
1.870000e-06	2.654350e-06	5.132479e-09	1.837898e+01	3.318567e+02
1.880000e-06	2.632926e-06	5.080018e-09	1.823063e+01	3.307983e+02
1.890000e-06	2.610499e-06	4.999048e-09	1.807534e+01	3.296741e+02
1.900000e-06	2.587134e-06	5.043258e-09	1.791356e+01	3.284825e+02
1.910000e-06	2.562812e-06	5.026507e-09	1.774516e+01	3.272232e+02
1.920000e-06	2.537838e-06	4.983468e-09	1.757223e+01	3.258972e+02
1.930000e-06	2.512039e-06	4.982549e-09	1.739360e+01	3.245059e+02
1.940000e-06	2.485327e-06	4.957940e-09	1.720864e+01	3.230516e+02
1.950000e-06	2.458048e-06	4.940627e-09	1.701976e+01	3.215365e+02
1.960000e-06	2.429799e-06	4.921923e-09	1.682416e+01	3.199625e+02
1.970000e-06	2.400199e-06	4.854270e-09	1.661921e+01	3.183311e+02
1.980000e-06	2.369651e-06	4.854427e-09	1.640769e+01	3.166429e+02
1.990000e-06	2.338367e-06	4.860812e-09	1.619108e+01	3.148983e+02
2.000000e-06	2.306358e-06	4.783170e-09	1.596944e+01	3.130966e+02
2.010000e-06	2.273590e-06	4.785092e-09	1.574255e+01	3.112372e+02
2.020000e-06	2.239948e-06	4.770208e-09	1.550962e+01	3.093195e+02
2.030000e-06	2.205563e-06	4.677886e-09	1.527153e+01	3.073428e+02
2.040000e-06	2.170598e-06	4.686198e-09	1.502942e+01	3.053075e+02
2.050000e-06	2.134945e-06	4.664673e-09	1.478256e+01	3.032142e+02
2.060000e-06	2.098499e-06	4.575082e-09	1.453020e+01	3.010645e+02
2.070000e-06	2.061119e-06	4.586009e-09	1.427139e+01	2.988606e+02
2.080000e-06	2.022735e-06	4.572184e-09	1.400561e+01	2.966052e+02
2.090000e-06	1.983633e-06	4.501860e-09	1.373486e+01	2.943011e+02
2.100000e-06	1.943957e-06	4.477599e-09	1.346015e+01	2.919507e+02
2.110000e-06	1.903645e-06	4.435462e-09	1.318102e+01	2.895560e+02
2.120000e-06	1.862714e-06	4.390400e-09	1.289761e+01	2.871181e+02
2.130000e-06	1.821196e-06	4.355638e-09	1.261013e+01	2.846367e+02
2.140000e-06	1.779046e-06	4.313684e-09	1.231829e+01	2.821103e+02
2.150000e-06	1.736325e-06	4.297725e-09	1.202248e+01	2.795366e+02
2.160000e-06	1.693211e-06	4.256211e-09	1.172395e+01	2.769118e+02
2.170000e-06	1.649662e-06	4.196238e-09	1.142242e+01	2.742319e+02
2.180000e-06	1.605424e-06	4.156929e-09	1.111611e+01	2.714923e+02
2.190000e-06	1.560494e-06	4.109344e-09	1.080501e+01	2.686890e+02
2.200000e-06	1.515046e-06	4.060606e-09	1.049033e+01	2.658183e+02
2.210000e-06	1.469202e-06	4.026697e-09	1.017290e+01	2.628776e+02
2.220000e-06	1.422970e-06	3.985334e-09	9.852782e+00	2.598654e+02
2.230000e-06	1.376228e-06	3.938130e-09	9.529133e+00	2.567813e+02
2.240000e-06	1.328873e-06	3.887556e-09	9.201240e+00	2.536259e+02
2.250000e-06	1.280876e-06	3.837358e-09	8.868908e+00	2.504006e+02
2.260000e-06	1.232335e-06	3.782071e-09	8.532805e+00	2.471072e+02
2.270000e-06	1.183342e-06	3.729685e-09	8.193575e+00	2.437473e+02
2.280000e-06	1.133951e-06	3.691080e-09	7.851583e+00	2.403221e+02
2.290000e-06	1.084125e-06	3.638109e-09	7.506581e+00	2.368320e+02
2.300000e-06	1.033801e-06	3.580193e-09	7.158139e+00	2.332763e+02
2.310000e-06	9.830284e-07	3.522445e-09	6.806582e+00	2.296532e+02
2.320000e-06	9.319655e-07	3.459532e-09	6.453018e+00	2.259598e+02
2.330000e-06	8.806641e-07	3.399628e-09	6.097802e+00	2.221925e+02
2.340000e-06	8.290805e-07	3.341381e-09	5.740632e+00	2.183471e+02
2.350000e-06	7.770157e-07	3.288435e-09	5.380130e+00	2.144195e+02
2.360000e-06	7.244289e-07	3.232753e-09	5.016015e+00	2.104055e+02
2.370000e-06	6.714627e-07	3.168523e-09	4.649271e+00	2.063019e+02
2.380000e-06	6.181378e-07	3.106034e-09	4.280045e+00	2.021061e+02
2.390000e-06	5.644542e-07	3.042757e-09	3.908335e+00	1.978161e+02
2.400000e-06	5.103914e-07	2.974839e-09	3.533999e+00	1.934308e+02
2.410000e-06	4.560433e-07	2.907162e-09	3.157687e+00	1.889492e+02
2.420000e-06	4.015234e-07	2.840945e-09	2.780186e+00	1.843701e+02
2.430000e-06	3.468551e-07	2.776457e-09	2.401658e+00	1.796915e+02
2.440000e-06	2.920546e-07	2.704353e-09	2.022214e+00	1.749104e+02
2.450000e-06	2.371922e-07	2.626067e-09	1.642342e+00	1.700221e+02
2.460000e-06	1.822812e-07	2.551223e-09	1.262132e+00	1.650198e+02
2.470000e-06	1.273627e-07	2.473465e-09	8.818711e-01	1.598953e+02
2.480000e-06	7.244831e-08	2.391076e-09	5.016390e-01	1.546382e+02
2.490000e-06	1.746912e-08	2.306718e-09	1.209578e-01	1.492373e+02
2.500000e-06	-3.752770e-08	2.223897e-09	-2.598453e-01	1.436805e+02
2.510000e-06	-9.249977e-08	2.139679e-09	-6.404772e-01	1.379556e+02
2.520000e-06	-1.474603e-07	2.050055e-09	-1.021029e+00	1.320513e+02
2.530000e-06	-2.023855e-07	1.957130e-09	-1.401336e+00	1.259574e+02
2.540000e-06	-2.572729e-07	1.860596e-09	-1.781382e+00	1.196651e+02
2.550000e-06	-3.121037e-07	1.761351e-09	-2.161036e+00	1.131673e+02
2.560000e-06	-3.668151e-07	1.662562e-09	-2.539863e+00	1.064577e+02
2.570000e-06	-4.213850e-07	1.560195e-09	-2.917710e+00	9.953062e+01
2.580000e-06	-4.758306e-07	1.449515e-09	-3.294697e+00	9.237974e+01
2.590000e-06	-5.300835e-07	1.334323e-09	-3.670349e+00	8.499693e+01
2.600000e-06	-5.839222e-07	1.217452e-09	-4.043133e+00	7.737110e+01
2.610000e-06	-6.373675e-07	1.098820e-09	-4.413193e+00	6.948715e+01
2.620000e-06	-6.904687e-07	9.744256e-10	-4.780871e+00	6.132524e+01
2.630000e-06	-7.430227e-07	8.443860e-10	-5.144760e+00	5.286062e+01
2.640000e-06	-7.950836e-07	7.101318e-10	-5.505235e+00	4.406410e+01
2.650000e-06	-8.468375e-07	5.702812e-10	-5.863584e+00	3.490326e+01
2.660000e-06	-8.982856e-07	4.255400e-10	-6.219815e+00	2.534439e+01
2.670000e-06	-9.494430e-07	2.750879e-10	-6.574033e+00	1.535512e+01
2.680000e-06	-1.000306e-06	1.170673e-10	-6.926213e+00	4.907531e+00
2.690000e-06	-1.050761e-06	-4.874584e-11	-7.275571e+00	-6.018393e+00
2.700000e-06	-1.100770e-06	-2.200429e-10	-7.621836e+00	-1.743139e+01
2.710000e-06	-1.150382e-06	-3.980792e-10	-7.965355e+00	-2.932577e+01
2.720000e-06	-1.199567e-06	-5.851816e-10	-8.305920e+00	-4.167899e+01
2.730000e-06	-1.248249e-06	-7.812026e-10	-8.642993e+00	-5.444998e+01
2.740000e-06	-1.296307e-06	-9.836521e-10	-8.975752e+00	-6.757877e+01
2.750000e-06	-1.343563e-06	-1.189785e-09	-9.302960e+00	-8.098720e+01
2.760000e-06	-1.390070e-06	-1.399478e-09	-9.624976e+00	-9.458102e+01
2.770000e-06	-1.435981e-06	-1.612379e-09	-9.942870e+00	-1.082531e+02
2.780000e-06	-1.481463e-06	-1.825440e-09	-1.025779e+01	-1.218879e+02
2.790000e-06	-1.526675e-06	-2.034509e-09	-1.057084e+01	-1.353659e+02
2.800000e-06	-1.571557e-06	-2.236992e-09	-1.088161e+01	-1.485697e+02
2.810000e-06	-1.615892e-06	-2.432797e-09	-1.118859e+01	-1.613886e+02
2.820000e-06	-1.659623e-06	-2.623996e-09	-1.149139e+01	-1.737241e+02
2.830000e-06	-1.702910e-06	-2.806396e-09	-1.179111e+01	-1.854936e+02
2.840000e-06	-1.745834e-06	-2.974749e-09	-1.208832e+01	-1.966336e+02
2.850000e-06	-1.788259e-06	-3.131149e-09	-1.238208e+01	-2.071014e+02
2.860000e-06	-1.830044e-06	-3.280676e-09	-1.267140e+01	-2.168757e+02
2.870000e-06	-1.871245e-06	-3.424035e-09	-1.295668e+01	-2.259553e+02
2.880000e-06	-1.911844e-06	-3.555713e-09	-1.323779e+01	-2.343572e+02
2.890000e-06	-1.951752e-06	-3.675095e-09	-1.351411e+01	-2.421135e+02
2.900000e-06	-1.991072e-06	-3.785572e-09	-1.378637e+01	-2.492677e+02
2.910000e-06	-2.029851e-06	-3.889052e-09	-1.405488e+01	-2.558703e+02
2.920000e-06	-2.067895e-06	-3.985037e-09	-1.431830e+01	-2.619750e+02
2.930000e-06	-2.104919e-06	-4.071725e-09	-1.457466e+01	-2.676352e+02
2.940000e-06	-2.140917e-06	-4.150907e-09	-1.482391e+01	-2.729005e+02
