# Temperatura_=_22.22
# Concentracion g/m^3_=_15500.0
# C_Vs_to_Am_M_A/Vsm_=_65563218390.804596
# pendiente_HvsI_1/m_=_3716.3
# ordenada_HvsI_A/m_=_1297.0
# frecuencia_Hz_=_300837.8993278368

Tiempo_(s)	Campo_(V.s)	Magnetizacion_(V.s)	Campo_(kA/m)	Magnetizacion_(A/m)
0.000000e+00	-2.860700e-06	-5.102960e-09	-1.980468e+01	-3.337020e+02
1.000000e-08	-2.859870e-06	-5.100219e-09	-1.979894e+01	-3.337361e+02
2.000000e-08	-2.858089e-06	-5.095447e-09	-1.978661e+01	-3.337051e+02
3.000000e-08	-2.855083e-06	-5.092424e-09	-1.976579e+01	-3.336037e+02
4.000000e-08	-2.850960e-06	-5.091960e-09	-1.973725e+01	-3.334279e+02
5.000000e-08	-2.845995e-06	-5.090282e-09	-1.970288e+01	-3.331759e+02
6.000000e-08	-2.840209e-06	-5.084998e-09	-1.966283e+01	-3.328481e+02
7.000000e-08	-2.833424e-06	-5.081961e-09	-1.961585e+01	-3.324476e+02
8.000000e-08	-2.825618e-06	-5.079551e-09	-1.956181e+01	-3.319795e+02
9.000000e-08	-2.816639e-06	-5.073216e-09	-1.949964e+01	-3.314510e+02
1.000000e-07	-2.806217e-06	-5.051782e-09	-1.942750e+01	-3.308701e+02
1.100000e-07	-2.794610e-06	-5.040202e-09	-1.934714e+01	-3.302453e+02
1.200000e-07	-2.782230e-06	-5.032163e-09	-1.926143e+01	-3.295844e+02
1.300000e-07	-2.769024e-06	-5.019460e-09	-1.917001e+01	-3.288935e+02
1.400000e-07	-2.754800e-06	-5.023601e-09	-1.907154e+01	-3.281768e+02
1.500000e-07	-2.739518e-06	-5.001169e-09	-1.896574e+01	-3.274361e+02
1.600000e-07	-2.722969e-06	-4.993108e-09	-1.885117e+01	-3.266703e+02
1.700000e-07	-2.705161e-06	-4.990508e-09	-1.872789e+01	-3.258760e+02
1.800000e-07	-2.686569e-06	-4.976398e-09	-1.859917e+01	-3.250476e+02
1.900000e-07	-2.667348e-06	-4.952450e-09	-1.846610e+01	-3.241780e+02
2.000000e-07	-2.647239e-06	-4.924695e-09	-1.832689e+01	-3.232596e+02
2.100000e-07	-2.626204e-06	-4.918438e-09	-1.818127e+01	-3.222846e+02
2.200000e-07	-2.604384e-06	-4.900525e-09	-1.803020e+01	-3.212463e+02
2.300000e-07	-2.581684e-06	-4.895244e-09	-1.787305e+01	-3.201391e+02
2.400000e-07	-2.558021e-06	-4.894262e-09	-1.770923e+01	-3.189597e+02
2.500000e-07	-2.533567e-06	-4.851538e-09	-1.753994e+01	-3.177065e+02
2.600000e-07	-2.508234e-06	-4.819974e-09	-1.736455e+01	-3.163799e+02
2.700000e-07	-2.481783e-06	-4.817536e-09	-1.718144e+01	-3.149820e+02
2.800000e-07	-2.454279e-06	-4.776251e-09	-1.699102e+01	-3.135165e+02
2.900000e-07	-2.425837e-06	-4.744934e-09	-1.679412e+01	-3.119873e+02
3.000000e-07	-2.396545e-06	-4.739155e-09	-1.659133e+01	-3.103989e+02
3.100000e-07	-2.366558e-06	-4.731160e-09	-1.638373e+01	-3.087553e+02
3.200000e-07	-2.335858e-06	-4.702690e-09	-1.617119e+01	-3.070597e+02
3.300000e-07	-2.304335e-06	-4.673125e-09	-1.595296e+01	-3.053142e+02
3.400000e-07	-2.272084e-06	-4.641001e-09	-1.572968e+01	-3.035200e+02
3.500000e-07	-2.239216e-06	-4.597998e-09	-1.550214e+01	-3.016769e+02
3.600000e-07	-2.205564e-06	-4.578501e-09	-1.526916e+01	-2.997840e+02
3.700000e-07	-2.170779e-06	-4.562406e-09	-1.502834e+01	-2.978398e+02
3.800000e-07	-2.134940e-06	-4.533520e-09	-1.478023e+01	-2.958427e+02
3.900000e-07	-2.098445e-06	-4.503285e-09	-1.452758e+01	-2.937910e+02
4.000000e-07	-2.061368e-06	-4.484693e-09	-1.427089e+01	-2.916836e+02
4.100000e-07	-2.023561e-06	-4.438852e-09	-1.400915e+01	-2.895200e+02
4.200000e-07	-1.984998e-06	-4.390695e-09	-1.374218e+01	-2.873001e+02
4.300000e-07	-1.945663e-06	-4.363207e-09	-1.346986e+01	-2.850247e+02
4.400000e-07	-1.905641e-06	-4.333645e-09	-1.319279e+01	-2.826949e+02
4.500000e-07	-1.865207e-06	-4.294611e-09	-1.291287e+01	-2.803118e+02
4.600000e-07	-1.824376e-06	-4.257625e-09	-1.263019e+01	-2.778765e+02
4.700000e-07	-1.782842e-06	-4.224395e-09	-1.234265e+01	-2.753895e+02
4.800000e-07	-1.740220e-06	-4.180803e-09	-1.204758e+01	-2.728508e+02
4.900000e-07	-1.696582e-06	-4.136832e-09	-1.174547e+01	-2.702596e+02
5.000000e-07	-1.652360e-06	-4.096886e-09	-1.143932e+01	-2.676140e+02
5.100000e-07	-1.607743e-06	-4.062789e-09	-1.113044e+01	-2.649115e+02
5.200000e-07	-1.562660e-06	-4.017477e-09	-1.081833e+01	-2.621491e+02
5.300000e-07	-1.517010e-06	-3.973375e-09	-1.050229e+01	-2.593235e+02
5.400000e-07	-1.470838e-06	-3.931332e-09	-1.018264e+01	-2.564313e+02
5.500000e-07	-1.424165e-06	-3.879875e-09	-9.859524e+00	-2.534696e+02
5.600000e-07	-1.376964e-06	-3.828819e-09	-9.532748e+00	-2.504359e+02
5.700000e-07	-1.329254e-06	-3.784021e-09	-9.202449e+00	-2.473285e+02
5.800000e-07	-1.281108e-06	-3.740669e-09	-8.869137e+00	-2.441466e+02
5.900000e-07	-1.232630e-06	-3.692349e-09	-8.533520e+00	-2.408902e+02
6.000000e-07	-1.183767e-06	-3.645958e-09	-8.195241e+00	-2.375598e+02
6.100000e-07	-1.134308e-06	-3.590695e-09	-7.852835e+00	-2.341565e+02
6.200000e-07	-1.084110e-06	-3.530085e-09	-7.505315e+00	-2.306814e+02
6.300000e-07	-1.033306e-06	-3.471425e-09	-7.153596e+00	-2.271356e+02
6.400000e-07	-9.819969e-07	-3.415412e-09	-6.798384e+00	-2.235198e+02
6.500000e-07	-9.301738e-07	-3.359307e-09	-6.439612e+00	-2.198341e+02
6.600000e-07	-8.780036e-07	-3.302301e-09	-6.078437e+00	-2.160780e+02
6.700000e-07	-8.256069e-07	-3.248522e-09	-5.715693e+00	-2.122502e+02
6.800000e-07	-7.729649e-07	-3.190803e-09	-5.351251e+00	-2.083490e+02
6.900000e-07	-7.200360e-07	-3.127425e-09	-4.984824e+00	-2.043720e+02
7.000000e-07	-6.668413e-07	-3.059322e-09	-4.616556e+00	-2.003165e+02
7.100000e-07	-6.133999e-07	-2.992892e-09	-4.246580e+00	-1.961798e+02
7.200000e-07	-5.597561e-07	-2.928569e-09	-3.875203e+00	-1.919589e+02
7.300000e-07	-5.059020e-07	-2.863717e-09	-3.502370e+00	-1.876508e+02
7.400000e-07	-4.518291e-07	-2.794346e-09	-3.128022e+00	-1.832522e+02
7.500000e-07	-3.976251e-07	-2.724029e-09	-2.752767e+00	-1.787600e+02
7.600000e-07	-3.433223e-07	-2.654931e-09	-2.376827e+00	-1.741703e+02
7.700000e-07	-2.889669e-07	-2.580885e-09	-2.000524e+00	-1.694788e+02
7.800000e-07	-2.345830e-07	-2.505184e-09	-1.624023e+00	-1.646803e+02
7.900000e-07	-1.800876e-07	-2.430244e-09	-1.246750e+00	-1.597689e+02
8.000000e-07	-1.254912e-07	-2.355749e-09	-8.687783e-01	-1.547375e+02
8.100000e-07	-7.088481e-08	-2.278428e-09	-4.907370e-01	-1.495782e+02
8.200000e-07	-1.627561e-08	-2.197155e-09	-1.126764e-01	-1.442823e+02
8.300000e-07	3.830962e-08	-2.111227e-09	2.652182e-01	-1.388408e+02
8.400000e-07	9.285218e-08	-2.023117e-09	6.428175e-01	-1.332445e+02
8.500000e-07	1.473771e-07	-1.934250e-09	1.020295e+00	-1.274844e+02
8.600000e-07	2.018908e-07	-1.843095e-09	1.397694e+00	-1.215522e+02
8.700000e-07	2.563540e-07	-1.749952e-09	1.774744e+00	-1.154402e+02
8.800000e-07	3.107488e-07	-1.656605e-09	2.151320e+00	-1.091413e+02
8.900000e-07	3.650961e-07	-1.560828e-09	2.527567e+00	-1.026489e+02
9.000000e-07	4.193512e-07	-1.457503e-09	2.903177e+00	-9.595638e+01
9.100000e-07	4.734363e-07	-1.349051e-09	3.277609e+00	-8.905645e+01
9.200000e-07	5.273673e-07	-1.237532e-09	3.650974e+00	-8.194020e+01
9.300000e-07	5.811116e-07	-1.123608e-09	4.023047e+00	-7.459637e+01
9.400000e-07	6.345903e-07	-1.006413e-09	4.393281e+00	-6.701051e+01
9.500000e-07	6.877613e-07	-8.851744e-10	4.761386e+00	-5.916451e+01
9.600000e-07	7.406476e-07	-7.601382e-10	5.127518e+00	-5.103633e+01
9.700000e-07	7.933568e-07	-6.316820e-10	5.492425e+00	-4.260038e+01
9.800000e-07	8.458627e-07	-5.006304e-10	5.855924e+00	-3.382833e+01
9.900000e-07	8.980926e-07	-3.606332e-10	6.217513e+00	-2.469063e+01
1.000000e-06	9.500181e-07	-2.075785e-10	6.576994e+00	-1.515850e+01
1.010000e-06	1.001486e-06	-4.866935e-11	6.933305e+00	-5.206484e+00
1.020000e-06	1.052292e-06	1.074675e-10	7.285042e+00	5.184749e+00
1.030000e-06	1.102370e-06	2.670544e-10	7.631731e+00	1.602547e+01
1.040000e-06	1.151770e-06	4.401188e-10	7.973726e+00	2.731411e+01
1.050000e-06	1.200640e-06	6.233015e-10	8.312057e+00	3.903489e+01
1.060000e-06	1.249193e-06	8.089876e-10	8.648190e+00	5.115608e+01
1.070000e-06	1.297493e-06	9.957656e-10	8.982572e+00	6.362921e+01
1.080000e-06	1.345435e-06	1.188638e-09	9.314475e+00	7.638925e+01
1.090000e-06	1.392874e-06	1.387589e-09	9.642897e+00	8.935588e+01
1.100000e-06	1.439773e-06	1.586158e-09	9.967577e+00	1.024359e+02
1.110000e-06	1.486154e-06	1.782047e-09	1.028868e+01	1.155266e+02
1.120000e-06	1.531959e-06	1.978054e-09	1.060579e+01	1.285199e+02
1.130000e-06	1.577207e-06	2.174530e-09	1.091904e+01	1.413069e+02
1.140000e-06	1.622020e-06	2.366381e-09	1.122928e+01	1.537827e+02
1.150000e-06	1.666529e-06	2.549783e-09	1.153742e+01	1.658511e+02
1.160000e-06	1.710652e-06	2.724055e-09	1.184288e+01	1.774286e+02
1.170000e-06	1.754117e-06	2.890765e-09	1.214379e+01	1.884477e+02
1.180000e-06	1.796679e-06	3.048254e-09	1.243845e+01	1.988590e+02
1.190000e-06	1.838240e-06	3.195117e-09	1.272617e+01	2.086326e+02
1.200000e-06	1.879027e-06	3.332971e-09	1.300854e+01	2.177574e+02
1.210000e-06	1.919331e-06	3.462087e-09	1.328757e+01	2.262401e+02
1.220000e-06	1.959118e-06	3.580516e-09	1.356302e+01	2.341029e+02
1.230000e-06	1.998206e-06	3.687202e-09	1.383362e+01	2.413797e+02
1.240000e-06	2.036591e-06	3.785020e-09	1.409936e+01	2.481135e+02
1.250000e-06	2.074238e-06	3.878081e-09	1.435999e+01	2.543518e+02
1.260000e-06	2.111166e-06	3.968783e-09	1.461565e+01	2.601434e+02
1.270000e-06	2.147631e-06	4.054145e-09	1.486809e+01	2.655350e+02
1.280000e-06	2.183520e-06	4.130505e-09	1.511655e+01	2.705691e+02
1.290000e-06	2.218451e-06	4.198307e-09	1.535838e+01	2.752820e+02
1.300000e-06	2.252296e-06	4.262246e-09	1.559269e+01	2.797032e+02
1.310000e-06	2.285247e-06	4.323325e-09	1.582081e+01	2.838551e+02
1.320000e-06	2.317517e-06	4.381015e-09	1.604422e+01	2.877541e+02
1.330000e-06	2.349035e-06	4.436070e-09	1.626242e+01	2.914117e+02
1.340000e-06	2.379740e-06	4.488055e-09	1.647499e+01	2.948361e+02
1.350000e-06	2.409665e-06	4.536401e-09	1.668216e+01	2.980338e+02
1.360000e-06	2.438812e-06	4.579355e-09	1.688395e+01	3.010114e+02
1.370000e-06	2.467312e-06	4.617605e-09	1.708125e+01	3.037767e+02
1.380000e-06	2.495023e-06	4.652378e-09	1.727310e+01	3.063394e+02
1.390000e-06	2.521564e-06	4.685232e-09	1.745684e+01	3.087118e+02
1.400000e-06	2.546915e-06	4.716620e-09	1.763235e+01	3.109085e+02
1.410000e-06	2.571293e-06	4.746310e-09	1.780111e+01	3.129455e+02
1.420000e-06	2.594801e-06	4.776473e-09	1.796386e+01	3.148398e+02
1.430000e-06	2.617419e-06	4.807878e-09	1.812045e+01	3.166082e+02
1.440000e-06	2.639181e-06	4.836033e-09	1.827110e+01	3.182661e+02
1.450000e-06	2.660145e-06	4.856899e-09	1.841624e+01	3.198264e+02
1.460000e-06	2.680400e-06	4.874429e-09	1.855646e+01	3.212995e+02
1.470000e-06	2.699841e-06	4.892889e-09	1.869106e+01	3.226921e+02
1.480000e-06	2.718287e-06	4.912802e-09	1.881876e+01	3.240079e+02
1.490000e-06	2.735781e-06	4.931514e-09	1.893987e+01	3.252478e+02
1.500000e-06	2.752274e-06	4.948309e-09	1.905405e+01	3.264105e+02
1.510000e-06	2.767634e-06	4.965207e-09	1.916039e+01	3.274934e+02
1.520000e-06	2.781900e-06	4.982089e-09	1.925915e+01	3.284939e+02
1.530000e-06	2.795173e-06	4.996161e-09	1.935104e+01	3.294096e+02
1.540000e-06	2.807382e-06	5.007582e-09	1.943556e+01	3.302399e+02
1.550000e-06	2.818293e-06	5.019125e-09	1.951110e+01	3.309856e+02
1.560000e-06	2.827930e-06	5.030649e-09	1.957781e+01	3.316497e+02
1.570000e-06	2.836548e-06	5.040907e-09	1.963748e+01	3.322371e+02
1.580000e-06	2.844271e-06	5.049887e-09	1.969095e+01	3.327537e+02
1.590000e-06	2.851069e-06	5.058191e-09	1.973801e+01	3.332063e+02
1.600000e-06	2.856898e-06	5.066146e-09	1.977836e+01	3.336015e+02
1.610000e-06	2.861867e-06	5.073042e-09	1.981276e+01	3.339451e+02
1.620000e-06	2.865987e-06	5.078104e-09	1.984128e+01	3.342411e+02
1.630000e-06	2.868988e-06	5.082227e-09	1.986206e+01	3.344915e+02
1.640000e-06	2.870725e-06	5.086878e-09	1.987408e+01	3.346960e+02
1.650000e-06	2.871362e-06	5.091627e-09	1.987850e+01	3.348523e+02
1.660000e-06	2.871092e-06	5.092871e-09	1.987663e+01	3.349559e+02
1.670000e-06	2.869948e-06	5.089762e-09	1.986871e+01	3.350013e+02
1.680000e-06	2.867913e-06	5.086468e-09	1.985462e+01	3.349826e+02
1.690000e-06	2.865040e-06	5.087500e-09	1.983473e+01	3.348944e+02
1.700000e-06	2.861394e-06	5.090573e-09	1.980949e+01	3.347325e+02
1.710000e-06	2.856823e-06	5.089992e-09	1.977784e+01	3.344944e+02
1.720000e-06	2.851062e-06	5.084175e-09	1.973796e+01	3.341803e+02
1.730000e-06	2.844218e-06	5.072494e-09	1.969058e+01	3.337927e+02
1.740000e-06	2.836489e-06	5.061082e-09	1.963707e+01	3.333365e+02
1.750000e-06	2.827504e-06	5.054248e-09	1.957487e+01	3.328185e+02
1.760000e-06	2.816955e-06	5.057175e-09	1.950183e+01	3.322467e+02
1.770000e-06	2.805414e-06	5.065501e-09	1.942194e+01	3.316294e+02
1.780000e-06	2.793673e-06	5.036569e-09	1.934065e+01	3.309747e+02
1.790000e-06	2.781312e-06	5.024716e-09	1.925508e+01	3.302890e+02
1.800000e-06	2.767332e-06	5.009961e-09	1.915829e+01	3.295771e+02
1.810000e-06	2.752028e-06	4.994094e-09	1.905235e+01	3.288410e+02
1.820000e-06	2.736110e-06	4.980946e-09	1.894215e+01	3.280801e+02
1.830000e-06	2.719207e-06	4.972307e-09	1.882513e+01	3.272916e+02
1.840000e-06	2.700942e-06	4.995326e-09	1.869868e+01	3.264700e+02
1.850000e-06	2.681882e-06	4.977571e-09	1.856672e+01	3.256087e+02
1.860000e-06	2.662185e-06	4.952182e-09	1.843036e+01	3.246998e+02
1.870000e-06	2.641341e-06	4.958672e-09	1.828606e+01	3.237357e+02
1.880000e-06	2.619323e-06	4.940369e-09	1.813362e+01	3.227094e+02
1.890000e-06	2.596372e-06	4.901576e-09	1.797473e+01	3.216152e+02
1.900000e-06	2.572443e-06	4.888325e-09	1.780908e+01	3.204492e+02
1.910000e-06	2.547662e-06	4.884082e-09	1.763751e+01	3.192094e+02
1.920000e-06	2.522156e-06	4.863636e-09	1.746093e+01	3.178961e+02
1.930000e-06	2.495763e-06	4.832536e-09	1.727822e+01	3.165111e+02
1.940000e-06	2.468608e-06	4.834775e-09	1.709022e+01	3.150576e+02
1.950000e-06	2.440696e-06	4.813843e-09	1.689699e+01	3.135398e+02
1.960000e-06	2.411652e-06	4.758130e-09	1.669591e+01	3.119619e+02
1.970000e-06	2.381418e-06	4.728860e-09	1.648661e+01	3.103282e+02
1.980000e-06	2.350312e-06	4.726050e-09	1.627126e+01	3.086420e+02
1.990000e-06	2.318529e-06	4.699248e-09	1.605122e+01	3.069056e+02
2.000000e-06	2.286065e-06	4.663595e-09	1.582647e+01	3.051203e+02
2.010000e-06	2.252806e-06	4.649526e-09	1.559622e+01	3.032863e+02
2.020000e-06	2.218689e-06	4.610330e-09	1.536003e+01	3.014027e+02
2.030000e-06	2.183920e-06	4.565207e-09	1.511932e+01	2.994681e+02
2.040000e-06	2.148579e-06	4.546009e-09	1.487466e+01	2.974808e+02
2.050000e-06	2.112599e-06	4.503259e-09	1.462556e+01	2.954393e+02
2.060000e-06	2.075745e-06	4.459168e-09	1.437042e+01	2.933422e+02
2.070000e-06	2.037709e-06	4.456762e-09	1.410710e+01	2.911889e+02
2.080000e-06	1.998754e-06	4.427720e-09	1.383741e+01	2.889793e+02
2.090000e-06	1.959261e-06	4.373355e-09	1.356401e+01	2.867141e+02
2.100000e-06	1.919158e-06	4.339248e-09	1.328637e+01	2.843942e+02
2.110000e-06	1.878370e-06	4.298581e-09	1.300399e+01	2.820208e+02
2.120000e-06	1.837006e-06	4.256449e-09	1.271763e+01	2.795950e+02
2.130000e-06	1.795049e-06	4.220679e-09	1.242716e+01	2.771176e+02
2.140000e-06	1.752498e-06	4.191364e-09	1.213258e+01	2.745885e+02
2.150000e-06	1.709434e-06	4.164707e-09	1.183445e+01	2.720070e+02
2.160000e-06	1.665971e-06	4.114928e-09	1.153355e+01	2.693716e+02
2.170000e-06	1.622021e-06	4.060493e-09	1.122928e+01	2.666797e+02
2.180000e-06	1.577379e-06	4.021470e-09	1.092023e+01	2.639286e+02
2.190000e-06	1.532121e-06	3.975683e-09	1.060690e+01	2.611148e+02
2.200000e-06	1.486350e-06	3.928633e-09	1.029003e+01	2.582351e+02
2.210000e-06	1.440149e-06	3.893756e-09	9.970181e+00	2.552862e+02
2.220000e-06	1.393575e-06	3.852975e-09	9.647745e+00	2.522658e+02
2.230000e-06	1.346555e-06	3.807162e-09	9.322227e+00	2.491719e+02
2.240000e-06	1.298885e-06	3.756622e-09	8.992204e+00	2.460037e+02
2.250000e-06	1.250434e-06	3.703083e-09	8.656781e+00	2.427608e+02
2.260000e-06	1.201490e-06	3.650153e-09	8.317937e+00	2.394439e+02
2.270000e-06	1.152237e-06	3.601205e-09	7.976959e+00	2.360538e+02
2.280000e-06	1.102605e-06	3.554607e-09	7.633353e+00	2.325917e+02
2.290000e-06	1.052472e-06	3.500628e-09	7.286286e+00	2.290588e+02
2.300000e-06	1.001848e-06	3.444109e-09	6.935812e+00	2.254558e+02
2.310000e-06	9.509072e-07	3.385807e-09	6.583150e+00	2.217829e+02
2.320000e-06	8.997071e-07	3.327545e-09	6.228690e+00	2.180397e+02
2.330000e-06	8.482899e-07	3.270128e-09	5.872728e+00	2.142251e+02
2.340000e-06	7.965906e-07	3.212371e-09	5.514813e+00	2.103375e+02
2.350000e-06	7.444543e-07	3.154834e-09	5.153872e+00	2.063745e+02
2.360000e-06	6.918763e-07	3.094863e-09	4.789873e+00	2.023335e+02
2.370000e-06	6.388784e-07	3.031197e-09	4.422968e+00	1.982119e+02
2.380000e-06	5.854484e-07	2.968785e-09	4.053071e+00	1.940065e+02
2.390000e-06	5.316664e-07	2.907706e-09	3.680737e+00	1.897144e+02
2.400000e-06	4.775648e-07	2.843342e-09	3.306191e+00	1.853326e+02
2.410000e-06	4.232087e-07	2.775830e-09	2.929882e+00	1.808576e+02
2.420000e-06	3.686428e-07	2.707337e-09	2.552122e+00	1.762859e+02
2.430000e-06	3.138611e-07	2.637837e-09	2.172867e+00	1.716132e+02
2.440000e-06	2.589963e-07	2.563004e-09	1.793036e+00	1.668346e+02
2.450000e-06	2.040490e-07	2.487191e-09	1.412635e+00	1.619441e+02
2.460000e-06	1.490002e-07	2.412912e-09	1.031531e+00	1.569350e+02
2.470000e-06	9.392910e-08	2.335888e-09	6.502731e-01	1.517994e+02
2.480000e-06	3.885332e-08	2.255287e-09	2.689823e-01	1.465289e+02
2.490000e-06	-1.621870e-08	2.172689e-09	-1.122824e-01	1.411144e+02
2.500000e-06	-7.128831e-08	2.088528e-09	-4.935304e-01	1.355467e+02
2.510000e-06	-1.263413e-07	2.001055e-09	-8.746631e-01	1.298168e+02
2.520000e-06	-1.813588e-07	1.911296e-09	-1.255551e+00	1.239162e+02
2.530000e-06	-2.363487e-07	1.819305e-09	-1.636247e+00	1.178371e+02
2.540000e-06	-2.912785e-07	1.722955e-09	-2.016527e+00	1.115723e+02
2.550000e-06	-3.461069e-07	1.624003e-09	-2.396105e+00	1.051152e+02
2.560000e-06	-4.007901e-07	1.525240e-09	-2.774678e+00	9.845926e+01
2.570000e-06	-4.552463e-07	1.425045e-09	-3.151679e+00	9.159726e+01
2.580000e-06	-5.094631e-07	1.319544e-09	-3.527023e+00	8.452069e+01
2.590000e-06	-5.634386e-07	1.210166e-09	-3.900697e+00	7.721874e+01
2.600000e-06	-6.170242e-07	1.096932e-09	-4.271671e+00	6.967762e+01
2.610000e-06	-6.701106e-07	9.783692e-10	-4.639189e+00	6.187986e+01
2.620000e-06	-7.227642e-07	8.537016e-10	-5.003711e+00	5.380415e+01
2.630000e-06	-7.750221e-07	7.241275e-10	-5.365493e+00	4.542546e+01
2.640000e-06	-8.268902e-07	5.920874e-10	-5.724577e+00	3.671588e+01
2.650000e-06	-8.784181e-07	4.559659e-10	-6.081306e+00	2.764593e+01
2.660000e-06	-9.296783e-07	3.137474e-10	-6.436182e+00	1.818653e+01
2.670000e-06	-9.806891e-07	1.654556e-10	-6.789330e+00	8.311423e+00
2.680000e-06	-1.031352e-06	9.822323e-12	-7.140068e+00	-2.000033e+00
2.690000e-06	-1.081617e-06	-1.546509e-10	-7.488053e+00	-1.275994e+01
2.700000e-06	-1.131415e-06	-3.258956e-10	-7.832808e+00	-2.396902e+01
2.710000e-06	-1.180763e-06	-5.026287e-10	-8.174446e+00	-3.561418e+01
2.720000e-06	-1.229656e-06	-6.861706e-10	-8.512933e+00	-4.766665e+01
2.730000e-06	-1.277850e-06	-8.766144e-10	-8.846584e+00	-6.008094e+01
2.740000e-06	-1.325281e-06	-1.071358e-09	-9.174949e+00	-7.279493e+01
2.750000e-06	-1.372000e-06	-1.269573e-09	-9.498382e+00	-8.573088e+01
2.760000e-06	-1.418164e-06	-1.470900e-09	-9.817980e+00	-9.879768e+01
2.770000e-06	-1.463947e-06	-1.674866e-09	-1.013494e+01	-1.118940e+02
2.780000e-06	-1.509401e-06	-1.877465e-09	-1.044962e+01	-1.249125e+02
2.790000e-06	-1.554534e-06	-2.074745e-09	-1.076207e+01	-1.377439e+02
2.800000e-06	-1.599155e-06	-2.266567e-09	-1.107098e+01	-1.502823e+02
2.810000e-06	-1.643149e-06	-2.453338e-09	-1.137555e+01	-1.624297e+02
2.820000e-06	-1.686671e-06	-2.632740e-09	-1.167685e+01	-1.741000e+02
2.830000e-06	-1.729817e-06	-2.801007e-09	-1.197555e+01	-1.852227e+02
2.840000e-06	-1.772514e-06	-2.960925e-09	-1.227115e+01	-1.957450e+02
2.850000e-06	-1.814668e-06	-3.114219e-09	-1.256298e+01	-2.056335e+02
2.860000e-06	-1.856212e-06	-3.257340e-09	-1.285059e+01	-2.148738e+02
2.870000e-06	-1.897058e-06	-3.388778e-09	-1.313337e+01	-2.234697e+02
2.880000e-06	-1.937205e-06	-3.512187e-09	-1.341131e+01	-2.314407e+02
2.890000e-06	-1.976806e-06	-3.628524e-09	-1.368547e+01	-2.388190e+02
2.900000e-06	-2.015885e-06	-3.734762e-09	-1.395601e+01	-2.456460e+02
2.910000e-06	-2.054238e-06	-3.832431e-09	-1.422153e+01	-2.519689e+02
2.920000e-06	-2.091620e-06	-3.923376e-09	-1.448033e+01	-2.578364e+02
2.930000e-06	-2.127970e-06	-4.007787e-09	-1.473198e+01	-2.632959e+02
2.940000e-06	-2.163541e-06	-4.086183e-09	-1.497823e+01	-2.683907e+02
