# Temperatura_=_20.2
# Concentracion g/m^3_=_15500.0
# C_Vs_to_Am_M_A/Vsm_=_65563218390.804596
# pendiente_HvsI_1/m_=_3716.3
# ordenada_HvsI_A/m_=_1297.0
# frecuencia_Hz_=_300844.71694453614

Tiempo_(s)	Campo_(V.s)	Magnetizacion_(V.s)	Campo_(kA/m)	Magnetizacion_(A/m)
0.000000e+00	-2.855961e-06	-5.014839e-09	-1.980413e+01	-3.285084e+02
1.000000e-08	-2.854882e-06	-5.009484e-09	-1.979665e+01	-3.285007e+02
2.000000e-08	-2.852702e-06	-5.005577e-09	-1.978153e+01	-3.284258e+02
3.000000e-08	-2.849275e-06	-5.006025e-09	-1.975777e+01	-3.282822e+02
4.000000e-08	-2.844887e-06	-5.005452e-09	-1.972735e+01	-3.280700e+02
5.000000e-08	-2.839755e-06	-4.999214e-09	-1.969176e+01	-3.277913e+02
6.000000e-08	-2.833792e-06	-4.995516e-09	-1.965041e+01	-3.274501e+02
7.000000e-08	-2.826864e-06	-5.001886e-09	-1.960236e+01	-3.270517e+02
8.000000e-08	-2.818905e-06	-4.983824e-09	-1.954718e+01	-3.266027e+02
9.000000e-08	-2.809636e-06	-4.951147e-09	-1.948290e+01	-3.261100e+02
1.000000e-07	-2.798887e-06	-4.952211e-09	-1.940837e+01	-3.255802e+02
1.100000e-07	-2.787022e-06	-4.999369e-09	-1.932609e+01	-3.250189e+02
1.200000e-07	-2.774398e-06	-4.965417e-09	-1.923855e+01	-3.244299e+02
1.300000e-07	-2.760907e-06	-4.880480e-09	-1.914500e+01	-3.238150e+02
1.400000e-07	-2.746427e-06	-4.947689e-09	-1.904459e+01	-3.231735e+02
1.500000e-07	-2.730942e-06	-4.979289e-09	-1.893721e+01	-3.225025e+02
1.600000e-07	-2.714187e-06	-4.893324e-09	-1.882103e+01	-3.217971e+02
1.700000e-07	-2.696183e-06	-4.891110e-09	-1.869618e+01	-3.210506e+02
1.800000e-07	-2.677442e-06	-4.948700e-09	-1.856623e+01	-3.202556e+02
1.900000e-07	-2.658048e-06	-4.880364e-09	-1.843174e+01	-3.194046e+02
2.000000e-07	-2.637706e-06	-4.834950e-09	-1.829068e+01	-3.184907e+02
2.100000e-07	-2.616498e-06	-4.898934e-09	-1.814363e+01	-3.175082e+02
2.200000e-07	-2.594526e-06	-4.842790e-09	-1.799126e+01	-3.164532e+02
2.300000e-07	-2.571579e-06	-4.790527e-09	-1.783214e+01	-3.153236e+02
2.400000e-07	-2.547687e-06	-4.825873e-09	-1.766646e+01	-3.141194e+02
2.500000e-07	-2.523040e-06	-4.774246e-09	-1.749555e+01	-3.128426e+02
2.600000e-07	-2.497522e-06	-4.742740e-09	-1.731860e+01	-3.114961e+02
2.700000e-07	-2.470920e-06	-4.773137e-09	-1.713414e+01	-3.100841e+02
2.800000e-07	-2.443225e-06	-4.710887e-09	-1.694210e+01	-3.086106e+02
2.900000e-07	-2.414601e-06	-4.693413e-09	-1.674361e+01	-3.070794e+02
3.000000e-07	-2.385220e-06	-4.697231e-09	-1.653987e+01	-3.054936e+02
3.100000e-07	-2.355135e-06	-4.626900e-09	-1.633125e+01	-3.038548e+02
3.200000e-07	-2.324237e-06	-4.617127e-09	-1.611699e+01	-3.021637e+02
3.300000e-07	-2.292560e-06	-4.631163e-09	-1.589734e+01	-3.004193e+02
3.400000e-07	-2.260261e-06	-4.554790e-09	-1.567337e+01	-2.986198e+02
3.500000e-07	-2.227364e-06	-4.537278e-09	-1.544524e+01	-2.967631e+02
3.600000e-07	-2.193595e-06	-4.563128e-09	-1.521108e+01	-2.948466e+02
3.700000e-07	-2.158661e-06	-4.483839e-09	-1.496884e+01	-2.928682e+02
3.800000e-07	-2.122714e-06	-4.454660e-09	-1.471957e+01	-2.908266e+02
3.900000e-07	-2.086109e-06	-4.462212e-09	-1.446574e+01	-2.887218e+02
4.000000e-07	-2.048872e-06	-4.399660e-09	-1.420752e+01	-2.865547e+02
4.100000e-07	-2.010887e-06	-4.348514e-09	-1.394412e+01	-2.843277e+02
4.200000e-07	-1.972150e-06	-4.344394e-09	-1.367551e+01	-2.820439e+02
4.300000e-07	-1.932681e-06	-4.303999e-09	-1.340182e+01	-2.797071e+02
4.400000e-07	-1.892610e-06	-4.260771e-09	-1.312395e+01	-2.773211e+02
4.500000e-07	-1.852129e-06	-4.234099e-09	-1.284324e+01	-2.748891e+02
4.600000e-07	-1.811214e-06	-4.190129e-09	-1.255953e+01	-2.724136e+02
4.700000e-07	-1.769485e-06	-4.151448e-09	-1.227017e+01	-2.698957e+02
4.800000e-07	-1.726655e-06	-4.107814e-09	-1.197317e+01	-2.673346e+02
4.900000e-07	-1.682904e-06	-4.060756e-09	-1.166978e+01	-2.647284e+02
5.000000e-07	-1.638588e-06	-4.021736e-09	-1.136249e+01	-2.620735e+02
5.100000e-07	-1.593885e-06	-3.990199e-09	-1.105250e+01	-2.593653e+02
5.200000e-07	-1.548766e-06	-3.943834e-09	-1.073963e+01	-2.565984e+02
5.300000e-07	-1.503079e-06	-3.906859e-09	-1.042283e+01	-2.537675e+02
5.400000e-07	-1.456817e-06	-3.860338e-09	-1.010203e+01	-2.508677e+02
5.500000e-07	-1.410022e-06	-3.801536e-09	-9.777535e+00	-2.478950e+02
5.600000e-07	-1.362672e-06	-3.762066e-09	-9.449194e+00	-2.448468e+02
5.700000e-07	-1.314842e-06	-3.716830e-09	-9.117532e+00	-2.417219e+02
5.800000e-07	-1.266694e-06	-3.658144e-09	-8.783653e+00	-2.385206e+02
5.900000e-07	-1.218243e-06	-3.609108e-09	-8.447684e+00	-2.352445e+02
6.000000e-07	-1.169349e-06	-3.569632e-09	-8.108634e+00	-2.318961e+02
6.100000e-07	-1.119888e-06	-3.514815e-09	-7.765656e+00	-2.284782e+02
6.200000e-07	-1.069759e-06	-3.459600e-09	-7.418046e+00	-2.249939e+02
6.300000e-07	-1.018948e-06	-3.403802e-09	-7.065708e+00	-2.214455e+02
6.400000e-07	-9.675478e-07	-3.346718e-09	-6.709281e+00	-2.178345e+02
6.500000e-07	-9.156880e-07	-3.290158e-09	-6.349669e+00	-2.141609e+02
6.600000e-07	-8.635143e-07	-3.229211e-09	-5.987880e+00	-2.104237e+02
6.700000e-07	-8.111306e-07	-3.166759e-09	-5.624635e+00	-2.066204e+02
6.800000e-07	-7.584710e-07	-3.105136e-09	-5.259477e+00	-2.027475e+02
6.900000e-07	-7.055390e-07	-3.048503e-09	-4.892430e+00	-1.988007e+02
7.000000e-07	-6.523472e-07	-2.989411e-09	-4.523581e+00	-1.947751e+02
7.100000e-07	-5.988915e-07	-2.930040e-09	-4.152903e+00	-1.906662e+02
7.200000e-07	-5.452395e-07	-2.864805e-09	-3.780862e+00	-1.864694e+02
7.300000e-07	-4.913736e-07	-2.795422e-09	-3.407340e+00	-1.821806e+02
7.400000e-07	-4.372896e-07	-2.721962e-09	-3.032304e+00	-1.777967e+02
7.500000e-07	-3.830608e-07	-2.646077e-09	-2.656265e+00	-1.733145e+02
7.600000e-07	-3.287708e-07	-2.573180e-09	-2.279800e+00	-1.687316e+02
7.700000e-07	-2.744204e-07	-2.504137e-09	-1.902918e+00	-1.640452e+02
7.800000e-07	-2.200227e-07	-2.437313e-09	-1.525707e+00	-1.592525e+02
7.900000e-07	-1.655614e-07	-2.364493e-09	-1.148055e+00	-1.543497e+02
8.000000e-07	-1.110496e-07	-2.288386e-09	-7.700533e-01	-1.493321e+02
8.100000e-07	-5.653946e-08	-2.208468e-09	-3.920625e-01	-1.441941e+02
8.200000e-07	-2.011526e-09	-2.125867e-09	-1.394855e-02	-1.389287e+02
8.300000e-07	5.253045e-08	-2.039042e-09	3.642627e-01	-1.335279e+02
8.400000e-07	1.070545e-07	-1.949115e-09	7.423495e-01	-1.279830e+02
8.500000e-07	1.615674e-07	-1.859570e-09	1.120359e+00	-1.222850e+02
8.600000e-07	2.160328e-07	-1.771618e-09	1.498039e+00	-1.164247e+02
8.700000e-07	2.704244e-07	-1.686200e-09	1.875208e+00	-1.103931e+02
8.800000e-07	3.247766e-07	-1.596569e-09	2.252103e+00	-1.041814e+02
8.900000e-07	3.790549e-07	-1.498140e-09	2.628486e+00	-9.778156e+01
9.000000e-07	4.331775e-07	-1.392685e-09	3.003790e+00	-9.118519e+01
9.100000e-07	4.871080e-07	-1.288195e-09	3.377760e+00	-8.438378e+01
9.200000e-07	5.408515e-07	-1.180809e-09	3.750435e+00	-7.736780e+01
9.300000e-07	5.943970e-07	-1.067230e-09	4.121736e+00	-7.012607e+01
9.400000e-07	6.476742e-07	-9.502680e-10	4.491177e+00	-6.264510e+01
9.500000e-07	7.007369e-07	-8.332057e-10	4.859130e+00	-5.490858e+01
9.600000e-07	7.535986e-07	-7.147672e-10	5.225690e+00	-4.689713e+01
9.700000e-07	8.061868e-07	-5.879544e-10	5.590353e+00	-3.858851e+01
9.800000e-07	8.585100e-07	-4.533249e-10	5.953179e+00	-2.995831e+01
9.900000e-07	9.105600e-07	-3.129893e-10	6.314110e+00	-2.098115e+01
1.000000e-06	9.621792e-07	-1.679126e-10	6.672054e+00	-1.163243e+01
1.010000e-06	1.013162e-06	-1.644973e-11	7.025582e+00	-1.890539e+00
1.020000e-06	1.063508e-06	1.396482e-10	7.374702e+00	8.260643e+00
1.030000e-06	1.113233e-06	3.025349e-10	7.719511e+00	1.882911e+01
1.040000e-06	1.162372e-06	4.722345e-10	8.060256e+00	2.981221e+01
1.050000e-06	1.211123e-06	6.453835e-10	8.398311e+00	4.119443e+01
1.060000e-06	1.259594e-06	8.217280e-10	8.734420e+00	5.294587e+01
1.070000e-06	1.307771e-06	1.003326e-09	9.068499e+00	6.502133e+01
1.080000e-06	1.355559e-06	1.193072e-09	9.399876e+00	7.736052e+01
1.090000e-06	1.402800e-06	1.386657e-09	9.727455e+00	8.988912e+01
1.100000e-06	1.449533e-06	1.580100e-09	1.005152e+01	1.025210e+02
1.110000e-06	1.495757e-06	1.771093e-09	1.037205e+01	1.151610e+02
1.120000e-06	1.541430e-06	1.959915e-09	1.068876e+01	1.277092e+02
1.130000e-06	1.586605e-06	2.146478e-09	1.100202e+01	1.400645e+02
1.140000e-06	1.631335e-06	2.330680e-09	1.131219e+01	1.521294e+02
1.150000e-06	1.675710e-06	2.509023e-09	1.161990e+01	1.638140e+02
1.160000e-06	1.719627e-06	2.680085e-09	1.192443e+01	1.750400e+02
1.170000e-06	1.762726e-06	2.844876e-09	1.222329e+01	1.857436e+02
1.180000e-06	1.804858e-06	2.999834e-09	1.251546e+01	1.958776e+02
1.190000e-06	1.846158e-06	3.143498e-09	1.280184e+01	2.054122e+02
1.200000e-06	1.886800e-06	3.276293e-09	1.308366e+01	2.143352e+02
1.210000e-06	1.926915e-06	3.401483e-09	1.336183e+01	2.226505e+02
1.220000e-06	1.966426e-06	3.518356e-09	1.363582e+01	2.303764e+02
1.230000e-06	2.005262e-06	3.626554e-09	1.390512e+01	2.375424e+02
1.240000e-06	2.043435e-06	3.726964e-09	1.416982e+01	2.441862e+02
1.250000e-06	2.080879e-06	3.819879e-09	1.442947e+01	2.503502e+02
1.260000e-06	2.117668e-06	3.907661e-09	1.468457e+01	2.560785e+02
1.270000e-06	2.153972e-06	3.989905e-09	1.493632e+01	2.614139e+02
1.280000e-06	2.189637e-06	4.064574e-09	1.518363e+01	2.663954e+02
1.290000e-06	2.224238e-06	4.132285e-09	1.542357e+01	2.710573e+02
1.300000e-06	2.257746e-06	4.196854e-09	1.565592e+01	2.754278e+02
1.310000e-06	2.290452e-06	4.257996e-09	1.588272e+01	2.795293e+02
1.320000e-06	2.322482e-06	4.315149e-09	1.610482e+01	2.833787e+02
1.330000e-06	2.353783e-06	4.369322e-09	1.632187e+01	2.869886e+02
1.340000e-06	2.384274e-06	4.421233e-09	1.653331e+01	2.903686e+02
1.350000e-06	2.413937e-06	4.469602e-09	1.673900e+01	2.935266e+02
1.360000e-06	2.442849e-06	4.511579e-09	1.693949e+01	2.964702e+02
1.370000e-06	2.471077e-06	4.547892e-09	1.713523e+01	2.992078e+02
1.380000e-06	2.498366e-06	4.581937e-09	1.732446e+01	3.017489e+02
1.390000e-06	2.524470e-06	4.616472e-09	1.750547e+01	3.041051e+02
1.400000e-06	2.549446e-06	4.647786e-09	1.767866e+01	3.062893e+02
1.410000e-06	2.573501e-06	4.676679e-09	1.784547e+01	3.083159e+02
1.420000e-06	2.596762e-06	4.706497e-09	1.800676e+01	3.101994e+02
1.430000e-06	2.619163e-06	4.736282e-09	1.816210e+01	3.119545e+02
1.440000e-06	2.640696e-06	4.762470e-09	1.831142e+01	3.135945e+02
1.450000e-06	2.661505e-06	4.783104e-09	1.845571e+01	3.151310e+02
1.460000e-06	2.681610e-06	4.801187e-09	1.859513e+01	3.165734e+02
1.470000e-06	2.700766e-06	4.819539e-09	1.872796e+01	3.179286e+02
1.480000e-06	2.718880e-06	4.838770e-09	1.885357e+01	3.192012e+02
1.490000e-06	2.736074e-06	4.857422e-09	1.897280e+01	3.203936e+02
1.500000e-06	2.752223e-06	4.875142e-09	1.908478e+01	3.215069e+02
1.510000e-06	2.767216e-06	4.892161e-09	1.918875e+01	3.225412e+02
1.520000e-06	2.781174e-06	4.906316e-09	1.928554e+01	3.234963e+02
1.530000e-06	2.794135e-06	4.917159e-09	1.937541e+01	3.243725e+02
1.540000e-06	2.805968e-06	4.926089e-09	1.945747e+01	3.251709e+02
1.550000e-06	2.816501e-06	4.933462e-09	1.953050e+01	3.258935e+02
1.560000e-06	2.825849e-06	4.943004e-09	1.959533e+01	3.265434e+02
1.570000e-06	2.834272e-06	4.955806e-09	1.965373e+01	3.271246e+02
1.580000e-06	2.841807e-06	4.968429e-09	1.970599e+01	3.276413e+02
1.590000e-06	2.848382e-06	4.978237e-09	1.975158e+01	3.280979e+02
1.600000e-06	2.853921e-06	4.984075e-09	1.978999e+01	3.284979e+02
1.610000e-06	2.858556e-06	4.987578e-09	1.982213e+01	3.288440e+02
1.620000e-06	2.862334e-06	4.989433e-09	1.984833e+01	3.291375e+02
1.630000e-06	2.864935e-06	4.990532e-09	1.986637e+01	3.293782e+02
1.640000e-06	2.866291e-06	4.993006e-09	1.987576e+01	3.295644e+02
1.650000e-06	2.866685e-06	4.996598e-09	1.987850e+01	3.296933e+02
1.660000e-06	2.866234e-06	4.999350e-09	1.987537e+01	3.297617e+02
1.670000e-06	2.864888e-06	4.999857e-09	1.986603e+01	3.297660e+02
1.680000e-06	2.862657e-06	4.998745e-09	1.985057e+01	3.297034e+02
1.690000e-06	2.859658e-06	5.000497e-09	1.982977e+01	3.295722e+02
1.700000e-06	2.855834e-06	5.001264e-09	1.980325e+01	3.293723e+02
1.710000e-06	2.850882e-06	4.994823e-09	1.976892e+01	3.291054e+02
1.720000e-06	2.844773e-06	4.976542e-09	1.972655e+01	3.287751e+02
1.730000e-06	2.837732e-06	4.960804e-09	1.967773e+01	3.283866e+02
1.740000e-06	2.829722e-06	4.983003e-09	1.962219e+01	3.279463e+02
1.750000e-06	2.820369e-06	4.999079e-09	1.955732e+01	3.274610e+02
1.760000e-06	2.809539e-06	4.941916e-09	1.948223e+01	3.269375e+02
1.770000e-06	2.797941e-06	4.920207e-09	1.940180e+01	3.263816e+02
1.780000e-06	2.786151e-06	4.958692e-09	1.932005e+01	3.257975e+02
1.790000e-06	2.773462e-06	4.977444e-09	1.923206e+01	3.251874e+02
1.800000e-06	2.759109e-06	4.864372e-09	1.913253e+01	3.245509e+02
1.810000e-06	2.743624e-06	4.882437e-09	1.902515e+01	3.238857e+02
1.820000e-06	2.727547e-06	4.998098e-09	1.891367e+01	3.231870e+02
1.830000e-06	2.710371e-06	4.915874e-09	1.879457e+01	3.224485e+02
1.840000e-06	2.691884e-06	4.873169e-09	1.866637e+01	3.216629e+02
1.850000e-06	2.672677e-06	4.951900e-09	1.853318e+01	3.208226e+02
1.860000e-06	2.652726e-06	4.898911e-09	1.839484e+01	3.199205e+02
1.870000e-06	2.631574e-06	4.814151e-09	1.824816e+01	3.189508e+02
1.880000e-06	2.609359e-06	4.887768e-09	1.809412e+01	3.179090e+02
1.890000e-06	2.586147e-06	4.863255e-09	1.793316e+01	3.167929e+02
1.900000e-06	2.561918e-06	4.786581e-09	1.776515e+01	3.156021e+02
1.910000e-06	2.536966e-06	4.831610e-09	1.759212e+01	3.143382e+02
1.920000e-06	2.511257e-06	4.797996e-09	1.741385e+01	3.130041e+02
1.930000e-06	2.484641e-06	4.723103e-09	1.722928e+01	3.116036e+02
1.940000e-06	2.457336e-06	4.779306e-09	1.703994e+01	3.101409e+02
1.950000e-06	2.429214e-06	4.716498e-09	1.684493e+01	3.086199e+02
1.960000e-06	2.399896e-06	4.664656e-09	1.664164e+01	3.070438e+02
1.970000e-06	2.369514e-06	4.725242e-09	1.643095e+01	3.054146e+02
1.980000e-06	2.338349e-06	4.638925e-09	1.621485e+01	3.037330e+02
1.990000e-06	2.306490e-06	4.590494e-09	1.599393e+01	3.019983e+02
2.000000e-06	2.273898e-06	4.641040e-09	1.576792e+01	3.002090e+02
2.010000e-06	2.240451e-06	4.552037e-09	1.553600e+01	2.983628e+02
2.020000e-06	2.206189e-06	4.504167e-09	1.529841e+01	2.964573e+02
2.030000e-06	2.171324e-06	4.540896e-09	1.505665e+01	2.944902e+02
2.040000e-06	2.135867e-06	4.456912e-09	1.481078e+01	2.924601e+02
2.050000e-06	2.099690e-06	4.416980e-09	1.455991e+01	2.903667e+02
2.060000e-06	2.062582e-06	4.430507e-09	1.430259e+01	2.882108e+02
2.070000e-06	2.024366e-06	4.372930e-09	1.403759e+01	2.859944e+02
2.080000e-06	1.985319e-06	4.330844e-09	1.376683e+01	2.837206e+02
2.090000e-06	1.945740e-06	4.302656e-09	1.349238e+01	2.813931e+02
2.100000e-06	1.905553e-06	4.262584e-09	1.321370e+01	2.790158e+02
2.110000e-06	1.864683e-06	4.228543e-09	1.293030e+01	2.765920e+02
2.120000e-06	1.823244e-06	4.182389e-09	1.264295e+01	2.741243e+02
2.130000e-06	1.781279e-06	4.144819e-09	1.235195e+01	2.716140e+02
2.140000e-06	1.738692e-06	4.117998e-09	1.205664e+01	2.690609e+02
2.150000e-06	1.695583e-06	4.071374e-09	1.175771e+01	2.664632e+02
2.160000e-06	1.652096e-06	4.023082e-09	1.145615e+01	2.638174e+02
2.170000e-06	1.608062e-06	3.984115e-09	1.115081e+01	2.611192e+02
2.180000e-06	1.563320e-06	3.949394e-09	1.084055e+01	2.583633e+02
2.190000e-06	1.517911e-06	3.901564e-09	1.052567e+01	2.555444e+02
2.200000e-06	1.472045e-06	3.856104e-09	1.020763e+01	2.526573e+02
2.210000e-06	1.425840e-06	3.817093e-09	9.887226e+00	2.496980e+02
2.220000e-06	1.379230e-06	3.754891e-09	9.564018e+00	2.466636e+02
2.230000e-06	1.332089e-06	3.713472e-09	9.237126e+00	2.435526e+02
2.240000e-06	1.284291e-06	3.676430e-09	8.905680e+00	2.403650e+02
2.250000e-06	1.235877e-06	3.618932e-09	8.569959e+00	2.371022e+02
2.260000e-06	1.187002e-06	3.574372e-09	8.231044e+00	2.337666e+02
2.270000e-06	1.137733e-06	3.527581e-09	7.889402e+00	2.303611e+02
2.280000e-06	1.088049e-06	3.470452e-09	7.544872e+00	2.268886e+02
2.290000e-06	1.037925e-06	3.414693e-09	7.197298e+00	2.233517e+02
2.300000e-06	9.873276e-07	3.355395e-09	6.846441e+00	2.197519e+02
2.310000e-06	9.363428e-07	3.297845e-09	6.492896e+00	2.160897e+02
2.320000e-06	8.850979e-07	3.242644e-09	6.137548e+00	2.123641e+02
2.330000e-06	8.336324e-07	3.185792e-09	5.780669e+00	2.085730e+02
2.340000e-06	7.818436e-07	3.134583e-09	5.421550e+00	2.047130e+02
2.350000e-06	7.296433e-07	3.076536e-09	5.059576e+00	2.007798e+02
2.360000e-06	6.770408e-07	3.013228e-09	4.694814e+00	1.967689e+02
2.370000e-06	6.240271e-07	2.951908e-09	4.327201e+00	1.926753e+02
2.380000e-06	5.706486e-07	2.892071e-09	3.957057e+00	1.884946e+02
2.390000e-06	5.168840e-07	2.830054e-09	3.584237e+00	1.842227e+02
2.400000e-06	4.627929e-07	2.761707e-09	3.209152e+00	1.798561e+02
2.410000e-06	4.084588e-07	2.696811e-09	2.832382e+00	1.753918e+02
2.420000e-06	3.539299e-07	2.630860e-09	2.454261e+00	1.708272e+02
2.430000e-06	2.992366e-07	2.559351e-09	2.075001e+00	1.661597e+02
2.440000e-06	2.443612e-07	2.485190e-09	1.694477e+00	1.613863e+02
2.450000e-06	1.893899e-07	2.411072e-09	1.313289e+00	1.565036e+02
2.460000e-06	1.344024e-07	2.338405e-09	9.319885e-01	1.515071e+02
2.470000e-06	7.939334e-08	2.263418e-09	5.505385e-01	1.463912e+02
2.480000e-06	2.436263e-08	2.183378e-09	1.689381e-01	1.411492e+02
2.490000e-06	-3.067308e-08	2.100299e-09	-2.126968e-01	1.357733e+02
2.500000e-06	-8.571060e-08	2.015595e-09	-5.943443e-01	1.302550e+02
2.510000e-06	-1.407112e-07	1.928373e-09	-9.757361e-01	1.245852e+02
2.520000e-06	-1.956583e-07	1.840086e-09	-1.356756e+00	1.187547e+02
2.530000e-06	-2.505485e-07	1.750406e-09	-1.737382e+00	1.127544e+02
2.540000e-06	-3.053532e-07	1.658808e-09	-2.117416e+00	1.065757e+02
2.550000e-06	-3.600299e-07	1.563502e-09	-2.496561e+00	1.002102e+02
2.560000e-06	-4.145096e-07	1.462983e-09	-2.874340e+00	9.364965e+01
2.570000e-06	-4.687755e-07	1.359140e-09	-3.250637e+00	8.688566e+01
2.580000e-06	-5.227767e-07	1.252647e-09	-3.625098e+00	7.990890e+01
2.590000e-06	-5.763803e-07	1.144521e-09	-3.996803e+00	7.270854e+01
2.600000e-06	-6.295795e-07	1.032575e-09	-4.365703e+00	6.527155e+01
2.610000e-06	-6.824085e-07	9.167976e-10	-4.732036e+00	5.758214e+01
2.620000e-06	-7.348211e-07	7.969522e-10	-5.095481e+00	4.962148e+01
2.630000e-06	-7.868373e-07	6.704499e-10	-5.456178e+00	4.136781e+01
2.640000e-06	-8.385047e-07	5.372796e-10	-5.814456e+00	3.279704e+01
2.650000e-06	-8.898890e-07	4.011261e-10	-6.170770e+00	2.388383e+01
2.660000e-06	-9.410647e-07	2.623945e-10	-6.525639e+00	1.460330e+01
2.670000e-06	-9.919547e-07	1.168147e-10	-6.878526e+00	4.933140e+00
2.680000e-06	-1.042430e-06	-3.761355e-11	-7.228541e+00	-5.143955e+00
2.690000e-06	-1.092439e-06	-1.987392e-10	-7.575314e+00	-1.563762e+01
2.700000e-06	-1.142043e-06	-3.622241e-10	-7.919287e+00	-2.654727e+01
2.710000e-06	-1.191269e-06	-5.297486e-10	-8.260638e+00	-3.785985e+01
2.720000e-06	-1.239975e-06	-7.051406e-10	-8.598377e+00	-4.954808e+01
2.730000e-06	-1.287915e-06	-8.903139e-10	-8.930810e+00	-6.156953e+01
2.740000e-06	-1.335127e-06	-1.079163e-09	-9.258191e+00	-7.386655e+01
2.750000e-06	-1.381675e-06	-1.270014e-09	-9.580973e+00	-8.636720e+01
2.760000e-06	-1.427662e-06	-1.465249e-09	-9.899858e+00	-9.898723e+01
2.770000e-06	-1.473331e-06	-1.662445e-09	-1.021654e+01	-1.116329e+02
2.780000e-06	-1.518705e-06	-1.857546e-09	-1.053118e+01	-1.242048e+02
2.790000e-06	-1.563702e-06	-2.046636e-09	-1.084320e+01	-1.366017e+02
2.800000e-06	-1.608140e-06	-2.229554e-09	-1.115135e+01	-1.487252e+02
2.810000e-06	-1.651954e-06	-2.408311e-09	-1.145517e+01	-1.604836e+02
2.820000e-06	-1.695330e-06	-2.583743e-09	-1.175595e+01	-1.717966e+02
2.830000e-06	-1.738316e-06	-2.749821e-09	-1.205403e+01	-1.825973e+02
2.840000e-06	-1.780778e-06	-2.904334e-09	-1.234848e+01	-1.928355e+02
2.850000e-06	-1.822625e-06	-3.051186e-09	-1.263866e+01	-2.024784e+02
2.860000e-06	-1.863845e-06	-3.191295e-09	-1.292449e+01	-2.115106e+02
2.870000e-06	-1.904433e-06	-3.322750e-09	-1.320594e+01	-2.199334e+02
2.880000e-06	-1.944374e-06	-3.443151e-09	-1.348290e+01	-2.277625e+02
2.890000e-06	-1.983741e-06	-3.554355e-09	-1.375589e+01	-2.350258e+02
2.900000e-06	-2.022573e-06	-3.659693e-09	-1.402516e+01	-2.417596e+02
2.910000e-06	-2.060656e-06	-3.758055e-09	-1.428923e+01	-2.480060e+02
2.920000e-06	-2.097698e-06	-3.846879e-09	-1.454610e+01	-2.538087e+02
2.930000e-06	-2.133758e-06	-3.927968e-09	-1.479615e+01	-2.592111e+02
2.940000e-06	-2.169110e-06	-4.006265e-09	-1.504129e+01	-2.642530e+02
