# Temperatura_=_26.12
# Concentracion g/m^3_=_15500.0
# C_Vs_to_Am_M_A/Vsm_=_65563218390.804596
# pendiente_HvsI_1/m_=_3716.3
# ordenada_HvsI_A/m_=_1297.0
# frecuencia_Hz_=_300839.3211002231

Tiempo_(s)	Campo_(V.s)	Magnetizacion_(V.s)	Campo_(kA/m)	Magnetizacion_(A/m)
0.000000e+00	-2.858388e-06	-5.199483e-09	-1.980216e+01	-3.406427e+02
1.000000e-08	-2.857438e-06	-5.192732e-09	-1.979558e+01	-3.406826e+02
2.000000e-08	-2.855495e-06	-5.188041e-09	-1.978212e+01	-3.406563e+02
3.000000e-08	-2.852291e-06	-5.190180e-09	-1.975992e+01	-3.405618e+02
4.000000e-08	-2.848010e-06	-5.192303e-09	-1.973027e+01	-3.403986e+02
5.000000e-08	-2.842971e-06	-5.187185e-09	-1.969536e+01	-3.401682e+02
6.000000e-08	-2.837137e-06	-5.181284e-09	-1.965494e+01	-3.398735e+02
7.000000e-08	-2.830346e-06	-5.181995e-09	-1.960789e+01	-3.395193e+02
8.000000e-08	-2.822479e-06	-5.182375e-09	-1.955340e+01	-3.391109e+02
9.000000e-08	-2.813401e-06	-5.163087e-09	-1.949051e+01	-3.386538e+02
1.000000e-07	-2.802899e-06	-5.146198e-09	-1.941774e+01	-3.381532e+02
1.100000e-07	-2.791169e-06	-5.140584e-09	-1.933649e+01	-3.376133e+02
1.200000e-07	-2.778681e-06	-5.144275e-09	-1.924997e+01	-3.370364e+02
1.300000e-07	-2.765343e-06	-5.124300e-09	-1.915757e+01	-3.364230e+02
1.400000e-07	-2.750978e-06	-5.115021e-09	-1.905805e+01	-3.357717e+02
1.500000e-07	-2.735590e-06	-5.126081e-09	-1.895145e+01	-3.350792e+02
1.600000e-07	-2.718882e-06	-5.105394e-09	-1.883570e+01	-3.343406e+02
1.700000e-07	-2.700864e-06	-5.106720e-09	-1.871087e+01	-3.335503e+02
1.800000e-07	-2.682105e-06	-5.100422e-09	-1.858092e+01	-3.327023e+02
1.900000e-07	-2.662688e-06	-5.069103e-09	-1.844640e+01	-3.317911e+02
2.000000e-07	-2.642349e-06	-5.051333e-09	-1.830550e+01	-3.308119e+02
2.100000e-07	-2.621183e-06	-5.046645e-09	-1.815887e+01	-3.297615e+02
2.200000e-07	-2.599278e-06	-5.041862e-09	-1.800711e+01	-3.286383e+02
2.300000e-07	-2.576428e-06	-5.025432e-09	-1.784882e+01	-3.274426e+02
2.400000e-07	-2.552596e-06	-4.996787e-09	-1.768372e+01	-3.261758e+02
2.500000e-07	-2.528010e-06	-4.967780e-09	-1.751339e+01	-3.248409e+02
2.600000e-07	-2.502620e-06	-4.938370e-09	-1.733749e+01	-3.234414e+02
2.700000e-07	-2.476230e-06	-4.928316e-09	-1.715467e+01	-3.219809e+02
2.800000e-07	-2.448709e-06	-4.912968e-09	-1.696401e+01	-3.204628e+02
2.900000e-07	-2.420171e-06	-4.875516e-09	-1.676631e+01	-3.188897e+02
3.000000e-07	-2.390853e-06	-4.862237e-09	-1.656320e+01	-3.172630e+02
3.100000e-07	-2.360797e-06	-4.853667e-09	-1.635498e+01	-3.155832e+02
3.200000e-07	-2.329980e-06	-4.819190e-09	-1.614149e+01	-3.138494e+02
3.300000e-07	-2.298326e-06	-4.771688e-09	-1.592220e+01	-3.120602e+02
3.400000e-07	-2.265965e-06	-4.751323e-09	-1.569801e+01	-3.102135e+02
3.500000e-07	-2.233082e-06	-4.730044e-09	-1.547020e+01	-3.083072e+02
3.600000e-07	-2.199451e-06	-4.696885e-09	-1.523721e+01	-3.063398e+02
3.700000e-07	-2.164652e-06	-4.675631e-09	-1.499614e+01	-3.043105e+02
3.800000e-07	-2.128708e-06	-4.644021e-09	-1.474713e+01	-3.022194e+02
3.900000e-07	-2.092083e-06	-4.605128e-09	-1.449340e+01	-3.000680e+02
4.000000e-07	-2.054894e-06	-4.577065e-09	-1.423577e+01	-2.978585e+02
4.100000e-07	-2.016982e-06	-4.538769e-09	-1.397312e+01	-2.955940e+02
4.200000e-07	-1.978349e-06	-4.486077e-09	-1.370548e+01	-2.932782e+02
4.300000e-07	-1.938979e-06	-4.459260e-09	-1.343274e+01	-2.909144e+02
4.400000e-07	-1.898917e-06	-4.435027e-09	-1.315520e+01	-2.885055e+02
4.500000e-07	-1.858396e-06	-4.392584e-09	-1.287448e+01	-2.860534e+02
4.600000e-07	-1.817508e-06	-4.349397e-09	-1.259122e+01	-2.835586e+02
4.700000e-07	-1.775979e-06	-4.312159e-09	-1.230352e+01	-2.810201e+02
4.800000e-07	-1.733421e-06	-4.269947e-09	-1.200869e+01	-2.784357e+02
4.900000e-07	-1.689824e-06	-4.220904e-09	-1.170665e+01	-2.758018e+02
5.000000e-07	-1.645519e-06	-4.178362e-09	-1.139972e+01	-2.731138e+02
5.100000e-07	-1.600773e-06	-4.142174e-09	-1.108974e+01	-2.703670e+02
5.200000e-07	-1.555667e-06	-4.107627e-09	-1.077725e+01	-2.675565e+02
5.300000e-07	-1.510075e-06	-4.064027e-09	-1.046140e+01	-2.646782e+02
5.400000e-07	-1.463866e-06	-4.014276e-09	-1.014128e+01	-2.617287e+02
5.500000e-07	-1.417092e-06	-3.957534e-09	-9.817240e+00	-2.587061e+02
5.600000e-07	-1.369849e-06	-3.903890e-09	-9.489951e+00	-2.556097e+02
5.700000e-07	-1.322114e-06	-3.858253e-09	-9.159261e+00	-2.524398e+02
5.800000e-07	-1.273907e-06	-3.814023e-09	-8.825293e+00	-2.491979e+02
5.900000e-07	-1.225365e-06	-3.768411e-09	-8.489004e+00	-2.458858e+02
6.000000e-07	-1.176502e-06	-3.719398e-09	-8.150500e+00	-2.425055e+02
6.100000e-07	-1.127130e-06	-3.668877e-09	-7.808461e+00	-2.390586e+02
6.200000e-07	-1.077131e-06	-3.611048e-09	-7.462078e+00	-2.355460e+02
6.300000e-07	-1.026539e-06	-3.551211e-09	-7.111591e+00	-2.319674e+02
6.400000e-07	-9.753992e-07	-3.491760e-09	-6.757309e+00	-2.283215e+02
6.500000e-07	-9.236759e-07	-3.434021e-09	-6.398984e+00	-2.246060e+02
6.600000e-07	-8.715260e-07	-3.376429e-09	-6.037703e+00	-2.208177e+02
6.700000e-07	-8.191534e-07	-3.316974e-09	-5.674879e+00	-2.169527e+02
6.800000e-07	-7.665206e-07	-3.256809e-09	-5.310253e+00	-2.130074e+02
6.900000e-07	-7.136098e-07	-3.195792e-09	-4.943701e+00	-2.089782e+02
7.000000e-07	-6.604398e-07	-3.134566e-09	-4.575353e+00	-2.048621e+02
7.100000e-07	-6.070059e-07	-3.069164e-09	-4.205177e+00	-2.006571e+02
7.200000e-07	-5.533863e-07	-3.002036e-09	-3.833715e+00	-1.963616e+02
7.300000e-07	-4.995867e-07	-2.933978e-09	-3.461005e+00	-1.919750e+02
7.400000e-07	-4.455179e-07	-2.862812e-09	-3.086431e+00	-1.874966e+02
7.500000e-07	-3.912419e-07	-2.787191e-09	-2.710421e+00	-1.829257e+02
7.600000e-07	-3.368989e-07	-2.711604e-09	-2.333947e+00	-1.782606e+02
7.700000e-07	-2.824878e-07	-2.640601e-09	-1.957001e+00	-1.734983e+02
7.800000e-07	-2.279811e-07	-2.571246e-09	-1.579393e+00	-1.686339e+02
7.900000e-07	-1.734392e-07	-2.498999e-09	-1.201542e+00	-1.636606e+02
8.000000e-07	-1.188817e-07	-2.420028e-09	-8.235812e-01	-1.585695e+02
8.100000e-07	-6.430876e-08	-2.338049e-09	-4.455142e-01	-1.533497e+02
8.200000e-07	-9.691885e-09	-2.254355e-09	-6.714283e-02	-1.479892e+02
8.300000e-07	4.495113e-08	-2.167611e-09	3.114096e-01	-1.424749e+02
8.400000e-07	9.957429e-08	-2.076240e-09	6.898245e-01	-1.367939e+02
8.500000e-07	1.541508e-07	-1.983622e-09	1.067916e+00	-1.309340e+02
8.600000e-07	2.086733e-07	-1.892746e-09	1.445634e+00	-1.248843e+02
8.700000e-07	2.631421e-07	-1.802747e-09	1.822979e+00	-1.186356e+02
8.800000e-07	3.175520e-07	-1.710163e-09	2.199916e+00	-1.121802e+02
8.900000e-07	3.718701e-07	-1.607697e-09	2.576218e+00	-1.055121e+02
9.000000e-07	4.260788e-07	-1.499103e-09	2.951762e+00	-9.862559e+01
9.100000e-07	4.801500e-07	-1.388920e-09	3.326353e+00	-9.151475e+01
9.200000e-07	5.340292e-07	-1.276399e-09	3.699614e+00	-8.417197e+01
9.300000e-07	5.877188e-07	-1.157644e-09	4.071561e+00	-7.658674e+01
9.400000e-07	6.411368e-07	-1.035445e-09	4.441627e+00	-6.874454e+01
9.500000e-07	6.942861e-07	-9.122510e-10	4.809832e+00	-6.062603e+01
9.600000e-07	7.471779e-07	-7.861077e-10	5.176252e+00	-5.220682e+01
9.700000e-07	7.998306e-07	-6.528240e-10	5.541016e+00	-4.345789e+01
9.800000e-07	8.522705e-07	-5.100269e-10	5.904306e+00	-3.434673e+01
9.900000e-07	9.043549e-07	-3.623352e-10	6.265133e+00	-2.483934e+01
1.000000e-06	9.560193e-07	-2.086487e-10	6.623050e+00	-1.490283e+01
1.010000e-06	1.007182e-06	-4.820278e-11	6.977494e+00	-4.508604e+00
1.020000e-06	1.057678e-06	1.183999e-10	7.327317e+00	6.364189e+00
1.030000e-06	1.107482e-06	2.921308e-10	7.672347e+00	1.772516e+01
1.040000e-06	1.156708e-06	4.739893e-10	8.013369e+00	2.956950e+01
1.050000e-06	1.205523e-06	6.612119e-10	8.351544e+00	4.187547e+01
1.060000e-06	1.254095e-06	8.517303e-10	8.688043e+00	5.460275e+01
1.070000e-06	1.302427e-06	1.048847e-09	9.022874e+00	6.769193e+01
1.080000e-06	1.350279e-06	1.251976e-09	9.354378e+00	8.106531e+01
1.090000e-06	1.397569e-06	1.458275e-09	9.681987e+00	9.462895e+01
1.100000e-06	1.444399e-06	1.665220e-09	1.000642e+01	1.082760e+02
1.110000e-06	1.490731e-06	1.872707e-09	1.032739e+01	1.218908e+02
1.120000e-06	1.536451e-06	2.077370e-09	1.064413e+01	1.353541e+02
1.130000e-06	1.581615e-06	2.277791e-09	1.095701e+01	1.485485e+02
1.140000e-06	1.626443e-06	2.474998e-09	1.126757e+01	1.613634e+02
1.150000e-06	1.670971e-06	2.664384e-09	1.157605e+01	1.737003e+02
1.160000e-06	1.714980e-06	2.841953e-09	1.188093e+01	1.854766e+02
1.170000e-06	1.758205e-06	3.007056e-09	1.218038e+01	1.966288e+02
1.180000e-06	1.800444e-06	3.161207e-09	1.247300e+01	2.071144e+02
1.190000e-06	1.841768e-06	3.307857e-09	1.275928e+01	2.169117e+02
1.200000e-06	1.882515e-06	3.448485e-09	1.304157e+01	2.260195e+02
1.210000e-06	1.922806e-06	3.578780e-09	1.332070e+01	2.344544e+02
1.220000e-06	1.962497e-06	3.695891e-09	1.359567e+01	2.422480e+02
1.230000e-06	2.001477e-06	3.803539e-09	1.386571e+01	2.494431e+02
1.240000e-06	2.039725e-06	3.906069e-09	1.413068e+01	2.560893e+02
1.250000e-06	2.077277e-06	4.000659e-09	1.439083e+01	2.622396e+02
1.260000e-06	2.114222e-06	4.085445e-09	1.464677e+01	2.679462e+02
1.270000e-06	2.150621e-06	4.163418e-09	1.489894e+01	2.732578e+02
1.280000e-06	2.186306e-06	4.238067e-09	1.514615e+01	2.782174e+02
1.290000e-06	2.220993e-06	4.308826e-09	1.538646e+01	2.828610e+02
1.300000e-06	2.254615e-06	4.374901e-09	1.561938e+01	2.872171e+02
1.310000e-06	2.287430e-06	4.435855e-09	1.584672e+01	2.913073e+02
1.320000e-06	2.319637e-06	4.492050e-09	1.606984e+01	2.951473e+02
1.330000e-06	2.351132e-06	4.545432e-09	1.628803e+01	2.987482e+02
1.340000e-06	2.381794e-06	4.594826e-09	1.650044e+01	3.021187e+02
1.350000e-06	2.411605e-06	4.640310e-09	1.670696e+01	3.052659e+02
1.360000e-06	2.440682e-06	4.682890e-09	1.690840e+01	3.081977e+02
1.370000e-06	2.469082e-06	4.721919e-09	1.710515e+01	3.109228e+02
1.380000e-06	2.496572e-06	4.757883e-09	1.729560e+01	3.134522e+02
1.390000e-06	2.522848e-06	4.792576e-09	1.747763e+01	3.157987e+02
1.400000e-06	2.548004e-06	4.825963e-09	1.765190e+01	3.179768e+02
1.410000e-06	2.572275e-06	4.856291e-09	1.782005e+01	3.200019e+02
1.420000e-06	2.595697e-06	4.883734e-09	1.798230e+01	3.218894e+02
1.430000e-06	2.618246e-06	4.910080e-09	1.813852e+01	3.236542e+02
1.440000e-06	2.639907e-06	4.935050e-09	1.828858e+01	3.253091e+02
1.450000e-06	2.660852e-06	4.956064e-09	1.843368e+01	3.268649e+02
1.460000e-06	2.681150e-06	4.973761e-09	1.857430e+01	3.283295e+02
1.470000e-06	2.700510e-06	4.992940e-09	1.870843e+01	3.297083e+02
1.480000e-06	2.718859e-06	5.016538e-09	1.883554e+01	3.310041e+02
1.490000e-06	2.736260e-06	5.039354e-09	1.895609e+01	3.322180e+02
1.500000e-06	2.752632e-06	5.056099e-09	1.906951e+01	3.333498e+02
1.510000e-06	2.767853e-06	5.069330e-09	1.917496e+01	3.343989e+02
1.520000e-06	2.781964e-06	5.082113e-09	1.927272e+01	3.353651e+02
1.530000e-06	2.795081e-06	5.094426e-09	1.936359e+01	3.362491e+02
1.540000e-06	2.807119e-06	5.104523e-09	1.944698e+01	3.370529e+02
1.550000e-06	2.817837e-06	5.113243e-09	1.952123e+01	3.377799e+02
1.560000e-06	2.827276e-06	5.124886e-09	1.958663e+01	3.384346e+02
1.570000e-06	2.835765e-06	5.140302e-09	1.964543e+01	3.390225e+02
1.580000e-06	2.843334e-06	5.153482e-09	1.969787e+01	3.395491e+02
1.590000e-06	2.849951e-06	5.159324e-09	1.974371e+01	3.400199e+02
1.600000e-06	2.855651e-06	5.161105e-09	1.978320e+01	3.404392e+02
1.610000e-06	2.860541e-06	5.164540e-09	1.981707e+01	3.408099e+02
1.620000e-06	2.864516e-06	5.170002e-09	1.984462e+01	3.411334e+02
1.630000e-06	2.867271e-06	5.175241e-09	1.986370e+01	3.414089e+02
1.640000e-06	2.868833e-06	5.180359e-09	1.987452e+01	3.416342e+02
1.650000e-06	2.869407e-06	5.186916e-09	1.987850e+01	3.418059e+02
1.660000e-06	2.869081e-06	5.192405e-09	1.987624e+01	3.419196e+02
1.670000e-06	2.867833e-06	5.192632e-09	1.986759e+01	3.419713e+02
1.680000e-06	2.865698e-06	5.188718e-09	1.985280e+01	3.419574e+02
1.690000e-06	2.862782e-06	5.185434e-09	1.983260e+01	3.418755e+02
1.700000e-06	2.859081e-06	5.183582e-09	1.980696e+01	3.417248e+02
1.710000e-06	2.854379e-06	5.181167e-09	1.977439e+01	3.415065e+02
1.720000e-06	2.848521e-06	5.172861e-09	1.973381e+01	3.412234e+02
1.730000e-06	2.841684e-06	5.166972e-09	1.968644e+01	3.408797e+02
1.740000e-06	2.833905e-06	5.160408e-09	1.963255e+01	3.404809e+02
1.750000e-06	2.824801e-06	5.163788e-09	1.956948e+01	3.400324e+02
1.760000e-06	2.814112e-06	5.158845e-09	1.949543e+01	3.395396e+02
1.770000e-06	2.802465e-06	5.150621e-09	1.941474e+01	3.390068e+02
1.780000e-06	2.790658e-06	5.153062e-09	1.933295e+01	3.384367e+02
1.790000e-06	2.778114e-06	5.119099e-09	1.924604e+01	3.378302e+02
1.800000e-06	2.763881e-06	5.103202e-09	1.914744e+01	3.371862e+02
1.810000e-06	2.748423e-06	5.108722e-09	1.904035e+01	3.365017e+02
1.820000e-06	2.732447e-06	5.116260e-09	1.892968e+01	3.357721e+02
1.830000e-06	2.715424e-06	5.113221e-09	1.881175e+01	3.349918e+02
1.840000e-06	2.697070e-06	5.105421e-09	1.868459e+01	3.341548e+02
1.850000e-06	2.678009e-06	5.106611e-09	1.855254e+01	3.332556e+02
1.860000e-06	2.658233e-06	5.069693e-09	1.841554e+01	3.322891e+02
1.870000e-06	2.637195e-06	5.048320e-09	1.826980e+01	3.312519e+02
1.880000e-06	2.615037e-06	5.046051e-09	1.811629e+01	3.301421e+02
1.890000e-06	2.591924e-06	5.002543e-09	1.795617e+01	3.289596e+02
1.900000e-06	2.567810e-06	4.994709e-09	1.778911e+01	3.277057e+02
1.910000e-06	2.542976e-06	5.007522e-09	1.761707e+01	3.263830e+02
1.920000e-06	2.517380e-06	4.972629e-09	1.743974e+01	3.249951e+02
1.930000e-06	2.490890e-06	4.937417e-09	1.725623e+01	3.235455e+02
1.940000e-06	2.463730e-06	4.918492e-09	1.706808e+01	3.220378e+02
1.950000e-06	2.435749e-06	4.902609e-09	1.687423e+01	3.204747e+02
1.960000e-06	2.406530e-06	4.866641e-09	1.667181e+01	3.188579e+02
1.970000e-06	2.376209e-06	4.837013e-09	1.646175e+01	3.171879e+02
1.980000e-06	2.345093e-06	4.832760e-09	1.624619e+01	3.154641e+02
1.990000e-06	2.313216e-06	4.810963e-09	1.602535e+01	3.136853e+02
2.000000e-06	2.280605e-06	4.759106e-09	1.579943e+01	3.118493e+02
2.010000e-06	2.247215e-06	4.733726e-09	1.556812e+01	3.099541e+02
2.020000e-06	2.213075e-06	4.710088e-09	1.533160e+01	3.079981e+02
2.030000e-06	2.178340e-06	4.658484e-09	1.509097e+01	3.059802e+02
2.040000e-06	2.142956e-06	4.636335e-09	1.484584e+01	3.039004e+02
2.050000e-06	2.106860e-06	4.612692e-09	1.459577e+01	3.017599e+02
2.060000e-06	2.069812e-06	4.565708e-09	1.433911e+01	2.995608e+02
2.070000e-06	2.031623e-06	4.543174e-09	1.407455e+01	2.973063e+02
2.080000e-06	1.992678e-06	4.516616e-09	1.380475e+01	2.949997e+02
2.090000e-06	1.953219e-06	4.464997e-09	1.353139e+01	2.926446e+02
2.100000e-06	1.913132e-06	4.429101e-09	1.325368e+01	2.902439e+02
2.110000e-06	1.872353e-06	4.392270e-09	1.297117e+01	2.877997e+02
2.120000e-06	1.830947e-06	4.350481e-09	1.268432e+01	2.853129e+02
2.130000e-06	1.789000e-06	4.317223e-09	1.239372e+01	2.827827e+02
2.140000e-06	1.746457e-06	4.281752e-09	1.209900e+01	2.802070e+02
2.150000e-06	1.703392e-06	4.244630e-09	1.180065e+01	2.775826e+02
2.160000e-06	1.659951e-06	4.195648e-09	1.149971e+01	2.749049e+02
2.170000e-06	1.615958e-06	4.149373e-09	1.119493e+01	2.721693e+02
2.180000e-06	1.571257e-06	4.112889e-09	1.088526e+01	2.693708e+02
2.190000e-06	1.525997e-06	4.071183e-09	1.057170e+01	2.665052e+02
2.200000e-06	1.480288e-06	4.024554e-09	1.025505e+01	2.635690e+02
2.210000e-06	1.434165e-06	3.978716e-09	9.935516e+00	2.605598e+02
2.220000e-06	1.387538e-06	3.933436e-09	9.612495e+00	2.574769e+02
2.230000e-06	1.340327e-06	3.883902e-09	9.285430e+00	2.543204e+02
2.240000e-06	1.292541e-06	3.831171e-09	8.954383e+00	2.510915e+02
2.250000e-06	1.244154e-06	3.783203e-09	8.619175e+00	2.477921e+02
2.260000e-06	1.195280e-06	3.737640e-09	8.280586e+00	2.444242e+02
2.270000e-06	1.146021e-06	3.688268e-09	7.939331e+00	2.409894e+02
2.280000e-06	1.096348e-06	3.639252e-09	7.595214e+00	2.374888e+02
2.290000e-06	1.046180e-06	3.584957e-09	7.247658e+00	2.339224e+02
2.300000e-06	9.955142e-07	3.524159e-09	6.896661e+00	2.302890e+02
2.310000e-06	9.445160e-07	3.460852e-09	6.543359e+00	2.265865e+02
2.320000e-06	8.933005e-07	3.399304e-09	6.188551e+00	2.228117e+02
2.330000e-06	8.418423e-07	3.345278e-09	5.832062e+00	2.189611e+02
2.340000e-06	7.899941e-07	3.291151e-09	5.472872e+00	2.150307e+02
2.350000e-06	7.376574e-07	3.232371e-09	5.110296e+00	2.110171e+02
2.360000e-06	6.849119e-07	3.169468e-09	4.744889e+00	2.069170e+02
2.370000e-06	6.318244e-07	3.105690e-09	4.377113e+00	2.027283e+02
2.380000e-06	5.783110e-07	3.043045e-09	4.006386e+00	1.984493e+02
2.390000e-06	5.243589e-07	2.978744e-09	3.632621e+00	1.940794e+02
2.400000e-06	4.701368e-07	2.913440e-09	3.256984e+00	1.896178e+02
2.410000e-06	4.157259e-07	2.848693e-09	2.880039e+00	1.850638e+02
2.420000e-06	3.611257e-07	2.782476e-09	2.501784e+00	1.804160e+02
2.430000e-06	3.063502e-07	2.710334e-09	2.122314e+00	1.756716e+02
2.440000e-06	2.514620e-07	2.632424e-09	1.742063e+00	1.708263e+02
2.450000e-06	1.965379e-07	2.554244e-09	1.361563e+00	1.658733e+02
2.460000e-06	1.416178e-07	2.479422e-09	9.810907e-01	1.608043e+02
2.470000e-06	8.668680e-08	2.402403e-09	6.005434e-01	1.556087e+02
2.480000e-06	3.171024e-08	2.321945e-09	2.196802e-01	1.502746e+02
2.490000e-06	-2.327622e-08	2.239707e-09	-1.612515e-01	1.447890e+02
2.500000e-06	-7.825074e-08	2.156329e-09	-5.421005e-01	1.391391e+02
2.510000e-06	-1.332137e-07	2.069889e-09	-9.228693e-01	1.333123e+02
2.520000e-06	-1.881616e-07	1.974825e-09	-1.303534e+00	1.272975e+02
2.530000e-06	-2.430714e-07	1.875175e-09	-1.683935e+00	1.210853e+02
2.540000e-06	-2.979275e-07	1.776387e-09	-2.063963e+00	1.146676e+02
2.550000e-06	-3.527043e-07	1.680982e-09	-2.443442e+00	1.080382e+02
2.560000e-06	-4.073289e-07	1.582214e-09	-2.821867e+00	1.011914e+02
2.570000e-06	-4.618090e-07	1.474655e-09	-3.199291e+00	9.412148e+01
2.580000e-06	-5.160898e-07	1.363344e-09	-3.575334e+00	8.682111e+01
2.590000e-06	-5.700238e-07	1.250701e-09	-3.948975e+00	7.928043e+01
2.600000e-06	-6.235070e-07	1.133368e-09	-4.319492e+00	7.148572e+01
2.610000e-06	-6.765587e-07	1.007686e-09	-4.687021e+00	6.341852e+01
2.620000e-06	-7.292017e-07	8.762632e-10	-5.051718e+00	5.505533e+01
2.630000e-06	-7.813487e-07	7.430963e-10	-5.412979e+00	4.636790e+01
2.640000e-06	-8.331120e-07	6.069522e-10	-5.771581e+00	3.732423e+01
2.650000e-06	-8.845786e-07	4.646287e-10	-6.128128e+00	2.789040e+01
2.660000e-06	-9.357550e-07	3.164290e-10	-6.482665e+00	1.803311e+01
2.670000e-06	-9.866697e-07	1.623290e-10	-6.835388e+00	7.722745e+00
2.680000e-06	-1.037311e-06	-5.211532e-13	-7.186216e+00	-3.063194e+00
2.690000e-06	-1.087522e-06	-1.720424e-10	-7.534063e+00	-1.433656e+01
2.700000e-06	-1.137206e-06	-3.514775e-10	-7.878263e+00	-2.609535e+01
2.710000e-06	-1.186458e-06	-5.378588e-10	-8.219470e+00	-3.832097e+01
2.720000e-06	-1.235287e-06	-7.306282e-10	-8.557741e+00	-5.097650e+01
2.730000e-06	-1.283519e-06	-9.302815e-10	-8.891881e+00	-6.400592e+01
2.740000e-06	-1.330981e-06	-1.135203e-09	-9.220688e+00	-7.733469e+01
2.750000e-06	-1.377637e-06	-1.343989e-09	-9.543905e+00	-9.087155e+01
2.760000e-06	-1.423613e-06	-1.554321e-09	-9.862420e+00	-1.045116e+02
2.770000e-06	-1.469181e-06	-1.763229e-09	-1.017810e+01	-1.181406e+02
2.780000e-06	-1.514520e-06	-1.969914e-09	-1.049219e+01	-1.316394e+02
2.790000e-06	-1.559532e-06	-2.174546e-09	-1.080403e+01	-1.448899e+02
2.800000e-06	-1.604039e-06	-2.374221e-09	-1.111236e+01	-1.577798e+02
2.810000e-06	-1.648000e-06	-2.566105e-09	-1.141691e+01	-1.702083e+02
2.820000e-06	-1.691432e-06	-2.750100e-09	-1.171780e+01	-1.820896e+02
2.830000e-06	-1.734484e-06	-2.923879e-09	-1.201605e+01	-1.933567e+02
2.840000e-06	-1.777122e-06	-3.084676e-09	-1.231143e+01	-2.039632e+02
2.850000e-06	-1.819142e-06	-3.234852e-09	-1.260254e+01	-2.138838e+02
2.860000e-06	-1.860526e-06	-3.375990e-09	-1.288923e+01	-2.231136e+02
2.870000e-06	-1.901270e-06	-3.508985e-09	-1.317150e+01	-2.316664e+02
2.880000e-06	-1.941357e-06	-3.632764e-09	-1.344921e+01	-2.395714e+02
2.890000e-06	-1.980846e-06	-3.746686e-09	-1.372278e+01	-2.468695e+02
2.900000e-06	-2.019746e-06	-3.851599e-09	-1.399227e+01	-2.536095e+02
2.910000e-06	-2.057897e-06	-3.948955e-09	-1.425657e+01	-2.598442e+02
2.920000e-06	-2.095124e-06	-4.039636e-09	-1.451447e+01	-2.656259e+02
2.930000e-06	-2.131347e-06	-4.123240e-09	-1.476541e+01	-2.710044e+02
2.940000e-06	-2.166734e-06	-4.201236e-09	-1.501056e+01	-2.760237e+02
