# Temperatura_=_18.84
# Concentracion g/m^3_=_15500.0
# C_Vs_to_Am_M_A/Vsm_=_65563218390.804596
# pendiente_HvsI_1/m_=_3716.3
# ordenada_HvsI_A/m_=_1297.0
# frecuencia_Hz_=_300847.25426262605

Tiempo_(s)	Campo_(V.s)	Magnetizacion_(V.s)	Campo_(kA/m)	Magnetizacion_(A/m)
0.000000e+00	-2.857969e-06	-4.968304e-09	-1.980509e+01	-3.251877e+02
1.000000e-08	-2.857576e-06	-4.968491e-09	-1.980237e+01	-3.252273e+02
2.000000e-08	-2.856485e-06	-4.962040e-09	-1.979481e+01	-3.252114e+02
3.000000e-08	-2.854335e-06	-4.954275e-09	-1.977991e+01	-3.251372e+02
4.000000e-08	-2.850849e-06	-4.950901e-09	-1.975575e+01	-3.250019e+02
5.000000e-08	-2.846400e-06	-4.949875e-09	-1.972492e+01	-3.248032e+02
6.000000e-08	-2.841247e-06	-4.944205e-09	-1.968921e+01	-3.245394e+02
7.000000e-08	-2.835220e-06	-4.932316e-09	-1.964745e+01	-3.242101e+02
8.000000e-08	-2.828196e-06	-4.926959e-09	-1.959877e+01	-3.238162e+02
9.000000e-08	-2.820112e-06	-4.960760e-09	-1.954275e+01	-3.233597e+02
1.000000e-07	-2.810744e-06	-4.979820e-09	-1.947783e+01	-3.228437e+02
1.100000e-07	-2.799848e-06	-4.918536e-09	-1.940233e+01	-3.222723e+02
1.200000e-07	-2.787861e-06	-4.813170e-09	-1.931926e+01	-3.216495e+02
1.300000e-07	-2.775258e-06	-4.874707e-09	-1.923192e+01	-3.209793e+02
1.400000e-07	-2.761709e-06	-4.967959e-09	-1.913803e+01	-3.202653e+02
1.500000e-07	-2.747068e-06	-4.853759e-09	-1.903657e+01	-3.195099e+02
1.600000e-07	-2.731538e-06	-4.796300e-09	-1.892896e+01	-3.187143e+02
1.700000e-07	-2.714652e-06	-4.924175e-09	-1.881193e+01	-3.178785e+02
1.800000e-07	-2.696427e-06	-4.916675e-09	-1.868564e+01	-3.170012e+02
1.900000e-07	-2.677641e-06	-4.756895e-09	-1.855546e+01	-3.160799e+02
2.000000e-07	-2.658169e-06	-4.830034e-09	-1.842052e+01	-3.151115e+02
2.100000e-07	-2.637701e-06	-4.861959e-09	-1.827868e+01	-3.140925e+02
2.200000e-07	-2.616448e-06	-4.702854e-09	-1.813140e+01	-3.130193e+02
2.300000e-07	-2.594420e-06	-4.765840e-09	-1.797876e+01	-3.118889e+02
2.400000e-07	-2.571347e-06	-4.860157e-09	-1.781887e+01	-3.106987e+02
2.500000e-07	-2.547309e-06	-4.712237e-09	-1.765229e+01	-3.094471e+02
2.600000e-07	-2.522575e-06	-4.671078e-09	-1.748089e+01	-3.081334e+02
2.700000e-07	-2.496978e-06	-4.732985e-09	-1.730351e+01	-3.067578e+02
2.800000e-07	-2.470221e-06	-4.671248e-09	-1.711808e+01	-3.053213e+02
2.900000e-07	-2.442367e-06	-4.622531e-09	-1.692506e+01	-3.038250e+02
3.000000e-07	-2.413593e-06	-4.621621e-09	-1.672567e+01	-3.022708e+02
3.100000e-07	-2.384053e-06	-4.611485e-09	-1.652096e+01	-3.006601e+02
3.200000e-07	-2.353830e-06	-4.599024e-09	-1.631152e+01	-2.989944e+02
3.300000e-07	-2.322876e-06	-4.569806e-09	-1.609702e+01	-2.972746e+02
3.400000e-07	-2.291116e-06	-4.512921e-09	-1.587692e+01	-2.955014e+02
3.500000e-07	-2.258661e-06	-4.500393e-09	-1.565202e+01	-2.936749e+02
3.600000e-07	-2.225636e-06	-4.465851e-09	-1.542316e+01	-2.917952e+02
3.700000e-07	-2.191726e-06	-4.442184e-09	-1.518817e+01	-2.898622e+02
3.800000e-07	-2.156586e-06	-4.437864e-09	-1.494466e+01	-2.878758e+02
3.900000e-07	-2.120457e-06	-4.369431e-09	-1.469430e+01	-2.858362e+02
4.000000e-07	-2.083762e-06	-4.344361e-09	-1.444001e+01	-2.837440e+02
4.100000e-07	-2.046431e-06	-4.346654e-09	-1.418131e+01	-2.816001e+02
4.200000e-07	-2.008352e-06	-4.286661e-09	-1.391744e+01	-2.794059e+02
4.300000e-07	-1.969565e-06	-4.224082e-09	-1.364865e+01	-2.771628e+02
4.400000e-07	-1.930041e-06	-4.216643e-09	-1.337475e+01	-2.748724e+02
4.500000e-07	-1.889904e-06	-4.187582e-09	-1.309661e+01	-2.725359e+02
4.600000e-07	-1.849398e-06	-4.147735e-09	-1.281592e+01	-2.701540e+02
4.700000e-07	-1.808518e-06	-4.106025e-09	-1.253263e+01	-2.677268e+02
4.800000e-07	-1.766826e-06	-4.060180e-09	-1.224371e+01	-2.652532e+02
4.900000e-07	-1.723998e-06	-4.018545e-09	-1.194692e+01	-2.627317e+02
5.000000e-07	-1.680202e-06	-3.981607e-09	-1.164342e+01	-2.601593e+02
5.100000e-07	-1.635842e-06	-3.950165e-09	-1.133602e+01	-2.575326e+02
5.200000e-07	-1.591085e-06	-3.900687e-09	-1.102587e+01	-2.548478e+02
5.300000e-07	-1.545921e-06	-3.862571e-09	-1.071289e+01	-2.521006e+02
5.400000e-07	-1.500243e-06	-3.829826e-09	-1.039635e+01	-2.492874e+02
5.500000e-07	-1.453935e-06	-3.783372e-09	-1.007544e+01	-2.464046e+02
5.600000e-07	-1.407105e-06	-3.718634e-09	-9.750928e+00	-2.434499e+02
5.700000e-07	-1.359793e-06	-3.671501e-09	-9.423062e+00	-2.404217e+02
5.800000e-07	-1.311936e-06	-3.635168e-09	-9.091425e+00	-2.373196e+02
5.900000e-07	-1.263640e-06	-3.591098e-09	-8.756742e+00	-2.341442e+02
6.000000e-07	-1.215033e-06	-3.543826e-09	-8.419910e+00	-2.308967e+02
6.100000e-07	-1.166073e-06	-3.490631e-09	-8.080625e+00	-2.275791e+02
6.200000e-07	-1.116579e-06	-3.439711e-09	-7.737641e+00	-2.241932e+02
6.300000e-07	-1.066323e-06	-3.386520e-09	-7.389381e+00	-2.207408e+02
6.400000e-07	-1.015401e-06	-3.333233e-09	-7.036502e+00	-2.172229e+02
6.500000e-07	-9.640493e-07	-3.270037e-09	-6.680648e+00	-2.136399e+02
6.600000e-07	-9.122692e-07	-3.211540e-09	-6.321823e+00	-2.099907e+02
6.700000e-07	-8.600945e-07	-3.159517e-09	-5.960264e+00	-2.062736e+02
6.800000e-07	-8.076489e-07	-3.103652e-09	-5.596827e+00	-2.024856e+02
6.900000e-07	-7.550030e-07	-3.041736e-09	-5.232003e+00	-1.986229e+02
7.000000e-07	-7.020796e-07	-2.979576e-09	-4.865256e+00	-1.946813e+02
7.100000e-07	-6.488227e-07	-2.923880e-09	-4.496197e+00	-1.906563e+02
7.200000e-07	-5.953409e-07	-2.863892e-09	-4.125580e+00	-1.865436e+02
7.300000e-07	-5.416786e-07	-2.798411e-09	-3.753712e+00	-1.823392e+02
7.400000e-07	-4.877996e-07	-2.725722e-09	-3.380343e+00	-1.780397e+02
7.500000e-07	-4.337090e-07	-2.653138e-09	-3.005507e+00	-1.736424e+02
7.600000e-07	-3.795000e-07	-2.582541e-09	-2.629851e+00	-1.691448e+02
7.700000e-07	-3.251956e-07	-2.512415e-09	-2.253534e+00	-1.645450e+02
7.800000e-07	-2.707653e-07	-2.439807e-09	-1.876344e+00	-1.598411e+02
7.900000e-07	-2.162868e-07	-2.367060e-09	-1.498819e+00	-1.550310e+02
8.000000e-07	-1.617829e-07	-2.297868e-09	-1.121120e+00	-1.501118e+02
8.100000e-07	-1.072462e-07	-2.223689e-09	-7.431927e-01	-1.450799e+02
8.200000e-07	-5.267214e-08	-2.144576e-09	-3.650063e-01	-1.399306e+02
8.300000e-07	1.917354e-09	-2.060436e-09	1.328684e-02	-1.346583e+02
8.400000e-07	5.648194e-08	-1.973988e-09	3.914073e-01	-1.292561e+02
8.500000e-07	1.110052e-07	-1.884015e-09	7.692417e-01	-1.237163e+02
8.600000e-07	1.655089e-07	-1.794565e-09	1.146940e+00	-1.180306e+02
8.700000e-07	2.200143e-07	-1.707253e-09	1.524651e+00	-1.121904e+02
8.800000e-07	2.744819e-07	-1.620944e-09	1.902099e+00	-1.061868e+02
8.900000e-07	3.288903e-07	-1.533848e-09	2.279137e+00	-1.000111e+02
9.000000e-07	3.832124e-07	-1.437181e-09	2.655577e+00	-9.365447e+01
9.100000e-07	4.374005e-07	-1.334707e-09	3.031089e+00	-8.710815e+01
9.200000e-07	4.914094e-07	-1.229915e-09	3.405358e+00	-8.036288e+01
9.300000e-07	5.451962e-07	-1.122220e-09	3.778089e+00	-7.340861e+01
9.400000e-07	5.987255e-07	-1.008417e-09	4.149035e+00	-6.623399e+01
9.500000e-07	6.520050e-07	-8.929164e-10	4.518250e+00	-5.882589e+01
9.600000e-07	7.050548e-07	-7.764282e-10	4.885874e+00	-5.116902e+01
9.700000e-07	7.578791e-07	-6.591044e-10	5.251934e+00	-4.324586e+01
9.800000e-07	8.104555e-07	-5.363563e-10	5.616277e+00	-3.503679e+01
9.900000e-07	8.627371e-07	-4.029533e-10	5.978577e+00	-2.652071e+01
1.000000e-06	9.147066e-07	-2.635456e-10	6.338714e+00	-1.767609e+01
1.010000e-06	9.663299e-07	-1.196303e-10	6.696451e+00	-8.482420e+00
1.020000e-06	1.017455e-06	2.661793e-11	7.050739e+00	1.077909e+00
1.030000e-06	1.067921e-06	1.803764e-10	7.400458e+00	1.101750e+01
1.040000e-06	1.117575e-06	3.410903e-10	7.744547e+00	2.134171e+01
1.050000e-06	1.166590e-06	5.047152e-10	8.084212e+00	3.204644e+01
1.060000e-06	1.215295e-06	6.710164e-10	8.421722e+00	4.311627e+01
1.070000e-06	1.263790e-06	8.435084e-10	8.757781e+00	5.452301e+01
1.080000e-06	1.312026e-06	1.022804e-09	9.092049e+00	6.622494e+01
1.090000e-06	1.359816e-06	1.204739e-09	9.423222e+00	7.816684e+01
1.100000e-06	1.407058e-06	1.389168e-09	9.750601e+00	9.028087e+01
1.110000e-06	1.453794e-06	1.575362e-09	1.007447e+01	1.024884e+02
1.120000e-06	1.500015e-06	1.764791e-09	1.039477e+01	1.147024e+02
1.130000e-06	1.545683e-06	1.949499e-09	1.071124e+01	1.268311e+02
1.140000e-06	1.590802e-06	2.128204e-09	1.102391e+01	1.387812e+02
1.150000e-06	1.635499e-06	2.304852e-09	1.133364e+01	1.504623e+02
1.160000e-06	1.679902e-06	2.478324e-09	1.164135e+01	1.617902e+02
1.170000e-06	1.723816e-06	2.646046e-09	1.194566e+01	1.726910e+02
1.180000e-06	1.766930e-06	2.804133e-09	1.224443e+01	1.831033e+02
1.190000e-06	1.809025e-06	2.953198e-09	1.253614e+01	1.929810e+02
1.200000e-06	1.850174e-06	3.095682e-09	1.282129e+01	2.022940e+02
1.210000e-06	1.890754e-06	3.231441e-09	1.310250e+01	2.110283e+02
1.220000e-06	1.930905e-06	3.356093e-09	1.338075e+01	2.191854e+02
1.230000e-06	1.970404e-06	3.468066e-09	1.365446e+01	2.267804e+02
1.240000e-06	2.009197e-06	3.570287e-09	1.392329e+01	2.338394e+02
1.250000e-06	2.047309e-06	3.668711e-09	1.418739e+01	2.403970e+02
1.260000e-06	2.084655e-06	3.762469e-09	1.444620e+01	2.464929e+02
1.270000e-06	2.121416e-06	3.849564e-09	1.470094e+01	2.521687e+02
1.280000e-06	2.157735e-06	3.930725e-09	1.495262e+01	2.574654e+02
1.290000e-06	2.193339e-06	4.006208e-09	1.519935e+01	2.624210e+02
1.300000e-06	2.227903e-06	4.075120e-09	1.543887e+01	2.670689e+02
1.310000e-06	2.261343e-06	4.138651e-09	1.567061e+01	2.714365e+02
1.320000e-06	2.293953e-06	4.199056e-09	1.589659e+01	2.755457e+02
1.330000e-06	2.325943e-06	4.256283e-09	1.611827e+01	2.794125e+02
1.340000e-06	2.357178e-06	4.310956e-09	1.633472e+01	2.830486e+02
1.350000e-06	2.387612e-06	4.362847e-09	1.654562e+01	2.864622e+02
1.360000e-06	2.417208e-06	4.411565e-09	1.675072e+01	2.896592e+02
1.370000e-06	2.446060e-06	4.455860e-09	1.695065e+01	2.926452e+02
1.380000e-06	2.474338e-06	4.495786e-09	1.714661e+01	2.954263e+02
1.390000e-06	2.501727e-06	4.531965e-09	1.733641e+01	2.980101e+02
1.400000e-06	2.527788e-06	4.564596e-09	1.751701e+01	3.004061e+02
1.410000e-06	2.552715e-06	4.594456e-09	1.768975e+01	3.026258e+02
1.420000e-06	2.576845e-06	4.623960e-09	1.785697e+01	3.046828e+02
1.430000e-06	2.600119e-06	4.655341e-09	1.801825e+01	3.065917e+02
1.440000e-06	2.622462e-06	4.686031e-09	1.817308e+01	3.083676e+02
1.450000e-06	2.643915e-06	4.712595e-09	1.832174e+01	3.100250e+02
1.460000e-06	2.664622e-06	4.735039e-09	1.846524e+01	3.115771e+02
1.470000e-06	2.684650e-06	4.754996e-09	1.860403e+01	3.130352e+02
1.480000e-06	2.703734e-06	4.773019e-09	1.873628e+01	3.144080e+02
1.490000e-06	2.721789e-06	4.790107e-09	1.886139e+01	3.157013e+02
1.500000e-06	2.738923e-06	4.807682e-09	1.898013e+01	3.169186e+02
1.510000e-06	2.754991e-06	4.827090e-09	1.909148e+01	3.180610e+02
1.520000e-06	2.769916e-06	4.846988e-09	1.919490e+01	3.191278e+02
1.530000e-06	2.783834e-06	4.863136e-09	1.929135e+01	3.201176e+02
1.540000e-06	2.796755e-06	4.874644e-09	1.938089e+01	3.210285e+02
1.550000e-06	2.808545e-06	4.884681e-09	1.946260e+01	3.218590e+02
1.560000e-06	2.818986e-06	4.894682e-09	1.953494e+01	3.226088e+02
1.570000e-06	2.828190e-06	4.905092e-09	1.959873e+01	3.232785e+02
1.580000e-06	2.836525e-06	4.916887e-09	1.965649e+01	3.238703e+02
1.590000e-06	2.843971e-06	4.928549e-09	1.970809e+01	3.243875e+02
1.600000e-06	2.850408e-06	4.937833e-09	1.975269e+01	3.248343e+02
1.610000e-06	2.855886e-06	4.944346e-09	1.979066e+01	3.252153e+02
1.620000e-06	2.860586e-06	4.948944e-09	1.982322e+01	3.255353e+02
1.630000e-06	2.864403e-06	4.953071e-09	1.984968e+01	3.257981e+02
1.640000e-06	2.866904e-06	4.956601e-09	1.986701e+01	3.260069e+02
1.650000e-06	2.868172e-06	4.959245e-09	1.987580e+01	3.261633e+02
1.660000e-06	2.868562e-06	4.962954e-09	1.987850e+01	3.262677e+02
1.670000e-06	2.868034e-06	4.965849e-09	1.987484e+01	3.263192e+02
1.680000e-06	2.866544e-06	4.964188e-09	1.986451e+01	3.263156e+02
1.690000e-06	2.864152e-06	4.962339e-09	1.984793e+01	3.262545e+02
1.700000e-06	2.860990e-06	4.962931e-09	1.982603e+01	3.261328e+02
1.710000e-06	2.857117e-06	4.962640e-09	1.979918e+01	3.259481e+02
1.720000e-06	2.852175e-06	4.960172e-09	1.976494e+01	3.256986e+02
1.730000e-06	2.845995e-06	4.962459e-09	1.972211e+01	3.253836e+02
1.740000e-06	2.838918e-06	4.958663e-09	1.967307e+01	3.250036e+02
1.750000e-06	2.830986e-06	4.902515e-09	1.961811e+01	3.245606e+02
1.760000e-06	2.821595e-06	4.877907e-09	1.955302e+01	3.240573e+02
1.770000e-06	2.810505e-06	4.950984e-09	1.947617e+01	3.234977e+02
1.780000e-06	2.798708e-06	4.987528e-09	1.939442e+01	3.228858e+02
1.790000e-06	2.786992e-06	4.895970e-09	1.931323e+01	3.222258e+02
1.800000e-06	2.774308e-06	4.815337e-09	1.922534e+01	3.215212e+02
1.810000e-06	2.759701e-06	4.936976e-09	1.912411e+01	3.207748e+02
1.820000e-06	2.744095e-06	4.903075e-09	1.901597e+01	3.199880e+02
1.830000e-06	2.728115e-06	4.763727e-09	1.890523e+01	3.191612e+02
1.840000e-06	2.710900e-06	4.865326e-09	1.878593e+01	3.182932e+02
1.850000e-06	2.692280e-06	4.939081e-09	1.865690e+01	3.173818e+02
1.860000e-06	2.673094e-06	4.785017e-09	1.852395e+01	3.164240e+02
1.870000e-06	2.653139e-06	4.774998e-09	1.838567e+01	3.154164e+02
1.880000e-06	2.631748e-06	4.908587e-09	1.823743e+01	3.143554e+02
1.890000e-06	2.609384e-06	4.764109e-09	1.808245e+01	3.132378e+02
1.900000e-06	2.586167e-06	4.664769e-09	1.792156e+01	3.120608e+02
1.910000e-06	2.561810e-06	4.803016e-09	1.775277e+01	3.108227e+02
1.920000e-06	2.536786e-06	4.760753e-09	1.757936e+01	3.095227e+02
1.930000e-06	2.511045e-06	4.664322e-09	1.740099e+01	3.081606e+02
1.940000e-06	2.484333e-06	4.716355e-09	1.721588e+01	3.067372e+02
1.950000e-06	2.457016e-06	4.678375e-09	1.702658e+01	3.052539e+02
1.960000e-06	2.428900e-06	4.649240e-09	1.683174e+01	3.037122e+02
1.970000e-06	2.399484e-06	4.624034e-09	1.662789e+01	3.021138e+02
1.980000e-06	2.368941e-06	4.561579e-09	1.641624e+01	3.004600e+02
1.990000e-06	2.337620e-06	4.582857e-09	1.619919e+01	2.987520e+02
2.000000e-06	2.305687e-06	4.562858e-09	1.597790e+01	2.969905e+02
2.010000e-06	2.273083e-06	4.492297e-09	1.575196e+01	2.951757e+02
2.020000e-06	2.239528e-06	4.513771e-09	1.551943e+01	2.933077e+02
2.030000e-06	2.205130e-06	4.455588e-09	1.528106e+01	2.913864e+02
2.040000e-06	2.170203e-06	4.384313e-09	1.503903e+01	2.894116e+02
2.050000e-06	2.134643e-06	4.419998e-09	1.479260e+01	2.873837e+02
2.060000e-06	2.098354e-06	4.350810e-09	1.454113e+01	2.853029e+02
2.070000e-06	2.061158e-06	4.298170e-09	1.428337e+01	2.831703e+02
2.080000e-06	2.022809e-06	4.325434e-09	1.401762e+01	2.809870e+02
2.090000e-06	1.983657e-06	4.267132e-09	1.374631e+01	2.787546e+02
2.100000e-06	1.944017e-06	4.220040e-09	1.347160e+01	2.764745e+02
2.110000e-06	1.903738e-06	4.194000e-09	1.319248e+01	2.741480e+02
2.120000e-06	1.862813e-06	4.131920e-09	1.290888e+01	2.717761e+02
2.130000e-06	1.821360e-06	4.112930e-09	1.262162e+01	2.693589e+02
2.140000e-06	1.779388e-06	4.081286e-09	1.233077e+01	2.668957e+02
2.150000e-06	1.736773e-06	4.038588e-09	1.203545e+01	2.643848e+02
2.160000e-06	1.693611e-06	4.010670e-09	1.173635e+01	2.618239e+02
2.170000e-06	1.650099e-06	3.952052e-09	1.143482e+01	2.592094e+02
2.180000e-06	1.606015e-06	3.922877e-09	1.112933e+01	2.565377e+02
2.190000e-06	1.561215e-06	3.882286e-09	1.081887e+01	2.538045e+02
2.200000e-06	1.515834e-06	3.821925e-09	1.050439e+01	2.510060e+02
2.210000e-06	1.469960e-06	3.792358e-09	1.018650e+01	2.481386e+02
2.220000e-06	1.423655e-06	3.748730e-09	9.865614e+00	2.451998e+02
2.230000e-06	1.376940e-06	3.699020e-09	9.541888e+00	2.421877e+02
2.240000e-06	1.329688e-06	3.648867e-09	9.214445e+00	2.391017e+02
2.250000e-06	1.281738e-06	3.596153e-09	8.882163e+00	2.359421e+02
2.260000e-06	1.233183e-06	3.558294e-09	8.545687e+00	2.327102e+02
2.270000e-06	1.184261e-06	3.512321e-09	8.206664e+00	2.294077e+02
2.280000e-06	1.134991e-06	3.457698e-09	7.865233e+00	2.260366e+02
2.290000e-06	1.085308e-06	3.405924e-09	7.520943e+00	2.225985e+02
2.300000e-06	1.035133e-06	3.347049e-09	7.173245e+00	2.190949e+02
2.310000e-06	9.843977e-07	3.293671e-09	6.821658e+00	2.155261e+02
2.320000e-06	9.333022e-07	3.233581e-09	6.467577e+00	2.118916e+02
2.330000e-06	8.820260e-07	3.172219e-09	6.112244e+00	2.081895e+02
2.340000e-06	8.305356e-07	3.124423e-09	5.755427e+00	2.044172e+02
2.350000e-06	7.787066e-07	3.070738e-09	5.396264e+00	2.005712e+02
2.360000e-06	7.264036e-07	3.012776e-09	5.033815e+00	1.966471e+02
2.370000e-06	6.737034e-07	2.944891e-09	4.668615e+00	1.926406e+02
2.380000e-06	6.205627e-07	2.879648e-09	4.300362e+00	1.885473e+02
2.390000e-06	5.669553e-07	2.821756e-09	3.928874e+00	1.843632e+02
2.400000e-06	5.130093e-07	2.757907e-09	3.555040e+00	1.800846e+02
2.410000e-06	4.587701e-07	2.694700e-09	3.179175e+00	1.757087e+02
2.420000e-06	4.043667e-07	2.630808e-09	2.802171e+00	1.712330e+02
2.430000e-06	3.498084e-07	2.564292e-09	2.424095e+00	1.666556e+02
2.440000e-06	2.950782e-07	2.493181e-09	2.044826e+00	1.619744e+02
2.450000e-06	2.402378e-07	2.414717e-09	1.664795e+00	1.571875e+02
2.460000e-06	1.853074e-07	2.337951e-09	1.284139e+00	1.522922e+02
2.470000e-06	1.303191e-07	2.263510e-09	9.030823e-01	1.472851e+02
2.480000e-06	7.528940e-08	2.185369e-09	5.217388e-01	1.421617e+02
2.490000e-06	2.020955e-08	2.107647e-09	1.400477e-01	1.369166e+02
2.500000e-06	-3.487532e-08	2.028089e-09	-2.416783e-01	1.315431e+02
2.510000e-06	-8.990760e-08	1.945574e-09	-6.230397e-01	1.260337e+02
2.520000e-06	-1.448929e-07	1.858962e-09	-1.004075e+00	1.203803e+02
2.530000e-06	-1.998202e-07	1.766974e-09	-1.384710e+00	1.145742e+02
2.540000e-06	-2.547220e-07	1.674298e-09	-1.765167e+00	1.086066e+02
2.550000e-06	-3.095722e-07	1.579883e-09	-2.145267e+00	1.024688e+02
2.560000e-06	-3.643430e-07	1.485571e-09	-2.524816e+00	9.615195e+01
2.570000e-06	-4.189518e-07	1.388895e-09	-2.903243e+00	8.964732e+01
2.580000e-06	-4.733214e-07	1.289000e-09	-3.280012e+00	8.294576e+01
2.590000e-06	-5.274240e-07	1.185581e-09	-3.654932e+00	7.603745e+01
2.600000e-06	-5.811526e-07	1.076263e-09	-4.027259e+00	6.891135e+01
2.610000e-06	-6.344409e-07	9.617269e-10	-4.396534e+00	6.155476e+01
2.620000e-06	-6.872580e-07	8.438095e-10	-4.762545e+00	5.395287e+01
2.630000e-06	-7.396541e-07	7.241294e-10	-5.125639e+00	4.608863e+01
2.640000e-06	-7.916748e-07	5.994218e-10	-5.486130e+00	3.794283e+01
2.650000e-06	-8.433736e-07	4.705989e-10	-5.844392e+00	2.949462e+01
2.660000e-06	-8.947891e-07	3.391485e-10	-6.200690e+00	2.072245e+01
2.670000e-06	-9.459253e-07	2.044580e-10	-6.555052e+00	1.160546e+01
2.680000e-06	-9.967578e-07	6.314279e-11	-6.907310e+00	2.125237e+00
2.690000e-06	-1.047217e-06	-8.745232e-11	-7.256979e+00	-7.732086e+00
2.700000e-06	-1.097231e-06	-2.458772e-10	-7.603567e+00	-1.797360e+01
2.710000e-06	-1.146856e-06	-4.079134e-10	-7.947460e+00	-2.859740e+01
2.720000e-06	-1.196110e-06	-5.741711e-10	-8.288779e+00	-3.959065e+01
2.730000e-06	-1.244850e-06	-7.468730e-10	-8.626533e+00	-5.092797e+01
2.740000e-06	-1.292844e-06	-9.231150e-10	-8.959123e+00	-6.257058e+01
2.750000e-06	-1.339989e-06	-1.101708e-09	-9.285827e+00	-7.446609e+01
2.760000e-06	-1.386448e-06	-1.284610e-09	-9.607779e+00	-8.654925e+01
2.770000e-06	-1.432428e-06	-1.474385e-09	-9.926411e+00	-9.874353e+01
2.780000e-06	-1.478058e-06	-1.667362e-09	-1.024261e+01	-1.109635e+02
2.790000e-06	-1.523420e-06	-1.856031e-09	-1.055696e+01	-1.231181e+02
2.800000e-06	-1.568415e-06	-2.037537e-09	-1.086877e+01	-1.351140e+02
2.810000e-06	-1.612769e-06	-2.215136e-09	-1.117613e+01	-1.468598e+02
2.820000e-06	-1.656480e-06	-2.390934e-09	-1.147904e+01	-1.582698e+02
2.830000e-06	-1.699798e-06	-2.558465e-09	-1.177922e+01	-1.692674e+02
2.840000e-06	-1.742787e-06	-2.715361e-09	-1.207713e+01	-1.797885e+02
2.850000e-06	-1.785244e-06	-2.866480e-09	-1.237135e+01	-1.897836e+02
2.860000e-06	-1.827061e-06	-3.013963e-09	-1.266113e+01	-1.992191e+02
2.870000e-06	-1.868301e-06	-3.153719e-09	-1.294691e+01	-2.080775e+02
2.880000e-06	-1.908872e-06	-3.280830e-09	-1.322806e+01	-2.163572e+02
2.890000e-06	-1.948709e-06	-3.397261e-09	-1.350412e+01	-2.240705e+02
2.900000e-06	-1.988055e-06	-3.509098e-09	-1.377678e+01	-2.312414e+02
2.910000e-06	-2.026899e-06	-3.614939e-09	-1.404596e+01	-2.379030e+02
2.920000e-06	-2.064933e-06	-3.710161e-09	-1.430953e+01	-2.440941e+02
2.930000e-06	-2.101965e-06	-3.796188e-09	-1.456615e+01	-2.498561e+02
2.940000e-06	-2.137999e-06	-3.877654e-09	-1.481586e+01	-2.552304e+02
