# Temperatura_=_23.37
# Concentracion g/m^3_=_15500.0
# C_Vs_to_Am_M_A/Vsm_=_65563218390.804596
# pendiente_HvsI_1/m_=_3716.3
# ordenada_HvsI_A/m_=_1297.0
# frecuencia_Hz_=_300836.48303938383

Tiempo_(s)	Campo_(V.s)	Magnetizacion_(V.s)	Campo_(kA/m)	Magnetizacion_(A/m)
0.000000e+00	-2.861014e-06	-5.190951e-09	-1.980404e+01	-3.390453e+02
1.000000e-08	-2.860435e-06	-5.185462e-09	-1.980003e+01	-3.390775e+02
2.000000e-08	-2.859045e-06	-5.178126e-09	-1.979041e+01	-3.390443e+02
3.000000e-08	-2.856577e-06	-5.175049e-09	-1.977332e+01	-3.389434e+02
4.000000e-08	-2.852898e-06	-5.174844e-09	-1.974786e+01	-3.387740e+02
5.000000e-08	-2.848269e-06	-5.173624e-09	-1.971582e+01	-3.385370e+02
6.000000e-08	-2.842871e-06	-5.168674e-09	-1.967845e+01	-3.382351e+02
7.000000e-08	-2.836621e-06	-5.161483e-09	-1.963518e+01	-3.378726e+02
8.000000e-08	-2.829369e-06	-5.172731e-09	-1.958499e+01	-3.374553e+02
9.000000e-08	-2.820977e-06	-5.187205e-09	-1.952690e+01	-3.369893e+02
1.000000e-07	-2.811251e-06	-5.167862e-09	-1.945958e+01	-3.364810e+02
1.100000e-07	-2.800135e-06	-5.098778e-09	-1.938263e+01	-3.359358e+02
1.200000e-07	-2.788042e-06	-5.091970e-09	-1.929892e+01	-3.353577e+02
1.300000e-07	-2.775191e-06	-5.151470e-09	-1.920997e+01	-3.347490e+02
1.400000e-07	-2.761365e-06	-5.114334e-09	-1.911426e+01	-3.341096e+02
1.500000e-07	-2.746606e-06	-5.057793e-09	-1.901210e+01	-3.334372e+02
1.600000e-07	-2.730756e-06	-5.097106e-09	-1.890239e+01	-3.327276e+02
1.700000e-07	-2.713428e-06	-5.128243e-09	-1.878244e+01	-3.319749e+02
1.800000e-07	-2.694985e-06	-5.051500e-09	-1.865478e+01	-3.311722e+02
1.900000e-07	-2.675941e-06	-5.031688e-09	-1.852295e+01	-3.303122e+02
2.000000e-07	-2.656166e-06	-5.063490e-09	-1.838607e+01	-3.293883e+02
2.100000e-07	-2.635486e-06	-4.983569e-09	-1.824292e+01	-3.283947e+02
2.200000e-07	-2.614022e-06	-4.958706e-09	-1.809435e+01	-3.273273e+02
2.300000e-07	-2.591741e-06	-5.023342e-09	-1.794012e+01	-3.261838e+02
2.400000e-07	-2.568434e-06	-4.983738e-09	-1.777879e+01	-3.249638e+02
2.500000e-07	-2.544232e-06	-4.929060e-09	-1.761126e+01	-3.236687e+02
2.600000e-07	-2.519291e-06	-4.937724e-09	-1.743862e+01	-3.223014e+02
2.700000e-07	-2.493415e-06	-4.909763e-09	-1.725951e+01	-3.208657e+02
2.800000e-07	-2.466476e-06	-4.867537e-09	-1.707303e+01	-3.193659e+02
2.900000e-07	-2.438439e-06	-4.837631e-09	-1.687896e+01	-3.178061e+02
3.000000e-07	-2.409389e-06	-4.820363e-09	-1.667787e+01	-3.161898e+02
3.100000e-07	-2.379593e-06	-4.817362e-09	-1.647162e+01	-3.145198e+02
3.200000e-07	-2.349150e-06	-4.801663e-09	-1.626090e+01	-3.127974e+02
3.300000e-07	-2.317922e-06	-4.760647e-09	-1.604473e+01	-3.110230e+02
3.400000e-07	-2.285896e-06	-4.729808e-09	-1.582305e+01	-3.091962e+02
3.500000e-07	-2.253258e-06	-4.692514e-09	-1.559713e+01	-3.073156e+02
3.600000e-07	-2.220049e-06	-4.659282e-09	-1.536725e+01	-3.053800e+02
3.700000e-07	-2.185914e-06	-4.655553e-09	-1.513097e+01	-3.033879e+02
3.800000e-07	-2.150535e-06	-4.614914e-09	-1.488607e+01	-3.013385e+02
3.900000e-07	-2.114231e-06	-4.573854e-09	-1.463478e+01	-2.992319e+02
4.000000e-07	-2.077320e-06	-4.568448e-09	-1.437928e+01	-2.970688e+02
4.100000e-07	-2.039748e-06	-4.532974e-09	-1.411921e+01	-2.948507e+02
4.200000e-07	-2.001444e-06	-4.465899e-09	-1.385406e+01	-2.925801e+02
4.300000e-07	-1.962432e-06	-4.431697e-09	-1.358402e+01	-2.902593e+02
4.400000e-07	-1.922703e-06	-4.408984e-09	-1.330901e+01	-2.878909e+02
4.500000e-07	-1.882352e-06	-4.373512e-09	-1.302970e+01	-2.854770e+02
4.600000e-07	-1.841616e-06	-4.337315e-09	-1.274773e+01	-2.830187e+02
4.700000e-07	-1.800417e-06	-4.299715e-09	-1.246255e+01	-2.805160e+02
4.800000e-07	-1.758379e-06	-4.262152e-09	-1.217156e+01	-2.779679e+02
4.900000e-07	-1.715271e-06	-4.216057e-09	-1.187316e+01	-2.753718e+02
5.000000e-07	-1.671288e-06	-4.169648e-09	-1.156871e+01	-2.727244e+02
5.100000e-07	-1.626765e-06	-4.124531e-09	-1.126053e+01	-2.700213e+02
5.200000e-07	-1.581855e-06	-4.084678e-09	-1.094966e+01	-2.672581e+02
5.300000e-07	-1.536493e-06	-4.048255e-09	-1.063566e+01	-2.644301e+02
5.400000e-07	-1.490569e-06	-4.012719e-09	-1.031777e+01	-2.615335e+02
5.500000e-07	-1.444078e-06	-3.960967e-09	-9.995958e+00	-2.585651e+02
5.600000e-07	-1.397082e-06	-3.901805e-09	-9.670652e+00	-2.555227e+02
5.700000e-07	-1.349571e-06	-3.856247e-09	-9.341776e+00	-2.524055e+02
5.800000e-07	-1.301582e-06	-3.809582e-09	-9.009595e+00	-2.492137e+02
5.900000e-07	-1.253217e-06	-3.759302e-09	-8.674810e+00	-2.459481e+02
6.000000e-07	-1.204485e-06	-3.711481e-09	-8.337483e+00	-2.426102e+02
6.100000e-07	-1.155354e-06	-3.666412e-09	-7.997400e+00	-2.392016e+02
6.200000e-07	-1.105702e-06	-3.612448e-09	-7.653709e+00	-2.357236e+02
6.300000e-07	-1.055359e-06	-3.554883e-09	-7.305232e+00	-2.321768e+02
6.400000e-07	-1.004373e-06	-3.495546e-09	-6.952306e+00	-2.285609e+02
6.500000e-07	-9.528563e-07	-3.434847e-09	-6.595703e+00	-2.248748e+02
6.600000e-07	-9.008762e-07	-3.377179e-09	-6.235895e+00	-2.211161e+02
6.700000e-07	-8.485594e-07	-3.319942e-09	-5.873756e+00	-2.172821e+02
6.800000e-07	-7.959844e-07	-3.260394e-09	-5.509831e+00	-2.133692e+02
6.900000e-07	-7.431444e-07	-3.198035e-09	-5.144070e+00	-2.093737e+02
7.000000e-07	-6.900428e-07	-3.138140e-09	-4.776500e+00	-2.052921e+02
7.100000e-07	-6.367519e-07	-3.075147e-09	-4.407618e+00	-2.011213e+02
7.200000e-07	-5.833040e-07	-3.009288e-09	-4.037650e+00	-1.968587e+02
7.300000e-07	-5.296027e-07	-2.940237e-09	-3.665928e+00	-1.925023e+02
7.400000e-07	-4.756030e-07	-2.868341e-09	-3.292140e+00	-1.880504e+02
7.500000e-07	-4.214025e-07	-2.794306e-09	-2.916962e+00	-1.835017e+02
7.600000e-07	-3.670688e-07	-2.721716e-09	-2.540862e+00	-1.788545e+02
7.700000e-07	-3.126360e-07	-2.651163e-09	-2.164077e+00	-1.741064e+02
7.800000e-07	-2.581499e-07	-2.576733e-09	-1.786922e+00	-1.692542e+02
7.900000e-07	-2.036148e-07	-2.501856e-09	-1.409429e+00	-1.642933e+02
8.000000e-07	-1.490147e-07	-2.426238e-09	-1.031485e+00	-1.592175e+02
8.100000e-07	-9.438388e-08	-2.348026e-09	-6.533284e-01	-1.540193e+02
8.200000e-07	-3.975551e-08	-2.262890e-09	-2.751890e-01	-1.486898e+02
8.300000e-07	1.489718e-08	-2.174132e-09	1.031188e-01	-1.432193e+02
8.400000e-07	6.955670e-08	-2.085148e-09	4.814738e-01	-1.375976e+02
8.500000e-07	1.242068e-07	-1.996851e-09	8.597634e-01	-1.318146e+02
8.600000e-07	1.788528e-07	-1.907773e-09	1.238025e+00	-1.258610e+02
8.700000e-07	2.334275e-07	-1.814665e-09	1.615793e+00	-1.197282e+02
8.800000e-07	2.879233e-07	-1.720568e-09	1.993014e+00	-1.134088e+02
8.900000e-07	3.423600e-07	-1.623544e-09	2.369828e+00	-1.068960e+02
9.000000e-07	3.966760e-07	-1.520594e-09	2.745804e+00	-1.001836e+02
9.100000e-07	4.508162e-07	-1.412365e-09	3.120565e+00	-9.326507e+01
9.200000e-07	5.047616e-07	-1.302453e-09	3.493977e+00	-8.613223e+01
9.300000e-07	5.584966e-07	-1.189599e-09	3.865932e+00	-7.877467e+01
9.400000e-07	6.120410e-07	-1.072856e-09	4.236568e+00	-7.117849e+01
9.500000e-07	6.653420e-07	-9.523156e-10	4.605520e+00	-6.332559e+01
9.600000e-07	7.183573e-07	-8.285350e-10	4.972493e+00	-5.519328e+01
9.700000e-07	7.711384e-07	-7.007103e-10	5.337846e+00	-4.675441e+01
9.800000e-07	8.236627e-07	-5.660822e-10	5.701421e+00	-3.797823e+01
9.900000e-07	8.758877e-07	-4.256833e-10	6.062924e+00	-2.883183e+01
1.000000e-06	9.278899e-07	-2.776582e-10	6.422885e+00	-1.928233e+01
1.010000e-06	9.795062e-07	-1.199022e-10	6.780175e+00	-9.299614e+00
1.020000e-06	1.030411e-06	4.414551e-11	7.132540e+00	1.140588e+00
1.030000e-06	1.080613e-06	2.103852e-10	7.480040e+00	1.205340e+01
1.040000e-06	1.130191e-06	3.810287e-10	7.823221e+00	2.344169e+01
1.050000e-06	1.179238e-06	5.602196e-10	8.162728e+00	3.529332e+01
1.060000e-06	1.227977e-06	7.483356e-10	8.500099e+00	4.757919e+01
1.070000e-06	1.276507e-06	9.416901e-10	8.836022e+00	6.025211e+01
1.080000e-06	1.324709e-06	1.138844e-09	9.169681e+00	7.324692e+01
1.090000e-06	1.372388e-06	1.340233e-09	9.499714e+00	8.648172e+01
1.100000e-06	1.419507e-06	1.542745e-09	9.825876e+00	9.986030e+01
1.110000e-06	1.466158e-06	1.745592e-09	1.014880e+01	1.132757e+02
1.120000e-06	1.512234e-06	1.948254e-09	1.046773e+01	1.266146e+02
1.130000e-06	1.557725e-06	2.147259e-09	1.078263e+01	1.397622e+02
1.140000e-06	1.602802e-06	2.343076e-09	1.109465e+01	1.526073e+02
1.150000e-06	1.647530e-06	2.534926e-09	1.140426e+01	1.650473e+02
1.160000e-06	1.691909e-06	2.717070e-09	1.171145e+01	1.769926e+02
1.170000e-06	1.735706e-06	2.887936e-09	1.201462e+01	1.883703e+02
1.180000e-06	1.778630e-06	3.048591e-09	1.231173e+01	1.991262e+02
1.190000e-06	1.820552e-06	3.199138e-09	1.260192e+01	2.092264e+02
1.200000e-06	1.861643e-06	3.341181e-09	1.288636e+01	2.186572e+02
1.210000e-06	1.902205e-06	3.474710e-09	1.316713e+01	2.274233e+02
1.220000e-06	1.942218e-06	3.599001e-09	1.344410e+01	2.355459e+02
1.230000e-06	1.981591e-06	3.712779e-09	1.371664e+01	2.430592e+02
1.240000e-06	2.020362e-06	3.817288e-09	1.398502e+01	2.500068e+02
1.250000e-06	2.058428e-06	3.913902e-09	1.424851e+01	2.564375e+02
1.260000e-06	2.095737e-06	4.002769e-09	1.450676e+01	2.624023e+02
1.270000e-06	2.132480e-06	4.086277e-09	1.476110e+01	2.679502e+02
1.280000e-06	2.168692e-06	4.165827e-09	1.501176e+01	2.731262e+02
1.290000e-06	2.204040e-06	4.239754e-09	1.525644e+01	2.779692e+02
1.300000e-06	2.238266e-06	4.305641e-09	1.549335e+01	2.825114e+02
1.310000e-06	2.271539e-06	4.366549e-09	1.572367e+01	2.867778e+02
1.320000e-06	2.304098e-06	4.425570e-09	1.594904e+01	2.907871e+02
1.330000e-06	2.335947e-06	4.482289e-09	1.616950e+01	2.945527e+02
1.340000e-06	2.367051e-06	4.533935e-09	1.638481e+01	2.980845e+02
1.350000e-06	2.397358e-06	4.582079e-09	1.659459e+01	3.013901e+02
1.360000e-06	2.426860e-06	4.628653e-09	1.679880e+01	3.044767e+02
1.370000e-06	2.455672e-06	4.672048e-09	1.699825e+01	3.073521e+02
1.380000e-06	2.483702e-06	4.710657e-09	1.719227e+01	3.100259e+02
1.390000e-06	2.510682e-06	4.744252e-09	1.737902e+01	3.125095e+02
1.400000e-06	2.536514e-06	4.775233e-09	1.755783e+01	3.148161e+02
1.410000e-06	2.561320e-06	4.805631e-09	1.772954e+01	3.169605e+02
1.420000e-06	2.585236e-06	4.838635e-09	1.789509e+01	3.189581e+02
1.430000e-06	2.608298e-06	4.871709e-09	1.805472e+01	3.208241e+02
1.440000e-06	2.630511e-06	4.900544e-09	1.820849e+01	3.225726e+02
1.450000e-06	2.651902e-06	4.924688e-09	1.835656e+01	3.242157e+02
1.460000e-06	2.672537e-06	4.944625e-09	1.849939e+01	3.257632e+02
1.470000e-06	2.692357e-06	4.961980e-09	1.863659e+01	3.272219e+02
1.480000e-06	2.711181e-06	4.978836e-09	1.876688e+01	3.285960e+02
1.490000e-06	2.729016e-06	4.997351e-09	1.889034e+01	3.298874e+02
1.500000e-06	2.745924e-06	5.017227e-09	1.900738e+01	3.310961e+02
1.510000e-06	2.761713e-06	5.037006e-09	1.911667e+01	3.322214e+02
1.520000e-06	2.776388e-06	5.055398e-09	1.921825e+01	3.332619e+02
1.530000e-06	2.790090e-06	5.070683e-09	1.931310e+01	3.342171e+02
1.540000e-06	2.802792e-06	5.082432e-09	1.940102e+01	3.350873e+02
1.550000e-06	2.814279e-06	5.091591e-09	1.948053e+01	3.358742e+02
1.560000e-06	2.824417e-06	5.099636e-09	1.955071e+01	3.365810e+02
1.570000e-06	2.833486e-06	5.109024e-09	1.961348e+01	3.372120e+02
1.580000e-06	2.841653e-06	5.120666e-09	1.967001e+01	3.377724e+02
1.590000e-06	2.848863e-06	5.132497e-09	1.971993e+01	3.382675e+02
1.600000e-06	2.855097e-06	5.141907e-09	1.976308e+01	3.387024e+02
1.610000e-06	2.860415e-06	5.148188e-09	1.979989e+01	3.390813e+02
1.620000e-06	2.864916e-06	5.152772e-09	1.983105e+01	3.394068e+02
1.630000e-06	2.868374e-06	5.157365e-09	1.985498e+01	3.396800e+02
1.640000e-06	2.870551e-06	5.160096e-09	1.987005e+01	3.399004e+02
1.650000e-06	2.871629e-06	5.159893e-09	1.987751e+01	3.400659e+02
1.660000e-06	2.871772e-06	5.158828e-09	1.987850e+01	3.401735e+02
1.670000e-06	2.871006e-06	5.159085e-09	1.987320e+01	3.402196e+02
1.680000e-06	2.869353e-06	5.162003e-09	1.986176e+01	3.402009e+02
1.690000e-06	2.866874e-06	5.163871e-09	1.984460e+01	3.401149e+02
1.700000e-06	2.863648e-06	5.162347e-09	1.982227e+01	3.399605e+02
1.710000e-06	2.859538e-06	5.159718e-09	1.979382e+01	3.397380e+02
1.720000e-06	2.854194e-06	5.158367e-09	1.975683e+01	3.394499e+02
1.730000e-06	2.847728e-06	5.155312e-09	1.971207e+01	3.391003e+02
1.740000e-06	2.840455e-06	5.123636e-09	1.966172e+01	3.386945e+02
1.750000e-06	2.832155e-06	5.095123e-09	1.960427e+01	3.382387e+02
1.760000e-06	2.822313e-06	5.122971e-09	1.953614e+01	3.377392e+02
1.770000e-06	2.811033e-06	5.155107e-09	1.945807e+01	3.372017e+02
1.780000e-06	2.799266e-06	5.128435e-09	1.937661e+01	3.366307e+02
1.790000e-06	2.787333e-06	5.063622e-09	1.929401e+01	3.360287e+02
1.800000e-06	2.774172e-06	5.095741e-09	1.920291e+01	3.353963e+02
1.810000e-06	2.759271e-06	5.109762e-09	1.909977e+01	3.347316e+02
1.820000e-06	2.743605e-06	5.040663e-09	1.899133e+01	3.340307e+02
1.830000e-06	2.727337e-06	5.065374e-09	1.887872e+01	3.332880e+02
1.840000e-06	2.709712e-06	5.118102e-09	1.875672e+01	3.324969e+02
1.850000e-06	2.690991e-06	5.064703e-09	1.862713e+01	3.316500e+02
1.860000e-06	2.671675e-06	5.028757e-09	1.849343e+01	3.307406e+02
1.870000e-06	2.651334e-06	5.079422e-09	1.835262e+01	3.297627e+02
1.880000e-06	2.629665e-06	5.039334e-09	1.820263e+01	3.287116e+02
1.890000e-06	2.607062e-06	4.956896e-09	1.804617e+01	3.275848e+02
1.900000e-06	2.583519e-06	4.979532e-09	1.788321e+01	3.263813e+02
1.910000e-06	2.559028e-06	4.979038e-09	1.771368e+01	3.251024e+02
1.920000e-06	2.533890e-06	4.929260e-09	1.753967e+01	3.237505e+02
1.930000e-06	2.507938e-06	4.935237e-09	1.736003e+01	3.223294e+02
1.940000e-06	2.481157e-06	4.917363e-09	1.717465e+01	3.208432e+02
1.950000e-06	2.453731e-06	4.894349e-09	1.698481e+01	3.192962e+02
1.960000e-06	2.425208e-06	4.865246e-09	1.678737e+01	3.176921e+02
1.970000e-06	2.395390e-06	4.800141e-09	1.658097e+01	3.160337e+02
1.980000e-06	2.364676e-06	4.794665e-09	1.636837e+01	3.143227e+02
1.990000e-06	2.333209e-06	4.790262e-09	1.615055e+01	3.125597e+02
2.000000e-06	2.300967e-06	4.738001e-09	1.592737e+01	3.107445e+02
2.010000e-06	2.267966e-06	4.733855e-09	1.569894e+01	3.088758e+02
2.020000e-06	2.234186e-06	4.706773e-09	1.546511e+01	3.069524e+02
2.030000e-06	2.199755e-06	4.637237e-09	1.522678e+01	3.049727e+02
2.040000e-06	2.164771e-06	4.635942e-09	1.498462e+01	3.029360e+02
2.050000e-06	2.129035e-06	4.598933e-09	1.473725e+01	3.008418e+02
2.060000e-06	2.092441e-06	4.530800e-09	1.448395e+01	2.986910e+02
2.070000e-06	2.054841e-06	4.530594e-09	1.422368e+01	2.964848e+02
2.080000e-06	2.016237e-06	4.505906e-09	1.395646e+01	2.942254e+02
2.090000e-06	1.976999e-06	4.454341e-09	1.368485e+01	2.919155e+02
2.100000e-06	1.937221e-06	4.427096e-09	1.340951e+01	2.895574e+02
2.110000e-06	1.896779e-06	4.386149e-09	1.312957e+01	2.871533e+02
2.120000e-06	1.855698e-06	4.341719e-09	1.284520e+01	2.847048e+02
2.130000e-06	1.814021e-06	4.301374e-09	1.255672e+01	2.822119e+02
2.140000e-06	1.771753e-06	4.262087e-09	1.226414e+01	2.796740e+02
2.150000e-06	1.728947e-06	4.237636e-09	1.196783e+01	2.770887e+02
2.160000e-06	1.685749e-06	4.191172e-09	1.166881e+01	2.744529e+02
2.170000e-06	1.642095e-06	4.141487e-09	1.136664e+01	2.717624e+02
2.180000e-06	1.597733e-06	4.106977e-09	1.105956e+01	2.690127e+02
2.190000e-06	1.552718e-06	4.061994e-09	1.074796e+01	2.661992e+02
2.200000e-06	1.507172e-06	4.015761e-09	1.043269e+01	2.633179e+02
2.210000e-06	1.461189e-06	3.974644e-09	1.011440e+01	2.603653e+02
2.220000e-06	1.414848e-06	3.933378e-09	9.793626e+00	2.573392e+02
2.230000e-06	1.367941e-06	3.883355e-09	9.468936e+00	2.542383e+02
2.240000e-06	1.320321e-06	3.829060e-09	9.139308e+00	2.510627e+02
2.250000e-06	1.272146e-06	3.778372e-09	8.805834e+00	2.478130e+02
2.260000e-06	1.223505e-06	3.728492e-09	8.469146e+00	2.444908e+02
2.270000e-06	1.174395e-06	3.681045e-09	8.129204e+00	2.410975e+02
2.280000e-06	1.124814e-06	3.634025e-09	7.785998e+00	2.376346e+02
2.290000e-06	1.074785e-06	3.580063e-09	7.439699e+00	2.341027e+02
2.300000e-06	1.024326e-06	3.526474e-09	7.090422e+00	2.305020e+02
2.310000e-06	9.734765e-07	3.470597e-09	6.738437e+00	2.268313e+02
2.320000e-06	9.223469e-07	3.406088e-09	6.384516e+00	2.230887e+02
2.330000e-06	8.709072e-07	3.343816e-09	6.028449e+00	2.192714e+02
2.340000e-06	8.191813e-07	3.286468e-09	5.670400e+00	2.153759e+02
2.350000e-06	7.670668e-07	3.233922e-09	5.309662e+00	2.113987e+02
2.360000e-06	7.144587e-07	3.175539e-09	4.945507e+00	2.073361e+02
2.370000e-06	6.614594e-07	3.109930e-09	4.578644e+00	2.031849e+02
2.380000e-06	6.080103e-07	3.046995e-09	4.208667e+00	1.989425e+02
2.390000e-06	5.541234e-07	2.984053e-09	3.835661e+00	1.946066e+02
2.400000e-06	4.999286e-07	2.918343e-09	3.460523e+00	1.901756e+02
2.410000e-06	4.455072e-07	2.848756e-09	3.083816e+00	1.856480e+02
2.420000e-06	3.909636e-07	2.780834e-09	2.706263e+00	1.810223e+02
2.430000e-06	3.362907e-07	2.714411e-09	2.327816e+00	1.762963e+02
2.440000e-06	2.814670e-07	2.640637e-09	1.948324e+00	1.714671e+02
2.450000e-06	2.265636e-07	2.561815e-09	1.568281e+00	1.665302e+02
2.460000e-06	1.716417e-07	2.486042e-09	1.188110e+00	1.614799e+02
2.470000e-06	1.167153e-07	2.410425e-09	8.079074e-01	1.563089e+02
2.480000e-06	6.176518e-08	2.330295e-09	4.275406e-01	1.510086e+02
2.490000e-06	6.805312e-09	2.244698e-09	4.710660e-02	1.455694e+02
2.500000e-06	-4.814897e-08	2.157617e-09	-3.332888e-01	1.399812e+02
2.510000e-06	-1.031030e-07	2.072585e-09	-7.136825e-01	1.342339e+02
2.520000e-06	-1.580373e-07	1.984416e-09	-1.093940e+00	1.283178e+02
2.530000e-06	-2.129436e-07	1.890814e-09	-1.474003e+00	1.222244e+02
2.540000e-06	-2.678429e-07	1.793008e-09	-1.854017e+00	1.159458e+02
2.550000e-06	-3.226775e-07	1.695455e-09	-2.233584e+00	1.094752e+02
2.560000e-06	-3.773985e-07	1.598555e-09	-2.612365e+00	1.028064e+02
2.570000e-06	-4.320052e-07	1.496344e-09	-2.990354e+00	9.593295e+01
2.580000e-06	-4.863972e-07	1.388241e-09	-3.366858e+00	8.884707e+01
2.590000e-06	-5.404458e-07	1.277226e-09	-3.740984e+00	8.153897e+01
2.600000e-06	-5.942112e-07	1.164018e-09	-4.113150e+00	7.399556e+01
2.610000e-06	-6.476864e-07	1.044810e-09	-4.483307e+00	6.619969e+01
2.620000e-06	-7.007576e-07	9.169888e-10	-4.850668e+00	5.812966e+01
2.630000e-06	-7.533629e-07	7.850663e-10	-5.214803e+00	4.975923e+01
2.640000e-06	-8.054732e-07	6.544699e-10	-5.575513e+00	4.105833e+01
2.650000e-06	-8.571527e-07	5.214614e-10	-5.933240e+00	3.199433e+01
2.660000e-06	-9.085138e-07	3.802016e-10	-6.288763e+00	2.253415e+01
2.670000e-06	-9.596136e-07	2.296970e-10	-6.642478e+00	1.264683e+01
2.680000e-06	-1.010368e-06	7.156919e-11	-6.993804e+00	2.306557e+00
2.690000e-06	-1.060815e-06	-9.327700e-11	-7.343000e+00	-8.504011e+00
2.700000e-06	-1.110905e-06	-2.660547e-10	-7.689725e+00	-1.979062e+01
2.710000e-06	-1.160500e-06	-4.444845e-10	-8.033018e+00	-3.154454e+01
2.720000e-06	-1.209659e-06	-6.273622e-10	-8.373298e+00	-4.374044e+01
2.730000e-06	-1.258271e-06	-8.161804e-10	-8.709791e+00	-5.633504e+01
2.740000e-06	-1.306167e-06	-1.010245e-09	-9.041331e+00	-6.926697e+01
2.750000e-06	-1.353315e-06	-1.211372e-09	-9.367694e+00	-8.245773e+01
2.760000e-06	-1.399760e-06	-1.420849e-09	-9.689188e+00	-9.581393e+01
2.770000e-06	-1.445706e-06	-1.633790e-09	-1.000723e+01	-1.092306e+02
2.780000e-06	-1.491270e-06	-1.843749e-09	-1.032262e+01	-1.225953e+02
2.790000e-06	-1.536484e-06	-2.046877e-09	-1.063559e+01	-1.357932e+02
2.800000e-06	-1.581300e-06	-2.241753e-09	-1.094581e+01	-1.487118e+02
2.810000e-06	-1.625575e-06	-2.429266e-09	-1.125229e+01	-1.612464e+02
2.820000e-06	-1.669280e-06	-2.612325e-09	-1.155481e+01	-1.733042e+02
2.830000e-06	-1.712534e-06	-2.790431e-09	-1.185422e+01	-1.848085e+02
2.840000e-06	-1.755426e-06	-2.958244e-09	-1.215112e+01	-1.957009e+02
2.850000e-06	-1.797813e-06	-3.114986e-09	-1.244452e+01	-2.059432e+02
2.860000e-06	-1.839551e-06	-3.262990e-09	-1.273344e+01	-2.155174e+02
2.870000e-06	-1.880645e-06	-3.401529e-09	-1.301789e+01	-2.244244e+02
2.880000e-06	-1.921142e-06	-3.528552e-09	-1.329821e+01	-2.326821e+02
2.890000e-06	-1.960954e-06	-3.645397e-09	-1.357379e+01	-2.403223e+02
2.900000e-06	-2.000168e-06	-3.755061e-09	-1.384523e+01	-2.473868e+02
2.910000e-06	-2.038827e-06	-3.856372e-09	-1.411283e+01	-2.539238e+02
2.920000e-06	-2.076619e-06	-3.951022e-09	-1.437443e+01	-2.599839e+02
2.930000e-06	-2.113343e-06	-4.040454e-09	-1.462863e+01	-2.656169e+02
2.940000e-06	-2.149135e-06	-4.121891e-09	-1.487638e+01	-2.708688e+02
