# Temperatura_=_42.49
# Concentracion g/m^3_=_15500.0
# C_Vs_to_Am_M_A/Vsm_=_65563218390.804596
# pendiente_HvsI_1/m_=_3716.3
# ordenada_HvsI_A/m_=_1297.0
# frecuencia_Hz_=_300798.592606325

Tiempo_(s)	Campo_(V.s)	Magnetizacion_(V.s)	Campo_(kA/m)	Magnetizacion_(A/m)
0.000000e+00	-5.505576e-06	-1.400708e-08	-3.830835e+01	-9.169048e+02
1.000000e-08	-5.503870e-06	-1.400183e-08	-3.829648e+01	-9.169383e+02
2.000000e-08	-5.500186e-06	-1.399649e-08	-3.827085e+01	-9.170266e+02
3.000000e-08	-5.494732e-06	-1.399132e-08	-3.823290e+01	-9.170995e+02
4.000000e-08	-5.487691e-06	-1.398493e-08	-3.818390e+01	-9.170745e+02
5.000000e-08	-5.479069e-06	-1.397598e-08	-3.812391e+01	-9.168691e+02
6.000000e-08	-5.468474e-06	-1.396243e-08	-3.805019e+01	-9.164127e+02
7.000000e-08	-5.455734e-06	-1.394243e-08	-3.796154e+01	-9.156567e+02
8.000000e-08	-5.440971e-06	-1.392173e-08	-3.785882e+01	-9.145816e+02
9.000000e-08	-5.423909e-06	-1.392112e-08	-3.774010e+01	-9.131999e+02
1.000000e-07	-5.404525e-06	-1.392727e-08	-3.760523e+01	-9.115539e+02
1.100000e-07	-5.383109e-06	-1.389400e-08	-3.745621e+01	-9.097097e+02
1.200000e-07	-5.359876e-06	-1.384831e-08	-3.729455e+01	-9.077480e+02
1.300000e-07	-5.335127e-06	-1.381777e-08	-3.712235e+01	-9.057518e+02
1.400000e-07	-5.308913e-06	-1.376414e-08	-3.693995e+01	-9.037950e+02
1.500000e-07	-5.280905e-06	-1.376393e-08	-3.674506e+01	-9.019310e+02
1.600000e-07	-5.251120e-06	-1.375700e-08	-3.653782e+01	-9.001850e+02
1.700000e-07	-5.219745e-06	-1.368109e-08	-3.631951e+01	-8.985496e+02
1.800000e-07	-5.186468e-06	-1.370138e-08	-3.608796e+01	-8.969856e+02
1.900000e-07	-5.151153e-06	-1.369499e-08	-3.584224e+01	-8.954265e+02
2.000000e-07	-5.114253e-06	-1.361637e-08	-3.558548e+01	-8.937874e+02
2.100000e-07	-5.075703e-06	-1.358363e-08	-3.531725e+01	-8.919769e+02
2.200000e-07	-5.035307e-06	-1.351265e-08	-3.503617e+01	-8.899087e+02
2.300000e-07	-4.992999e-06	-1.346336e-08	-3.474179e+01	-8.875146e+02
2.400000e-07	-4.948690e-06	-1.345969e-08	-3.443348e+01	-8.847531e+02
2.500000e-07	-4.902652e-06	-1.341739e-08	-3.411314e+01	-8.816161e+02
2.600000e-07	-4.854849e-06	-1.338423e-08	-3.378053e+01	-8.781295e+02
2.700000e-07	-4.804953e-06	-1.333718e-08	-3.343334e+01	-8.743506e+02
2.800000e-07	-4.752949e-06	-1.327869e-08	-3.307150e+01	-8.703601e+02
2.900000e-07	-4.699064e-06	-1.321145e-08	-3.269655e+01	-8.662509e+02
3.000000e-07	-4.643512e-06	-1.312969e-08	-3.231002e+01	-8.621154e+02
3.100000e-07	-4.586319e-06	-1.308203e-08	-3.191207e+01	-8.580326e+02
3.200000e-07	-4.527304e-06	-1.304395e-08	-3.150143e+01	-8.540567e+02
3.300000e-07	-4.466619e-06	-1.301230e-08	-3.107918e+01	-8.502092e+02
3.400000e-07	-4.404463e-06	-1.295218e-08	-3.064670e+01	-8.464756e+02
3.500000e-07	-4.340846e-06	-1.286885e-08	-3.020404e+01	-8.428065e+02
3.600000e-07	-4.275770e-06	-1.280116e-08	-2.975123e+01	-8.391239e+02
3.700000e-07	-4.208990e-06	-1.271949e-08	-2.928657e+01	-8.353316e+02
3.800000e-07	-4.140542e-06	-1.264585e-08	-2.881031e+01	-8.313281e+02
3.900000e-07	-4.070632e-06	-1.257651e-08	-2.832387e+01	-8.270204e+02
4.000000e-07	-3.999345e-06	-1.250277e-08	-2.782784e+01	-8.223364e+02
4.100000e-07	-3.926853e-06	-1.243623e-08	-2.732343e+01	-8.172355e+02
4.200000e-07	-3.852882e-06	-1.235604e-08	-2.680874e+01	-8.117139e+02
4.300000e-07	-3.777117e-06	-1.227329e-08	-2.628156e+01	-8.058056e+02
4.400000e-07	-3.699760e-06	-1.218285e-08	-2.574330e+01	-7.995773e+02
4.500000e-07	-3.621034e-06	-1.210017e-08	-2.519552e+01	-7.931191e+02
4.600000e-07	-3.540865e-06	-1.201302e-08	-2.463769e+01	-7.865320e+02
4.700000e-07	-3.459237e-06	-1.191288e-08	-2.406972e+01	-7.799128e+02
4.800000e-07	-3.376303e-06	-1.181659e-08	-2.349265e+01	-7.733398e+02
4.900000e-07	-3.292282e-06	-1.171583e-08	-2.290803e+01	-7.668607e+02
5.000000e-07	-3.207362e-06	-1.161924e-08	-2.231715e+01	-7.604842e+02
5.100000e-07	-3.121480e-06	-1.151384e-08	-2.171957e+01	-7.541774e+02
5.200000e-07	-3.034589e-06	-1.140454e-08	-2.111497e+01	-7.478686e+02
5.300000e-07	-2.946742e-06	-1.129701e-08	-2.050372e+01	-7.414557e+02
5.400000e-07	-2.857999e-06	-1.118646e-08	-1.988624e+01	-7.348190e+02
5.500000e-07	-2.768230e-06	-1.107104e-08	-1.926162e+01	-7.278374e+02
5.600000e-07	-2.677190e-06	-1.094963e-08	-1.862816e+01	-7.204044e+02
5.700000e-07	-2.585043e-06	-1.082453e-08	-1.798698e+01	-7.124431e+02
5.800000e-07	-2.492064e-06	-1.069550e-08	-1.734003e+01	-7.039173e+02
5.900000e-07	-2.398306e-06	-1.056635e-08	-1.668766e+01	-6.948370e+02
6.000000e-07	-2.303740e-06	-1.043447e-08	-1.602966e+01	-6.852575e+02
6.100000e-07	-2.208314e-06	-1.029486e-08	-1.536567e+01	-6.752721e+02
6.200000e-07	-2.112153e-06	-1.015019e-08	-1.469657e+01	-6.649987e+02
6.300000e-07	-2.015389e-06	-1.000520e-08	-1.402328e+01	-6.545624e+02
6.400000e-07	-1.917784e-06	-9.857050e-09	-1.334413e+01	-6.440760e+02
6.500000e-07	-1.819165e-06	-9.698745e-09	-1.265793e+01	-6.336217e+02
6.600000e-07	-1.719723e-06	-9.530408e-09	-1.196600e+01	-6.232352e+02
6.700000e-07	-1.619693e-06	-9.360788e-09	-1.126998e+01	-6.128967e+02
6.800000e-07	-1.519189e-06	-9.191425e-09	-1.057067e+01	-6.025281e+02
6.900000e-07	-1.418210e-06	-9.016880e-09	-9.868049e+00	-5.919990e+02
7.000000e-07	-1.316753e-06	-8.833777e-09	-9.162096e+00	-5.811400e+02
7.100000e-07	-1.214842e-06	-8.643010e-09	-8.452993e+00	-5.697622e+02
7.200000e-07	-1.112517e-06	-8.448351e-09	-7.741002e+00	-5.576808e+02
7.300000e-07	-1.009785e-06	-8.248195e-09	-7.026184e+00	-5.447391e+02
7.400000e-07	-9.066556e-07	-8.037326e-09	-6.308600e+00	-5.308306e+02
7.500000e-07	-8.032060e-07	-7.814790e-09	-5.588788e+00	-5.159144e+02
7.600000e-07	-6.995137e-07	-7.585888e-09	-4.867286e+00	-5.000225e+02
7.700000e-07	-5.956454e-07	-7.354749e-09	-4.144560e+00	-4.832573e+02
7.800000e-07	-4.916247e-07	-7.116489e-09	-3.420774e+00	-4.657776e+02
7.900000e-07	-3.874516e-07	-6.866005e-09	-2.695927e+00	-4.477749e+02
8.000000e-07	-2.831538e-07	-6.603220e-09	-1.970213e+00	-4.294426e+02
8.100000e-07	-1.788192e-07	-6.328404e-09	-1.244242e+00	-4.109397e+02
8.200000e-07	-7.443645e-08	-6.038693e-09	-5.179363e-01	-3.923554e+02
8.300000e-07	3.000419e-08	-5.735005e-09	2.087721e-01	-3.736776e+02
8.400000e-07	1.344124e-07	-5.420220e-09	9.352547e-01	-3.547701e+02
8.500000e-07	2.387736e-07	-5.094999e-09	1.661411e+00	-3.353627e+02
8.600000e-07	3.430531e-07	-4.754976e-09	2.386998e+00	-3.150551e+02
8.700000e-07	4.472105e-07	-4.392586e-09	3.111735e+00	-2.933381e+02
8.800000e-07	5.512469e-07	-4.001928e-09	3.835631e+00	-2.696284e+02
8.900000e-07	6.551415e-07	-3.584483e-09	4.558540e+00	-2.433168e+02
9.000000e-07	7.588518e-07	-3.142267e-09	5.280167e+00	-2.138243e+02
9.100000e-07	8.623223e-07	-2.666993e-09	6.000125e+00	-1.806619e+02
9.200000e-07	9.654965e-07	-2.148257e-09	6.718021e+00	-1.434864e+02
9.300000e-07	1.068296e-06	-1.575646e-09	7.433313e+00	-1.021495e+02
9.400000e-07	1.170662e-06	-9.415788e-10	8.145586e+00	-5.673129e+01
9.500000e-07	1.272601e-06	-2.334654e-10	8.854883e+00	-7.556740e+00
9.600000e-07	1.374156e-06	5.622977e-10	9.561515e+00	4.480829e+01
9.700000e-07	1.475377e-06	1.441398e-09	1.026582e+01	9.958188e+01
9.800000e-07	1.576181e-06	2.376508e-09	1.096723e+01	1.558098e+02
9.900000e-07	1.676409e-06	3.325275e-09	1.166462e+01	2.124251e+02
1.000000e-06	1.776015e-06	4.246198e-09	1.235769e+01	2.683172e+02
1.010000e-06	1.874936e-06	5.106033e-09	1.304599e+01	3.224064e+02
1.020000e-06	1.973029e-06	5.880019e-09	1.372853e+01	3.737149e+02
1.030000e-06	2.070263e-06	6.558981e-09	1.440510e+01	4.214292e+02
1.040000e-06	2.166702e-06	7.154126e-09	1.507613e+01	4.649483e+02
1.050000e-06	2.262369e-06	7.681368e-09	1.574179e+01	5.039132e+02
1.060000e-06	2.357299e-06	8.149803e-09	1.640232e+01	5.382161e+02
1.070000e-06	2.451493e-06	8.566347e-09	1.705774e+01	5.679885e+02
1.080000e-06	2.544918e-06	8.937969e-09	1.770779e+01	5.935707e+02
1.090000e-06	2.637542e-06	9.274237e-09	1.835228e+01	6.154658e+02
1.100000e-06	2.729221e-06	9.579382e-09	1.899019e+01	6.342842e+02
1.110000e-06	2.819715e-06	9.854382e-09	1.961986e+01	6.506825e+02
1.120000e-06	2.909021e-06	1.010350e-08	2.024126e+01	6.653051e+02
1.130000e-06	2.997313e-06	1.033351e-08	2.085561e+01	6.787324e+02
1.140000e-06	3.084644e-06	1.055233e-08	2.146326e+01	6.914410e+02
1.150000e-06	3.170952e-06	1.076021e-08	2.206380e+01	7.037777e+02
1.160000e-06	3.256250e-06	1.095098e-08	2.265732e+01	7.159504e+02
1.170000e-06	3.340542e-06	1.112624e-08	2.324383e+01	7.280341e+02
1.180000e-06	3.423702e-06	1.129425e-08	2.382246e+01	7.399903e+02
1.190000e-06	3.505551e-06	1.145579e-08	2.439197e+01	7.516965e+02
1.200000e-06	3.586031e-06	1.160496e-08	2.495196e+01	7.629817e+02
1.210000e-06	3.665266e-06	1.174162e-08	2.550329e+01	7.736631e+02
1.220000e-06	3.743234e-06	1.187305e-08	2.604579e+01	7.835792e+02
1.230000e-06	3.819843e-06	1.199982e-08	2.657885e+01	7.926170e+02
1.240000e-06	3.894917e-06	1.211996e-08	2.710122e+01	8.007288e+02
1.250000e-06	3.968356e-06	1.223272e-08	2.761222e+01	8.079391e+02
1.260000e-06	4.040348e-06	1.233890e-08	2.811315e+01	8.143401e+02
1.270000e-06	4.110995e-06	1.243931e-08	2.860471e+01	8.200789e+02
1.280000e-06	4.180274e-06	1.253478e-08	2.908677e+01	8.253371e+02
1.290000e-06	4.248109e-06	1.262642e-08	2.955877e+01	8.303068e+02
1.300000e-06	4.314334e-06	1.271399e-08	3.001957e+01	8.351673e+02
1.310000e-06	4.378922e-06	1.279830e-08	3.046898e+01	8.400630e+02
1.320000e-06	4.442008e-06	1.287984e-08	3.090794e+01	8.450887e+02
1.330000e-06	4.503694e-06	1.295821e-08	3.133716e+01	8.502807e+02
1.340000e-06	4.563945e-06	1.303250e-08	3.175638e+01	8.556170e+02
1.350000e-06	4.622515e-06	1.310282e-08	3.216393e+01	8.610246e+02
1.360000e-06	4.679271e-06	1.317072e-08	3.255884e+01	8.663932e+02
1.370000e-06	4.734306e-06	1.323763e-08	3.294177e+01	8.715933e+02
1.380000e-06	4.787606e-06	1.330185e-08	3.331264e+01	8.764956e+02
1.390000e-06	4.838966e-06	1.336080e-08	3.367001e+01	8.809896e+02
1.400000e-06	4.888335e-06	1.341450e-08	3.401353e+01	8.849988e+02
1.410000e-06	4.935870e-06	1.346588e-08	3.434428e+01	8.884902e+02
1.420000e-06	4.981732e-06	1.351492e-08	3.466339e+01	8.914774e+02
1.430000e-06	5.025961e-06	1.356207e-08	3.497114e+01	8.940180e+02
1.440000e-06	5.068296e-06	1.360839e-08	3.526571e+01	8.962039e+02
1.450000e-06	5.108715e-06	1.365234e-08	3.554695e+01	8.981481e+02
1.460000e-06	5.147429e-06	1.369213e-08	3.581632e+01	8.999688e+02
1.470000e-06	5.184513e-06	1.372826e-08	3.607436e+01	9.017732e+02
1.480000e-06	5.219795e-06	1.376186e-08	3.631986e+01	9.036437e+02
1.490000e-06	5.253103e-06	1.379218e-08	3.655162e+01	9.056278e+02
1.500000e-06	5.284570e-06	1.381928e-08	3.677057e+01	9.077330e+02
1.510000e-06	5.314307e-06	1.384522e-08	3.697748e+01	9.099279e+02
1.520000e-06	5.342211e-06	1.387178e-08	3.717164e+01	9.121477e+02
1.530000e-06	5.368048e-06	1.389738e-08	3.735142e+01	9.143052e+02
1.540000e-06	5.391870e-06	1.391999e-08	3.751717e+01	9.163039e+02
1.550000e-06	5.413940e-06	1.393922e-08	3.767074e+01	9.180523e+02
1.560000e-06	5.434320e-06	1.395723e-08	3.781254e+01	9.194770e+02
1.570000e-06	5.452768e-06	1.397506e-08	3.794090e+01	9.205329e+02
1.580000e-06	5.469148e-06	1.398903e-08	3.805488e+01	9.212095e+02
1.590000e-06	5.483551e-06	1.399668e-08	3.815510e+01	9.215317e+02
1.600000e-06	5.495860e-06	1.400286e-08	3.824074e+01	9.215562e+02
1.610000e-06	5.505936e-06	1.401199e-08	3.831085e+01	9.213630e+02
1.620000e-06	5.513977e-06	1.402251e-08	3.836680e+01	9.210441e+02
1.630000e-06	5.520221e-06	1.402946e-08	3.841025e+01	9.206905e+02
1.640000e-06	5.524632e-06	1.403223e-08	3.844094e+01	9.203799e+02
1.650000e-06	5.526999e-06	1.403287e-08	3.845741e+01	9.201659e+02
1.660000e-06	5.527371e-06	1.403181e-08	3.846000e+01	9.200714e+02
1.670000e-06	5.526027e-06	1.402586e-08	3.845065e+01	9.200858e+02
1.680000e-06	5.523044e-06	1.401639e-08	3.842990e+01	9.201676e+02
1.690000e-06	5.518161e-06	1.401009e-08	3.839592e+01	9.202504e+02
1.700000e-06	5.511251e-06	1.400657e-08	3.834784e+01	9.202534e+02
1.710000e-06	5.502567e-06	1.400253e-08	3.828741e+01	9.200931e+02
1.720000e-06	5.492201e-06	1.399307e-08	3.821528e+01	9.196953e+02
1.730000e-06	5.479957e-06	1.397809e-08	3.813009e+01	9.190061e+02
1.740000e-06	5.465728e-06	1.395729e-08	3.803108e+01	9.179993e+02
1.750000e-06	5.449441e-06	1.390343e-08	3.791775e+01	9.166806e+02
1.760000e-06	5.430650e-06	1.387563e-08	3.778700e+01	9.150862e+02
1.770000e-06	5.409118e-06	1.388368e-08	3.763718e+01	9.132780e+02
1.780000e-06	5.385476e-06	1.387667e-08	3.747268e+01	9.113342e+02
1.790000e-06	5.360687e-06	1.389053e-08	3.730020e+01	9.093386e+02
1.800000e-06	5.335060e-06	1.383661e-08	3.712188e+01	9.073679e+02
1.810000e-06	5.307678e-06	1.377248e-08	3.693136e+01	9.054807e+02
1.820000e-06	5.277944e-06	1.383141e-08	3.672446e+01	9.037088e+02
1.830000e-06	5.246574e-06	1.380797e-08	3.650619e+01	9.020519e+02
1.840000e-06	5.213574e-06	1.376085e-08	3.627657e+01	9.004773e+02
1.850000e-06	5.178710e-06	1.376862e-08	3.603398e+01	8.989236e+02
1.860000e-06	5.142085e-06	1.369596e-08	3.577914e+01	8.973093e+02
1.870000e-06	5.103334e-06	1.369078e-08	3.550951e+01	8.955430e+02
1.880000e-06	5.062768e-06	1.368309e-08	3.522724e+01	8.935364e+02
1.890000e-06	5.020656e-06	1.359544e-08	3.493422e+01	8.912166e+02
1.900000e-06	4.976688e-06	1.356789e-08	3.462829e+01	8.885356e+02
1.910000e-06	4.930937e-06	1.348349e-08	3.430995e+01	8.854778e+02
1.920000e-06	4.883351e-06	1.342998e-08	3.397885e+01	8.820622e+02
1.930000e-06	4.833917e-06	1.341350e-08	3.363488e+01	8.783397e+02
1.940000e-06	4.782699e-06	1.333728e-08	3.327850e+01	8.743869e+02
1.950000e-06	4.729390e-06	1.334432e-08	3.290757e+01	8.702950e+02
1.960000e-06	4.674249e-06	1.327475e-08	3.252389e+01	8.661577e+02
1.970000e-06	4.617483e-06	1.319211e-08	3.212891e+01	8.620579e+02
1.980000e-06	4.559069e-06	1.313350e-08	3.172246e+01	8.580560e+02
1.990000e-06	4.499120e-06	1.303112e-08	3.130533e+01	8.541809e+02
2.000000e-06	4.437396e-06	1.301471e-08	3.087584e+01	8.504258e+02
2.010000e-06	4.374045e-06	1.295056e-08	3.043504e+01	8.467485e+02
2.020000e-06	4.309202e-06	1.289957e-08	2.998386e+01	8.430763e+02
2.030000e-06	4.242875e-06	1.284828e-08	2.952235e+01	8.393160e+02
2.040000e-06	4.175112e-06	1.274669e-08	2.905085e+01	8.353660e+02
2.050000e-06	4.105562e-06	1.269309e-08	2.856691e+01	8.311303e+02
2.060000e-06	4.034385e-06	1.258719e-08	2.807165e+01	8.265314e+02
2.070000e-06	3.961917e-06	1.251748e-08	2.756741e+01	8.215213e+02
2.080000e-06	3.888131e-06	1.244488e-08	2.705401e+01	8.160882e+02
2.090000e-06	3.812783e-06	1.235981e-08	2.652973e+01	8.102581e+02
2.100000e-06	3.735607e-06	1.229498e-08	2.599273e+01	8.040912e+02
2.110000e-06	3.656950e-06	1.218518e-08	2.544543e+01	7.976738e+02
2.120000e-06	3.577132e-06	1.211492e-08	2.489004e+01	7.911057e+02
2.130000e-06	3.496166e-06	1.202017e-08	2.432667e+01	7.844859e+02
2.140000e-06	3.414054e-06	1.192672e-08	2.375533e+01	7.778977e+02
2.150000e-06	3.330873e-06	1.183224e-08	2.317655e+01	7.713961e+02
2.160000e-06	3.246385e-06	1.171820e-08	2.258867e+01	7.649989e+02
2.170000e-06	3.160426e-06	1.162339e-08	2.199056e+01	7.586819e+02
2.180000e-06	3.073387e-06	1.150829e-08	2.138493e+01	7.523811e+02
2.190000e-06	2.985378e-06	1.140226e-08	2.077256e+01	7.460001e+02
2.200000e-06	2.896364e-06	1.129106e-08	2.015319e+01	7.394217e+02
2.210000e-06	2.806363e-06	1.117723e-08	1.952696e+01	7.325236e+02
2.220000e-06	2.715505e-06	1.106370e-08	1.889476e+01	7.251949e+02
2.230000e-06	2.623787e-06	1.093925e-08	1.825657e+01	7.173513e+02
2.240000e-06	2.530955e-06	1.081084e-08	1.761064e+01	7.089471e+02
2.250000e-06	2.437025e-06	1.067495e-08	1.695707e+01	6.999823e+02
2.260000e-06	2.342198e-06	1.053957e-08	1.629725e+01	6.905029e+02
2.270000e-06	2.246615e-06	1.040301e-08	1.563218e+01	6.805951e+02
2.280000e-06	2.150303e-06	1.026029e-08	1.496202e+01	6.703727e+02
2.290000e-06	2.053286e-06	1.011507e-08	1.428697e+01	6.599609e+02
2.300000e-06	1.955569e-06	9.971888e-09	1.360704e+01	6.494770e+02
2.310000e-06	1.857219e-06	9.824360e-09	1.292272e+01	6.390109e+02
2.320000e-06	1.758447e-06	9.667922e-09	1.223545e+01	6.286094e+02
2.330000e-06	1.659224e-06	9.498649e-09	1.154505e+01	6.182652e+02
2.340000e-06	1.559383e-06	9.325533e-09	1.085034e+01	6.079123e+02
2.350000e-06	1.458812e-06	9.148013e-09	1.015056e+01	5.974307e+02
2.360000e-06	1.357499e-06	8.959888e-09	9.445614e+00	5.866578e+02
2.370000e-06	1.255646e-06	8.769332e-09	8.736909e+00	5.754071e+02
2.380000e-06	1.153339e-06	8.577589e-09	8.025050e+00	5.634908e+02
2.390000e-06	1.050545e-06	8.383273e-09	7.309800e+00	5.507444e+02
2.400000e-06	9.473886e-07	8.179719e-09	6.592025e+00	5.370488e+02
2.410000e-06	8.439365e-07	7.963209e-09	5.872194e+00	5.223482e+02
2.420000e-06	7.401735e-07	7.736328e-09	5.150202e+00	5.066589e+02
2.430000e-06	6.361409e-07	7.500244e-09	4.426332e+00	4.900690e+02
2.440000e-06	5.319048e-07	7.256623e-09	3.701047e+00	4.727269e+02
2.450000e-06	4.275740e-07	7.003402e-09	2.975102e+00	4.548194e+02
2.460000e-06	3.231544e-07	6.739922e-09	2.248541e+00	4.365425e+02
2.470000e-06	2.185678e-07	6.469877e-09	1.520817e+00	4.180656e+02
2.480000e-06	1.138720e-07	6.191424e-09	7.923327e-01	3.994958e+02
2.490000e-06	9.148557e-09	5.900082e-09	6.365658e-02	3.808449e+02
2.500000e-06	-9.555900e-08	5.589736e-09	-6.649091e-01	3.620047e+02
2.510000e-06	-2.001941e-07	5.260528e-09	-1.392970e+00	3.427338e+02
2.520000e-06	-3.047440e-07	4.916131e-09	-2.120439e+00	3.226586e+02
2.530000e-06	-4.091882e-07	4.555411e-09	-2.847172e+00	3.012907e+02
2.540000e-06	-5.135270e-07	4.175657e-09	-3.573172e+00	2.780591e+02
2.550000e-06	-6.177205e-07	3.772681e-09	-4.298161e+00	2.523556e+02
2.560000e-06	-7.216879e-07	3.343813e-09	-5.021576e+00	2.235898e+02
2.570000e-06	-8.253966e-07	2.884200e-09	-5.743192e+00	1.912483e+02
2.580000e-06	-9.287924e-07	2.384512e-09	-6.462631e+00	1.549524e+02
2.590000e-06	-1.031773e-06	1.831575e-09	-7.179179e+00	1.145086e+02
2.600000e-06	-1.134311e-06	1.214273e-09	-7.892650e+00	6.994587e+01
2.610000e-06	-1.236402e-06	5.248563e-10	-8.603007e+00	2.153647e+01
2.620000e-06	-1.337967e-06	-2.434440e-10	-9.309707e+00	-3.020400e+01
2.630000e-06	-1.438938e-06	-1.094460e-09	-1.001227e+01	-8.453685e+01
2.640000e-06	-1.539288e-06	-2.012345e-09	-1.071052e+01	-1.405403e+02
2.650000e-06	-1.639076e-06	-2.961895e-09	-1.140485e+01	-1.971657e+02
2.660000e-06	-1.738274e-06	-3.898968e-09	-1.209508e+01	-2.533060e+02
2.670000e-06	-1.836833e-06	-4.786007e-09	-1.278086e+01	-3.078684e+02
2.680000e-06	-1.934797e-06	-5.597818e-09	-1.346251e+01	-3.598479e+02
2.690000e-06	-2.032164e-06	-6.319965e-09	-1.414000e+01	-4.083909e+02
2.700000e-06	-2.128892e-06	-6.956131e-09	-1.481305e+01	-4.528478e+02
2.710000e-06	-2.224941e-06	-7.515469e-09	-1.548136e+01	-4.928063e+02
2.720000e-06	-2.320330e-06	-8.006589e-09	-1.614509e+01	-5.281051e+02
2.730000e-06	-2.415020e-06	-8.439111e-09	-1.680395e+01	-5.588263e+02
2.740000e-06	-2.508800e-06	-8.823677e-09	-1.745648e+01	-5.852688e+02
2.750000e-06	-2.601536e-06	-9.169722e-09	-1.810175e+01	-6.079055e+02
2.760000e-06	-2.693179e-06	-9.484912e-09	-1.873941e+01	-6.273287e+02
2.770000e-06	-2.783782e-06	-9.774372e-09	-1.936983e+01	-6.441902e+02
2.780000e-06	-2.873399e-06	-1.003819e-08	-1.999340e+01	-6.591416e+02
2.790000e-06	-2.961985e-06	-1.028109e-08	-2.060979e+01	-6.727811e+02
2.800000e-06	-3.049569e-06	-1.050850e-08	-2.121921e+01	-6.856099e+02
2.810000e-06	-3.136154e-06	-1.072021e-08	-2.182168e+01	-6.980042e+02
2.820000e-06	-3.221598e-06	-1.091586e-08	-2.241620e+01	-7.102015e+02
2.830000e-06	-3.305791e-06	-1.109713e-08	-2.300203e+01	-7.223042e+02
2.840000e-06	-3.388765e-06	-1.126633e-08	-2.357936e+01	-7.342957e+02
2.850000e-06	-3.470611e-06	-1.142668e-08	-2.414886e+01	-7.460689e+02
2.860000e-06	-3.551355e-06	-1.158033e-08	-2.471068e+01	-7.574600e+02
2.870000e-06	-3.630898e-06	-1.172494e-08	-2.526415e+01	-7.682857e+02
2.880000e-06	-3.709037e-06	-1.185941e-08	-2.580785e+01	-7.783774e+02
2.890000e-06	-3.785586e-06	-1.198781e-08	-2.634049e+01	-7.876099e+02
2.900000e-06	-3.860617e-06	-1.211173e-08	-2.686256e+01	-7.959207e+02
2.910000e-06	-3.934266e-06	-1.222686e-08	-2.737501e+01	-8.033186e+02
2.920000e-06	-4.006567e-06	-1.233241e-08	-2.787809e+01	-8.098824e+02
2.930000e-06	-4.077504e-06	-1.243254e-08	-2.837168e+01	-8.157488e+02
2.940000e-06	-4.146928e-06	-1.253201e-08	-2.885474e+01	-8.210938e+02
