# Temperatura_=_29.85
# Concentracion g/m^3_=_15500.0
# C_Vs_to_Am_M_A/Vsm_=_65563218390.804596
# pendiente_HvsI_1/m_=_3716.3
# ordenada_HvsI_A/m_=_1297.0
# frecuencia_Hz_=_300802.4262750513

Tiempo_(s)	Campo_(V.s)	Magnetizacion_(V.s)	Campo_(kA/m)	Magnetizacion_(A/m)
0.000000e+00	-5.506133e-06	-1.387455e-08	-3.831227e+01	-9.083514e+02
1.000000e-08	-5.504529e-06	-1.387103e-08	-3.830111e+01	-9.083085e+02
2.000000e-08	-5.500988e-06	-1.386480e-08	-3.827647e+01	-9.083342e+02
3.000000e-08	-5.495668e-06	-1.386127e-08	-3.823945e+01	-9.083730e+02
4.000000e-08	-5.488712e-06	-1.385684e-08	-3.819105e+01	-9.083523e+02
5.000000e-08	-5.480168e-06	-1.384545e-08	-3.813160e+01	-9.081937e+02
6.000000e-08	-5.469693e-06	-1.382902e-08	-3.805872e+01	-9.078241e+02
7.000000e-08	-5.457102e-06	-1.380688e-08	-3.797110e+01	-9.071859e+02
8.000000e-08	-5.442478e-06	-1.378935e-08	-3.786935e+01	-9.062455e+02
9.000000e-08	-5.425487e-06	-1.382063e-08	-3.775113e+01	-9.049982e+02
1.000000e-07	-5.406153e-06	-1.382010e-08	-3.761660e+01	-9.034682e+02
1.100000e-07	-5.384827e-06	-1.376656e-08	-3.746821e+01	-9.017056e+02
1.200000e-07	-5.361651e-06	-1.373774e-08	-3.730695e+01	-8.997790e+02
1.300000e-07	-5.336988e-06	-1.366159e-08	-3.713534e+01	-8.977657e+02
1.400000e-07	-5.310909e-06	-1.362102e-08	-3.695388e+01	-8.957405e+02
1.500000e-07	-5.283008e-06	-1.369290e-08	-3.675974e+01	-8.937648e+02
1.600000e-07	-5.253323e-06	-1.359788e-08	-3.655319e+01	-8.918782e+02
1.700000e-07	-5.222076e-06	-1.355908e-08	-3.633577e+01	-8.900917e+02
1.800000e-07	-5.188941e-06	-1.363122e-08	-3.610521e+01	-8.883863e+02
1.900000e-07	-5.153755e-06	-1.351888e-08	-3.586038e+01	-8.867151e+02
2.000000e-07	-5.116968e-06	-1.349413e-08	-3.560442e+01	-8.850096e+02
2.100000e-07	-5.078493e-06	-1.346961e-08	-3.533670e+01	-8.831886e+02
2.200000e-07	-5.038209e-06	-1.335439e-08	-3.505640e+01	-8.811698e+02
2.300000e-07	-4.996026e-06	-1.336665e-08	-3.476289e+01	-8.788807e+02
2.400000e-07	-4.951787e-06	-1.335469e-08	-3.445507e+01	-8.762692e+02
2.500000e-07	-4.905854e-06	-1.330332e-08	-3.413547e+01	-8.733105e+02
2.600000e-07	-4.858091e-06	-1.327398e-08	-3.380312e+01	-8.700110e+02
2.700000e-07	-4.808243e-06	-1.319093e-08	-3.345628e+01	-8.664075e+02
2.800000e-07	-4.756372e-06	-1.314903e-08	-3.309535e+01	-8.625624e+02
2.900000e-07	-4.702500e-06	-1.308723e-08	-3.272051e+01	-8.585551e+02
3.000000e-07	-4.646930e-06	-1.301820e-08	-3.233384e+01	-8.544710e+02
3.100000e-07	-4.589769e-06	-1.297125e-08	-3.193611e+01	-8.503895e+02
3.200000e-07	-4.530736e-06	-1.293115e-08	-3.152535e+01	-8.463728e+02
3.300000e-07	-4.470030e-06	-1.290856e-08	-3.110295e+01	-8.424567e+02
3.400000e-07	-4.407933e-06	-1.282252e-08	-3.067088e+01	-8.386456e+02
3.500000e-07	-4.344341e-06	-1.275093e-08	-3.022839e+01	-8.349106e+02
3.600000e-07	-4.279201e-06	-1.267892e-08	-2.977514e+01	-8.311936e+02
3.700000e-07	-4.212419e-06	-1.259947e-08	-2.931047e+01	-8.274143e+02
3.800000e-07	-4.144017e-06	-1.254956e-08	-2.883452e+01	-8.234810e+02
3.900000e-07	-4.074157e-06	-1.246951e-08	-2.834843e+01	-8.193032e+02
4.000000e-07	-4.002993e-06	-1.239734e-08	-2.785326e+01	-8.148034e+02
4.100000e-07	-3.930548e-06	-1.232803e-08	-2.734918e+01	-8.099284e+02
4.200000e-07	-3.856610e-06	-1.225086e-08	-2.683471e+01	-8.046563e+02
4.300000e-07	-3.780941e-06	-1.216526e-08	-2.630820e+01	-7.989995e+02
4.400000e-07	-3.703619e-06	-1.207191e-08	-2.577019e+01	-7.930033e+02
4.500000e-07	-3.624880e-06	-1.200054e-08	-2.522231e+01	-7.867395e+02
4.600000e-07	-3.544705e-06	-1.191761e-08	-2.466444e+01	-7.802959e+02
4.700000e-07	-3.463123e-06	-1.182492e-08	-2.409678e+01	-7.737638e+02
4.800000e-07	-3.380290e-06	-1.172445e-08	-2.352042e+01	-7.672242e+02
4.900000e-07	-3.296317e-06	-1.162092e-08	-2.293613e+01	-7.607358e+02
5.000000e-07	-3.211373e-06	-1.152955e-08	-2.234508e+01	-7.543251e+02
5.100000e-07	-3.125514e-06	-1.142645e-08	-2.174766e+01	-7.479811e+02
5.200000e-07	-3.038701e-06	-1.131896e-08	-2.114361e+01	-7.416554e+02
5.300000e-07	-2.950907e-06	-1.121165e-08	-2.053273e+01	-7.352674e+02
5.400000e-07	-2.862127e-06	-1.110640e-08	-1.991499e+01	-7.287137e+02
5.500000e-07	-2.772348e-06	-1.099656e-08	-1.929030e+01	-7.218817e+02
5.600000e-07	-2.681400e-06	-1.087315e-08	-1.865747e+01	-7.146645e+02
5.700000e-07	-2.589340e-06	-1.074537e-08	-1.801691e+01	-7.069754e+02
5.800000e-07	-2.496374e-06	-1.061749e-08	-1.737004e+01	-6.987600e+02
5.900000e-07	-2.402631e-06	-1.049430e-08	-1.671777e+01	-6.900042e+02
6.000000e-07	-2.308112e-06	-1.036502e-08	-1.606009e+01	-6.807364e+02
6.100000e-07	-2.212773e-06	-1.022655e-08	-1.539672e+01	-6.710237e+02
6.200000e-07	-2.116644e-06	-1.008376e-08	-1.472784e+01	-6.609626e+02
6.300000e-07	-2.019762e-06	-9.940521e-09	-1.405372e+01	-6.506647e+02
6.400000e-07	-1.922156e-06	-9.795981e-09	-1.337457e+01	-6.402394e+02
6.500000e-07	-1.823761e-06	-9.640916e-09	-1.268992e+01	-6.297766e+02
6.600000e-07	-1.724561e-06	-9.478154e-09	-1.199969e+01	-6.193303e+02
6.700000e-07	-1.624624e-06	-9.313949e-09	-1.130431e+01	-6.089075e+02
6.800000e-07	-1.524095e-06	-9.148062e-09	-1.060482e+01	-5.984619e+02
6.900000e-07	-1.423106e-06	-8.970335e-09	-9.902125e+00	-5.878957e+02
7.000000e-07	-1.321681e-06	-8.783871e-09	-9.196396e+00	-5.770685e+02
7.100000e-07	-1.219853e-06	-8.594762e-09	-8.487872e+00	-5.658120e+02
7.200000e-07	-1.117668e-06	-8.403340e-09	-7.776856e+00	-5.539509e+02
7.300000e-07	-1.015067e-06	-8.207826e-09	-7.062946e+00	-5.413243e+02
7.400000e-07	-9.120437e-07	-8.000952e-09	-6.346099e+00	-5.278078e+02
7.500000e-07	-8.086861e-07	-7.783871e-09	-5.626925e+00	-5.133307e+02
7.600000e-07	-7.050478e-07	-7.559113e-09	-4.905799e+00	-4.978875e+02
7.700000e-07	-6.011689e-07	-7.328170e-09	-4.182999e+00	-4.815394e+02
7.800000e-07	-4.970758e-07	-7.087235e-09	-3.458707e+00	-4.644077e+02
7.900000e-07	-3.928236e-07	-6.835195e-09	-2.733309e+00	-4.466555e+02
8.000000e-07	-2.884846e-07	-6.574677e-09	-2.007307e+00	-4.284631e+02
8.100000e-07	-1.840508e-07	-6.305503e-09	-1.280645e+00	-4.099961e+02
8.200000e-07	-7.947967e-08	-6.026318e-09	-5.530282e-01	-3.913721e+02
8.300000e-07	2.517534e-08	-5.734470e-09	1.751727e-01	-3.726294e+02
8.400000e-07	1.297960e-07	-5.429307e-09	9.031346e-01	-3.537007e+02
8.500000e-07	2.343407e-07	-5.110278e-09	1.630568e+00	-3.343983e+02
8.600000e-07	3.387696e-07	-4.773693e-09	2.357195e+00	-3.144103e+02
8.700000e-07	4.430468e-07	-4.414804e-09	3.082768e+00	-2.933122e+02
8.800000e-07	5.471669e-07	-4.033058e-09	3.807247e+00	-2.705931e+02
8.900000e-07	6.510653e-07	-3.631865e-09	4.530183e+00	-2.456936e+02
9.000000e-07	7.547714e-07	-3.211723e-09	5.251781e+00	-2.180556e+02
9.100000e-07	8.582605e-07	-2.760567e-09	5.971870e+00	-1.871756e+02
9.200000e-07	9.614512e-07	-2.269514e-09	6.689882e+00	-1.526596e+02
9.300000e-07	1.064282e-06	-1.734248e-09	7.405390e+00	-1.142728e+02
9.400000e-07	1.166724e-06	-1.144825e-09	8.118189e+00	-7.197872e+01
9.500000e-07	1.268774e-06	-4.864025e-10	8.828270e+00	-2.596304e+01
9.600000e-07	1.370416e-06	2.532374e-10	9.535500e+00	2.335944e+01
9.700000e-07	1.471668e-06	1.067914e-09	1.024002e+01	7.535781e+01
9.800000e-07	1.572496e-06	1.939910e-09	1.094160e+01	1.292165e+02
9.900000e-07	1.672810e-06	2.845082e-09	1.163959e+01	1.839833e+02
1.000000e-06	1.772411e-06	3.751436e-09	1.233263e+01	2.386296e+02
1.010000e-06	1.871195e-06	4.618999e-09	1.301998e+01	2.921173e+02
1.020000e-06	1.969238e-06	5.413422e-09	1.370217e+01	3.434678e+02
1.030000e-06	2.066560e-06	6.123700e-09	1.437935e+01	3.918250e+02
1.040000e-06	2.163042e-06	6.755517e-09	1.505068e+01	4.365076e+02
1.050000e-06	2.258699e-06	7.316963e-09	1.571627e+01	4.770471e+02
1.060000e-06	2.353648e-06	7.811270e-09	1.637694e+01	5.132064e+02
1.070000e-06	2.447871e-06	8.248081e-09	1.703255e+01	5.449801e+02
1.080000e-06	2.541341e-06	8.639235e-09	1.768292e+01	5.725752e+02
1.090000e-06	2.634035e-06	8.995419e-09	1.832790e+01	5.963761e+02
1.100000e-06	2.725823e-06	9.318622e-09	1.896657e+01	6.168978e+02
1.110000e-06	2.816479e-06	9.609112e-09	1.959737e+01	6.347311e+02
1.120000e-06	2.905987e-06	9.874913e-09	2.022017e+01	6.504869e+02
1.130000e-06	2.994406e-06	1.011932e-08	2.083540e+01	6.647438e+02
1.140000e-06	3.081749e-06	1.034633e-08	2.144315e+01	6.780050e+02
1.150000e-06	3.168079e-06	1.055942e-08	2.204384e+01	6.906661e+02
1.160000e-06	3.253441e-06	1.075868e-08	2.263780e+01	7.029983e+02
1.170000e-06	3.337793e-06	1.094368e-08	2.322473e+01	7.151457e+02
1.180000e-06	3.421002e-06	1.111526e-08	2.380370e+01	7.271361e+02
1.190000e-06	3.502901e-06	1.127564e-08	2.437357e+01	7.389039e+02
1.200000e-06	3.583409e-06	1.142869e-08	2.493375e+01	7.503193e+02
1.210000e-06	3.662629e-06	1.157683e-08	2.548497e+01	7.612222e+02
1.220000e-06	3.740630e-06	1.171951e-08	2.602771e+01	7.714548e+02
1.230000e-06	3.817334e-06	1.185183e-08	2.656142e+01	7.808899e+02
1.240000e-06	3.892488e-06	1.197331e-08	2.708435e+01	7.894523e+02
1.250000e-06	3.965989e-06	1.208769e-08	2.759578e+01	7.971298e+02
1.260000e-06	4.038004e-06	1.219637e-08	2.809687e+01	8.039754e+02
1.270000e-06	4.108652e-06	1.229758e-08	2.858845e+01	8.100996e+02
1.280000e-06	4.177965e-06	1.239285e-08	2.907073e+01	8.156550e+02
1.290000e-06	4.245867e-06	1.248626e-08	2.954320e+01	8.208167e+02
1.300000e-06	4.312138e-06	1.257718e-08	3.000432e+01	8.257594e+02
1.310000e-06	4.376745e-06	1.266517e-08	3.045386e+01	8.306367e+02
1.320000e-06	4.439857e-06	1.274996e-08	3.089301e+01	8.355638e+02
1.330000e-06	4.501550e-06	1.282873e-08	3.132228e+01	8.406059e+02
1.340000e-06	4.561875e-06	1.290032e-08	3.174202e+01	8.457741e+02
1.350000e-06	4.620550e-06	1.296828e-08	3.215028e+01	8.510282e+02
1.360000e-06	4.677379e-06	1.303706e-08	3.254571e+01	8.562864e+02
1.370000e-06	4.732520e-06	1.310621e-08	3.292939e+01	8.614397e+02
1.380000e-06	4.785948e-06	1.317166e-08	3.330114e+01	8.663692e+02
1.390000e-06	4.837406e-06	1.323172e-08	3.365920e+01	8.709640e+02
1.400000e-06	4.886784e-06	1.328656e-08	3.400278e+01	8.751367e+02
1.410000e-06	4.934341e-06	1.333951e-08	3.433368e+01	8.788352e+02
1.420000e-06	4.980288e-06	1.339036e-08	3.465339e+01	8.820491e+02
1.430000e-06	5.024604e-06	1.343719e-08	3.496174e+01	8.848097e+02
1.440000e-06	5.066980e-06	1.348170e-08	3.525659e+01	8.871848e+02
1.450000e-06	5.107441e-06	1.352511e-08	3.553813e+01	8.892684e+02
1.460000e-06	5.146240e-06	1.356700e-08	3.580810e+01	8.911671e+02
1.470000e-06	5.183391e-06	1.360670e-08	3.606660e+01	8.929854e+02
1.480000e-06	5.218719e-06	1.364264e-08	3.631241e+01	8.948117e+02
1.490000e-06	5.252052e-06	1.367415e-08	3.654435e+01	8.967071e+02
1.500000e-06	5.283561e-06	1.370263e-08	3.676359e+01	8.986983e+02
1.510000e-06	5.313358e-06	1.372885e-08	3.697092e+01	9.007754e+02
1.520000e-06	5.341343e-06	1.375414e-08	3.716564e+01	9.028950e+02
1.530000e-06	5.367255e-06	1.377854e-08	3.734594e+01	9.049878e+02
1.540000e-06	5.391147e-06	1.380188e-08	3.751218e+01	9.069692e+02
1.550000e-06	5.413274e-06	1.382461e-08	3.766615e+01	9.087528e+02
1.560000e-06	5.433679e-06	1.384386e-08	3.780812e+01	9.102624e+02
1.570000e-06	5.452153e-06	1.385841e-08	3.793667e+01	9.114432e+02
1.580000e-06	5.468569e-06	1.387039e-08	3.805089e+01	9.122695e+02
1.590000e-06	5.483050e-06	1.388160e-08	3.815166e+01	9.127482e+02
1.600000e-06	5.495499e-06	1.389366e-08	3.823828e+01	9.129174e+02
1.610000e-06	5.505688e-06	1.390454e-08	3.830918e+01	9.128409e+02
1.620000e-06	5.513800e-06	1.391153e-08	3.836562e+01	9.125991e+02
1.630000e-06	5.520099e-06	1.391538e-08	3.840945e+01	9.122774e+02
1.640000e-06	5.524550e-06	1.391752e-08	3.844041e+01	9.119549e+02
1.650000e-06	5.526960e-06	1.391986e-08	3.845719e+01	9.116931e+02
1.660000e-06	5.527364e-06	1.392138e-08	3.846000e+01	9.115278e+02
1.670000e-06	5.526007e-06	1.391587e-08	3.845055e+01	9.114647e+02
1.680000e-06	5.523006e-06	1.391248e-08	3.842968e+01	9.114794e+02
1.690000e-06	5.518142e-06	1.391238e-08	3.839583e+01	9.115206e+02
1.700000e-06	5.511326e-06	1.390758e-08	3.834841e+01	9.115188e+02
1.710000e-06	5.502836e-06	1.389701e-08	3.828933e+01	9.113959e+02
1.720000e-06	5.492650e-06	1.388667e-08	3.821845e+01	9.110767e+02
1.730000e-06	5.480544e-06	1.388999e-08	3.813422e+01	9.104994e+02
1.740000e-06	5.466423e-06	1.386152e-08	3.803596e+01	9.096248e+02
1.750000e-06	5.450231e-06	1.377864e-08	3.792330e+01	9.084418e+02
1.760000e-06	5.431556e-06	1.376679e-08	3.779335e+01	9.069686e+02
1.770000e-06	5.410084e-06	1.377105e-08	3.764395e+01	9.052502e+02
1.780000e-06	5.386465e-06	1.379654e-08	3.747961e+01	9.033520e+02
1.790000e-06	5.361693e-06	1.382803e-08	3.730724e+01	9.013503e+02
1.800000e-06	5.336120e-06	1.367370e-08	3.712930e+01	8.993214e+02
1.810000e-06	5.308831e-06	1.368300e-08	3.693942e+01	8.973306e+02
1.820000e-06	5.279126e-06	1.374510e-08	3.673273e+01	8.954226e+02
1.830000e-06	5.247799e-06	1.360605e-08	3.651475e+01	8.936148e+02
1.840000e-06	5.214784e-06	1.367117e-08	3.628503e+01	8.918947e+02
1.850000e-06	5.179914e-06	1.365505e-08	3.604240e+01	8.902210e+02
1.860000e-06	5.143377e-06	1.351789e-08	3.578817e+01	8.885290e+02
1.870000e-06	5.104735e-06	1.361342e-08	3.551930e+01	8.867394e+02
1.880000e-06	5.064303e-06	1.352541e-08	3.523797e+01	8.847692e+02
1.890000e-06	5.022337e-06	1.344060e-08	3.494597e+01	8.825429e+02
1.900000e-06	4.978491e-06	1.345386e-08	3.464088e+01	8.800032e+02
1.910000e-06	4.932894e-06	1.330464e-08	3.432361e+01	8.771191e+02
1.920000e-06	4.885447e-06	1.334494e-08	3.399347e+01	8.738901e+02
1.930000e-06	4.836123e-06	1.328803e-08	3.365027e+01	8.703468e+02
1.940000e-06	4.785012e-06	1.318573e-08	3.329463e+01	8.665469e+02
1.950000e-06	4.731740e-06	1.322654e-08	3.292396e+01	8.625668e+02
1.960000e-06	4.676650e-06	1.310694e-08	3.254064e+01	8.584917e+02
1.970000e-06	4.619949e-06	1.307291e-08	3.214610e+01	8.544033e+02
1.980000e-06	4.561621e-06	1.298633e-08	3.174025e+01	8.503683e+02
1.990000e-06	4.501800e-06	1.290396e-08	3.132401e+01	8.464288e+02
2.000000e-06	4.440214e-06	1.291254e-08	3.089549e+01	8.425961e+02
2.010000e-06	4.376950e-06	1.280962e-08	3.045529e+01	8.388484e+02
2.020000e-06	4.312147e-06	1.280274e-08	3.000438e+01	8.351333e+02
2.030000e-06	4.245918e-06	1.270172e-08	2.954356e+01	8.313745e+02
2.040000e-06	4.178243e-06	1.261536e-08	2.907266e+01	8.274817e+02
2.050000e-06	4.108797e-06	1.257053e-08	2.858945e+01	8.233630e+02
2.060000e-06	4.037782e-06	1.244533e-08	2.809533e+01	8.189373e+02
2.070000e-06	3.965402e-06	1.240871e-08	2.759170e+01	8.141454e+02
2.080000e-06	3.891672e-06	1.231068e-08	2.707868e+01	8.089580e+02
2.090000e-06	3.816394e-06	1.225890e-08	2.655488e+01	8.033805e+02
2.100000e-06	3.739377e-06	1.218244e-08	2.601899e+01	7.974514e+02
2.110000e-06	3.660845e-06	1.206808e-08	2.547256e+01	7.912375e+02
2.120000e-06	3.581033e-06	1.199856e-08	2.491721e+01	7.848243e+02
2.130000e-06	3.500095e-06	1.189060e-08	2.435404e+01	7.783034e+02
2.140000e-06	3.417978e-06	1.182332e-08	2.378266e+01	7.717592e+02
2.150000e-06	3.334718e-06	1.171483e-08	2.320333e+01	7.652560e+02
2.160000e-06	3.250280e-06	1.161255e-08	2.261580e+01	7.588279e+02
2.170000e-06	3.164449e-06	1.151454e-08	2.201858e+01	7.524720e+02
2.180000e-06	3.077394e-06	1.140558e-08	2.141284e+01	7.461479e+02
2.190000e-06	2.989381e-06	1.130656e-08	2.080043e+01	7.397809e+02
2.200000e-06	2.900440e-06	1.118752e-08	2.018157e+01	7.332717e+02
2.210000e-06	2.810552e-06	1.107959e-08	1.955613e+01	7.265084e+02
2.220000e-06	2.719733e-06	1.096372e-08	1.892420e+01	7.193815e+02
2.230000e-06	2.628013e-06	1.085013e-08	1.828600e+01	7.117990e+02
2.240000e-06	2.535383e-06	1.071850e-08	1.764147e+01	7.036987e+02
2.250000e-06	2.441688e-06	1.058451e-08	1.698953e+01	6.950574e+02
2.260000e-06	2.346916e-06	1.045095e-08	1.633009e+01	6.858944e+02
2.270000e-06	2.251327e-06	1.031951e-08	1.566498e+01	6.762694e+02
2.280000e-06	2.155017e-06	1.018493e-08	1.499484e+01	6.662735e+02
2.290000e-06	2.058007e-06	1.003837e-08	1.431984e+01	6.560164e+02
2.300000e-06	1.960330e-06	9.895414e-09	1.364019e+01	6.456095e+02
2.310000e-06	1.862039e-06	9.746147e-09	1.295627e+01	6.351483e+02
2.320000e-06	1.763208e-06	9.591911e-09	1.226859e+01	6.246958e+02
2.330000e-06	1.663805e-06	9.420902e-09	1.157694e+01	6.142696e+02
2.340000e-06	1.563854e-06	9.251795e-09	1.088147e+01	6.038351e+02
2.350000e-06	1.463397e-06	9.080834e-09	1.018248e+01	5.933049e+02
2.360000e-06	1.362332e-06	8.897750e-09	9.479255e+00	5.825467e+02
2.370000e-06	1.260572e-06	8.708093e-09	8.771193e+00	5.713967e+02
2.380000e-06	1.158207e-06	8.514318e-09	8.058929e+00	5.596792e+02
2.390000e-06	1.055362e-06	8.322376e-09	7.343320e+00	5.472283e+02
2.400000e-06	9.521318e-07	8.119718e-09	6.625036e+00	5.339101e+02
2.410000e-06	8.485890e-07	7.903968e-09	5.904574e+00	5.196412e+02
2.420000e-06	7.447627e-07	7.678524e-09	5.182139e+00	5.044017e+02
2.430000e-06	6.407008e-07	7.445622e-09	4.458066e+00	4.882388e+02
2.440000e-06	5.364441e-07	7.206712e-09	3.732636e+00	4.712619e+02
2.450000e-06	4.320666e-07	6.960912e-09	3.006366e+00	4.536273e+02
2.460000e-06	3.276001e-07	6.704923e-09	2.279477e+00	4.355139e+02
2.470000e-06	2.229725e-07	6.438980e-09	1.551467e+00	4.170933e+02
2.480000e-06	1.182381e-07	6.162544e-09	8.227134e-01	3.984962e+02
2.490000e-06	1.352651e-08	5.871480e-09	9.411892e-02	3.797803e+02
2.500000e-06	-9.114806e-08	5.562455e-09	-6.342181e-01	3.609027e+02
2.510000e-06	-1.957728e-07	5.240203e-09	-1.362209e+00	3.417021e+02
2.520000e-06	-3.003163e-07	4.909669e-09	-2.089633e+00	3.218928e+02
2.530000e-06	-4.047427e-07	4.564987e-09	-2.816244e+00	3.010728e+02
2.540000e-06	-5.090508e-07	4.199215e-09	-3.542030e+00	2.787467e+02
2.550000e-06	-6.132103e-07	3.808750e-09	-4.266784e+00	2.543620e+02
2.560000e-06	-7.171657e-07	3.393802e-09	-4.990117e+00	2.273555e+02
2.570000e-06	-8.209067e-07	2.951142e-09	-5.711958e+00	1.972075e+02
2.580000e-06	-9.243715e-07	2.475136e-09	-6.431877e+00	1.634961e+02
2.590000e-06	-1.027386e-06	1.957769e-09	-7.148660e+00	1.259488e+02
2.600000e-06	-1.129899e-06	1.387122e-09	-7.861958e+00	8.448371e+01
2.610000e-06	-1.231910e-06	7.515664e-10	-8.571761e+00	3.923795e+01
2.620000e-06	-1.333356e-06	4.265993e-11	-9.277637e+00	-9.422421e+00
2.630000e-06	-1.434249e-06	-7.438740e-10	-9.979662e+00	-6.091076e+01
2.640000e-06	-1.534639e-06	-1.601139e-09	-1.067819e+01	-1.144476e+02
2.650000e-06	-1.634556e-06	-2.504316e-09	-1.137342e+01	-1.691052e+02
2.660000e-06	-1.733862e-06	-3.416259e-09	-1.206440e+01	-2.238657e+02
2.670000e-06	-1.832481e-06	-4.299160e-09	-1.275060e+01	-2.776875e+02
2.680000e-06	-1.930459e-06	-5.124695e-09	-1.343235e+01	-3.295735e+02
2.690000e-06	-2.027802e-06	-5.876507e-09	-1.410967e+01	-3.786365e+02
2.700000e-06	-2.124453e-06	-6.547259e-09	-1.478217e+01	-4.241540e+02
2.710000e-06	-2.220471e-06	-7.136841e-09	-1.545028e+01	-4.656096e+02
2.720000e-06	-2.315936e-06	-7.654224e-09	-1.611454e+01	-5.027162e+02
2.730000e-06	-2.410654e-06	-8.111944e-09	-1.677359e+01	-5.354194e+02
2.740000e-06	-2.504400e-06	-8.519927e-09	-1.742588e+01	-5.638833e+02
2.750000e-06	-2.597126e-06	-8.884109e-09	-1.807109e+01	-5.884579e+02
2.760000e-06	-2.688832e-06	-9.214407e-09	-1.870918e+01	-6.096347e+02
2.770000e-06	-2.779474e-06	-9.523415e-09	-1.933988e+01	-6.279929e+02
2.780000e-06	-2.869099e-06	-9.806755e-09	-1.996350e+01	-6.441437e+02
2.790000e-06	-2.957733e-06	-1.005977e-08	-2.058023e+01	-6.586767e+02
2.800000e-06	-3.045414e-06	-1.029089e-08	-2.119032e+01	-6.721143e+02
2.810000e-06	-3.132089e-06	-1.050849e-08	-2.179341e+01	-6.848771e+02
2.820000e-06	-3.217560e-06	-1.071298e-08	-2.238813e+01	-6.972638e+02
2.830000e-06	-3.301770e-06	-1.090061e-08	-2.297407e+01	-7.094451e+02
2.840000e-06	-3.384788e-06	-1.107390e-08	-2.355172e+01	-7.214724e+02
2.850000e-06	-3.466695e-06	-1.124030e-08	-2.412164e+01	-7.332975e+02
2.860000e-06	-3.547458e-06	-1.140206e-08	-2.468360e+01	-7.448018e+02
2.870000e-06	-3.627042e-06	-1.155216e-08	-2.523735e+01	-7.558287e+02
2.880000e-06	-3.705272e-06	-1.168884e-08	-2.578169e+01	-7.662174e+02
2.890000e-06	-3.781984e-06	-1.181855e-08	-2.631545e+01	-7.758321e+02
2.900000e-06	-3.857187e-06	-1.194528e-08	-2.683872e+01	-7.845852e+02
2.910000e-06	-3.930927e-06	-1.206552e-08	-2.735182e+01	-7.924504e+02
2.920000e-06	-4.003311e-06	-1.217370e-08	-2.785547e+01	-7.994671e+02
2.930000e-06	-4.074338e-06	-1.227308e-08	-2.834969e+01	-8.057346e+02
2.940000e-06	-4.143837e-06	-1.237140e-08	-2.883327e+01	-8.113980e+02
