# Temperatura_=_52.06
# Concentracion g/m^3_=_15500.0
# C_Vs_to_Am_M_A/Vsm_=_65563218390.804596
# pendiente_HvsI_1/m_=_3716.3
# ordenada_HvsI_A/m_=_1297.0
# frecuencia_Hz_=_300798.48708667175

Tiempo_(s)	Campo_(V.s)	Magnetizacion_(V.s)	Campo_(kA/m)	Magnetizacion_(A/m)
0.000000e+00	-5.502597e-06	-1.422935e-08	-3.831167e+01	-9.320124e+02
1.000000e-08	-5.500996e-06	-1.422322e-08	-3.830053e+01	-9.321428e+02
2.000000e-08	-5.497430e-06	-1.421446e-08	-3.827570e+01	-9.323110e+02
3.000000e-08	-5.492118e-06	-1.420973e-08	-3.823871e+01	-9.324377e+02
4.000000e-08	-5.485148e-06	-1.420675e-08	-3.819018e+01	-9.324339e+02
5.000000e-08	-5.476510e-06	-1.419790e-08	-3.813004e+01	-9.322137e+02
6.000000e-08	-5.465967e-06	-1.418348e-08	-3.805664e+01	-9.317071e+02
7.000000e-08	-5.453337e-06	-1.416127e-08	-3.796870e+01	-9.308696e+02
8.000000e-08	-5.438720e-06	-1.413550e-08	-3.786694e+01	-9.296886e+02
9.000000e-08	-5.421764e-06	-1.417022e-08	-3.774888e+01	-9.281853e+02
1.000000e-07	-5.402395e-06	-1.418180e-08	-3.761402e+01	-9.264117e+02
1.100000e-07	-5.381029e-06	-1.411870e-08	-3.746526e+01	-9.244430e+02
1.200000e-07	-5.357844e-06	-1.408831e-08	-3.730384e+01	-9.223669e+02
1.300000e-07	-5.333202e-06	-1.401298e-08	-3.713227e+01	-9.202711e+02
1.400000e-07	-5.307132e-06	-1.393860e-08	-3.695075e+01	-9.182306e+02
1.500000e-07	-5.279221e-06	-1.404589e-08	-3.675643e+01	-9.162967e+02
1.600000e-07	-5.249535e-06	-1.395359e-08	-3.654974e+01	-9.144894e+02
1.700000e-07	-5.218306e-06	-1.386236e-08	-3.633231e+01	-9.127943e+02
1.800000e-07	-5.185155e-06	-1.398182e-08	-3.610149e+01	-9.111634e+02
1.900000e-07	-5.149888e-06	-1.386124e-08	-3.585595e+01	-9.095220e+02
2.000000e-07	-5.113068e-06	-1.380814e-08	-3.559959e+01	-9.077785e+02
2.100000e-07	-5.074596e-06	-1.381282e-08	-3.533173e+01	-9.058366e+02
2.200000e-07	-5.034315e-06	-1.366342e-08	-3.505128e+01	-9.036086e+02
2.300000e-07	-4.992188e-06	-1.367109e-08	-3.475796e+01	-9.010279e+02
2.400000e-07	-4.948042e-06	-1.368300e-08	-3.445060e+01	-8.980579e+02
2.500000e-07	-4.902112e-06	-1.360883e-08	-3.413082e+01	-8.946975e+02
2.600000e-07	-4.854372e-06	-1.359290e-08	-3.379843e+01	-8.909816e+02
2.700000e-07	-4.804604e-06	-1.350198e-08	-3.345192e+01	-8.869762e+02
2.800000e-07	-4.752767e-06	-1.344413e-08	-3.309101e+01	-8.827701e+02
2.900000e-07	-4.699001e-06	-1.338997e-08	-3.271666e+01	-8.784620e+02
3.000000e-07	-4.643533e-06	-1.331408e-08	-3.233047e+01	-8.741475e+02
3.100000e-07	-4.586422e-06	-1.325897e-08	-3.193284e+01	-8.699052e+02
3.200000e-07	-4.527543e-06	-1.321737e-08	-3.152289e+01	-8.657859e+02
3.300000e-07	-4.466983e-06	-1.320542e-08	-3.110124e+01	-8.618049e+02
3.400000e-07	-4.404961e-06	-1.310351e-08	-3.066941e+01	-8.579395e+02
3.500000e-07	-4.341482e-06	-1.301895e-08	-3.022745e+01	-8.541313e+02
3.600000e-07	-4.276430e-06	-1.295226e-08	-2.977452e+01	-8.502944e+02
3.700000e-07	-4.209719e-06	-1.286235e-08	-2.931005e+01	-8.463261e+02
3.800000e-07	-4.141385e-06	-1.281671e-08	-2.883428e+01	-8.421212e+02
3.900000e-07	-4.071520e-06	-1.273767e-08	-2.834784e+01	-8.375865e+02
4.000000e-07	-4.000356e-06	-1.265594e-08	-2.785236e+01	-8.326534e+02
4.100000e-07	-3.927986e-06	-1.258652e-08	-2.734849e+01	-8.272879e+02
4.200000e-07	-3.854159e-06	-1.250152e-08	-2.683447e+01	-8.214951e+02
4.300000e-07	-3.778595e-06	-1.240920e-08	-2.630836e+01	-8.153190e+02
4.400000e-07	-3.701402e-06	-1.230499e-08	-2.577091e+01	-8.088366e+02
4.500000e-07	-3.622809e-06	-1.223026e-08	-2.522370e+01	-8.021465e+02
4.600000e-07	-3.542706e-06	-1.214774e-08	-2.466599e+01	-7.953556e+02
4.700000e-07	-3.461176e-06	-1.205317e-08	-2.409834e+01	-7.885629e+02
4.800000e-07	-3.378432e-06	-1.195023e-08	-2.352224e+01	-7.818450e+02
4.900000e-07	-3.294559e-06	-1.183647e-08	-2.293827e+01	-7.752441e+02
5.000000e-07	-3.209677e-06	-1.174155e-08	-2.234729e+01	-7.687603e+02
5.100000e-07	-3.123848e-06	-1.163373e-08	-2.174970e+01	-7.623500e+02
5.200000e-07	-3.037051e-06	-1.152118e-08	-2.114538e+01	-7.559301e+02
5.300000e-07	-2.949336e-06	-1.140869e-08	-2.053467e+01	-7.493880e+02
5.400000e-07	-2.860633e-06	-1.129802e-08	-1.991708e+01	-7.425960e+02
5.500000e-07	-2.770810e-06	-1.118720e-08	-1.929169e+01	-7.354283e+02
5.600000e-07	-2.679891e-06	-1.106270e-08	-1.865866e+01	-7.277780e+02
5.700000e-07	-2.587902e-06	-1.093244e-08	-1.801819e+01	-7.195720e+02
5.800000e-07	-2.494956e-06	-1.079910e-08	-1.737106e+01	-7.107820e+02
5.900000e-07	-2.401208e-06	-1.067086e-08	-1.671834e+01	-7.014284e+02
6.000000e-07	-2.306690e-06	-1.053519e-08	-1.606027e+01	-6.915785e+02
6.100000e-07	-2.211403e-06	-1.039006e-08	-1.539683e+01	-6.813374e+02
6.200000e-07	-2.115390e-06	-1.024076e-08	-1.472834e+01	-6.708326e+02
6.300000e-07	-2.018543e-06	-1.009062e-08	-1.405405e+01	-6.601954e+02
6.400000e-07	-1.920842e-06	-9.942665e-09	-1.337381e+01	-6.495407e+02
6.500000e-07	-1.822403e-06	-9.784967e-09	-1.268843e+01	-6.389472e+02
6.600000e-07	-1.723256e-06	-9.616352e-09	-1.199812e+01	-6.284429e+02
6.700000e-07	-1.623459e-06	-9.443586e-09	-1.130328e+01	-6.179963e+02
6.800000e-07	-1.523039e-06	-9.271126e-09	-1.060412e+01	-6.075152e+02
6.900000e-07	-1.422039e-06	-9.090716e-09	-9.900907e+00	-5.968546e+02
7.000000e-07	-1.320593e-06	-8.901317e-09	-9.194594e+00	-5.858322e+02
7.100000e-07	-1.218757e-06	-8.706969e-09	-8.485562e+00	-5.742496e+02
7.200000e-07	-1.116513e-06	-8.510570e-09	-7.773691e+00	-5.619173e+02
7.300000e-07	-1.013878e-06	-8.310402e-09	-7.059094e+00	-5.486802e+02
7.400000e-07	-9.108816e-07	-8.099594e-09	-6.341988e+00	-5.344390e+02
7.500000e-07	-8.075984e-07	-7.877394e-09	-5.622881e+00	-5.191651e+02
7.600000e-07	-7.040510e-07	-7.644156e-09	-4.901935e+00	-5.029069e+02
7.700000e-07	-6.002653e-07	-7.404825e-09	-4.179330e+00	-4.857842e+02
7.800000e-07	-4.962931e-07	-7.156674e-09	-3.455427e+00	-4.679721e+02
7.900000e-07	-3.921714e-07	-6.898789e-09	-2.730483e+00	-4.496745e+02
8.000000e-07	-2.879437e-07	-6.634198e-09	-2.004800e+00	-4.310901e+02
8.100000e-07	-1.836230e-07	-6.360756e-09	-1.278470e+00	-4.123752e+02
8.200000e-07	-7.922666e-08	-6.071819e-09	-5.516134e-01	-3.936067e+02
8.300000e-07	2.520945e-08	-5.763329e-09	1.755201e-01	-3.747507e+02
8.400000e-07	1.296247e-07	-5.440510e-09	9.025085e-01	-3.556410e+02
8.500000e-07	2.339543e-07	-5.106147e-09	1.628900e+00	-3.359713e+02
8.600000e-07	3.381960e-07	-4.755839e-09	2.354680e+00	-3.153029e+02
8.700000e-07	4.423426e-07	-4.381647e-09	3.079797e+00	-2.930894e+02
8.800000e-07	5.463382e-07	-3.980426e-09	3.803864e+00	-2.687159e+02
8.900000e-07	6.501456e-07	-3.555679e-09	4.526621e+00	-2.415512e+02
9.000000e-07	7.537457e-07	-3.109697e-09	5.247933e+00	-2.110070e+02
9.100000e-07	8.571233e-07	-2.627269e-09	5.967697e+00	-1.766000e+02
9.200000e-07	9.602229e-07	-2.092659e-09	6.685525e+00	-1.380092e+02
9.300000e-07	1.062981e-06	-1.498937e-09	7.400978e+00	-9.512347e+01
9.400000e-07	1.165368e-06	-8.376058e-10	8.113843e+00	-4.807386e+01
9.500000e-07	1.267414e-06	-9.576989e-11	8.824332e+00	2.753774e+00
9.600000e-07	1.369098e-06	7.357342e-10	9.532304e+00	5.672723e+01
9.700000e-07	1.470296e-06	1.647340e-09	1.023690e+01	1.129979e+02
9.800000e-07	1.570981e-06	2.607169e-09	1.093791e+01	1.705497e+02
9.900000e-07	1.671111e-06	3.572568e-09	1.163506e+01	2.282638e+02
1.000000e-06	1.770596e-06	4.506408e-09	1.232772e+01	2.849921e+02
1.010000e-06	1.869437e-06	5.373898e-09	1.301591e+01	3.396339e+02
1.020000e-06	1.967490e-06	6.149884e-09	1.369859e+01	3.912091e+02
1.030000e-06	2.064646e-06	6.827424e-09	1.437504e+01	4.389198e+02
1.040000e-06	2.161031e-06	7.418040e-09	1.504612e+01	4.821970e+02
1.050000e-06	2.256696e-06	7.938414e-09	1.571218e+01	5.207269e+02
1.060000e-06	2.351589e-06	8.395643e-09	1.637287e+01	5.544557e+02
1.070000e-06	2.445702e-06	8.799878e-09	1.702813e+01	5.835728e+02
1.080000e-06	2.539048e-06	9.162436e-09	1.767805e+01	6.084753e+02
1.090000e-06	2.631610e-06	9.493940e-09	1.832251e+01	6.297180e+02
1.100000e-06	2.723309e-06	9.796988e-09	1.896096e+01	6.479529e+02
1.110000e-06	2.813932e-06	1.007097e-08	1.959192e+01	6.638665e+02
1.120000e-06	2.903307e-06	1.032289e-08	2.021419e+01	6.781197e+02
1.130000e-06	2.991578e-06	1.055697e-08	2.082878e+01	6.912960e+02
1.140000e-06	3.078874e-06	1.077317e-08	2.143657e+01	7.038628e+02
1.150000e-06	3.165143e-06	1.097168e-08	2.203722e+01	7.161487e+02
1.160000e-06	3.250368e-06	1.115665e-08	2.263060e+01	7.283366e+02
1.170000e-06	3.334573e-06	1.133188e-08	2.321687e+01	7.404739e+02
1.180000e-06	3.417703e-06	1.149958e-08	2.379566e+01	7.524952e+02
1.190000e-06	3.499542e-06	1.165896e-08	2.436546e+01	7.642548e+02
1.200000e-06	3.580080e-06	1.180835e-08	2.492620e+01	7.755646e+02
1.210000e-06	3.659343e-06	1.195091e-08	2.547807e+01	7.862321e+02
1.220000e-06	3.737305e-06	1.208838e-08	2.602088e+01	7.960942e+02
1.230000e-06	3.813906e-06	1.221501e-08	2.655421e+01	8.050431e+02
1.240000e-06	3.889004e-06	1.233026e-08	2.707708e+01	8.130423e+02
1.250000e-06	3.962495e-06	1.243945e-08	2.758876e+01	8.201313e+02
1.260000e-06	4.034495e-06	1.254540e-08	2.809006e+01	8.264185e+02
1.270000e-06	4.105164e-06	1.264749e-08	2.858209e+01	8.320662e+02
1.280000e-06	4.174440e-06	1.274466e-08	2.906442e+01	8.372682e+02
1.290000e-06	4.242290e-06	1.283802e-08	2.953683e+01	8.422246e+02
1.300000e-06	4.308530e-06	1.292751e-08	2.999802e+01	8.471170e+02
1.310000e-06	4.373101e-06	1.301278e-08	3.044759e+01	8.520873e+02
1.320000e-06	4.436196e-06	1.309443e-08	3.088689e+01	8.572225e+02
1.330000e-06	4.497904e-06	1.317252e-08	3.131653e+01	8.625483e+02
1.340000e-06	4.558212e-06	1.324771e-08	3.173642e+01	8.680301e+02
1.350000e-06	4.616836e-06	1.332093e-08	3.214459e+01	8.735820e+02
1.360000e-06	4.673623e-06	1.339145e-08	3.253996e+01	8.790830e+02
1.370000e-06	4.728731e-06	1.345723e-08	3.292365e+01	8.843954e+02
1.380000e-06	4.782155e-06	1.351964e-08	3.329562e+01	8.893858e+02
1.390000e-06	4.833648e-06	1.358064e-08	3.365414e+01	8.939439e+02
1.400000e-06	4.883067e-06	1.363871e-08	3.399822e+01	8.979970e+02
1.410000e-06	4.930629e-06	1.369407e-08	3.432936e+01	9.015189e+02
1.420000e-06	4.976543e-06	1.374612e-08	3.464904e+01	9.045324e+02
1.430000e-06	5.020848e-06	1.379624e-08	3.495751e+01	9.071041e+02
1.440000e-06	5.063233e-06	1.384373e-08	3.525262e+01	9.093344e+02
1.450000e-06	5.103656e-06	1.388652e-08	3.553406e+01	9.113425e+02
1.460000e-06	5.142431e-06	1.392516e-08	3.580403e+01	9.132494e+02
1.470000e-06	5.179577e-06	1.396103e-08	3.606266e+01	9.151622e+02
1.480000e-06	5.214871e-06	1.399526e-08	3.630839e+01	9.171593e+02
1.490000e-06	5.248146e-06	1.402699e-08	3.654007e+01	9.192816e+02
1.500000e-06	5.279602e-06	1.405672e-08	3.675908e+01	9.215283e+02
1.510000e-06	5.309403e-06	1.408748e-08	3.696657e+01	9.238587e+02
1.520000e-06	5.337507e-06	1.411748e-08	3.716224e+01	9.261996e+02
1.530000e-06	5.363559e-06	1.414379e-08	3.734363e+01	9.284571e+02
1.540000e-06	5.387501e-06	1.416565e-08	3.751032e+01	9.305309e+02
1.550000e-06	5.409635e-06	1.418485e-08	3.766443e+01	9.323288e+02
1.560000e-06	5.430054e-06	1.420261e-08	3.780660e+01	9.337799e+02
1.570000e-06	5.448605e-06	1.421630e-08	3.793576e+01	9.348449e+02
1.580000e-06	5.465101e-06	1.422809e-08	3.805061e+01	9.355208e+02
1.590000e-06	5.479593e-06	1.424088e-08	3.815151e+01	9.358415e+02
1.600000e-06	5.492062e-06	1.425583e-08	3.823832e+01	9.358718e+02
1.610000e-06	5.502273e-06	1.426953e-08	3.830942e+01	9.356991e+02
1.620000e-06	5.510367e-06	1.427777e-08	3.836578e+01	9.354198e+02
1.630000e-06	5.516682e-06	1.428379e-08	3.840974e+01	9.351265e+02
1.640000e-06	5.521155e-06	1.428827e-08	3.844089e+01	9.348951e+02
1.650000e-06	5.523530e-06	1.428932e-08	3.845742e+01	9.347742e+02
1.660000e-06	5.523900e-06	1.428689e-08	3.846000e+01	9.347791e+02
1.670000e-06	5.522558e-06	1.427697e-08	3.845065e+01	9.348900e+02
1.680000e-06	5.519598e-06	1.426969e-08	3.843004e+01	9.350558e+02
1.690000e-06	5.514765e-06	1.426659e-08	3.839639e+01	9.352013e+02
1.700000e-06	5.507961e-06	1.426185e-08	3.834902e+01	9.352387e+02
1.710000e-06	5.499480e-06	1.425481e-08	3.828998e+01	9.350802e+02
1.720000e-06	5.489302e-06	1.424820e-08	3.821911e+01	9.346507e+02
1.730000e-06	5.477087e-06	1.425365e-08	3.813407e+01	9.338986e+02
1.740000e-06	5.462834e-06	1.422895e-08	3.803483e+01	9.328030e+02
1.750000e-06	5.446645e-06	1.412462e-08	3.792211e+01	9.313767e+02
1.760000e-06	5.427985e-06	1.410599e-08	3.779219e+01	9.296646e+02
1.770000e-06	5.406519e-06	1.411675e-08	3.764274e+01	9.277369e+02
1.780000e-06	5.382866e-06	1.413474e-08	3.747805e+01	9.256794e+02
1.790000e-06	5.358091e-06	1.419484e-08	3.730556e+01	9.235810e+02
1.800000e-06	5.332591e-06	1.401363e-08	3.712802e+01	9.215210e+02
1.810000e-06	5.305352e-06	1.400789e-08	3.693836e+01	9.195575e+02
1.820000e-06	5.275729e-06	1.412166e-08	3.673211e+01	9.177188e+02
1.830000e-06	5.244505e-06	1.393239e-08	3.651472e+01	9.159990e+02
1.840000e-06	5.211542e-06	1.398865e-08	3.628521e+01	9.143583e+02
1.850000e-06	5.176653e-06	1.401230e-08	3.604230e+01	9.127279e+02
1.860000e-06	5.140087e-06	1.382708e-08	3.578771e+01	9.110193e+02
1.870000e-06	5.101411e-06	1.394993e-08	3.551843e+01	9.091359e+02
1.880000e-06	5.060984e-06	1.386905e-08	3.523696e+01	9.069869e+02
1.890000e-06	5.019068e-06	1.373990e-08	3.494512e+01	9.044994e+02
1.900000e-06	4.975243e-06	1.379030e-08	3.463999e+01	9.016284e+02
1.910000e-06	4.929632e-06	1.360953e-08	3.432242e+01	8.983639e+02
1.920000e-06	4.882137e-06	1.365324e-08	3.399174e+01	8.947320e+02
1.930000e-06	4.832809e-06	1.363453e-08	3.364830e+01	8.907916e+02
1.940000e-06	4.781822e-06	1.348217e-08	3.329330e+01	8.866267e+02
1.950000e-06	4.728697e-06	1.354136e-08	3.292342e+01	8.823350e+02
1.960000e-06	4.673659e-06	1.342142e-08	3.254022e+01	8.780141e+02
1.970000e-06	4.616973e-06	1.336328e-08	3.214554e+01	8.737479e+02
1.980000e-06	4.558711e-06	1.327490e-08	3.173990e+01	8.695952e+02
1.990000e-06	4.498952e-06	1.318608e-08	3.132383e+01	8.655805e+02
2.000000e-06	4.437389e-06	1.321634e-08	3.089519e+01	8.616905e+02
2.010000e-06	4.374214e-06	1.309144e-08	3.045534e+01	8.578754e+02
2.020000e-06	4.309503e-06	1.308795e-08	3.000479e+01	8.540551e+02
2.030000e-06	4.243328e-06	1.298111e-08	2.954405e+01	8.501298e+02
2.040000e-06	4.175697e-06	1.287488e-08	2.907317e+01	8.459937e+02
2.050000e-06	4.106284e-06	1.284665e-08	2.858989e+01	8.415493e+02
2.060000e-06	4.035346e-06	1.269918e-08	2.809598e+01	8.367206e+02
2.070000e-06	3.963068e-06	1.266615e-08	2.759275e+01	8.314645e+02
2.080000e-06	3.889374e-06	1.256282e-08	2.707965e+01	8.257760e+02
2.090000e-06	3.814092e-06	1.250657e-08	2.655551e+01	8.196900e+02
2.100000e-06	3.737101e-06	1.243310e-08	2.601946e+01	8.132757e+02
2.110000e-06	3.658638e-06	1.230190e-08	2.547317e+01	8.066278e+02
2.120000e-06	3.578925e-06	1.223395e-08	2.491816e+01	7.998524e+02
2.130000e-06	3.498056e-06	1.211446e-08	2.435511e+01	7.930520e+02
2.140000e-06	3.416050e-06	1.204849e-08	2.378415e+01	7.863102e+02
2.150000e-06	3.332928e-06	1.193283e-08	2.320541e+01	7.796785e+02
2.160000e-06	3.248508e-06	1.182504e-08	2.261765e+01	7.731681e+02
2.170000e-06	3.162748e-06	1.172566e-08	2.202054e+01	7.667460e+02
2.180000e-06	3.075838e-06	1.160526e-08	2.141543e+01	7.603383e+02
2.190000e-06	2.987872e-06	1.150663e-08	2.080298e+01	7.538386e+02
2.200000e-06	2.898935e-06	1.137799e-08	2.018375e+01	7.471214e+02
2.210000e-06	2.809102e-06	1.126751e-08	1.955830e+01	7.400589e+02
2.220000e-06	2.718386e-06	1.114862e-08	1.892669e+01	7.325379e+02
2.230000e-06	2.626688e-06	1.103019e-08	1.828824e+01	7.244756e+02
2.240000e-06	2.533983e-06	1.089302e-08	1.764278e+01	7.158318e+02
2.250000e-06	2.440282e-06	1.074913e-08	1.699040e+01	7.066147e+02
2.260000e-06	2.345621e-06	1.061090e-08	1.633132e+01	6.968805e+02
2.270000e-06	2.250114e-06	1.047302e-08	1.566635e+01	6.867260e+02
2.280000e-06	2.153878e-06	1.033694e-08	1.499631e+01	6.762748e+02
2.290000e-06	2.056951e-06	1.018779e-08	1.432146e+01	6.656592e+02
2.300000e-06	1.959324e-06	1.004136e-08	1.364174e+01	6.549999e+02
2.310000e-06	1.861173e-06	9.886273e-09	1.295837e+01	6.443865e+02
2.320000e-06	1.762513e-06	9.724670e-09	1.227145e+01	6.338607e+02
2.330000e-06	1.663217e-06	9.545153e-09	1.158010e+01	6.234062e+02
2.340000e-06	1.563338e-06	9.365346e-09	1.088470e+01	6.129456e+02
2.350000e-06	1.462884e-06	9.189318e-09	1.018529e+01	6.023461e+02
2.360000e-06	1.361818e-06	9.006413e-09	9.481621e+00	5.914328e+02
2.370000e-06	1.260164e-06	8.818593e-09	8.773857e+00	5.800089e+02
2.380000e-06	1.157976e-06	8.620731e-09	8.062378e+00	5.678806e+02
2.390000e-06	1.055323e-06	8.421874e-09	7.347659e+00	5.548818e+02
2.400000e-06	9.522709e-07	8.211599e-09	6.630159e+00	5.408973e+02
2.410000e-06	8.488183e-07	7.987465e-09	5.909873e+00	5.258803e+02
2.420000e-06	7.450378e-07	7.754717e-09	5.187305e+00	5.098597e+02
2.430000e-06	6.410810e-07	7.515835e-09	4.463508e+00	4.929387e+02
2.440000e-06	5.369078e-07	7.272408e-09	3.738205e+00	4.752807e+02
2.450000e-06	4.325596e-07	7.020619e-09	3.011684e+00	4.570852e+02
2.460000e-06	3.281114e-07	6.756103e-09	2.284467e+00	4.385557e+02
2.470000e-06	2.235549e-07	6.481769e-09	1.556495e+00	4.198628e+02
2.480000e-06	1.189496e-07	6.196951e-09	8.281831e-01	4.011063e+02
2.490000e-06	1.429819e-08	5.895988e-09	9.955072e-02	3.822826e+02
2.500000e-06	-9.036835e-08	5.576096e-09	-6.291871e-01	3.632597e+02
2.510000e-06	-1.950064e-07	5.240786e-09	-1.357726e+00	3.437664e+02
2.520000e-06	-2.995328e-07	4.894154e-09	-2.085489e+00	3.233955e+02
2.530000e-06	-4.039165e-07	4.531129e-09	-2.812257e+00	3.016242e+02
2.540000e-06	-5.082179e-07	4.145137e-09	-3.538452e+00	2.778505e+02
2.550000e-06	-6.123329e-07	3.733388e-09	-4.263351e+00	2.514416e+02
2.560000e-06	-7.161753e-07	3.295453e-09	-4.986350e+00	2.217930e+02
2.570000e-06	-8.197937e-07	2.823440e-09	-5.707791e+00	1.883893e+02
2.580000e-06	-9.230815e-07	2.304744e-09	-6.426929e+00	1.508639e+02
2.590000e-06	-1.025965e-06	1.731749e-09	-7.143255e+00	1.090497e+02
2.600000e-06	-1.128458e-06	1.097115e-09	-7.856857e+00	6.301503e+01
2.610000e-06	-1.230512e-06	3.868760e-10	-8.567401e+00	1.308211e+01
2.620000e-06	-1.332050e-06	-4.110497e-10	-9.274364e+00	-4.017650e+01
2.630000e-06	-1.433046e-06	-1.296062e-09	-9.977541e+00	-9.596233e+01
2.640000e-06	-1.533511e-06	-2.245380e-09	-1.067703e+01	-1.532958e+02
2.650000e-06	-1.633311e-06	-3.218992e-09	-1.137188e+01	-2.110769e+02
2.660000e-06	-1.732403e-06	-4.170874e-09	-1.206181e+01	-2.681578e+02
2.670000e-06	-1.830922e-06	-5.064067e-09	-1.274774e+01	-3.234188e+02
2.680000e-06	-1.928883e-06	-5.875327e-09	-1.342980e+01	-3.758432e+02
2.690000e-06	-2.026206e-06	-6.592088e-09	-1.410740e+01	-4.245827e+02
2.700000e-06	-2.122850e-06	-7.220374e-09	-1.478028e+01	-4.690078e+02
2.710000e-06	-2.218812e-06	-7.770775e-09	-1.544841e+01	-5.087394e+02
2.720000e-06	-2.314120e-06	-8.252256e-09	-1.611199e+01	-5.436595e+02
2.730000e-06	-2.408771e-06	-8.676883e-09	-1.677100e+01	-5.738994e+02
2.740000e-06	-2.502657e-06	-9.053300e-09	-1.742468e+01	-5.998086e+02
2.750000e-06	-2.595498e-06	-9.390513e-09	-1.807108e+01	-6.219076e+02
2.760000e-06	-2.687127e-06	-9.699439e-09	-1.870905e+01	-6.408302e+02
2.770000e-06	-2.777705e-06	-9.987072e-09	-1.933970e+01	-6.572600e+02
2.780000e-06	-2.867286e-06	-1.025237e-08	-1.996340e+01	-6.718696e+02
2.790000e-06	-2.955840e-06	-1.049582e-08	-2.057995e+01	-6.852660e+02
2.800000e-06	-3.043410e-06	-1.071926e-08	-2.118966e+01	-6.979485e+02
2.810000e-06	-3.129992e-06	-1.092371e-08	-2.179248e+01	-7.102816e+02
2.820000e-06	-3.215495e-06	-1.111302e-08	-2.238780e+01	-7.224844e+02
2.830000e-06	-3.299681e-06	-1.129163e-08	-2.297394e+01	-7.346364e+02
2.840000e-06	-3.382600e-06	-1.146129e-08	-2.355126e+01	-7.466976e+02
2.850000e-06	-3.464441e-06	-1.162144e-08	-2.412107e+01	-7.585391e+02
2.860000e-06	-3.545169e-06	-1.177439e-08	-2.468314e+01	-7.699796e+02
2.870000e-06	-3.624707e-06	-1.192051e-08	-2.523692e+01	-7.808245e+02
2.880000e-06	-3.702918e-06	-1.205719e-08	-2.578146e+01	-7.909003e+02
2.890000e-06	-3.779551e-06	-1.218362e-08	-2.631502e+01	-8.000836e+02
2.900000e-06	-3.854597e-06	-1.230264e-08	-2.683752e+01	-8.083194e+02
2.910000e-06	-3.928248e-06	-1.241566e-08	-2.735032e+01	-8.156280e+02
2.920000e-06	-4.000559e-06	-1.252263e-08	-2.785378e+01	-8.221020e+02
2.930000e-06	-4.071563e-06	-1.262440e-08	-2.834814e+01	-8.278920e+02
2.940000e-06	-4.141076e-06	-1.272374e-08	-2.883213e+01	-8.331863e+02
