# Temperatura_=_53.74
# Concentracion g/m^3_=_15500.0
# C_Vs_to_Am_M_A/Vsm_=_65563218390.804596
# pendiente_HvsI_1/m_=_3716.3
# ordenada_HvsI_A/m_=_1297.0
# frecuencia_Hz_=_300800.678642758

Tiempo_(s)	Campo_(V.s)	Magnetizacion_(V.s)	Campo_(kA/m)	Magnetizacion_(A/m)
0.000000e+00	-5.504545e-06	-1.423594e-08	-3.830935e+01	-9.327454e+02
1.000000e-08	-5.502719e-06	-1.423339e-08	-3.829664e+01	-9.328817e+02
2.000000e-08	-5.498922e-06	-1.422599e-08	-3.827021e+01	-9.330519e+02
3.000000e-08	-5.493412e-06	-1.421989e-08	-3.823187e+01	-9.331753e+02
4.000000e-08	-5.486304e-06	-1.421139e-08	-3.818240e+01	-9.331624e+02
5.000000e-08	-5.477580e-06	-1.419752e-08	-3.812168e+01	-9.329287e+02
6.000000e-08	-5.466870e-06	-1.418121e-08	-3.804715e+01	-9.324058e+02
7.000000e-08	-5.454038e-06	-1.415901e-08	-3.795784e+01	-9.315523e+02
8.000000e-08	-5.439162e-06	-1.415073e-08	-3.785431e+01	-9.303591e+02
9.000000e-08	-5.421900e-06	-1.418304e-08	-3.773418e+01	-9.288509e+02
1.000000e-07	-5.402329e-06	-1.416767e-08	-3.759797e+01	-9.270826e+02
1.100000e-07	-5.380804e-06	-1.411515e-08	-3.744817e+01	-9.251315e+02
1.200000e-07	-5.357496e-06	-1.408228e-08	-3.728595e+01	-9.230862e+02
1.300000e-07	-5.332755e-06	-1.400335e-08	-3.711377e+01	-9.210338e+02
1.400000e-07	-5.306526e-06	-1.399693e-08	-3.693122e+01	-9.190472e+02
1.500000e-07	-5.278449e-06	-1.402985e-08	-3.673581e+01	-9.171746e+02
1.600000e-07	-5.248686e-06	-1.392714e-08	-3.652868e+01	-9.154318e+02
1.700000e-07	-5.217319e-06	-1.393958e-08	-3.631038e+01	-9.137998e+02
1.800000e-07	-5.183921e-06	-1.396838e-08	-3.607794e+01	-9.122265e+02
1.900000e-07	-5.148457e-06	-1.386093e-08	-3.583113e+01	-9.106335e+02
2.000000e-07	-5.111488e-06	-1.386600e-08	-3.557384e+01	-9.089264e+02
2.100000e-07	-5.072870e-06	-1.379900e-08	-3.530507e+01	-9.070080e+02
2.200000e-07	-5.032408e-06	-1.369480e-08	-3.502347e+01	-9.047909e+02
2.300000e-07	-4.989990e-06	-1.371805e-08	-3.472826e+01	-9.022104e+02
2.400000e-07	-4.945554e-06	-1.367807e-08	-3.441900e+01	-8.992326e+02
2.500000e-07	-4.899400e-06	-1.363776e-08	-3.409779e+01	-8.958602e+02
2.600000e-07	-4.851444e-06	-1.360405e-08	-3.376404e+01	-8.921318e+02
2.700000e-07	-4.801484e-06	-1.352603e-08	-3.341634e+01	-8.881169e+02
2.800000e-07	-4.749447e-06	-1.348219e-08	-3.305418e+01	-8.839064e+02
2.900000e-07	-4.695488e-06	-1.340653e-08	-3.267865e+01	-8.796003e+02
3.000000e-07	-4.639849e-06	-1.333471e-08	-3.229143e+01	-8.752936e+02
3.100000e-07	-4.582538e-06	-1.327935e-08	-3.189256e+01	-8.710630e+02
3.200000e-07	-4.523358e-06	-1.324790e-08	-3.148070e+01	-8.669558e+02
3.300000e-07	-4.462546e-06	-1.321648e-08	-3.105747e+01	-8.629830e+02
3.400000e-07	-4.400313e-06	-1.312184e-08	-3.062435e+01	-8.591172e+02
3.500000e-07	-4.336617e-06	-1.305565e-08	-3.018105e+01	-8.552957e+02
3.600000e-07	-4.271430e-06	-1.297186e-08	-2.972738e+01	-8.514286e+02
3.700000e-07	-4.204548e-06	-1.289255e-08	-2.926191e+01	-8.474109e+02
3.800000e-07	-4.136005e-06	-1.283867e-08	-2.878488e+01	-8.431370e+02
3.900000e-07	-4.066037e-06	-1.274875e-08	-2.829793e+01	-8.385146e+02
4.000000e-07	-3.994770e-06	-1.267761e-08	-2.780194e+01	-8.334780e+02
4.100000e-07	-3.922217e-06	-1.260000e-08	-2.729700e+01	-8.279974e+02
4.200000e-07	-3.848177e-06	-1.251662e-08	-2.678171e+01	-8.220832e+02
4.300000e-07	-3.772407e-06	-1.242225e-08	-2.625439e+01	-8.157847e+02
4.400000e-07	-3.694999e-06	-1.232522e-08	-2.571566e+01	-8.091838e+02
4.500000e-07	-3.616142e-06	-1.224836e-08	-2.516685e+01	-8.023834e+02
4.600000e-07	-3.535811e-06	-1.215708e-08	-2.460778e+01	-7.954928e+02
4.700000e-07	-3.454054e-06	-1.206104e-08	-2.403878e+01	-7.886118e+02
4.800000e-07	-3.371100e-06	-1.195208e-08	-2.346145e+01	-7.818163e+02
4.900000e-07	-3.287068e-06	-1.184686e-08	-2.287663e+01	-7.751457e+02
5.000000e-07	-3.202065e-06	-1.174755e-08	-2.228504e+01	-7.685967e+02
5.100000e-07	-3.116093e-06	-1.163304e-08	-2.168671e+01	-7.621211e+02
5.200000e-07	-3.029161e-06	-1.151985e-08	-2.108170e+01	-7.556319e+02
5.300000e-07	-2.941299e-06	-1.141071e-08	-2.047022e+01	-7.490129e+02
5.400000e-07	-2.852484e-06	-1.130305e-08	-1.985210e+01	-7.421344e+02
5.500000e-07	-2.762599e-06	-1.118698e-08	-1.922655e+01	-7.348701e+02
5.600000e-07	-2.671489e-06	-1.105778e-08	-1.859245e+01	-7.271144e+02
5.700000e-07	-2.579320e-06	-1.092104e-08	-1.795100e+01	-7.187973e+02
5.800000e-07	-2.486290e-06	-1.078571e-08	-1.730355e+01	-7.098947e+02
5.900000e-07	-2.392467e-06	-1.065501e-08	-1.665058e+01	-7.004322e+02
6.000000e-07	-2.297876e-06	-1.051728e-08	-1.599226e+01	-6.904822e+02
6.100000e-07	-2.202500e-06	-1.037461e-08	-1.532849e+01	-6.801541e+02
6.200000e-07	-2.106349e-06	-1.023271e-08	-1.465932e+01	-6.695785e+02
6.300000e-07	-2.009440e-06	-1.008689e-08	-1.398487e+01	-6.588878e+02
6.400000e-07	-1.911760e-06	-9.932560e-09	-1.330506e+01	-6.481958e+02
6.500000e-07	-1.813228e-06	-9.764415e-09	-1.261931e+01	-6.375784e+02
6.600000e-07	-1.713856e-06	-9.591683e-09	-1.192773e+01	-6.270588e+02
6.700000e-07	-1.613803e-06	-9.420460e-09	-1.123140e+01	-6.165995e+02
6.800000e-07	-1.513226e-06	-9.244643e-09	-1.053142e+01	-6.061026e+02
6.900000e-07	-1.412172e-06	-9.060819e-09	-9.828130e+00	-5.954176e+02
7.000000e-07	-1.310640e-06	-8.875576e-09	-9.121511e+00	-5.843583e+02
7.100000e-07	-1.208706e-06	-8.688598e-09	-8.412090e+00	-5.727247e+02
7.200000e-07	-1.106386e-06	-8.491304e-09	-7.699990e+00	-5.603283e+02
7.300000e-07	-1.003684e-06	-8.283545e-09	-6.985224e+00	-5.470176e+02
7.400000e-07	-9.006426e-07	-8.067396e-09	-6.268099e+00	-5.326992e+02
7.500000e-07	-7.972656e-07	-7.846704e-09	-5.548638e+00	-5.173522e+02
7.600000e-07	-6.935921e-07	-7.616847e-09	-4.827113e+00	-5.010331e+02
7.700000e-07	-5.897211e-07	-7.377099e-09	-4.104214e+00	-4.838692e+02
7.800000e-07	-4.856989e-07	-7.127796e-09	-3.380263e+00	-4.660413e+02
7.900000e-07	-3.815366e-07	-6.870921e-09	-2.655337e+00	-4.477555e+02
8.000000e-07	-2.772907e-07	-6.607776e-09	-1.929829e+00	-4.292092e+02
8.100000e-07	-1.730153e-07	-6.330689e-09	-1.204115e+00	-4.105525e+02
8.200000e-07	-6.863847e-08	-6.037170e-09	-4.776953e-01	-3.918518e+02
8.300000e-07	3.585138e-08	-5.730718e-09	2.495108e-01	-3.730587e+02
8.400000e-07	1.403293e-07	-5.413983e-09	9.766336e-01	-3.539898e+02
8.500000e-07	2.446727e-07	-5.080635e-09	1.702821e+00	-3.343204e+02
8.600000e-07	3.488975e-07	-4.724624e-09	2.428182e+00	-3.135943e+02
8.700000e-07	4.530690e-07	-4.345043e-09	3.153173e+00	-2.912500e+02
8.800000e-07	5.571016e-07	-3.943757e-09	3.877196e+00	-2.666625e+02
8.900000e-07	6.609969e-07	-3.520677e-09	4.600264e+00	-2.391963e+02
9.000000e-07	7.647087e-07	-3.068439e-09	5.322055e+00	-2.082664e+02
9.100000e-07	8.680957e-07	-2.576548e-09	6.041586e+00	-1.734004e+02
9.200000e-07	9.711324e-07	-2.036939e-09	6.758678e+00	-1.342956e+02
9.300000e-07	1.073846e-06	-1.438610e-09	7.473526e+00	-9.086546e+01
9.400000e-07	1.176220e-06	-7.680250e-10	8.186002e+00	-4.327019e+01
9.500000e-07	1.278221e-06	-1.256961e-11	8.895889e+00	8.072858e+00
9.600000e-07	1.379827e-06	8.320455e-10	9.603023e+00	6.250026e+01
9.700000e-07	1.480979e-06	1.752341e-09	1.030700e+01	1.191351e+02
9.800000e-07	1.581631e-06	2.718993e-09	1.100749e+01	1.769384e+02
9.900000e-07	1.681703e-06	3.687951e-09	1.170395e+01	2.347759e+02
1.000000e-06	1.781181e-06	4.616328e-09	1.239628e+01	2.914925e+02
1.010000e-06	1.880031e-06	5.471540e-09	1.308424e+01	3.459905e+02
1.020000e-06	1.978117e-06	6.233125e-09	1.376687e+01	3.973014e+02
1.030000e-06	2.075292e-06	6.899638e-09	1.444317e+01	4.446472e+02
1.040000e-06	2.171585e-06	7.481630e-09	1.511333e+01	4.874851e+02
1.050000e-06	2.267158e-06	7.994067e-09	1.577848e+01	5.255315e+02
1.060000e-06	2.362031e-06	8.446179e-09	1.643875e+01	5.587641e+02
1.070000e-06	2.456164e-06	8.846908e-09	1.709388e+01	5.874026e+02
1.080000e-06	2.549535e-06	9.205290e-09	1.774370e+01	6.118710e+02
1.090000e-06	2.642031e-06	9.531154e-09	1.838744e+01	6.327449e+02
1.100000e-06	2.733564e-06	9.829660e-09	1.902447e+01	6.506902e+02
1.110000e-06	2.824030e-06	1.010137e-08	1.965408e+01	6.663999e+02
1.120000e-06	2.913298e-06	1.035182e-08	2.027534e+01	6.805334e+02
1.130000e-06	3.001484e-06	1.058527e-08	2.088909e+01	6.936664e+02
1.140000e-06	3.088765e-06	1.080239e-08	2.149652e+01	7.062530e+02
1.150000e-06	3.175061e-06	1.100171e-08	2.209711e+01	7.186049e+02
1.160000e-06	3.260283e-06	1.118633e-08	2.269022e+01	7.308870e+02
1.170000e-06	3.344417e-06	1.136125e-08	2.327575e+01	7.431288e+02
1.180000e-06	3.427390e-06	1.152994e-08	2.385322e+01	7.552493e+02
1.190000e-06	3.509104e-06	1.169041e-08	2.442191e+01	7.670909e+02
1.200000e-06	3.589548e-06	1.184103e-08	2.498176e+01	7.784581e+02
1.210000e-06	3.668735e-06	1.198459e-08	2.553287e+01	7.891550e+02
1.220000e-06	3.746605e-06	1.212237e-08	2.607482e+01	7.990199e+02
1.230000e-06	3.823061e-06	1.224899e-08	2.660692e+01	8.079498e+02
1.240000e-06	3.898017e-06	1.236451e-08	2.712858e+01	8.159150e+02
1.250000e-06	3.971385e-06	1.247490e-08	2.763919e+01	8.229630e+02
1.260000e-06	4.043263e-06	1.258089e-08	2.813943e+01	8.292100e+02
1.270000e-06	4.113836e-06	1.268279e-08	2.863059e+01	8.348246e+02
1.280000e-06	4.183027e-06	1.277995e-08	2.911213e+01	8.400045e+02
1.290000e-06	4.250744e-06	1.287309e-08	2.958342e+01	8.449512e+02
1.300000e-06	4.316849e-06	1.296377e-08	3.004348e+01	8.498446e+02
1.310000e-06	4.381341e-06	1.305147e-08	3.049232e+01	8.548228e+02
1.320000e-06	4.444360e-06	1.313412e-08	3.093090e+01	8.599671e+02
1.330000e-06	4.505935e-06	1.321057e-08	3.135944e+01	8.652966e+02
1.340000e-06	4.566056e-06	1.328239e-08	3.177786e+01	8.707703e+02
1.350000e-06	4.624545e-06	1.335233e-08	3.218491e+01	8.762970e+02
1.360000e-06	4.681196e-06	1.342169e-08	3.257918e+01	8.817521e+02
1.370000e-06	4.736146e-06	1.348898e-08	3.296161e+01	8.869968e+02
1.380000e-06	4.789373e-06	1.355364e-08	3.333205e+01	8.918989e+02
1.390000e-06	4.840563e-06	1.361448e-08	3.368831e+01	8.963517e+02
1.400000e-06	4.889732e-06	1.367007e-08	3.403050e+01	9.002879e+02
1.410000e-06	4.937153e-06	1.372148e-08	3.436054e+01	9.036880e+02
1.420000e-06	4.982964e-06	1.376833e-08	3.467937e+01	9.065815e+02
1.430000e-06	5.027119e-06	1.381458e-08	3.498667e+01	9.090415e+02
1.440000e-06	5.069379e-06	1.386148e-08	3.528077e+01	9.111732e+02
1.450000e-06	5.109715e-06	1.390579e-08	3.556150e+01	9.130991e+02
1.460000e-06	5.148372e-06	1.394639e-08	3.583053e+01	9.149415e+02
1.470000e-06	5.185397e-06	1.398518e-08	3.608821e+01	9.168061e+02
1.480000e-06	5.220603e-06	1.402225e-08	3.633323e+01	9.187687e+02
1.490000e-06	5.253830e-06	1.405501e-08	3.656448e+01	9.208659e+02
1.500000e-06	5.285232e-06	1.408259e-08	3.678302e+01	9.230921e+02
1.510000e-06	5.314938e-06	1.410745e-08	3.698976e+01	9.254017e+02
1.520000e-06	5.342777e-06	1.413282e-08	3.718351e+01	9.277176e+02
1.530000e-06	5.368530e-06	1.415842e-08	3.736274e+01	9.299431e+02
1.540000e-06	5.392282e-06	1.418201e-08	3.752804e+01	9.319768e+02
1.550000e-06	5.414273e-06	1.420184e-08	3.768110e+01	9.337270e+02
1.560000e-06	5.434551e-06	1.422075e-08	3.782222e+01	9.351251e+02
1.570000e-06	5.452902e-06	1.423982e-08	3.794994e+01	9.361349e+02
1.580000e-06	5.469163e-06	1.425509e-08	3.806310e+01	9.367575e+02
1.590000e-06	5.483461e-06	1.426473e-08	3.816262e+01	9.370305e+02
1.600000e-06	5.495665e-06	1.427309e-08	3.824755e+01	9.370224e+02
1.610000e-06	5.505584e-06	1.428351e-08	3.831658e+01	9.368224e+02
1.620000e-06	5.513487e-06	1.429439e-08	3.837158e+01	9.365279e+02
1.630000e-06	5.519607e-06	1.430208e-08	3.841418e+01	9.362307e+02
1.640000e-06	5.523850e-06	1.430582e-08	3.844371e+01	9.360042e+02
1.650000e-06	5.526016e-06	1.430875e-08	3.845878e+01	9.358938e+02
1.660000e-06	5.526192e-06	1.430809e-08	3.846000e+01	9.359107e+02
1.670000e-06	5.524649e-06	1.429916e-08	3.844927e+01	9.360312e+02
1.680000e-06	5.521479e-06	1.429379e-08	3.842721e+01	9.362007e+02
1.690000e-06	5.516393e-06	1.429041e-08	3.839181e+01	9.363418e+02
1.700000e-06	5.509350e-06	1.428498e-08	3.834279e+01	9.363659e+02
1.710000e-06	5.500658e-06	1.427751e-08	3.828230e+01	9.361862e+02
1.720000e-06	5.490266e-06	1.427006e-08	3.820998e+01	9.357301e+02
1.730000e-06	5.477860e-06	1.427199e-08	3.812363e+01	9.349497e+02
1.740000e-06	5.463482e-06	1.422191e-08	3.802357e+01	9.338286e+02
1.750000e-06	5.447125e-06	1.415371e-08	3.790973e+01	9.323845e+02
1.760000e-06	5.428184e-06	1.415491e-08	3.777791e+01	9.306663e+02
1.770000e-06	5.406458e-06	1.415165e-08	3.762671e+01	9.287473e+02
1.780000e-06	5.382633e-06	1.419146e-08	3.746090e+01	9.267149e+02
1.790000e-06	5.357771e-06	1.417172e-08	3.728786e+01	9.246575e+02
1.800000e-06	5.332164e-06	1.403773e-08	3.710965e+01	9.226520e+02
1.810000e-06	5.304681e-06	1.410079e-08	3.691838e+01	9.207528e+02
1.820000e-06	5.274829e-06	1.408989e-08	3.671062e+01	9.189829e+02
1.830000e-06	5.243389e-06	1.398078e-08	3.649181e+01	9.173307e+02
1.840000e-06	5.210164e-06	1.406995e-08	3.626058e+01	9.157510e+02
1.850000e-06	5.175157e-06	1.397365e-08	3.601695e+01	9.141700e+02
1.860000e-06	5.138487e-06	1.389085e-08	3.576174e+01	9.124960e+02
1.870000e-06	5.099639e-06	1.398767e-08	3.549137e+01	9.106310e+02
1.880000e-06	5.059029e-06	1.384444e-08	3.520874e+01	9.084846e+02
1.890000e-06	5.016868e-06	1.381083e-08	3.491532e+01	9.059862e+02
1.900000e-06	4.972795e-06	1.379362e-08	3.460859e+01	9.030949e+02
1.910000e-06	4.926966e-06	1.364540e-08	3.428964e+01	8.998053e+02
1.920000e-06	4.879271e-06	1.370155e-08	3.395770e+01	8.961485e+02
1.930000e-06	4.829770e-06	1.360134e-08	3.361320e+01	8.921881e+02
1.940000e-06	4.778569e-06	1.354189e-08	3.325686e+01	8.880115e+02
1.950000e-06	4.725210e-06	1.356158e-08	3.288550e+01	8.837178e+02
1.960000e-06	4.669984e-06	1.343522e-08	3.250115e+01	8.794043e+02
1.970000e-06	4.613115e-06	1.339980e-08	3.210536e+01	8.751525e+02
1.980000e-06	4.554686e-06	1.328064e-08	3.169872e+01	8.710169e+02
1.990000e-06	4.494718e-06	1.324023e-08	3.128137e+01	8.670166e+02
2.000000e-06	4.432902e-06	1.321275e-08	3.085116e+01	8.631323e+02
2.010000e-06	4.369467e-06	1.311046e-08	3.040968e+01	8.593084e+02
2.020000e-06	4.304535e-06	1.310769e-08	2.995778e+01	8.554598e+02
2.030000e-06	4.238155e-06	1.297641e-08	2.949580e+01	8.514838e+02
2.040000e-06	4.170266e-06	1.292193e-08	2.902332e+01	8.472735e+02
2.050000e-06	4.100590e-06	1.284784e-08	2.853840e+01	8.427327e+02
2.060000e-06	4.029400e-06	1.272361e-08	2.804295e+01	8.377890e+02
2.070000e-06	3.956908e-06	1.267916e-08	2.753844e+01	8.324043e+02
2.080000e-06	3.883079e-06	1.256683e-08	2.702462e+01	8.265804e+02
2.090000e-06	3.807670e-06	1.252879e-08	2.649980e+01	8.203585e+02
2.100000e-06	3.730468e-06	1.242229e-08	2.596251e+01	8.138146e+02
2.110000e-06	3.651789e-06	1.231454e-08	2.541493e+01	8.070480e+02
2.120000e-06	3.571928e-06	1.223472e-08	2.485914e+01	8.001680e+02
2.130000e-06	3.490944e-06	1.212406e-08	2.429552e+01	7.932779e+02
2.140000e-06	3.408806e-06	1.204744e-08	2.372387e+01	7.864596e+02
2.150000e-06	3.325576e-06	1.191884e-08	2.314463e+01	7.797613e+02
2.160000e-06	3.241075e-06	1.182725e-08	2.255654e+01	7.731890e+02
2.170000e-06	3.155128e-06	1.171865e-08	2.195838e+01	7.667041e+02
2.180000e-06	3.068010e-06	1.160909e-08	2.135208e+01	7.602271e+02
2.190000e-06	2.979932e-06	1.149895e-08	2.073909e+01	7.536469e+02
2.200000e-06	2.890912e-06	1.137127e-08	2.011955e+01	7.468353e+02
2.210000e-06	2.800942e-06	1.125901e-08	1.949339e+01	7.396638e+02
2.220000e-06	2.710106e-06	1.113568e-08	1.886122e+01	7.320209e+02
2.230000e-06	2.618389e-06	1.101828e-08	1.822290e+01	7.238281e+02
2.240000e-06	2.525655e-06	1.087669e-08	1.757751e+01	7.150508e+02
2.250000e-06	2.431832e-06	1.074126e-08	1.692454e+01	7.057040e+02
2.260000e-06	2.337035e-06	1.060192e-08	1.626479e+01	6.958506e+02
2.270000e-06	2.241486e-06	1.046380e-08	1.559981e+01	6.855932e+02
2.280000e-06	2.145197e-06	1.031965e-08	1.492968e+01	6.750595e+02
2.290000e-06	2.048176e-06	1.016688e-08	1.425446e+01	6.643832e+02
2.300000e-06	1.950488e-06	1.002103e-08	1.357458e+01	6.536839e+02
2.310000e-06	1.852202e-06	9.865603e-09	1.289056e+01	6.430468e+02
2.320000e-06	1.753407e-06	9.705114e-09	1.220298e+01	6.325075e+02
2.330000e-06	1.654081e-06	9.527519e-09	1.151171e+01	6.220418e+02
2.340000e-06	1.554152e-06	9.353190e-09	1.081626e+01	6.115643e+02
2.350000e-06	1.453533e-06	9.173855e-09	1.011599e+01	6.009347e+02
2.360000e-06	1.352242e-06	8.985498e-09	9.411045e+00	5.899726e+02
2.370000e-06	1.250371e-06	8.792327e-09	8.702066e+00	5.784790e+02
2.380000e-06	1.148016e-06	8.594473e-09	7.989713e+00	5.662607e+02
2.390000e-06	1.045255e-06	8.397392e-09	7.274541e+00	5.531564e+02
2.400000e-06	9.421224e-07	8.188598e-09	6.556781e+00	5.390585e+02
2.410000e-06	8.386508e-07	7.965867e-09	5.836662e+00	5.239300e+02
2.420000e-06	7.348813e-07	7.731660e-09	5.114469e+00	5.078110e+02
2.430000e-06	6.308882e-07	7.491732e-09	4.390720e+00	4.908147e+02
2.440000e-06	5.267071e-07	7.248003e-09	3.665663e+00	4.731124e+02
2.450000e-06	4.223272e-07	6.996683e-09	2.939222e+00	4.549075e+02
2.460000e-06	3.178001e-07	6.731517e-09	2.211756e+00	4.364025e+02
2.470000e-06	2.131857e-07	6.455499e-09	1.483684e+00	4.177608e+02
2.480000e-06	1.085357e-07	6.169574e-09	7.553634e-01	3.990695e+02
2.490000e-06	3.895710e-09	5.869138e-09	2.711252e-02	3.803071e+02
2.500000e-06	-1.007594e-07	5.549018e-09	-7.012439e-01	3.613201e+02
2.510000e-06	-2.053879e-07	5.212671e-09	-1.429414e+00	3.418139e+02
2.520000e-06	-3.099378e-07	4.863452e-09	-2.157039e+00	3.213587e+02
2.530000e-06	-4.144003e-07	4.497192e-09	-2.884054e+00	2.994127e+02
2.540000e-06	-5.187184e-07	4.108638e-09	-3.610065e+00	2.753602e+02
2.550000e-06	-6.228624e-07	3.692385e-09	-4.334864e+00	2.485630e+02
2.560000e-06	-7.268337e-07	3.247093e-09	-5.058461e+00	2.184202e+02
2.570000e-06	-8.305348e-07	2.767013e-09	-5.780178e+00	1.844300e+02
2.580000e-06	-9.338228e-07	2.243281e-09	-6.499019e+00	1.462490e+02
2.590000e-06	-1.036684e-06	1.665636e-09	-7.214889e+00	1.037412e+02
2.600000e-06	-1.139147e-06	1.021057e-09	-7.927993e+00	5.701231e+01
2.610000e-06	-1.241235e-06	2.973163e-10	-8.638483e+00	6.424812e+00
2.620000e-06	-1.342892e-06	-5.137307e-10	-9.345968e+00	-4.740860e+01
2.630000e-06	-1.443998e-06	-1.408921e-09	-1.004963e+01	-1.036530e+02
2.640000e-06	-1.544505e-06	-2.365905e-09	-1.074911e+01	-1.612990e+02
2.650000e-06	-1.644281e-06	-3.344431e-09	-1.144352e+01	-2.192266e+02
2.660000e-06	-1.743332e-06	-4.297341e-09	-1.213287e+01	-2.762787e+02
2.670000e-06	-1.841812e-06	-5.186052e-09	-1.281825e+01	-3.313388e+02
2.680000e-06	-1.939781e-06	-5.986835e-09	-1.350007e+01	-3.834051e+02
2.690000e-06	-2.037146e-06	-6.692395e-09	-1.417769e+01	-4.316545e+02
2.700000e-06	-2.133807e-06	-7.311070e-09	-1.485041e+01	-4.754910e+02
2.710000e-06	-2.229799e-06	-7.851772e-09	-1.551848e+01	-5.145745e+02
2.720000e-06	-2.325082e-06	-8.322393e-09	-1.618161e+01	-5.488277e+02
2.730000e-06	-2.419595e-06	-8.737288e-09	-1.683938e+01	-5.784209e+02
2.740000e-06	-2.513274e-06	-9.111208e-09	-1.749134e+01	-6.037385e+02
2.750000e-06	-2.605926e-06	-9.450878e-09	-1.813616e+01	-6.253283e+02
2.760000e-06	-2.697448e-06	-9.759835e-09	-1.877312e+01	-6.438426e+02
2.770000e-06	-2.787990e-06	-1.004198e-08	-1.940325e+01	-6.599735e+02
2.780000e-06	-2.877637e-06	-1.030088e-08	-2.002716e+01	-6.743925e+02
2.790000e-06	-2.966220e-06	-1.054127e-08	-2.064366e+01	-6.876968e+02
2.800000e-06	-3.053733e-06	-1.076298e-08	-2.125271e+01	-7.003690e+02
2.810000e-06	-3.140236e-06	-1.096736e-08	-2.185474e+01	-7.127521e+02
2.820000e-06	-3.225585e-06	-1.115732e-08	-2.244874e+01	-7.250421e+02
2.830000e-06	-3.309660e-06	-1.133656e-08	-2.303386e+01	-7.372957e+02
2.840000e-06	-3.392533e-06	-1.150738e-08	-2.361063e+01	-7.494532e+02
2.850000e-06	-3.474316e-06	-1.166866e-08	-2.417980e+01	-7.613701e+02
2.860000e-06	-3.554965e-06	-1.182181e-08	-2.474108e+01	-7.728556e+02
2.870000e-06	-3.634364e-06	-1.196669e-08	-2.529367e+01	-7.837112e+02
2.880000e-06	-3.712387e-06	-1.210096e-08	-2.583667e+01	-7.937651e+02
2.890000e-06	-3.788868e-06	-1.222562e-08	-2.636895e+01	-8.029001e+02
2.900000e-06	-3.863814e-06	-1.234516e-08	-2.689054e+01	-8.110704e+02
2.910000e-06	-3.937384e-06	-1.245964e-08	-2.740256e+01	-8.183070e+02
2.920000e-06	-4.009636e-06	-1.256628e-08	-2.790541e+01	-8.247126e+02
2.930000e-06	-4.080519e-06	-1.266721e-08	-2.839872e+01	-8.304464e+02
2.940000e-06	-4.149853e-06	-1.276540e-08	-2.888125e+01	-8.357020e+02
