# Temperatura_=_35.01
# Concentracion g/m^3_=_15500.0
# C_Vs_to_Am_M_A/Vsm_=_65563218390.804596
# pendiente_HvsI_1/m_=_3716.3
# ordenada_HvsI_A/m_=_1297.0
# frecuencia_Hz_=_300800.0005866947

Tiempo_(s)	Campo_(V.s)	Magnetizacion_(V.s)	Campo_(kA/m)	Magnetizacion_(A/m)
0.000000e+00	-5.497823e-06	-1.391685e-08	-3.831103e+01	-9.104721e+02
1.000000e-08	-5.495961e-06	-1.391278e-08	-3.829805e+01	-9.105259e+02
2.000000e-08	-5.492143e-06	-1.390564e-08	-3.827145e+01	-9.106359e+02
3.000000e-08	-5.486605e-06	-1.389733e-08	-3.823285e+01	-9.107383e+02
4.000000e-08	-5.479477e-06	-1.388850e-08	-3.818319e+01	-9.107559e+02
5.000000e-08	-5.470680e-06	-1.387932e-08	-3.812188e+01	-9.106093e+02
6.000000e-08	-5.459909e-06	-1.386803e-08	-3.804683e+01	-9.102288e+02
7.000000e-08	-5.447040e-06	-1.384924e-08	-3.795715e+01	-9.095640e+02
8.000000e-08	-5.432191e-06	-1.383955e-08	-3.785367e+01	-9.085917e+02
9.000000e-08	-5.414997e-06	-1.385427e-08	-3.773386e+01	-9.073186e+02
1.000000e-07	-5.395467e-06	-1.384705e-08	-3.759777e+01	-9.057809e+02
1.100000e-07	-5.374018e-06	-1.380568e-08	-3.744830e+01	-9.040387e+02
1.200000e-07	-5.350752e-06	-1.376096e-08	-3.728618e+01	-9.021674e+02
1.300000e-07	-5.326014e-06	-1.370522e-08	-3.711379e+01	-9.002470e+02
1.400000e-07	-5.299826e-06	-1.368664e-08	-3.693131e+01	-8.983501e+02
1.500000e-07	-5.271754e-06	-1.369216e-08	-3.673569e+01	-8.965313e+02
1.600000e-07	-5.241914e-06	-1.364326e-08	-3.652775e+01	-8.948188e+02
1.700000e-07	-5.210505e-06	-1.362319e-08	-3.630888e+01	-8.932099e+02
1.800000e-07	-5.177157e-06	-1.363073e-08	-3.607650e+01	-8.916706e+02
1.900000e-07	-5.141756e-06	-1.357941e-08	-3.582981e+01	-8.901394e+02
2.000000e-07	-5.104799e-06	-1.353965e-08	-3.557228e+01	-8.885354e+02
2.100000e-07	-5.066227e-06	-1.349208e-08	-3.530349e+01	-8.867692e+02
2.200000e-07	-5.025825e-06	-1.342405e-08	-3.502196e+01	-8.847548e+02
2.300000e-07	-4.983449e-06	-1.339681e-08	-3.472666e+01	-8.824212e+02
2.400000e-07	-4.939025e-06	-1.337048e-08	-3.441710e+01	-8.797227e+02
2.500000e-07	-4.892896e-06	-1.333724e-08	-3.409566e+01	-8.766452e+02
2.600000e-07	-4.845002e-06	-1.328761e-08	-3.376191e+01	-8.732082e+02
2.700000e-07	-4.795070e-06	-1.323831e-08	-3.341397e+01	-8.694628e+02
2.800000e-07	-4.743038e-06	-1.320179e-08	-3.305138e+01	-8.654848e+02
2.900000e-07	-4.689077e-06	-1.312569e-08	-3.267537e+01	-8.613644e+02
3.000000e-07	-4.633478e-06	-1.305496e-08	-3.228792e+01	-8.571943e+02
3.100000e-07	-4.576220e-06	-1.300725e-08	-3.188893e+01	-8.530562e+02
3.200000e-07	-4.517130e-06	-1.295886e-08	-3.147717e+01	-8.490102e+02
3.300000e-07	-4.456427e-06	-1.291722e-08	-3.105417e+01	-8.450857e+02
3.400000e-07	-4.394324e-06	-1.285108e-08	-3.062141e+01	-8.412771e+02
3.500000e-07	-4.330775e-06	-1.277655e-08	-3.017857e+01	-8.375442e+02
3.600000e-07	-4.265669e-06	-1.270764e-08	-2.972489e+01	-8.338172e+02
3.700000e-07	-4.198847e-06	-1.264277e-08	-2.925925e+01	-8.300057e+02
3.800000e-07	-4.130392e-06	-1.257421e-08	-2.878222e+01	-8.260114e+02
3.900000e-07	-4.060474e-06	-1.249178e-08	-2.829501e+01	-8.217407e+02
4.000000e-07	-3.989180e-06	-1.241956e-08	-2.779820e+01	-8.171182e+02
4.100000e-07	-3.916626e-06	-1.234423e-08	-2.729262e+01	-8.120965e+02
4.200000e-07	-3.842629e-06	-1.226415e-08	-2.677697e+01	-8.066634e+02
4.300000e-07	-3.766882e-06	-1.217830e-08	-2.624914e+01	-8.008434e+02
4.400000e-07	-3.689514e-06	-1.209375e-08	-2.571001e+01	-7.946941e+02
4.500000e-07	-3.610731e-06	-1.202255e-08	-2.516101e+01	-7.882987e+02
4.600000e-07	-3.530468e-06	-1.193545e-08	-2.460171e+01	-7.817537e+02
4.700000e-07	-3.448790e-06	-1.183545e-08	-2.403255e+01	-7.751550e+02
4.800000e-07	-3.365894e-06	-1.173390e-08	-2.345489e+01	-7.685839e+02
4.900000e-07	-3.281977e-06	-1.163583e-08	-2.287013e+01	-7.620944e+02
5.000000e-07	-3.197144e-06	-1.153962e-08	-2.227897e+01	-7.557044e+02
5.100000e-07	-3.111325e-06	-1.143389e-08	-2.168096e+01	-7.493917e+02
5.200000e-07	-3.024477e-06	-1.132433e-08	-2.107576e+01	-7.430952e+02
5.300000e-07	-2.936655e-06	-1.121863e-08	-2.046379e+01	-7.367220e+02
5.400000e-07	-2.847974e-06	-1.111351e-08	-1.984582e+01	-7.301592e+02
5.500000e-07	-2.758236e-06	-1.099903e-08	-1.922049e+01	-7.232881e+02
5.600000e-07	-2.667251e-06	-1.087840e-08	-1.858647e+01	-7.160006e+02
5.700000e-07	-2.575191e-06	-1.075746e-08	-1.794496e+01	-7.082137e+02
5.800000e-07	-2.482235e-06	-1.063569e-08	-1.729720e+01	-6.998814e+02
5.900000e-07	-2.388483e-06	-1.050735e-08	-1.664390e+01	-6.910012e+02
6.000000e-07	-2.293969e-06	-1.036930e-08	-1.598529e+01	-6.816151e+02
6.100000e-07	-2.198668e-06	-1.022692e-08	-1.532120e+01	-6.718035e+02
6.200000e-07	-2.102648e-06	-1.008593e-08	-1.465209e+01	-6.616742e+02
6.300000e-07	-2.005928e-06	-9.946180e-09	-1.397811e+01	-6.513459e+02
6.400000e-07	-1.908454e-06	-9.801088e-09	-1.329887e+01	-6.409301e+02
6.500000e-07	-1.810106e-06	-9.646427e-09	-1.261354e+01	-6.305126e+02
6.600000e-07	-1.710882e-06	-9.484985e-09	-1.192211e+01	-6.201382e+02
6.700000e-07	-1.610984e-06	-9.319778e-09	-1.122598e+01	-6.097995e+02
6.800000e-07	-1.510554e-06	-9.148050e-09	-1.052614e+01	-5.994334e+02
6.900000e-07	-1.409676e-06	-8.967975e-09	-9.823183e+00	-5.889247e+02
7.000000e-07	-1.308331e-06	-8.784060e-09	-9.116976e+00	-5.781171e+02
7.100000e-07	-1.206530e-06	-8.598284e-09	-8.407584e+00	-5.668311e+02
7.200000e-07	-1.104294e-06	-8.407018e-09	-7.695159e+00	-5.548856e+02
7.300000e-07	-1.001702e-06	-8.208233e-09	-6.980261e+00	-5.421217e+02
7.400000e-07	-8.987998e-07	-7.999906e-09	-6.263196e+00	-5.284239e+02
7.500000e-07	-7.955859e-07	-7.783127e-09	-5.543960e+00	-5.137368e+02
7.600000e-07	-6.921151e-07	-7.559809e-09	-4.822935e+00	-4.980745e+02
7.700000e-07	-5.883843e-07	-7.328912e-09	-4.100097e+00	-4.815199e+02
7.800000e-07	-4.844336e-07	-7.088526e-09	-3.375727e+00	-4.642141e+02
7.900000e-07	-3.803676e-07	-6.839402e-09	-2.650553e+00	-4.463354e+02
8.000000e-07	-2.762316e-07	-6.580246e-09	-1.924892e+00	-4.280710e+02
8.100000e-07	-1.719968e-07	-6.306029e-09	-1.198542e+00	-4.095834e+02
8.200000e-07	-6.765989e-08	-6.017806e-09	-4.714812e-01	-3.909754e+02
8.300000e-07	3.674710e-08	-5.718853e-09	2.560685e-01	-3.722590e+02
8.400000e-07	1.411230e-07	-5.411095e-09	9.834018e-01	-3.533312e+02
8.500000e-07	2.454341e-07	-5.091120e-09	1.710283e+00	-3.339610e+02
8.600000e-07	3.496365e-07	-4.753185e-09	2.436407e+00	-3.137908e+02
8.700000e-07	4.537195e-07	-4.393228e-09	3.161699e+00	-2.923525e+02
8.800000e-07	5.576760e-07	-4.007472e-09	3.886109e+00	-2.690981e+02
8.900000e-07	6.614708e-07	-3.596199e-09	4.609393e+00	-2.434439e+02
9.000000e-07	7.650214e-07	-3.159306e-09	5.330975e+00	-2.148224e+02
9.100000e-07	8.682619e-07	-2.693067e-09	6.050396e+00	-1.827398e+02
9.200000e-07	9.712012e-07	-2.190137e-09	6.767718e+00	-1.468313e+02
9.300000e-07	1.073807e-06	-1.638975e-09	7.482717e+00	-1.069098e+02
9.400000e-07	1.176101e-06	-1.026797e-09	8.195538e+00	-6.300195e+01
9.500000e-07	1.277980e-06	-3.418731e-10	8.905478e+00	-1.536850e+01
9.600000e-07	1.379378e-06	4.259367e-10	9.612059e+00	3.549539e+01
9.700000e-07	1.480332e-06	1.273529e-09	1.031555e+01	8.887915e+01
9.800000e-07	1.580875e-06	2.179017e-09	1.101617e+01	1.438950e+02
9.900000e-07	1.680959e-06	3.107542e-09	1.171359e+01	1.995320e+02
1.000000e-06	1.780389e-06	4.019925e-09	1.240646e+01	2.547209e+02
1.010000e-06	1.879036e-06	4.881184e-09	1.309387e+01	3.084050e+02
1.020000e-06	1.976841e-06	5.662696e-09	1.377542e+01	3.596101e+02
1.030000e-06	2.073804e-06	6.352699e-09	1.445110e+01	4.075063e+02
1.040000e-06	2.169968e-06	6.959465e-09	1.512121e+01	4.514587e+02
1.050000e-06	2.265371e-06	7.497378e-09	1.578601e+01	4.910601e+02
1.060000e-06	2.360066e-06	7.977503e-09	1.644588e+01	5.261442e+02
1.070000e-06	2.454027e-06	8.407856e-09	1.710064e+01	5.567797e+02
1.080000e-06	2.547245e-06	8.792206e-09	1.775022e+01	5.832446e+02
1.090000e-06	2.639660e-06	9.136140e-09	1.839420e+01	6.059855e+02
1.100000e-06	2.731064e-06	9.445668e-09	1.903115e+01	6.255660e+02
1.110000e-06	2.821287e-06	9.725151e-09	1.965986e+01	6.426091e+02
1.120000e-06	2.910376e-06	9.981108e-09	2.028066e+01	6.577402e+02
1.130000e-06	2.998496e-06	1.021877e-08	2.089472e+01	6.715352e+02
1.140000e-06	3.085637e-06	1.044162e-08	2.150195e+01	6.844796e+02
1.150000e-06	3.171736e-06	1.065140e-08	2.210192e+01	6.969397e+02
1.160000e-06	3.256834e-06	1.084769e-08	2.269492e+01	7.091507e+02
1.170000e-06	3.340939e-06	1.103032e-08	2.328100e+01	7.212181e+02
1.180000e-06	3.423901e-06	1.120115e-08	2.385911e+01	7.331339e+02
1.190000e-06	3.505547e-06	1.135987e-08	2.442805e+01	7.448022e+02
1.200000e-06	3.585903e-06	1.150625e-08	2.498800e+01	7.560728e+02
1.210000e-06	3.664980e-06	1.164533e-08	2.553905e+01	7.667751e+02
1.220000e-06	3.742742e-06	1.178036e-08	2.608092e+01	7.767519e+02
1.230000e-06	3.819143e-06	1.190845e-08	2.661331e+01	7.858860e+02
1.240000e-06	3.894018e-06	1.202874e-08	2.713507e+01	7.941195e+02
1.250000e-06	3.967281e-06	1.214412e-08	2.764560e+01	8.014618e+02
1.260000e-06	4.039033e-06	1.225420e-08	2.814560e+01	8.079885e+02
1.270000e-06	4.109407e-06	1.235637e-08	2.863599e+01	8.138304e+02
1.280000e-06	4.178467e-06	1.244943e-08	2.911723e+01	8.191559e+02
1.290000e-06	4.246130e-06	1.253609e-08	2.958873e+01	8.241487e+02
1.300000e-06	4.312144e-06	1.262096e-08	3.004874e+01	8.289848e+02
1.310000e-06	4.376485e-06	1.270587e-08	3.049710e+01	8.338118e+02
1.320000e-06	4.439353e-06	1.278808e-08	3.093518e+01	8.387322e+02
1.330000e-06	4.500845e-06	1.286696e-08	3.136369e+01	8.437945e+02
1.340000e-06	4.560886e-06	1.294344e-08	3.178208e+01	8.489908e+02
1.350000e-06	4.619229e-06	1.301717e-08	3.218863e+01	8.542625e+02
1.360000e-06	4.675778e-06	1.308653e-08	3.258269e+01	8.595124e+02
1.370000e-06	4.730672e-06	1.314990e-08	3.296522e+01	8.646207e+02
1.380000e-06	4.783853e-06	1.320878e-08	3.333580e+01	8.694637e+02
1.390000e-06	4.835036e-06	1.326515e-08	3.369246e+01	8.739319e+02
1.400000e-06	4.884191e-06	1.332016e-08	3.403500e+01	8.779451e+02
1.410000e-06	4.931546e-06	1.337238e-08	3.436498e+01	8.814628e+02
1.420000e-06	4.977310e-06	1.342163e-08	3.468389e+01	8.844890e+02
1.430000e-06	5.021393e-06	1.347034e-08	3.499107e+01	8.870702e+02
1.440000e-06	5.063566e-06	1.351746e-08	3.528495e+01	8.892879e+02
1.450000e-06	5.103879e-06	1.356050e-08	3.556587e+01	8.912469e+02
1.460000e-06	5.142467e-06	1.359801e-08	3.583477e+01	8.930599e+02
1.470000e-06	5.179372e-06	1.363254e-08	3.609193e+01	8.948328e+02
1.480000e-06	5.214429e-06	1.366645e-08	3.633623e+01	8.966504e+02
1.490000e-06	5.247548e-06	1.369802e-08	3.656701e+01	8.985660e+02
1.500000e-06	5.278865e-06	1.372619e-08	3.678524e+01	9.005958e+02
1.510000e-06	5.308439e-06	1.375244e-08	3.699133e+01	9.027178e+02
1.520000e-06	5.336193e-06	1.377891e-08	3.718472e+01	9.048774e+02
1.530000e-06	5.361882e-06	1.380397e-08	3.736373e+01	9.069960e+02
1.540000e-06	5.385543e-06	1.382646e-08	3.752862e+01	9.089833e+02
1.550000e-06	5.407467e-06	1.384620e-08	3.768139e+01	9.107507e+02
1.560000e-06	5.427694e-06	1.386353e-08	3.782234e+01	9.122246e+02
1.570000e-06	5.445975e-06	1.388074e-08	3.794973e+01	9.133560e+02
1.580000e-06	5.462185e-06	1.389732e-08	3.806269e+01	9.141281e+02
1.590000e-06	5.476395e-06	1.391031e-08	3.816171e+01	9.145575e+02
1.600000e-06	5.488518e-06	1.391974e-08	3.824619e+01	9.146920e+02
1.610000e-06	5.498462e-06	1.392840e-08	3.831548e+01	9.146033e+02
1.620000e-06	5.506368e-06	1.393792e-08	3.837057e+01	9.143766e+02
1.630000e-06	5.512445e-06	1.394618e-08	3.841292e+01	9.140985e+02
1.640000e-06	5.516696e-06	1.394970e-08	3.844254e+01	9.138452e+02
1.650000e-06	5.518932e-06	1.394939e-08	3.845812e+01	9.136719e+02
1.660000e-06	5.519201e-06	1.394818e-08	3.846000e+01	9.136052e+02
1.670000e-06	5.517703e-06	1.394602e-08	3.844956e+01	9.136407e+02
1.680000e-06	5.514465e-06	1.394507e-08	3.842700e+01	9.137433e+02
1.690000e-06	5.509304e-06	1.394263e-08	3.839103e+01	9.138536e+02
1.700000e-06	5.502219e-06	1.393734e-08	3.834166e+01	9.138961e+02
1.710000e-06	5.493491e-06	1.393075e-08	3.828084e+01	9.137910e+02
1.720000e-06	5.483109e-06	1.392433e-08	3.820850e+01	9.134656e+02
1.730000e-06	5.470762e-06	1.391878e-08	3.812246e+01	9.128647e+02
1.740000e-06	5.456402e-06	1.387846e-08	3.802239e+01	9.119587e+02
1.750000e-06	5.440049e-06	1.382633e-08	3.790844e+01	9.107479e+02
1.760000e-06	5.421146e-06	1.381917e-08	3.777671e+01	9.092625e+02
1.770000e-06	5.399463e-06	1.382615e-08	3.762561e+01	9.075581e+02
1.780000e-06	5.375742e-06	1.384923e-08	3.746032e+01	9.057077e+02
1.790000e-06	5.350944e-06	1.382757e-08	3.728752e+01	9.037913e+02
1.800000e-06	5.325278e-06	1.374321e-08	3.710866e+01	9.018840e+02
1.810000e-06	5.297768e-06	1.374609e-08	3.691696e+01	9.000450e+02
1.820000e-06	5.267973e-06	1.375168e-08	3.670934e+01	8.983088e+02
1.830000e-06	5.236574e-06	1.371092e-08	3.649054e+01	8.966796e+02
1.840000e-06	5.203437e-06	1.372993e-08	3.625963e+01	8.951296e+02
1.850000e-06	5.168507e-06	1.367830e-08	3.601622e+01	8.936029e+02
1.860000e-06	5.131858e-06	1.362258e-08	3.576084e+01	8.920219e+02
1.870000e-06	5.093074e-06	1.364520e-08	3.549058e+01	8.902980e+02
1.880000e-06	5.052492e-06	1.357775e-08	3.520778e+01	8.883434e+02
1.890000e-06	5.010333e-06	1.353111e-08	3.491400e+01	8.860830e+02
1.900000e-06	4.966341e-06	1.348977e-08	3.460745e+01	8.834650e+02
1.910000e-06	4.920574e-06	1.340784e-08	3.428853e+01	8.804682e+02
1.920000e-06	4.872950e-06	1.339682e-08	3.395666e+01	8.771048e+02
1.930000e-06	4.823546e-06	1.331258e-08	3.361240e+01	8.734198e+02
1.940000e-06	4.772349e-06	1.327004e-08	3.325564e+01	8.694843e+02
1.950000e-06	4.719006e-06	1.327105e-08	3.288392e+01	8.653866e+02
1.960000e-06	4.663876e-06	1.317506e-08	3.249975e+01	8.612196e+02
1.970000e-06	4.607130e-06	1.312783e-08	3.210433e+01	8.570687e+02
1.980000e-06	4.548749e-06	1.304302e-08	3.169750e+01	8.529993e+02
1.990000e-06	4.488791e-06	1.297407e-08	3.127969e+01	8.490480e+02
2.000000e-06	4.427036e-06	1.294607e-08	3.084935e+01	8.452168e+02
2.010000e-06	4.363693e-06	1.286673e-08	3.040796e+01	8.414726e+02
2.020000e-06	4.298840e-06	1.282201e-08	2.995603e+01	8.377513e+02
2.030000e-06	4.232506e-06	1.274171e-08	2.949379e+01	8.339662e+02
2.040000e-06	4.164685e-06	1.267523e-08	2.902119e+01	8.300192e+02
2.050000e-06	4.095086e-06	1.260571e-08	2.853620e+01	8.258149e+02
2.060000e-06	4.023965e-06	1.250813e-08	2.804060e+01	8.212728e+02
2.070000e-06	3.951561e-06	1.244868e-08	2.753605e+01	8.163389e+02
2.080000e-06	3.877816e-06	1.236162e-08	2.702217e+01	8.109931e+02
2.090000e-06	3.802492e-06	1.229072e-08	2.649729e+01	8.052521e+02
2.100000e-06	3.725393e-06	1.219828e-08	2.596003e+01	7.991671e+02
2.110000e-06	3.646809e-06	1.210132e-08	2.541242e+01	7.928165e+02
2.120000e-06	3.567036e-06	1.202844e-08	2.485653e+01	7.862952e+02
2.130000e-06	3.486131e-06	1.193298e-08	2.429275e+01	7.797004e+02
2.140000e-06	3.404050e-06	1.184570e-08	2.372078e+01	7.731177e+02
2.150000e-06	3.320907e-06	1.174472e-08	2.314141e+01	7.666079e+02
2.160000e-06	3.236508e-06	1.164513e-08	2.255328e+01	7.601970e+02
2.170000e-06	3.150655e-06	1.154331e-08	2.195503e+01	7.538716e+02
2.180000e-06	3.063675e-06	1.143220e-08	2.134891e+01	7.475785e+02
2.190000e-06	2.975760e-06	1.132042e-08	2.073628e+01	7.412307e+02
2.200000e-06	2.886863e-06	1.121084e-08	2.011681e+01	7.347186e+02
2.210000e-06	2.796960e-06	1.110146e-08	1.949033e+01	7.279232e+02
2.220000e-06	2.706187e-06	1.098336e-08	1.885779e+01	7.207330e+02
2.230000e-06	2.614547e-06	1.086309e-08	1.821921e+01	7.130583e+02
2.240000e-06	2.521840e-06	1.073729e-08	1.757319e+01	7.048446e+02
2.250000e-06	2.428044e-06	1.061295e-08	1.691958e+01	6.960797e+02
2.260000e-06	2.333336e-06	1.048073e-08	1.625962e+01	6.867963e+02
2.270000e-06	2.237872e-06	1.034535e-08	1.559439e+01	6.770676e+02
2.280000e-06	2.141690e-06	1.020166e-08	1.492415e+01	6.669964e+02
2.290000e-06	2.044775e-06	1.005450e-08	1.424881e+01	6.567008e+02
2.300000e-06	1.947138e-06	9.910609e-09	1.356844e+01	6.462953e+02
2.310000e-06	1.848917e-06	9.760660e-09	1.288400e+01	6.358728e+02
2.320000e-06	1.750250e-06	9.605300e-09	1.219644e+01	6.254879e+02
2.330000e-06	1.651124e-06	9.438092e-09	1.150569e+01	6.151449e+02
2.340000e-06	1.551469e-06	9.272566e-09	1.081126e+01	6.047927e+02
2.350000e-06	1.451132e-06	9.101034e-09	1.011207e+01	5.943265e+02
2.360000e-06	1.350009e-06	8.916459e-09	9.407401e+00	5.835975e+02
2.370000e-06	1.248232e-06	8.725170e-09	8.698180e+00	5.724295e+02
2.380000e-06	1.145920e-06	8.530699e-09	7.985230e+00	5.606399e+02
2.390000e-06	1.043121e-06	8.337105e-09	7.268882e+00	5.480628e+02
2.400000e-06	9.399767e-07	8.133071e-09	6.550133e+00	5.345720e+02
2.410000e-06	8.365558e-07	7.914832e-09	5.829455e+00	5.200980e+02
2.420000e-06	7.328884e-07	7.687360e-09	5.107059e+00	5.046400e+02
2.430000e-06	6.290287e-07	7.453568e-09	4.383324e+00	4.882664e+02
2.440000e-06	5.249674e-07	7.213758e-09	3.658183e+00	4.711074e+02
2.450000e-06	4.207510e-07	6.965539e-09	2.931961e+00	4.533355e+02
2.460000e-06	3.164098e-07	6.705515e-09	2.204870e+00	4.351387e+02
2.470000e-06	2.119106e-07	6.437993e-09	1.476678e+00	4.166876e+02
2.480000e-06	1.073241e-07	6.159643e-09	7.478775e-01	3.981009e+02
2.490000e-06	2.737087e-09	5.863874e-09	1.907312e-02	3.794122e+02
2.500000e-06	-1.018346e-07	5.549981e-09	-7.096240e-01	3.605446e+02
2.510000e-06	-2.063235e-07	5.224166e-09	-1.437745e+00	3.412951e+02
2.520000e-06	-3.107065e-07	4.890933e-09	-2.165127e+00	3.213323e+02
2.530000e-06	-4.150134e-07	4.542808e-09	-2.891979e+00	3.002097e+02
2.540000e-06	-5.191681e-07	4.171326e-09	-3.617771e+00	2.773932e+02
2.550000e-06	-6.231355e-07	3.773365e-09	-4.342258e+00	2.523023e+02
2.560000e-06	-7.268913e-07	3.351177e-09	-5.065269e+00	2.243616e+02
2.570000e-06	-8.303891e-07	2.897919e-09	-5.786483e+00	1.930565e+02
2.580000e-06	-9.335952e-07	2.403935e-09	-6.505665e+00	1.579903e+02
2.590000e-06	-1.036449e-06	1.863568e-09	-7.222393e+00	1.189341e+02
2.600000e-06	-1.138883e-06	1.268558e-09	-7.936195e+00	7.586667e+01
2.610000e-06	-1.240837e-06	6.082532e-10	-8.646645e+00	2.899767e+01
2.620000e-06	-1.342265e-06	-1.299104e-10	-9.353436e+00	-2.122695e+01
2.630000e-06	-1.443065e-06	-9.499421e-10	-1.005585e+01	-7.414020e+01
2.640000e-06	-1.543210e-06	-1.837076e-09	-1.075370e+01	-1.288882e+02
2.650000e-06	-1.642789e-06	-2.761946e-09	-1.144761e+01	-1.844812e+02
2.660000e-06	-1.741825e-06	-3.686883e-09	-1.213773e+01	-2.398566e+02
2.670000e-06	-1.840270e-06	-4.574224e-09	-1.282374e+01	-2.939491e+02
2.680000e-06	-1.938100e-06	-5.392736e-09	-1.350546e+01	-3.457610e+02
2.690000e-06	-2.035322e-06	-6.125027e-09	-1.418294e+01	-3.944270e+02
2.700000e-06	-2.131859e-06	-6.774088e-09	-1.485565e+01	-4.392670e+02
2.710000e-06	-2.227658e-06	-7.348652e-09	-1.552321e+01	-4.798230e+02
2.720000e-06	-2.322830e-06	-7.853375e-09	-1.618641e+01	-5.158771e+02
2.730000e-06	-2.417327e-06	-8.295636e-09	-1.684490e+01	-5.474491e+02
2.740000e-06	-2.510941e-06	-8.689225e-09	-1.749724e+01	-5.747751e+02
2.750000e-06	-2.603415e-06	-9.045597e-09	-1.814164e+01	-5.982697e+02
2.760000e-06	-2.694768e-06	-9.370379e-09	-1.877822e+01	-6.184762e+02
2.770000e-06	-2.785189e-06	-9.666148e-09	-1.940831e+01	-6.360097e+02
2.780000e-06	-2.874665e-06	-9.935144e-09	-2.003181e+01	-6.514996e+02
2.790000e-06	-2.963117e-06	-1.018453e-08	-2.064819e+01	-6.655365e+02
2.800000e-06	-3.050555e-06	-1.041835e-08	-2.125748e+01	-6.786280e+02
2.810000e-06	-3.137008e-06	-1.063322e-08	-2.185993e+01	-6.911676e+02
2.820000e-06	-3.222290e-06	-1.082711e-08	-2.245420e+01	-7.034189e+02
2.830000e-06	-3.306245e-06	-1.100767e-08	-2.303924e+01	-7.155142e+02
2.840000e-06	-3.389009e-06	-1.118111e-08	-2.361597e+01	-7.274680e+02
2.850000e-06	-3.470709e-06	-1.134596e-08	-2.418529e+01	-7.392008e+02
2.860000e-06	-3.551294e-06	-1.149944e-08	-2.474683e+01	-7.505708e+02
2.870000e-06	-3.630681e-06	-1.164295e-08	-2.530004e+01	-7.614091e+02
2.880000e-06	-3.708654e-06	-1.178005e-08	-2.584338e+01	-7.715529e+02
2.890000e-06	-3.785005e-06	-1.191151e-08	-2.637543e+01	-7.808748e+02
2.900000e-06	-3.859864e-06	-1.203427e-08	-2.689708e+01	-7.893029e+02
2.910000e-06	-3.933337e-06	-1.214637e-08	-2.740907e+01	-7.968319e+02
2.920000e-06	-4.005437e-06	-1.225158e-08	-2.791148e+01	-8.035240e+02
2.930000e-06	-4.076229e-06	-1.235347e-08	-2.840480e+01	-8.094995e+02
2.940000e-06	-4.145467e-06	-1.245349e-08	-2.888727e+01	-8.149204e+02
