# Temperatura_=_49.32
# Concentracion g/m^3_=_15500.0
# C_Vs_to_Am_M_A/Vsm_=_65563218390.804596
# pendiente_HvsI_1/m_=_3716.3
# ordenada_HvsI_A/m_=_1297.0
# frecuencia_Hz_=_300801.75566059334

Tiempo_(s)	Campo_(V.s)	Magnetizacion_(V.s)	Campo_(kA/m)	Magnetizacion_(A/m)
0.000000e+00	-5.497495e-06	-1.411259e-08	-3.830799e+01	-9.243481e+02
1.000000e-08	-5.495975e-06	-1.411189e-08	-3.829740e+01	-9.244532e+02
2.000000e-08	-5.492511e-06	-1.410408e-08	-3.827326e+01	-9.246041e+02
3.000000e-08	-5.487224e-06	-1.409602e-08	-3.823642e+01	-9.247255e+02
4.000000e-08	-5.480263e-06	-1.409276e-08	-3.818791e+01	-9.247310e+02
5.000000e-08	-5.471698e-06	-1.408642e-08	-3.812823e+01	-9.245355e+02
6.000000e-08	-5.461227e-06	-1.407052e-08	-3.805527e+01	-9.240677e+02
7.000000e-08	-5.448642e-06	-1.404530e-08	-3.796757e+01	-9.232799e+02
8.000000e-08	-5.434083e-06	-1.401939e-08	-3.786612e+01	-9.221550e+02
9.000000e-08	-5.417242e-06	-1.404566e-08	-3.774877e+01	-9.207092e+02
1.000000e-07	-5.398048e-06	-1.406555e-08	-3.761502e+01	-9.189891e+02
1.100000e-07	-5.376802e-06	-1.400972e-08	-3.746697e+01	-9.170656e+02
1.200000e-07	-5.353748e-06	-1.396330e-08	-3.730632e+01	-9.150236e+02
1.300000e-07	-5.329241e-06	-1.391006e-08	-3.713556e+01	-9.129500e+02
1.400000e-07	-5.303273e-06	-1.384056e-08	-3.695460e+01	-9.109209e+02
1.500000e-07	-5.275399e-06	-1.390678e-08	-3.676037e+01	-9.089909e+02
1.600000e-07	-5.245695e-06	-1.385714e-08	-3.655338e+01	-9.071849e+02
1.700000e-07	-5.214482e-06	-1.376284e-08	-3.633588e+01	-9.054943e+02
1.800000e-07	-5.181445e-06	-1.384643e-08	-3.610567e+01	-9.038775e+02
1.900000e-07	-5.146341e-06	-1.377428e-08	-3.586106e+01	-9.022652e+02
2.000000e-07	-5.109647e-06	-1.369786e-08	-3.560536e+01	-9.005700e+02
2.100000e-07	-5.071289e-06	-1.369559e-08	-3.533807e+01	-8.986979e+02
2.200000e-07	-5.031070e-06	-1.358366e-08	-3.505782e+01	-8.965613e+02
2.300000e-07	-4.988995e-06	-1.356586e-08	-3.476463e+01	-8.940910e+02
2.400000e-07	-4.944932e-06	-1.357226e-08	-3.445759e+01	-8.912460e+02
2.500000e-07	-4.899095e-06	-1.350866e-08	-3.413818e+01	-8.880193e+02
2.600000e-07	-4.851501e-06	-1.349479e-08	-3.380654e+01	-8.844391e+02
2.700000e-07	-4.801902e-06	-1.341647e-08	-3.346092e+01	-8.805648e+02
2.800000e-07	-4.750180e-06	-1.335438e-08	-3.310051e+01	-8.764794e+02
2.900000e-07	-4.696493e-06	-1.330188e-08	-3.272640e+01	-8.722777e+02
3.000000e-07	-4.641124e-06	-1.321864e-08	-3.234057e+01	-8.680533e+02
3.100000e-07	-4.584168e-06	-1.317234e-08	-3.194369e+01	-8.638856e+02
3.200000e-07	-4.525407e-06	-1.313327e-08	-3.153422e+01	-8.598280e+02
3.300000e-07	-4.464931e-06	-1.310612e-08	-3.111281e+01	-8.559007e+02
3.400000e-07	-4.402983e-06	-1.302361e-08	-3.068114e+01	-8.520868e+02
3.500000e-07	-4.339586e-06	-1.294253e-08	-3.023938e+01	-8.483344e+02
3.600000e-07	-4.274697e-06	-1.287654e-08	-2.978721e+01	-8.445632e+02
3.700000e-07	-4.208123e-06	-1.278653e-08	-2.932331e+01	-8.406749e+02
3.800000e-07	-4.139879e-06	-1.273284e-08	-2.884776e+01	-8.365668e+02
3.900000e-07	-4.070135e-06	-1.266225e-08	-2.836177e+01	-8.321456e+02
4.000000e-07	-3.999037e-06	-1.258170e-08	-2.786634e+01	-8.273405e+02
4.100000e-07	-3.926689e-06	-1.251242e-08	-2.736220e+01	-8.221128e+02
4.200000e-07	-3.852909e-06	-1.242510e-08	-2.684808e+01	-8.164616e+02
4.300000e-07	-3.777474e-06	-1.233959e-08	-2.632244e+01	-8.104243e+02
4.400000e-07	-3.700405e-06	-1.224397e-08	-2.578540e+01	-8.040710e+02
4.500000e-07	-3.621815e-06	-1.216612e-08	-2.523776e+01	-7.974952e+02
4.600000e-07	-3.541770e-06	-1.208224e-08	-2.467999e+01	-7.908001e+02
4.700000e-07	-3.460328e-06	-1.198348e-08	-2.411247e+01	-7.840840e+02
4.800000e-07	-3.377616e-06	-1.188609e-08	-2.353612e+01	-7.774252e+02
4.900000e-07	-3.293785e-06	-1.177965e-08	-2.295196e+01	-7.708703e+02
5.000000e-07	-3.208991e-06	-1.168382e-08	-2.236109e+01	-7.644257e+02
5.100000e-07	-3.123244e-06	-1.157358e-08	-2.176358e+01	-7.580558e+02
5.200000e-07	-3.036499e-06	-1.146217e-08	-2.115912e+01	-7.516853e+02
5.300000e-07	-2.948810e-06	-1.135407e-08	-2.054808e+01	-7.452092e+02
5.400000e-07	-2.860183e-06	-1.124236e-08	-1.993051e+01	-7.385054e+02
5.500000e-07	-2.770531e-06	-1.112787e-08	-1.930579e+01	-7.314512e+02
5.600000e-07	-2.679699e-06	-1.100636e-08	-1.867285e+01	-7.239400e+02
5.700000e-07	-2.587768e-06	-1.088605e-08	-1.803225e+01	-7.158960e+02
5.800000e-07	-2.494925e-06	-1.075906e-08	-1.738530e+01	-7.072853e+02
5.900000e-07	-2.401285e-06	-1.062694e-08	-1.673278e+01	-6.981212e+02
6.000000e-07	-2.306882e-06	-1.048597e-08	-1.607496e+01	-6.884624e+02
6.100000e-07	-2.211670e-06	-1.034091e-08	-1.541150e+01	-6.784059e+02
6.200000e-07	-2.115734e-06	-1.019523e-08	-1.474299e+01	-6.680722e+02
6.300000e-07	-2.019087e-06	-1.004923e-08	-1.406953e+01	-6.575879e+02
6.400000e-07	-1.921626e-06	-9.906008e-09	-1.339040e+01	-6.470660e+02
6.500000e-07	-1.823347e-06	-9.755834e-09	-1.270556e+01	-6.365869e+02
6.600000e-07	-1.724283e-06	-9.595007e-09	-1.201526e+01	-6.261832e+02
6.700000e-07	-1.624529e-06	-9.424236e-09	-1.132014e+01	-6.158302e+02
6.800000e-07	-1.524217e-06	-9.245313e-09	-1.062115e+01	-6.054447e+02
6.900000e-07	-1.423376e-06	-9.059459e-09	-9.918461e+00	-5.948907e+02
7.000000e-07	-1.322102e-06	-8.872915e-09	-9.212752e+00	-5.839939e+02
7.100000e-07	-1.220440e-06	-8.685917e-09	-8.504350e+00	-5.725617e+02
7.200000e-07	-1.118333e-06	-8.494026e-09	-7.792841e+00	-5.604078e+02
7.300000e-07	-1.015811e-06	-8.296360e-09	-7.078440e+00	-5.473759e+02
7.400000e-07	-9.129271e-07	-8.089877e-09	-6.361516e+00	-5.333620e+02
7.500000e-07	-8.097085e-07	-7.870813e-09	-5.642262e+00	-5.183298e+02
7.600000e-07	-7.062248e-07	-7.637533e-09	-4.921160e+00	-5.023176e+02
7.700000e-07	-6.025469e-07	-7.397671e-09	-4.198705e+00	-4.854341e+02
7.800000e-07	-4.986916e-07	-7.152672e-09	-3.475014e+00	-4.678445e+02
7.900000e-07	-3.946436e-07	-6.899214e-09	-2.749980e+00	-4.497449e+02
8.000000e-07	-2.904188e-07	-6.637373e-09	-2.023714e+00	-4.313307e+02
8.100000e-07	-1.861186e-07	-6.365061e-09	-1.296924e+00	-4.127601e+02
8.200000e-07	-8.175688e-08	-6.078895e-09	-5.697034e-01	-3.941174e+02
8.300000e-07	2.265634e-08	-5.777533e-09	1.578753e-01	-3.753821e+02
8.400000e-07	1.270442e-07	-5.460349e-09	8.852774e-01	-3.564059e+02
8.500000e-07	2.313652e-07	-5.127708e-09	1.612213e+00	-3.369040e+02
8.600000e-07	3.355847e-07	-4.779853e-09	2.338443e+00	-3.164603e+02
8.700000e-07	4.396926e-07	-4.412211e-09	3.063894e+00	-2.945498e+02
8.800000e-07	5.436625e-07	-4.017945e-09	3.788383e+00	-2.705750e+02
8.900000e-07	6.474071e-07	-3.596921e-09	4.511303e+00	-2.439161e+02
9.000000e-07	7.509093e-07	-3.152466e-09	5.232534e+00	-2.139882e+02
9.100000e-07	8.541737e-07	-2.675817e-09	5.952107e+00	-1.803020e+02
9.200000e-07	9.571683e-07	-2.152748e-09	6.669801e+00	-1.425208e+02
9.300000e-07	1.059856e-06	-1.571401e-09	7.385356e+00	-1.005090e+02
9.400000e-07	1.162163e-06	-9.249860e-10	8.098260e+00	-5.436536e+01
9.500000e-07	1.264051e-06	-2.032344e-10	8.808237e+00	-4.438237e+00
9.600000e-07	1.365524e-06	6.080332e-10	9.515331e+00	4.867993e+01
9.700000e-07	1.466624e-06	1.504500e-09	1.021982e+01	1.041794e+02
9.800000e-07	1.567279e-06	2.455404e-09	1.092122e+01	1.610791e+02
9.900000e-07	1.667372e-06	3.413689e-09	1.161869e+01	2.182878e+02
1.000000e-06	1.766784e-06	4.340969e-09	1.231141e+01	2.746759e+02
1.010000e-06	1.865468e-06	5.208703e-09	1.299907e+01	3.291503e+02
1.020000e-06	1.963429e-06	5.990886e-09	1.368169e+01	3.807271e+02
1.030000e-06	2.060545e-06	6.675318e-09	1.435842e+01	4.285941e+02
1.040000e-06	2.156815e-06	7.270877e-09	1.502925e+01	4.721583e+02
1.050000e-06	2.252347e-06	7.796605e-09	1.569495e+01	5.110749e+02
1.060000e-06	2.347187e-06	8.261452e-09	1.635582e+01	5.452550e+02
1.070000e-06	2.441319e-06	8.673102e-09	1.701175e+01	5.748517e+02
1.080000e-06	2.534699e-06	9.040650e-09	1.766245e+01	6.002281e+02
1.090000e-06	2.627315e-06	9.376135e-09	1.830782e+01	6.219090e+02
1.100000e-06	2.718938e-06	9.684794e-09	1.894627e+01	6.405239e+02
1.110000e-06	2.809359e-06	9.964725e-09	1.957635e+01	6.567446e+02
1.120000e-06	2.898617e-06	1.021762e-08	2.019832e+01	6.712257e+02
1.130000e-06	2.986841e-06	1.044928e-08	2.081309e+01	6.845530e+02
1.140000e-06	3.074140e-06	1.066410e-08	2.142142e+01	6.972029e+02
1.150000e-06	3.160416e-06	1.086333e-08	2.202261e+01	7.095179e+02
1.160000e-06	3.245660e-06	1.104931e-08	2.261661e+01	7.216983e+02
1.170000e-06	3.329886e-06	1.122716e-08	2.320352e+01	7.338090e+02
1.180000e-06	3.412961e-06	1.140174e-08	2.378241e+01	7.458009e+02
1.190000e-06	3.494799e-06	1.156668e-08	2.435268e+01	7.575413e+02
1.200000e-06	3.575288e-06	1.171625e-08	2.491354e+01	7.688508e+02
1.210000e-06	3.654461e-06	1.185487e-08	2.546524e+01	7.795404e+02
1.220000e-06	3.732382e-06	1.198919e-08	2.600822e+01	7.894454e+02
1.230000e-06	3.808980e-06	1.211435e-08	2.654198e+01	7.984528e+02
1.240000e-06	3.884058e-06	1.222838e-08	2.706514e+01	8.065175e+02
1.250000e-06	3.957531e-06	1.233740e-08	2.757712e+01	8.136688e+02
1.260000e-06	4.029551e-06	1.244632e-08	2.807897e+01	8.200052e+02
1.270000e-06	4.100123e-06	1.255225e-08	2.857073e+01	8.256806e+02
1.280000e-06	4.169331e-06	1.264900e-08	2.905300e+01	8.308829e+02
1.290000e-06	4.237144e-06	1.273942e-08	2.952553e+01	8.358100e+02
1.300000e-06	4.303329e-06	1.282979e-08	2.998673e+01	8.406447e+02
1.310000e-06	4.367893e-06	1.291872e-08	3.043663e+01	8.455334e+02
1.320000e-06	4.431003e-06	1.299875e-08	3.087639e+01	8.505708e+02
1.330000e-06	4.492711e-06	1.306942e-08	3.130639e+01	8.557912e+02
1.340000e-06	4.552992e-06	1.313839e-08	3.172645e+01	8.611695e+02
1.350000e-06	4.611583e-06	1.321187e-08	3.213473e+01	8.666284e+02
1.360000e-06	4.668334e-06	1.328644e-08	3.253018e+01	8.720534e+02
1.370000e-06	4.723412e-06	1.335481e-08	3.291398e+01	8.773108e+02
1.380000e-06	4.776769e-06	1.341762e-08	3.328579e+01	8.822680e+02
1.390000e-06	4.828145e-06	1.348007e-08	3.364378e+01	8.868126e+02
1.400000e-06	4.877506e-06	1.354052e-08	3.398774e+01	8.908670e+02
1.410000e-06	4.925059e-06	1.359293e-08	3.431911e+01	8.943985e+02
1.420000e-06	4.970941e-06	1.363717e-08	3.463883e+01	8.974221e+02
1.430000e-06	5.015200e-06	1.368202e-08	3.494724e+01	8.999973e+02
1.440000e-06	5.057587e-06	1.373145e-08	3.524259e+01	9.022181e+02
1.450000e-06	5.098079e-06	1.377894e-08	3.552475e+01	9.041996e+02
1.460000e-06	5.136910e-06	1.381791e-08	3.579534e+01	9.060615e+02
1.470000e-06	5.174101e-06	1.385236e-08	3.605450e+01	9.079116e+02
1.480000e-06	5.209490e-06	1.388852e-08	3.630110e+01	9.098323e+02
1.490000e-06	5.242856e-06	1.392364e-08	3.653360e+01	9.118699e+02
1.500000e-06	5.274334e-06	1.395140e-08	3.675295e+01	9.140305e+02
1.510000e-06	5.304173e-06	1.397496e-08	3.696087e+01	9.162804e+02
1.520000e-06	5.332292e-06	1.400188e-08	3.715681e+01	9.185528e+02
1.530000e-06	5.358342e-06	1.402987e-08	3.733834e+01	9.207587e+02
1.540000e-06	5.382336e-06	1.405166e-08	3.750553e+01	9.228005e+02
1.550000e-06	5.404530e-06	1.406723e-08	3.766019e+01	9.245863e+02
1.560000e-06	5.424999e-06	1.408301e-08	3.780282e+01	9.260435e+02
1.570000e-06	5.443612e-06	1.410176e-08	3.793252e+01	9.271284e+02
1.580000e-06	5.460144e-06	1.411891e-08	3.804772e+01	9.278329e+02
1.590000e-06	5.474640e-06	1.413019e-08	3.814873e+01	9.281845e+02
1.600000e-06	5.487102e-06	1.413990e-08	3.823557e+01	9.282425e+02
1.610000e-06	5.497333e-06	1.415086e-08	3.830686e+01	9.280892e+02
1.620000e-06	5.505467e-06	1.416056e-08	3.836354e+01	9.278180e+02
1.630000e-06	5.511744e-06	1.416580e-08	3.840728e+01	9.275205e+02
1.640000e-06	5.516247e-06	1.416651e-08	3.843866e+01	9.272735e+02
1.650000e-06	5.518787e-06	1.416760e-08	3.845636e+01	9.271287e+02
1.660000e-06	5.519309e-06	1.416965e-08	3.846000e+01	9.271058e+02
1.670000e-06	5.518045e-06	1.416608e-08	3.845119e+01	9.271903e+02
1.680000e-06	5.515098e-06	1.415913e-08	3.843065e+01	9.273362e+02
1.690000e-06	5.510223e-06	1.415247e-08	3.839668e+01	9.274729e+02
1.700000e-06	5.503354e-06	1.414612e-08	3.834882e+01	9.275158e+02
1.710000e-06	5.494858e-06	1.414019e-08	3.828962e+01	9.273781e+02
1.720000e-06	5.484742e-06	1.413197e-08	3.821913e+01	9.269840e+02
1.730000e-06	5.472717e-06	1.412634e-08	3.813533e+01	9.262792e+02
1.740000e-06	5.458603e-06	1.411198e-08	3.803698e+01	9.252385e+02
1.750000e-06	5.442460e-06	1.402762e-08	3.792449e+01	9.238698e+02
1.760000e-06	5.423923e-06	1.400066e-08	3.779532e+01	9.222125e+02
1.770000e-06	5.402566e-06	1.401216e-08	3.764650e+01	9.203323e+02
1.780000e-06	5.378984e-06	1.401130e-08	3.748217e+01	9.183119e+02
1.790000e-06	5.354247e-06	1.406281e-08	3.730980e+01	9.162385e+02
1.800000e-06	5.328765e-06	1.393291e-08	3.713224e+01	9.141922e+02
1.810000e-06	5.301612e-06	1.388535e-08	3.694303e+01	9.122340e+02
1.820000e-06	5.272053e-06	1.399467e-08	3.673706e+01	9.103966e+02
1.830000e-06	5.240851e-06	1.386404e-08	3.651963e+01	9.086799e+02
1.840000e-06	5.207987e-06	1.386267e-08	3.629062e+01	9.070503e+02
1.850000e-06	5.173214e-06	1.389993e-08	3.604832e+01	9.054447e+02
1.860000e-06	5.136805e-06	1.373675e-08	3.579461e+01	9.037792e+02
1.870000e-06	5.098329e-06	1.380175e-08	3.552650e+01	9.019601e+02
1.880000e-06	5.057946e-06	1.376838e-08	3.524510e+01	8.998971e+02
1.890000e-06	5.016034e-06	1.363788e-08	3.495304e+01	8.975154e+02
1.900000e-06	4.972268e-06	1.367902e-08	3.464807e+01	8.947662e+02
1.910000e-06	4.926740e-06	1.353871e-08	3.433082e+01	8.916338e+02
1.920000e-06	4.879347e-06	1.352717e-08	3.400057e+01	8.881376e+02
1.930000e-06	4.830059e-06	1.353279e-08	3.365712e+01	8.843299e+02
1.940000e-06	4.779100e-06	1.338658e-08	3.330202e+01	8.802888e+02
1.950000e-06	4.726003e-06	1.342418e-08	3.293203e+01	8.761072e+02
1.960000e-06	4.670997e-06	1.333453e-08	3.254874e+01	8.718804e+02
1.970000e-06	4.614433e-06	1.325900e-08	3.215458e+01	8.676925e+02
1.980000e-06	4.556262e-06	1.320133e-08	3.174923e+01	8.636042e+02
1.990000e-06	4.496604e-06	1.310003e-08	3.133352e+01	8.596446e+02
2.000000e-06	4.435110e-06	1.311623e-08	3.090501e+01	8.558060e+02
2.010000e-06	4.371912e-06	1.300613e-08	3.046464e+01	8.520450e+02
2.020000e-06	4.307261e-06	1.297592e-08	3.001413e+01	8.482873e+02
2.030000e-06	4.241143e-06	1.290137e-08	2.955340e+01	8.444380e+02
2.040000e-06	4.173625e-06	1.278260e-08	2.908291e+01	8.403943e+02
2.050000e-06	4.104276e-06	1.275790e-08	2.859967e+01	8.360593e+02
2.060000e-06	4.033303e-06	1.262360e-08	2.810512e+01	8.313553e+02
2.070000e-06	3.961098e-06	1.257990e-08	2.760197e+01	8.262349e+02
2.080000e-06	3.887601e-06	1.249675e-08	2.708983e+01	8.206877e+02
2.090000e-06	3.812551e-06	1.241796e-08	2.656686e+01	8.147416e+02
2.100000e-06	3.735744e-06	1.235619e-08	2.603164e+01	8.084593e+02
2.110000e-06	3.657420e-06	1.222141e-08	2.548587e+01	8.019298e+02
2.120000e-06	3.577793e-06	1.215509e-08	2.493100e+01	7.952550e+02
2.130000e-06	3.496997e-06	1.204421e-08	2.436799e+01	7.885359e+02
2.140000e-06	3.415072e-06	1.196667e-08	2.379712e+01	7.818571e+02
2.150000e-06	3.332071e-06	1.186855e-08	2.321874e+01	7.752740e+02
2.160000e-06	3.247849e-06	1.175627e-08	2.263187e+01	7.688037e+02
2.170000e-06	3.162209e-06	1.166290e-08	2.203510e+01	7.624209e+02
2.180000e-06	3.075360e-06	1.153748e-08	2.142992e+01	7.560595e+02
2.190000e-06	2.987538e-06	1.143828e-08	2.081795e+01	7.496210e+02
2.200000e-06	2.898776e-06	1.131691e-08	2.019943e+01	7.429860e+02
2.210000e-06	2.808994e-06	1.120206e-08	1.957381e+01	7.360304e+02
2.220000e-06	2.718279e-06	1.108529e-08	1.894168e+01	7.286421e+02
2.230000e-06	2.626690e-06	1.096548e-08	1.830347e+01	7.207364e+02
2.240000e-06	2.534098e-06	1.083858e-08	1.765826e+01	7.122682e+02
2.250000e-06	2.440435e-06	1.069920e-08	1.700559e+01	7.032387e+02
2.260000e-06	2.345819e-06	1.056607e-08	1.634628e+01	6.936959e+02
2.270000e-06	2.250446e-06	1.042843e-08	1.568170e+01	6.837283e+02
2.280000e-06	2.154333e-06	1.028839e-08	1.501196e+01	6.734520e+02
2.290000e-06	2.057498e-06	1.013995e-08	1.433719e+01	6.629940e+02
2.300000e-06	1.959987e-06	9.994239e-09	1.365771e+01	6.524726e+02
2.310000e-06	1.861903e-06	9.843431e-09	1.297423e+01	6.419778e+02
2.320000e-06	1.763257e-06	9.684839e-09	1.228684e+01	6.315553e+02
2.330000e-06	1.664076e-06	9.513278e-09	1.159572e+01	6.211953e+02
2.340000e-06	1.564363e-06	9.339979e-09	1.090089e+01	6.108289e+02
2.350000e-06	1.463996e-06	9.166237e-09	1.020151e+01	6.003323e+02
2.360000e-06	1.363003e-06	8.979682e-09	9.497765e+00	5.895390e+02
2.370000e-06	1.261387e-06	8.787989e-09	8.789677e+00	5.782590e+02
2.380000e-06	1.159196e-06	8.592073e-09	8.077583e+00	5.663018e+02
2.390000e-06	1.056562e-06	8.397473e-09	7.362403e+00	5.535016e+02
2.400000e-06	9.535448e-07	8.192776e-09	6.644551e+00	5.397396e+02
2.410000e-06	8.501799e-07	7.972804e-09	5.924278e+00	5.249614e+02
2.420000e-06	7.465378e-07	7.743638e-09	5.202072e+00	5.091867e+02
2.430000e-06	6.426386e-07	7.507626e-09	4.478075e+00	4.925076e+02
2.440000e-06	5.385322e-07	7.266994e-09	3.752634e+00	4.750769e+02
2.450000e-06	4.343372e-07	7.017251e-09	3.026576e+00	4.570860e+02
2.460000e-06	3.300198e-07	6.755430e-09	2.299665e+00	4.387336e+02
2.470000e-06	2.255773e-07	6.484971e-09	1.571882e+00	4.201909e+02
2.480000e-06	1.210447e-07	6.203512e-09	8.434715e-01	4.015637e+02
2.490000e-06	1.647360e-08	5.905222e-09	1.147924e-01	3.828603e+02
2.500000e-06	-8.802637e-08	5.588924e-09	-6.133909e-01	3.639658e+02
2.510000e-06	-1.924902e-07	5.258962e-09	-1.341322e+00	3.446296e+02
2.520000e-06	-2.969250e-07	4.917536e-09	-2.069052e+00	3.244670e+02
2.530000e-06	-4.012451e-07	4.559292e-09	-2.795982e+00	3.029772e+02
2.540000e-06	-5.054340e-07	4.178919e-09	-3.521997e+00	2.795767e+02
2.550000e-06	-6.094509e-07	3.773797e-09	-4.246815e+00	2.536462e+02
2.560000e-06	-7.132187e-07	3.340831e-09	-4.969895e+00	2.245863e+02
2.570000e-06	-8.167332e-07	2.872006e-09	-5.691212e+00	1.918783e+02
2.580000e-06	-9.199919e-07	2.361627e-09	-6.410745e+00	1.551422e+02
2.590000e-06	-1.022888e-06	1.802602e-09	-7.127750e+00	1.141885e+02
2.600000e-06	-1.125330e-06	1.181944e-09	-7.841598e+00	6.905508e+01
2.610000e-06	-1.227247e-06	4.863589e-10	-8.551778e+00	2.002764e+01
2.620000e-06	-1.328612e-06	-2.929486e-10	-9.258115e+00	-3.236072e+01
2.630000e-06	-1.429435e-06	-1.155963e-09	-9.960678e+00	-8.735099e+01
2.640000e-06	-1.529740e-06	-2.086517e-09	-1.065963e+01	-1.439997e+02
2.650000e-06	-1.629511e-06	-3.050147e-09	-1.135486e+01	-2.012367e+02
2.660000e-06	-1.728645e-06	-4.001361e-09	-1.204566e+01	-2.579350e+02
2.670000e-06	-1.827133e-06	-4.897806e-09	-1.273195e+01	-3.129854e+02
2.680000e-06	-1.925025e-06	-5.712769e-09	-1.341408e+01	-3.653703e+02
2.690000e-06	-2.022292e-06	-6.435795e-09	-1.409186e+01	-4.142294e+02
2.700000e-06	-2.118831e-06	-7.070967e-09	-1.476457e+01	-4.589115e+02
2.710000e-06	-2.214716e-06	-7.626615e-09	-1.543272e+01	-4.990081e+02
2.720000e-06	-2.309996e-06	-8.113325e-09	-1.609666e+01	-5.343669e+02
2.730000e-06	-2.404591e-06	-8.543598e-09	-1.675583e+01	-5.650828e+02
2.740000e-06	-2.498269e-06	-8.927401e-09	-1.740859e+01	-5.914703e+02
2.750000e-06	-2.590859e-06	-9.271294e-09	-1.805379e+01	-6.140190e+02
2.760000e-06	-2.682419e-06	-9.584170e-09	-1.869180e+01	-6.333379e+02
2.770000e-06	-2.772940e-06	-9.873830e-09	-1.932257e+01	-6.500940e+02
2.780000e-06	-2.862482e-06	-1.013966e-08	-1.994653e+01	-6.649515e+02
2.790000e-06	-2.951046e-06	-1.038293e-08	-2.056367e+01	-6.785177e+02
2.800000e-06	-3.038674e-06	-1.060558e-08	-2.117428e+01	-6.912992e+02
2.810000e-06	-3.125308e-06	-1.081176e-08	-2.177797e+01	-7.036735e+02
2.820000e-06	-3.210700e-06	-1.100621e-08	-2.237300e+01	-7.158763e+02
2.830000e-06	-3.294830e-06	-1.119021e-08	-2.295924e+01	-7.280049e+02
2.840000e-06	-3.377743e-06	-1.136264e-08	-2.353701e+01	-7.400361e+02
2.850000e-06	-3.459563e-06	-1.152217e-08	-2.410715e+01	-7.518550e+02
2.860000e-06	-3.540306e-06	-1.167374e-08	-2.466978e+01	-7.632901e+02
2.870000e-06	-3.619851e-06	-1.181815e-08	-2.522407e+01	-7.741514e+02
2.880000e-06	-3.698010e-06	-1.195265e-08	-2.576871e+01	-7.842654e+02
2.890000e-06	-3.774555e-06	-1.207828e-08	-2.630209e+01	-7.935042e+02
2.900000e-06	-3.849558e-06	-1.219888e-08	-2.682473e+01	-8.018046e+02
2.910000e-06	-3.923160e-06	-1.231567e-08	-2.733761e+01	-8.091774e+02
2.920000e-06	-3.995395e-06	-1.242532e-08	-2.784096e+01	-8.157048e+02
2.930000e-06	-4.066305e-06	-1.252692e-08	-2.833509e+01	-8.215286e+02
2.940000e-06	-4.135746e-06	-1.262411e-08	-2.881897e+01	-8.268306e+02
