# Temperatura_=_44.18
# Concentracion g/m^3_=_15500.0
# C_Vs_to_Am_M_A/Vsm_=_65563218390.804596
# pendiente_HvsI_1/m_=_3716.3
# ordenada_HvsI_A/m_=_1297.0
# frecuencia_Hz_=_300801.52036629367

Tiempo_(s)	Campo_(V.s)	Magnetizacion_(V.s)	Campo_(kA/m)	Magnetizacion_(A/m)
0.000000e+00	-5.512701e-06	-1.406661e-08	-3.831054e+01	-9.213573e+02
1.000000e-08	-5.511086e-06	-1.406577e-08	-3.829932e+01	-9.214749e+02
2.000000e-08	-5.507514e-06	-1.406178e-08	-3.827450e+01	-9.216405e+02
3.000000e-08	-5.502160e-06	-1.405679e-08	-3.823729e+01	-9.217804e+02
4.000000e-08	-5.495179e-06	-1.404892e-08	-3.818878e+01	-9.218095e+02
5.000000e-08	-5.486559e-06	-1.403646e-08	-3.812887e+01	-9.216435e+02
6.000000e-08	-5.475999e-06	-1.402082e-08	-3.805548e+01	-9.212116e+02
7.000000e-08	-5.463339e-06	-1.399647e-08	-3.796750e+01	-9.204660e+02
8.000000e-08	-5.448687e-06	-1.397573e-08	-3.786568e+01	-9.193895e+02
9.000000e-08	-5.431680e-06	-1.401081e-08	-3.774749e+01	-9.179971e+02
1.000000e-07	-5.412314e-06	-1.401788e-08	-3.761290e+01	-9.163346e+02
1.100000e-07	-5.390995e-06	-1.396554e-08	-3.746475e+01	-9.144717e+02
1.200000e-07	-5.367848e-06	-1.393486e-08	-3.730389e+01	-9.124921e+02
1.300000e-07	-5.343188e-06	-1.385353e-08	-3.713251e+01	-9.104811e+02
1.400000e-07	-5.317017e-06	-1.381008e-08	-3.695064e+01	-9.085141e+02
1.500000e-07	-5.288980e-06	-1.388459e-08	-3.675579e+01	-9.066446e+02
1.600000e-07	-5.259253e-06	-1.378842e-08	-3.654921e+01	-9.048967e+02
1.700000e-07	-5.227984e-06	-1.374961e-08	-3.633190e+01	-9.032612e+02
1.800000e-07	-5.194734e-06	-1.383202e-08	-3.610083e+01	-9.016959e+02
1.900000e-07	-5.159419e-06	-1.372154e-08	-3.585541e+01	-9.001310e+02
2.000000e-07	-5.122557e-06	-1.369763e-08	-3.559924e+01	-8.984786e+02
2.100000e-07	-5.084008e-06	-1.367045e-08	-3.533134e+01	-8.966441e+02
2.200000e-07	-5.043618e-06	-1.353799e-08	-3.505065e+01	-8.945396e+02
2.300000e-07	-5.001322e-06	-1.355426e-08	-3.475671e+01	-8.920955e+02
2.400000e-07	-4.957029e-06	-1.354819e-08	-3.444890e+01	-8.892705e+02
2.500000e-07	-4.911000e-06	-1.349187e-08	-3.412902e+01	-8.860576e+02
2.600000e-07	-4.863200e-06	-1.347275e-08	-3.379683e+01	-8.824851e+02
2.700000e-07	-4.813367e-06	-1.338917e-08	-3.345052e+01	-8.786130e+02
2.800000e-07	-4.761399e-06	-1.332863e-08	-3.308937e+01	-8.745251e+02
2.900000e-07	-4.707502e-06	-1.326307e-08	-3.271481e+01	-8.703174e+02
3.000000e-07	-4.651935e-06	-1.319166e-08	-3.232864e+01	-8.660851e+02
3.100000e-07	-4.594750e-06	-1.313888e-08	-3.193124e+01	-8.619090e+02
3.200000e-07	-4.535750e-06	-1.311129e-08	-3.152122e+01	-8.578442e+02
3.300000e-07	-4.475043e-06	-1.309801e-08	-3.109933e+01	-8.539123e+02
3.400000e-07	-4.412841e-06	-1.300035e-08	-3.066706e+01	-8.500977e+02
3.500000e-07	-4.349199e-06	-1.292101e-08	-3.022478e+01	-8.463491e+02
3.600000e-07	-4.284088e-06	-1.284376e-08	-2.977229e+01	-8.425865e+02
3.700000e-07	-4.217274e-06	-1.275405e-08	-2.930797e+01	-8.387113e+02
3.800000e-07	-4.148774e-06	-1.270423e-08	-2.883193e+01	-8.346200e+02
3.900000e-07	-4.078782e-06	-1.262613e-08	-2.834551e+01	-8.302181e+02
4.000000e-07	-4.007488e-06	-1.255535e-08	-2.785006e+01	-8.254333e+02
4.100000e-07	-3.934965e-06	-1.249067e-08	-2.734606e+01	-8.202254e+02
4.200000e-07	-3.860935e-06	-1.241208e-08	-2.683159e+01	-8.145925e+02
4.300000e-07	-3.785193e-06	-1.231894e-08	-2.630522e+01	-8.085708e+02
4.400000e-07	-3.707828e-06	-1.221684e-08	-2.576757e+01	-8.022303e+02
4.500000e-07	-3.628989e-06	-1.213801e-08	-2.521968e+01	-7.956648e+02
4.600000e-07	-3.548631e-06	-1.205257e-08	-2.466123e+01	-7.889785e+02
4.700000e-07	-3.466880e-06	-1.196369e-08	-2.409310e+01	-7.822712e+02
4.800000e-07	-3.383908e-06	-1.186235e-08	-2.351649e+01	-7.756234e+02
4.900000e-07	-3.299814e-06	-1.175178e-08	-2.293207e+01	-7.690837e+02
5.000000e-07	-3.214779e-06	-1.165531e-08	-2.234112e+01	-7.626609e+02
5.100000e-07	-3.128776e-06	-1.154820e-08	-2.174345e+01	-7.563209e+02
5.200000e-07	-3.041777e-06	-1.143863e-08	-2.113885e+01	-7.499896e+02
5.300000e-07	-2.953845e-06	-1.133173e-08	-2.052776e+01	-7.435621e+02
5.400000e-07	-2.865031e-06	-1.122432e-08	-1.991055e+01	-7.369155e+02
5.500000e-07	-2.775153e-06	-1.111144e-08	-1.928594e+01	-7.299255e+02
5.600000e-07	-2.683969e-06	-1.098603e-08	-1.865226e+01	-7.224827e+02
5.700000e-07	-2.591698e-06	-1.085396e-08	-1.801102e+01	-7.145083e+02
5.800000e-07	-2.498607e-06	-1.072086e-08	-1.736408e+01	-7.059648e+02
5.900000e-07	-2.404687e-06	-1.059442e-08	-1.671138e+01	-6.968619e+02
6.000000e-07	-2.309960e-06	-1.046480e-08	-1.605308e+01	-6.872558e+02
6.100000e-07	-2.214517e-06	-1.032854e-08	-1.538980e+01	-6.772409e+02
6.200000e-07	-2.118385e-06	-1.018694e-08	-1.472173e+01	-6.669370e+02
6.300000e-07	-2.021512e-06	-1.004051e-08	-1.404851e+01	-6.564710e+02
6.400000e-07	-1.923798e-06	-9.890828e-09	-1.336944e+01	-6.459574e+02
6.500000e-07	-1.825121e-06	-9.729268e-09	-1.268369e+01	-6.354794e+02
6.600000e-07	-1.725600e-06	-9.558080e-09	-1.199206e+01	-6.250732e+02
6.700000e-07	-1.625473e-06	-9.386738e-09	-1.129623e+01	-6.147184e+02
6.800000e-07	-1.524922e-06	-9.217878e-09	-1.059745e+01	-6.043357e+02
6.900000e-07	-1.423931e-06	-9.042608e-09	-9.895614e+00	-5.937931e+02
7.000000e-07	-1.322369e-06	-8.861151e-09	-9.189810e+00	-5.829189e+02
7.100000e-07	-1.220302e-06	-8.674537e-09	-8.480497e+00	-5.715223e+02
7.200000e-07	-1.117873e-06	-8.480072e-09	-7.768667e+00	-5.594169e+02
7.300000e-07	-1.015088e-06	-8.277834e-09	-7.054357e+00	-5.464453e+02
7.400000e-07	-9.118787e-07	-8.063910e-09	-6.337106e+00	-5.325007e+02
7.500000e-07	-8.083003e-07	-7.841956e-09	-5.617287e+00	-5.175433e+02
7.600000e-07	-7.044772e-07	-7.614806e-09	-4.895768e+00	-5.016069e+02
7.700000e-07	-6.004751e-07	-7.382017e-09	-4.173005e+00	-4.847962e+02
7.800000e-07	-4.962848e-07	-7.138784e-09	-3.448934e+00	-4.672728e+02
7.900000e-07	-3.919238e-07	-6.886240e-09	-2.723677e+00	-4.492304e+02
8.000000e-07	-2.874740e-07	-6.626320e-09	-1.997802e+00	-4.308638e+02
8.100000e-07	-1.829662e-07	-6.352808e-09	-1.271524e+00	-4.123324e+02
8.200000e-07	-7.840713e-08	-6.064010e-09	-5.448908e-01	-3.937238e+02
8.300000e-07	2.617983e-08	-5.761700e-09	1.819369e-01	-3.750226e+02
8.400000e-07	1.307430e-07	-5.446510e-09	9.085988e-01	-3.560872e+02
8.500000e-07	2.352686e-07	-5.116994e-09	1.635000e+00	-3.366405e+02
8.600000e-07	3.397483e-07	-4.770813e-09	2.361082e+00	-3.162740e+02
8.700000e-07	4.441239e-07	-4.402036e-09	3.086442e+00	-2.944699e+02
8.800000e-07	5.483571e-07	-4.007211e-09	3.810811e+00	-2.706365e+02
8.900000e-07	6.524687e-07	-3.590168e-09	4.534335e+00	-2.441575e+02
9.000000e-07	7.563795e-07	-3.150474e-09	5.256463e+00	-2.144487e+02
9.100000e-07	8.599786e-07	-2.674930e-09	5.976426e+00	-1.810187e+02
9.200000e-07	9.632395e-07	-2.151814e-09	6.694038e+00	-1.435254e+02
9.300000e-07	1.066153e-06	-1.573900e-09	7.409238e+00	-1.018248e+02
9.400000e-07	1.168720e-06	-9.322252e-10	8.122024e+00	-5.600502e+01
9.500000e-07	1.270906e-06	-2.137350e-10	8.832167e+00	-6.402127e+00
9.600000e-07	1.372649e-06	5.936772e-10	9.539228e+00	4.640459e+01
9.700000e-07	1.473921e-06	1.482640e-09	1.024302e+01	1.016183e+02
9.800000e-07	1.574756e-06	2.425530e-09	1.094378e+01	1.582695e+02
9.900000e-07	1.675157e-06	3.381224e-09	1.164151e+01	2.152765e+02
1.000000e-06	1.774984e-06	4.307677e-09	1.233526e+01	2.715163e+02
1.010000e-06	1.874046e-06	5.171651e-09	1.302370e+01	3.258993e+02
1.020000e-06	1.972217e-06	5.948510e-09	1.370593e+01	3.774412e+02
1.030000e-06	2.069488e-06	6.630888e-09	1.438192e+01	4.253262e+02
1.040000e-06	2.165978e-06	7.229457e-09	1.505247e+01	4.689545e+02
1.050000e-06	2.261745e-06	7.758581e-09	1.571801e+01	5.079725e+02
1.060000e-06	2.356782e-06	8.225781e-09	1.637847e+01	5.422802e+02
1.070000e-06	2.451057e-06	8.640756e-09	1.703363e+01	5.720196e+02
1.080000e-06	2.544524e-06	9.011840e-09	1.768318e+01	5.975424e+02
1.090000e-06	2.637216e-06	9.347940e-09	1.832735e+01	6.193635e+02
1.100000e-06	2.729099e-06	9.653272e-09	1.896589e+01	6.381040e+02
1.110000e-06	2.819820e-06	9.929001e-09	1.959635e+01	6.544298e+02
1.120000e-06	2.909246e-06	1.018120e-08	2.021782e+01	6.689923e+02
1.130000e-06	2.997656e-06	1.041340e-08	2.083222e+01	6.823761e+02
1.140000e-06	3.085147e-06	1.063124e-08	2.144025e+01	6.950593e+02
1.150000e-06	3.171578e-06	1.083701e-08	2.204090e+01	7.073880e+02
1.160000e-06	3.256953e-06	1.102897e-08	2.263421e+01	7.195672e+02
1.170000e-06	3.341346e-06	1.120887e-08	2.322070e+01	7.316676e+02
1.180000e-06	3.424653e-06	1.137907e-08	2.379964e+01	7.436454e+02
1.190000e-06	3.506733e-06	1.153850e-08	2.437006e+01	7.553732e+02
1.200000e-06	3.587455e-06	1.168657e-08	2.493104e+01	7.666754e+02
1.210000e-06	3.666824e-06	1.182484e-08	2.548261e+01	7.773655e+02
1.220000e-06	3.744919e-06	1.195694e-08	2.602533e+01	7.872800e+02
1.230000e-06	3.821707e-06	1.208306e-08	2.655897e+01	7.963053e+02
1.240000e-06	3.896948e-06	1.220199e-08	2.708186e+01	8.043943e+02
1.250000e-06	3.970553e-06	1.231487e-08	2.759338e+01	8.115734e+02
1.260000e-06	4.042685e-06	1.242302e-08	2.809466e+01	8.179376e+02
1.270000e-06	4.113402e-06	1.252666e-08	2.858611e+01	8.236370e+02
1.280000e-06	4.182778e-06	1.262285e-08	2.906824e+01	8.288561e+02
1.290000e-06	4.250775e-06	1.271103e-08	2.954079e+01	8.337899e+02
1.300000e-06	4.317101e-06	1.279555e-08	3.000172e+01	8.386194e+02
1.310000e-06	4.381786e-06	1.288066e-08	3.045125e+01	8.434901e+02
1.320000e-06	4.445027e-06	1.296326e-08	3.089074e+01	8.484971e+02
1.330000e-06	4.506823e-06	1.303856e-08	3.132019e+01	8.536763e+02
1.340000e-06	4.567168e-06	1.310999e-08	3.173956e+01	8.590046e+02
1.350000e-06	4.625817e-06	1.318325e-08	3.214714e+01	8.644076e+02
1.360000e-06	4.682682e-06	1.325687e-08	3.254232e+01	8.697740e+02
1.370000e-06	4.737913e-06	1.332498e-08	3.292615e+01	8.749730e+02
1.380000e-06	4.791410e-06	1.338562e-08	3.329793e+01	8.798750e+02
1.390000e-06	4.842872e-06	1.344330e-08	3.365556e+01	8.843694e+02
1.400000e-06	4.892304e-06	1.350096e-08	3.399909e+01	8.883803e+02
1.410000e-06	4.939971e-06	1.355516e-08	3.433035e+01	8.918755e+02
1.420000e-06	4.985996e-06	1.360296e-08	3.465021e+01	8.948699e+02
1.430000e-06	5.030418e-06	1.364787e-08	3.495892e+01	8.974224e+02
1.440000e-06	5.072951e-06	1.369413e-08	3.525450e+01	8.996257e+02
1.450000e-06	5.113539e-06	1.374038e-08	3.553657e+01	9.015934e+02
1.460000e-06	5.152393e-06	1.378214e-08	3.580658e+01	9.034437e+02
1.470000e-06	5.189582e-06	1.381975e-08	3.606503e+01	9.052832e+02
1.480000e-06	5.224923e-06	1.385575e-08	3.631063e+01	9.071931e+02
1.490000e-06	5.258268e-06	1.388972e-08	3.654236e+01	9.092191e+02
1.500000e-06	5.289835e-06	1.391863e-08	3.676174e+01	9.113670e+02
1.510000e-06	5.319733e-06	1.394180e-08	3.696951e+01	9.136035e+02
1.520000e-06	5.347849e-06	1.396423e-08	3.716491e+01	9.158624e+02
1.530000e-06	5.373868e-06	1.398885e-08	3.734572e+01	9.180556e+02
1.540000e-06	5.397789e-06	1.401284e-08	3.751196e+01	9.200864e+02
1.550000e-06	5.419919e-06	1.403371e-08	3.766575e+01	9.218640e+02
1.560000e-06	5.440362e-06	1.405383e-08	3.780783e+01	9.233164e+02
1.570000e-06	5.458920e-06	1.407350e-08	3.793679e+01	9.244007e+02
1.580000e-06	5.475419e-06	1.408877e-08	3.805145e+01	9.251086e+02
1.590000e-06	5.489923e-06	1.409800e-08	3.815225e+01	9.254677e+02
1.600000e-06	5.502357e-06	1.410591e-08	3.823866e+01	9.255367e+02
1.610000e-06	5.512546e-06	1.411473e-08	3.830947e+01	9.253972e+02
1.620000e-06	5.520671e-06	1.412357e-08	3.836593e+01	9.251417e+02
1.630000e-06	5.526943e-06	1.413104e-08	3.840952e+01	9.248609e+02
1.640000e-06	5.531391e-06	1.413500e-08	3.844043e+01	9.246308e+02
1.650000e-06	5.533833e-06	1.413805e-08	3.845740e+01	9.245026e+02
1.660000e-06	5.534207e-06	1.414188e-08	3.846000e+01	9.244955e+02
1.670000e-06	5.532810e-06	1.413853e-08	3.845029e+01	9.245954e+02
1.680000e-06	5.529792e-06	1.413162e-08	3.842932e+01	9.247565e+02
1.690000e-06	5.524854e-06	1.412508e-08	3.839500e+01	9.249091e+02
1.700000e-06	5.517930e-06	1.412008e-08	3.834688e+01	9.249694e+02
1.710000e-06	5.509351e-06	1.411539e-08	3.828726e+01	9.248520e+02
1.720000e-06	5.499158e-06	1.410713e-08	3.821643e+01	9.244822e+02
1.730000e-06	5.487032e-06	1.410638e-08	3.813216e+01	9.238066e+02
1.740000e-06	5.472868e-06	1.407400e-08	3.803372e+01	9.228010e+02
1.750000e-06	5.456740e-06	1.399435e-08	3.792165e+01	9.214736e+02
1.760000e-06	5.438097e-06	1.398899e-08	3.779208e+01	9.198640e+02
1.770000e-06	5.416571e-06	1.399096e-08	3.764249e+01	9.180375e+02
1.780000e-06	5.392880e-06	1.401486e-08	3.747785e+01	9.160757e+02
1.790000e-06	5.368072e-06	1.404902e-08	3.730545e+01	9.140648e+02
1.800000e-06	5.342492e-06	1.389356e-08	3.712768e+01	9.120832e+02
1.810000e-06	5.315149e-06	1.390345e-08	3.693765e+01	9.101898e+02
1.820000e-06	5.285431e-06	1.395937e-08	3.673113e+01	9.084157e+02
1.830000e-06	5.254171e-06	1.380116e-08	3.651389e+01	9.067588e+02
1.840000e-06	5.221216e-06	1.386322e-08	3.628487e+01	9.051837e+02
1.850000e-06	5.186354e-06	1.384768e-08	3.604259e+01	9.036258e+02
1.860000e-06	5.149753e-06	1.371061e-08	3.578824e+01	9.020003e+02
1.870000e-06	5.111001e-06	1.382410e-08	3.551893e+01	9.002129e+02
1.880000e-06	5.070489e-06	1.372502e-08	3.523739e+01	8.981731e+02
1.890000e-06	5.028453e-06	1.362048e-08	3.494526e+01	8.958065e+02
1.900000e-06	4.984512e-06	1.363871e-08	3.463989e+01	8.930651e+02
1.910000e-06	4.938836e-06	1.347151e-08	3.432247e+01	8.899343e+02
1.920000e-06	4.891244e-06	1.350771e-08	3.399172e+01	8.864350e+02
1.930000e-06	4.841720e-06	1.347680e-08	3.364756e+01	8.826208e+02
1.940000e-06	4.790502e-06	1.336923e-08	3.329162e+01	8.785715e+02
1.950000e-06	4.737197e-06	1.340233e-08	3.292118e+01	8.743815e+02
1.960000e-06	4.682055e-06	1.328960e-08	3.253797e+01	8.701471e+02
1.970000e-06	4.625321e-06	1.323943e-08	3.214369e+01	8.659535e+02
1.980000e-06	4.567003e-06	1.313781e-08	3.173841e+01	8.618620e+02
1.990000e-06	4.507125e-06	1.306695e-08	3.132229e+01	8.579019e+02
2.000000e-06	4.445407e-06	1.307318e-08	3.089338e+01	8.540654e+02
2.010000e-06	4.382094e-06	1.296079e-08	3.045338e+01	8.503088e+02
2.020000e-06	4.317203e-06	1.295817e-08	3.000242e+01	8.465572e+02
2.030000e-06	4.250829e-06	1.284933e-08	2.954116e+01	8.427151e+02
2.040000e-06	4.183066e-06	1.276041e-08	2.907024e+01	8.386788e+02
2.050000e-06	4.113506e-06	1.271607e-08	2.858683e+01	8.343506e+02
2.060000e-06	4.042410e-06	1.258338e-08	2.809275e+01	8.296527e+02
2.070000e-06	3.970004e-06	1.254497e-08	2.758956e+01	8.245372e+02
2.080000e-06	3.896170e-06	1.244171e-08	2.707645e+01	8.189937e+02
2.090000e-06	3.820733e-06	1.238828e-08	2.655221e+01	8.130507e+02
2.100000e-06	3.743548e-06	1.230820e-08	2.601581e+01	8.067714e+02
2.110000e-06	3.664922e-06	1.219231e-08	2.546939e+01	8.002457e+02
2.120000e-06	3.585067e-06	1.211959e-08	2.491444e+01	7.935767e+02
2.130000e-06	3.504018e-06	1.200281e-08	2.435119e+01	7.868664e+02
2.140000e-06	3.421832e-06	1.193360e-08	2.378004e+01	7.802007e+02
2.150000e-06	3.338583e-06	1.182097e-08	2.320150e+01	7.736359e+02
2.160000e-06	3.254030e-06	1.172306e-08	2.261390e+01	7.671897e+02
2.170000e-06	3.168031e-06	1.162556e-08	2.201625e+01	7.608370e+02
2.180000e-06	3.080917e-06	1.150948e-08	2.141085e+01	7.545120e+02
2.190000e-06	2.992809e-06	1.140851e-08	2.079854e+01	7.481153e+02
2.200000e-06	2.903717e-06	1.128395e-08	2.017939e+01	7.415265e+02
2.210000e-06	2.813682e-06	1.117112e-08	1.955370e+01	7.346202e+02
2.220000e-06	2.722839e-06	1.105281e-08	1.892238e+01	7.272826e+02
2.230000e-06	2.631049e-06	1.094073e-08	1.828449e+01	7.194270e+02
2.240000e-06	2.538104e-06	1.081064e-08	1.763857e+01	7.110064e+02
2.250000e-06	2.444134e-06	1.067508e-08	1.698552e+01	7.020204e+02
2.260000e-06	2.349306e-06	1.053862e-08	1.632652e+01	6.925154e+02
2.270000e-06	2.253716e-06	1.040184e-08	1.566221e+01	6.825788e+02
2.280000e-06	2.157351e-06	1.026474e-08	1.499252e+01	6.723263e+02
2.290000e-06	2.060252e-06	1.011705e-08	1.431773e+01	6.618849e+02
2.300000e-06	1.962449e-06	9.974553e-09	1.363805e+01	6.513734e+02
2.310000e-06	1.864024e-06	9.825485e-09	1.295404e+01	6.408831e+02
2.320000e-06	1.765156e-06	9.668403e-09	1.226696e+01	6.304614e+02
2.330000e-06	1.665823e-06	9.490655e-09	1.157665e+01	6.201004e+02
2.340000e-06	1.565794e-06	9.312847e-09	1.088149e+01	6.097334e+02
2.350000e-06	1.465058e-06	9.137494e-09	1.018143e+01	5.992386e+02
2.360000e-06	1.363650e-06	8.956759e-09	9.476689e+00	5.884514e+02
2.370000e-06	1.261560e-06	8.771442e-09	8.767215e+00	5.771832e+02
2.380000e-06	1.158995e-06	8.577135e-09	8.054440e+00	5.652445e+02
2.390000e-06	1.056085e-06	8.383726e-09	7.339271e+00	5.524697e+02
2.400000e-06	9.528534e-07	8.179959e-09	6.621860e+00	5.387396e+02
2.410000e-06	8.492882e-07	7.960050e-09	5.902133e+00	5.239990e+02
2.420000e-06	7.453819e-07	7.726213e-09	5.180036e+00	5.082660e+02
2.430000e-06	6.412086e-07	7.484704e-09	4.456083e+00	4.916310e+02
2.440000e-06	5.368700e-07	7.242769e-09	3.730981e+00	4.742448e+02
2.450000e-06	4.323358e-07	6.998102e-09	3.004520e+00	4.562969e+02
2.460000e-06	3.276848e-07	6.742342e-09	2.277247e+00	4.379848e+02
2.470000e-06	2.229789e-07	6.473489e-09	1.549593e+00	4.194786e+02
2.480000e-06	1.182005e-07	6.191600e-09	8.214352e-01	4.008841e+02
2.490000e-06	1.338013e-08	5.894212e-09	9.298531e-02	3.822102e+02
2.500000e-06	-9.144714e-08	5.578118e-09	-6.355124e-01	3.633439e+02
2.510000e-06	-1.962512e-07	5.246144e-09	-1.363849e+00	3.440371e+02
2.520000e-06	-3.010192e-07	4.903100e-09	-2.091935e+00	3.239082e+02
2.530000e-06	-4.056717e-07	4.546163e-09	-2.819218e+00	3.024603e+02
2.540000e-06	-5.101591e-07	4.168315e-09	-3.545353e+00	2.791138e+02
2.550000e-06	-6.144633e-07	3.763032e-09	-4.270216e+00	2.532531e+02
2.560000e-06	-7.185161e-07	3.330192e-09	-4.993331e+00	2.242820e+02
2.570000e-06	-8.222683e-07	2.866164e-09	-5.714358e+00	1.916843e+02
2.580000e-06	-9.257321e-07	2.361037e-09	-6.433380e+00	1.550814e+02
2.590000e-06	-1.028871e-06	1.803139e-09	-7.150141e+00	1.142834e+02
2.600000e-06	-1.131684e-06	1.183465e-09	-7.864641e+00	6.932675e+01
2.610000e-06	-1.234108e-06	4.924858e-10	-8.576438e+00	2.049399e+01
2.620000e-06	-1.335917e-06	-2.813602e-10	-9.283960e+00	-3.168624e+01
2.630000e-06	-1.437086e-06	-1.142235e-09	-9.987038e+00	-8.646053e+01
2.640000e-06	-1.537660e-06	-2.073072e-09	-1.068598e+01	-1.428917e+02
2.650000e-06	-1.637537e-06	-3.033010e-09	-1.138007e+01	-1.999166e+02
2.660000e-06	-1.736780e-06	-3.975379e-09	-1.206976e+01	-2.564146e+02
2.670000e-06	-1.835539e-06	-4.865148e-09	-1.275609e+01	-3.112828e+02
2.680000e-06	-1.933714e-06	-5.679064e-09	-1.343836e+01	-3.635086e+02
2.690000e-06	-2.031173e-06	-6.402000e-09	-1.411565e+01	-4.122354e+02
2.700000e-06	-2.127949e-06	-7.035220e-09	-1.478819e+01	-4.568142e+02
2.710000e-06	-2.224030e-06	-7.591441e-09	-1.545591e+01	-4.968369e+02
2.720000e-06	-2.319420e-06	-8.083482e-09	-1.611882e+01	-5.321497e+02
2.730000e-06	-2.414188e-06	-8.520019e-09	-1.677742e+01	-5.628447e+02
2.740000e-06	-2.508171e-06	-8.906992e-09	-1.743055e+01	-5.892323e+02
2.750000e-06	-2.601052e-06	-9.251541e-09	-1.807602e+01	-6.117968e+02
2.760000e-06	-2.692786e-06	-9.563541e-09	-1.871353e+01	-6.311418e+02
2.770000e-06	-2.783532e-06	-9.850058e-09	-1.934417e+01	-6.479287e+02
2.780000e-06	-2.873335e-06	-1.011115e-08	-1.996825e+01	-6.628166e+02
2.790000e-06	-2.962090e-06	-1.035192e-08	-2.058506e+01	-6.764084e+02
2.800000e-06	-3.049853e-06	-1.057835e-08	-2.119497e+01	-6.892077e+02
2.810000e-06	-3.136688e-06	-1.079106e-08	-2.179843e+01	-7.015901e+02
2.820000e-06	-3.222355e-06	-1.098795e-08	-2.239377e+01	-7.137909e+02
2.830000e-06	-3.306653e-06	-1.116885e-08	-2.297960e+01	-7.259081e+02
2.840000e-06	-3.389698e-06	-1.133754e-08	-2.355673e+01	-7.379204e+02
2.850000e-06	-3.471661e-06	-1.149786e-08	-2.412633e+01	-7.497153e+02
2.860000e-06	-3.552513e-06	-1.165013e-08	-2.468820e+01	-7.611244e+02
2.870000e-06	-3.632195e-06	-1.179188e-08	-2.524196e+01	-7.719605e+02
2.880000e-06	-3.710573e-06	-1.192368e-08	-2.578665e+01	-7.820526e+02
2.890000e-06	-3.787368e-06	-1.204961e-08	-2.632033e+01	-7.912746e+02
2.900000e-06	-3.862539e-06	-1.217204e-08	-2.684274e+01	-7.995644e+02
2.910000e-06	-3.936300e-06	-1.228887e-08	-2.735534e+01	-8.069324e+02
2.920000e-06	-4.008716e-06	-1.239714e-08	-2.785859e+01	-8.134600e+02
2.930000e-06	-4.079803e-06	-1.249652e-08	-2.835262e+01	-8.192870e+02
2.940000e-06	-4.149429e-06	-1.259128e-08	-2.883648e+01	-8.245924e+02
