# Temperatura_=_47.19
# Concentracion g/m^3_=_15500.0
# C_Vs_to_Am_M_A/Vsm_=_65563218390.804596
# pendiente_HvsI_1/m_=_3716.3
# ordenada_HvsI_A/m_=_1297.0
# frecuencia_Hz_=_300801.3249096252

Tiempo_(s)	Campo_(V.s)	Magnetizacion_(V.s)	Campo_(kA/m)	Magnetizacion_(A/m)
0.000000e+00	-5.499479e-06	-1.411415e-08	-3.831131e+01	-9.244707e+02
1.000000e-08	-5.497742e-06	-1.410875e-08	-3.829922e+01	-9.245642e+02
2.000000e-08	-5.494071e-06	-1.410392e-08	-3.827364e+01	-9.247092e+02
3.000000e-08	-5.488665e-06	-1.410133e-08	-3.823598e+01	-9.248309e+02
4.000000e-08	-5.481620e-06	-1.409686e-08	-3.818690e+01	-9.248424e+02
5.000000e-08	-5.472873e-06	-1.408669e-08	-3.812597e+01	-9.246575e+02
6.000000e-08	-5.462178e-06	-1.407078e-08	-3.805146e+01	-9.242029e+02
7.000000e-08	-5.449427e-06	-1.404970e-08	-3.796264e+01	-9.234286e+02
8.000000e-08	-5.434696e-06	-1.403749e-08	-3.786002e+01	-9.223147e+02
9.000000e-08	-5.417637e-06	-1.404544e-08	-3.774118e+01	-9.208745e+02
1.000000e-07	-5.398224e-06	-1.403583e-08	-3.760594e+01	-9.191520e+02
1.100000e-07	-5.376810e-06	-1.400183e-08	-3.745676e+01	-9.172157e+02
1.200000e-07	-5.353587e-06	-1.396066e-08	-3.729498e+01	-9.151490e+02
1.300000e-07	-5.328868e-06	-1.390717e-08	-3.712278e+01	-9.130378e+02
1.400000e-07	-5.302647e-06	-1.389402e-08	-3.694011e+01	-9.109585e+02
1.500000e-07	-5.274605e-06	-1.388656e-08	-3.674476e+01	-9.089668e+02
1.600000e-07	-5.244868e-06	-1.383600e-08	-3.653761e+01	-9.070897e+02
1.700000e-07	-5.213541e-06	-1.382414e-08	-3.631937e+01	-9.053212e+02
1.800000e-07	-5.180271e-06	-1.380346e-08	-3.608760e+01	-9.036231e+02
1.900000e-07	-5.144990e-06	-1.374456e-08	-3.584182e+01	-9.019297e+02
2.000000e-07	-5.108105e-06	-1.371845e-08	-3.558487e+01	-9.001570e+02
2.100000e-07	-5.069553e-06	-1.365774e-08	-3.531630e+01	-8.982142e+02
2.200000e-07	-5.029188e-06	-1.359285e-08	-3.503510e+01	-8.960162e+02
2.300000e-07	-4.986916e-06	-1.358461e-08	-3.474062e+01	-8.934959e+02
2.400000e-07	-4.942597e-06	-1.355535e-08	-3.443188e+01	-8.906130e+02
2.500000e-07	-4.896492e-06	-1.351436e-08	-3.411070e+01	-8.873606e+02
2.600000e-07	-4.848633e-06	-1.346318e-08	-3.377730e+01	-8.837657e+02
2.700000e-07	-4.798795e-06	-1.339858e-08	-3.343011e+01	-8.798863e+02
2.800000e-07	-4.746835e-06	-1.334901e-08	-3.306813e+01	-8.758030e+02
2.900000e-07	-4.692945e-06	-1.328448e-08	-3.269272e+01	-8.716081e+02
3.000000e-07	-4.637426e-06	-1.322017e-08	-3.230595e+01	-8.673925e+02
3.100000e-07	-4.580288e-06	-1.317042e-08	-3.190791e+01	-8.632330e+02
3.200000e-07	-4.521344e-06	-1.313008e-08	-3.149728e+01	-8.591812e+02
3.300000e-07	-4.460656e-06	-1.308561e-08	-3.107451e+01	-8.552557e+02
3.400000e-07	-4.398474e-06	-1.300824e-08	-3.064133e+01	-8.514390e+02
3.500000e-07	-4.334858e-06	-1.293068e-08	-3.019815e+01	-8.476790e+02
3.600000e-07	-4.269752e-06	-1.285515e-08	-2.974460e+01	-8.438961e+02
3.700000e-07	-4.202982e-06	-1.278395e-08	-2.927946e+01	-8.399932e+02
3.800000e-07	-4.134554e-06	-1.272240e-08	-2.880276e+01	-8.358692e+02
3.900000e-07	-4.064661e-06	-1.264938e-08	-2.831587e+01	-8.314324e+02
4.000000e-07	-3.993423e-06	-1.257953e-08	-2.781960e+01	-8.266136e+02
4.100000e-07	-3.920913e-06	-1.250372e-08	-2.731447e+01	-8.213756e+02
4.200000e-07	-3.846958e-06	-1.241877e-08	-2.679927e+01	-8.157185e+02
4.300000e-07	-3.771295e-06	-1.232552e-08	-2.627217e+01	-8.096799e+02
4.400000e-07	-3.694030e-06	-1.223478e-08	-2.573392e+01	-8.033300e+02
4.500000e-07	-3.615382e-06	-1.215801e-08	-2.518603e+01	-7.967616e+02
4.600000e-07	-3.535253e-06	-1.207406e-08	-2.462782e+01	-7.900767e+02
4.700000e-07	-3.453653e-06	-1.197918e-08	-2.405937e+01	-7.833720e+02
4.800000e-07	-3.370851e-06	-1.187546e-08	-2.348254e+01	-7.767244e+02
4.900000e-07	-3.286978e-06	-1.177156e-08	-2.289825e+01	-7.701786e+02
5.000000e-07	-3.202108e-06	-1.167283e-08	-2.230702e+01	-7.637398e+02
5.100000e-07	-3.116278e-06	-1.156601e-08	-2.170910e+01	-7.573711e+02
5.200000e-07	-3.029460e-06	-1.145662e-08	-2.110429e+01	-7.509968e+02
5.300000e-07	-2.941637e-06	-1.135159e-08	-2.049248e+01	-7.445114e+02
5.400000e-07	-2.852921e-06	-1.124290e-08	-1.987445e+01	-7.377932e+02
5.500000e-07	-2.763212e-06	-1.112228e-08	-1.924951e+01	-7.307200e+02
5.600000e-07	-2.672317e-06	-1.099357e-08	-1.861630e+01	-7.231860e+02
5.700000e-07	-2.580312e-06	-1.086595e-08	-1.797536e+01	-7.151164e+02
5.800000e-07	-2.487358e-06	-1.074352e-08	-1.732781e+01	-7.064781e+02
5.900000e-07	-2.393603e-06	-1.061977e-08	-1.667468e+01	-6.972851e+02
6.000000e-07	-2.299130e-06	-1.048465e-08	-1.601655e+01	-6.875966e+02
6.100000e-07	-2.203881e-06	-1.034073e-08	-1.535301e+01	-6.775093e+02
6.200000e-07	-2.107844e-06	-1.019241e-08	-1.468399e+01	-6.671436e+02
6.300000e-07	-2.011082e-06	-1.004223e-08	-1.400991e+01	-6.566255e+02
6.400000e-07	-1.913509e-06	-9.890429e-09	-1.333018e+01	-6.460669e+02
6.500000e-07	-1.815039e-06	-9.732972e-09	-1.264420e+01	-6.355475e+02
6.600000e-07	-1.715786e-06	-9.572669e-09	-1.195278e+01	-6.250989e+02
6.700000e-07	-1.615906e-06	-9.410682e-09	-1.125698e+01	-6.146961e+02
6.800000e-07	-1.515488e-06	-9.239484e-09	-1.055743e+01	-6.042558e+02
6.900000e-07	-1.414556e-06	-9.054916e-09	-9.854296e+00	-5.936423e+02
7.000000e-07	-1.313109e-06	-8.862291e-09	-9.147579e+00	-5.826823e+02
7.100000e-07	-1.211223e-06	-8.667152e-09	-8.437809e+00	-5.711849e+02
7.200000e-07	-1.108969e-06	-8.470858e-09	-7.725474e+00	-5.589652e+02
7.300000e-07	-1.006392e-06	-8.271158e-09	-7.010881e+00	-5.458692e+02
7.400000e-07	-9.034548e-07	-8.062570e-09	-6.293786e+00	-5.317948e+02
7.500000e-07	-8.001446e-07	-7.845495e-09	-5.574091e+00	-5.167074e+02
7.600000e-07	-6.965158e-07	-7.618763e-09	-4.852175e+00	-5.006461e+02
7.700000e-07	-5.926765e-07	-7.380558e-09	-4.128795e+00	-4.837201e+02
7.800000e-07	-4.887151e-07	-7.131965e-09	-3.404562e+00	-4.660939e+02
7.900000e-07	-3.846570e-07	-6.875646e-09	-2.679657e+00	-4.479623e+02
8.000000e-07	-2.804361e-07	-6.613038e-09	-1.953617e+00	-4.295181e+02
8.100000e-07	-1.760547e-07	-6.337646e-09	-1.226459e+00	-4.109165e+02
8.200000e-07	-7.166095e-08	-6.047873e-09	-4.992156e-01	-3.922383e+02
8.300000e-07	3.272596e-08	-5.746618e-09	2.279806e-01	-3.734593e+02
8.400000e-07	1.371336e-07	-5.432618e-09	9.553215e-01	-3.544283e+02
8.500000e-07	2.415006e-07	-5.102156e-09	1.682378e+00	-3.348577e+02
8.600000e-07	3.457822e-07	-4.751861e-09	2.408842e+00	-3.143302e+02
8.700000e-07	4.499587e-07	-4.379095e-09	3.134572e+00	-2.923207e+02
8.800000e-07	5.539721e-07	-3.981769e-09	3.859166e+00	-2.682336e+02
8.900000e-07	6.577980e-07	-3.561790e-09	4.582454e+00	-2.414520e+02
9.000000e-07	7.613857e-07	-3.116012e-09	5.304083e+00	-2.113961e+02
9.100000e-07	8.646829e-07	-2.634718e-09	6.023688e+00	-1.775825e+02
9.200000e-07	9.676588e-07	-2.109366e-09	6.741054e+00	-1.396814e+02
9.300000e-07	1.070280e-06	-1.528877e-09	7.455951e+00	-9.756459e+01
9.400000e-07	1.172556e-06	-8.801266e-10	8.168442e+00	-5.133774e+01
9.500000e-07	1.274491e-06	-1.509770e-10	8.878556e+00	-1.355587e+00
9.600000e-07	1.376043e-06	6.660257e-10	9.586000e+00	5.178449e+01
9.700000e-07	1.477128e-06	1.561032e-09	1.029020e+01	1.072696e+02
9.800000e-07	1.577710e-06	2.505865e-09	1.099089e+01	1.641174e+02
9.900000e-07	1.677742e-06	3.461666e-09	1.168775e+01	2.212379e+02
1.000000e-06	1.777163e-06	4.388001e-09	1.238035e+01	2.775046e+02
1.010000e-06	1.875892e-06	5.250869e-09	1.306813e+01	3.318298e+02
1.020000e-06	1.973802e-06	6.025155e-09	1.375020e+01	3.832363e+02
1.030000e-06	2.070866e-06	6.703032e-09	1.442638e+01	4.309196e+02
1.040000e-06	2.167191e-06	7.295858e-09	1.509742e+01	4.742953e+02
1.050000e-06	2.262785e-06	7.817569e-09	1.576336e+01	5.130267e+02
1.060000e-06	2.357554e-06	8.276422e-09	1.642355e+01	5.470323e+02
1.070000e-06	2.451567e-06	8.684250e-09	1.707848e+01	5.764716e+02
1.080000e-06	2.544860e-06	9.053066e-09	1.772840e+01	6.017122e+02
1.090000e-06	2.637292e-06	9.389926e-09	1.837231e+01	6.232819e+02
1.100000e-06	2.728730e-06	9.696015e-09	1.900930e+01	6.418108e+02
1.110000e-06	2.819115e-06	9.971425e-09	1.963896e+01	6.579698e+02
1.120000e-06	2.908365e-06	1.022122e-08	2.026070e+01	6.724113e+02
1.130000e-06	2.996558e-06	1.045026e-08	2.087508e+01	6.857172e+02
1.140000e-06	3.083784e-06	1.066450e-08	2.148273e+01	6.983596e+02
1.150000e-06	3.169987e-06	1.086636e-08	2.208325e+01	7.106764e+02
1.160000e-06	3.255174e-06	1.105571e-08	2.267669e+01	7.228634e+02
1.170000e-06	3.339324e-06	1.123559e-08	2.326291e+01	7.349818e+02
1.180000e-06	3.422284e-06	1.140840e-08	2.384084e+01	7.469796e+02
1.190000e-06	3.503954e-06	1.157074e-08	2.440978e+01	7.587222e+02
1.200000e-06	3.584349e-06	1.171971e-08	2.496984e+01	7.700293e+02
1.210000e-06	3.663407e-06	1.185850e-08	2.552059e+01	7.807121e+02
1.220000e-06	3.741156e-06	1.199056e-08	2.606222e+01	7.906071e+02
1.230000e-06	3.817586e-06	1.211597e-08	2.659465e+01	7.996027e+02
1.240000e-06	3.892461e-06	1.223441e-08	2.711626e+01	8.076555e+02
1.250000e-06	3.965749e-06	1.234694e-08	2.762681e+01	8.147966e+02
1.260000e-06	4.037627e-06	1.245430e-08	2.812754e+01	8.211258e+02
1.270000e-06	4.108124e-06	1.255630e-08	2.861865e+01	8.267977e+02
1.280000e-06	4.177237e-06	1.265317e-08	2.910011e+01	8.320002e+02
1.290000e-06	4.244882e-06	1.274493e-08	2.957135e+01	8.369305e+02
1.300000e-06	4.310916e-06	1.283152e-08	3.003137e+01	8.417702e+02
1.310000e-06	4.375351e-06	1.291448e-08	3.048025e+01	8.466639e+02
1.320000e-06	4.438281e-06	1.299412e-08	3.091864e+01	8.517041e+02
1.330000e-06	4.499830e-06	1.306978e-08	3.134741e+01	8.569235e+02
1.340000e-06	4.559917e-06	1.314182e-08	3.176600e+01	8.622948e+02
1.350000e-06	4.618275e-06	1.321501e-08	3.217254e+01	8.677396e+02
1.360000e-06	4.674894e-06	1.328997e-08	3.256697e+01	8.731427e+02
1.370000e-06	4.729869e-06	1.335926e-08	3.294994e+01	8.783705e+02
1.380000e-06	4.783105e-06	1.341964e-08	3.332081e+01	8.832912e+02
1.390000e-06	4.834371e-06	1.347613e-08	3.367794e+01	8.877938e+02
1.400000e-06	4.883630e-06	1.353150e-08	3.402109e+01	8.918027e+02
1.410000e-06	4.931090e-06	1.358267e-08	3.435172e+01	8.952874e+02
1.420000e-06	4.976884e-06	1.362844e-08	3.467074e+01	8.982653e+02
1.430000e-06	5.020988e-06	1.367507e-08	3.497798e+01	9.007981e+02
1.440000e-06	5.063195e-06	1.372477e-08	3.527201e+01	9.029819e+02
1.450000e-06	5.103563e-06	1.377270e-08	3.555322e+01	9.049330e+02
1.460000e-06	5.142235e-06	1.381488e-08	3.582263e+01	9.067717e+02
1.470000e-06	5.179201e-06	1.385203e-08	3.608014e+01	9.086061e+02
1.480000e-06	5.214342e-06	1.388560e-08	3.632495e+01	9.105181e+02
1.490000e-06	5.247538e-06	1.391582e-08	3.655621e+01	9.125529e+02
1.500000e-06	5.278911e-06	1.394202e-08	3.677476e+01	9.147150e+02
1.510000e-06	5.308598e-06	1.396622e-08	3.698157e+01	9.169690e+02
1.520000e-06	5.336525e-06	1.399198e-08	3.717612e+01	9.192465e+02
1.530000e-06	5.362395e-06	1.401842e-08	3.735634e+01	9.214568e+02
1.540000e-06	5.386205e-06	1.404378e-08	3.752221e+01	9.235007e+02
1.550000e-06	5.408229e-06	1.406764e-08	3.767564e+01	9.252855e+02
1.560000e-06	5.428463e-06	1.408886e-08	3.781660e+01	9.267377e+02
1.570000e-06	5.446733e-06	1.410589e-08	3.794387e+01	9.278136e+02
1.580000e-06	5.463038e-06	1.411884e-08	3.805746e+01	9.285050e+02
1.590000e-06	5.477412e-06	1.412803e-08	3.815759e+01	9.288402e+02
1.600000e-06	5.489621e-06	1.413573e-08	3.824264e+01	9.288793e+02
1.610000e-06	5.499609e-06	1.414288e-08	3.831222e+01	9.287055e+02
1.620000e-06	5.507625e-06	1.415047e-08	3.836807e+01	9.284134e+02
1.630000e-06	5.513812e-06	1.415940e-08	3.841117e+01	9.280956e+02
1.640000e-06	5.518191e-06	1.416730e-08	3.844167e+01	9.278300e+02
1.650000e-06	5.520540e-06	1.417161e-08	3.845803e+01	9.276690e+02
1.660000e-06	5.520822e-06	1.416983e-08	3.846000e+01	9.276330e+02
1.670000e-06	5.519325e-06	1.416290e-08	3.844957e+01	9.277079e+02
1.680000e-06	5.516168e-06	1.415732e-08	3.842758e+01	9.278477e+02
1.690000e-06	5.511120e-06	1.415208e-08	3.839241e+01	9.279815e+02
1.700000e-06	5.504131e-06	1.414489e-08	3.834373e+01	9.280242e+02
1.710000e-06	5.495494e-06	1.413689e-08	3.828356e+01	9.278883e+02
1.720000e-06	5.485207e-06	1.412873e-08	3.821190e+01	9.274967e+02
1.730000e-06	5.472904e-06	1.412132e-08	3.812619e+01	9.267938e+02
1.740000e-06	5.458572e-06	1.408588e-08	3.802634e+01	9.257528e+02
1.750000e-06	5.442291e-06	1.403493e-08	3.791292e+01	9.243799e+02
1.760000e-06	5.423502e-06	1.401749e-08	3.778203e+01	9.227128e+02
1.770000e-06	5.401926e-06	1.401428e-08	3.763173e+01	9.208158e+02
1.780000e-06	5.378254e-06	1.403027e-08	3.746682e+01	9.187698e+02
1.790000e-06	5.353478e-06	1.400550e-08	3.729422e+01	9.166613e+02
1.800000e-06	5.327860e-06	1.392691e-08	3.711576e+01	9.145697e+02
1.810000e-06	5.300451e-06	1.392461e-08	3.692482e+01	9.125560e+02
1.820000e-06	5.270743e-06	1.391540e-08	3.671786e+01	9.106538e+02
1.830000e-06	5.239384e-06	1.389001e-08	3.649940e+01	9.088643e+02
1.840000e-06	5.206283e-06	1.392020e-08	3.626881e+01	9.071559e+02
1.850000e-06	5.171399e-06	1.385741e-08	3.602580e+01	9.054682e+02
1.860000e-06	5.134776e-06	1.380013e-08	3.577067e+01	9.037202e+02
1.870000e-06	5.095992e-06	1.381392e-08	3.550048e+01	9.018215e+02
1.880000e-06	5.055460e-06	1.372680e-08	3.521812e+01	8.996847e+02
1.890000e-06	5.013415e-06	1.367592e-08	3.492523e+01	8.972380e+02
1.900000e-06	4.969471e-06	1.364503e-08	3.461909e+01	8.944346e+02
1.910000e-06	4.923748e-06	1.356851e-08	3.430058e+01	8.912603e+02
1.920000e-06	4.876173e-06	1.356501e-08	3.396915e+01	8.877351e+02
1.930000e-06	4.826745e-06	1.349121e-08	3.362482e+01	8.839106e+02
1.940000e-06	4.775565e-06	1.343141e-08	3.326828e+01	8.798635e+02
1.950000e-06	4.722278e-06	1.341913e-08	3.289706e+01	8.756847e+02
1.960000e-06	4.667163e-06	1.333024e-08	3.251311e+01	8.714664e+02
1.970000e-06	4.610452e-06	1.327654e-08	3.211804e+01	8.672897e+02
1.980000e-06	4.552149e-06	1.319249e-08	3.171188e+01	8.632122e+02
1.990000e-06	4.492271e-06	1.313049e-08	3.129475e+01	8.592599e+02
2.000000e-06	4.430586e-06	1.310291e-08	3.086503e+01	8.554232e+02
2.010000e-06	4.367264e-06	1.302628e-08	3.042391e+01	8.516571e+02
2.020000e-06	4.302427e-06	1.298445e-08	2.997223e+01	8.478870e+02
2.030000e-06	4.236161e-06	1.289895e-08	2.951060e+01	8.440185e+02
2.040000e-06	4.168471e-06	1.282036e-08	2.903904e+01	8.399502e+02
2.050000e-06	4.099021e-06	1.274454e-08	2.855523e+01	8.355873e+02
2.060000e-06	4.027968e-06	1.263720e-08	2.806025e+01	8.308548e+02
2.070000e-06	3.955597e-06	1.257565e-08	2.755609e+01	8.257080e+02
2.080000e-06	3.881926e-06	1.249587e-08	2.704287e+01	8.201389e+02
2.090000e-06	3.806702e-06	1.243093e-08	2.651884e+01	8.141772e+02
2.100000e-06	3.729695e-06	1.234805e-08	2.598237e+01	8.078869e+02
2.110000e-06	3.651179e-06	1.224409e-08	2.543541e+01	8.013569e+02
2.120000e-06	3.571414e-06	1.215757e-08	2.487974e+01	7.946885e+02
2.130000e-06	3.490490e-06	1.205790e-08	2.431599e+01	7.879809e+02
2.140000e-06	3.408412e-06	1.196915e-08	2.374421e+01	7.813160e+02
2.150000e-06	3.325209e-06	1.186280e-08	2.316458e+01	7.747467e+02
2.160000e-06	3.240759e-06	1.176052e-08	2.257627e+01	7.682868e+02
2.170000e-06	3.154944e-06	1.166067e-08	2.197846e+01	7.619083e+02
2.180000e-06	3.067968e-06	1.155002e-08	2.137255e+01	7.555433e+02
2.190000e-06	2.980012e-06	1.143792e-08	2.075982e+01	7.490918e+02
2.200000e-06	2.891109e-06	1.132187e-08	2.014049e+01	7.424340e+02
2.210000e-06	2.801215e-06	1.121058e-08	1.951426e+01	7.354467e+02
2.220000e-06	2.710461e-06	1.109398e-08	1.888203e+01	7.280191e+02
2.230000e-06	2.618823e-06	1.096909e-08	1.824365e+01	7.200687e+02
2.240000e-06	2.526120e-06	1.083232e-08	1.759785e+01	7.115528e+02
2.250000e-06	2.432328e-06	1.069711e-08	1.694446e+01	7.024752e+02
2.260000e-06	2.337630e-06	1.056262e-08	1.628476e+01	6.928859e+02
2.270000e-06	2.242215e-06	1.043144e-08	1.562006e+01	6.828747e+02
2.280000e-06	2.146033e-06	1.029218e-08	1.495002e+01	6.725580e+02
2.290000e-06	2.049152e-06	1.014461e-08	1.427512e+01	6.620624e+02
2.300000e-06	1.951599e-06	9.996918e-09	1.359553e+01	6.515046e+02
2.310000e-06	1.853427e-06	9.840941e-09	1.291163e+01	6.409724e+02
2.320000e-06	1.754753e-06	9.677544e-09	1.222423e+01	6.305088e+02
2.330000e-06	1.655524e-06	9.501170e-09	1.153297e+01	6.201014e+02
2.340000e-06	1.555722e-06	9.330531e-09	1.083771e+01	6.096790e+02
2.350000e-06	1.455286e-06	9.160139e-09	1.013804e+01	5.991162e+02
2.360000e-06	1.354186e-06	8.977253e-09	9.433742e+00	5.882464e+02
2.370000e-06	1.252485e-06	8.784830e-09	8.725252e+00	5.768804e+02
2.380000e-06	1.150298e-06	8.587496e-09	8.013384e+00	5.648300e+02
2.390000e-06	1.047713e-06	8.390771e-09	7.298742e+00	5.519326e+02
2.400000e-06	9.447264e-07	8.182729e-09	6.581299e+00	5.380733e+02
2.410000e-06	8.413932e-07	7.960658e-09	5.861443e+00	5.232022e+02
2.420000e-06	7.377322e-07	7.729064e-09	5.139304e+00	5.073427e+02
2.430000e-06	6.338148e-07	7.492108e-09	4.415378e+00	4.905899e+02
2.440000e-06	5.296911e-07	7.252545e-09	3.690016e+00	4.730981e+02
2.450000e-06	4.253883e-07	7.004325e-09	2.963406e+00	4.550579e+02
2.460000e-06	3.209675e-07	6.740520e-09	2.235974e+00	4.366659e+02
2.470000e-06	2.164419e-07	6.465921e-09	1.507811e+00	4.180883e+02
2.480000e-06	1.118447e-07	6.181965e-09	7.791497e-01	3.994247e+02
2.490000e-06	7.220530e-09	5.882885e-09	5.030077e-02	3.806756e+02
2.500000e-06	-9.742909e-08	5.564572e-09	-6.787255e-01	3.617182e+02
2.510000e-06	-2.020614e-07	5.232135e-09	-1.407631e+00	3.422943e+02
2.520000e-06	-3.066205e-07	4.890784e-09	-2.136027e+00	3.220129e+02
2.530000e-06	-4.110516e-07	4.532035e-09	-2.863531e+00	3.003695e+02
2.540000e-06	-5.152767e-07	4.148187e-09	-3.589600e+00	2.767797e+02
2.550000e-06	-6.192931e-07	3.737291e-09	-4.314215e+00	2.506266e+02
2.560000e-06	-7.230715e-07	3.300666e-09	-5.037172e+00	2.213174e+02
2.570000e-06	-8.265238e-07	2.831464e-09	-5.757857e+00	1.883428e+02
2.580000e-06	-9.296489e-07	2.317981e-09	-6.476264e+00	1.513360e+02
2.590000e-06	-1.032471e-06	1.753464e-09	-7.192557e+00	1.101221e+02
2.600000e-06	-1.134905e-06	1.129581e-09	-7.906152e+00	6.475474e+01
2.610000e-06	-1.236884e-06	4.326362e-10	-8.616575e+00	1.553510e+01
2.620000e-06	-1.338325e-06	-3.508308e-10	-9.323247e+00	-3.698986e+01
2.630000e-06	-1.439205e-06	-1.221258e-09	-1.002601e+01	-9.205011e+01
2.640000e-06	-1.539566e-06	-2.156192e-09	-1.072517e+01	-1.486949e+02
2.650000e-06	-1.639277e-06	-3.115546e-09	-1.141979e+01	-2.058516e+02
2.660000e-06	-1.738324e-06	-4.057332e-09	-1.210978e+01	-2.623952e+02
2.670000e-06	-1.836788e-06	-4.946332e-09	-1.279572e+01	-3.172234e+02
2.680000e-06	-1.934659e-06	-5.755515e-09	-1.347752e+01	-3.693297e+02
2.690000e-06	-2.031888e-06	-6.471921e-09	-1.415485e+01	-4.178680e+02
2.700000e-06	-2.128442e-06	-7.101527e-09	-1.482748e+01	-4.622037e+02
2.710000e-06	-2.224335e-06	-7.656118e-09	-1.549551e+01	-5.019457e+02
2.720000e-06	-2.319570e-06	-8.143247e-09	-1.615894e+01	-5.369583e+02
2.730000e-06	-2.414113e-06	-8.571328e-09	-1.681757e+01	-5.673515e+02
2.740000e-06	-2.507777e-06	-8.952481e-09	-1.747006e+01	-5.934519e+02
2.750000e-06	-2.600369e-06	-9.296973e-09	-1.811509e+01	-6.157576e+02
2.760000e-06	-2.691855e-06	-9.610199e-09	-1.875241e+01	-6.348820e+02
2.770000e-06	-2.782374e-06	-9.896464e-09	-1.938301e+01	-6.514924e+02
2.780000e-06	-2.871951e-06	-1.015798e-08	-2.000703e+01	-6.662497e+02
2.790000e-06	-2.960479e-06	-1.039925e-08	-2.062374e+01	-6.797549e+02
2.800000e-06	-3.048003e-06	-1.062350e-08	-2.123347e+01	-6.925061e+02
2.810000e-06	-3.134480e-06	-1.083153e-08	-2.183589e+01	-7.048713e+02
2.820000e-06	-3.219748e-06	-1.102410e-08	-2.242990e+01	-7.170765e+02
2.830000e-06	-3.303757e-06	-1.120402e-08	-2.301514e+01	-7.292105e+02
2.840000e-06	-3.386586e-06	-1.137545e-08	-2.359216e+01	-7.412430e+02
2.850000e-06	-3.468302e-06	-1.153707e-08	-2.416142e+01	-7.530544e+02
2.860000e-06	-3.548922e-06	-1.168695e-08	-2.472304e+01	-7.644709e+02
2.870000e-06	-3.628345e-06	-1.182817e-08	-2.527633e+01	-7.753024e+02
2.880000e-06	-3.706396e-06	-1.196380e-08	-2.582007e+01	-7.853777e+02
2.890000e-06	-3.782928e-06	-1.209282e-08	-2.635322e+01	-7.945720e+02
2.900000e-06	-3.857920e-06	-1.221369e-08	-2.687563e+01	-8.028267e+02
2.910000e-06	-3.931504e-06	-1.232659e-08	-2.738825e+01	-8.101569e+02
2.920000e-06	-4.003697e-06	-1.243319e-08	-2.789117e+01	-8.166485e+02
2.930000e-06	-4.074474e-06	-1.253483e-08	-2.838423e+01	-8.224461e+02
2.940000e-06	-4.143746e-06	-1.263260e-08	-2.886680e+01	-8.277324e+02
