# Temperatura_=_41.32
# Concentracion g/m^3_=_15500.0
# C_Vs_to_Am_M_A/Vsm_=_65563218390.804596
# pendiente_HvsI_1/m_=_3716.3
# ordenada_HvsI_A/m_=_1297.0
# frecuencia_Hz_=_300800.93310852995

Tiempo_(s)	Campo_(V.s)	Magnetizacion_(V.s)	Campo_(kA/m)	Magnetizacion_(A/m)
0.000000e+00	-5.512019e-06	-1.400048e-08	-3.830942e+01	-9.170656e+02
1.000000e-08	-5.510304e-06	-1.399884e-08	-3.829750e+01	-9.171297e+02
2.000000e-08	-5.506629e-06	-1.399385e-08	-3.827196e+01	-9.172448e+02
3.000000e-08	-5.501211e-06	-1.398676e-08	-3.823431e+01	-9.173408e+02
4.000000e-08	-5.494180e-06	-1.397764e-08	-3.818544e+01	-9.173354e+02
5.000000e-08	-5.485457e-06	-1.396586e-08	-3.812481e+01	-9.171463e+02
6.000000e-08	-5.474716e-06	-1.395243e-08	-3.805016e+01	-9.167031e+02
7.000000e-08	-5.461914e-06	-1.393100e-08	-3.796118e+01	-9.159571e+02
8.000000e-08	-5.447167e-06	-1.391129e-08	-3.785869e+01	-9.148887e+02
9.000000e-08	-5.430015e-06	-1.394576e-08	-3.773948e+01	-9.135096e+02
1.000000e-07	-5.410477e-06	-1.395322e-08	-3.760369e+01	-9.118611e+02
1.100000e-07	-5.388964e-06	-1.389393e-08	-3.745417e+01	-9.100085e+02
1.200000e-07	-5.365662e-06	-1.385515e-08	-3.729222e+01	-9.080311e+02
1.300000e-07	-5.340872e-06	-1.377878e-08	-3.711992e+01	-9.060111e+02
1.400000e-07	-5.314546e-06	-1.373172e-08	-3.693695e+01	-9.040215e+02
1.500000e-07	-5.286369e-06	-1.382116e-08	-3.674112e+01	-9.021154e+02
1.600000e-07	-5.256488e-06	-1.372750e-08	-3.653344e+01	-9.003182e+02
1.700000e-07	-5.225102e-06	-1.366772e-08	-3.631531e+01	-8.986233e+02
1.800000e-07	-5.191811e-06	-1.376141e-08	-3.608393e+01	-8.969925e+02
1.900000e-07	-5.156438e-06	-1.364488e-08	-3.583808e+01	-8.953615e+02
2.000000e-07	-5.119486e-06	-1.360192e-08	-3.558125e+01	-8.936474e+02
2.100000e-07	-5.080861e-06	-1.358523e-08	-3.531280e+01	-8.917612e+02
2.200000e-07	-5.040367e-06	-1.345424e-08	-3.503136e+01	-8.896192e+02
2.300000e-07	-4.997950e-06	-1.347193e-08	-3.473656e+01	-8.871552e+02
2.400000e-07	-4.953498e-06	-1.347906e-08	-3.442761e+01	-8.843296e+02
2.500000e-07	-4.907293e-06	-1.341537e-08	-3.410648e+01	-8.811355e+02
2.600000e-07	-4.859288e-06	-1.339156e-08	-3.377284e+01	-8.775993e+02
2.700000e-07	-4.809248e-06	-1.330394e-08	-3.342505e+01	-8.737784e+02
2.800000e-07	-4.757158e-06	-1.324734e-08	-3.306301e+01	-8.697523e+02
2.900000e-07	-4.703151e-06	-1.318626e-08	-3.268766e+01	-8.656126e+02
3.000000e-07	-4.647465e-06	-1.311689e-08	-3.230063e+01	-8.614500e+02
3.100000e-07	-4.590153e-06	-1.307487e-08	-3.190231e+01	-8.573415e+02
3.200000e-07	-4.531056e-06	-1.304511e-08	-3.149157e+01	-8.533391e+02
3.300000e-07	-4.470301e-06	-1.302677e-08	-3.106931e+01	-8.494628e+02
3.400000e-07	-4.408026e-06	-1.292204e-08	-3.063649e+01	-8.456966e+02
3.500000e-07	-4.344231e-06	-1.283552e-08	-3.019311e+01	-8.419901e+02
3.600000e-07	-4.278971e-06	-1.276627e-08	-2.973954e+01	-8.382653e+02
3.700000e-07	-4.212046e-06	-1.268565e-08	-2.927440e+01	-8.344262e+02
3.800000e-07	-4.143435e-06	-1.264208e-08	-2.879754e+01	-8.303722e+02
3.900000e-07	-4.073360e-06	-1.256842e-08	-2.831051e+01	-8.260114e+02
4.000000e-07	-4.002009e-06	-1.249721e-08	-2.781461e+01	-8.212734e+02
4.100000e-07	-3.929381e-06	-1.243158e-08	-2.730983e+01	-8.161192e+02
4.200000e-07	-3.855296e-06	-1.234318e-08	-2.679493e+01	-8.105466e+02
4.300000e-07	-3.779524e-06	-1.224323e-08	-2.626830e+01	-8.045908e+02
4.400000e-07	-3.702048e-06	-1.214201e-08	-2.572983e+01	-7.983195e+02
4.500000e-07	-3.623069e-06	-1.207472e-08	-2.518092e+01	-7.918236e+02
4.600000e-07	-3.542579e-06	-1.199791e-08	-2.462150e+01	-7.852044e+02
4.700000e-07	-3.460700e-06	-1.190719e-08	-2.405242e+01	-7.785586e+02
4.800000e-07	-3.377706e-06	-1.180860e-08	-2.347560e+01	-7.719643e+02
4.900000e-07	-3.293630e-06	-1.170074e-08	-2.289126e+01	-7.654688e+02
5.000000e-07	-3.208603e-06	-1.160235e-08	-2.230031e+01	-7.590806e+02
5.100000e-07	-3.122623e-06	-1.148876e-08	-2.170274e+01	-7.527663e+02
5.200000e-07	-3.035627e-06	-1.137770e-08	-2.109810e+01	-7.464542e+02
5.300000e-07	-2.947657e-06	-1.127454e-08	-2.048669e+01	-7.400420e+02
5.400000e-07	-2.858642e-06	-1.117278e-08	-1.986802e+01	-7.334104e+02
5.500000e-07	-2.768626e-06	-1.106217e-08	-1.924240e+01	-7.264384e+02
5.600000e-07	-2.677512e-06	-1.093623e-08	-1.860914e+01	-7.190199e+02
5.700000e-07	-2.585254e-06	-1.080668e-08	-1.796793e+01	-7.110781e+02
5.800000e-07	-2.492081e-06	-1.067587e-08	-1.732036e+01	-7.025768e+02
5.900000e-07	-2.398130e-06	-1.054914e-08	-1.666739e+01	-6.935256e+02
6.000000e-07	-2.303417e-06	-1.041676e-08	-1.600912e+01	-6.839793e+02
6.100000e-07	-2.207953e-06	-1.028080e-08	-1.534563e+01	-6.740301e+02
6.200000e-07	-2.111645e-06	-1.014233e-08	-1.467627e+01	-6.637945e+02
6.300000e-07	-2.014501e-06	-9.997166e-09	-1.400111e+01	-6.533960e+02
6.400000e-07	-1.916664e-06	-9.846551e-09	-1.332113e+01	-6.429456e+02
6.500000e-07	-1.818100e-06	-9.686755e-09	-1.263609e+01	-6.325236e+02
6.600000e-07	-1.718763e-06	-9.522609e-09	-1.194568e+01	-6.221642e+02
6.700000e-07	-1.618663e-06	-9.357053e-09	-1.124997e+01	-6.118463e+02
6.800000e-07	-1.517924e-06	-9.187826e-09	-1.054982e+01	-6.014907e+02
6.900000e-07	-1.416769e-06	-9.009523e-09	-9.846773e+00	-5.909668e+02
7.000000e-07	-1.315219e-06	-8.826206e-09	-9.140983e+00	-5.801052e+02
7.100000e-07	-1.213252e-06	-8.638344e-09	-8.432298e+00	-5.687175e+02
7.200000e-07	-1.110815e-06	-8.442596e-09	-7.720345e+00	-5.566199e+02
7.300000e-07	-1.007957e-06	-8.239484e-09	-7.005464e+00	-5.436570e+02
7.400000e-07	-9.048274e-07	-8.029380e-09	-6.288696e+00	-5.297235e+02
7.500000e-07	-8.014055e-07	-7.812333e-09	-5.569898e+00	-5.147796e+02
7.600000e-07	-6.976629e-07	-7.586119e-09	-4.848870e+00	-4.988586e+02
7.700000e-07	-5.936639e-07	-7.353044e-09	-4.126060e+00	-4.820635e+02
7.800000e-07	-4.894768e-07	-7.109983e-09	-3.401942e+00	-4.645533e+02
7.900000e-07	-3.851360e-07	-6.856528e-09	-2.676757e+00	-4.465198e+02
8.000000e-07	-2.806554e-07	-6.593486e-09	-1.950601e+00	-4.281558e+02
8.100000e-07	-1.760504e-07	-6.318124e-09	-1.223579e+00	-4.096201e+02
8.200000e-07	-7.136274e-08	-6.029309e-09	-4.959826e-01	-3.910014e+02
8.300000e-07	3.339486e-08	-5.729129e-09	2.320997e-01	-3.722874e+02
8.400000e-07	1.381727e-07	-5.417576e-09	9.603223e-01	-3.533422e+02
8.500000e-07	2.429358e-07	-5.090402e-09	1.688443e+00	-3.338962e+02
8.600000e-07	3.475715e-07	-4.744983e-09	2.415678e+00	-3.135505e+02
8.700000e-07	4.520007e-07	-4.377267e-09	3.141478e+00	-2.917976e+02
8.800000e-07	5.562264e-07	-3.984762e-09	3.865863e+00	-2.680568e+02
8.900000e-07	6.601918e-07	-3.568721e-09	4.588440e+00	-2.417217e+02
9.000000e-07	7.639149e-07	-3.129446e-09	5.309332e+00	-2.122163e+02
9.100000e-07	8.674126e-07	-2.656652e-09	6.028658e+00	-1.790541e+02
9.200000e-07	9.706209e-07	-2.139582e-09	6.745972e+00	-1.418948e+02
9.300000e-07	1.073484e-06	-1.568670e-09	7.460885e+00	-1.005915e+02
9.400000e-07	1.175970e-06	-9.319070e-10	8.173183e+00	-5.522513e+01
9.500000e-07	1.278070e-06	-2.177778e-10	8.882792e+00	-6.120436e+00
9.600000e-07	1.379735e-06	5.809655e-10	9.589384e+00	4.615823e+01
9.700000e-07	1.480984e-06	1.457762e-09	1.029308e+01	1.008315e+02
9.800000e-07	1.581839e-06	2.389042e-09	1.099404e+01	1.569489e+02
9.900000e-07	1.682174e-06	3.334658e-09	1.169138e+01	2.134476e+02
1.000000e-06	1.781798e-06	4.251213e-09	1.238378e+01	2.692219e+02
1.010000e-06	1.880596e-06	5.106664e-09	1.307045e+01	3.231970e+02
1.020000e-06	1.978661e-06	5.881325e-09	1.375201e+01	3.743997e+02
1.030000e-06	2.076045e-06	6.565728e-09	1.442885e+01	4.220204e+02
1.040000e-06	2.172614e-06	7.162825e-09	1.510002e+01	4.654612e+02
1.050000e-06	2.268319e-06	7.686258e-09	1.576518e+01	5.043648e+02
1.060000e-06	2.363268e-06	8.149221e-09	1.642509e+01	5.386242e+02
1.070000e-06	2.457496e-06	8.563996e-09	1.707999e+01	5.683703e+02
1.080000e-06	2.550947e-06	8.936410e-09	1.772949e+01	5.939416e+02
1.090000e-06	2.643639e-06	9.271690e-09	1.837372e+01	6.158388e+02
1.100000e-06	2.735421e-06	9.576880e-09	1.901162e+01	6.346686e+02
1.110000e-06	2.826056e-06	9.856458e-09	1.964155e+01	6.510842e+02
1.120000e-06	2.915544e-06	1.011250e-08	2.026350e+01	6.657263e+02
1.130000e-06	3.003936e-06	1.034488e-08	2.087784e+01	6.791718e+02
1.140000e-06	3.091311e-06	1.055746e-08	2.148511e+01	6.918944e+02
1.150000e-06	3.177675e-06	1.075749e-08	2.208535e+01	7.042385e+02
1.160000e-06	3.263015e-06	1.094865e-08	2.267848e+01	7.164107e+02
1.170000e-06	3.347346e-06	1.112908e-08	2.326459e+01	7.284849e+02
1.180000e-06	3.430505e-06	1.129843e-08	2.384256e+01	7.404227e+02
1.190000e-06	3.512432e-06	1.145848e-08	2.441197e+01	7.521020e+02
1.200000e-06	3.593030e-06	1.161063e-08	2.497214e+01	7.633527e+02
1.210000e-06	3.672267e-06	1.175347e-08	2.552285e+01	7.739929e+02
1.220000e-06	3.750262e-06	1.188589e-08	2.606493e+01	7.838624e+02
1.230000e-06	3.826941e-06	1.200833e-08	2.659786e+01	7.928492e+02
1.240000e-06	3.902082e-06	1.212484e-08	2.712010e+01	8.009066e+02
1.250000e-06	3.975591e-06	1.223786e-08	2.763100e+01	8.080597e+02
1.260000e-06	4.047647e-06	1.234435e-08	2.813180e+01	8.144016e+02
1.270000e-06	4.118310e-06	1.244333e-08	2.862292e+01	8.200796e+02
1.280000e-06	4.187568e-06	1.253680e-08	2.910427e+01	8.252759e+02
1.290000e-06	4.255394e-06	1.262811e-08	2.957567e+01	8.301833e+02
1.300000e-06	4.321632e-06	1.271728e-08	3.003604e+01	8.349816e+02
1.310000e-06	4.386235e-06	1.280228e-08	3.048504e+01	8.398163e+02
1.320000e-06	4.449317e-06	1.288268e-08	3.092347e+01	8.447833e+02
1.330000e-06	4.510965e-06	1.295869e-08	3.135193e+01	8.499203e+02
1.340000e-06	4.571141e-06	1.303193e-08	3.177017e+01	8.552067e+02
1.350000e-06	4.629655e-06	1.310250e-08	3.217685e+01	8.605710e+02
1.360000e-06	4.686420e-06	1.316967e-08	3.257138e+01	8.659043e+02
1.370000e-06	4.741522e-06	1.323436e-08	3.295434e+01	8.710780e+02
1.380000e-06	4.794902e-06	1.329767e-08	3.332534e+01	8.759635e+02
1.390000e-06	4.846278e-06	1.335862e-08	3.368241e+01	8.804506e+02
1.400000e-06	4.895534e-06	1.341563e-08	3.402475e+01	8.844622e+02
1.410000e-06	4.943007e-06	1.346830e-08	3.435470e+01	8.879643e+02
1.420000e-06	4.988913e-06	1.351704e-08	3.467375e+01	8.909694e+02
1.430000e-06	5.033180e-06	1.356338e-08	3.498142e+01	8.935331e+02
1.440000e-06	5.075535e-06	1.360840e-08	3.527578e+01	8.957455e+02
1.450000e-06	5.115974e-06	1.365159e-08	3.555684e+01	8.977175e+02
1.460000e-06	5.154718e-06	1.369232e-08	3.582613e+01	8.995656e+02
1.470000e-06	5.191808e-06	1.373013e-08	3.608391e+01	9.013956e+02
1.480000e-06	5.227038e-06	1.376595e-08	3.632876e+01	9.032890e+02
1.490000e-06	5.260251e-06	1.379951e-08	3.655959e+01	9.052928e+02
1.500000e-06	5.291630e-06	1.382953e-08	3.677768e+01	9.074147e+02
1.510000e-06	5.321316e-06	1.385698e-08	3.698401e+01	9.096240e+02
1.520000e-06	5.349295e-06	1.388159e-08	3.717846e+01	9.118568e+02
1.530000e-06	5.375201e-06	1.390521e-08	3.735852e+01	9.140275e+02
1.540000e-06	5.399018e-06	1.392845e-08	3.752405e+01	9.160408e+02
1.550000e-06	5.421052e-06	1.394873e-08	3.767718e+01	9.178066e+02
1.560000e-06	5.441344e-06	1.396477e-08	3.781822e+01	9.192524e+02
1.570000e-06	5.459759e-06	1.397904e-08	3.794620e+01	9.203340e+02
1.580000e-06	5.476119e-06	1.399558e-08	3.805991e+01	9.210408e+02
1.590000e-06	5.490458e-06	1.401151e-08	3.815957e+01	9.213977e+02
1.600000e-06	5.502720e-06	1.402433e-08	3.824479e+01	9.214606e+02
1.610000e-06	5.512748e-06	1.403358e-08	3.831449e+01	9.213083e+02
1.620000e-06	5.520748e-06	1.403978e-08	3.837009e+01	9.210317e+02
1.630000e-06	5.526923e-06	1.404413e-08	3.841301e+01	9.207204e+02
1.640000e-06	5.531232e-06	1.404753e-08	3.844296e+01	9.204507e+02
1.650000e-06	5.533467e-06	1.405037e-08	3.845849e+01	9.202752e+02
1.660000e-06	5.533684e-06	1.405079e-08	3.846000e+01	9.202160e+02
1.670000e-06	5.532178e-06	1.404424e-08	3.844953e+01	9.202621e+02
1.680000e-06	5.529014e-06	1.403980e-08	3.842754e+01	9.203716e+02
1.690000e-06	5.523949e-06	1.403725e-08	3.839234e+01	9.204783e+02
1.700000e-06	5.516927e-06	1.402931e-08	3.834354e+01	9.205018e+02
1.710000e-06	5.508219e-06	1.401847e-08	3.828301e+01	9.203585e+02
1.720000e-06	5.497879e-06	1.400911e-08	3.821115e+01	9.199747e+02
1.730000e-06	5.485622e-06	1.400934e-08	3.812596e+01	9.192964e+02
1.740000e-06	5.471283e-06	1.398056e-08	3.802630e+01	9.182972e+02
1.750000e-06	5.454875e-06	1.389508e-08	3.791226e+01	9.169821e+02
1.760000e-06	5.435922e-06	1.389077e-08	3.778054e+01	9.153865e+02
1.770000e-06	5.414170e-06	1.390272e-08	3.762935e+01	9.135713e+02
1.780000e-06	5.390306e-06	1.391940e-08	3.746349e+01	9.116136e+02
1.790000e-06	5.365385e-06	1.395599e-08	3.729029e+01	9.095961e+02
1.800000e-06	5.339752e-06	1.379278e-08	3.711214e+01	9.075947e+02
1.810000e-06	5.312331e-06	1.379113e-08	3.692156e+01	9.056676e+02
1.820000e-06	5.282473e-06	1.388106e-08	3.671404e+01	9.038465e+02
1.830000e-06	5.251009e-06	1.373875e-08	3.649536e+01	9.021318e+02
1.840000e-06	5.217887e-06	1.380318e-08	3.626516e+01	9.004920e+02
1.850000e-06	5.182897e-06	1.381081e-08	3.602197e+01	8.988675e+02
1.860000e-06	5.146210e-06	1.365766e-08	3.576699e+01	8.971787e+02
1.870000e-06	5.107383e-06	1.375647e-08	3.549713e+01	8.953368e+02
1.880000e-06	5.066746e-06	1.366918e-08	3.521470e+01	8.932559e+02
1.890000e-06	5.024578e-06	1.355337e-08	3.492163e+01	8.908653e+02
1.900000e-06	4.980484e-06	1.358412e-08	3.461517e+01	8.881190e+02
1.910000e-06	4.934696e-06	1.343250e-08	3.429694e+01	8.850027e+02
1.920000e-06	4.887075e-06	1.346348e-08	3.396596e+01	8.815360e+02
1.930000e-06	4.837563e-06	1.343846e-08	3.362184e+01	8.777699e+02
1.940000e-06	4.786356e-06	1.332697e-08	3.326595e+01	8.737803e+02
1.950000e-06	4.732974e-06	1.336667e-08	3.289494e+01	8.696571e+02
1.960000e-06	4.677700e-06	1.323916e-08	3.251077e+01	8.654924e+02
1.970000e-06	4.620808e-06	1.318100e-08	3.211536e+01	8.613668e+02
1.980000e-06	4.562272e-06	1.309531e-08	3.170853e+01	8.573388e+02
1.990000e-06	4.502233e-06	1.301679e-08	3.129125e+01	8.534357e+02
2.000000e-06	4.440413e-06	1.304336e-08	3.086159e+01	8.496490e+02
2.010000e-06	4.376949e-06	1.293747e-08	3.042050e+01	8.459355e+02
2.020000e-06	4.312003e-06	1.293050e-08	2.996912e+01	8.422223e+02
2.030000e-06	4.245596e-06	1.283204e-08	2.950758e+01	8.384162e+02
2.040000e-06	4.177719e-06	1.272472e-08	2.903582e+01	8.344165e+02
2.050000e-06	4.108041e-06	1.267655e-08	2.855155e+01	8.301282e+02
2.060000e-06	4.036831e-06	1.253712e-08	2.805663e+01	8.254755e+02
2.070000e-06	3.964296e-06	1.250430e-08	2.755249e+01	8.204120e+02
2.080000e-06	3.890356e-06	1.241847e-08	2.703860e+01	8.149274e+02
2.090000e-06	3.814872e-06	1.236552e-08	2.651397e+01	8.090489e+02
2.100000e-06	3.737720e-06	1.229327e-08	2.597776e+01	8.028382e+02
2.110000e-06	3.659056e-06	1.217011e-08	2.543103e+01	7.963820e+02
2.120000e-06	3.579080e-06	1.209653e-08	2.487519e+01	7.897807e+02
2.130000e-06	3.497984e-06	1.197444e-08	2.431155e+01	7.831332e+02
2.140000e-06	3.415715e-06	1.189843e-08	2.373977e+01	7.765227e+02
2.150000e-06	3.332276e-06	1.179237e-08	2.315986e+01	7.700040e+02
2.160000e-06	3.247678e-06	1.169641e-08	2.257189e+01	7.635941e+02
2.170000e-06	3.161718e-06	1.160715e-08	2.197445e+01	7.572689e+02
2.180000e-06	3.074533e-06	1.148760e-08	2.136850e+01	7.509640e+02
2.190000e-06	2.986398e-06	1.138046e-08	2.075595e+01	7.445830e+02
2.200000e-06	2.897312e-06	1.125524e-08	2.013678e+01	7.380088e+02
2.210000e-06	2.807223e-06	1.114823e-08	1.951065e+01	7.311194e+02
2.220000e-06	2.716178e-06	1.103543e-08	1.887788e+01	7.238042e+02
2.230000e-06	2.624201e-06	1.092041e-08	1.823862e+01	7.159791e+02
2.240000e-06	2.531284e-06	1.078988e-08	1.759283e+01	7.075985e+02
2.250000e-06	2.437303e-06	1.065248e-08	1.693965e+01	6.986620e+02
2.260000e-06	2.342279e-06	1.051418e-08	1.627922e+01	6.892152e+02
2.270000e-06	2.246531e-06	1.037218e-08	1.561375e+01	6.793431e+02
2.280000e-06	2.150071e-06	1.023408e-08	1.494334e+01	6.691584e+02
2.290000e-06	2.052961e-06	1.009208e-08	1.426841e+01	6.587847e+02
2.300000e-06	1.955234e-06	9.955537e-09	1.358920e+01	6.483374e+02
2.310000e-06	1.856828e-06	9.808037e-09	1.290525e+01	6.379046e+02
2.320000e-06	1.757792e-06	9.647342e-09	1.221694e+01	6.275317e+02
2.330000e-06	1.658170e-06	9.469915e-09	1.152455e+01	6.172096e+02
2.340000e-06	1.558069e-06	9.295285e-09	1.082883e+01	6.068715e+02
2.350000e-06	1.457472e-06	9.120986e-09	1.012967e+01	5.963969e+02
2.360000e-06	1.356280e-06	8.936039e-09	9.426368e+00	5.856231e+02
2.370000e-06	1.254380e-06	8.748876e-09	8.718143e+00	5.743642e+02
2.380000e-06	1.151853e-06	8.558418e-09	8.005565e+00	5.624331e+02
2.390000e-06	1.048876e-06	8.365877e-09	7.289860e+00	5.496665e+02
2.400000e-06	9.455131e-07	8.157980e-09	6.571469e+00	5.359467e+02
2.410000e-06	8.418560e-07	7.934328e-09	5.851035e+00	5.212191e+02
2.420000e-06	7.379360e-07	7.701606e-09	5.128774e+00	5.055011e+02
2.430000e-06	6.338064e-07	7.464249e-09	4.405057e+00	4.888815e+02
2.440000e-06	5.295029e-07	7.224502e-09	3.680131e+00	4.715091e+02
2.450000e-06	4.250281e-07	6.977799e-09	2.954014e+00	4.535710e+02
2.460000e-06	3.204007e-07	6.719497e-09	2.226836e+00	4.352628e+02
2.470000e-06	2.156391e-07	6.449732e-09	1.498727e+00	4.167534e+02
2.480000e-06	1.108325e-07	6.165325e-09	7.703036e-01	3.981497e+02
2.490000e-06	6.065932e-09	5.863236e-09	4.215921e-02	3.794631e+02
2.500000e-06	-9.873697e-08	5.546258e-09	-6.862379e-01	3.605856e+02
2.510000e-06	-2.035470e-07	5.218988e-09	-1.414684e+00	3.412763e+02
2.520000e-06	-3.082585e-07	4.883145e-09	-2.142447e+00	3.211628e+02
2.530000e-06	-4.128530e-07	4.531141e-09	-2.869395e+00	2.997585e+02
2.540000e-06	-5.173053e-07	4.153717e-09	-3.595356e+00	2.764947e+02
2.550000e-06	-6.215504e-07	3.748049e-09	-4.319876e+00	2.507659e+02
2.560000e-06	-7.255548e-07	3.313946e-09	-5.042723e+00	2.219848e+02
2.570000e-06	-8.293405e-07	2.847191e-09	-5.764050e+00	1.896406e+02
2.580000e-06	-9.328199e-07	2.342601e-09	-6.483249e+00	1.533574e+02
2.590000e-06	-1.035949e-06	1.791311e-09	-7.200013e+00	1.129435e+02
2.600000e-06	-1.138649e-06	1.181210e-09	-7.913796e+00	6.842881e+01
2.610000e-06	-1.240835e-06	4.989228e-10	-8.624003e+00	2.008561e+01
2.620000e-06	-1.342491e-06	-2.672889e-10	-9.330526e+00	-3.157175e+01
2.630000e-06	-1.443525e-06	-1.120060e-09	-1.003273e+01	-8.580692e+01
2.640000e-06	-1.543999e-06	-2.040215e-09	-1.073104e+01	-1.417015e+02
2.650000e-06	-1.643965e-06	-2.990037e-09	-1.142583e+01	-1.982111e+02
2.660000e-06	-1.743327e-06	-3.924589e-09	-1.211641e+01	-2.542333e+02
2.670000e-06	-1.842025e-06	-4.807361e-09	-1.280237e+01	-3.086805e+02
2.680000e-06	-1.940051e-06	-5.615149e-09	-1.348366e+01	-3.605518e+02
2.690000e-06	-2.037437e-06	-6.335435e-09	-1.416052e+01	-4.089982e+02
2.700000e-06	-2.134158e-06	-6.971665e-09	-1.483274e+01	-4.533732e+02
2.710000e-06	-2.230204e-06	-7.531897e-09	-1.550028e+01	-4.932666e+02
2.720000e-06	-2.325661e-06	-8.022763e-09	-1.616372e+01	-5.285179e+02
2.730000e-06	-2.420430e-06	-8.453179e-09	-1.682238e+01	-5.592091e+02
2.740000e-06	-2.514205e-06	-8.836881e-09	-1.747413e+01	-5.856376e+02
2.750000e-06	-2.606863e-06	-9.182053e-09	-1.811812e+01	-6.082737e+02
2.760000e-06	-2.698533e-06	-9.496149e-09	-1.875524e+01	-6.277065e+02
2.770000e-06	-2.789259e-06	-9.787305e-09	-1.938580e+01	-6.445842e+02
2.780000e-06	-2.878986e-06	-1.005530e-08	-2.000941e+01	-6.595548e+02
2.790000e-06	-2.967639e-06	-1.030165e-08	-2.062557e+01	-6.732129e+02
2.800000e-06	-3.055327e-06	-1.052775e-08	-2.123501e+01	-6.860567e+02
2.810000e-06	-3.142060e-06	-1.073464e-08	-2.183783e+01	-6.984599e+02
2.820000e-06	-3.227571e-06	-1.092531e-08	-2.243214e+01	-7.106583e+02
2.830000e-06	-3.311797e-06	-1.110419e-08	-2.301752e+01	-7.227534e+02
2.840000e-06	-3.394825e-06	-1.127604e-08	-2.359458e+01	-7.347283e+02
2.850000e-06	-3.476747e-06	-1.143988e-08	-2.416396e+01	-7.464763e+02
2.860000e-06	-3.557559e-06	-1.159449e-08	-2.472561e+01	-7.578342e+02
2.870000e-06	-3.637200e-06	-1.174035e-08	-2.527913e+01	-7.686199e+02
2.880000e-06	-3.715448e-06	-1.187589e-08	-2.582296e+01	-7.786660e+02
2.890000e-06	-3.792122e-06	-1.200060e-08	-2.635586e+01	-7.878483e+02
2.900000e-06	-3.867251e-06	-1.211503e-08	-2.687802e+01	-7.961052e+02
2.910000e-06	-3.940954e-06	-1.222247e-08	-2.739027e+01	-8.034464e+02
2.920000e-06	-4.013343e-06	-1.232871e-08	-2.789338e+01	-8.099513e+02
2.930000e-06	-4.084389e-06	-1.243431e-08	-2.838716e+01	-8.157570e+02
2.940000e-06	-4.153915e-06	-1.253545e-08	-2.887038e+01	-8.210403e+02
