# Temperatura_=_25.54
# Concentracion g/m^3_=_15500.0
# C_Vs_to_Am_M_A/Vsm_=_65563218390.804596
# pendiente_HvsI_1/m_=_3716.3
# ordenada_HvsI_A/m_=_1297.0
# frecuencia_Hz_=_300804.5270243683

Tiempo_(s)	Campo_(V.s)	Magnetizacion_(V.s)	Campo_(kA/m)	Magnetizacion_(A/m)
0.000000e+00	-5.507756e-06	-1.430476e-08	-3.830926e+01	-9.368016e+02
1.000000e-08	-5.506062e-06	-1.430318e-08	-3.829748e+01	-9.366810e+02
2.000000e-08	-5.502378e-06	-1.430204e-08	-3.827186e+01	-9.366225e+02
3.000000e-08	-5.496903e-06	-1.429833e-08	-3.823378e+01	-9.365820e+02
4.000000e-08	-5.489815e-06	-1.429008e-08	-3.818448e+01	-9.364972e+02
5.000000e-08	-5.481132e-06	-1.427834e-08	-3.812408e+01	-9.362977e+02
6.000000e-08	-5.470534e-06	-1.426366e-08	-3.805037e+01	-9.359152e+02
7.000000e-08	-5.457831e-06	-1.424286e-08	-3.796201e+01	-9.352937e+02
8.000000e-08	-5.443076e-06	-1.423492e-08	-3.785939e+01	-9.343975e+02
9.000000e-08	-5.425945e-06	-1.425213e-08	-3.774023e+01	-9.332165e+02
1.000000e-07	-5.406501e-06	-1.424011e-08	-3.760498e+01	-9.317677e+02
1.100000e-07	-5.385100e-06	-1.420187e-08	-3.745613e+01	-9.300928e+02
1.200000e-07	-5.361914e-06	-1.416238e-08	-3.729486e+01	-9.282518e+02
1.300000e-07	-5.337219e-06	-1.409112e-08	-3.712309e+01	-9.263144e+02
1.400000e-07	-5.311013e-06	-1.408717e-08	-3.694082e+01	-9.243497e+02
1.500000e-07	-5.283000e-06	-1.409773e-08	-3.674597e+01	-9.224157e+02
1.600000e-07	-5.253240e-06	-1.402706e-08	-3.653898e+01	-9.205509e+02
1.700000e-07	-5.221916e-06	-1.404346e-08	-3.632110e+01	-9.187676e+02
1.800000e-07	-5.188631e-06	-1.404376e-08	-3.608959e+01	-9.170497e+02
1.900000e-07	-5.153313e-06	-1.396313e-08	-3.584393e+01	-9.153542e+02
2.000000e-07	-5.116444e-06	-1.394442e-08	-3.558749e+01	-9.136164e+02
2.100000e-07	-5.077903e-06	-1.387199e-08	-3.531942e+01	-9.117585e+02
2.200000e-07	-5.037524e-06	-1.379893e-08	-3.503856e+01	-9.096999e+02
2.300000e-07	-4.995229e-06	-1.380394e-08	-3.474438e+01	-9.073682e+02
2.400000e-07	-4.950963e-06	-1.377538e-08	-3.443648e+01	-9.047095e+02
2.500000e-07	-4.904914e-06	-1.375119e-08	-3.411619e+01	-9.016957e+02
2.600000e-07	-4.857006e-06	-1.369549e-08	-3.378296e+01	-8.983289e+02
2.700000e-07	-4.807033e-06	-1.361906e-08	-3.343538e+01	-8.946412e+02
2.800000e-07	-4.754993e-06	-1.357560e-08	-3.307341e+01	-8.906910e+02
2.900000e-07	-4.701072e-06	-1.349736e-08	-3.269836e+01	-8.865547e+02
3.000000e-07	-4.645519e-06	-1.342901e-08	-3.231197e+01	-8.823168e+02
3.100000e-07	-4.588347e-06	-1.338975e-08	-3.191430e+01	-8.780579e+02
3.200000e-07	-4.529354e-06	-1.336187e-08	-3.150398e+01	-8.738439e+02
3.300000e-07	-4.468675e-06	-1.332237e-08	-3.108192e+01	-8.697161e+02
3.400000e-07	-4.406532e-06	-1.323718e-08	-3.064969e+01	-8.656855e+02
3.500000e-07	-4.342893e-06	-1.315394e-08	-3.020705e+01	-8.617305e+02
3.600000e-07	-4.277751e-06	-1.306828e-08	-2.975395e+01	-8.577995e+02
3.700000e-07	-4.210946e-06	-1.299941e-08	-2.928929e+01	-8.538173e+02
3.800000e-07	-4.142453e-06	-1.293955e-08	-2.881289e+01	-8.496954e+02
3.900000e-07	-4.072518e-06	-1.286092e-08	-2.832645e+01	-8.453433e+02
4.000000e-07	-4.001290e-06	-1.279915e-08	-2.783102e+01	-8.406811e+02
4.100000e-07	-3.928794e-06	-1.272559e-08	-2.732678e+01	-8.356505e+02
4.200000e-07	-3.854805e-06	-1.264188e-08	-2.681215e+01	-8.302224e+02
4.300000e-07	-3.779085e-06	-1.254531e-08	-2.628547e+01	-8.244016e+02
4.400000e-07	-3.701743e-06	-1.245106e-08	-2.574752e+01	-8.182257e+02
4.500000e-07	-3.622969e-06	-1.237229e-08	-2.519961e+01	-8.117598e+02
4.600000e-07	-3.542636e-06	-1.228429e-08	-2.464085e+01	-8.050875e+02
4.700000e-07	-3.460848e-06	-1.219091e-08	-2.407197e+01	-7.982986e+02
4.800000e-07	-3.377899e-06	-1.208866e-08	-2.349502e+01	-7.914761e+02
4.900000e-07	-3.293890e-06	-1.198590e-08	-2.291069e+01	-7.846833e+02
5.000000e-07	-3.208955e-06	-1.188444e-08	-2.231993e+01	-7.779539e+02
5.100000e-07	-3.123065e-06	-1.177731e-08	-2.172252e+01	-7.712859e+02
5.200000e-07	-3.036185e-06	-1.166890e-08	-2.111823e+01	-7.646398e+02
5.300000e-07	-2.948295e-06	-1.156030e-08	-2.050690e+01	-7.579429e+02
5.400000e-07	-2.859473e-06	-1.144923e-08	-1.988910e+01	-7.510978e+02
5.500000e-07	-2.769711e-06	-1.132744e-08	-1.926476e+01	-7.439945e+02
5.600000e-07	-2.678643e-06	-1.119873e-08	-1.863133e+01	-7.365253e+02
5.700000e-07	-2.586399e-06	-1.107042e-08	-1.798973e+01	-7.285989e+02
5.800000e-07	-2.493377e-06	-1.094290e-08	-1.734272e+01	-7.201533e+02
5.900000e-07	-2.399580e-06	-1.081340e-08	-1.669031e+01	-7.111644e+02
6.000000e-07	-2.304944e-06	-1.067704e-08	-1.603207e+01	-7.016497e+02
6.100000e-07	-2.209466e-06	-1.053564e-08	-1.536797e+01	-6.916664e+02
6.200000e-07	-2.113226e-06	-1.038865e-08	-1.469857e+01	-6.813029e+02
6.300000e-07	-2.016313e-06	-1.023649e-08	-1.402449e+01	-6.706660e+02
6.400000e-07	-1.918636e-06	-1.008182e-08	-1.334510e+01	-6.598648e+02
6.500000e-07	-1.820047e-06	-9.921514e-09	-1.265936e+01	-6.489933e+02
6.600000e-07	-1.720549e-06	-9.754867e-09	-1.196730e+01	-6.381137e+02
6.700000e-07	-1.620376e-06	-9.585751e-09	-1.127054e+01	-6.272445e+02
6.800000e-07	-1.519774e-06	-9.413636e-09	-1.057080e+01	-6.163526e+02
6.900000e-07	-1.418790e-06	-9.233097e-09	-9.868415e+00	-6.053533e+02
7.000000e-07	-1.317341e-06	-9.043687e-09	-9.162782e+00	-5.941172e+02
7.100000e-07	-1.215374e-06	-8.848591e-09	-8.453548e+00	-5.824836e+02
7.200000e-07	-1.112982e-06	-8.649187e-09	-7.741362e+00	-5.702789e+02
7.300000e-07	-1.010272e-06	-8.445118e-09	-7.026962e+00	-5.573386e+02
7.400000e-07	-9.072189e-07	-8.231778e-09	-6.310172e+00	-5.435284e+02
7.500000e-07	-8.038071e-07	-8.008668e-09	-5.590890e+00	-5.287630e+02
7.600000e-07	-7.000604e-07	-7.777408e-09	-4.869279e+00	-5.130184e+02
7.700000e-07	-5.960252e-07	-7.539448e-09	-4.145661e+00	-4.963366e+02
7.800000e-07	-4.917594e-07	-7.294211e-09	-3.420439e+00	-4.788206e+02
7.900000e-07	-3.873582e-07	-7.039083e-09	-2.694275e+00	-4.606199e+02
8.000000e-07	-2.828920e-07	-6.770547e-09	-1.967659e+00	-4.419073e+02
8.100000e-07	-1.783814e-07	-6.488393e-09	-1.240734e+00	-4.228497e+02
8.200000e-07	-7.378729e-08	-6.197113e-09	-5.132284e-01	-4.035751e+02
8.300000e-07	3.087132e-08	-5.897269e-09	2.147258e-01	-3.841415e+02
8.400000e-07	1.354800e-07	-5.584748e-09	9.423326e-01	-3.645094e+02
8.500000e-07	2.400267e-07	-5.257003e-09	1.669509e+00	-3.445242e+02
8.600000e-07	3.444683e-07	-4.914720e-09	2.395953e+00	-3.239096e+02
8.700000e-07	4.487965e-07	-4.553242e-09	3.121609e+00	-3.022753e+02
8.800000e-07	5.529972e-07	-4.166244e-09	3.846379e+00	-2.791386e+02
8.900000e-07	6.569798e-07	-3.755556e-09	4.569631e+00	-2.539595e+02
9.000000e-07	7.607075e-07	-3.324777e-09	5.291110e+00	-2.261861e+02
9.100000e-07	8.641583e-07	-2.869444e-09	6.010664e+00	-1.953072e+02
9.200000e-07	9.672959e-07	-2.378679e-09	6.728038e+00	-1.609056e+02
9.300000e-07	1.070127e-06	-1.841204e-09	7.443280e+00	-1.227090e+02
9.400000e-07	1.172629e-06	-1.249097e-09	8.156238e+00	-8.063097e+01
9.500000e-07	1.274683e-06	-5.958494e-10	8.866074e+00	-3.479922e+01
9.600000e-07	1.376256e-06	1.311686e-10	9.572568e+00	1.443348e+01
9.700000e-07	1.477429e-06	9.366627e-10	1.027628e+01	6.649676e+01
9.800000e-07	1.578169e-06	1.807444e-09	1.097697e+01	1.206289e+02
9.900000e-07	1.678406e-06	2.717186e-09	1.167417e+01	1.759200e+02
1.000000e-06	1.778051e-06	3.632025e-09	1.236725e+01	2.313680e+02
1.010000e-06	1.876912e-06	4.518306e-09	1.305489e+01	2.859436e+02
1.020000e-06	1.974969e-06	5.342964e-09	1.373692e+01	3.386575e+02
1.030000e-06	2.072235e-06	6.086623e-09	1.441346e+01	3.886246e+02
1.040000e-06	2.168668e-06	6.749687e-09	1.508420e+01	4.351186e+02
1.050000e-06	2.264329e-06	7.342639e-09	1.574957e+01	4.776135e+02
1.060000e-06	2.359264e-06	7.871871e-09	1.640989e+01	5.158072e+02
1.070000e-06	2.453447e-06	8.340265e-09	1.706498e+01	5.496269e+02
1.080000e-06	2.546891e-06	8.757399e-09	1.771493e+01	5.792154e+02
1.090000e-06	2.639613e-06	9.136807e-09	1.835986e+01	6.049011e+02
1.100000e-06	2.731379e-06	9.484499e-09	1.899814e+01	6.271546e+02
1.110000e-06	2.821964e-06	9.798633e-09	1.962821e+01	6.465371e+02
1.120000e-06	2.911413e-06	1.008261e-08	2.025037e+01	6.636455e+02
1.130000e-06	2.999742e-06	1.034031e-08	2.086474e+01	6.790601e+02
1.140000e-06	3.087031e-06	1.057884e-08	2.147188e+01	6.932990e+02
1.150000e-06	3.173383e-06	1.080485e-08	2.207251e+01	7.067835e+02
1.160000e-06	3.258746e-06	1.101626e-08	2.266625e+01	7.198174e+02
1.170000e-06	3.343064e-06	1.121253e-08	2.325272e+01	7.325801e+02
1.180000e-06	3.426242e-06	1.139731e-08	2.383127e+01	7.451338e+02
1.190000e-06	3.508112e-06	1.157220e-08	2.440072e+01	7.574423e+02
1.200000e-06	3.588645e-06	1.173656e-08	2.496087e+01	7.693981e+02
1.210000e-06	3.667899e-06	1.189124e-08	2.551211e+01	7.808544e+02
1.220000e-06	3.745841e-06	1.203714e-08	2.605425e+01	7.916577e+02
1.230000e-06	3.822413e-06	1.217522e-08	2.658684e+01	8.016768e+02
1.240000e-06	3.897492e-06	1.230626e-08	2.710906e+01	8.108255e+02
1.250000e-06	3.970988e-06	1.243017e-08	2.762026e+01	8.190766e+02
1.260000e-06	4.042985e-06	1.254661e-08	2.812103e+01	8.264662e+02
1.270000e-06	4.113543e-06	1.265566e-08	2.861180e+01	8.330892e+02
1.280000e-06	4.182752e-06	1.275773e-08	2.909318e+01	8.390861e+02
1.290000e-06	4.250590e-06	1.285591e-08	2.956503e+01	8.446247e+02
1.300000e-06	4.316813e-06	1.295091e-08	3.002565e+01	8.498788e+02
1.310000e-06	4.381381e-06	1.304116e-08	3.047475e+01	8.550072e+02
1.320000e-06	4.444446e-06	1.312634e-08	3.091340e+01	8.601355e+02
1.330000e-06	4.506111e-06	1.320667e-08	3.134231e+01	8.653434e+02
1.340000e-06	4.566337e-06	1.328402e-08	3.176121e+01	8.706580e+02
1.350000e-06	4.624882e-06	1.336136e-08	3.216842e+01	8.760553e+02
1.360000e-06	4.681602e-06	1.343901e-08	3.256294e+01	8.814674e+02
1.370000e-06	4.736644e-06	1.351303e-08	3.294579e+01	8.867951e+02
1.380000e-06	4.789987e-06	1.357976e-08	3.331682e+01	8.919248e+02
1.390000e-06	4.841378e-06	1.363942e-08	3.367426e+01	8.967453e+02
1.400000e-06	4.890747e-06	1.369446e-08	3.401765e+01	9.011640e+02
1.410000e-06	4.938258e-06	1.374785e-08	3.434812e+01	9.051194e+02
1.420000e-06	4.984110e-06	1.379997e-08	3.466704e+01	9.085891e+02
1.430000e-06	5.028351e-06	1.385244e-08	3.497476e+01	9.115919e+02
1.440000e-06	5.070718e-06	1.390589e-08	3.526944e+01	9.141837e+02
1.450000e-06	5.111168e-06	1.395617e-08	3.555079e+01	9.164494e+02
1.460000e-06	5.149916e-06	1.399865e-08	3.582030e+01	9.184903e+02
1.470000e-06	5.187002e-06	1.403379e-08	3.607826e+01	9.204101e+02
1.480000e-06	5.222223e-06	1.406749e-08	3.632324e+01	9.223011e+02
1.490000e-06	5.255451e-06	1.410030e-08	3.655436e+01	9.242320e+02
1.500000e-06	5.286874e-06	1.413018e-08	3.677292e+01	9.262405e+02
1.510000e-06	5.316631e-06	1.415887e-08	3.697990e+01	9.283288e+02
1.520000e-06	5.344601e-06	1.418896e-08	3.717444e+01	9.304656e+02
1.530000e-06	5.370485e-06	1.421763e-08	3.735448e+01	9.325920e+02
1.540000e-06	5.394298e-06	1.424234e-08	3.752011e+01	9.346309e+02
1.550000e-06	5.416300e-06	1.426333e-08	3.767314e+01	9.364988e+02
1.560000e-06	5.436617e-06	1.428174e-08	3.781446e+01	9.381188e+02
1.570000e-06	5.455080e-06	1.429852e-08	3.794288e+01	9.394309e+02
1.580000e-06	5.471467e-06	1.431352e-08	3.805686e+01	9.404007e+02
1.590000e-06	5.485873e-06	1.432591e-08	3.815706e+01	9.410243e+02
1.600000e-06	5.498210e-06	1.433615e-08	3.824287e+01	9.413280e+02
1.610000e-06	5.508317e-06	1.434558e-08	3.831317e+01	9.413647e+02
1.620000e-06	5.516335e-06	1.435392e-08	3.836894e+01	9.412058e+02
1.630000e-06	5.522462e-06	1.436179e-08	3.841155e+01	9.409311e+02
1.640000e-06	5.526793e-06	1.436750e-08	3.844168e+01	9.406180e+02
1.650000e-06	5.529121e-06	1.437004e-08	3.845787e+01	9.403303e+02
1.660000e-06	5.529427e-06	1.436861e-08	3.846000e+01	9.401099e+02
1.670000e-06	5.527974e-06	1.436282e-08	3.844990e+01	9.399719e+02
1.680000e-06	5.524858e-06	1.435815e-08	3.842822e+01	9.399025e+02
1.690000e-06	5.519873e-06	1.435357e-08	3.839355e+01	9.398622e+02
1.700000e-06	5.512946e-06	1.434579e-08	3.834537e+01	9.397921e+02
1.710000e-06	5.504338e-06	1.433647e-08	3.828549e+01	9.396225e+02
1.720000e-06	5.494106e-06	1.432865e-08	3.821433e+01	9.392840e+02
1.730000e-06	5.481927e-06	1.432606e-08	3.812961e+01	9.387169e+02
1.740000e-06	5.467672e-06	1.428550e-08	3.803046e+01	9.378807e+02
1.750000e-06	5.451418e-06	1.423559e-08	3.791740e+01	9.367595e+02
1.760000e-06	5.432657e-06	1.422697e-08	3.778691e+01	9.353648e+02
1.770000e-06	5.411090e-06	1.422248e-08	3.763691e+01	9.337332e+02
1.780000e-06	5.387395e-06	1.425278e-08	3.747209e+01	9.319215e+02
1.790000e-06	5.362559e-06	1.422923e-08	3.729934e+01	9.299981e+02
1.800000e-06	5.336920e-06	1.413408e-08	3.712101e+01	9.280332e+02
1.810000e-06	5.309501e-06	1.415336e-08	3.693030e+01	9.260880e+02
1.820000e-06	5.279735e-06	1.413048e-08	3.672326e+01	9.242058e+02
1.830000e-06	5.248351e-06	1.407430e-08	3.650497e+01	9.224048e+02
1.840000e-06	5.215284e-06	1.411880e-08	3.627497e+01	9.206750e+02
1.850000e-06	5.180352e-06	1.405085e-08	3.603201e+01	9.189789e+02
1.860000e-06	5.143652e-06	1.401093e-08	3.577674e+01	9.172559e+02
1.870000e-06	5.104893e-06	1.404202e-08	3.550714e+01	9.154299e+02
1.880000e-06	5.064382e-06	1.393035e-08	3.522537e+01	9.134202e+02
1.890000e-06	5.022298e-06	1.388725e-08	3.493266e+01	9.111517e+02
1.900000e-06	4.978338e-06	1.382903e-08	3.462689e+01	9.085658e+02
1.910000e-06	4.932614e-06	1.373867e-08	3.430886e+01	9.056284e+02
1.920000e-06	4.885036e-06	1.377814e-08	3.397793e+01	9.023349e+02
1.930000e-06	4.835588e-06	1.368946e-08	3.363400e+01	8.987113e+02
1.940000e-06	4.784325e-06	1.364410e-08	3.327743e+01	8.948107e+02
1.950000e-06	4.730959e-06	1.364142e-08	3.290624e+01	8.907067e+02
1.960000e-06	4.675810e-06	1.352198e-08	3.252266e+01	8.864828e+02
1.970000e-06	4.619015e-06	1.346732e-08	3.212762e+01	8.822216e+02
1.980000e-06	4.560539e-06	1.337790e-08	3.172089e+01	8.779930e+02
1.990000e-06	4.500513e-06	1.332758e-08	3.130337e+01	8.738441e+02
2.000000e-06	4.438743e-06	1.330132e-08	3.087373e+01	8.697927e+02
2.010000e-06	4.375344e-06	1.322912e-08	3.043276e+01	8.658243e+02
2.020000e-06	4.310442e-06	1.319269e-08	2.998133e+01	8.618932e+02
2.030000e-06	4.244098e-06	1.308948e-08	2.951988e+01	8.579286e+02
2.040000e-06	4.176306e-06	1.301992e-08	2.904835e+01	8.538437e+02
2.050000e-06	4.106736e-06	1.293507e-08	2.856445e+01	8.495476e+02
2.060000e-06	4.035569e-06	1.283534e-08	2.806945e+01	8.449570e+02
2.070000e-06	3.963107e-06	1.278425e-08	2.756544e+01	8.400082e+02
2.080000e-06	3.889306e-06	1.269727e-08	2.705212e+01	8.346655e+02
2.090000e-06	3.813898e-06	1.263838e-08	2.652761e+01	8.289262e+02
2.100000e-06	3.736717e-06	1.254050e-08	2.599078e+01	8.228210e+02
2.110000e-06	3.658034e-06	1.243945e-08	2.544350e+01	8.164101e+02
2.120000e-06	3.578080e-06	1.235395e-08	2.488738e+01	8.097738e+02
2.130000e-06	3.496994e-06	1.225167e-08	2.432339e+01	8.030019e+02
2.140000e-06	3.414764e-06	1.216879e-08	2.375143e+01	7.961798e+02
2.150000e-06	3.331454e-06	1.206590e-08	2.317197e+01	7.893760e+02
2.160000e-06	3.246966e-06	1.196853e-08	2.258431e+01	7.826314e+02
2.170000e-06	3.161025e-06	1.185713e-08	2.198655e+01	7.759517e+02
2.180000e-06	3.073895e-06	1.174477e-08	2.138052e+01	7.693054e+02
2.190000e-06	2.985821e-06	1.163118e-08	2.076792e+01	7.626263e+02
2.200000e-06	2.896773e-06	1.151319e-08	2.014854e+01	7.558213e+02
2.210000e-06	2.806747e-06	1.140403e-08	1.952237e+01	7.487821e+02
2.220000e-06	2.715773e-06	1.128887e-08	1.888960e+01	7.413992e+02
2.230000e-06	2.623947e-06	1.117024e-08	1.825090e+01	7.335765e+02
2.240000e-06	2.531274e-06	1.103268e-08	1.760631e+01	7.252450e+02
2.250000e-06	2.437496e-06	1.089437e-08	1.695403e+01	7.163718e+02
2.260000e-06	2.342640e-06	1.075317e-08	1.629426e+01	7.069657e+02
2.270000e-06	2.247058e-06	1.061891e-08	1.562944e+01	6.970756e+02
2.280000e-06	2.150757e-06	1.047715e-08	1.495961e+01	6.867843e+02
2.290000e-06	2.053747e-06	1.032716e-08	1.428486e+01	6.761960e+02
2.300000e-06	1.956110e-06	1.018033e-08	1.360575e+01	6.654207e+02
2.310000e-06	1.857825e-06	1.002740e-08	1.292212e+01	6.545571e+02
2.320000e-06	1.758922e-06	9.868506e-09	1.223420e+01	6.436755e+02
2.330000e-06	1.659499e-06	9.690397e-09	1.154267e+01	6.328044e+02
2.340000e-06	1.559609e-06	9.514376e-09	1.084788e+01	6.219222e+02
2.350000e-06	1.459139e-06	9.337869e-09	1.014906e+01	6.109548e+02
2.360000e-06	1.357971e-06	9.154473e-09	9.445383e+00	5.997816e+02
2.370000e-06	1.256053e-06	8.962194e-09	8.736493e+00	5.882470e+02
2.380000e-06	1.153563e-06	8.761942e-09	8.023623e+00	5.761785e+02
2.390000e-06	1.050695e-06	8.562709e-09	7.308120e+00	5.634079e+02
2.400000e-06	9.474839e-07	8.353929e-09	6.590236e+00	5.497926e+02
2.410000e-06	8.439539e-07	8.132402e-09	5.870132e+00	5.352356e+02
2.420000e-06	7.401295e-07	7.898136e-09	5.147980e+00	5.196989e+02
2.430000e-06	6.360590e-07	7.656932e-09	4.424116e+00	5.032106e+02
2.440000e-06	5.318352e-07	7.414502e-09	3.699186e+00	4.858614e+02
2.450000e-06	4.274552e-07	7.166055e-09	2.973170e+00	4.677926e+02
2.460000e-06	3.229112e-07	6.901843e-09	2.246013e+00	4.491744e+02
2.470000e-06	2.182120e-07	6.624022e-09	1.517776e+00	4.301774e+02
2.480000e-06	1.134094e-07	6.337896e-09	7.888207e-01	4.109410e+02
2.490000e-06	8.606403e-09	6.040576e-09	5.986195e-02	3.915405e+02
2.500000e-06	-9.624467e-08	5.726077e-09	-6.694310e-01	3.719593e+02
2.510000e-06	-2.010081e-07	5.396235e-09	-1.398114e+00	3.520682e+02
2.520000e-06	-3.055895e-07	5.058297e-09	-2.125531e+00	3.316171e+02
2.530000e-06	-4.100657e-07	4.707893e-09	-2.852217e+00	3.102386e+02
2.540000e-06	-5.144381e-07	4.336654e-09	-3.578181e+00	2.874674e+02
2.550000e-06	-6.186635e-07	3.938548e-09	-4.303122e+00	2.627721e+02
2.560000e-06	-7.226313e-07	3.516350e-09	-5.026271e+00	2.355993e+02
2.570000e-06	-8.263325e-07	3.068799e-09	-5.747566e+00	2.054244e+02
2.580000e-06	-9.297539e-07	2.588069e-09	-6.466915e+00	1.718056e+02
2.590000e-06	-1.032834e-06	2.066002e-09	-7.183892e+00	1.344358e+02
2.600000e-06	-1.135509e-06	1.493064e-09	-7.898047e+00	9.318568e+01
2.610000e-06	-1.237683e-06	8.621927e-10	-8.608721e+00	4.813567e+01
2.620000e-06	-1.339269e-06	1.627233e-10	-9.315303e+00	-4.097416e-01
2.630000e-06	-1.440213e-06	-6.141065e-10	-1.001742e+01	-5.192524e+01
2.640000e-06	-1.540569e-06	-1.464070e-09	-1.071545e+01	-1.056870e+02
2.650000e-06	-1.640391e-06	-2.366625e-09	-1.140976e+01	-1.608126e+02
2.660000e-06	-1.739622e-06	-3.287369e-09	-1.209996e+01	-2.163143e+02
2.670000e-06	-1.838208e-06	-4.189767e-09	-1.278568e+01	-2.711631e+02
2.680000e-06	-1.936186e-06	-5.044196e-09	-1.346717e+01	-3.243555e+02
2.690000e-06	-2.033537e-06	-5.826947e-09	-1.414429e+01	-3.749791e+02
2.700000e-06	-2.130171e-06	-6.528460e-09	-1.481643e+01	-4.222696e+02
2.710000e-06	-2.226154e-06	-7.151593e-09	-1.548404e+01	-4.656553e+02
2.720000e-06	-2.321575e-06	-7.703259e-09	-1.614774e+01	-5.047851e+02
2.730000e-06	-2.416262e-06	-8.191775e-09	-1.680634e+01	-5.395377e+02
2.740000e-06	-2.509984e-06	-8.627096e-09	-1.745822e+01	-5.700116e+02
2.750000e-06	-2.602670e-06	-9.020385e-09	-1.810291e+01	-5.964987e+02
2.760000e-06	-2.694342e-06	-9.378082e-09	-1.874053e+01	-6.194433e+02
2.770000e-06	-2.784998e-06	-9.704485e-09	-1.937109e+01	-6.393918e+02
2.780000e-06	-2.874647e-06	-1.000171e-08	-1.999464e+01	-6.569380e+02
2.790000e-06	-2.963295e-06	-1.027117e-08	-2.061124e+01	-6.726698e+02
2.800000e-06	-3.051000e-06	-1.051901e-08	-2.122127e+01	-6.871220e+02
2.810000e-06	-3.137665e-06	-1.075107e-08	-2.182407e+01	-7.007390e+02
2.820000e-06	-3.223115e-06	-1.096824e-08	-2.241842e+01	-7.138507e+02
2.830000e-06	-3.307284e-06	-1.117047e-08	-2.300386e+01	-7.266632e+02
2.840000e-06	-3.390218e-06	-1.135919e-08	-2.358071e+01	-7.392624e+02
2.850000e-06	-3.472065e-06	-1.153649e-08	-2.414999e+01	-7.516311e+02
2.860000e-06	-3.552797e-06	-1.170378e-08	-2.471152e+01	-7.636746e+02
2.870000e-06	-3.632361e-06	-1.186072e-08	-2.526494e+01	-7.752517e+02
2.880000e-06	-3.710558e-06	-1.200779e-08	-2.580883e+01	-7.862078e+02
2.890000e-06	-3.787174e-06	-1.214731e-08	-2.634174e+01	-7.964046e+02
2.900000e-06	-3.862271e-06	-1.228057e-08	-2.686407e+01	-8.057449e+02
2.910000e-06	-3.935960e-06	-1.240618e-08	-2.737662e+01	-8.141880e+02
2.920000e-06	-4.008326e-06	-1.252230e-08	-2.787996e+01	-8.217568e+02
2.930000e-06	-4.079317e-06	-1.263013e-08	-2.837374e+01	-8.285341e+02
2.940000e-06	-4.148755e-06	-1.273491e-08	-2.885672e+01	-8.346522e+02
