# Temperatura_=_66.55
# Concentracion g/m^3_=_15500.0
# C_Vs_to_Am_M_A/Vsm_=_65563218390.804596
# pendiente_HvsI_1/m_=_3716.3
# ordenada_HvsI_A/m_=_1297.0
# frecuencia_Hz_=_300797.33352260914

Tiempo_(s)	Campo_(V.s)	Magnetizacion_(V.s)	Campo_(kA/m)	Magnetizacion_(A/m)
0.000000e+00	-5.482738e-06	-1.468790e-08	-3.830733e+01	-9.629022e+02
1.000000e-08	-5.480518e-06	-1.468423e-08	-3.829182e+01	-9.630960e+02
2.000000e-08	-5.476328e-06	-1.467653e-08	-3.826254e+01	-9.632780e+02
3.000000e-08	-5.470481e-06	-1.467281e-08	-3.822169e+01	-9.633553e+02
4.000000e-08	-5.462981e-06	-1.466798e-08	-3.816929e+01	-9.632332e+02
5.000000e-08	-5.453824e-06	-1.465475e-08	-3.810531e+01	-9.628295e+02
6.000000e-08	-5.442677e-06	-1.463087e-08	-3.802743e+01	-9.620857e+02
7.000000e-08	-5.429455e-06	-1.458364e-08	-3.793505e+01	-9.609763e+02
8.000000e-08	-5.414263e-06	-1.458372e-08	-3.782890e+01	-9.595116e+02
9.000000e-08	-5.396653e-06	-1.467156e-08	-3.770587e+01	-9.577372e+02
1.000000e-07	-5.376700e-06	-1.463404e-08	-3.756645e+01	-9.557271e+02
1.100000e-07	-5.354826e-06	-1.455246e-08	-3.741362e+01	-9.535732e+02
1.200000e-07	-5.331221e-06	-1.452633e-08	-3.724869e+01	-9.513727e+02
1.300000e-07	-5.306241e-06	-1.435308e-08	-3.707416e+01	-9.492136e+02
1.400000e-07	-5.279723e-06	-1.444536e-08	-3.688889e+01	-9.471621e+02
1.500000e-07	-5.251226e-06	-1.454575e-08	-3.668978e+01	-9.452529e+02
1.600000e-07	-5.221059e-06	-1.423731e-08	-3.647901e+01	-9.434837e+02
1.700000e-07	-5.189346e-06	-1.437522e-08	-3.625743e+01	-9.418147e+02
1.800000e-07	-5.155633e-06	-1.446517e-08	-3.602188e+01	-9.401733e+02
1.900000e-07	-5.119944e-06	-1.420790e-08	-3.577253e+01	-9.384640e+02
2.000000e-07	-5.082743e-06	-1.431901e-08	-3.551261e+01	-9.365803e+02
2.100000e-07	-5.043796e-06	-1.421339e-08	-3.524049e+01	-9.344201e+02
2.200000e-07	-5.003034e-06	-1.404905e-08	-3.495569e+01	-9.318987e+02
2.300000e-07	-4.960332e-06	-1.415908e-08	-3.465733e+01	-9.289607e+02
2.400000e-07	-4.915635e-06	-1.406758e-08	-3.434504e+01	-9.255880e+02
2.500000e-07	-4.869267e-06	-1.403489e-08	-3.402107e+01	-9.218019e+02
2.600000e-07	-4.821084e-06	-1.399653e-08	-3.368442e+01	-9.176610e+02
2.700000e-07	-4.770910e-06	-1.387963e-08	-3.333386e+01	-9.132527e+02
2.800000e-07	-4.718639e-06	-1.387663e-08	-3.296865e+01	-9.086815e+02
2.900000e-07	-4.664498e-06	-1.377589e-08	-3.259037e+01	-9.040548e+02
3.000000e-07	-4.608771e-06	-1.369278e-08	-3.220101e+01	-8.994678e+02
3.100000e-07	-4.551411e-06	-1.364127e-08	-3.180024e+01	-8.949901e+02
3.200000e-07	-4.492208e-06	-1.361771e-08	-3.138660e+01	-8.906560e+02
3.300000e-07	-4.431289e-06	-1.357362e-08	-3.096097e+01	-8.864589e+02
3.400000e-07	-4.368869e-06	-1.344462e-08	-3.052484e+01	-8.823525e+02
3.500000e-07	-4.304968e-06	-1.340107e-08	-3.007837e+01	-8.782559e+02
3.600000e-07	-4.239670e-06	-1.329765e-08	-2.962214e+01	-8.740647e+02
3.700000e-07	-4.172721e-06	-1.321860e-08	-2.915438e+01	-8.696655e+02
3.800000e-07	-4.104071e-06	-1.317765e-08	-2.867472e+01	-8.649508e+02
3.900000e-07	-4.034007e-06	-1.305367e-08	-2.818520e+01	-8.598342e+02
4.000000e-07	-3.962684e-06	-1.298699e-08	-2.768687e+01	-8.542625e+02
4.100000e-07	-3.890113e-06	-1.290318e-08	-2.717982e+01	-8.482231e+02
4.200000e-07	-3.816075e-06	-1.281871e-08	-2.666253e+01	-8.417460e+02
4.300000e-07	-3.740310e-06	-1.271208e-08	-2.613316e+01	-8.348999e+02
4.400000e-07	-3.662907e-06	-1.260831e-08	-2.559235e+01	-8.277826e+02
4.500000e-07	-3.584095e-06	-1.253535e-08	-2.504171e+01	-8.205070e+02
4.600000e-07	-3.503842e-06	-1.243026e-08	-2.448099e+01	-8.131851e+02
4.700000e-07	-3.422205e-06	-1.232752e-08	-2.391060e+01	-8.059113e+02
4.800000e-07	-3.339339e-06	-1.220154e-08	-2.333162e+01	-7.987483e+02
4.900000e-07	-3.255333e-06	-1.209325e-08	-2.274468e+01	-7.917166e+02
5.000000e-07	-3.170360e-06	-1.199390e-08	-2.215098e+01	-7.847901e+02
5.100000e-07	-3.084480e-06	-1.187153e-08	-2.155095e+01	-7.778984e+02
5.200000e-07	-2.997631e-06	-1.174685e-08	-2.094414e+01	-7.709344e+02
5.300000e-07	-2.909797e-06	-1.162164e-08	-2.033045e+01	-7.637684e+02
5.400000e-07	-2.821003e-06	-1.150462e-08	-1.971006e+01	-7.562654e+02
5.500000e-07	-2.731329e-06	-1.137947e-08	-1.908352e+01	-7.483035e+02
5.600000e-07	-2.640523e-06	-1.124277e-08	-1.844906e+01	-7.397907e+02
5.700000e-07	-2.548448e-06	-1.110270e-08	-1.780575e+01	-7.306790e+02
5.800000e-07	-2.455507e-06	-1.096342e-08	-1.715638e+01	-7.209715e+02
5.900000e-07	-2.361891e-06	-1.082395e-08	-1.650229e+01	-7.107232e+02
6.000000e-07	-2.267476e-06	-1.066927e-08	-1.584263e+01	-7.000339e+02
6.100000e-07	-2.172241e-06	-1.051061e-08	-1.517722e+01	-6.890345e+02
6.200000e-07	-2.076198e-06	-1.035635e-08	-1.450618e+01	-6.778682e+02
6.300000e-07	-1.979440e-06	-1.020372e-08	-1.383014e+01	-6.666690e+02
6.400000e-07	-1.882056e-06	-1.004694e-08	-1.314974e+01	-6.555402e+02
6.500000e-07	-1.783917e-06	-9.873215e-09	-1.246404e+01	-6.445365e+02
6.600000e-07	-1.684920e-06	-9.693657e-09	-1.177236e+01	-6.336513e+02
6.700000e-07	-1.585110e-06	-9.513506e-09	-1.107500e+01	-6.228129e+02
6.800000e-07	-1.484645e-06	-9.327299e-09	-1.037307e+01	-6.118883e+02
6.900000e-07	-1.383761e-06	-9.130896e-09	-9.668200e+00	-6.006973e+02
7.000000e-07	-1.282577e-06	-8.931493e-09	-8.961234e+00	-5.890328e+02
7.100000e-07	-1.181064e-06	-8.733957e-09	-8.251977e+00	-5.766862e+02
7.200000e-07	-1.079123e-06	-8.530840e-09	-7.539725e+00	-5.634753e+02
7.300000e-07	-9.767539e-07	-8.317068e-09	-6.824480e+00	-5.492688e+02
7.400000e-07	-8.740528e-07	-8.089757e-09	-6.106918e+00	-5.340061e+02
7.500000e-07	-7.710473e-07	-7.856549e-09	-5.387229e+00	-5.177075e+02
7.600000e-07	-6.677303e-07	-7.615803e-09	-4.665363e+00	-5.004733e+02
7.700000e-07	-5.641584e-07	-7.367509e-09	-3.941717e+00	-4.824714e+02
7.800000e-07	-4.604078e-07	-7.109191e-09	-3.216822e+00	-4.639128e+02
7.900000e-07	-3.565478e-07	-6.841382e-09	-2.491163e+00	-4.450187e+02
8.000000e-07	-2.525621e-07	-6.566927e-09	-1.764626e+00	-4.259808e+02
8.100000e-07	-1.484477e-07	-6.276539e-09	-1.037189e+00	-4.069217e+02
8.200000e-07	-4.426293e-08	-5.969668e-09	-3.092606e-01	-3.878580e+02
8.300000e-07	5.991541e-08	-5.648412e-09	4.186228e-01	-3.686730e+02
8.400000e-07	1.640149e-07	-5.315934e-09	1.145955e+00	-3.491023e+02
8.500000e-07	2.680506e-07	-4.968364e-09	1.872842e+00	-3.287347e+02
8.600000e-07	3.720054e-07	-4.599668e-09	2.599164e+00	-3.070319e+02
8.700000e-07	4.758324e-07	-4.204711e-09	3.324593e+00	-2.833639e+02
8.800000e-07	5.794909e-07	-3.781841e-09	4.048844e+00	-2.570598e+02
8.900000e-07	6.829515e-07	-3.332139e-09	4.771712e+00	-2.274686e+02
9.000000e-07	7.861652e-07	-2.851131e-09	5.492856e+00	-1.940243e+02
9.100000e-07	8.890935e-07	-2.328645e-09	6.212005e+00	-1.563100e+02
9.200000e-07	9.917104e-07	-1.753945e-09	6.928979e+00	-1.141126e+02
9.300000e-07	1.093962e-06	-1.113172e-09	7.643397e+00	-6.746456e+01
9.400000e-07	1.195831e-06	-3.896560e-10	8.355151e+00	-1.666499e+01
9.500000e-07	1.297358e-06	4.276179e-10	9.064509e+00	3.772004e+01
9.600000e-07	1.398531e-06	1.340232e-09	9.771393e+00	9.488105e+01
9.700000e-07	1.499279e-06	2.323580e-09	1.047531e+01	1.538098e+02
9.800000e-07	1.599531e-06	3.333441e-09	1.117576e+01	2.133622e+02
9.900000e-07	1.699132e-06	4.319737e-09	1.187166e+01	2.723336e+02
1.000000e-06	1.797944e-06	5.240033e-09	1.256205e+01	3.295395e+02
1.010000e-06	1.896002e-06	6.067628e-09	1.324717e+01	3.838957e+02
1.020000e-06	1.993351e-06	6.791689e-09	1.392734e+01	4.344888e+02
1.030000e-06	2.089953e-06	7.420770e-09	1.460229e+01	4.806318e+02
1.040000e-06	2.185791e-06	7.971069e-09	1.527190e+01	5.219006e+02
1.050000e-06	2.280854e-06	8.458680e-09	1.593609e+01	5.581472e+02
1.060000e-06	2.375179e-06	8.890980e-09	1.659514e+01	5.894899e+02
1.070000e-06	2.468771e-06	9.275018e-09	1.724905e+01	6.162822e+02
1.080000e-06	2.561675e-06	9.621606e-09	1.789816e+01	6.390645e+02
1.090000e-06	2.653764e-06	9.937912e-09	1.854158e+01	6.585028e+02
1.100000e-06	2.744656e-06	1.022517e-08	1.917663e+01	6.753226e+02
1.110000e-06	2.834328e-06	1.048470e-08	1.980316e+01	6.902420e+02
1.120000e-06	2.922970e-06	1.072539e-08	2.042249e+01	7.039138e+02
1.130000e-06	3.010672e-06	1.095211e-08	2.103526e+01	7.168786e+02
1.140000e-06	3.097360e-06	1.116610e-08	2.164094e+01	7.295341e+02
1.150000e-06	3.183010e-06	1.136672e-08	2.223937e+01	7.421223e+02
1.160000e-06	3.267729e-06	1.155466e-08	2.283129e+01	7.547339e+02
1.170000e-06	3.351383e-06	1.173247e-08	2.341577e+01	7.673289e+02
1.180000e-06	3.433786e-06	1.190204e-08	2.399151e+01	7.797679e+02
1.190000e-06	3.514883e-06	1.206191e-08	2.455813e+01	7.918517e+02
1.200000e-06	3.594709e-06	1.220992e-08	2.511587e+01	8.033623e+02
1.210000e-06	3.673238e-06	1.235091e-08	2.566454e+01	8.141019e+02
1.220000e-06	3.750430e-06	1.248644e-08	2.620387e+01	8.239235e+02
1.230000e-06	3.826205e-06	1.261548e-08	2.673331e+01	8.327531e+02
1.240000e-06	3.900390e-06	1.273772e-08	2.725163e+01	8.405979e+02
1.250000e-06	3.973048e-06	1.285562e-08	2.775928e+01	8.475445e+02
1.260000e-06	4.044315e-06	1.296925e-08	2.825722e+01	8.537448e+02
1.270000e-06	4.114266e-06	1.307575e-08	2.874596e+01	8.593945e+02
1.280000e-06	4.182916e-06	1.317387e-08	2.922560e+01	8.647070e+02
1.290000e-06	4.250014e-06	1.326732e-08	2.969441e+01	8.698860e+02
1.300000e-06	4.315398e-06	1.335979e-08	3.015125e+01	8.751008e+02
1.310000e-06	4.379253e-06	1.344944e-08	3.059739e+01	8.804678e+02
1.320000e-06	4.441676e-06	1.353509e-08	3.103353e+01	8.860395e+02
1.330000e-06	4.502732e-06	1.361610e-08	3.146013e+01	8.918025e+02
1.340000e-06	4.562363e-06	1.369413e-08	3.187677e+01	8.976845e+02
1.350000e-06	4.620200e-06	1.376953e-08	3.228087e+01	9.035687e+02
1.360000e-06	4.676211e-06	1.384232e-08	3.267221e+01	9.093129e+02
1.370000e-06	4.730546e-06	1.391287e-08	3.305184e+01	9.147713e+02
1.380000e-06	4.783044e-06	1.398078e-08	3.341864e+01	9.198153e+02
1.390000e-06	4.833467e-06	1.404551e-08	3.377094e+01	9.243515e+02
1.400000e-06	4.881982e-06	1.410564e-08	3.410991e+01	9.283334e+02
1.410000e-06	4.928845e-06	1.416029e-08	3.443734e+01	9.317662e+02
1.420000e-06	4.974134e-06	1.421126e-08	3.475377e+01	9.347044e+02
1.430000e-06	5.017687e-06	1.426144e-08	3.505807e+01	9.372431e+02
1.440000e-06	5.059279e-06	1.431154e-08	3.534867e+01	9.395030e+02
1.450000e-06	5.099125e-06	1.436047e-08	3.562706e+01	9.416136e+02
1.460000e-06	5.137321e-06	1.440593e-08	3.589394e+01	9.436950e+02
1.470000e-06	5.173834e-06	1.444716e-08	3.614905e+01	9.458422e+02
1.480000e-06	5.208357e-06	1.448394e-08	3.639026e+01	9.481125e+02
1.490000e-06	5.240864e-06	1.451602e-08	3.661738e+01	9.505198e+02
1.500000e-06	5.271706e-06	1.454515e-08	3.683287e+01	9.530343e+02
1.510000e-06	5.300914e-06	1.457410e-08	3.703695e+01	9.555881e+02
1.520000e-06	5.328192e-06	1.460299e-08	3.722753e+01	9.580866e+02
1.530000e-06	5.353325e-06	1.463042e-08	3.740313e+01	9.604231e+02
1.540000e-06	5.376546e-06	1.465606e-08	3.756538e+01	9.624941e+02
1.550000e-06	5.398054e-06	1.467840e-08	3.771565e+01	9.642148e+02
1.560000e-06	5.417790e-06	1.469684e-08	3.785355e+01	9.655306e+02
1.570000e-06	5.435512e-06	1.471312e-08	3.797737e+01	9.664251e+02
1.580000e-06	5.451198e-06	1.472818e-08	3.808696e+01	9.669214e+02
1.590000e-06	5.464969e-06	1.474124e-08	3.818318e+01	9.670787e+02
1.600000e-06	5.476566e-06	1.475119e-08	3.826421e+01	9.669838e+02
1.610000e-06	5.485938e-06	1.476027e-08	3.832969e+01	9.667383e+02
1.620000e-06	5.493380e-06	1.476946e-08	3.838168e+01	9.664446e+02
1.630000e-06	5.499054e-06	1.477580e-08	3.842133e+01	9.661914e+02
1.640000e-06	5.502875e-06	1.477771e-08	3.844803e+01	9.660416e+02
1.650000e-06	5.504589e-06	1.478010e-08	3.846000e+01	9.660242e+02
1.660000e-06	5.504375e-06	1.477940e-08	3.845851e+01	9.661306e+02
1.670000e-06	5.502472e-06	1.476920e-08	3.844521e+01	9.663166e+02
1.680000e-06	5.498844e-06	1.476696e-08	3.841986e+01	9.665093e+02
1.690000e-06	5.493272e-06	1.476235e-08	3.838093e+01	9.666177e+02
1.700000e-06	5.485833e-06	1.475221e-08	3.832895e+01	9.665464e+02
1.710000e-06	5.476816e-06	1.474271e-08	3.826596e+01	9.662095e+02
1.720000e-06	5.466085e-06	1.474150e-08	3.819098e+01	9.655425e+02
1.730000e-06	5.453298e-06	1.476775e-08	3.810164e+01	9.645124e+02
1.740000e-06	5.438511e-06	1.466271e-08	3.799832e+01	9.631217e+02
1.750000e-06	5.421684e-06	1.455498e-08	3.788075e+01	9.614088e+02
1.760000e-06	5.402200e-06	1.459742e-08	3.774462e+01	9.594424e+02
1.770000e-06	5.380016e-06	1.458743e-08	3.758962e+01	9.573117e+02
1.780000e-06	5.355971e-06	1.472015e-08	3.742162e+01	9.551139e+02
1.790000e-06	5.331062e-06	1.464608e-08	3.724759e+01	9.529399e+02
1.800000e-06	5.305291e-06	1.436141e-08	3.706753e+01	9.508618e+02
1.810000e-06	5.277281e-06	1.463230e-08	3.687182e+01	9.489216e+02
1.820000e-06	5.247020e-06	1.455611e-08	3.666040e+01	9.471251e+02
1.830000e-06	5.215396e-06	1.429708e-08	3.643944e+01	9.454403e+02
1.840000e-06	5.181883e-06	1.457765e-08	3.620528e+01	9.438010e+02
1.850000e-06	5.146655e-06	1.436593e-08	3.595916e+01	9.421155e+02
1.860000e-06	5.109662e-06	1.425465e-08	3.570069e+01	9.402787e+02
1.870000e-06	5.070448e-06	1.449631e-08	3.542671e+01	9.381863e+02
1.880000e-06	5.029660e-06	1.421101e-08	3.514172e+01	9.357486e+02
1.890000e-06	4.987217e-06	1.423715e-08	3.484518e+01	9.329033e+02
1.900000e-06	4.942836e-06	1.420905e-08	3.453509e+01	9.296238e+02
1.910000e-06	4.896788e-06	1.397863e-08	3.421336e+01	9.259232e+02
1.920000e-06	4.848824e-06	1.416767e-08	3.387824e+01	9.218524e+02
1.930000e-06	4.799155e-06	1.395143e-08	3.353120e+01	9.174934e+02
1.940000e-06	4.747702e-06	1.391694e-08	3.317171e+01	9.129486e+02
1.950000e-06	4.694008e-06	1.397733e-08	3.279655e+01	9.083257e+02
1.960000e-06	4.638594e-06	1.377942e-08	3.240938e+01	9.037238e+02
1.970000e-06	4.581513e-06	1.380382e-08	3.201056e+01	8.992190e+02
1.980000e-06	4.522861e-06	1.361498e-08	3.160077e+01	8.948538e+02
1.990000e-06	4.462665e-06	1.361764e-08	3.118018e+01	8.906306e+02
2.000000e-06	4.400660e-06	1.357736e-08	3.074696e+01	8.865111e+02
2.010000e-06	4.337142e-06	1.343350e-08	3.030317e+01	8.824211e+02
2.020000e-06	4.272127e-06	1.348537e-08	2.984891e+01	8.782602e+02
2.030000e-06	4.205697e-06	1.327046e-08	2.938477e+01	8.739156e+02
2.040000e-06	4.137774e-06	1.326165e-08	2.891020e+01	8.692773e+02
2.050000e-06	4.068068e-06	1.317069e-08	2.842317e+01	8.642531e+02
2.060000e-06	3.996855e-06	1.303115e-08	2.792562e+01	8.587820e+02
2.070000e-06	3.924320e-06	1.301623e-08	2.741882e+01	8.528423e+02
2.080000e-06	3.850432e-06	1.285204e-08	2.690257e+01	8.464550e+02
2.090000e-06	3.774965e-06	1.284531e-08	2.637529e+01	8.396811e+02
2.100000e-06	3.697810e-06	1.269763e-08	2.583622e+01	8.326133e+02
2.110000e-06	3.619186e-06	1.259553e-08	2.528689e+01	8.253624e+02
2.120000e-06	3.539350e-06	1.251077e-08	2.472908e+01	8.180422e+02
2.130000e-06	3.458404e-06	1.238135e-08	2.416352e+01	8.107521e+02
2.140000e-06	3.376272e-06	1.232442e-08	2.358967e+01	8.035626e+02
2.150000e-06	3.293058e-06	1.216111e-08	2.300826e+01	7.965039e+02
2.160000e-06	3.208568e-06	1.207788e-08	2.241794e+01	7.895600e+02
2.170000e-06	3.122617e-06	1.194738e-08	2.181741e+01	7.826693e+02
2.180000e-06	3.035569e-06	1.183092e-08	2.120921e+01	7.757317e+02
2.190000e-06	2.947625e-06	1.171416e-08	2.059475e+01	7.686211e+02
2.200000e-06	2.858707e-06	1.156982e-08	1.997349e+01	7.612019e+02
2.210000e-06	2.768818e-06	1.145950e-08	1.934545e+01	7.533478e+02
2.220000e-06	2.678060e-06	1.131830e-08	1.871133e+01	7.449593e+02
2.230000e-06	2.586449e-06	1.119766e-08	1.807126e+01	7.359780e+02
2.240000e-06	2.493961e-06	1.104188e-08	1.742505e+01	7.263959e+02
2.250000e-06	2.400343e-06	1.090195e-08	1.677095e+01	7.162570e+02
2.260000e-06	2.305642e-06	1.075548e-08	1.610929e+01	7.056525e+02
2.270000e-06	2.210206e-06	1.060582e-08	1.544249e+01	6.947082e+02
2.280000e-06	2.114082e-06	1.045050e-08	1.477087e+01	6.835663e+02
2.290000e-06	2.017300e-06	1.028392e-08	1.409467e+01	6.723646e+02
2.300000e-06	1.919878e-06	1.013233e-08	1.341399e+01	6.612148e+02
2.310000e-06	1.821869e-06	9.967950e-09	1.272921e+01	6.501832e+02
2.320000e-06	1.723251e-06	9.799461e-09	1.204018e+01	6.392770e+02
2.330000e-06	1.624061e-06	9.609832e-09	1.134715e+01	6.284383e+02
2.340000e-06	1.524431e-06	9.428594e-09	1.065104e+01	6.175466e+02
2.350000e-06	1.424300e-06	9.236750e-09	9.951441e+00	6.064302e+02
2.360000e-06	1.323503e-06	9.033739e-09	9.247180e+00	5.948856e+02
2.370000e-06	1.222055e-06	8.828493e-09	8.538377e+00	5.827024e+02
2.380000e-06	1.119989e-06	8.624719e-09	7.825246e+00	5.696904e+02
2.390000e-06	1.017371e-06	8.427530e-09	7.108271e+00	5.557055e+02
2.400000e-06	9.144149e-07	8.210657e-09	6.388924e+00	5.406708e+02
2.410000e-06	8.111948e-07	7.976363e-09	5.667735e+00	5.245889e+02
2.420000e-06	7.077521e-07	7.728409e-09	4.944992e+00	5.075436e+02
2.430000e-06	6.041087e-07	7.475939e-09	4.220845e+00	4.896900e+02
2.440000e-06	5.002820e-07	7.219405e-09	3.495419e+00	4.712325e+02
2.450000e-06	3.962627e-07	6.955152e-09	2.768647e+00	4.523931e+02
2.460000e-06	2.920670e-07	6.678973e-09	2.040643e+00	4.333733e+02
2.470000e-06	1.877764e-07	6.396247e-09	1.311975e+00	4.143137e+02
2.480000e-06	8.349645e-08	6.103465e-09	5.833811e-01	3.952565e+02
2.490000e-06	-2.071823e-08	5.790961e-09	-1.447562e-01	3.761153e+02
2.500000e-06	-1.249403e-07	5.454544e-09	-8.729450e-01	3.566576e+02
2.510000e-06	-2.291323e-07	5.100682e-09	-1.600924e+00	3.365027e+02
2.520000e-06	-3.332130e-07	4.737934e-09	-2.328125e+00	3.151372e+02
2.530000e-06	-4.371444e-07	4.355406e-09	-3.054283e+00	2.919467e+02
2.540000e-06	-5.409480e-07	3.944958e-09	-3.779549e+00	2.662646e+02
2.550000e-06	-6.446024e-07	3.505315e-09	-4.503771e+00	2.374299e+02
2.560000e-06	-7.480297e-07	3.039520e-09	-5.226407e+00	2.048529e+02
2.570000e-06	-8.512033e-07	2.536771e-09	-5.947271e+00	1.680798e+02
2.580000e-06	-9.541035e-07	1.978757e-09	-6.666224e+00	1.268497e+02
2.590000e-06	-1.056653e-06	1.356263e-09	-7.382727e+00	8.114000e+01
2.600000e-06	-1.158672e-06	6.591101e-10	-8.095523e+00	3.119184e+01
2.610000e-06	-1.260114e-06	-1.247243e-10	-8.804286e+00	-2.248472e+01
2.620000e-06	-1.360965e-06	-1.002671e-09	-9.508920e+00	-7.912927e+01
2.630000e-06	-1.461235e-06	-1.964467e-09	-1.020950e+01	-1.377714e+02
2.640000e-06	-1.560994e-06	-2.973913e-09	-1.090651e+01	-1.972902e+02
2.650000e-06	-1.660234e-06	-3.976757e-09	-1.159988e+01	-2.564872e+02
2.660000e-06	-1.758901e-06	-4.925848e-09	-1.228926e+01	-3.141667e+02
2.670000e-06	-1.856988e-06	-5.793637e-09	-1.297459e+01	-3.692167e+02
2.680000e-06	-1.954500e-06	-6.564733e-09	-1.365589e+01	-4.206818e+02
2.690000e-06	-2.051343e-06	-7.236178e-09	-1.433253e+01	-4.678228e+02
2.700000e-06	-2.147460e-06	-7.819384e-09	-1.500409e+01	-5.101575e+02
2.710000e-06	-2.242922e-06	-8.329178e-09	-1.567107e+01	-5.474785e+02
2.720000e-06	-2.337803e-06	-8.778035e-09	-1.633399e+01	-5.798490e+02
2.730000e-06	-2.431885e-06	-9.176551e-09	-1.699133e+01	-6.075759e+02
2.740000e-06	-2.524858e-06	-9.532757e-09	-1.764092e+01	-6.311641e+02
2.750000e-06	-2.616729e-06	-9.856444e-09	-1.828282e+01	-6.512584e+02
2.760000e-06	-2.707665e-06	-1.015676e-08	-1.891818e+01	-6.685770e+02
2.770000e-06	-2.797656e-06	-1.043419e-08	-1.954693e+01	-6.838451e+02
2.780000e-06	-2.886573e-06	-1.068638e-08	-2.016819e+01	-6.977338e+02
2.790000e-06	-2.974435e-06	-1.091937e-08	-2.078207e+01	-7.108109e+02
2.800000e-06	-3.061450e-06	-1.113868e-08	-2.139004e+01	-7.235064e+02
2.810000e-06	-3.147488e-06	-1.134466e-08	-2.199118e+01	-7.360958e+02
2.820000e-06	-3.232189e-06	-1.153574e-08	-2.258297e+01	-7.487012e+02
2.830000e-06	-3.315627e-06	-1.171346e-08	-2.316595e+01	-7.613082e+02
2.840000e-06	-3.398013e-06	-1.188292e-08	-2.374157e+01	-7.737954e+02
2.850000e-06	-3.479308e-06	-1.204508e-08	-2.430957e+01	-7.859731e+02
2.860000e-06	-3.559390e-06	-1.219865e-08	-2.486909e+01	-7.976238e+02
2.870000e-06	-3.638303e-06	-1.234144e-08	-2.542045e+01	-8.085425e+02
2.880000e-06	-3.715828e-06	-1.247652e-08	-2.596211e+01	-8.185693e+02
2.890000e-06	-3.791684e-06	-1.260821e-08	-2.649211e+01	-8.276130e+02
2.900000e-06	-3.866016e-06	-1.273296e-08	-2.701146e+01	-8.356636e+02
2.910000e-06	-3.938963e-06	-1.284568e-08	-2.752113e+01	-8.427913e+02
2.920000e-06	-4.010616e-06	-1.295165e-08	-2.802177e+01	-8.491356e+02
2.930000e-06	-4.080896e-06	-1.305844e-08	-2.851281e+01	-8.548849e+02
2.940000e-06	-4.149507e-06	-1.316362e-08	-2.899218e+01	-8.602513e+02
