# Temperatura_=_39.16
# Concentracion g/m^3_=_15500.0
# C_Vs_to_Am_M_A/Vsm_=_65563218390.804596
# pendiente_HvsI_1/m_=_3716.3
# ordenada_HvsI_A/m_=_1297.0
# frecuencia_Hz_=_300801.6280680231

Tiempo_(s)	Campo_(V.s)	Magnetizacion_(V.s)	Campo_(kA/m)	Magnetizacion_(A/m)
0.000000e+00	-5.494502e-06	-1.396368e-08	-3.831000e+01	-9.143413e+02
1.000000e-08	-5.492815e-06	-1.396051e-08	-3.829823e+01	-9.143803e+02
2.000000e-08	-5.489208e-06	-1.395737e-08	-3.827308e+01	-9.144776e+02
3.000000e-08	-5.483811e-06	-1.395133e-08	-3.823545e+01	-9.145667e+02
4.000000e-08	-5.476810e-06	-1.394273e-08	-3.818664e+01	-9.145674e+02
5.000000e-08	-5.468138e-06	-1.393324e-08	-3.812617e+01	-9.143974e+02
6.000000e-08	-5.457565e-06	-1.392087e-08	-3.805245e+01	-9.139842e+02
7.000000e-08	-5.444904e-06	-1.390441e-08	-3.796418e+01	-9.132754e+02
8.000000e-08	-5.430086e-06	-1.388753e-08	-3.786085e+01	-9.122462e+02
9.000000e-08	-5.412930e-06	-1.388435e-08	-3.774124e+01	-9.109029e+02
1.000000e-07	-5.393531e-06	-1.389085e-08	-3.760598e+01	-9.092818e+02
1.100000e-07	-5.372191e-06	-1.386161e-08	-3.745719e+01	-9.074444e+02
1.200000e-07	-5.349049e-06	-1.381071e-08	-3.729583e+01	-9.054681e+02
1.300000e-07	-5.324387e-06	-1.378061e-08	-3.712388e+01	-9.034355e+02
1.400000e-07	-5.298252e-06	-1.372856e-08	-3.694165e+01	-9.014222e+02
1.500000e-07	-5.270287e-06	-1.372704e-08	-3.674667e+01	-8.994862e+02
1.600000e-07	-5.240567e-06	-1.373341e-08	-3.653945e+01	-8.976593e+02
1.700000e-07	-5.209255e-06	-1.365669e-08	-3.632113e+01	-8.959420e+02
1.800000e-07	-5.175992e-06	-1.366220e-08	-3.608920e+01	-8.943033e+02
1.900000e-07	-5.140738e-06	-1.365786e-08	-3.584340e+01	-8.926843e+02
2.000000e-07	-5.103891e-06	-1.357739e-08	-3.558649e+01	-8.910064e+02
2.100000e-07	-5.065361e-06	-1.354266e-08	-3.531784e+01	-8.891815e+02
2.200000e-07	-5.025052e-06	-1.348078e-08	-3.503679e+01	-8.871244e+02
2.300000e-07	-4.982880e-06	-1.343685e-08	-3.474275e+01	-8.847646e+02
2.400000e-07	-4.938707e-06	-1.343752e-08	-3.443475e+01	-8.820557e+02
2.500000e-07	-4.892729e-06	-1.338989e-08	-3.411418e+01	-8.789825e+02
2.600000e-07	-4.844973e-06	-1.334819e-08	-3.378120e+01	-8.755628e+02
2.700000e-07	-4.795201e-06	-1.329676e-08	-3.343417e+01	-8.718453e+02
2.800000e-07	-4.743357e-06	-1.323014e-08	-3.307269e+01	-8.679030e+02
2.900000e-07	-4.689613e-06	-1.317557e-08	-3.269797e+01	-8.638230e+02
3.000000e-07	-4.634206e-06	-1.310765e-08	-3.231165e+01	-8.596946e+02
3.100000e-07	-4.577164e-06	-1.305474e-08	-3.191392e+01	-8.555963e+02
3.200000e-07	-4.518298e-06	-1.301647e-08	-3.150349e+01	-8.515850e+02
3.300000e-07	-4.457743e-06	-1.297918e-08	-3.108127e+01	-8.476874e+02
3.400000e-07	-4.395693e-06	-1.290992e-08	-3.064863e+01	-8.438960e+02
3.500000e-07	-4.332176e-06	-1.282269e-08	-3.020576e+01	-8.401692e+02
3.600000e-07	-4.267182e-06	-1.275749e-08	-2.975260e+01	-8.364368e+02
3.700000e-07	-4.200570e-06	-1.268409e-08	-2.928815e+01	-8.326092e+02
3.800000e-07	-4.132269e-06	-1.261533e-08	-2.881193e+01	-8.285894e+02
3.900000e-07	-4.062451e-06	-1.254766e-08	-2.832513e+01	-8.242861e+02
4.000000e-07	-3.991289e-06	-1.247030e-08	-2.782896e+01	-8.196266e+02
4.100000e-07	-3.918851e-06	-1.240184e-08	-2.732389e+01	-8.145665e+02
4.200000e-07	-3.845014e-06	-1.231862e-08	-2.680906e+01	-8.090965e+02
4.300000e-07	-3.769525e-06	-1.222929e-08	-2.628273e+01	-8.032435e+02
4.400000e-07	-3.692408e-06	-1.214043e-08	-2.574503e+01	-7.970672e+02
4.500000e-07	-3.613849e-06	-1.206253e-08	-2.519728e+01	-7.906515e+02
4.600000e-07	-3.533781e-06	-1.198222e-08	-2.463901e+01	-7.840927e+02
4.700000e-07	-3.452249e-06	-1.188693e-08	-2.407054e+01	-7.774856e+02
4.800000e-07	-3.369514e-06	-1.178771e-08	-2.349368e+01	-7.709093e+02
4.900000e-07	-3.285725e-06	-1.168176e-08	-2.290946e+01	-7.644148e+02
5.000000e-07	-3.200990e-06	-1.158055e-08	-2.231865e+01	-7.580167e+02
5.100000e-07	-3.115284e-06	-1.147587e-08	-2.172108e+01	-7.516893e+02
5.200000e-07	-3.028585e-06	-1.137049e-08	-2.111658e+01	-7.453688e+02
5.300000e-07	-2.940892e-06	-1.126802e-08	-2.050515e+01	-7.389599e+02
5.400000e-07	-2.852231e-06	-1.116047e-08	-1.988696e+01	-7.323487e+02
5.500000e-07	-2.762556e-06	-1.104500e-08	-1.926171e+01	-7.254167e+02
5.600000e-07	-2.671716e-06	-1.092084e-08	-1.862834e+01	-7.180574e+02
5.700000e-07	-2.579789e-06	-1.079272e-08	-1.798738e+01	-7.101905e+02
5.800000e-07	-2.486941e-06	-1.066620e-08	-1.734001e+01	-7.017737e+02
5.900000e-07	-2.393306e-06	-1.054034e-08	-1.668714e+01	-6.928089e+02
6.000000e-07	-2.298946e-06	-1.040897e-08	-1.602922e+01	-6.833425e+02
6.100000e-07	-2.203774e-06	-1.026903e-08	-1.536564e+01	-6.734591e+02
6.200000e-07	-2.107799e-06	-1.012321e-08	-1.469647e+01	-6.632694e+02
6.300000e-07	-2.011090e-06	-9.976760e-09	-1.402217e+01	-6.528941e+02
6.400000e-07	-1.913597e-06	-9.828740e-09	-1.334241e+01	-6.424452e+02
6.500000e-07	-1.815224e-06	-9.673686e-09	-1.265651e+01	-6.320072e+02
6.600000e-07	-1.716082e-06	-9.509548e-09	-1.196525e+01	-6.216223e+02
6.700000e-07	-1.616340e-06	-9.343654e-09	-1.126980e+01	-6.112794e+02
6.800000e-07	-1.516018e-06	-9.175572e-09	-1.057032e+01	-6.009109e+02
6.900000e-07	-1.415208e-06	-8.997896e-09	-9.867428e+00	-5.903969e+02
7.000000e-07	-1.313950e-06	-8.812643e-09	-9.161415e+00	-5.795770e+02
7.100000e-07	-1.212256e-06	-8.624680e-09	-8.452364e+00	-5.682686e+02
7.200000e-07	-1.110166e-06	-8.435111e-09	-7.740548e+00	-5.562891e+02
7.300000e-07	-1.007696e-06	-8.239107e-09	-7.026084e+00	-5.434794e+02
7.400000e-07	-9.048561e-07	-8.030229e-09	-6.309039e+00	-5.297259e+02
7.500000e-07	-8.016697e-07	-7.808782e-09	-5.589580e+00	-5.149768e+02
7.600000e-07	-6.982103e-07	-7.580205e-09	-4.868218e+00	-4.992506e+02
7.700000e-07	-5.945479e-07	-7.346190e-09	-4.145440e+00	-4.826353e+02
7.800000e-07	-4.907110e-07	-7.106140e-09	-3.421445e+00	-4.652767e+02
7.900000e-07	-3.867177e-07	-6.856746e-09	-2.696359e+00	-4.473571e+02
8.000000e-07	-2.826194e-07	-6.596107e-09	-1.970542e+00	-4.290656e+02
8.100000e-07	-1.784438e-07	-6.325244e-09	-1.244185e+00	-4.105642e+02
8.200000e-07	-7.416221e-08	-6.042755e-09	-5.170903e-01	-3.919526e+02
8.300000e-07	3.015528e-08	-5.745015e-09	2.102554e-01	-3.732369e+02
8.400000e-07	1.344030e-07	-5.427924e-09	9.371145e-01	-3.543053e+02
8.500000e-07	2.385964e-07	-5.096912e-09	1.663595e+00	-3.349163e+02
8.600000e-07	3.427189e-07	-4.755181e-09	2.389581e+00	-3.147006e+02
8.700000e-07	4.467637e-07	-4.395345e-09	3.115025e+00	-2.931779e+02
8.800000e-07	5.507161e-07	-4.009162e-09	3.839825e+00	-2.697897e+02
8.900000e-07	6.544680e-07	-3.598875e-09	4.563227e+00	-2.439437e+02
9.000000e-07	7.579913e-07	-3.165976e-09	5.285036e+00	-2.150674e+02
9.100000e-07	8.612921e-07	-2.700548e-09	6.005293e+00	-1.826659e+02
9.200000e-07	9.642714e-07	-2.191567e-09	6.723308e+00	-1.463783e+02
9.300000e-07	1.066859e-06	-1.629105e-09	7.438591e+00	-1.060258e+02
9.400000e-07	1.169041e-06	-1.005236e-09	8.151046e+00	-6.164801e+01
9.500000e-07	1.270865e-06	-3.102274e-10	8.861008e+00	-1.352214e+01
9.600000e-07	1.372311e-06	4.664836e-10	9.568335e+00	3.783764e+01
9.700000e-07	1.473333e-06	1.321702e-09	1.027270e+01	9.170064e+01
9.800000e-07	1.573898e-06	2.233580e-09	1.097389e+01	1.471593e+02
9.900000e-07	1.673895e-06	3.166922e-09	1.167111e+01	2.031848e+02
1.000000e-06	1.773230e-06	4.082137e-09	1.236371e+01	2.586932e+02
1.010000e-06	1.871858e-06	4.945469e-09	1.305138e+01	3.126177e+02
1.020000e-06	1.969707e-06	5.730433e-09	1.373363e+01	3.639786e+02
1.030000e-06	2.066703e-06	6.424771e-09	1.440993e+01	4.119463e+02
1.040000e-06	2.162924e-06	7.034585e-09	1.508082e+01	4.558913e+02
1.050000e-06	2.258402e-06	7.572552e-09	1.574653e+01	4.954162e+02
1.060000e-06	2.353091e-06	8.047563e-09	1.640674e+01	5.303684e+02
1.070000e-06	2.447049e-06	8.468305e-09	1.706186e+01	5.608327e+02
1.080000e-06	2.540301e-06	8.845781e-09	1.771205e+01	5.871041e+02
1.090000e-06	2.632700e-06	9.189927e-09	1.835630e+01	6.096458e+02
1.100000e-06	2.724107e-06	9.503240e-09	1.899362e+01	6.290366e+02
1.110000e-06	2.814419e-06	9.784610e-09	1.962332e+01	6.459118e+02
1.120000e-06	2.903575e-06	1.004045e-08	2.024496e+01	6.609055e+02
1.130000e-06	2.991691e-06	1.027615e-08	2.085933e+01	6.745989e+02
1.140000e-06	3.078833e-06	1.049466e-08	2.146693e+01	6.874784e+02
1.150000e-06	3.164980e-06	1.069980e-08	2.206758e+01	6.999084e+02
1.160000e-06	3.250098e-06	1.089309e-08	2.266106e+01	7.121188e+02
1.170000e-06	3.334171e-06	1.107471e-08	2.324725e+01	7.242084e+02
1.180000e-06	3.417104e-06	1.124491e-08	2.382550e+01	7.361611e+02
1.190000e-06	3.498694e-06	1.140492e-08	2.439437e+01	7.478734e+02
1.200000e-06	3.578962e-06	1.155642e-08	2.495403e+01	7.591878e+02
1.210000e-06	3.657985e-06	1.169933e-08	2.550502e+01	7.699286e+02
1.220000e-06	3.735734e-06	1.183225e-08	2.604712e+01	7.799350e+02
1.230000e-06	3.812171e-06	1.195549e-08	2.658007e+01	7.890887e+02
1.240000e-06	3.887117e-06	1.207577e-08	2.710262e+01	7.973324e+02
1.250000e-06	3.960477e-06	1.219411e-08	2.761412e+01	8.046780e+02
1.260000e-06	4.032352e-06	1.230206e-08	2.811526e+01	8.112047e+02
1.270000e-06	4.102823e-06	1.239939e-08	2.860662e+01	8.170477e+02
1.280000e-06	4.171915e-06	1.249356e-08	2.908836e+01	8.223795e+02
1.290000e-06	4.239575e-06	1.258821e-08	2.956011e+01	8.273873e+02
1.300000e-06	4.305612e-06	1.267811e-08	3.002055e+01	8.322496e+02
1.310000e-06	4.370030e-06	1.276050e-08	3.046970e+01	8.371152e+02
1.320000e-06	4.433000e-06	1.283869e-08	3.090875e+01	8.420863e+02
1.330000e-06	4.494553e-06	1.291625e-08	3.133793e+01	8.472097e+02
1.340000e-06	4.554667e-06	1.299188e-08	3.175706e+01	8.524750e+02
1.350000e-06	4.613082e-06	1.306399e-08	3.216436e+01	8.578202e+02
1.360000e-06	4.669690e-06	1.313425e-08	3.255905e+01	8.631444e+02
1.370000e-06	4.724667e-06	1.320392e-08	3.294238e+01	8.683244e+02
1.380000e-06	4.777865e-06	1.326936e-08	3.331330e+01	8.732337e+02
1.390000e-06	4.829046e-06	1.332662e-08	3.367015e+01	8.777609e+02
1.400000e-06	4.878242e-06	1.337703e-08	3.401317e+01	8.818247e+02
1.410000e-06	4.925686e-06	1.342624e-08	3.434396e+01	8.853848e+02
1.420000e-06	4.971511e-06	1.347616e-08	3.466348e+01	8.884461e+02
1.430000e-06	5.015670e-06	1.352585e-08	3.497137e+01	8.910566e+02
1.440000e-06	5.057936e-06	1.357328e-08	3.526607e+01	8.933001e+02
1.450000e-06	5.098282e-06	1.361664e-08	3.554738e+01	8.952830e+02
1.460000e-06	5.136938e-06	1.365822e-08	3.581691e+01	8.971200e+02
1.470000e-06	5.173949e-06	1.369741e-08	3.607496e+01	8.989179e+02
1.480000e-06	5.209147e-06	1.373057e-08	3.632038e+01	9.007618e+02
1.490000e-06	5.242357e-06	1.375815e-08	3.655193e+01	9.027046e+02
1.500000e-06	5.273730e-06	1.378397e-08	3.677067e+01	9.047611e+02
1.510000e-06	5.303436e-06	1.381015e-08	3.697780e+01	9.069078e+02
1.520000e-06	5.331331e-06	1.383601e-08	3.717230e+01	9.090879e+02
1.530000e-06	5.357124e-06	1.386093e-08	3.735214e+01	9.112207e+02
1.540000e-06	5.380907e-06	1.388503e-08	3.751796e+01	9.132142e+02
1.550000e-06	5.402930e-06	1.390647e-08	3.767151e+01	9.149786e+02
1.560000e-06	5.423236e-06	1.392471e-08	3.781309e+01	9.164396e+02
1.570000e-06	5.441671e-06	1.394048e-08	3.794163e+01	9.175489e+02
1.580000e-06	5.458102e-06	1.395288e-08	3.805619e+01	9.182908e+02
1.590000e-06	5.472554e-06	1.396141e-08	3.815696e+01	9.186837e+02
1.600000e-06	5.484847e-06	1.396999e-08	3.824267e+01	9.187780e+02
1.610000e-06	5.494864e-06	1.398070e-08	3.831252e+01	9.186478e+02
1.620000e-06	5.502854e-06	1.399083e-08	3.836822e+01	9.183810e+02
1.630000e-06	5.509034e-06	1.399725e-08	3.841132e+01	9.180665e+02
1.640000e-06	5.513374e-06	1.400026e-08	3.844158e+01	9.177818e+02
1.650000e-06	5.515683e-06	1.400112e-08	3.845768e+01	9.175829e+02
1.660000e-06	5.516016e-06	1.399958e-08	3.846000e+01	9.174963e+02
1.670000e-06	5.514596e-06	1.399510e-08	3.845010e+01	9.175163e+02
1.680000e-06	5.511499e-06	1.398931e-08	3.842850e+01	9.176059e+02
1.690000e-06	5.506556e-06	1.398491e-08	3.839404e+01	9.177031e+02
1.700000e-06	5.499657e-06	1.397920e-08	3.834594e+01	9.177297e+02
1.710000e-06	5.491071e-06	1.397185e-08	3.828607e+01	9.176028e+02
1.720000e-06	5.480840e-06	1.396202e-08	3.821473e+01	9.172469e+02
1.730000e-06	5.468645e-06	1.394690e-08	3.812971e+01	9.166044e+02
1.740000e-06	5.454399e-06	1.392871e-08	3.803037e+01	9.156443e+02
1.750000e-06	5.438117e-06	1.388418e-08	3.791685e+01	9.143661e+02
1.760000e-06	5.419318e-06	1.385588e-08	3.778578e+01	9.128001e+02
1.770000e-06	5.397764e-06	1.386357e-08	3.763549e+01	9.110028e+02
1.780000e-06	5.374108e-06	1.385317e-08	3.747055e+01	9.090492e+02
1.790000e-06	5.349337e-06	1.385985e-08	3.729784e+01	9.070218e+02
1.800000e-06	5.323757e-06	1.381553e-08	3.711949e+01	9.049986e+02
1.810000e-06	5.296440e-06	1.373725e-08	3.692902e+01	9.030423e+02
1.820000e-06	5.266817e-06	1.378327e-08	3.672248e+01	9.011908e+02
1.830000e-06	5.235511e-06	1.378043e-08	3.650420e+01	8.994515e+02
1.840000e-06	5.202517e-06	1.372904e-08	3.627415e+01	8.977999e+02
1.850000e-06	5.167680e-06	1.372945e-08	3.603125e+01	8.961827e+02
1.860000e-06	5.131105e-06	1.367083e-08	3.577624e+01	8.945246e+02
1.870000e-06	5.092438e-06	1.365098e-08	3.550663e+01	8.927385e+02
1.880000e-06	5.051951e-06	1.363120e-08	3.522434e+01	8.907377e+02
1.890000e-06	5.009923e-06	1.354068e-08	3.493130e+01	8.884475e+02
1.900000e-06	4.966045e-06	1.351254e-08	3.462536e+01	8.858158e+02
1.910000e-06	4.920375e-06	1.345035e-08	3.430693e+01	8.828202e+02
1.920000e-06	4.872869e-06	1.339714e-08	3.397570e+01	8.794715e+02
1.930000e-06	4.823508e-06	1.338591e-08	3.363154e+01	8.758122e+02
1.940000e-06	4.772415e-06	1.330559e-08	3.327530e+01	8.719110e+02
1.950000e-06	4.719280e-06	1.328582e-08	3.290482e+01	8.678528e+02
1.960000e-06	4.664286e-06	1.322947e-08	3.252138e+01	8.637275e+02
1.970000e-06	4.607669e-06	1.314091e-08	3.212662e+01	8.596170e+02
1.980000e-06	4.549405e-06	1.308206e-08	3.172038e+01	8.555836e+02
1.990000e-06	4.489541e-06	1.300068e-08	3.130298e+01	8.516610e+02
2.000000e-06	4.427971e-06	1.297889e-08	3.087369e+01	8.478491e+02
2.010000e-06	4.364811e-06	1.292083e-08	3.043331e+01	8.441134e+02
2.020000e-06	4.300111e-06	1.285836e-08	2.998220e+01	8.403892e+02
2.030000e-06	4.233949e-06	1.280424e-08	2.952088e+01	8.365900e+02
2.040000e-06	4.166308e-06	1.270441e-08	2.904926e+01	8.326194e+02
2.050000e-06	4.096951e-06	1.264026e-08	2.856567e+01	8.283837e+02
2.060000e-06	4.026009e-06	1.254323e-08	2.807103e+01	8.238052e+02
2.070000e-06	3.953653e-06	1.246924e-08	2.756654e+01	8.188329e+02
2.080000e-06	3.879987e-06	1.240682e-08	2.705291e+01	8.134496e+02
2.090000e-06	3.804887e-06	1.232123e-08	2.652928e+01	8.076746e+02
2.100000e-06	3.728038e-06	1.225238e-08	2.599346e+01	8.015610e+02
2.110000e-06	3.649639e-06	1.214796e-08	2.544683e+01	7.951886e+02
2.120000e-06	3.570002e-06	1.206701e-08	2.489156e+01	7.886522e+02
2.130000e-06	3.489177e-06	1.197771e-08	2.432802e+01	7.820480e+02
2.140000e-06	3.407186e-06	1.188064e-08	2.375634e+01	7.754595e+02
2.150000e-06	3.324099e-06	1.178809e-08	2.317702e+01	7.689448e+02
2.160000e-06	3.239773e-06	1.167356e-08	2.258907e+01	7.625268e+02
2.170000e-06	3.154098e-06	1.157528e-08	2.199170e+01	7.561883e+02
2.180000e-06	3.067231e-06	1.146486e-08	2.138603e+01	7.498733e+02
2.190000e-06	2.979337e-06	1.135803e-08	2.077320e+01	7.434925e+02
2.200000e-06	2.890551e-06	1.125243e-08	2.015414e+01	7.369346e+02
2.210000e-06	2.800823e-06	1.113949e-08	1.952852e+01	7.300809e+02
2.220000e-06	2.710166e-06	1.103064e-08	1.889642e+01	7.228209e+02
2.230000e-06	2.618605e-06	1.090460e-08	1.825802e+01	7.150676e+02
2.240000e-06	2.526002e-06	1.077146e-08	1.761235e+01	7.067700e+02
2.250000e-06	2.432346e-06	1.063340e-08	1.695935e+01	6.979201e+02
2.260000e-06	2.337735e-06	1.049482e-08	1.629968e+01	6.885551e+02
2.270000e-06	2.242304e-06	1.036305e-08	1.563429e+01	6.787523e+02
2.280000e-06	2.146135e-06	1.022880e-08	1.496376e+01	6.686180e+02
2.290000e-06	2.049255e-06	1.009231e-08	1.428827e+01	6.582724e+02
2.300000e-06	1.951680e-06	9.950328e-09	1.360794e+01	6.478309e+02
2.310000e-06	1.853504e-06	9.797578e-09	1.292341e+01	6.373853e+02
2.320000e-06	1.754850e-06	9.633227e-09	1.223556e+01	6.269879e+02
2.330000e-06	1.655689e-06	9.458663e-09	1.154416e+01	6.166397e+02
2.340000e-06	1.555964e-06	9.288300e-09	1.084884e+01	6.062850e+02
2.350000e-06	1.455635e-06	9.117989e-09	1.014930e+01	5.958144e+02
2.360000e-06	1.354653e-06	8.937833e-09	9.445212e+00	5.850749e+02
2.370000e-06	1.253049e-06	8.752696e-09	8.736785e+00	5.738869e+02
2.380000e-06	1.150923e-06	8.561506e-09	8.024724e+00	5.620656e+02
2.390000e-06	1.048323e-06	8.365795e-09	7.309351e+00	5.494452e+02
2.400000e-06	9.452905e-07	8.158120e-09	6.590965e+00	5.359005e+02
2.410000e-06	8.419326e-07	7.935838e-09	5.870310e+00	5.213655e+02
2.420000e-06	7.383082e-07	7.707603e-09	5.147797e+00	5.058434e+02
2.430000e-06	6.344553e-07	7.474904e-09	4.423691e+00	4.894080e+02
2.440000e-06	5.304428e-07	7.237217e-09	3.698471e+00	4.721941e+02
2.450000e-06	4.262976e-07	6.990230e-09	2.972327e+00	4.543784e+02
2.460000e-06	3.220070e-07	6.731372e-09	2.245169e+00	4.361514e+02
2.470000e-06	2.176235e-07	6.463499e-09	1.517363e+00	4.176838e+02
2.480000e-06	1.132090e-07	6.183586e-09	7.893412e-01	3.990917e+02
2.490000e-06	8.776137e-09	5.886714e-09	6.119094e-02	3.804033e+02
2.500000e-06	-9.564785e-08	5.572711e-09	-6.668972e-01	3.615337e+02
2.510000e-06	-2.000841e-07	5.247238e-09	-1.395071e+00	3.422696e+02
2.520000e-06	-3.044478e-07	4.913162e-09	-2.122739e+00	3.222679e+02
2.530000e-06	-4.086801e-07	4.563140e-09	-2.849491e+00	3.010701e+02
2.540000e-06	-5.127923e-07	4.188829e-09	-3.575405e+00	2.781311e+02
2.550000e-06	-6.167518e-07	3.789007e-09	-4.300254e+00	2.528614e+02
2.560000e-06	-7.205415e-07	3.364120e-09	-5.023920e+00	2.246795e+02
2.570000e-06	-8.240747e-07	2.908069e-09	-5.745798e+00	1.930691e+02
2.580000e-06	-9.272366e-07	2.411951e-09	-6.465086e+00	1.576361e+02
2.590000e-06	-1.029976e-06	1.867336e-09	-7.181429e+00	1.181590e+02
2.600000e-06	-1.132288e-06	1.266590e-09	-7.894789e+00	7.462861e+01
2.610000e-06	-1.234100e-06	5.986788e-10	-8.604671e+00	2.727043e+01
2.620000e-06	-1.335347e-06	-1.483522e-10	-9.310607e+00	-2.345108e+01
2.630000e-06	-1.436064e-06	-9.775765e-10	-1.001285e+01	-7.684890e+01
2.640000e-06	-1.536265e-06	-1.874947e-09	-1.071149e+01	-1.320492e+02
2.650000e-06	-1.635876e-06	-2.810373e-09	-1.140602e+01	-1.880437e+02
2.660000e-06	-1.734880e-06	-3.742578e-09	-1.209632e+01	-2.437545e+02
2.670000e-06	-1.833314e-06	-4.631175e-09	-1.278264e+01	-2.981050e+02
2.680000e-06	-1.931161e-06	-5.448349e-09	-1.346487e+01	-3.500911e+02
2.690000e-06	-2.028335e-06	-6.180059e-09	-1.414241e+01	-3.988465e+02
2.700000e-06	-2.124785e-06	-6.826712e-09	-1.481490e+01	-4.436953e+02
2.710000e-06	-2.220603e-06	-7.395737e-09	-1.548298e+01	-4.841886e+02
2.720000e-06	-2.315822e-06	-7.894693e-09	-1.614689e+01	-5.201215e+02
2.730000e-06	-2.410307e-06	-8.334791e-09	-1.680568e+01	-5.515294e+02
2.740000e-06	-2.503869e-06	-8.728642e-09	-1.745803e+01	-5.786652e+02
2.750000e-06	-2.596302e-06	-9.083390e-09	-1.810252e+01	-6.019606e+02
2.760000e-06	-2.687590e-06	-9.405326e-09	-1.873901e+01	-6.219743e+02
2.770000e-06	-2.777908e-06	-9.701159e-09	-1.936875e+01	-6.393343e+02
2.780000e-06	-2.867324e-06	-9.971612e-09	-1.999220e+01	-6.546799e+02
2.790000e-06	-2.955766e-06	-1.021817e-08	-2.060885e+01	-6.686073e+02
2.800000e-06	-3.043226e-06	-1.044520e-08	-2.121866e+01	-6.816262e+02
2.810000e-06	-3.129691e-06	-1.065750e-08	-2.182153e+01	-6.941286e+02
2.820000e-06	-3.214965e-06	-1.085602e-08	-2.241610e+01	-7.063736e+02
2.830000e-06	-3.298964e-06	-1.104042e-08	-2.300177e+01	-7.184869e+02
2.840000e-06	-3.381760e-06	-1.121291e-08	-2.357906e+01	-7.304752e+02
2.850000e-06	-3.463425e-06	-1.137590e-08	-2.414846e+01	-7.422511e+02
2.860000e-06	-3.543996e-06	-1.153131e-08	-2.471024e+01	-7.536656e+02
2.870000e-06	-3.623387e-06	-1.167661e-08	-2.526379e+01	-7.645439e+02
2.880000e-06	-3.701365e-06	-1.181045e-08	-2.580749e+01	-7.747195e+02
2.890000e-06	-3.777770e-06	-1.193630e-08	-2.634021e+01	-7.840632e+02
2.900000e-06	-3.852687e-06	-1.205835e-08	-2.686256e+01	-7.925033e+02
2.910000e-06	-3.926169e-06	-1.217631e-08	-2.737491e+01	-8.000370e+02
2.920000e-06	-3.998256e-06	-1.228730e-08	-2.787753e+01	-8.067296e+02
2.930000e-06	-4.069003e-06	-1.239057e-08	-2.837081e+01	-8.127056e+02
2.940000e-06	-4.138266e-06	-1.248896e-08	-2.885374e+01	-8.181314e+02
