# Temperatura_=_56.2
# Concentracion g/m^3_=_15500.0
# C_Vs_to_Am_M_A/Vsm_=_65563218390.804596
# pendiente_HvsI_1/m_=_3716.3
# ordenada_HvsI_A/m_=_1297.0
# frecuencia_Hz_=_300798.53838207806

Tiempo_(s)	Campo_(V.s)	Magnetizacion_(V.s)	Campo_(kA/m)	Magnetizacion_(A/m)
0.000000e+00	-5.494827e-06	-1.436264e-08	-3.831115e+01	-9.403055e+02
1.000000e-08	-5.492671e-06	-1.436165e-08	-3.829612e+01	-9.404577e+02
2.000000e-08	-5.488573e-06	-1.435692e-08	-3.826755e+01	-9.406287e+02
3.000000e-08	-5.482804e-06	-1.435388e-08	-3.822733e+01	-9.407344e+02
4.000000e-08	-5.475402e-06	-1.434801e-08	-3.817571e+01	-9.406847e+02
5.000000e-08	-5.466317e-06	-1.433483e-08	-3.811237e+01	-9.403963e+02
6.000000e-08	-5.455267e-06	-1.431228e-08	-3.803533e+01	-9.398047e+02
7.000000e-08	-5.442152e-06	-1.427599e-08	-3.794389e+01	-9.388730e+02
8.000000e-08	-5.426931e-06	-1.427985e-08	-3.783776e+01	-9.375978e+02
9.000000e-08	-5.409291e-06	-1.432955e-08	-3.771477e+01	-9.360086e+02
1.000000e-07	-5.389405e-06	-1.429901e-08	-3.757612e+01	-9.341644e+02
1.100000e-07	-5.367583e-06	-1.424742e-08	-3.742398e+01	-9.321444e+02
1.200000e-07	-5.344015e-06	-1.420890e-08	-3.725965e+01	-9.300370e+02
1.300000e-07	-5.319058e-06	-1.408390e-08	-3.708565e+01	-9.279268e+02
1.400000e-07	-5.292562e-06	-1.413888e-08	-3.690091e+01	-9.258824e+02
1.500000e-07	-5.264220e-06	-1.417511e-08	-3.670331e+01	-9.239462e+02
1.600000e-07	-5.234229e-06	-1.400262e-08	-3.649420e+01	-9.221281e+02
1.700000e-07	-5.202587e-06	-1.408719e-08	-3.627359e+01	-9.204032e+02
1.800000e-07	-5.168904e-06	-1.408868e-08	-3.603875e+01	-9.187154e+02
1.900000e-07	-5.133298e-06	-1.392538e-08	-3.579049e+01	-9.169844e+02
2.000000e-07	-5.096158e-06	-1.396324e-08	-3.553154e+01	-9.151164e+02
2.100000e-07	-5.057279e-06	-1.385944e-08	-3.526047e+01	-9.130176e+02
2.200000e-07	-5.016541e-06	-1.376712e-08	-3.497644e+01	-9.106067e+02
2.300000e-07	-4.973844e-06	-1.383424e-08	-3.467874e+01	-9.078265e+02
2.400000e-07	-4.929194e-06	-1.378302e-08	-3.436743e+01	-9.046522e+02
2.500000e-07	-4.882819e-06	-1.375254e-08	-3.404409e+01	-9.010949e+02
2.600000e-07	-4.834637e-06	-1.368409e-08	-3.370816e+01	-8.972006e+02
2.700000e-07	-4.784449e-06	-1.358460e-08	-3.335824e+01	-8.930441e+02
2.800000e-07	-4.732149e-06	-1.354347e-08	-3.299359e+01	-8.887188e+02
2.900000e-07	-4.677923e-06	-1.346840e-08	-3.261552e+01	-8.843240e+02
3.000000e-07	-4.622071e-06	-1.341844e-08	-3.222611e+01	-8.799509e+02
3.100000e-07	-4.564565e-06	-1.336866e-08	-3.182516e+01	-8.756697e+02
3.200000e-07	-4.505276e-06	-1.334711e-08	-3.141178e+01	-8.715199e+02
3.300000e-07	-4.444373e-06	-1.329551e-08	-3.098715e+01	-8.675037e+02
3.400000e-07	-4.381972e-06	-1.317908e-08	-3.055208e+01	-8.635855e+02
3.500000e-07	-4.318051e-06	-1.310420e-08	-3.010641e+01	-8.596961e+02
3.600000e-07	-4.252615e-06	-1.300674e-08	-2.965017e+01	-8.557418e+02
3.700000e-07	-4.185561e-06	-1.294467e-08	-2.918266e+01	-8.516168e+02
3.800000e-07	-4.116908e-06	-1.289982e-08	-2.870399e+01	-8.472176e+02
3.900000e-07	-4.046790e-06	-1.281155e-08	-2.821511e+01	-8.424572e+02
4.000000e-07	-3.975318e-06	-1.274615e-08	-2.771679e+01	-8.372773e+02
4.100000e-07	-3.902597e-06	-1.266194e-08	-2.720977e+01	-8.316564e+02
4.200000e-07	-3.828456e-06	-1.257581e-08	-2.669284e+01	-8.256130e+02
4.300000e-07	-3.752620e-06	-1.246557e-08	-2.616410e+01	-8.192034e+02
4.400000e-07	-3.675172e-06	-1.236682e-08	-2.562411e+01	-8.125135e+02
4.500000e-07	-3.596273e-06	-1.229223e-08	-2.507401e+01	-8.056473e+02
4.600000e-07	-3.515823e-06	-1.220243e-08	-2.451310e+01	-7.987113e+02
4.700000e-07	-3.433998e-06	-1.211140e-08	-2.394259e+01	-7.917997e+02
4.800000e-07	-3.351061e-06	-1.199577e-08	-2.336434e+01	-7.849791e+02
4.900000e-07	-3.267042e-06	-1.188846e-08	-2.277854e+01	-7.782790e+02
5.000000e-07	-3.182056e-06	-1.178540e-08	-2.218600e+01	-7.716850e+02
5.100000e-07	-3.096100e-06	-1.167445e-08	-2.158669e+01	-7.651397e+02
5.200000e-07	-3.009138e-06	-1.156241e-08	-2.098038e+01	-7.585488e+02
5.300000e-07	-2.921198e-06	-1.144996e-08	-2.036724e+01	-7.517929e+02
5.400000e-07	-2.832281e-06	-1.133833e-08	-1.974729e+01	-7.447428e+02
5.500000e-07	-2.742387e-06	-1.121311e-08	-1.912053e+01	-7.372773e+02
5.600000e-07	-2.651382e-06	-1.107665e-08	-1.848602e+01	-7.292995e+02
5.700000e-07	-2.559247e-06	-1.093789e-08	-1.784363e+01	-7.207509e+02
5.800000e-07	-2.466188e-06	-1.080800e-08	-1.719481e+01	-7.116201e+02
5.900000e-07	-2.372315e-06	-1.068243e-08	-1.654030e+01	-7.019449e+02
6.000000e-07	-2.277707e-06	-1.054731e-08	-1.588068e+01	-6.918078e+02
6.100000e-07	-2.182354e-06	-1.040165e-08	-1.521585e+01	-6.813246e+02
6.200000e-07	-2.086190e-06	-1.024700e-08	-1.454538e+01	-6.706276e+02
6.300000e-07	-1.989262e-06	-1.008695e-08	-1.386958e+01	-6.598459e+02
6.400000e-07	-1.891624e-06	-9.925984e-09	-1.318882e+01	-6.490846e+02
6.500000e-07	-1.793270e-06	-9.760222e-09	-1.250307e+01	-6.384072e+02
6.600000e-07	-1.694113e-06	-9.593166e-09	-1.181173e+01	-6.278217e+02
6.700000e-07	-1.594203e-06	-9.427336e-09	-1.111514e+01	-6.172749e+02
6.800000e-07	-1.493764e-06	-9.254794e-09	-1.041485e+01	-6.066544e+02
6.900000e-07	-1.392845e-06	-9.069743e-09	-9.711224e+00	-5.957987e+02
7.000000e-07	-1.291419e-06	-8.874598e-09	-9.004059e+00	-5.845158e+02
7.100000e-07	-1.189647e-06	-8.673669e-09	-8.294484e+00	-5.726058e+02
7.200000e-07	-1.087545e-06	-8.467760e-09	-7.582608e+00	-5.598873e+02
7.300000e-07	-9.850388e-07	-8.257702e-09	-6.867909e+00	-5.462211e+02
7.400000e-07	-8.821589e-07	-8.041762e-09	-6.150607e+00	-5.315310e+02
7.500000e-07	-7.789191e-07	-7.820769e-09	-5.430796e+00	-5.158156e+02
7.600000e-07	-6.753851e-07	-7.590890e-09	-4.708934e+00	-4.991507e+02
7.700000e-07	-5.716617e-07	-7.349212e-09	-3.985752e+00	-4.816797e+02
7.800000e-07	-4.677437e-07	-7.095826e-09	-3.261213e+00	-4.635938e+02
7.900000e-07	-3.636599e-07	-6.832954e-09	-2.535518e+00	-4.451021e+02
8.000000e-07	-2.594870e-07	-6.561133e-09	-1.809201e+00	-4.263954e+02
8.100000e-07	-1.551532e-07	-6.275413e-09	-1.081763e+00	-4.076084e+02
8.200000e-07	-5.071814e-08	-5.977006e-09	-3.536181e-01	-3.887833e+02
8.300000e-07	5.372289e-08	-5.665758e-09	3.745679e-01	-3.698410e+02
8.400000e-07	1.581130e-07	-5.341845e-09	1.102399e+00	-3.505642e+02
8.500000e-07	2.624092e-07	-5.001876e-09	1.829575e+00	-3.305940e+02
8.600000e-07	3.666571e-07	-4.642486e-09	2.556415e+00	-3.094442e+02
8.700000e-07	4.707782e-07	-4.260341e-09	3.282370e+00	-2.865313e+02
8.800000e-07	5.746772e-07	-3.851433e-09	4.006777e+00	-2.612191e+02
8.900000e-07	6.783729e-07	-3.416709e-09	4.729766e+00	-2.328749e+02
9.000000e-07	7.818547e-07	-2.949627e-09	5.451264e+00	-2.009309e+02
9.100000e-07	8.850472e-07	-2.442099e-09	6.170745e+00	-1.649465e+02
9.200000e-07	9.879453e-07	-1.886459e-09	6.888174e+00	-1.246631e+02
9.300000e-07	1.090479e-06	-1.271109e-09	7.603062e+00	-8.004827e+01
9.400000e-07	1.192614e-06	-5.812490e-10	8.315167e+00	-3.132156e+01
9.500000e-07	1.294360e-06	1.947890e-10	9.024564e+00	2.103974e+01
9.600000e-07	1.395705e-06	1.059792e-09	9.731162e+00	7.631669e+01
9.700000e-07	1.496646e-06	1.999673e-09	1.043495e+01	1.335861e+02
9.800000e-07	1.597124e-06	2.979409e-09	1.113550e+01	1.917760e+02
9.900000e-07	1.697032e-06	3.951471e-09	1.183208e+01	2.497350e+02
1.000000e-06	1.796228e-06	4.872914e-09	1.252370e+01	3.063090e+02
1.010000e-06	1.894656e-06	5.712291e-09	1.320996e+01	3.604180e+02
1.020000e-06	1.992317e-06	6.450874e-09	1.389087e+01	4.111273e+02
1.030000e-06	2.089188e-06	7.094479e-09	1.456628e+01	4.577054e+02
1.040000e-06	2.185246e-06	7.660046e-09	1.523602e+01	4.996642e+02
1.050000e-06	2.280533e-06	8.161459e-09	1.590038e+01	5.367786e+02
1.060000e-06	2.375093e-06	8.605488e-09	1.655968e+01	5.690834e+02
1.070000e-06	2.468917e-06	8.997768e-09	1.721384e+01	5.968500e+02
1.080000e-06	2.562028e-06	9.350593e-09	1.786303e+01	6.205439e+02
1.090000e-06	2.654319e-06	9.671344e-09	1.850650e+01	6.407700e+02
1.100000e-06	2.745532e-06	9.961884e-09	1.914246e+01	6.582097e+02
1.110000e-06	2.835586e-06	1.022538e-08	1.977033e+01	6.735573e+02
1.120000e-06	2.924560e-06	1.047011e-08	2.039068e+01	6.874615e+02
1.130000e-06	3.012492e-06	1.069964e-08	2.100376e+01	7.004768e+02
1.140000e-06	3.099387e-06	1.091429e-08	2.160961e+01	7.130295e+02
1.150000e-06	3.185260e-06	1.111393e-08	2.220834e+01	7.254000e+02
1.160000e-06	3.270178e-06	1.129807e-08	2.280040e+01	7.377226e+02
1.170000e-06	3.353995e-06	1.147129e-08	2.338479e+01	7.499998e+02
1.180000e-06	3.436590e-06	1.163668e-08	2.396067e+01	7.621301e+02
1.190000e-06	3.517988e-06	1.179286e-08	2.452819e+01	7.739428e+02
1.200000e-06	3.598065e-06	1.193930e-08	2.508650e+01	7.852378e+02
1.210000e-06	3.676815e-06	1.207963e-08	2.563557e+01	7.958230e+02
1.220000e-06	3.754288e-06	1.221407e-08	2.617573e+01	8.055465e+02
1.230000e-06	3.830352e-06	1.234033e-08	2.670606e+01	8.143199e+02
1.240000e-06	3.904831e-06	1.245853e-08	2.722535e+01	8.221304e+02
1.250000e-06	3.977747e-06	1.257115e-08	2.773373e+01	8.290419e+02
1.260000e-06	4.049239e-06	1.267681e-08	2.823219e+01	8.351846e+02
1.270000e-06	4.119344e-06	1.277394e-08	2.872098e+01	8.407368e+02
1.280000e-06	4.188129e-06	1.286532e-08	2.920056e+01	8.459009e+02
1.290000e-06	4.255460e-06	1.295618e-08	2.967001e+01	8.508773e+02
1.300000e-06	4.321101e-06	1.304725e-08	3.012767e+01	8.558402e+02
1.310000e-06	4.385164e-06	1.313550e-08	3.057434e+01	8.609176e+02
1.320000e-06	4.447768e-06	1.321963e-08	3.101082e+01	8.661788e+02
1.330000e-06	4.508978e-06	1.329985e-08	3.143759e+01	8.716299e+02
1.340000e-06	4.568702e-06	1.337680e-08	3.185400e+01	8.772181e+02
1.350000e-06	4.626639e-06	1.344955e-08	3.225796e+01	8.828433e+02
1.360000e-06	4.682827e-06	1.351740e-08	3.264970e+01	8.883752e+02
1.370000e-06	4.737416e-06	1.358169e-08	3.303032e+01	8.936734e+02
1.380000e-06	4.790212e-06	1.364499e-08	3.339842e+01	8.986086e+02
1.390000e-06	4.840918e-06	1.370725e-08	3.375195e+01	9.030797e+02
1.400000e-06	4.889630e-06	1.376576e-08	3.409159e+01	9.070277e+02
1.410000e-06	4.936670e-06	1.381965e-08	3.441955e+01	9.104420e+02
1.420000e-06	4.982136e-06	1.387040e-08	3.473656e+01	9.133608e+02
1.430000e-06	5.025878e-06	1.391953e-08	3.504154e+01	9.158639e+02
1.440000e-06	5.067623e-06	1.396556e-08	3.533259e+01	9.180604e+02
1.450000e-06	5.107484e-06	1.400775e-08	3.561051e+01	9.200734e+02
1.460000e-06	5.145737e-06	1.404825e-08	3.587722e+01	9.220221e+02
1.470000e-06	5.182404e-06	1.408721e-08	3.613287e+01	9.240065e+02
1.480000e-06	5.217168e-06	1.412233e-08	3.637525e+01	9.260940e+02
1.490000e-06	5.249948e-06	1.415370e-08	3.660380e+01	9.283122e+02
1.500000e-06	5.280992e-06	1.418400e-08	3.682025e+01	9.306461e+02
1.510000e-06	5.310347e-06	1.421337e-08	3.702492e+01	9.330425e+02
1.520000e-06	5.337781e-06	1.423996e-08	3.721619e+01	9.354185e+02
1.530000e-06	5.363071e-06	1.426358e-08	3.739252e+01	9.376753e+02
1.540000e-06	5.386438e-06	1.428595e-08	3.755544e+01	9.397120e+02
1.550000e-06	5.408079e-06	1.430649e-08	3.770633e+01	9.414409e+02
1.560000e-06	5.427977e-06	1.432418e-08	3.784506e+01	9.427996e+02
1.570000e-06	5.445949e-06	1.434037e-08	3.797036e+01	9.437600e+02
1.580000e-06	5.461870e-06	1.435435e-08	3.808137e+01	9.443315e+02
1.590000e-06	5.475790e-06	1.436566e-08	3.817842e+01	9.445593e+02
1.600000e-06	5.487540e-06	1.437745e-08	3.826034e+01	9.445181e+02
1.610000e-06	5.497074e-06	1.438950e-08	3.832682e+01	9.443009e+02
1.620000e-06	5.504650e-06	1.439772e-08	3.837964e+01	9.440058e+02
1.630000e-06	5.510444e-06	1.440072e-08	3.842004e+01	9.437229e+02
1.640000e-06	5.514344e-06	1.440204e-08	3.844723e+01	9.435214e+02
1.650000e-06	5.516176e-06	1.440577e-08	3.846000e+01	9.434405e+02
1.660000e-06	5.516100e-06	1.440407e-08	3.845947e+01	9.434848e+02
1.670000e-06	5.514324e-06	1.439410e-08	3.844709e+01	9.436239e+02
1.680000e-06	5.510856e-06	1.439037e-08	3.842291e+01	9.437978e+02
1.690000e-06	5.505426e-06	1.438714e-08	3.838505e+01	9.439254e+02
1.700000e-06	5.498056e-06	1.438070e-08	3.833367e+01	9.439169e+02
1.710000e-06	5.489089e-06	1.437253e-08	3.827114e+01	9.436862e+02
1.720000e-06	5.478393e-06	1.436769e-08	3.819657e+01	9.431641e+02
1.730000e-06	5.465699e-06	1.437402e-08	3.810807e+01	9.423071e+02
1.740000e-06	5.451056e-06	1.429180e-08	3.800597e+01	9.411045e+02
1.750000e-06	5.434320e-06	1.422844e-08	3.788929e+01	9.395789e+02
1.760000e-06	5.414906e-06	1.424327e-08	3.775392e+01	9.377835e+02
1.770000e-06	5.392749e-06	1.423186e-08	3.759944e+01	9.357942e+02
1.780000e-06	5.368706e-06	1.432102e-08	3.743181e+01	9.336985e+02
1.790000e-06	5.343786e-06	1.424800e-08	3.725806e+01	9.315828e+02
1.800000e-06	5.318022e-06	1.408701e-08	3.707842e+01	9.295200e+02
1.810000e-06	5.290158e-06	1.422369e-08	3.688416e+01	9.275590e+02
1.820000e-06	5.260031e-06	1.413616e-08	3.667410e+01	9.257168e+02
1.830000e-06	5.228420e-06	1.404268e-08	3.645370e+01	9.239761e+02
1.840000e-06	5.195002e-06	1.420176e-08	3.622071e+01	9.222868e+02
1.850000e-06	5.159836e-06	1.403944e-08	3.597552e+01	9.205730e+02
1.860000e-06	5.122877e-06	1.401021e-08	3.571783e+01	9.187428e+02
1.870000e-06	5.083757e-06	1.409948e-08	3.544508e+01	9.167013e+02
1.880000e-06	5.043005e-06	1.388804e-08	3.516095e+01	9.143635e+02
1.890000e-06	5.000635e-06	1.389292e-08	3.486553e+01	9.116661e+02
1.900000e-06	4.956338e-06	1.382457e-08	3.455669e+01	9.085769e+02
1.910000e-06	4.910268e-06	1.372052e-08	3.423548e+01	9.050992e+02
1.920000e-06	4.862339e-06	1.382151e-08	3.390130e+01	9.012721e+02
1.930000e-06	4.812645e-06	1.366670e-08	3.355483e+01	8.971647e+02
1.940000e-06	4.761087e-06	1.364778e-08	3.319535e+01	8.928676e+02
1.950000e-06	4.707432e-06	1.361380e-08	3.282126e+01	8.884799e+02
1.960000e-06	4.652044e-06	1.347989e-08	3.243508e+01	8.840956e+02
1.970000e-06	4.595022e-06	1.346349e-08	3.203751e+01	8.797906e+02
1.980000e-06	4.536488e-06	1.332475e-08	3.162940e+01	8.756115e+02
1.990000e-06	4.476371e-06	1.333601e-08	3.121025e+01	8.715687e+02
2.000000e-06	4.414438e-06	1.328707e-08	3.077844e+01	8.676347e+02
2.010000e-06	4.350927e-06	1.320451e-08	3.033562e+01	8.637467e+02
2.020000e-06	4.285939e-06	1.318058e-08	2.988252e+01	8.598154e+02
2.030000e-06	4.219530e-06	1.301885e-08	2.941950e+01	8.557364e+02
2.040000e-06	4.151493e-06	1.299089e-08	2.894513e+01	8.514043e+02
2.050000e-06	4.081707e-06	1.288263e-08	2.845856e+01	8.467278e+02
2.060000e-06	4.010446e-06	1.278859e-08	2.796172e+01	8.416413e+02
2.070000e-06	3.937820e-06	1.273811e-08	2.745535e+01	8.361150e+02
2.080000e-06	3.863814e-06	1.263568e-08	2.693937e+01	8.301590e+02
2.090000e-06	3.788248e-06	1.260579e-08	2.641251e+01	8.238218e+02
2.100000e-06	3.711059e-06	1.247232e-08	2.587432e+01	8.171840e+02
2.110000e-06	3.632399e-06	1.238023e-08	2.532589e+01	8.103468e+02
2.120000e-06	3.552440e-06	1.227498e-08	2.476840e+01	8.034176e+02
2.130000e-06	3.471347e-06	1.217646e-08	2.420300e+01	7.964943e+02
2.140000e-06	3.389101e-06	1.210418e-08	2.362956e+01	7.896508e+02
2.150000e-06	3.305675e-06	1.197857e-08	2.304790e+01	7.829249e+02
2.160000e-06	3.220969e-06	1.189055e-08	2.245731e+01	7.763119e+02
2.170000e-06	3.134967e-06	1.176689e-08	2.185768e+01	7.697634e+02
2.180000e-06	3.047864e-06	1.165679e-08	2.125038e+01	7.631921e+02
2.190000e-06	2.959789e-06	1.153119e-08	2.063631e+01	7.564826e+02
2.200000e-06	2.870777e-06	1.140872e-08	2.001569e+01	7.495067e+02
2.210000e-06	2.780791e-06	1.130301e-08	1.938829e+01	7.421398e+02
2.220000e-06	2.689894e-06	1.118586e-08	1.875454e+01	7.342785e+02
2.230000e-06	2.598094e-06	1.106526e-08	1.811448e+01	7.258553e+02
2.240000e-06	2.505339e-06	1.091205e-08	1.746778e+01	7.168480e+02
2.250000e-06	2.411559e-06	1.076937e-08	1.681393e+01	7.072843e+02
2.260000e-06	2.316793e-06	1.062360e-08	1.615320e+01	6.972377e+02
2.270000e-06	2.221234e-06	1.048964e-08	1.548694e+01	6.868182e+02
2.280000e-06	2.124958e-06	1.035053e-08	1.481568e+01	6.761560e+02
2.290000e-06	2.028004e-06	1.020352e-08	1.413969e+01	6.653829e+02
2.300000e-06	1.930389e-06	1.005650e-08	1.345910e+01	6.546106e+02
2.310000e-06	1.832123e-06	9.894553e-09	1.277397e+01	6.439128e+02
2.320000e-06	1.733254e-06	9.721323e-09	1.208463e+01	6.333104e+02
2.330000e-06	1.633845e-06	9.532494e-09	1.139153e+01	6.227632e+02
2.340000e-06	1.533966e-06	9.356856e-09	1.069515e+01	6.121710e+02
2.350000e-06	1.433576e-06	9.182127e-09	9.995207e+00	6.013815e+02
2.360000e-06	1.332524e-06	9.000305e-09	9.290652e+00	5.902074e+02
2.370000e-06	1.230812e-06	8.805429e-09	8.581495e+00	5.784485e+02
2.380000e-06	1.128568e-06	8.600996e-09	7.868629e+00	5.659170e+02
2.390000e-06	1.025912e-06	8.395899e-09	7.152885e+00	5.524631e+02
2.400000e-06	9.228800e-07	8.177718e-09	6.434524e+00	5.379955e+02
2.410000e-06	8.195117e-07	7.948469e-09	5.713817e+00	5.224964e+02
2.420000e-06	7.158795e-07	7.712732e-09	4.991270e+00	5.060253e+02
2.430000e-06	6.119780e-07	7.475733e-09	4.266846e+00	4.887126e+02
2.440000e-06	5.078887e-07	7.233148e-09	3.541113e+00	4.707413e+02
2.450000e-06	4.036818e-07	6.975873e-09	2.814559e+00	4.523196e+02
2.460000e-06	2.993304e-07	6.701885e-09	2.086998e+00	4.336455e+02
2.470000e-06	1.948543e-07	6.419410e-09	1.358567e+00	4.148689e+02
2.480000e-06	9.029504e-08	6.128677e-09	6.295570e-01	3.960544e+02
2.490000e-06	-1.430111e-08	5.822274e-09	-9.971049e-02	3.771511e+02
2.500000e-06	-1.188545e-07	5.497343e-09	-8.286798e-01	3.579718e+02
2.510000e-06	-2.232948e-07	5.157627e-09	-1.556861e+00	3.381875e+02
2.520000e-06	-3.276051e-07	4.806089e-09	-2.284135e+00	3.173372e+02
2.530000e-06	-4.318315e-07	4.434081e-09	-3.010825e+00	2.948550e+02
2.540000e-06	-5.359435e-07	4.034693e-09	-3.736717e+00	2.701116e+02
2.550000e-06	-6.398393e-07	3.608491e-09	-4.461102e+00	2.424685e+02
2.560000e-06	-7.435441e-07	3.156324e-09	-5.184154e+00	2.113386e+02
2.570000e-06	-8.469968e-07	2.668188e-09	-5.905449e+00	1.762490e+02
2.580000e-06	-9.500875e-07	2.129113e-09	-6.624220e+00	1.368982e+02
2.590000e-06	-1.052742e-06	1.531967e-09	-7.339952e+00	9.320222e+01
2.600000e-06	-1.154922e-06	8.672031e-10	-8.052375e+00	4.532549e+01
2.610000e-06	-1.256636e-06	1.206693e-10	-8.761543e+00	-6.309330e+00
2.620000e-06	-1.357787e-06	-7.168438e-10	-9.466793e+00	-6.103264e+01
2.630000e-06	-1.458372e-06	-1.635131e-09	-1.016809e+01	-1.179609e+02
2.640000e-06	-1.558467e-06	-2.602873e-09	-1.086598e+01	-1.760485e+02
2.650000e-06	-1.658033e-06	-3.578456e-09	-1.156018e+01	-2.341549e+02
2.660000e-06	-1.757018e-06	-4.521896e-09	-1.225032e+01	-2.911199e+02
2.670000e-06	-1.855354e-06	-5.399285e-09	-1.293594e+01	-3.458414e+02
2.680000e-06	-1.953013e-06	-6.185330e-09	-1.361684e+01	-3.973481e+02
2.690000e-06	-2.050059e-06	-6.873752e-09	-1.429347e+01	-4.448609e+02
2.700000e-06	-2.146440e-06	-7.475550e-09	-1.496546e+01	-4.878372e+02
2.710000e-06	-2.242198e-06	-8.002923e-09	-1.563310e+01	-5.259950e+02
2.720000e-06	-2.337376e-06	-8.463596e-09	-1.629670e+01	-5.593148e+02
2.730000e-06	-2.431811e-06	-8.868374e-09	-1.695513e+01	-5.880202e+02
2.740000e-06	-2.525236e-06	-9.231438e-09	-1.760651e+01	-6.125394e+02
2.750000e-06	-2.617522e-06	-9.563336e-09	-1.824994e+01	-6.334525e+02
2.760000e-06	-2.708770e-06	-9.868576e-09	-1.888615e+01	-6.514299e+02
2.770000e-06	-2.799038e-06	-1.014758e-08	-1.951552e+01	-6.671685e+02
2.780000e-06	-2.888286e-06	-1.040318e-08	-2.013777e+01	-6.813312e+02
2.790000e-06	-2.976500e-06	-1.064057e-08	-2.075282e+01	-6.944959e+02
2.800000e-06	-3.063798e-06	-1.086120e-08	-2.136148e+01	-7.071187e+02
2.810000e-06	-3.150096e-06	-1.106501e-08	-2.196316e+01	-7.195117e+02
2.820000e-06	-3.235081e-06	-1.125378e-08	-2.255570e+01	-7.318398e+02
2.830000e-06	-3.318757e-06	-1.143132e-08	-2.313911e+01	-7.441320e+02
2.840000e-06	-3.401272e-06	-1.160068e-08	-2.371442e+01	-7.563059e+02
2.850000e-06	-3.482687e-06	-1.176100e-08	-2.428207e+01	-7.682027e+02
2.860000e-06	-3.563014e-06	-1.191086e-08	-2.484212e+01	-7.796253e+02
2.870000e-06	-3.642115e-06	-1.205246e-08	-2.539363e+01	-7.903768e+02
2.880000e-06	-3.719740e-06	-1.218875e-08	-2.593485e+01	-8.002945e+02
2.890000e-06	-3.795807e-06	-1.231912e-08	-2.646521e+01	-8.092749e+02
2.900000e-06	-3.870416e-06	-1.244063e-08	-2.698540e+01	-8.172885e+02
2.910000e-06	-3.943618e-06	-1.255308e-08	-2.749578e+01	-8.243834e+02
2.920000e-06	-4.015492e-06	-1.265861e-08	-2.799690e+01	-8.306767e+02
2.930000e-06	-4.086012e-06	-1.276079e-08	-2.848858e+01	-8.363385e+02
2.940000e-06	-4.154964e-06	-1.286092e-08	-2.896933e+01	-8.415680e+02
