# Temperatura_=_36.27
# Concentracion g/m^3_=_15500.0
# C_Vs_to_Am_M_A/Vsm_=_65563218390.804596
# pendiente_HvsI_1/m_=_3716.3
# ordenada_HvsI_A/m_=_1297.0
# frecuencia_Hz_=_300802.05394187226

Tiempo_(s)	Campo_(V.s)	Magnetizacion_(V.s)	Campo_(kA/m)	Magnetizacion_(A/m)
0.000000e+00	-5.475994e-06	-1.388632e-08	-3.830831e+01	-9.099532e+02
1.000000e-08	-5.474135e-06	-1.388447e-08	-3.829531e+01	-9.099490e+02
2.000000e-08	-5.470297e-06	-1.387612e-08	-3.826846e+01	-9.100030e+02
3.000000e-08	-5.464728e-06	-1.386937e-08	-3.822950e+01	-9.100516e+02
4.000000e-08	-5.457533e-06	-1.386198e-08	-3.817917e+01	-9.100173e+02
5.000000e-08	-5.448652e-06	-1.384896e-08	-3.811704e+01	-9.098202e+02
6.000000e-08	-5.437799e-06	-1.383060e-08	-3.804111e+01	-9.093891e+02
7.000000e-08	-5.424864e-06	-1.380154e-08	-3.795062e+01	-9.086724e+02
8.000000e-08	-5.409917e-06	-1.379014e-08	-3.784606e+01	-9.076448e+02
9.000000e-08	-5.392630e-06	-1.384099e-08	-3.772512e+01	-9.063114e+02
1.000000e-07	-5.373065e-06	-1.382999e-08	-3.758825e+01	-9.047063e+02
1.100000e-07	-5.351552e-06	-1.376703e-08	-3.743776e+01	-9.028881e+02
1.200000e-07	-5.328272e-06	-1.373657e-08	-3.727490e+01	-9.009312e+02
1.300000e-07	-5.303547e-06	-1.362484e-08	-3.710193e+01	-8.989152e+02
1.400000e-07	-5.277354e-06	-1.363920e-08	-3.691869e+01	-8.969131e+02
1.500000e-07	-5.249265e-06	-1.373172e-08	-3.672219e+01	-8.949811e+02
1.600000e-07	-5.219417e-06	-1.355429e-08	-3.651338e+01	-8.931500e+02
1.700000e-07	-5.188020e-06	-1.358140e-08	-3.629374e+01	-8.914204e+02
1.800000e-07	-5.154642e-06	-1.366629e-08	-3.606024e+01	-8.897624e+02
1.900000e-07	-5.119314e-06	-1.349418e-08	-3.581309e+01	-8.881191e+02
2.000000e-07	-5.082468e-06	-1.351986e-08	-3.555533e+01	-8.864147e+02
2.100000e-07	-5.043890e-06	-1.347275e-08	-3.528545e+01	-8.845640e+02
2.200000e-07	-5.003473e-06	-1.334127e-08	-3.500271e+01	-8.824851e+02
2.300000e-07	-4.961132e-06	-1.340237e-08	-3.470650e+01	-8.801101e+02
2.400000e-07	-4.916811e-06	-1.336887e-08	-3.439644e+01	-8.773950e+02
2.500000e-07	-4.870792e-06	-1.331297e-08	-3.407451e+01	-8.743260e+02
2.600000e-07	-4.822983e-06	-1.328104e-08	-3.374006e+01	-8.709216e+02
2.700000e-07	-4.773167e-06	-1.318111e-08	-3.339156e+01	-8.672302e+02
2.800000e-07	-4.721258e-06	-1.315512e-08	-3.302842e+01	-8.633238e+02
2.900000e-07	-4.667452e-06	-1.309670e-08	-3.265201e+01	-8.592878e+02
3.000000e-07	-4.612021e-06	-1.302814e-08	-3.226423e+01	-8.552094e+02
3.100000e-07	-4.554898e-06	-1.298220e-08	-3.186462e+01	-8.511650e+02
3.200000e-07	-4.495977e-06	-1.295438e-08	-3.145242e+01	-8.472096e+02
3.300000e-07	-4.435419e-06	-1.292267e-08	-3.102878e+01	-8.433680e+02
3.400000e-07	-4.373420e-06	-1.281269e-08	-3.059505e+01	-8.396315e+02
3.500000e-07	-4.309938e-06	-1.275046e-08	-3.015096e+01	-8.359579e+02
3.600000e-07	-4.244909e-06	-1.268097e-08	-2.969604e+01	-8.322767e+02
3.700000e-07	-4.178269e-06	-1.261395e-08	-2.922984e+01	-8.284985e+02
3.800000e-07	-4.109982e-06	-1.257649e-08	-2.875213e+01	-8.245265e+02
3.900000e-07	-4.040208e-06	-1.248434e-08	-2.826401e+01	-8.202701e+02
4.000000e-07	-3.969139e-06	-1.240953e-08	-2.776683e+01	-8.156568e+02
4.100000e-07	-3.896814e-06	-1.233596e-08	-2.726087e+01	-8.106424e+02
4.200000e-07	-3.823077e-06	-1.225745e-08	-2.674503e+01	-8.052173e+02
4.300000e-07	-3.747656e-06	-1.216679e-08	-2.621741e+01	-7.994081e+02
4.400000e-07	-3.670578e-06	-1.207479e-08	-2.567819e+01	-7.932736e+02
4.500000e-07	-3.592028e-06	-1.201197e-08	-2.512869e+01	-7.868968e+02
4.600000e-07	-3.512028e-06	-1.193250e-08	-2.456903e+01	-7.803733e+02
4.700000e-07	-3.430655e-06	-1.184068e-08	-2.399977e+01	-7.737972e+02
4.800000e-07	-3.348029e-06	-1.172975e-08	-2.342175e+01	-7.672472e+02
4.900000e-07	-3.264313e-06	-1.161917e-08	-2.283610e+01	-7.607747e+02
5.000000e-07	-3.179613e-06	-1.152785e-08	-2.224356e+01	-7.543951e+02
5.100000e-07	-3.093982e-06	-1.142620e-08	-2.164451e+01	-7.480840e+02
5.200000e-07	-3.007403e-06	-1.132148e-08	-2.103883e+01	-7.417791e+02
5.300000e-07	-2.919854e-06	-1.121752e-08	-2.042637e+01	-7.353872e+02
5.400000e-07	-2.831375e-06	-1.111337e-08	-1.980740e+01	-7.287959e+02
5.500000e-07	-2.741855e-06	-1.099874e-08	-1.918115e+01	-7.218885e+02
5.600000e-07	-2.651229e-06	-1.086947e-08	-1.854715e+01	-7.145592e+02
5.700000e-07	-2.559501e-06	-1.074102e-08	-1.790546e+01	-7.067280e+02
5.800000e-07	-2.466818e-06	-1.061625e-08	-1.725707e+01	-6.983518e+02
5.900000e-07	-2.373389e-06	-1.049411e-08	-1.660348e+01	-6.894311e+02
6.000000e-07	-2.279211e-06	-1.036019e-08	-1.594463e+01	-6.800100e+02
6.100000e-07	-2.184242e-06	-1.021925e-08	-1.528027e+01	-6.701701e+02
6.200000e-07	-2.088577e-06	-1.007847e-08	-1.461102e+01	-6.600194e+02
6.300000e-07	-1.992109e-06	-9.936067e-09	-1.393616e+01	-6.496757e+02
6.400000e-07	-1.894774e-06	-9.789828e-09	-1.325524e+01	-6.392487e+02
6.500000e-07	-1.796699e-06	-9.630797e-09	-1.256914e+01	-6.288217e+02
6.600000e-07	-1.697974e-06	-9.467019e-09	-1.187848e+01	-6.184365e+02
6.700000e-07	-1.598577e-06	-9.304676e-09	-1.118314e+01	-6.080831e+02
6.800000e-07	-1.498485e-06	-9.136495e-09	-1.048292e+01	-5.976960e+02
6.900000e-07	-1.397832e-06	-8.954260e-09	-9.778791e+00	-5.871585e+02
7.000000e-07	-1.296753e-06	-8.766915e-09	-9.071672e+00	-5.763141e+02
7.100000e-07	-1.195299e-06	-8.581149e-09	-8.361934e+00	-5.649844e+02
7.200000e-07	-1.093498e-06	-8.392225e-09	-7.649761e+00	-5.529906e+02
7.300000e-07	-9.913430e-07	-8.193819e-09	-6.935121e+00	-5.401770e+02
7.400000e-07	-8.888127e-07	-7.982710e-09	-6.217851e+00	-5.264322e+02
7.500000e-07	-7.859235e-07	-7.764708e-09	-5.498071e+00	-5.117052e+02
7.600000e-07	-6.827893e-07	-7.539475e-09	-4.776577e+00	-4.960140e+02
7.700000e-07	-5.794842e-07	-7.305917e-09	-4.053887e+00	-4.794447e+02
7.800000e-07	-4.759868e-07	-7.061848e-09	-3.329852e+00	-4.621402e+02
7.900000e-07	-3.723383e-07	-6.810946e-09	-2.604760e+00	-4.442790e+02
8.000000e-07	-2.685884e-07	-6.556064e-09	-1.878959e+00	-4.260468e+02
8.100000e-07	-1.647325e-07	-6.288912e-09	-1.152416e+00	-4.076025e+02
8.200000e-07	-6.074112e-08	-6.004400e-09	-4.249256e-01	-3.890440e+02
8.300000e-07	4.323215e-08	-5.703707e-09	3.024384e-01	-3.703772e+02
8.400000e-07	1.471272e-07	-5.390904e-09	1.029255e+00	-3.514925e+02
8.500000e-07	2.509679e-07	-5.066067e-09	1.755692e+00	-3.321526e+02
8.600000e-07	3.547122e-07	-4.725434e-09	2.481453e+00	-3.119944e+02
8.700000e-07	4.583657e-07	-4.361890e-09	3.206581e+00	-2.905459e+02
8.800000e-07	5.618754e-07	-3.975795e-09	3.930702e+00	-2.672575e+02
8.900000e-07	6.652449e-07	-3.571214e-09	4.653842e+00	-2.415461e+02
9.000000e-07	7.684294e-07	-3.143858e-09	5.375688e+00	-2.128478e+02
9.100000e-07	8.712997e-07	-2.681106e-09	6.095336e+00	-1.806748e+02
9.200000e-07	9.738344e-07	-2.171757e-09	6.812636e+00	-1.446702e+02
9.300000e-07	1.076032e-06	-1.611745e-09	7.527580e+00	-1.046564e+02
9.400000e-07	1.177809e-06	-9.927181e-10	8.239575e+00	-6.067048e+01
9.500000e-07	1.279197e-06	-3.032884e-10	8.948853e+00	-1.298304e+01
9.600000e-07	1.380244e-06	4.669435e-10	9.655748e+00	3.790172e+01
9.700000e-07	1.480881e-06	1.314357e-09	1.035977e+01	9.126620e+01
9.800000e-07	1.581057e-06	2.215432e-09	1.106057e+01	1.462181e+02
9.900000e-07	1.680708e-06	3.136519e-09	1.175770e+01	2.017449e+02
1.000000e-06	1.779640e-06	4.043256e-09	1.244980e+01	2.567791e+02
1.010000e-06	1.877748e-06	4.901317e-09	1.313613e+01	3.102687e+02
1.020000e-06	1.975084e-06	5.679615e-09	1.381706e+01	3.612469e+02
1.030000e-06	2.071677e-06	6.369092e-09	1.449280e+01	4.088933e+02
1.040000e-06	2.167542e-06	6.978003e-09	1.516344e+01	4.525840e+02
1.050000e-06	2.262667e-06	7.516528e-09	1.582890e+01	4.919229e+02
1.060000e-06	2.356967e-06	7.991341e-09	1.648859e+01	5.267547e+02
1.070000e-06	2.450510e-06	8.412666e-09	1.714299e+01	5.571575e+02
1.080000e-06	2.543410e-06	8.789378e-09	1.779289e+01	5.834172e+02
1.090000e-06	2.635489e-06	9.129875e-09	1.843704e+01	6.059855e+02
1.100000e-06	2.726476e-06	9.441177e-09	1.907356e+01	6.254288e+02
1.110000e-06	2.816211e-06	9.725259e-09	1.970132e+01	6.423699e+02
1.120000e-06	2.904833e-06	9.983643e-09	2.032129e+01	6.574318e+02
1.130000e-06	2.992512e-06	1.021951e-08	2.093466e+01	6.711860e+02
1.140000e-06	3.079243e-06	1.044016e-08	2.154140e+01	6.841121e+02
1.150000e-06	3.164966e-06	1.064857e-08	2.214110e+01	6.965701e+02
1.160000e-06	3.249704e-06	1.084326e-08	2.273389e+01	7.087882e+02
1.170000e-06	3.333459e-06	1.102355e-08	2.331982e+01	7.208660e+02
1.180000e-06	3.415963e-06	1.119303e-08	2.389699e+01	7.327903e+02
1.190000e-06	3.497160e-06	1.135336e-08	2.446502e+01	7.444618e+02
1.200000e-06	3.577113e-06	1.150354e-08	2.502434e+01	7.557279e+02
1.210000e-06	3.655732e-06	1.164410e-08	2.557434e+01	7.664178e+02
1.220000e-06	3.733082e-06	1.177779e-08	2.611546e+01	7.763751e+02
1.230000e-06	3.809076e-06	1.190595e-08	2.664708e+01	7.854849e+02
1.240000e-06	3.883391e-06	1.202610e-08	2.716697e+01	7.936919e+02
1.250000e-06	3.956095e-06	1.213722e-08	2.767558e+01	8.010088e+02
1.260000e-06	4.027505e-06	1.224282e-08	2.817515e+01	8.075146e+02
1.270000e-06	4.097601e-06	1.234425e-08	2.866551e+01	8.133427e+02
1.280000e-06	4.166362e-06	1.244013e-08	2.914654e+01	8.186635e+02
1.290000e-06	4.233645e-06	1.253145e-08	2.961723e+01	8.236619e+02
1.300000e-06	4.299189e-06	1.261916e-08	3.007576e+01	8.285143e+02
1.310000e-06	4.363172e-06	1.270492e-08	3.052336e+01	8.333674e+02
1.320000e-06	4.425749e-06	1.278859e-08	3.096113e+01	8.383224e+02
1.330000e-06	4.486945e-06	1.286702e-08	3.138924e+01	8.434258e+02
1.340000e-06	4.546708e-06	1.294022e-08	3.180732e+01	8.486674e+02
1.350000e-06	4.604690e-06	1.301166e-08	3.221294e+01	8.539863e+02
1.360000e-06	4.660893e-06	1.308243e-08	3.260612e+01	8.592830e+02
1.370000e-06	4.715520e-06	1.314962e-08	3.298828e+01	8.644358e+02
1.380000e-06	4.768372e-06	1.321077e-08	3.335802e+01	8.693198e+02
1.390000e-06	4.819121e-06	1.326856e-08	3.371303e+01	8.738245e+02
1.400000e-06	4.867869e-06	1.332571e-08	3.405407e+01	8.778693e+02
1.410000e-06	4.914947e-06	1.337950e-08	3.438341e+01	8.814139e+02
1.420000e-06	4.960420e-06	1.342563e-08	3.470152e+01	8.844627e+02
1.430000e-06	5.004272e-06	1.346870e-08	3.500829e+01	8.870627e+02
1.440000e-06	5.046197e-06	1.351340e-08	3.530159e+01	8.892964e+02
1.450000e-06	5.086228e-06	1.355790e-08	3.558163e+01	8.912690e+02
1.460000e-06	5.124624e-06	1.359907e-08	3.585024e+01	8.930938e+02
1.470000e-06	5.161328e-06	1.363677e-08	3.610701e+01	8.948770e+02
1.480000e-06	5.196110e-06	1.367248e-08	3.635033e+01	8.967033e+02
1.490000e-06	5.228905e-06	1.370396e-08	3.657975e+01	8.986260e+02
1.500000e-06	5.259911e-06	1.373049e-08	3.679666e+01	9.006604e+02
1.510000e-06	5.289262e-06	1.375429e-08	3.700200e+01	9.027843e+02
1.520000e-06	5.316822e-06	1.377736e-08	3.719479e+01	9.049422e+02
1.530000e-06	5.342253e-06	1.380081e-08	3.737270e+01	9.070547e+02
1.540000e-06	5.365676e-06	1.382613e-08	3.753656e+01	9.090308e+02
1.550000e-06	5.387378e-06	1.385023e-08	3.768839e+01	9.107814e+02
1.560000e-06	5.407367e-06	1.386882e-08	3.782822e+01	9.122323e+02
1.570000e-06	5.425466e-06	1.388336e-08	3.795484e+01	9.133345e+02
1.580000e-06	5.441532e-06	1.389597e-08	3.806723e+01	9.140711e+02
1.590000e-06	5.455651e-06	1.390687e-08	3.816600e+01	9.144591e+02
1.600000e-06	5.467708e-06	1.391692e-08	3.825034e+01	9.145468e+02
1.610000e-06	5.477503e-06	1.392595e-08	3.831887e+01	9.144064e+02
1.620000e-06	5.485280e-06	1.393261e-08	3.837327e+01	9.141242e+02
1.630000e-06	5.491279e-06	1.393669e-08	3.841524e+01	9.137879e+02
1.640000e-06	5.495455e-06	1.393995e-08	3.844445e+01	9.134747e+02
1.650000e-06	5.497559e-06	1.394302e-08	3.845918e+01	9.132409e+02
1.660000e-06	5.497677e-06	1.394275e-08	3.846000e+01	9.131143e+02
1.670000e-06	5.496082e-06	1.393547e-08	3.844884e+01	9.130911e+02
1.680000e-06	5.492847e-06	1.393208e-08	3.842621e+01	9.131371e+02
1.690000e-06	5.487698e-06	1.392794e-08	3.839019e+01	9.131928e+02
1.700000e-06	5.480554e-06	1.392070e-08	3.834022e+01	9.131829e+02
1.710000e-06	5.471788e-06	1.391338e-08	3.827889e+01	9.130269e+02
1.720000e-06	5.461446e-06	1.390801e-08	3.820654e+01	9.126509e+02
1.730000e-06	5.449133e-06	1.391691e-08	3.812040e+01	9.119982e+02
1.740000e-06	5.434692e-06	1.386477e-08	3.801938e+01	9.110377e+02
1.750000e-06	5.418222e-06	1.377673e-08	3.790416e+01	9.097676e+02
1.760000e-06	5.399175e-06	1.378699e-08	3.777091e+01	9.082163e+02
1.770000e-06	5.377350e-06	1.378914e-08	3.761823e+01	9.064377e+02
1.780000e-06	5.353557e-06	1.385170e-08	3.745178e+01	9.045036e+02
1.790000e-06	5.328754e-06	1.384781e-08	3.727827e+01	9.024934e+02
1.800000e-06	5.303155e-06	1.364270e-08	3.709918e+01	9.004827e+02
1.810000e-06	5.275627e-06	1.374442e-08	3.690661e+01	8.985319e+02
1.820000e-06	5.245736e-06	1.376765e-08	3.669750e+01	8.966777e+02
1.830000e-06	5.214306e-06	1.358943e-08	3.647762e+01	8.949277e+02
1.840000e-06	5.181084e-06	1.373643e-08	3.624522e+01	8.932580e+02
1.850000e-06	5.146052e-06	1.366492e-08	3.600014e+01	8.916173e+02
1.860000e-06	5.109417e-06	1.353424e-08	3.574385e+01	8.899327e+02
1.870000e-06	5.070678e-06	1.367469e-08	3.547285e+01	8.881203e+02
1.880000e-06	5.030181e-06	1.351386e-08	3.518955e+01	8.860964e+02
1.890000e-06	4.988114e-06	1.345469e-08	3.489526e+01	8.837893e+02
1.900000e-06	4.944193e-06	1.346710e-08	3.458800e+01	8.811491e+02
1.910000e-06	4.898535e-06	1.330715e-08	3.426859e+01	8.781553e+02
1.920000e-06	4.850930e-06	1.340406e-08	3.393556e+01	8.748194e+02
1.930000e-06	4.801537e-06	1.329958e-08	3.359003e+01	8.711838e+02
1.940000e-06	4.750451e-06	1.320259e-08	3.323264e+01	8.673164e+02
1.950000e-06	4.697224e-06	1.324924e-08	3.286028e+01	8.633004e+02
1.960000e-06	4.642152e-06	1.310926e-08	3.247502e+01	8.592239e+02
1.970000e-06	4.585403e-06	1.309178e-08	3.207802e+01	8.551665e+02
1.980000e-06	4.527053e-06	1.298711e-08	3.166982e+01	8.511885e+02
1.990000e-06	4.467186e-06	1.294118e-08	3.125101e+01	8.473218e+02
2.000000e-06	4.405558e-06	1.294177e-08	3.081988e+01	8.435651e+02
2.010000e-06	4.342334e-06	1.281650e-08	3.037759e+01	8.398828e+02
2.020000e-06	4.277584e-06	1.281935e-08	2.992461e+01	8.362101e+02
2.030000e-06	4.211428e-06	1.269137e-08	2.946181e+01	8.324605e+02
2.040000e-06	4.143810e-06	1.262887e-08	2.898877e+01	8.285379e+02
2.050000e-06	4.074425e-06	1.258221e-08	2.850338e+01	8.243491e+02
2.060000e-06	4.003509e-06	1.245638e-08	2.800728e+01	8.198168e+02
2.070000e-06	3.931251e-06	1.243241e-08	2.750178e+01	8.148901e+02
2.080000e-06	3.857664e-06	1.232216e-08	2.698699e+01	8.095518e+02
2.090000e-06	3.782533e-06	1.227229e-08	2.646140e+01	8.038207e+02
2.100000e-06	3.705735e-06	1.217380e-08	2.592415e+01	7.977493e+02
2.110000e-06	3.627445e-06	1.206314e-08	2.537645e+01	7.914164e+02
2.120000e-06	3.547853e-06	1.199796e-08	2.481965e+01	7.849159e+02
2.130000e-06	3.467120e-06	1.189144e-08	2.425487e+01	7.783435e+02
2.140000e-06	3.385222e-06	1.183150e-08	2.368194e+01	7.717823e+02
2.150000e-06	3.302221e-06	1.171280e-08	2.310129e+01	7.652903e+02
2.160000e-06	3.217993e-06	1.161462e-08	2.251206e+01	7.588913e+02
2.170000e-06	3.132474e-06	1.150981e-08	2.191379e+01	7.525693e+02
2.180000e-06	3.045823e-06	1.139308e-08	2.130761e+01	7.462697e+02
2.190000e-06	2.958151e-06	1.129157e-08	2.069429e+01	7.399052e+02
2.200000e-06	2.869484e-06	1.117525e-08	2.007399e+01	7.333664e+02
2.210000e-06	2.779829e-06	1.107658e-08	1.944680e+01	7.265360e+02
2.220000e-06	2.689325e-06	1.096051e-08	1.881367e+01	7.193047e+02
2.230000e-06	2.597957e-06	1.084267e-08	1.817448e+01	7.115858e+02
2.240000e-06	2.505646e-06	1.070572e-08	1.752870e+01	7.033277e+02
2.250000e-06	2.412326e-06	1.056982e-08	1.687586e+01	6.945212e+02
2.260000e-06	2.317964e-06	1.043651e-08	1.621574e+01	6.852012e+02
2.270000e-06	2.222727e-06	1.030699e-08	1.554949e+01	6.754424e+02
2.280000e-06	2.126784e-06	1.017341e-08	1.487830e+01	6.653482e+02
2.290000e-06	2.030184e-06	1.002640e-08	1.420252e+01	6.550359e+02
2.300000e-06	1.932930e-06	9.882112e-09	1.352216e+01	6.446183e+02
2.310000e-06	1.835053e-06	9.728771e-09	1.283745e+01	6.341860e+02
2.320000e-06	1.736651e-06	9.569973e-09	1.214906e+01	6.237906e+02
2.330000e-06	1.637722e-06	9.396591e-09	1.145698e+01	6.134337e+02
2.340000e-06	1.538250e-06	9.230453e-09	1.076111e+01	6.030618e+02
2.350000e-06	1.438246e-06	9.060865e-09	1.006151e+01	5.925683e+02
2.360000e-06	1.337647e-06	8.878530e-09	9.357756e+00	5.818041e+02
2.370000e-06	1.236483e-06	8.690868e-09	8.650040e+00	5.705935e+02
2.380000e-06	1.134799e-06	8.495932e-09	7.938696e+00	5.587560e+02
2.390000e-06	1.032639e-06	8.300599e-09	7.224017e+00	5.461290e+02
2.400000e-06	9.300013e-07	8.092976e-09	6.505993e+00	5.325901e+02
2.410000e-06	8.269428e-07	7.874962e-09	5.785029e+00	5.180742e+02
2.420000e-06	7.236216e-07	7.649808e-09	5.062226e+00	5.025843e+02
2.430000e-06	6.200687e-07	7.418649e-09	4.337803e+00	4.861926e+02
2.440000e-06	5.163433e-07	7.181336e-09	3.612174e+00	4.690312e+02
2.450000e-06	4.124604e-07	6.931302e-09	2.885442e+00	4.512732e+02
2.460000e-06	3.084459e-07	6.667249e-09	2.157789e+00	4.331055e+02
2.470000e-06	2.043465e-07	6.397840e-09	1.429543e+00	4.146955e+02
2.480000e-06	1.001768e-07	6.122124e-09	7.008051e-01	3.961572e+02
2.490000e-06	-3.995390e-09	5.830571e-09	-2.795048e-02	3.775184e+02
2.500000e-06	-1.081399e-07	5.519691e-09	-7.565123e-01	3.586957e+02
2.510000e-06	-2.122367e-07	5.195779e-09	-1.484740e+00	3.394796e+02
2.520000e-06	-3.162494e-07	4.863826e-09	-2.212380e+00	3.195329e+02
2.530000e-06	-4.201535e-07	4.512816e-09	-2.939260e+00	2.984049e+02
2.540000e-06	-5.239128e-07	4.134955e-09	-3.665128e+00	2.755592e+02
2.550000e-06	-6.275244e-07	3.732943e-09	-4.389961e+00	2.504157e+02
2.560000e-06	-7.309761e-07	3.311898e-09	-5.113676e+00	2.224018e+02
2.570000e-06	-8.341271e-07	2.864418e-09	-5.835288e+00	1.910084e+02
2.580000e-06	-9.368805e-07	2.376086e-09	-6.554118e+00	1.558463e+02
2.590000e-06	-1.039213e-06	1.837465e-09	-7.270001e+00	1.166960e+02
2.600000e-06	-1.141066e-06	1.240467e-09	-7.982538e+00	7.354632e+01
2.610000e-06	-1.242448e-06	5.767837e-10	-8.691772e+00	2.661717e+01
2.620000e-06	-1.343283e-06	-1.640286e-10	-9.397184e+00	-2.363630e+01
2.630000e-06	-1.443508e-06	-9.857364e-10	-1.009832e+01	-7.653954e+01
2.640000e-06	-1.543218e-06	-1.874643e-09	-1.079587e+01	-1.312336e+02
2.650000e-06	-1.642441e-06	-2.799581e-09	-1.149000e+01	-1.867265e+02
2.660000e-06	-1.741103e-06	-3.720375e-09	-1.218020e+01	-2.419566e+02
2.670000e-06	-1.839154e-06	-4.601039e-09	-1.286614e+01	-2.958628e+02
2.680000e-06	-1.936605e-06	-5.414224e-09	-1.354787e+01	-3.474543e+02
2.690000e-06	-2.033348e-06	-6.142437e-09	-1.422466e+01	-3.958747e+02
2.700000e-06	-2.129389e-06	-6.785001e-09	-1.489653e+01	-4.404547e+02
2.710000e-06	-2.224849e-06	-7.350700e-09	-1.556434e+01	-4.807477e+02
2.720000e-06	-2.319724e-06	-7.849732e-09	-1.622805e+01	-5.165466e+02
2.730000e-06	-2.413852e-06	-8.292092e-09	-1.688654e+01	-5.478813e+02
2.740000e-06	-2.506914e-06	-8.685961e-09	-1.753757e+01	-5.749959e+02
2.750000e-06	-2.598823e-06	-9.038728e-09	-1.818054e+01	-5.983108e+02
2.760000e-06	-2.689735e-06	-9.358162e-09	-1.881653e+01	-6.183725e+02
2.770000e-06	-2.779758e-06	-9.651362e-09	-1.944630e+01	-6.357968e+02
2.780000e-06	-2.868809e-06	-9.920534e-09	-2.006927e+01	-6.512110e+02
2.790000e-06	-2.956871e-06	-1.016622e-08	-2.068533e+01	-6.652017e+02
2.800000e-06	-3.044062e-06	-1.039320e-08	-2.129529e+01	-6.782709e+02
2.810000e-06	-3.130159e-06	-1.060757e-08	-2.189760e+01	-6.908056e+02
2.820000e-06	-3.214877e-06	-1.080815e-08	-2.249026e+01	-7.030627e+02
2.830000e-06	-3.298346e-06	-1.099236e-08	-2.307418e+01	-7.151684e+02
2.840000e-06	-3.380763e-06	-1.116232e-08	-2.365074e+01	-7.271318e+02
2.850000e-06	-3.462085e-06	-1.132265e-08	-2.421965e+01	-7.388692e+02
2.860000e-06	-3.542223e-06	-1.147752e-08	-2.478026e+01	-7.502367e+02
2.870000e-06	-3.621221e-06	-1.162397e-08	-2.533291e+01	-7.610645e+02
2.880000e-06	-3.698723e-06	-1.175818e-08	-2.587509e+01	-7.711904e+02
2.890000e-06	-3.774556e-06	-1.188337e-08	-2.640560e+01	-7.804889e+02
2.900000e-06	-3.849030e-06	-1.200529e-08	-2.692659e+01	-7.888909e+02
2.910000e-06	-3.922137e-06	-1.212277e-08	-2.743802e+01	-7.963944e+02
2.920000e-06	-3.993894e-06	-1.223066e-08	-2.794001e+01	-8.030645e+02
2.930000e-06	-4.064356e-06	-1.232918e-08	-2.843294e+01	-8.090247e+02
2.940000e-06	-4.133207e-06	-1.242578e-08	-2.891460e+01	-8.144390e+02
