# Temperatura_=_43.45
# Concentracion g/m^3_=_15500.0
# C_Vs_to_Am_M_A/Vsm_=_65563218390.804596
# pendiente_HvsI_1/m_=_3716.3
# ordenada_HvsI_A/m_=_1297.0
# frecuencia_Hz_=_300800.3472495878

Tiempo_(s)	Campo_(V.s)	Magnetizacion_(V.s)	Campo_(kA/m)	Magnetizacion_(A/m)
0.000000e+00	-5.512613e-06	-1.403025e-08	-3.831087e+01	-9.192824e+02
1.000000e-08	-5.510488e-06	-1.402949e-08	-3.829610e+01	-9.193476e+02
2.000000e-08	-5.506383e-06	-1.402096e-08	-3.826757e+01	-9.194570e+02
3.000000e-08	-5.500576e-06	-1.401159e-08	-3.822721e+01	-9.195349e+02
4.000000e-08	-5.493215e-06	-1.400208e-08	-3.817605e+01	-9.194953e+02
5.000000e-08	-5.484231e-06	-1.398989e-08	-3.811362e+01	-9.192545e+02
6.000000e-08	-5.473181e-06	-1.397317e-08	-3.803682e+01	-9.187432e+02
7.000000e-08	-5.459992e-06	-1.394261e-08	-3.794516e+01	-9.179164e+02
8.000000e-08	-5.444767e-06	-1.393793e-08	-3.783936e+01	-9.167591e+02
9.000000e-08	-5.427157e-06	-1.399267e-08	-3.771697e+01	-9.152890e+02
1.000000e-07	-5.407293e-06	-1.397195e-08	-3.757893e+01	-9.135532e+02
1.100000e-07	-5.385478e-06	-1.390687e-08	-3.742732e+01	-9.116218e+02
1.200000e-07	-5.361881e-06	-1.387585e-08	-3.726332e+01	-9.095775e+02
1.300000e-07	-5.336893e-06	-1.376228e-08	-3.708967e+01	-9.075039e+02
1.400000e-07	-5.310371e-06	-1.378048e-08	-3.690535e+01	-9.054732e+02
1.500000e-07	-5.281909e-06	-1.385304e-08	-3.670755e+01	-9.035360e+02
1.600000e-07	-5.251745e-06	-1.367717e-08	-3.649792e+01	-9.017136e+02
1.700000e-07	-5.220034e-06	-1.372155e-08	-3.627754e+01	-8.999949e+02
1.800000e-07	-5.186262e-06	-1.379324e-08	-3.604283e+01	-8.983372e+02
1.900000e-07	-5.150480e-06	-1.362600e-08	-3.579416e+01	-8.966725e+02
2.000000e-07	-5.113181e-06	-1.364983e-08	-3.553494e+01	-8.949161e+02
2.100000e-07	-5.074167e-06	-1.358000e-08	-3.526381e+01	-8.929784e+02
2.200000e-07	-5.033350e-06	-1.345285e-08	-3.498014e+01	-8.907777e+02
2.300000e-07	-4.990579e-06	-1.350964e-08	-3.468290e+01	-8.882511e+02
2.400000e-07	-4.945827e-06	-1.347098e-08	-3.437189e+01	-8.853639e+02
2.500000e-07	-4.899388e-06	-1.343054e-08	-3.404915e+01	-8.821139e+02
2.600000e-07	-4.851083e-06	-1.339861e-08	-3.371345e+01	-8.785327e+02
2.700000e-07	-4.800715e-06	-1.330772e-08	-3.336340e+01	-8.746807e+02
2.800000e-07	-4.748291e-06	-1.326993e-08	-3.299908e+01	-8.706394e+02
2.900000e-07	-4.693961e-06	-1.319208e-08	-3.262150e+01	-8.664997e+02
3.000000e-07	-4.638029e-06	-1.312800e-08	-3.223279e+01	-8.623494e+02
3.100000e-07	-4.580379e-06	-1.308074e-08	-3.183214e+01	-8.582603e+02
3.200000e-07	-4.520913e-06	-1.305796e-08	-3.141888e+01	-8.542783e+02
3.300000e-07	-4.459888e-06	-1.302871e-08	-3.099477e+01	-8.504160e+02
3.400000e-07	-4.397365e-06	-1.292115e-08	-3.056026e+01	-8.466509e+02
3.500000e-07	-4.333377e-06	-1.285859e-08	-3.011556e+01	-8.429274e+02
3.600000e-07	-4.267794e-06	-1.277778e-08	-2.965978e+01	-8.391643e+02
3.700000e-07	-4.200527e-06	-1.270393e-08	-2.919229e+01	-8.352653e+02
3.800000e-07	-4.131688e-06	-1.265526e-08	-2.871388e+01	-8.311326e+02
3.900000e-07	-4.061391e-06	-1.256487e-08	-2.822534e+01	-8.266797e+02
4.000000e-07	-3.989807e-06	-1.250139e-08	-2.772786e+01	-8.218441e+02
4.100000e-07	-3.916866e-06	-1.242905e-08	-2.722095e+01	-8.165955e+02
4.200000e-07	-3.842385e-06	-1.234907e-08	-2.670332e+01	-8.109409e+02
4.300000e-07	-3.766256e-06	-1.225158e-08	-2.617425e+01	-8.049230e+02
4.400000e-07	-3.688533e-06	-1.215826e-08	-2.563410e+01	-7.986153e+02
4.500000e-07	-3.609271e-06	-1.209053e-08	-2.508326e+01	-7.921107e+02
4.600000e-07	-3.528508e-06	-1.200407e-08	-2.452198e+01	-7.855092e+02
4.700000e-07	-3.446477e-06	-1.191299e-08	-2.395189e+01	-7.789022e+02
4.800000e-07	-3.363283e-06	-1.180659e-08	-2.337372e+01	-7.723595e+02
4.900000e-07	-3.279053e-06	-1.170508e-08	-2.278835e+01	-7.659176e+02
5.000000e-07	-3.193838e-06	-1.161065e-08	-2.219614e+01	-7.595730e+02
5.100000e-07	-3.107627e-06	-1.150075e-08	-2.159700e+01	-7.532814e+02
5.200000e-07	-3.020423e-06	-1.138928e-08	-2.099096e+01	-7.469612e+02
5.300000e-07	-2.932265e-06	-1.128084e-08	-2.037829e+01	-7.405041e+02
5.400000e-07	-2.843102e-06	-1.117673e-08	-1.975863e+01	-7.337885e+02
5.500000e-07	-2.752779e-06	-1.106527e-08	-1.913092e+01	-7.266957e+02
5.600000e-07	-2.661412e-06	-1.094021e-08	-1.849595e+01	-7.191262e+02
5.700000e-07	-2.569021e-06	-1.080960e-08	-1.785386e+01	-7.110133e+02
5.800000e-07	-2.475701e-06	-1.067991e-08	-1.720531e+01	-7.023331e+02
5.900000e-07	-2.381632e-06	-1.055386e-08	-1.655156e+01	-6.931085e+02
6.000000e-07	-2.286780e-06	-1.041956e-08	-1.589238e+01	-6.834062e+02
6.100000e-07	-2.191160e-06	-1.027895e-08	-1.522785e+01	-6.733277e+02
6.200000e-07	-2.094811e-06	-1.013598e-08	-1.455825e+01	-6.629949e+02
6.300000e-07	-1.997606e-06	-9.990013e-09	-1.388271e+01	-6.525318e+02
6.400000e-07	-1.899488e-06	-9.839066e-09	-1.320082e+01	-6.420448e+02
6.500000e-07	-1.800603e-06	-9.677112e-09	-1.251360e+01	-6.316050e+02
6.600000e-07	-1.701096e-06	-9.510926e-09	-1.182206e+01	-6.212338e+02
6.700000e-07	-1.600994e-06	-9.344446e-09	-1.112639e+01	-6.108957e+02
6.800000e-07	-1.500291e-06	-9.174516e-09	-1.042653e+01	-6.004974e+02
6.900000e-07	-1.399050e-06	-8.993542e-09	-9.722942e+00	-5.898959e+02
7.000000e-07	-1.297350e-06	-8.805815e-09	-9.016157e+00	-5.789139e+02
7.100000e-07	-1.195237e-06	-8.616451e-09	-8.306505e+00	-5.673605e+02
7.200000e-07	-1.092734e-06	-8.422016e-09	-7.594145e+00	-5.550554e+02
7.300000e-07	-9.898436e-07	-8.218650e-09	-6.879090e+00	-5.418528e+02
7.400000e-07	-8.865956e-07	-8.003913e-09	-6.161551e+00	-5.276619e+02
7.500000e-07	-7.830393e-07	-7.782588e-09	-5.441868e+00	-5.124606e+02
7.600000e-07	-6.792658e-07	-7.555758e-09	-4.720676e+00	-4.963008e+02
7.700000e-07	-5.753206e-07	-7.321335e-09	-3.998291e+00	-4.793019e+02
7.800000e-07	-4.711742e-07	-7.075049e-09	-3.274508e+00	-4.616352e+02
7.900000e-07	-3.668969e-07	-6.819200e-09	-2.549814e+00	-4.434972e+02
8.000000e-07	-2.625497e-07	-6.554825e-09	-1.824635e+00	-4.250770e+02
8.100000e-07	-1.581032e-07	-6.276577e-09	-1.098766e+00	-4.065198e+02
8.200000e-07	-5.357355e-08	-5.985632e-09	-3.723188e-01	-3.878920e+02
8.300000e-07	5.100393e-08	-5.681873e-09	3.544607e-01	-3.691511e+02
8.400000e-07	1.555920e-07	-5.366060e-09	1.081314e+00	-3.501258e+02
8.500000e-07	2.601118e-07	-5.035498e-09	1.807692e+00	-3.305097e+02
8.600000e-07	3.644979e-07	-4.686067e-09	2.533141e+00	-3.098694e+02
8.700000e-07	4.687820e-07	-4.312362e-09	3.257882e+00	-2.876696e+02
8.800000e-07	5.729715e-07	-3.911689e-09	3.981966e+00	-2.633118e+02
8.900000e-07	6.769740e-07	-3.488567e-09	4.704749e+00	-2.361852e+02
9.000000e-07	7.807728e-07	-3.040992e-09	5.426117e+00	-2.057245e+02
9.100000e-07	8.843129e-07	-2.557307e-09	6.145686e+00	-1.714699e+02
9.200000e-07	9.875397e-07	-2.024909e-09	6.863079e+00	-1.331218e+02
9.300000e-07	1.090449e-06	-1.434360e-09	7.578266e+00	-9.058675e+01
9.400000e-07	1.192954e-06	-7.775101e-10	8.290645e+00	-4.400709e+01
9.500000e-07	1.295013e-06	-4.271933e-11	8.999916e+00	6.227407e+00
9.600000e-07	1.396639e-06	7.811785e-10	9.706185e+00	5.948904e+01
9.700000e-07	1.497824e-06	1.682564e-09	1.040939e+01	1.149422e+02
9.800000e-07	1.598548e-06	2.628752e-09	1.110939e+01	1.715916e+02
9.900000e-07	1.698717e-06	3.576901e-09	1.180553e+01	2.283455e+02
1.000000e-06	1.798336e-06	4.488589e-09	1.249785e+01	2.840872e+02
1.010000e-06	1.897325e-06	5.334130e-09	1.318579e+01	3.377497e+02
1.020000e-06	1.995402e-06	6.089162e-09	1.386739e+01	3.883854e+02
1.030000e-06	2.092512e-06	6.748793e-09	1.454228e+01	4.352261e+02
1.040000e-06	2.188823e-06	7.325717e-09	1.521160e+01	4.777269e+02
1.050000e-06	2.284431e-06	7.838126e-09	1.587605e+01	5.155910e+02
1.060000e-06	2.379312e-06	8.292448e-09	1.653544e+01	5.487735e+02
1.070000e-06	2.473457e-06	8.693086e-09	1.718972e+01	5.774646e+02
1.080000e-06	2.566818e-06	9.051250e-09	1.783855e+01	6.020540e+02
1.090000e-06	2.659340e-06	9.380074e-09	1.848154e+01	6.230825e+02
1.100000e-06	2.750904e-06	9.682512e-09	1.911788e+01	6.411833e+02
1.110000e-06	2.841273e-06	9.954009e-09	1.974592e+01	6.570208e+02
1.120000e-06	2.930437e-06	1.019888e-08	2.036558e+01	6.712334e+02
1.130000e-06	3.018625e-06	1.042477e-08	2.097846e+01	6.843832e+02
1.140000e-06	3.105901e-06	1.063629e-08	2.158500e+01	6.969195e+02
1.150000e-06	3.192150e-06	1.083448e-08	2.218440e+01	7.091567e+02
1.160000e-06	3.277370e-06	1.102057e-08	2.277666e+01	7.212694e+02
1.170000e-06	3.361615e-06	1.119603e-08	2.336213e+01	7.333014e+02
1.180000e-06	3.444683e-06	1.136448e-08	2.393942e+01	7.451888e+02
1.190000e-06	3.526380e-06	1.152448e-08	2.450719e+01	7.567915e+02
1.200000e-06	3.606781e-06	1.167219e-08	2.506596e+01	7.679296e+02
1.210000e-06	3.685887e-06	1.180712e-08	2.561572e+01	7.784202e+02
1.220000e-06	3.763667e-06	1.193407e-08	2.615626e+01	7.881096e+02
1.230000e-06	3.840107e-06	1.205605e-08	2.668749e+01	7.968982e+02
1.240000e-06	3.914972e-06	1.217141e-08	2.720778e+01	8.047553e+02
1.250000e-06	3.988197e-06	1.228057e-08	2.771667e+01	8.117231e+02
1.260000e-06	4.060002e-06	1.238562e-08	2.821569e+01	8.179100e+02
1.270000e-06	4.130434e-06	1.248724e-08	2.870517e+01	8.234754e+02
1.280000e-06	4.199513e-06	1.258423e-08	2.918525e+01	8.286078e+02
1.290000e-06	4.267168e-06	1.267678e-08	2.965543e+01	8.335008e+02
1.300000e-06	4.333105e-06	1.276411e-08	3.011367e+01	8.383290e+02
1.310000e-06	4.397435e-06	1.284641e-08	3.056074e+01	8.432280e+02
1.320000e-06	4.460339e-06	1.292490e-08	3.099791e+01	8.482797e+02
1.330000e-06	4.521797e-06	1.300077e-08	3.142502e+01	8.535068e+02
1.340000e-06	4.581793e-06	1.307378e-08	3.184197e+01	8.588736e+02
1.350000e-06	4.640044e-06	1.314519e-08	3.224680e+01	8.642957e+02
1.360000e-06	4.696478e-06	1.321701e-08	3.263899e+01	8.696551e+02
1.370000e-06	4.751243e-06	1.328654e-08	3.301959e+01	8.748187e+02
1.380000e-06	4.804248e-06	1.334980e-08	3.338796e+01	8.796584e+02
1.390000e-06	4.855207e-06	1.340640e-08	3.374211e+01	8.840690e+02
1.400000e-06	4.904170e-06	1.345851e-08	3.408239e+01	8.879823e+02
1.410000e-06	4.951408e-06	1.350783e-08	3.441067e+01	8.913752e+02
1.420000e-06	4.997020e-06	1.355541e-08	3.472766e+01	8.942721e+02
1.430000e-06	5.040905e-06	1.360258e-08	3.503265e+01	8.967396e+02
1.440000e-06	5.082788e-06	1.364912e-08	3.532372e+01	8.988763e+02
1.450000e-06	5.122857e-06	1.369390e-08	3.560219e+01	9.007986e+02
1.460000e-06	5.161340e-06	1.373536e-08	3.586963e+01	9.026242e+02
1.470000e-06	5.198167e-06	1.377228e-08	3.612556e+01	9.044561e+02
1.480000e-06	5.233093e-06	1.380439e-08	3.636829e+01	9.063698e+02
1.490000e-06	5.266020e-06	1.383246e-08	3.659713e+01	9.084035e+02
1.500000e-06	5.297163e-06	1.385996e-08	3.681356e+01	9.105552e+02
1.510000e-06	5.326594e-06	1.388854e-08	3.701809e+01	9.127841e+02
1.520000e-06	5.354177e-06	1.391559e-08	3.720979e+01	9.150183e+02
1.530000e-06	5.379663e-06	1.393781e-08	3.738690e+01	9.171660e+02
1.540000e-06	5.403158e-06	1.395781e-08	3.755018e+01	9.191295e+02
1.550000e-06	5.424897e-06	1.397907e-08	3.770127e+01	9.208195e+02
1.560000e-06	5.444908e-06	1.399858e-08	3.784034e+01	9.221678e+02
1.570000e-06	5.462992e-06	1.401393e-08	3.796602e+01	9.231368e+02
1.580000e-06	5.479004e-06	1.402677e-08	3.807730e+01	9.237245e+02
1.590000e-06	5.493058e-06	1.403837e-08	3.817496e+01	9.239647e+02
1.600000e-06	5.504956e-06	1.404911e-08	3.825765e+01	9.239216e+02
1.610000e-06	5.514575e-06	1.405706e-08	3.832450e+01	9.236805e+02
1.620000e-06	5.522237e-06	1.406181e-08	3.837775e+01	9.233361e+02
1.630000e-06	5.528105e-06	1.406647e-08	3.841853e+01	9.229792e+02
1.640000e-06	5.532093e-06	1.407167e-08	3.844624e+01	9.226841e+02
1.650000e-06	5.534042e-06	1.407556e-08	3.845979e+01	9.224990e+02
1.660000e-06	5.534072e-06	1.407281e-08	3.846000e+01	9.224393e+02
1.670000e-06	5.532356e-06	1.406118e-08	3.844807e+01	9.224869e+02
1.680000e-06	5.528908e-06	1.405669e-08	3.842411e+01	9.225927e+02
1.690000e-06	5.523556e-06	1.405520e-08	3.838692e+01	9.226845e+02
1.700000e-06	5.516281e-06	1.404826e-08	3.833636e+01	9.226774e+02
1.710000e-06	5.507375e-06	1.403611e-08	3.827446e+01	9.224862e+02
1.720000e-06	5.496733e-06	1.402794e-08	3.820050e+01	9.220376e+02
1.730000e-06	5.484029e-06	1.403642e-08	3.811221e+01	9.212808e+02
1.740000e-06	5.469339e-06	1.397274e-08	3.801012e+01	9.201939e+02
1.750000e-06	5.452653e-06	1.389163e-08	3.789417e+01	9.187878e+02
1.760000e-06	5.433337e-06	1.390686e-08	3.775992e+01	9.171037e+02
1.770000e-06	5.411214e-06	1.390501e-08	3.760618e+01	9.152075e+02
1.780000e-06	5.387154e-06	1.397305e-08	3.743897e+01	9.131803e+02
1.790000e-06	5.362189e-06	1.395269e-08	3.726547e+01	9.111063e+02
1.800000e-06	5.336343e-06	1.376426e-08	3.708585e+01	9.090613e+02
1.810000e-06	5.308395e-06	1.388045e-08	3.689162e+01	9.071012e+02
1.820000e-06	5.278177e-06	1.388048e-08	3.668161e+01	9.052540e+02
1.830000e-06	5.246525e-06	1.373319e-08	3.646164e+01	9.035157e+02
1.840000e-06	5.213091e-06	1.388422e-08	3.622928e+01	9.018499e+02
1.850000e-06	5.177802e-06	1.378211e-08	3.598404e+01	9.001935e+02
1.860000e-06	5.140738e-06	1.369407e-08	3.572645e+01	8.984642e+02
1.870000e-06	5.101551e-06	1.383276e-08	3.545412e+01	8.965728e+02
1.880000e-06	5.060698e-06	1.365694e-08	3.517021e+01	8.944345e+02
1.890000e-06	5.018206e-06	1.362053e-08	3.487490e+01	8.919818e+02
1.900000e-06	4.973782e-06	1.359826e-08	3.456616e+01	8.891732e+02
1.910000e-06	4.927649e-06	1.344264e-08	3.424556e+01	8.859994e+02
1.920000e-06	4.879659e-06	1.353553e-08	3.391204e+01	8.824850e+02
1.930000e-06	4.829879e-06	1.342116e-08	3.356609e+01	8.786847e+02
1.940000e-06	4.778213e-06	1.336989e-08	3.320702e+01	8.746765e+02
1.950000e-06	4.724408e-06	1.338952e-08	3.283309e+01	8.705502e+02
1.960000e-06	4.668879e-06	1.325023e-08	3.244719e+01	8.663954e+02
1.970000e-06	4.611688e-06	1.323219e-08	3.204973e+01	8.622883e+02
1.980000e-06	4.552892e-06	1.310042e-08	3.164112e+01	8.582811e+02
1.990000e-06	4.492478e-06	1.307477e-08	3.122126e+01	8.543939e+02
2.000000e-06	4.430350e-06	1.305447e-08	3.078949e+01	8.506116e+02
2.010000e-06	4.366696e-06	1.295153e-08	3.034712e+01	8.468854e+02
2.020000e-06	4.301453e-06	1.295897e-08	2.989370e+01	8.431385e+02
2.030000e-06	4.234793e-06	1.281442e-08	2.943043e+01	8.392770e+02
2.040000e-06	4.166583e-06	1.276200e-08	2.895639e+01	8.352022e+02
2.050000e-06	4.096585e-06	1.268030e-08	2.846993e+01	8.308242e+02
2.060000e-06	4.025115e-06	1.256809e-08	2.797324e+01	8.260744e+02
2.070000e-06	3.952326e-06	1.254021e-08	2.746738e+01	8.209150e+02
2.080000e-06	3.878148e-06	1.243077e-08	2.695187e+01	8.153450e+02
2.090000e-06	3.802266e-06	1.239483e-08	2.642451e+01	8.093997e+02
2.100000e-06	3.724723e-06	1.228270e-08	2.588561e+01	8.031467e+02
2.110000e-06	3.645799e-06	1.218638e-08	2.533711e+01	7.966760e+02
2.120000e-06	3.565610e-06	1.210072e-08	2.477983e+01	7.900870e+02
2.130000e-06	3.484285e-06	1.198695e-08	2.421464e+01	7.834744e+02
2.140000e-06	3.401834e-06	1.192088e-08	2.364164e+01	7.769136e+02
2.150000e-06	3.318192e-06	1.180330e-08	2.306036e+01	7.704490e+02
2.160000e-06	3.233219e-06	1.172061e-08	2.246982e+01	7.640860e+02
2.170000e-06	3.147032e-06	1.161211e-08	2.187085e+01	7.577887e+02
2.180000e-06	3.059717e-06	1.150361e-08	2.126404e+01	7.514830e+02
2.190000e-06	2.971357e-06	1.139239e-08	2.064996e+01	7.450653e+02
2.200000e-06	2.882065e-06	1.126659e-08	2.002941e+01	7.384154e+02
2.210000e-06	2.791856e-06	1.115666e-08	1.940249e+01	7.314128e+02
2.220000e-06	2.700743e-06	1.103461e-08	1.876928e+01	7.239524e+02
2.230000e-06	2.608576e-06	1.092079e-08	1.812875e+01	7.159595e+02
2.240000e-06	2.515388e-06	1.078599e-08	1.748113e+01	7.074005e+02
2.250000e-06	2.421280e-06	1.065597e-08	1.682711e+01	6.982884e+02
2.260000e-06	2.326289e-06	1.051855e-08	1.616695e+01	6.886809e+02
2.270000e-06	2.230504e-06	1.038086e-08	1.550128e+01	6.786732e+02
2.280000e-06	2.133958e-06	1.023680e-08	1.483031e+01	6.683843e+02
2.290000e-06	2.036709e-06	1.008518e-08	1.415446e+01	6.579392e+02
2.300000e-06	1.938815e-06	9.940739e-09	1.347413e+01	6.474499e+02
2.310000e-06	1.840391e-06	9.789376e-09	1.279012e+01	6.369963e+02
2.320000e-06	1.741409e-06	9.633779e-09	1.210222e+01	6.266115e+02
2.330000e-06	1.641749e-06	9.459474e-09	1.140962e+01	6.162723e+02
2.340000e-06	1.541418e-06	9.286457e-09	1.071235e+01	6.058974e+02
2.350000e-06	1.440436e-06	9.107049e-09	1.001056e+01	5.953534e+02
2.360000e-06	1.338889e-06	8.918725e-09	9.304843e+00	5.844689e+02
2.370000e-06	1.236836e-06	8.725593e-09	8.595607e+00	5.730539e+02
2.380000e-06	1.134322e-06	8.528648e-09	7.883167e+00	5.609237e+02
2.390000e-06	1.031393e-06	8.334342e-09	7.167848e+00	5.479233e+02
2.400000e-06	9.280543e-07	8.128383e-09	6.449675e+00	5.339485e+02
2.410000e-06	8.243716e-07	7.907859e-09	5.729114e+00	5.189619e+02
2.420000e-06	7.204217e-07	7.675268e-09	5.006696e+00	5.029995e+02
2.430000e-06	6.162622e-07	7.436102e-09	4.282821e+00	4.861675e+02
2.440000e-06	5.119463e-07	7.192553e-09	3.557860e+00	4.686278e+02
2.450000e-06	4.074939e-07	6.940407e-09	2.831950e+00	4.505740e+02
2.460000e-06	3.028639e-07	6.674437e-09	2.104806e+00	4.322000e+02
2.470000e-06	1.980477e-07	6.400846e-09	1.376367e+00	4.136634e+02
2.480000e-06	9.313320e-08	6.118512e-09	6.472454e-01	3.950502e+02
2.490000e-06	-1.178838e-08	5.818907e-09	-8.192540e-02	3.763434e+02
2.500000e-06	-1.166493e-07	5.499935e-09	-8.106748e-01	3.574003e+02
2.510000e-06	-2.214483e-07	5.167256e-09	-1.538994e+00	3.379432e+02
2.520000e-06	-3.261241e-07	4.824415e-09	-2.266456e+00	3.175645e+02
2.530000e-06	-4.306641e-07	4.462600e-09	-2.992975e+00	2.957479e+02
2.540000e-06	-5.351098e-07	4.074657e-09	-3.718839e+00	2.719044e+02
2.550000e-06	-6.393691e-07	3.660468e-09	-4.443407e+00	2.454211e+02
2.560000e-06	-7.433928e-07	3.221152e-09	-5.166338e+00	2.157181e+02
2.570000e-06	-8.471349e-07	2.750190e-09	-5.887312e+00	1.823079e+02
2.580000e-06	-9.505291e-07	2.234686e-09	-6.605868e+00	1.448525e+02
2.590000e-06	-1.053574e-06	1.664730e-09	-7.321995e+00	1.032110e+02
2.600000e-06	-1.156224e-06	1.031841e-09	-8.035379e+00	5.747368e+01
2.610000e-06	-1.258421e-06	3.255700e-10	-8.745619e+00	7.977314e+00
2.620000e-06	-1.360121e-06	-4.649240e-10	-9.452395e+00	-4.469952e+01
2.630000e-06	-1.461216e-06	-1.340168e-09	-1.015498e+01	-9.976223e+01
2.640000e-06	-1.561654e-06	-2.276814e-09	-1.085298e+01	-1.562449e+02
2.650000e-06	-1.661486e-06	-3.232825e-09	-1.154678e+01	-2.130707e+02
2.660000e-06	-1.760699e-06	-4.164301e-09	-1.223628e+01	-2.691220e+02
2.670000e-06	-1.859282e-06	-5.037647e-09	-1.292141e+01	-3.233149e+02
2.680000e-06	-1.957257e-06	-5.829797e-09	-1.360230e+01	-3.746707e+02
2.690000e-06	-2.054617e-06	-6.530465e-09	-1.427892e+01	-4.223786e+02
2.700000e-06	-2.151325e-06	-7.143754e-09	-1.495101e+01	-4.658430e+02
2.710000e-06	-2.247318e-06	-7.682228e-09	-1.561813e+01	-5.047129e+02
2.720000e-06	-2.342630e-06	-8.157883e-09	-1.628051e+01	-5.388902e+02
2.730000e-06	-2.437281e-06	-8.580143e-09	-1.693831e+01	-5.685170e+02
2.740000e-06	-2.531041e-06	-8.956353e-09	-1.758991e+01	-5.939442e+02
2.750000e-06	-2.623631e-06	-9.292845e-09	-1.823338e+01	-6.156847e+02
2.760000e-06	-2.715108e-06	-9.599712e-09	-1.886912e+01	-6.343570e+02
2.770000e-06	-2.805582e-06	-9.884158e-09	-1.949788e+01	-6.506240e+02
2.780000e-06	-2.895017e-06	-1.014345e-08	-2.011942e+01	-6.651342e+02
2.790000e-06	-2.983463e-06	-1.037926e-08	-2.073409e+01	-6.784697e+02
2.800000e-06	-3.070976e-06	-1.059735e-08	-2.134228e+01	-6.911061e+02
2.810000e-06	-3.157510e-06	-1.080093e-08	-2.194367e+01	-7.033880e+02
2.820000e-06	-3.242845e-06	-1.099147e-08	-2.253672e+01	-7.155194e+02
2.830000e-06	-3.326822e-06	-1.117113e-08	-2.312033e+01	-7.275709e+02
2.840000e-06	-3.409625e-06	-1.134169e-08	-2.369578e+01	-7.394990e+02
2.850000e-06	-3.491348e-06	-1.150301e-08	-2.426373e+01	-7.511770e+02
2.860000e-06	-3.571908e-06	-1.165522e-08	-2.482360e+01	-7.624305e+02
2.870000e-06	-3.651263e-06	-1.179581e-08	-2.537509e+01	-7.730743e+02
2.880000e-06	-3.729204e-06	-1.192586e-08	-2.591675e+01	-7.829458e+02
2.890000e-06	-3.805578e-06	-1.204790e-08	-2.644752e+01	-7.919325e+02
2.900000e-06	-3.880475e-06	-1.216453e-08	-2.696804e+01	-7.999881e+02
2.910000e-06	-3.953984e-06	-1.227719e-08	-2.747890e+01	-8.071394e+02
2.920000e-06	-4.026161e-06	-1.238538e-08	-2.798051e+01	-8.134817e+02
2.930000e-06	-4.097022e-06	-1.248950e-08	-2.847297e+01	-8.191650e+02
2.940000e-06	-4.166298e-06	-1.258954e-08	-2.895442e+01	-8.243736e+02
