# Temperatura_=_64.88
# Concentracion g/m^3_=_15500.0
# C_Vs_to_Am_M_A/Vsm_=_65563218390.804596
# pendiente_HvsI_1/m_=_3716.3
# ordenada_HvsI_A/m_=_1297.0
# frecuencia_Hz_=_300796.83910961996

Tiempo_(s)	Campo_(V.s)	Magnetizacion_(V.s)	Campo_(kA/m)	Magnetizacion_(A/m)
0.000000e+00	-5.505079e-06	-1.461933e-08	-3.831369e+01	-9.574247e+02
1.000000e-08	-5.503207e-06	-1.461545e-08	-3.830067e+01	-9.576663e+02
2.000000e-08	-5.499340e-06	-1.460862e-08	-3.827375e+01	-9.579192e+02
3.000000e-08	-5.493672e-06	-1.460538e-08	-3.823430e+01	-9.580904e+02
4.000000e-08	-5.486386e-06	-1.459998e-08	-3.818360e+01	-9.580816e+02
5.000000e-08	-5.477510e-06	-1.458640e-08	-3.812182e+01	-9.578040e+02
6.000000e-08	-5.466682e-06	-1.456752e-08	-3.804646e+01	-9.571904e+02
7.000000e-08	-5.453779e-06	-1.453868e-08	-3.795666e+01	-9.562049e+02
8.000000e-08	-5.438886e-06	-1.452323e-08	-3.785301e+01	-9.548478e+02
9.000000e-08	-5.421645e-06	-1.457085e-08	-3.773302e+01	-9.531553e+02
1.000000e-07	-5.402054e-06	-1.456356e-08	-3.759667e+01	-9.511943e+02
1.100000e-07	-5.380467e-06	-1.449847e-08	-3.744643e+01	-9.490529e+02
1.200000e-07	-5.357062e-06	-1.446970e-08	-3.728354e+01	-9.468277e+02
1.300000e-07	-5.332206e-06	-1.436271e-08	-3.711055e+01	-9.446100e+02
1.400000e-07	-5.305883e-06	-1.434115e-08	-3.692735e+01	-9.424729e+02
1.500000e-07	-5.277672e-06	-1.443394e-08	-3.673101e+01	-9.404603e+02
1.600000e-07	-5.247716e-06	-1.427487e-08	-3.652253e+01	-9.385808e+02
1.700000e-07	-5.216192e-06	-1.426134e-08	-3.630313e+01	-9.368059e+02
1.800000e-07	-5.182682e-06	-1.435416e-08	-3.606991e+01	-9.350735e+02
1.900000e-07	-5.147128e-06	-1.419203e-08	-3.582246e+01	-9.332965e+02
2.000000e-07	-5.110050e-06	-1.419351e-08	-3.556441e+01	-9.313742e+02
2.100000e-07	-5.071298e-06	-1.415133e-08	-3.529471e+01	-9.292066e+02
2.200000e-07	-5.030741e-06	-1.400105e-08	-3.501245e+01	-9.267079e+02
2.300000e-07	-4.988271e-06	-1.404586e-08	-3.471687e+01	-9.238187e+02
2.400000e-07	-4.943762e-06	-1.402328e-08	-3.440710e+01	-9.205141e+02
2.500000e-07	-4.897511e-06	-1.395864e-08	-3.408521e+01	-9.168078e+02
2.600000e-07	-4.849441e-06	-1.393499e-08	-3.375065e+01	-9.127498e+02
2.700000e-07	-4.799331e-06	-1.383538e-08	-3.340190e+01	-9.084204e+02
2.800000e-07	-4.747165e-06	-1.377926e-08	-3.303884e+01	-9.039183e+02
2.900000e-07	-4.693110e-06	-1.370639e-08	-3.266264e+01	-8.993478e+02
3.000000e-07	-4.637397e-06	-1.363167e-08	-3.227489e+01	-8.948035e+02
3.100000e-07	-4.579988e-06	-1.357574e-08	-3.187534e+01	-8.903574e+02
3.200000e-07	-4.520817e-06	-1.354992e-08	-3.146353e+01	-8.860481e+02
3.300000e-07	-4.460028e-06	-1.352498e-08	-3.104046e+01	-8.818753e+02
3.400000e-07	-4.397736e-06	-1.339907e-08	-3.060692e+01	-8.777991e+02
3.500000e-07	-4.333945e-06	-1.331773e-08	-3.016295e+01	-8.737450e+02
3.600000e-07	-4.268614e-06	-1.323370e-08	-2.970827e+01	-8.696137e+02
3.700000e-07	-4.201660e-06	-1.314348e-08	-2.924229e+01	-8.652947e+02
3.800000e-07	-4.133058e-06	-1.309759e-08	-2.876484e+01	-8.606813e+02
3.900000e-07	-4.062998e-06	-1.301109e-08	-2.827724e+01	-8.556855e+02
4.000000e-07	-3.991642e-06	-1.293764e-08	-2.778063e+01	-8.502501e+02
4.100000e-07	-3.918998e-06	-1.285787e-08	-2.727505e+01	-8.443572e+02
4.200000e-07	-3.844881e-06	-1.275826e-08	-2.675922e+01	-8.380310e+02
4.300000e-07	-3.769042e-06	-1.264740e-08	-2.623140e+01	-8.313341e+02
4.400000e-07	-3.691545e-06	-1.254260e-08	-2.569204e+01	-8.243599e+02
4.500000e-07	-3.612597e-06	-1.246897e-08	-2.514259e+01	-8.172185e+02
4.600000e-07	-3.532201e-06	-1.237927e-08	-2.458306e+01	-8.100214e+02
4.700000e-07	-3.450399e-06	-1.228255e-08	-2.401374e+01	-8.028650e+02
4.800000e-07	-3.367394e-06	-1.216968e-08	-2.343605e+01	-7.958161e+02
4.900000e-07	-3.283282e-06	-1.205063e-08	-2.285065e+01	-7.889010e+02
5.000000e-07	-3.198182e-06	-1.193971e-08	-2.225839e+01	-7.821001e+02
5.100000e-07	-3.112154e-06	-1.181501e-08	-2.165966e+01	-7.753492e+02
5.200000e-07	-3.025190e-06	-1.170009e-08	-2.105441e+01	-7.685461e+02
5.300000e-07	-2.937277e-06	-1.159279e-08	-2.044256e+01	-7.615642e+02
5.400000e-07	-2.848377e-06	-1.148096e-08	-1.982385e+01	-7.542688e+02
5.500000e-07	-2.758478e-06	-1.135499e-08	-1.919818e+01	-7.465353e+02
5.600000e-07	-2.667417e-06	-1.121389e-08	-1.856442e+01	-7.382667e+02
5.700000e-07	-2.575202e-06	-1.107207e-08	-1.792263e+01	-7.294077e+02
5.800000e-07	-2.482082e-06	-1.093252e-08	-1.727455e+01	-7.199529e+02
5.900000e-07	-2.388156e-06	-1.079673e-08	-1.662085e+01	-7.099488e+02
6.000000e-07	-2.293460e-06	-1.065493e-08	-1.596179e+01	-6.994878e+02
6.100000e-07	-2.198039e-06	-1.050862e-08	-1.529769e+01	-6.886954e+02
6.200000e-07	-2.101799e-06	-1.035582e-08	-1.462789e+01	-6.777126e+02
6.300000e-07	-2.004773e-06	-1.019535e-08	-1.395262e+01	-6.666743e+02
6.400000e-07	-1.907070e-06	-1.003335e-08	-1.327264e+01	-6.556883e+02
6.500000e-07	-1.808635e-06	-9.865557e-09	-1.258756e+01	-6.448165e+02
6.600000e-07	-1.709354e-06	-9.694239e-09	-1.189659e+01	-6.340614e+02
6.700000e-07	-1.609285e-06	-9.519377e-09	-1.120014e+01	-6.233611e+02
6.800000e-07	-1.508665e-06	-9.338638e-09	-1.049985e+01	-6.125918e+02
6.900000e-07	-1.407609e-06	-9.148956e-09	-9.796536e+00	-6.015803e+02
7.000000e-07	-1.306079e-06	-8.952787e-09	-9.089918e+00	-5.901233e+02
7.100000e-07	-1.204137e-06	-8.751082e-09	-8.380431e+00	-5.780123e+02
7.200000e-07	-1.101806e-06	-8.544562e-09	-7.668238e+00	-5.650605e+02
7.300000e-07	-9.990800e-07	-8.336067e-09	-6.953297e+00	-5.511288e+02
7.400000e-07	-8.960698e-07	-8.120882e-09	-6.236376e+00	-5.361454e+02
7.500000e-07	-7.927638e-07	-7.893244e-09	-5.517398e+00	-5.201182e+02
7.600000e-07	-6.891732e-07	-7.652076e-09	-4.796438e+00	-5.031354e+02
7.700000e-07	-5.852954e-07	-7.405808e-09	-4.073480e+00	-4.853548e+02
7.800000e-07	-4.811588e-07	-7.150962e-09	-3.348721e+00	-4.669812e+02
7.900000e-07	-3.768515e-07	-6.884328e-09	-2.622773e+00	-4.482349e+02
8.000000e-07	-2.724101e-07	-6.607015e-09	-1.895892e+00	-4.293129e+02
8.100000e-07	-1.678616e-07	-6.319887e-09	-1.168266e+00	-4.103488e+02
8.200000e-07	-6.325725e-08	-6.024175e-09	-4.402515e-01	-3.913764e+02
8.300000e-07	4.140202e-08	-5.713191e-09	2.881456e-01	-3.722997e+02
8.400000e-07	1.460638e-07	-5.382302e-09	1.016560e+00	-3.528769e+02
8.500000e-07	2.506160e-07	-5.032810e-09	1.744212e+00	-3.327192e+02
8.600000e-07	3.550626e-07	-4.667223e-09	2.471129e+00	-3.113069e+02
8.700000e-07	4.593729e-07	-4.278771e-09	3.197097e+00	-2.880232e+02
8.800000e-07	5.634882e-07	-3.861228e-09	3.921708e+00	-2.622019e+02
8.900000e-07	6.673589e-07	-3.416707e-09	4.644618e+00	-2.331872e+02
9.000000e-07	7.709163e-07	-2.945673e-09	5.365346e+00	-2.003985e+02
9.100000e-07	8.741561e-07	-2.434772e-09	6.083864e+00	-1.633942e+02
9.200000e-07	9.771341e-07	-1.867928e-09	6.800560e+00	-1.219287e+02
9.300000e-07	1.079822e-06	-1.233690e-09	7.515235e+00	-7.599583e+01
9.400000e-07	1.182177e-06	-5.217760e-10	8.227598e+00	-2.585377e+01
9.500000e-07	1.284134e-06	2.788952e-10	8.937190e+00	2.797182e+01
9.600000e-07	1.385658e-06	1.174767e-09	9.643766e+00	8.470739e+01
9.700000e-07	1.486772e-06	2.147152e-09	1.034749e+01	1.433730e+02
9.800000e-07	1.587494e-06	3.152491e-09	1.104848e+01	2.028425e+02
9.900000e-07	1.687672e-06	4.140024e-09	1.174569e+01	2.619170e+02
1.000000e-06	1.787065e-06	5.070877e-09	1.243744e+01	3.194054e+02
1.010000e-06	1.885608e-06	5.916955e-09	1.312327e+01	3.742043e+02
1.020000e-06	1.983409e-06	6.660816e-09	1.380393e+01	4.253704e+02
1.030000e-06	2.080538e-06	7.303804e-09	1.447992e+01	4.721793e+02
1.040000e-06	2.176883e-06	7.861336e-09	1.515045e+01	5.141643e+02
1.050000e-06	2.272407e-06	8.353835e-09	1.581527e+01	5.511334e+02
1.060000e-06	2.367220e-06	8.792618e-09	1.647514e+01	5.831637e+02
1.070000e-06	2.461269e-06	9.183272e-09	1.712969e+01	6.105732e+02
1.080000e-06	2.554584e-06	9.531350e-09	1.777914e+01	6.338751e+02
1.090000e-06	2.647168e-06	9.847603e-09	1.842350e+01	6.537180e+02
1.100000e-06	2.738709e-06	1.013949e-08	1.906059e+01	6.708209e+02
1.110000e-06	2.829018e-06	1.040788e-08	1.968911e+01	6.859057e+02
1.120000e-06	2.918226e-06	1.065416e-08	2.030998e+01	6.996381e+02
1.130000e-06	3.006449e-06	1.088151e-08	2.092398e+01	7.125782e+02
1.140000e-06	3.093669e-06	1.109410e-08	2.153101e+01	7.251478e+02
1.150000e-06	3.179873e-06	1.129356e-08	2.213096e+01	7.376142e+02
1.160000e-06	3.265084e-06	1.148017e-08	2.272400e+01	7.500925e+02
1.170000e-06	3.349233e-06	1.165410e-08	2.330966e+01	7.625629e+02
1.180000e-06	3.432168e-06	1.181914e-08	2.388686e+01	7.749012e+02
1.190000e-06	3.513884e-06	1.197649e-08	2.445558e+01	7.869170e+02
1.200000e-06	3.594268e-06	1.212665e-08	2.501503e+01	7.983946e+02
1.210000e-06	3.673267e-06	1.227074e-08	2.556483e+01	8.091326e+02
1.220000e-06	3.750985e-06	1.240869e-08	2.610573e+01	8.189759e+02
1.230000e-06	3.827446e-06	1.253855e-08	2.663787e+01	8.278390e+02
1.240000e-06	3.902395e-06	1.265840e-08	2.715950e+01	8.357170e+02
1.250000e-06	3.975691e-06	1.276984e-08	2.766962e+01	8.426846e+02
1.260000e-06	4.047525e-06	1.287619e-08	2.816956e+01	8.488845e+02
1.270000e-06	4.117952e-06	1.297848e-08	2.865971e+01	8.545066e+02
1.280000e-06	4.187046e-06	1.307533e-08	2.914059e+01	8.597624e+02
1.290000e-06	4.254672e-06	1.316855e-08	2.961124e+01	8.648576e+02
1.300000e-06	4.320592e-06	1.326080e-08	3.007002e+01	8.699674e+02
1.310000e-06	4.384933e-06	1.335338e-08	3.051781e+01	8.752163e+02
1.320000e-06	4.447841e-06	1.344113e-08	3.095564e+01	8.806662e+02
1.330000e-06	4.509361e-06	1.351860e-08	3.138380e+01	8.863130e+02
1.340000e-06	4.569421e-06	1.359065e-08	3.180180e+01	8.920926e+02
1.350000e-06	4.627721e-06	1.366299e-08	3.220755e+01	8.978936e+02
1.360000e-06	4.684219e-06	1.373543e-08	3.260076e+01	9.035765e+02
1.370000e-06	4.739086e-06	1.380505e-08	3.298261e+01	9.089952e+02
1.380000e-06	4.792254e-06	1.386997e-08	3.335265e+01	9.140178e+02
1.390000e-06	4.843371e-06	1.393217e-08	3.370841e+01	9.185454e+02
1.400000e-06	4.892406e-06	1.399281e-08	3.404967e+01	9.225248e+02
1.410000e-06	4.939680e-06	1.404928e-08	3.437869e+01	9.259546e+02
1.420000e-06	4.985385e-06	1.409926e-08	3.469678e+01	9.288834e+02
1.430000e-06	5.029470e-06	1.414656e-08	3.500360e+01	9.314022e+02
1.440000e-06	5.071579e-06	1.419500e-08	3.529667e+01	9.336302e+02
1.450000e-06	5.111788e-06	1.424301e-08	3.557651e+01	9.356980e+02
1.460000e-06	5.150344e-06	1.428717e-08	3.584485e+01	9.377291e+02
1.470000e-06	5.187267e-06	1.432616e-08	3.610182e+01	9.398239e+02
1.480000e-06	5.222309e-06	1.436235e-08	3.634570e+01	9.420462e+02
1.490000e-06	5.255344e-06	1.439703e-08	3.657561e+01	9.444167e+02
1.500000e-06	5.286618e-06	1.442858e-08	3.679328e+01	9.469110e+02
1.510000e-06	5.316205e-06	1.445659e-08	3.699919e+01	9.494655e+02
1.520000e-06	5.343979e-06	1.448348e-08	3.719249e+01	9.519871e+02
1.530000e-06	5.369649e-06	1.451067e-08	3.737114e+01	9.543681e+02
1.540000e-06	5.393253e-06	1.453619e-08	3.753542e+01	9.565016e+02
1.550000e-06	5.415097e-06	1.455785e-08	3.768745e+01	9.582971e+02
1.560000e-06	5.435249e-06	1.457590e-08	3.782770e+01	9.596933e+02
1.570000e-06	5.453465e-06	1.459199e-08	3.795448e+01	9.606663e+02
1.580000e-06	5.469625e-06	1.460710e-08	3.806695e+01	9.612327e+02
1.590000e-06	5.483809e-06	1.462030e-08	3.816566e+01	9.614469e+02
1.600000e-06	5.495862e-06	1.463230e-08	3.824955e+01	9.613930e+02
1.610000e-06	5.505669e-06	1.464470e-08	3.831780e+01	9.611726e+02
1.620000e-06	5.513502e-06	1.465547e-08	3.837232e+01	9.608909e+02
1.630000e-06	5.519579e-06	1.466088e-08	3.841461e+01	9.606418e+02
1.640000e-06	5.523818e-06	1.466050e-08	3.844411e+01	9.604953e+02
1.650000e-06	5.525951e-06	1.465946e-08	3.845896e+01	9.604877e+02
1.660000e-06	5.526101e-06	1.465994e-08	3.846000e+01	9.606177e+02
1.670000e-06	5.524534e-06	1.465441e-08	3.844910e+01	9.608469e+02
1.680000e-06	5.521270e-06	1.465047e-08	3.842638e+01	9.611055e+02
1.690000e-06	5.516064e-06	1.464717e-08	3.839015e+01	9.613032e+02
1.700000e-06	5.508942e-06	1.464296e-08	3.834058e+01	9.613416e+02
1.710000e-06	5.500203e-06	1.463678e-08	3.827976e+01	9.611288e+02
1.720000e-06	5.489733e-06	1.462735e-08	3.820689e+01	9.605921e+02
1.730000e-06	5.477270e-06	1.463020e-08	3.812015e+01	9.596882e+02
1.740000e-06	5.462810e-06	1.457903e-08	3.801952e+01	9.584096e+02
1.750000e-06	5.446373e-06	1.448634e-08	3.790512e+01	9.567849e+02
1.760000e-06	5.427377e-06	1.449248e-08	3.777292e+01	9.548752e+02
1.770000e-06	5.405547e-06	1.449282e-08	3.762098e+01	9.527651e+02
1.780000e-06	5.381667e-06	1.454062e-08	3.745478e+01	9.505504e+02
1.790000e-06	5.356809e-06	1.455493e-08	3.728178e+01	9.483249e+02
1.800000e-06	5.331167e-06	1.435296e-08	3.710332e+01	9.461663e+02
1.810000e-06	5.303579e-06	1.442387e-08	3.691132e+01	9.441257e+02
1.820000e-06	5.273604e-06	1.446766e-08	3.670270e+01	9.422195e+02
1.830000e-06	5.242102e-06	1.428461e-08	3.648346e+01	9.404270e+02
1.840000e-06	5.208862e-06	1.441190e-08	3.625212e+01	9.386929e+02
1.850000e-06	5.173770e-06	1.435633e-08	3.600788e+01	9.369343e+02
1.860000e-06	5.136947e-06	1.420904e-08	3.575161e+01	9.350525e+02
1.870000e-06	5.098032e-06	1.435131e-08	3.548077e+01	9.329460e+02
1.880000e-06	5.057406e-06	1.420507e-08	3.519803e+01	9.305250e+02
1.890000e-06	5.015161e-06	1.412527e-08	3.490402e+01	9.277235e+02
1.900000e-06	4.971001e-06	1.413509e-08	3.459667e+01	9.245087e+02
1.910000e-06	4.925106e-06	1.395099e-08	3.427726e+01	9.208861e+02
1.920000e-06	4.877346e-06	1.402727e-08	3.394486e+01	9.168983e+02
1.930000e-06	4.827804e-06	1.395040e-08	3.360007e+01	9.126199e+02
1.940000e-06	4.776525e-06	1.385445e-08	3.324318e+01	9.081467e+02
1.950000e-06	4.723058e-06	1.389005e-08	3.287106e+01	9.035830e+02
1.960000e-06	4.667738e-06	1.374180e-08	3.248605e+01	8.990267e+02
1.970000e-06	4.610790e-06	1.370268e-08	3.208971e+01	8.945557e+02
1.980000e-06	4.552256e-06	1.357133e-08	3.168234e+01	8.902164e+02
1.990000e-06	4.492137e-06	1.352031e-08	3.126392e+01	8.860171e+02
2.000000e-06	4.430223e-06	1.353057e-08	3.083302e+01	8.819261e+02
2.010000e-06	4.366765e-06	1.340419e-08	3.039137e+01	8.778756e+02
2.020000e-06	4.301769e-06	1.341060e-08	2.993902e+01	8.737706e+02
2.030000e-06	4.235293e-06	1.327005e-08	2.947637e+01	8.695019e+02
2.040000e-06	4.167333e-06	1.318205e-08	2.900339e+01	8.649605e+02
2.050000e-06	4.097582e-06	1.311331e-08	2.851794e+01	8.600533e+02
2.060000e-06	4.026310e-06	1.297039e-08	2.802191e+01	8.547157e+02
2.070000e-06	3.953737e-06	1.294858e-08	2.751682e+01	8.489210e+02
2.080000e-06	3.879811e-06	1.284392e-08	2.700232e+01	8.426841e+02
2.090000e-06	3.804266e-06	1.279660e-08	2.647655e+01	8.360604e+02
2.100000e-06	3.727055e-06	1.268826e-08	2.593918e+01	8.291374e+02
2.110000e-06	3.648395e-06	1.255739e-08	2.539173e+01	8.220229e+02
2.120000e-06	3.568413e-06	1.246689e-08	2.483508e+01	8.148295e+02
2.130000e-06	3.487355e-06	1.233891e-08	2.427094e+01	8.076582e+02
2.140000e-06	3.405133e-06	1.227354e-08	2.369870e+01	8.005832e+02
2.150000e-06	3.321726e-06	1.215803e-08	2.311822e+01	7.936402e+02
2.160000e-06	3.237084e-06	1.206594e-08	2.252913e+01	7.868195e+02
2.170000e-06	3.151157e-06	1.195075e-08	2.193111e+01	7.800659e+02
2.180000e-06	3.064102e-06	1.181427e-08	2.132523e+01	7.732848e+02
2.190000e-06	2.976002e-06	1.169249e-08	2.071208e+01	7.663532e+02
2.200000e-06	2.886934e-06	1.155772e-08	2.009219e+01	7.591368e+02
2.210000e-06	2.796902e-06	1.144711e-08	1.946560e+01	7.515071e+02
2.220000e-06	2.705912e-06	1.132370e-08	1.883234e+01	7.433601e+02
2.230000e-06	2.613984e-06	1.120362e-08	1.819254e+01	7.346305e+02
2.240000e-06	2.521173e-06	1.106130e-08	1.754661e+01	7.253019e+02
2.250000e-06	2.427403e-06	1.091448e-08	1.689400e+01	7.154098e+02
2.260000e-06	2.332582e-06	1.076236e-08	1.623407e+01	7.050377e+02
2.270000e-06	2.236902e-06	1.061311e-08	1.556817e+01	6.943054e+02
2.280000e-06	2.140489e-06	1.046818e-08	1.489716e+01	6.833521e+02
2.290000e-06	2.043393e-06	1.031487e-08	1.422140e+01	6.723161e+02
2.300000e-06	1.945727e-06	1.016251e-08	1.354167e+01	6.613126e+02
2.310000e-06	1.847465e-06	9.997438e-09	1.285780e+01	6.504145e+02
2.320000e-06	1.748510e-06	9.828547e-09	1.216911e+01	6.396381e+02
2.330000e-06	1.648949e-06	9.644872e-09	1.147619e+01	6.289352e+02
2.340000e-06	1.548905e-06	9.462875e-09	1.077991e+01	6.181945e+02
2.350000e-06	1.448401e-06	9.278224e-09	1.008044e+01	6.072520e+02
2.360000e-06	1.347309e-06	9.085711e-09	9.376864e+00	5.959089e+02
2.370000e-06	1.245513e-06	8.888434e-09	8.668394e+00	5.839556e+02
2.380000e-06	1.143146e-06	8.682991e-09	7.955952e+00	5.711983e+02
2.390000e-06	1.040329e-06	8.475744e-09	7.240374e+00	5.574858e+02
2.400000e-06	9.371222e-07	8.258126e-09	6.522089e+00	5.427306e+02
2.410000e-06	8.336138e-07	8.031766e-09	5.801701e+00	5.269230e+02
2.420000e-06	7.298554e-07	7.794798e-09	5.079574e+00	5.101344e+02
2.430000e-06	6.258481e-07	7.545663e-09	4.355715e+00	4.925094e+02
2.440000e-06	5.215996e-07	7.290189e-09	3.630177e+00	4.742450e+02
2.450000e-06	4.171792e-07	7.030867e-09	2.903442e+00	4.555613e+02
2.460000e-06	3.126647e-07	6.760809e-09	2.176052e+00	4.366635e+02
2.470000e-06	2.080576e-07	6.477854e-09	1.448018e+00	4.177024e+02
2.480000e-06	1.033858e-07	6.183530e-09	7.195344e-01	3.987357e+02
2.490000e-06	-1.334833e-09	5.874322e-09	-9.290034e-03	3.796973e+02
2.500000e-06	-1.060269e-07	5.544913e-09	-7.379156e-01	3.603772e+02
2.510000e-06	-2.106971e-07	5.194218e-09	-1.466388e+00	3.404173e+02
2.520000e-06	-3.153257e-07	4.829405e-09	-2.194572e+00	3.193238e+02
2.530000e-06	-4.198211e-07	4.450614e-09	-2.921829e+00	2.964970e+02
2.540000e-06	-5.241571e-07	4.049379e-09	-3.647976e+00	2.712766e+02
2.550000e-06	-6.282507e-07	3.618004e-09	-4.372436e+00	2.429994e+02
2.560000e-06	-7.320962e-07	3.154131e-09	-5.095169e+00	2.110629e+02
2.570000e-06	-8.356778e-07	2.653436e-09	-5.816066e+00	1.749907e+02
2.580000e-06	-9.389921e-07	2.105087e-09	-6.535103e+00	1.344910e+02
2.590000e-06	-1.042014e-06	1.494765e-09	-7.252102e+00	8.950365e+01
2.600000e-06	-1.144622e-06	8.080613e-10	-7.966229e+00	4.022895e+01
2.610000e-06	-1.246661e-06	3.488889e-11	-8.676388e+00	-1.286381e+01
2.620000e-06	-1.348055e-06	-8.281648e-10	-9.382054e+00	-6.905141e+01
2.630000e-06	-1.448912e-06	-1.774787e-09	-1.008399e+01	-1.273936e+02
2.640000e-06	-1.549237e-06	-2.777055e-09	-1.078222e+01	-1.867899e+02
2.650000e-06	-1.649016e-06	-3.782900e-09	-1.147665e+01	-2.460501e+02
2.660000e-06	-1.748294e-06	-4.741578e-09	-1.216760e+01	-3.039748e+02
2.670000e-06	-1.846892e-06	-5.621789e-09	-1.285381e+01	-3.594352e+02
2.680000e-06	-1.944728e-06	-6.409026e-09	-1.353473e+01	-4.114483e+02
2.690000e-06	-2.041968e-06	-7.099373e-09	-1.421148e+01	-4.592387e+02
2.700000e-06	-2.138545e-06	-7.698829e-09	-1.488363e+01	-5.022822e+02
2.710000e-06	-2.234412e-06	-8.219138e-09	-1.555084e+01	-5.403279e+02
2.720000e-06	-2.329742e-06	-8.674194e-09	-1.621430e+01	-5.733967e+02
2.730000e-06	-2.424373e-06	-9.076751e-09	-1.687291e+01	-6.017584e+02
2.740000e-06	-2.517985e-06	-9.437043e-09	-1.752442e+01	-6.258888e+02
2.750000e-06	-2.610495e-06	-9.763635e-09	-1.816826e+01	-6.464131e+02
2.760000e-06	-2.701997e-06	-1.006553e-08	-1.880509e+01	-6.640408e+02
2.770000e-06	-2.792518e-06	-1.034767e-08	-1.943509e+01	-6.794986e+02
2.780000e-06	-2.882016e-06	-1.060706e-08	-2.005797e+01	-6.934688e+02
2.790000e-06	-2.970469e-06	-1.084323e-08	-2.067357e+01	-7.065374e+02
2.800000e-06	-3.057959e-06	-1.105899e-08	-2.128247e+01	-7.191579e+02
2.810000e-06	-3.144457e-06	-1.125928e-08	-2.188448e+01	-7.316311e+02
2.820000e-06	-3.229719e-06	-1.144782e-08	-2.247787e+01	-7.441036e+02
2.830000e-06	-3.313735e-06	-1.162632e-08	-2.306260e+01	-7.565824e+02
2.840000e-06	-3.396593e-06	-1.179642e-08	-2.363927e+01	-7.689627e+02
2.850000e-06	-3.478299e-06	-1.195937e-08	-2.420791e+01	-7.810649e+02
2.860000e-06	-3.558846e-06	-1.211627e-08	-2.476850e+01	-7.926752e+02
2.870000e-06	-3.638188e-06	-1.226194e-08	-2.532069e+01	-8.035861e+02
2.880000e-06	-3.716165e-06	-1.239429e-08	-2.586339e+01	-8.136302e+02
2.890000e-06	-3.792626e-06	-1.251890e-08	-2.639554e+01	-8.227059e+02
2.900000e-06	-3.867578e-06	-1.264025e-08	-2.691718e+01	-8.307906e+02
2.910000e-06	-3.941118e-06	-1.275784e-08	-2.742900e+01	-8.379427e+02
2.920000e-06	-4.013300e-06	-1.286951e-08	-2.793136e+01	-8.442917e+02
2.930000e-06	-4.084153e-06	-1.297526e-08	-2.842447e+01	-8.500195e+02
2.940000e-06	-4.153450e-06	-1.307701e-08	-2.890676e+01	-8.553351e+02
