# Temperatura_=_59.48
# Concentracion g/m^3_=_15500.0
# C_Vs_to_Am_M_A/Vsm_=_65563218390.804596
# pendiente_HvsI_1/m_=_3716.3
# ordenada_HvsI_A/m_=_1297.0
# frecuencia_Hz_=_300798.2301230246

Tiempo_(s)	Campo_(V.s)	Magnetizacion_(V.s)	Campo_(kA/m)	Magnetizacion_(A/m)
0.000000e+00	-5.506459e-06	-1.447374e-08	-3.831056e+01	-9.482163e+02
1.000000e-08	-5.504494e-06	-1.446470e-08	-3.829690e+01	-9.483993e+02
2.000000e-08	-5.500565e-06	-1.445892e-08	-3.826956e+01	-9.485958e+02
3.000000e-08	-5.494855e-06	-1.445699e-08	-3.822983e+01	-9.487186e+02
4.000000e-08	-5.487510e-06	-1.445207e-08	-3.817873e+01	-9.486754e+02
5.000000e-08	-5.478499e-06	-1.444203e-08	-3.811604e+01	-9.483823e+02
6.000000e-08	-5.467529e-06	-1.442693e-08	-3.803971e+01	-9.477758e+02
7.000000e-08	-5.454498e-06	-1.440505e-08	-3.794905e+01	-9.468218e+02
8.000000e-08	-5.439317e-06	-1.440604e-08	-3.784343e+01	-9.455204e+02
9.000000e-08	-5.421703e-06	-1.440984e-08	-3.772089e+01	-9.439059e+02
1.000000e-07	-5.401888e-06	-1.438118e-08	-3.758303e+01	-9.420420e+02
1.100000e-07	-5.380164e-06	-1.435157e-08	-3.743188e+01	-9.400123e+02
1.200000e-07	-5.356665e-06	-1.430279e-08	-3.726839e+01	-9.379083e+02
1.300000e-07	-5.331731e-06	-1.424800e-08	-3.709492e+01	-9.358165e+02
1.400000e-07	-5.305231e-06	-1.427529e-08	-3.691054e+01	-9.338054e+02
1.500000e-07	-5.276837e-06	-1.422016e-08	-3.671300e+01	-9.319153e+02
1.600000e-07	-5.246781e-06	-1.417237e-08	-3.650389e+01	-9.301526e+02
1.700000e-07	-5.215103e-06	-1.420861e-08	-3.628349e+01	-9.284874e+02
1.800000e-07	-5.181425e-06	-1.413786e-08	-3.604918e+01	-9.268577e+02
1.900000e-07	-5.145790e-06	-1.410360e-08	-3.580125e+01	-9.251772e+02
2.000000e-07	-5.108584e-06	-1.407535e-08	-3.554240e+01	-9.233469e+02
2.100000e-07	-5.069699e-06	-1.396884e-08	-3.527186e+01	-9.212682e+02
2.200000e-07	-5.029009e-06	-1.394393e-08	-3.498876e+01	-9.188572e+02
2.300000e-07	-4.986395e-06	-1.392341e-08	-3.469228e+01	-9.160556e+02
2.400000e-07	-4.941798e-06	-1.387653e-08	-3.438200e+01	-9.128392e+02
2.500000e-07	-4.895495e-06	-1.387297e-08	-3.405985e+01	-9.092217e+02
2.600000e-07	-4.847394e-06	-1.379394e-08	-3.372519e+01	-9.052528e+02
2.700000e-07	-4.797256e-06	-1.374043e-08	-3.337636e+01	-9.010117e+02
2.800000e-07	-4.745010e-06	-1.369369e-08	-3.301287e+01	-8.965964e+02
2.900000e-07	-4.690775e-06	-1.359155e-08	-3.263554e+01	-8.921102e+02
3.000000e-07	-4.634898e-06	-1.352229e-08	-3.224678e+01	-8.876473e+02
3.100000e-07	-4.577404e-06	-1.348244e-08	-3.184677e+01	-8.832799e+02
3.200000e-07	-4.518116e-06	-1.344845e-08	-3.143428e+01	-8.790473e+02
3.300000e-07	-4.457191e-06	-1.339416e-08	-3.101040e+01	-8.749507e+02
3.400000e-07	-4.394789e-06	-1.333059e-08	-3.057625e+01	-8.709517e+02
3.500000e-07	-4.330915e-06	-1.324255e-08	-3.013185e+01	-8.669779e+02
3.600000e-07	-4.265484e-06	-1.314278e-08	-2.967662e+01	-8.629318e+02
3.700000e-07	-4.198365e-06	-1.307300e-08	-2.920965e+01	-8.587042e+02
3.800000e-07	-4.129597e-06	-1.299237e-08	-2.873121e+01	-8.541891e+02
3.900000e-07	-4.059330e-06	-1.291486e-08	-2.824233e+01	-8.492983e+02
4.000000e-07	-3.987785e-06	-1.285339e-08	-2.774457e+01	-8.439734e+02
4.100000e-07	-3.915008e-06	-1.276994e-08	-2.723822e+01	-8.381947e+02
4.200000e-07	-3.840760e-06	-1.268044e-08	-2.672166e+01	-8.319838e+02
4.300000e-07	-3.764810e-06	-1.257457e-08	-2.619324e+01	-8.254007e+02
4.400000e-07	-3.687234e-06	-1.248009e-08	-2.565351e+01	-8.185362e+02
4.500000e-07	-3.608170e-06	-1.239753e-08	-2.510343e+01	-8.114983e+02
4.600000e-07	-3.527594e-06	-1.230541e-08	-2.454284e+01	-8.043976e+02
4.700000e-07	-3.445637e-06	-1.220571e-08	-2.397263e+01	-7.973307e+02
4.800000e-07	-3.362495e-06	-1.209542e-08	-2.339418e+01	-7.903655e+02
4.900000e-07	-3.278339e-06	-1.198834e-08	-2.280867e+01	-7.835311e+02
5.000000e-07	-3.193257e-06	-1.187327e-08	-2.221672e+01	-7.768111e+02
5.100000e-07	-3.107186e-06	-1.175884e-08	-2.161789e+01	-7.701452e+02
5.200000e-07	-3.020141e-06	-1.164549e-08	-2.101229e+01	-7.634353e+02
5.300000e-07	-2.932222e-06	-1.153276e-08	-2.040060e+01	-7.565578e+02
5.400000e-07	-2.843305e-06	-1.141909e-08	-1.978197e+01	-7.493804e+02
5.500000e-07	-2.753219e-06	-1.129122e-08	-1.915521e+01	-7.417791e+02
5.600000e-07	-2.662011e-06	-1.115614e-08	-1.852064e+01	-7.336559e+02
5.700000e-07	-2.569761e-06	-1.101944e-08	-1.787882e+01	-7.249530e+02
5.800000e-07	-2.476605e-06	-1.088720e-08	-1.723070e+01	-7.156610e+02
5.900000e-07	-2.382634e-06	-1.075084e-08	-1.657691e+01	-7.058213e+02
6.000000e-07	-2.287853e-06	-1.060784e-08	-1.591748e+01	-6.955207e+02
6.100000e-07	-2.192367e-06	-1.045921e-08	-1.525314e+01	-6.848799e+02
6.200000e-07	-2.096163e-06	-1.030521e-08	-1.458382e+01	-6.740357e+02
6.300000e-07	-1.999137e-06	-1.014895e-08	-1.390877e+01	-6.631206e+02
6.400000e-07	-1.901283e-06	-9.989652e-09	-1.322796e+01	-6.522419e+02
6.500000e-07	-1.802619e-06	-9.826540e-09	-1.254152e+01	-6.414631e+02
6.600000e-07	-1.703162e-06	-9.658073e-09	-1.184956e+01	-6.307906e+02
6.700000e-07	-1.603062e-06	-9.483277e-09	-1.115313e+01	-6.201677e+02
6.800000e-07	-1.502454e-06	-9.296919e-09	-1.045316e+01	-6.094771e+02
6.900000e-07	-1.401347e-06	-9.105338e-09	-9.749713e+00	-5.985519e+02
7.000000e-07	-1.299776e-06	-8.914218e-09	-9.043043e+00	-5.871943e+02
7.100000e-07	-1.197777e-06	-8.720546e-09	-8.333398e+00	-5.751997e+02
7.200000e-07	-1.095386e-06	-8.516867e-09	-7.621026e+00	-5.623831e+02
7.300000e-07	-9.926542e-07	-8.304925e-09	-6.906279e+00	-5.486041e+02
7.400000e-07	-8.895864e-07	-8.088108e-09	-6.189197e+00	-5.337869e+02
7.500000e-07	-7.861973e-07	-7.861771e-09	-5.469879e+00	-5.179332e+02
7.600000e-07	-6.825116e-07	-7.624745e-09	-4.748497e+00	-5.011231e+02
7.700000e-07	-5.785727e-07	-7.378248e-09	-4.025354e+00	-4.835057e+02
7.800000e-07	-4.744655e-07	-7.124541e-09	-3.301040e+00	-4.652779e+02
7.900000e-07	-3.702042e-07	-6.862584e-09	-2.575654e+00	-4.466539e+02
8.000000e-07	-2.658282e-07	-6.590212e-09	-1.849469e+00	-4.278276e+02
8.100000e-07	-1.613562e-07	-6.302842e-09	-1.122618e+00	-4.089342e+02
8.200000e-07	-5.681075e-08	-6.001939e-09	-3.952544e-01	-3.900133e+02
8.300000e-07	4.776216e-08	-5.689394e-09	3.322998e-01	-3.709799e+02
8.400000e-07	1.523329e-07	-5.362862e-09	1.059839e+00	-3.516071e+02
8.500000e-07	2.567988e-07	-5.019517e-09	1.786649e+00	-3.315246e+02
8.600000e-07	3.611514e-07	-4.655831e-09	2.512670e+00	-3.102327e+02
8.700000e-07	4.654114e-07	-4.269263e-09	3.238047e+00	-2.871344e+02
8.800000e-07	5.694882e-07	-3.856398e-09	3.962150e+00	-2.615814e+02
8.900000e-07	6.733921e-07	-3.417355e-09	4.685050e+00	-2.329312e+02
9.000000e-07	7.770890e-07	-2.947128e-09	5.406509e+00	-2.006108e+02
9.100000e-07	8.804730e-07	-2.437511e-09	6.125791e+00	-1.641786e+02
9.200000e-07	9.835764e-07	-1.878509e-09	6.843121e+00	-1.233816e+02
9.300000e-07	1.086321e-06	-1.255663e-09	7.557957e+00	-7.819778e+01
9.400000e-07	1.188614e-06	-5.543299e-10	8.269646e+00	-2.886249e+01
9.500000e-07	1.290521e-06	2.352693e-10	8.978653e+00	2.412709e+01
9.600000e-07	1.392089e-06	1.113054e-09	9.685304e+00	8.002957e+01
9.700000e-07	1.493298e-06	2.064830e-09	1.038945e+01	1.378984e+02
9.800000e-07	1.594043e-06	3.055068e-09	1.109037e+01	1.966395e+02
9.900000e-07	1.694156e-06	4.035021e-09	1.178690e+01	2.550820e+02
1.000000e-06	1.793570e-06	4.960024e-09	1.247856e+01	3.120567e+02
1.010000e-06	1.892196e-06	5.801225e-09	1.316474e+01	3.664744e+02
1.020000e-06	1.990024e-06	6.544277e-09	1.384537e+01	4.173974e+02
1.030000e-06	2.087100e-06	7.189933e-09	1.452076e+01	4.640975e+02
1.040000e-06	2.183392e-06	7.753919e-09	1.519070e+01	5.060959e+02
1.050000e-06	2.278920e-06	8.250897e-09	1.585533e+01	5.431817e+02
1.060000e-06	2.373687e-06	8.690001e-09	1.651466e+01	5.754077e+02
1.070000e-06	2.467711e-06	9.080036e-09	1.716882e+01	6.030645e+02
1.080000e-06	2.561019e-06	9.432421e-09	1.781800e+01	6.266375e+02
1.090000e-06	2.653515e-06	9.755039e-09	1.846153e+01	6.467495e+02
1.100000e-06	2.744937e-06	1.005006e-08	1.909759e+01	6.640971e+02
1.110000e-06	2.835176e-06	1.031700e-08	1.972541e+01	6.793857e+02
1.120000e-06	2.924392e-06	1.056196e-08	2.034613e+01	6.932703e+02
1.130000e-06	3.012627e-06	1.078926e-08	2.096001e+01	7.063071e+02
1.140000e-06	3.099811e-06	1.100104e-08	2.156658e+01	7.189199e+02
1.150000e-06	3.185942e-06	1.120019e-08	2.216583e+01	7.313833e+02
1.160000e-06	3.271084e-06	1.138716e-08	2.275820e+01	7.438229e+02
1.170000e-06	3.355176e-06	1.156478e-08	2.334325e+01	7.562320e+02
1.180000e-06	3.438058e-06	1.173446e-08	2.391990e+01	7.684993e+02
1.190000e-06	3.519690e-06	1.189404e-08	2.448785e+01	7.804459e+02
1.200000e-06	3.600038e-06	1.204308e-08	2.504686e+01	7.918652e+02
1.210000e-06	3.679116e-06	1.218622e-08	2.559704e+01	8.025612e+02
1.220000e-06	3.756908e-06	1.232236e-08	2.613826e+01	8.123806e+02
1.230000e-06	3.833234e-06	1.244812e-08	2.666929e+01	8.212359e+02
1.240000e-06	3.907954e-06	1.256481e-08	2.718915e+01	8.291173e+02
1.250000e-06	3.981182e-06	1.267784e-08	2.769862e+01	8.360924e+02
1.260000e-06	4.053017e-06	1.278790e-08	2.819841e+01	8.422961e+02
1.270000e-06	4.123447e-06	1.288977e-08	2.868842e+01	8.479103e+02
1.280000e-06	4.192549e-06	1.298458e-08	2.916918e+01	8.531403e+02
1.290000e-06	4.260125e-06	1.307877e-08	2.963934e+01	8.581878e+02
1.300000e-06	4.326026e-06	1.317319e-08	3.009784e+01	8.632265e+02
1.310000e-06	4.390352e-06	1.326341e-08	3.054538e+01	8.683822e+02
1.320000e-06	4.453166e-06	1.334548e-08	3.098240e+01	8.737208e+02
1.330000e-06	4.514606e-06	1.342199e-08	3.140986e+01	8.792443e+02
1.340000e-06	4.574609e-06	1.349690e-08	3.182732e+01	8.848955e+02
1.350000e-06	4.632886e-06	1.356922e-08	3.223278e+01	8.905704e+02
1.360000e-06	4.689395e-06	1.363782e-08	3.262594e+01	8.961361e+02
1.370000e-06	4.744216e-06	1.370646e-08	3.300734e+01	9.014511e+02
1.380000e-06	4.797160e-06	1.377454e-08	3.337570e+01	9.063867e+02
1.390000e-06	4.848080e-06	1.383838e-08	3.372997e+01	9.108442e+02
1.400000e-06	4.897120e-06	1.389486e-08	3.407116e+01	9.147684e+02
1.410000e-06	4.944395e-06	1.394433e-08	3.440007e+01	9.181536e+02
1.420000e-06	4.990028e-06	1.399221e-08	3.471756e+01	9.210433e+02
1.430000e-06	5.033911e-06	1.404123e-08	3.502286e+01	9.235222e+02
1.440000e-06	5.075890e-06	1.408925e-08	3.531493e+01	9.257039e+02
1.450000e-06	5.116067e-06	1.413391e-08	3.559445e+01	9.277141e+02
1.460000e-06	5.154544e-06	1.417631e-08	3.586216e+01	9.296733e+02
1.470000e-06	5.191384e-06	1.421680e-08	3.611847e+01	9.316808e+02
1.480000e-06	5.226357e-06	1.425332e-08	3.636179e+01	9.338020e+02
1.490000e-06	5.259326e-06	1.428435e-08	3.659117e+01	9.360606e+02
1.500000e-06	5.290435e-06	1.431283e-08	3.680760e+01	9.384373e+02
1.510000e-06	5.319861e-06	1.434184e-08	3.701233e+01	9.408743e+02
1.520000e-06	5.347431e-06	1.436940e-08	3.720414e+01	9.432849e+02
1.530000e-06	5.372944e-06	1.439372e-08	3.738165e+01	9.455667e+02
1.540000e-06	5.396523e-06	1.441582e-08	3.754570e+01	9.476171e+02
1.550000e-06	5.418330e-06	1.443704e-08	3.769742e+01	9.493482e+02
1.560000e-06	5.438380e-06	1.445635e-08	3.783692e+01	9.506991e+02
1.570000e-06	5.456532e-06	1.447237e-08	3.796320e+01	9.516441e+02
1.580000e-06	5.472647e-06	1.448510e-08	3.807532e+01	9.521964e+02
1.590000e-06	5.486670e-06	1.449623e-08	3.817289e+01	9.524054e+02
1.600000e-06	5.498524e-06	1.450847e-08	3.825536e+01	9.523496e+02
1.610000e-06	5.508195e-06	1.452013e-08	3.832264e+01	9.521252e+02
1.620000e-06	5.515881e-06	1.452782e-08	3.837612e+01	9.518325e+02
1.630000e-06	5.521767e-06	1.453175e-08	3.841707e+01	9.515621e+02
1.640000e-06	5.525814e-06	1.453444e-08	3.844523e+01	9.513822e+02
1.650000e-06	5.527855e-06	1.453711e-08	3.845943e+01	9.513299e+02
1.660000e-06	5.527937e-06	1.453483e-08	3.846000e+01	9.514063e+02
1.670000e-06	5.526272e-06	1.452852e-08	3.844841e+01	9.515771e+02
1.680000e-06	5.522896e-06	1.452391e-08	3.842492e+01	9.517781e+02
1.690000e-06	5.517532e-06	1.451898e-08	3.838761e+01	9.519250e+02
1.700000e-06	5.510260e-06	1.451160e-08	3.833701e+01	9.519254e+02
1.710000e-06	5.501385e-06	1.450099e-08	3.827526e+01	9.516925e+02
1.720000e-06	5.490763e-06	1.449248e-08	3.820136e+01	9.511576e+02
1.730000e-06	5.478111e-06	1.448258e-08	3.811334e+01	9.502797e+02
1.740000e-06	5.463474e-06	1.442228e-08	3.801150e+01	9.490514e+02
1.750000e-06	5.446803e-06	1.439164e-08	3.789552e+01	9.475001e+02
1.760000e-06	5.427505e-06	1.438146e-08	3.776126e+01	9.456836e+02
1.770000e-06	5.405501e-06	1.437321e-08	3.760816e+01	9.436822e+02
1.780000e-06	5.381598e-06	1.441026e-08	3.744186e+01	9.415870e+02
1.790000e-06	5.356703e-06	1.432377e-08	3.726865e+01	9.394865e+02
1.800000e-06	5.330853e-06	1.428346e-08	3.708881e+01	9.374540e+02
1.810000e-06	5.303016e-06	1.431665e-08	3.689513e+01	9.355367e+02
1.820000e-06	5.272982e-06	1.422354e-08	3.668618e+01	9.337485e+02
1.830000e-06	5.241368e-06	1.426117e-08	3.646623e+01	9.320671e+02
1.840000e-06	5.208014e-06	1.428395e-08	3.623417e+01	9.304369e+02
1.850000e-06	5.172906e-06	1.415348e-08	3.598991e+01	9.287759e+02
1.860000e-06	5.135974e-06	1.418466e-08	3.573296e+01	9.269866e+02
1.870000e-06	5.096910e-06	1.414934e-08	3.546118e+01	9.249694e+02
1.880000e-06	5.056117e-06	1.404537e-08	3.517736e+01	9.226360e+02
1.890000e-06	5.013692e-06	1.406326e-08	3.488219e+01	9.199218e+02
1.900000e-06	4.969429e-06	1.394429e-08	3.457424e+01	9.167949e+02
1.910000e-06	4.923369e-06	1.390248e-08	3.425379e+01	9.132609e+02
1.920000e-06	4.875398e-06	1.389375e-08	3.392003e+01	9.093619e+02
1.930000e-06	4.825677e-06	1.375934e-08	3.357410e+01	9.051718e+02
1.940000e-06	4.774147e-06	1.378053e-08	3.321559e+01	9.007856e+02
1.950000e-06	4.720522e-06	1.373255e-08	3.284250e+01	8.963066e+02
1.960000e-06	4.665093e-06	1.363339e-08	3.245686e+01	8.918322e+02
1.970000e-06	4.608019e-06	1.357660e-08	3.205977e+01	8.874402e+02
1.980000e-06	4.549386e-06	1.347199e-08	3.165184e+01	8.831778e+02
1.990000e-06	4.489154e-06	1.343332e-08	3.123278e+01	8.790544e+02
2.000000e-06	4.427144e-06	1.336132e-08	3.080135e+01	8.750400e+02
2.010000e-06	4.363545e-06	1.331992e-08	3.035887e+01	8.710688e+02
2.020000e-06	4.298446e-06	1.326068e-08	2.990595e+01	8.670477e+02
2.030000e-06	4.231928e-06	1.316313e-08	2.944316e+01	8.628687e+02
2.040000e-06	4.163847e-06	1.310583e-08	2.896949e+01	8.584240e+02
2.050000e-06	4.093992e-06	1.297354e-08	2.848348e+01	8.536202e+02
2.060000e-06	4.022650e-06	1.288992e-08	2.798713e+01	8.483919e+02
2.070000e-06	3.949995e-06	1.281308e-08	2.748164e+01	8.427105e+02
2.080000e-06	3.875971e-06	1.273927e-08	2.696663e+01	8.365888e+02
2.090000e-06	3.800332e-06	1.267705e-08	2.644038e+01	8.300792e+02
2.100000e-06	3.723038e-06	1.256086e-08	2.590262e+01	8.232667e+02
2.110000e-06	3.644290e-06	1.247082e-08	2.535474e+01	8.162570e+02
2.120000e-06	3.564272e-06	1.236121e-08	2.479802e+01	8.091614e+02
2.130000e-06	3.483095e-06	1.226466e-08	2.423324e+01	8.020808e+02
2.140000e-06	3.400770e-06	1.216321e-08	2.366047e+01	7.950904e+02
2.150000e-06	3.317295e-06	1.205862e-08	2.307971e+01	7.882282e+02
2.160000e-06	3.232478e-06	1.195937e-08	2.248960e+01	7.814879e+02
2.170000e-06	3.146332e-06	1.183518e-08	2.189025e+01	7.748180e+02
2.180000e-06	3.059092e-06	1.171945e-08	2.128328e+01	7.681277e+02
2.190000e-06	2.970880e-06	1.159128e-08	2.066956e+01	7.612977e+02
2.200000e-06	2.881730e-06	1.147989e-08	2.004931e+01	7.541960e+02
2.210000e-06	2.791676e-06	1.136721e-08	1.942277e+01	7.466954e+02
2.220000e-06	2.700719e-06	1.124569e-08	1.878994e+01	7.386910e+02
2.230000e-06	2.608773e-06	1.111268e-08	1.815024e+01	7.301153e+02
2.240000e-06	2.515789e-06	1.096593e-08	1.750332e+01	7.209482e+02
2.250000e-06	2.421771e-06	1.082281e-08	1.684920e+01	7.112204e+02
2.260000e-06	2.326852e-06	1.067187e-08	1.618881e+01	7.010098e+02
2.270000e-06	2.231159e-06	1.053587e-08	1.552304e+01	6.904312e+02
2.280000e-06	2.134770e-06	1.039601e-08	1.485242e+01	6.796194e+02
2.290000e-06	2.037654e-06	1.025114e-08	1.417675e+01	6.687097e+02
2.300000e-06	1.939817e-06	1.009709e-08	1.349606e+01	6.578166e+02
2.310000e-06	1.841468e-06	9.930956e-09	1.281180e+01	6.470142e+02
2.320000e-06	1.742612e-06	9.757999e-09	1.212403e+01	6.363220e+02
2.330000e-06	1.643119e-06	9.573544e-09	1.143182e+01	6.256969e+02
2.340000e-06	1.542992e-06	9.395697e-09	1.073519e+01	6.150339e+02
2.350000e-06	1.442249e-06	9.214324e-09	1.003429e+01	6.041754e+02
2.360000e-06	1.340896e-06	9.025698e-09	9.329132e+00	5.929283e+02
2.370000e-06	1.238916e-06	8.830146e-09	8.619615e+00	5.810873e+02
2.380000e-06	1.136432e-06	8.629526e-09	7.906600e+00	5.684610e+02
2.390000e-06	1.033559e-06	8.425154e-09	7.190867e+00	5.548975e+02
2.400000e-06	9.303098e-07	8.209090e-09	6.472525e+00	5.403059e+02
2.410000e-06	8.267487e-07	7.980151e-09	5.752010e+00	5.246706e+02
2.420000e-06	7.229367e-07	7.739986e-09	5.029750e+00	5.080554e+02
2.430000e-06	6.188890e-07	7.494446e-09	4.305851e+00	4.905962e+02
2.440000e-06	5.146348e-07	7.247112e-09	3.580513e+00	4.724817e+02
2.450000e-06	4.102429e-07	6.992855e-09	2.854219e+00	4.539254e+02
2.460000e-06	3.057123e-07	6.724883e-09	2.126959e+00	4.351290e+02
2.470000e-06	2.010812e-07	6.444389e-09	1.399000e+00	4.162434e+02
2.480000e-06	9.639579e-08	6.151625e-09	6.706628e-01	3.973314e+02
2.490000e-06	-8.319294e-09	5.842471e-09	-5.788055e-02	3.783366e+02
2.500000e-06	-1.130134e-07	5.511624e-09	-7.862776e-01	3.590635e+02
2.510000e-06	-2.176534e-07	5.163370e-09	-1.514299e+00	3.391715e+02
2.520000e-06	-3.221836e-07	4.806244e-09	-2.241556e+00	3.181868e+02
2.530000e-06	-4.265765e-07	4.436498e-09	-2.967857e+00	2.955297e+02
2.540000e-06	-5.308557e-07	4.042411e-09	-3.693368e+00	2.705584e+02
2.550000e-06	-6.349672e-07	3.615418e-09	-4.417712e+00	2.426240e+02
2.560000e-06	-7.388640e-07	3.154486e-09	-5.140563e+00	2.111331e+02
2.570000e-06	-8.425029e-07	2.655864e-09	-5.861619e+00	1.756110e+02
2.580000e-06	-9.458026e-07	2.110257e-09	-6.580315e+00	1.357600e+02
2.590000e-06	-1.048761e-06	1.508444e-09	-7.296633e+00	9.150585e+01
2.600000e-06	-1.151320e-06	8.372989e-10	-8.010175e+00	4.302759e+01
2.610000e-06	-1.253372e-06	8.382887e-11	-8.720195e+00	-9.233005e+00
2.620000e-06	-1.354821e-06	-7.599586e-10	-9.426015e+00	-6.458428e+01
2.630000e-06	-1.455656e-06	-1.689683e-09	-1.012756e+01	-1.221194e+02
2.640000e-06	-1.556003e-06	-2.676335e-09	-1.082571e+01	-1.807702e+02
2.650000e-06	-1.655813e-06	-3.670147e-09	-1.152013e+01	-2.393759e+02
2.660000e-06	-1.754981e-06	-4.621450e-09	-1.221008e+01	-2.967602e+02
2.670000e-06	-1.853534e-06	-5.497432e-09	-1.289575e+01	-3.518105e+02
2.680000e-06	-1.951495e-06	-6.282036e-09	-1.357731e+01	-4.035511e+02
2.690000e-06	-2.048755e-06	-6.970994e-09	-1.425398e+01	-4.512048e+02
2.700000e-06	-2.145285e-06	-7.570189e-09	-1.492558e+01	-4.942372e+02
2.710000e-06	-2.241191e-06	-8.093707e-09	-1.559283e+01	-5.323796e+02
2.720000e-06	-2.336492e-06	-8.554945e-09	-1.625588e+01	-5.656295e+02
2.730000e-06	-2.431061e-06	-8.964252e-09	-1.691383e+01	-5.942299e+02
2.740000e-06	-2.524627e-06	-9.329031e-09	-1.756481e+01	-6.186289e+02
2.750000e-06	-2.617102e-06	-9.656201e-09	-1.820819e+01	-6.394249e+02
2.760000e-06	-2.708600e-06	-9.957643e-09	-1.884478e+01	-6.573044e+02
2.770000e-06	-2.799132e-06	-1.023967e-08	-1.947464e+01	-6.729760e+02
2.780000e-06	-2.888566e-06	-1.049946e-08	-2.009687e+01	-6.871102e+02
2.790000e-06	-2.976905e-06	-1.073551e-08	-2.071148e+01	-7.002876e+02
2.800000e-06	-3.064337e-06	-1.095167e-08	-2.131978e+01	-7.129625e+02
2.810000e-06	-3.150799e-06	-1.115549e-08	-2.192133e+01	-7.254420e+02
2.820000e-06	-3.236049e-06	-1.134726e-08	-2.251445e+01	-7.378827e+02
2.830000e-06	-3.320064e-06	-1.152582e-08	-2.309897e+01	-7.503042e+02
2.840000e-06	-3.402904e-06	-1.169551e-08	-2.367532e+01	-7.626147e+02
2.850000e-06	-3.484599e-06	-1.185926e-08	-2.424370e+01	-7.746466e+02
2.860000e-06	-3.565178e-06	-1.201530e-08	-2.480432e+01	-7.861958e+02
2.870000e-06	-3.644568e-06	-1.216027e-08	-2.535667e+01	-7.970611e+02
2.880000e-06	-3.722493e-06	-1.229440e-08	-2.589882e+01	-8.070777e+02
2.890000e-06	-3.798898e-06	-1.241950e-08	-2.643040e+01	-8.161427e+02
2.900000e-06	-3.873855e-06	-1.253822e-08	-2.695191e+01	-8.242292e+02
2.910000e-06	-3.947329e-06	-1.265208e-08	-2.746309e+01	-8.313888e+02
2.920000e-06	-4.019414e-06	-1.276094e-08	-2.796462e+01	-8.377432e+02
2.930000e-06	-4.090097e-06	-1.286602e-08	-2.845639e+01	-8.434663e+02
2.940000e-06	-4.159202e-06	-1.296855e-08	-2.893718e+01	-8.487607e+02
