# Temperatura_=_48.93
# Concentracion g/m^3_=_15500.0
# C_Vs_to_Am_M_A/Vsm_=_65563218390.804596
# pendiente_HvsI_1/m_=_3716.3
# ordenada_HvsI_A/m_=_1297.0
# frecuencia_Hz_=_300800.1925004428

Tiempo_(s)	Campo_(V.s)	Magnetizacion_(V.s)	Campo_(kA/m)	Magnetizacion_(A/m)
0.000000e+00	-5.492277e-06	-1.412516e-08	-3.830962e+01	-9.246358e+02
1.000000e-08	-5.490557e-06	-1.411988e-08	-3.829762e+01	-9.246911e+02
2.000000e-08	-5.486865e-06	-1.411195e-08	-3.827187e+01	-9.247987e+02
3.000000e-08	-5.481509e-06	-1.410459e-08	-3.823451e+01	-9.248852e+02
4.000000e-08	-5.474543e-06	-1.409584e-08	-3.818592e+01	-9.248655e+02
5.000000e-08	-5.465890e-06	-1.408532e-08	-3.812556e+01	-9.246548e+02
6.000000e-08	-5.455283e-06	-1.407195e-08	-3.805158e+01	-9.241816e+02
7.000000e-08	-5.442634e-06	-1.405498e-08	-3.796335e+01	-9.233969e+02
8.000000e-08	-5.427948e-06	-1.405076e-08	-3.786091e+01	-9.222816e+02
9.000000e-08	-5.410924e-06	-1.404982e-08	-3.774216e+01	-9.208492e+02
1.000000e-07	-5.391615e-06	-1.402134e-08	-3.760748e+01	-9.191433e+02
1.100000e-07	-5.370304e-06	-1.399494e-08	-3.745884e+01	-9.172316e+02
1.200000e-07	-5.347196e-06	-1.395911e-08	-3.729765e+01	-9.151958e+02
1.300000e-07	-5.322613e-06	-1.391087e-08	-3.712618e+01	-9.131201e+02
1.400000e-07	-5.296492e-06	-1.391607e-08	-3.694398e+01	-9.110787e+02
1.500000e-07	-5.268531e-06	-1.386766e-08	-3.674895e+01	-9.091250e+02
1.600000e-07	-5.238853e-06	-1.382795e-08	-3.654194e+01	-9.072841e+02
1.700000e-07	-5.207586e-06	-1.385847e-08	-3.632385e+01	-9.055483e+02
1.800000e-07	-5.174398e-06	-1.378811e-08	-3.609235e+01	-9.038780e+02
1.900000e-07	-5.139212e-06	-1.374593e-08	-3.584693e+01	-9.022070e+02
2.000000e-07	-5.102382e-06	-1.374172e-08	-3.559003e+01	-9.004512e+02
2.100000e-07	-5.063824e-06	-1.364153e-08	-3.532108e+01	-8.985204e+02
2.200000e-07	-5.023496e-06	-1.360755e-08	-3.503978e+01	-8.963308e+02
2.300000e-07	-4.981314e-06	-1.359423e-08	-3.474556e+01	-8.938166e+02
2.400000e-07	-4.937222e-06	-1.353511e-08	-3.443801e+01	-8.909393e+02
2.500000e-07	-4.891407e-06	-1.352194e-08	-3.411844e+01	-8.876938e+02
2.600000e-07	-4.843733e-06	-1.346270e-08	-3.378590e+01	-8.841089e+02
2.700000e-07	-4.794005e-06	-1.340530e-08	-3.343904e+01	-8.802436e+02
2.800000e-07	-4.742212e-06	-1.336174e-08	-3.307778e+01	-8.761795e+02
2.900000e-07	-4.688489e-06	-1.328253e-08	-3.270305e+01	-8.720092e+02
3.000000e-07	-4.633037e-06	-1.322028e-08	-3.231627e+01	-8.678232e+02
3.100000e-07	-4.575920e-06	-1.317070e-08	-3.191786e+01	-8.636976e+02
3.200000e-07	-4.517033e-06	-1.313819e-08	-3.150711e+01	-8.596827e+02
3.300000e-07	-4.456492e-06	-1.308699e-08	-3.108483e+01	-8.557955e+02
3.400000e-07	-4.394501e-06	-1.301739e-08	-3.065243e+01	-8.520165e+02
3.500000e-07	-4.331046e-06	-1.294706e-08	-3.020982e+01	-8.482922e+02
3.600000e-07	-4.266000e-06	-1.285673e-08	-2.975612e+01	-8.445410e+02
3.700000e-07	-4.199309e-06	-1.279428e-08	-2.929093e+01	-8.406647e+02
3.800000e-07	-4.131021e-06	-1.272654e-08	-2.881461e+01	-8.365610e+02
3.900000e-07	-4.061273e-06	-1.264686e-08	-2.832811e+01	-8.321380e+02
4.000000e-07	-3.990223e-06	-1.258557e-08	-2.783252e+01	-8.273262e+02
4.100000e-07	-3.917906e-06	-1.250760e-08	-2.732809e+01	-8.220887e+02
4.200000e-07	-3.844121e-06	-1.242765e-08	-2.681343e+01	-8.164263e+02
4.300000e-07	-3.768653e-06	-1.233065e-08	-2.628703e+01	-8.103777e+02
4.400000e-07	-3.691564e-06	-1.223939e-08	-2.574932e+01	-8.040139e+02
4.500000e-07	-3.612962e-06	-1.216053e-08	-2.520106e+01	-7.974287e+02
4.600000e-07	-3.532886e-06	-1.207551e-08	-2.464252e+01	-7.907251e+02
4.700000e-07	-3.451431e-06	-1.198385e-08	-2.407435e+01	-7.840004e+02
4.800000e-07	-3.368747e-06	-1.187881e-08	-2.349762e+01	-7.773321e+02
4.900000e-07	-3.284971e-06	-1.177904e-08	-2.291326e+01	-7.707651e+02
5.000000e-07	-3.200222e-06	-1.167400e-08	-2.232212e+01	-7.643046e+02
5.100000e-07	-3.114503e-06	-1.156478e-08	-2.172422e+01	-7.579134e+02
5.200000e-07	-3.027883e-06	-1.145551e-08	-2.112002e+01	-7.515156e+02
5.300000e-07	-2.940323e-06	-1.134925e-08	-2.050928e+01	-7.450053e+02
5.400000e-07	-2.851711e-06	-1.124398e-08	-1.989119e+01	-7.382603e+02
5.500000e-07	-2.762137e-06	-1.112692e-08	-1.926640e+01	-7.311584e+02
5.600000e-07	-2.671424e-06	-1.099931e-08	-1.863366e+01	-7.235936e+02
5.700000e-07	-2.579502e-06	-1.086706e-08	-1.799249e+01	-7.154911e+02
5.800000e-07	-2.486684e-06	-1.073983e-08	-1.734507e+01	-7.068182e+02
5.900000e-07	-2.393109e-06	-1.061126e-08	-1.669237e+01	-6.975891e+02
6.000000e-07	-2.298776e-06	-1.047559e-08	-1.603437e+01	-6.878637e+02
6.100000e-07	-2.203644e-06	-1.033471e-08	-1.537081e+01	-6.777393e+02
6.200000e-07	-2.107715e-06	-1.018964e-08	-1.470169e+01	-6.673370e+02
6.300000e-07	-2.011114e-06	-1.004036e-08	-1.402788e+01	-6.567835e+02
6.400000e-07	-1.913844e-06	-9.886151e-09	-1.334941e+01	-6.461914e+02
6.500000e-07	-1.815739e-06	-9.727129e-09	-1.266511e+01	-6.356408e+02
6.600000e-07	-1.716735e-06	-9.566205e-09	-1.197453e+01	-6.251640e+02
6.700000e-07	-1.616966e-06	-9.401455e-09	-1.127863e+01	-6.147364e+02
6.800000e-07	-1.516632e-06	-9.225735e-09	-1.057878e+01	-6.042748e+02
6.900000e-07	-1.415913e-06	-9.039570e-09	-9.876246e+00	-5.936441e+02
7.000000e-07	-1.314796e-06	-8.849998e-09	-9.170936e+00	-5.826709e+02
7.100000e-07	-1.213217e-06	-8.660353e-09	-8.462403e+00	-5.711646e+02
7.200000e-07	-1.111175e-06	-8.465486e-09	-7.750648e+00	-5.589404e+02
7.300000e-07	-1.008758e-06	-8.264991e-09	-7.036269e+00	-5.458444e+02
7.400000e-07	-9.060403e-07	-8.057920e-09	-6.319793e+00	-5.317745e+02
7.500000e-07	-8.030268e-07	-7.841393e-09	-5.601256e+00	-5.166961e+02
7.600000e-07	-6.996702e-07	-7.612712e-09	-4.880325e+00	-5.006484e+02
7.700000e-07	-5.959520e-07	-7.373234e-09	-4.156872e+00	-4.837404e+02
7.800000e-07	-4.919972e-07	-7.124854e-09	-3.431769e+00	-4.661362e+02
7.900000e-07	-3.879513e-07	-6.869405e-09	-2.706030e+00	-4.480304e+02
8.000000e-07	-2.838206e-07	-6.606832e-09	-1.979700e+00	-4.296155e+02
8.100000e-07	-1.795562e-07	-6.331641e-09	-1.252437e+00	-4.110460e+02
8.200000e-07	-7.519212e-08	-6.044254e-09	-5.244785e-01	-3.924023e+02
8.300000e-07	2.920097e-08	-5.743726e-09	2.036820e-01	-3.736595e+02
8.400000e-07	1.335769e-07	-5.428013e-09	9.317231e-01	-3.546658e+02
8.500000e-07	2.378842e-07	-5.096661e-09	1.659285e+00	-3.351332e+02
8.600000e-07	3.420952e-07	-4.747160e-09	2.386175e+00	-3.146440e+02
8.700000e-07	4.462115e-07	-4.374523e-09	3.112405e+00	-2.926725e+02
8.800000e-07	5.501666e-07	-3.975832e-09	3.837511e+00	-2.686229e+02
8.900000e-07	6.538992e-07	-3.554324e-09	4.561064e+00	-2.418785e+02
9.000000e-07	7.573846e-07	-3.109213e-09	5.282894e+00	-2.118589e+02
9.100000e-07	8.606022e-07	-2.631978e-09	6.002855e+00	-1.780809e+02
9.200000e-07	9.635159e-07	-2.109905e-09	6.720696e+00	-1.402146e+02
9.300000e-07	1.066109e-06	-1.529831e-09	7.436305e+00	-9.813141e+01
9.400000e-07	1.168312e-06	-8.799028e-10	8.149185e+00	-5.193699e+01
9.500000e-07	1.270110e-06	-1.491393e-10	8.859244e+00	-1.985640e+00
9.600000e-07	1.371484e-06	6.675381e-10	9.566349e+00	5.112577e+01
9.700000e-07	1.472387e-06	1.561788e-09	1.027017e+01	1.065849e+02
9.800000e-07	1.572877e-06	2.508370e-09	1.097110e+01	1.634102e+02
9.900000e-07	1.672896e-06	3.465508e-09	1.166875e+01	2.205122e+02
1.000000e-06	1.772234e-06	4.388829e-09	1.236165e+01	2.767651e+02
1.010000e-06	1.870739e-06	5.245103e-09	1.304874e+01	3.310817e+02
1.020000e-06	1.968407e-06	6.014198e-09	1.372999e+01	3.824851e+02
1.030000e-06	2.065308e-06	6.691720e-09	1.440589e+01	4.301710e+02
1.040000e-06	2.161506e-06	7.285840e-09	1.507689e+01	4.735547e+02
1.050000e-06	2.256984e-06	7.810832e-09	1.574287e+01	5.122990e+02
1.060000e-06	2.351675e-06	8.275646e-09	1.640336e+01	5.463218e+02
1.070000e-06	2.445574e-06	8.687606e-09	1.705832e+01	5.757815e+02
1.080000e-06	2.538723e-06	9.055850e-09	1.770805e+01	6.010448e+02
1.090000e-06	2.631082e-06	9.388837e-09	1.835227e+01	6.226385e+02
1.100000e-06	2.722553e-06	9.690025e-09	1.899030e+01	6.411916e+02
1.110000e-06	2.812890e-06	9.960881e-09	1.962042e+01	6.573744e+02
1.120000e-06	2.901993e-06	1.020950e-08	2.024192e+01	6.718386e+02
1.130000e-06	2.990083e-06	1.044241e-08	2.085637e+01	6.851659e+02
1.140000e-06	3.077218e-06	1.066160e-08	2.146415e+01	6.978286e+02
1.150000e-06	3.163303e-06	1.086581e-08	2.206460e+01	7.101651e+02
1.160000e-06	3.248349e-06	1.105427e-08	2.265782e+01	7.223719e+02
1.170000e-06	3.332372e-06	1.123029e-08	2.324389e+01	7.345111e+02
1.180000e-06	3.415252e-06	1.139858e-08	2.382200e+01	7.465316e+02
1.190000e-06	3.496888e-06	1.155770e-08	2.439142e+01	7.582998e+02
1.200000e-06	3.577258e-06	1.170512e-08	2.495202e+01	7.696361e+02
1.210000e-06	3.656308e-06	1.184498e-08	2.550340e+01	7.803523e+02
1.220000e-06	3.734056e-06	1.198063e-08	2.604571e+01	7.902851e+02
1.230000e-06	3.810479e-06	1.210795e-08	2.657878e+01	7.993225e+02
1.240000e-06	3.885390e-06	1.222551e-08	2.710129e+01	8.074208e+02
1.250000e-06	3.958696e-06	1.233754e-08	2.761262e+01	8.146099e+02
1.260000e-06	4.030483e-06	1.244507e-08	2.811334e+01	8.209887e+02
1.270000e-06	4.100892e-06	1.254696e-08	2.860445e+01	8.267104e+02
1.280000e-06	4.169973e-06	1.264277e-08	2.908631e+01	8.319620e+02
1.290000e-06	4.237636e-06	1.273438e-08	2.955827e+01	8.369393e+02
1.300000e-06	4.303634e-06	1.282227e-08	3.001862e+01	8.418231e+02
1.310000e-06	4.367952e-06	1.290654e-08	3.046725e+01	8.467575e+02
1.320000e-06	4.430835e-06	1.298834e-08	3.090587e+01	8.518349e+02
1.330000e-06	4.492363e-06	1.306655e-08	3.133504e+01	8.570880e+02
1.340000e-06	4.552494e-06	1.314084e-08	3.175446e+01	8.624901e+02
1.350000e-06	4.610961e-06	1.321404e-08	3.216228e+01	8.679637e+02
1.360000e-06	4.667565e-06	1.328621e-08	3.255711e+01	8.733942e+02
1.370000e-06	4.722476e-06	1.335456e-08	3.294012e+01	8.786490e+02
1.380000e-06	4.775714e-06	1.341836e-08	3.331146e+01	8.835972e+02
1.390000e-06	4.826964e-06	1.347741e-08	3.366894e+01	8.881282e+02
1.400000e-06	4.876163e-06	1.353210e-08	3.401211e+01	8.921666e+02
1.410000e-06	4.923550e-06	1.358318e-08	3.434265e+01	8.956819e+02
1.420000e-06	4.969293e-06	1.363115e-08	3.466171e+01	8.986911e+02
1.430000e-06	5.013409e-06	1.367937e-08	3.496942e+01	9.012549e+02
1.440000e-06	5.055598e-06	1.372779e-08	3.526370e+01	9.034685e+02
1.450000e-06	5.095919e-06	1.377398e-08	3.554495e+01	9.054469e+02
1.460000e-06	5.134596e-06	1.381678e-08	3.581472e+01	9.073095e+02
1.470000e-06	5.171603e-06	1.385422e-08	3.607286e+01	9.091633e+02
1.480000e-06	5.206811e-06	1.388559e-08	3.631844e+01	9.110892e+02
1.490000e-06	5.240040e-06	1.391305e-08	3.655022e+01	9.131320e+02
1.500000e-06	5.271413e-06	1.394023e-08	3.676905e+01	9.152960e+02
1.510000e-06	5.301095e-06	1.396889e-08	3.697609e+01	9.175460e+02
1.520000e-06	5.328975e-06	1.399779e-08	3.717055e+01	9.198141e+02
1.530000e-06	5.354788e-06	1.402460e-08	3.735061e+01	9.220101e+02
1.540000e-06	5.378576e-06	1.404888e-08	3.751653e+01	9.240360e+02
1.550000e-06	5.400584e-06	1.406961e-08	3.767004e+01	9.257998e+02
1.560000e-06	5.420899e-06	1.408779e-08	3.781174e+01	9.272288e+02
1.570000e-06	5.439356e-06	1.410354e-08	3.794048e+01	9.282799e+02
1.580000e-06	5.455753e-06	1.411625e-08	3.805485e+01	9.289454e+02
1.590000e-06	5.470146e-06	1.412676e-08	3.815525e+01	9.292538e+02
1.600000e-06	5.482456e-06	1.413486e-08	3.824111e+01	9.292649e+02
1.610000e-06	5.492535e-06	1.414229e-08	3.831141e+01	9.290620e+02
1.620000e-06	5.500559e-06	1.414995e-08	3.836738e+01	9.287393e+02
1.630000e-06	5.506740e-06	1.415722e-08	3.841050e+01	9.283890e+02
1.640000e-06	5.511142e-06	1.416322e-08	3.844121e+01	9.280889e+02
1.650000e-06	5.513505e-06	1.416696e-08	3.845769e+01	9.278916e+02
1.660000e-06	5.513837e-06	1.416533e-08	3.846000e+01	9.278179e+02
1.670000e-06	5.512433e-06	1.415858e-08	3.845021e+01	9.278544e+02
1.680000e-06	5.509357e-06	1.415157e-08	3.842875e+01	9.279563e+02
1.690000e-06	5.504384e-06	1.414199e-08	3.839407e+01	9.280543e+02
1.700000e-06	5.497493e-06	1.413405e-08	3.834600e+01	9.280646e+02
1.710000e-06	5.488912e-06	1.412904e-08	3.828614e+01	9.279015e+02
1.720000e-06	5.478630e-06	1.412386e-08	3.821443e+01	9.274895e+02
1.730000e-06	5.466450e-06	1.411590e-08	3.812947e+01	9.267741e+02
1.740000e-06	5.452281e-06	1.407167e-08	3.803063e+01	9.257296e+02
1.750000e-06	5.436089e-06	1.404669e-08	3.791770e+01	9.243624e+02
1.760000e-06	5.417408e-06	1.403452e-08	3.778739e+01	9.227101e+02
1.770000e-06	5.395982e-06	1.401424e-08	3.763794e+01	9.208359e+02
1.780000e-06	5.372417e-06	1.403279e-08	3.747357e+01	9.188195e+02
1.790000e-06	5.347671e-06	1.397615e-08	3.730096e+01	9.167456e+02
1.800000e-06	5.322040e-06	1.393542e-08	3.712218e+01	9.146914e+02
1.810000e-06	5.294659e-06	1.396100e-08	3.693120e+01	9.127157e+02
1.820000e-06	5.265011e-06	1.388222e-08	3.672440e+01	9.108501e+02
1.830000e-06	5.233673e-06	1.389899e-08	3.650581e+01	9.090940e+02
1.840000e-06	5.200583e-06	1.393717e-08	3.627500e+01	9.074144e+02
1.850000e-06	5.165753e-06	1.381139e-08	3.603205e+01	9.057502e+02
1.860000e-06	5.129253e-06	1.382269e-08	3.577746e+01	9.040201e+02
1.870000e-06	5.090679e-06	1.382281e-08	3.550840e+01	9.021343e+02
1.880000e-06	5.050305e-06	1.370291e-08	3.522678e+01	9.000064e+02
1.890000e-06	5.008288e-06	1.371368e-08	3.493370e+01	8.975660e+02
1.900000e-06	4.964440e-06	1.363508e-08	3.462786e+01	8.947681e+02
1.910000e-06	4.918833e-06	1.356712e-08	3.430974e+01	8.916002e+02
1.920000e-06	4.871318e-06	1.358012e-08	3.397832e+01	8.880839e+02
1.930000e-06	4.822016e-06	1.346868e-08	3.363443e+01	8.842724e+02
1.940000e-06	4.770984e-06	1.345766e-08	3.327847e+01	8.802433e+02
1.950000e-06	4.717863e-06	1.341410e-08	3.290794e+01	8.760878e+02
1.960000e-06	4.662905e-06	1.333003e-08	3.252460e+01	8.718980e+02
1.970000e-06	4.606276e-06	1.328984e-08	3.212960e+01	8.677542e+02
1.980000e-06	4.548033e-06	1.318663e-08	3.172335e+01	8.637130e+02
1.990000e-06	4.488226e-06	1.315688e-08	3.130618e+01	8.597987e+02
2.000000e-06	4.426674e-06	1.308879e-08	3.087685e+01	8.559999e+02
2.010000e-06	4.363511e-06	1.303818e-08	3.043627e+01	8.522699e+02
2.020000e-06	4.298809e-06	1.299750e-08	2.998497e+01	8.485323e+02
2.030000e-06	4.232669e-06	1.288904e-08	2.952363e+01	8.446915e+02
2.040000e-06	4.165067e-06	1.284945e-08	2.905209e+01	8.406448e+02
2.050000e-06	4.095700e-06	1.274615e-08	2.856824e+01	8.362969e+02
2.060000e-06	4.024783e-06	1.266257e-08	2.807358e+01	8.315727e+02
2.070000e-06	3.952526e-06	1.259125e-08	2.756958e+01	8.264276e+02
2.080000e-06	3.878942e-06	1.250382e-08	2.705632e+01	8.208543e+02
2.090000e-06	3.803833e-06	1.245666e-08	2.653242e+01	8.148834e+02
2.100000e-06	3.727019e-06	1.234783e-08	2.599663e+01	8.085798e+02
2.110000e-06	3.648642e-06	1.226025e-08	2.544993e+01	8.020334e+02
2.120000e-06	3.568962e-06	1.216062e-08	2.489415e+01	7.953465e+02
2.130000e-06	3.488196e-06	1.207071e-08	2.433079e+01	7.886190e+02
2.140000e-06	3.406286e-06	1.198234e-08	2.375946e+01	7.819335e+02
2.150000e-06	3.323223e-06	1.187435e-08	2.318008e+01	7.753428e+02
2.160000e-06	3.238952e-06	1.178589e-08	2.259227e+01	7.688612e+02
2.170000e-06	3.153326e-06	1.167032e-08	2.199501e+01	7.624603e+02
2.180000e-06	3.066493e-06	1.156537e-08	2.138934e+01	7.560720e+02
2.190000e-06	2.978677e-06	1.144383e-08	2.077681e+01	7.495957e+02
2.200000e-06	2.889898e-06	1.132792e-08	2.015755e+01	7.429115e+02
2.210000e-06	2.800133e-06	1.121544e-08	1.953143e+01	7.358958e+02
2.220000e-06	2.709455e-06	1.110070e-08	1.889894e+01	7.284377e+02
2.230000e-06	2.617917e-06	1.098467e-08	1.826044e+01	7.204547e+02
2.240000e-06	2.525487e-06	1.084598e-08	1.761573e+01	7.119044e+02
2.250000e-06	2.432022e-06	1.071375e-08	1.696379e+01	7.027909e+02
2.260000e-06	2.337500e-06	1.057124e-08	1.630448e+01	6.931647e+02
2.270000e-06	2.242141e-06	1.043611e-08	1.563934e+01	6.831161e+02
2.280000e-06	2.146066e-06	1.029251e-08	1.496920e+01	6.727626e+02
2.290000e-06	2.049275e-06	1.014587e-08	1.429406e+01	6.622312e+02
2.300000e-06	1.951831e-06	1.000323e-08	1.361437e+01	6.516392e+02
2.310000e-06	1.853788e-06	9.849234e-09	1.293051e+01	6.410752e+02
2.320000e-06	1.755143e-06	9.686356e-09	1.224244e+01	6.305826e+02
2.330000e-06	1.655957e-06	9.508419e-09	1.155059e+01	6.201495e+02
2.340000e-06	1.556312e-06	9.337450e-09	1.085556e+01	6.097049e+02
2.350000e-06	1.456189e-06	9.164225e-09	1.015718e+01	5.991239e+02
2.360000e-06	1.355411e-06	8.980296e-09	9.454232e+00	5.882399e+02
2.370000e-06	1.253883e-06	8.786010e-09	8.746059e+00	5.768639e+02
2.380000e-06	1.151728e-06	8.589073e-09	8.033512e+00	5.648079e+02
2.390000e-06	1.049121e-06	8.393179e-09	7.317806e+00	5.519093e+02
2.400000e-06	9.461542e-07	8.185227e-09	6.599595e+00	5.380535e+02
2.410000e-06	8.428533e-07	7.962942e-09	5.879053e+00	5.231904e+02
2.420000e-06	7.393037e-07	7.730742e-09	5.156776e+00	5.073433e+02
2.430000e-06	6.355502e-07	7.495115e-09	4.433077e+00	4.906074e+02
2.440000e-06	5.315703e-07	7.254253e-09	3.707798e+00	4.731366e+02
2.450000e-06	4.274003e-07	7.002581e-09	2.981194e+00	4.551214e+02
2.460000e-06	3.230848e-07	6.738129e-09	2.253574e+00	4.367579e+02
2.470000e-06	2.186449e-07	6.466633e-09	1.525087e+00	4.182117e+02
2.480000e-06	1.141515e-07	6.186143e-09	7.962270e-01	3.995819e+02
2.490000e-06	9.666129e-09	5.889810e-09	6.742298e-02	3.808685e+02
2.500000e-06	-9.483739e-08	5.574518e-09	-6.615078e-01	3.619481e+02
2.510000e-06	-1.992973e-07	5.243642e-09	-1.390135e+00	3.425620e+02
2.520000e-06	-3.036378e-07	4.900025e-09	-2.117928e+00	3.223187e+02
2.530000e-06	-4.078354e-07	4.539267e-09	-2.844725e+00	3.007133e+02
2.540000e-06	-5.118613e-07	4.155715e-09	-3.570325e+00	2.771611e+02
2.550000e-06	-6.156848e-07	3.745826e-09	-4.294512e+00	2.510450e+02
2.560000e-06	-7.193087e-07	3.310139e-09	-5.017307e+00	2.217721e+02
2.570000e-06	-8.227016e-07	2.842452e-09	-5.738491e+00	1.888333e+02
2.580000e-06	-9.258036e-07	2.331792e-09	-6.457646e+00	1.518613e+02
2.590000e-06	-1.028569e-06	1.769715e-09	-7.174456e+00	1.106811e+02
2.600000e-06	-1.130934e-06	1.145604e-09	-7.888467e+00	6.534637e+01
2.610000e-06	-1.232790e-06	4.467231e-10	-8.598928e+00	1.615778e+01
2.620000e-06	-1.334063e-06	-3.373499e-10	-9.305327e+00	-3.633813e+01
2.630000e-06	-1.434736e-06	-1.206405e-09	-1.000754e+01	-9.137193e+01
2.640000e-06	-1.534793e-06	-2.139037e-09	-1.070545e+01	-1.479936e+02
2.650000e-06	-1.634279e-06	-3.098243e-09	-1.139939e+01	-2.051310e+02
2.660000e-06	-1.733238e-06	-4.041281e-09	-1.208965e+01	-2.616598e+02
2.670000e-06	-1.831630e-06	-4.930354e-09	-1.277595e+01	-3.164784e+02
2.680000e-06	-1.929374e-06	-5.739881e-09	-1.345773e+01	-3.685806e+02
2.690000e-06	-2.026464e-06	-6.459686e-09	-1.413495e+01	-4.171204e+02
2.700000e-06	-2.122891e-06	-7.092767e-09	-1.480754e+01	-4.614631e+02
2.710000e-06	-2.218673e-06	-7.646841e-09	-1.547565e+01	-5.012171e+02
2.720000e-06	-2.313834e-06	-8.132824e-09	-1.613941e+01	-5.362461e+02
2.730000e-06	-2.408307e-06	-8.561420e-09	-1.679837e+01	-5.666593e+02
2.740000e-06	-2.501866e-06	-8.942308e-09	-1.745096e+01	-5.927822e+02
2.750000e-06	-2.594276e-06	-9.284381e-09	-1.809554e+01	-6.151118e+02
2.760000e-06	-2.685598e-06	-9.596263e-09	-1.873252e+01	-6.342605e+02
2.770000e-06	-2.775998e-06	-9.884002e-09	-1.936308e+01	-6.508949e+02
2.780000e-06	-2.865475e-06	-1.014881e-08	-1.998720e+01	-6.656754e+02
2.790000e-06	-2.953922e-06	-1.039296e-08	-2.060414e+01	-6.792024e+02
2.800000e-06	-3.041383e-06	-1.061870e-08	-2.121419e+01	-6.919743e+02
2.810000e-06	-3.127830e-06	-1.082794e-08	-2.181717e+01	-7.043594e+02
2.820000e-06	-3.213066e-06	-1.102121e-08	-2.241171e+01	-7.165844e+02
2.830000e-06	-3.297006e-06	-1.120094e-08	-2.299721e+01	-7.287390e+02
2.840000e-06	-3.379748e-06	-1.137156e-08	-2.357435e+01	-7.407939e+02
2.850000e-06	-3.461430e-06	-1.153316e-08	-2.414410e+01	-7.526303e+02
2.860000e-06	-3.541987e-06	-1.168601e-08	-2.470600e+01	-7.640754e+02
2.870000e-06	-3.621344e-06	-1.183125e-08	-2.525952e+01	-7.749395e+02
2.880000e-06	-3.699319e-06	-1.196917e-08	-2.580341e+01	-7.850517e+02
2.890000e-06	-3.775750e-06	-1.209901e-08	-2.633654e+01	-7.942872e+02
2.900000e-06	-3.850681e-06	-1.222007e-08	-2.685919e+01	-8.025867e+02
2.910000e-06	-3.924172e-06	-1.233346e-08	-2.737181e+01	-8.099645e+02
2.920000e-06	-3.996315e-06	-1.243891e-08	-2.787501e+01	-8.165057e+02
2.930000e-06	-4.067087e-06	-1.253961e-08	-2.836866e+01	-8.223533e+02
2.940000e-06	-4.136302e-06	-1.263968e-08	-2.885145e+01	-8.276891e+02
