# Temperatura_=_65.58
# Concentracion g/m^3_=_15500.0
# C_Vs_to_Am_M_A/Vsm_=_65563218390.804596
# pendiente_HvsI_1/m_=_3716.3
# ordenada_HvsI_A/m_=_1297.0
# frecuencia_Hz_=_300796.24736131524

Tiempo_(s)	Campo_(V.s)	Magnetizacion_(V.s)	Campo_(kA/m)	Magnetizacion_(A/m)
0.000000e+00	-5.499706e-06	-1.466376e-08	-3.830867e+01	-9.608686e+02
1.000000e-08	-5.497777e-06	-1.465925e-08	-3.829523e+01	-9.610989e+02
2.000000e-08	-5.493910e-06	-1.465461e-08	-3.826829e+01	-9.613352e+02
3.000000e-08	-5.488260e-06	-1.465133e-08	-3.822893e+01	-9.614857e+02
4.000000e-08	-5.480984e-06	-1.464492e-08	-3.817825e+01	-9.614540e+02
5.000000e-08	-5.472060e-06	-1.463397e-08	-3.811610e+01	-9.611533e+02
6.000000e-08	-5.461203e-06	-1.461755e-08	-3.804047e+01	-9.605183e+02
7.000000e-08	-5.448290e-06	-1.458967e-08	-3.795052e+01	-9.595146e+02
8.000000e-08	-5.433376e-06	-1.457617e-08	-3.784664e+01	-9.581436e+02
9.000000e-08	-5.416124e-06	-1.460656e-08	-3.772647e+01	-9.564422e+02
1.000000e-07	-5.396500e-06	-1.459420e-08	-3.758977e+01	-9.544771e+02
1.100000e-07	-5.374864e-06	-1.454304e-08	-3.743907e+01	-9.523359e+02
1.200000e-07	-5.351450e-06	-1.450885e-08	-3.727597e+01	-9.501139e+02
1.300000e-07	-5.326568e-06	-1.441651e-08	-3.710266e+01	-9.479010e+02
1.400000e-07	-5.300251e-06	-1.439959e-08	-3.691934e+01	-9.457680e+02
1.500000e-07	-5.272126e-06	-1.445269e-08	-3.672343e+01	-9.437572e+02
1.600000e-07	-5.242238e-06	-1.433217e-08	-3.651525e+01	-9.418753e+02
1.700000e-07	-5.210722e-06	-1.432365e-08	-3.629572e+01	-9.400920e+02
1.800000e-07	-5.177254e-06	-1.437806e-08	-3.606260e+01	-9.383443e+02
1.900000e-07	-5.141809e-06	-1.426306e-08	-3.581571e+01	-9.365441e+02
2.000000e-07	-5.104751e-06	-1.424403e-08	-3.555757e+01	-9.345906e+02
2.100000e-07	-5.066020e-06	-1.417709e-08	-3.528779e+01	-9.323842e+02
2.200000e-07	-5.025505e-06	-1.405701e-08	-3.500558e+01	-9.298397e+02
2.300000e-07	-4.983086e-06	-1.407485e-08	-3.471010e+01	-9.268987e+02
2.400000e-07	-4.938646e-06	-1.404993e-08	-3.440056e+01	-9.235377e+02
2.500000e-07	-4.892409e-06	-1.400940e-08	-3.407849e+01	-9.197715e+02
2.600000e-07	-4.844339e-06	-1.397954e-08	-3.374365e+01	-9.156515e+02
2.700000e-07	-4.794224e-06	-1.388877e-08	-3.339457e+01	-9.112590e+02
2.800000e-07	-4.742091e-06	-1.382296e-08	-3.303143e+01	-9.066936e+02
2.900000e-07	-4.688037e-06	-1.374564e-08	-3.265492e+01	-9.020603e+02
3.000000e-07	-4.632306e-06	-1.366715e-08	-3.226672e+01	-8.974542e+02
3.100000e-07	-4.574934e-06	-1.360853e-08	-3.186709e+01	-8.929475e+02
3.200000e-07	-4.515792e-06	-1.358502e-08	-3.145513e+01	-8.885790e+02
3.300000e-07	-4.455022e-06	-1.355081e-08	-3.103183e+01	-8.843484e+02
3.400000e-07	-4.392760e-06	-1.344613e-08	-3.059814e+01	-8.802159e+02
3.500000e-07	-4.329024e-06	-1.336278e-08	-3.015418e+01	-8.761069e+02
3.600000e-07	-4.263731e-06	-1.327001e-08	-2.969938e+01	-8.719223e+02
3.700000e-07	-4.196796e-06	-1.318245e-08	-2.923314e+01	-8.675517e+02
3.800000e-07	-4.128247e-06	-1.312515e-08	-2.875565e+01	-8.628884e+02
3.900000e-07	-4.058191e-06	-1.304346e-08	-2.826767e+01	-8.578446e+02
4.000000e-07	-3.986813e-06	-1.297099e-08	-2.777048e+01	-8.523630e+02
4.100000e-07	-3.914160e-06	-1.289235e-08	-2.726441e+01	-8.464257e+02
4.200000e-07	-3.840073e-06	-1.279783e-08	-2.674835e+01	-8.400566e+02
4.300000e-07	-3.764316e-06	-1.268635e-08	-2.622066e+01	-8.333182e+02
4.400000e-07	-3.686898e-06	-1.257904e-08	-2.568140e+01	-8.263033e+02
4.500000e-07	-3.607998e-06	-1.249774e-08	-2.513181e+01	-8.191215e+02
4.600000e-07	-3.527665e-06	-1.241025e-08	-2.457225e+01	-8.118839e+02
4.700000e-07	-3.445971e-06	-1.231622e-08	-2.400320e+01	-8.046866e+02
4.800000e-07	-3.363014e-06	-1.220538e-08	-2.342535e+01	-7.975960e+02
4.900000e-07	-3.278957e-06	-1.208995e-08	-2.283985e+01	-7.906386e+02
5.000000e-07	-3.193917e-06	-1.197556e-08	-2.224750e+01	-7.837950e+02
5.100000e-07	-3.107933e-06	-1.185061e-08	-2.164857e+01	-7.770013e+02
5.200000e-07	-3.021016e-06	-1.173042e-08	-2.104314e+01	-7.701561e+02
5.300000e-07	-2.933178e-06	-1.161725e-08	-2.043130e+01	-7.631336e+02
5.400000e-07	-2.844360e-06	-1.150348e-08	-1.981263e+01	-7.557998e+02
5.500000e-07	-2.754473e-06	-1.137980e-08	-1.918651e+01	-7.480307e+02
5.600000e-07	-2.663471e-06	-1.124495e-08	-1.855263e+01	-7.397297e+02
5.700000e-07	-2.571400e-06	-1.110640e-08	-1.791130e+01	-7.308414e+02
5.800000e-07	-2.478431e-06	-1.096800e-08	-1.726372e+01	-7.213598e+02
5.900000e-07	-2.384632e-06	-1.082874e-08	-1.661036e+01	-7.113303e+02
6.000000e-07	-2.290070e-06	-1.068412e-08	-1.595168e+01	-7.008436e+02
6.100000e-07	-2.194745e-06	-1.053731e-08	-1.528768e+01	-6.900233e+02
6.200000e-07	-2.098648e-06	-1.038431e-08	-1.461831e+01	-6.790080e+02
6.300000e-07	-2.001813e-06	-1.022124e-08	-1.394379e+01	-6.679306e+02
6.400000e-07	-1.904161e-06	-1.005556e-08	-1.326359e+01	-6.568965e+02
6.500000e-07	-1.805673e-06	-9.888554e-09	-1.257757e+01	-6.459660e+02
6.600000e-07	-1.706455e-06	-9.718000e-09	-1.188646e+01	-6.351408e+02
6.700000e-07	-1.606561e-06	-9.541262e-09	-1.119063e+01	-6.243586e+02
6.800000e-07	-1.506069e-06	-9.358736e-09	-1.049065e+01	-6.134966e+02
6.900000e-07	-1.405060e-06	-9.168935e-09	-9.787062e+00	-6.023831e+02
7.000000e-07	-1.303568e-06	-8.972456e-09	-9.080113e+00	-5.908175e+02
7.100000e-07	-1.201667e-06	-8.768444e-09	-8.370313e+00	-5.785942e+02
7.200000e-07	-1.099395e-06	-8.558492e-09	-7.657932e+00	-5.655301e+02
7.300000e-07	-9.967477e-07	-8.347384e-09	-6.942930e+00	-5.514893e+02
7.400000e-07	-8.937266e-07	-8.131297e-09	-6.225328e+00	-5.364034e+02
7.500000e-07	-7.904002e-07	-7.903268e-09	-5.505599e+00	-5.202823e+02
7.600000e-07	-6.868276e-07	-7.663852e-09	-4.784155e+00	-5.032157e+02
7.700000e-07	-5.830353e-07	-7.419520e-09	-4.061181e+00	-4.853616e+02
7.800000e-07	-4.790606e-07	-7.166180e-09	-3.336937e+00	-4.669236e+02
7.900000e-07	-3.749647e-07	-6.897637e-09	-2.611848e+00	-4.481195e+02
8.000000e-07	-2.707540e-07	-6.616357e-09	-1.885960e+00	-4.291428e+02
8.100000e-07	-1.664404e-07	-6.326066e-09	-1.159355e+00	-4.101230e+02
8.200000e-07	-6.205248e-08	-6.027411e-09	-4.322317e-01	-3.910890e+02
8.300000e-07	4.240675e-08	-5.713277e-09	2.953878e-01	-3.719406e+02
8.400000e-07	1.468243e-07	-5.380895e-09	1.022717e+00	-3.524318e+02
8.500000e-07	2.511321e-07	-5.034125e-09	1.749282e+00	-3.321711e+02
8.600000e-07	3.553992e-07	-4.670548e-09	2.475563e+00	-3.106372e+02
8.700000e-07	4.595959e-07	-4.282580e-09	3.201354e+00	-2.872132e+02
8.800000e-07	5.636755e-07	-3.864743e-09	3.926329e+00	-2.612351e+02
8.900000e-07	6.675628e-07	-3.419224e-09	4.649965e+00	-2.320505e+02
9.000000e-07	7.711587e-07	-2.943722e-09	5.371571e+00	-1.990838e+02
9.100000e-07	8.744461e-07	-2.425739e-09	6.091028e+00	-1.618996e+02
9.200000e-07	9.774145e-07	-1.854014e-09	6.808263e+00	-1.202592e+02
9.300000e-07	1.080046e-06	-1.217747e-09	7.523150e+00	-7.416321e+01
9.400000e-07	1.182302e-06	-5.040319e-10	8.235427e+00	-2.387635e+01
9.500000e-07	1.284194e-06	3.005820e-10	8.945162e+00	3.007016e+01
9.600000e-07	1.385702e-06	1.201509e-09	9.652223e+00	8.689860e+01
9.700000e-07	1.486776e-06	2.175250e-09	1.035627e+01	1.456266e+02
9.800000e-07	1.587418e-06	3.177952e-09	1.105730e+01	2.051275e+02
9.900000e-07	1.687573e-06	4.164334e-09	1.175493e+01	2.642037e+02
1.000000e-06	1.787035e-06	5.096316e-09	1.244774e+01	3.216672e+02
1.010000e-06	1.885607e-06	5.941959e-09	1.313436e+01	3.764191e+02
1.020000e-06	1.983306e-06	6.681810e-09	1.381488e+01	4.275219e+02
1.030000e-06	2.080255e-06	7.320925e-09	1.449019e+01	4.742573e+02
1.040000e-06	2.176480e-06	7.880047e-09	1.516045e+01	5.161649e+02
1.050000e-06	2.271951e-06	8.375680e-09	1.582547e+01	5.530588e+02
1.060000e-06	2.366686e-06	8.813943e-09	1.648535e+01	5.850215e+02
1.070000e-06	2.460650e-06	9.201741e-09	1.713986e+01	6.123749e+02
1.080000e-06	2.553840e-06	9.551150e-09	1.778899e+01	6.356352e+02
1.090000e-06	2.646260e-06	9.872972e-09	1.843274e+01	6.554526e+02
1.100000e-06	2.737703e-06	1.016813e-08	1.906970e+01	6.725461e+02
1.110000e-06	2.827925e-06	1.043377e-08	1.969815e+01	6.876368e+02
1.120000e-06	2.916993e-06	1.067502e-08	2.031856e+01	7.013886e+02
1.130000e-06	3.005092e-06	1.089953e-08	2.093222e+01	7.143590e+02
1.140000e-06	3.092216e-06	1.111173e-08	2.153909e+01	7.269668e+02
1.150000e-06	3.178295e-06	1.131324e-08	2.213868e+01	7.394766e+02
1.160000e-06	3.263343e-06	1.150180e-08	2.273109e+01	7.520007e+02
1.170000e-06	3.347435e-06	1.167753e-08	2.331684e+01	7.645170e+02
1.180000e-06	3.430343e-06	1.184539e-08	2.389435e+01	7.768997e+02
1.190000e-06	3.511894e-06	1.200584e-08	2.446240e+01	7.889571e+02
1.200000e-06	3.592179e-06	1.215712e-08	2.502162e+01	8.004731e+02
1.210000e-06	3.671152e-06	1.230048e-08	2.557172e+01	8.112460e+02
1.220000e-06	3.748843e-06	1.243695e-08	2.611288e+01	8.211213e+02
1.230000e-06	3.825234e-06	1.256736e-08	2.664499e+01	8.300140e+02
1.240000e-06	3.900026e-06	1.269018e-08	2.716596e+01	8.379202e+02
1.250000e-06	3.973192e-06	1.280551e-08	2.767560e+01	8.449154e+02
1.260000e-06	4.044965e-06	1.291463e-08	2.817554e+01	8.511431e+02
1.270000e-06	4.115364e-06	1.301808e-08	2.866591e+01	8.567940e+02
1.280000e-06	4.184410e-06	1.311622e-08	2.914686e+01	8.620802e+02
1.290000e-06	4.252007e-06	1.321060e-08	2.961771e+01	8.672080e+02
1.300000e-06	4.317904e-06	1.330262e-08	3.007672e+01	8.723528e+02
1.310000e-06	4.382205e-06	1.339183e-08	3.052462e+01	8.776395e+02
1.320000e-06	4.445059e-06	1.347717e-08	3.096243e+01	8.831299e+02
1.330000e-06	4.506483e-06	1.355820e-08	3.139029e+01	8.888202e+02
1.340000e-06	4.566449e-06	1.363596e-08	3.180798e+01	8.946462e+02
1.350000e-06	4.624643e-06	1.371055e-08	3.221334e+01	9.004963e+02
1.360000e-06	4.681041e-06	1.378167e-08	3.260618e+01	9.062307e+02
1.370000e-06	4.735829e-06	1.384957e-08	3.298782e+01	9.117028e+02
1.380000e-06	4.788873e-06	1.391507e-08	3.335730e+01	9.167803e+02
1.390000e-06	4.839864e-06	1.397831e-08	3.371248e+01	9.213634e+02
1.400000e-06	4.888855e-06	1.403883e-08	3.405373e+01	9.253981e+02
1.410000e-06	4.936151e-06	1.409682e-08	3.438317e+01	9.288815e+02
1.420000e-06	4.981867e-06	1.415056e-08	3.470162e+01	9.318615e+02
1.430000e-06	5.025932e-06	1.420104e-08	3.500855e+01	9.344279e+02
1.440000e-06	5.068009e-06	1.425018e-08	3.530164e+01	9.366988e+02
1.450000e-06	5.108177e-06	1.429733e-08	3.558144e+01	9.388042e+02
1.460000e-06	5.146707e-06	1.433870e-08	3.584982e+01	9.408672e+02
1.470000e-06	5.183566e-06	1.437638e-08	3.610656e+01	9.429879e+02
1.480000e-06	5.218478e-06	1.441328e-08	3.634975e+01	9.452308e+02
1.490000e-06	5.251407e-06	1.444772e-08	3.657912e+01	9.476170e+02
1.500000e-06	5.282599e-06	1.447975e-08	3.679639e+01	9.501236e+02
1.510000e-06	5.312133e-06	1.451021e-08	3.700211e+01	9.526881e+02
1.520000e-06	5.339849e-06	1.453912e-08	3.719517e+01	9.552191e+02
1.530000e-06	5.365441e-06	1.456472e-08	3.737343e+01	9.576101e+02
1.540000e-06	5.389021e-06	1.458801e-08	3.753768e+01	9.597555e+02
1.550000e-06	5.410879e-06	1.461012e-08	3.768993e+01	9.615659e+02
1.560000e-06	5.431009e-06	1.463106e-08	3.783015e+01	9.629803e+02
1.570000e-06	5.449177e-06	1.465113e-08	3.795670e+01	9.639748e+02
1.580000e-06	5.465304e-06	1.466722e-08	3.806904e+01	9.645655e+02
1.590000e-06	5.479470e-06	1.467812e-08	3.816771e+01	9.648056e+02
1.600000e-06	5.491506e-06	1.468838e-08	3.825155e+01	9.647778e+02
1.610000e-06	5.501286e-06	1.469872e-08	3.831967e+01	9.645821e+02
1.620000e-06	5.509098e-06	1.470647e-08	3.837408e+01	9.643219e+02
1.630000e-06	5.515133e-06	1.471186e-08	3.841613e+01	9.640896e+02
1.640000e-06	5.519264e-06	1.471723e-08	3.844490e+01	9.639538e+02
1.650000e-06	5.521307e-06	1.472295e-08	3.845913e+01	9.639501e+02
1.660000e-06	5.521432e-06	1.472342e-08	3.846000e+01	9.640770e+02
1.670000e-06	5.519854e-06	1.471469e-08	3.844901e+01	9.642962e+02
1.680000e-06	5.516572e-06	1.470740e-08	3.842615e+01	9.645392e+02
1.690000e-06	5.511393e-06	1.470245e-08	3.839007e+01	9.647168e+02
1.700000e-06	5.504310e-06	1.469493e-08	3.834074e+01	9.647327e+02
1.710000e-06	5.495557e-06	1.468535e-08	3.827976e+01	9.644967e+02
1.720000e-06	5.485060e-06	1.467837e-08	3.820665e+01	9.639380e+02
1.730000e-06	5.472526e-06	1.468076e-08	3.811934e+01	9.630151e+02
1.740000e-06	5.458009e-06	1.462927e-08	3.801822e+01	9.617215e+02
1.750000e-06	5.441498e-06	1.455559e-08	3.790321e+01	9.600868e+02
1.760000e-06	5.422342e-06	1.455449e-08	3.776978e+01	9.581720e+02
1.770000e-06	5.400433e-06	1.455275e-08	3.761717e+01	9.560613e+02
1.780000e-06	5.376566e-06	1.459487e-08	3.745092e+01	9.538493e+02
1.790000e-06	5.351729e-06	1.458119e-08	3.727792e+01	9.516282e+02
1.800000e-06	5.326064e-06	1.442686e-08	3.709915e+01	9.494741e+02
1.810000e-06	5.298419e-06	1.447897e-08	3.690658e+01	9.474360e+02
1.820000e-06	5.268484e-06	1.449768e-08	3.669807e+01	9.455284e+02
1.830000e-06	5.237026e-06	1.438131e-08	3.647894e+01	9.437289e+02
1.840000e-06	5.203797e-06	1.446019e-08	3.624748e+01	9.419809e+02
1.850000e-06	5.168733e-06	1.439516e-08	3.600325e+01	9.402009e+02
1.860000e-06	5.131927e-06	1.431068e-08	3.574687e+01	9.382895e+02
1.870000e-06	5.092984e-06	1.439505e-08	3.547561e+01	9.361458e+02
1.880000e-06	5.052323e-06	1.426591e-08	3.519238e+01	9.336804e+02
1.890000e-06	5.010097e-06	1.420503e-08	3.489825e+01	9.308283e+02
1.900000e-06	4.965943e-06	1.417266e-08	3.459070e+01	9.275580e+02
1.910000e-06	4.920018e-06	1.402519e-08	3.427080e+01	9.238761e+02
1.920000e-06	4.872230e-06	1.405882e-08	3.393793e+01	9.198266e+02
1.930000e-06	4.822629e-06	1.398851e-08	3.359243e+01	9.154851e+02
1.940000e-06	4.771229e-06	1.393484e-08	3.323439e+01	9.109486e+02
1.950000e-06	4.717757e-06	1.394031e-08	3.286193e+01	9.063219e+02
1.960000e-06	4.662538e-06	1.381655e-08	3.247730e+01	9.017036e+02
1.970000e-06	4.605664e-06	1.374777e-08	3.208114e+01	8.971717e+02
1.980000e-06	4.547206e-06	1.362545e-08	3.167394e+01	8.927729e+02
1.990000e-06	4.487145e-06	1.357720e-08	3.125559e+01	8.885155e+02
2.000000e-06	4.425314e-06	1.354732e-08	3.082490e+01	8.843678e+02
2.010000e-06	4.361912e-06	1.345849e-08	3.038326e+01	8.802621e+02
2.020000e-06	4.296945e-06	1.344043e-08	2.993073e+01	8.761035e+02
2.030000e-06	4.230505e-06	1.332174e-08	2.946794e+01	8.717827e+02
2.040000e-06	4.162506e-06	1.324559e-08	2.899429e+01	8.671911e+02
2.050000e-06	4.092788e-06	1.315329e-08	2.850866e+01	8.622354e+02
2.060000e-06	4.021560e-06	1.303134e-08	2.801252e+01	8.568512e+02
2.070000e-06	3.948979e-06	1.297542e-08	2.750695e+01	8.510116e+02
2.080000e-06	3.875092e-06	1.287509e-08	2.699228e+01	8.447317e+02
2.090000e-06	3.799607e-06	1.281406e-08	2.646648e+01	8.380661e+02
2.100000e-06	3.722411e-06	1.270665e-08	2.592877e+01	8.311022e+02
2.110000e-06	3.643760e-06	1.260020e-08	2.538092e+01	8.239472e+02
2.120000e-06	3.563845e-06	1.250587e-08	2.482426e+01	8.167134e+02
2.130000e-06	3.482844e-06	1.238820e-08	2.426004e+01	8.095013e+02
2.140000e-06	3.400748e-06	1.229859e-08	2.368820e+01	8.023848e+02
2.150000e-06	3.317474e-06	1.218393e-08	2.310814e+01	7.953996e+02
2.160000e-06	3.232859e-06	1.208507e-08	2.251875e+01	7.885361e+02
2.170000e-06	3.146951e-06	1.196643e-08	2.192035e+01	7.817398e+02
2.180000e-06	3.059921e-06	1.183789e-08	2.131414e+01	7.749163e+02
2.190000e-06	2.971871e-06	1.171529e-08	2.070081e+01	7.679437e+02
2.200000e-06	2.882863e-06	1.158959e-08	2.008082e+01	7.606883e+02
2.210000e-06	2.792872e-06	1.147092e-08	1.945398e+01	7.530224e+02
2.220000e-06	2.702007e-06	1.134847e-08	1.882106e+01	7.448423e+02
2.230000e-06	2.610175e-06	1.122363e-08	1.818140e+01	7.360827e+02
2.240000e-06	2.517296e-06	1.108024e-08	1.753444e+01	7.267268e+02
2.250000e-06	2.423460e-06	1.093326e-08	1.688082e+01	7.168091e+02
2.260000e-06	2.328785e-06	1.077940e-08	1.622135e+01	7.064115e+02
2.270000e-06	2.233308e-06	1.063148e-08	1.555629e+01	6.956519e+02
2.280000e-06	2.137016e-06	1.048312e-08	1.488557e+01	6.846673e+02
2.290000e-06	2.040027e-06	1.033031e-08	1.420998e+01	6.735937e+02
2.300000e-06	1.942382e-06	1.017561e-08	1.352982e+01	6.625441e+02
2.310000e-06	1.844169e-06	1.001193e-08	1.284571e+01	6.515898e+02
2.320000e-06	1.745416e-06	9.843228e-09	1.215784e+01	6.407457e+02
2.330000e-06	1.646081e-06	9.660048e-09	1.146591e+01	6.299634e+02
2.340000e-06	1.546134e-06	9.477854e-09	1.076973e+01	6.191321e+02
2.350000e-06	1.445559e-06	9.291132e-09	1.006917e+01	6.080895e+02
2.360000e-06	1.344385e-06	9.095717e-09	9.364425e+00	5.966389e+02
2.370000e-06	1.242596e-06	8.894020e-09	8.655409e+00	5.845738e+02
2.380000e-06	1.140320e-06	8.685870e-09	7.942993e+00	5.717039e+02
2.390000e-06	1.037670e-06	8.477536e-09	7.227978e+00	5.578814e+02
2.400000e-06	9.346483e-07	8.259309e-09	6.510371e+00	5.430219e+02
2.410000e-06	8.312934e-07	8.028506e-09	5.790444e+00	5.271184e+02
2.420000e-06	7.276149e-07	7.788379e-09	5.068263e+00	5.102439e+02
2.430000e-06	6.236731e-07	7.541600e-09	4.344247e+00	4.925431e+02
2.440000e-06	5.194957e-07	7.290213e-09	3.618591e+00	4.742125e+02
2.450000e-06	4.151656e-07	7.029585e-09	2.891871e+00	4.554698e+02
2.460000e-06	3.107255e-07	6.754262e-09	2.164385e+00	4.365170e+02
2.470000e-06	2.061599e-07	6.465731e-09	1.436024e+00	4.175007e+02
2.480000e-06	1.015403e-07	6.167130e-09	7.072873e-01	3.984741e+02
2.490000e-06	-3.092870e-09	5.855864e-09	-2.154365e-02	3.793664e+02
2.500000e-06	-1.076952e-07	5.524750e-09	-7.501598e-01	3.599637e+02
2.510000e-06	-2.122539e-07	5.174874e-09	-1.478472e+00	3.399046e+02
2.520000e-06	-3.167357e-07	4.813226e-09	-2.206249e+00	3.186935e+02
2.530000e-06	-4.211138e-07	4.438022e-09	-2.933303e+00	2.957303e+02
2.540000e-06	-5.253567e-07	4.037507e-09	-3.659416e+00	2.703565e+02
2.550000e-06	-6.294210e-07	3.600562e-09	-4.384285e+00	2.419117e+02
2.560000e-06	-7.332506e-07	3.127184e-09	-5.107519e+00	2.097985e+02
2.570000e-06	-8.367431e-07	2.617420e-09	-5.828405e+00	1.735462e+02
2.580000e-06	-9.398681e-07	2.064225e-09	-6.546731e+00	1.328699e+02
2.590000e-06	-1.042683e-06	1.454204e-09	-7.262895e+00	8.771627e+01
2.600000e-06	-1.145163e-06	7.696969e-10	-7.976732e+00	3.829232e+01
2.610000e-06	-1.247204e-06	-2.033606e-12	-8.687505e+00	-1.492690e+01
2.620000e-06	-1.348698e-06	-8.641859e-10	-9.394470e+00	-7.121368e+01
2.630000e-06	-1.449590e-06	-1.811167e-09	-1.009724e+01	-1.296250e+02
2.640000e-06	-1.549811e-06	-2.815601e-09	-1.079534e+01	-1.890592e+02
2.650000e-06	-1.649357e-06	-3.826028e-09	-1.148874e+01	-2.483273e+02
2.660000e-06	-1.748328e-06	-4.788365e-09	-1.217812e+01	-3.062324e+02
2.670000e-06	-1.846781e-06	-5.666694e-09	-1.286391e+01	-3.616502e+02
2.680000e-06	-1.944638e-06	-6.448003e-09	-1.354554e+01	-4.136029e+02
2.690000e-06	-2.041808e-06	-7.133327e-09	-1.422239e+01	-4.613215e+02
2.700000e-06	-2.138295e-06	-7.731319e-09	-1.489447e+01	-5.042880e+02
2.710000e-06	-2.234090e-06	-8.250791e-09	-1.556174e+01	-5.422577e+02
2.720000e-06	-2.329268e-06	-8.704091e-09	-1.622471e+01	-5.752568e+02
2.730000e-06	-2.423824e-06	-9.105514e-09	-1.688335e+01	-6.035596e+02
2.740000e-06	-2.517470e-06	-9.466759e-09	-1.753565e+01	-6.276452e+02
2.750000e-06	-2.609886e-06	-9.796120e-09	-1.817938e+01	-6.481405e+02
2.760000e-06	-2.701204e-06	-1.009907e-08	-1.881546e+01	-6.657554e+02
2.770000e-06	-2.791584e-06	-1.037855e-08	-1.944502e+01	-6.812161e+02
2.780000e-06	-2.880956e-06	-1.063498e-08	-2.006754e+01	-6.952029e+02
2.790000e-06	-2.969304e-06	-1.087034e-08	-2.068293e+01	-7.082997e+02
2.800000e-06	-3.056718e-06	-1.108679e-08	-2.129183e+01	-7.209570e+02
2.810000e-06	-3.143216e-06	-1.128930e-08	-2.189433e+01	-7.334727e+02
2.820000e-06	-3.228494e-06	-1.147989e-08	-2.248835e+01	-7.459907e+02
2.830000e-06	-3.312405e-06	-1.165836e-08	-2.307283e+01	-7.585157e+02
2.840000e-06	-3.395136e-06	-1.182751e-08	-2.364910e+01	-7.709409e+02
2.850000e-06	-3.476777e-06	-1.199055e-08	-2.421778e+01	-7.830853e+02
2.860000e-06	-3.557255e-06	-1.214697e-08	-2.477836e+01	-7.947347e+02
2.870000e-06	-3.636588e-06	-1.229285e-08	-2.533096e+01	-8.056813e+02
2.880000e-06	-3.714581e-06	-1.242829e-08	-2.587423e+01	-8.157580e+02
2.890000e-06	-3.790921e-06	-1.255628e-08	-2.640598e+01	-8.248638e+02
2.900000e-06	-3.865697e-06	-1.267793e-08	-2.692684e+01	-8.329770e+02
2.910000e-06	-3.939059e-06	-1.279203e-08	-2.743785e+01	-8.401567e+02
2.920000e-06	-4.011069e-06	-1.289874e-08	-2.793944e+01	-8.465335e+02
2.930000e-06	-4.081806e-06	-1.300160e-08	-2.843217e+01	-8.522898e+02
2.940000e-06	-4.151023e-06	-1.310429e-08	-2.891430e+01	-8.576355e+02
