# Temperatura_=_33.84
# Concentracion g/m^3_=_15500.0
# C_Vs_to_Am_M_A/Vsm_=_65563218390.804596
# pendiente_HvsI_1/m_=_3716.3
# ordenada_HvsI_A/m_=_1297.0
# frecuencia_Hz_=_300801.8720564098

Tiempo_(s)	Campo_(V.s)	Magnetizacion_(V.s)	Campo_(kA/m)	Magnetizacion_(A/m)
0.000000e+00	-5.499061e-06	-1.389874e-08	-3.831011e+01	-9.092894e+02
1.000000e-08	-5.497363e-06	-1.389608e-08	-3.829828e+01	-9.092778e+02
2.000000e-08	-5.493718e-06	-1.389227e-08	-3.827289e+01	-9.093308e+02
3.000000e-08	-5.488297e-06	-1.388725e-08	-3.823512e+01	-9.093889e+02
4.000000e-08	-5.481226e-06	-1.387863e-08	-3.818586e+01	-9.093774e+02
5.000000e-08	-5.472498e-06	-1.386559e-08	-3.812506e+01	-9.092170e+02
6.000000e-08	-5.461883e-06	-1.384934e-08	-3.805111e+01	-9.088360e+02
7.000000e-08	-5.449213e-06	-1.383352e-08	-3.796284e+01	-9.081801e+02
8.000000e-08	-5.434500e-06	-1.383116e-08	-3.786034e+01	-9.072202e+02
9.000000e-08	-5.417471e-06	-1.382326e-08	-3.774170e+01	-9.059569e+02
1.000000e-07	-5.398119e-06	-1.381016e-08	-3.760688e+01	-9.044199e+02
1.100000e-07	-5.376769e-06	-1.379476e-08	-3.745815e+01	-9.026637e+02
1.200000e-07	-5.353629e-06	-1.374578e-08	-3.729694e+01	-9.007600e+02
1.300000e-07	-5.329017e-06	-1.370764e-08	-3.712547e+01	-8.987869e+02
1.400000e-07	-5.302902e-06	-1.370543e-08	-3.694354e+01	-8.968180e+02
1.500000e-07	-5.274958e-06	-1.364383e-08	-3.674886e+01	-8.949111e+02
1.600000e-07	-5.245304e-06	-1.364180e-08	-3.654227e+01	-8.931001e+02
1.700000e-07	-5.214077e-06	-1.364552e-08	-3.632472e+01	-8.913895e+02
1.800000e-07	-5.180918e-06	-1.356763e-08	-3.609372e+01	-8.897533e+02
1.900000e-07	-5.145735e-06	-1.357133e-08	-3.584861e+01	-8.881383e+02
2.000000e-07	-5.108902e-06	-1.353868e-08	-3.559201e+01	-8.864708e+02
2.100000e-07	-5.070411e-06	-1.344934e-08	-3.532385e+01	-8.846668e+02
2.200000e-07	-5.030124e-06	-1.342287e-08	-3.504319e+01	-8.826437e+02
2.300000e-07	-4.987888e-06	-1.339128e-08	-3.474894e+01	-8.803314e+02
2.400000e-07	-4.943620e-06	-1.336038e-08	-3.444054e+01	-8.776822e+02
2.500000e-07	-4.897546e-06	-1.334056e-08	-3.411956e+01	-8.746780e+02
2.600000e-07	-4.849685e-06	-1.327464e-08	-3.378613e+01	-8.713323e+02
2.700000e-07	-4.799881e-06	-1.322822e-08	-3.343916e+01	-8.676894e+02
2.800000e-07	-4.748013e-06	-1.317284e-08	-3.307781e+01	-8.638179e+02
2.900000e-07	-4.694187e-06	-1.311388e-08	-3.270283e+01	-8.598012e+02
3.000000e-07	-4.638709e-06	-1.305513e-08	-3.231633e+01	-8.557266e+02
3.100000e-07	-4.581581e-06	-1.299746e-08	-3.191834e+01	-8.516723e+02
3.200000e-07	-4.522650e-06	-1.296463e-08	-3.150779e+01	-8.476964e+02
3.300000e-07	-4.462056e-06	-1.291322e-08	-3.108565e+01	-8.438287e+02
3.400000e-07	-4.399961e-06	-1.285242e-08	-3.065305e+01	-8.400655e+02
3.500000e-07	-4.336416e-06	-1.277380e-08	-3.021036e+01	-8.363697e+02
3.600000e-07	-4.271344e-06	-1.269697e-08	-2.975702e+01	-8.326754e+02
3.700000e-07	-4.204583e-06	-1.263904e-08	-2.929192e+01	-8.288960e+02
3.800000e-07	-4.136187e-06	-1.256882e-08	-2.881543e+01	-8.249361e+02
3.900000e-07	-4.066317e-06	-1.249737e-08	-2.832867e+01	-8.207045e+02
4.000000e-07	-3.995157e-06	-1.242559e-08	-2.783292e+01	-8.161261e+02
4.100000e-07	-3.922738e-06	-1.235017e-08	-2.732840e+01	-8.111532e+02
4.200000e-07	-3.848837e-06	-1.227164e-08	-2.681355e+01	-8.057712e+02
4.300000e-07	-3.773265e-06	-1.217911e-08	-2.628707e+01	-8.000019e+02
4.400000e-07	-3.696047e-06	-1.209739e-08	-2.574912e+01	-7.938996e+02
4.500000e-07	-3.617349e-06	-1.202062e-08	-2.520085e+01	-7.875445e+02
4.600000e-07	-3.537218e-06	-1.194029e-08	-2.464261e+01	-7.810306e+02
4.700000e-07	-3.455671e-06	-1.184684e-08	-2.407450e+01	-7.744529e+02
4.800000e-07	-3.372897e-06	-1.173917e-08	-2.349784e+01	-7.678927e+02
4.900000e-07	-3.289060e-06	-1.163706e-08	-2.291378e+01	-7.614059e+02
5.000000e-07	-3.204193e-06	-1.153753e-08	-2.232253e+01	-7.550134e+02
5.100000e-07	-3.118359e-06	-1.143803e-08	-2.172456e+01	-7.486968e+02
5.200000e-07	-3.031558e-06	-1.133273e-08	-2.111984e+01	-7.423993e+02
5.300000e-07	-2.943743e-06	-1.122901e-08	-2.050807e+01	-7.360322e+02
5.400000e-07	-2.854981e-06	-1.112410e-08	-1.988969e+01	-7.294855e+02
5.500000e-07	-2.765226e-06	-1.100891e-08	-1.926440e+01	-7.226425e+02
5.600000e-07	-2.674298e-06	-1.088459e-08	-1.863094e+01	-7.153953e+02
5.700000e-07	-2.582270e-06	-1.075450e-08	-1.798981e+01	-7.076592e+02
5.800000e-07	-2.489361e-06	-1.063098e-08	-1.734254e+01	-6.993853e+02
5.900000e-07	-2.395691e-06	-1.050956e-08	-1.668998e+01	-6.905667e+02
6.000000e-07	-2.301261e-06	-1.038159e-08	-1.603211e+01	-6.812407e+02
6.100000e-07	-2.206043e-06	-1.024160e-08	-1.536876e+01	-6.714832e+02
6.200000e-07	-2.110069e-06	-1.009569e-08	-1.470014e+01	-6.613981e+02
6.300000e-07	-2.013363e-06	-9.951042e-09	-1.402642e+01	-6.511019e+02
6.400000e-07	-1.915862e-06	-9.802958e-09	-1.334717e+01	-6.407057e+02
6.500000e-07	-1.817480e-06	-9.646541e-09	-1.266177e+01	-6.302973e+02
6.600000e-07	-1.718260e-06	-9.484511e-09	-1.197054e+01	-6.199251e+02
6.700000e-07	-1.618373e-06	-9.324425e-09	-1.127466e+01	-6.095873e+02
6.800000e-07	-1.518002e-06	-9.157288e-09	-1.057541e+01	-5.992268e+02
6.900000e-07	-1.417156e-06	-8.977284e-09	-9.872853e+00	-5.887349e+02
7.000000e-07	-1.315786e-06	-8.789472e-09	-9.166642e+00	-5.779608e+02
7.100000e-07	-1.213947e-06	-8.601143e-09	-8.457159e+00	-5.667289e+02
7.200000e-07	-1.111741e-06	-8.411610e-09	-7.745128e+00	-5.548595e+02
7.300000e-07	-1.009197e-06	-8.214970e-09	-7.030735e+00	-5.421924e+02
7.400000e-07	-9.062744e-07	-8.008534e-09	-6.313710e+00	-5.286082e+02
7.500000e-07	-8.029869e-07	-7.793040e-09	-5.594140e+00	-5.140452e+02
7.600000e-07	-6.994450e-07	-7.570679e-09	-4.872799e+00	-4.985096e+02
7.700000e-07	-5.956970e-07	-7.336842e-09	-4.150021e+00	-4.820756e+02
7.800000e-07	-4.917671e-07	-7.091596e-09	-3.425977e+00	-4.648766e+02
7.900000e-07	-3.877066e-07	-6.840048e-09	-2.701021e+00	-4.470847e+02
8.000000e-07	-2.835653e-07	-6.583866e-09	-1.975504e+00	-4.288842e+02
8.100000e-07	-1.793211e-07	-6.315924e-09	-1.249270e+00	-4.104385e+02
8.200000e-07	-7.498242e-08	-6.031415e-09	-5.223773e-01	-3.918555e+02
8.300000e-07	2.936486e-08	-5.732711e-09	2.045751e-01	-3.731565e+02
8.400000e-07	1.336801e-07	-5.422752e-09	9.313046e-01	-3.542515e+02
8.500000e-07	2.379425e-07	-5.100641e-09	1.657666e+00	-3.349250e+02
8.600000e-07	3.421615e-07	-4.760288e-09	2.383724e+00	-3.148359e+02
8.700000e-07	4.462868e-07	-4.400116e-09	3.109130e+00	-2.935317e+02
8.800000e-07	5.502782e-07	-4.018056e-09	3.833604e+00	-2.704775e+02
8.900000e-07	6.541026e-07	-3.613624e-09	4.556913e+00	-2.450980e+02
9.000000e-07	7.576864e-07	-3.183169e-09	5.278547e+00	-2.168288e+02
9.100000e-07	8.610137e-07	-2.720982e-09	5.998394e+00	-1.851722e+02
9.200000e-07	9.640719e-07	-2.220439e-09	6.716366e+00	-1.497525e+02
9.300000e-07	1.066814e-06	-1.672231e-09	7.432134e+00	-1.103651e+02
9.400000e-07	1.169140e-06	-1.065508e-09	8.145009e+00	-6.701390e+01
9.500000e-07	1.271023e-06	-3.895740e-10	8.854791e+00	-1.993268e+01
9.600000e-07	1.372527e-06	3.648803e-10	9.561935e+00	3.041187e+01
9.700000e-07	1.473588e-06	1.200302e-09	1.026600e+01	8.333715e+01
9.800000e-07	1.574154e-06	2.097590e-09	1.096660e+01	1.379803e+02
9.900000e-07	1.674214e-06	3.019790e-09	1.166368e+01	1.933503e+02
1.000000e-06	1.773648e-06	3.927762e-09	1.235641e+01	2.483908e+02
1.010000e-06	1.872358e-06	4.789514e-09	1.304409e+01	3.020505e+02
1.020000e-06	1.970308e-06	5.576990e-09	1.372648e+01	3.533518e+02
1.030000e-06	2.067392e-06	6.277003e-09	1.440282e+01	4.014541e+02
1.040000e-06	2.163637e-06	6.895923e-09	1.507333e+01	4.457045e+02
1.050000e-06	2.259175e-06	7.445076e-09	1.573892e+01	4.856728e+02
1.060000e-06	2.353968e-06	7.932047e-09	1.639930e+01	5.211671e+02
1.070000e-06	2.448026e-06	8.362832e-09	1.705458e+01	5.522291e+02
1.080000e-06	2.541378e-06	8.747066e-09	1.770493e+01	5.791119e+02
1.090000e-06	2.633919e-06	9.095467e-09	1.834963e+01	6.022405e+02
1.100000e-06	2.725483e-06	9.412722e-09	1.898752e+01	6.221620e+02
1.110000e-06	2.815928e-06	9.697882e-09	1.961762e+01	6.394891e+02
1.120000e-06	2.905225e-06	9.956820e-09	2.023973e+01	6.548433e+02
1.130000e-06	2.993459e-06	1.019554e-08	2.085443e+01	6.688026e+02
1.140000e-06	3.080695e-06	1.041863e-08	2.146217e+01	6.818596e+02
1.150000e-06	3.166892e-06	1.062862e-08	2.206267e+01	6.943920e+02
1.160000e-06	3.252060e-06	1.082282e-08	2.265601e+01	7.066481e+02
1.170000e-06	3.336192e-06	1.100341e-08	2.324213e+01	7.187471e+02
1.180000e-06	3.419196e-06	1.117544e-08	2.382039e+01	7.306935e+02
1.190000e-06	3.500972e-06	1.133975e-08	2.439010e+01	7.424019e+02
1.200000e-06	3.581419e-06	1.149291e-08	2.495055e+01	7.537284e+02
1.210000e-06	3.660510e-06	1.163533e-08	2.550154e+01	7.645055e+02
1.220000e-06	3.738324e-06	1.177139e-08	2.604365e+01	7.745752e+02
1.230000e-06	3.814815e-06	1.189888e-08	2.657653e+01	7.838164e+02
1.240000e-06	3.889748e-06	1.201622e-08	2.709857e+01	7.921648e+02
1.250000e-06	3.963093e-06	1.212934e-08	2.760954e+01	7.996222e+02
1.260000e-06	4.034995e-06	1.223978e-08	2.811046e+01	8.062568e+02
1.270000e-06	4.105465e-06	1.234400e-08	2.860139e+01	8.121929e+02
1.280000e-06	4.174597e-06	1.243826e-08	2.908301e+01	8.175941e+02
1.290000e-06	4.242368e-06	1.252578e-08	2.955515e+01	8.226420e+02
1.300000e-06	4.308520e-06	1.261264e-08	3.001601e+01	8.275130e+02
1.310000e-06	4.373019e-06	1.270039e-08	3.046535e+01	8.323576e+02
1.320000e-06	4.436028e-06	1.278504e-08	3.090432e+01	8.372831e+02
1.330000e-06	4.497645e-06	1.286350e-08	3.133358e+01	8.423439e+02
1.340000e-06	4.557777e-06	1.293785e-08	3.175250e+01	8.475383e+02
1.350000e-06	4.616201e-06	1.301046e-08	3.215952e+01	8.528134e+02
1.360000e-06	4.672857e-06	1.307852e-08	3.255423e+01	8.580763e+02
1.370000e-06	4.727860e-06	1.314006e-08	3.293741e+01	8.632095e+02
1.380000e-06	4.781184e-06	1.319802e-08	3.330890e+01	8.680898e+02
1.390000e-06	4.832551e-06	1.325699e-08	3.366676e+01	8.726058e+02
1.400000e-06	4.881829e-06	1.331490e-08	3.401006e+01	8.766738e+02
1.410000e-06	4.929274e-06	1.336721e-08	3.434060e+01	8.802487e+02
1.420000e-06	4.975099e-06	1.341566e-08	3.465984e+01	8.833293e+02
1.430000e-06	5.019283e-06	1.346330e-08	3.496766e+01	8.859575e+02
1.440000e-06	5.061629e-06	1.350951e-08	3.526267e+01	8.882109e+02
1.450000e-06	5.102107e-06	1.354927e-08	3.554467e+01	8.901923e+02
1.460000e-06	5.140839e-06	1.358338e-08	3.581450e+01	8.920140e+02
1.470000e-06	5.177878e-06	1.361876e-08	3.607254e+01	8.937836e+02
1.480000e-06	5.213084e-06	1.365692e-08	3.631781e+01	8.955891e+02
1.490000e-06	5.246330e-06	1.368980e-08	3.654942e+01	8.974881e+02
1.500000e-06	5.277751e-06	1.371529e-08	3.676832e+01	8.995015e+02
1.510000e-06	5.307486e-06	1.374244e-08	3.697547e+01	9.016123e+02
1.520000e-06	5.335431e-06	1.377298e-08	3.717016e+01	9.037695e+02
1.530000e-06	5.361292e-06	1.379814e-08	3.735032e+01	9.058966e+02
1.540000e-06	5.385135e-06	1.381493e-08	3.751643e+01	9.079038e+02
1.550000e-06	5.407221e-06	1.383139e-08	3.767030e+01	9.097011e+02
1.560000e-06	5.427552e-06	1.385247e-08	3.781193e+01	9.112113e+02
1.570000e-06	5.445991e-06	1.387238e-08	3.794039e+01	9.123811e+02
1.580000e-06	5.462427e-06	1.388452e-08	3.805489e+01	9.131881e+02
1.590000e-06	5.476884e-06	1.389202e-08	3.815561e+01	9.136437e+02
1.600000e-06	5.489209e-06	1.390411e-08	3.824148e+01	9.137910e+02
1.610000e-06	5.499250e-06	1.391968e-08	3.831143e+01	9.136984e+02
1.620000e-06	5.507243e-06	1.392923e-08	3.836712e+01	9.134497e+02
1.630000e-06	5.513447e-06	1.393064e-08	3.841033e+01	9.131323e+02
1.640000e-06	5.517819e-06	1.393031e-08	3.844079e+01	9.128252e+02
1.650000e-06	5.520189e-06	1.393331e-08	3.845731e+01	9.125879e+02
1.660000e-06	5.520576e-06	1.393370e-08	3.846000e+01	9.124529e+02
1.670000e-06	5.519134e-06	1.392725e-08	3.844995e+01	9.124216e+02
1.680000e-06	5.516013e-06	1.391925e-08	3.842821e+01	9.124648e+02
1.690000e-06	5.511039e-06	1.391715e-08	3.839356e+01	9.125275e+02
1.700000e-06	5.504101e-06	1.391802e-08	3.834523e+01	9.125373e+02
1.710000e-06	5.495477e-06	1.391174e-08	3.828514e+01	9.124150e+02
1.720000e-06	5.485257e-06	1.389744e-08	3.821394e+01	9.120864e+02
1.730000e-06	5.473094e-06	1.387840e-08	3.812921e+01	9.114924e+02
1.740000e-06	5.458859e-06	1.384550e-08	3.803004e+01	9.105984e+02
1.750000e-06	5.442614e-06	1.383044e-08	3.791687e+01	9.093984e+02
1.760000e-06	5.423884e-06	1.380391e-08	3.778638e+01	9.079159e+02
1.770000e-06	5.402381e-06	1.379200e-08	3.763658e+01	9.062008e+02
1.780000e-06	5.378751e-06	1.380786e-08	3.747196e+01	9.043219e+02
1.790000e-06	5.353986e-06	1.376048e-08	3.729942e+01	9.023569e+02
1.800000e-06	5.328414e-06	1.375172e-08	3.712127e+01	9.003812e+02
1.810000e-06	5.301074e-06	1.372017e-08	3.693080e+01	8.984570e+02
1.820000e-06	5.271412e-06	1.365908e-08	3.672416e+01	8.966237e+02
1.830000e-06	5.240091e-06	1.371495e-08	3.650596e+01	8.948925e+02
1.840000e-06	5.207064e-06	1.368575e-08	3.627587e+01	8.932438e+02
1.850000e-06	5.172230e-06	1.359959e-08	3.603319e+01	8.916296e+02
1.860000e-06	5.135669e-06	1.362491e-08	3.577848e+01	8.899799e+02
1.870000e-06	5.097032e-06	1.357610e-08	3.550931e+01	8.882121e+02
1.880000e-06	5.056586e-06	1.351102e-08	3.522754e+01	8.862422e+02
1.890000e-06	5.014511e-06	1.349400e-08	3.493442e+01	8.839965e+02
1.900000e-06	4.970584e-06	1.341142e-08	3.462839e+01	8.814218e+02
1.910000e-06	4.924909e-06	1.338194e-08	3.431019e+01	8.784933e+02
1.920000e-06	4.877404e-06	1.334657e-08	3.397923e+01	8.752178e+02
1.930000e-06	4.828107e-06	1.328030e-08	3.363580e+01	8.716333e+02
1.940000e-06	4.777017e-06	1.325191e-08	3.327987e+01	8.678038e+02
1.950000e-06	4.723746e-06	1.319072e-08	3.290875e+01	8.638106e+02
1.960000e-06	4.668562e-06	1.314369e-08	3.252431e+01	8.597410e+02
1.970000e-06	4.611781e-06	1.307058e-08	3.212873e+01	8.556764e+02
1.980000e-06	4.553453e-06	1.299849e-08	3.172238e+01	8.516798e+02
1.990000e-06	4.493614e-06	1.295780e-08	3.130550e+01	8.477878e+02
2.000000e-06	4.432040e-06	1.289666e-08	3.087654e+01	8.440040e+02
2.010000e-06	4.368826e-06	1.285890e-08	3.043615e+01	8.402981e+02
2.020000e-06	4.304111e-06	1.278063e-08	2.998529e+01	8.366100e+02
2.030000e-06	4.237908e-06	1.271124e-08	2.952409e+01	8.328564e+02
2.040000e-06	4.170209e-06	1.264748e-08	2.905245e+01	8.289430e+02
2.050000e-06	4.100816e-06	1.255624e-08	2.856901e+01	8.247763e+02
2.060000e-06	4.029834e-06	1.248930e-08	2.807450e+01	8.202771e+02
2.070000e-06	3.957488e-06	1.240223e-08	2.757049e+01	8.153909e+02
2.080000e-06	3.883828e-06	1.234077e-08	2.705732e+01	8.100957e+02
2.090000e-06	3.808633e-06	1.226466e-08	2.653347e+01	8.044055e+02
2.100000e-06	3.731674e-06	1.217514e-08	2.599732e+01	7.983683e+02
2.110000e-06	3.653188e-06	1.208724e-08	2.545054e+01	7.920595e+02
2.120000e-06	3.573449e-06	1.198990e-08	2.489502e+01	7.855712e+02
2.130000e-06	3.492549e-06	1.191637e-08	2.433141e+01	7.789993e+02
2.140000e-06	3.410514e-06	1.181807e-08	2.375991e+01	7.724294e+02
2.150000e-06	3.327344e-06	1.172545e-08	2.318049e+01	7.659235e+02
2.160000e-06	3.242948e-06	1.162298e-08	2.259253e+01	7.595107e+02
2.170000e-06	3.157253e-06	1.151604e-08	2.199552e+01	7.531811e+02
2.180000e-06	3.070362e-06	1.141020e-08	2.139018e+01	7.468858e+02
2.190000e-06	2.982428e-06	1.129270e-08	2.077758e+01	7.405421e+02
2.200000e-06	2.893577e-06	1.119175e-08	2.015858e+01	7.340434e+02
2.210000e-06	2.803768e-06	1.108371e-08	1.953291e+01	7.272733e+02
2.220000e-06	2.713002e-06	1.097939e-08	1.890057e+01	7.201205e+02
2.230000e-06	2.621319e-06	1.085726e-08	1.826185e+01	7.124944e+02
2.240000e-06	2.528664e-06	1.072182e-08	1.761635e+01	7.043375e+02
2.250000e-06	2.434973e-06	1.058784e-08	1.696364e+01	6.956337e+02
2.260000e-06	2.340356e-06	1.044810e-08	1.630447e+01	6.864110e+02
2.270000e-06	2.244952e-06	1.031798e-08	1.563982e+01	6.767377e+02
2.280000e-06	2.148784e-06	1.018136e-08	1.496986e+01	6.667129e+02
2.290000e-06	2.051918e-06	1.004468e-08	1.429502e+01	6.564518e+02
2.300000e-06	1.954341e-06	9.904979e-09	1.361524e+01	6.460683e+02
2.310000e-06	1.856111e-06	9.756765e-09	1.293090e+01	6.356567e+02
2.320000e-06	1.757400e-06	9.600060e-09	1.224322e+01	6.252748e+02
2.330000e-06	1.658228e-06	9.428987e-09	1.155231e+01	6.149322e+02
2.340000e-06	1.558493e-06	9.258008e-09	1.085750e+01	6.045838e+02
2.350000e-06	1.458131e-06	9.084444e-09	1.015831e+01	5.941313e+02
2.360000e-06	1.357147e-06	8.902763e-09	9.454785e+00	5.834316e+02
2.370000e-06	1.255509e-06	8.713732e-09	8.746709e+00	5.723128e+02
2.380000e-06	1.153287e-06	8.523683e-09	8.034566e+00	5.605943e+02
2.390000e-06	1.050647e-06	8.335156e-09	7.319507e+00	5.481096e+02
2.400000e-06	9.476363e-07	8.135180e-09	6.601864e+00	5.347290e+02
2.410000e-06	8.442825e-07	7.920037e-09	5.881832e+00	5.203774e+02
2.420000e-06	7.406456e-07	7.694607e-09	5.159829e+00	5.050459e+02
2.430000e-06	6.367374e-07	7.461852e-09	4.435935e+00	4.887947e+02
2.440000e-06	5.326179e-07	7.221246e-09	3.710570e+00	4.717458e+02
2.450000e-06	4.283385e-07	6.971235e-09	2.984090e+00	4.540651e+02
2.460000e-06	3.239036e-07	6.710905e-09	2.256528e+00	4.359369e+02
2.470000e-06	2.194016e-07	6.443936e-09	1.528498e+00	4.175320e+02
2.480000e-06	1.148312e-07	6.170807e-09	7.999907e-01	3.989729e+02
2.490000e-06	1.015396e-08	5.883705e-09	7.073925e-02	3.803021e+02
2.500000e-06	-9.451667e-08	5.577425e-09	-6.584659e-01	3.614547e+02
2.510000e-06	-1.990824e-07	5.253805e-09	-1.386940e+00	3.422428e+02
2.520000e-06	-3.035787e-07	4.917767e-09	-2.114931e+00	3.223515e+02
2.530000e-06	-4.079591e-07	4.565958e-09	-2.842114e+00	3.013502e+02
2.540000e-06	-5.121901e-07	4.192261e-09	-3.568257e+00	2.787184e+02
2.550000e-06	-6.162257e-07	3.796960e-09	-4.293038e+00	2.538857e+02
2.560000e-06	-7.200478e-07	3.380819e-09	-5.016331e+00	2.262805e+02
2.570000e-06	-8.236466e-07	2.936595e-09	-5.738069e+00	1.953861e+02
2.580000e-06	-9.269106e-07	2.453648e-09	-6.457475e+00	1.607962e+02
2.590000e-06	-1.029780e-06	1.922382e-09	-7.174131e+00	1.222660e+02
2.600000e-06	-1.132264e-06	1.334595e-09	-7.888102e+00	7.975222e+01
2.610000e-06	-1.234300e-06	6.818394e-10	-8.598957e+00	3.343854e+01
2.620000e-06	-1.335787e-06	-4.728466e-11	-9.305979e+00	-1.625753e+01
2.630000e-06	-1.436662e-06	-8.577695e-10	-1.000874e+01	-6.869725e+01
2.640000e-06	-1.536901e-06	-1.736494e-09	-1.070708e+01	-1.230526e+02
2.650000e-06	-1.636554e-06	-2.654609e-09	-1.140132e+01	-1.783548e+02
2.660000e-06	-1.735637e-06	-3.574059e-09	-1.209160e+01	-2.335559e+02
2.670000e-06	-1.834141e-06	-4.457419e-09	-1.277785e+01	-2.875976e+02
2.680000e-06	-1.932000e-06	-5.277384e-09	-1.345959e+01	-3.394809e+02
2.690000e-06	-2.029178e-06	-6.017689e-09	-1.413660e+01	-3.883309e+02
2.700000e-06	-2.125703e-06	-6.673771e-09	-1.480906e+01	-4.334511e+02
2.710000e-06	-2.221590e-06	-7.251777e-09	-1.547707e+01	-4.743617e+02
2.720000e-06	-2.316817e-06	-7.762396e-09	-1.614049e+01	-5.108192e+02
2.730000e-06	-2.411333e-06	-8.215472e-09	-1.679894e+01	-5.428166e+02
2.740000e-06	-2.504995e-06	-8.616711e-09	-1.745146e+01	-5.705646e+02
2.750000e-06	-2.597591e-06	-8.972142e-09	-1.809654e+01	-5.944552e+02
2.760000e-06	-2.689100e-06	-9.294515e-09	-1.873406e+01	-6.150140e+02
2.770000e-06	-2.779563e-06	-9.595360e-09	-1.936428e+01	-6.328445e+02
2.780000e-06	-2.869009e-06	-9.872804e-09	-1.998742e+01	-6.485708e+02
2.790000e-06	-2.957502e-06	-1.012318e-08	-2.060392e+01	-6.627844e+02
2.800000e-06	-3.045058e-06	-1.035303e-08	-2.121390e+01	-6.759990e+02
2.810000e-06	-3.131609e-06	-1.056873e-08	-2.181687e+01	-6.886187e+02
2.820000e-06	-3.216940e-06	-1.076999e-08	-2.241134e+01	-7.009199e+02
2.830000e-06	-3.300956e-06	-1.095597e-08	-2.299665e+01	-7.130489e+02
2.840000e-06	-3.383783e-06	-1.113025e-08	-2.357368e+01	-7.250329e+02
2.850000e-06	-3.465543e-06	-1.129672e-08	-2.414328e+01	-7.368032e+02
2.860000e-06	-3.546200e-06	-1.145409e-08	-2.470519e+01	-7.482256e+02
2.870000e-06	-3.625613e-06	-1.159845e-08	-2.525843e+01	-7.591348e+02
2.880000e-06	-3.703629e-06	-1.173277e-08	-2.580194e+01	-7.693682e+02
2.890000e-06	-3.780074e-06	-1.186210e-08	-2.633451e+01	-7.787948e+02
2.900000e-06	-3.854985e-06	-1.198468e-08	-2.685639e+01	-7.873369e+02
2.910000e-06	-3.928532e-06	-1.209824e-08	-2.736876e+01	-7.949819e+02
2.920000e-06	-4.000788e-06	-1.220466e-08	-2.787215e+01	-8.017844e+02
2.930000e-06	-4.071720e-06	-1.230835e-08	-2.836631e+01	-8.078576e+02
2.940000e-06	-4.141084e-06	-1.241115e-08	-2.884954e+01	-8.133587e+02
