# Temperatura_=_33.04
# Concentracion g/m^3_=_18700.0
# C_Vs_to_Am_M_A/Vsm_=_65563218390.804596
# pendiente_HvsI_1/m_=_3716.3
# ordenada_HvsI_A/m_=_1297.0
# frecuencia_Hz_=_301349.61312699615

Tiempo_(s)	Campo_(V.s)	Magnetizacion_(V.s)	Campo_(kA/m)	Magnetizacion_(A/m)
0.000000e+00	-8.390254e-06	-2.757456e-08	-5.694955e+01	-1.804647e+03
1.000000e-08	-8.388305e-06	-2.756876e-08	-5.693632e+01	-1.804346e+03
2.000000e-08	-8.383539e-06	-2.755904e-08	-5.690397e+01	-1.803770e+03
3.000000e-08	-8.376179e-06	-2.755142e-08	-5.685401e+01	-1.803019e+03
4.000000e-08	-8.365929e-06	-2.754486e-08	-5.678444e+01	-1.802223e+03
5.000000e-08	-8.352690e-06	-2.753250e-08	-5.669458e+01	-1.801480e+03
6.000000e-08	-8.336469e-06	-2.751235e-08	-5.658448e+01	-1.800812e+03
7.000000e-08	-8.317443e-06	-2.748773e-08	-5.645534e+01	-1.800163e+03
8.000000e-08	-8.295963e-06	-2.747125e-08	-5.630954e+01	-1.799420e+03
9.000000e-08	-8.271609e-06	-2.750296e-08	-5.614423e+01	-1.798473e+03
1.000000e-07	-8.243864e-06	-2.748061e-08	-5.595591e+01	-1.797261e+03
1.100000e-07	-8.212845e-06	-2.742584e-08	-5.574537e+01	-1.795810e+03
1.200000e-07	-8.178750e-06	-2.741582e-08	-5.551395e+01	-1.794221e+03
1.300000e-07	-8.141794e-06	-2.740931e-08	-5.526310e+01	-1.792637e+03
1.400000e-07	-8.102491e-06	-2.735071e-08	-5.499633e+01	-1.791180e+03
1.500000e-07	-8.060868e-06	-2.728510e-08	-5.471382e+01	-1.789908e+03
1.600000e-07	-8.016482e-06	-2.732413e-08	-5.441254e+01	-1.788788e+03
1.700000e-07	-7.969216e-06	-2.724511e-08	-5.409172e+01	-1.787707e+03
1.800000e-07	-7.919023e-06	-2.722705e-08	-5.375103e+01	-1.786520e+03
1.900000e-07	-7.865681e-06	-2.724069e-08	-5.338896e+01	-1.785096e+03
2.000000e-07	-7.809459e-06	-2.716144e-08	-5.300735e+01	-1.783362e+03
2.100000e-07	-7.750521e-06	-2.716700e-08	-5.260731e+01	-1.781316e+03
2.200000e-07	-7.688759e-06	-2.709664e-08	-5.218809e+01	-1.779013e+03
2.300000e-07	-7.624231e-06	-2.705797e-08	-5.175011e+01	-1.776524e+03
2.400000e-07	-7.556859e-06	-2.702445e-08	-5.129281e+01	-1.773901e+03
2.500000e-07	-7.486687e-06	-2.695277e-08	-5.081651e+01	-1.771152e+03
2.600000e-07	-7.413686e-06	-2.692516e-08	-5.032101e+01	-1.768243e+03
2.700000e-07	-7.337779e-06	-2.686831e-08	-4.980579e+01	-1.765124e+03
2.800000e-07	-7.259041e-06	-2.682221e-08	-4.927134e+01	-1.761762e+03
2.900000e-07	-7.177498e-06	-2.675288e-08	-4.871787e+01	-1.758166e+03
3.000000e-07	-7.093437e-06	-2.671535e-08	-4.814729e+01	-1.754387e+03
3.100000e-07	-7.007121e-06	-2.666341e-08	-4.756142e+01	-1.750498e+03
3.200000e-07	-6.918402e-06	-2.657186e-08	-4.695923e+01	-1.746557e+03
3.300000e-07	-6.827101e-06	-2.653156e-08	-4.633951e+01	-1.742575e+03
3.400000e-07	-6.733357e-06	-2.645239e-08	-4.570322e+01	-1.738503e+03
3.500000e-07	-6.637230e-06	-2.638580e-08	-4.505075e+01	-1.734245e+03
3.600000e-07	-6.538674e-06	-2.631866e-08	-4.438180e+01	-1.729700e+03
3.700000e-07	-6.437740e-06	-2.624751e-08	-4.369669e+01	-1.724804e+03
3.800000e-07	-6.334433e-06	-2.616984e-08	-4.299549e+01	-1.719561e+03
3.900000e-07	-6.228822e-06	-2.607847e-08	-4.227865e+01	-1.714046e+03
4.000000e-07	-6.120998e-06	-2.599529e-08	-4.154678e+01	-1.708373e+03
4.100000e-07	-6.011063e-06	-2.589981e-08	-4.080059e+01	-1.702648e+03
4.200000e-07	-5.898905e-06	-2.582086e-08	-4.003931e+01	-1.696916e+03
4.300000e-07	-5.784391e-06	-2.572680e-08	-3.926203e+01	-1.691140e+03
4.400000e-07	-5.667589e-06	-2.563694e-08	-3.846923e+01	-1.685206e+03
4.500000e-07	-5.548714e-06	-2.553835e-08	-3.766236e+01	-1.678972e+03
4.600000e-07	-5.427861e-06	-2.543102e-08	-3.684206e+01	-1.672319e+03
4.700000e-07	-5.305033e-06	-2.532192e-08	-3.600835e+01	-1.665209e+03
4.800000e-07	-5.180309e-06	-2.521155e-08	-3.516178e+01	-1.657690e+03
4.900000e-07	-5.053782e-06	-2.509894e-08	-3.430297e+01	-1.649881e+03
5.000000e-07	-4.925445e-06	-2.497839e-08	-3.343187e+01	-1.641911e+03
5.100000e-07	-4.795302e-06	-2.485611e-08	-3.254851e+01	-1.633860e+03
5.200000e-07	-4.663350e-06	-2.472084e-08	-3.165287e+01	-1.625714e+03
5.300000e-07	-4.529694e-06	-2.458559e-08	-3.074567e+01	-1.617365e+03
5.400000e-07	-4.394506e-06	-2.444694e-08	-2.982808e+01	-1.608650e+03
5.500000e-07	-4.257687e-06	-2.430985e-08	-2.889941e+01	-1.599423e+03
5.600000e-07	-4.119271e-06	-2.416448e-08	-2.795989e+01	-1.589611e+03
5.700000e-07	-3.979235e-06	-2.401210e-08	-2.700939e+01	-1.579257e+03
5.800000e-07	-3.837504e-06	-2.385206e-08	-2.604738e+01	-1.568493e+03
5.900000e-07	-3.694285e-06	-2.367854e-08	-2.507527e+01	-1.557491e+03
6.000000e-07	-3.549724e-06	-2.350079e-08	-2.409404e+01	-1.546373e+03
6.100000e-07	-3.403906e-06	-2.332094e-08	-2.310429e+01	-1.535154e+03
6.200000e-07	-3.256863e-06	-2.314390e-08	-2.210623e+01	-1.523717e+03
6.300000e-07	-3.108653e-06	-2.296184e-08	-2.110024e+01	-1.511852e+03
6.400000e-07	-2.959423e-06	-2.277071e-08	-2.008733e+01	-1.499337e+03
6.500000e-07	-2.809198e-06	-2.256654e-08	-1.906767e+01	-1.486027e+03
6.600000e-07	-2.657966e-06	-2.235048e-08	-1.804116e+01	-1.471918e+03
6.700000e-07	-2.505785e-06	-2.212808e-08	-1.700823e+01	-1.457150e+03
6.800000e-07	-2.352744e-06	-2.190155e-08	-1.596945e+01	-1.441945e+03
6.900000e-07	-2.198835e-06	-2.166736e-08	-1.492478e+01	-1.426511e+03
7.000000e-07	-2.044100e-06	-2.142403e-08	-1.387450e+01	-1.410932e+03
7.100000e-07	-1.888611e-06	-2.117567e-08	-1.281911e+01	-1.395114e+03
7.200000e-07	-1.732459e-06	-2.091753e-08	-1.175921e+01	-1.378804e+03
7.300000e-07	-1.575678e-06	-2.064899e-08	-1.069505e+01	-1.361670e+03
7.400000e-07	-1.418319e-06	-2.036673e-08	-9.626961e+00	-1.343436e+03
7.500000e-07	-1.260522e-06	-2.007376e-08	-8.555898e+00	-1.323984e+03
7.600000e-07	-1.102327e-06	-1.977176e-08	-7.482135e+00	-1.303410e+03
7.700000e-07	-9.436961e-07	-1.945599e-08	-6.405416e+00	-1.281977e+03
7.800000e-07	-7.846224e-07	-1.912307e-08	-5.325690e+00	-1.259990e+03
7.900000e-07	-6.252308e-07	-1.877311e-08	-4.243806e+00	-1.237636e+03
8.000000e-07	-4.656558e-07	-1.841131e-08	-3.160678e+00	-1.214854e+03
8.100000e-07	-3.059015e-07	-1.803568e-08	-2.076332e+00	-1.191288e+03
8.200000e-07	-1.460346e-07	-1.764548e-08	-9.912218e-01	-1.166356e+03
8.300000e-07	1.389075e-08	-1.723297e-08	9.428461e-02	-1.139414e+03
8.400000e-07	1.738299e-07	-1.678974e-08	1.179885e+00	-1.109950e+03
8.500000e-07	3.336279e-07	-1.631262e-08	2.264527e+00	-1.077741e+03
8.600000e-07	4.932626e-07	-1.579732e-08	3.348061e+00	-1.042878e+03
8.700000e-07	6.527291e-07	-1.523832e-08	4.430453e+00	-1.005645e+03
8.800000e-07	8.119454e-07	-1.462911e-08	5.511147e+00	-9.662613e+02
8.900000e-07	9.708260e-07	-1.396921e-08	6.589562e+00	-9.245653e+02
9.000000e-07	1.129281e-06	-1.325491e-08	7.665092e+00	-8.797377e+02
9.100000e-07	1.287333e-06	-1.247007e-08	8.737883e+00	-8.301681e+02
9.200000e-07	1.444971e-06	-1.159024e-08	9.807861e+00	-7.735245e+02
9.300000e-07	1.602099e-06	-1.058669e-08	1.087438e+01	-7.070340e+02
9.400000e-07	1.758652e-06	-9.418328e-09	1.193699e+01	-6.279166e+02
9.500000e-07	1.914577e-06	-8.032694e-09	1.299535e+01	-5.338785e+02
9.600000e-07	2.069827e-06	-6.367945e-09	1.404912e+01	-4.235543e+02
9.700000e-07	2.224314e-06	-4.373267e-09	1.509772e+01	-2.968098e+02
9.800000e-07	2.378023e-06	-2.093097e-09	1.614103e+01	-1.548576e+02
9.900000e-07	2.530954e-06	3.162075e-10	1.717906e+01	-1.859386e-01
1.000000e-06	2.682944e-06	2.742928e-09	1.821071e+01	1.636597e+02
1.010000e-06	2.833880e-06	5.172107e-09	1.923519e+01	3.323884e+02
1.020000e-06	2.983810e-06	7.604341e-09	2.025286e+01	5.013139e+02
1.030000e-06	3.132680e-06	1.003495e-08	2.126333e+01	6.657098e+02
1.040000e-06	3.280416e-06	1.244498e-08	2.226609e+01	8.211511e+02
1.050000e-06	3.427004e-06	1.471299e-08	2.326108e+01	9.638336e+02
1.060000e-06	3.572316e-06	1.667854e-08	2.424739e+01	1.090861e+03
1.070000e-06	3.716314e-06	1.830603e-08	2.522479e+01	1.200469e+03
1.080000e-06	3.858927e-06	1.963215e-08	2.619279e+01	1.292160e+03
1.090000e-06	4.000039e-06	2.070241e-08	2.715060e+01	1.366683e+03
1.100000e-06	4.139680e-06	2.156726e-08	2.809842e+01	1.425871e+03
1.110000e-06	4.277755e-06	2.227132e-08	2.903562e+01	1.472307e+03
1.120000e-06	4.414181e-06	2.284830e-08	2.996162e+01	1.508903e+03
1.130000e-06	4.549006e-06	2.332342e-08	3.087676e+01	1.538449e+03
1.140000e-06	4.682160e-06	2.371893e-08	3.178055e+01	1.563248e+03
1.150000e-06	4.813631e-06	2.405313e-08	3.267292e+01	1.584899e+03
1.160000e-06	4.943469e-06	2.433961e-08	3.355421e+01	1.604275e+03
1.170000e-06	5.071549e-06	2.458639e-08	3.442356e+01	1.621673e+03
1.180000e-06	5.197802e-06	2.480151e-08	3.528051e+01	1.637070e+03
1.190000e-06	5.322271e-06	2.499323e-08	3.612536e+01	1.650396e+03
1.200000e-06	5.444896e-06	2.516626e-08	3.695768e+01	1.661736e+03
1.210000e-06	5.565529e-06	2.532367e-08	3.777649e+01	1.671407e+03
1.220000e-06	5.684046e-06	2.546778e-08	3.858093e+01	1.679904e+03
1.230000e-06	5.800423e-06	2.560171e-08	3.937085e+01	1.687760e+03
1.240000e-06	5.914582e-06	2.572612e-08	4.014572e+01	1.695391e+03
1.250000e-06	6.026459e-06	2.584198e-08	4.090509e+01	1.702980e+03
1.260000e-06	6.136228e-06	2.594890e-08	4.165016e+01	1.710465e+03
1.270000e-06	6.243906e-06	2.604747e-08	4.238103e+01	1.717614e+03
1.280000e-06	6.349328e-06	2.614061e-08	4.309660e+01	1.724157e+03
1.290000e-06	6.452470e-06	2.622796e-08	4.379667e+01	1.729923e+03
1.300000e-06	6.553281e-06	2.631019e-08	4.448094e+01	1.734921e+03
1.310000e-06	6.651736e-06	2.638745e-08	4.514921e+01	1.739340e+03
1.320000e-06	6.747770e-06	2.646170e-08	4.580105e+01	1.743475e+03
1.330000e-06	6.841417e-06	2.653313e-08	4.643669e+01	1.747604e+03
1.340000e-06	6.932710e-06	2.659908e-08	4.705635e+01	1.751887e+03
1.350000e-06	7.021496e-06	2.666039e-08	4.765899e+01	1.756311e+03
1.360000e-06	7.107810e-06	2.671847e-08	4.824485e+01	1.760713e+03
1.370000e-06	7.191719e-06	2.677461e-08	4.881439e+01	1.764856e+03
1.380000e-06	7.273087e-06	2.682930e-08	4.936668e+01	1.768540e+03
1.390000e-06	7.351757e-06	2.688319e-08	4.990066e+01	1.771686e+03
1.400000e-06	7.427639e-06	2.693459e-08	5.041572e+01	1.774365e+03
1.410000e-06	7.500737e-06	2.698244e-08	5.091188e+01	1.776765e+03
1.420000e-06	7.571192e-06	2.702786e-08	5.139010e+01	1.779109e+03
1.430000e-06	7.639030e-06	2.706943e-08	5.185055e+01	1.781564e+03
1.440000e-06	7.704093e-06	2.710726e-08	5.229217e+01	1.784172e+03
1.450000e-06	7.766442e-06	2.714278e-08	5.271537e+01	1.786848e+03
1.460000e-06	7.826149e-06	2.717846e-08	5.312063e+01	1.789414e+03
1.470000e-06	7.883074e-06	2.721439e-08	5.350702e+01	1.791691e+03
1.480000e-06	7.937111e-06	2.724796e-08	5.387380e+01	1.793568e+03
1.490000e-06	7.987982e-06	2.727734e-08	5.421909e+01	1.795053e+03
1.500000e-06	8.035682e-06	2.730442e-08	5.454286e+01	1.796262e+03
1.510000e-06	8.080555e-06	2.733104e-08	5.484744e+01	1.797366e+03
1.520000e-06	8.122546e-06	2.735496e-08	5.513246e+01	1.798519e+03
1.530000e-06	8.161635e-06	2.737364e-08	5.539778e+01	1.799789e+03
1.540000e-06	8.197986e-06	2.738871e-08	5.564451e+01	1.801135e+03
1.550000e-06	8.231471e-06	2.740303e-08	5.587179e+01	1.802430e+03
1.560000e-06	8.262034e-06	2.741889e-08	5.607924e+01	1.803518e+03
1.570000e-06	8.289693e-06	2.743370e-08	5.626698e+01	1.804289e+03
1.580000e-06	8.314339e-06	2.744484e-08	5.643427e+01	1.804722e+03
1.590000e-06	8.336107e-06	2.745520e-08	5.658202e+01	1.804898e+03
1.600000e-06	8.355046e-06	2.746563e-08	5.671057e+01	1.804961e+03
1.610000e-06	8.370965e-06	2.747403e-08	5.681862e+01	1.805060e+03
1.620000e-06	8.383679e-06	2.747744e-08	5.690492e+01	1.805282e+03
1.630000e-06	8.393164e-06	2.747778e-08	5.696930e+01	1.805619e+03
1.640000e-06	8.399649e-06	2.747931e-08	5.701331e+01	1.805975e+03
1.650000e-06	8.403213e-06	2.748315e-08	5.703751e+01	1.806207e+03
1.660000e-06	8.403801e-06	2.748648e-08	5.704150e+01	1.806190e+03
1.670000e-06	8.401583e-06	2.748040e-08	5.702644e+01	1.805868e+03
1.680000e-06	8.396565e-06	2.747787e-08	5.699238e+01	1.805275e+03
1.690000e-06	8.388730e-06	2.747867e-08	5.693921e+01	1.804516e+03
1.700000e-06	8.378121e-06	2.747477e-08	5.686719e+01	1.803722e+03
1.710000e-06	8.364519e-06	2.746455e-08	5.677487e+01	1.802984e+03
1.720000e-06	8.348175e-06	2.745654e-08	5.666393e+01	1.802321e+03
1.730000e-06	8.329443e-06	2.745856e-08	5.653679e+01	1.801669e+03
1.740000e-06	8.307974e-06	2.740128e-08	5.639107e+01	1.800915e+03
1.750000e-06	8.283137e-06	2.735511e-08	5.622248e+01	1.799949e+03
1.760000e-06	8.254362e-06	2.737349e-08	5.602717e+01	1.798719e+03
1.770000e-06	8.221961e-06	2.736193e-08	5.580725e+01	1.797253e+03
1.780000e-06	8.186926e-06	2.733095e-08	5.556944e+01	1.795660e+03
1.790000e-06	8.149491e-06	2.735892e-08	5.531535e+01	1.794081e+03
1.800000e-06	8.109893e-06	2.734492e-08	5.504657e+01	1.792637e+03
1.810000e-06	8.068270e-06	2.726856e-08	5.476406e+01	1.791379e+03
1.820000e-06	8.023835e-06	2.731639e-08	5.446245e+01	1.790265e+03
1.830000e-06	7.976484e-06	2.726628e-08	5.414105e+01	1.789182e+03
1.840000e-06	7.926206e-06	2.726832e-08	5.379978e+01	1.787982e+03
1.850000e-06	7.872546e-06	2.727163e-08	5.343556e+01	1.786537e+03
1.860000e-06	7.816001e-06	2.719300e-08	5.305176e+01	1.784780e+03
1.870000e-06	7.756686e-06	2.726304e-08	5.264915e+01	1.782713e+03
1.880000e-06	7.694537e-06	2.717667e-08	5.222731e+01	1.780395e+03
1.890000e-06	7.629668e-06	2.716415e-08	5.178701e+01	1.777895e+03
1.900000e-06	7.561869e-06	2.714050e-08	5.132681e+01	1.775263e+03
1.910000e-06	7.491225e-06	2.705919e-08	5.084731e+01	1.772504e+03
1.920000e-06	7.417671e-06	2.706120e-08	5.034806e+01	1.769581e+03
1.930000e-06	7.341267e-06	2.695841e-08	4.982946e+01	1.766446e+03
1.940000e-06	7.262122e-06	2.695233e-08	4.929226e+01	1.763067e+03
1.950000e-06	7.180449e-06	2.686188e-08	4.873790e+01	1.759455e+03
1.960000e-06	7.096308e-06	2.682378e-08	4.816678e+01	1.755666e+03
1.970000e-06	7.009441e-06	2.680211e-08	4.757716e+01	1.751772e+03
1.980000e-06	6.920086e-06	2.669822e-08	4.697066e+01	1.747828e+03
1.990000e-06	6.828262e-06	2.669337e-08	4.634740e+01	1.743842e+03
2.000000e-06	6.733980e-06	2.658864e-08	4.570745e+01	1.739760e+03
2.010000e-06	6.637412e-06	2.653554e-08	4.505199e+01	1.735485e+03
2.020000e-06	6.538538e-06	2.643346e-08	4.438087e+01	1.730917e+03
2.030000e-06	6.437203e-06	2.635728e-08	4.369305e+01	1.725995e+03
2.040000e-06	6.333416e-06	2.630359e-08	4.298859e+01	1.720729e+03
2.050000e-06	6.227481e-06	2.622479e-08	4.226955e+01	1.715198e+03
2.060000e-06	6.119393e-06	2.617066e-08	4.153589e+01	1.709519e+03
2.070000e-06	6.009137e-06	2.606426e-08	4.078752e+01	1.703793e+03
2.080000e-06	5.896632e-06	2.598250e-08	4.002388e+01	1.698060e+03
2.090000e-06	5.781823e-06	2.586702e-08	3.924461e+01	1.692277e+03
2.100000e-06	5.664709e-06	2.577310e-08	3.844969e+01	1.686327e+03
2.110000e-06	5.545332e-06	2.567572e-08	3.763940e+01	1.680065e+03
2.120000e-06	5.423995e-06	2.558436e-08	3.681582e+01	1.673381e+03
2.130000e-06	5.300840e-06	2.548667e-08	3.597989e+01	1.666238e+03
2.140000e-06	5.175809e-06	2.538219e-08	3.513123e+01	1.658694e+03
2.150000e-06	5.048837e-06	2.525774e-08	3.426940e+01	1.650870e+03
2.160000e-06	4.920050e-06	2.513019e-08	3.339525e+01	1.642892e+03
2.170000e-06	4.789557e-06	2.501005e-08	3.250952e+01	1.634836e+03
2.180000e-06	4.657343e-06	2.488865e-08	3.161210e+01	1.626680e+03
2.190000e-06	4.523457e-06	2.476632e-08	3.070334e+01	1.618310e+03
2.200000e-06	4.387935e-06	2.462148e-08	2.978347e+01	1.609564e+03
2.210000e-06	4.250781e-06	2.447971e-08	2.885253e+01	1.600295e+03
2.220000e-06	4.112044e-06	2.432168e-08	2.791084e+01	1.590443e+03
2.230000e-06	3.971698e-06	2.417221e-08	2.695823e+01	1.580053e+03
2.240000e-06	3.829832e-06	2.401567e-08	2.599530e+01	1.569267e+03
2.250000e-06	3.686572e-06	2.386307e-08	2.502292e+01	1.558254e+03
2.260000e-06	3.541995e-06	2.370212e-08	2.404159e+01	1.547130e+03
2.270000e-06	3.396215e-06	2.352908e-08	2.305209e+01	1.535900e+03
2.280000e-06	3.249173e-06	2.334448e-08	2.205403e+01	1.524440e+03
2.290000e-06	3.100922e-06	2.315006e-08	2.104777e+01	1.512536e+03
2.300000e-06	2.951640e-06	2.295443e-08	2.003450e+01	1.499968e+03
2.310000e-06	2.801348e-06	2.275530e-08	1.901438e+01	1.486599e+03
2.320000e-06	2.650009e-06	2.255223e-08	1.798716e+01	1.472437e+03
2.330000e-06	2.497755e-06	2.233623e-08	1.695372e+01	1.457629e+03
2.340000e-06	2.344668e-06	2.211214e-08	1.591463e+01	1.442403e+03
2.350000e-06	2.190735e-06	2.187759e-08	1.486979e+01	1.426957e+03
2.360000e-06	2.035958e-06	2.163833e-08	1.381924e+01	1.411366e+03
2.370000e-06	1.880379e-06	2.138982e-08	1.276323e+01	1.395523e+03
2.380000e-06	1.724126e-06	2.113483e-08	1.170265e+01	1.379165e+03
2.390000e-06	1.567301e-06	2.086915e-08	1.063819e+01	1.361961e+03
2.400000e-06	1.409899e-06	2.058937e-08	9.569809e+00	1.343641e+03
2.410000e-06	1.251924e-06	2.029525e-08	8.497537e+00	1.324103e+03
2.420000e-06	1.093466e-06	1.998937e-08	7.421993e+00	1.303458e+03
2.430000e-06	9.346830e-07	1.967624e-08	6.344239e+00	1.281976e+03
2.440000e-06	7.756410e-07	1.935253e-08	5.264728e+00	1.259958e+03
2.450000e-06	6.162746e-07	1.901392e-08	4.183015e+00	1.237579e+03
2.460000e-06	4.566616e-07	1.865702e-08	3.099629e+00	1.214757e+03
2.470000e-06	2.969169e-07	1.828189e-08	2.015348e+00	1.191114e+03
2.480000e-06	1.370878e-07	1.788561e-08	9.304952e-01	1.166060e+03
2.490000e-06	-2.279542e-08	1.746706e-08	-1.547258e-01	1.138951e+03
2.500000e-06	-1.826533e-07	1.702463e-08	-1.239774e+00	1.109295e+03
2.510000e-06	-3.423857e-07	1.655325e-08	-2.323971e+00	1.076890e+03
2.520000e-06	-5.019720e-07	1.604417e-08	-3.407177e+00	1.041847e+03
2.530000e-06	-6.613911e-07	1.549054e-08	-4.489247e+00	1.004456e+03
2.540000e-06	-8.205424e-07	1.488750e-08	-5.569500e+00	9.649189e+02
2.550000e-06	-9.793956e-07	1.423258e-08	-6.647729e+00	9.230354e+02
2.560000e-06	-1.137927e-06	1.351863e-08	-7.723775e+00	8.779320e+02
2.570000e-06	-1.296071e-06	1.273079e-08	-8.797189e+00	8.279416e+02
2.580000e-06	-1.453740e-06	1.185336e-08	-9.867380e+00	7.706895e+02
2.590000e-06	-1.610812e-06	1.085555e-08	-1.093352e+01	7.033863e+02
2.600000e-06	-1.767199e-06	9.694059e-09	-1.199501e+01	6.232705e+02
2.610000e-06	-1.922929e-06	8.315441e-09	-1.305204e+01	5.281011e+02
2.620000e-06	-2.078028e-06	6.658924e-09	-1.410479e+01	4.165927e+02
2.630000e-06	-2.232295e-06	4.670571e-09	-1.515189e+01	2.887058e+02
2.640000e-06	-2.385678e-06	2.367377e-09	-1.619299e+01	1.457485e+02
2.650000e-06	-2.538244e-06	-1.094146e-10	-1.722854e+01	-9.706793e+00
2.660000e-06	-2.689858e-06	-2.623719e-09	-1.825763e+01	-1.740503e+02
2.670000e-06	-2.840485e-06	-5.134504e-09	-1.928003e+01	-3.429509e+02
2.680000e-06	-2.990121e-06	-7.640615e-09	-2.029569e+01	-5.117079e+02
2.690000e-06	-3.138696e-06	-1.014672e-08	-2.130416e+01	-6.756054e+02
2.700000e-06	-3.286142e-06	-1.262368e-08	-2.230496e+01	-8.302523e+02
2.710000e-06	-3.432393e-06	-1.492901e-08	-2.329765e+01	-9.719003e+02
2.720000e-06	-3.577437e-06	-1.691066e-08	-2.428215e+01	-1.097727e+03
2.730000e-06	-3.721198e-06	-1.854768e-08	-2.525794e+01	-1.206057e+03
2.740000e-06	-3.863587e-06	-1.988563e-08	-2.622442e+01	-1.296482e+03
2.750000e-06	-4.004579e-06	-2.097419e-08	-2.718141e+01	-1.369839e+03
2.760000e-06	-4.144033e-06	-2.185729e-08	-2.812797e+01	-1.428023e+03
2.770000e-06	-4.281828e-06	-2.257314e-08	-2.906326e+01	-1.473659e+03
2.780000e-06	-4.418034e-06	-2.315722e-08	-2.998777e+01	-1.509663e+03
2.790000e-06	-4.552723e-06	-2.363532e-08	-3.090199e+01	-1.538801e+03
2.800000e-06	-4.685825e-06	-2.402869e-08	-3.180543e+01	-1.563331e+03
2.810000e-06	-4.817181e-06	-2.435828e-08	-3.269702e+01	-1.584798e+03
2.820000e-06	-4.946833e-06	-2.464025e-08	-3.357704e+01	-1.604029e+03
2.830000e-06	-5.074766e-06	-2.488596e-08	-3.444540e+01	-1.621287e+03
2.840000e-06	-5.200884e-06	-2.510244e-08	-3.530144e+01	-1.636537e+03
2.850000e-06	-5.325161e-06	-2.529522e-08	-3.614497e+01	-1.649716e+03
2.860000e-06	-5.447514e-06	-2.546690e-08	-3.697545e+01	-1.660924e+03
2.870000e-06	-5.567895e-06	-2.562480e-08	-3.779255e+01	-1.670493e+03
2.880000e-06	-5.686238e-06	-2.577019e-08	-3.859581e+01	-1.678926e+03
2.890000e-06	-5.802327e-06	-2.590018e-08	-3.938378e+01	-1.686755e+03
2.900000e-06	-5.916040e-06	-2.601766e-08	-4.015562e+01	-1.694380e+03
2.910000e-06	-6.027467e-06	-2.612455e-08	-4.091193e+01	-1.701966e+03
2.920000e-06	-6.136692e-06	-2.622267e-08	-4.165331e+01	-1.709437e+03
2.930000e-06	-6.243783e-06	-2.631579e-08	-4.238020e+01	-1.716551e+03
2.940000e-06	-6.348764e-06	-2.640511e-08	-4.309276e+01	-1.723042e+03
