# Temperatura_=_49.01
# Concentracion g/m^3_=_18700.0
# C_Vs_to_Am_M_A/Vsm_=_65563218390.804596
# pendiente_HvsI_1/m_=_3716.3
# ordenada_HvsI_A/m_=_1297.0
# frecuencia_Hz_=_301345.462952745

Tiempo_(s)	Campo_(V.s)	Magnetizacion_(V.s)	Campo_(kA/m)	Magnetizacion_(A/m)
0.000000e+00	-8.345917e-06	-2.676710e-08	-5.695308e+01	-1.752152e+03
1.000000e-08	-8.343667e-06	-2.676928e-08	-5.693773e+01	-1.751750e+03
2.000000e-08	-8.338571e-06	-2.676148e-08	-5.690295e+01	-1.751169e+03
3.000000e-08	-8.330856e-06	-2.675076e-08	-5.685030e+01	-1.750521e+03
4.000000e-08	-8.320308e-06	-2.674107e-08	-5.677832e+01	-1.749897e+03
5.000000e-08	-8.306769e-06	-2.672699e-08	-5.668593e+01	-1.749327e+03
6.000000e-08	-8.290222e-06	-2.670523e-08	-5.657301e+01	-1.748772e+03
7.000000e-08	-8.270970e-06	-2.667019e-08	-5.644163e+01	-1.748136e+03
8.000000e-08	-8.249284e-06	-2.665220e-08	-5.629365e+01	-1.747322e+03
9.000000e-08	-8.224605e-06	-2.672334e-08	-5.612524e+01	-1.746269e+03
1.000000e-07	-8.196495e-06	-2.669638e-08	-5.593341e+01	-1.744990e+03
1.100000e-07	-8.165224e-06	-2.661949e-08	-5.572002e+01	-1.743562e+03
1.200000e-07	-8.130978e-06	-2.662038e-08	-5.548632e+01	-1.742097e+03
1.300000e-07	-8.093918e-06	-2.662516e-08	-5.523342e+01	-1.740696e+03
1.400000e-07	-8.054539e-06	-2.653350e-08	-5.496469e+01	-1.739408e+03
1.500000e-07	-8.012766e-06	-2.645413e-08	-5.467964e+01	-1.738210e+03
1.600000e-07	-7.968169e-06	-2.657708e-08	-5.437530e+01	-1.737026e+03
1.700000e-07	-7.920764e-06	-2.642682e-08	-5.405180e+01	-1.735754e+03
1.800000e-07	-7.870499e-06	-2.643677e-08	-5.370879e+01	-1.734315e+03
1.900000e-07	-7.817080e-06	-2.648622e-08	-5.334426e+01	-1.732677e+03
2.000000e-07	-7.760757e-06	-2.635152e-08	-5.295991e+01	-1.730859e+03
2.100000e-07	-7.701708e-06	-2.639358e-08	-5.255695e+01	-1.728907e+03
2.200000e-07	-7.639905e-06	-2.628966e-08	-5.213521e+01	-1.726858e+03
2.300000e-07	-7.575423e-06	-2.628288e-08	-5.169517e+01	-1.724712e+03
2.400000e-07	-7.508078e-06	-2.625630e-08	-5.123561e+01	-1.722419e+03
2.500000e-07	-7.437915e-06	-2.618277e-08	-5.075681e+01	-1.719905e+03
2.600000e-07	-7.364950e-06	-2.616911e-08	-5.025890e+01	-1.717099e+03
2.700000e-07	-7.289110e-06	-2.609605e-08	-4.974136e+01	-1.713981e+03
2.800000e-07	-7.210471e-06	-2.605579e-08	-4.920472e+01	-1.710594e+03
2.900000e-07	-7.129041e-06	-2.596984e-08	-4.864904e+01	-1.707040e+03
3.000000e-07	-7.045088e-06	-2.595083e-08	-4.807614e+01	-1.703437e+03
3.100000e-07	-6.958843e-06	-2.590401e-08	-4.748760e+01	-1.699868e+03
3.200000e-07	-6.870204e-06	-2.581833e-08	-4.688272e+01	-1.696343e+03
3.300000e-07	-6.779090e-06	-2.580237e-08	-4.626095e+01	-1.692786e+03
3.400000e-07	-6.685625e-06	-2.570678e-08	-4.562314e+01	-1.689058e+03
3.500000e-07	-6.589816e-06	-2.563546e-08	-4.496933e+01	-1.685016e+03
3.600000e-07	-6.491509e-06	-2.555994e-08	-4.429848e+01	-1.680571e+03
3.700000e-07	-6.390764e-06	-2.549224e-08	-4.361099e+01	-1.675729e+03
3.800000e-07	-6.287722e-06	-2.542241e-08	-4.290782e+01	-1.670589e+03
3.900000e-07	-6.182421e-06	-2.535032e-08	-4.218924e+01	-1.665307e+03
4.000000e-07	-6.074868e-06	-2.528853e-08	-4.145530e+01	-1.660027e+03
4.100000e-07	-5.965173e-06	-2.519567e-08	-4.070673e+01	-1.654818e+03
4.200000e-07	-5.853330e-06	-2.511584e-08	-3.994350e+01	-1.649637e+03
4.300000e-07	-5.739222e-06	-2.500933e-08	-3.916482e+01	-1.644341e+03
4.400000e-07	-5.622853e-06	-2.491675e-08	-3.837071e+01	-1.638742e+03
4.500000e-07	-5.504381e-06	-2.482081e-08	-3.756226e+01	-1.632686e+03
4.600000e-07	-5.383901e-06	-2.472820e-08	-3.674009e+01	-1.626111e+03
4.700000e-07	-5.261476e-06	-2.463306e-08	-3.590465e+01	-1.619080e+03
4.800000e-07	-5.137162e-06	-2.452799e-08	-3.505633e+01	-1.611746e+03
4.900000e-07	-5.011037e-06	-2.441799e-08	-3.419564e+01	-1.604291e+03
5.000000e-07	-4.883203e-06	-2.429699e-08	-3.332329e+01	-1.596838e+03
5.100000e-07	-4.753608e-06	-2.417750e-08	-3.243893e+01	-1.589396e+03
5.200000e-07	-4.622195e-06	-2.404616e-08	-3.154216e+01	-1.581846e+03
5.300000e-07	-4.489069e-06	-2.392011e-08	-3.063369e+01	-1.573986e+03
5.400000e-07	-4.354406e-06	-2.379056e-08	-2.971475e+01	-1.565612e+03
5.500000e-07	-4.218138e-06	-2.365688e-08	-2.878485e+01	-1.556606e+03
5.600000e-07	-4.080305e-06	-2.351245e-08	-2.784427e+01	-1.546987e+03
5.700000e-07	-3.940896e-06	-2.336127e-08	-2.689293e+01	-1.536900e+03
5.800000e-07	-3.799853e-06	-2.320955e-08	-2.593044e+01	-1.526557e+03
5.900000e-07	-3.657286e-06	-2.304997e-08	-2.495756e+01	-1.516137e+03
6.000000e-07	-3.513347e-06	-2.288558e-08	-2.397531e+01	-1.505700e+03
6.100000e-07	-3.368096e-06	-2.271338e-08	-2.298411e+01	-1.495152e+03
6.200000e-07	-3.221612e-06	-2.253980e-08	-2.198449e+01	-1.484268e+03
6.300000e-07	-3.074071e-06	-2.235625e-08	-2.097766e+01	-1.472778e+03
6.400000e-07	-2.925476e-06	-2.216230e-08	-1.996364e+01	-1.460483e+03
6.500000e-07	-2.775905e-06	-2.196152e-08	-1.894296e+01	-1.447332e+03
6.600000e-07	-2.625435e-06	-2.175752e-08	-1.791614e+01	-1.433448e+03
6.700000e-07	-2.474057e-06	-2.155238e-08	-1.688313e+01	-1.419076e+03
6.800000e-07	-2.321745e-06	-2.133642e-08	-1.584374e+01	-1.404471e+03
6.900000e-07	-2.168501e-06	-2.110780e-08	-1.479799e+01	-1.389779e+03
7.000000e-07	-2.014519e-06	-2.086737e-08	-1.374721e+01	-1.374950e+03
7.100000e-07	-1.859884e-06	-2.062282e-08	-1.269197e+01	-1.359743e+03
7.200000e-07	-1.704516e-06	-2.036611e-08	-1.163173e+01	-1.343804e+03
7.300000e-07	-1.548487e-06	-2.009981e-08	-1.056698e+01	-1.326797e+03
7.400000e-07	-1.391876e-06	-1.982506e-08	-9.498254e+00	-1.308547e+03
7.500000e-07	-1.234740e-06	-1.954261e-08	-8.425944e+00	-1.289106e+03
7.600000e-07	-1.077162e-06	-1.925045e-08	-7.350625e+00	-1.268731e+03
7.700000e-07	-9.192340e-07	-1.893735e-08	-6.272912e+00	-1.247767e+03
7.800000e-07	-7.609799e-07	-1.860638e-08	-5.192976e+00	-1.226470e+03
7.900000e-07	-6.024372e-07	-1.825773e-08	-4.111071e+00	-1.204855e+03
8.000000e-07	-4.436856e-07	-1.789808e-08	-3.027739e+00	-1.182623e+03
8.100000e-07	-2.847645e-07	-1.752406e-08	-1.943252e+00	-1.159211e+03
8.200000e-07	-1.257396e-07	-1.713275e-08	-8.580551e-01	-1.133950e+03
8.300000e-07	3.332551e-08	-1.671761e-08	2.274154e-01	-1.106275e+03
8.400000e-07	1.923761e-07	-1.627262e-08	1.312787e+00	-1.075905e+03
8.500000e-07	3.513510e-07	-1.579155e-08	2.397642e+00	-1.042899e+03
8.600000e-07	5.102102e-07	-1.526426e-08	3.481708e+00	-1.007560e+03
8.700000e-07	6.688501e-07	-1.468880e-08	4.564277e+00	-9.701792e+02
8.800000e-07	8.272323e-07	-1.406176e-08	5.645087e+00	-9.307039e+02
8.900000e-07	9.853579e-07	-1.338170e-08	6.724146e+00	-8.884349e+02
9.000000e-07	1.143092e-06	-1.263554e-08	7.800537e+00	-8.418530e+02
9.100000e-07	1.300424e-06	-1.180331e-08	8.874174e+00	-7.886573e+02
9.200000e-07	1.457324e-06	-1.085468e-08	9.944871e+00	-7.260249e+02
9.300000e-07	1.613686e-06	-9.750958e-09	1.101190e+01	-6.510437e+02
9.400000e-07	1.769446e-06	-8.439132e-09	1.207481e+01	-5.612195e+02
9.500000e-07	1.924472e-06	-6.850044e-09	1.313272e+01	-4.549450e+02
9.600000e-07	2.078787e-06	-4.917600e-09	1.418578e+01	-3.318326e+02
9.700000e-07	2.232405e-06	-2.669303e-09	1.523408e+01	-1.928591e+02
9.800000e-07	2.385197e-06	-2.663530e-10	1.627674e+01	-4.031963e+01
9.900000e-07	2.537048e-06	2.161863e-09	1.731298e+01	1.223725e+02
1.000000e-06	2.687994e-06	4.589480e-09	1.834304e+01	2.909807e+02
1.010000e-06	2.838077e-06	7.019585e-09	1.936722e+01	4.607827e+02
1.020000e-06	2.987140e-06	9.452087e-09	2.038444e+01	6.269178e+02
1.030000e-06	3.135077e-06	1.187321e-08	2.139397e+01	7.847285e+02
1.040000e-06	3.281857e-06	1.418693e-08	2.239561e+01	9.300958e+02
1.050000e-06	3.427476e-06	1.621829e-08	2.338932e+01	1.059758e+03
1.060000e-06	3.571859e-06	1.788551e-08	2.437460e+01	1.171584e+03
1.070000e-06	3.714875e-06	1.922621e-08	2.535055e+01	1.264763e+03
1.080000e-06	3.856483e-06	2.029836e-08	2.631689e+01	1.339845e+03
1.090000e-06	3.996652e-06	2.115204e-08	2.727341e+01	1.398606e+03
1.100000e-06	4.135260e-06	2.183084e-08	2.821928e+01	1.443733e+03
1.110000e-06	4.272308e-06	2.237373e-08	2.915450e+01	1.478368e+03
1.120000e-06	4.407810e-06	2.281406e-08	3.007918e+01	1.505612e+03
1.130000e-06	4.541737e-06	2.317644e-08	3.099311e+01	1.528082e+03
1.140000e-06	4.674060e-06	2.348023e-08	3.189609e+01	1.547633e+03
1.150000e-06	4.804651e-06	2.374293e-08	3.278725e+01	1.565287e+03
1.160000e-06	4.933552e-06	2.397259e-08	3.366688e+01	1.581367e+03
1.170000e-06	5.060711e-06	2.417314e-08	3.453462e+01	1.595772e+03
1.180000e-06	5.186029e-06	2.434843e-08	3.538979e+01	1.608294e+03
1.190000e-06	5.309583e-06	2.450568e-08	3.623294e+01	1.618875e+03
1.200000e-06	5.431284e-06	2.464951e-08	3.706343e+01	1.627729e+03
1.210000e-06	5.550996e-06	2.478172e-08	3.788036e+01	1.635317e+03
1.220000e-06	5.668673e-06	2.490370e-08	3.868339e+01	1.642208e+03
1.230000e-06	5.784164e-06	2.501742e-08	3.947151e+01	1.648893e+03
1.240000e-06	5.897317e-06	2.512424e-08	4.024367e+01	1.655642e+03
1.250000e-06	6.008293e-06	2.522262e-08	4.100098e+01	1.662453e+03
1.260000e-06	6.117347e-06	2.531221e-08	4.174517e+01	1.669107e+03
1.270000e-06	6.224273e-06	2.539493e-08	4.247485e+01	1.675302e+03
1.280000e-06	6.328844e-06	2.547441e-08	4.318844e+01	1.680802e+03
1.290000e-06	6.431161e-06	2.555121e-08	4.388666e+01	1.685548e+03
1.300000e-06	6.531180e-06	2.562414e-08	4.456920e+01	1.689681e+03
1.310000e-06	6.628727e-06	2.569410e-08	4.523486e+01	1.693479e+03
1.320000e-06	6.723845e-06	2.576176e-08	4.588395e+01	1.697242e+03
1.330000e-06	6.816691e-06	2.582625e-08	4.651754e+01	1.701173e+03
1.340000e-06	6.907099e-06	2.588579e-08	4.713449e+01	1.705302e+03
1.350000e-06	6.995006e-06	2.594062e-08	4.773437e+01	1.709490e+03
1.360000e-06	7.080567e-06	2.599295e-08	4.831825e+01	1.713500e+03
1.370000e-06	7.163714e-06	2.604389e-08	4.888565e+01	1.717106e+03
1.380000e-06	7.244295e-06	2.609238e-08	4.943554e+01	1.720189e+03
1.390000e-06	7.322259e-06	2.614064e-08	4.996757e+01	1.722784e+03
1.400000e-06	7.397435e-06	2.618836e-08	5.048057e+01	1.725062e+03
1.410000e-06	7.469790e-06	2.623559e-08	5.097433e+01	1.727248e+03
1.420000e-06	7.539565e-06	2.627925e-08	5.145048e+01	1.729531e+03
1.430000e-06	7.606707e-06	2.631732e-08	5.190866e+01	1.731987e+03
1.440000e-06	7.671086e-06	2.635209e-08	5.234799e+01	1.734551e+03
1.450000e-06	7.732810e-06	2.638284e-08	5.276920e+01	1.737056e+03
1.460000e-06	7.791849e-06	2.641162e-08	5.317208e+01	1.739312e+03
1.470000e-06	7.848086e-06	2.644004e-08	5.355585e+01	1.741184e+03
1.480000e-06	7.901411e-06	2.647084e-08	5.391974e+01	1.742653e+03
1.490000e-06	7.951543e-06	2.650148e-08	5.426184e+01	1.743816e+03
1.500000e-06	7.998603e-06	2.652972e-08	5.458298e+01	1.744844e+03
1.510000e-06	8.042926e-06	2.655422e-08	5.488545e+01	1.745903e+03
1.520000e-06	8.084334e-06	2.657294e-08	5.516802e+01	1.747088e+03
1.530000e-06	8.122827e-06	2.658738e-08	5.543069e+01	1.748381e+03
1.540000e-06	8.158623e-06	2.659924e-08	5.567497e+01	1.749671e+03
1.550000e-06	8.191555e-06	2.661056e-08	5.589970e+01	1.750802e+03
1.560000e-06	8.221600e-06	2.662405e-08	5.610473e+01	1.751644e+03
1.570000e-06	8.248763e-06	2.663962e-08	5.629009e+01	1.752152e+03
1.580000e-06	8.272928e-06	2.665327e-08	5.645499e+01	1.752381e+03
1.590000e-06	8.294233e-06	2.666459e-08	5.660038e+01	1.752463e+03
1.600000e-06	8.312686e-06	2.667328e-08	5.672631e+01	1.752546e+03
1.610000e-06	8.328126e-06	2.667871e-08	5.683167e+01	1.752736e+03
1.620000e-06	8.340405e-06	2.668089e-08	5.691546e+01	1.753051e+03
1.630000e-06	8.349458e-06	2.668104e-08	5.697724e+01	1.753419e+03
1.640000e-06	8.355544e-06	2.668263e-08	5.701877e+01	1.753716e+03
1.650000e-06	8.358689e-06	2.668578e-08	5.704024e+01	1.753816e+03
1.660000e-06	8.358874e-06	2.669224e-08	5.704150e+01	1.753651e+03
1.670000e-06	8.356365e-06	2.668624e-08	5.702437e+01	1.753233e+03
1.680000e-06	8.351060e-06	2.668644e-08	5.698817e+01	1.752644e+03
1.690000e-06	8.342916e-06	2.668568e-08	5.693260e+01	1.751995e+03
1.700000e-06	8.331926e-06	2.667715e-08	5.685760e+01	1.751374e+03
1.710000e-06	8.317994e-06	2.666913e-08	5.676253e+01	1.750808e+03
1.720000e-06	8.301383e-06	2.667194e-08	5.664917e+01	1.750250e+03
1.730000e-06	8.282332e-06	2.669287e-08	5.651917e+01	1.749604e+03
1.740000e-06	8.260554e-06	2.659282e-08	5.637056e+01	1.748774e+03
1.750000e-06	8.235376e-06	2.654528e-08	5.619874e+01	1.747704e+03
1.760000e-06	8.206275e-06	2.659870e-08	5.600015e+01	1.746411e+03
1.770000e-06	8.173656e-06	2.657520e-08	5.577756e+01	1.744976e+03
1.780000e-06	8.138451e-06	2.652468e-08	5.553732e+01	1.743512e+03
1.790000e-06	8.100840e-06	2.660554e-08	5.528066e+01	1.742119e+03
1.800000e-06	8.061126e-06	2.656361e-08	5.500964e+01	1.740838e+03
1.810000e-06	8.019397e-06	2.643502e-08	5.472488e+01	1.739645e+03
1.820000e-06	7.974820e-06	2.657124e-08	5.442069e+01	1.738457e+03
1.830000e-06	7.927412e-06	2.643811e-08	5.409717e+01	1.737175e+03
1.840000e-06	7.876999e-06	2.647277e-08	5.375315e+01	1.735722e+03
1.850000e-06	7.823176e-06	2.648386e-08	5.338586e+01	1.734070e+03
1.860000e-06	7.766520e-06	2.635227e-08	5.299923e+01	1.732241e+03
1.870000e-06	7.707091e-06	2.650293e-08	5.259369e+01	1.730281e+03
1.880000e-06	7.644934e-06	2.633964e-08	5.216952e+01	1.728226e+03
1.890000e-06	7.580059e-06	2.636226e-08	5.172681e+01	1.726071e+03
1.900000e-06	7.512315e-06	2.633836e-08	5.126452e+01	1.723765e+03
1.910000e-06	7.441761e-06	2.623810e-08	5.078306e+01	1.721231e+03
1.920000e-06	7.368255e-06	2.628160e-08	5.028145e+01	1.718403e+03
1.930000e-06	7.291916e-06	2.615553e-08	4.976051e+01	1.715263e+03
1.940000e-06	7.212777e-06	2.619147e-08	4.922046e+01	1.711861e+03
1.950000e-06	7.131125e-06	2.606573e-08	4.866326e+01	1.708299e+03
1.960000e-06	7.046996e-06	2.604613e-08	4.808915e+01	1.704696e+03
1.970000e-06	6.960123e-06	2.601723e-08	4.749633e+01	1.701131e+03
1.980000e-06	6.870843e-06	2.589434e-08	4.688708e+01	1.697607e+03
1.990000e-06	6.779233e-06	2.591954e-08	4.626192e+01	1.694042e+03
2.000000e-06	6.685212e-06	2.581126e-08	4.562032e+01	1.690297e+03
2.010000e-06	6.588796e-06	2.579578e-08	4.496237e+01	1.686228e+03
2.020000e-06	6.490090e-06	2.568745e-08	4.428879e+01	1.681753e+03
2.030000e-06	6.388999e-06	2.562723e-08	4.359894e+01	1.676885e+03
2.040000e-06	6.285508e-06	2.554794e-08	4.289272e+01	1.671729e+03
2.050000e-06	6.179870e-06	2.546470e-08	4.217183e+01	1.666443e+03
2.060000e-06	6.072096e-06	2.540637e-08	4.143638e+01	1.661167e+03
2.070000e-06	5.962201e-06	2.530629e-08	4.068645e+01	1.655963e+03
2.080000e-06	5.850049e-06	2.525360e-08	3.992111e+01	1.650779e+03
2.090000e-06	5.735589e-06	2.515097e-08	3.914003e+01	1.645467e+03
2.100000e-06	5.618797e-06	2.507958e-08	3.834304e+01	1.639840e+03
2.110000e-06	5.499830e-06	2.496698e-08	3.753119e+01	1.633747e+03
2.120000e-06	5.378926e-06	2.487562e-08	3.670614e+01	1.627137e+03
2.130000e-06	5.256147e-06	2.476846e-08	3.586829e+01	1.620077e+03
2.140000e-06	5.131516e-06	2.467130e-08	3.501780e+01	1.612729e+03
2.150000e-06	5.004970e-06	2.455564e-08	3.415424e+01	1.605271e+03
2.160000e-06	4.876610e-06	2.444069e-08	3.327830e+01	1.597820e+03
2.170000e-06	4.746598e-06	2.433435e-08	3.239109e+01	1.590376e+03
2.180000e-06	4.614921e-06	2.421696e-08	3.149252e+01	1.582811e+03
2.190000e-06	4.481599e-06	2.409690e-08	3.058272e+01	1.574920e+03
2.200000e-06	4.346682e-06	2.395794e-08	2.966204e+01	1.566503e+03
2.210000e-06	4.210134e-06	2.382700e-08	2.873023e+01	1.557451e+03
2.220000e-06	4.072012e-06	2.368192e-08	2.778767e+01	1.547792e+03
2.230000e-06	3.932273e-06	2.353930e-08	2.683409e+01	1.537679e+03
2.240000e-06	3.791077e-06	2.338158e-08	2.587055e+01	1.527326e+03
2.250000e-06	3.648457e-06	2.322996e-08	2.489731e+01	1.516904e+03
2.260000e-06	3.504453e-06	2.307430e-08	2.391462e+01	1.506465e+03
2.270000e-06	3.359259e-06	2.291512e-08	2.292380e+01	1.495901e+03
2.280000e-06	3.212907e-06	2.274163e-08	2.192508e+01	1.484982e+03
2.290000e-06	3.065387e-06	2.255951e-08	2.091840e+01	1.473440e+03
2.300000e-06	2.916726e-06	2.237010e-08	1.990393e+01	1.461083e+03
2.310000e-06	2.767102e-06	2.217512e-08	1.888288e+01	1.447873e+03
2.320000e-06	2.616523e-06	2.197418e-08	1.785532e+01	1.433945e+03
2.330000e-06	2.464972e-06	2.176249e-08	1.682113e+01	1.419549e+03
2.340000e-06	2.312537e-06	2.154719e-08	1.578090e+01	1.404935e+03
2.350000e-06	2.159270e-06	2.132468e-08	1.473500e+01	1.390236e+03
2.360000e-06	2.005177e-06	2.109465e-08	1.368346e+01	1.375391e+03
2.370000e-06	1.850387e-06	2.085177e-08	1.262716e+01	1.360144e+03
2.380000e-06	1.695033e-06	2.059934e-08	1.156701e+01	1.344138e+03
2.390000e-06	1.539034e-06	2.033612e-08	1.050247e+01	1.327045e+03
2.400000e-06	1.382390e-06	2.006199e-08	9.433516e+00	1.308705e+03
2.410000e-06	1.225265e-06	1.977598e-08	8.361285e+00	1.289187e+03
2.420000e-06	1.067742e-06	1.948043e-08	7.286339e+00	1.268759e+03
2.430000e-06	9.098823e-07	1.917456e-08	6.209096e+00	1.247765e+03
2.440000e-06	7.517418e-07	1.885558e-08	5.129935e+00	1.226448e+03
2.450000e-06	5.933048e-07	1.851627e-08	4.048750e+00	1.204802e+03
2.460000e-06	4.346240e-07	1.815828e-08	2.965902e+00	1.182507e+03
2.470000e-06	2.757895e-07	1.778349e-08	1.882005e+00	1.158985e+03
2.480000e-06	1.168288e-07	1.738881e-08	7.972472e-01	1.133567e+03
2.490000e-06	-4.220138e-08	1.697196e-08	-2.879849e-01	1.105705e+03
2.500000e-06	-2.011601e-07	1.652879e-08	-1.372729e+00	1.075140e+03
2.510000e-06	-3.599460e-07	1.605320e-08	-2.456295e+00	1.041956e+03
2.520000e-06	-5.185632e-07	1.553516e-08	-3.538709e+00	1.006464e+03
2.530000e-06	-6.769629e-07	1.496684e-08	-4.619638e+00	9.689409e+02
2.540000e-06	-8.350824e-07	1.434307e-08	-5.698656e+00	9.292983e+02
2.550000e-06	-9.928760e-07	1.366407e-08	-6.775450e+00	8.867815e+02
2.560000e-06	-1.150343e-06	1.291950e-08	-7.850018e+00	8.398115e+02
2.570000e-06	-1.307462e-06	1.208780e-08	-8.922206e+00	7.860390e+02
2.580000e-06	-1.464119e-06	1.114323e-08	-9.991243e+00	7.226190e+02
2.590000e-06	-1.620207e-06	1.004767e-08	-1.105640e+01	6.466521e+02
2.600000e-06	-1.775645e-06	8.745864e-09	-1.211711e+01	5.556931e+02
2.610000e-06	-1.930442e-06	7.168347e-09	-1.317346e+01	4.482128e+02
2.620000e-06	-2.084558e-06	5.244694e-09	-1.422516e+01	3.239186e+02
2.630000e-06	-2.237947e-06	2.980107e-09	-1.527189e+01	1.838852e+02
2.640000e-06	-2.390578e-06	5.193824e-10	-1.631346e+01	3.049560e+01
2.650000e-06	-2.542306e-06	-1.991926e-09	-1.734886e+01	-1.327675e+02
2.660000e-06	-2.693019e-06	-4.507214e-09	-1.837734e+01	-3.016213e+02
2.670000e-06	-2.842749e-06	-7.017266e-09	-1.939910e+01	-4.713223e+02
2.680000e-06	-2.991478e-06	-9.523273e-09	-2.041404e+01	-6.370128e+02
2.690000e-06	-3.139131e-06	-1.201648e-08	-2.142164e+01	-7.940631e+02
2.700000e-06	-3.285678e-06	-1.438427e-08	-2.242168e+01	-9.384050e+02
2.710000e-06	-3.431091e-06	-1.644408e-08	-2.341399e+01	-1.066849e+03
2.720000e-06	-3.575350e-06	-1.813002e-08	-2.439842e+01	-1.177354e+03
2.730000e-06	-3.718250e-06	-1.948593e-08	-2.537358e+01	-1.269206e+03
2.740000e-06	-3.859710e-06	-2.057031e-08	-2.633891e+01	-1.343051e+03
2.750000e-06	-3.999729e-06	-2.143585e-08	-2.729441e+01	-1.400741e+03
2.760000e-06	-4.138159e-06	-2.212690e-08	-2.823906e+01	-1.445012e+03
2.770000e-06	-4.275073e-06	-2.268114e-08	-2.917337e+01	-1.479020e+03
2.780000e-06	-4.410441e-06	-2.312905e-08	-3.009713e+01	-1.505844e+03
2.790000e-06	-4.544161e-06	-2.349410e-08	-3.100965e+01	-1.528054e+03
2.800000e-06	-4.676306e-06	-2.379665e-08	-3.191142e+01	-1.547445e+03
2.810000e-06	-4.806809e-06	-2.405513e-08	-3.280197e+01	-1.564983e+03
2.820000e-06	-4.935595e-06	-2.428125e-08	-3.368082e+01	-1.580950e+03
2.830000e-06	-5.062656e-06	-2.448111e-08	-3.454790e+01	-1.595227e+03
2.840000e-06	-5.187910e-06	-2.465723e-08	-3.540263e+01	-1.607609e+03
2.850000e-06	-5.311337e-06	-2.481420e-08	-3.624491e+01	-1.618057e+03
2.860000e-06	-5.432965e-06	-2.495580e-08	-3.707491e+01	-1.626803e+03
2.870000e-06	-5.552580e-06	-2.508649e-08	-3.789116e+01	-1.634323e+03
2.880000e-06	-5.669988e-06	-2.520480e-08	-3.869236e+01	-1.641185e+03
2.890000e-06	-5.785128e-06	-2.530780e-08	-3.947809e+01	-1.647868e+03
2.900000e-06	-5.897935e-06	-2.540234e-08	-4.024789e+01	-1.654625e+03
2.910000e-06	-6.008443e-06	-2.549339e-08	-4.100200e+01	-1.661434e+03
2.920000e-06	-6.116812e-06	-2.558158e-08	-4.174152e+01	-1.668066e+03
2.930000e-06	-6.223155e-06	-2.566579e-08	-4.246721e+01	-1.674217e+03
2.940000e-06	-6.327360e-06	-2.574539e-08	-4.317832e+01	-1.679663e+03
