# Temperatura_=_22.2
# Concentracion g/m^3_=_13400.0
# C_Vs_to_Am_M_A/Vsm_=_65563218390.804596
# pendiente_HvsI_1/m_=_3716.3
# ordenada_HvsI_A/m_=_1297.0
# frecuencia_Hz_=_300992.9258729732

Tiempo_(s)	Campo_(V.s)	Magnetizacion_(V.s)	Campo_(kA/m)	Magnetizacion_(A/m)
0.000000e+00	-2.861293e-06	-3.241710e-09	-1.978213e+01	-2.124449e+02
1.000000e-08	-2.860397e-06	-3.245379e-09	-1.977594e+01	-2.123398e+02
2.000000e-08	-2.858586e-06	-3.246656e-09	-1.976342e+01	-2.122145e+02
3.000000e-08	-2.855458e-06	-3.246289e-09	-1.974179e+01	-2.120887e+02
4.000000e-08	-2.851205e-06	-3.244841e-09	-1.971238e+01	-2.119646e+02
5.000000e-08	-2.846229e-06	-3.239735e-09	-1.967798e+01	-2.118256e+02
6.000000e-08	-2.840385e-06	-3.226001e-09	-1.963758e+01	-2.116419e+02
7.000000e-08	-2.833543e-06	-3.206974e-09	-1.959027e+01	-2.113814e+02
8.000000e-08	-2.825702e-06	-3.253891e-09	-1.953607e+01	-2.110226e+02
9.000000e-08	-2.816755e-06	-3.323498e-09	-1.947421e+01	-2.105642e+02
1.000000e-07	-2.806308e-06	-3.285161e-09	-1.940198e+01	-2.100272e+02
1.100000e-07	-2.794485e-06	-3.070854e-09	-1.932024e+01	-2.094501e+02
1.200000e-07	-2.781964e-06	-3.090328e-09	-1.923367e+01	-2.088775e+02
1.300000e-07	-2.768666e-06	-3.313242e-09	-1.914174e+01	-2.083458e+02
1.400000e-07	-2.754336e-06	-3.248582e-09	-1.904266e+01	-2.078724e+02
1.500000e-07	-2.739125e-06	-3.036287e-09	-1.893750e+01	-2.074501e+02
1.600000e-07	-2.722667e-06	-3.221757e-09	-1.882371e+01	-2.070494e+02
1.700000e-07	-2.704749e-06	-3.340380e-09	-1.869983e+01	-2.066273e+02
1.800000e-07	-2.686029e-06	-3.022918e-09	-1.857041e+01	-2.061404e+02
1.900000e-07	-2.666707e-06	-3.094560e-09	-1.843682e+01	-2.055559e+02
2.000000e-07	-2.646466e-06	-3.252231e-09	-1.829688e+01	-2.048593e+02
2.100000e-07	-2.625278e-06	-3.000473e-09	-1.815040e+01	-2.040560e+02
2.200000e-07	-2.603380e-06	-3.023401e-09	-1.799900e+01	-2.031659e+02
2.300000e-07	-2.580600e-06	-3.288278e-09	-1.784150e+01	-2.022155e+02
2.400000e-07	-2.556747e-06	-3.108743e-09	-1.767659e+01	-2.012289e+02
2.500000e-07	-2.532155e-06	-2.963051e-09	-1.750657e+01	-2.002209e+02
2.600000e-07	-2.506762e-06	-3.070737e-09	-1.733101e+01	-1.991953e+02
2.700000e-07	-2.480260e-06	-3.037665e-09	-1.714778e+01	-1.981462e+02
2.800000e-07	-2.452657e-06	-2.982171e-09	-1.695694e+01	-1.970634e+02
2.900000e-07	-2.424081e-06	-3.006978e-09	-1.675937e+01	-1.959374e+02
3.000000e-07	-2.394652e-06	-2.950960e-09	-1.655591e+01	-1.947642e+02
3.100000e-07	-2.364502e-06	-2.982348e-09	-1.634747e+01	-1.935467e+02
3.200000e-07	-2.333658e-06	-3.027122e-09	-1.613422e+01	-1.922933e+02
3.300000e-07	-2.301982e-06	-2.873010e-09	-1.591522e+01	-1.910148e+02
3.400000e-07	-2.269602e-06	-2.864324e-09	-1.569136e+01	-1.897207e+02
3.500000e-07	-2.236678e-06	-2.893622e-09	-1.546373e+01	-1.884159e+02
3.600000e-07	-2.202992e-06	-2.842912e-09	-1.523083e+01	-1.870996e+02
3.700000e-07	-2.168127e-06	-2.863867e-09	-1.498979e+01	-1.857659e+02
3.800000e-07	-2.132126e-06	-2.847234e-09	-1.474089e+01	-1.844057e+02
3.900000e-07	-2.095501e-06	-2.770628e-09	-1.448767e+01	-1.830092e+02
4.000000e-07	-2.058346e-06	-2.797846e-09	-1.423079e+01	-1.815688e+02
4.100000e-07	-2.020439e-06	-2.798700e-09	-1.396872e+01	-1.800801e+02
4.200000e-07	-1.981768e-06	-2.694814e-09	-1.370136e+01	-1.785425e+02
4.300000e-07	-1.942346e-06	-2.677498e-09	-1.342881e+01	-1.769590e+02
4.400000e-07	-1.902235e-06	-2.698416e-09	-1.315149e+01	-1.753349e+02
4.500000e-07	-1.861706e-06	-2.684201e-09	-1.287129e+01	-1.736760e+02
4.600000e-07	-1.820829e-06	-2.637319e-09	-1.258867e+01	-1.719877e+02
4.700000e-07	-1.779180e-06	-2.598656e-09	-1.230072e+01	-1.702728e+02
4.800000e-07	-1.736409e-06	-2.563709e-09	-1.200501e+01	-1.685314e+02
4.900000e-07	-1.692668e-06	-2.552700e-09	-1.170261e+01	-1.667599e+02
5.000000e-07	-1.648359e-06	-2.535247e-09	-1.139626e+01	-1.649524e+02
5.100000e-07	-1.603706e-06	-2.479211e-09	-1.108755e+01	-1.631016e+02
5.200000e-07	-1.558590e-06	-2.453411e-09	-1.077563e+01	-1.612007e+02
5.300000e-07	-1.512845e-06	-2.449482e-09	-1.045936e+01	-1.592459e+02
5.400000e-07	-1.466507e-06	-2.420279e-09	-1.013899e+01	-1.572370e+02
5.500000e-07	-1.419646e-06	-2.359851e-09	-9.815010e+00	-1.551783e+02
5.600000e-07	-1.372316e-06	-2.323792e-09	-9.487783e+00	-1.530767e+02
5.700000e-07	-1.324529e-06	-2.300253e-09	-9.157400e+00	-1.509402e+02
5.800000e-07	-1.276314e-06	-2.282550e-09	-8.824059e+00	-1.487747e+02
5.900000e-07	-1.227765e-06	-2.246352e-09	-8.488406e+00	-1.465822e+02
6.000000e-07	-1.178804e-06	-2.197132e-09	-8.149903e+00	-1.443594e+02
6.100000e-07	-1.129255e-06	-2.164220e-09	-7.807335e+00	-1.420985e+02
6.200000e-07	-1.079001e-06	-2.135844e-09	-7.459896e+00	-1.397895e+02
6.300000e-07	-1.028129e-06	-2.104134e-09	-7.108175e+00	-1.374225e+02
6.400000e-07	-9.767054e-07	-2.053512e-09	-6.752652e+00	-1.349909e+02
6.500000e-07	-9.247840e-07	-2.009962e-09	-6.393682e+00	-1.324927e+02
6.600000e-07	-8.725123e-07	-1.980868e-09	-6.032291e+00	-1.299300e+02
6.700000e-07	-8.199820e-07	-1.953082e-09	-5.669112e+00	-1.273082e+02
6.800000e-07	-7.672375e-07	-1.903598e-09	-5.304452e+00	-1.246330e+02
6.900000e-07	-7.141856e-07	-1.850994e-09	-4.937667e+00	-1.219084e+02
7.000000e-07	-6.607809e-07	-1.816836e-09	-4.568443e+00	-1.191353e+02
7.100000e-07	-6.071167e-07	-1.782584e-09	-4.197425e+00	-1.163108e+02
7.200000e-07	-5.533224e-07	-1.735138e-09	-3.825507e+00	-1.134299e+02
7.300000e-07	-4.993329e-07	-1.677919e-09	-3.452240e+00	-1.104865e+02
7.400000e-07	-4.451142e-07	-1.631521e-09	-3.077388e+00	-1.074748e+02
7.500000e-07	-3.907644e-07	-1.589721e-09	-2.701629e+00	-1.043904e+02
7.600000e-07	-3.363404e-07	-1.544177e-09	-2.325358e+00	-1.012302e+02
7.700000e-07	-2.818424e-07	-1.488609e-09	-1.948575e+00	-9.799219e+01
7.800000e-07	-2.272445e-07	-1.435200e-09	-1.571101e+00	-9.467448e+01
7.900000e-07	-1.726024e-07	-1.389539e-09	-1.193322e+00	-9.127578e+01
8.000000e-07	-1.179349e-07	-1.338657e-09	-8.153670e-01	-8.779543e+01
8.100000e-07	-6.324196e-08	-1.279908e-09	-4.372362e-01	-8.423409e+01
8.200000e-07	-8.517772e-09	-1.217752e-09	-5.888935e-02	-8.059395e+01
8.300000e-07	4.617001e-08	-1.164048e-09	3.192058e-01	-7.687820e+01
8.400000e-07	1.008191e-07	-1.110789e-09	6.970333e-01	-7.308950e+01
8.500000e-07	1.554688e-07	-1.052851e-09	1.074865e+00	-6.922803e+01
8.600000e-07	2.100511e-07	-9.877468e-10	1.452231e+00	-6.528960e+01
8.700000e-07	2.645809e-07	-9.253458e-10	1.829234e+00	-6.126501e+01
8.800000e-07	3.190853e-07	-8.685914e-10	2.206061e+00	-5.714096e+01
8.900000e-07	3.735080e-07	-8.061199e-10	2.582323e+00	-5.290274e+01
9.000000e-07	4.277968e-07	-7.358709e-10	2.957660e+00	-4.853758e+01
9.100000e-07	4.819232e-07	-6.650690e-10	3.331874e+00	-4.403764e+01
9.200000e-07	5.358950e-07	-5.999548e-10	3.705019e+00	-3.940118e+01
9.300000e-07	5.897138e-07	-5.288928e-10	4.077106e+00	-3.463136e+01
9.400000e-07	6.433175e-07	-4.514686e-10	4.447706e+00	-2.973269e+01
9.500000e-07	6.965946e-07	-3.717256e-10	4.816049e+00	-2.470649e+01
9.600000e-07	7.495615e-07	-2.939604e-10	5.182246e+00	-1.954686e+01
9.700000e-07	8.023091e-07	-2.149783e-10	5.546927e+00	-1.423909e+01
9.800000e-07	8.547707e-07	-1.299312e-10	5.909631e+00	-8.761036e+00
9.900000e-07	9.069116e-07	-3.966412e-11	6.270118e+00	-3.087488e+00
1.000000e-06	9.586418e-07	5.193503e-11	6.627765e+00	2.804089e+00
1.010000e-06	1.009881e-06	1.421295e-10	6.982016e+00	8.928313e+00
1.020000e-06	1.060522e-06	2.380171e-10	7.332134e+00	1.528896e+01
1.030000e-06	1.110476e-06	3.400674e-10	7.677501e+00	2.187919e+01
1.040000e-06	1.159876e-06	4.484743e-10	8.019035e+00	2.868444e+01
1.050000e-06	1.208791e-06	5.567434e-10	8.357220e+00	3.568638e+01
1.060000e-06	1.257345e-06	6.648653e-10	8.692908e+00	4.286576e+01
1.070000e-06	1.305639e-06	7.774318e-10	9.026798e+00	5.020263e+01
1.080000e-06	1.353574e-06	8.934679e-10	9.358212e+00	5.767331e+01
1.090000e-06	1.401044e-06	1.007097e-09	9.686402e+00	6.524537e+01
1.100000e-06	1.447931e-06	1.118334e-09	1.001056e+01	7.287290e+01
1.110000e-06	1.494305e-06	1.234909e-09	1.033118e+01	8.049458e+01
1.120000e-06	1.540204e-06	1.353166e-09	1.064851e+01	8.803654e+01
1.130000e-06	1.585562e-06	1.467921e-09	1.096210e+01	9.541997e+01
1.140000e-06	1.630436e-06	1.574272e-09	1.127235e+01	1.025720e+02
1.150000e-06	1.674955e-06	1.674749e-09	1.158014e+01	1.094365e+02
1.160000e-06	1.719157e-06	1.771237e-09	1.188574e+01	1.159812e+02
1.170000e-06	1.762729e-06	1.864986e-09	1.218699e+01	1.221991e+02
1.180000e-06	1.805314e-06	1.955467e-09	1.248140e+01	1.281029e+02
1.190000e-06	1.846820e-06	2.040999e-09	1.276836e+01	1.337154e+02
1.200000e-06	1.887605e-06	2.123523e-09	1.305034e+01	1.390580e+02
1.210000e-06	1.927960e-06	2.200975e-09	1.332934e+01	1.441420e+02
1.220000e-06	1.967716e-06	2.272974e-09	1.360420e+01	1.489655e+02
1.230000e-06	2.006776e-06	2.339195e-09	1.387425e+01	1.535167e+02
1.240000e-06	2.045181e-06	2.402146e-09	1.413977e+01	1.577813e+02
1.250000e-06	2.082813e-06	2.462577e-09	1.439995e+01	1.617523e+02
1.260000e-06	2.119742e-06	2.518516e-09	1.465527e+01	1.654361e+02
1.270000e-06	2.156201e-06	2.568949e-09	1.490733e+01	1.688544e+02
1.280000e-06	2.192033e-06	2.615148e-09	1.515506e+01	1.720396e+02
1.290000e-06	2.226833e-06	2.658677e-09	1.539567e+01	1.750265e+02
1.300000e-06	2.260491e-06	2.699002e-09	1.562837e+01	1.778430e+02
1.310000e-06	2.293317e-06	2.736504e-09	1.585532e+01	1.805036e+02
1.320000e-06	2.325509e-06	2.771102e-09	1.607788e+01	1.830088e+02
1.330000e-06	2.356938e-06	2.804411e-09	1.629517e+01	1.853500e+02
1.340000e-06	2.387585e-06	2.836368e-09	1.650706e+01	1.875184e+02
1.350000e-06	2.417432e-06	2.866237e-09	1.671341e+01	1.895132e+02
1.360000e-06	2.446453e-06	2.892559e-09	1.691405e+01	1.913474e+02
1.370000e-06	2.474882e-06	2.916907e-09	1.711060e+01	1.930470e+02
1.380000e-06	2.502535e-06	2.940641e-09	1.730179e+01	1.946446e+02
1.390000e-06	2.528957e-06	2.962671e-09	1.748446e+01	1.961699e+02
1.400000e-06	2.554195e-06	2.983396e-09	1.765895e+01	1.976406e+02
1.410000e-06	2.578528e-06	3.003168e-09	1.782718e+01	1.990574e+02
1.420000e-06	2.601993e-06	3.023681e-09	1.798941e+01	2.004058e+02
1.430000e-06	2.624568e-06	3.042669e-09	1.814548e+01	2.016635e+02
1.440000e-06	2.646247e-06	3.059278e-09	1.829536e+01	2.028109e+02
1.450000e-06	2.667143e-06	3.075893e-09	1.843983e+01	2.038404e+02
1.460000e-06	2.687392e-06	3.092245e-09	1.857983e+01	2.047618e+02
1.470000e-06	2.706720e-06	3.105056e-09	1.871346e+01	2.055998e+02
1.480000e-06	2.724931e-06	3.115400e-09	1.883936e+01	2.063860e+02
1.490000e-06	2.742276e-06	3.126550e-09	1.895928e+01	2.071486e+02
1.500000e-06	2.758673e-06	3.139153e-09	1.907265e+01	2.079018e+02
1.510000e-06	2.773849e-06	3.152196e-09	1.917757e+01	2.086421e+02
1.520000e-06	2.787907e-06	3.163340e-09	1.927476e+01	2.093502e+02
1.530000e-06	2.800997e-06	3.172619e-09	1.936526e+01	2.099995e+02
1.540000e-06	2.813091e-06	3.181482e-09	1.944888e+01	2.105673e+02
1.550000e-06	2.823847e-06	3.189182e-09	1.952324e+01	2.110442e+02
1.560000e-06	2.833264e-06	3.194810e-09	1.958834e+01	2.114383e+02
1.570000e-06	2.841783e-06	3.200370e-09	1.964725e+01	2.117721e+02
1.580000e-06	2.849451e-06	3.207160e-09	1.970026e+01	2.120742e+02
1.590000e-06	2.856171e-06	3.214617e-09	1.974672e+01	2.123680e+02
1.600000e-06	2.861881e-06	3.220770e-09	1.978619e+01	2.126624e+02
1.610000e-06	2.866687e-06	3.224088e-09	1.981943e+01	2.129487e+02
1.620000e-06	2.870645e-06	3.226449e-09	1.984679e+01	2.132038e+02
1.630000e-06	2.873343e-06	3.230885e-09	1.986544e+01	2.133997e+02
1.640000e-06	2.874747e-06	3.234831e-09	1.987515e+01	2.135145e+02
1.650000e-06	2.875232e-06	3.238479e-09	1.987850e+01	2.135414e+02
1.660000e-06	2.874895e-06	3.241395e-09	1.987617e+01	2.134916e+02
1.670000e-06	2.873664e-06	3.237592e-09	1.986766e+01	2.133899e+02
1.680000e-06	2.871472e-06	3.232005e-09	1.985250e+01	2.132653e+02
1.690000e-06	2.868440e-06	3.227833e-09	1.983155e+01	2.131386e+02
1.700000e-06	2.864694e-06	3.224653e-09	1.980565e+01	2.130144e+02
1.710000e-06	2.859917e-06	3.225236e-09	1.977262e+01	2.128779e+02
1.720000e-06	2.853940e-06	3.238995e-09	1.973129e+01	2.127002e+02
1.730000e-06	2.846998e-06	3.249417e-09	1.968330e+01	2.124488e+02
1.740000e-06	2.839227e-06	3.153922e-09	1.962957e+01	2.121007e+02
1.750000e-06	2.830213e-06	3.087368e-09	1.956726e+01	2.116519e+02
1.760000e-06	2.819414e-06	3.210484e-09	1.949259e+01	2.111213e+02
1.770000e-06	2.807404e-06	3.348766e-09	1.940956e+01	2.105460e+02
1.780000e-06	2.795410e-06	3.209617e-09	1.932664e+01	2.099705e+02
1.790000e-06	2.782981e-06	3.012713e-09	1.924070e+01	2.094328e+02
1.800000e-06	2.768720e-06	3.231809e-09	1.914211e+01	2.089527e+02
1.810000e-06	2.753076e-06	3.252760e-09	1.903395e+01	2.085256e+02
1.820000e-06	2.737130e-06	2.992843e-09	1.892370e+01	2.081240e+02
1.830000e-06	2.720195e-06	3.142657e-09	1.880662e+01	2.077061e+02
1.840000e-06	2.701748e-06	3.362771e-09	1.867909e+01	2.072275e+02
1.850000e-06	2.682614e-06	3.100558e-09	1.854680e+01	2.066541e+02
1.860000e-06	2.662874e-06	3.040409e-09	1.841032e+01	2.059693e+02
1.870000e-06	2.641776e-06	3.332785e-09	1.826446e+01	2.051762e+02
1.880000e-06	2.619545e-06	3.095350e-09	1.811076e+01	2.042938e+02
1.890000e-06	2.596487e-06	2.888264e-09	1.795134e+01	2.033482e+02
1.900000e-06	2.572281e-06	3.189421e-09	1.778399e+01	2.023641e+02
1.910000e-06	2.547296e-06	3.150261e-09	1.761125e+01	2.013577e+02
1.920000e-06	2.521660e-06	2.986008e-09	1.743401e+01	2.003337e+02
1.930000e-06	2.495051e-06	3.097076e-09	1.725005e+01	1.992872e+02
1.940000e-06	2.467803e-06	3.020402e-09	1.706166e+01	1.982081e+02
1.950000e-06	2.439860e-06	3.008177e-09	1.686847e+01	1.970867e+02
1.960000e-06	2.410519e-06	3.047514e-09	1.666562e+01	1.959181e+02
1.970000e-06	2.380004e-06	2.876410e-09	1.645464e+01	1.947047e+02
1.980000e-06	2.348823e-06	2.931891e-09	1.623906e+01	1.934542e+02
1.990000e-06	2.316888e-06	3.049303e-09	1.601828e+01	1.921775e+02
2.000000e-06	2.284265e-06	2.880775e-09	1.579273e+01	1.908844e+02
2.010000e-06	2.250848e-06	2.900046e-09	1.556170e+01	1.895803e+02
2.020000e-06	2.216534e-06	2.926643e-09	1.532446e+01	1.882650e+02
2.030000e-06	2.181634e-06	2.788355e-09	1.508317e+01	1.869332e+02
2.040000e-06	2.146151e-06	2.853972e-09	1.483785e+01	1.855758e+02
2.050000e-06	2.109892e-06	2.836459e-09	1.458717e+01	1.841833e+02
2.060000e-06	2.072713e-06	2.734493e-09	1.433012e+01	1.827475e+02
2.070000e-06	2.034407e-06	2.800771e-09	1.406528e+01	1.812636e+02
2.080000e-06	1.995316e-06	2.784629e-09	1.379503e+01	1.797308e+02
2.090000e-06	1.955751e-06	2.718743e-09	1.352148e+01	1.781516e+02
2.100000e-06	1.915521e-06	2.700917e-09	1.324334e+01	1.765311e+02
2.110000e-06	1.874646e-06	2.641554e-09	1.296074e+01	1.748753e+02
2.120000e-06	1.833173e-06	2.645000e-09	1.267401e+01	1.731896e+02
2.130000e-06	1.791073e-06	2.642578e-09	1.238295e+01	1.714771e+02
2.140000e-06	1.748386e-06	2.593861e-09	1.208782e+01	1.697382e+02
2.150000e-06	1.705237e-06	2.577123e-09	1.178951e+01	1.679699e+02
2.160000e-06	1.661675e-06	2.545165e-09	1.148833e+01	1.661662e+02
2.170000e-06	1.617545e-06	2.529017e-09	1.118322e+01	1.643199e+02
2.180000e-06	1.572748e-06	2.482105e-09	1.087351e+01	1.624243e+02
2.190000e-06	1.527344e-06	2.435058e-09	1.055960e+01	1.604749e+02
2.200000e-06	1.481419e-06	2.438745e-09	1.024209e+01	1.584713e+02
2.210000e-06	1.435110e-06	2.408989e-09	9.921923e+00	1.564172e+02
2.220000e-06	1.388322e-06	2.376604e-09	9.598446e+00	1.543194e+02
2.230000e-06	1.340917e-06	2.341471e-09	9.270701e+00	1.521859e+02
2.240000e-06	1.292872e-06	2.290158e-09	8.938535e+00	1.500230e+02
2.250000e-06	1.244217e-06	2.272087e-09	8.602148e+00	1.478331e+02
2.260000e-06	1.195132e-06	2.246210e-09	8.262789e+00	1.456134e+02
2.270000e-06	1.145696e-06	2.202840e-09	7.921000e+00	1.433567e+02
2.280000e-06	1.095840e-06	2.170040e-09	7.576310e+00	1.410529e+02
2.290000e-06	1.045510e-06	2.127139e-09	7.228344e+00	1.386921e+02
2.300000e-06	9.947635e-07	2.101700e-09	6.877500e+00	1.362673e+02
2.310000e-06	9.437043e-07	2.065994e-09	6.524491e+00	1.337757e+02
2.320000e-06	8.924036e-07	2.013772e-09	6.169814e+00	1.312193e+02
2.330000e-06	8.408731e-07	1.981320e-09	5.813547e+00	1.286032e+02
2.340000e-06	7.890024e-07	1.945405e-09	5.454929e+00	1.259331e+02
2.350000e-06	7.366357e-07	1.904469e-09	5.092881e+00	1.232133e+02
2.360000e-06	6.838107e-07	1.851387e-09	4.727664e+00	1.204450e+02
2.370000e-06	6.305757e-07	1.804092e-09	4.359613e+00	1.176259e+02
2.380000e-06	5.769209e-07	1.771995e-09	3.988660e+00	1.147509e+02
2.390000e-06	5.229066e-07	1.731293e-09	3.615221e+00	1.118141e+02
2.400000e-06	4.686072e-07	1.685886e-09	3.239811e+00	1.088095e+02
2.410000e-06	4.141179e-07	1.638264e-09	2.863088e+00	1.057327e+02
2.420000e-06	3.594694e-07	1.590100e-09	2.485264e+00	1.025804e+02
2.430000e-06	3.046964e-07	1.542708e-09	2.106580e+00	9.935039e+01
2.440000e-06	2.498318e-07	1.488296e-09	1.727263e+00	9.604090e+01
2.450000e-06	1.948612e-07	1.432796e-09	1.347213e+00	9.265052e+01
2.460000e-06	1.398326e-07	1.381108e-09	9.667611e-01	8.917852e+01
2.470000e-06	8.479797e-08	1.328543e-09	5.862680e-01	8.562539e+01
2.480000e-06	2.975260e-08	1.277840e-09	2.057006e-01	8.199316e+01
2.490000e-06	-2.533263e-08	1.222208e-09	-1.751423e-01	7.828496e+01
2.500000e-06	-8.043512e-08	1.163447e-09	-5.561045e-01	7.450361e+01
2.510000e-06	-1.354956e-07	1.106342e-09	-9.367761e-01	7.064966e+01
2.520000e-06	-1.905200e-07	1.045630e-09	-1.317199e+00	6.671944e+01
2.530000e-06	-2.454957e-07	9.816347e-10	-1.697284e+00	6.270426e+01
2.540000e-06	-3.003941e-07	9.151113e-10	-2.076836e+00	5.859118e+01
2.550000e-06	-3.551786e-07	8.540918e-10	-2.455600e+00	5.436547e+01
2.560000e-06	-4.098141e-07	7.928341e-10	-2.833333e+00	5.001400e+01
2.570000e-06	-4.643371e-07	7.231671e-10	-3.210289e+00	4.552829e+01
2.580000e-06	-5.186316e-07	6.497710e-10	-3.585665e+00	4.090598e+01
2.590000e-06	-5.725745e-07	5.770214e-10	-3.958610e+00	3.614982e+01
2.600000e-06	-6.261967e-07	5.023959e-10	-4.329338e+00	3.126441e+01
2.610000e-06	-6.794805e-07	4.240234e-10	-4.697727e+00	2.625161e+01
2.620000e-06	-7.323172e-07	3.445063e-10	-5.063024e+00	2.110643e+01
2.630000e-06	-7.846662e-07	2.639774e-10	-5.424949e+00	1.581509e+01
2.640000e-06	-8.365616e-07	1.834721e-10	-5.783739e+00	1.035609e+01
2.650000e-06	-8.881225e-07	1.004006e-10	-6.140215e+00	4.704266e+00
2.660000e-06	-9.394378e-07	1.214065e-11	-6.494994e+00	-1.163471e+00
2.670000e-06	-9.904579e-07	-8.280709e-11	-6.847732e+00	-7.262781e+00
2.680000e-06	-1.041140e-06	-1.802162e-10	-7.198136e+00	-1.359865e+01
2.690000e-06	-1.091447e-06	-2.780791e-10	-7.545942e+00	-2.016527e+01
2.700000e-06	-1.141302e-06	-3.810131e-10	-7.890623e+00	-2.694872e+01
2.710000e-06	-1.190738e-06	-4.896671e-10	-8.232408e+00	-3.393089e+01
2.720000e-06	-1.239694e-06	-5.992091e-10	-8.570878e+00	-4.109259e+01
2.730000e-06	-1.288124e-06	-7.074257e-10	-8.905707e+00	-4.841400e+01
2.740000e-06	-1.335766e-06	-8.207864e-10	-9.235090e+00	-5.587209e+01
2.750000e-06	-1.382487e-06	-9.392538e-10	-9.558108e+00	-6.343561e+01
2.760000e-06	-1.428633e-06	-1.057272e-09	-9.877147e+00	-7.106025e+01
2.770000e-06	-1.474380e-06	-1.171138e-09	-1.019342e+01	-7.868632e+01
2.780000e-06	-1.519807e-06	-1.285100e-09	-1.050749e+01	-8.624098e+01
2.790000e-06	-1.564880e-06	-1.400294e-09	-1.081912e+01	-9.364547e+01
2.800000e-06	-1.609388e-06	-1.511242e-09	-1.112683e+01	-1.008258e+02
2.810000e-06	-1.653242e-06	-1.617067e-09	-1.143002e+01	-1.077235e+02
2.820000e-06	-1.696658e-06	-1.718705e-09	-1.173019e+01	-1.143036e+02
2.830000e-06	-1.739750e-06	-1.817502e-09	-1.202811e+01	-1.205565e+02
2.840000e-06	-1.782393e-06	-1.911455e-09	-1.232293e+01	-1.264934e+02
2.850000e-06	-1.824417e-06	-1.997589e-09	-1.261348e+01	-1.321363e+02
2.860000e-06	-1.865798e-06	-2.075232e-09	-1.289958e+01	-1.375075e+02
2.870000e-06	-1.906600e-06	-2.149814e-09	-1.318167e+01	-1.426194e+02
2.880000e-06	-1.946703e-06	-2.225198e-09	-1.345893e+01	-1.474717e+02
2.890000e-06	-1.986158e-06	-2.299682e-09	-1.373171e+01	-1.520532e+02
2.900000e-06	-2.025114e-06	-2.368912e-09	-1.400104e+01	-1.563494e+02
2.910000e-06	-2.063367e-06	-2.433473e-09	-1.426551e+01	-1.603522e+02
2.920000e-06	-2.100626e-06	-2.494645e-09	-1.452310e+01	-1.640664e+02
2.930000e-06	-2.136829e-06	-2.548583e-09	-1.477340e+01	-1.675121e+02
2.940000e-06	-2.172244e-06	-2.595299e-09	-1.501825e+01	-1.707210e+02
