# Temperatura_=_30.35
# Concentracion g/m^3_=_13400.0
# C_Vs_to_Am_M_A/Vsm_=_65563218390.804596
# pendiente_HvsI_1/m_=_3716.3
# ordenada_HvsI_A/m_=_1297.0
# frecuencia_Hz_=_300977.40243236994

Tiempo_(s)	Campo_(V.s)	Magnetizacion_(V.s)	Campo_(kA/m)	Magnetizacion_(A/m)
0.000000e+00	-2.857588e-06	-3.324248e-09	-1.977976e+01	-2.178267e+02
1.000000e-08	-2.856616e-06	-3.327843e-09	-1.977304e+01	-2.177045e+02
2.000000e-08	-2.854643e-06	-3.327177e-09	-1.975938e+01	-2.175623e+02
3.000000e-08	-2.851303e-06	-3.325422e-09	-1.973627e+01	-2.174262e+02
4.000000e-08	-2.846918e-06	-3.323596e-09	-1.970591e+01	-2.173034e+02
5.000000e-08	-2.841800e-06	-3.317320e-09	-1.967049e+01	-2.171771e+02
6.000000e-08	-2.835850e-06	-3.301889e-09	-1.962930e+01	-2.170107e+02
7.000000e-08	-2.828915e-06	-3.291260e-09	-1.958130e+01	-2.167620e+02
8.000000e-08	-2.820937e-06	-3.357801e-09	-1.952607e+01	-2.163987e+02
9.000000e-08	-2.811818e-06	-3.412141e-09	-1.946296e+01	-2.159132e+02
1.000000e-07	-2.801203e-06	-3.318523e-09	-1.938948e+01	-2.153272e+02
1.100000e-07	-2.789290e-06	-3.108298e-09	-1.930702e+01	-2.146867e+02
1.200000e-07	-2.776669e-06	-3.210574e-09	-1.921965e+01	-2.140469e+02
1.300000e-07	-2.763238e-06	-3.436406e-09	-1.912669e+01	-2.134529e+02
1.400000e-07	-2.748844e-06	-3.247656e-09	-1.902706e+01	-2.129245e+02
1.500000e-07	-2.733631e-06	-3.111367e-09	-1.892175e+01	-2.124488e+02
1.600000e-07	-2.717110e-06	-3.359460e-09	-1.880740e+01	-2.119853e+02
1.700000e-07	-2.699119e-06	-3.363968e-09	-1.868287e+01	-2.114801e+02
1.800000e-07	-2.680405e-06	-3.079719e-09	-1.855333e+01	-2.108859e+02
1.900000e-07	-2.661050e-06	-3.247831e-09	-1.841936e+01	-2.101781e+02
2.000000e-07	-2.640683e-06	-3.328163e-09	-1.827839e+01	-2.093625e+02
2.100000e-07	-2.619427e-06	-3.017844e-09	-1.813125e+01	-2.084718e+02
2.200000e-07	-2.597435e-06	-3.148080e-09	-1.797903e+01	-2.075518e+02
2.300000e-07	-2.574446e-06	-3.379103e-09	-1.781990e+01	-2.066433e+02
2.400000e-07	-2.550473e-06	-3.135936e-09	-1.765397e+01	-2.057663e+02
2.500000e-07	-2.525797e-06	-3.067776e-09	-1.748316e+01	-2.049130e+02
2.600000e-07	-2.500248e-06	-3.179570e-09	-1.730632e+01	-2.040519e+02
2.700000e-07	-2.473551e-06	-3.104820e-09	-1.712153e+01	-2.031403e+02
2.800000e-07	-2.445762e-06	-3.096806e-09	-1.692918e+01	-2.021420e+02
2.900000e-07	-2.417094e-06	-3.078875e-09	-1.673074e+01	-2.010408e+02
3.000000e-07	-2.387614e-06	-3.016737e-09	-1.652668e+01	-1.998466e+02
3.100000e-07	-2.357392e-06	-3.096518e-09	-1.631749e+01	-1.985910e+02
3.200000e-07	-2.326484e-06	-3.100742e-09	-1.610355e+01	-1.973142e+02
3.300000e-07	-2.294731e-06	-2.952350e-09	-1.588376e+01	-1.960492e+02
3.400000e-07	-2.262246e-06	-2.979417e-09	-1.565891e+01	-1.948090e+02
3.500000e-07	-2.229268e-06	-2.970581e-09	-1.543063e+01	-1.935823e+02
3.600000e-07	-2.195560e-06	-2.913631e-09	-1.519732e+01	-1.923384e+02
3.700000e-07	-2.160612e-06	-2.982838e-09	-1.495541e+01	-1.910401e+02
3.800000e-07	-2.124487e-06	-2.923761e-09	-1.470536e+01	-1.896585e+02
3.900000e-07	-2.087809e-06	-2.841589e-09	-1.445148e+01	-1.881843e+02
4.000000e-07	-2.050589e-06	-2.901057e-09	-1.419385e+01	-1.866306e+02
4.100000e-07	-2.012548e-06	-2.880395e-09	-1.393053e+01	-1.850272e+02
4.200000e-07	-1.973746e-06	-2.759394e-09	-1.366195e+01	-1.834083e+02
4.300000e-07	-1.934216e-06	-2.762046e-09	-1.338834e+01	-1.817983e+02
4.400000e-07	-1.894034e-06	-2.784492e-09	-1.311020e+01	-1.802030e+02
4.500000e-07	-1.853460e-06	-2.761917e-09	-1.282935e+01	-1.786075e+02
4.600000e-07	-1.812521e-06	-2.725589e-09	-1.254598e+01	-1.769831e+02
4.700000e-07	-1.770838e-06	-2.678580e-09	-1.225746e+01	-1.752991e+02
4.800000e-07	-1.727984e-06	-2.646465e-09	-1.196083e+01	-1.735354e+02
4.900000e-07	-1.684155e-06	-2.637623e-09	-1.165745e+01	-1.716900e+02
5.000000e-07	-1.639824e-06	-2.613011e-09	-1.135060e+01	-1.697792e+02
5.100000e-07	-1.595133e-06	-2.553579e-09	-1.104126e+01	-1.678299e+02
5.200000e-07	-1.549969e-06	-2.536398e-09	-1.072864e+01	-1.658681e+02
5.300000e-07	-1.504235e-06	-2.522900e-09	-1.041207e+01	-1.639079e+02
5.400000e-07	-1.457915e-06	-2.490163e-09	-1.009146e+01	-1.619454e+02
5.500000e-07	-1.411046e-06	-2.440950e-09	-9.767034e+00	-1.599607e+02
5.600000e-07	-1.363714e-06	-2.395279e-09	-9.439412e+00	-1.579260e+02
5.700000e-07	-1.315866e-06	-2.371823e-09	-9.108210e+00	-1.558167e+02
5.800000e-07	-1.267579e-06	-2.362250e-09	-8.773979e+00	-1.536219e+02
5.900000e-07	-1.219001e-06	-2.325622e-09	-8.437731e+00	-1.513480e+02
6.000000e-07	-1.170030e-06	-2.264491e-09	-8.098757e+00	-1.490157e+02
6.100000e-07	-1.120492e-06	-2.231735e-09	-7.755869e+00	-1.466509e+02
6.200000e-07	-1.070234e-06	-2.205001e-09	-7.407990e+00	-1.442734e+02
6.300000e-07	-1.019313e-06	-2.170915e-09	-7.055522e+00	-1.418880e+02
6.400000e-07	-9.679028e-07	-2.118877e-09	-6.699668e+00	-1.394820e+02
6.500000e-07	-9.160503e-07	-2.075258e-09	-6.340754e+00	-1.370292e+02
6.600000e-07	-8.637711e-07	-2.049635e-09	-5.978885e+00	-1.345003e+02
6.700000e-07	-8.112110e-07	-2.019447e-09	-5.615073e+00	-1.318738e+02
6.800000e-07	-7.585040e-07	-1.969966e-09	-5.250243e+00	-1.291447e+02
6.900000e-07	-7.054566e-07	-1.914988e-09	-4.883057e+00	-1.263258e+02
7.000000e-07	-6.521226e-07	-1.878474e-09	-4.513888e+00	-1.234430e+02
7.100000e-07	-5.985929e-07	-1.839989e-09	-4.143364e+00	-1.205244e+02
7.200000e-07	-5.448313e-07	-1.792146e-09	-3.771235e+00	-1.175892e+02
7.300000e-07	-4.908770e-07	-1.736188e-09	-3.397772e+00	-1.146402e+02
7.400000e-07	-4.366667e-07	-1.688606e-09	-3.022537e+00	-1.116614e+02
7.500000e-07	-3.823152e-07	-1.648919e-09	-2.646325e+00	-1.086237e+02
7.600000e-07	-3.279233e-07	-1.606197e-09	-2.269832e+00	-1.054953e+02
7.700000e-07	-2.734616e-07	-1.550507e-09	-1.892858e+00	-1.022518e+02
7.800000e-07	-2.189000e-07	-1.491950e-09	-1.515191e+00	-9.888438e+01
7.900000e-07	-1.642759e-07	-1.442937e-09	-1.137091e+00	-9.540118e+01
8.000000e-07	-1.096310e-07	-1.390639e-09	-7.588479e-01	-9.182268e+01
8.100000e-07	-5.502587e-08	-1.331731e-09	-3.808803e-01	-8.817258e+01
8.200000e-07	-4.168647e-10	-1.267472e-09	-2.885470e-03	-8.446811e+01
8.300000e-07	5.426175e-08	-1.212985e-09	3.755911e-01	-8.071312e+01
8.400000e-07	1.089139e-07	-1.161888e-09	7.538847e-01	-7.689649e+01
8.500000e-07	1.635049e-07	-1.104037e-09	1.131755e+00	-7.299604e+01
8.600000e-07	2.180834e-07	-1.036790e-09	1.509538e+00	-6.898616e+01
8.700000e-07	2.726324e-07	-9.697890e-10	1.887118e+00	-6.484590e+01
8.800000e-07	3.271064e-07	-9.096598e-10	2.264178e+00	-6.056471e+01
8.900000e-07	3.814670e-07	-8.445929e-10	2.640453e+00	-5.614353e+01
9.000000e-07	4.356867e-07	-7.738421e-10	3.015753e+00	-5.159144e+01
9.100000e-07	4.897312e-07	-7.008458e-10	3.389841e+00	-4.691917e+01
9.200000e-07	5.435591e-07	-6.299783e-10	3.762429e+00	-4.213226e+01
9.300000e-07	5.972111e-07	-5.560288e-10	4.133800e+00	-3.722628e+01
9.400000e-07	6.506536e-07	-4.784572e-10	4.503720e+00	-3.218574e+01
9.500000e-07	7.037724e-07	-3.955017e-10	4.871400e+00	-2.698667e+01
9.600000e-07	7.565920e-07	-3.120106e-10	5.237009e+00	-2.160166e+01
9.700000e-07	8.092172e-07	-2.321334e-10	5.601272e+00	-1.600538e+01
9.800000e-07	8.616273e-07	-1.451268e-10	5.964046e+00	-1.017860e+01
9.900000e-07	9.137637e-07	-4.693093e-11	6.324926e+00	-4.109744e+00
1.000000e-06	9.655094e-07	5.544421e-11	6.683101e+00	2.206072e+00
1.010000e-06	1.016653e-06	1.525541e-10	7.037110e+00	8.769476e+00
1.020000e-06	1.067101e-06	2.515340e-10	7.386301e+00	1.557928e+01
1.030000e-06	1.116894e-06	3.587175e-10	7.730960e+00	2.263358e+01
1.040000e-06	1.166106e-06	4.748332e-10	8.071597e+00	2.992883e+01
1.050000e-06	1.214912e-06	5.919021e-10	8.409429e+00	3.745701e+01
1.060000e-06	1.263458e-06	7.092329e-10	8.745454e+00	4.520176e+01
1.070000e-06	1.311741e-06	8.304554e-10	9.079663e+00	5.313469e+01
1.080000e-06	1.359549e-06	9.552771e-10	9.410580e+00	6.121298e+01
1.090000e-06	1.406784e-06	1.078283e-09	9.737535e+00	6.937923e+01
1.100000e-06	1.453568e-06	1.198275e-09	1.006136e+01	7.756361e+01
1.110000e-06	1.499864e-06	1.320564e-09	1.038182e+01	8.568829e+01
1.120000e-06	1.545589e-06	1.443568e-09	1.069832e+01	9.367328e+01
1.130000e-06	1.590754e-06	1.565098e-09	1.101094e+01	1.014431e+02
1.140000e-06	1.635532e-06	1.678877e-09	1.132089e+01	1.089331e+02
1.150000e-06	1.680007e-06	1.784256e-09	1.162874e+01	1.160941e+02
1.160000e-06	1.723978e-06	1.884436e-09	1.193310e+01	1.228955e+02
1.170000e-06	1.767209e-06	1.981211e-09	1.223234e+01	1.293252e+02
1.180000e-06	1.809501e-06	2.074395e-09	1.252508e+01	1.353867e+02
1.190000e-06	1.850870e-06	2.161355e-09	1.281142e+01	1.410947e+02
1.200000e-06	1.891609e-06	2.243339e-09	1.309341e+01	1.464687e+02
1.210000e-06	1.931880e-06	2.321032e-09	1.337217e+01	1.515276e+02
1.220000e-06	1.971520e-06	2.392684e-09	1.364655e+01	1.562864e+02
1.230000e-06	2.010484e-06	2.458071e-09	1.391625e+01	1.607544e+02
1.240000e-06	2.048822e-06	2.518432e-09	1.418162e+01	1.649376e+02
1.250000e-06	2.086356e-06	2.575625e-09	1.444142e+01	1.688417e+02
1.260000e-06	2.123202e-06	2.629017e-09	1.469646e+01	1.724756e+02
1.270000e-06	2.159553e-06	2.679464e-09	1.494808e+01	1.758541e+02
1.280000e-06	2.195178e-06	2.726144e-09	1.519467e+01	1.789970e+02
1.290000e-06	2.229743e-06	2.768278e-09	1.543392e+01	1.819269e+02
1.300000e-06	2.263245e-06	2.806506e-09	1.566582e+01	1.846647e+02
1.310000e-06	2.295968e-06	2.842437e-09	1.589232e+01	1.872264e+02
1.320000e-06	2.328031e-06	2.875603e-09	1.611426e+01	1.896210e+02
1.330000e-06	2.359352e-06	2.907868e-09	1.633106e+01	1.918522e+02
1.340000e-06	2.389886e-06	2.938822e-09	1.654241e+01	1.939224e+02
1.350000e-06	2.419540e-06	2.966958e-09	1.674767e+01	1.958374e+02
1.360000e-06	2.448426e-06	2.991792e-09	1.694761e+01	1.976105e+02
1.370000e-06	2.476759e-06	3.014372e-09	1.714373e+01	1.992630e+02
1.380000e-06	2.504237e-06	3.037709e-09	1.733393e+01	2.008208e+02
1.390000e-06	2.530438e-06	3.059424e-09	1.751528e+01	2.023083e+02
1.400000e-06	2.555472e-06	3.079708e-09	1.768857e+01	2.037411e+02
1.410000e-06	2.579600e-06	3.100190e-09	1.785558e+01	2.051216e+02
1.420000e-06	2.602886e-06	3.119454e-09	1.801676e+01	2.064384e+02
1.430000e-06	2.625300e-06	3.137092e-09	1.817191e+01	2.076711e+02
1.440000e-06	2.646812e-06	3.153663e-09	1.832081e+01	2.087989e+02
1.450000e-06	2.667617e-06	3.170178e-09	1.846482e+01	2.098102e+02
1.460000e-06	2.687681e-06	3.185076e-09	1.860370e+01	2.107086e+02
1.470000e-06	2.706690e-06	3.197855e-09	1.873527e+01	2.115139e+02
1.480000e-06	2.724656e-06	3.210358e-09	1.885963e+01	2.122571e+02
1.490000e-06	2.741709e-06	3.222214e-09	1.897767e+01	2.129697e+02
1.500000e-06	2.757714e-06	3.233217e-09	1.908845e+01	2.136739e+02
1.510000e-06	2.772640e-06	3.243736e-09	1.919177e+01	2.143744e+02
1.520000e-06	2.786558e-06	3.253238e-09	1.928811e+01	2.150572e+02
1.530000e-06	2.799482e-06	3.262676e-09	1.937757e+01	2.156961e+02
1.540000e-06	2.811378e-06	3.272281e-09	1.945991e+01	2.162627e+02
1.550000e-06	2.821944e-06	3.281377e-09	1.953304e+01	2.167382e+02
1.560000e-06	2.831203e-06	3.289586e-09	1.959714e+01	2.171214e+02
1.570000e-06	2.839553e-06	3.296664e-09	1.965493e+01	2.174292e+02
1.580000e-06	2.847030e-06	3.302661e-09	1.970669e+01	2.176906e+02
1.590000e-06	2.853510e-06	3.307032e-09	1.975154e+01	2.179352e+02
1.600000e-06	2.859003e-06	3.309702e-09	1.978956e+01	2.181810e+02
1.610000e-06	2.863720e-06	3.311365e-09	1.982221e+01	2.184280e+02
1.620000e-06	2.867555e-06	3.315023e-09	1.984876e+01	2.186573e+02
1.630000e-06	2.870102e-06	3.321969e-09	1.986639e+01	2.188398e+02
1.640000e-06	2.871431e-06	3.327354e-09	1.987559e+01	2.189480e+02
1.650000e-06	2.871852e-06	3.329864e-09	1.987850e+01	2.189680e+02
1.660000e-06	2.871372e-06	3.329591e-09	1.987518e+01	2.189064e+02
1.670000e-06	2.869926e-06	3.322856e-09	1.986517e+01	2.187879e+02
1.680000e-06	2.867593e-06	3.317030e-09	1.984902e+01	2.186458e+02
1.690000e-06	2.864518e-06	3.314349e-09	1.982774e+01	2.185078e+02
1.700000e-06	2.860733e-06	3.314172e-09	1.980153e+01	2.183836e+02
1.710000e-06	2.855802e-06	3.318665e-09	1.976740e+01	2.182586e+02
1.720000e-06	2.849548e-06	3.338219e-09	1.972412e+01	2.180982e+02
1.730000e-06	2.842441e-06	3.331932e-09	1.967492e+01	2.178596e+02
1.740000e-06	2.834533e-06	3.217084e-09	1.962018e+01	2.175091e+02
1.750000e-06	2.825215e-06	3.174296e-09	1.955569e+01	2.170356e+02
1.760000e-06	2.814212e-06	3.357353e-09	1.947953e+01	2.164581e+02
1.770000e-06	2.802356e-06	3.433158e-09	1.939746e+01	2.158204e+02
1.780000e-06	2.790531e-06	3.245320e-09	1.931561e+01	2.151775e+02
1.790000e-06	2.777907e-06	3.108070e-09	1.922823e+01	2.145766e+02
1.800000e-06	2.763410e-06	3.359004e-09	1.912788e+01	2.140408e+02
1.810000e-06	2.747800e-06	3.288820e-09	1.901983e+01	2.135605e+02
1.820000e-06	2.731839e-06	3.026609e-09	1.890935e+01	2.130977e+02
1.830000e-06	2.714661e-06	3.288004e-09	1.879045e+01	2.125991e+02
1.840000e-06	2.696030e-06	3.386923e-09	1.866148e+01	2.120157e+02
1.850000e-06	2.676859e-06	3.062995e-09	1.852879e+01	2.113198e+02
1.860000e-06	2.657014e-06	3.161431e-09	1.839143e+01	2.105141e+02
1.870000e-06	2.635751e-06	3.412102e-09	1.824425e+01	2.096289e+02
1.880000e-06	2.613382e-06	3.071625e-09	1.808941e+01	2.087094e+02
1.890000e-06	2.590189e-06	2.973665e-09	1.792887e+01	2.077978e+02
1.900000e-06	2.565936e-06	3.270566e-09	1.776100e+01	2.069168e+02
1.910000e-06	2.540986e-06	3.161594e-09	1.758830e+01	2.060617e+02
1.920000e-06	2.515283e-06	3.044564e-09	1.741038e+01	2.052029e+02
1.930000e-06	2.488593e-06	3.160626e-09	1.722564e+01	2.042983e+02
1.940000e-06	2.461334e-06	3.056423e-09	1.703696e+01	2.033100e+02
1.950000e-06	2.433255e-06	3.108594e-09	1.684260e+01	2.022193e+02
1.960000e-06	2.403800e-06	3.106008e-09	1.663872e+01	2.010334e+02
1.970000e-06	2.373315e-06	2.900533e-09	1.642771e+01	1.997820e+02
1.980000e-06	2.342111e-06	3.030936e-09	1.621172e+01	1.985052e+02
1.990000e-06	2.310111e-06	3.091440e-09	1.599022e+01	1.972374e+02
2.000000e-06	2.277376e-06	2.919595e-09	1.576363e+01	1.959942e+02
2.010000e-06	2.243773e-06	3.002072e-09	1.553104e+01	1.947668e+02
2.020000e-06	2.209355e-06	2.970601e-09	1.529280e+01	1.935261e+02
2.030000e-06	2.174445e-06	2.835752e-09	1.505116e+01	1.922348e+02
2.040000e-06	2.138890e-06	2.958497e-09	1.480505e+01	1.908625e+02
2.050000e-06	2.102536e-06	2.897642e-09	1.455342e+01	1.893975e+02
2.060000e-06	2.065168e-06	2.788898e-09	1.429476e+01	1.878506e+02
2.070000e-06	2.026663e-06	2.872418e-09	1.402824e+01	1.862505e+02
2.080000e-06	1.987518e-06	2.839757e-09	1.375728e+01	1.846313e+02
2.090000e-06	1.947897e-06	2.784566e-09	1.348303e+01	1.830192e+02
2.100000e-06	1.907570e-06	2.756888e-09	1.320390e+01	1.814222e+02
2.110000e-06	1.866603e-06	2.701461e-09	1.292033e+01	1.798275e+02
2.120000e-06	1.825101e-06	2.723206e-09	1.263305e+01	1.782073e+02
2.130000e-06	1.783010e-06	2.711914e-09	1.234171e+01	1.765304e+02
2.140000e-06	1.740319e-06	2.657597e-09	1.204621e+01	1.747753e+02
2.150000e-06	1.697182e-06	2.639998e-09	1.174762e+01	1.729377e+02
2.160000e-06	1.653627e-06	2.603785e-09	1.144614e+01	1.710323e+02
2.170000e-06	1.609408e-06	2.585267e-09	1.114006e+01	1.690852e+02
2.180000e-06	1.564491e-06	2.546339e-09	1.082915e+01	1.671234e+02
2.190000e-06	1.518921e-06	2.509945e-09	1.051373e+01	1.651623e+02
2.200000e-06	1.472822e-06	2.501307e-09	1.019464e+01	1.632004e+02
2.210000e-06	1.426436e-06	2.464575e-09	9.873560e+00	1.612189e+02
2.220000e-06	1.379577e-06	2.451222e-09	9.549208e+00	1.591903e+02
2.230000e-06	1.332107e-06	2.404821e-09	9.220631e+00	1.570895e+02
2.240000e-06	1.284012e-06	2.347488e-09	8.887725e+00	1.549034e+02
2.250000e-06	1.235327e-06	2.339790e-09	8.550738e+00	1.526367e+02
2.260000e-06	1.186295e-06	2.312296e-09	8.211343e+00	1.503089e+02
2.270000e-06	1.136886e-06	2.268891e-09	7.869345e+00	1.479460e+02
2.280000e-06	1.087009e-06	2.229303e-09	7.524101e+00	1.455688e+02
2.290000e-06	1.036674e-06	2.188178e-09	7.175689e+00	1.431841e+02
2.300000e-06	9.859348e-07	2.167010e-09	6.824483e+00	1.407809e+02
2.310000e-06	9.348986e-07	2.128680e-09	6.471218e+00	1.383341e+02
2.320000e-06	8.836048e-07	2.078639e-09	6.116171e+00	1.358141e+02
2.330000e-06	8.320054e-07	2.047695e-09	5.759008e+00	1.331982e+02
2.340000e-06	7.800534e-07	2.010314e-09	5.399405e+00	1.304793e+02
2.350000e-06	7.277327e-07	1.971284e-09	5.037249e+00	1.276686e+02
2.360000e-06	6.749235e-07	1.917828e-09	4.671713e+00	1.247907e+02
2.370000e-06	6.216288e-07	1.869493e-09	4.302815e+00	1.218743e+02
2.380000e-06	5.679675e-07	1.834448e-09	3.931380e+00	1.189400e+02
2.390000e-06	5.139692e-07	1.792440e-09	3.557613e+00	1.159925e+02
2.400000e-06	4.596911e-07	1.750765e-09	3.181908e+00	1.130176e+02
2.410000e-06	4.052101e-07	1.700165e-09	2.804799e+00	1.099874e+02
2.420000e-06	3.505479e-07	1.651870e-09	2.426436e+00	1.068696e+02
2.430000e-06	2.957473e-07	1.607946e-09	2.047115e+00	1.036386e+02
2.440000e-06	2.409329e-07	1.556190e-09	1.667699e+00	1.002839e+02
2.450000e-06	1.860407e-07	1.500968e-09	1.287744e+00	9.681184e+01
2.460000e-06	1.310527e-07	1.445659e-09	9.071256e-01	9.324192e+01
2.470000e-06	7.607703e-08	1.394390e-09	5.265930e-01	8.959802e+01
2.480000e-06	2.110830e-08	1.344960e-09	1.461083e-01	8.589846e+01
2.490000e-06	-3.387917e-08	1.285481e-09	-2.345062e-01	8.214869e+01
2.500000e-06	-8.885970e-08	1.223830e-09	-6.150726e-01	7.833912e+01
2.510000e-06	-1.438320e-07	1.166779e-09	-9.955823e-01	7.444843e+01
2.520000e-06	-1.987920e-07	1.105069e-09	-1.376006e+00	7.045095e+01
2.530000e-06	-2.536840e-07	1.040612e-09	-1.755960e+00	6.632491e+01
2.540000e-06	-3.085092e-07	9.744431e-10	-2.135451e+00	6.205850e+01
2.550000e-06	-3.632396e-07	9.120760e-10	-2.514286e+00	5.765152e+01
2.560000e-06	-4.177848e-07	8.472214e-10	-2.891839e+00	5.311245e+01
2.570000e-06	-4.721699e-07	7.730843e-10	-3.268284e+00	4.845219e+01
2.580000e-06	-5.263051e-07	6.963224e-10	-3.642999e+00	4.367710e+01
2.590000e-06	-5.801449e-07	6.194262e-10	-4.015670e+00	3.878397e+01
2.600000e-06	-6.336834e-07	5.430677e-10	-4.386255e+00	3.375842e+01
2.610000e-06	-6.868027e-07	4.657973e-10	-4.753938e+00	2.857716e+01
2.620000e-06	-7.394712e-07	3.854519e-10	-5.118501e+00	2.321290e+01
2.630000e-06	-7.915956e-07	2.998263e-10	-5.479298e+00	1.763985e+01
2.640000e-06	-8.433362e-07	2.142270e-10	-5.837438e+00	1.183798e+01
2.650000e-06	-8.948191e-07	1.258751e-10	-6.193795e+00	5.794935e+00
2.660000e-06	-9.460311e-07	2.911846e-11	-6.548275e+00	-4.948039e-01
2.670000e-06	-9.969756e-07	-7.461097e-11	-6.900905e+00	-7.032186e+00
2.680000e-06	-1.047559e-06	-1.789442e-10	-7.251032e+00	-1.381613e+01
2.690000e-06	-1.097659e-06	-2.825346e-10	-7.597818e+00	-2.084482e+01
2.700000e-06	-1.147280e-06	-3.926014e-10	-7.941291e+00	-2.811500e+01
2.710000e-06	-1.196522e-06	-5.080982e-10	-8.282134e+00	-3.561929e+01
2.720000e-06	-1.245339e-06	-6.260288e-10	-8.620038e+00	-4.334242e+01
2.730000e-06	-1.293617e-06	-7.441266e-10	-8.954208e+00	-5.125743e+01
2.740000e-06	-1.341138e-06	-8.671167e-10	-9.283144e+00	-5.932311e+01
2.750000e-06	-1.387864e-06	-9.944064e-10	-9.606570e+00	-6.748355e+01
2.760000e-06	-1.434045e-06	-1.121677e-09	-9.926231e+00	-7.567008e+01
2.770000e-06	-1.479829e-06	-1.247349e-09	-1.024314e+01	-8.380546e+01
2.780000e-06	-1.525255e-06	-1.368945e-09	-1.055757e+01	-9.180963e+01
2.790000e-06	-1.570281e-06	-1.488443e-09	-1.086923e+01	-9.960633e+01
2.800000e-06	-1.614750e-06	-1.605179e-09	-1.117704e+01	-1.071294e+02
2.810000e-06	-1.658623e-06	-1.717615e-09	-1.148073e+01	-1.143279e+02
2.820000e-06	-1.701983e-06	-1.822270e-09	-1.178085e+01	-1.211692e+02
2.830000e-06	-1.744931e-06	-1.920545e-09	-1.207813e+01	-1.276392e+02
2.840000e-06	-1.787393e-06	-2.016115e-09	-1.237205e+01	-1.337401e+02
2.850000e-06	-1.829249e-06	-2.106272e-09	-1.266177e+01	-1.394856e+02
2.860000e-06	-1.870524e-06	-2.186320e-09	-1.294747e+01	-1.448948e+02
2.870000e-06	-1.911159e-06	-2.261157e-09	-1.322874e+01	-1.499872e+02
2.880000e-06	-1.951071e-06	-2.336818e-09	-1.350500e+01	-1.547780e+02
2.890000e-06	-1.990411e-06	-2.410200e-09	-1.377731e+01	-1.592774e+02
2.900000e-06	-2.029280e-06	-2.477964e-09	-1.404635e+01	-1.634913e+02
2.910000e-06	-2.067335e-06	-2.539072e-09	-1.430976e+01	-1.674254e+02
2.920000e-06	-2.104328e-06	-2.596146e-09	-1.456582e+01	-1.710882e+02
2.930000e-06	-2.140325e-06	-2.651052e-09	-1.481499e+01	-1.744936e+02
2.940000e-06	-2.175602e-06	-2.702360e-09	-1.505917e+01	-1.776612e+02
