# Temperatura_=_22.7
# Concentracion g/m^3_=_13400.0
# C_Vs_to_Am_M_A/Vsm_=_65563218390.804596
# pendiente_HvsI_1/m_=_3716.3
# ordenada_HvsI_A/m_=_1297.0
# frecuencia_Hz_=_300991.3534297669

Tiempo_(s)	Campo_(V.s)	Magnetizacion_(V.s)	Campo_(kA/m)	Magnetizacion_(A/m)
0.000000e+00	-2.859239e-06	-3.249323e-09	-1.977961e+01	-2.124518e+02
1.000000e-08	-2.858351e-06	-3.250616e-09	-1.977347e+01	-2.124335e+02
2.000000e-08	-2.856470e-06	-3.251164e-09	-1.976046e+01	-2.123979e+02
3.000000e-08	-2.853381e-06	-3.250949e-09	-1.973909e+01	-2.123432e+02
4.000000e-08	-2.849294e-06	-3.248322e-09	-1.971081e+01	-2.122570e+02
5.000000e-08	-2.844352e-06	-3.243790e-09	-1.967662e+01	-2.121197e+02
6.000000e-08	-2.838554e-06	-3.239671e-09	-1.963652e+01	-2.119103e+02
7.000000e-08	-2.831822e-06	-3.248098e-09	-1.958995e+01	-2.116149e+02
8.000000e-08	-2.824056e-06	-3.273421e-09	-1.953622e+01	-2.112331e+02
9.000000e-08	-2.815048e-06	-3.246822e-09	-1.947391e+01	-2.107807e+02
1.000000e-07	-2.804555e-06	-3.180508e-09	-1.940131e+01	-2.102866e+02
1.100000e-07	-2.792891e-06	-3.163389e-09	-1.932063e+01	-2.097847e+02
1.200000e-07	-2.780454e-06	-3.256292e-09	-1.923459e+01	-2.093039e+02
1.300000e-07	-2.767185e-06	-3.231928e-09	-1.914280e+01	-2.088584e+02
1.400000e-07	-2.752894e-06	-3.080708e-09	-1.904394e+01	-2.084429e+02
1.500000e-07	-2.737570e-06	-3.228481e-09	-1.893793e+01	-2.080333e+02
1.600000e-07	-2.721063e-06	-3.298073e-09	-1.882374e+01	-2.075940e+02
1.700000e-07	-2.703352e-06	-3.113832e-09	-1.870122e+01	-2.070885e+02
1.800000e-07	-2.684815e-06	-3.100525e-09	-1.857299e+01	-2.064903e+02
1.900000e-07	-2.665512e-06	-3.242021e-09	-1.843945e+01	-2.057904e+02
2.000000e-07	-2.645274e-06	-3.134495e-09	-1.829945e+01	-2.049990e+02
2.100000e-07	-2.624164e-06	-3.019195e-09	-1.815341e+01	-2.041409e+02
2.200000e-07	-2.602263e-06	-3.195975e-09	-1.800190e+01	-2.032464e+02
2.300000e-07	-2.579453e-06	-3.173064e-09	-1.784411e+01	-2.023412e+02
2.400000e-07	-2.555766e-06	-3.038960e-09	-1.768025e+01	-2.014384e+02
2.500000e-07	-2.531301e-06	-3.091873e-09	-1.751101e+01	-2.005351e+02
2.600000e-07	-2.505870e-06	-3.061501e-09	-1.733508e+01	-1.996150e+02
2.700000e-07	-2.479340e-06	-2.989870e-09	-1.715155e+01	-1.986555e+02
2.800000e-07	-2.451760e-06	-3.060050e-09	-1.696076e+01	-1.976362e+02
2.900000e-07	-2.423209e-06	-3.015640e-09	-1.676325e+01	-1.965463e+02
3.000000e-07	-2.393847e-06	-2.980434e-09	-1.656013e+01	-1.953877e+02
3.100000e-07	-2.363832e-06	-2.993936e-09	-1.635249e+01	-1.941744e+02
3.200000e-07	-2.333113e-06	-2.961492e-09	-1.613999e+01	-1.929261e+02
3.300000e-07	-2.301598e-06	-2.938658e-09	-1.592197e+01	-1.916612e+02
3.400000e-07	-2.269392e-06	-2.904965e-09	-1.569917e+01	-1.903905e+02
3.500000e-07	-2.236501e-06	-2.856217e-09	-1.547164e+01	-1.891140e+02
3.600000e-07	-2.202728e-06	-2.883446e-09	-1.523801e+01	-1.878215e+02
3.700000e-07	-2.167851e-06	-2.896229e-09	-1.499673e+01	-1.864969e+02
3.800000e-07	-2.131998e-06	-2.805061e-09	-1.474871e+01	-1.851251e+02
3.900000e-07	-2.095491e-06	-2.815708e-09	-1.449616e+01	-1.836967e+02
4.000000e-07	-2.058322e-06	-2.818628e-09	-1.423904e+01	-1.822115e+02
4.100000e-07	-2.020407e-06	-2.760158e-09	-1.397675e+01	-1.806775e+02
4.200000e-07	-1.981744e-06	-2.721900e-09	-1.370929e+01	-1.791072e+02
4.300000e-07	-1.942391e-06	-2.708805e-09	-1.343705e+01	-1.775126e+02
4.400000e-07	-1.902475e-06	-2.686412e-09	-1.316092e+01	-1.758999e+02
4.500000e-07	-1.862070e-06	-2.677900e-09	-1.288140e+01	-1.742681e+02
4.600000e-07	-1.821115e-06	-2.655563e-09	-1.259809e+01	-1.726084e+02
4.700000e-07	-1.779355e-06	-2.603466e-09	-1.230920e+01	-1.709088e+02
4.800000e-07	-1.736619e-06	-2.575569e-09	-1.201356e+01	-1.691582e+02
4.900000e-07	-1.693019e-06	-2.552623e-09	-1.171194e+01	-1.673507e+02
5.000000e-07	-1.648802e-06	-2.535022e-09	-1.140607e+01	-1.654880e+02
5.100000e-07	-1.604135e-06	-2.494381e-09	-1.109706e+01	-1.635785e+02
5.200000e-07	-1.558987e-06	-2.469381e-09	-1.078474e+01	-1.616345e+02
5.300000e-07	-1.513267e-06	-2.445601e-09	-1.046846e+01	-1.596673e+02
5.400000e-07	-1.466983e-06	-2.414701e-09	-1.014828e+01	-1.576837e+02
5.500000e-07	-1.420237e-06	-2.365499e-09	-9.824901e+00	-1.556831e+02
5.600000e-07	-1.372976e-06	-2.322531e-09	-9.497955e+00	-1.536586e+02
5.700000e-07	-1.325238e-06	-2.309409e-09	-9.167714e+00	-1.515987e+02
5.800000e-07	-1.277127e-06	-2.286276e-09	-8.834893e+00	-1.494922e+02
5.900000e-07	-1.228621e-06	-2.254701e-09	-8.499339e+00	-1.473309e+02
6.000000e-07	-1.179664e-06	-2.210189e-09	-8.160666e+00	-1.451120e+02
6.100000e-07	-1.130146e-06	-2.170969e-09	-7.818110e+00	-1.428381e+02
6.200000e-07	-1.079923e-06	-2.131095e-09	-7.470676e+00	-1.405144e+02
6.300000e-07	-1.029041e-06	-2.096444e-09	-7.118687e+00	-1.381456e+02
6.400000e-07	-9.776233e-07	-2.055649e-09	-6.762991e+00	-1.357330e+02
6.500000e-07	-9.257831e-07	-2.016746e-09	-6.404372e+00	-1.332730e+02
6.600000e-07	-8.736235e-07	-1.987930e-09	-6.043542e+00	-1.307578e+02
6.700000e-07	-8.211387e-07	-1.952849e-09	-5.680464e+00	-1.281778e+02
6.800000e-07	-7.683739e-07	-1.909415e-09	-5.315448e+00	-1.255255e+02
6.900000e-07	-7.153136e-07	-1.857311e-09	-4.948388e+00	-1.227984e+02
7.000000e-07	-6.619781e-07	-1.816231e-09	-4.579425e+00	-1.200001e+02
7.100000e-07	-6.083918e-07	-1.775467e-09	-4.208726e+00	-1.171393e+02
7.200000e-07	-5.545918e-07	-1.731805e-09	-3.836549e+00	-1.142269e+02
7.300000e-07	-5.006254e-07	-1.682523e-09	-3.463220e+00	-1.112711e+02
7.400000e-07	-4.465239e-07	-1.635185e-09	-3.088958e+00	-1.082740e+02
7.500000e-07	-3.922933e-07	-1.589714e-09	-2.713802e+00	-1.052299e+02
7.600000e-07	-3.379445e-07	-1.539309e-09	-2.337828e+00	-1.021255e+02
7.700000e-07	-2.835305e-07	-1.487691e-09	-1.961404e+00	-9.894381e+01
7.800000e-07	-2.290265e-07	-1.437449e-09	-1.584357e+00	-9.566912e+01
7.900000e-07	-1.744629e-07	-1.392326e-09	-1.206897e+00	-9.229143e+01
8.000000e-07	-1.198573e-07	-1.339550e-09	-8.291475e-01	-8.880959e+01
8.100000e-07	-6.521261e-08	-1.281891e-09	-4.511271e-01	-8.523124e+01
8.200000e-07	-1.057976e-08	-1.222343e-09	-7.318857e-02	-8.156972e+01
8.300000e-07	4.405450e-08	-1.166538e-09	3.047597e-01	-7.783899e+01
8.400000e-07	9.869187e-08	-1.111136e-09	6.827295e-01	-7.404811e+01
8.500000e-07	1.533077e-07	-1.053038e-09	1.060550e+00	-7.019724e+01
8.600000e-07	2.078990e-07	-9.941025e-10	1.438201e+00	-6.627658e+01
8.700000e-07	2.624346e-07	-9.333981e-10	1.815467e+00	-6.226848e+01
8.800000e-07	3.168927e-07	-8.732197e-10	2.192197e+00	-5.815210e+01
8.900000e-07	3.712463e-07	-8.062737e-10	2.568204e+00	-5.390896e+01
9.000000e-07	4.254955e-07	-7.369314e-10	2.943488e+00	-4.952729e+01
9.100000e-07	4.796482e-07	-6.680632e-10	3.318105e+00	-4.500386e+01
9.200000e-07	5.336632e-07	-6.008177e-10	3.691769e+00	-4.034239e+01
9.300000e-07	5.875116e-07	-5.299366e-10	4.064281e+00	-3.554935e+01
9.400000e-07	6.411095e-07	-4.532975e-10	4.435060e+00	-3.062865e+01
9.500000e-07	6.943591e-07	-3.751399e-10	4.803429e+00	-2.557710e+01
9.600000e-07	7.472882e-07	-2.956982e-10	5.169582e+00	-2.038253e+01
9.700000e-07	7.999281e-07	-2.164594e-10	5.533734e+00	-1.502500e+01
9.800000e-07	8.522784e-07	-1.314821e-10	5.895882e+00	-9.480997e+00
9.900000e-07	9.043981e-07	-4.246669e-11	6.256435e+00	-3.728827e+00
1.000000e-06	9.562422e-07	4.917566e-11	6.615082e+00	2.246543e+00
1.010000e-06	1.007649e-06	1.419838e-10	6.970700e+00	8.450905e+00
1.020000e-06	1.058470e-06	2.398163e-10	7.322274e+00	1.488118e+01
1.030000e-06	1.108590e-06	3.428678e-10	7.668990e+00	2.152823e+01
1.040000e-06	1.158025e-06	4.508232e-10	8.010971e+00	2.838054e+01
1.050000e-06	1.206926e-06	5.614106e-10	8.349261e+00	3.542689e+01
1.060000e-06	1.255455e-06	6.705156e-10	8.684974e+00	4.265631e+01
1.070000e-06	1.303705e-06	7.823966e-10	9.018758e+00	5.005501e+01
1.080000e-06	1.351659e-06	8.966597e-10	9.350494e+00	5.760098e+01
1.090000e-06	1.399161e-06	1.013008e-09	9.679099e+00	6.525852e+01
1.100000e-06	1.446108e-06	1.130505e-09	1.000387e+01	7.297483e+01
1.110000e-06	1.492552e-06	1.249602e-09	1.032516e+01	8.068088e+01
1.120000e-06	1.538449e-06	1.367204e-09	1.064266e+01	8.829702e+01
1.130000e-06	1.583768e-06	1.479729e-09	1.095617e+01	9.574244e+01
1.140000e-06	1.628599e-06	1.587069e-09	1.126630e+01	1.029459e+02
1.150000e-06	1.673033e-06	1.688982e-09	1.157369e+01	1.098550e+02
1.160000e-06	1.717085e-06	1.786135e-09	1.187843e+01	1.164408e+02
1.170000e-06	1.760516e-06	1.879765e-09	1.217888e+01	1.226968e+02
1.180000e-06	1.803074e-06	1.971513e-09	1.247328e+01	1.286334e+02
1.190000e-06	1.844686e-06	2.059985e-09	1.276115e+01	1.342685e+02
1.200000e-06	1.885483e-06	2.143563e-09	1.304337e+01	1.396185e+02
1.210000e-06	1.925744e-06	2.220353e-09	1.332189e+01	1.446926e+02
1.220000e-06	1.965459e-06	2.291347e-09	1.359663e+01	1.494909e+02
1.230000e-06	2.004498e-06	2.356186e-09	1.386670e+01	1.540078e+02
1.240000e-06	2.042887e-06	2.415590e-09	1.413226e+01	1.582376e+02
1.250000e-06	2.080598e-06	2.472866e-09	1.439314e+01	1.621813e+02
1.260000e-06	2.117599e-06	2.527543e-09	1.464910e+01	1.658496e+02
1.270000e-06	2.154016e-06	2.579532e-09	1.490103e+01	1.692630e+02
1.280000e-06	2.189875e-06	2.626208e-09	1.514909e+01	1.724482e+02
1.290000e-06	2.224826e-06	2.669533e-09	1.539088e+01	1.754310e+02
1.300000e-06	2.258612e-06	2.708420e-09	1.562460e+01	1.782315e+02
1.310000e-06	2.291449e-06	2.743607e-09	1.585176e+01	1.808598e+02
1.320000e-06	2.323571e-06	2.776452e-09	1.607397e+01	1.833176e+02
1.330000e-06	2.355000e-06	2.808192e-09	1.629139e+01	1.856021e+02
1.340000e-06	2.385674e-06	2.839973e-09	1.650359e+01	1.877126e+02
1.350000e-06	2.415485e-06	2.869832e-09	1.670982e+01	1.896559e+02
1.360000e-06	2.444507e-06	2.897015e-09	1.691058e+01	1.914489e+02
1.370000e-06	2.472895e-06	2.921534e-09	1.710697e+01	1.931169e+02
1.380000e-06	2.500510e-06	2.943795e-09	1.729800e+01	1.946885e+02
1.390000e-06	2.527018e-06	2.963101e-09	1.748137e+01	1.961886e+02
1.400000e-06	2.552351e-06	2.981608e-09	1.765662e+01	1.976318e+02
1.410000e-06	2.576667e-06	3.001167e-09	1.782484e+01	1.990201e+02
1.420000e-06	2.600095e-06	3.021509e-09	1.798690e+01	2.003442e+02
1.430000e-06	2.622699e-06	3.041464e-09	1.814328e+01	2.015889e+02
1.440000e-06	2.644436e-06	3.060995e-09	1.829365e+01	2.027404e+02
1.450000e-06	2.665338e-06	3.079651e-09	1.843825e+01	2.037931e+02
1.460000e-06	2.685465e-06	3.095498e-09	1.857748e+01	2.047522e+02
1.470000e-06	2.704707e-06	3.106955e-09	1.871059e+01	2.056332e+02
1.480000e-06	2.722986e-06	3.115438e-09	1.883704e+01	2.064563e+02
1.490000e-06	2.740288e-06	3.125409e-09	1.895673e+01	2.072404e+02
1.500000e-06	2.756547e-06	3.139021e-09	1.906921e+01	2.079962e+02
1.510000e-06	2.771722e-06	3.153603e-09	1.917418e+01	2.087239e+02
1.520000e-06	2.785815e-06	3.166385e-09	1.927168e+01	2.094139e+02
1.530000e-06	2.798902e-06	3.177347e-09	1.936221e+01	2.100515e+02
1.540000e-06	2.810955e-06	3.186926e-09	1.944559e+01	2.106232e+02
1.550000e-06	2.821785e-06	3.194237e-09	1.952051e+01	2.111220e+02
1.560000e-06	2.831350e-06	3.199258e-09	1.958668e+01	2.115498e+02
1.570000e-06	2.839888e-06	3.203556e-09	1.964574e+01	2.119165e+02
1.580000e-06	2.847515e-06	3.209454e-09	1.969851e+01	2.122355e+02
1.590000e-06	2.854187e-06	3.217056e-09	1.974466e+01	2.125185e+02
1.600000e-06	2.859912e-06	3.224643e-09	1.978427e+01	2.127713e+02
1.610000e-06	2.864741e-06	3.229617e-09	1.981767e+01	2.129927e+02
1.620000e-06	2.868635e-06	3.232755e-09	1.984461e+01	2.131764e+02
1.630000e-06	2.871411e-06	3.236182e-09	1.986381e+01	2.133152e+02
1.640000e-06	2.872988e-06	3.240035e-09	1.987473e+01	2.134057e+02
1.650000e-06	2.873534e-06	3.241870e-09	1.987850e+01	2.134510e+02
1.660000e-06	2.873184e-06	3.240734e-09	1.987608e+01	2.134600e+02
1.670000e-06	2.871921e-06	3.238656e-09	1.986734e+01	2.134438e+02
1.680000e-06	2.869742e-06	3.237893e-09	1.985227e+01	2.134099e+02
1.690000e-06	2.866771e-06	3.237785e-09	1.983172e+01	2.133576e+02
1.700000e-06	2.863034e-06	3.238820e-09	1.980586e+01	2.132757e+02
1.710000e-06	2.858288e-06	3.240879e-09	1.977303e+01	2.131448e+02
1.720000e-06	2.852368e-06	3.240427e-09	1.973208e+01	2.129440e+02
1.730000e-06	2.845426e-06	3.211900e-09	1.968406e+01	2.126580e+02
1.740000e-06	2.837559e-06	3.180773e-09	1.962963e+01	2.122850e+02
1.750000e-06	2.828433e-06	3.212180e-09	1.956650e+01	2.118390e+02
1.760000e-06	2.817841e-06	3.270429e-09	1.949323e+01	2.113477e+02
1.770000e-06	2.806267e-06	3.188269e-09	1.941316e+01	2.108451e+02
1.780000e-06	2.794398e-06	3.165539e-09	1.933105e+01	2.103609e+02
1.790000e-06	2.781808e-06	3.226494e-09	1.924396e+01	2.099115e+02
1.800000e-06	2.767704e-06	3.230886e-09	1.914639e+01	2.094936e+02
1.810000e-06	2.752394e-06	3.068936e-09	1.904048e+01	2.090849e+02
1.820000e-06	2.736337e-06	3.121150e-09	1.892940e+01	2.086506e+02
1.830000e-06	2.719208e-06	3.318443e-09	1.881091e+01	2.081537e+02
1.840000e-06	2.700879e-06	3.126454e-09	1.868411e+01	2.075662e+02
1.850000e-06	2.681756e-06	3.047991e-09	1.855182e+01	2.068770e+02
1.860000e-06	2.661814e-06	3.248540e-09	1.841387e+01	2.060944e+02
1.870000e-06	2.640732e-06	3.145053e-09	1.826803e+01	2.052419e+02
1.880000e-06	2.618556e-06	2.970142e-09	1.811462e+01	2.043499e+02
1.890000e-06	2.595413e-06	3.110596e-09	1.795452e+01	2.034450e+02
1.900000e-06	2.571325e-06	3.126246e-09	1.778788e+01	2.025417e+02
1.910000e-06	2.546478e-06	3.042315e-09	1.761599e+01	2.016390e+02
1.920000e-06	2.520826e-06	3.083931e-09	1.743854e+01	2.007218e+02
1.930000e-06	2.494288e-06	3.053651e-09	1.725496e+01	1.997676e+02
1.940000e-06	2.467017e-06	2.966850e-09	1.706630e+01	1.987554e+02
1.950000e-06	2.438885e-06	3.040971e-09	1.687169e+01	1.976731e+02
1.960000e-06	2.409644e-06	2.986499e-09	1.666941e+01	1.965214e+02
1.970000e-06	2.379366e-06	2.933421e-09	1.645995e+01	1.953130e+02
1.980000e-06	2.348191e-06	2.990053e-09	1.624429e+01	1.940674e+02
1.990000e-06	2.316246e-06	2.920811e-09	1.602330e+01	1.928035e+02
2.000000e-06	2.283600e-06	2.932704e-09	1.579746e+01	1.915333e+02
2.010000e-06	2.250171e-06	2.937176e-09	1.556621e+01	1.902577e+02
2.020000e-06	2.215961e-06	2.817453e-09	1.532955e+01	1.889676e+02
2.030000e-06	2.181096e-06	2.859602e-09	1.508836e+01	1.876472e+02
2.040000e-06	2.145603e-06	2.885292e-09	1.484283e+01	1.862810e+02
2.050000e-06	2.109373e-06	2.765704e-09	1.459220e+01	1.848589e+02
2.060000e-06	2.072230e-06	2.788059e-09	1.433525e+01	1.833795e+02
2.070000e-06	2.034111e-06	2.795524e-09	1.407155e+01	1.818501e+02
2.080000e-06	1.995155e-06	2.738309e-09	1.380206e+01	1.802830e+02
2.090000e-06	1.955519e-06	2.737569e-09	1.352787e+01	1.786905e+02
2.100000e-06	1.915254e-06	2.684935e-09	1.324932e+01	1.770797e+02
2.110000e-06	1.874357e-06	2.656534e-09	1.296641e+01	1.754501e+02
2.120000e-06	1.832835e-06	2.653994e-09	1.267916e+01	1.737940e+02
2.130000e-06	1.790729e-06	2.624856e-09	1.238789e+01	1.720993e+02
2.140000e-06	1.748083e-06	2.612036e-09	1.209287e+01	1.703545e+02
2.150000e-06	1.704934e-06	2.573084e-09	1.179437e+01	1.685531e+02
2.160000e-06	1.661311e-06	2.534382e-09	1.149260e+01	1.666959e+02
2.170000e-06	1.617127e-06	2.519515e-09	1.118694e+01	1.647909e+02
2.180000e-06	1.572307e-06	2.478233e-09	1.087689e+01	1.628499e+02
2.190000e-06	1.526906e-06	2.448714e-09	1.056281e+01	1.608848e+02
2.200000e-06	1.481002e-06	2.434621e-09	1.024526e+01	1.589028e+02
2.210000e-06	1.434653e-06	2.411057e-09	9.924624e+00	1.569043e+02
2.220000e-06	1.387859e-06	2.387422e-09	9.600914e+00	1.548827e+02
2.230000e-06	1.340508e-06	2.329324e-09	9.273352e+00	1.528272e+02
2.240000e-06	1.292513e-06	2.295687e-09	8.941328e+00	1.507261e+02
2.250000e-06	1.243971e-06	2.271748e-09	8.605529e+00	1.485709e+02
2.260000e-06	1.194968e-06	2.238497e-09	8.266537e+00	1.463581e+02
2.270000e-06	1.145532e-06	2.219304e-09	7.924551e+00	1.440899e+02
2.280000e-06	1.095729e-06	2.176922e-09	7.580019e+00	1.417712e+02
2.290000e-06	1.045540e-06	2.140668e-09	7.232825e+00	1.394070e+02
2.300000e-06	9.948848e-07	2.110165e-09	6.882403e+00	1.369992e+02
2.310000e-06	9.438209e-07	2.066750e-09	6.529153e+00	1.345446e+02
2.320000e-06	8.925084e-07	2.023732e-09	6.174184e+00	1.320357e+02
2.330000e-06	8.409143e-07	1.985036e-09	5.817267e+00	1.294630e+02
2.340000e-06	7.889726e-07	1.953968e-09	5.457945e+00	1.268187e+02
2.350000e-06	7.366846e-07	1.920933e-09	5.096228e+00	1.240995e+02
2.360000e-06	6.840155e-07	1.869588e-09	4.731875e+00	1.213084e+02
2.370000e-06	6.309305e-07	1.821430e-09	4.364644e+00	1.184538e+02
2.380000e-06	5.774367e-07	1.781812e-09	3.994585e+00	1.155464e+02
2.390000e-06	5.235810e-07	1.743217e-09	3.622023e+00	1.125950e+02
2.400000e-06	4.693713e-07	1.701370e-09	3.247011e+00	1.096025e+02
2.410000e-06	4.149913e-07	1.649604e-09	2.870822e+00	1.065638e+02
2.420000e-06	3.604535e-07	1.605872e-09	2.493541e+00	1.034666e+02
2.430000e-06	3.056717e-07	1.560830e-09	2.114572e+00	1.002940e+02
2.440000e-06	2.507601e-07	1.510163e-09	1.734706e+00	9.702990e+01
2.450000e-06	1.957679e-07	1.456582e-09	1.354281e+00	9.366344e+01
2.460000e-06	1.407526e-07	1.399851e-09	9.736965e-01	9.019250e+01
2.470000e-06	8.573293e-08	1.348611e-09	5.930823e-01	8.662389e+01
2.480000e-06	3.070430e-08	1.296265e-09	2.124058e-01	8.297054e+01
2.490000e-06	-2.434707e-08	1.240608e-09	-1.684279e-01	7.924664e+01
2.500000e-06	-7.942193e-08	1.181768e-09	-5.494241e-01	7.546198e+01
2.510000e-06	-1.345198e-07	1.121061e-09	-9.305792e-01	7.161781e+01
2.520000e-06	-1.895966e-07	1.059561e-09	-1.311589e+00	6.770534e+01
2.530000e-06	-2.446283e-07	9.973346e-10	-1.692287e+00	6.370756e+01
2.540000e-06	-2.995892e-07	9.338858e-10	-2.072495e+00	5.960372e+01
2.550000e-06	-3.543804e-07	8.720605e-10	-2.451529e+00	5.537483e+01
2.560000e-06	-4.089805e-07	8.096901e-10	-2.829240e+00	5.100829e+01
2.570000e-06	-4.633681e-07	7.418335e-10	-3.205483e+00	4.649993e+01
2.580000e-06	-5.174807e-07	6.699569e-10	-3.579822e+00	4.185292e+01
2.590000e-06	-5.712944e-07	5.934275e-10	-3.952094e+00	3.707367e+01
2.600000e-06	-6.247490e-07	5.157727e-10	-4.321881e+00	3.216661e+01
2.610000e-06	-6.777507e-07	4.375797e-10	-4.688536e+00	2.712948e+01
2.620000e-06	-7.303293e-07	3.602692e-10	-5.052264e+00	2.195104e+01
2.630000e-06	-7.825778e-07	2.809855e-10	-5.413707e+00	1.661204e+01
2.640000e-06	-8.344613e-07	1.984602e-10	-5.772626e+00	1.108911e+01
2.650000e-06	-8.860038e-07	1.124374e-10	-6.129187e+00	5.360078e+00
2.660000e-06	-9.373022e-07	2.015007e-11	-6.484058e+00	-5.909616e-01
2.670000e-06	-9.883220e-07	-7.710668e-11	-6.837003e+00	-6.770827e+00
2.680000e-06	-1.038963e-06	-1.775471e-10	-7.187330e+00	-1.317729e+01
2.690000e-06	-1.089187e-06	-2.762054e-10	-7.534763e+00	-1.980168e+01
2.700000e-06	-1.138971e-06	-3.763175e-10	-7.879159e+00	-2.663258e+01
2.710000e-06	-1.188314e-06	-4.819519e-10	-8.220505e+00	-3.365869e+01
2.720000e-06	-1.237140e-06	-5.920026e-10	-8.558273e+00	-4.086909e+01
2.730000e-06	-1.285345e-06	-7.036003e-10	-8.891742e+00	-4.825054e+01
2.740000e-06	-1.332733e-06	-8.179128e-10	-9.219563e+00	-5.578220e+01
2.750000e-06	-1.379378e-06	-9.360651e-10	-9.542248e+00	-6.343003e+01
2.760000e-06	-1.425534e-06	-1.054869e-09	-9.861540e+00	-7.114311e+01
2.770000e-06	-1.471287e-06	-1.172858e-09	-1.017805e+01	-7.885398e+01
2.780000e-06	-1.516744e-06	-1.290185e-09	-1.049251e+01	-8.648372e+01
2.790000e-06	-1.561793e-06	-1.405920e-09	-1.080416e+01	-9.395113e+01
2.800000e-06	-1.606301e-06	-1.516580e-09	-1.111205e+01	-1.011835e+02
2.810000e-06	-1.650240e-06	-1.623883e-09	-1.141601e+01	-1.081260e+02
2.820000e-06	-1.693732e-06	-1.726215e-09	-1.171688e+01	-1.147470e+02
2.830000e-06	-1.736852e-06	-1.822730e-09	-1.201518e+01	-1.210381e+02
2.840000e-06	-1.779485e-06	-1.914984e-09	-1.231010e+01	-1.270082e+02
2.850000e-06	-1.821498e-06	-2.003968e-09	-1.260074e+01	-1.326748e+02
2.860000e-06	-1.862919e-06	-2.087864e-09	-1.288728e+01	-1.380548e+02
2.870000e-06	-1.903735e-06	-2.165556e-09	-1.316963e+01	-1.431583e+02
2.880000e-06	-1.943858e-06	-2.239350e-09	-1.344720e+01	-1.479864e+02
2.890000e-06	-1.983411e-06	-2.309009e-09	-1.372082e+01	-1.525338e+02
2.900000e-06	-2.022418e-06	-2.375728e-09	-1.399066e+01	-1.567945e+02
2.910000e-06	-2.060626e-06	-2.439015e-09	-1.425497e+01	-1.607685e+02
2.920000e-06	-2.097780e-06	-2.499118e-09	-1.451200e+01	-1.644655e+02
2.930000e-06	-2.133955e-06	-2.555661e-09	-1.476225e+01	-1.679051e+02
2.940000e-06	-2.169403e-06	-2.608464e-09	-1.500747e+01	-1.711134e+02
