# Temperatura_=_30.08
# Concentracion g/m^3_=_13400.0
# C_Vs_to_Am_M_A/Vsm_=_65563218390.804596
# pendiente_HvsI_1/m_=_3716.3
# ordenada_HvsI_A/m_=_1297.0
# frecuencia_Hz_=_300980.52825989336

Tiempo_(s)	Campo_(V.s)	Magnetizacion_(V.s)	Campo_(kA/m)	Magnetizacion_(A/m)
0.000000e+00	-2.857236e-06	-3.326630e-09	-1.978285e+01	-2.168322e+02
1.000000e-08	-2.856125e-06	-3.327035e-09	-1.977516e+01	-2.167085e+02
2.000000e-08	-2.854001e-06	-3.324765e-09	-1.976045e+01	-2.165437e+02
3.000000e-08	-2.850669e-06	-3.320873e-09	-1.973739e+01	-2.163529e+02
4.000000e-08	-2.846344e-06	-3.315845e-09	-1.970744e+01	-2.161431e+02
5.000000e-08	-2.841218e-06	-3.311980e-09	-1.967195e+01	-2.159103e+02
6.000000e-08	-2.835182e-06	-3.311879e-09	-1.963016e+01	-2.156404e+02
7.000000e-08	-2.828165e-06	-3.325320e-09	-1.958157e+01	-2.153151e+02
8.000000e-08	-2.820140e-06	-3.340308e-09	-1.952601e+01	-2.149195e+02
9.000000e-08	-2.810902e-06	-3.303824e-09	-1.946205e+01	-2.144491e+02
1.000000e-07	-2.800232e-06	-3.229715e-09	-1.938817e+01	-2.139137e+02
1.100000e-07	-2.788356e-06	-3.237343e-09	-1.930595e+01	-2.133360e+02
1.200000e-07	-2.775644e-06	-3.313433e-09	-1.921793e+01	-2.127453e+02
1.300000e-07	-2.762095e-06	-3.283769e-09	-1.912412e+01	-2.121689e+02
1.400000e-07	-2.747628e-06	-3.182454e-09	-1.902395e+01	-2.116234e+02
1.500000e-07	-2.732211e-06	-3.281983e-09	-1.891721e+01	-2.111098e+02
1.600000e-07	-2.715526e-06	-3.313900e-09	-1.880169e+01	-2.106137e+02
1.700000e-07	-2.697580e-06	-3.162443e-09	-1.867743e+01	-2.101102e+02
1.800000e-07	-2.678822e-06	-3.185098e-09	-1.854756e+01	-2.095720e+02
1.900000e-07	-2.659328e-06	-3.270153e-09	-1.841258e+01	-2.089776e+02
2.000000e-07	-2.638908e-06	-3.161530e-09	-1.827120e+01	-2.083162e+02
2.100000e-07	-2.617602e-06	-3.105867e-09	-1.812368e+01	-2.075888e+02
2.200000e-07	-2.595501e-06	-3.228851e-09	-1.797066e+01	-2.068049e+02
2.300000e-07	-2.572437e-06	-3.201860e-09	-1.781097e+01	-2.059763e+02
2.400000e-07	-2.548439e-06	-3.114928e-09	-1.764481e+01	-2.051111e+02
2.500000e-07	-2.523717e-06	-3.128453e-09	-1.747365e+01	-2.042102e+02
2.600000e-07	-2.498158e-06	-3.110060e-09	-1.729668e+01	-2.032678e+02
2.700000e-07	-2.471474e-06	-3.079451e-09	-1.711193e+01	-2.022743e+02
2.800000e-07	-2.443673e-06	-3.092867e-09	-1.691944e+01	-2.012221e+02
2.900000e-07	-2.414962e-06	-3.037759e-09	-1.672065e+01	-2.001098e+02
3.000000e-07	-2.385471e-06	-3.031671e-09	-1.651646e+01	-1.989445e+02
3.100000e-07	-2.355274e-06	-3.053137e-09	-1.630738e+01	-1.977397e+02
3.200000e-07	-2.324292e-06	-3.008516e-09	-1.609287e+01	-1.965111e+02
3.300000e-07	-2.292497e-06	-2.992247e-09	-1.587273e+01	-1.952711e+02
3.400000e-07	-2.260023e-06	-2.955354e-09	-1.564788e+01	-1.940246e+02
3.500000e-07	-2.226983e-06	-2.901451e-09	-1.541913e+01	-1.927674e+02
3.600000e-07	-2.193129e-06	-2.931830e-09	-1.518473e+01	-1.914886e+02
3.700000e-07	-2.158106e-06	-2.940971e-09	-1.494224e+01	-1.901748e+02
3.800000e-07	-2.122066e-06	-2.857662e-09	-1.469270e+01	-1.888161e+02
3.900000e-07	-2.085379e-06	-2.866991e-09	-1.443869e+01	-1.874089e+02
4.000000e-07	-2.048112e-06	-2.881579e-09	-1.418066e+01	-1.859576e+02
4.100000e-07	-2.010109e-06	-2.812340e-09	-1.391754e+01	-1.844714e+02
4.200000e-07	-1.971323e-06	-2.767773e-09	-1.364899e+01	-1.829602e+02
4.300000e-07	-1.931740e-06	-2.763343e-09	-1.337493e+01	-1.814296e+02
4.400000e-07	-1.891541e-06	-2.748160e-09	-1.309660e+01	-1.798780e+02
4.500000e-07	-1.850963e-06	-2.730387e-09	-1.281565e+01	-1.782964e+02
4.600000e-07	-1.809944e-06	-2.707283e-09	-1.253164e+01	-1.766719e+02
4.700000e-07	-1.768170e-06	-2.665346e-09	-1.224240e+01	-1.749921e+02
4.800000e-07	-1.725387e-06	-2.639602e-09	-1.194619e+01	-1.732496e+02
4.900000e-07	-1.681684e-06	-2.613289e-09	-1.164360e+01	-1.714452e+02
5.000000e-07	-1.637333e-06	-2.582655e-09	-1.133652e+01	-1.695865e+02
5.100000e-07	-1.592545e-06	-2.549079e-09	-1.102642e+01	-1.676853e+02
5.200000e-07	-1.547320e-06	-2.524158e-09	-1.071329e+01	-1.657528e+02
5.300000e-07	-1.501567e-06	-2.501962e-09	-1.039651e+01	-1.637946e+02
5.400000e-07	-1.455224e-06	-2.473662e-09	-1.007564e+01	-1.618095e+02
5.500000e-07	-1.408301e-06	-2.427545e-09	-9.750756e+00	-1.597897e+02
5.600000e-07	-1.360838e-06	-2.383112e-09	-9.422131e+00	-1.577244e+02
5.700000e-07	-1.312920e-06	-2.366333e-09	-9.090360e+00	-1.556041e+02
5.800000e-07	-1.264669e-06	-2.339745e-09	-8.756278e+00	-1.534246e+02
5.900000e-07	-1.216109e-06	-2.299479e-09	-8.420061e+00	-1.511881e+02
6.000000e-07	-1.167109e-06	-2.260925e-09	-8.080797e+00	-1.489022e+02
6.100000e-07	-1.117638e-06	-2.228278e-09	-7.738271e+00	-1.465761e+02
6.200000e-07	-1.067512e-06	-2.191097e-09	-7.391210e+00	-1.442164e+02
6.300000e-07	-1.016604e-06	-2.151242e-09	-7.038736e+00	-1.418237e+02
6.400000e-07	-9.651504e-07	-2.108067e-09	-6.682483e+00	-1.393914e+02
6.500000e-07	-9.132583e-07	-2.067366e-09	-6.323194e+00	-1.369081e+02
6.600000e-07	-8.609918e-07	-2.037304e-09	-5.961312e+00	-1.343607e+02
6.700000e-07	-8.084646e-07	-2.002168e-09	-5.597625e+00	-1.317394e+02
6.800000e-07	-7.556989e-07	-1.959818e-09	-5.232288e+00	-1.290410e+02
6.900000e-07	-7.026110e-07	-1.912834e-09	-4.864719e+00	-1.262691e+02
7.000000e-07	-6.492565e-07	-1.870192e-09	-4.495305e+00	-1.234329e+02
7.100000e-07	-5.956937e-07	-1.827841e-09	-4.124448e+00	-1.205430e+02
7.200000e-07	-5.419719e-07	-1.780630e-09	-3.752491e+00	-1.176070e+02
7.300000e-07	-4.880530e-07	-1.728729e-09	-3.379169e+00	-1.146262e+02
7.400000e-07	-4.339016e-07	-1.679419e-09	-3.004236e+00	-1.115945e+02
7.500000e-07	-3.795871e-07	-1.635009e-09	-2.628175e+00	-1.085002e+02
7.600000e-07	-3.251342e-07	-1.587277e-09	-2.251155e+00	-1.053294e+02
7.700000e-07	-2.706105e-07	-1.536508e-09	-1.873645e+00	-1.020702e+02
7.800000e-07	-2.160549e-07	-1.485335e-09	-1.495915e+00	-9.871621e+01
7.900000e-07	-1.614438e-07	-1.434867e-09	-1.117800e+00	-9.526741e+01
8.000000e-07	-1.067880e-07	-1.379466e-09	-7.393757e-01	-9.172952e+01
8.100000e-07	-5.211334e-08	-1.320296e-09	-3.608210e-01	-8.811085e+01
8.200000e-07	2.552994e-09	-1.262221e-09	1.767635e-02	-8.441871e+01
8.300000e-07	5.718681e-08	-1.207623e-09	3.959485e-01	-8.065624e+01
8.400000e-07	1.118027e-07	-1.152778e-09	7.740966e-01	-7.682071e+01
8.500000e-07	1.664170e-07	-1.094243e-09	1.152234e+00	-7.290384e+01
8.600000e-07	2.209984e-07	-1.031545e-09	1.530143e+00	-6.889359e+01
8.700000e-07	2.754916e-07	-9.665024e-10	1.907442e+00	-6.477695e+01
8.800000e-07	3.299052e-07	-9.034797e-10	2.284189e+00	-6.054248e+01
8.900000e-07	3.842088e-07	-8.391184e-10	2.660175e+00	-5.618193e+01
9.000000e-07	4.383694e-07	-7.701471e-10	3.035170e+00	-5.169047e+01
9.100000e-07	4.924306e-07	-6.981848e-10	3.409478e+00	-4.706555e+01
9.200000e-07	5.463470e-07	-6.258414e-10	3.782783e+00	-4.230489e+01
9.300000e-07	5.999995e-07	-5.531152e-10	4.154260e+00	-3.740434e+01
9.400000e-07	6.533672e-07	-4.770690e-10	4.523767e+00	-3.235612e+01
9.500000e-07	7.064897e-07	-3.967097e-10	4.891574e+00	-2.714806e+01
9.600000e-07	7.594008e-07	-3.136466e-10	5.257919e+00	-2.176393e+01
9.700000e-07	8.120270e-07	-2.318270e-10	5.622291e+00	-1.618476e+01
9.800000e-07	8.643117e-07	-1.447756e-10	5.984298e+00	-1.039086e+01
9.900000e-07	9.163184e-07	-4.996771e-11	6.344381e+00	-4.364058e+00
1.000000e-06	9.679421e-07	4.987708e-11	6.701812e+00	1.910179e+00
1.010000e-06	1.018928e-06	1.514880e-10	7.054826e+00	8.441156e+00
1.020000e-06	1.069240e-06	2.531518e-10	7.403176e+00	1.523197e+01
1.030000e-06	1.119014e-06	3.584803e-10	7.747802e+00	2.227907e+01
1.040000e-06	1.168330e-06	4.690670e-10	8.089252e+00	2.957217e+01
1.050000e-06	1.217227e-06	5.854123e-10	8.427803e+00	3.709413e+01
1.060000e-06	1.265782e-06	7.045648e-10	8.763986e+00	4.482047e+01
1.070000e-06	1.314013e-06	8.253525e-10	9.097926e+00	5.271847e+01
1.080000e-06	1.361839e-06	9.490759e-10	9.429062e+00	6.074595e+01
1.090000e-06	1.409093e-06	1.073224e-09	9.756241e+00	6.885034e+01
1.100000e-06	1.455777e-06	1.196162e-09	1.007947e+01	7.696869e+01
1.110000e-06	1.501982e-06	1.317265e-09	1.039938e+01	8.502936e+01
1.120000e-06	1.547642e-06	1.435741e-09	1.071552e+01	9.295591e+01
1.130000e-06	1.592786e-06	1.550400e-09	1.102809e+01	1.006729e+02
1.140000e-06	1.637567e-06	1.663228e-09	1.133814e+01	1.081130e+02
1.150000e-06	1.681995e-06	1.772130e-09	1.164575e+01	1.152232e+02
1.160000e-06	1.725877e-06	1.874210e-09	1.194958e+01	1.219701e+02
1.170000e-06	1.768923e-06	1.969254e-09	1.224762e+01	1.283411e+02
1.180000e-06	1.811011e-06	2.060254e-09	1.253903e+01	1.343422e+02
1.190000e-06	1.852280e-06	2.148425e-09	1.282476e+01	1.399920e+02
1.200000e-06	1.892939e-06	2.230829e-09	1.310628e+01	1.453151e+02
1.210000e-06	1.933119e-06	2.305926e-09	1.338448e+01	1.503341e+02
1.220000e-06	1.972706e-06	2.373762e-09	1.365857e+01	1.550652e+02
1.230000e-06	2.011620e-06	2.438258e-09	1.392800e+01	1.595165e+02
1.240000e-06	2.049846e-06	2.499540e-09	1.419267e+01	1.636905e+02
1.250000e-06	2.087326e-06	2.558142e-09	1.445218e+01	1.675881e+02
1.260000e-06	2.124173e-06	2.611759e-09	1.470729e+01	1.712143e+02
1.270000e-06	2.160472e-06	2.662477e-09	1.495862e+01	1.745813e+02
1.280000e-06	2.196020e-06	2.709480e-09	1.520475e+01	1.777095e+02
1.290000e-06	2.230571e-06	2.750876e-09	1.544397e+01	1.806245e+02
1.300000e-06	2.264113e-06	2.786686e-09	1.567620e+01	1.833530e+02
1.310000e-06	2.296849e-06	2.818997e-09	1.590286e+01	1.859173e+02
1.320000e-06	2.328895e-06	2.852596e-09	1.612474e+01	1.883321e+02
1.330000e-06	2.360167e-06	2.888065e-09	1.634126e+01	1.906039e+02
1.340000e-06	2.390649e-06	2.921360e-09	1.655231e+01	1.927335e+02
1.350000e-06	2.420360e-06	2.950710e-09	1.675802e+01	1.947206e+02
1.360000e-06	2.449327e-06	2.978957e-09	1.695858e+01	1.965685e+02
1.370000e-06	2.477630e-06	3.005087e-09	1.715455e+01	1.982864e+02
1.380000e-06	2.504931e-06	3.027513e-09	1.734357e+01	1.998898e+02
1.390000e-06	2.530993e-06	3.046361e-09	1.752402e+01	2.013964e+02
1.400000e-06	2.556013e-06	3.064683e-09	1.769725e+01	2.028221e+02
1.410000e-06	2.580104e-06	3.084906e-09	1.786405e+01	2.041760e+02
1.420000e-06	2.603319e-06	3.105067e-09	1.802479e+01	2.054586e+02
1.430000e-06	2.625656e-06	3.123608e-09	1.817945e+01	2.066628e+02
1.440000e-06	2.647166e-06	3.141105e-09	1.832838e+01	2.077784e+02
1.450000e-06	2.667907e-06	3.158797e-09	1.847198e+01	2.087977e+02
1.460000e-06	2.687795e-06	3.175363e-09	1.860968e+01	2.097206e+02
1.470000e-06	2.706723e-06	3.188927e-09	1.874074e+01	2.105566e+02
1.480000e-06	2.724682e-06	3.199661e-09	1.886508e+01	2.113231e+02
1.490000e-06	2.741657e-06	3.208912e-09	1.898261e+01	2.120408e+02
1.500000e-06	2.757586e-06	3.218616e-09	1.909290e+01	2.127270e+02
1.510000e-06	2.772476e-06	3.229336e-09	1.919599e+01	2.133907e+02
1.520000e-06	2.786359e-06	3.241171e-09	1.929212e+01	2.140304e+02
1.530000e-06	2.799244e-06	3.253075e-09	1.938133e+01	2.146354e+02
1.540000e-06	2.810969e-06	3.263442e-09	1.946251e+01	2.151911e+02
1.550000e-06	2.821412e-06	3.270838e-09	1.953481e+01	2.156852e+02
1.560000e-06	2.830704e-06	3.276797e-09	1.959915e+01	2.161127e+02
1.570000e-06	2.839027e-06	3.282871e-09	1.965678e+01	2.164779e+02
1.580000e-06	2.846459e-06	3.288576e-09	1.970824e+01	2.167921e+02
1.590000e-06	2.852919e-06	3.292956e-09	1.975296e+01	2.170690e+02
1.600000e-06	2.858419e-06	3.297883e-09	1.979104e+01	2.173184e+02
1.610000e-06	2.863081e-06	3.302927e-09	1.982332e+01	2.175418e+02
1.620000e-06	2.866803e-06	3.307000e-09	1.984910e+01	2.177316e+02
1.630000e-06	2.869320e-06	3.309954e-09	1.986652e+01	2.178738e+02
1.640000e-06	2.870679e-06	3.312504e-09	1.987593e+01	2.179543e+02
1.650000e-06	2.871050e-06	3.314953e-09	1.987850e+01	2.179643e+02
1.660000e-06	2.870493e-06	3.314207e-09	1.987465e+01	2.179046e+02
1.670000e-06	2.869072e-06	3.311501e-09	1.986481e+01	2.177859e+02
1.680000e-06	2.866806e-06	3.309095e-09	1.984911e+01	2.176243e+02
1.690000e-06	2.863739e-06	3.307538e-09	1.982788e+01	2.174353e+02
1.700000e-06	2.859787e-06	3.306873e-09	1.980051e+01	2.172271e+02
1.710000e-06	2.854736e-06	3.304410e-09	1.976555e+01	2.169968e+02
1.720000e-06	2.848549e-06	3.295201e-09	1.972271e+01	2.167313e+02
1.730000e-06	2.841462e-06	3.263478e-09	1.967364e+01	2.164124e+02
1.740000e-06	2.833434e-06	3.247810e-09	1.961805e+01	2.160243e+02
1.750000e-06	2.823982e-06	3.284687e-09	1.955261e+01	2.155612e+02
1.760000e-06	2.812951e-06	3.329212e-09	1.947624e+01	2.150315e+02
1.770000e-06	2.801092e-06	3.260802e-09	1.939413e+01	2.144565e+02
1.780000e-06	2.789040e-06	3.227531e-09	1.931068e+01	2.138654e+02
1.790000e-06	2.776107e-06	3.287514e-09	1.922114e+01	2.132860e+02
1.800000e-06	2.761605e-06	3.244880e-09	1.912073e+01	2.127364e+02
1.810000e-06	2.746064e-06	3.126046e-09	1.901312e+01	2.122193e+02
1.820000e-06	2.729929e-06	3.204810e-09	1.890141e+01	2.117220e+02
1.830000e-06	2.712682e-06	3.317396e-09	1.878200e+01	2.112202e+02
1.840000e-06	2.694219e-06	3.165414e-09	1.865416e+01	2.106865e+02
1.850000e-06	2.675063e-06	3.123635e-09	1.852153e+01	2.100984e+02
1.860000e-06	2.655021e-06	3.275228e-09	1.838276e+01	2.094438e+02
1.870000e-06	2.633685e-06	3.188950e-09	1.823504e+01	2.087227e+02
1.880000e-06	2.611271e-06	3.068250e-09	1.807985e+01	2.079439e+02
1.890000e-06	2.587950e-06	3.162590e-09	1.791838e+01	2.071191e+02
1.900000e-06	2.563716e-06	3.154950e-09	1.775059e+01	2.062572e+02
1.910000e-06	2.538749e-06	3.106460e-09	1.757772e+01	2.053599e+02
1.920000e-06	2.512950e-06	3.127533e-09	1.739909e+01	2.044219e+02
1.930000e-06	2.486287e-06	3.085833e-09	1.721448e+01	2.034339e+02
1.940000e-06	2.458980e-06	3.069074e-09	1.702542e+01	2.023877e+02
1.950000e-06	2.430743e-06	3.112137e-09	1.682991e+01	2.012813e+02
1.960000e-06	2.401245e-06	3.021977e-09	1.662567e+01	2.001207e+02
1.970000e-06	2.370706e-06	2.989354e-09	1.641423e+01	1.989189e+02
1.980000e-06	2.339432e-06	3.035994e-09	1.619770e+01	1.976917e+02
1.990000e-06	2.307467e-06	2.971962e-09	1.597638e+01	1.964521e+02
2.000000e-06	2.274718e-06	2.994098e-09	1.574963e+01	1.952059e+02
2.010000e-06	2.241120e-06	3.003042e-09	1.551701e+01	1.939499e+02
2.020000e-06	2.206809e-06	2.891241e-09	1.527944e+01	1.926736e+02
2.030000e-06	2.171919e-06	2.917787e-09	1.503788e+01	1.913637e+02
2.040000e-06	2.136363e-06	2.937770e-09	1.479169e+01	1.900096e+02
2.050000e-06	2.100016e-06	2.828841e-09	1.454003e+01	1.886072e+02
2.060000e-06	2.062670e-06	2.837399e-09	1.428146e+01	1.871597e+02
2.070000e-06	2.024311e-06	2.863595e-09	1.401587e+01	1.856763e+02
2.080000e-06	1.985277e-06	2.815491e-09	1.374561e+01	1.841670e+02
2.090000e-06	1.945651e-06	2.796043e-09	1.347125e+01	1.826380e+02
2.100000e-06	1.905328e-06	2.756967e-09	1.319206e+01	1.810885e+02
2.110000e-06	1.864368e-06	2.729038e-09	1.290846e+01	1.795103e+02
2.120000e-06	1.822789e-06	2.721724e-09	1.262058e+01	1.778906e+02
2.130000e-06	1.780629e-06	2.689654e-09	1.232867e+01	1.762167e+02
2.140000e-06	1.737959e-06	2.671248e-09	1.203324e+01	1.744806e+02
2.150000e-06	1.694846e-06	2.645445e-09	1.173473e+01	1.726821e+02
2.160000e-06	1.651197e-06	2.608409e-09	1.143252e+01	1.708282e+02
2.170000e-06	1.606871e-06	2.586071e-09	1.112561e+01	1.689306e+02
2.180000e-06	1.561917e-06	2.557422e-09	1.081436e+01	1.670006e+02
2.190000e-06	1.516371e-06	2.521344e-09	1.049901e+01	1.650446e+02
2.200000e-06	1.470363e-06	2.493515e-09	1.018046e+01	1.630623e+02
2.210000e-06	1.423935e-06	2.474172e-09	9.859000e+00	1.610462e+02
2.220000e-06	1.376968e-06	2.446254e-09	9.533812e+00	1.589859e+02
2.230000e-06	1.329385e-06	2.394542e-09	9.204359e+00	1.568714e+02
2.240000e-06	1.281226e-06	2.364307e-09	8.870917e+00	1.546978e+02
2.250000e-06	1.232598e-06	2.340231e-09	8.534229e+00	1.524666e+02
2.260000e-06	1.183611e-06	2.303123e-09	8.195052e+00	1.501851e+02
2.270000e-06	1.134245e-06	2.275549e-09	7.853255e+00	1.478625e+02
2.280000e-06	1.084386e-06	2.237310e-09	7.508044e+00	1.455059e+02
2.290000e-06	1.034049e-06	2.202060e-09	7.159519e+00	1.431164e+02
2.300000e-06	9.833403e-07	2.168897e-09	6.808425e+00	1.406885e+02
2.310000e-06	9.323602e-07	2.126035e-09	6.455451e+00	1.382108e+02
2.320000e-06	8.811454e-07	2.084123e-09	6.100851e+00	1.356704e+02
2.330000e-06	8.296060e-07	2.043617e-09	5.744004e+00	1.330569e+02
2.340000e-06	7.776344e-07	2.006162e-09	5.384165e+00	1.303662e+02
2.350000e-06	7.252481e-07	1.969380e-09	5.021454e+00	1.276014e+02
2.360000e-06	6.724269e-07	1.923801e-09	4.655732e+00	1.247711e+02
2.370000e-06	6.191200e-07	1.876319e-09	4.286647e+00	1.218861e+02
2.380000e-06	5.654046e-07	1.832076e-09	3.914733e+00	1.189544e+02
2.390000e-06	5.113381e-07	1.790957e-09	3.540389e+00	1.159781e+02
2.400000e-06	4.570074e-07	1.748834e-09	3.164216e+00	1.129519e+02
2.410000e-06	4.025416e-07	1.699215e-09	2.787107e+00	1.098646e+02
2.420000e-06	3.478869e-07	1.652313e-09	2.408690e+00	1.067021e+02
2.430000e-06	2.931160e-07	1.603818e-09	2.029469e+00	1.034524e+02
2.440000e-06	2.383319e-07	1.551824e-09	1.650156e+00	1.001082e+02
2.450000e-06	1.834837e-07	1.498381e-09	1.270399e+00	9.666898e+01
2.460000e-06	1.285690e-07	1.441917e-09	8.901829e-01	9.313981e+01
2.470000e-06	7.360936e-08	1.388064e-09	5.096545e-01	8.952896e+01
2.480000e-06	1.866046e-08	1.333082e-09	1.292008e-01	8.584401e+01
2.490000e-06	-3.628776e-08	1.276556e-09	-2.512482e-01	8.208865e+01
2.500000e-06	-9.126434e-08	1.218375e-09	-6.318936e-01	7.826083e+01
2.510000e-06	-1.462257e-07	1.155122e-09	-1.012433e+00	7.435276e+01
2.520000e-06	-2.011694e-07	1.091183e-09	-1.392852e+00	7.035271e+01
2.530000e-06	-2.560789e-07	1.029352e-09	-1.773033e+00	6.624762e+01
2.540000e-06	-3.108661e-07	9.658060e-10	-2.152367e+00	6.202579e+01
2.550000e-06	-3.655543e-07	9.004635e-10	-2.531015e+00	5.767860e+01
2.560000e-06	-4.201473e-07	8.320599e-10	-2.909005e+00	5.320088e+01
2.570000e-06	-4.745929e-07	7.609988e-10	-3.285974e+00	4.858991e+01
2.580000e-06	-5.288299e-07	6.882525e-10	-3.661499e+00	4.384351e+01
2.590000e-06	-5.827126e-07	6.124157e-10	-4.034570e+00	3.895780e+01
2.600000e-06	-6.362187e-07	5.363734e-10	-4.405034e+00	3.392547e+01
2.610000e-06	-6.892620e-07	4.582855e-10	-4.772294e+00	2.873481e+01
2.620000e-06	-7.418262e-07	3.752149e-10	-5.136236e+00	2.336998e+01
2.630000e-06	-7.940447e-07	2.869889e-10	-5.497786e+00	1.781222e+01
2.640000e-06	-8.458798e-07	1.978162e-10	-5.856680e+00	1.204180e+01
2.650000e-06	-8.973317e-07	1.096818e-10	-6.212921e+00	6.040286e+00
2.660000e-06	-9.484973e-07	1.822782e-11	-6.567181e+00	-2.073305e-01
2.670000e-06	-9.993823e-07	-7.895172e-11	-6.919496e+00	-6.710976e+00
2.680000e-06	-1.049865e-06	-1.817935e-10	-7.269029e+00	-1.347444e+01
2.690000e-06	-1.099858e-06	-2.885097e-10	-7.615168e+00	-2.049489e+01
2.700000e-06	-1.149441e-06	-4.009180e-10	-7.958466e+00	-2.776277e+01
2.710000e-06	-1.198652e-06	-5.183001e-10	-8.299194e+00	-3.526168e+01
2.720000e-06	-1.247442e-06	-6.367175e-10	-8.637006e+00	-4.296797e+01
2.730000e-06	-1.295656e-06	-7.547085e-10	-8.970831e+00	-5.084986e+01
2.740000e-06	-1.343098e-06	-8.727721e-10	-9.299303e+00	-5.886623e+01
2.750000e-06	-1.389842e-06	-9.932840e-10	-9.622951e+00	-6.696566e+01
2.760000e-06	-1.436022e-06	-1.117180e-09	-9.942690e+00	-7.508625e+01
2.770000e-06	-1.481735e-06	-1.242548e-09	-1.025920e+01	-8.315715e+01
2.780000e-06	-1.527110e-06	-1.366542e-09	-1.057337e+01	-9.110219e+01
2.790000e-06	-1.572067e-06	-1.487806e-09	-1.088463e+01	-9.884552e+01
2.800000e-06	-1.616416e-06	-1.604557e-09	-1.119170e+01	-1.063185e+02
2.810000e-06	-1.660181e-06	-1.715808e-09	-1.149472e+01	-1.134665e+02
2.820000e-06	-1.703518e-06	-1.819433e-09	-1.179477e+01	-1.202537e+02
2.830000e-06	-1.746468e-06	-1.915124e-09	-1.209215e+01	-1.266655e+02
2.840000e-06	-1.788874e-06	-2.005665e-09	-1.238576e+01	-1.327059e+02
2.850000e-06	-1.830659e-06	-2.094031e-09	-1.267507e+01	-1.383927e+02
2.860000e-06	-1.871866e-06	-2.178735e-09	-1.296037e+01	-1.437500e+02
2.870000e-06	-1.912391e-06	-2.257484e-09	-1.324096e+01	-1.488011e+02
2.880000e-06	-1.952215e-06	-2.330473e-09	-1.351669e+01	-1.535629e+02
2.890000e-06	-1.991495e-06	-2.400454e-09	-1.378866e+01	-1.580445e+02
2.900000e-06	-2.030207e-06	-2.468636e-09	-1.405669e+01	-1.622486e+02
2.910000e-06	-2.068136e-06	-2.530278e-09	-1.431931e+01	-1.661762e+02
2.920000e-06	-2.105073e-06	-2.585641e-09	-1.457505e+01	-1.698314e+02
2.930000e-06	-2.141056e-06	-2.638968e-09	-1.482419e+01	-1.732258e+02
2.940000e-06	-2.176335e-06	-2.692202e-09	-1.506845e+01	-1.763788e+02
