# Temperatura_=_30.48
# Concentracion g/m^3_=_13400.0
# C_Vs_to_Am_M_A/Vsm_=_65563218390.804596
# pendiente_HvsI_1/m_=_3716.3
# ordenada_HvsI_A/m_=_1297.0
# frecuencia_Hz_=_300977.4753085714

Tiempo_(s)	Campo_(V.s)	Magnetizacion_(V.s)	Campo_(kA/m)	Magnetizacion_(A/m)
0.000000e+00	-2.859192e-06	-3.291242e-09	-1.978678e+01	-2.166357e+02
1.000000e-08	-2.858739e-06	-3.291220e-09	-1.978365e+01	-2.165035e+02
2.000000e-08	-2.857535e-06	-3.293388e-09	-1.977532e+01	-2.163158e+02
3.000000e-08	-2.855210e-06	-3.292895e-09	-1.975923e+01	-2.161099e+02
4.000000e-08	-2.851594e-06	-3.289280e-09	-1.973420e+01	-2.159168e+02
5.000000e-08	-2.847079e-06	-3.283215e-09	-1.970296e+01	-2.157477e+02
6.000000e-08	-2.841804e-06	-3.275480e-09	-1.966645e+01	-2.155878e+02
7.000000e-08	-2.835625e-06	-3.259339e-09	-1.962369e+01	-2.154003e+02
8.000000e-08	-2.828464e-06	-3.261850e-09	-1.957413e+01	-2.151394e+02
9.000000e-08	-2.820236e-06	-3.339176e-09	-1.951720e+01	-2.147685e+02
1.000000e-07	-2.810709e-06	-3.371899e-09	-1.945126e+01	-2.142763e+02
1.100000e-07	-2.799608e-06	-3.231074e-09	-1.937444e+01	-2.136846e+02
1.200000e-07	-2.787427e-06	-3.067390e-09	-1.929015e+01	-2.130441e+02
1.300000e-07	-2.774632e-06	-3.235502e-09	-1.920159e+01	-2.124193e+02
1.400000e-07	-2.760955e-06	-3.407911e-09	-1.910694e+01	-2.118670e+02
1.500000e-07	-2.746327e-06	-3.144262e-09	-1.900572e+01	-2.114162e+02
1.600000e-07	-2.730813e-06	-3.122914e-09	-1.889835e+01	-2.110567e+02
1.700000e-07	-2.713870e-06	-3.393747e-09	-1.878110e+01	-2.107408e+02
1.800000e-07	-2.695578e-06	-3.277893e-09	-1.865451e+01	-2.103978e+02
1.900000e-07	-2.676650e-06	-3.073774e-09	-1.852352e+01	-2.099562e+02
2.000000e-07	-2.656995e-06	-3.279594e-09	-1.838750e+01	-2.093666e+02
2.100000e-07	-2.636381e-06	-3.260277e-09	-1.824484e+01	-2.086162e+02
2.200000e-07	-2.614960e-06	-2.993388e-09	-1.809660e+01	-2.077310e+02
2.300000e-07	-2.592717e-06	-3.206500e-09	-1.794267e+01	-2.067649e+02
2.400000e-07	-2.569445e-06	-3.338517e-09	-1.778162e+01	-2.057795e+02
2.500000e-07	-2.545261e-06	-3.079160e-09	-1.761425e+01	-2.048229e+02
2.600000e-07	-2.520427e-06	-3.070045e-09	-1.744239e+01	-2.039140e+02
2.700000e-07	-2.494684e-06	-3.159621e-09	-1.726424e+01	-2.030384e+02
2.800000e-07	-2.467705e-06	-3.084600e-09	-1.707753e+01	-2.021568e+02
2.900000e-07	-2.439672e-06	-3.093712e-09	-1.688353e+01	-2.012211e+02
3.000000e-07	-2.410740e-06	-3.031933e-09	-1.668331e+01	-2.001930e+02
3.100000e-07	-2.380954e-06	-3.015246e-09	-1.647718e+01	-1.990576e+02
3.200000e-07	-2.350536e-06	-3.117729e-09	-1.626667e+01	-1.978273e+02
3.300000e-07	-2.319421e-06	-3.039786e-09	-1.605135e+01	-1.965351e+02
3.400000e-07	-2.287441e-06	-2.936970e-09	-1.583003e+01	-1.952207e+02
3.500000e-07	-2.254848e-06	-2.995954e-09	-1.560448e+01	-1.939152e+02
3.600000e-07	-2.221728e-06	-2.940557e-09	-1.537527e+01	-1.926300e+02
3.700000e-07	-2.187625e-06	-2.910830e-09	-1.513927e+01	-1.913543e+02
3.800000e-07	-2.152183e-06	-2.993689e-09	-1.489399e+01	-1.900613e+02
3.900000e-07	-2.115818e-06	-2.878986e-09	-1.464233e+01	-1.887204e+02
4.000000e-07	-2.079016e-06	-2.835471e-09	-1.438765e+01	-1.873097e+02
4.100000e-07	-2.041590e-06	-2.920313e-09	-1.412864e+01	-1.858245e+02
4.200000e-07	-2.003363e-06	-2.852355e-09	-1.386409e+01	-1.842783e+02
4.300000e-07	-1.964386e-06	-2.749713e-09	-1.359436e+01	-1.826954e+02
4.400000e-07	-1.924659e-06	-2.781276e-09	-1.331943e+01	-1.811006e+02
4.500000e-07	-1.884356e-06	-2.785422e-09	-1.304052e+01	-1.795084e+02
4.600000e-07	-1.843748e-06	-2.746626e-09	-1.275949e+01	-1.779166e+02
4.700000e-07	-1.802701e-06	-2.712595e-09	-1.247543e+01	-1.763074e+02
4.800000e-07	-1.760700e-06	-2.662142e-09	-1.218477e+01	-1.746550e+02
4.900000e-07	-1.717512e-06	-2.644027e-09	-1.188589e+01	-1.729351e+02
5.000000e-07	-1.673473e-06	-2.637196e-09	-1.158112e+01	-1.711347e+02
5.100000e-07	-1.629013e-06	-2.607375e-09	-1.127344e+01	-1.692563e+02
5.200000e-07	-1.584203e-06	-2.557094e-09	-1.096334e+01	-1.673158e+02
5.300000e-07	-1.538871e-06	-2.540889e-09	-1.064962e+01	-1.653352e+02
5.400000e-07	-1.492931e-06	-2.517326e-09	-1.033170e+01	-1.633334e+02
5.500000e-07	-1.446467e-06	-2.479235e-09	-1.001015e+01	-1.613189e+02
5.600000e-07	-1.399477e-06	-2.429304e-09	-9.684958e+00	-1.592865e+02
5.700000e-07	-1.351962e-06	-2.384896e-09	-9.356137e+00	-1.572208e+02
5.800000e-07	-1.303995e-06	-2.378643e-09	-9.024180e+00	-1.551028e+02
5.900000e-07	-1.255638e-06	-2.365206e-09	-8.689532e+00	-1.529184e+02
6.000000e-07	-1.206984e-06	-2.317853e-09	-8.352824e+00	-1.506639e+02
6.100000e-07	-1.157909e-06	-2.262591e-09	-8.013210e+00	-1.483467e+02
6.200000e-07	-1.108205e-06	-2.231890e-09	-7.669234e+00	-1.459816e+02
6.300000e-07	-1.057778e-06	-2.196766e-09	-7.320257e+00	-1.435832e+02
6.400000e-07	-1.006650e-06	-2.155950e-09	-6.966436e+00	-1.411592e+02
6.500000e-07	-9.549932e-07	-2.107403e-09	-6.608946e+00	-1.387059e+02
6.600000e-07	-9.029611e-07	-2.069831e-09	-6.248863e+00	-1.362096e+02
6.700000e-07	-8.506023e-07	-2.048824e-09	-5.886518e+00	-1.336514e+02
6.800000e-07	-7.979910e-07	-2.013058e-09	-5.522426e+00	-1.310150e+02
6.900000e-07	-7.451690e-07	-1.960433e-09	-5.156876e+00	-1.282934e+02
7.000000e-07	-6.920553e-07	-1.907171e-09	-4.789307e+00	-1.254913e+02
7.100000e-07	-6.386624e-07	-1.869209e-09	-4.419807e+00	-1.226240e+02
7.200000e-07	-5.850163e-07	-1.826902e-09	-4.048553e+00	-1.197100e+02
7.300000e-07	-5.311507e-07	-1.779142e-09	-3.675781e+00	-1.167641e+02
7.400000e-07	-4.771058e-07	-1.728898e-09	-3.301768e+00	-1.137903e+02
7.500000e-07	-4.228525e-07	-1.685804e-09	-2.926314e+00	-1.107795e+02
7.600000e-07	-3.684727e-07	-1.646682e-09	-2.549983e+00	-1.077118e+02
7.700000e-07	-3.140322e-07	-1.596985e-09	-2.173232e+00	-1.045631e+02
7.800000e-07	-2.595516e-07	-1.538279e-09	-1.796204e+00	-1.013128e+02
7.900000e-07	-2.050322e-07	-1.481451e-09	-1.418907e+00	-9.795053e+01
8.000000e-07	-1.504444e-07	-1.432481e-09	-1.041137e+00	-9.447822e+01
8.100000e-07	-9.578031e-08	-1.377733e-09	-6.628392e-01	-9.090840e+01
8.200000e-07	-4.112850e-08	-1.319866e-09	-2.846262e-01	-8.725830e+01
8.300000e-07	1.347417e-08	-1.262055e-09	9.324679e-02	-8.354272e+01
8.400000e-07	6.811515e-08	-1.209023e-09	4.713848e-01	-7.976826e+01
8.500000e-07	1.227669e-07	-1.154695e-09	8.495971e-01	-7.593075e+01
8.600000e-07	1.773763e-07	-1.092871e-09	1.227517e+00	-7.201661e+01
8.700000e-07	2.319218e-07	-1.025346e-09	1.604994e+00	-6.800721e+01
8.800000e-07	2.863902e-07	-9.593124e-10	1.981938e+00	-6.388438e+01
8.900000e-07	3.408080e-07	-8.984759e-10	2.358532e+00	-5.963479e+01
9.000000e-07	3.952071e-07	-8.322284e-10	2.734996e+00	-5.525176e+01
9.100000e-07	4.494747e-07	-7.631569e-10	3.110550e+00	-5.073413e+01
9.200000e-07	5.034981e-07	-6.941642e-10	3.484414e+00	-4.608292e+01
9.300000e-07	5.573113e-07	-6.241053e-10	3.856824e+00	-4.129740e+01
9.400000e-07	6.109490e-07	-5.479664e-10	4.228019e+00	-3.637201e+01
9.500000e-07	6.643469e-07	-4.673697e-10	4.597554e+00	-3.129533e+01
9.600000e-07	7.174020e-07	-3.849206e-10	4.964717e+00	-2.605113e+01
9.700000e-07	7.701844e-07	-3.026738e-10	5.329993e+00	-2.062076e+01
9.800000e-07	8.227291e-07	-2.210642e-10	5.693624e+00	-1.498588e+01
9.900000e-07	8.750360e-07	-1.311175e-10	6.055609e+00	-9.130482e+00
1.000000e-06	9.270533e-07	-3.447728e-11	6.415590e+00	-3.041666e+00
1.010000e-06	9.785740e-07	6.410354e-11	6.772135e+00	3.290493e+00
1.020000e-06	1.029469e-06	1.618965e-10	7.124351e+00	9.873424e+00
1.030000e-06	1.079756e-06	2.644346e-10	7.472359e+00	1.671199e+01
1.040000e-06	1.129476e-06	3.742988e-10	7.816436e+00	2.380731e+01
1.050000e-06	1.178602e-06	4.875904e-10	8.156413e+00	3.115454e+01
1.060000e-06	1.227312e-06	6.010713e-10	8.493501e+00	3.873995e+01
1.070000e-06	1.275767e-06	7.179267e-10	8.828835e+00	4.653836e+01
1.080000e-06	1.323898e-06	8.413299e-10	9.161921e+00	5.451147e+01
1.090000e-06	1.371622e-06	9.670902e-10	9.492187e+00	6.260789e+01
1.100000e-06	1.418801e-06	1.089442e-09	9.818685e+00	7.076481e+01
1.110000e-06	1.465416e-06	1.209871e-09	1.014128e+01	7.891122e+01
1.120000e-06	1.511534e-06	1.332504e-09	1.046044e+01	8.697209e+01
1.130000e-06	1.557126e-06	1.454779e-09	1.077596e+01	9.487316e+01
1.140000e-06	1.602180e-06	1.571499e-09	1.108775e+01	1.025457e+02
1.150000e-06	1.646823e-06	1.680634e-09	1.139670e+01	1.099309e+02
1.160000e-06	1.691170e-06	1.786357e-09	1.170359e+01	1.169839e+02
1.170000e-06	1.735092e-06	1.889474e-09	1.200755e+01	1.236755e+02
1.180000e-06	1.778154e-06	1.986173e-09	1.230556e+01	1.299934e+02
1.190000e-06	1.820153e-06	2.075689e-09	1.259621e+01	1.359401e+02
1.200000e-06	1.861280e-06	2.160097e-09	1.288082e+01	1.415299e+02
1.210000e-06	1.901833e-06	2.241572e-09	1.316147e+01	1.467834e+02
1.220000e-06	1.941960e-06	2.318299e-09	1.343916e+01	1.517226e+02
1.230000e-06	1.981405e-06	2.388261e-09	1.371214e+01	1.563665e+02
1.240000e-06	2.020139e-06	2.451699e-09	1.398019e+01	1.607292e+02
1.250000e-06	2.058262e-06	2.511913e-09	1.424402e+01	1.648203e+02
1.260000e-06	2.095629e-06	2.570193e-09	1.450262e+01	1.686472e+02
1.270000e-06	2.132346e-06	2.621539e-09	1.475671e+01	1.722187e+02
1.280000e-06	2.168551e-06	2.669016e-09	1.500727e+01	1.755477e+02
1.290000e-06	2.203954e-06	2.713403e-09	1.525227e+01	1.786515e+02
1.300000e-06	2.238297e-06	2.755271e-09	1.548994e+01	1.815507e+02
1.310000e-06	2.271612e-06	2.793809e-09	1.572049e+01	1.842652e+02
1.320000e-06	2.304148e-06	2.830709e-09	1.594566e+01	1.868107e+02
1.330000e-06	2.336033e-06	2.865022e-09	1.616631e+01	1.891961e+02
1.340000e-06	2.367152e-06	2.897139e-09	1.638167e+01	1.914242e+02
1.350000e-06	2.397478e-06	2.927541e-09	1.659154e+01	1.934942e+02
1.360000e-06	2.426965e-06	2.955051e-09	1.679559e+01	1.954074e+02
1.370000e-06	2.455720e-06	2.980066e-09	1.699459e+01	1.971713e+02
1.380000e-06	2.483832e-06	3.002953e-09	1.718914e+01	1.988023e+02
1.390000e-06	2.510911e-06	3.026317e-09	1.737653e+01	2.003237e+02
1.400000e-06	2.536723e-06	3.048773e-09	1.755516e+01	2.017613e+02
1.410000e-06	2.561519e-06	3.069821e-09	1.772677e+01	2.031364e+02
1.420000e-06	2.585502e-06	3.089034e-09	1.789274e+01	2.044599e+02
1.430000e-06	2.608636e-06	3.106963e-09	1.805284e+01	2.057291e+02
1.440000e-06	2.630858e-06	3.124171e-09	1.820662e+01	2.069304e+02
1.450000e-06	2.652162e-06	3.141624e-09	1.835405e+01	2.080450e+02
1.460000e-06	2.672746e-06	3.159202e-09	1.849650e+01	2.090576e+02
1.470000e-06	2.692606e-06	3.173621e-09	1.863394e+01	2.099634e+02
1.480000e-06	2.711405e-06	3.184844e-09	1.876403e+01	2.107717e+02
1.490000e-06	2.729208e-06	3.196330e-09	1.888724e+01	2.115036e+02
1.500000e-06	2.746120e-06	3.207907e-09	1.900428e+01	2.121850e+02
1.510000e-06	2.761908e-06	3.219843e-09	1.911354e+01	2.128378e+02
1.520000e-06	2.776600e-06	3.230819e-09	1.921521e+01	2.134723e+02
1.530000e-06	2.790298e-06	3.239373e-09	1.931001e+01	2.140841e+02
1.540000e-06	2.802998e-06	3.248002e-09	1.939790e+01	2.146570e+02
1.550000e-06	2.814637e-06	3.257006e-09	1.947845e+01	2.151708e+02
1.560000e-06	2.824918e-06	3.264028e-09	1.954959e+01	2.156108e+02
1.570000e-06	2.833960e-06	3.269758e-09	1.961217e+01	2.159748e+02
1.580000e-06	2.842110e-06	3.276710e-09	1.966857e+01	2.162751e+02
1.590000e-06	2.849342e-06	3.285505e-09	1.971862e+01	2.165341e+02
1.600000e-06	2.855562e-06	3.293285e-09	1.976167e+01	2.167745e+02
1.610000e-06	2.860842e-06	3.296305e-09	1.979820e+01	2.170098e+02
1.620000e-06	2.865370e-06	3.295393e-09	1.982954e+01	2.172373e+02
1.630000e-06	2.868976e-06	3.298231e-09	1.985449e+01	2.174375e+02
1.640000e-06	2.871233e-06	3.305237e-09	1.987011e+01	2.175817e+02
1.650000e-06	2.872268e-06	3.310575e-09	1.987727e+01	2.176433e+02
1.660000e-06	2.872445e-06	3.312145e-09	1.987850e+01	2.176092e+02
1.670000e-06	2.871742e-06	3.308871e-09	1.987364e+01	2.174874e+02
1.680000e-06	2.870129e-06	3.302363e-09	1.986247e+01	2.173050e+02
1.690000e-06	2.867614e-06	3.297812e-09	1.984507e+01	2.170991e+02
1.700000e-06	2.864336e-06	3.293936e-09	1.982238e+01	2.169026e+02
1.710000e-06	2.860283e-06	3.291220e-09	1.979434e+01	2.167300e+02
1.720000e-06	2.855071e-06	3.296697e-09	1.975827e+01	2.165702e+02
1.730000e-06	2.848656e-06	3.318113e-09	1.971387e+01	2.163891e+02
1.740000e-06	2.841424e-06	3.284512e-09	1.966382e+01	2.161410e+02
1.750000e-06	2.833260e-06	3.165954e-09	1.960732e+01	2.157869e+02
1.760000e-06	2.823512e-06	3.169814e-09	1.953986e+01	2.153111e+02
1.770000e-06	2.812141e-06	3.381753e-09	1.946117e+01	2.147307e+02
1.780000e-06	2.800205e-06	3.385140e-09	1.937857e+01	2.140930e+02
1.790000e-06	2.788350e-06	3.163585e-09	1.929653e+01	2.134617e+02
1.800000e-06	2.775336e-06	3.119829e-09	1.920647e+01	2.128961e+02
1.810000e-06	2.760364e-06	3.347656e-09	1.910285e+01	2.124301e+02
1.820000e-06	2.744583e-06	3.203137e-09	1.899365e+01	2.120593e+02
1.830000e-06	2.728413e-06	3.030818e-09	1.888174e+01	2.117409e+02
1.840000e-06	2.710831e-06	3.355735e-09	1.876006e+01	2.114060e+02
1.850000e-06	2.691975e-06	3.330124e-09	1.862957e+01	2.109819e+02
1.860000e-06	2.672675e-06	3.022899e-09	1.849601e+01	2.104148e+02
1.870000e-06	2.652502e-06	3.247273e-09	1.835640e+01	2.096862e+02
1.880000e-06	2.630953e-06	3.374626e-09	1.820728e+01	2.088171e+02
1.890000e-06	2.608409e-06	2.993116e-09	1.805126e+01	2.078584e+02
1.900000e-06	2.584919e-06	3.033850e-09	1.788870e+01	2.068720e+02
1.910000e-06	2.560401e-06	3.268745e-09	1.771903e+01	2.059089e+02
1.920000e-06	2.535237e-06	3.120464e-09	1.754489e+01	2.049929e+02
1.930000e-06	2.509242e-06	3.064017e-09	1.736499e+01	2.041142e+02
1.940000e-06	2.482336e-06	3.130750e-09	1.717878e+01	2.032361e+02
1.950000e-06	2.454903e-06	3.049530e-09	1.698894e+01	2.023105e+02
1.960000e-06	2.426423e-06	3.137609e-09	1.679185e+01	2.012968e+02
1.970000e-06	2.396526e-06	3.042548e-09	1.658494e+01	2.001763e+02
1.980000e-06	2.365773e-06	2.896119e-09	1.637212e+01	1.989575e+02
1.990000e-06	2.334358e-06	3.094101e-09	1.615472e+01	1.976713e+02
2.000000e-06	2.302230e-06	3.038886e-09	1.593238e+01	1.963575e+02
2.010000e-06	2.269349e-06	2.908680e-09	1.570483e+01	1.950491e+02
2.020000e-06	2.235544e-06	3.039852e-09	1.547089e+01	1.937609e+02
2.030000e-06	2.201016e-06	2.915994e-09	1.523194e+01	1.924848e+02
2.040000e-06	2.165958e-06	2.832269e-09	1.498932e+01	1.911959e+02
2.050000e-06	2.130170e-06	2.979099e-09	1.474166e+01	1.898631e+02
2.060000e-06	2.093563e-06	2.845985e-09	1.448832e+01	1.884627e+02
2.070000e-06	2.055928e-06	2.789103e-09	1.422787e+01	1.869874e+02
2.080000e-06	2.017202e-06	2.891558e-09	1.395987e+01	1.854482e+02
2.090000e-06	1.977897e-06	2.816725e-09	1.368786e+01	1.838685e+02
2.100000e-06	1.938118e-06	2.776814e-09	1.341257e+01	1.822739e+02
2.110000e-06	1.897675e-06	2.744908e-09	1.313269e+01	1.806807e+02
2.120000e-06	1.856633e-06	2.696326e-09	1.284866e+01	1.790892e+02
2.130000e-06	1.814957e-06	2.729326e-09	1.256025e+01	1.774837e+02
2.140000e-06	1.772611e-06	2.698314e-09	1.226720e+01	1.758387e+02
2.150000e-06	1.729716e-06	2.653279e-09	1.197035e+01	1.741292e+02
2.160000e-06	1.686472e-06	2.642880e-09	1.167108e+01	1.723402e+02
2.170000e-06	1.642805e-06	2.602381e-09	1.136889e+01	1.704719e+02
2.180000e-06	1.598403e-06	2.579391e-09	1.106161e+01	1.685386e+02
2.190000e-06	1.553302e-06	2.541420e-09	1.074949e+01	1.665620e+02
2.200000e-06	1.507622e-06	2.507851e-09	1.043336e+01	1.645621e+02
2.210000e-06	1.461473e-06	2.493365e-09	1.011399e+01	1.625490e+02
2.220000e-06	1.415013e-06	2.460652e-09	9.792472e+00	1.605196e+02
2.230000e-06	1.368042e-06	2.445256e-09	9.467415e+00	1.584595e+02
2.240000e-06	1.320449e-06	2.385987e-09	9.138050e+00	1.563497e+02
2.250000e-06	1.272208e-06	2.342686e-09	8.804205e+00	1.541749e+02
2.260000e-06	1.223399e-06	2.339497e-09	8.466427e+00	1.519299e+02
2.270000e-06	1.174252e-06	2.298919e-09	8.126306e+00	1.496205e+02
2.280000e-06	1.124742e-06	2.260897e-09	7.783675e+00	1.472609e+02
2.290000e-06	1.074839e-06	2.221063e-09	7.438329e+00	1.448662e+02
2.300000e-06	1.024488e-06	2.184632e-09	7.089878e+00	1.424454e+02
2.310000e-06	9.736714e-07	2.162841e-09	6.738206e+00	1.399966e+02
2.320000e-06	9.225637e-07	2.115693e-09	6.384520e+00	1.375072e+02
2.330000e-06	8.712399e-07	2.070027e-09	6.029338e+00	1.349586e+02
2.340000e-06	8.196102e-07	2.041258e-09	5.672040e+00	1.323337e+02
2.350000e-06	7.676251e-07	2.002315e-09	5.312282e+00	1.296239e+02
2.360000e-06	7.151517e-07	1.960198e-09	4.949144e+00	1.268323e+02
2.370000e-06	6.622306e-07	1.905267e-09	4.582908e+00	1.239727e+02
2.380000e-06	6.088400e-07	1.860095e-09	4.213423e+00	1.210640e+02
2.390000e-06	5.549480e-07	1.825310e-09	3.840468e+00	1.181218e+02
2.400000e-06	5.008000e-07	1.781001e-09	3.465742e+00	1.151519e+02
2.410000e-06	4.464531e-07	1.736698e-09	3.089639e+00	1.121470e+02
2.420000e-06	3.919404e-07	1.684295e-09	2.712389e+00	1.090885e+02
2.430000e-06	3.372807e-07	1.638855e-09	2.334122e+00	1.059525e+02
2.440000e-06	2.824637e-07	1.593901e-09	1.954765e+00	1.027173e+02
2.450000e-06	2.275426e-07	1.538027e-09	1.574688e+00	9.937078e+01
2.460000e-06	1.725318e-07	1.483769e-09	1.193991e+00	9.591325e+01
2.470000e-06	1.175382e-07	1.431309e-09	8.134124e-01	9.235599e+01
2.480000e-06	6.257776e-08	1.382896e-09	4.330639e-01	8.871596e+01
2.490000e-06	7.586204e-09	1.329570e-09	5.249965e-02	8.500874e+01
2.500000e-06	-4.741254e-08	1.265501e-09	-3.281143e-01	8.124234e+01
2.510000e-06	-1.024320e-07	1.203766e-09	-7.088715e-01	7.741413e+01
2.520000e-06	-1.574545e-07	1.147369e-09	-1.089650e+00	7.351166e+01
2.530000e-06	-2.124575e-07	1.087061e-09	-1.470294e+00	6.951669e+01
2.540000e-06	-2.674133e-07	1.022784e-09	-1.850610e+00	6.541068e+01
2.550000e-06	-3.222548e-07	9.583164e-10	-2.230136e+00	6.117941e+01
2.560000e-06	-3.769992e-07	8.969332e-10	-2.608989e+00	5.681526e+01
2.570000e-06	-4.315537e-07	8.307628e-10	-2.986530e+00	5.231644e+01
2.580000e-06	-4.858152e-07	7.564953e-10	-3.362041e+00	4.768392e+01
2.590000e-06	-5.398619e-07	6.816148e-10	-3.736067e+00	4.291744e+01
2.600000e-06	-5.936433e-07	6.061544e-10	-4.108256e+00	3.801224e+01
2.610000e-06	-6.470112e-07	5.313033e-10	-4.477584e+00	3.295772e+01
2.620000e-06	-6.998807e-07	4.531623e-10	-4.843463e+00	2.773822e+01
2.630000e-06	-7.523188e-07	3.705879e-10	-5.206356e+00	2.233524e+01
2.640000e-06	-8.044051e-07	2.840206e-10	-5.566815e+00	1.673027e+01
2.650000e-06	-8.561445e-07	1.969231e-10	-5.924872e+00	1.090688e+01
2.660000e-06	-9.075712e-07	1.075913e-10	-6.280766e+00	4.851727e+00
2.670000e-06	-9.587273e-07	1.091667e-11	-6.634788e+00	-1.445514e+00
2.680000e-06	-1.009569e-06	-9.155841e-11	-6.986635e+00	-7.992612e+00
2.690000e-06	-1.059994e-06	-1.948607e-10	-7.335597e+00	-1.479484e+01
2.700000e-06	-1.110010e-06	-2.986664e-10	-7.681724e+00	-2.185396e+01
2.710000e-06	-1.159619e-06	-4.109001e-10	-8.025044e+00	-2.916616e+01
2.720000e-06	-1.208809e-06	-5.293330e-10	-8.365454e+00	-3.671916e+01
2.730000e-06	-1.257507e-06	-6.498863e-10	-8.702465e+00	-4.448952e+01
2.740000e-06	-1.305598e-06	-7.701894e-10	-9.035275e+00	-5.244088e+01
2.750000e-06	-1.352936e-06	-8.921146e-10	-9.362871e+00	-6.052365e+01
2.760000e-06	-1.399480e-06	-1.015596e-09	-9.684979e+00	-6.867648e+01
2.770000e-06	-1.445556e-06	-1.138508e-09	-1.000384e+01	-7.682929e+01
2.780000e-06	-1.491288e-06	-1.261022e-09	-1.032033e+01	-8.490736e+01
2.790000e-06	-1.536592e-06	-1.383008e-09	-1.063385e+01	-9.283600e+01
2.800000e-06	-1.581440e-06	-1.504254e-09	-1.094422e+01	-1.005454e+02
2.810000e-06	-1.625681e-06	-1.620619e-09	-1.125038e+01	-1.079752e+02
2.820000e-06	-1.669347e-06	-1.731257e-09	-1.155257e+01	-1.150781e+02
2.830000e-06	-1.712645e-06	-1.834300e-09	-1.185221e+01	-1.218228e+02
2.840000e-06	-1.755548e-06	-1.931089e-09	-1.214911e+01	-1.281946e+02
2.850000e-06	-1.797910e-06	-2.022141e-09	-1.244228e+01	-1.341941e+02
2.860000e-06	-1.839655e-06	-2.107142e-09	-1.273117e+01	-1.398341e+02
2.870000e-06	-1.880782e-06	-2.187213e-09	-1.301579e+01	-1.451346e+02
2.880000e-06	-1.921224e-06	-2.263079e-09	-1.329566e+01	-1.501178e+02
2.890000e-06	-1.960990e-06	-2.336674e-09	-1.357086e+01	-1.548032e+02
2.900000e-06	-2.000259e-06	-2.407171e-09	-1.384262e+01	-1.592058e+02
2.910000e-06	-2.038893e-06	-2.474093e-09	-1.410998e+01	-1.633356e+02
2.920000e-06	-2.076648e-06	-2.535799e-09	-1.437126e+01	-1.672001e+02
2.930000e-06	-2.113351e-06	-2.591871e-09	-1.462526e+01	-1.708078e+02
2.940000e-06	-2.149085e-06	-2.643353e-09	-1.487255e+01	-1.741708e+02
