# Temperatura_=_22.75
# Concentracion g/m^3_=_13400.0
# C_Vs_to_Am_M_A/Vsm_=_65563218390.804596
# pendiente_HvsI_1/m_=_3716.3
# ordenada_HvsI_A/m_=_1297.0
# frecuencia_Hz_=_300988.134563489

Tiempo_(s)	Campo_(V.s)	Magnetizacion_(V.s)	Campo_(kA/m)	Magnetizacion_(A/m)
0.000000e+00	-2.862791e-06	-3.266337e-09	-1.978064e+01	-2.137404e+02
1.000000e-08	-2.861948e-06	-3.264409e-09	-1.977482e+01	-2.135515e+02
2.000000e-08	-2.860104e-06	-3.262952e-09	-1.976207e+01	-2.133713e+02
3.000000e-08	-2.857015e-06	-3.261719e-09	-1.974073e+01	-2.132356e+02
4.000000e-08	-2.852909e-06	-3.258417e-09	-1.971236e+01	-2.131461e+02
5.000000e-08	-2.848009e-06	-3.252397e-09	-1.967850e+01	-2.130693e+02
6.000000e-08	-2.842260e-06	-3.248041e-09	-1.963878e+01	-2.129478e+02
7.000000e-08	-2.835529e-06	-3.256162e-09	-1.959228e+01	-2.127223e+02
8.000000e-08	-2.827796e-06	-3.281820e-09	-1.953885e+01	-2.123555e+02
9.000000e-08	-2.818933e-06	-3.272909e-09	-1.947761e+01	-2.118477e+02
1.000000e-07	-2.808596e-06	-3.215610e-09	-1.940618e+01	-2.112394e+02
1.100000e-07	-2.796970e-06	-3.170332e-09	-1.932585e+01	-2.105987e+02
1.200000e-07	-2.784534e-06	-3.228854e-09	-1.923992e+01	-2.099985e+02
1.300000e-07	-2.771249e-06	-3.245383e-09	-1.914812e+01	-2.094916e+02
1.400000e-07	-2.756932e-06	-3.137826e-09	-1.904920e+01	-2.090929e+02
1.500000e-07	-2.741634e-06	-3.193899e-09	-1.894350e+01	-2.087747e+02
1.600000e-07	-2.725191e-06	-3.283524e-09	-1.882989e+01	-2.084769e+02
1.700000e-07	-2.707476e-06	-3.178277e-09	-1.870748e+01	-2.081274e+02
1.800000e-07	-2.688836e-06	-3.121767e-09	-1.857869e+01	-2.076663e+02
1.900000e-07	-2.669567e-06	-3.224093e-09	-1.844555e+01	-2.070630e+02
2.000000e-07	-2.649439e-06	-3.159201e-09	-1.830647e+01	-2.063231e+02
2.100000e-07	-2.628297e-06	-3.040618e-09	-1.816039e+01	-2.054818e+02
2.200000e-07	-2.606339e-06	-3.154346e-09	-1.800867e+01	-2.045873e+02
2.300000e-07	-2.583520e-06	-3.180118e-09	-1.785100e+01	-2.036822e+02
2.400000e-07	-2.559800e-06	-3.078888e-09	-1.768711e+01	-2.027886e+02
2.500000e-07	-2.535278e-06	-3.099327e-09	-1.751767e+01	-2.019030e+02
2.600000e-07	-2.509813e-06	-3.077741e-09	-1.734171e+01	-2.010011e+02
2.700000e-07	-2.483250e-06	-3.010130e-09	-1.715818e+01	-2.000510e+02
2.800000e-07	-2.455638e-06	-3.056983e-09	-1.696739e+01	-1.990270e+02
2.900000e-07	-2.427087e-06	-3.030821e-09	-1.677012e+01	-1.979203e+02
3.000000e-07	-2.397710e-06	-2.973725e-09	-1.656713e+01	-1.967411e+02
3.100000e-07	-2.367636e-06	-3.006363e-09	-1.635934e+01	-1.955132e+02
3.200000e-07	-2.336821e-06	-3.001340e-09	-1.614642e+01	-1.942628e+02
3.300000e-07	-2.305232e-06	-2.940011e-09	-1.592815e+01	-1.930080e+02
3.400000e-07	-2.272965e-06	-2.915854e-09	-1.570520e+01	-1.917514e+02
3.500000e-07	-2.240035e-06	-2.889854e-09	-1.547767e+01	-1.904807e+02
3.600000e-07	-2.206246e-06	-2.881917e-09	-1.524420e+01	-1.891749e+02
3.700000e-07	-2.171345e-06	-2.895610e-09	-1.500305e+01	-1.878138e+02
3.800000e-07	-2.135501e-06	-2.845391e-09	-1.475538e+01	-1.863871e+02
3.900000e-07	-2.098996e-06	-2.821153e-09	-1.450315e+01	-1.848980e+02
4.000000e-07	-2.061841e-06	-2.829100e-09	-1.424643e+01	-1.833618e+02
4.100000e-07	-2.023952e-06	-2.797924e-09	-1.398463e+01	-1.817985e+02
4.200000e-07	-1.985304e-06	-2.738223e-09	-1.371759e+01	-1.802241e+02
4.300000e-07	-1.945914e-06	-2.710775e-09	-1.344542e+01	-1.786443e+02
4.400000e-07	-1.905931e-06	-2.704668e-09	-1.316915e+01	-1.770517e+02
4.500000e-07	-1.865521e-06	-2.694862e-09	-1.288994e+01	-1.754295e+02
4.600000e-07	-1.824582e-06	-2.669443e-09	-1.260707e+01	-1.737582e+02
4.700000e-07	-1.782820e-06	-2.628165e-09	-1.231851e+01	-1.720231e+02
4.800000e-07	-1.740072e-06	-2.594892e-09	-1.202314e+01	-1.702195e+02
4.900000e-07	-1.696443e-06	-2.572062e-09	-1.172169e+01	-1.683538e+02
5.000000e-07	-1.652210e-06	-2.545622e-09	-1.141605e+01	-1.664395e+02
5.100000e-07	-1.607531e-06	-2.501142e-09	-1.110734e+01	-1.644913e+02
5.200000e-07	-1.562372e-06	-2.474979e-09	-1.079532e+01	-1.625189e+02
5.300000e-07	-1.516717e-06	-2.455911e-09	-1.047985e+01	-1.605235e+02
5.400000e-07	-1.470518e-06	-2.430512e-09	-1.016064e+01	-1.584986e+02
5.500000e-07	-1.423763e-06	-2.387677e-09	-9.837583e+00	-1.564336e+02
5.600000e-07	-1.376466e-06	-2.338162e-09	-9.510784e+00	-1.543194e+02
5.700000e-07	-1.328667e-06	-2.309755e-09	-9.180514e+00	-1.521523e+02
5.800000e-07	-1.280445e-06	-2.291243e-09	-8.847317e+00	-1.499363e+02
5.900000e-07	-1.231873e-06	-2.260066e-09	-8.511706e+00	-1.476804e+02
6.000000e-07	-1.182876e-06	-2.214237e-09	-8.173162e+00	-1.453950e+02
6.100000e-07	-1.133239e-06	-2.176238e-09	-7.830187e+00	-1.430870e+02
6.200000e-07	-1.082915e-06	-2.140460e-09	-7.482470e+00	-1.407562e+02
6.300000e-07	-1.031959e-06	-2.103468e-09	-7.130386e+00	-1.383951e+02
6.400000e-07	-9.805153e-07	-2.060262e-09	-6.774935e+00	-1.359912e+02
6.500000e-07	-9.286694e-07	-2.018285e-09	-6.416702e+00	-1.335307e+02
6.600000e-07	-8.764267e-07	-1.987290e-09	-6.055728e+00	-1.310031e+02
6.700000e-07	-8.238759e-07	-1.957899e-09	-5.692625e+00	-1.284035e+02
6.800000e-07	-7.710767e-07	-1.917506e-09	-5.327805e+00	-1.257331e+02
6.900000e-07	-7.179903e-07	-1.866238e-09	-4.961002e+00	-1.229970e+02
7.000000e-07	-6.645665e-07	-1.821614e-09	-4.591866e+00	-1.202021e+02
7.100000e-07	-6.108511e-07	-1.779776e-09	-4.220716e+00	-1.173535e+02
7.200000e-07	-5.569756e-07	-1.735885e-09	-3.848460e+00	-1.144538e+02
7.300000e-07	-5.029516e-07	-1.688473e-09	-3.475177e+00	-1.115024e+02
7.400000e-07	-4.487872e-07	-1.643031e-09	-3.100924e+00	-1.084964e+02
7.500000e-07	-3.945203e-07	-1.600677e-09	-2.725964e+00	-1.054311e+02
7.600000e-07	-3.401406e-07	-1.552923e-09	-2.350224e+00	-1.023013e+02
7.700000e-07	-2.856883e-07	-1.498295e-09	-1.973982e+00	-9.910022e+01
7.800000e-07	-2.311415e-07	-1.442963e-09	-1.597088e+00	-9.582051e+01
7.900000e-07	-1.765170e-07	-1.393730e-09	-1.219656e+00	-9.245429e+01
8.000000e-07	-1.218834e-07	-1.343459e-09	-8.421611e-01	-8.899485e+01
8.100000e-07	-6.724052e-08	-1.288568e-09	-4.646028e-01	-8.543870e+01
8.200000e-07	-1.256508e-08	-1.231266e-09	-8.681925e-02	-8.178740e+01
8.300000e-07	4.210650e-08	-1.176423e-09	2.909377e-01	-7.804794e+01
8.400000e-07	9.673174e-08	-1.120666e-09	6.683743e-01	-7.423094e+01
8.500000e-07	1.513678e-07	-1.060723e-09	1.045886e+00	-7.034658e+01
8.600000e-07	2.060034e-07	-9.976228e-10	1.423394e+00	-6.639972e+01
8.700000e-07	2.605771e-07	-9.350974e-10	1.800475e+00	-6.238575e+01
8.800000e-07	3.150928e-07	-8.759463e-10	2.177155e+00	-5.828936e+01
8.900000e-07	3.694825e-07	-8.144540e-10	2.552964e+00	-5.408703e+01
9.000000e-07	4.237607e-07	-7.479667e-10	2.928002e+00	-4.975288e+01
9.100000e-07	4.779691e-07	-6.785763e-10	3.302559e+00	-4.526583e+01
9.200000e-07	5.320526e-07	-6.100296e-10	3.676253e+00	-4.061541e+01
9.300000e-07	5.859267e-07	-5.397134e-10	4.048499e+00	-3.580360e+01
9.400000e-07	6.395725e-07	-4.642857e-10	4.419168e+00	-3.084166e+01
9.500000e-07	6.929214e-07	-3.838595e-10	4.787786e+00	-2.574271e+01
9.600000e-07	7.459134e-07	-3.017647e-10	5.153938e+00	-2.051292e+01
9.700000e-07	7.985953e-07	-2.216920e-10	5.517947e+00	-1.514470e+01
9.800000e-07	8.510236e-07	-1.387417e-10	5.880204e+00	-9.614977e+00
9.900000e-07	9.032471e-07	-5.034732e-11	6.241046e+00	-3.889647e+00
1.000000e-06	9.551179e-07	4.179673e-11	6.599450e+00	2.067045e+00
1.010000e-06	1.006510e-06	1.351794e-10	6.954549e+00	8.281553e+00
1.020000e-06	1.057323e-06	2.315776e-10	7.305644e+00	1.476260e+01
1.030000e-06	1.107449e-06	3.347950e-10	7.651995e+00	2.149849e+01
1.040000e-06	1.156904e-06	4.464478e-10	7.993702e+00	2.846102e+01
1.050000e-06	1.205815e-06	5.617516e-10	8.331660e+00	3.561435e+01
1.060000e-06	1.254368e-06	6.743047e-10	8.667137e+00	4.292472e+01
1.070000e-06	1.302657e-06	7.853034e-10	9.000793e+00	5.036679e+01
1.080000e-06	1.350631e-06	8.973600e-10	9.332271e+00	5.792341e+01
1.090000e-06	1.398179e-06	1.010770e-09	9.660807e+00	6.557870e+01
1.100000e-06	1.445199e-06	1.125515e-09	9.985699e+00	7.330716e+01
1.110000e-06	1.491646e-06	1.244642e-09	1.030662e+01	8.106361e+01
1.120000e-06	1.537546e-06	1.367659e-09	1.062378e+01	8.877912e+01
1.130000e-06	1.582846e-06	1.487861e-09	1.093678e+01	9.636562e+01
1.140000e-06	1.627631e-06	1.600157e-09	1.124622e+01	1.037292e+02
1.150000e-06	1.672079e-06	1.704275e-09	1.155334e+01	1.107877e+02
1.160000e-06	1.716211e-06	1.802394e-09	1.185828e+01	1.174871e+02
1.170000e-06	1.759807e-06	1.895722e-09	1.215950e+01	1.238104e+02
1.180000e-06	1.802529e-06	1.983696e-09	1.245469e+01	1.297752e+02
1.190000e-06	1.844278e-06	2.068552e-09	1.274316e+01	1.354219e+02
1.200000e-06	1.885206e-06	2.151567e-09	1.302596e+01	1.407952e+02
1.210000e-06	1.925532e-06	2.231992e-09	1.330459e+01	1.459262e+02
1.220000e-06	1.965341e-06	2.309141e-09	1.357966e+01	1.508222e+02
1.230000e-06	2.004485e-06	2.379658e-09	1.385012e+01	1.554666e+02
1.240000e-06	2.042929e-06	2.442380e-09	1.411575e+01	1.598295e+02
1.250000e-06	2.080673e-06	2.500076e-09	1.437655e+01	1.638837e+02
1.260000e-06	2.117689e-06	2.553647e-09	1.463231e+01	1.676194e+02
1.270000e-06	2.154141e-06	2.603320e-09	1.488418e+01	1.710529e+02
1.280000e-06	2.190070e-06	2.648939e-09	1.513244e+01	1.742235e+02
1.290000e-06	2.225109e-06	2.692852e-09	1.537454e+01	1.771819e+02
1.300000e-06	2.258991e-06	2.736116e-09	1.560865e+01	1.799741e+02
1.310000e-06	2.291913e-06	2.776272e-09	1.583613e+01	1.826272e+02
1.320000e-06	2.324121e-06	2.811696e-09	1.605866e+01	1.851437e+02
1.330000e-06	2.355649e-06	2.843561e-09	1.627651e+01	1.875058e+02
1.340000e-06	2.386397e-06	2.873988e-09	1.648897e+01	1.896886e+02
1.350000e-06	2.416285e-06	2.903712e-09	1.669548e+01	1.916760e+02
1.360000e-06	2.445364e-06	2.930813e-09	1.689640e+01	1.934734e+02
1.370000e-06	2.473811e-06	2.953931e-09	1.709296e+01	1.951108e+02
1.380000e-06	2.501567e-06	2.976682e-09	1.728474e+01	1.966357e+02
1.390000e-06	2.528198e-06	2.999428e-09	1.746875e+01	1.980978e+02
1.400000e-06	2.553567e-06	3.021318e-09	1.764404e+01	1.995315e+02
1.410000e-06	2.577968e-06	3.042972e-09	1.781264e+01	2.009450e+02
1.420000e-06	2.601537e-06	3.062744e-09	1.797549e+01	2.023183e+02
1.430000e-06	2.624232e-06	3.080498e-09	1.813231e+01	2.036130e+02
1.440000e-06	2.646023e-06	3.098246e-09	1.828287e+01	2.047893e+02
1.450000e-06	2.666982e-06	3.115745e-09	1.842769e+01	2.058238e+02
1.460000e-06	2.687164e-06	3.130978e-09	1.856714e+01	2.067201e+02
1.470000e-06	2.706493e-06	3.143003e-09	1.870069e+01	2.075094e+02
1.480000e-06	2.724858e-06	3.153577e-09	1.882759e+01	2.082390e+02
1.490000e-06	2.742236e-06	3.164772e-09	1.894766e+01	2.089542e+02
1.500000e-06	2.758660e-06	3.176504e-09	1.906114e+01	2.096813e+02
1.510000e-06	2.774009e-06	3.187459e-09	1.916720e+01	2.104174e+02
1.520000e-06	2.788264e-06	3.196028e-09	1.926570e+01	2.111329e+02
1.530000e-06	2.801477e-06	3.205316e-09	1.935699e+01	2.117844e+02
1.540000e-06	2.813622e-06	3.216703e-09	1.944091e+01	2.123334e+02
1.550000e-06	2.824505e-06	3.225094e-09	1.951611e+01	2.127630e+02
1.560000e-06	2.834092e-06	3.229241e-09	1.958235e+01	2.130863e+02
1.570000e-06	2.842679e-06	3.234001e-09	1.964168e+01	2.133416e+02
1.580000e-06	2.850376e-06	3.240468e-09	1.969486e+01	2.135780e+02
1.590000e-06	2.857119e-06	3.246461e-09	1.974145e+01	2.138351e+02
1.600000e-06	2.862864e-06	3.250028e-09	1.978115e+01	2.141268e+02
1.610000e-06	2.867740e-06	3.252279e-09	1.981484e+01	2.144353e+02
1.620000e-06	2.871781e-06	3.257046e-09	1.984276e+01	2.147175e+02
1.630000e-06	2.874685e-06	3.263536e-09	1.986282e+01	2.149224e+02
1.640000e-06	2.876329e-06	3.268078e-09	1.987418e+01	2.150116e+02
1.650000e-06	2.876954e-06	3.269562e-09	1.987850e+01	2.149760e+02
1.660000e-06	2.876685e-06	3.268372e-09	1.987665e+01	2.148397e+02
1.670000e-06	2.875473e-06	3.264384e-09	1.986827e+01	2.146521e+02
1.680000e-06	2.873342e-06	3.258600e-09	1.985354e+01	2.144680e+02
1.690000e-06	2.870386e-06	3.253466e-09	1.983312e+01	2.143259e+02
1.700000e-06	2.866615e-06	3.254102e-09	1.980707e+01	2.142317e+02
1.710000e-06	2.861821e-06	3.259164e-09	1.977394e+01	2.141552e+02
1.720000e-06	2.855864e-06	3.262596e-09	1.973278e+01	2.140406e+02
1.730000e-06	2.848941e-06	3.242118e-09	1.968495e+01	2.138278e+02
1.740000e-06	2.841145e-06	3.204968e-09	1.963108e+01	2.134760e+02
1.750000e-06	2.832117e-06	3.213759e-09	1.956870e+01	2.129812e+02
1.760000e-06	2.821519e-06	3.269484e-09	1.949547e+01	2.123799e+02
1.770000e-06	2.809851e-06	3.240396e-09	1.941485e+01	2.117382e+02
1.780000e-06	2.797934e-06	3.190364e-09	1.933251e+01	2.111298e+02
1.790000e-06	2.785388e-06	3.208859e-09	1.924582e+01	2.106106e+02
1.800000e-06	2.771333e-06	3.238779e-09	1.914871e+01	2.102001e+02
1.810000e-06	2.756036e-06	3.135022e-09	1.904301e+01	2.098749e+02
1.820000e-06	2.740045e-06	3.129663e-09	1.893252e+01	2.095774e+02
1.830000e-06	2.723011e-06	3.278744e-09	1.881483e+01	2.092359e+02
1.840000e-06	2.704689e-06	3.198464e-09	1.868823e+01	2.087880e+02
1.850000e-06	2.685555e-06	3.096844e-09	1.855602e+01	2.081994e+02
1.860000e-06	2.665736e-06	3.225222e-09	1.841908e+01	2.074721e+02
1.870000e-06	2.644780e-06	3.204817e-09	1.827428e+01	2.066386e+02
1.880000e-06	2.622665e-06	3.040294e-09	1.812148e+01	2.057467e+02
1.890000e-06	2.599533e-06	3.096889e-09	1.796164e+01	2.048404e+02
1.900000e-06	2.575360e-06	3.140595e-09	1.779462e+01	2.039445e+02
1.910000e-06	2.550435e-06	3.077318e-09	1.762240e+01	2.030580e+02
1.920000e-06	2.524786e-06	3.108498e-09	1.744517e+01	2.021586e+02
1.930000e-06	2.498231e-06	3.090176e-09	1.726169e+01	2.012142e+02
1.940000e-06	2.470950e-06	2.996666e-09	1.707319e+01	2.001981e+02
1.950000e-06	2.442844e-06	3.058850e-09	1.687899e+01	1.990992e+02
1.960000e-06	2.413545e-06	3.035530e-09	1.667655e+01	1.979260e+02
1.970000e-06	2.383199e-06	2.937265e-09	1.646687e+01	1.967011e+02
1.980000e-06	2.352026e-06	2.986450e-09	1.625148e+01	1.954512e+02
1.990000e-06	2.320121e-06	2.985580e-09	1.603103e+01	1.941956e+02
2.000000e-06	2.287570e-06	2.947647e-09	1.580611e+01	1.929388e+02
2.010000e-06	2.254208e-06	2.948461e-09	1.557560e+01	1.916697e+02
2.020000e-06	2.220032e-06	2.882136e-09	1.533946e+01	1.903679e+02
2.030000e-06	2.185219e-06	2.865603e-09	1.509892e+01	1.890126e+02
2.040000e-06	2.149753e-06	2.890108e-09	1.485386e+01	1.875921e+02
2.050000e-06	2.113548e-06	2.822360e-09	1.460370e+01	1.861084e+02
2.060000e-06	2.076433e-06	2.795663e-09	1.434725e+01	1.845755e+02
2.070000e-06	2.038296e-06	2.801982e-09	1.408374e+01	1.830133e+02
2.080000e-06	1.999324e-06	2.781204e-09	1.381446e+01	1.814388e+02
2.090000e-06	1.959742e-06	2.762718e-09	1.354097e+01	1.798588e+02
2.100000e-06	1.919555e-06	2.713004e-09	1.326329e+01	1.782675e+02
2.110000e-06	1.878749e-06	2.680096e-09	1.298134e+01	1.766486e+02
2.120000e-06	1.837333e-06	2.667307e-09	1.269518e+01	1.749825e+02
2.130000e-06	1.795273e-06	2.643961e-09	1.240456e+01	1.732538e+02
2.140000e-06	1.752606e-06	2.626774e-09	1.210975e+01	1.714566e+02
2.150000e-06	1.709439e-06	2.591825e-09	1.181148e+01	1.695962e+02
2.160000e-06	1.665803e-06	2.561308e-09	1.150998e+01	1.676855e+02
2.170000e-06	1.621632e-06	2.542867e-09	1.120477e+01	1.657396e+02
2.180000e-06	1.576868e-06	2.498609e-09	1.089548e+01	1.637687e+02
2.190000e-06	1.531478e-06	2.462458e-09	1.058185e+01	1.617751e+02
2.200000e-06	1.485520e-06	2.435334e-09	1.026430e+01	1.597530e+02
2.210000e-06	1.439093e-06	2.413702e-09	9.943510e+00	1.576920e+02
2.220000e-06	1.392200e-06	2.401545e-09	9.619500e+00	1.555825e+02
2.230000e-06	1.344781e-06	2.351283e-09	9.291856e+00	1.534202e+02
2.240000e-06	1.296844e-06	2.306126e-09	8.960627e+00	1.512082e+02
2.250000e-06	1.248359e-06	2.279823e-09	8.625616e+00	1.489552e+02
2.260000e-06	1.199347e-06	2.247022e-09	8.286967e+00	1.466717e+02
2.270000e-06	1.149889e-06	2.216671e-09	7.945232e+00	1.443651e+02
2.280000e-06	1.100014e-06	2.176699e-09	7.600621e+00	1.420362e+02
2.290000e-06	1.049722e-06	2.144132e-09	7.253121e+00	1.396781e+02
2.300000e-06	9.989760e-07	2.116857e-09	6.902491e+00	1.372786e+02
2.310000e-06	9.478680e-07	2.075695e-09	6.549356e+00	1.348239e+02
2.320000e-06	8.965100e-07	2.030215e-09	6.194495e+00	1.323030e+02
2.330000e-06	8.449044e-07	1.988533e-09	5.837923e+00	1.297103e+02
2.340000e-06	7.929474e-07	1.954191e-09	5.478922e+00	1.270464e+02
2.350000e-06	7.404730e-07	1.918728e-09	5.116347e+00	1.243163e+02
2.360000e-06	6.875723e-07	1.871001e-09	4.750826e+00	1.215265e+02
2.370000e-06	6.343584e-07	1.824321e-09	4.383141e+00	1.186827e+02
2.380000e-06	5.807296e-07	1.782001e-09	4.012590e+00	1.157876e+02
2.390000e-06	5.267464e-07	1.741564e-09	3.639589e+00	1.128410e+02
2.400000e-06	4.725061e-07	1.698291e-09	3.264812e+00	1.098402e+02
2.410000e-06	4.180345e-07	1.646546e-09	2.888437e+00	1.067807e+02
2.420000e-06	3.633889e-07	1.600745e-09	2.510859e+00	1.036572e+02
2.430000e-06	3.085342e-07	1.555690e-09	2.131837e+00	1.004633e+02
2.440000e-06	2.535460e-07	1.506048e-09	1.751893e+00	9.719157e+01
2.450000e-06	1.984984e-07	1.452642e-09	1.371538e+00	9.383415e+01
2.460000e-06	1.433891e-07	1.396759e-09	9.907568e-01	9.038411e+01
2.470000e-06	8.829194e-08	1.344906e-09	6.100590e-01	8.683750e+01
2.480000e-06	3.318953e-08	1.292041e-09	2.293253e-01	8.319531e+01
2.490000e-06	-2.192082e-08	1.235971e-09	-1.514633e-01	7.946400e+01
2.500000e-06	-7.699958e-08	1.176492e-09	-5.320337e-01	7.565394e+01
2.510000e-06	-1.320882e-07	1.115496e-09	-9.126724e-01	7.177559e+01
2.520000e-06	-1.871637e-07	1.055453e-09	-1.293220e+00	6.783462e+01
2.530000e-06	-2.421635e-07	9.952705e-10	-1.673244e+00	6.382756e+01
2.540000e-06	-2.970625e-07	9.319682e-10	-2.052573e+00	5.974018e+01
2.550000e-06	-3.518712e-07	8.675377e-10	-2.431277e+00	5.554963e+01
2.560000e-06	-4.065892e-07	8.033965e-10	-2.809355e+00	5.122992e+01
2.570000e-06	-4.610813e-07	7.364178e-10	-3.185871e+00	4.675913e+01
2.580000e-06	-5.152724e-07	6.641332e-10	-3.560308e+00	4.212550e+01
2.590000e-06	-5.691790e-07	5.870488e-10	-3.932780e+00	3.732972e+01
2.600000e-06	-6.227443e-07	5.095833e-10	-4.302893e+00	3.238236e+01
2.610000e-06	-6.759460e-07	4.330980e-10	-4.670494e+00	2.729676e+01
2.620000e-06	-7.287687e-07	3.565664e-10	-5.035476e+00	2.208024e+01
2.630000e-06	-7.810807e-07	2.756166e-10	-5.396929e+00	1.672687e+01
2.640000e-06	-8.330046e-07	1.905140e-10	-5.755700e+00	1.121512e+01
2.650000e-06	-8.846681e-07	1.034656e-10	-6.112673e+00	5.511686e+00
2.660000e-06	-9.359992e-07	1.400773e-11	-6.467348e+00	-4.195367e-01
2.670000e-06	-9.870339e-07	-8.009131e-11	-6.819976e+00	-6.606480e+00
2.680000e-06	-1.037772e-06	-1.807109e-10	-7.170553e+00	-1.306002e+01
2.690000e-06	-1.088088e-06	-2.826080e-10	-7.518215e+00	-1.977055e+01
2.700000e-06	-1.137929e-06	-3.847537e-10	-7.862596e+00	-2.671130e+01
2.710000e-06	-1.187368e-06	-4.913631e-10	-8.204195e+00	-3.384674e+01
2.720000e-06	-1.236401e-06	-6.045875e-10	-8.542991e+00	-4.114251e+01
2.730000e-06	-1.284848e-06	-7.202224e-10	-8.877743e+00	-4.857223e+01
2.740000e-06	-1.332522e-06	-8.353883e-10	-9.207148e+00	-5.611811e+01
2.750000e-06	-1.379416e-06	-9.512942e-10	-9.531163e+00	-6.376462e+01
2.760000e-06	-1.425663e-06	-1.069431e-09	-9.850713e+00	-7.148782e+01
2.770000e-06	-1.471477e-06	-1.189086e-09	-1.016727e+01	-7.924500e+01
2.780000e-06	-1.516983e-06	-1.308149e-09	-1.048169e+01	-8.696968e+01
2.790000e-06	-1.562123e-06	-1.424685e-09	-1.079359e+01	-9.457537e+01
2.800000e-06	-1.606762e-06	-1.537555e-09	-1.110203e+01	-1.019679e+02
2.810000e-06	-1.650800e-06	-1.646957e-09	-1.140631e+01	-1.090632e+02
2.820000e-06	-1.694335e-06	-1.751497e-09	-1.170712e+01	-1.158034e+02
2.830000e-06	-1.737517e-06	-1.849658e-09	-1.200549e+01	-1.221675e+02
2.840000e-06	-1.780213e-06	-1.942103e-09	-1.230050e+01	-1.281698e+02
2.850000e-06	-1.822264e-06	-2.030446e-09	-1.259105e+01	-1.338493e+02
2.860000e-06	-1.863744e-06	-2.113870e-09	-1.287766e+01	-1.392509e+02
2.870000e-06	-1.904628e-06	-2.192704e-09	-1.316015e+01	-1.444079e+02
2.880000e-06	-1.944784e-06	-2.267182e-09	-1.343761e+01	-1.493303e+02
2.890000e-06	-1.984335e-06	-2.337980e-09	-1.371089e+01	-1.540038e+02
2.900000e-06	-2.023379e-06	-2.406280e-09	-1.398067e+01	-1.583992e+02
2.910000e-06	-2.061720e-06	-2.471420e-09	-1.424559e+01	-1.624881e+02
2.920000e-06	-2.099074e-06	-2.532942e-09	-1.450369e+01	-1.662585e+02
2.930000e-06	-2.135399e-06	-2.590582e-09	-1.475468e+01	-1.697237e+02
2.940000e-06	-2.170926e-06	-2.643461e-09	-1.500016e+01	-1.729210e+02
