# Temperatura_=_17.32
# Concentracion g/m^3_=_13400.0
# C_Vs_to_Am_M_A/Vsm_=_65563218390.804596
# pendiente_HvsI_1/m_=_3716.3
# ordenada_HvsI_A/m_=_1297.0
# frecuencia_Hz_=_300999.83653115225

Tiempo_(s)	Campo_(V.s)	Magnetizacion_(V.s)	Campo_(kA/m)	Magnetizacion_(A/m)
0.000000e+00	-2.859337e-06	-3.165199e-09	-1.978217e+01	-2.062559e+02
1.000000e-08	-2.858595e-06	-3.166849e-09	-1.977704e+01	-2.061034e+02
2.000000e-08	-2.856882e-06	-3.165645e-09	-1.976519e+01	-2.059250e+02
3.000000e-08	-2.853895e-06	-3.162228e-09	-1.974452e+01	-2.057519e+02
4.000000e-08	-2.849870e-06	-3.158366e-09	-1.971668e+01	-2.055958e+02
5.000000e-08	-2.845059e-06	-3.153108e-09	-1.968339e+01	-2.054443e+02
6.000000e-08	-2.839371e-06	-3.145150e-09	-1.964404e+01	-2.052656e+02
7.000000e-08	-2.832755e-06	-3.135470e-09	-1.959827e+01	-2.050221e+02
8.000000e-08	-2.825151e-06	-3.161170e-09	-1.954566e+01	-2.046850e+02
9.000000e-08	-2.816438e-06	-3.198466e-09	-1.948538e+01	-2.042477e+02
1.000000e-07	-2.806274e-06	-3.165123e-09	-1.941506e+01	-2.037300e+02
1.100000e-07	-2.794687e-06	-3.037739e-09	-1.933490e+01	-2.031733e+02
1.200000e-07	-2.782294e-06	-3.049103e-09	-1.924915e+01	-2.026270e+02
1.300000e-07	-2.769151e-06	-3.174177e-09	-1.915823e+01	-2.021324e+02
1.400000e-07	-2.754969e-06	-3.129906e-09	-1.906011e+01	-2.017082e+02
1.500000e-07	-2.739835e-06	-2.980367e-09	-1.895541e+01	-2.013443e+02
1.600000e-07	-2.723601e-06	-3.118437e-09	-1.884309e+01	-2.010041e+02
1.700000e-07	-2.706014e-06	-3.169136e-09	-1.872142e+01	-2.006359e+02
1.800000e-07	-2.687492e-06	-2.954198e-09	-1.859327e+01	-2.001883e+02
1.900000e-07	-2.668302e-06	-3.020488e-09	-1.846051e+01	-1.996246e+02
2.000000e-07	-2.648232e-06	-3.102749e-09	-1.832166e+01	-1.989322e+02
2.100000e-07	-2.627230e-06	-2.936460e-09	-1.817635e+01	-1.981231e+02
2.200000e-07	-2.605468e-06	-2.949920e-09	-1.802579e+01	-1.972272e+02
2.300000e-07	-2.582890e-06	-3.114407e-09	-1.786959e+01	-1.962808e+02
2.400000e-07	-2.559319e-06	-2.994520e-09	-1.770652e+01	-1.953147e+02
2.500000e-07	-2.534925e-06	-2.904561e-09	-1.753775e+01	-1.943455e+02
2.600000e-07	-2.509771e-06	-2.957967e-09	-1.736372e+01	-1.933732e+02
2.700000e-07	-2.483539e-06	-2.924144e-09	-1.718223e+01	-1.923852e+02
2.800000e-07	-2.456130e-06	-2.903831e-09	-1.699261e+01	-1.913633e+02
2.900000e-07	-2.427796e-06	-2.921166e-09	-1.679658e+01	-1.902930e+02
3.000000e-07	-2.398575e-06	-2.841493e-09	-1.659442e+01	-1.891689e+02
3.100000e-07	-2.368574e-06	-2.878124e-09	-1.638686e+01	-1.879967e+02
3.200000e-07	-2.337936e-06	-2.909413e-09	-1.617489e+01	-1.867901e+02
3.300000e-07	-2.306500e-06	-2.775428e-09	-1.595740e+01	-1.855647e+02
3.400000e-07	-2.274332e-06	-2.783155e-09	-1.573485e+01	-1.843314e+02
3.500000e-07	-2.241607e-06	-2.803232e-09	-1.550844e+01	-1.830913e+02
3.600000e-07	-2.208127e-06	-2.738873e-09	-1.527681e+01	-1.818350e+02
3.700000e-07	-2.173451e-06	-2.758756e-09	-1.503690e+01	-1.805454e+02
3.800000e-07	-2.137639e-06	-2.759823e-09	-1.478915e+01	-1.792038e+02
3.900000e-07	-2.101175e-06	-2.667150e-09	-1.453687e+01	-1.777963e+02
4.000000e-07	-2.064134e-06	-2.688717e-09	-1.428060e+01	-1.763188e+02
4.100000e-07	-2.026336e-06	-2.699194e-09	-1.401910e+01	-1.747783e+02
4.200000e-07	-1.987772e-06	-2.606424e-09	-1.375230e+01	-1.731913e+02
4.300000e-07	-1.948487e-06	-2.583736e-09	-1.348050e+01	-1.715777e+02
4.400000e-07	-1.908567e-06	-2.599862e-09	-1.320432e+01	-1.699543e+02
4.500000e-07	-1.868210e-06	-2.577127e-09	-1.292511e+01	-1.683293e+02
4.600000e-07	-1.827466e-06	-2.535652e-09	-1.264323e+01	-1.666992e+02
4.700000e-07	-1.786019e-06	-2.502520e-09	-1.235648e+01	-1.650495e+02
4.800000e-07	-1.743503e-06	-2.467101e-09	-1.206234e+01	-1.633596e+02
4.900000e-07	-1.699955e-06	-2.460671e-09	-1.176105e+01	-1.616090e+02
5.000000e-07	-1.655754e-06	-2.438260e-09	-1.145525e+01	-1.597837e+02
5.100000e-07	-1.611175e-06	-2.390874e-09	-1.114683e+01	-1.578805e+02
5.200000e-07	-1.566166e-06	-2.362581e-09	-1.083544e+01	-1.559079e+02
5.300000e-07	-1.520585e-06	-2.346210e-09	-1.052009e+01	-1.538822e+02
5.400000e-07	-1.474433e-06	-2.312369e-09	-1.020079e+01	-1.518223e+02
5.500000e-07	-1.427788e-06	-2.262749e-09	-9.878076e+00	-1.497422e+02
5.600000e-07	-1.380624e-06	-2.223921e-09	-9.551777e+00	-1.476466e+02
5.700000e-07	-1.332935e-06	-2.197012e-09	-9.221844e+00	-1.455289e+02
5.800000e-07	-1.284810e-06	-2.188935e-09	-8.888889e+00	-1.433742e+02
5.900000e-07	-1.236332e-06	-2.154141e-09	-8.553502e+00	-1.411645e+02
6.000000e-07	-1.187513e-06	-2.102614e-09	-8.215747e+00	-1.388863e+02
6.100000e-07	-1.138190e-06	-2.065866e-09	-7.874506e+00	-1.365358e+02
6.200000e-07	-1.088108e-06	-2.035762e-09	-7.528021e+00	-1.341208e+02
6.300000e-07	-1.037320e-06	-1.997731e-09	-7.176647e+00	-1.316583e+02
6.400000e-07	-9.860046e-07	-1.949051e-09	-6.821621e+00	-1.291679e+02
6.500000e-07	-9.342188e-07	-1.908033e-09	-6.463344e+00	-1.266641e+02
6.600000e-07	-8.820767e-07	-1.880384e-09	-6.102602e+00	-1.241497e+02
6.700000e-07	-8.296708e-07	-1.856248e-09	-5.740034e+00	-1.216135e+02
6.800000e-07	-7.770280e-07	-1.808971e-09	-5.375828e+00	-1.190338e+02
6.900000e-07	-7.240850e-07	-1.756942e-09	-5.009544e+00	-1.163852e+02
7.000000e-07	-6.707916e-07	-1.716784e-09	-4.640837e+00	-1.136484e+02
7.100000e-07	-6.172212e-07	-1.678907e-09	-4.270213e+00	-1.108175e+02
7.200000e-07	-5.634464e-07	-1.630687e-09	-3.898174e+00	-1.079028e+02
7.300000e-07	-5.094718e-07	-1.578659e-09	-3.524754e+00	-1.049272e+02
7.400000e-07	-4.553136e-07	-1.536414e-09	-3.150063e+00	-1.019173e+02
7.500000e-07	-4.010166e-07	-1.497353e-09	-2.774412e+00	-9.889259e+01
7.600000e-07	-3.466356e-07	-1.453082e-09	-2.398180e+00	-9.585605e+01
7.700000e-07	-2.922105e-07	-1.395417e-09	-2.021643e+00	-9.279117e+01
7.800000e-07	-2.377064e-07	-1.341105e-09	-1.644559e+00	-8.966580e+01
7.900000e-07	-1.831223e-07	-1.294662e-09	-1.266922e+00	-8.644257e+01
8.000000e-07	-1.285112e-07	-1.246261e-09	-8.890978e-01	-8.309205e+01
8.100000e-07	-7.389154e-08	-1.190659e-09	-5.112148e-01	-7.960371e+01
8.200000e-07	-1.925565e-08	-1.134273e-09	-1.332192e-01	-7.599043e+01
8.300000e-07	3.537882e-08	-1.082538e-09	2.447665e-01	-7.228441e+01
8.400000e-07	8.999458e-08	-1.028013e-09	6.226228e-01	-6.852558e+01
8.500000e-07	1.445737e-07	-9.687123e-10	1.000226e+00	-6.474652e+01
8.600000e-07	1.991158e-07	-9.040701e-10	1.377573e+00	-6.095941e+01
8.700000e-07	2.536193e-07	-8.449309e-10	1.754652e+00	-5.714998e+01
8.800000e-07	3.080488e-07	-7.909011e-10	2.131220e+00	-5.328091e+01
8.900000e-07	3.624396e-07	-7.333126e-10	2.507519e+00	-4.930374e+01
9.000000e-07	4.167706e-07	-6.682655e-10	2.883406e+00	-4.517496e+01
9.100000e-07	4.709618e-07	-6.027809e-10	3.258325e+00	-4.087022e+01
9.200000e-07	5.249642e-07	-5.402230e-10	3.631937e+00	-3.639139e+01
9.300000e-07	5.787287e-07	-4.713361e-10	4.003904e+00	-3.176362e+01
9.400000e-07	6.322331e-07	-3.945343e-10	4.374072e+00	-2.702343e+01
9.500000e-07	6.854963e-07	-3.157612e-10	4.742570e+00	-2.220219e+01
9.600000e-07	7.384777e-07	-2.438491e-10	5.109120e+00	-1.731149e+01
9.700000e-07	7.911686e-07	-1.735037e-10	5.473659e+00	-1.233588e+01
9.800000e-07	8.436522e-07	-9.759403e-11	5.836764e+00	-7.235935e+00
9.900000e-07	8.958866e-07	-1.435646e-11	6.198145e+00	-1.960620e+00
1.000000e-06	9.477876e-07	7.023662e-11	6.557219e+00	3.535784e+00
1.010000e-06	9.992437e-07	1.555870e-10	6.913215e+00	9.278529e+00
1.020000e-06	1.050124e-06	2.477520e-10	7.265226e+00	1.526477e+01
1.030000e-06	1.100310e-06	3.464004e-10	7.612434e+00	2.146618e+01
1.040000e-06	1.149796e-06	4.478479e-10	7.954802e+00	2.784053e+01
1.050000e-06	1.198756e-06	5.450366e-10	8.293532e+00	3.434725e+01
1.060000e-06	1.247365e-06	6.423103e-10	8.629833e+00	4.096054e+01
1.070000e-06	1.295696e-06	7.442018e-10	8.964204e+00	4.767443e+01
1.080000e-06	1.343694e-06	8.496281e-10	9.296278e+00	5.449751e+01
1.090000e-06	1.391210e-06	9.529863e-10	9.625017e+00	6.143915e+01
1.100000e-06	1.438155e-06	1.057728e-09	9.949803e+00	6.849279e+01
1.110000e-06	1.484597e-06	1.169630e-09	1.027111e+01	7.562324e+01
1.120000e-06	1.530528e-06	1.283317e-09	1.058888e+01	8.276344e+01
1.130000e-06	1.575889e-06	1.390691e-09	1.090271e+01	8.982305e+01
1.140000e-06	1.620771e-06	1.490063e-09	1.121322e+01	9.670622e+01
1.150000e-06	1.665301e-06	1.587181e-09	1.152130e+01	1.033326e+02
1.160000e-06	1.709446e-06	1.681694e-09	1.182671e+01	1.096539e+02
1.170000e-06	1.753036e-06	1.771974e-09	1.212829e+01	1.156606e+02
1.180000e-06	1.795778e-06	1.858145e-09	1.242399e+01	1.213760e+02
1.190000e-06	1.837426e-06	1.943120e-09	1.271213e+01	1.268398e+02
1.200000e-06	1.878274e-06	2.026652e-09	1.299474e+01	1.320887e+02
1.210000e-06	1.918709e-06	2.104505e-09	1.327449e+01	1.371397e+02
1.220000e-06	1.958639e-06	2.175317e-09	1.355074e+01	1.419836e+02
1.230000e-06	1.997866e-06	2.240254e-09	1.382213e+01	1.465898e+02
1.240000e-06	2.036390e-06	2.301843e-09	1.408866e+01	1.509206e+02
1.250000e-06	2.074189e-06	2.361053e-09	1.435017e+01	1.549482e+02
1.260000e-06	2.111251e-06	2.416644e-09	1.460658e+01	1.586689e+02
1.270000e-06	2.147805e-06	2.468089e-09	1.485948e+01	1.621068e+02
1.280000e-06	2.183812e-06	2.517705e-09	1.510859e+01	1.653074e+02
1.290000e-06	2.218826e-06	2.565050e-09	1.535083e+01	1.683223e+02
1.300000e-06	2.252685e-06	2.606764e-09	1.558508e+01	1.711924e+02
1.310000e-06	2.285657e-06	2.642316e-09	1.581320e+01	1.739355e+02
1.320000e-06	2.317930e-06	2.674542e-09	1.603648e+01	1.765433e+02
1.330000e-06	2.349449e-06	2.707811e-09	1.625454e+01	1.789897e+02
1.340000e-06	2.380262e-06	2.742029e-09	1.646772e+01	1.812461e+02
1.350000e-06	2.410343e-06	2.774638e-09	1.667583e+01	1.832973e+02
1.360000e-06	2.439569e-06	2.803876e-09	1.687803e+01	1.851528e+02
1.370000e-06	2.468138e-06	2.829735e-09	1.707568e+01	1.868476e+02
1.380000e-06	2.495967e-06	2.852111e-09	1.726822e+01	1.884320e+02
1.390000e-06	2.522591e-06	2.871902e-09	1.745241e+01	1.899556e+02
1.400000e-06	2.548002e-06	2.890522e-09	1.762822e+01	1.914505e+02
1.410000e-06	2.572492e-06	2.910804e-09	1.779765e+01	1.929212e+02
1.420000e-06	2.596104e-06	2.933694e-09	1.796101e+01	1.943449e+02
1.430000e-06	2.618843e-06	2.955413e-09	1.811833e+01	1.956823e+02
1.440000e-06	2.640689e-06	2.974790e-09	1.826947e+01	1.968948e+02
1.450000e-06	2.661707e-06	2.992900e-09	1.841488e+01	1.979611e+02
1.460000e-06	2.682063e-06	3.008898e-09	1.855571e+01	1.988872e+02
1.470000e-06	2.701550e-06	3.020529e-09	1.869053e+01	1.997054e+02
1.480000e-06	2.719973e-06	3.030002e-09	1.881799e+01	2.004629e+02
1.490000e-06	2.737437e-06	3.040472e-09	1.893881e+01	2.012048e+02
1.500000e-06	2.753896e-06	3.052984e-09	1.905268e+01	2.019576e+02
1.510000e-06	2.769239e-06	3.065810e-09	1.915883e+01	2.027204e+02
1.520000e-06	2.783501e-06	3.076506e-09	1.925751e+01	2.034657e+02
1.530000e-06	2.796736e-06	3.087144e-09	1.934907e+01	2.041515e+02
1.540000e-06	2.808957e-06	3.099427e-09	1.943362e+01	2.047384e+02
1.550000e-06	2.819932e-06	3.109912e-09	1.950955e+01	2.052050e+02
1.560000e-06	2.829605e-06	3.115026e-09	1.957647e+01	2.055567e+02
1.570000e-06	2.838302e-06	3.116498e-09	1.963664e+01	2.058236e+02
1.580000e-06	2.846109e-06	3.119192e-09	1.969066e+01	2.060494e+02
1.590000e-06	2.852918e-06	3.125543e-09	1.973776e+01	2.062741e+02
1.600000e-06	2.858716e-06	3.132365e-09	1.977788e+01	2.065200e+02
1.610000e-06	2.863665e-06	3.136049e-09	1.981212e+01	2.067831e+02
1.620000e-06	2.867816e-06	3.138406e-09	1.984084e+01	2.070361e+02
1.630000e-06	2.870837e-06	3.144016e-09	1.986174e+01	2.072396e+02
1.640000e-06	2.872551e-06	3.149837e-09	1.987359e+01	2.073580e+02
1.650000e-06	2.873260e-06	3.151664e-09	1.987850e+01	2.073738e+02
1.660000e-06	2.873139e-06	3.149351e-09	1.987766e+01	2.072935e+02
1.670000e-06	2.872070e-06	3.143992e-09	1.987027e+01	2.071454e+02
1.680000e-06	2.870058e-06	3.140800e-09	1.985635e+01	2.069675e+02
1.690000e-06	2.867231e-06	3.139544e-09	1.983679e+01	2.067923e+02
1.700000e-06	2.863692e-06	3.137918e-09	1.981230e+01	2.066340e+02
1.710000e-06	2.859239e-06	3.138217e-09	1.978149e+01	2.064826e+02
1.720000e-06	2.853534e-06	3.145716e-09	1.974203e+01	2.063081e+02
1.730000e-06	2.846726e-06	3.149007e-09	1.969493e+01	2.060726e+02
1.740000e-06	2.839086e-06	3.086775e-09	1.964207e+01	2.057457e+02
1.750000e-06	2.830271e-06	3.043281e-09	1.958109e+01	2.053181e+02
1.760000e-06	2.819810e-06	3.113501e-09	1.950871e+01	2.048068e+02
1.770000e-06	2.808152e-06	3.207281e-09	1.942806e+01	2.042513e+02
1.780000e-06	2.796273e-06	3.109169e-09	1.934587e+01	2.037011e+02
1.790000e-06	2.783983e-06	3.006997e-09	1.926084e+01	2.031989e+02
1.800000e-06	2.770117e-06	3.141899e-09	1.916491e+01	2.027666e+02
1.810000e-06	2.754803e-06	3.128042e-09	1.905896e+01	2.023970e+02
1.820000e-06	2.738890e-06	2.958328e-09	1.894887e+01	2.020560e+02
1.830000e-06	2.722053e-06	3.055769e-09	1.883238e+01	2.016928e+02
1.840000e-06	2.703838e-06	3.202201e-09	1.870636e+01	2.012552e+02
1.850000e-06	2.684824e-06	3.012869e-09	1.857481e+01	2.007045e+02
1.860000e-06	2.665204e-06	2.988311e-09	1.843907e+01	2.000251e+02
1.870000e-06	2.644302e-06	3.189971e-09	1.829446e+01	1.992267e+02
1.880000e-06	2.622227e-06	2.999832e-09	1.814174e+01	1.983378e+02
1.890000e-06	2.599307e-06	2.864914e-09	1.798317e+01	1.973946e+02
1.900000e-06	2.575316e-06	3.068320e-09	1.781719e+01	1.964289e+02
1.910000e-06	2.550466e-06	3.016635e-09	1.764526e+01	1.954592e+02
1.920000e-06	2.524940e-06	2.931138e-09	1.746866e+01	1.944871e+02
1.930000e-06	2.498486e-06	2.994929e-09	1.728565e+01	1.935010e+02
1.940000e-06	2.471326e-06	2.909856e-09	1.709774e+01	1.924830e+02
1.950000e-06	2.443530e-06	2.919276e-09	1.690543e+01	1.914177e+02
1.960000e-06	2.414531e-06	2.965161e-09	1.670481e+01	1.902987e+02
1.970000e-06	2.384330e-06	2.804967e-09	1.649586e+01	1.891305e+02
1.980000e-06	2.353315e-06	2.842812e-09	1.628129e+01	1.879262e+02
1.990000e-06	2.321569e-06	2.948722e-09	1.606166e+01	1.867017e+02
2.000000e-06	2.289120e-06	2.794475e-09	1.583716e+01	1.854684e+02
2.010000e-06	2.255825e-06	2.810090e-09	1.560681e+01	1.842287e+02
2.020000e-06	2.221685e-06	2.844140e-09	1.537061e+01	1.829742e+02
2.030000e-06	2.186988e-06	2.713223e-09	1.513056e+01	1.816885e+02
2.040000e-06	2.151728e-06	2.766231e-09	1.488662e+01	1.803527e+02
2.050000e-06	2.115694e-06	2.770643e-09	1.463732e+01	1.789521e+02
2.060000e-06	2.078750e-06	2.658111e-09	1.438172e+01	1.774813e+02
2.070000e-06	2.040670e-06	2.700329e-09	1.411827e+01	1.759464e+02
2.080000e-06	2.001675e-06	2.696889e-09	1.384848e+01	1.743629e+02
2.090000e-06	1.962175e-06	2.628742e-09	1.357520e+01	1.727506e+02
2.100000e-06	1.922075e-06	2.616531e-09	1.329778e+01	1.711271e+02
2.110000e-06	1.881311e-06	2.568312e-09	1.301576e+01	1.695017e+02
2.120000e-06	1.839937e-06	2.563201e-09	1.272951e+01	1.678720e+02
2.130000e-06	1.797946e-06	2.563371e-09	1.243899e+01	1.662248e+02
2.140000e-06	1.755340e-06	2.512027e-09	1.214423e+01	1.645396e+02
2.150000e-06	1.712238e-06	2.489437e-09	1.184603e+01	1.627958e+02
2.160000e-06	1.668785e-06	2.466174e-09	1.154540e+01	1.609782e+02
2.170000e-06	1.624840e-06	2.440072e-09	1.124137e+01	1.590826e+02
2.180000e-06	1.580163e-06	2.399017e-09	1.093228e+01	1.571161e+02
2.190000e-06	1.534798e-06	2.361721e-09	1.061842e+01	1.550947e+02
2.200000e-06	1.488935e-06	2.348105e-09	1.030112e+01	1.530370e+02
2.210000e-06	1.442652e-06	2.319660e-09	9.980911e+00	1.509581e+02
2.220000e-06	1.395955e-06	2.290776e-09	9.657841e+00	1.488637e+02
2.230000e-06	1.348760e-06	2.253275e-09	9.331329e+00	1.467484e+02
2.240000e-06	1.300932e-06	2.199766e-09	9.000429e+00	1.445979e+02
2.250000e-06	1.252431e-06	2.181264e-09	8.664877e+00	1.423944e+02
2.260000e-06	1.203463e-06	2.155636e-09	8.326096e+00	1.401233e+02
2.270000e-06	1.154176e-06	2.106837e-09	7.985109e+00	1.377797e+02
2.280000e-06	1.104490e-06	2.072364e-09	7.641358e+00	1.353704e+02
2.290000e-06	1.054365e-06	2.031188e-09	7.294567e+00	1.329114e+02
2.300000e-06	1.003731e-06	2.003781e-09	6.944259e+00	1.304226e+02
2.310000e-06	9.527113e-07	1.967041e-09	6.591284e+00	1.279193e+02
2.320000e-06	9.014568e-07	1.915057e-09	6.236682e+00	1.254057e+02
2.330000e-06	8.499816e-07	1.882076e-09	5.880553e+00	1.228722e+02
2.340000e-06	7.982554e-07	1.849006e-09	5.522689e+00	1.202978e+02
2.350000e-06	7.460860e-07	1.808963e-09	5.161757e+00	1.176571e+02
2.360000e-06	6.934303e-07	1.759274e-09	4.797461e+00	1.149297e+02
2.370000e-06	6.403660e-07	1.711134e-09	4.430339e+00	1.121081e+02
2.380000e-06	5.868793e-07	1.675774e-09	4.060294e+00	1.092009e+02
2.390000e-06	5.330436e-07	1.636867e-09	3.687835e+00	1.062299e+02
2.400000e-06	4.788708e-07	1.591237e-09	3.313042e+00	1.032220e+02
2.410000e-06	4.244425e-07	1.544415e-09	2.936484e+00	1.001977e+02
2.420000e-06	3.698545e-07	1.499346e-09	2.558819e+00	9.716234e+01
2.430000e-06	3.150657e-07	1.456321e-09	2.179766e+00	9.410125e+01
2.440000e-06	2.601258e-07	1.403997e-09	1.799667e+00	9.098357e+01
2.450000e-06	2.051069e-07	1.348709e-09	1.419022e+00	8.777190e+01
2.460000e-06	1.500769e-07	1.300328e-09	1.038299e+00	8.443534e+01
2.470000e-06	9.504429e-08	1.252140e-09	6.575590e-01	8.096097e+01
2.480000e-06	3.997816e-08	1.202520e-09	2.765868e-01	7.735922e+01
2.490000e-06	-1.512656e-08	1.146389e-09	-1.046523e-01	7.366066e+01
2.500000e-06	-7.024500e-08	1.088235e-09	-4.859863e-01	6.990509e+01
2.510000e-06	-1.253372e-07	1.030675e-09	-8.671388e-01	6.612659e+01
2.520000e-06	-1.803912e-07	9.689242e-10	-1.248027e+00	6.233997e+01
2.530000e-06	-2.353901e-07	9.053495e-10	-1.628534e+00	5.853380e+01
2.540000e-06	-2.902848e-07	8.436359e-10	-2.008320e+00	5.467278e+01
2.550000e-06	-3.450625e-07	7.885266e-10	-2.387297e+00	5.070892e+01
2.560000e-06	-3.997232e-07	7.330803e-10	-2.765464e+00	4.659740e+01
2.570000e-06	-4.542222e-07	6.684208e-10	-3.142512e+00	4.231131e+01
2.580000e-06	-5.084877e-07	5.971218e-10	-3.517946e+00	3.784968e+01
2.590000e-06	-5.624045e-07	5.251408e-10	-3.890966e+00	3.323561e+01
2.600000e-06	-6.159511e-07	4.509175e-10	-4.261426e+00	2.850515e+01
2.610000e-06	-6.690845e-07	3.735182e-10	-4.629027e+00	2.369101e+01
2.620000e-06	-7.217135e-07	2.962574e-10	-4.993137e+00	1.880742e+01
2.630000e-06	-7.739558e-07	2.212181e-10	-5.354573e+00	1.384186e+01
2.640000e-06	-8.258875e-07	1.480722e-10	-5.713860e+00	8.757024e+00
2.650000e-06	-8.775082e-07	7.217667e-11	-6.070995e+00	3.502340e+00
2.660000e-06	-9.288493e-07	-1.013495e-11	-6.426196e+00	-1.969293e+00
2.670000e-06	-9.798710e-07	-9.859777e-11	-6.779186e+00	-7.685853e+00
2.680000e-06	-1.030545e-06	-1.904462e-10	-7.129775e+00	-1.364756e+01
2.690000e-06	-1.080842e-06	-2.858068e-10	-7.477746e+00	-1.982841e+01
2.700000e-06	-1.130707e-06	-3.847687e-10	-7.822739e+00	-2.618691e+01
2.710000e-06	-1.180147e-06	-4.857482e-10	-8.164786e+00	-3.268161e+01
2.720000e-06	-1.229163e-06	-5.839302e-10	-8.503897e+00	-3.928469e+01
2.730000e-06	-1.277684e-06	-6.792918e-10	-8.839593e+00	-4.598814e+01
2.740000e-06	-1.325379e-06	-7.808661e-10	-9.169568e+00	-5.279953e+01
2.750000e-06	-1.372262e-06	-8.903470e-10	-9.493920e+00	-5.972894e+01
2.760000e-06	-1.418617e-06	-1.001222e-09	-9.814625e+00	-6.677228e+01
2.770000e-06	-1.464483e-06	-1.110318e-09	-1.013195e+01	-7.389776e+01
2.780000e-06	-1.509975e-06	-1.220855e-09	-1.044668e+01	-8.104153e+01
2.790000e-06	-1.555120e-06	-1.331610e-09	-1.075902e+01	-8.811503e+01
2.800000e-06	-1.599788e-06	-1.437943e-09	-1.106805e+01	-9.502197e+01
2.810000e-06	-1.643875e-06	-1.536313e-09	-1.137307e+01	-1.016794e+02
2.820000e-06	-1.687461e-06	-1.630809e-09	-1.167461e+01	-1.080351e+02
2.830000e-06	-1.730669e-06	-1.725234e-09	-1.197354e+01	-1.140755e+02
2.840000e-06	-1.773368e-06	-1.817653e-09	-1.226895e+01	-1.198209e+02
2.850000e-06	-1.815417e-06	-1.905014e-09	-1.255987e+01	-1.253103e+02
2.860000e-06	-1.856908e-06	-1.984999e-09	-1.284692e+01	-1.305815e+02
2.870000e-06	-1.897789e-06	-2.061834e-09	-1.312976e+01	-1.356543e+02
2.880000e-06	-1.937931e-06	-2.136984e-09	-1.340747e+01	-1.405222e+02
2.890000e-06	-1.977475e-06	-2.208194e-09	-1.368106e+01	-1.451563e+02
2.900000e-06	-2.016509e-06	-2.275276e-09	-1.395111e+01	-1.495187e+02
2.910000e-06	-2.054823e-06	-2.340674e-09	-1.421619e+01	-1.535801e+02
2.920000e-06	-2.092159e-06	-2.403587e-09	-1.447449e+01	-1.573335e+02
2.930000e-06	-2.128497e-06	-2.461140e-09	-1.472589e+01	-1.608005e+02
2.940000e-06	-2.164079e-06	-2.512145e-09	-1.497207e+01	-1.640246e+02
