# Temperatura_=_16.5
# Concentracion g/m^3_=_13400.0
# C_Vs_to_Am_M_A/Vsm_=_65563218390.804596
# pendiente_HvsI_1/m_=_3716.3
# ordenada_HvsI_A/m_=_1297.0
# frecuencia_Hz_=_301005.3372477709

Tiempo_(s)	Campo_(V.s)	Magnetizacion_(V.s)	Campo_(kA/m)	Magnetizacion_(A/m)
0.000000e+00	-2.860749e-06	-3.073990e-09	-1.977722e+01	-2.008481e+02
1.000000e-08	-2.859953e-06	-3.076814e-09	-1.977172e+01	-2.007436e+02
2.000000e-08	-2.858309e-06	-3.078098e-09	-1.976035e+01	-2.006079e+02
3.000000e-08	-2.855433e-06	-3.075785e-09	-1.974047e+01	-2.004617e+02
4.000000e-08	-2.851391e-06	-3.071442e-09	-1.971252e+01	-2.003128e+02
5.000000e-08	-2.846534e-06	-3.065939e-09	-1.967895e+01	-2.001520e+02
6.000000e-08	-2.840812e-06	-3.058386e-09	-1.963939e+01	-1.999557e+02
7.000000e-08	-2.834145e-06	-3.052124e-09	-1.959330e+01	-1.996949e+02
8.000000e-08	-2.826501e-06	-3.064278e-09	-1.954045e+01	-1.993475e+02
9.000000e-08	-2.817726e-06	-3.096330e-09	-1.947979e+01	-1.989090e+02
1.000000e-07	-2.807578e-06	-3.087985e-09	-1.940963e+01	-1.983974e+02
1.100000e-07	-2.796062e-06	-3.011487e-09	-1.933001e+01	-1.978501e+02
1.200000e-07	-2.783654e-06	-2.960702e-09	-1.924424e+01	-1.973134e+02
1.300000e-07	-2.770471e-06	-3.019282e-09	-1.915310e+01	-1.968276e+02
1.400000e-07	-2.756248e-06	-3.056930e-09	-1.905477e+01	-1.964138e+02
1.500000e-07	-2.741022e-06	-2.977673e-09	-1.894951e+01	-1.960659e+02
1.600000e-07	-2.724698e-06	-2.998322e-09	-1.883666e+01	-1.957517e+02
1.700000e-07	-2.707044e-06	-3.044367e-09	-1.871461e+01	-1.954215e+02
1.800000e-07	-2.688461e-06	-2.959318e-09	-1.858614e+01	-1.950232e+02
1.900000e-07	-2.669284e-06	-2.928014e-09	-1.845356e+01	-1.945162e+02
2.000000e-07	-2.649264e-06	-2.971692e-09	-1.831516e+01	-1.938819e+02
2.100000e-07	-2.628291e-06	-2.910167e-09	-1.817017e+01	-1.931267e+02
2.200000e-07	-2.606496e-06	-2.872816e-09	-1.801949e+01	-1.922762e+02
2.300000e-07	-2.583826e-06	-2.978409e-09	-1.786277e+01	-1.913645e+02
2.400000e-07	-2.560111e-06	-2.954821e-09	-1.769882e+01	-1.904224e+02
2.500000e-07	-2.535596e-06	-2.839440e-09	-1.752934e+01	-1.894671e+02
2.600000e-07	-2.510350e-06	-2.848606e-09	-1.735480e+01	-1.884991e+02
2.700000e-07	-2.483987e-06	-2.859427e-09	-1.717255e+01	-1.875050e+02
2.800000e-07	-2.456463e-06	-2.825107e-09	-1.698227e+01	-1.864647e+02
2.900000e-07	-2.428018e-06	-2.830285e-09	-1.678562e+01	-1.853607e+02
3.000000e-07	-2.398738e-06	-2.785946e-09	-1.658319e+01	-1.841853e+02
3.100000e-07	-2.368691e-06	-2.773977e-09	-1.637547e+01	-1.829436e+02
3.200000e-07	-2.337987e-06	-2.813227e-09	-1.616321e+01	-1.816509e+02
3.300000e-07	-2.306518e-06	-2.746661e-09	-1.594566e+01	-1.803269e+02
3.400000e-07	-2.274248e-06	-2.674135e-09	-1.572256e+01	-1.789888e+02
3.500000e-07	-2.241365e-06	-2.699099e-09	-1.549523e+01	-1.776455e+02
3.600000e-07	-2.207791e-06	-2.697108e-09	-1.526312e+01	-1.762954e+02
3.700000e-07	-2.173119e-06	-2.662037e-09	-1.502342e+01	-1.749283e+02
3.800000e-07	-2.137308e-06	-2.656494e-09	-1.477585e+01	-1.735296e+02
3.900000e-07	-2.100798e-06	-2.616592e-09	-1.452345e+01	-1.720861e+02
4.000000e-07	-2.063698e-06	-2.594332e-09	-1.426696e+01	-1.705902e+02
4.100000e-07	-2.025819e-06	-2.594001e-09	-1.400509e+01	-1.690417e+02
4.200000e-07	-1.987210e-06	-2.544226e-09	-1.373818e+01	-1.674466e+02
4.300000e-07	-1.947880e-06	-2.494295e-09	-1.346628e+01	-1.658143e+02
4.400000e-07	-1.907863e-06	-2.499476e-09	-1.318963e+01	-1.641530e+02
4.500000e-07	-1.867400e-06	-2.495259e-09	-1.290990e+01	-1.624676e+02
4.600000e-07	-1.826577e-06	-2.453671e-09	-1.262768e+01	-1.607574e+02
4.700000e-07	-1.785119e-06	-2.412914e-09	-1.234107e+01	-1.590179e+02
4.800000e-07	-1.742612e-06	-2.378819e-09	-1.204720e+01	-1.572419e+02
4.900000e-07	-1.699031e-06	-2.362832e-09	-1.174591e+01	-1.554228e+02
5.000000e-07	-1.654780e-06	-2.344401e-09	-1.143999e+01	-1.535563e+02
5.100000e-07	-1.610173e-06	-2.300782e-09	-1.113161e+01	-1.516416e+02
5.200000e-07	-1.565120e-06	-2.259511e-09	-1.082014e+01	-1.496805e+02
5.300000e-07	-1.519508e-06	-2.248452e-09	-1.050482e+01	-1.476767e+02
5.400000e-07	-1.473309e-06	-2.221582e-09	-1.018543e+01	-1.456341e+02
5.500000e-07	-1.426519e-06	-2.171006e-09	-9.861958e+00	-1.435555e+02
5.600000e-07	-1.379215e-06	-2.133338e-09	-9.534926e+00	-1.414416e+02
5.700000e-07	-1.331437e-06	-2.108187e-09	-9.204626e+00	-1.392916e+02
5.800000e-07	-1.283284e-06	-2.086817e-09	-8.871725e+00	-1.371028e+02
5.900000e-07	-1.234789e-06	-2.053424e-09	-8.536468e+00	-1.348720e+02
6.000000e-07	-1.185907e-06	-2.006491e-09	-8.198532e+00	-1.325958e+02
6.100000e-07	-1.136503e-06	-1.962913e-09	-7.856986e+00	-1.302715e+02
6.200000e-07	-1.086410e-06	-1.936008e-09	-7.510676e+00	-1.278975e+02
6.300000e-07	-1.035663e-06	-1.904136e-09	-7.159847e+00	-1.254733e+02
6.400000e-07	-9.843701e-07	-1.857368e-09	-6.805247e+00	-1.229995e+02
6.500000e-07	-9.326189e-07	-1.811646e-09	-6.447475e+00	-1.204770e+02
6.600000e-07	-8.804607e-07	-1.780729e-09	-6.086890e+00	-1.179068e+02
6.700000e-07	-8.279652e-07	-1.752468e-09	-5.723972e+00	-1.152884e+02
6.800000e-07	-7.752370e-07	-1.704166e-09	-5.359446e+00	-1.126201e+02
6.900000e-07	-7.222503e-07	-1.650427e-09	-4.993133e+00	-1.098988e+02
7.000000e-07	-6.689642e-07	-1.610410e-09	-4.624751e+00	-1.071207e+02
7.100000e-07	-6.154037e-07	-1.578051e-09	-4.254471e+00	-1.042824e+02
7.200000e-07	-5.616462e-07	-1.532072e-09	-3.882829e+00	-1.013828e+02
7.300000e-07	-5.076848e-07	-1.477241e-09	-3.509778e+00	-9.842339e+01
7.400000e-07	-4.534822e-07	-1.429371e-09	-3.135059e+00	-9.540812e+01
7.500000e-07	-3.991314e-07	-1.388798e-09	-2.759316e+00	-9.234230e+01
7.600000e-07	-3.446982e-07	-1.344220e-09	-2.383002e+00	-8.923018e+01
7.700000e-07	-2.902143e-07	-1.288516e-09	-2.006338e+00	-8.607284e+01
7.800000e-07	-2.356915e-07	-1.234685e-09	-1.629406e+00	-8.286682e+01
7.900000e-07	-1.810739e-07	-1.189961e-09	-1.251818e+00	-7.960444e+01
8.000000e-07	-1.264071e-07	-1.144815e-09	-8.738906e-01	-7.627586e+01
8.100000e-07	-7.171245e-08	-1.088648e-09	-4.957697e-01	-7.287227e+01
8.200000e-07	-1.699115e-08	-1.029130e-09	-1.174650e-01	-6.938911e+01
8.300000e-07	3.769131e-08	-9.768222e-10	2.605713e-01	-6.582791e+01
8.400000e-07	9.234938e-08	-9.280186e-10	6.384390e-01	-6.219578e+01
8.500000e-07	1.469846e-07	-8.731040e-10	1.016149e+00	-5.850255e+01
8.600000e-07	2.015863e-07	-8.099620e-10	1.393627e+00	-5.475618e+01
8.700000e-07	2.561550e-07	-7.486922e-10	1.770877e+00	-5.095838e+01
8.800000e-07	3.106573e-07	-6.940343e-10	2.147668e+00	-4.710193e+01
8.900000e-07	3.651069e-07	-6.372025e-10	2.524094e+00	-4.317113e+01
9.000000e-07	4.194720e-07	-5.716200e-10	2.899936e+00	-3.914539e+01
9.100000e-07	4.736798e-07	-5.076741e-10	3.274690e+00	-3.500497e+01
9.200000e-07	5.276653e-07	-4.493434e-10	3.647909e+00	-3.073667e+01
9.300000e-07	5.814050e-07	-3.876336e-10	4.019427e+00	-2.633741e+01
9.400000e-07	6.349580e-07	-3.166758e-10	4.389655e+00	-2.181408e+01
9.500000e-07	6.882772e-07	-2.411585e-10	4.758267e+00	-1.717962e+01
9.600000e-07	7.413045e-07	-1.693152e-10	5.124861e+00	-1.244658e+01
9.700000e-07	7.940710e-07	-1.003968e-10	5.489652e+00	-7.620500e+00
9.800000e-07	8.465708e-07	-2.810514e-11	5.852598e+00	-2.695802e+00
9.900000e-07	8.987827e-07	5.032333e-11	6.213555e+00	2.344291e+00
1.000000e-06	9.506582e-07	1.301989e-10	6.572186e+00	7.523433e+00
1.010000e-06	1.002067e-06	2.100387e-10	6.927588e+00	1.286498e+01
1.020000e-06	1.052900e-06	2.922365e-10	7.279012e+00	1.838453e+01
1.030000e-06	1.103102e-06	3.801055e-10	7.626079e+00	2.408478e+01
1.040000e-06	1.152625e-06	4.733523e-10	7.968442e+00	2.995460e+01
1.050000e-06	1.201604e-06	5.657696e-10	8.307050e+00	3.597238e+01
1.060000e-06	1.250260e-06	6.563239e-10	8.643423e+00	4.211202e+01
1.070000e-06	1.298623e-06	7.504536e-10	8.977774e+00	4.834907e+01
1.080000e-06	1.346600e-06	8.485111e-10	9.309453e+00	5.466425e+01
1.090000e-06	1.394089e-06	9.452826e-10	9.637756e+00	6.104293e+01
1.100000e-06	1.441039e-06	1.039738e-09	9.962337e+00	6.747075e+01
1.110000e-06	1.487480e-06	1.136533e-09	1.028340e+01	7.392743e+01
1.120000e-06	1.533421e-06	1.236712e-09	1.060100e+01	8.038158e+01
1.130000e-06	1.578851e-06	1.336560e-09	1.091507e+01	8.678929e+01
1.140000e-06	1.623837e-06	1.432893e-09	1.122608e+01	9.309766e+01
1.150000e-06	1.668450e-06	1.524989e-09	1.153450e+01	9.925253e+01
1.160000e-06	1.712649e-06	1.612858e-09	1.184006e+01	1.052081e+02
1.170000e-06	1.756279e-06	1.697376e-09	1.214169e+01	1.109347e+02
1.180000e-06	1.799034e-06	1.779894e-09	1.243726e+01	1.164223e+02
1.190000e-06	1.840725e-06	1.861301e-09	1.272548e+01	1.216776e+02
1.200000e-06	1.881616e-06	1.939930e-09	1.300818e+01	1.267170e+02
1.210000e-06	1.922036e-06	2.014414e-09	1.328761e+01	1.315563e+02
1.220000e-06	1.961933e-06	2.083873e-09	1.356343e+01	1.362026e+02
1.230000e-06	2.001137e-06	2.148498e-09	1.383446e+01	1.406505e+02
1.240000e-06	2.039609e-06	2.208602e-09	1.410043e+01	1.448842e+02
1.250000e-06	2.077344e-06	2.265120e-09	1.436130e+01	1.488838e+02
1.260000e-06	2.114415e-06	2.320135e-09	1.461759e+01	1.526346e+02
1.270000e-06	2.150938e-06	2.373128e-09	1.487008e+01	1.561341e+02
1.280000e-06	2.186840e-06	2.423470e-09	1.511828e+01	1.593947e+02
1.290000e-06	2.221818e-06	2.469499e-09	1.536009e+01	1.624410e+02
1.300000e-06	2.255663e-06	2.510065e-09	1.559408e+01	1.653022e+02
1.310000e-06	2.288593e-06	2.546068e-09	1.582173e+01	1.680039e+02
1.320000e-06	2.320878e-06	2.580011e-09	1.604493e+01	1.705612e+02
1.330000e-06	2.352471e-06	2.613365e-09	1.626334e+01	1.729766e+02
1.340000e-06	2.383275e-06	2.647061e-09	1.647630e+01	1.752436e+02
1.350000e-06	2.413282e-06	2.680494e-09	1.668374e+01	1.773539e+02
1.360000e-06	2.442487e-06	2.711587e-09	1.688565e+01	1.793049e+02
1.370000e-06	2.470978e-06	2.739029e-09	1.708261e+01	1.811053e+02
1.380000e-06	2.498702e-06	2.763107e-09	1.727428e+01	1.827753e+02
1.390000e-06	2.525327e-06	2.784507e-09	1.745835e+01	1.843418e+02
1.400000e-06	2.550737e-06	2.804086e-09	1.763401e+01	1.858303e+02
1.410000e-06	2.575201e-06	2.824014e-09	1.780314e+01	1.872572e+02
1.420000e-06	2.598831e-06	2.844227e-09	1.796650e+01	1.886254e+02
1.430000e-06	2.621545e-06	2.863821e-09	1.812353e+01	1.899247e+02
1.440000e-06	2.643358e-06	2.882861e-09	1.827433e+01	1.911385e+02
1.450000e-06	2.664350e-06	2.901389e-09	1.841945e+01	1.922517e+02
1.460000e-06	2.684625e-06	2.919250e-09	1.855962e+01	1.932592e+02
1.470000e-06	2.704048e-06	2.933692e-09	1.869390e+01	1.941690e+02
1.480000e-06	2.722426e-06	2.944388e-09	1.882095e+01	1.950009e+02
1.490000e-06	2.739834e-06	2.953818e-09	1.894130e+01	1.957796e+02
1.500000e-06	2.756286e-06	2.965396e-09	1.905503e+01	1.965255e+02
1.510000e-06	2.771646e-06	2.979102e-09	1.916122e+01	1.972474e+02
1.520000e-06	2.785920e-06	2.990844e-09	1.925990e+01	1.979396e+02
1.530000e-06	2.799156e-06	3.000273e-09	1.935141e+01	1.985848e+02
1.540000e-06	2.811369e-06	3.010661e-09	1.943584e+01	1.991616e+02
1.550000e-06	2.822351e-06	3.020629e-09	1.951176e+01	1.996543e+02
1.560000e-06	2.831980e-06	3.027366e-09	1.957833e+01	2.000597e+02
1.570000e-06	2.840598e-06	3.031453e-09	1.963791e+01	2.003892e+02
1.580000e-06	2.848391e-06	3.035858e-09	1.969178e+01	2.006648e+02
1.590000e-06	2.855234e-06	3.042591e-09	1.973909e+01	2.009111e+02
1.600000e-06	2.861035e-06	3.048652e-09	1.977920e+01	2.011455e+02
1.610000e-06	2.865940e-06	3.051446e-09	1.981311e+01	2.013716e+02
1.620000e-06	2.870050e-06	3.052517e-09	1.984152e+01	2.015783e+02
1.630000e-06	2.873072e-06	3.056571e-09	1.986241e+01	2.017449e+02
1.640000e-06	2.874795e-06	3.062220e-09	1.987432e+01	2.018497e+02
1.650000e-06	2.875399e-06	3.065246e-09	1.987850e+01	2.018798e+02
1.660000e-06	2.875115e-06	3.064694e-09	1.987653e+01	2.018370e+02
1.670000e-06	2.873960e-06	3.060987e-09	1.986855e+01	2.017368e+02
1.680000e-06	2.871900e-06	3.056292e-09	1.985431e+01	2.016030e+02
1.690000e-06	2.868997e-06	3.052252e-09	1.983424e+01	2.014569e+02
1.700000e-06	2.865310e-06	3.049682e-09	1.980875e+01	2.013081e+02
1.710000e-06	2.860690e-06	3.049756e-09	1.977681e+01	2.011491e+02
1.720000e-06	2.854886e-06	3.053972e-09	1.973668e+01	2.009576e+02
1.730000e-06	2.848023e-06	3.054083e-09	1.968924e+01	2.007046e+02
1.740000e-06	2.840355e-06	3.019331e-09	1.963623e+01	2.003667e+02
1.750000e-06	2.831542e-06	2.971594e-09	1.957530e+01	1.999372e+02
1.760000e-06	2.821066e-06	2.993162e-09	1.950287e+01	1.994315e+02
1.770000e-06	2.809349e-06	3.077866e-09	1.942188e+01	1.988855e+02
1.780000e-06	2.797407e-06	3.056209e-09	1.933932e+01	1.983452e+02
1.790000e-06	2.785079e-06	2.966015e-09	1.925409e+01	1.978521e+02
1.800000e-06	2.771199e-06	2.969843e-09	1.915813e+01	1.974300e+02
1.810000e-06	2.755771e-06	3.013806e-09	1.905148e+01	1.970758e+02
1.820000e-06	2.739767e-06	2.953142e-09	1.894083e+01	1.967598e+02
1.830000e-06	2.722986e-06	2.942443e-09	1.882482e+01	1.964336e+02
1.840000e-06	2.704784e-06	3.043987e-09	1.869899e+01	1.960445e+02
1.850000e-06	2.685676e-06	2.990385e-09	1.856688e+01	1.955500e+02
1.860000e-06	2.666028e-06	2.921117e-09	1.843105e+01	1.949292e+02
1.870000e-06	2.645196e-06	3.009789e-09	1.828704e+01	1.941856e+02
1.880000e-06	2.623050e-06	2.956527e-09	1.813393e+01	1.933433e+02
1.890000e-06	2.599995e-06	2.824787e-09	1.797455e+01	1.924362e+02
1.900000e-06	2.575942e-06	2.912565e-09	1.780826e+01	1.914959e+02
1.910000e-06	2.551051e-06	2.960643e-09	1.763618e+01	1.905413e+02
1.920000e-06	2.525516e-06	2.876305e-09	1.745965e+01	1.895748e+02
1.930000e-06	2.499069e-06	2.870543e-09	1.727681e+01	1.885840e+02
1.940000e-06	2.471875e-06	2.865574e-09	1.708881e+01	1.875492e+02
1.950000e-06	2.444011e-06	2.827785e-09	1.689619e+01	1.864523e+02
1.960000e-06	2.414878e-06	2.846032e-09	1.669478e+01	1.852842e+02
1.970000e-06	2.384481e-06	2.773640e-09	1.648464e+01	1.840487e+02
1.980000e-06	2.353325e-06	2.727347e-09	1.626924e+01	1.827601e+02
1.990000e-06	2.321490e-06	2.814094e-09	1.604916e+01	1.814381e+02
2.000000e-06	2.288950e-06	2.775616e-09	1.582420e+01	1.801006e+02
2.010000e-06	2.255628e-06	2.700877e-09	1.559383e+01	1.787574e+02
2.020000e-06	2.221419e-06	2.716953e-09	1.535734e+01	1.774080e+02
2.030000e-06	2.186546e-06	2.678436e-09	1.511625e+01	1.760431e+02
2.040000e-06	2.151180e-06	2.647595e-09	1.487176e+01	1.746481e+02
2.050000e-06	2.115075e-06	2.650579e-09	1.462215e+01	1.732095e+02
2.060000e-06	2.078037e-06	2.598640e-09	1.436610e+01	1.717190e+02
2.070000e-06	2.039956e-06	2.589783e-09	1.410283e+01	1.701755e+02
2.080000e-06	2.000990e-06	2.598505e-09	1.383345e+01	1.685847e+02
2.090000e-06	1.961438e-06	2.553266e-09	1.356001e+01	1.669555e+02
2.100000e-06	1.921294e-06	2.517542e-09	1.328248e+01	1.652967e+02
2.110000e-06	1.880504e-06	2.482826e-09	1.300049e+01	1.636134e+02
2.120000e-06	1.839065e-06	2.462498e-09	1.271401e+01	1.619057e+02
2.130000e-06	1.797043e-06	2.458080e-09	1.242350e+01	1.601692e+02
2.140000e-06	1.754464e-06	2.423348e-09	1.212914e+01	1.583971e+02
2.150000e-06	1.711383e-06	2.382094e-09	1.183130e+01	1.565825e+02
2.160000e-06	1.667897e-06	2.360294e-09	1.153068e+01	1.547209e+02
2.170000e-06	1.623867e-06	2.346059e-09	1.122628e+01	1.528109e+02
2.180000e-06	1.579088e-06	2.309295e-09	1.091671e+01	1.508542e+02
2.190000e-06	1.533655e-06	2.264230e-09	1.060262e+01	1.488545e+02
2.200000e-06	1.487697e-06	2.248038e-09	1.028490e+01	1.468155e+02
2.210000e-06	1.441351e-06	2.227382e-09	9.964493e+00	1.447403e+02
2.220000e-06	1.394618e-06	2.185900e-09	9.641417e+00	1.426299e+02
2.230000e-06	1.347318e-06	2.149809e-09	9.314415e+00	1.404835e+02
2.240000e-06	1.299382e-06	2.106441e-09	8.983020e+00	1.382986e+02
2.250000e-06	1.250839e-06	2.078534e-09	8.647425e+00	1.360721e+02
2.260000e-06	1.201857e-06	2.060081e-09	8.308800e+00	1.338005e+02
2.270000e-06	1.152521e-06	2.019560e-09	7.967724e+00	1.314811e+02
2.280000e-06	1.102775e-06	1.977811e-09	7.623818e+00	1.291122e+02
2.290000e-06	1.052542e-06	1.940143e-09	7.276538e+00	1.266930e+02
2.300000e-06	1.001847e-06	1.909771e-09	6.926067e+00	1.242241e+02
2.310000e-06	9.508481e-07	1.872988e-09	6.573498e+00	1.217064e+02
2.320000e-06	8.996365e-07	1.822253e-09	6.219457e+00	1.191409e+02
2.330000e-06	8.481782e-07	1.784209e-09	5.863711e+00	1.165273e+02
2.340000e-06	7.963310e-07	1.756691e-09	5.505275e+00	1.138642e+02
2.350000e-06	7.439791e-07	1.717692e-09	5.143351e+00	1.111484e+02
2.360000e-06	6.911896e-07	1.666441e-09	4.778401e+00	1.083762e+02
2.370000e-06	6.379986e-07	1.616483e-09	4.410676e+00	1.055441e+02
2.380000e-06	5.843511e-07	1.579994e-09	4.039795e+00	1.026507e+02
2.390000e-06	5.303266e-07	1.542733e-09	3.666307e+00	9.969712e+01
2.400000e-06	4.760688e-07	1.494142e-09	3.291207e+00	9.668723e+01
2.410000e-06	4.215891e-07	1.445704e-09	2.914572e+00	9.362622e+01
2.420000e-06	3.669547e-07	1.400709e-09	2.536868e+00	9.051857e+01
2.430000e-06	3.121883e-07	1.355779e-09	2.158252e+00	8.736579e+01
2.440000e-06	2.572867e-07	1.304132e-09	1.778700e+00	8.416492e+01
2.450000e-06	2.023118e-07	1.248742e-09	1.398643e+00	8.090868e+01
2.460000e-06	1.473069e-07	1.199200e-09	1.018377e+00	7.758729e+01
2.470000e-06	9.232320e-08	1.153306e-09	6.382580e-01	7.419169e+01
2.480000e-06	3.730675e-08	1.104428e-09	2.579127e-01	7.071674e+01
2.490000e-06	-1.777462e-08	1.047952e-09	-1.228813e-01	6.716327e+01
2.500000e-06	-7.286195e-08	9.885273e-10	-5.037166e-01	6.353793e+01
2.510000e-06	-1.278948e-07	9.330873e-10	-8.841749e-01	5.985042e+01
2.520000e-06	-1.828603e-07	8.783708e-10	-1.264168e+00	5.610916e+01
2.530000e-06	-2.378028e-07	8.186632e-10	-1.644002e+00	5.231668e+01
2.540000e-06	-2.927161e-07	7.579275e-10	-2.023634e+00	4.846678e+01
2.550000e-06	-3.474777e-07	7.022494e-10	-2.402218e+00	4.454451e+01
2.560000e-06	-4.020895e-07	6.470027e-10	-2.779765e+00	4.052959e+01
2.570000e-06	-4.566058e-07	5.820348e-10	-3.156653e+00	3.640188e+01
2.580000e-06	-5.109083e-07	5.100419e-10	-3.532062e+00	3.214726e+01
2.590000e-06	-5.649115e-07	4.406251e-10	-3.905403e+00	2.776149e+01
2.600000e-06	-6.185579e-07	3.720592e-10	-4.276277e+00	2.325053e+01
2.610000e-06	-6.717910e-07	3.011281e-10	-4.644293e+00	1.862695e+01
2.620000e-06	-7.246170e-07	2.280827e-10	-5.009495e+00	1.390367e+01
2.630000e-06	-7.769895e-07	1.552084e-10	-5.371562e+00	9.087248e+00
2.640000e-06	-8.289515e-07	8.269152e-11	-5.730791e+00	4.173379e+00
2.650000e-06	-8.805899e-07	8.447812e-12	-6.087782e+00	-8.536514e-01
2.660000e-06	-9.318832e-07	-7.153956e-11	-6.442388e+00	-6.017070e+00
2.670000e-06	-9.828773e-07	-1.559993e-10	-6.794926e+00	-1.134065e+01
2.680000e-06	-1.033539e-06	-2.405626e-10	-7.145165e+00	-1.684111e+01
2.690000e-06	-1.083797e-06	-3.255938e-10	-7.492614e+00	-2.252266e+01
2.700000e-06	-1.133643e-06	-4.141291e-10	-7.837216e+00	-2.837557e+01
2.710000e-06	-1.183049e-06	-5.080993e-10	-8.178775e+00	-3.437908e+01
2.720000e-06	-1.232038e-06	-6.023194e-10	-8.517447e+00	-4.050727e+01
2.730000e-06	-1.280476e-06	-6.938019e-10	-8.852317e+00	-4.673528e+01
2.740000e-06	-1.328178e-06	-7.881832e-10	-9.182091e+00	-5.304321e+01
2.750000e-06	-1.375144e-06	-8.874924e-10	-9.506783e+00	-5.941609e+01
2.760000e-06	-1.421490e-06	-9.865829e-10	-9.827186e+00	-6.583983e+01
2.770000e-06	-1.467381e-06	-1.083344e-09	-1.014445e+01	-7.229505e+01
2.780000e-06	-1.512925e-06	-1.181955e-09	-1.045930e+01	-7.875172e+01
2.790000e-06	-1.558057e-06	-1.283521e-09	-1.077132e+01	-8.516721e+01
2.800000e-06	-1.602656e-06	-1.383292e-09	-1.107964e+01	-9.148923e+01
2.810000e-06	-1.646658e-06	-1.476347e-09	-1.138384e+01	-9.766333e+01
2.820000e-06	-1.690184e-06	-1.564152e-09	-1.168475e+01	-1.036424e+02
2.830000e-06	-1.733336e-06	-1.651336e-09	-1.198307e+01	-1.093947e+02
2.840000e-06	-1.776014e-06	-1.738515e-09	-1.227812e+01	-1.149082e+02
2.850000e-06	-1.818124e-06	-1.821769e-09	-1.256924e+01	-1.201881e+02
2.860000e-06	-1.859617e-06	-1.898828e-09	-1.285609e+01	-1.252501e+02
2.870000e-06	-1.900459e-06	-1.973673e-09	-1.313844e+01	-1.301106e+02
2.880000e-06	-1.940591e-06	-2.047018e-09	-1.341589e+01	-1.347780e+02
2.890000e-06	-1.980148e-06	-2.116501e-09	-1.368936e+01	-1.392482e+02
2.900000e-06	-2.019200e-06	-2.181576e-09	-1.395934e+01	-1.435061e+02
2.910000e-06	-2.057553e-06	-2.245022e-09	-1.422448e+01	-1.475320e+02
2.920000e-06	-2.094970e-06	-2.307398e-09	-1.448316e+01	-1.513102e+02
2.930000e-06	-2.131340e-06	-2.365720e-09	-1.473460e+01	-1.548367e+02
2.940000e-06	-2.166869e-06	-2.417619e-09	-1.498022e+01	-1.581223e+02
