# Temperatura_=_21.78
# Concentracion g/m^3_=_13400.0
# C_Vs_to_Am_M_A/Vsm_=_65563218390.804596
# pendiente_HvsI_1/m_=_3716.3
# ordenada_HvsI_A/m_=_1297.0
# frecuencia_Hz_=_300994.9427892852

Tiempo_(s)	Campo_(V.s)	Magnetizacion_(V.s)	Campo_(kA/m)	Magnetizacion_(A/m)
0.000000e+00	-2.858529e-06	-3.242558e-09	-1.978162e+01	-2.116150e+02
1.000000e-08	-2.857646e-06	-3.242192e-09	-1.977551e+01	-2.114576e+02
2.000000e-08	-2.855833e-06	-3.242046e-09	-1.976297e+01	-2.112906e+02
3.000000e-08	-2.852714e-06	-3.239980e-09	-1.974138e+01	-2.111387e+02
4.000000e-08	-2.848486e-06	-3.236468e-09	-1.971212e+01	-2.110047e+02
5.000000e-08	-2.843505e-06	-3.234046e-09	-1.967765e+01	-2.108658e+02
6.000000e-08	-2.837669e-06	-3.232991e-09	-1.963726e+01	-2.106815e+02
7.000000e-08	-2.830900e-06	-3.232419e-09	-1.959042e+01	-2.104082e+02
8.000000e-08	-2.823130e-06	-3.234953e-09	-1.953665e+01	-2.100177e+02
9.000000e-08	-2.814197e-06	-3.241507e-09	-1.947483e+01	-2.095106e+02
1.000000e-07	-2.803837e-06	-3.228591e-09	-1.940314e+01	-2.089205e+02
1.100000e-07	-2.792145e-06	-3.175799e-09	-1.932223e+01	-2.083065e+02
1.200000e-07	-2.779660e-06	-3.139510e-09	-1.923583e+01	-2.077348e+02
1.300000e-07	-2.766406e-06	-3.166441e-09	-1.914411e+01	-2.072578e+02
1.400000e-07	-2.752114e-06	-3.217092e-09	-1.904520e+01	-2.068957e+02
1.500000e-07	-2.736858e-06	-3.166999e-09	-1.893963e+01	-2.066286e+02
1.600000e-07	-2.720479e-06	-3.162730e-09	-1.882629e+01	-2.064017e+02
1.700000e-07	-2.702730e-06	-3.198976e-09	-1.870346e+01	-2.061412e+02
1.800000e-07	-2.684075e-06	-3.136498e-09	-1.857436e+01	-2.057766e+02
1.900000e-07	-2.664812e-06	-3.096178e-09	-1.844106e+01	-2.052607e+02
2.000000e-07	-2.644661e-06	-3.113273e-09	-1.830161e+01	-2.045813e+02
2.100000e-07	-2.623498e-06	-3.094921e-09	-1.815516e+01	-2.037611e+02
2.200000e-07	-2.601503e-06	-3.072042e-09	-1.800295e+01	-2.028462e+02
2.300000e-07	-2.578726e-06	-3.136875e-09	-1.784533e+01	-2.018889e+02
2.400000e-07	-2.554984e-06	-3.122657e-09	-1.768102e+01	-2.009295e+02
2.500000e-07	-2.530408e-06	-3.023705e-09	-1.751095e+01	-1.999860e+02
2.600000e-07	-2.505027e-06	-3.001575e-09	-1.733531e+01	-1.990515e+02
2.700000e-07	-2.478546e-06	-3.023700e-09	-1.715206e+01	-1.981022e+02
2.800000e-07	-2.450939e-06	-3.007831e-09	-1.696101e+01	-1.971099e+02
2.900000e-07	-2.422453e-06	-2.996182e-09	-1.676389e+01	-1.960542e+02
3.000000e-07	-2.393180e-06	-2.954746e-09	-1.656131e+01	-1.949307e+02
3.100000e-07	-2.363157e-06	-2.960549e-09	-1.635355e+01	-1.937503e+02
3.200000e-07	-2.332438e-06	-2.988156e-09	-1.614096e+01	-1.925333e+02
3.300000e-07	-2.300886e-06	-2.910462e-09	-1.592261e+01	-1.912990e+02
3.400000e-07	-2.268582e-06	-2.858920e-09	-1.569906e+01	-1.900568e+02
3.500000e-07	-2.235681e-06	-2.883694e-09	-1.547138e+01	-1.888028e+02
3.600000e-07	-2.202014e-06	-2.874125e-09	-1.523840e+01	-1.875214e+02
3.700000e-07	-2.167207e-06	-2.846316e-09	-1.499753e+01	-1.861931e+02
3.800000e-07	-2.131285e-06	-2.846372e-09	-1.474894e+01	-1.848030e+02
3.900000e-07	-2.094709e-06	-2.799637e-09	-1.449582e+01	-1.833478e+02
4.000000e-07	-2.057607e-06	-2.780381e-09	-1.423907e+01	-1.818370e+02
4.100000e-07	-2.019781e-06	-2.778632e-09	-1.397731e+01	-1.802890e+02
4.200000e-07	-1.981149e-06	-2.723277e-09	-1.370997e+01	-1.787234e+02
4.300000e-07	-1.941754e-06	-2.686078e-09	-1.343734e+01	-1.771527e+02
4.400000e-07	-1.901731e-06	-2.696733e-09	-1.316038e+01	-1.755774e+02
4.500000e-07	-1.861272e-06	-2.686248e-09	-1.288039e+01	-1.739853e+02
4.600000e-07	-1.820395e-06	-2.641946e-09	-1.259751e+01	-1.723573e+02
4.700000e-07	-1.778771e-06	-2.602829e-09	-1.230947e+01	-1.706744e+02
4.800000e-07	-1.736069e-06	-2.567522e-09	-1.201396e+01	-1.689252e+02
4.900000e-07	-1.692418e-06	-2.552237e-09	-1.171189e+01	-1.671098e+02
5.000000e-07	-1.648203e-06	-2.531183e-09	-1.140591e+01	-1.652384e+02
5.100000e-07	-1.603585e-06	-2.494995e-09	-1.109715e+01	-1.633260e+02
5.200000e-07	-1.558497e-06	-2.463787e-09	-1.078513e+01	-1.613851e+02
5.300000e-07	-1.512851e-06	-2.445065e-09	-1.046925e+01	-1.594201e+02
5.400000e-07	-1.466618e-06	-2.409173e-09	-1.014930e+01	-1.574249e+02
5.500000e-07	-1.419869e-06	-2.358033e-09	-9.825793e+00	-1.553860e+02
5.600000e-07	-1.372585e-06	-2.322910e-09	-9.498578e+00	-1.532886e+02
5.700000e-07	-1.324804e-06	-2.298988e-09	-9.167923e+00	-1.511232e+02
5.800000e-07	-1.276634e-06	-2.280544e-09	-8.834573e+00	-1.488905e+02
5.900000e-07	-1.228093e-06	-2.245175e-09	-8.498664e+00	-1.466017e+02
6.000000e-07	-1.179141e-06	-2.197604e-09	-8.159905e+00	-1.442742e+02
6.100000e-07	-1.129639e-06	-2.154215e-09	-7.817342e+00	-1.419251e+02
6.200000e-07	-1.079448e-06	-2.121094e-09	-7.470004e+00	-1.395631e+02
6.300000e-07	-1.028634e-06	-2.086435e-09	-7.118366e+00	-1.371852e+02
6.400000e-07	-9.773025e-07	-2.044366e-09	-6.763138e+00	-1.347768e+02
6.500000e-07	-9.254790e-07	-2.004015e-09	-6.404509e+00	-1.323163e+02
6.600000e-07	-8.732913e-07	-1.971648e-09	-6.043359e+00	-1.297829e+02
6.700000e-07	-8.208180e-07	-1.940296e-09	-5.680233e+00	-1.271635e+02
6.800000e-07	-7.680907e-07	-1.891562e-09	-5.315349e+00	-1.244568e+02
6.900000e-07	-7.150772e-07	-1.839772e-09	-4.948485e+00	-1.216728e+02
7.000000e-07	-6.617422e-07	-1.798147e-09	-4.579395e+00	-1.188278e+02
7.100000e-07	-6.081898e-07	-1.760745e-09	-4.208801e+00	-1.159379e+02
7.200000e-07	-5.544952e-07	-1.714402e-09	-3.837223e+00	-1.130122e+02
7.300000e-07	-5.005703e-07	-1.662824e-09	-3.464051e+00	-1.100493e+02
7.400000e-07	-4.464290e-07	-1.615438e-09	-3.089382e+00	-1.070380e+02
7.500000e-07	-3.921608e-07	-1.569841e-09	-2.713835e+00	-1.039614e+02
7.600000e-07	-3.378046e-07	-1.520880e-09	-2.337679e+00	-1.008032e+02
7.700000e-07	-2.833851e-07	-1.466569e-09	-1.961084e+00	-9.755346e+01
7.800000e-07	-2.289057e-07	-1.415686e-09	-1.584076e+00	-9.421084e+01
7.900000e-07	-1.743547e-07	-1.368875e-09	-1.206571e+00	-9.078244e+01
8.000000e-07	-1.197545e-07	-1.318825e-09	-8.287262e-01	-8.727987e+01
8.100000e-07	-6.512066e-08	-1.259998e-09	-4.506487e-01	-8.371416e+01
8.200000e-07	-1.041321e-08	-1.199478e-09	-7.206163e-02	-8.009124e+01
8.300000e-07	4.429587e-08	-1.143713e-09	3.065367e-01	-7.640968e+01
8.400000e-07	9.895508e-08	-1.090670e-09	6.847899e-01	-7.266125e+01
8.500000e-07	1.535565e-07	-1.035347e-09	1.062643e+00	-6.883369e+01
8.600000e-07	2.080631e-07	-9.733034e-10	1.439840e+00	-6.491446e+01
8.700000e-07	2.625342e-07	-9.103655e-10	1.816792e+00	-6.089392e+01
8.800000e-07	3.169727e-07	-8.495524e-10	2.193518e+00	-5.676674e+01
8.900000e-07	3.713322e-07	-7.870744e-10	2.569697e+00	-5.253151e+01
9.000000e-07	4.256232e-07	-7.183096e-10	2.945402e+00	-4.818871e+01
9.100000e-07	4.797652e-07	-6.487242e-10	3.320076e+00	-4.373840e+01
9.200000e-07	5.337134e-07	-5.829782e-10	3.693409e+00	-3.917822e+01
9.300000e-07	5.874861e-07	-5.152718e-10	4.065527e+00	-3.450250e+01
9.400000e-07	6.409957e-07	-4.408139e-10	4.435825e+00	-2.970239e+01
9.500000e-07	6.942200e-07	-3.617308e-10	4.804148e+00	-2.476652e+01
9.600000e-07	7.471755e-07	-2.839640e-10	5.170611e+00	-1.968182e+01
9.700000e-07	7.998332e-07	-2.064950e-10	5.535014e+00	-1.443408e+01
9.800000e-07	8.522195e-07	-1.253467e-10	5.897538e+00	-9.008342e+00
9.900000e-07	9.043769e-07	-3.688448e-11	6.258478e+00	-3.389413e+00
1.000000e-06	9.561701e-07	5.545302e-11	6.616898e+00	2.437021e+00
1.010000e-06	1.007439e-06	1.482599e-10	6.971692e+00	8.482678e+00
1.020000e-06	1.058123e-06	2.423312e-10	7.322436e+00	1.475454e+01
1.030000e-06	1.108193e-06	3.417313e-10	7.668931e+00	2.125292e+01
1.040000e-06	1.157642e-06	4.478752e-10	8.011128e+00	2.797028e+01
1.050000e-06	1.206554e-06	5.539153e-10	8.349609e+00	3.489127e+01
1.060000e-06	1.255120e-06	6.585933e-10	8.685691e+00	4.199371e+01
1.070000e-06	1.303397e-06	7.665296e-10	9.019777e+00	4.925001e+01
1.080000e-06	1.351339e-06	8.800560e-10	9.351549e+00	5.662807e+01
1.090000e-06	1.398780e-06	9.944298e-10	9.679850e+00	6.409132e+01
1.100000e-06	1.445639e-06	1.107757e-09	1.000412e+01	7.159766e+01
1.110000e-06	1.491975e-06	1.222184e-09	1.032478e+01	7.909829e+01
1.120000e-06	1.537778e-06	1.337107e-09	1.064175e+01	8.653741e+01
1.130000e-06	1.583045e-06	1.448679e-09	1.095500e+01	9.385399e+01
1.140000e-06	1.627858e-06	1.553768e-09	1.126512e+01	1.009861e+02
1.150000e-06	1.672335e-06	1.654746e-09	1.157291e+01	1.078770e+02
1.160000e-06	1.716439e-06	1.753651e-09	1.187812e+01	1.144820e+02
1.170000e-06	1.759852e-06	1.850685e-09	1.217854e+01	1.207733e+02
1.180000e-06	1.802368e-06	1.943095e-09	1.247276e+01	1.267416e+02
1.190000e-06	1.843991e-06	2.029811e-09	1.276081e+01	1.323938e+02
1.200000e-06	1.884804e-06	2.111596e-09	1.304324e+01	1.377469e+02
1.210000e-06	1.925040e-06	2.187932e-09	1.332168e+01	1.428203e+02
1.220000e-06	1.964790e-06	2.257979e-09	1.359676e+01	1.476293e+02
1.230000e-06	2.003895e-06	2.323042e-09	1.386738e+01	1.521813e+02
1.240000e-06	2.042289e-06	2.385693e-09	1.413307e+01	1.564766e+02
1.250000e-06	2.079993e-06	2.446359e-09	1.439399e+01	1.605120e+02
1.260000e-06	2.116983e-06	2.503446e-09	1.464997e+01	1.642863e+02
1.270000e-06	2.153399e-06	2.553731e-09	1.490197e+01	1.678052e+02
1.280000e-06	2.189235e-06	2.601223e-09	1.514997e+01	1.710826e+02
1.290000e-06	2.224080e-06	2.647383e-09	1.539110e+01	1.741390e+02
1.300000e-06	2.257750e-06	2.689214e-09	1.562411e+01	1.769961e+02
1.310000e-06	2.290531e-06	2.726019e-09	1.585095e+01	1.796723e+02
1.320000e-06	2.322678e-06	2.759877e-09	1.607342e+01	1.821788e+02
1.330000e-06	2.354148e-06	2.792715e-09	1.629120e+01	1.845197e+02
1.340000e-06	2.384838e-06	2.824038e-09	1.650358e+01	1.866957e+02
1.350000e-06	2.414709e-06	2.853698e-09	1.671029e+01	1.887093e+02
1.360000e-06	2.443768e-06	2.881367e-09	1.691139e+01	1.905706e+02
1.370000e-06	2.472156e-06	2.906644e-09	1.710784e+01	1.922989e+02
1.380000e-06	2.499755e-06	2.929867e-09	1.729883e+01	1.939206e+02
1.390000e-06	2.526238e-06	2.950992e-09	1.748209e+01	1.954631e+02
1.400000e-06	2.551540e-06	2.969915e-09	1.765719e+01	1.969468e+02
1.410000e-06	2.575881e-06	2.989736e-09	1.782564e+01	1.983796e+02
1.420000e-06	2.599354e-06	3.009935e-09	1.798808e+01	1.997547e+02
1.430000e-06	2.621899e-06	3.027664e-09	1.814409e+01	2.010546e+02
1.440000e-06	2.643573e-06	3.045272e-09	1.829408e+01	2.022586e+02
1.450000e-06	2.664473e-06	3.064133e-09	1.843871e+01	2.033526e+02
1.460000e-06	2.684641e-06	3.081146e-09	1.857828e+01	2.043359e+02
1.470000e-06	2.703954e-06	3.094607e-09	1.871193e+01	2.052228e+02
1.480000e-06	2.722227e-06	3.106023e-09	1.883838e+01	2.060386e+02
1.490000e-06	2.739478e-06	3.117691e-09	1.895777e+01	2.068106e+02
1.500000e-06	2.755764e-06	3.130621e-09	1.907047e+01	2.075580e+02
1.510000e-06	2.770916e-06	3.142936e-09	1.917532e+01	2.082853e+02
1.520000e-06	2.784974e-06	3.153248e-09	1.927261e+01	2.089806e+02
1.530000e-06	2.798058e-06	3.162208e-09	1.936315e+01	2.096220e+02
1.540000e-06	2.810079e-06	3.171576e-09	1.944634e+01	2.101863e+02
1.550000e-06	2.820871e-06	3.179506e-09	1.952102e+01	2.106603e+02
1.560000e-06	2.830419e-06	3.184569e-09	1.958710e+01	2.110465e+02
1.570000e-06	2.838957e-06	3.189890e-09	1.964618e+01	2.113634e+02
1.580000e-06	2.846590e-06	3.197495e-09	1.969900e+01	2.116381e+02
1.590000e-06	2.853263e-06	3.204412e-09	1.974518e+01	2.118958e+02
1.600000e-06	2.858935e-06	3.208512e-09	1.978443e+01	2.121491e+02
1.610000e-06	2.863717e-06	3.211684e-09	1.981752e+01	2.123923e+02
1.620000e-06	2.867665e-06	3.214902e-09	1.984485e+01	2.126036e+02
1.630000e-06	2.870492e-06	3.218248e-09	1.986441e+01	2.127539e+02
1.640000e-06	2.872024e-06	3.220408e-09	1.987501e+01	2.128193e+02
1.650000e-06	2.872529e-06	3.221615e-09	1.987850e+01	2.127923e+02
1.660000e-06	2.872166e-06	3.222104e-09	1.987599e+01	2.126861e+02
1.670000e-06	2.870895e-06	3.219411e-09	1.986719e+01	2.125310e+02
1.680000e-06	2.868727e-06	3.213393e-09	1.985220e+01	2.123629e+02
1.690000e-06	2.865761e-06	3.208565e-09	1.983167e+01	2.122082e+02
1.700000e-06	2.862076e-06	3.207569e-09	1.980617e+01	2.120722e+02
1.710000e-06	2.857441e-06	3.207383e-09	1.977409e+01	2.119350e+02
1.720000e-06	2.851571e-06	3.201581e-09	1.973347e+01	2.117570e+02
1.730000e-06	2.844624e-06	3.195993e-09	1.968540e+01	2.114944e+02
1.740000e-06	2.836778e-06	3.175681e-09	1.963110e+01	2.111163e+02
1.750000e-06	2.827668e-06	3.153113e-09	1.956806e+01	2.106200e+02
1.760000e-06	2.817020e-06	3.156456e-09	1.949437e+01	2.100356e+02
1.770000e-06	2.805316e-06	3.216040e-09	1.941337e+01	2.094203e+02
1.780000e-06	2.793304e-06	3.209428e-09	1.933025e+01	2.088405e+02
1.790000e-06	2.780762e-06	3.134201e-09	1.924345e+01	2.083510e+02
1.800000e-06	2.766702e-06	3.107458e-09	1.914616e+01	2.079762e+02
1.810000e-06	2.751197e-06	3.144617e-09	1.903886e+01	2.077004e+02
1.820000e-06	2.735095e-06	3.143463e-09	1.892743e+01	2.074719e+02
1.830000e-06	2.718190e-06	3.126468e-09	1.881044e+01	2.072179e+02
1.840000e-06	2.699913e-06	3.197480e-09	1.868397e+01	2.068667e+02
1.850000e-06	2.680705e-06	3.182991e-09	1.855104e+01	2.063676e+02
1.860000e-06	2.660865e-06	3.101060e-09	1.841374e+01	2.057045e+02
1.870000e-06	2.639890e-06	3.136319e-09	1.826859e+01	2.048968e+02
1.880000e-06	2.617744e-06	3.119304e-09	1.811534e+01	2.039888e+02
1.890000e-06	2.594695e-06	3.016317e-09	1.795584e+01	2.030331e+02
1.900000e-06	2.570612e-06	3.068035e-09	1.778918e+01	2.020720e+02
1.910000e-06	2.545686e-06	3.121021e-09	1.761668e+01	2.011260e+02
1.920000e-06	2.520135e-06	3.058176e-09	1.743986e+01	2.001908e+02
1.930000e-06	2.493656e-06	3.016433e-09	1.725662e+01	1.992439e+02
1.940000e-06	2.466318e-06	3.013487e-09	1.706744e+01	1.982567e+02
1.950000e-06	2.438186e-06	3.002744e-09	1.687276e+01	1.972077e+02
1.960000e-06	2.408883e-06	3.003430e-09	1.666997e+01	1.960905e+02
1.970000e-06	2.378514e-06	2.939576e-09	1.645981e+01	1.949146e+02
1.980000e-06	2.347385e-06	2.916143e-09	1.624440e+01	1.936999e+02
1.990000e-06	2.315565e-06	2.989650e-09	1.602419e+01	1.924660e+02
2.000000e-06	2.283009e-06	2.937737e-09	1.579890e+01	1.912240e+02
2.010000e-06	2.249591e-06	2.870205e-09	1.556764e+01	1.899712e+02
2.020000e-06	2.215310e-06	2.890958e-09	1.533041e+01	1.886930e+02
2.030000e-06	2.180395e-06	2.848245e-09	1.508879e+01	1.873699e+02
2.040000e-06	2.144904e-06	2.817856e-09	1.484318e+01	1.859862e+02
2.050000e-06	2.108652e-06	2.828950e-09	1.459231e+01	1.845371e+02
2.060000e-06	2.071571e-06	2.778611e-09	1.433570e+01	1.830308e+02
2.070000e-06	2.033493e-06	2.771498e-09	1.407220e+01	1.814851e+02
2.080000e-06	1.994496e-06	2.778776e-09	1.380233e+01	1.799199e+02
2.090000e-06	1.954915e-06	2.719958e-09	1.352842e+01	1.783489e+02
2.100000e-06	1.914756e-06	2.684947e-09	1.325051e+01	1.767738e+02
2.110000e-06	1.873955e-06	2.656994e-09	1.296816e+01	1.751837e+02
2.120000e-06	1.832483e-06	2.639274e-09	1.268116e+01	1.735599e+02
2.130000e-06	1.790398e-06	2.642941e-09	1.238993e+01	1.718829e+02
2.140000e-06	1.747826e-06	2.610717e-09	1.209532e+01	1.701403e+02
2.150000e-06	1.704783e-06	2.573787e-09	1.179746e+01	1.683310e+02
2.160000e-06	1.661282e-06	2.548383e-09	1.149642e+01	1.664643e+02
2.170000e-06	1.617204e-06	2.515779e-09	1.119139e+01	1.645549e+02
2.180000e-06	1.572425e-06	2.479992e-09	1.088151e+01	1.626161e+02
2.190000e-06	1.527038e-06	2.449324e-09	1.056743e+01	1.606530e+02
2.200000e-06	1.481132e-06	2.435152e-09	1.024975e+01	1.586610e+02
2.210000e-06	1.434787e-06	2.417421e-09	9.929028e+00	1.566269e+02
2.220000e-06	1.388049e-06	2.376483e-09	9.605589e+00	1.545357e+02
2.230000e-06	1.340731e-06	2.338537e-09	9.278138e+00	1.523771e+02
2.240000e-06	1.292747e-06	2.295471e-09	8.946078e+00	1.501505e+02
2.250000e-06	1.244199e-06	2.261450e-09	8.610117e+00	1.478663e+02
2.260000e-06	1.195244e-06	2.240170e-09	8.271339e+00	1.455415e+02
2.270000e-06	1.145897e-06	2.204309e-09	7.929847e+00	1.431933e+02
2.280000e-06	1.096110e-06	2.170027e-09	7.585313e+00	1.408319e+02
2.290000e-06	1.045941e-06	2.133768e-09	7.238131e+00	1.384556e+02
2.300000e-06	9.953305e-07	2.098298e-09	6.887896e+00	1.360508e+02
2.310000e-06	9.442876e-07	2.060841e-09	6.534668e+00	1.335963e+02
2.320000e-06	8.929412e-07	2.014475e-09	6.179341e+00	1.310708e+02
2.330000e-06	8.413497e-07	1.978492e-09	5.822316e+00	1.284603e+02
2.340000e-06	7.894996e-07	1.948207e-09	5.463503e+00	1.257620e+02
2.350000e-06	7.372881e-07	1.905681e-09	5.102188e+00	1.229849e+02
2.360000e-06	6.846659e-07	1.856039e-09	4.738032e+00	1.201449e+02
2.370000e-06	6.316371e-07	1.808249e-09	4.371061e+00	1.172586e+02
2.380000e-06	5.781013e-07	1.768088e-09	4.000582e+00	1.143360e+02
2.390000e-06	5.241433e-07	1.727810e-09	3.627182e+00	1.113768e+02
2.400000e-06	4.699061e-07	1.681012e-09	3.251849e+00	1.083707e+02
2.410000e-06	4.154380e-07	1.636941e-09	2.874918e+00	1.053013e+02
2.420000e-06	3.607926e-07	1.591678e-09	2.496760e+00	1.021519e+02
2.430000e-06	3.059551e-07	1.542201e-09	2.117274e+00	9.891146e+01
2.440000e-06	2.510584e-07	1.487572e-09	1.737377e+00	9.557791e+01
2.450000e-06	1.961528e-07	1.430265e-09	1.357418e+00	9.215752e+01
2.460000e-06	1.411448e-07	1.378068e-09	9.767517e-01	8.866166e+01
2.470000e-06	8.609264e-08	1.327665e-09	5.957791e-01	8.510165e+01
2.480000e-06	3.104056e-08	1.275307e-09	2.148072e-01	8.148413e+01
2.490000e-06	-2.403211e-08	1.218795e-09	-1.663072e-01	7.780849e+01
2.500000e-06	-7.908722e-08	1.159357e-09	-5.473002e-01	7.406710e+01
2.510000e-06	-1.341293e-07	1.099460e-09	-9.282026e-01	7.024798e+01
2.520000e-06	-1.891370e-07	1.039232e-09	-1.308868e+00	6.633845e+01
2.530000e-06	-2.440818e-07	9.781710e-10	-1.689097e+00	6.232843e+01
2.540000e-06	-2.989406e-07	9.158867e-10	-2.068731e+00	5.821215e+01
2.550000e-06	-3.536683e-07	8.531577e-10	-2.447459e+00	5.398782e+01
2.560000e-06	-4.082664e-07	7.885641e-10	-2.825289e+00	4.965586e+01
2.570000e-06	-4.626652e-07	7.190949e-10	-3.201740e+00	4.521646e+01
2.580000e-06	-5.169060e-07	6.462212e-10	-3.577098e+00	4.066760e+01
2.590000e-06	-5.708567e-07	5.735766e-10	-3.950448e+00	3.600398e+01
2.600000e-06	-6.243623e-07	5.002627e-10	-4.320718e+00	3.121704e+01
2.610000e-06	-6.774798e-07	4.263152e-10	-4.688302e+00	2.629565e+01
2.620000e-06	-7.301010e-07	3.509371e-10	-5.052452e+00	2.122690e+01
2.630000e-06	-7.822673e-07	2.715427e-10	-5.413454e+00	1.599668e+01
2.640000e-06	-8.341187e-07	1.881664e-10	-5.772277e+00	1.059008e+01
2.650000e-06	-8.856754e-07	1.028558e-10	-6.129059e+00	4.991897e+00
2.660000e-06	-9.369725e-07	1.507512e-11	-6.484046e+00	-8.123417e-01
2.670000e-06	-9.879698e-07	-7.676950e-11	-6.836958e+00	-6.834735e+00
2.680000e-06	-1.038611e-06	-1.712941e-10	-7.187407e+00	-1.308288e+01
2.690000e-06	-1.088833e-06	-2.682423e-10	-7.534951e+00	-1.955787e+01
2.700000e-06	-1.138586e-06	-3.684735e-10	-7.879255e+00	-2.625303e+01
2.710000e-06	-1.187942e-06	-4.736732e-10	-8.220809e+00	-3.315381e+01
2.720000e-06	-1.236890e-06	-5.825895e-10	-8.559538e+00	-4.023870e+01
2.730000e-06	-1.285162e-06	-6.931689e-10	-8.893594e+00	-4.748064e+01
2.740000e-06	-1.332623e-06	-8.056470e-10	-9.222028e+00	-5.484798e+01
2.750000e-06	-1.379390e-06	-9.206928e-10	-9.545668e+00	-6.230467e+01
2.760000e-06	-1.425616e-06	-1.035319e-09	-9.865564e+00	-6.980927e+01
2.770000e-06	-1.471415e-06	-1.146697e-09	-1.018250e+01	-7.731372e+01
2.780000e-06	-1.516853e-06	-1.259226e-09	-1.049694e+01	-8.476294e+01
2.790000e-06	-1.561878e-06	-1.372826e-09	-1.080852e+01	-9.209630e+01
2.800000e-06	-1.606390e-06	-1.484808e-09	-1.111656e+01	-9.925169e+01
2.810000e-06	-1.650362e-06	-1.592182e-09	-1.142085e+01	-1.061715e+02
2.820000e-06	-1.693862e-06	-1.693698e-09	-1.172188e+01	-1.128095e+02
2.830000e-06	-1.736966e-06	-1.790167e-09	-1.202017e+01	-1.191358e+02
2.840000e-06	-1.779540e-06	-1.882269e-09	-1.231479e+01	-1.251393e+02
2.850000e-06	-1.821475e-06	-1.970142e-09	-1.260499e+01	-1.308253e+02
2.860000e-06	-1.862816e-06	-2.052090e-09	-1.289108e+01	-1.362102e+02
2.870000e-06	-1.903553e-06	-2.129606e-09	-1.317299e+01	-1.413133e+02
2.880000e-06	-1.943624e-06	-2.205038e-09	-1.345028e+01	-1.461508e+02
2.890000e-06	-1.983096e-06	-2.278148e-09	-1.372344e+01	-1.507309e+02
2.900000e-06	-2.022036e-06	-2.346927e-09	-1.399291e+01	-1.550545e+02
2.910000e-06	-2.060258e-06	-2.411476e-09	-1.425741e+01	-1.591185e+02
2.920000e-06	-2.097496e-06	-2.473043e-09	-1.451512e+01	-1.629214e+02
2.930000e-06	-2.133726e-06	-2.531032e-09	-1.476583e+01	-1.664678e+02
2.940000e-06	-2.169209e-06	-2.583839e-09	-1.501138e+01	-1.697709e+02
