# Temperatura_=_24.88
# Concentracion g/m^3_=_13400.0
# C_Vs_to_Am_M_A/Vsm_=_65563218390.804596
# pendiente_HvsI_1/m_=_3716.3
# ordenada_HvsI_A/m_=_1297.0
# frecuencia_Hz_=_300986.8532984197

Tiempo_(s)	Campo_(V.s)	Magnetizacion_(V.s)	Campo_(kA/m)	Magnetizacion_(A/m)
0.000000e+00	-2.857927e-06	-3.268653e-09	-1.978516e+01	-2.145011e+02
1.000000e-08	-2.857247e-06	-3.273775e-09	-1.978045e+01	-2.143919e+02
2.000000e-08	-2.855590e-06	-3.275952e-09	-1.976898e+01	-2.142643e+02
3.000000e-08	-2.852620e-06	-3.272548e-09	-1.974842e+01	-2.141323e+02
4.000000e-08	-2.848593e-06	-3.266599e-09	-1.972054e+01	-2.139956e+02
5.000000e-08	-2.843759e-06	-3.259858e-09	-1.968707e+01	-2.138386e+02
6.000000e-08	-2.838060e-06	-3.249441e-09	-1.964762e+01	-2.136353e+02
7.000000e-08	-2.831467e-06	-3.231192e-09	-1.960197e+01	-2.133575e+02
8.000000e-08	-2.823893e-06	-3.266815e-09	-1.954954e+01	-2.129858e+02
9.000000e-08	-2.815167e-06	-3.335920e-09	-1.948914e+01	-2.125170e+02
1.000000e-07	-2.804908e-06	-3.319042e-09	-1.941811e+01	-2.119668e+02
1.100000e-07	-2.793256e-06	-3.119574e-09	-1.933745e+01	-2.113661e+02
1.200000e-07	-2.780906e-06	-3.095199e-09	-1.925195e+01	-2.107517e+02
1.300000e-07	-2.767847e-06	-3.301709e-09	-1.916154e+01	-2.101553e+02
1.400000e-07	-2.753708e-06	-3.295194e-09	-1.906366e+01	-2.095940e+02
1.500000e-07	-2.738578e-06	-3.078553e-09	-1.895892e+01	-2.090653e+02
1.600000e-07	-2.722343e-06	-3.202240e-09	-1.884652e+01	-2.085487e+02
1.700000e-07	-2.704727e-06	-3.359272e-09	-1.872457e+01	-2.080129e+02
1.800000e-07	-2.686175e-06	-3.092378e-09	-1.859614e+01	-2.074259e+02
1.900000e-07	-2.667043e-06	-3.101326e-09	-1.846369e+01	-2.067651e+02
2.000000e-07	-2.647030e-06	-3.277065e-09	-1.832514e+01	-2.060232e+02
2.100000e-07	-2.625980e-06	-3.072098e-09	-1.817941e+01	-2.052088e+02
2.200000e-07	-2.604131e-06	-3.012852e-09	-1.802815e+01	-2.043421e+02
2.300000e-07	-2.581486e-06	-3.271857e-09	-1.787138e+01	-2.034463e+02
2.400000e-07	-2.557887e-06	-3.186558e-09	-1.770801e+01	-2.025397e+02
2.500000e-07	-2.533541e-06	-3.009981e-09	-1.753946e+01	-2.016291e+02
2.600000e-07	-2.508339e-06	-3.067262e-09	-1.736499e+01	-2.007090e+02
2.700000e-07	-2.481954e-06	-3.080328e-09	-1.718233e+01	-1.997640e+02
2.800000e-07	-2.454501e-06	-3.032515e-09	-1.699228e+01	-1.987759e+02
2.900000e-07	-2.426159e-06	-3.032693e-09	-1.679607e+01	-1.977301e+02
3.000000e-07	-2.396936e-06	-2.980097e-09	-1.659376e+01	-1.966212e+02
3.100000e-07	-2.366977e-06	-3.010064e-09	-1.638635e+01	-1.954547e+02
3.200000e-07	-2.336356e-06	-3.063614e-09	-1.617437e+01	-1.942442e+02
3.300000e-07	-2.304922e-06	-2.933149e-09	-1.595676e+01	-1.930066e+02
3.400000e-07	-2.272749e-06	-2.910082e-09	-1.573402e+01	-1.917555e+02
3.500000e-07	-2.239999e-06	-2.918183e-09	-1.550730e+01	-1.904970e+02
3.600000e-07	-2.206474e-06	-2.863057e-09	-1.527521e+01	-1.892272e+02
3.700000e-07	-2.171786e-06	-2.906322e-09	-1.503507e+01	-1.879345e+02
3.800000e-07	-2.136039e-06	-2.905109e-09	-1.478759e+01	-1.866037e+02
3.900000e-07	-2.099627e-06	-2.802071e-09	-1.453552e+01	-1.852217e+02
4.000000e-07	-2.062559e-06	-2.829402e-09	-1.427890e+01	-1.837820e+02
4.100000e-07	-2.024722e-06	-2.851771e-09	-1.401696e+01	-1.822864e+02
4.200000e-07	-1.986173e-06	-2.737662e-09	-1.375008e+01	-1.807444e+02
4.300000e-07	-1.946868e-06	-2.701954e-09	-1.347798e+01	-1.791691e+02
4.400000e-07	-1.906914e-06	-2.726912e-09	-1.320138e+01	-1.775724e+02
4.500000e-07	-1.866578e-06	-2.719530e-09	-1.292214e+01	-1.759606e+02
4.600000e-07	-1.825822e-06	-2.685346e-09	-1.263999e+01	-1.743323e+02
4.700000e-07	-1.784352e-06	-2.648218e-09	-1.235290e+01	-1.726785e+02
4.800000e-07	-1.741787e-06	-2.603738e-09	-1.205822e+01	-1.709863e+02
4.900000e-07	-1.698191e-06	-2.587917e-09	-1.175642e+01	-1.692426e+02
5.000000e-07	-1.654041e-06	-2.574537e-09	-1.145077e+01	-1.674387e+02
5.100000e-07	-1.609519e-06	-2.527066e-09	-1.114255e+01	-1.655730e+02
5.200000e-07	-1.564551e-06	-2.491474e-09	-1.083124e+01	-1.636509e+02
5.300000e-07	-1.519003e-06	-2.474845e-09	-1.051592e+01	-1.616825e+02
5.400000e-07	-1.472886e-06	-2.456631e-09	-1.019665e+01	-1.596788e+02
5.500000e-07	-1.426254e-06	-2.411027e-09	-9.873823e+00	-1.576477e+02
5.600000e-07	-1.379052e-06	-2.363194e-09	-9.547048e+00	-1.555913e+02
5.700000e-07	-1.331385e-06	-2.330569e-09	-9.217053e+00	-1.535054e+02
5.800000e-07	-1.283372e-06	-2.323001e-09	-8.884665e+00	-1.513811e+02
5.900000e-07	-1.235019e-06	-2.293007e-09	-8.549917e+00	-1.492086e+02
6.000000e-07	-1.186214e-06	-2.237052e-09	-8.212044e+00	-1.469802e+02
6.100000e-07	-1.136807e-06	-2.196833e-09	-7.870007e+00	-1.446932e+02
6.200000e-07	-1.086637e-06	-2.166273e-09	-7.522687e+00	-1.423507e+02
6.300000e-07	-1.035796e-06	-2.137752e-09	-7.170718e+00	-1.399591e+02
6.400000e-07	-9.844661e-07	-2.094787e-09	-6.815365e+00	-1.375259e+02
6.500000e-07	-9.326996e-07	-2.050848e-09	-6.456991e+00	-1.350554e+02
6.600000e-07	-8.805911e-07	-2.016229e-09	-6.096248e+00	-1.325465e+02
6.700000e-07	-8.281774e-07	-1.989353e-09	-5.733393e+00	-1.299924e+02
6.800000e-07	-7.755108e-07	-1.945246e-09	-5.368788e+00	-1.273825e+02
6.900000e-07	-7.225995e-07	-1.890727e-09	-5.002488e+00	-1.247057e+02
7.000000e-07	-6.693939e-07	-1.847906e-09	-4.634150e+00	-1.219542e+02
7.100000e-07	-6.158837e-07	-1.812680e-09	-4.263704e+00	-1.191263e+02
7.200000e-07	-5.621541e-07	-1.773489e-09	-3.891739e+00	-1.162266e+02
7.300000e-07	-5.082763e-07	-1.723522e-09	-3.518748e+00	-1.132640e+02
7.400000e-07	-4.542304e-07	-1.674579e-09	-3.144594e+00	-1.102474e+02
7.500000e-07	-4.000038e-07	-1.628422e-09	-2.769188e+00	-1.071815e+02
7.600000e-07	-3.456891e-07	-1.583264e-09	-2.393173e+00	-1.040639e+02
7.700000e-07	-2.913189e-07	-1.527247e-09	-2.016773e+00	-1.008846e+02
7.800000e-07	-2.368842e-07	-1.470673e-09	-1.639927e+00	-9.762824e+01
7.900000e-07	-1.823956e-07	-1.422610e-09	-1.262707e+00	-9.427898e+01
8.000000e-07	-1.278424e-07	-1.373714e-09	-8.850408e-01	-9.082530e+01
8.100000e-07	-7.320146e-08	-1.319632e-09	-5.067668e-01	-8.726385e+01
8.200000e-07	-1.856530e-08	-1.260571e-09	-1.285258e-01	-8.360020e+01
8.300000e-07	3.605608e-08	-1.204222e-09	2.496128e-01	-7.984647e+01
8.400000e-07	9.067695e-08	-1.147829e-09	6.277479e-01	-7.601633e+01
8.500000e-07	1.452292e-07	-1.090566e-09	1.005408e+00	-7.211929e+01
8.600000e-07	1.997680e-07	-1.026555e-09	1.382975e+00	-6.815628e+01
8.700000e-07	2.542870e-07	-9.610272e-10	1.760405e+00	-6.411827e+01
8.800000e-07	3.087011e-07	-8.997805e-10	2.137108e+00	-5.998833e+01
8.900000e-07	3.630092e-07	-8.383998e-10	2.513078e+00	-5.574653e+01
9.000000e-07	4.172326e-07	-7.724125e-10	2.888461e+00	-5.137568e+01
9.100000e-07	4.713427e-07	-7.027241e-10	3.263061e+00	-4.686588e+01
9.200000e-07	5.253256e-07	-6.351643e-10	3.636779e+00	-4.221580e+01
9.300000e-07	5.791270e-07	-5.638654e-10	4.009241e+00	-3.743046e+01
9.400000e-07	6.326541e-07	-4.880853e-10	4.379804e+00	-3.251589e+01
9.500000e-07	6.858900e-07	-4.063816e-10	4.748351e+00	-2.747301e+01
9.600000e-07	7.388248e-07	-3.238134e-10	5.114814e+00	-2.229287e+01
9.700000e-07	7.914798e-07	-2.437443e-10	5.479339e+00	-1.695521e+01
9.800000e-07	8.439151e-07	-1.626092e-10	5.842344e+00	-1.143118e+01
9.900000e-07	8.960966e-07	-7.539564e-11	6.203592e+00	-5.689222e+00
1.000000e-06	9.479687e-07	1.735864e-11	6.562697e+00	2.977759e-01
1.010000e-06	9.994230e-07	1.116734e-10	6.918910e+00	6.546451e+00
1.020000e-06	1.050324e-06	2.102660e-10	7.271291e+00	1.306007e+01
1.030000e-06	1.100523e-06	3.133498e-10	7.618814e+00	1.982936e+01
1.040000e-06	1.150005e-06	4.247317e-10	7.961376e+00	2.683631e+01
1.050000e-06	1.198911e-06	5.383936e-10	8.299947e+00	3.405886e+01
1.060000e-06	1.247395e-06	6.497309e-10	8.635598e+00	4.147427e+01
1.070000e-06	1.295625e-06	7.615085e-10	8.969487e+00	4.905935e+01
1.080000e-06	1.343572e-06	8.779434e-10	9.301418e+00	5.678742e+01
1.090000e-06	1.391038e-06	9.970817e-10	9.630021e+00	6.462317e+01
1.100000e-06	1.437947e-06	1.114817e-09	9.954771e+00	7.251787e+01
1.110000e-06	1.484335e-06	1.234687e-09	1.027591e+01	8.040745e+01
1.120000e-06	1.530220e-06	1.355728e-09	1.059357e+01	8.821530e+01
1.130000e-06	1.575587e-06	1.474593e-09	1.090764e+01	9.585967e+01
1.140000e-06	1.620455e-06	1.585322e-09	1.121826e+01	1.032641e+02
1.150000e-06	1.664927e-06	1.689465e-09	1.152613e+01	1.103680e+02
1.160000e-06	1.709059e-06	1.788871e-09	1.183165e+01	1.171336e+02
1.170000e-06	1.752678e-06	1.885501e-09	1.213362e+01	1.235478e+02
1.180000e-06	1.795433e-06	1.978597e-09	1.242961e+01	1.296181e+02
1.190000e-06	1.837077e-06	2.065635e-09	1.271791e+01	1.353641e+02
1.200000e-06	1.877842e-06	2.148599e-09	1.300012e+01	1.408073e+02
1.210000e-06	1.918123e-06	2.227623e-09	1.327899e+01	1.459632e+02
1.220000e-06	1.957925e-06	2.302282e-09	1.355453e+01	1.508379e+02
1.230000e-06	1.997087e-06	2.369489e-09	1.382564e+01	1.554293e+02
1.240000e-06	2.035543e-06	2.430531e-09	1.409187e+01	1.597326e+02
1.250000e-06	2.073281e-06	2.489105e-09	1.435313e+01	1.637472e+02
1.260000e-06	2.110285e-06	2.546094e-09	1.460930e+01	1.674817e+02
1.270000e-06	2.146736e-06	2.597217e-09	1.486165e+01	1.709551e+02
1.280000e-06	2.182675e-06	2.643050e-09	1.511045e+01	1.741939e+02
1.290000e-06	2.217754e-06	2.686267e-09	1.535330e+01	1.772259e+02
1.300000e-06	2.251644e-06	2.727455e-09	1.558791e+01	1.800741e+02
1.310000e-06	2.284489e-06	2.765386e-09	1.581530e+01	1.827517e+02
1.320000e-06	2.316698e-06	2.798921e-09	1.603828e+01	1.852627e+02
1.330000e-06	2.348259e-06	2.833544e-09	1.625678e+01	1.876047e+02
1.340000e-06	2.379049e-06	2.868609e-09	1.646993e+01	1.897761e+02
1.350000e-06	2.409043e-06	2.900159e-09	1.667757e+01	1.917820e+02
1.360000e-06	2.438198e-06	2.925974e-09	1.687941e+01	1.936370e+02
1.370000e-06	2.466694e-06	2.948064e-09	1.707669e+01	1.953650e+02
1.380000e-06	2.494563e-06	2.969771e-09	1.726962e+01	1.969934e+02
1.390000e-06	2.521320e-06	2.992065e-09	1.745486e+01	1.985461e+02
1.400000e-06	2.546738e-06	3.013754e-09	1.763082e+01	2.000365e+02
1.410000e-06	2.571188e-06	3.035581e-09	1.780009e+01	2.014645e+02
1.420000e-06	2.594790e-06	3.058356e-09	1.796349e+01	2.028182e+02
1.430000e-06	2.617506e-06	3.079871e-09	1.812075e+01	2.040800e+02
1.440000e-06	2.639335e-06	3.098263e-09	1.827187e+01	2.052347e+02
1.450000e-06	2.660275e-06	3.112934e-09	1.841683e+01	2.062771e+02
1.460000e-06	2.680516e-06	3.126361e-09	1.855696e+01	2.072155e+02
1.470000e-06	2.699937e-06	3.138665e-09	1.869141e+01	2.080700e+02
1.480000e-06	2.718270e-06	3.150335e-09	1.881833e+01	2.088666e+02
1.490000e-06	2.735630e-06	3.163285e-09	1.893851e+01	2.096287e+02
1.500000e-06	2.752028e-06	3.177698e-09	1.905203e+01	2.103694e+02
1.510000e-06	2.767323e-06	3.190853e-09	1.915791e+01	2.110880e+02
1.520000e-06	2.781613e-06	3.200861e-09	1.925684e+01	2.117712e+02
1.530000e-06	2.794937e-06	3.209081e-09	1.934908e+01	2.123996e+02
1.540000e-06	2.807246e-06	3.216953e-09	1.943430e+01	2.129558e+02
1.550000e-06	2.818291e-06	3.224939e-09	1.951076e+01	2.134313e+02
1.560000e-06	2.827962e-06	3.232215e-09	1.957771e+01	2.138304e+02
1.570000e-06	2.836612e-06	3.239300e-09	1.963760e+01	2.141681e+02
1.580000e-06	2.844377e-06	3.247719e-09	1.969135e+01	2.144645e+02
1.590000e-06	2.851175e-06	3.255676e-09	1.973841e+01	2.147364e+02
1.600000e-06	2.856996e-06	3.260795e-09	1.977871e+01	2.149911e+02
1.610000e-06	2.861931e-06	3.262174e-09	1.981288e+01	2.152235e+02
1.620000e-06	2.866084e-06	3.262058e-09	1.984162e+01	2.154186e+02
1.630000e-06	2.869132e-06	3.265988e-09	1.986273e+01	2.155580e+02
1.640000e-06	2.870795e-06	3.271127e-09	1.987424e+01	2.156280e+02
1.650000e-06	2.871410e-06	3.274850e-09	1.987850e+01	2.156257e+02
1.660000e-06	2.871193e-06	3.276558e-09	1.987700e+01	2.155615e+02
1.670000e-06	2.870067e-06	3.272279e-09	1.986920e+01	2.154550e+02
1.680000e-06	2.868037e-06	3.267085e-09	1.985515e+01	2.153281e+02
1.690000e-06	2.865120e-06	3.263304e-09	1.983495e+01	2.151959e+02
1.700000e-06	2.861470e-06	3.260236e-09	1.980969e+01	2.150597e+02
1.710000e-06	2.856953e-06	3.261072e-09	1.977842e+01	2.149056e+02
1.720000e-06	2.851215e-06	3.272566e-09	1.973869e+01	2.147082e+02
1.730000e-06	2.844360e-06	3.287272e-09	1.969124e+01	2.144392e+02
1.740000e-06	2.836674e-06	3.204217e-09	1.963803e+01	2.140776e+02
1.750000e-06	2.827883e-06	3.122823e-09	1.957717e+01	2.136183e+02
1.760000e-06	2.817462e-06	3.216466e-09	1.950502e+01	2.130751e+02
1.770000e-06	2.805802e-06	3.374979e-09	1.942430e+01	2.124776e+02
1.780000e-06	2.793953e-06	3.278310e-09	1.934227e+01	2.118625e+02
1.790000e-06	2.781747e-06	3.053933e-09	1.925777e+01	2.112627e+02
1.800000e-06	2.767895e-06	3.210427e-09	1.916187e+01	2.106970e+02
1.810000e-06	2.752492e-06	3.289595e-09	1.905524e+01	2.101651e+02
1.820000e-06	2.736606e-06	3.053536e-09	1.894526e+01	2.096481e+02
1.830000e-06	2.719893e-06	3.121057e-09	1.882956e+01	2.091156e+02
1.840000e-06	2.701665e-06	3.356412e-09	1.870337e+01	2.085349e+02
1.850000e-06	2.682516e-06	3.148408e-09	1.857081e+01	2.078823e+02
1.860000e-06	2.662870e-06	3.019023e-09	1.843480e+01	2.071484e+02
1.870000e-06	2.642103e-06	3.309623e-09	1.829103e+01	2.063406e+02
1.880000e-06	2.620140e-06	3.167103e-09	1.813898e+01	2.054779e+02
1.890000e-06	2.597270e-06	2.893101e-09	1.798066e+01	2.045838e+02
1.900000e-06	2.573283e-06	3.140074e-09	1.781460e+01	2.036773e+02
1.910000e-06	2.548446e-06	3.190469e-09	1.764265e+01	2.027668e+02
1.920000e-06	2.522967e-06	3.019532e-09	1.746626e+01	2.018479e+02
1.930000e-06	2.496516e-06	3.081406e-09	1.728314e+01	2.009060e+02
1.940000e-06	2.469282e-06	3.038865e-09	1.709460e+01	1.999229e+02
1.950000e-06	2.441464e-06	3.025660e-09	1.690203e+01	1.988833e+02
1.960000e-06	2.412520e-06	3.082181e-09	1.670165e+01	1.977807e+02
1.970000e-06	2.382325e-06	2.915582e-09	1.649261e+01	1.966194e+02
1.980000e-06	2.351297e-06	2.919672e-09	1.627780e+01	1.954123e+02
1.990000e-06	2.319590e-06	3.059445e-09	1.605830e+01	1.941764e+02
2.000000e-06	2.287163e-06	2.924631e-09	1.583381e+01	1.929259e+02
2.010000e-06	2.253897e-06	2.917491e-09	1.560352e+01	1.916678e+02
2.020000e-06	2.219761e-06	2.960906e-09	1.536719e+01	1.903992e+02
2.030000e-06	2.184951e-06	2.811567e-09	1.512621e+01	1.891092e+02
2.040000e-06	2.149616e-06	2.864452e-09	1.488159e+01	1.877828e+02
2.050000e-06	2.113654e-06	2.890831e-09	1.463263e+01	1.864063e+02
2.060000e-06	2.076884e-06	2.757018e-09	1.437807e+01	1.849724e+02
2.070000e-06	2.038908e-06	2.801841e-09	1.411517e+01	1.834821e+02
2.080000e-06	1.999868e-06	2.825874e-09	1.384490e+01	1.819440e+02
2.090000e-06	1.960363e-06	2.751578e-09	1.357141e+01	1.803712e+02
2.100000e-06	1.920334e-06	2.729822e-09	1.329429e+01	1.787759e+02
2.110000e-06	1.879608e-06	2.676820e-09	1.301235e+01	1.771653e+02
2.120000e-06	1.838236e-06	2.666452e-09	1.272594e+01	1.755386e+02
2.130000e-06	1.796304e-06	2.679317e-09	1.243564e+01	1.738877e+02
2.140000e-06	1.753800e-06	2.634113e-09	1.214139e+01	1.721998e+02
2.150000e-06	1.710705e-06	2.610036e-09	1.184305e+01	1.704617e+02
2.160000e-06	1.667201e-06	2.576533e-09	1.154188e+01	1.686640e+02
2.170000e-06	1.623265e-06	2.554890e-09	1.123771e+01	1.668044e+02
2.180000e-06	1.578645e-06	2.528293e-09	1.092881e+01	1.648875e+02
2.190000e-06	1.533309e-06	2.483273e-09	1.061495e+01	1.629231e+02
2.200000e-06	1.487352e-06	2.463772e-09	1.029679e+01	1.609223e+02
2.210000e-06	1.441025e-06	2.440164e-09	9.976081e+00	1.588935e+02
2.220000e-06	1.394320e-06	2.418839e-09	9.652747e+00	1.568394e+02
2.230000e-06	1.347079e-06	2.381584e-09	9.325703e+00	1.547566e+02
2.240000e-06	1.299267e-06	2.322405e-09	8.994704e+00	1.526365e+02
2.250000e-06	1.250827e-06	2.305304e-09	8.659357e+00	1.504691e+02
2.260000e-06	1.201893e-06	2.290980e-09	8.320592e+00	1.482465e+02
2.270000e-06	1.152586e-06	2.247154e-09	7.979244e+00	1.459654e+02
2.280000e-06	1.102911e-06	2.211474e-09	7.635349e+00	1.436281e+02
2.290000e-06	1.052793e-06	2.166980e-09	7.288385e+00	1.412410e+02
2.300000e-06	1.002142e-06	2.138351e-09	6.937735e+00	1.388115e+02
2.310000e-06	9.511069e-07	2.106133e-09	6.584423e+00	1.363445e+02
2.320000e-06	8.998553e-07	2.053822e-09	6.229612e+00	1.338395e+02
2.330000e-06	8.483714e-07	2.020449e-09	5.873195e+00	1.312903e+02
2.340000e-06	7.966361e-07	1.989638e-09	5.515036e+00	1.286865e+02
2.350000e-06	7.445539e-07	1.956433e-09	5.154476e+00	1.260169e+02
2.360000e-06	6.920481e-07	1.908801e-09	4.790983e+00	1.232731e+02
2.370000e-06	6.391319e-07	1.852793e-09	4.424649e+00	1.204529e+02
2.380000e-06	5.857667e-07	1.810711e-09	4.055207e+00	1.175601e+02
2.390000e-06	5.320402e-07	1.772389e-09	3.683264e+00	1.146033e+02
2.400000e-06	4.780069e-07	1.731660e-09	3.309196e+00	1.115917e+02
2.410000e-06	4.236680e-07	1.684979e-09	2.933013e+00	1.085306e+02
2.420000e-06	3.691566e-07	1.636492e-09	2.555636e+00	1.054185e+02
2.430000e-06	3.144792e-07	1.594320e-09	2.177110e+00	1.022461e+02
2.440000e-06	2.596041e-07	1.545035e-09	1.797215e+00	9.899834e+01
2.450000e-06	2.045973e-07	1.485786e-09	1.416408e+00	9.565927e+01
2.460000e-06	1.495434e-07	1.429870e-09	1.035275e+00	9.221667e+01
2.470000e-06	9.449007e-08	1.378861e-09	6.541458e-01	8.866622e+01
2.480000e-06	3.943639e-08	1.331952e-09	2.730144e-01	8.501259e+01
2.490000e-06	-1.565685e-08	1.276266e-09	-1.083909e-01	8.126741e+01
2.500000e-06	-7.074464e-08	1.212889e-09	-4.897584e-01	7.744445e+01
2.510000e-06	-1.258153e-07	1.151366e-09	-8.710072e-01	7.355392e+01
2.520000e-06	-1.808551e-07	1.091116e-09	-1.252043e+00	6.959781e+01
2.530000e-06	-2.358517e-07	1.030960e-09	-1.632779e+00	6.556811e+01
2.540000e-06	-2.907716e-07	9.658149e-10	-2.012984e+00	6.144854e+01
2.550000e-06	-3.454928e-07	9.019981e-10	-2.391814e+00	5.721921e+01
2.560000e-06	-4.000152e-07	8.398235e-10	-2.769267e+00	5.286239e+01
2.570000e-06	-4.543385e-07	7.719703e-10	-3.145342e+00	4.836724e+01
2.580000e-06	-5.084391e-07	6.975646e-10	-3.519875e+00	4.373161e+01
2.590000e-06	-5.622189e-07	6.218435e-10	-3.892188e+00	3.896000e+01
2.600000e-06	-6.156393e-07	5.471012e-10	-4.262012e+00	3.405866e+01
2.610000e-06	-6.686963e-07	4.728997e-10	-4.629321e+00	2.902933e+01
2.620000e-06	-7.213039e-07	3.960407e-10	-4.993518e+00	2.386424e+01
2.630000e-06	-7.734969e-07	3.131121e-10	-5.354846e+00	1.854429e+01
2.640000e-06	-8.253361e-07	2.279860e-10	-5.713723e+00	1.304133e+01
2.650000e-06	-8.768695e-07	1.420278e-10	-6.070484e+00	7.323719e+00
2.660000e-06	-9.281464e-07	5.278751e-11	-6.425469e+00	1.363562e+00
2.670000e-06	-9.791578e-07	-4.338432e-11	-6.778617e+00	-4.857109e+00
2.680000e-06	-1.029782e-06	-1.424420e-10	-7.129082e+00	-1.134301e+01
2.690000e-06	-1.079934e-06	-2.420279e-10	-7.476281e+00	-1.808609e+01
2.700000e-06	-1.129689e-06	-3.455804e-10	-7.820728e+00	-2.506903e+01
2.710000e-06	-1.179098e-06	-4.569497e-10	-8.162786e+00	-3.227000e+01
2.720000e-06	-1.228102e-06	-5.743868e-10	-8.502030e+00	-3.966627e+01
2.730000e-06	-1.276495e-06	-6.896623e-10	-8.837052e+00	-4.723477e+01
2.740000e-06	-1.324121e-06	-8.040437e-10	-9.166761e+00	-5.494944e+01
2.750000e-06	-1.371014e-06	-9.232984e-10	-9.491398e+00	-6.277615e+01
2.760000e-06	-1.417376e-06	-1.046610e-09	-9.812359e+00	-7.066776e+01
2.770000e-06	-1.463379e-06	-1.167468e-09	-1.013084e+01	-7.856182e+01
2.780000e-06	-1.509006e-06	-1.285954e-09	-1.044670e+01	-8.638275e+01
2.790000e-06	-1.554206e-06	-1.403997e-09	-1.075962e+01	-9.404891e+01
2.800000e-06	-1.598832e-06	-1.520378e-09	-1.106856e+01	-1.014828e+02
2.810000e-06	-1.642834e-06	-1.632065e-09	-1.137318e+01	-1.086215e+02
2.820000e-06	-1.686414e-06	-1.736299e-09	-1.167489e+01	-1.154248e+02
2.830000e-06	-1.729628e-06	-1.834511e-09	-1.197405e+01	-1.218771e+02
2.840000e-06	-1.772338e-06	-1.928965e-09	-1.226973e+01	-1.279839e+02
2.850000e-06	-1.814432e-06	-2.019485e-09	-1.256114e+01	-1.337640e+02
2.860000e-06	-1.855896e-06	-2.102327e-09	-1.284819e+01	-1.392391e+02
2.870000e-06	-1.896727e-06	-2.178384e-09	-1.313086e+01	-1.444258e+02
2.880000e-06	-1.936887e-06	-2.252251e-09	-1.340889e+01	-1.493310e+02
2.890000e-06	-1.976520e-06	-2.326111e-09	-1.368326e+01	-1.539534e+02
2.900000e-06	-2.015652e-06	-2.397371e-09	-1.395416e+01	-1.582882e+02
2.910000e-06	-2.053984e-06	-2.463051e-09	-1.421954e+01	-1.623340e+02
2.920000e-06	-2.091268e-06	-2.523703e-09	-1.447765e+01	-1.660982e+02
2.930000e-06	-2.127544e-06	-2.579752e-09	-1.472878e+01	-1.695988e+02
2.940000e-06	-2.163080e-06	-2.631335e-09	-1.497480e+01	-1.728617e+02
