# Temperatura_=_19.19
# Concentracion g/m^3_=_13400.0
# C_Vs_to_Am_M_A/Vsm_=_65563218390.804596
# pendiente_HvsI_1/m_=_3716.3
# ordenada_HvsI_A/m_=_1297.0
# frecuencia_Hz_=_300998.38014313893

Tiempo_(s)	Campo_(V.s)	Magnetizacion_(V.s)	Campo_(kA/m)	Magnetizacion_(A/m)
0.000000e+00	-2.860752e-06	-3.218957e-09	-1.978073e+01	-2.096706e+02
1.000000e-08	-2.860097e-06	-3.218958e-09	-1.977620e+01	-2.095708e+02
2.000000e-08	-2.858539e-06	-3.216592e-09	-1.976542e+01	-2.094361e+02
3.000000e-08	-2.855753e-06	-3.214476e-09	-1.974616e+01	-2.092835e+02
4.000000e-08	-2.851831e-06	-3.211911e-09	-1.971904e+01	-2.091206e+02
5.000000e-08	-2.847065e-06	-3.206782e-09	-1.968609e+01	-2.089421e+02
6.000000e-08	-2.841470e-06	-3.199648e-09	-1.964740e+01	-2.087322e+02
7.000000e-08	-2.834955e-06	-3.197284e-09	-1.960235e+01	-2.084707e+02
8.000000e-08	-2.827470e-06	-3.227872e-09	-1.955060e+01	-2.081412e+02
9.000000e-08	-2.818830e-06	-3.236058e-09	-1.949086e+01	-2.077387e+02
1.000000e-07	-2.808718e-06	-3.190625e-09	-1.942094e+01	-2.072741e+02
1.100000e-07	-2.797311e-06	-3.103544e-09	-1.934207e+01	-2.067717e+02
1.200000e-07	-2.785076e-06	-3.160336e-09	-1.925746e+01	-2.062638e+02
1.300000e-07	-2.772025e-06	-3.213509e-09	-1.916723e+01	-2.057799e+02
1.400000e-07	-2.758028e-06	-3.104355e-09	-1.907044e+01	-2.053384e+02
1.500000e-07	-2.743071e-06	-3.109692e-09	-1.896702e+01	-2.049393e+02
1.600000e-07	-2.726906e-06	-3.222822e-09	-1.885524e+01	-2.045639e+02
1.700000e-07	-2.709448e-06	-3.158887e-09	-1.873453e+01	-2.041794e+02
1.800000e-07	-2.691055e-06	-3.015243e-09	-1.860736e+01	-2.037478e+02
1.900000e-07	-2.671913e-06	-3.135427e-09	-1.847500e+01	-2.032357e+02
2.000000e-07	-2.651923e-06	-3.123332e-09	-1.833678e+01	-2.026227e+02
2.100000e-07	-2.631047e-06	-2.960925e-09	-1.819243e+01	-2.019056e+02
2.200000e-07	-2.609371e-06	-3.082132e-09	-1.804255e+01	-2.010963e+02
2.300000e-07	-2.586790e-06	-3.155977e-09	-1.788641e+01	-2.002171e+02
2.400000e-07	-2.563226e-06	-3.010784e-09	-1.772348e+01	-1.992919e+02
2.500000e-07	-2.538895e-06	-3.011122e-09	-1.755524e+01	-1.983393e+02
2.600000e-07	-2.513757e-06	-3.022632e-09	-1.738142e+01	-1.973677e+02
2.700000e-07	-2.487530e-06	-2.947178e-09	-1.720008e+01	-1.963748e+02
2.800000e-07	-2.460152e-06	-2.974346e-09	-1.701077e+01	-1.953507e+02
2.900000e-07	-2.431834e-06	-2.972841e-09	-1.681497e+01	-1.942834e+02
3.000000e-07	-2.402676e-06	-2.921810e-09	-1.661336e+01	-1.931639e+02
3.100000e-07	-2.372769e-06	-2.937810e-09	-1.640656e+01	-1.919899e+02
3.200000e-07	-2.342213e-06	-2.937520e-09	-1.619528e+01	-1.907666e+02
3.300000e-07	-2.310872e-06	-2.859277e-09	-1.597857e+01	-1.895043e+02
3.400000e-07	-2.278752e-06	-2.852310e-09	-1.575648e+01	-1.882138e+02
3.500000e-07	-2.245963e-06	-2.824086e-09	-1.552976e+01	-1.869026e+02
3.600000e-07	-2.212446e-06	-2.809440e-09	-1.529801e+01	-1.855723e+02
3.700000e-07	-2.177874e-06	-2.837401e-09	-1.505896e+01	-1.842180e+02
3.800000e-07	-2.142202e-06	-2.783999e-09	-1.481230e+01	-1.828309e+02
3.900000e-07	-2.105824e-06	-2.752460e-09	-1.456077e+01	-1.814020e+02
4.000000e-07	-2.068864e-06	-2.762573e-09	-1.430520e+01	-1.799257e+02
4.100000e-07	-2.031198e-06	-2.731934e-09	-1.404476e+01	-1.784021e+02
4.200000e-07	-1.992751e-06	-2.670058e-09	-1.377891e+01	-1.768373e+02
4.300000e-07	-1.953502e-06	-2.653370e-09	-1.350753e+01	-1.752404e+02
4.400000e-07	-1.913569e-06	-2.640318e-09	-1.323141e+01	-1.736201e+02
4.500000e-07	-1.873174e-06	-2.634636e-09	-1.295210e+01	-1.719812e+02
4.600000e-07	-1.832387e-06	-2.609943e-09	-1.267007e+01	-1.703222e+02
4.700000e-07	-1.790928e-06	-2.568457e-09	-1.238341e+01	-1.686356e+02
4.800000e-07	-1.748449e-06	-2.534932e-09	-1.208968e+01	-1.669102e+02
4.900000e-07	-1.705012e-06	-2.511777e-09	-1.178934e+01	-1.651350e+02
5.000000e-07	-1.660915e-06	-2.488356e-09	-1.148443e+01	-1.633032e+02
5.100000e-07	-1.616321e-06	-2.443240e-09	-1.117609e+01	-1.614141e+02
5.200000e-07	-1.571279e-06	-2.420338e-09	-1.086464e+01	-1.594734e+02
5.300000e-07	-1.525751e-06	-2.400580e-09	-1.054984e+01	-1.574910e+02
5.400000e-07	-1.479670e-06	-2.376996e-09	-1.023121e+01	-1.554771e+02
5.500000e-07	-1.433045e-06	-2.331167e-09	-9.908818e+00	-1.534385e+02
5.600000e-07	-1.385890e-06	-2.285670e-09	-9.582762e+00	-1.513761e+02
5.700000e-07	-1.338245e-06	-2.256451e-09	-9.253323e+00	-1.492849e+02
5.800000e-07	-1.290184e-06	-2.237809e-09	-8.921007e+00	-1.471557e+02
5.900000e-07	-1.241777e-06	-2.208622e-09	-8.586291e+00	-1.449792e+02
6.000000e-07	-1.192979e-06	-2.164706e-09	-8.248880e+00	-1.427489e+02
6.100000e-07	-1.143546e-06	-2.132821e-09	-7.907070e+00	-1.404636e+02
6.200000e-07	-1.093397e-06	-2.098114e-09	-7.560316e+00	-1.381269e+02
6.300000e-07	-1.042574e-06	-2.061169e-09	-7.208898e+00	-1.357448e+02
6.400000e-07	-9.911676e-07	-2.011364e-09	-6.853449e+00	-1.333223e+02
6.500000e-07	-9.393773e-07	-1.968948e-09	-6.495344e+00	-1.308596e+02
6.600000e-07	-8.873065e-07	-1.939298e-09	-6.135299e+00	-1.283507e+02
6.700000e-07	-8.349619e-07	-1.910458e-09	-5.773361e+00	-1.257846e+02
6.800000e-07	-7.823191e-07	-1.869074e-09	-5.409362e+00	-1.231488e+02
6.900000e-07	-7.293435e-07	-1.818199e-09	-5.043061e+00	-1.204338e+02
7.000000e-07	-6.760562e-07	-1.777315e-09	-4.674604e+00	-1.176374e+02
7.100000e-07	-6.225419e-07	-1.736921e-09	-4.304579e+00	-1.147666e+02
7.200000e-07	-5.688339e-07	-1.691111e-09	-3.933214e+00	-1.118356e+02
7.300000e-07	-5.149408e-07	-1.637201e-09	-3.560569e+00	-1.088616e+02
7.400000e-07	-4.608344e-07	-1.590406e-09	-3.186449e+00	-1.058582e+02
7.500000e-07	-4.065367e-07	-1.549679e-09	-2.811006e+00	-1.028300e+02
7.600000e-07	-3.521385e-07	-1.506878e-09	-2.434869e+00	-9.976914e+01
7.700000e-07	-2.976849e-07	-1.454358e-09	-2.058348e+00	-9.665719e+01
7.800000e-07	-2.431750e-07	-1.399999e-09	-1.681438e+00	-9.346963e+01
7.900000e-07	-1.885689e-07	-1.352450e-09	-1.303863e+00	-9.018331e+01
8.000000e-07	-1.339182e-07	-1.302917e-09	-9.259800e-01	-8.678362e+01
8.100000e-07	-7.927900e-08	-1.248754e-09	-5.481763e-01	-8.326869e+01
8.200000e-07	-2.463556e-08	-1.189686e-09	-1.703431e-01	-7.964942e+01
8.300000e-07	3.005658e-08	-1.135450e-09	2.078268e-01	-7.594486e+01
8.400000e-07	8.477477e-08	-1.081317e-09	5.861769e-01	-7.217474e+01
8.500000e-07	1.394346e-07	-1.022913e-09	9.641237e-01	-6.835178e+01
8.600000e-07	1.940180e-07	-9.598543e-10	1.341542e+00	-6.447642e+01
8.700000e-07	2.485310e-07	-8.988198e-10	1.718473e+00	-6.053607e+01
8.800000e-07	3.030189e-07	-8.418197e-10	2.095231e+00	-5.650900e+01
8.900000e-07	3.574516e-07	-7.806915e-10	2.471607e+00	-5.237147e+01
9.000000e-07	4.117469e-07	-7.138644e-10	2.847032e+00	-4.810527e+01
9.100000e-07	4.658821e-07	-6.442490e-10	3.221352e+00	-4.370290e+01
9.200000e-07	5.198573e-07	-5.768111e-10	3.594564e+00	-3.916830e+01
9.300000e-07	5.736675e-07	-5.065265e-10	3.966636e+00	-3.451270e+01
9.400000e-07	6.272833e-07	-4.338825e-10	4.337363e+00	-2.974740e+01
9.500000e-07	6.806151e-07	-3.592866e-10	4.706127e+00	-2.487591e+01
9.600000e-07	7.336454e-07	-2.859214e-10	5.072806e+00	-1.988888e+01
9.700000e-07	7.863932e-07	-2.109174e-10	5.437532e+00	-1.476363e+01
9.800000e-07	8.388643e-07	-1.278595e-10	5.800344e+00	-9.468806e+00
9.900000e-07	8.911103e-07	-3.961400e-11	6.161600e+00	-3.972520e+00
1.000000e-06	9.430836e-07	5.019205e-11	6.520971e+00	1.748953e+00
1.010000e-06	9.946079e-07	1.386166e-10	6.877237e+00	7.705058e+00
1.020000e-06	1.045539e-06	2.318814e-10	7.229402e+00	1.388960e+01
1.030000e-06	1.095841e-06	3.299092e-10	7.577218e+00	2.028442e+01
1.040000e-06	1.145501e-06	4.316567e-10	7.920591e+00	2.686647e+01
1.050000e-06	1.194583e-06	5.344918e-10	8.259969e+00	3.361515e+01
1.060000e-06	1.243260e-06	6.395851e-10	8.596544e+00	4.051675e+01
1.070000e-06	1.291652e-06	7.489625e-10	8.931154e+00	4.756390e+01
1.080000e-06	1.339710e-06	8.605946e-10	9.263451e+00	5.474984e+01
1.090000e-06	1.387286e-06	9.705804e-10	9.592420e+00	6.205967e+01
1.100000e-06	1.434293e-06	1.079238e-09	9.917451e+00	6.946193e+01
1.110000e-06	1.480759e-06	1.190608e-09	1.023874e+01	7.690424e+01
1.120000e-06	1.526759e-06	1.303479e-09	1.055681e+01	8.431527e+01
1.130000e-06	1.572255e-06	1.415315e-09	1.087139e+01	9.161318e+01
1.140000e-06	1.617247e-06	1.523518e-09	1.118249e+01	9.871833e+01
1.150000e-06	1.661844e-06	1.628556e-09	1.149085e+01	1.055663e+02
1.160000e-06	1.706020e-06	1.728620e-09	1.179631e+01	1.121174e+02
1.170000e-06	1.749642e-06	1.821838e-09	1.209794e+01	1.183586e+02
1.180000e-06	1.792407e-06	1.909201e-09	1.239364e+01	1.242993e+02
1.190000e-06	1.834207e-06	1.993292e-09	1.268266e+01	1.299607e+02
1.200000e-06	1.875244e-06	2.074872e-09	1.296641e+01	1.353638e+02
1.210000e-06	1.915691e-06	2.153645e-09	1.324608e+01	1.405194e+02
1.220000e-06	1.955591e-06	2.230090e-09	1.352197e+01	1.454246e+02
1.230000e-06	1.994861e-06	2.302478e-09	1.379351e+01	1.500652e+02
1.240000e-06	2.033468e-06	2.368930e-09	1.406045e+01	1.544232e+02
1.250000e-06	2.071372e-06	2.428198e-09	1.432254e+01	1.584869e+02
1.260000e-06	2.108550e-06	2.480807e-09	1.457961e+01	1.622582e+02
1.270000e-06	2.145104e-06	2.530288e-09	1.483237e+01	1.657550e+02
1.280000e-06	2.181115e-06	2.576830e-09	1.508136e+01	1.690080e+02
1.290000e-06	2.216308e-06	2.621431e-09	1.532471e+01	1.720528e+02
1.300000e-06	2.250409e-06	2.663144e-09	1.556050e+01	1.749201e+02
1.310000e-06	2.283531e-06	2.701528e-09	1.578952e+01	1.776287e+02
1.320000e-06	2.315881e-06	2.737145e-09	1.601321e+01	1.801828e+02
1.330000e-06	2.347524e-06	2.771791e-09	1.623201e+01	1.825757e+02
1.340000e-06	2.378389e-06	2.805026e-09	1.644542e+01	1.847971e+02
1.350000e-06	2.408433e-06	2.834304e-09	1.665316e+01	1.868417e+02
1.360000e-06	2.437695e-06	2.860557e-09	1.685549e+01	1.887162e+02
1.370000e-06	2.466296e-06	2.885406e-09	1.705325e+01	1.904406e+02
1.380000e-06	2.494193e-06	2.908690e-09	1.724615e+01	1.920446e+02
1.390000e-06	2.521030e-06	2.929889e-09	1.743171e+01	1.935598e+02
1.400000e-06	2.546649e-06	2.950567e-09	1.760886e+01	1.950108e+02
1.410000e-06	2.571268e-06	2.971133e-09	1.777909e+01	1.964089e+02
1.420000e-06	2.595008e-06	2.991966e-09	1.794324e+01	1.977506e+02
1.430000e-06	2.617862e-06	3.010471e-09	1.810126e+01	1.990207e+02
1.440000e-06	2.639810e-06	3.026447e-09	1.825302e+01	2.002005e+02
1.450000e-06	2.660928e-06	3.041744e-09	1.839904e+01	2.012760e+02
1.460000e-06	2.681339e-06	3.056696e-09	1.854017e+01	2.022445e+02
1.470000e-06	2.700888e-06	3.070710e-09	1.867535e+01	2.031160e+02
1.480000e-06	2.719457e-06	3.082567e-09	1.880374e+01	2.039104e+02
1.490000e-06	2.737024e-06	3.093165e-09	1.892521e+01	2.046504e+02
1.500000e-06	2.753558e-06	3.104291e-09	1.903954e+01	2.053541e+02
1.510000e-06	2.768976e-06	3.116076e-09	1.914614e+01	2.060296e+02
1.520000e-06	2.783329e-06	3.126867e-09	1.924538e+01	2.066734e+02
1.530000e-06	2.796780e-06	3.135369e-09	1.933839e+01	2.072738e+02
1.540000e-06	2.809179e-06	3.143336e-09	1.942413e+01	2.078173e+02
1.550000e-06	2.820334e-06	3.151562e-09	1.950126e+01	2.082950e+02
1.560000e-06	2.830216e-06	3.159388e-09	1.956958e+01	2.087074e+02
1.570000e-06	2.839018e-06	3.166201e-09	1.963045e+01	2.090643e+02
1.580000e-06	2.846933e-06	3.171593e-09	1.968517e+01	2.093812e+02
1.590000e-06	2.853886e-06	3.177313e-09	1.973325e+01	2.096732e+02
1.600000e-06	2.859844e-06	3.183339e-09	1.977445e+01	2.099480e+02
1.610000e-06	2.864909e-06	3.186794e-09	1.980947e+01	2.102031e+02
1.620000e-06	2.869106e-06	3.188899e-09	1.983849e+01	2.104260e+02
1.630000e-06	2.872213e-06	3.193661e-09	1.985998e+01	2.105988e+02
1.640000e-06	2.874075e-06	3.200094e-09	1.987285e+01	2.107052e+02
1.650000e-06	2.874892e-06	3.204559e-09	1.987850e+01	2.107373e+02
1.660000e-06	2.874780e-06	3.204477e-09	1.987773e+01	2.106985e+02
1.670000e-06	2.873762e-06	3.199660e-09	1.987069e+01	2.106033e+02
1.680000e-06	2.871863e-06	3.195646e-09	1.985756e+01	2.104710e+02
1.690000e-06	2.869123e-06	3.192466e-09	1.983861e+01	2.103195e+02
1.700000e-06	2.865598e-06	3.190242e-09	1.981424e+01	2.101573e+02
1.710000e-06	2.861095e-06	3.190371e-09	1.978310e+01	2.099808e+02
1.720000e-06	2.855424e-06	3.195279e-09	1.974389e+01	2.097749e+02
1.730000e-06	2.848745e-06	3.186849e-09	1.969770e+01	2.095195e+02
1.740000e-06	2.841146e-06	3.136091e-09	1.964516e+01	2.091974e+02
1.750000e-06	2.832341e-06	3.130643e-09	1.958428e+01	2.088022e+02
1.760000e-06	2.821992e-06	3.199287e-09	1.951272e+01	2.083429e+02
1.770000e-06	2.810412e-06	3.201866e-09	1.943265e+01	2.078428e+02
1.780000e-06	2.798495e-06	3.141796e-09	1.935025e+01	2.073335e+02
1.790000e-06	2.786153e-06	3.112889e-09	1.926491e+01	2.068456e+02
1.800000e-06	2.772424e-06	3.215830e-09	1.916998e+01	2.063988e+02
1.810000e-06	2.757288e-06	3.097584e-09	1.906533e+01	2.059954e+02
1.820000e-06	2.741442e-06	3.009225e-09	1.895575e+01	2.056185e+02
1.830000e-06	2.724685e-06	3.188504e-09	1.883989e+01	2.052365e+02
1.840000e-06	2.706648e-06	3.170906e-09	1.871517e+01	2.048114e+02
1.850000e-06	2.687719e-06	3.025232e-09	1.858429e+01	2.043088e+02
1.860000e-06	2.668060e-06	3.124081e-09	1.844836e+01	2.037068e+02
1.870000e-06	2.647265e-06	3.183692e-09	1.830457e+01	2.030001e+02
1.880000e-06	2.625370e-06	2.973685e-09	1.815317e+01	2.021995e+02
1.890000e-06	2.602567e-06	2.989984e-09	1.799550e+01	2.013262e+02
1.900000e-06	2.578710e-06	3.118143e-09	1.783054e+01	2.004046e+02
1.910000e-06	2.554009e-06	3.022624e-09	1.765975e+01	1.994539e+02
1.920000e-06	2.528571e-06	3.014673e-09	1.748385e+01	1.984840e+02
1.930000e-06	2.502257e-06	3.065569e-09	1.730191e+01	1.974934e+02
1.940000e-06	2.475222e-06	2.943961e-09	1.711497e+01	1.964729e+02
1.950000e-06	2.447417e-06	2.981277e-09	1.692271e+01	1.954104e+02
1.960000e-06	2.418427e-06	2.980872e-09	1.672227e+01	1.942964e+02
1.970000e-06	2.388276e-06	2.874780e-09	1.651378e+01	1.931278e+02
1.980000e-06	2.357285e-06	2.931095e-09	1.629950e+01	1.919090e+02
1.990000e-06	2.325597e-06	2.939464e-09	1.608039e+01	1.906500e+02
2.000000e-06	2.293212e-06	2.876593e-09	1.585646e+01	1.893617e+02
2.010000e-06	2.260047e-06	2.901673e-09	1.562714e+01	1.880522e+02
2.020000e-06	2.226061e-06	2.835306e-09	1.539215e+01	1.867238e+02
2.030000e-06	2.191394e-06	2.788099e-09	1.515244e+01	1.853721e+02
2.040000e-06	2.156102e-06	2.840655e-09	1.490841e+01	1.839886e+02
2.050000e-06	2.120053e-06	2.763437e-09	1.465915e+01	1.825642e+02
2.060000e-06	2.083070e-06	2.730263e-09	1.440343e+01	1.810927e+02
2.070000e-06	2.045077e-06	2.762007e-09	1.414073e+01	1.795737e+02
2.080000e-06	2.006282e-06	2.720294e-09	1.387248e+01	1.780125e+02
2.090000e-06	1.966863e-06	2.701449e-09	1.359991e+01	1.764183e+02
2.100000e-06	1.926837e-06	2.664029e-09	1.332316e+01	1.747998e+02
2.110000e-06	1.886220e-06	2.615092e-09	1.304231e+01	1.731625e+02
2.120000e-06	1.844936e-06	2.615987e-09	1.275685e+01	1.715056e+02
2.130000e-06	1.802992e-06	2.591193e-09	1.246683e+01	1.698221e+02
2.140000e-06	1.760492e-06	2.563739e-09	1.217296e+01	1.681011e+02
2.150000e-06	1.717518e-06	2.544007e-09	1.187581e+01	1.663313e+02
2.160000e-06	1.674123e-06	2.508150e-09	1.157576e+01	1.645054e+02
2.170000e-06	1.630155e-06	2.494430e-09	1.127174e+01	1.626219e+02
2.180000e-06	1.585469e-06	2.450224e-09	1.096276e+01	1.606860e+02
2.190000e-06	1.540113e-06	2.410275e-09	1.064914e+01	1.587072e+02
2.200000e-06	1.494261e-06	2.394969e-09	1.033210e+01	1.566959e+02
2.210000e-06	1.448013e-06	2.364927e-09	1.001232e+01	1.546595e+02
2.220000e-06	1.401333e-06	2.348468e-09	9.689544e+00	1.525995e+02
2.230000e-06	1.354190e-06	2.302881e-09	9.363577e+00	1.505113e+02
2.240000e-06	1.306412e-06	2.258401e-09	9.033213e+00	1.483864e+02
2.250000e-06	1.257975e-06	2.236030e-09	8.698294e+00	1.462150e+02
2.260000e-06	1.209078e-06	2.201518e-09	8.360193e+00	1.439903e+02
2.270000e-06	1.159773e-06	2.169288e-09	8.019272e+00	1.417104e+02
2.280000e-06	1.110039e-06	2.131576e-09	7.675385e+00	1.393786e+02
2.290000e-06	1.059810e-06	2.093353e-09	7.328080e+00	1.370008e+02
2.300000e-06	1.009137e-06	2.068480e-09	6.977700e+00	1.345821e+02
2.310000e-06	9.581415e-07	2.028890e-09	6.625089e+00	1.321235e+02
2.320000e-06	9.068617e-07	1.983119e-09	6.270514e+00	1.296197e+02
2.330000e-06	8.553077e-07	1.946195e-09	5.914043e+00	1.270601e+02
2.340000e-06	8.034265e-07	1.909752e-09	5.555309e+00	1.244320e+02
2.350000e-06	7.512144e-07	1.875993e-09	5.194288e+00	1.217253e+02
2.360000e-06	6.986098e-07	1.825279e-09	4.830552e+00	1.189372e+02
2.370000e-06	6.455292e-07	1.777777e-09	4.463525e+00	1.160734e+02
2.380000e-06	5.920639e-07	1.738203e-09	4.093838e+00	1.131476e+02
2.390000e-06	5.382560e-07	1.694525e-09	3.721782e+00	1.101772e+02
2.400000e-06	4.840977e-07	1.651408e-09	3.347304e+00	1.071762e+02
2.410000e-06	4.296687e-07	1.602840e-09	2.970953e+00	1.041504e+02
2.420000e-06	3.751070e-07	1.560079e-09	2.593685e+00	1.010935e+02
2.430000e-06	3.203955e-07	1.516833e-09	2.215381e+00	9.798779e+01
2.440000e-06	2.654679e-07	1.464879e-09	1.835584e+00	9.480918e+01
2.450000e-06	2.104380e-07	1.410878e-09	1.455078e+00	9.153401e+01
2.460000e-06	1.554011e-07	1.357638e-09	1.074524e+00	8.814645e+01
2.470000e-06	1.003568e-07	1.307722e-09	6.939189e-01	8.464321e+01
2.480000e-06	4.531336e-08	1.256404e-09	3.133201e-01	8.103396e+01
2.490000e-06	-9.745424e-09	1.198703e-09	-6.738494e-02	7.733719e+01
2.500000e-06	-6.483716e-08	1.141329e-09	-4.483179e-01	7.357298e+01
2.510000e-06	-1.199046e-07	1.084662e-09	-8.290827e-01	6.975508e+01
2.520000e-06	-1.749336e-07	1.024008e-09	-1.209582e+00	6.588538e+01
2.530000e-06	-2.299479e-07	9.611512e-10	-1.589980e+00	6.195258e+01
2.540000e-06	-2.849134e-07	8.972417e-10	-1.970039e+00	5.793563e+01
2.550000e-06	-3.397730e-07	8.379748e-10	-2.349368e+00	5.381062e+01
2.560000e-06	-3.944535e-07	7.782935e-10	-2.727457e+00	4.955844e+01
2.570000e-06	-4.489699e-07	7.124634e-10	-3.104412e+00	4.517032e+01
2.580000e-06	-5.032810e-07	6.414030e-10	-3.479947e+00	4.064908e+01
2.590000e-06	-5.573002e-07	5.675497e-10	-3.853464e+00	3.600550e+01
2.600000e-06	-6.109695e-07	4.944736e-10	-4.224561e+00	3.125125e+01
2.610000e-06	-6.641714e-07	4.193411e-10	-4.592427e+00	2.639100e+01
2.620000e-06	-7.169308e-07	3.420255e-10	-4.957233e+00	2.141688e+01
2.630000e-06	-7.692995e-07	2.645122e-10	-5.319337e+00	1.630751e+01
2.640000e-06	-8.212605e-07	1.878276e-10	-5.678622e+00	1.103211e+01
2.650000e-06	-8.728752e-07	1.068881e-10	-6.035514e+00	5.558412e+00
2.660000e-06	-9.242261e-07	1.905560e-11	-6.390580e+00	-1.385385e-01
2.670000e-06	-9.753175e-07	-7.319659e-11	-6.743853e+00	-6.069878e+00
2.680000e-06	-1.026071e-06	-1.680121e-10	-7.094787e+00	-1.223099e+01
2.690000e-06	-1.076412e-06	-2.640379e-10	-7.442871e+00	-1.860471e+01
2.700000e-06	-1.126310e-06	-3.631379e-10	-7.787894e+00	-2.516811e+01
2.710000e-06	-1.175764e-06	-4.663937e-10	-8.129845e+00	-3.190007e+01
2.720000e-06	-1.224836e-06	-5.714967e-10	-8.469156e+00	-3.878605e+01
2.730000e-06	-1.273392e-06	-6.769872e-10	-8.804894e+00	-4.581821e+01
2.740000e-06	-1.321325e-06	-7.867024e-10	-9.136326e+00	-5.299012e+01
2.750000e-06	-1.368417e-06	-9.008628e-10	-9.461945e+00	-6.028817e+01
2.760000e-06	-1.414684e-06	-1.015303e-09	-9.781860e+00	-6.768299e+01
2.770000e-06	-1.460545e-06	-1.127588e-09	-1.009897e+01	-7.512448e+01
2.780000e-06	-1.506089e-06	-1.239766e-09	-1.041389e+01	-8.254303e+01
2.790000e-06	-1.551306e-06	-1.353101e-09	-1.072654e+01	-8.985736e+01
2.800000e-06	-1.596030e-06	-1.464018e-09	-1.103579e+01	-9.698695e+01
2.810000e-06	-1.640116e-06	-1.568946e-09	-1.134062e+01	-1.038652e+02
2.820000e-06	-1.683720e-06	-1.667579e-09	-1.164212e+01	-1.104495e+02
2.830000e-06	-1.726948e-06	-1.764186e-09	-1.194102e+01	-1.167241e+02
2.840000e-06	-1.769701e-06	-1.859175e-09	-1.223663e+01	-1.226965e+02
2.850000e-06	-1.811838e-06	-1.948719e-09	-1.252799e+01	-1.283871e+02
2.860000e-06	-1.853351e-06	-2.030308e-09	-1.281504e+01	-1.338174e+02
2.870000e-06	-1.894315e-06	-2.107343e-09	-1.309828e+01	-1.389997e+02
2.880000e-06	-1.934650e-06	-2.183058e-09	-1.337717e+01	-1.439327e+02
2.890000e-06	-1.974344e-06	-2.255843e-09	-1.365164e+01	-1.486028e+02
2.900000e-06	-2.013506e-06	-2.324332e-09	-1.392243e+01	-1.529922e+02
2.910000e-06	-2.051991e-06	-2.388872e-09	-1.418853e+01	-1.570880e+02
2.920000e-06	-2.089485e-06	-2.450812e-09	-1.444779e+01	-1.608903e+02
2.930000e-06	-2.125949e-06	-2.508965e-09	-1.469992e+01	-1.644155e+02
2.940000e-06	-2.161610e-06	-2.561943e-09	-1.494650e+01	-1.676933e+02
