# Temperatura_=_23.28
# Concentracion g/m^3_=_13400.0
# C_Vs_to_Am_M_A/Vsm_=_65563218390.804596
# pendiente_HvsI_1/m_=_3716.3
# ordenada_HvsI_A/m_=_1297.0
# frecuencia_Hz_=_300987.32046676474

Tiempo_(s)	Campo_(V.s)	Magnetizacion_(V.s)	Campo_(kA/m)	Magnetizacion_(A/m)
0.000000e+00	-2.863834e-06	-3.287221e-09	-1.978324e+01	-2.148696e+02
1.000000e-08	-2.862900e-06	-3.290341e-09	-1.977679e+01	-2.147666e+02
2.000000e-08	-2.860988e-06	-3.289492e-09	-1.976358e+01	-2.146395e+02
3.000000e-08	-2.857830e-06	-3.287446e-09	-1.974176e+01	-2.145019e+02
4.000000e-08	-2.853624e-06	-3.285973e-09	-1.971270e+01	-2.143540e+02
5.000000e-08	-2.848653e-06	-3.281808e-09	-1.967836e+01	-2.141822e+02
6.000000e-08	-2.842849e-06	-3.271758e-09	-1.963827e+01	-2.139638e+02
7.000000e-08	-2.836022e-06	-3.264442e-09	-1.959111e+01	-2.136755e+02
8.000000e-08	-2.828147e-06	-3.298346e-09	-1.953672e+01	-2.133027e+02
9.000000e-08	-2.819105e-06	-3.331254e-09	-1.947425e+01	-2.128459e+02
1.000000e-07	-2.808584e-06	-3.275543e-09	-1.940158e+01	-2.123214e+02
1.100000e-07	-2.796782e-06	-3.148555e-09	-1.932004e+01	-2.117565e+02
1.200000e-07	-2.784273e-06	-3.183561e-09	-1.923364e+01	-2.111806e+02
1.300000e-07	-2.770977e-06	-3.306613e-09	-1.914178e+01	-2.106154e+02
1.400000e-07	-2.756607e-06	-3.230668e-09	-1.904252e+01	-2.100685e+02
1.500000e-07	-2.741236e-06	-3.147328e-09	-1.893634e+01	-2.095317e+02
1.600000e-07	-2.724683e-06	-3.260135e-09	-1.882199e+01	-2.089853e+02
1.700000e-07	-2.706809e-06	-3.247091e-09	-1.869852e+01	-2.084059e+02
1.800000e-07	-2.688081e-06	-3.091125e-09	-1.856915e+01	-2.077755e+02
1.900000e-07	-2.668753e-06	-3.179852e-09	-1.843563e+01	-2.070871e+02
2.000000e-07	-2.648522e-06	-3.217501e-09	-1.829587e+01	-2.063465e+02
2.100000e-07	-2.627323e-06	-3.043492e-09	-1.814943e+01	-2.055679e+02
2.200000e-07	-2.605328e-06	-3.098974e-09	-1.799749e+01	-2.047668e+02
2.300000e-07	-2.582412e-06	-3.239902e-09	-1.783919e+01	-2.039524e+02
2.400000e-07	-2.558530e-06	-3.121010e-09	-1.767421e+01	-2.031227e+02
2.500000e-07	-2.533902e-06	-3.037130e-09	-1.750409e+01	-2.022643e+02
2.600000e-07	-2.508426e-06	-3.072843e-09	-1.732810e+01	-2.013572e+02
2.700000e-07	-2.481807e-06	-3.056892e-09	-1.714421e+01	-2.003825e+02
2.800000e-07	-2.454094e-06	-3.053692e-09	-1.695277e+01	-1.993304e+02
2.900000e-07	-2.425474e-06	-3.025921e-09	-1.675507e+01	-1.982044e+02
3.000000e-07	-2.396056e-06	-2.972507e-09	-1.655185e+01	-1.970211e+02
3.100000e-07	-2.365935e-06	-3.009868e-09	-1.634378e+01	-1.958053e+02
3.200000e-07	-2.335066e-06	-3.014036e-09	-1.613053e+01	-1.945812e+02
3.300000e-07	-2.303398e-06	-2.923582e-09	-1.591177e+01	-1.933645e+02
3.400000e-07	-2.271047e-06	-2.912042e-09	-1.568829e+01	-1.921570e+02
3.500000e-07	-2.238078e-06	-2.901190e-09	-1.546055e+01	-1.909463e+02
3.600000e-07	-2.204227e-06	-2.879797e-09	-1.522670e+01	-1.897103e+02
3.700000e-07	-2.169194e-06	-2.907952e-09	-1.498469e+01	-1.884251e+02
3.800000e-07	-2.133183e-06	-2.857901e-09	-1.473594e+01	-1.870733e+02
3.900000e-07	-2.096536e-06	-2.796283e-09	-1.448278e+01	-1.856492e+02
4.000000e-07	-2.059301e-06	-2.825260e-09	-1.422556e+01	-1.841600e+02
4.100000e-07	-2.021385e-06	-2.813128e-09	-1.396364e+01	-1.826221e+02
4.200000e-07	-1.982701e-06	-2.732928e-09	-1.369641e+01	-1.810542e+02
4.300000e-07	-1.943220e-06	-2.713811e-09	-1.342368e+01	-1.794702e+02
4.400000e-07	-1.903088e-06	-2.717980e-09	-1.314644e+01	-1.778739e+02
4.500000e-07	-1.862558e-06	-2.702096e-09	-1.286647e+01	-1.762579e+02
4.600000e-07	-1.821599e-06	-2.671224e-09	-1.258352e+01	-1.746068e+02
4.700000e-07	-1.779858e-06	-2.627759e-09	-1.229518e+01	-1.729032e+02
4.800000e-07	-1.737013e-06	-2.591770e-09	-1.199921e+01	-1.711343e+02
4.900000e-07	-1.693218e-06	-2.579581e-09	-1.169667e+01	-1.692963e+02
5.000000e-07	-1.648905e-06	-2.558939e-09	-1.139056e+01	-1.673958e+02
5.100000e-07	-1.604208e-06	-2.509177e-09	-1.108180e+01	-1.654467e+02
5.200000e-07	-1.558989e-06	-2.478570e-09	-1.076943e+01	-1.634651e+02
5.300000e-07	-1.513192e-06	-2.463293e-09	-1.045306e+01	-1.614629e+02
5.400000e-07	-1.466874e-06	-2.438197e-09	-1.013310e+01	-1.594440e+02
5.500000e-07	-1.420029e-06	-2.391425e-09	-9.809499e+00	-1.574031e+02
5.600000e-07	-1.372661e-06	-2.344778e-09	-9.482283e+00	-1.553284e+02
5.700000e-07	-1.324770e-06	-2.317233e-09	-9.151455e+00	-1.532061e+02
5.800000e-07	-1.276452e-06	-2.301730e-09	-8.817672e+00	-1.510262e+02
5.900000e-07	-1.227848e-06	-2.267952e-09	-8.481920e+00	-1.487858e+02
6.000000e-07	-1.178890e-06	-2.219647e-09	-8.143716e+00	-1.464898e+02
6.100000e-07	-1.129270e-06	-2.184683e-09	-7.800948e+00	-1.441484e+02
6.200000e-07	-1.078865e-06	-2.156390e-09	-7.452754e+00	-1.417723e+02
6.300000e-07	-1.027855e-06	-2.122295e-09	-7.100378e+00	-1.393676e+02
6.400000e-07	-9.764085e-07	-2.072429e-09	-6.744986e+00	-1.369322e+02
6.500000e-07	-9.245675e-07	-2.025893e-09	-6.386871e+00	-1.344555e+02
6.600000e-07	-8.723450e-07	-1.995356e-09	-6.026120e+00	-1.319215e+02
6.700000e-07	-8.198199e-07	-1.967788e-09	-5.663279e+00	-1.293136e+02
6.800000e-07	-7.670125e-07	-1.925540e-09	-5.298488e+00	-1.266207e+02
6.900000e-07	-7.138901e-07	-1.875046e-09	-4.931521e+00	-1.238409e+02
7.000000e-07	-6.604743e-07	-1.832840e-09	-4.562527e+00	-1.209821e+02
7.100000e-07	-6.067979e-07	-1.793137e-09	-4.191733e+00	-1.180596e+02
7.200000e-07	-5.529036e-07	-1.745668e-09	-3.819434e+00	-1.150901e+02
7.300000e-07	-4.988454e-07	-1.689251e-09	-3.446002e+00	-1.120858e+02
7.400000e-07	-4.446090e-07	-1.639345e-09	-3.071339e+00	-1.090493e+02
7.500000e-07	-3.902273e-07	-1.598836e-09	-2.695673e+00	-1.059716e+02
7.600000e-07	-3.357954e-07	-1.557149e-09	-2.319659e+00	-1.028350e+02
7.700000e-07	-2.812888e-07	-1.505270e-09	-1.943131e+00	-9.961780e+01
7.800000e-07	-2.266732e-07	-1.449243e-09	-1.565849e+00	-9.630131e+01
7.900000e-07	-1.720044e-07	-1.397580e-09	-1.188199e+00	-9.287582e+01
8.000000e-07	-1.173010e-07	-1.344672e-09	-8.103097e-01	-8.934338e+01
8.100000e-07	-6.255032e-08	-1.287065e-09	-4.320948e-01	-8.571662e+01
8.200000e-07	-7.797452e-09	-1.226052e-09	-5.386445e-02	-8.201380e+01
8.300000e-07	4.691989e-08	-1.171089e-09	3.241205e-01	-7.825188e+01
8.400000e-07	1.016116e-07	-1.120130e-09	7.019282e-01	-7.443974e+01
8.500000e-07	1.562802e-07	-1.063427e-09	1.079577e+00	-7.057413e+01
8.600000e-07	2.109209e-07	-9.970854e-10	1.457032e+00	-6.663963e+01
8.700000e-07	2.655080e-07	-9.313239e-10	1.834117e+00	-6.261270e+01
8.800000e-07	3.200242e-07	-8.720631e-10	2.210713e+00	-5.846837e+01
8.900000e-07	3.744521e-07	-8.111282e-10	2.586698e+00	-5.418730e+01
9.000000e-07	4.287754e-07	-7.435104e-10	2.961961e+00	-4.976053e+01
9.100000e-07	4.829654e-07	-6.712724e-10	3.336304e+00	-4.519032e+01
9.200000e-07	5.369823e-07	-6.005855e-10	3.709450e+00	-4.048663e+01
9.300000e-07	5.907815e-07	-5.282052e-10	4.081092e+00	-3.566057e+01
9.400000e-07	6.443182e-07	-4.514654e-10	4.450922e+00	-3.071704e+01
9.500000e-07	6.976149e-07	-3.707077e-10	4.819093e+00	-2.564940e+01
9.600000e-07	7.506478e-07	-2.902989e-10	5.185441e+00	-2.043803e+01
9.700000e-07	8.033973e-07	-2.120250e-10	5.549833e+00	-1.505360e+01
9.800000e-07	8.559137e-07	-1.303211e-10	5.912614e+00	-9.463864e+00
9.900000e-07	9.081618e-07	-4.072018e-11	6.273541e+00	-3.641712e+00
1.000000e-06	9.600393e-07	5.555809e-11	6.631908e+00	2.428309e+00
1.010000e-06	1.011425e-06	1.532132e-10	6.986881e+00	8.747242e+00
1.020000e-06	1.062178e-06	2.528525e-10	7.337475e+00	1.530350e+01
1.030000e-06	1.112300e-06	3.552191e-10	7.683716e+00	2.207826e+01
1.040000e-06	1.161767e-06	4.626049e-10	8.025432e+00	2.905201e+01
1.050000e-06	1.210679e-06	5.719650e-10	8.363315e+00	3.620944e+01
1.060000e-06	1.259300e-06	6.811315e-10	8.699188e+00	4.354030e+01
1.070000e-06	1.307634e-06	7.947308e-10	9.033078e+00	5.103549e+01
1.080000e-06	1.355576e-06	9.125625e-10	9.364258e+00	5.867952e+01
1.090000e-06	1.403051e-06	1.031988e-09	9.692212e+00	6.644219e+01
1.100000e-06	1.450028e-06	1.151478e-09	1.001673e+01	7.427285e+01
1.110000e-06	1.496496e-06	1.272356e-09	1.033773e+01	8.210006e+01
1.120000e-06	1.542382e-06	1.391386e-09	1.065470e+01	8.983768e+01
1.130000e-06	1.587697e-06	1.503761e-09	1.096774e+01	9.739631e+01
1.140000e-06	1.632541e-06	1.608772e-09	1.127752e+01	1.046969e+02
1.150000e-06	1.677030e-06	1.711102e-09	1.158485e+01	1.116822e+02
1.160000e-06	1.721134e-06	1.812338e-09	1.188951e+01	1.183237e+02
1.170000e-06	1.764638e-06	1.910629e-09	1.219004e+01	1.246197e+02
1.180000e-06	1.807252e-06	2.004349e-09	1.248441e+01	1.305885e+02
1.190000e-06	1.848846e-06	2.091477e-09	1.277174e+01	1.362560e+02
1.200000e-06	1.889684e-06	2.173538e-09	1.305385e+01	1.416446e+02
1.210000e-06	1.930004e-06	2.250716e-09	1.333238e+01	1.467654e+02
1.220000e-06	1.969794e-06	2.320431e-09	1.360725e+01	1.516162e+02
1.230000e-06	2.008939e-06	2.383530e-09	1.387766e+01	1.561865e+02
1.240000e-06	2.047356e-06	2.446271e-09	1.414304e+01	1.604652e+02
1.250000e-06	2.085005e-06	2.509617e-09	1.440312e+01	1.644497e+02
1.260000e-06	2.121961e-06	2.568742e-09	1.465841e+01	1.681508e+02
1.270000e-06	2.158415e-06	2.620044e-09	1.491023e+01	1.715924e+02
1.280000e-06	2.194262e-06	2.665308e-09	1.515787e+01	1.748070e+02
1.290000e-06	2.229132e-06	2.708276e-09	1.539875e+01	1.778260e+02
1.300000e-06	2.262896e-06	2.748145e-09	1.563198e+01	1.806728e+02
1.310000e-06	2.295793e-06	2.783231e-09	1.585923e+01	1.833572e+02
1.320000e-06	2.328041e-06	2.815275e-09	1.608200e+01	1.858771e+02
1.330000e-06	2.359523e-06	2.848720e-09	1.629948e+01	1.882236e+02
1.340000e-06	2.390163e-06	2.883322e-09	1.651114e+01	1.903900e+02
1.350000e-06	2.420015e-06	2.915150e-09	1.671736e+01	1.923795e+02
1.360000e-06	2.449122e-06	2.941834e-09	1.691843e+01	1.942084e+02
1.370000e-06	2.477592e-06	2.965165e-09	1.711510e+01	1.959050e+02
1.380000e-06	2.505238e-06	2.989237e-09	1.730607e+01	1.975023e+02
1.390000e-06	2.531703e-06	3.012824e-09	1.748889e+01	1.990288e+02
1.400000e-06	2.557014e-06	3.033013e-09	1.766374e+01	2.005003e+02
1.410000e-06	2.581392e-06	3.051680e-09	1.783214e+01	2.019167e+02
1.420000e-06	2.604882e-06	3.072113e-09	1.799441e+01	2.032637e+02
1.430000e-06	2.627465e-06	3.093153e-09	1.815041e+01	2.045206e+02
1.440000e-06	2.649168e-06	3.112146e-09	1.830033e+01	2.056697e+02
1.450000e-06	2.670072e-06	3.128933e-09	1.844474e+01	2.067052e+02
1.460000e-06	2.690246e-06	3.144639e-09	1.858410e+01	2.076367e+02
1.470000e-06	2.709491e-06	3.159036e-09	1.871704e+01	2.084872e+02
1.480000e-06	2.727709e-06	3.171096e-09	1.884289e+01	2.092851e+02
1.490000e-06	2.744985e-06	3.180406e-09	1.896223e+01	2.100550e+02
1.500000e-06	2.761205e-06	3.190682e-09	1.907428e+01	2.108088e+02
1.510000e-06	2.776301e-06	3.203515e-09	1.917857e+01	2.115424e+02
1.520000e-06	2.790398e-06	3.215737e-09	1.927594e+01	2.122376e+02
1.530000e-06	2.803548e-06	3.226105e-09	1.936679e+01	2.128702e+02
1.540000e-06	2.815642e-06	3.235926e-09	1.945033e+01	2.134193e+02
1.550000e-06	2.826415e-06	3.245069e-09	1.952475e+01	2.138763e+02
1.560000e-06	2.835868e-06	3.252175e-09	1.959005e+01	2.142477e+02
1.570000e-06	2.844384e-06	3.257126e-09	1.964888e+01	2.145534e+02
1.580000e-06	2.851990e-06	3.261097e-09	1.970142e+01	2.148192e+02
1.590000e-06	2.858573e-06	3.265538e-09	1.974689e+01	2.150668e+02
1.600000e-06	2.864183e-06	3.270385e-09	1.978565e+01	2.153068e+02
1.610000e-06	2.868977e-06	3.273615e-09	1.981876e+01	2.155349e+02
1.620000e-06	2.872951e-06	3.276344e-09	1.984622e+01	2.157346e+02
1.630000e-06	2.875685e-06	3.281099e-09	1.986510e+01	2.158849e+02
1.640000e-06	2.877127e-06	3.285404e-09	1.987507e+01	2.159687e+02
1.650000e-06	2.877624e-06	3.288529e-09	1.987850e+01	2.159802e+02
1.660000e-06	2.877254e-06	3.287802e-09	1.987594e+01	2.159271e+02
1.670000e-06	2.876004e-06	3.281259e-09	1.986731e+01	2.158274e+02
1.680000e-06	2.873883e-06	3.274097e-09	1.985266e+01	2.157017e+02
1.690000e-06	2.870919e-06	3.270357e-09	1.983218e+01	2.155645e+02
1.700000e-06	2.867164e-06	3.270877e-09	1.980624e+01	2.154178e+02
1.710000e-06	2.862353e-06	3.274117e-09	1.977301e+01	2.152492e+02
1.720000e-06	2.856337e-06	3.284591e-09	1.973145e+01	2.150366e+02
1.730000e-06	2.849361e-06	3.276396e-09	1.968326e+01	2.147563e+02
1.740000e-06	2.841534e-06	3.209298e-09	1.962919e+01	2.143924e+02
1.750000e-06	2.832443e-06	3.174692e-09	1.956639e+01	2.139437e+02
1.760000e-06	2.821698e-06	3.268264e-09	1.949217e+01	2.134249e+02
1.770000e-06	2.809890e-06	3.331707e-09	1.941059e+01	2.128625e+02
1.780000e-06	2.797935e-06	3.234463e-09	1.932801e+01	2.122861e+02
1.790000e-06	2.785395e-06	3.154062e-09	1.924138e+01	2.117187e+02
1.800000e-06	2.771158e-06	3.260619e-09	1.914303e+01	2.111696e+02
1.810000e-06	2.755654e-06	3.210803e-09	1.903593e+01	2.106322e+02
1.820000e-06	2.739666e-06	3.077427e-09	1.892549e+01	2.100875e+02
1.830000e-06	2.722634e-06	3.207014e-09	1.880784e+01	2.095123e+02
1.840000e-06	2.704205e-06	3.268036e-09	1.868053e+01	2.088875e+02
1.850000e-06	2.685022e-06	3.089032e-09	1.854801e+01	2.082049e+02
1.860000e-06	2.665171e-06	3.125299e-09	1.841088e+01	2.074689e+02
1.870000e-06	2.644091e-06	3.268989e-09	1.826526e+01	2.066932e+02
1.880000e-06	2.621841e-06	3.076877e-09	1.811156e+01	2.058936e+02
1.890000e-06	2.598675e-06	2.989903e-09	1.795153e+01	2.050801e+02
1.900000e-06	2.574512e-06	3.161772e-09	1.778462e+01	2.042521e+02
1.910000e-06	2.549569e-06	3.135865e-09	1.761231e+01	2.033972e+02
1.920000e-06	2.523910e-06	3.052909e-09	1.743506e+01	2.024959e+02
1.930000e-06	2.497293e-06	3.074777e-09	1.725119e+01	2.015288e+02
1.940000e-06	2.469992e-06	3.023292e-09	1.706260e+01	2.004847e+02
1.950000e-06	2.441928e-06	3.051311e-09	1.686873e+01	1.993656e+02
1.960000e-06	2.412554e-06	3.045446e-09	1.666581e+01	1.981870e+02
1.970000e-06	2.382007e-06	2.924022e-09	1.645480e+01	1.969731e+02
1.980000e-06	2.350723e-06	2.968391e-09	1.623869e+01	1.957485e+02
1.990000e-06	2.318797e-06	3.017937e-09	1.601814e+01	1.945303e+02
2.000000e-06	2.286134e-06	2.930679e-09	1.579251e+01	1.933218e+02
2.010000e-06	2.252583e-06	2.934367e-09	1.556074e+01	1.921119e+02
2.020000e-06	2.218217e-06	2.907279e-09	1.532335e+01	1.908794e+02
2.030000e-06	2.183266e-06	2.843025e-09	1.508190e+01	1.896001e+02
2.040000e-06	2.147675e-06	2.892007e-09	1.483604e+01	1.882556e+02
2.050000e-06	2.111322e-06	2.853022e-09	1.458492e+01	1.868387e+02
2.060000e-06	2.074104e-06	2.784015e-09	1.432782e+01	1.853555e+02
2.070000e-06	2.035825e-06	2.813203e-09	1.406339e+01	1.838215e+02
2.080000e-06	1.996728e-06	2.797240e-09	1.379331e+01	1.822556e+02
2.090000e-06	1.957073e-06	2.755351e-09	1.351937e+01	1.806726e+02
2.100000e-06	1.916779e-06	2.722624e-09	1.324103e+01	1.790773e+02
2.110000e-06	1.875846e-06	2.677167e-09	1.295826e+01	1.774637e+02
2.120000e-06	1.834299e-06	2.675572e-09	1.267125e+01	1.758168e+02
2.130000e-06	1.792185e-06	2.668434e-09	1.238033e+01	1.741192e+02
2.140000e-06	1.749515e-06	2.630456e-09	1.208557e+01	1.723572e+02
2.150000e-06	1.706379e-06	2.598617e-09	1.178759e+01	1.705261e+02
2.160000e-06	1.662821e-06	2.571433e-09	1.148669e+01	1.686314e+02
2.170000e-06	1.618635e-06	2.554106e-09	1.118146e+01	1.666863e+02
2.180000e-06	1.573753e-06	2.514309e-09	1.087142e+01	1.647071e+02
2.190000e-06	1.528267e-06	2.473517e-09	1.055720e+01	1.627064e+02
2.200000e-06	1.482241e-06	2.454285e-09	1.023926e+01	1.606890e+02
2.210000e-06	1.435805e-06	2.429840e-09	9.918477e+00	1.586506e+02
2.220000e-06	1.388983e-06	2.408587e-09	9.595033e+00	1.565798e+02
2.230000e-06	1.341572e-06	2.366125e-09	9.267516e+00	1.544628e+02
2.240000e-06	1.293461e-06	2.318372e-09	8.935173e+00	1.522890e+02
2.250000e-06	1.244750e-06	2.298796e-09	8.598679e+00	1.500545e+02
2.260000e-06	1.195642e-06	2.271448e-09	8.259443e+00	1.477636e+02
2.270000e-06	1.146208e-06	2.229385e-09	7.917953e+00	1.454262e+02
2.280000e-06	1.096315e-06	2.186368e-09	7.573293e+00	1.430530e+02
2.290000e-06	1.045935e-06	2.147419e-09	7.225271e+00	1.406509e+02
2.300000e-06	9.951272e-07	2.123227e-09	6.874294e+00	1.382188e+02
2.310000e-06	9.439790e-07	2.088710e-09	6.520965e+00	1.357469e+02
2.320000e-06	8.926389e-07	2.041814e-09	6.166310e+00	1.332194e+02
2.330000e-06	8.410423e-07	2.003776e-09	5.809882e+00	1.306198e+02
2.340000e-06	7.890771e-07	1.966905e-09	5.450909e+00	1.279359e+02
2.350000e-06	7.366978e-07	1.926475e-09	5.089075e+00	1.251647e+02
2.360000e-06	6.838332e-07	1.874934e-09	4.723889e+00	1.223134e+02
2.370000e-06	6.304993e-07	1.825341e-09	4.355461e+00	1.193964e+02
2.380000e-06	5.767204e-07	1.787895e-09	3.983959e+00	1.164309e+02
2.390000e-06	5.225646e-07	1.749735e-09	3.609853e+00	1.134297e+02
2.400000e-06	4.681898e-07	1.705320e-09	3.234234e+00	1.103964e+02
2.410000e-06	4.136659e-07	1.654317e-09	2.857586e+00	1.073235e+02
2.420000e-06	3.589726e-07	1.605056e-09	2.479766e+00	1.041939e+02
2.430000e-06	3.041577e-07	1.558461e-09	2.101108e+00	1.009859e+02
2.440000e-06	2.492251e-07	1.507959e-09	1.721636e+00	9.768030e+01
2.450000e-06	1.942020e-07	1.453997e-09	1.341539e+00	9.426622e+01
2.460000e-06	1.391234e-07	1.398728e-09	9.610584e-01	9.074441e+01
2.470000e-06	8.403845e-08	1.344853e-09	5.805339e-01	8.712653e+01
2.480000e-06	2.895811e-08	1.291413e-09	2.000413e-01	8.343059e+01
2.490000e-06	-2.612820e-08	1.233719e-09	-1.804924e-01	7.967400e+01
2.500000e-06	-8.121324e-08	1.175249e-09	-5.610174e-01	7.586678e+01
2.510000e-06	-1.363062e-07	1.118886e-09	-9.415973e-01	7.200705e+01
2.520000e-06	-1.913780e-07	1.059143e-09	-1.322030e+00	6.808058e+01
2.530000e-06	-2.464098e-07	9.946694e-10	-1.702188e+00	6.406439e+01
2.540000e-06	-3.013492e-07	9.290055e-10	-2.081707e+00	5.993333e+01
2.550000e-06	-3.561906e-07	8.672597e-10	-2.460549e+00	5.566716e+01
2.560000e-06	-4.109405e-07	8.034386e-10	-2.838759e+00	5.125569e+01
2.570000e-06	-4.655164e-07	7.331551e-10	-3.215767e+00	4.670007e+01
2.580000e-06	-5.198687e-07	6.610268e-10	-3.591229e+00	4.200972e+01
2.590000e-06	-5.739291e-07	5.878549e-10	-3.964676e+00	3.719599e+01
2.600000e-06	-6.275770e-07	5.105618e-10	-4.335274e+00	3.226475e+01
2.610000e-06	-6.808199e-07	4.303520e-10	-4.703074e+00	2.721074e+01
2.620000e-06	-7.336584e-07	3.512275e-10	-5.068080e+00	2.201566e+01
2.630000e-06	-7.860511e-07	2.717642e-10	-5.430006e+00	1.665094e+01
2.640000e-06	-8.379983e-07	1.911348e-10	-5.788855e+00	1.108427e+01
2.650000e-06	-8.895789e-07	1.060135e-10	-6.145171e+00	5.287613e+00
2.660000e-06	-9.409199e-07	1.268551e-11	-6.499833e+00	-7.559329e-01
2.670000e-06	-9.919962e-07	-8.825900e-11	-6.852666e+00	-7.048950e+00
2.680000e-06	-1.042701e-06	-1.908920e-10	-7.202932e+00	-1.358100e+01
2.690000e-06	-1.092991e-06	-2.915704e-10	-7.550336e+00	-2.033371e+01
2.700000e-06	-1.142839e-06	-3.948553e-10	-7.894681e+00	-2.728735e+01
2.710000e-06	-1.192252e-06	-5.039114e-10	-8.236021e+00	-3.442605e+01
2.720000e-06	-1.241278e-06	-6.158062e-10	-8.574692e+00	-4.173912e+01
2.730000e-06	-1.289759e-06	-7.276408e-10	-8.909597e+00	-4.921764e+01
2.740000e-06	-1.337424e-06	-8.429435e-10	-9.238867e+00	-5.684724e+01
2.750000e-06	-1.384317e-06	-9.635208e-10	-9.562802e+00	-6.459962e+01
2.760000e-06	-1.430608e-06	-1.085406e-09	-9.882579e+00	-7.242646e+01
2.770000e-06	-1.476454e-06	-1.204779e-09	-1.019928e+01	-8.025836e+01
2.780000e-06	-1.522003e-06	-1.322141e-09	-1.051393e+01	-8.801030e+01
2.790000e-06	-1.567159e-06	-1.439172e-09	-1.082586e+01	-9.559257e+01
2.800000e-06	-1.611712e-06	-1.552927e-09	-1.113363e+01	-1.029244e+02
2.810000e-06	-1.655662e-06	-1.660586e-09	-1.143724e+01	-1.099458e+02
2.820000e-06	-1.699151e-06	-1.761914e-09	-1.173766e+01	-1.166250e+02
2.830000e-06	-1.742275e-06	-1.858651e-09	-1.203556e+01	-1.229578e+02
2.840000e-06	-1.784954e-06	-1.951802e-09	-1.233038e+01	-1.289608e+02
2.850000e-06	-1.826988e-06	-2.040586e-09	-1.262075e+01	-1.346597e+02
2.860000e-06	-1.868403e-06	-2.123781e-09	-1.290685e+01	-1.400779e+02
2.870000e-06	-1.909247e-06	-2.202954e-09	-1.318899e+01	-1.452276e+02
2.880000e-06	-1.949410e-06	-2.279065e-09	-1.346644e+01	-1.501082e+02
2.890000e-06	-1.988940e-06	-2.350366e-09	-1.373951e+01	-1.547095e+02
2.900000e-06	-2.027974e-06	-2.417047e-09	-1.400915e+01	-1.590202e+02
2.910000e-06	-2.066317e-06	-2.480677e-09	-1.427402e+01	-1.630363e+02
2.920000e-06	-2.103600e-06	-2.541911e-09	-1.453158e+01	-1.667672e+02
2.930000e-06	-2.139823e-06	-2.597661e-09	-1.478180e+01	-1.702356e+02
2.940000e-06	-2.175286e-06	-2.647520e-09	-1.502678e+01	-1.734732e+02
