# Temperatura_=_18.63
# Concentracion g/m^3_=_13400.0
# C_Vs_to_Am_M_A/Vsm_=_65563218390.804596
# pendiente_HvsI_1/m_=_3716.3
# ordenada_HvsI_A/m_=_1297.0
# frecuencia_Hz_=_300999.9164970368

Tiempo_(s)	Campo_(V.s)	Magnetizacion_(V.s)	Campo_(kA/m)	Magnetizacion_(A/m)
0.000000e+00	-2.857495e-06	-3.222808e-09	-1.978019e+01	-2.103721e+02
1.000000e-08	-2.856603e-06	-3.224390e-09	-1.977402e+01	-2.101912e+02
2.000000e-08	-2.854750e-06	-3.224975e-09	-1.976120e+01	-2.100192e+02
3.000000e-08	-2.851629e-06	-3.224311e-09	-1.973959e+01	-2.098805e+02
4.000000e-08	-2.847449e-06	-3.221719e-09	-1.971065e+01	-2.097700e+02
5.000000e-08	-2.842450e-06	-3.215665e-09	-1.967605e+01	-2.096534e+02
6.000000e-08	-2.836593e-06	-3.203653e-09	-1.963551e+01	-2.094791e+02
7.000000e-08	-2.829782e-06	-3.195078e-09	-1.958836e+01	-2.091979e+02
8.000000e-08	-2.821964e-06	-3.241532e-09	-1.953424e+01	-2.087837e+02
9.000000e-08	-2.812929e-06	-3.281176e-09	-1.947170e+01	-2.082461e+02
1.000000e-07	-2.802324e-06	-3.219730e-09	-1.939829e+01	-2.076316e+02
1.100000e-07	-2.790455e-06	-3.066592e-09	-1.931613e+01	-2.070102e+02
1.200000e-07	-2.777939e-06	-3.118683e-09	-1.922949e+01	-2.064542e+02
1.300000e-07	-2.764649e-06	-3.275101e-09	-1.913750e+01	-2.060132e+02
1.400000e-07	-2.750313e-06	-3.145134e-09	-1.903826e+01	-2.056976e+02
1.500000e-07	-2.735060e-06	-3.064120e-09	-1.893267e+01	-2.054730e+02
1.600000e-07	-2.718621e-06	-3.234059e-09	-1.881888e+01	-2.052708e+02
1.700000e-07	-2.700788e-06	-3.221554e-09	-1.869544e+01	-2.050084e+02
1.800000e-07	-2.682117e-06	-3.013631e-09	-1.856620e+01	-2.046139e+02
1.900000e-07	-2.662809e-06	-3.107178e-09	-1.843254e+01	-2.040465e+02
2.000000e-07	-2.642584e-06	-3.168965e-09	-1.829254e+01	-2.033053e+02
2.100000e-07	-2.621464e-06	-2.964876e-09	-1.814634e+01	-2.024253e+02
2.200000e-07	-2.599565e-06	-3.045250e-09	-1.799475e+01	-2.014619e+02
2.300000e-07	-2.576748e-06	-3.203112e-09	-1.783680e+01	-2.004706e+02
2.400000e-07	-2.552973e-06	-3.040845e-09	-1.767223e+01	-1.994892e+02
2.500000e-07	-2.528473e-06	-2.966753e-09	-1.750263e+01	-1.985281e+02
2.600000e-07	-2.503126e-06	-3.028979e-09	-1.732718e+01	-1.975724e+02
2.700000e-07	-2.476608e-06	-2.988701e-09	-1.714361e+01	-1.965920e+02
2.800000e-07	-2.448982e-06	-2.977614e-09	-1.695238e+01	-1.955571e+02
2.900000e-07	-2.420467e-06	-2.952599e-09	-1.675500e+01	-1.944507e+02
3.000000e-07	-2.391090e-06	-2.919749e-09	-1.655164e+01	-1.932754e+02
3.100000e-07	-2.361009e-06	-2.959405e-09	-1.634341e+01	-1.920501e+02
3.200000e-07	-2.330284e-06	-2.936721e-09	-1.613073e+01	-1.908016e+02
3.300000e-07	-2.298729e-06	-2.847964e-09	-1.591230e+01	-1.895516e+02
3.400000e-07	-2.266427e-06	-2.862255e-09	-1.568869e+01	-1.883082e+02
3.500000e-07	-2.233503e-06	-2.842155e-09	-1.546079e+01	-1.870624e+02
3.600000e-07	-2.199804e-06	-2.813132e-09	-1.522751e+01	-1.857922e+02
3.700000e-07	-2.164940e-06	-2.856649e-09	-1.498618e+01	-1.844725e+02
3.800000e-07	-2.128991e-06	-2.787546e-09	-1.473733e+01	-1.830849e+02
3.900000e-07	-2.092414e-06	-2.734274e-09	-1.448414e+01	-1.816259e+02
4.000000e-07	-2.055212e-06	-2.778421e-09	-1.422662e+01	-1.801071e+02
4.100000e-07	-2.017267e-06	-2.749009e-09	-1.396396e+01	-1.785504e+02
4.200000e-07	-1.978575e-06	-2.663753e-09	-1.369612e+01	-1.769787e+02
4.300000e-07	-1.939145e-06	-2.662638e-09	-1.342318e+01	-1.754064e+02
4.400000e-07	-1.899063e-06	-2.667550e-09	-1.314572e+01	-1.738337e+02
4.500000e-07	-1.858556e-06	-2.643890e-09	-1.286532e+01	-1.722472e+02
4.600000e-07	-1.817644e-06	-2.607905e-09	-1.258212e+01	-1.706253e+02
4.700000e-07	-1.776002e-06	-2.564121e-09	-1.229387e+01	-1.689477e+02
4.800000e-07	-1.733313e-06	-2.540256e-09	-1.199837e+01	-1.672028e+02
4.900000e-07	-1.689636e-06	-2.526831e-09	-1.169602e+01	-1.653922e+02
5.000000e-07	-1.645350e-06	-2.504070e-09	-1.138947e+01	-1.635288e+02
5.100000e-07	-1.600671e-06	-2.455024e-09	-1.108019e+01	-1.616305e+02
5.200000e-07	-1.555532e-06	-2.428679e-09	-1.076773e+01	-1.597119e+02
5.300000e-07	-1.509828e-06	-2.413232e-09	-1.045135e+01	-1.577774e+02
5.400000e-07	-1.463571e-06	-2.387963e-09	-1.013115e+01	-1.558186e+02
5.500000e-07	-1.416812e-06	-2.336568e-09	-9.807481e+00	-1.538175e+02
5.600000e-07	-1.369535e-06	-2.290822e-09	-9.480220e+00	-1.517536e+02
5.700000e-07	-1.321775e-06	-2.276099e-09	-9.149610e+00	-1.496116e+02
5.800000e-07	-1.273617e-06	-2.257289e-09	-8.816249e+00	-1.473881e+02
5.900000e-07	-1.225132e-06	-2.213720e-09	-8.480631e+00	-1.450927e+02
6.000000e-07	-1.176219e-06	-2.163531e-09	-8.142038e+00	-1.427445e+02
6.100000e-07	-1.126741e-06	-2.135227e-09	-7.799543e+00	-1.403640e+02
6.200000e-07	-1.076584e-06	-2.104994e-09	-7.452349e+00	-1.379657e+02
6.300000e-07	-1.025710e-06	-2.066676e-09	-7.100184e+00	-1.355522e+02
6.400000e-07	-9.743082e-07	-2.016243e-09	-6.744371e+00	-1.331131e+02
6.500000e-07	-9.224625e-07	-1.973825e-09	-6.385484e+00	-1.306292e+02
6.600000e-07	-8.702526e-07	-1.947456e-09	-6.024076e+00	-1.280801e+02
6.700000e-07	-8.177841e-07	-1.914742e-09	-5.660878e+00	-1.254515e+02
6.800000e-07	-7.650711e-07	-1.865887e-09	-5.295987e+00	-1.227405e+02
6.900000e-07	-7.121069e-07	-1.813976e-09	-4.929358e+00	-1.199565e+02
7.000000e-07	-6.588875e-07	-1.778678e-09	-4.560962e+00	-1.171162e+02
7.100000e-07	-6.054034e-07	-1.741582e-09	-4.190733e+00	-1.142373e+02
7.200000e-07	-5.516865e-07	-1.692079e-09	-3.818893e+00	-1.113303e+02
7.300000e-07	-4.977300e-07	-1.635916e-09	-3.445395e+00	-1.083942e+02
7.400000e-07	-4.435719e-07	-1.590684e-09	-3.070500e+00	-1.054156e+02
7.500000e-07	-3.892879e-07	-1.551787e-09	-2.694735e+00	-1.023730e+02
7.600000e-07	-3.349304e-07	-1.503372e-09	-2.318461e+00	-9.924333e+01
7.700000e-07	-2.804937e-07	-1.445616e-09	-1.941638e+00	-9.600952e+01
7.800000e-07	-2.259617e-07	-1.391886e-09	-1.564156e+00	-9.266536e+01
7.900000e-07	-1.713904e-07	-1.346523e-09	-1.186401e+00	-8.921679e+01
8.000000e-07	-1.168032e-07	-1.294263e-09	-8.085369e-01	-8.567903e+01
8.100000e-07	-6.218224e-08	-1.234597e-09	-4.304389e-01	-8.207076e+01
8.200000e-07	-7.538782e-09	-1.174330e-09	-5.218507e-02	-7.840765e+01
8.300000e-07	4.709751e-08	-1.121357e-09	3.260191e-01	-7.469729e+01
8.400000e-07	1.017215e-07	-1.067910e-09	7.041384e-01	-7.093709e+01
8.500000e-07	1.563108e-07	-1.008803e-09	1.082017e+00	-6.711567e+01
8.600000e-07	2.108465e-07	-9.461857e-10	1.459525e+00	-6.321676e+01
8.700000e-07	2.653319e-07	-8.865162e-10	1.836684e+00	-5.922425e+01
8.800000e-07	3.197677e-07	-8.301893e-10	2.213501e+00	-5.512636e+01
8.900000e-07	3.740833e-07	-7.661116e-10	2.589486e+00	-5.091781e+01
9.000000e-07	4.282735e-07	-6.954807e-10	2.964602e+00	-4.659927e+01
9.100000e-07	4.823594e-07	-6.260329e-10	3.338996e+00	-4.217454e+01
9.200000e-07	5.362887e-07	-5.612372e-10	3.712306e+00	-3.764664e+01
9.300000e-07	5.900018e-07	-4.914482e-10	4.084119e+00	-3.301397e+01
9.400000e-07	6.434831e-07	-4.157078e-10	4.454329e+00	-2.826803e+01
9.500000e-07	6.966843e-07	-3.387317e-10	4.822599e+00	-2.339318e+01
9.600000e-07	7.495814e-07	-2.635183e-10	5.188764e+00	-1.836863e+01
9.700000e-07	8.022164e-07	-1.877971e-10	5.553115e+00	-1.317205e+01
9.800000e-07	8.546066e-07	-1.045634e-10	5.915771e+00	-7.783652e+00
9.900000e-07	9.067353e-07	-1.551850e-11	6.276617e+00	-2.189726e+00
1.000000e-06	9.584591e-07	7.629097e-11	6.634660e+00	3.615358e+00
1.010000e-06	1.009664e-06	1.666399e-10	6.989109e+00	9.629226e+00
1.020000e-06	1.060249e-06	2.600195e-10	7.339271e+00	1.584343e+01
1.030000e-06	1.110187e-06	3.587628e-10	7.684951e+00	2.224655e+01
1.040000e-06	1.159565e-06	4.606196e-10	8.026758e+00	2.882719e+01
1.050000e-06	1.208496e-06	5.624415e-10	8.365469e+00	3.557577e+01
1.060000e-06	1.257086e-06	6.657478e-10	8.701818e+00	4.248401e+01
1.070000e-06	1.305358e-06	7.741692e-10	9.035970e+00	4.954209e+01
1.080000e-06	1.353217e-06	8.847785e-10	9.367257e+00	5.673390e+01
1.090000e-06	1.400600e-06	9.936123e-10	9.695253e+00	6.403209e+01
1.100000e-06	1.447486e-06	1.102445e-09	1.001981e+01	7.139463e+01
1.110000e-06	1.493789e-06	1.215701e-09	1.034033e+01	7.876447e+01
1.120000e-06	1.539539e-06	1.329907e-09	1.065702e+01	8.607335e+01
1.130000e-06	1.584743e-06	1.438836e-09	1.096993e+01	9.324910e+01
1.140000e-06	1.629495e-06	1.541526e-09	1.127972e+01	1.002250e+02
1.150000e-06	1.673944e-06	1.641308e-09	1.158740e+01	1.069485e+02
1.160000e-06	1.717967e-06	1.739188e-09	1.189214e+01	1.133870e+02
1.170000e-06	1.761360e-06	1.832496e-09	1.219252e+01	1.195288e+02
1.180000e-06	1.803823e-06	1.920789e-09	1.248645e+01	1.253788e+02
1.190000e-06	1.845281e-06	2.006317e-09	1.277343e+01	1.309510e+02
1.200000e-06	1.886063e-06	2.089455e-09	1.305573e+01	1.362596e+02
1.210000e-06	1.926367e-06	2.167291e-09	1.333473e+01	1.413123e+02
1.220000e-06	1.966081e-06	2.237435e-09	1.360963e+01	1.461080e+02
1.230000e-06	2.005106e-06	2.301925e-09	1.387978e+01	1.506384e+02
1.240000e-06	2.043454e-06	2.364169e-09	1.414523e+01	1.548944e+02
1.250000e-06	2.081040e-06	2.425179e-09	1.440541e+01	1.588729e+02
1.260000e-06	2.117936e-06	2.480682e-09	1.466081e+01	1.625814e+02
1.270000e-06	2.154341e-06	2.530802e-09	1.491281e+01	1.660394e+02
1.280000e-06	2.190102e-06	2.578303e-09	1.516036e+01	1.692746e+02
1.290000e-06	2.224856e-06	2.624655e-09	1.540093e+01	1.723158e+02
1.300000e-06	2.258516e-06	2.666420e-09	1.563393e+01	1.751854e+02
1.310000e-06	2.291318e-06	2.703018e-09	1.586100e+01	1.778948e+02
1.320000e-06	2.323447e-06	2.736862e-09	1.608340e+01	1.804440e+02
1.330000e-06	2.354859e-06	2.770755e-09	1.630084e+01	1.828262e+02
1.340000e-06	2.385469e-06	2.803726e-09	1.651273e+01	1.850357e+02
1.350000e-06	2.415232e-06	2.833393e-09	1.671876e+01	1.870749e+02
1.360000e-06	2.444251e-06	2.860068e-09	1.691963e+01	1.889590e+02
1.370000e-06	2.472631e-06	2.885101e-09	1.711609e+01	1.907145e+02
1.380000e-06	2.500206e-06	2.910208e-09	1.730697e+01	1.923724e+02
1.390000e-06	2.526628e-06	2.933336e-09	1.748986e+01	1.939597e+02
1.400000e-06	2.551854e-06	2.954813e-09	1.766449e+01	1.954901e+02
1.410000e-06	2.576156e-06	2.975974e-09	1.783271e+01	1.969607e+02
1.420000e-06	2.599585e-06	2.996731e-09	1.799489e+01	1.983543e+02
1.430000e-06	2.622101e-06	3.016140e-09	1.815075e+01	1.996474e+02
1.440000e-06	2.643737e-06	3.033282e-09	1.830052e+01	2.008213e+02
1.450000e-06	2.664599e-06	3.049475e-09	1.844493e+01	2.018714e+02
1.460000e-06	2.684743e-06	3.066130e-09	1.858437e+01	2.028116e+02
1.470000e-06	2.703952e-06	3.080823e-09	1.871734e+01	2.036708e+02
1.480000e-06	2.722085e-06	3.092987e-09	1.884286e+01	2.044837e+02
1.490000e-06	2.739255e-06	3.103675e-09	1.896171e+01	2.052786e+02
1.500000e-06	2.755403e-06	3.115126e-09	1.907349e+01	2.060672e+02
1.510000e-06	2.770474e-06	3.127469e-09	1.917782e+01	2.068408e+02
1.520000e-06	2.784575e-06	3.138121e-09	1.927543e+01	2.075741e+02
1.530000e-06	2.797680e-06	3.147261e-09	1.936615e+01	2.082362e+02
1.540000e-06	2.809712e-06	3.156870e-09	1.944943e+01	2.088032e+02
1.550000e-06	2.820429e-06	3.166175e-09	1.952362e+01	2.092690e+02
1.560000e-06	2.829861e-06	3.174201e-09	1.958891e+01	2.096486e+02
1.570000e-06	2.838365e-06	3.181301e-09	1.964778e+01	2.099726e+02
1.580000e-06	2.845993e-06	3.187541e-09	1.970057e+01	2.102752e+02
1.590000e-06	2.852636e-06	3.193868e-09	1.974656e+01	2.105806e+02
1.600000e-06	2.858250e-06	3.199292e-09	1.978542e+01	2.108921e+02
1.610000e-06	2.863041e-06	3.201537e-09	1.981859e+01	2.111901e+02
1.620000e-06	2.867021e-06	3.203336e-09	1.984614e+01	2.114388e+02
1.630000e-06	2.869753e-06	3.208181e-09	1.986505e+01	2.116009e+02
1.640000e-06	2.871201e-06	3.214343e-09	1.987507e+01	2.116526e+02
1.650000e-06	2.871696e-06	3.217071e-09	1.987850e+01	2.115946e+02
1.660000e-06	2.871312e-06	3.215592e-09	1.987584e+01	2.114537e+02
1.670000e-06	2.870021e-06	3.210474e-09	1.986690e+01	2.112734e+02
1.680000e-06	2.867798e-06	3.205047e-09	1.985151e+01	2.110980e+02
1.690000e-06	2.864782e-06	3.200181e-09	1.983064e+01	2.109546e+02
1.700000e-06	2.861071e-06	3.196711e-09	1.980495e+01	2.108414e+02
1.710000e-06	2.856312e-06	3.197812e-09	1.977201e+01	2.107270e+02
1.720000e-06	2.850315e-06	3.211224e-09	1.973050e+01	2.105606e+02
1.730000e-06	2.843374e-06	3.203563e-09	1.968245e+01	2.102919e+02
1.740000e-06	2.835595e-06	3.123102e-09	1.962860e+01	2.098913e+02
1.750000e-06	2.826506e-06	3.088264e-09	1.956568e+01	2.093645e+02
1.760000e-06	2.815736e-06	3.215220e-09	1.949113e+01	2.087543e+02
1.770000e-06	2.803906e-06	3.264090e-09	1.940924e+01	2.081292e+02
1.780000e-06	2.792025e-06	3.141020e-09	1.932700e+01	2.075624e+02
1.790000e-06	2.779558e-06	3.052996e-09	1.924070e+01	2.071071e+02
1.800000e-06	2.765297e-06	3.208384e-09	1.914198e+01	2.067780e+02
1.810000e-06	2.749735e-06	3.152991e-09	1.903426e+01	2.065457e+02
1.820000e-06	2.733719e-06	2.987912e-09	1.892339e+01	2.063442e+02
1.830000e-06	2.716685e-06	3.188632e-09	1.880548e+01	2.060912e+02
1.840000e-06	2.698256e-06	3.259081e-09	1.867791e+01	2.057127e+02
1.850000e-06	2.679114e-06	3.036609e-09	1.854541e+01	2.051637e+02
1.860000e-06	2.659284e-06	3.101417e-09	1.840814e+01	2.044392e+02
1.870000e-06	2.638127e-06	3.241930e-09	1.826168e+01	2.035708e+02
1.880000e-06	2.615869e-06	3.001260e-09	1.810761e+01	2.026127e+02
1.890000e-06	2.592738e-06	2.944721e-09	1.794749e+01	2.016214e+02
1.900000e-06	2.568544e-06	3.133354e-09	1.778001e+01	2.006371e+02
1.910000e-06	2.543606e-06	3.079475e-09	1.760739e+01	1.996733e+02
1.920000e-06	2.517973e-06	2.999523e-09	1.742995e+01	1.987175e+02
1.930000e-06	2.491417e-06	3.040441e-09	1.724613e+01	1.977405e+02
1.940000e-06	2.464203e-06	2.969302e-09	1.705775e+01	1.967117e+02
1.950000e-06	2.436226e-06	3.004925e-09	1.686408e+01	1.956125e+02
1.960000e-06	2.406913e-06	2.973897e-09	1.666117e+01	1.944430e+02
1.970000e-06	2.376450e-06	2.855124e-09	1.645030e+01	1.932210e+02
1.980000e-06	2.345252e-06	2.954007e-09	1.623434e+01	1.919729e+02
1.990000e-06	2.313316e-06	2.957864e-09	1.601327e+01	1.907216e+02
2.000000e-06	2.280650e-06	2.855805e-09	1.578715e+01	1.894768e+02
2.010000e-06	2.247175e-06	2.912142e-09	1.555543e+01	1.882313e+02
2.020000e-06	2.212903e-06	2.848300e-09	1.531819e+01	1.869642e+02
2.030000e-06	2.178008e-06	2.772009e-09	1.507664e+01	1.856500e+02
2.040000e-06	2.142484e-06	2.864616e-09	1.483074e+01	1.842694e+02
2.050000e-06	2.106269e-06	2.786533e-09	1.458005e+01	1.828169e+02
2.060000e-06	2.069146e-06	2.717146e-09	1.432307e+01	1.813027e+02
2.070000e-06	2.030912e-06	2.778340e-09	1.405841e+01	1.797481e+02
2.080000e-06	1.991862e-06	2.736705e-09	1.378810e+01	1.781763e+02
2.090000e-06	1.952281e-06	2.694672e-09	1.351411e+01	1.766030e+02
2.100000e-06	1.912082e-06	2.669802e-09	1.323585e+01	1.750300e+02
2.110000e-06	1.871215e-06	2.624957e-09	1.295295e+01	1.734450e+02
2.120000e-06	1.829769e-06	2.635514e-09	1.266605e+01	1.718273e+02
2.130000e-06	1.787807e-06	2.613007e-09	1.237558e+01	1.701556e+02
2.140000e-06	1.745261e-06	2.568192e-09	1.208107e+01	1.684172e+02
2.150000e-06	1.702165e-06	2.549041e-09	1.178276e+01	1.666124e+02
2.160000e-06	1.658629e-06	2.511901e-09	1.148139e+01	1.647530e+02
2.170000e-06	1.614524e-06	2.495006e-09	1.117609e+01	1.628568e+02
2.180000e-06	1.569662e-06	2.460885e-09	1.086554e+01	1.609391e+02
2.190000e-06	1.524161e-06	2.416687e-09	1.055057e+01	1.590056e+02
2.200000e-06	1.478241e-06	2.404264e-09	1.023270e+01	1.570493e+02
2.210000e-06	1.431953e-06	2.382161e-09	9.912285e+00	1.550530e+02
2.220000e-06	1.385144e-06	2.357532e-09	9.588267e+00	1.529959e+02
2.230000e-06	1.337702e-06	2.305952e-09	9.259863e+00	1.508618e+02
2.240000e-06	1.289664e-06	2.262952e-09	8.927331e+00	1.486460e+02
2.250000e-06	1.241081e-06	2.248659e-09	8.591028e+00	1.463567e+02
2.260000e-06	1.192086e-06	2.210389e-09	8.251873e+00	1.440123e+02
2.270000e-06	1.142710e-06	2.167465e-09	7.910088e+00	1.416336e+02
2.280000e-06	1.092929e-06	2.129524e-09	7.565488e+00	1.392361e+02
2.290000e-06	1.042732e-06	2.095254e-09	7.218014e+00	1.368236e+02
2.300000e-06	9.920867e-07	2.071007e-09	6.867438e+00	1.343873e+02
2.310000e-06	9.410644e-07	2.029760e-09	6.514251e+00	1.319084e+02
2.320000e-06	8.897545e-07	1.980409e-09	6.159073e+00	1.293663e+02
2.330000e-06	8.382039e-07	1.944315e-09	5.802228e+00	1.267457e+02
2.340000e-06	7.863760e-07	1.907313e-09	5.443464e+00	1.240425e+02
2.350000e-06	7.341568e-07	1.867754e-09	5.081992e+00	1.212648e+02
2.360000e-06	6.815214e-07	1.815612e-09	4.717638e+00	1.184288e+02
2.370000e-06	6.284437e-07	1.769727e-09	4.350223e+00	1.155526e+02
2.380000e-06	5.749408e-07	1.736308e-09	3.979864e+00	1.126476e+02
2.390000e-06	5.210390e-07	1.695379e-09	3.606745e+00	1.097142e+02
2.400000e-06	4.667968e-07	1.648955e-09	3.231268e+00	1.067403e+02
2.410000e-06	4.123126e-07	1.598225e-09	2.854116e+00	1.037049e+02
2.420000e-06	3.576647e-07	1.554359e-09	2.475832e+00	1.005847e+02
2.430000e-06	3.028536e-07	1.509753e-09	2.096418e+00	9.736172e+01
2.440000e-06	2.479087e-07	1.454391e-09	1.716077e+00	9.402849e+01
2.450000e-06	1.929403e-07	1.397172e-09	1.335575e+00	9.058969e+01
2.460000e-06	1.379464e-07	1.344617e-09	9.548947e-01	8.705977e+01
2.470000e-06	8.292109e-08	1.295613e-09	5.739976e-01	8.345738e+01
2.480000e-06	2.787673e-08	1.242176e-09	1.929687e-01	7.979880e+01
2.490000e-06	-2.715244e-08	1.181677e-09	-1.879551e-01	7.609263e+01
2.500000e-06	-8.213614e-08	1.123100e-09	-5.685641e-01	7.233737e+01
2.510000e-06	-1.371219e-07	1.067016e-09	-9.491871e-01	6.852242e+01
2.520000e-06	-1.921438e-07	1.005744e-09	-1.330061e+00	6.463182e+01
2.530000e-06	-2.471178e-07	9.408488e-10	-1.710603e+00	6.064918e+01
2.540000e-06	-3.019995e-07	8.760248e-10	-2.090505e+00	5.656214e+01
2.550000e-06	-3.567397e-07	8.182343e-10	-2.469429e+00	5.236469e+01
2.560000e-06	-4.113070e-07	7.593316e-10	-2.847155e+00	4.805695e+01
2.570000e-06	-4.656963e-07	6.897237e-10	-3.223650e+00	4.364259e+01
2.580000e-06	-5.198235e-07	6.157448e-10	-3.598330e+00	3.912489e+01
2.590000e-06	-5.735984e-07	5.430718e-10	-3.970572e+00	3.450291e+01
2.600000e-06	-6.269672e-07	4.717254e-10	-4.340002e+00	2.976892e+01
2.610000e-06	-6.799661e-07	3.968757e-10	-4.706872e+00	2.490799e+01
2.620000e-06	-7.325319e-07	3.201929e-10	-5.070744e+00	1.989974e+01
2.630000e-06	-7.846462e-07	2.438640e-10	-5.431490e+00	1.472181e+01
2.640000e-06	-8.363747e-07	1.672405e-10	-5.789566e+00	9.353924e+00
2.650000e-06	-8.877967e-07	8.525321e-11	-6.145520e+00	3.781620e+00
2.660000e-06	-9.389832e-07	-5.436338e-12	-6.499844e+00	-2.001640e+00
2.670000e-06	-9.898814e-07	-1.014149e-10	-6.852172e+00	-7.994275e+00
2.680000e-06	-1.040412e-06	-1.972736e-10	-7.201960e+00	-1.418836e+01
2.690000e-06	-1.090565e-06	-2.918570e-10	-7.549127e+00	-2.057262e+01
2.700000e-06	-1.140295e-06	-3.908001e-10	-7.893367e+00	-2.713555e+01
2.710000e-06	-1.189600e-06	-4.945873e-10	-8.234665e+00	-3.386735e+01
2.720000e-06	-1.238546e-06	-5.987658e-10	-8.573480e+00	-4.075972e+01
2.730000e-06	-1.286921e-06	-7.015214e-10	-8.908342e+00	-4.780317e+01
2.740000e-06	-1.334476e-06	-8.095825e-10	-9.237532e+00	-5.498254e+01
2.750000e-06	-1.381255e-06	-9.253042e-10	-9.561346e+00	-6.227189e+01
2.760000e-06	-1.427503e-06	-1.040832e-09	-9.881483e+00	-6.963083e+01
2.770000e-06	-1.473338e-06	-1.152203e-09	-1.019876e+01	-7.700383e+01
2.780000e-06	-1.518779e-06	-1.262739e-09	-1.051331e+01	-8.432351e+01
2.790000e-06	-1.563792e-06	-1.375193e-09	-1.082490e+01	-9.151771e+01
2.800000e-06	-1.608236e-06	-1.484839e-09	-1.113256e+01	-9.851865e+01
2.810000e-06	-1.652088e-06	-1.586588e-09	-1.143611e+01	-1.052720e+02
2.820000e-06	-1.695513e-06	-1.681860e-09	-1.173671e+01	-1.117428e+02
2.830000e-06	-1.738601e-06	-1.776489e-09	-1.203497e+01	-1.179172e+02
2.840000e-06	-1.781162e-06	-1.870000e-09	-1.232959e+01	-1.237987e+02
2.850000e-06	-1.823073e-06	-1.957123e-09	-1.261970e+01	-1.294007e+02
2.860000e-06	-1.864402e-06	-2.037338e-09	-1.290579e+01	-1.347378e+02
2.870000e-06	-1.905145e-06	-2.115324e-09	-1.318783e+01	-1.398187e+02
2.880000e-06	-1.945203e-06	-2.192063e-09	-1.346511e+01	-1.446430e+02
2.890000e-06	-1.984643e-06	-2.263033e-09	-1.373813e+01	-1.492031e+02
2.900000e-06	-2.023543e-06	-2.328017e-09	-1.400740e+01	-1.534897e+02
2.910000e-06	-2.061653e-06	-2.390116e-09	-1.427121e+01	-1.574985e+02
2.920000e-06	-2.098717e-06	-2.451427e-09	-1.452777e+01	-1.612360e+02
2.930000e-06	-2.134798e-06	-2.508021e-09	-1.477753e+01	-1.647205e+02
2.940000e-06	-2.170154e-06	-2.558887e-09	-1.502227e+01	-1.679790e+02
