# Temperatura_=_23.14
# Concentracion g/m^3_=_13400.0
# C_Vs_to_Am_M_A/Vsm_=_65563218390.804596
# pendiente_HvsI_1/m_=_3716.3
# ordenada_HvsI_A/m_=_1297.0
# frecuencia_Hz_=_300990.6887885361

Tiempo_(s)	Campo_(V.s)	Magnetizacion_(V.s)	Campo_(kA/m)	Magnetizacion_(A/m)
0.000000e+00	-2.858590e-06	-3.229422e-09	-1.978285e+01	-2.118776e+02
1.000000e-08	-2.857709e-06	-3.231900e-09	-1.977676e+01	-2.117360e+02
2.000000e-08	-2.855848e-06	-3.231367e-09	-1.976387e+01	-2.115642e+02
3.000000e-08	-2.852640e-06	-3.229553e-09	-1.974167e+01	-2.113899e+02
4.000000e-08	-2.848384e-06	-3.226784e-09	-1.971222e+01	-2.112253e+02
5.000000e-08	-2.843409e-06	-3.220321e-09	-1.967779e+01	-2.110604e+02
6.000000e-08	-2.837605e-06	-3.207564e-09	-1.963762e+01	-2.108656e+02
7.000000e-08	-2.830827e-06	-3.197934e-09	-1.959072e+01	-2.106021e+02
8.000000e-08	-2.823010e-06	-3.237732e-09	-1.953662e+01	-2.102378e+02
9.000000e-08	-2.813962e-06	-3.278470e-09	-1.947400e+01	-2.097623e+02
1.000000e-07	-2.803440e-06	-3.221501e-09	-1.940118e+01	-2.091939e+02
1.100000e-07	-2.791654e-06	-3.074096e-09	-1.931962e+01	-2.085768e+02
1.200000e-07	-2.779151e-06	-3.113310e-09	-1.923309e+01	-2.079676e+02
1.300000e-07	-2.765847e-06	-3.263246e-09	-1.914102e+01	-2.074166e+02
1.400000e-07	-2.751430e-06	-3.176541e-09	-1.904125e+01	-2.069495e+02
1.500000e-07	-2.736056e-06	-3.070644e-09	-1.893486e+01	-2.065577e+02
1.600000e-07	-2.719543e-06	-3.218599e-09	-1.882058e+01	-2.061990e+02
1.700000e-07	-2.701699e-06	-3.240701e-09	-1.869709e+01	-2.058109e+02
1.800000e-07	-2.683008e-06	-3.048863e-09	-1.856774e+01	-2.053304e+02
1.900000e-07	-2.663696e-06	-3.135779e-09	-1.843409e+01	-2.047141e+02
2.000000e-07	-2.643485e-06	-3.210984e-09	-1.829422e+01	-2.039509e+02
2.100000e-07	-2.622308e-06	-3.015076e-09	-1.814767e+01	-2.030646e+02
2.200000e-07	-2.600356e-06	-3.054164e-09	-1.799574e+01	-2.021037e+02
2.300000e-07	-2.577498e-06	-3.229971e-09	-1.783756e+01	-2.011241e+02
2.400000e-07	-2.553684e-06	-3.096989e-09	-1.767275e+01	-2.001700e+02
2.500000e-07	-2.529198e-06	-2.986130e-09	-1.750330e+01	-1.992605e+02
2.600000e-07	-2.503921e-06	-3.044323e-09	-1.732837e+01	-1.983854e+02
2.700000e-07	-2.477443e-06	-3.042950e-09	-1.714512e+01	-1.975121e+02
2.800000e-07	-2.449747e-06	-3.024028e-09	-1.695346e+01	-1.965996e+02
2.900000e-07	-2.421134e-06	-2.996422e-09	-1.675544e+01	-1.956142e+02
3.000000e-07	-2.391734e-06	-2.954004e-09	-1.655198e+01	-1.945414e+02
3.100000e-07	-2.361609e-06	-2.988586e-09	-1.634350e+01	-1.933895e+02
3.200000e-07	-2.330743e-06	-2.986844e-09	-1.612989e+01	-1.921843e+02
3.300000e-07	-2.299074e-06	-2.896680e-09	-1.591072e+01	-1.909579e+02
3.400000e-07	-2.266740e-06	-2.897527e-09	-1.568695e+01	-1.897354e+02
3.500000e-07	-2.233822e-06	-2.881447e-09	-1.545915e+01	-1.885256e+02
3.600000e-07	-2.200035e-06	-2.858497e-09	-1.522533e+01	-1.873183e+02
3.700000e-07	-2.165024e-06	-2.901406e-09	-1.498303e+01	-1.860895e+02
3.800000e-07	-2.128982e-06	-2.843806e-09	-1.473361e+01	-1.848107e+02
3.900000e-07	-2.092385e-06	-2.770758e-09	-1.448034e+01	-1.834603e+02
4.000000e-07	-2.055226e-06	-2.811893e-09	-1.422318e+01	-1.820313e+02
4.100000e-07	-2.017289e-06	-2.799500e-09	-1.396063e+01	-1.805330e+02
4.200000e-07	-1.978604e-06	-2.711086e-09	-1.369292e+01	-1.789865e+02
4.300000e-07	-1.939163e-06	-2.700430e-09	-1.341997e+01	-1.774161e+02
4.400000e-07	-1.899054e-06	-2.708798e-09	-1.314239e+01	-1.758400e+02
4.500000e-07	-1.858582e-06	-2.690573e-09	-1.286230e+01	-1.742639e+02
4.600000e-07	-1.817744e-06	-2.655377e-09	-1.257968e+01	-1.726790e+02
4.700000e-07	-1.776108e-06	-2.607792e-09	-1.229154e+01	-1.710665e+02
4.800000e-07	-1.733303e-06	-2.573480e-09	-1.199531e+01	-1.694039e+02
4.900000e-07	-1.689510e-06	-2.565456e-09	-1.169224e+01	-1.676734e+02
5.000000e-07	-1.645201e-06	-2.548544e-09	-1.138560e+01	-1.658667e+02
5.100000e-07	-1.600534e-06	-2.504793e-09	-1.107648e+01	-1.639871e+02
5.200000e-07	-1.555410e-06	-2.476219e-09	-1.076420e+01	-1.620464e+02
5.300000e-07	-1.509690e-06	-2.456625e-09	-1.044780e+01	-1.600601e+02
5.400000e-07	-1.463425e-06	-2.431920e-09	-1.012762e+01	-1.580418e+02
5.500000e-07	-1.416682e-06	-2.385279e-09	-9.804139e+00	-1.559986e+02
5.600000e-07	-1.369400e-06	-2.334954e-09	-9.476919e+00	-1.539303e+02
5.700000e-07	-1.321615e-06	-2.309749e-09	-9.146230e+00	-1.518306e+02
5.800000e-07	-1.273436e-06	-2.301445e-09	-8.812805e+00	-1.496905e+02
5.900000e-07	-1.224965e-06	-2.268651e-09	-8.477363e+00	-1.475017e+02
6.000000e-07	-1.176130e-06	-2.214605e-09	-8.139399e+00	-1.452592e+02
6.100000e-07	-1.126714e-06	-2.177978e-09	-7.797418e+00	-1.429619e+02
6.200000e-07	-1.076525e-06	-2.150857e-09	-7.450082e+00	-1.406119e+02
6.300000e-07	-1.025665e-06	-2.117552e-09	-7.098109e+00	-1.382126e+02
6.400000e-07	-9.742845e-07	-2.066119e-09	-6.742529e+00	-1.357663e+02
6.500000e-07	-9.224351e-07	-2.019727e-09	-6.383706e+00	-1.332733e+02
6.600000e-07	-8.702329e-07	-1.991364e-09	-6.022441e+00	-1.307315e+02
6.700000e-07	-8.177590e-07	-1.963257e-09	-5.659295e+00	-1.281368e+02
6.800000e-07	-7.650604e-07	-1.917189e-09	-5.294595e+00	-1.254846e+02
6.900000e-07	-7.120697e-07	-1.863504e-09	-4.927873e+00	-1.227705e+02
7.000000e-07	-6.587636e-07	-1.823230e-09	-4.558969e+00	-1.199911e+02
7.100000e-07	-6.051981e-07	-1.790056e-09	-4.188269e+00	-1.171449e+02
7.200000e-07	-5.514107e-07	-1.748326e-09	-3.816034e+00	-1.142318e+02
7.300000e-07	-4.974245e-07	-1.691755e-09	-3.442422e+00	-1.112534e+02
7.400000e-07	-4.432202e-07	-1.638596e-09	-3.067302e+00	-1.082118e+02
7.500000e-07	-3.888936e-07	-1.594527e-09	-2.691335e+00	-1.051093e+02
7.600000e-07	-3.345074e-07	-1.549315e-09	-2.314956e+00	-1.019471e+02
7.700000e-07	-2.800848e-07	-1.493238e-09	-1.938325e+00	-9.872453e+01
7.800000e-07	-2.256241e-07	-1.438176e-09	-1.561430e+00	-9.543795e+01
7.900000e-07	-1.710722e-07	-1.392574e-09	-1.183904e+00	-9.208130e+01
8.000000e-07	-1.164601e-07	-1.344347e-09	-8.059610e-01	-8.864700e+01
8.100000e-07	-6.182595e-08	-1.288284e-09	-4.278661e-01	-8.512790e+01
8.200000e-07	-7.188930e-09	-1.226499e-09	-4.975094e-02	-8.151950e+01
8.300000e-07	4.745147e-08	-1.169726e-09	3.283875e-01	-7.782149e+01
8.400000e-07	1.020722e-07	-1.114843e-09	7.063898e-01	-7.403790e+01
8.500000e-07	1.566626e-07	-1.055914e-09	1.084182e+00	-7.017534e+01
8.600000e-07	2.112205e-07	-9.920047e-10	1.461750e+00	-6.623980e+01
8.700000e-07	2.657460e-07	-9.307964e-10	1.839093e+00	-6.223281e+01
8.800000e-07	3.202029e-07	-8.746927e-10	2.215962e+00	-5.814852e+01
8.900000e-07	3.745428e-07	-8.139652e-10	2.592020e+00	-5.397308e+01
9.000000e-07	4.287613e-07	-7.460354e-10	2.967239e+00	-4.968659e+01
9.100000e-07	4.828557e-07	-6.753910e-10	3.341599e+00	-4.526755e+01
9.200000e-07	5.368078e-07	-6.068765e-10	3.714974e+00	-4.069798e+01
9.300000e-07	5.905547e-07	-5.351116e-10	4.086929e+00	-3.596760e+01
9.400000e-07	6.440513e-07	-4.595501e-10	4.457152e+00	-3.107496e+01
9.500000e-07	6.972533e-07	-3.805949e-10	4.825336e+00	-2.602522e+01
9.600000e-07	7.501407e-07	-3.021315e-10	5.191343e+00	-2.082483e+01
9.700000e-07	8.027228e-07	-2.257338e-10	5.555237e+00	-1.547531e+01
9.800000e-07	8.550652e-07	-1.440024e-10	5.917473e+00	-9.968331e+00
9.900000e-07	9.071838e-07	-5.506216e-11	6.278159e+00	-4.284440e+00
1.000000e-06	9.589348e-07	3.755787e-11	6.636301e+00	1.603879e+00
1.010000e-06	1.010179e-06	1.303048e-10	6.990937e+00	7.725467e+00
1.020000e-06	1.060788e-06	2.269045e-10	7.341172e+00	1.410228e+01
1.030000e-06	1.110733e-06	3.289803e-10	7.686820e+00	2.074250e+01
1.040000e-06	1.160057e-06	4.361661e-10	8.028164e+00	2.763717e+01
1.050000e-06	1.208879e-06	5.456559e-10	8.366041e+00	3.476145e+01
1.060000e-06	1.257399e-06	6.556973e-10	8.701823e+00	4.207944e+01
1.070000e-06	1.305616e-06	7.679154e-10	9.035503e+00	4.955043e+01
1.080000e-06	1.353458e-06	8.829419e-10	9.366593e+00	5.713377e+01
1.090000e-06	1.400895e-06	9.986545e-10	9.694885e+00	6.479041e+01
1.100000e-06	1.447789e-06	1.115250e-09	1.001941e+01	7.248064e+01
1.110000e-06	1.494132e-06	1.235454e-09	1.034013e+01	8.015948e+01
1.120000e-06	1.539948e-06	1.354114e-09	1.065720e+01	8.777250e+01
1.130000e-06	1.585203e-06	1.467208e-09	1.097038e+01	9.525488e+01
1.140000e-06	1.629997e-06	1.573832e-09	1.128038e+01	1.025354e+02
1.150000e-06	1.674479e-06	1.676952e-09	1.158822e+01	1.095451e+02
1.160000e-06	1.718581e-06	1.776765e-09	1.189343e+01	1.162285e+02
1.170000e-06	1.761955e-06	1.872164e-09	1.219359e+01	1.225526e+02
1.180000e-06	1.804397e-06	1.963028e-09	1.248731e+01	1.285119e+02
1.190000e-06	1.845913e-06	2.049618e-09	1.277463e+01	1.341252e+02
1.200000e-06	1.886694e-06	2.132727e-09	1.305685e+01	1.394270e+02
1.210000e-06	1.926936e-06	2.208764e-09	1.333535e+01	1.444545e+02
1.220000e-06	1.966594e-06	2.277461e-09	1.360980e+01	1.492351e+02
1.230000e-06	2.005627e-06	2.341711e-09	1.387993e+01	1.537794e+02
1.240000e-06	2.044026e-06	2.403992e-09	1.414566e+01	1.580808e+02
1.250000e-06	2.081657e-06	2.464680e-09	1.440609e+01	1.621225e+02
1.260000e-06	2.118558e-06	2.522857e-09	1.466147e+01	1.658881e+02
1.270000e-06	2.154937e-06	2.576216e-09	1.491323e+01	1.693720e+02
1.280000e-06	2.190699e-06	2.623971e-09	1.516071e+01	1.725858e+02
1.290000e-06	2.225485e-06	2.668274e-09	1.540145e+01	1.755573e+02
1.300000e-06	2.259150e-06	2.708195e-09	1.563443e+01	1.783234e+02
1.310000e-06	2.291964e-06	2.742788e-09	1.586152e+01	1.809200e+02
1.320000e-06	2.324126e-06	2.774181e-09	1.608410e+01	1.833724e+02
1.330000e-06	2.355491e-06	2.806302e-09	1.630116e+01	1.856903e+02
1.340000e-06	2.386058e-06	2.839330e-09	1.651269e+01	1.878698e+02
1.350000e-06	2.415858e-06	2.871565e-09	1.671893e+01	1.899006e+02
1.360000e-06	2.444877e-06	2.901325e-09	1.691976e+01	1.917757e+02
1.370000e-06	2.473242e-06	2.927397e-09	1.711605e+01	1.934997e+02
1.380000e-06	2.500815e-06	2.950467e-09	1.730687e+01	1.950910e+02
1.390000e-06	2.527220e-06	2.970200e-09	1.748961e+01	1.965786e+02
1.400000e-06	2.552395e-06	2.988810e-09	1.766383e+01	1.979930e+02
1.410000e-06	2.576637e-06	3.008743e-09	1.783160e+01	1.993561e+02
1.420000e-06	2.600066e-06	3.029543e-09	1.799374e+01	2.006747e+02
1.430000e-06	2.622654e-06	3.049332e-09	1.815006e+01	2.019384e+02
1.440000e-06	2.644341e-06	3.069313e-09	1.830014e+01	2.031260e+02
1.450000e-06	2.665212e-06	3.088304e-09	1.844458e+01	2.042149e+02
1.460000e-06	2.685390e-06	3.103264e-09	1.858422e+01	2.051918e+02
1.470000e-06	2.704672e-06	3.115161e-09	1.871767e+01	2.060595e+02
1.480000e-06	2.722918e-06	3.125593e-09	1.884394e+01	2.068367e+02
1.490000e-06	2.740181e-06	3.135386e-09	1.896340e+01	2.075517e+02
1.500000e-06	2.756394e-06	3.146022e-09	1.907560e+01	2.082315e+02
1.510000e-06	2.771475e-06	3.158104e-09	1.917997e+01	2.088918e+02
1.520000e-06	2.785523e-06	3.170047e-09	1.927719e+01	2.095312e+02
1.530000e-06	2.798596e-06	3.180819e-09	1.936766e+01	2.101328e+02
1.540000e-06	2.810610e-06	3.190402e-09	1.945081e+01	2.106720e+02
1.550000e-06	2.821366e-06	3.197472e-09	1.952524e+01	2.111278e+02
1.560000e-06	2.830835e-06	3.202097e-09	1.959077e+01	2.114923e+02
1.570000e-06	2.839316e-06	3.206320e-09	1.964946e+01	2.117751e+02
1.580000e-06	2.846911e-06	3.210947e-09	1.970202e+01	2.120004e+02
1.590000e-06	2.853513e-06	3.217201e-09	1.974772e+01	2.121976e+02
1.600000e-06	2.859136e-06	3.224548e-09	1.978663e+01	2.123893e+02
1.610000e-06	2.863910e-06	3.228786e-09	1.981967e+01	2.125828e+02
1.620000e-06	2.867828e-06	3.230010e-09	1.984678e+01	2.127667e+02
1.630000e-06	2.870534e-06	3.231981e-09	1.986551e+01	2.129162e+02
1.640000e-06	2.871943e-06	3.234476e-09	1.987526e+01	2.130035e+02
1.650000e-06	2.872411e-06	3.236301e-09	1.987850e+01	2.130104e+02
1.660000e-06	2.872024e-06	3.234800e-09	1.987582e+01	2.129363e+02
1.670000e-06	2.870719e-06	3.228879e-09	1.986679e+01	2.127992e+02
1.680000e-06	2.868538e-06	3.225362e-09	1.985170e+01	2.126287e+02
1.690000e-06	2.865544e-06	3.225659e-09	1.983098e+01	2.124531e+02
1.700000e-06	2.861769e-06	3.225443e-09	1.980485e+01	2.122870e+02
1.710000e-06	2.856997e-06	3.223951e-09	1.977183e+01	2.121228e+02
1.720000e-06	2.851026e-06	3.230925e-09	1.973051e+01	2.119325e+02
1.730000e-06	2.844061e-06	3.226111e-09	1.968230e+01	2.116776e+02
1.740000e-06	2.836256e-06	3.152368e-09	1.962829e+01	2.113245e+02
1.750000e-06	2.827160e-06	3.113469e-09	1.956534e+01	2.108601e+02
1.760000e-06	2.816385e-06	3.221507e-09	1.949077e+01	2.102993e+02
1.770000e-06	2.804602e-06	3.299513e-09	1.940923e+01	2.096842e+02
1.780000e-06	2.792739e-06	3.187176e-09	1.932713e+01	2.090710e+02
1.790000e-06	2.780247e-06	3.071122e-09	1.924068e+01	2.085114e+02
1.800000e-06	2.765965e-06	3.200139e-09	1.914184e+01	2.080347e+02
1.810000e-06	2.750337e-06	3.176985e-09	1.903369e+01	2.076357e+02
1.820000e-06	2.734282e-06	3.020270e-09	1.892258e+01	2.072757e+02
1.830000e-06	2.717218e-06	3.162876e-09	1.880449e+01	2.068934e+02
1.840000e-06	2.698732e-06	3.263885e-09	1.867655e+01	2.064249e+02
1.850000e-06	2.679525e-06	3.053144e-09	1.854363e+01	2.058237e+02
1.860000e-06	2.659708e-06	3.060050e-09	1.840649e+01	2.050752e+02
1.870000e-06	2.638662e-06	3.247508e-09	1.826084e+01	2.041995e+02
1.880000e-06	2.616425e-06	3.042446e-09	1.810695e+01	2.032434e+02
1.890000e-06	2.593289e-06	2.909923e-09	1.794684e+01	2.022628e+02
1.900000e-06	2.569105e-06	3.122511e-09	1.777947e+01	2.013040e+02
1.910000e-06	2.544166e-06	3.110711e-09	1.760688e+01	2.003891e+02
1.920000e-06	2.518548e-06	2.983372e-09	1.742960e+01	1.995111e+02
1.930000e-06	2.491951e-06	3.019972e-09	1.724553e+01	1.986391e+02
1.940000e-06	2.464681e-06	2.989706e-09	1.705681e+01	1.977321e+02
1.950000e-06	2.436691e-06	3.005924e-09	1.686310e+01	1.967551e+02
1.960000e-06	2.407333e-06	3.001930e-09	1.665993e+01	1.956911e+02
1.970000e-06	2.376777e-06	2.887260e-09	1.644847e+01	1.945461e+02
1.980000e-06	2.345518e-06	2.935132e-09	1.623214e+01	1.933445e+02
1.990000e-06	2.313601e-06	2.980075e-09	1.601126e+01	1.921185e+02
2.000000e-06	2.281013e-06	2.885166e-09	1.578573e+01	1.908942e+02
2.010000e-06	2.247570e-06	2.903775e-09	1.555429e+01	1.896827e+02
2.020000e-06	2.213265e-06	2.871983e-09	1.531688e+01	1.884757e+02
2.030000e-06	2.178369e-06	2.790250e-09	1.507538e+01	1.872500e+02
2.040000e-06	2.142848e-06	2.866834e-09	1.482957e+01	1.859772e+02
2.050000e-06	2.106618e-06	2.830106e-09	1.457883e+01	1.846346e+02
2.060000e-06	2.069490e-06	2.740942e-09	1.432189e+01	1.832133e+02
2.070000e-06	2.031241e-06	2.784449e-09	1.405719e+01	1.817210e+02
2.080000e-06	1.992154e-06	2.766859e-09	1.378669e+01	1.801780e+02
2.090000e-06	1.952513e-06	2.716390e-09	1.351235e+01	1.786086e+02
2.100000e-06	1.912247e-06	2.691227e-09	1.323369e+01	1.770321e+02
2.110000e-06	1.871341e-06	2.649220e-09	1.295060e+01	1.754556e+02
2.120000e-06	1.829854e-06	2.656729e-09	1.266349e+01	1.738719e+02
2.130000e-06	1.787814e-06	2.649811e-09	1.237256e+01	1.722629e+02
2.140000e-06	1.745176e-06	2.605000e-09	1.207748e+01	1.706061e+02
2.150000e-06	1.702018e-06	2.579395e-09	1.177880e+01	1.688829e+02
2.160000e-06	1.658540e-06	2.543869e-09	1.147791e+01	1.670839e+02
2.170000e-06	1.614491e-06	2.526185e-09	1.117307e+01	1.652111e+02
2.180000e-06	1.569623e-06	2.500168e-09	1.086256e+01	1.632757e+02
2.190000e-06	1.524073e-06	2.459694e-09	1.054734e+01	1.612931e+02
2.200000e-06	1.478045e-06	2.436530e-09	1.022880e+01	1.592772e+02
2.210000e-06	1.431675e-06	2.409882e-09	9.907893e+00	1.572360e+02
2.220000e-06	1.384838e-06	2.387999e-09	9.583762e+00	1.551701e+02
2.230000e-06	1.337480e-06	2.343747e-09	9.256020e+00	1.530737e+02
2.240000e-06	1.289522e-06	2.294482e-09	8.924125e+00	1.509378e+02
2.250000e-06	1.240903e-06	2.279482e-09	8.587662e+00	1.487540e+02
2.260000e-06	1.191862e-06	2.254718e-09	8.248274e+00	1.465168e+02
2.270000e-06	1.142505e-06	2.211777e-09	7.906700e+00	1.442248e+02
2.280000e-06	1.092749e-06	2.170100e-09	7.562362e+00	1.418798e+02
2.290000e-06	1.042558e-06	2.131748e-09	7.215013e+00	1.394851e+02
2.300000e-06	9.919003e-07	2.109397e-09	6.864439e+00	1.370432e+02
2.310000e-06	9.408831e-07	2.073037e-09	6.511374e+00	1.345547e+02
2.320000e-06	8.896306e-07	2.024478e-09	6.156682e+00	1.320178e+02
2.330000e-06	8.381259e-07	1.988761e-09	5.800244e+00	1.294285e+02
2.340000e-06	7.863233e-07	1.952534e-09	5.441744e+00	1.267822e+02
2.350000e-06	7.340918e-07	1.915237e-09	5.080277e+00	1.240743e+02
2.360000e-06	6.814052e-07	1.865458e-09	4.715660e+00	1.213015e+02
2.370000e-06	6.282767e-07	1.814545e-09	4.347984e+00	1.184619e+02
2.380000e-06	5.747616e-07	1.777569e-09	3.977633e+00	1.155554e+02
2.390000e-06	5.209243e-07	1.740208e-09	3.605052e+00	1.125834e+02
2.400000e-06	4.667790e-07	1.696588e-09	3.230341e+00	1.095479e+02
2.410000e-06	4.124097e-07	1.645918e-09	2.854078e+00	1.064513e+02
2.420000e-06	3.578015e-07	1.597289e-09	2.476162e+00	1.032950e+02
2.430000e-06	3.029897e-07	1.552848e-09	2.096838e+00	1.000785e+02
2.440000e-06	2.480773e-07	1.501981e-09	1.716817e+00	9.679848e+01
2.450000e-06	1.930801e-07	1.445076e-09	1.336209e+00	9.344916e+01
2.460000e-06	1.380660e-07	1.391276e-09	9.554850e-01	9.002301e+01
2.470000e-06	8.304851e-08	1.343820e-09	5.747366e-01	8.651274e+01
2.480000e-06	2.800152e-08	1.297579e-09	1.937843e-01	8.291348e+01
2.490000e-06	-2.707142e-08	1.241217e-09	-1.873476e-01	7.922442e+01
2.500000e-06	-8.213184e-08	1.179469e-09	-5.683928e-01	7.544917e+01
2.510000e-06	-1.371268e-07	1.120337e-09	-9.489848e-01	7.159421e+01
2.520000e-06	-1.920821e-07	1.059868e-09	-1.329303e+00	6.766578e+01
2.530000e-06	-2.470278e-07	9.968408e-10	-1.709554e+00	6.366604e+01
2.540000e-06	-3.018947e-07	9.331424e-10	-2.089260e+00	5.959004e+01
2.550000e-06	-3.565997e-07	8.752658e-10	-2.467846e+00	5.542471e+01
2.560000e-06	-4.111515e-07	8.163613e-10	-2.845371e+00	5.115063e+01
2.570000e-06	-4.655458e-07	7.476934e-10	-3.221806e+00	4.674622e+01
2.580000e-06	-5.196852e-07	6.731997e-10	-3.596478e+00	4.219291e+01
2.590000e-06	-5.734735e-07	5.986021e-10	-3.968719e+00	3.747944e+01
2.600000e-06	-6.268279e-07	5.241029e-10	-4.337958e+00	3.260349e+01
2.610000e-06	-6.797814e-07	4.478414e-10	-4.704422e+00	2.756971e+01
2.620000e-06	-7.323322e-07	3.695944e-10	-5.068099e+00	2.238473e+01
2.630000e-06	-7.844719e-07	2.894796e-10	-5.428932e+00	1.705085e+01
2.640000e-06	-8.362780e-07	2.088056e-10	-5.787456e+00	1.156095e+01
2.650000e-06	-8.877740e-07	1.250854e-10	-6.143834e+00	5.896707e+00
2.660000e-06	-9.389744e-07	3.416647e-11	-6.498165e+00	3.118459e-02
2.670000e-06	-9.899128e-07	-6.284294e-11	-6.850684e+00	-6.064702e+00
2.680000e-06	-1.040542e-06	-1.598963e-10	-7.201062e+00	-1.241403e+01
2.690000e-06	-1.090732e-06	-2.574522e-10	-7.548406e+00	-1.902667e+01
2.700000e-06	-1.140494e-06	-3.612199e-10	-7.892781e+00	-2.589554e+01
2.710000e-06	-1.189863e-06	-4.700936e-10	-8.234441e+00	-3.299733e+01
2.720000e-06	-1.238779e-06	-5.798895e-10	-8.572959e+00	-4.029701e+01
2.730000e-06	-1.287082e-06	-6.910811e-10	-8.907245e+00	-4.775411e+01
2.740000e-06	-1.334641e-06	-8.063183e-10	-9.236372e+00	-5.532783e+01
2.750000e-06	-1.381426e-06	-9.258315e-10	-9.560145e+00	-6.297900e+01
2.760000e-06	-1.427588e-06	-1.045270e-09	-9.879615e+00	-7.066818e+01
2.770000e-06	-1.473399e-06	-1.161754e-09	-1.019665e+01	-7.835118e+01
2.780000e-06	-1.518896e-06	-1.278365e-09	-1.051151e+01	-8.597472e+01
2.790000e-06	-1.563965e-06	-1.395206e-09	-1.082341e+01	-9.347498e+01
2.800000e-06	-1.608453e-06	-1.507140e-09	-1.113128e+01	-1.007811e+02
2.810000e-06	-1.652349e-06	-1.611743e-09	-1.143507e+01	-1.078234e+02
2.820000e-06	-1.695831e-06	-1.711803e-09	-1.173599e+01	-1.145443e+02
2.830000e-06	-1.738947e-06	-1.810748e-09	-1.203437e+01	-1.209082e+02
2.840000e-06	-1.781537e-06	-1.906842e-09	-1.232912e+01	-1.269065e+02
2.850000e-06	-1.823491e-06	-1.995947e-09	-1.261946e+01	-1.325559e+02
2.860000e-06	-1.864859e-06	-2.078028e-09	-1.290574e+01	-1.378898e+02
2.870000e-06	-1.905600e-06	-2.156103e-09	-1.318769e+01	-1.429456e+02
2.880000e-06	-1.945619e-06	-2.230813e-09	-1.346464e+01	-1.477524e+02
2.890000e-06	-1.985062e-06	-2.300595e-09	-1.373761e+01	-1.523226e+02
2.900000e-06	-2.024053e-06	-2.365690e-09	-1.400745e+01	-1.566513e+02
2.910000e-06	-2.062257e-06	-2.428674e-09	-1.427183e+01	-1.607222e+02
2.920000e-06	-2.099352e-06	-2.491003e-09	-1.452855e+01	-1.645184e+02
2.930000e-06	-2.135474e-06	-2.549914e-09	-1.477853e+01	-1.680328e+02
2.940000e-06	-2.170924e-06	-2.603327e-09	-1.502387e+01	-1.712750e+02
