# Temperatura_=_17.18
# Concentracion g/m^3_=_13400.0
# C_Vs_to_Am_M_A/Vsm_=_65563218390.804596
# pendiente_HvsI_1/m_=_3716.3
# ordenada_HvsI_A/m_=_1297.0
# frecuencia_Hz_=_300999.90733296325

Tiempo_(s)	Campo_(V.s)	Magnetizacion_(V.s)	Campo_(kA/m)	Magnetizacion_(A/m)
0.000000e+00	-2.859074e-06	-3.156729e-09	-1.978193e+01	-2.068885e+02
1.000000e-08	-2.858267e-06	-3.160465e-09	-1.977635e+01	-2.067540e+02
2.000000e-08	-2.856564e-06	-3.163164e-09	-1.976456e+01	-2.066013e+02
3.000000e-08	-2.853572e-06	-3.163090e-09	-1.974387e+01	-2.064467e+02
4.000000e-08	-2.849501e-06	-3.161535e-09	-1.971570e+01	-2.062916e+02
5.000000e-08	-2.844662e-06	-3.155026e-09	-1.968222e+01	-2.061216e+02
6.000000e-08	-2.838996e-06	-3.140975e-09	-1.964302e+01	-2.059113e+02
7.000000e-08	-2.832396e-06	-3.116428e-09	-1.959735e+01	-2.056343e+02
8.000000e-08	-2.824804e-06	-3.146815e-09	-1.954482e+01	-2.052731e+02
9.000000e-08	-2.816134e-06	-3.224351e-09	-1.948483e+01	-2.048269e+02
1.000000e-07	-2.805964e-06	-3.232892e-09	-1.941446e+01	-2.043133e+02
1.100000e-07	-2.794340e-06	-3.028425e-09	-1.933404e+01	-2.037632e+02
1.200000e-07	-2.781976e-06	-2.975204e-09	-1.924850e+01	-2.032114e+02
1.300000e-07	-2.768845e-06	-3.180725e-09	-1.915764e+01	-2.026852e+02
1.400000e-07	-2.754604e-06	-3.213984e-09	-1.905911e+01	-2.021960e+02
1.500000e-07	-2.739444e-06	-2.968299e-09	-1.895421e+01	-2.017358e+02
1.600000e-07	-2.723234e-06	-3.073640e-09	-1.884205e+01	-2.012799e+02
1.700000e-07	-2.705577e-06	-3.273239e-09	-1.871989e+01	-2.007952e+02
1.800000e-07	-2.686935e-06	-2.985315e-09	-1.859091e+01	-2.002503e+02
1.900000e-07	-2.667763e-06	-2.961139e-09	-1.845826e+01	-1.996244e+02
2.000000e-07	-2.647757e-06	-3.154497e-09	-1.831983e+01	-1.989117e+02
2.100000e-07	-2.626761e-06	-2.969650e-09	-1.817456e+01	-1.981213e+02
2.200000e-07	-2.604965e-06	-2.893312e-09	-1.802375e+01	-1.972715e+02
2.300000e-07	-2.582320e-06	-3.156804e-09	-1.786707e+01	-1.963828e+02
2.400000e-07	-2.558670e-06	-3.074117e-09	-1.770344e+01	-1.954708e+02
2.500000e-07	-2.534284e-06	-2.881638e-09	-1.753471e+01	-1.945418e+02
2.600000e-07	-2.509147e-06	-2.943877e-09	-1.736079e+01	-1.935925e+02
2.700000e-07	-2.482879e-06	-2.969389e-09	-1.717904e+01	-1.926131e+02
2.800000e-07	-2.455443e-06	-2.905204e-09	-1.698921e+01	-1.915919e+02
2.900000e-07	-2.427060e-06	-2.915032e-09	-1.679283e+01	-1.905201e+02
3.000000e-07	-2.397819e-06	-2.874000e-09	-1.659051e+01	-1.893942e+02
3.100000e-07	-2.367780e-06	-2.894792e-09	-1.638267e+01	-1.882168e+02
3.200000e-07	-2.337080e-06	-2.939541e-09	-1.617026e+01	-1.869945e+02
3.300000e-07	-2.305586e-06	-2.796284e-09	-1.595235e+01	-1.857351e+02
3.400000e-07	-2.273355e-06	-2.784649e-09	-1.572935e+01	-1.844450e+02
3.500000e-07	-2.240587e-06	-2.808621e-09	-1.550262e+01	-1.831282e+02
3.600000e-07	-2.207113e-06	-2.754319e-09	-1.527101e+01	-1.817858e+02
3.700000e-07	-2.172526e-06	-2.781837e-09	-1.503171e+01	-1.804176e+02
3.800000e-07	-2.136787e-06	-2.778992e-09	-1.478443e+01	-1.790228e+02
3.900000e-07	-2.100334e-06	-2.678936e-09	-1.453221e+01	-1.776010e+02
4.000000e-07	-2.063302e-06	-2.704567e-09	-1.427599e+01	-1.761516e+02
4.100000e-07	-2.025509e-06	-2.725747e-09	-1.401449e+01	-1.746734e+02
4.200000e-07	-1.986945e-06	-2.618245e-09	-1.374767e+01	-1.731635e+02
4.300000e-07	-1.947634e-06	-2.588135e-09	-1.347568e+01	-1.716173e+02
4.400000e-07	-1.907659e-06	-2.609814e-09	-1.319909e+01	-1.700294e+02
4.500000e-07	-1.867238e-06	-2.600991e-09	-1.291942e+01	-1.683951e+02
4.600000e-07	-1.826439e-06	-2.557645e-09	-1.263713e+01	-1.667123e+02
4.700000e-07	-1.784956e-06	-2.520660e-09	-1.235011e+01	-1.649821e+02
4.800000e-07	-1.742452e-06	-2.481589e-09	-1.205602e+01	-1.632090e+02
4.900000e-07	-1.698988e-06	-2.469112e-09	-1.175530e+01	-1.613988e+02
5.000000e-07	-1.654840e-06	-2.452498e-09	-1.144984e+01	-1.595561e+02
5.100000e-07	-1.610209e-06	-2.403024e-09	-1.114104e+01	-1.576822e+02
5.200000e-07	-1.565175e-06	-2.366458e-09	-1.082945e+01	-1.557740e+02
5.300000e-07	-1.519637e-06	-2.353231e-09	-1.051437e+01	-1.538245e+02
5.400000e-07	-1.473507e-06	-2.337459e-09	-1.019519e+01	-1.518255e+02
5.500000e-07	-1.426843e-06	-2.283553e-09	-9.872324e+00	-1.497703e+02
5.600000e-07	-1.379666e-06	-2.237729e-09	-9.545913e+00	-1.476569e+02
5.700000e-07	-1.331911e-06	-2.212367e-09	-9.215493e+00	-1.454893e+02
5.800000e-07	-1.283693e-06	-2.203982e-09	-8.881871e+00	-1.432765e+02
5.900000e-07	-1.235184e-06	-2.165380e-09	-8.546240e+00	-1.410297e+02
6.000000e-07	-1.186282e-06	-2.107384e-09	-8.207887e+00	-1.387586e+02
6.100000e-07	-1.136875e-06	-2.070711e-09	-7.866035e+00	-1.364676e+02
6.200000e-07	-1.086862e-06	-2.044096e-09	-7.520001e+00	-1.341539e+02
6.300000e-07	-1.036145e-06	-2.014672e-09	-7.169089e+00	-1.318074e+02
6.400000e-07	-9.848252e-07	-1.965712e-09	-6.814006e+00	-1.294136e+02
6.500000e-07	-9.330600e-07	-1.922014e-09	-6.455842e+00	-1.269574e+02
6.600000e-07	-8.809265e-07	-1.892208e-09	-6.095131e+00	-1.244273e+02
6.700000e-07	-8.285132e-07	-1.867630e-09	-5.732483e+00	-1.218187e+02
6.800000e-07	-7.758721e-07	-1.818702e-09	-5.368260e+00	-1.191344e+02
6.900000e-07	-7.229441e-07	-1.761027e-09	-5.002051e+00	-1.163839e+02
7.000000e-07	-6.696538e-07	-1.721049e-09	-4.633335e+00	-1.135797e+02
7.100000e-07	-6.160823e-07	-1.689166e-09	-4.262674e+00	-1.107334e+02
7.200000e-07	-5.623098e-07	-1.645607e-09	-3.890622e+00	-1.078519e+02
7.300000e-07	-5.083650e-07	-1.588671e-09	-3.517378e+00	-1.049351e+02
7.400000e-07	-4.542566e-07	-1.543060e-09	-3.143002e+00	-1.019756e+02
7.500000e-07	-3.999992e-07	-1.503883e-09	-2.767595e+00	-9.896006e+01
7.600000e-07	-3.456533e-07	-1.460637e-09	-2.391576e+00	-9.587258e+01
7.700000e-07	-2.912386e-07	-1.401593e-09	-2.015080e+00	-9.269846e+01
7.800000e-07	-2.367414e-07	-1.345334e-09	-1.638014e+00	-8.942777e+01
7.900000e-07	-1.821547e-07	-1.301069e-09	-1.260329e+00	-8.605774e+01
8.000000e-07	-1.275307e-07	-1.253677e-09	-8.823848e-01	-8.259345e+01
8.100000e-07	-7.288372e-08	-1.195206e-09	-5.042825e-01	-7.904656e+01
8.200000e-07	-1.819908e-08	-1.132109e-09	-1.259194e-01	-7.543240e+01
8.300000e-07	3.647489e-08	-1.079847e-09	2.523698e-01	-7.176592e+01
8.400000e-07	9.112150e-08	-1.029388e-09	6.304697e-01	-6.805762e+01
8.500000e-07	1.457425e-07	-9.739247e-10	1.008392e+00	-6.431034e+01
8.600000e-07	2.003426e-07	-9.091920e-10	1.386171e+00	-6.051788e+01
8.700000e-07	2.548909e-07	-8.485723e-10	1.763590e+00	-5.666586e+01
8.800000e-07	3.093592e-07	-7.951067e-10	2.140456e+00	-5.273467e+01
8.900000e-07	3.637833e-07	-7.369283e-10	2.517017e+00	-4.870377e+01
9.000000e-07	4.181333e-07	-6.691508e-10	2.893065e+00	-4.455615e+01
9.100000e-07	4.723074e-07	-6.002113e-10	3.267895e+00	-4.028152e+01
9.200000e-07	5.262696e-07	-5.394174e-10	3.641259e+00	-3.587729e+01
9.300000e-07	5.800479e-07	-4.745901e-10	4.013351e+00	-3.134700e+01
9.400000e-07	6.336126e-07	-4.001582e-10	4.383966e+00	-2.669661e+01
9.500000e-07	6.868578e-07	-3.201819e-10	4.752369e+00	-2.192998e+01
9.600000e-07	7.398047e-07	-2.471472e-10	5.118709e+00	-1.704505e+01
9.700000e-07	7.925192e-07	-1.769867e-10	5.483441e+00	-1.203208e+01
9.800000e-07	8.449376e-07	-9.979512e-11	5.846124e+00	-6.874583e+00
9.900000e-07	8.970844e-07	-1.440175e-11	6.206928e+00	-1.552691e+00
1.000000e-06	9.489271e-07	7.276283e-11	6.565627e+00	3.952199e+00
1.010000e-06	1.000367e-06	1.570846e-10	6.921539e+00	9.653153e+00
1.020000e-06	1.051172e-06	2.455693e-10	7.273058e+00	1.555515e+01
1.030000e-06	1.101189e-06	3.405053e-10	7.619131e+00	2.165493e+01
1.040000e-06	1.150583e-06	4.402971e-10	7.960882e+00	2.794299e+01
1.050000e-06	1.199526e-06	5.378500e-10	8.299522e+00	3.440634e+01
1.060000e-06	1.248171e-06	6.368415e-10	8.636094e+00	4.103069e+01
1.070000e-06	1.296574e-06	7.409400e-10	8.970995e+00	4.780058e+01
1.080000e-06	1.344668e-06	8.488566e-10	9.303758e+00	5.469725e+01
1.090000e-06	1.392216e-06	9.540003e-10	9.632745e+00	6.169484e+01
1.100000e-06	1.439173e-06	1.056819e-09	9.957642e+00	6.875687e+01
1.110000e-06	1.485639e-06	1.165430e-09	1.027914e+01	7.583458e+01
1.120000e-06	1.531538e-06	1.277214e-09	1.059671e+01	8.286892e+01
1.130000e-06	1.576877e-06	1.383824e-09	1.091041e+01	8.979598e+01
1.140000e-06	1.621761e-06	1.482164e-09	1.122097e+01	9.655507e+01
1.150000e-06	1.666319e-06	1.578823e-09	1.152926e+01	1.030969e+02
1.160000e-06	1.710522e-06	1.673625e-09	1.183510e+01	1.093892e+02
1.170000e-06	1.754089e-06	1.764790e-09	1.213654e+01	1.154186e+02
1.180000e-06	1.796717e-06	1.850976e-09	1.243149e+01	1.211872e+02
1.190000e-06	1.838327e-06	1.934572e-09	1.271939e+01	1.267059e+02
1.200000e-06	1.879175e-06	2.017328e-09	1.300201e+01	1.319862e+02
1.210000e-06	1.919578e-06	2.095953e-09	1.328156e+01	1.370343e+02
1.220000e-06	1.959501e-06	2.168082e-09	1.355779e+01	1.418478e+02
1.230000e-06	1.998715e-06	2.233157e-09	1.382911e+01	1.464178e+02
1.240000e-06	2.037256e-06	2.295086e-09	1.409578e+01	1.507336e+02
1.250000e-06	2.075106e-06	2.356294e-09	1.435766e+01	1.547889e+02
1.260000e-06	2.112192e-06	2.413668e-09	1.461426e+01	1.585860e+02
1.270000e-06	2.148735e-06	2.464334e-09	1.486710e+01	1.621374e+02
1.280000e-06	2.184738e-06	2.513099e-09	1.511620e+01	1.654621e+02
1.290000e-06	2.219793e-06	2.561271e-09	1.535875e+01	1.685812e+02
1.300000e-06	2.253604e-06	2.603771e-09	1.559269e+01	1.715114e+02
1.310000e-06	2.286462e-06	2.639354e-09	1.582003e+01	1.742616e+02
1.320000e-06	2.318728e-06	2.670635e-09	1.604328e+01	1.768335e+02
1.330000e-06	2.350239e-06	2.703458e-09	1.626131e+01	1.792257e+02
1.340000e-06	2.380988e-06	2.737929e-09	1.647406e+01	1.814391e+02
1.350000e-06	2.411040e-06	2.770710e-09	1.668199e+01	1.834831e+02
1.360000e-06	2.440234e-06	2.799978e-09	1.688398e+01	1.853776e+02
1.370000e-06	2.468773e-06	2.827128e-09	1.708144e+01	1.871507e+02
1.380000e-06	2.496615e-06	2.852122e-09	1.727408e+01	1.888329e+02
1.390000e-06	2.523176e-06	2.872994e-09	1.745786e+01	1.904481e+02
1.400000e-06	2.548443e-06	2.890390e-09	1.763268e+01	1.920080e+02
1.410000e-06	2.572858e-06	2.908917e-09	1.780160e+01	1.935081e+02
1.420000e-06	2.596461e-06	2.930930e-09	1.796492e+01	1.949314e+02
1.430000e-06	2.619193e-06	2.952589e-09	1.812220e+01	1.962552e+02
1.440000e-06	2.641025e-06	2.971122e-09	1.827325e+01	1.974609e+02
1.450000e-06	2.662031e-06	2.987867e-09	1.841859e+01	1.985420e+02
1.460000e-06	2.682357e-06	3.004465e-09	1.855923e+01	1.995081e+02
1.470000e-06	2.701808e-06	3.018246e-09	1.869381e+01	2.003823e+02
1.480000e-06	2.720161e-06	3.028440e-09	1.882080e+01	2.011945e+02
1.490000e-06	2.737569e-06	3.038013e-09	1.894124e+01	2.019708e+02
1.500000e-06	2.754021e-06	3.049387e-09	1.905507e+01	2.027260e+02
1.510000e-06	2.769338e-06	3.062058e-09	1.916105e+01	2.034590e+02
1.520000e-06	2.783598e-06	3.073508e-09	1.925972e+01	2.041551e+02
1.530000e-06	2.796866e-06	3.083458e-09	1.935151e+01	2.047928e+02
1.540000e-06	2.809128e-06	3.092991e-09	1.943635e+01	2.053533e+02
1.550000e-06	2.820165e-06	3.101226e-09	1.951273e+01	2.058283e+02
1.560000e-06	2.829803e-06	3.107709e-09	1.957941e+01	2.062238e+02
1.570000e-06	2.838385e-06	3.112996e-09	1.963879e+01	2.065577e+02
1.580000e-06	2.846091e-06	3.117780e-09	1.969211e+01	2.068526e+02
1.590000e-06	2.852873e-06	3.124100e-09	1.973903e+01	2.071269e+02
1.600000e-06	2.858723e-06	3.131046e-09	1.977951e+01	2.073874e+02
1.610000e-06	2.863678e-06	3.134918e-09	1.981379e+01	2.076270e+02
1.620000e-06	2.867815e-06	3.136008e-09	1.984241e+01	2.078272e+02
1.630000e-06	2.870807e-06	3.139286e-09	1.986311e+01	2.079663e+02
1.640000e-06	2.872429e-06	3.143424e-09	1.987434e+01	2.080286e+02
1.650000e-06	2.873031e-06	3.147181e-09	1.987850e+01	2.080109e+02
1.660000e-06	2.872814e-06	3.148307e-09	1.987700e+01	2.079249e+02
1.670000e-06	2.871683e-06	3.141719e-09	1.986918e+01	2.077933e+02
1.680000e-06	2.869632e-06	3.136254e-09	1.985498e+01	2.076410e+02
1.690000e-06	2.866749e-06	3.134559e-09	1.983504e+01	2.074857e+02
1.700000e-06	2.863163e-06	3.132873e-09	1.981023e+01	2.073305e+02
1.710000e-06	2.858668e-06	3.132042e-09	1.977913e+01	2.071626e+02
1.720000e-06	2.852908e-06	3.141913e-09	1.973927e+01	2.069575e+02
1.730000e-06	2.846073e-06	3.163227e-09	1.969198e+01	2.066882e+02
1.740000e-06	2.838470e-06	3.078656e-09	1.963938e+01	2.063358e+02
1.750000e-06	2.829729e-06	2.986206e-09	1.957889e+01	2.058977e+02
1.760000e-06	2.819269e-06	3.062677e-09	1.950653e+01	2.053894e+02
1.770000e-06	2.807485e-06	3.243686e-09	1.942499e+01	2.048410e+02
1.780000e-06	2.795571e-06	3.164950e-09	1.934255e+01	2.042873e+02
1.790000e-06	2.783402e-06	2.919351e-09	1.925836e+01	2.037569e+02
1.800000e-06	2.769550e-06	3.092249e-09	1.916252e+01	2.032633e+02
1.810000e-06	2.754087e-06	3.189025e-09	1.905553e+01	2.028003e+02
1.820000e-06	2.738219e-06	2.930278e-09	1.894574e+01	2.023449e+02
1.830000e-06	2.721533e-06	2.973823e-09	1.883029e+01	2.018644e+02
1.840000e-06	2.703299e-06	3.251208e-09	1.870413e+01	2.013267e+02
1.850000e-06	2.684215e-06	3.070279e-09	1.857208e+01	2.007094e+02
1.860000e-06	2.664619e-06	2.910532e-09	1.843650e+01	2.000053e+02
1.870000e-06	2.643780e-06	3.202768e-09	1.829231e+01	1.992219e+02
1.880000e-06	2.621639e-06	3.067948e-09	1.813912e+01	1.983769e+02
1.890000e-06	2.598698e-06	2.781757e-09	1.798039e+01	1.974910e+02
1.900000e-06	2.574759e-06	3.040890e-09	1.781476e+01	1.965804e+02
1.910000e-06	2.549966e-06	3.092796e-09	1.764321e+01	1.956527e+02
1.920000e-06	2.524544e-06	2.917243e-09	1.746732e+01	1.947054e+02
1.930000e-06	2.498162e-06	2.986135e-09	1.728478e+01	1.937293e+02
1.940000e-06	2.471034e-06	2.938538e-09	1.709709e+01	1.927126e+02
1.950000e-06	2.443233e-06	2.915771e-09	1.690473e+01	1.916459e+02
1.960000e-06	2.414142e-06	2.964619e-09	1.670345e+01	1.905252e+02
1.970000e-06	2.383854e-06	2.806137e-09	1.649389e+01	1.893525e+02
1.980000e-06	2.352803e-06	2.829025e-09	1.627905e+01	1.881341e+02
1.990000e-06	2.320994e-06	2.970494e-09	1.605896e+01	1.868778e+02
2.000000e-06	2.288514e-06	2.813181e-09	1.583423e+01	1.855902e+02
2.010000e-06	2.255249e-06	2.809251e-09	1.560407e+01	1.842756e+02
2.020000e-06	2.221103e-06	2.854287e-09	1.536781e+01	1.829354e+02
2.030000e-06	2.186343e-06	2.698747e-09	1.512731e+01	1.815695e+02
2.040000e-06	2.150949e-06	2.761898e-09	1.488242e+01	1.801770e+02
2.050000e-06	2.114765e-06	2.783627e-09	1.463206e+01	1.787575e+02
2.060000e-06	2.077720e-06	2.645978e-09	1.437575e+01	1.773106e+02
2.070000e-06	2.039602e-06	2.695419e-09	1.411201e+01	1.758350e+02
2.080000e-06	2.000634e-06	2.710528e-09	1.384239e+01	1.743282e+02
2.090000e-06	1.961148e-06	2.636589e-09	1.356918e+01	1.727856e+02
2.100000e-06	1.921058e-06	2.623786e-09	1.329180e+01	1.712019e+02
2.110000e-06	1.880309e-06	2.566480e-09	1.300986e+01	1.695722e+02
2.120000e-06	1.838960e-06	2.561078e-09	1.272377e+01	1.678940e+02
2.130000e-06	1.797012e-06	2.568668e-09	1.243353e+01	1.661682e+02
2.140000e-06	1.754467e-06	2.513390e-09	1.213916e+01	1.643989e+02
2.150000e-06	1.711407e-06	2.491417e-09	1.184122e+01	1.625918e+02
2.160000e-06	1.667935e-06	2.456877e-09	1.154044e+01	1.607519e+02
2.170000e-06	1.623900e-06	2.441472e-09	1.123577e+01	1.588809e+02
2.180000e-06	1.579192e-06	2.414759e-09	1.092643e+01	1.569761e+02
2.190000e-06	1.533892e-06	2.362130e-09	1.061300e+01	1.550309e+02
2.200000e-06	1.488039e-06	2.348278e-09	1.029575e+01	1.530370e+02
2.210000e-06	1.441809e-06	2.329517e-09	9.975877e+00	1.509874e+02
2.220000e-06	1.395150e-06	2.299320e-09	9.653044e+00	1.488797e+02
2.230000e-06	1.347917e-06	2.257196e-09	9.326240e+00	1.467170e+02
2.240000e-06	1.300076e-06	2.200316e-09	8.995229e+00	1.445079e+02
2.250000e-06	1.251563e-06	2.183797e-09	8.659568e+00	1.422637e+02
2.260000e-06	1.202580e-06	2.167277e-09	8.320651e+00	1.399943e+02
2.270000e-06	1.153282e-06	2.121669e-09	7.979560e+00	1.377050e+02
2.280000e-06	1.103565e-06	2.088576e-09	7.635564e+00	1.353935e+02
2.290000e-06	1.053394e-06	2.047178e-09	7.288434e+00	1.330506e+02
2.300000e-06	1.002761e-06	2.020024e-09	6.938107e+00	1.306621e+02
2.310000e-06	9.517416e-07	1.985396e-09	6.585101e+00	1.282127e+02
2.320000e-06	9.005232e-07	1.930351e-09	6.230720e+00	1.256903e+02
2.330000e-06	8.490767e-07	1.897058e-09	5.874762e+00	1.230895e+02
2.340000e-06	7.972801e-07	1.865908e-09	5.516382e+00	1.204125e+02
2.350000e-06	7.450868e-07	1.830188e-09	5.155256e+00	1.176679e+02
2.360000e-06	6.923983e-07	1.778731e-09	4.790704e+00	1.148683e+02
2.370000e-06	6.392118e-07	1.725327e-09	4.422707e+00	1.120255e+02
2.380000e-06	5.856173e-07	1.690861e-09	4.051886e+00	1.091471e+02
2.390000e-06	5.316615e-07	1.653536e-09	3.678566e+00	1.062339e+02
2.400000e-06	4.773942e-07	1.605879e-09	3.303091e+00	1.032789e+02
2.410000e-06	4.229310e-07	1.555840e-09	2.926260e+00	1.002696e+02
2.420000e-06	3.683578e-07	1.510477e-09	2.548668e+00	9.719003e+01
2.430000e-06	3.136555e-07	1.469871e-09	2.170182e+00	9.402523e+01
2.440000e-06	2.588082e-07	1.419060e-09	1.790694e+00	9.076462e+01
2.450000e-06	2.038709e-07	1.359851e-09	1.410583e+00	8.740458e+01
2.460000e-06	1.488895e-07	1.307565e-09	1.030167e+00	8.394938e+01
2.470000e-06	9.389319e-08	1.258172e-09	6.496471e-01	8.041010e+01
2.480000e-06	3.884860e-08	1.207624e-09	2.687935e-01	7.680185e+01
2.490000e-06	-1.626295e-08	1.148275e-09	-1.125234e-01	7.313981e+01
2.500000e-06	-7.137074e-08	1.088536e-09	-4.938142e-01	6.943516e+01
2.510000e-06	-1.264647e-07	1.035434e-09	-8.750094e-01	6.569164e+01
2.520000e-06	-1.815200e-07	9.787428e-10	-1.255937e+00	6.190404e+01
2.530000e-06	-2.365116e-07	9.160829e-10	-1.636424e+00	5.805874e+01
2.540000e-06	-2.914160e-07	8.494352e-10	-2.016308e+00	5.413649e+01
2.550000e-06	-3.462266e-07	7.904097e-10	-2.395542e+00	5.011664e+01
2.560000e-06	-4.009394e-07	7.356850e-10	-2.774100e+00	4.598161e+01
2.570000e-06	-4.554843e-07	6.718392e-10	-3.151496e+00	4.172029e+01
2.580000e-06	-5.098129e-07	5.996512e-10	-3.527395e+00	3.732932e+01
2.590000e-06	-5.638110e-07	5.293051e-10	-3.901008e+00	3.281171e+01
2.600000e-06	-6.173970e-07	4.601068e-10	-4.271770e+00	2.817338e+01
2.610000e-06	-6.705695e-07	3.863463e-10	-4.639671e+00	2.341863e+01
2.620000e-06	-7.232752e-07	3.084464e-10	-5.004342e+00	1.854616e+01
2.630000e-06	-7.755199e-07	2.304761e-10	-5.365823e+00	1.354706e+01
2.640000e-06	-8.274037e-07	1.564369e-10	-5.724807e+00	8.405423e+00
2.650000e-06	-8.789838e-07	8.060352e-11	-6.081689e+00	3.101552e+00
2.660000e-06	-9.303075e-07	-1.925976e-12	-6.436798e+00	-2.383524e+00
2.670000e-06	-9.813675e-07	-9.123431e-11	-6.790083e+00	-8.063626e+00
2.680000e-06	-1.032062e-06	-1.815308e-10	-7.140841e+00	-1.394465e+01
2.690000e-06	-1.082341e-06	-2.719740e-10	-7.488717e+00	-2.002415e+01
2.700000e-06	-1.132137e-06	-3.672431e-10	-7.833259e+00	-2.629316e+01
2.710000e-06	-1.181525e-06	-4.692206e-10	-8.174976e+00	-3.273895e+01
2.720000e-06	-1.230569e-06	-5.716209e-10	-8.514310e+00	-3.934730e+01
2.730000e-06	-1.279043e-06	-6.688509e-10	-8.849701e+00	-4.610296e+01
2.740000e-06	-1.326718e-06	-7.696331e-10	-9.179559e+00	-5.298766e+01
2.750000e-06	-1.373570e-06	-8.783371e-10	-9.503731e+00	-5.997652e+01
2.760000e-06	-1.419819e-06	-9.885150e-10	-9.823727e+00	-6.703431e+01
2.770000e-06	-1.465662e-06	-1.094305e-09	-1.014091e+01	-7.411357e+01
2.780000e-06	-1.511149e-06	-1.200034e-09	-1.045564e+01	-8.115612e+01
2.790000e-06	-1.556288e-06	-1.309087e-09	-1.076796e+01	-8.809826e+01
2.800000e-06	-1.600922e-06	-1.417396e-09	-1.107678e+01	-9.487851e+01
2.810000e-06	-1.644893e-06	-1.518286e-09	-1.138102e+01	-1.014460e+02
2.820000e-06	-1.688374e-06	-1.612181e-09	-1.168186e+01	-1.077665e+02
2.830000e-06	-1.731560e-06	-1.703592e-09	-1.198067e+01	-1.138248e+02
2.840000e-06	-1.774260e-06	-1.793694e-09	-1.227611e+01	-1.196215e+02
2.850000e-06	-1.816263e-06	-1.881290e-09	-1.256672e+01	-1.251668e+02
2.860000e-06	-1.857681e-06	-1.962887e-09	-1.285330e+01	-1.304729e+02
2.870000e-06	-1.898533e-06	-2.040281e-09	-1.313595e+01	-1.355464e+02
2.880000e-06	-1.938654e-06	-2.115033e-09	-1.341355e+01	-1.403859e+02
2.890000e-06	-1.978166e-06	-2.186869e-09	-1.368693e+01	-1.449831e+02
2.900000e-06	-2.017206e-06	-2.254590e-09	-1.395705e+01	-1.493271e+02
2.910000e-06	-2.055609e-06	-2.318336e-09	-1.422276e+01	-1.534109e+02
2.920000e-06	-2.092994e-06	-2.379295e-09	-1.448143e+01	-1.572358e+02
2.930000e-06	-2.129232e-06	-2.437827e-09	-1.473216e+01	-1.608131e+02
2.940000e-06	-2.164707e-06	-2.492479e-09	-1.497761e+01	-1.641617e+02
