# Temperatura_=_17.14
# Concentracion g/m^3_=_13400.0
# C_Vs_to_Am_M_A/Vsm_=_65563218390.804596
# pendiente_HvsI_1/m_=_3716.3
# ordenada_HvsI_A/m_=_1297.0
# frecuencia_Hz_=_301000.34728801117

Tiempo_(s)	Campo_(V.s)	Magnetizacion_(V.s)	Campo_(kA/m)	Magnetizacion_(A/m)
0.000000e+00	-2.860396e-06	-3.159049e-09	-1.978356e+01	-2.054644e+02
1.000000e-08	-2.859666e-06	-3.160975e-09	-1.977852e+01	-2.054286e+02
2.000000e-08	-2.858050e-06	-3.163896e-09	-1.976734e+01	-2.053830e+02
3.000000e-08	-2.855265e-06	-3.167342e-09	-1.974808e+01	-2.053233e+02
4.000000e-08	-2.851332e-06	-3.167700e-09	-1.972088e+01	-2.052334e+02
5.000000e-08	-2.846526e-06	-3.161766e-09	-1.968764e+01	-2.050904e+02
6.000000e-08	-2.840890e-06	-3.151161e-09	-1.964866e+01	-2.048720e+02
7.000000e-08	-2.834319e-06	-3.143439e-09	-1.960321e+01	-2.045648e+02
8.000000e-08	-2.826766e-06	-3.166527e-09	-1.955097e+01	-2.041713e+02
9.000000e-08	-2.818058e-06	-3.184523e-09	-1.949074e+01	-2.037117e+02
1.000000e-07	-2.807923e-06	-3.153129e-09	-1.942065e+01	-2.032203e+02
1.100000e-07	-2.796468e-06	-3.068033e-09	-1.934142e+01	-2.027370e+02
1.200000e-07	-2.784183e-06	-3.092847e-09	-1.925645e+01	-2.022962e+02
1.300000e-07	-2.771102e-06	-3.158912e-09	-1.916597e+01	-2.019165e+02
1.400000e-07	-2.757000e-06	-3.095429e-09	-1.906844e+01	-2.015944e+02
1.500000e-07	-2.741879e-06	-3.061033e-09	-1.896386e+01	-2.013049e+02
1.600000e-07	-2.725618e-06	-3.143010e-09	-1.885139e+01	-2.010074e+02
1.700000e-07	-2.708110e-06	-3.123106e-09	-1.873030e+01	-2.006562e+02
1.800000e-07	-2.689633e-06	-3.003146e-09	-1.860251e+01	-2.002121e+02
1.900000e-07	-2.670425e-06	-3.064318e-09	-1.846966e+01	-1.996513e+02
2.000000e-07	-2.650360e-06	-3.075594e-09	-1.833088e+01	-1.989697e+02
2.100000e-07	-2.629369e-06	-2.956450e-09	-1.818570e+01	-1.981812e+02
2.200000e-07	-2.607597e-06	-3.008843e-09	-1.803511e+01	-1.973106e+02
2.300000e-07	-2.584989e-06	-3.083902e-09	-1.787875e+01	-1.963858e+02
2.400000e-07	-2.561430e-06	-2.993933e-09	-1.771580e+01	-1.954292e+02
2.500000e-07	-2.537103e-06	-2.953907e-09	-1.754755e+01	-1.944531e+02
2.600000e-07	-2.511944e-06	-2.952525e-09	-1.737354e+01	-1.934591e+02
2.700000e-07	-2.485590e-06	-2.924061e-09	-1.719127e+01	-1.924409e+02
2.800000e-07	-2.458069e-06	-2.936346e-09	-1.700092e+01	-1.913894e+02
2.900000e-07	-2.429646e-06	-2.906485e-09	-1.680434e+01	-1.902974e+02
3.000000e-07	-2.400379e-06	-2.861038e-09	-1.660192e+01	-1.891624e+02
3.100000e-07	-2.370342e-06	-2.891918e-09	-1.639417e+01	-1.879870e+02
3.200000e-07	-2.339649e-06	-2.887360e-09	-1.618189e+01	-1.867764e+02
3.300000e-07	-2.308204e-06	-2.808257e-09	-1.596440e+01	-1.855359e+02
3.400000e-07	-2.276020e-06	-2.806662e-09	-1.574180e+01	-1.842676e+02
3.500000e-07	-2.243221e-06	-2.786653e-09	-1.551495e+01	-1.829704e+02
3.600000e-07	-2.209643e-06	-2.753839e-09	-1.528271e+01	-1.816403e+02
3.700000e-07	-2.174929e-06	-2.779401e-09	-1.504262e+01	-1.802729e+02
3.800000e-07	-2.139155e-06	-2.738977e-09	-1.479519e+01	-1.788659e+02
3.900000e-07	-2.102722e-06	-2.683062e-09	-1.454321e+01	-1.774203e+02
4.000000e-07	-2.065729e-06	-2.700281e-09	-1.428735e+01	-1.759404e+02
4.100000e-07	-2.028016e-06	-2.687531e-09	-1.402652e+01	-1.744317e+02
4.200000e-07	-1.989531e-06	-2.616806e-09	-1.376034e+01	-1.728986e+02
4.300000e-07	-1.950304e-06	-2.598457e-09	-1.348903e+01	-1.713425e+02
4.400000e-07	-1.910379e-06	-2.595651e-09	-1.321290e+01	-1.697611e+02
4.500000e-07	-1.869999e-06	-2.576342e-09	-1.293361e+01	-1.681490e+02
4.600000e-07	-1.829245e-06	-2.542002e-09	-1.265174e+01	-1.665001e+02
4.700000e-07	-1.787781e-06	-2.501904e-09	-1.236496e+01	-1.648096e+02
4.800000e-07	-1.745218e-06	-2.473623e-09	-1.207058e+01	-1.630759e+02
4.900000e-07	-1.701624e-06	-2.458212e-09	-1.176906e+01	-1.613003e+02
5.000000e-07	-1.657437e-06	-2.432034e-09	-1.146345e+01	-1.594856e+02
5.100000e-07	-1.612845e-06	-2.388038e-09	-1.115504e+01	-1.576344e+02
5.200000e-07	-1.567800e-06	-2.362314e-09	-1.084349e+01	-1.557467e+02
5.300000e-07	-1.522166e-06	-2.340063e-09	-1.052787e+01	-1.538196e+02
5.400000e-07	-1.475960e-06	-2.314321e-09	-1.020829e+01	-1.518482e+02
5.500000e-07	-1.429277e-06	-2.270547e-09	-9.885411e+00	-1.498273e+02
5.600000e-07	-1.382047e-06	-2.224408e-09	-9.558750e+00	-1.477544e+02
5.700000e-07	-1.334326e-06	-2.197589e-09	-9.228696e+00	-1.456308e+02
5.800000e-07	-1.286207e-06	-2.181486e-09	-8.895888e+00	-1.434620e+02
5.900000e-07	-1.237762e-06	-2.145363e-09	-8.560822e+00	-1.412556e+02
6.000000e-07	-1.188909e-06	-2.096472e-09	-8.222938e+00	-1.390184e+02
6.100000e-07	-1.139556e-06	-2.064487e-09	-7.881592e+00	-1.367532e+02
6.200000e-07	-1.089528e-06	-2.035541e-09	-7.535585e+00	-1.344573e+02
6.300000e-07	-1.038673e-06	-2.000878e-09	-7.183850e+00	-1.321222e+02
6.400000e-07	-9.872282e-07	-1.952732e-09	-6.828039e+00	-1.297364e+02
6.500000e-07	-9.354328e-07	-1.909141e-09	-6.469802e+00	-1.272889e+02
6.600000e-07	-8.833210e-07	-1.879291e-09	-6.109378e+00	-1.247728e+02
6.700000e-07	-8.309055e-07	-1.849069e-09	-5.746852e+00	-1.221872e+02
6.800000e-07	-7.782418e-07	-1.803699e-09	-5.382611e+00	-1.195375e+02
6.900000e-07	-7.252992e-07	-1.754197e-09	-5.016440e+00	-1.168329e+02
7.000000e-07	-6.720111e-07	-1.715542e-09	-4.647879e+00	-1.140825e+02
7.100000e-07	-6.184230e-07	-1.676925e-09	-4.277244e+00	-1.112913e+02
7.200000e-07	-5.646282e-07	-1.631759e-09	-3.905179e+00	-1.084582e+02
7.300000e-07	-5.106666e-07	-1.579440e-09	-3.531961e+00	-1.055754e+02
7.400000e-07	-4.565077e-07	-1.533402e-09	-3.157377e+00	-1.026302e+02
7.500000e-07	-4.021977e-07	-1.492067e-09	-2.781749e+00	-9.960933e+01
7.600000e-07	-3.478177e-07	-1.444737e-09	-2.405637e+00	-9.650180e+01
7.700000e-07	-2.933674e-07	-1.387804e-09	-2.029039e+00	-9.330218e+01
7.800000e-07	-2.388527e-07	-1.333986e-09	-1.651995e+00	-9.001119e+01
7.900000e-07	-1.842613e-07	-1.289329e-09	-1.274420e+00	-8.663452e+01
8.000000e-07	-1.296194e-07	-1.241292e-09	-8.964959e-01	-8.318035e+01
8.100000e-07	-7.497488e-08	-1.185160e-09	-5.185542e-01	-7.965647e+01
8.200000e-07	-2.030004e-08	-1.124805e-09	-1.404027e-01	-7.606810e+01
8.300000e-07	3.438434e-08	-1.070119e-09	2.378149e-01	-7.241706e+01
8.400000e-07	8.902477e-08	-1.015604e-09	6.157285e-01	-6.870212e+01
8.500000e-07	1.436167e-07	-9.556845e-10	9.933066e-01	-6.492024e+01
8.600000e-07	1.981945e-07	-8.921762e-10	1.370787e+00	-6.106779e+01
8.700000e-07	2.527485e-07	-8.337763e-10	1.748103e+00	-5.714114e+01
8.800000e-07	3.072288e-07	-7.808796e-10	2.124909e+00	-5.313650e+01
8.900000e-07	3.616206e-07	-7.218607e-10	2.501103e+00	-4.904908e+01
9.000000e-07	4.159064e-07	-6.554612e-10	2.876564e+00	-4.487225e+01
9.100000e-07	4.700693e-07	-5.878638e-10	3.251174e+00	-4.059718e+01
9.200000e-07	5.241191e-07	-5.234382e-10	3.625003e+00	-3.621338e+01
9.300000e-07	5.780293e-07	-4.565581e-10	3.997866e+00	-3.170995e+01
9.400000e-07	6.316563e-07	-3.855478e-10	4.368771e+00	-2.707718e+01
9.500000e-07	6.849542e-07	-3.113572e-10	4.737399e+00	-2.230762e+01
9.600000e-07	7.379875e-07	-2.384342e-10	5.104197e+00	-1.739637e+01
9.700000e-07	7.907417e-07	-1.658497e-10	5.469065e+00	-1.234020e+01
9.800000e-07	8.432313e-07	-8.697005e-11	5.832102e+00	-7.135942e+00
9.900000e-07	8.954686e-07	-2.126613e-12	6.193395e+00	-1.778809e+00
1.000000e-06	9.473972e-07	8.518030e-11	6.552552e+00	3.738522e+00
1.010000e-06	9.988509e-07	1.715333e-10	6.908425e+00	9.425599e+00
1.020000e-06	1.049708e-06	2.614536e-10	7.260169e+00	1.529250e+01
1.030000e-06	1.099939e-06	3.550698e-10	7.607586e+00	2.134712e+01
1.040000e-06	1.149515e-06	4.503025e-10	7.950478e+00	2.759227e+01
1.050000e-06	1.198513e-06	5.460594e-10	8.289361e+00	3.402323e+01
1.060000e-06	1.247104e-06	6.447268e-10	8.625435e+00	4.062650e+01
1.070000e-06	1.295433e-06	7.489501e-10	8.959697e+00	4.737969e+01
1.080000e-06	1.343428e-06	8.573842e-10	9.291646e+00	5.425246e+01
1.090000e-06	1.390945e-06	9.651345e-10	9.620292e+00	6.120803e+01
1.100000e-06	1.437931e-06	1.070515e-09	9.945269e+00	6.820459e+01
1.110000e-06	1.484422e-06	1.177484e-09	1.026681e+01	7.519674e+01
1.120000e-06	1.530369e-06	1.283359e-09	1.058461e+01	8.213668e+01
1.130000e-06	1.575746e-06	1.384836e-09	1.089845e+01	8.897578e+01
1.140000e-06	1.620643e-06	1.483528e-09	1.120897e+01	9.566663e+01
1.150000e-06	1.665151e-06	1.582146e-09	1.151681e+01	1.021658e+02
1.160000e-06	1.709325e-06	1.679747e-09	1.182233e+01	1.084368e+02
1.170000e-06	1.752978e-06	1.773475e-09	1.212425e+01	1.144528e+02
1.180000e-06	1.795786e-06	1.861382e-09	1.242033e+01	1.201984e+02
1.190000e-06	1.837550e-06	1.943449e-09	1.270918e+01	1.256692e+02
1.200000e-06	1.878446e-06	2.020717e-09	1.299203e+01	1.308702e+02
1.210000e-06	1.918786e-06	2.093826e-09	1.327104e+01	1.358118e+02
1.220000e-06	1.958620e-06	2.163508e-09	1.354655e+01	1.405064e+02
1.230000e-06	1.997821e-06	2.229360e-09	1.381767e+01	1.449641e+02
1.240000e-06	2.036329e-06	2.291435e-09	1.408401e+01	1.491912e+02
1.250000e-06	2.074119e-06	2.350920e-09	1.434538e+01	1.531899e+02
1.260000e-06	2.111213e-06	2.406707e-09	1.460194e+01	1.569597e+02
1.270000e-06	2.147764e-06	2.458615e-09	1.485474e+01	1.605001e+02
1.280000e-06	2.183718e-06	2.506545e-09	1.510341e+01	1.638133e+02
1.290000e-06	2.218782e-06	2.550153e-09	1.534592e+01	1.669058e+02
1.300000e-06	2.252746e-06	2.589694e-09	1.558083e+01	1.697889e+02
1.310000e-06	2.285730e-06	2.626151e-09	1.580896e+01	1.724777e+02
1.320000e-06	2.317993e-06	2.659561e-09	1.603211e+01	1.749890e+02
1.330000e-06	2.349582e-06	2.692618e-09	1.625058e+01	1.773395e+02
1.340000e-06	2.380473e-06	2.725817e-09	1.646424e+01	1.795439e+02
1.350000e-06	2.410555e-06	2.757890e-09	1.667230e+01	1.816139e+02
1.360000e-06	2.439763e-06	2.787723e-09	1.687431e+01	1.835585e+02
1.370000e-06	2.468271e-06	2.813621e-09	1.707148e+01	1.853847e+02
1.380000e-06	2.496010e-06	2.835837e-09	1.726333e+01	1.870979e+02
1.390000e-06	2.522636e-06	2.855156e-09	1.744749e+01	1.887032e+02
1.400000e-06	2.548078e-06	2.874323e-09	1.762346e+01	1.902053e+02
1.410000e-06	2.572609e-06	2.894839e-09	1.779312e+01	1.916095e+02
1.420000e-06	2.596292e-06	2.915545e-09	1.795692e+01	1.929212e+02
1.430000e-06	2.619053e-06	2.934307e-09	1.811435e+01	1.941465e+02
1.440000e-06	2.640941e-06	2.952396e-09	1.826574e+01	1.952918e+02
1.450000e-06	2.662031e-06	2.970589e-09	1.841160e+01	1.963643e+02
1.460000e-06	2.682387e-06	2.986317e-09	1.855239e+01	1.973709e+02
1.470000e-06	2.701881e-06	2.998409e-09	1.868722e+01	1.983176e+02
1.480000e-06	2.720329e-06	3.009493e-09	1.881481e+01	1.992088e+02
1.490000e-06	2.737750e-06	3.021135e-09	1.893530e+01	2.000465e+02
1.500000e-06	2.754151e-06	3.033640e-09	1.904874e+01	2.008302e+02
1.510000e-06	2.769507e-06	3.046245e-09	1.915494e+01	2.015578e+02
1.520000e-06	2.783813e-06	3.056977e-09	1.925389e+01	2.022270e+02
1.530000e-06	2.797122e-06	3.066942e-09	1.934594e+01	2.028375e+02
1.540000e-06	2.809431e-06	3.076825e-09	1.943108e+01	2.033915e+02
1.550000e-06	2.820500e-06	3.084401e-09	1.950763e+01	2.038945e+02
1.560000e-06	2.830249e-06	3.089543e-09	1.957506e+01	2.043534e+02
1.570000e-06	2.838940e-06	3.094736e-09	1.963517e+01	2.047746e+02
1.580000e-06	2.846736e-06	3.101844e-09	1.968909e+01	2.051610e+02
1.590000e-06	2.853599e-06	3.109482e-09	1.973655e+01	2.055106e+02
1.600000e-06	2.859507e-06	3.116174e-09	1.977742e+01	2.058166e+02
1.610000e-06	2.864486e-06	3.120383e-09	1.981185e+01	2.060693e+02
1.620000e-06	2.868603e-06	3.122135e-09	1.984033e+01	2.062603e+02
1.630000e-06	2.871659e-06	3.124502e-09	1.986146e+01	2.063863e+02
1.640000e-06	2.873436e-06	3.126877e-09	1.987376e+01	2.064515e+02
1.650000e-06	2.874122e-06	3.128780e-09	1.987850e+01	2.064676e+02
1.660000e-06	2.873936e-06	3.130148e-09	1.987721e+01	2.064509e+02
1.670000e-06	2.872893e-06	3.128903e-09	1.987000e+01	2.064162e+02
1.680000e-06	2.870914e-06	3.126967e-09	1.985631e+01	2.063715e+02
1.690000e-06	2.868079e-06	3.124944e-09	1.983670e+01	2.063137e+02
1.700000e-06	2.864522e-06	3.123727e-09	1.981210e+01	2.062279e+02
1.710000e-06	2.860013e-06	3.124264e-09	1.978092e+01	2.060917e+02
1.720000e-06	2.854310e-06	3.129053e-09	1.974147e+01	2.058821e+02
1.730000e-06	2.847584e-06	3.122714e-09	1.969495e+01	2.055844e+02
1.740000e-06	2.839993e-06	3.072094e-09	1.964245e+01	2.051994e+02
1.750000e-06	2.831232e-06	3.046462e-09	1.958185e+01	2.047452e+02
1.760000e-06	2.820829e-06	3.106875e-09	1.950990e+01	2.042552e+02
1.770000e-06	2.809143e-06	3.145242e-09	1.942908e+01	2.037691e+02
1.780000e-06	2.797194e-06	3.094230e-09	1.934644e+01	2.033224e+02
1.790000e-06	2.784819e-06	3.036260e-09	1.926085e+01	2.029357e+02
1.800000e-06	2.770953e-06	3.115700e-09	1.916494e+01	2.026082e+02
1.810000e-06	2.755666e-06	3.071044e-09	1.905921e+01	2.023168e+02
1.820000e-06	2.739767e-06	2.982784e-09	1.894925e+01	2.020222e+02
1.830000e-06	2.723029e-06	3.084619e-09	1.883348e+01	2.016787e+02
1.840000e-06	2.704910e-06	3.108723e-09	1.870816e+01	2.012458e+02
1.850000e-06	2.685889e-06	2.993078e-09	1.857661e+01	2.006980e+02
1.860000e-06	2.666223e-06	3.026544e-09	1.844059e+01	2.000289e+02
1.870000e-06	2.645443e-06	3.102710e-09	1.829687e+01	1.992505e+02
1.880000e-06	2.623486e-06	2.963052e-09	1.814501e+01	1.983873e+02
1.890000e-06	2.600569e-06	2.919657e-09	1.798651e+01	1.974669e+02
1.900000e-06	2.576637e-06	3.014337e-09	1.782098e+01	1.965128e+02
1.910000e-06	2.551852e-06	2.980527e-09	1.764956e+01	1.955384e+02
1.920000e-06	2.526373e-06	2.946806e-09	1.747334e+01	1.945464e+02
1.930000e-06	2.500027e-06	2.950294e-09	1.729112e+01	1.935311e+02
1.940000e-06	2.472936e-06	2.884012e-09	1.710375e+01	1.924834e+02
1.950000e-06	2.445129e-06	2.929179e-09	1.691142e+01	1.913958e+02
1.960000e-06	2.416159e-06	2.913756e-09	1.671106e+01	1.902653e+02
1.970000e-06	2.385990e-06	2.806382e-09	1.650240e+01	1.890938e+02
1.980000e-06	2.354979e-06	2.859286e-09	1.628791e+01	1.878866e+02
1.990000e-06	2.323251e-06	2.877194e-09	1.606847e+01	1.866489e+02
2.000000e-06	2.290824e-06	2.794603e-09	1.584419e+01	1.853835e+02
2.010000e-06	2.257567e-06	2.818370e-09	1.561418e+01	1.840894e+02
2.020000e-06	2.223453e-06	2.783931e-09	1.537823e+01	1.827629e+02
2.030000e-06	2.188703e-06	2.711710e-09	1.513789e+01	1.813995e+02
2.040000e-06	2.153311e-06	2.762090e-09	1.489310e+01	1.799967e+02
2.050000e-06	2.117162e-06	2.723750e-09	1.464308e+01	1.785550e+02
2.060000e-06	2.080178e-06	2.657214e-09	1.438729e+01	1.770783e+02
2.070000e-06	2.042190e-06	2.684808e-09	1.412455e+01	1.755723e+02
2.080000e-06	2.003321e-06	2.666141e-09	1.385572e+01	1.740415e+02
2.090000e-06	1.963822e-06	2.624135e-09	1.358253e+01	1.724878e+02
2.100000e-06	1.923686e-06	2.596315e-09	1.330493e+01	1.709092e+02
2.110000e-06	1.882935e-06	2.558816e-09	1.302308e+01	1.693006e+02
2.120000e-06	1.841602e-06	2.556242e-09	1.273721e+01	1.676557e+02
2.130000e-06	1.799663e-06	2.541546e-09	1.244714e+01	1.659697e+02
2.140000e-06	1.757150e-06	2.500019e-09	1.215310e+01	1.642405e+02
2.150000e-06	1.714135e-06	2.477795e-09	1.185560e+01	1.624691e+02
2.160000e-06	1.670691e-06	2.450039e-09	1.155512e+01	1.606583e+02
2.170000e-06	1.626714e-06	2.424991e-09	1.125096e+01	1.588108e+02
2.180000e-06	1.582052e-06	2.394123e-09	1.094206e+01	1.569269e+02
2.190000e-06	1.536682e-06	2.362284e-09	1.062827e+01	1.550042e+02
2.200000e-06	1.490786e-06	2.339085e-09	1.031083e+01	1.530376e+02
2.210000e-06	1.444533e-06	2.313720e-09	9.990929e+00	1.510221e+02
2.220000e-06	1.397812e-06	2.291773e-09	9.667790e+00	1.489546e+02
2.230000e-06	1.350552e-06	2.245651e-09	9.340921e+00	1.468361e+02
2.240000e-06	1.302759e-06	2.202443e-09	9.010370e+00	1.446717e+02
2.250000e-06	1.254315e-06	2.183933e-09	8.675309e+00	1.424688e+02
2.260000e-06	1.205324e-06	2.155235e-09	8.336468e+00	1.402345e+02
2.270000e-06	1.155965e-06	2.117644e-09	7.995087e+00	1.379723e+02
2.280000e-06	1.106259e-06	2.081489e-09	7.651297e+00	1.356798e+02
2.290000e-06	1.056128e-06	2.045070e-09	7.304576e+00	1.333493e+02
2.300000e-06	1.005494e-06	2.016989e-09	6.954369e+00	1.309694e+02
2.310000e-06	9.544986e-07	1.977741e-09	6.601668e+00	1.285288e+02
2.320000e-06	9.032362e-07	1.930946e-09	6.247119e+00	1.260200e+02
2.330000e-06	8.516669e-07	1.897405e-09	5.890446e+00	1.234416e+02
2.340000e-06	7.998104e-07	1.863229e-09	5.531787e+00	1.207982e+02
2.350000e-06	7.476107e-07	1.824691e-09	5.170755e+00	1.180989e+02
2.360000e-06	6.949736e-07	1.776671e-09	4.806697e+00	1.153529e+02
2.370000e-06	6.419368e-07	1.730546e-09	4.439875e+00	1.125659e+02
2.380000e-06	5.885227e-07	1.693112e-09	4.070443e+00	1.097374e+02
2.390000e-06	5.346664e-07	1.653416e-09	3.697952e+00	1.068603e+02
2.400000e-06	4.804361e-07	1.609066e-09	3.322876e+00	1.039224e+02
2.410000e-06	4.260259e-07	1.561018e-09	2.946554e+00	1.009101e+02
2.420000e-06	3.714342e-07	1.517299e-09	2.568977e+00	9.781203e+01
2.430000e-06	3.166360e-07	1.473505e-09	2.189973e+00	9.462221e+01
2.440000e-06	2.617150e-07	1.420989e-09	1.810119e+00	9.134067e+01
2.450000e-06	2.067371e-07	1.364232e-09	1.429871e+00	8.797267e+01
2.460000e-06	1.517148e-07	1.310145e-09	1.049316e+00	8.452627e+01
2.470000e-06	9.664140e-08	1.259002e-09	6.684080e-01	8.100941e+01
2.480000e-06	4.155459e-08	1.206365e-09	2.874071e-01	7.742767e+01
2.490000e-06	-1.351399e-08	1.149054e-09	-9.346781e-02	7.378321e+01
2.500000e-06	-6.858750e-08	1.092854e-09	-4.743767e-01	7.007511e+01
2.510000e-06	-1.236593e-07	1.038537e-09	-8.552740e-01	6.630044e+01
2.520000e-06	-1.787142e-07	9.796904e-10	-1.236054e+00	6.245558e+01
2.530000e-06	-2.337198e-07	9.168875e-10	-1.616493e+00	5.853692e+01
2.540000e-06	-2.886761e-07	8.520109e-10	-1.996592e+00	5.454070e+01
2.550000e-06	-3.435480e-07	7.915948e-10	-2.376106e+00	5.046229e+01
2.560000e-06	-3.982278e-07	7.315782e-10	-2.754292e+00	4.629529e+01
2.570000e-06	-4.527285e-07	6.640953e-10	-3.131239e+00	4.203109e+01
2.580000e-06	-5.070202e-07	5.937957e-10	-3.506741e+00	3.765933e+01
2.590000e-06	-5.609952e-07	5.237964e-10	-3.880052e+00	3.316908e+01
2.600000e-06	-6.146242e-07	4.525143e-10	-4.250970e+00	2.855043e+01
2.610000e-06	-6.678864e-07	3.786990e-10	-4.619352e+00	2.379566e+01
2.620000e-06	-7.206943e-07	3.037770e-10	-4.984591e+00	1.889963e+01
2.630000e-06	-7.730386e-07	2.277803e-10	-5.346623e+00	1.385899e+01
2.640000e-06	-8.249506e-07	1.505206e-10	-5.705666e+00	8.670648e+00
2.650000e-06	-8.765148e-07	6.941370e-11	-6.062304e+00	3.330059e+00
2.660000e-06	-9.278546e-07	-1.567983e-11	-6.417389e+00	-2.169817e+00
2.670000e-06	-9.789333e-07	-1.030148e-10	-6.770668e+00	-7.838352e+00
2.680000e-06	-1.029631e-06	-1.917265e-10	-7.121315e+00	-1.368568e+01
2.690000e-06	-1.079942e-06	-2.815368e-10	-7.469283e+00	-1.972008e+01
2.700000e-06	-1.129847e-06	-3.743606e-10	-7.814442e+00	-2.594503e+01
2.710000e-06	-1.179317e-06	-4.723256e-10	-8.156596e+00	-3.235671e+01
2.720000e-06	-1.228379e-06	-5.734235e-10	-8.495930e+00	-3.894257e+01
2.730000e-06	-1.276912e-06	-6.745974e-10	-8.831597e+00	-4.568115e+01
2.740000e-06	-1.324710e-06	-7.795071e-10	-9.162191e+00	-5.254291e+01
2.750000e-06	-1.371708e-06	-8.879117e-10	-9.487246e+00	-5.949167e+01
2.760000e-06	-1.418065e-06	-9.940370e-10	-9.807868e+00	-6.648610e+01
2.770000e-06	-1.463990e-06	-1.097079e-09	-1.012550e+01	-7.348111e+01
2.780000e-06	-1.509558e-06	-1.201031e-09	-1.044067e+01	-8.042911e+01
2.790000e-06	-1.554735e-06	-1.307905e-09	-1.075313e+01	-8.728146e+01
2.800000e-06	-1.599398e-06	-1.413873e-09	-1.106203e+01	-9.399050e+01
2.810000e-06	-1.643482e-06	-1.513819e-09	-1.136693e+01	-1.005122e+02
2.820000e-06	-1.687091e-06	-1.608466e-09	-1.166855e+01	-1.068093e+02
2.830000e-06	-1.730319e-06	-1.701723e-09	-1.196753e+01	-1.128537e+02
2.840000e-06	-1.773065e-06	-1.791696e-09	-1.226318e+01	-1.186288e+02
2.850000e-06	-1.815188e-06	-1.875502e-09	-1.255451e+01	-1.241291e+02
2.860000e-06	-1.856687e-06	-1.952902e-09	-1.284154e+01	-1.293587e+02
2.870000e-06	-1.897584e-06	-2.027945e-09	-1.312440e+01	-1.343277e+02
2.880000e-06	-1.937799e-06	-2.103140e-09	-1.340254e+01	-1.390483e+02
2.890000e-06	-1.977408e-06	-2.175227e-09	-1.367649e+01	-1.435311e+02
2.900000e-06	-2.016531e-06	-2.242155e-09	-1.394708e+01	-1.477829e+02
2.910000e-06	-2.054935e-06	-2.305563e-09	-1.421270e+01	-1.518062e+02
2.920000e-06	-2.092352e-06	-2.367244e-09	-1.447149e+01	-1.556007e+02
2.930000e-06	-2.128736e-06	-2.425488e-09	-1.472313e+01	-1.591658e+02
2.940000e-06	-2.164284e-06	-2.479184e-09	-1.496899e+01	-1.625032e+02
