# Temperatura_=_25.55
# Concentracion g/m^3_=_13400.0
# C_Vs_to_Am_M_A/Vsm_=_65563218390.804596
# pendiente_HvsI_1/m_=_3716.3
# ordenada_HvsI_A/m_=_1297.0
# frecuencia_Hz_=_300985.1430110974

Tiempo_(s)	Campo_(V.s)	Magnetizacion_(V.s)	Campo_(kA/m)	Magnetizacion_(A/m)
0.000000e+00	-2.862414e-06	-3.291508e-09	-1.978588e+01	-2.147550e+02
1.000000e-08	-2.861522e-06	-3.294147e-09	-1.977971e+01	-2.147001e+02
2.000000e-08	-2.859663e-06	-3.295494e-09	-1.976687e+01	-2.146039e+02
3.000000e-08	-2.856640e-06	-3.293134e-09	-1.974597e+01	-2.144763e+02
4.000000e-08	-2.852540e-06	-3.289657e-09	-1.971762e+01	-2.143233e+02
5.000000e-08	-2.847599e-06	-3.285734e-09	-1.968347e+01	-2.141424e+02
6.000000e-08	-2.841797e-06	-3.279998e-09	-1.964337e+01	-2.139214e+02
7.000000e-08	-2.835056e-06	-3.281423e-09	-1.959677e+01	-2.136417e+02
8.000000e-08	-2.827309e-06	-3.303378e-09	-1.954322e+01	-2.132858e+02
9.000000e-08	-2.818342e-06	-3.308204e-09	-1.948124e+01	-2.128467e+02
1.000000e-07	-2.807950e-06	-3.251758e-09	-1.940941e+01	-2.123340e+02
1.100000e-07	-2.796333e-06	-3.189694e-09	-1.932911e+01	-2.117764e+02
1.200000e-07	-2.783919e-06	-3.234273e-09	-1.924330e+01	-2.112160e+02
1.300000e-07	-2.770701e-06	-3.285349e-09	-1.915193e+01	-2.106973e+02
1.400000e-07	-2.756461e-06	-3.201993e-09	-1.905350e+01	-2.102531e+02
1.500000e-07	-2.741234e-06	-3.193618e-09	-1.894825e+01	-2.098930e+02
1.600000e-07	-2.724896e-06	-3.286610e-09	-1.883531e+01	-2.095973e+02
1.700000e-07	-2.707224e-06	-3.220058e-09	-1.871316e+01	-2.093206e+02
1.800000e-07	-2.688597e-06	-3.145953e-09	-1.858440e+01	-2.090027e+02
1.900000e-07	-2.669298e-06	-3.230051e-09	-1.845100e+01	-2.085854e+02
2.000000e-07	-2.649098e-06	-3.192524e-09	-1.831138e+01	-2.080278e+02
2.100000e-07	-2.627993e-06	-3.076385e-09	-1.816549e+01	-2.073172e+02
2.200000e-07	-2.606140e-06	-3.155252e-09	-1.801443e+01	-2.064707e+02
2.300000e-07	-2.583411e-06	-3.217637e-09	-1.785733e+01	-2.055269e+02
2.400000e-07	-2.559720e-06	-3.129204e-09	-1.769357e+01	-2.045332e+02
2.500000e-07	-2.535254e-06	-3.099706e-09	-1.752445e+01	-2.035295e+02
2.600000e-07	-2.509914e-06	-3.097043e-09	-1.734929e+01	-2.025374e+02
2.700000e-07	-2.483442e-06	-3.050875e-09	-1.716631e+01	-2.015558e+02
2.800000e-07	-2.455894e-06	-3.062428e-09	-1.697589e+01	-2.005655e+02
2.900000e-07	-2.427447e-06	-3.043267e-09	-1.677926e+01	-1.995390e+02
3.000000e-07	-2.398193e-06	-2.988353e-09	-1.657704e+01	-1.984528e+02
3.100000e-07	-2.368149e-06	-3.021770e-09	-1.636937e+01	-1.972965e+02
3.200000e-07	-2.337339e-06	-3.037257e-09	-1.615640e+01	-1.960757e+02
3.300000e-07	-2.305796e-06	-2.972468e-09	-1.593837e+01	-1.948089e+02
3.400000e-07	-2.273553e-06	-2.931627e-09	-1.571549e+01	-1.935179e+02
3.500000e-07	-2.240663e-06	-2.910432e-09	-1.548815e+01	-1.922190e+02
3.600000e-07	-2.206957e-06	-2.898850e-09	-1.525516e+01	-1.909157e+02
3.700000e-07	-2.172147e-06	-2.908472e-09	-1.501454e+01	-1.895973e+02
3.800000e-07	-2.136322e-06	-2.878690e-09	-1.476691e+01	-1.882438e+02
3.900000e-07	-2.099794e-06	-2.847069e-09	-1.451442e+01	-1.868342e+02
4.000000e-07	-2.062642e-06	-2.852364e-09	-1.425761e+01	-1.853550e+02
4.100000e-07	-2.024779e-06	-2.827726e-09	-1.399589e+01	-1.838061e+02
4.200000e-07	-1.986168e-06	-2.761145e-09	-1.372900e+01	-1.822006e+02
4.300000e-07	-1.946806e-06	-2.726809e-09	-1.345692e+01	-1.805602e+02
4.400000e-07	-1.906810e-06	-2.729483e-09	-1.318045e+01	-1.789064e+02
4.500000e-07	-1.866338e-06	-2.723111e-09	-1.290070e+01	-1.772528e+02
4.600000e-07	-1.825378e-06	-2.694791e-09	-1.261757e+01	-1.756000e+02
4.700000e-07	-1.783677e-06	-2.654246e-09	-1.232932e+01	-1.739361e+02
4.800000e-07	-1.740997e-06	-2.619118e-09	-1.203431e+01	-1.722417e+02
4.900000e-07	-1.697412e-06	-2.596540e-09	-1.173303e+01	-1.704973e+02
5.000000e-07	-1.653203e-06	-2.569562e-09	-1.142744e+01	-1.686903e+02
5.100000e-07	-1.608576e-06	-2.530128e-09	-1.111897e+01	-1.668190e+02
5.200000e-07	-1.563527e-06	-2.507464e-09	-1.080758e+01	-1.648920e+02
5.300000e-07	-1.517925e-06	-2.494177e-09	-1.049236e+01	-1.629230e+02
5.400000e-07	-1.471718e-06	-2.464178e-09	-1.017296e+01	-1.609252e+02
5.500000e-07	-1.424906e-06	-2.416240e-09	-9.849383e+00	-1.589048e+02
5.600000e-07	-1.377565e-06	-2.368373e-09	-9.522150e+00	-1.568595e+02
5.700000e-07	-1.329761e-06	-2.339941e-09	-9.191713e+00	-1.547790e+02
5.800000e-07	-1.281527e-06	-2.324846e-09	-8.858305e+00	-1.526505e+02
5.900000e-07	-1.232969e-06	-2.296856e-09	-8.522660e+00	-1.504632e+02
6.000000e-07	-1.183964e-06	-2.253105e-09	-8.183921e+00	-1.482129e+02
6.100000e-07	-1.134354e-06	-2.214128e-09	-7.841005e+00	-1.459031e+02
6.200000e-07	-1.084090e-06	-2.179826e-09	-7.493563e+00	-1.435421e+02
6.300000e-07	-1.033207e-06	-2.141227e-09	-7.141841e+00	-1.411392e+02
6.400000e-07	-9.818046e-07	-2.095149e-09	-6.786534e+00	-1.386994e+02
6.500000e-07	-9.299236e-07	-2.051267e-09	-6.427916e+00	-1.362210e+02
6.600000e-07	-8.776954e-07	-2.020151e-09	-6.066899e+00	-1.336959e+02
6.700000e-07	-8.252534e-07	-1.992054e-09	-5.704404e+00	-1.311129e+02
6.800000e-07	-7.725655e-07	-1.950392e-09	-5.340209e+00	-1.284620e+02
6.900000e-07	-7.195440e-07	-1.899774e-09	-4.973708e+00	-1.257387e+02
7.000000e-07	-6.662046e-07	-1.855417e-09	-4.605009e+00	-1.229454e+02
7.100000e-07	-6.126357e-07	-1.815461e-09	-4.234725e+00	-1.200903e+02
7.200000e-07	-5.588826e-07	-1.772223e-09	-3.863167e+00	-1.171831e+02
7.300000e-07	-5.049169e-07	-1.723589e-09	-3.490140e+00	-1.142305e+02
7.400000e-07	-4.507497e-07	-1.673995e-09	-3.115720e+00	-1.112322e+02
7.500000e-07	-3.964422e-07	-1.628580e-09	-2.740330e+00	-1.081806e+02
7.600000e-07	-3.420315e-07	-1.582820e-09	-2.364226e+00	-1.050621e+02
7.700000e-07	-2.875339e-07	-1.530994e-09	-1.987522e+00	-1.018620e+02
7.800000e-07	-2.329479e-07	-1.477213e-09	-1.610207e+00	-9.856877e+01
7.900000e-07	-1.782823e-07	-1.427130e-09	-1.232342e+00	-9.517721e+01
8.000000e-07	-1.235556e-07	-1.377617e-09	-8.540541e-01	-9.168907e+01
8.100000e-07	-6.882619e-08	-1.322508e-09	-4.757476e-01	-8.811072e+01
8.200000e-07	-1.413880e-08	-1.262950e-09	-9.773172e-02	-8.444934e+01
8.300000e-07	4.055343e-08	-1.204751e-09	2.803177e-01	-8.070902e+01
8.400000e-07	9.527215e-08	-1.148282e-09	6.585502e-01	-7.688866e+01
8.500000e-07	1.499663e-07	-1.090410e-09	1.036613e+00	-7.298219e+01
8.600000e-07	2.046161e-07	-1.028632e-09	1.414369e+00	-6.898096e+01
8.700000e-07	2.591987e-07	-9.651899e-10	1.791661e+00	-6.487699e+01
8.800000e-07	3.136864e-07	-9.030368e-10	2.168296e+00	-6.066549e+01
8.900000e-07	3.680752e-07	-8.390013e-10	2.544248e+00	-5.634540e+01
9.000000e-07	4.223600e-07	-7.706858e-10	2.919481e+00	-5.191759e+01
9.100000e-07	4.764875e-07	-7.008862e-10	3.293627e+00	-4.738150e+01
9.200000e-07	5.304245e-07	-6.319695e-10	3.666456e+00	-4.273173e+01
9.300000e-07	5.841720e-07	-5.615965e-10	4.037976e+00	-3.795619e+01
9.400000e-07	6.376807e-07	-4.852780e-10	4.407844e+00	-3.303664e+01
9.500000e-07	6.909578e-07	-4.039708e-10	4.776112e+00	-2.795173e+01
9.600000e-07	7.439674e-07	-3.225232e-10	5.142530e+00	-2.268123e+01
9.700000e-07	7.966596e-07	-2.417249e-10	5.506755e+00	-1.720987e+01
9.800000e-07	8.490826e-07	-1.566694e-10	5.869118e+00	-1.152903e+01
9.900000e-07	9.013038e-07	-6.533242e-11	6.230087e+00	-5.635850e+00
1.000000e-06	9.531927e-07	2.989456e-11	6.588759e+00	4.700068e-01
1.010000e-06	1.004630e-06	1.266305e-10	6.944306e+00	6.790329e+00
1.020000e-06	1.055525e-06	2.260754e-10	7.296112e+00	1.333105e+01
1.030000e-06	1.105701e-06	3.303322e-10	7.642941e+00	2.010210e+01
1.040000e-06	1.155214e-06	4.385869e-10	7.985195e+00	2.711387e+01
1.050000e-06	1.204244e-06	5.492111e-10	8.324104e+00	3.437091e+01
1.060000e-06	1.252886e-06	6.613929e-10	8.660329e+00	4.186496e+01
1.070000e-06	1.301216e-06	7.776785e-10	8.994402e+00	4.956936e+01
1.080000e-06	1.349250e-06	8.986504e-10	9.326426e+00	5.743704e+01
1.090000e-06	1.396787e-06	1.020301e-09	9.655022e+00	6.540273e+01
1.100000e-06	1.443744e-06	1.140367e-09	9.979597e+00	7.338912e+01
1.110000e-06	1.490238e-06	1.259853e-09	1.030098e+01	8.131517e+01
1.120000e-06	1.536244e-06	1.378466e-09	1.061899e+01	8.910446e+01
1.130000e-06	1.581661e-06	1.493539e-09	1.093292e+01	9.669169e+01
1.140000e-06	1.626536e-06	1.602148e-09	1.124312e+01	1.040260e+02
1.150000e-06	1.671036e-06	1.705622e-09	1.155071e+01	1.110714e+02
1.160000e-06	1.715204e-06	1.806922e-09	1.185601e+01	1.178047e+02
1.170000e-06	1.758800e-06	1.906115e-09	1.215736e+01	1.242126e+02
1.180000e-06	1.801504e-06	2.000552e-09	1.245255e+01	1.302890e+02
1.190000e-06	1.843151e-06	2.088865e-09	1.274043e+01	1.360335e+02
1.200000e-06	1.883958e-06	2.171014e-09	1.302249e+01	1.414501e+02
1.210000e-06	1.924230e-06	2.247431e-09	1.330086e+01	1.465473e+02
1.220000e-06	1.963981e-06	2.317560e-09	1.357564e+01	1.513371e+02
1.230000e-06	2.003135e-06	2.382498e-09	1.384628e+01	1.558344e+02
1.240000e-06	2.041595e-06	2.444254e-09	1.411213e+01	1.600547e+02
1.250000e-06	2.079323e-06	2.504601e-09	1.437292e+01	1.640132e+02
1.260000e-06	2.116357e-06	2.561287e-09	1.462891e+01	1.677233e+02
1.270000e-06	2.152822e-06	2.611689e-09	1.488097e+01	1.711964e+02
1.280000e-06	2.188702e-06	2.657567e-09	1.512898e+01	1.744426e+02
1.290000e-06	2.223672e-06	2.699604e-09	1.537070e+01	1.774721e+02
1.300000e-06	2.257555e-06	2.738640e-09	1.560491e+01	1.802957e+02
1.310000e-06	2.290507e-06	2.774214e-09	1.583269e+01	1.829258e+02
1.320000e-06	2.322747e-06	2.807572e-09	1.605553e+01	1.853757e+02
1.330000e-06	2.354305e-06	2.841154e-09	1.627367e+01	1.876591e+02
1.340000e-06	2.385091e-06	2.873613e-09	1.648648e+01	1.897888e+02
1.350000e-06	2.415060e-06	2.903639e-09	1.669363e+01	1.917767e+02
1.360000e-06	2.444247e-06	2.931105e-09	1.689539e+01	1.936341e+02
1.370000e-06	2.472753e-06	2.956416e-09	1.709242e+01	1.953720e+02
1.380000e-06	2.500496e-06	2.980042e-09	1.728419e+01	1.970024e+02
1.390000e-06	2.527131e-06	3.000941e-09	1.746830e+01	1.985380e+02
1.400000e-06	2.552543e-06	3.020398e-09	1.764396e+01	1.999910e+02
1.410000e-06	2.576965e-06	3.040377e-09	1.781277e+01	2.013716e+02
1.420000e-06	2.600515e-06	3.060050e-09	1.797556e+01	2.026857e+02
1.430000e-06	2.623165e-06	3.077987e-09	1.813212e+01	2.039335e+02
1.440000e-06	2.644937e-06	3.095064e-09	1.828261e+01	2.051102e+02
1.450000e-06	2.665907e-06	3.112879e-09	1.842756e+01	2.062082e+02
1.460000e-06	2.686117e-06	3.130660e-09	1.856726e+01	2.072204e+02
1.470000e-06	2.705453e-06	3.145567e-09	1.870092e+01	2.081441e+02
1.480000e-06	2.723761e-06	3.157340e-09	1.882747e+01	2.089833e+02
1.490000e-06	2.741080e-06	3.167693e-09	1.894718e+01	2.097483e+02
1.500000e-06	2.757461e-06	3.177905e-09	1.906041e+01	2.104537e+02
1.510000e-06	2.772779e-06	3.186935e-09	1.916629e+01	2.111139e+02
1.520000e-06	2.786991e-06	3.195152e-09	1.926453e+01	2.117391e+02
1.530000e-06	2.800219e-06	3.205365e-09	1.935597e+01	2.123321e+02
1.540000e-06	2.812451e-06	3.217844e-09	1.944052e+01	2.128888e+02
1.550000e-06	2.823423e-06	3.228007e-09	1.951636e+01	2.134000e+02
1.560000e-06	2.833064e-06	3.234345e-09	1.958300e+01	2.138564e+02
1.570000e-06	2.841659e-06	3.240757e-09	1.964242e+01	2.142525e+02
1.580000e-06	2.849353e-06	3.247787e-09	1.969560e+01	2.145888e+02
1.590000e-06	2.856098e-06	3.253264e-09	1.974222e+01	2.148722e+02
1.600000e-06	2.861844e-06	3.255932e-09	1.978194e+01	2.151121e+02
1.610000e-06	2.866706e-06	3.258392e-09	1.981555e+01	2.153172e+02
1.620000e-06	2.870760e-06	3.263698e-09	1.984357e+01	2.154912e+02
1.630000e-06	2.873666e-06	3.269839e-09	1.986365e+01	2.156318e+02
1.640000e-06	2.875251e-06	3.273338e-09	1.987462e+01	2.157320e+02
1.650000e-06	2.875813e-06	3.275141e-09	1.987850e+01	2.157842e+02
1.660000e-06	2.875532e-06	3.276150e-09	1.987656e+01	2.157843e+02
1.670000e-06	2.874337e-06	3.274567e-09	1.986830e+01	2.157342e+02
1.680000e-06	2.872243e-06	3.270003e-09	1.985382e+01	2.156418e+02
1.690000e-06	2.869300e-06	3.264971e-09	1.983348e+01	2.155171e+02
1.700000e-06	2.865565e-06	3.263218e-09	1.980766e+01	2.153667e+02
1.710000e-06	2.860917e-06	3.264643e-09	1.977553e+01	2.151891e+02
1.720000e-06	2.855117e-06	3.268043e-09	1.973544e+01	2.149730e+02
1.730000e-06	2.848250e-06	3.250348e-09	1.968798e+01	2.147004e+02
1.740000e-06	2.840463e-06	3.210769e-09	1.963415e+01	2.143532e+02
1.750000e-06	2.831472e-06	3.204256e-09	1.957200e+01	2.139227e+02
1.760000e-06	2.820924e-06	3.269201e-09	1.949909e+01	2.134167e+02
1.770000e-06	2.809279e-06	3.280884e-09	1.941859e+01	2.128620e+02
1.780000e-06	2.797345e-06	3.210921e-09	1.933611e+01	2.122996e+02
1.790000e-06	2.784906e-06	3.201522e-09	1.925012e+01	2.117743e+02
1.800000e-06	2.770965e-06	3.232240e-09	1.915376e+01	2.113211e+02
1.810000e-06	2.755630e-06	3.158973e-09	1.904776e+01	2.109523e+02
1.820000e-06	2.739584e-06	3.131908e-09	1.893684e+01	2.106514e+02
1.830000e-06	2.722561e-06	3.251241e-09	1.881917e+01	2.103752e+02
1.840000e-06	2.704286e-06	3.235862e-09	1.869285e+01	2.100646e+02
1.850000e-06	2.685178e-06	3.121385e-09	1.856077e+01	2.096602e+02
1.860000e-06	2.665359e-06	3.202539e-09	1.842378e+01	2.091186e+02
1.870000e-06	2.644402e-06	3.243125e-09	1.827892e+01	2.084240e+02
1.880000e-06	2.622345e-06	3.089521e-09	1.812645e+01	2.075903e+02
1.890000e-06	2.599345e-06	3.086826e-09	1.796747e+01	2.066546e+02
1.900000e-06	2.575288e-06	3.154603e-09	1.780118e+01	2.056640e+02
1.910000e-06	2.550454e-06	3.111212e-09	1.762952e+01	2.046598e+02
1.920000e-06	2.524904e-06	3.109855e-09	1.745291e+01	2.036660e+02
1.930000e-06	2.498402e-06	3.105158e-09	1.726972e+01	2.026838e+02
1.940000e-06	2.471143e-06	3.045980e-09	1.708129e+01	2.016956e+02
1.950000e-06	2.443162e-06	3.078762e-09	1.688788e+01	2.006742e+02
1.960000e-06	2.414064e-06	3.061007e-09	1.668674e+01	1.995950e+02
1.970000e-06	2.383802e-06	2.962042e-09	1.647757e+01	1.984460e+02
1.980000e-06	2.352661e-06	2.981506e-09	1.626231e+01	1.972314e+02
1.990000e-06	2.320785e-06	3.010955e-09	1.604198e+01	1.959683e+02
2.000000e-06	2.288233e-06	2.980279e-09	1.581697e+01	1.946788e+02
2.010000e-06	2.254883e-06	2.970830e-09	1.558644e+01	1.933802e+02
2.020000e-06	2.220702e-06	2.924876e-09	1.535017e+01	1.920775e+02
2.030000e-06	2.185887e-06	2.890553e-09	1.510952e+01	1.907615e+02
2.040000e-06	2.150491e-06	2.899285e-09	1.486485e+01	1.894127e+02
2.050000e-06	2.114344e-06	2.849406e-09	1.461499e+01	1.880098e+02
2.060000e-06	2.077265e-06	2.814701e-09	1.435869e+01	1.865382e+02
2.070000e-06	2.039145e-06	2.830816e-09	1.409519e+01	1.849962e+02
2.080000e-06	2.000120e-06	2.822411e-09	1.382544e+01	1.833957e+02
2.090000e-06	1.960488e-06	2.791785e-09	1.355149e+01	1.817578e+02
2.100000e-06	1.920264e-06	2.743091e-09	1.327345e+01	1.801045e+02
2.110000e-06	1.879397e-06	2.702198e-09	1.299096e+01	1.784505e+02
2.120000e-06	1.837913e-06	2.687747e-09	1.270421e+01	1.767978e+02
2.130000e-06	1.795860e-06	2.671458e-09	1.241353e+01	1.751359e+02
2.140000e-06	1.753234e-06	2.650878e-09	1.211889e+01	1.734456e+02
2.150000e-06	1.710076e-06	2.624428e-09	1.182057e+01	1.717072e+02
2.160000e-06	1.666514e-06	2.598731e-09	1.151945e+01	1.699070e+02
2.170000e-06	1.622446e-06	2.574769e-09	1.121484e+01	1.680423e+02
2.180000e-06	1.577725e-06	2.534577e-09	1.090571e+01	1.661205e+02
2.190000e-06	1.532351e-06	2.499413e-09	1.059208e+01	1.641552e+02
2.200000e-06	1.486381e-06	2.475521e-09	1.027432e+01	1.621599e+02
2.210000e-06	1.439942e-06	2.454583e-09	9.953319e+00	1.601417e+02
2.220000e-06	1.393083e-06	2.434333e-09	9.629416e+00	1.580993e+02
2.230000e-06	1.345699e-06	2.391622e-09	9.301882e+00	1.560232e+02
2.240000e-06	1.297743e-06	2.347026e-09	8.970396e+00	1.539002e+02
2.250000e-06	1.249219e-06	2.321056e-09	8.634984e+00	1.517194e+02
2.260000e-06	1.200183e-06	2.296865e-09	8.296033e+00	1.494758e+02
2.270000e-06	1.150751e-06	2.266248e-09	7.954341e+00	1.471718e+02
2.280000e-06	1.100950e-06	2.224874e-09	7.610101e+00	1.448158e+02
2.290000e-06	1.050741e-06	2.184631e-09	7.263045e+00	1.424168e+02
2.300000e-06	1.000097e-06	2.152774e-09	6.912974e+00	1.399808e+02
2.310000e-06	9.490198e-07	2.115559e-09	6.559915e+00	1.375067e+02
2.320000e-06	8.976149e-07	2.073721e-09	6.204588e+00	1.349871e+02
2.330000e-06	8.459805e-07	2.036462e-09	5.847676e+00	1.324107e+02
2.340000e-06	7.941146e-07	2.004213e-09	5.489163e+00	1.297673e+02
2.350000e-06	7.419018e-07	1.967080e-09	5.128252e+00	1.270516e+02
2.360000e-06	6.892126e-07	1.918653e-09	4.764048e+00	1.242653e+02
2.370000e-06	6.360611e-07	1.868298e-09	4.396649e+00	1.214163e+02
2.380000e-06	5.824949e-07	1.822818e-09	4.026383e+00	1.185141e+02
2.390000e-06	5.285322e-07	1.782510e-09	3.653376e+00	1.155661e+02
2.400000e-06	4.742907e-07	1.742199e-09	3.278442e+00	1.125729e+02
2.410000e-06	4.198355e-07	1.696437e-09	2.902031e+00	1.095274e+02
2.420000e-06	3.651526e-07	1.649697e-09	2.524046e+00	1.064167e+02
2.430000e-06	3.103106e-07	1.602608e-09	2.144962e+00	1.032258e+02
2.440000e-06	2.553755e-07	1.552696e-09	1.765233e+00	9.994281e+01
2.450000e-06	2.003651e-07	1.498713e-09	1.384985e+00	9.656169e+01
2.460000e-06	1.452838e-07	1.442681e-09	1.004246e+00	9.308352e+01
2.470000e-06	9.018052e-08	1.389386e-09	6.233553e-01	8.951435e+01
2.480000e-06	3.508132e-08	1.335394e-09	2.424928e-01	8.586146e+01
2.490000e-06	-2.004074e-08	1.278018e-09	-1.385277e-01	8.212943e+01
2.500000e-06	-7.516600e-08	1.219132e-09	-5.195703e-01	7.831774e+01
2.510000e-06	-1.302265e-07	1.160700e-09	-9.001655e-01	7.442077e+01
2.520000e-06	-1.852571e-07	1.102204e-09	-1.280554e+00	7.042998e+01
2.530000e-06	-2.402937e-07	1.040386e-09	-1.660984e+00	6.633719e+01
2.540000e-06	-2.952766e-07	9.741397e-10	-2.041042e+00	6.213720e+01
2.550000e-06	-3.501102e-07	9.064360e-10	-2.420069e+00	5.782859e+01
2.560000e-06	-4.047132e-07	8.388540e-10	-2.797501e+00	5.341217e+01
2.570000e-06	-4.591321e-07	7.688997e-10	-3.173661e+00	4.888770e+01
2.580000e-06	-5.133149e-07	6.962066e-10	-3.548189e+00	4.425045e+01
2.590000e-06	-5.672440e-07	6.235035e-10	-3.920964e+00	3.948904e+01
2.600000e-06	-6.207973e-07	5.522229e-10	-4.291141e+00	3.458579e+01
2.610000e-06	-6.739548e-07	4.791862e-10	-4.658581e+00	2.951950e+01
2.620000e-06	-7.267612e-07	3.988938e-10	-5.023596e+00	2.426960e+01
2.630000e-06	-7.790691e-07	3.113415e-10	-5.385164e+00	1.882016e+01
2.640000e-06	-8.309728e-07	2.221681e-10	-5.743938e+00	1.316186e+01
2.650000e-06	-8.825975e-07	1.347800e-10	-6.100784e+00	7.291337e+00
2.660000e-06	-9.339936e-07	4.586342e-11	-6.456049e+00	1.208172e+00
2.670000e-06	-9.851293e-07	-4.984262e-11	-6.809515e+00	-5.089096e+00
2.680000e-06	-1.035880e-06	-1.503461e-10	-7.160317e+00	-1.160590e+01
2.690000e-06	-1.086168e-06	-2.506402e-10	-7.507922e+00	-1.835187e+01
2.700000e-06	-1.136077e-06	-3.549287e-10	-7.852912e+00	-2.533759e+01
2.710000e-06	-1.185555e-06	-4.678744e-10	-8.194916e+00	-3.256859e+01
2.720000e-06	-1.234555e-06	-5.870502e-10	-8.533622e+00	-4.003829e+01
2.730000e-06	-1.283016e-06	-7.057952e-10	-8.868600e+00	-4.772217e+01
2.740000e-06	-1.330676e-06	-8.214488e-10	-9.198042e+00	-5.557532e+01
2.750000e-06	-1.377573e-06	-9.397858e-10	-9.522209e+00	-6.353418e+01
2.760000e-06	-1.423883e-06	-1.063827e-09	-9.842317e+00	-7.152237e+01
2.770000e-06	-1.469754e-06	-1.188848e-09	-1.015939e+01	-7.945881e+01
2.780000e-06	-1.515309e-06	-1.309230e-09	-1.047428e+01	-8.726624e+01
2.790000e-06	-1.560465e-06	-1.425119e-09	-1.078641e+01	-9.487794e+01
2.800000e-06	-1.605076e-06	-1.538626e-09	-1.109477e+01	-1.022415e+02
2.810000e-06	-1.649110e-06	-1.649494e-09	-1.139915e+01	-1.093193e+02
2.820000e-06	-1.692664e-06	-1.754357e-09	-1.170021e+01	-1.160869e+02
2.830000e-06	-1.735870e-06	-1.852172e-09	-1.199886e+01	-1.225302e+02
2.840000e-06	-1.778560e-06	-1.945919e-09	-1.229395e+01	-1.286423e+02
2.850000e-06	-1.820583e-06	-2.036544e-09	-1.258443e+01	-1.344224e+02
2.860000e-06	-1.862062e-06	-2.121213e-09	-1.287114e+01	-1.398739e+02
2.870000e-06	-1.902934e-06	-2.198455e-09	-1.315366e+01	-1.450049e+02
2.880000e-06	-1.943089e-06	-2.270687e-09	-1.343122e+01	-1.498272e+02
2.890000e-06	-1.982631e-06	-2.340977e-09	-1.370455e+01	-1.543551e+02
2.900000e-06	-2.021658e-06	-2.410043e-09	-1.397432e+01	-1.586045e+02
2.910000e-06	-2.059978e-06	-2.475092e-09	-1.423920e+01	-1.625905e+02
2.920000e-06	-2.097302e-06	-2.534941e-09	-1.449719e+01	-1.663267e+02
2.930000e-06	-2.133623e-06	-2.591063e-09	-1.474826e+01	-1.698248e+02
2.940000e-06	-2.169191e-06	-2.644591e-09	-1.499411e+01	-1.730951e+02
