# Temperatura_=_17.6
# Concentracion g/m^3_=_13400.0
# C_Vs_to_Am_M_A/Vsm_=_65563218390.804596
# pendiente_HvsI_1/m_=_3716.3
# ordenada_HvsI_A/m_=_1297.0
# frecuencia_Hz_=_300998.1273761848

Tiempo_(s)	Campo_(V.s)	Magnetizacion_(V.s)	Campo_(kA/m)	Magnetizacion_(A/m)
0.000000e+00	-2.861247e-06	-3.186303e-09	-1.978243e+01	-2.081426e+02
1.000000e-08	-2.860555e-06	-3.188305e-09	-1.977765e+01	-2.080384e+02
2.000000e-08	-2.859048e-06	-3.188923e-09	-1.976723e+01	-2.078823e+02
3.000000e-08	-2.856303e-06	-3.187679e-09	-1.974825e+01	-2.077049e+02
4.000000e-08	-2.852326e-06	-3.185854e-09	-1.972075e+01	-2.075293e+02
5.000000e-08	-2.847569e-06	-3.181480e-09	-1.968786e+01	-2.073607e+02
6.000000e-08	-2.842030e-06	-3.172212e-09	-1.964957e+01	-2.071844e+02
7.000000e-08	-2.835544e-06	-3.156625e-09	-1.960472e+01	-2.069702e+02
8.000000e-08	-2.828041e-06	-3.167919e-09	-1.955285e+01	-2.066858e+02
9.000000e-08	-2.819445e-06	-3.228767e-09	-1.949342e+01	-2.063101e+02
1.000000e-07	-2.809478e-06	-3.243043e-09	-1.942450e+01	-2.058450e+02
1.100000e-07	-2.798002e-06	-3.121184e-09	-1.934516e+01	-2.053175e+02
1.200000e-07	-2.785644e-06	-3.017816e-09	-1.925972e+01	-2.047730e+02
1.300000e-07	-2.772638e-06	-3.143937e-09	-1.916980e+01	-2.042606e+02
1.400000e-07	-2.758624e-06	-3.242765e-09	-1.907291e+01	-2.038160e+02
1.500000e-07	-2.743638e-06	-3.064274e-09	-1.896929e+01	-2.034477e+02
1.600000e-07	-2.727587e-06	-3.061865e-09	-1.885831e+01	-2.031325e+02
1.700000e-07	-2.710140e-06	-3.218447e-09	-1.873769e+01	-2.028209e+02
1.800000e-07	-2.691652e-06	-3.099832e-09	-1.860987e+01	-2.024524e+02
1.900000e-07	-2.672535e-06	-2.980890e-09	-1.847769e+01	-2.019735e+02
2.000000e-07	-2.652594e-06	-3.106392e-09	-1.833982e+01	-2.013538e+02
2.100000e-07	-2.631681e-06	-3.062978e-09	-1.819523e+01	-2.005933e+02
2.200000e-07	-2.609917e-06	-2.933043e-09	-1.804476e+01	-1.997200e+02
2.300000e-07	-2.587350e-06	-3.099065e-09	-1.788873e+01	-1.987778e+02
2.400000e-07	-2.563820e-06	-3.130512e-09	-1.772604e+01	-1.978101e+02
2.500000e-07	-2.539470e-06	-2.939653e-09	-1.755769e+01	-1.968454e+02
2.600000e-07	-2.514382e-06	-2.943390e-09	-1.738423e+01	-1.958892e+02
2.700000e-07	-2.488194e-06	-2.992114e-09	-1.720317e+01	-1.949247e+02
2.800000e-07	-2.460822e-06	-2.935931e-09	-1.701392e+01	-1.939224e+02
2.900000e-07	-2.432520e-06	-2.940239e-09	-1.681825e+01	-1.928531e+02
3.000000e-07	-2.403381e-06	-2.903731e-09	-1.661678e+01	-1.916998e+02
3.100000e-07	-2.373457e-06	-2.900448e-09	-1.640989e+01	-1.904638e+02
3.200000e-07	-2.342855e-06	-2.948448e-09	-1.619831e+01	-1.891639e+02
3.300000e-07	-2.311486e-06	-2.856378e-09	-1.598143e+01	-1.878278e+02
3.400000e-07	-2.279371e-06	-2.783933e-09	-1.575939e+01	-1.864815e+02
3.500000e-07	-2.246684e-06	-2.823852e-09	-1.553340e+01	-1.851395e+02
3.600000e-07	-2.213256e-06	-2.793689e-09	-1.530228e+01	-1.838008e+02
3.700000e-07	-2.178654e-06	-2.773064e-09	-1.506304e+01	-1.824505e+02
3.800000e-07	-2.142885e-06	-2.800586e-09	-1.481573e+01	-1.810677e+02
3.900000e-07	-2.106455e-06	-2.722965e-09	-1.456386e+01	-1.796345e+02
4.000000e-07	-2.069535e-06	-2.699495e-09	-1.430860e+01	-1.781434e+02
4.100000e-07	-2.031856e-06	-2.729646e-09	-1.404809e+01	-1.766003e+02
4.200000e-07	-1.993416e-06	-2.662410e-09	-1.378232e+01	-1.750210e+02
4.300000e-07	-1.954208e-06	-2.598185e-09	-1.351123e+01	-1.734240e+02
4.400000e-07	-1.914236e-06	-2.616174e-09	-1.323488e+01	-1.718225e+02
4.500000e-07	-1.873811e-06	-2.615911e-09	-1.295538e+01	-1.702186e+02
4.600000e-07	-1.833050e-06	-2.577360e-09	-1.267356e+01	-1.686015e+02
4.700000e-07	-1.791684e-06	-2.538412e-09	-1.238756e+01	-1.669523e+02
4.800000e-07	-1.749294e-06	-2.501692e-09	-1.209448e+01	-1.652501e+02
4.900000e-07	-1.705815e-06	-2.486536e-09	-1.179387e+01	-1.634798e+02
5.000000e-07	-1.661648e-06	-2.467162e-09	-1.148850e+01	-1.616370e+02
5.100000e-07	-1.617097e-06	-2.425835e-09	-1.118048e+01	-1.597282e+02
5.200000e-07	-1.572104e-06	-2.383596e-09	-1.086940e+01	-1.577674e+02
5.300000e-07	-1.526520e-06	-2.370222e-09	-1.055423e+01	-1.557696e+02
5.400000e-07	-1.480370e-06	-2.349242e-09	-1.023516e+01	-1.537452e+02
5.500000e-07	-1.433718e-06	-2.307603e-09	-9.912610e+00	-1.516963e+02
5.600000e-07	-1.386540e-06	-2.261760e-09	-9.586426e+00	-1.496168e+02
5.700000e-07	-1.338865e-06	-2.226564e-09	-9.256805e+00	-1.474964e+02
5.800000e-07	-1.290791e-06	-2.212352e-09	-8.924426e+00	-1.453252e+02
5.900000e-07	-1.242407e-06	-2.185316e-09	-8.589901e+00	-1.430984e+02
6.000000e-07	-1.193661e-06	-2.136491e-09	-8.252876e+00	-1.408177e+02
6.100000e-07	-1.144338e-06	-2.092575e-09	-7.911863e+00	-1.384902e+02
6.200000e-07	-1.094238e-06	-2.067428e-09	-7.565475e+00	-1.361245e+02
6.300000e-07	-1.043399e-06	-2.034770e-09	-7.213975e+00	-1.337263e+02
6.400000e-07	-9.919410e-07	-1.986708e-09	-6.858201e+00	-1.312954e+02
6.500000e-07	-9.400271e-07	-1.937859e-09	-6.499272e+00	-1.288255e+02
6.600000e-07	-8.878109e-07	-1.905676e-09	-6.138253e+00	-1.263062e+02
6.700000e-07	-8.353788e-07	-1.881922e-09	-5.775742e+00	-1.237276e+02
6.800000e-07	-7.827476e-07	-1.840032e-09	-5.411854e+00	-1.210837e+02
6.900000e-07	-7.298076e-07	-1.788125e-09	-5.045831e+00	-1.183748e+02
7.000000e-07	-6.764866e-07	-1.744239e-09	-4.677174e+00	-1.156067e+02
7.100000e-07	-6.228843e-07	-1.708389e-09	-4.306572e+00	-1.127879e+02
7.200000e-07	-5.691717e-07	-1.662568e-09	-3.935207e+00	-1.099250e+02
7.300000e-07	-5.153150e-07	-1.608544e-09	-3.562847e+00	-1.070195e+02
7.400000e-07	-4.612380e-07	-1.559485e-09	-3.188962e+00	-1.040657e+02
7.500000e-07	-4.069805e-07	-1.520320e-09	-2.813830e+00	-1.010523e+02
7.600000e-07	-3.526076e-07	-1.479874e-09	-2.437901e+00	-9.796495e+01
7.700000e-07	-2.981905e-07	-1.425926e-09	-2.061665e+00	-9.479118e+01
7.800000e-07	-2.436937e-07	-1.368772e-09	-1.684879e+00	-9.152326e+01
7.900000e-07	-1.890875e-07	-1.318670e-09	-1.307336e+00	-8.816015e+01
8.000000e-07	-1.344202e-07	-1.271109e-09	-9.293702e-01	-8.470688e+01
8.100000e-07	-7.975918e-08	-1.214759e-09	-5.514486e-01	-8.117215e+01
8.200000e-07	-2.509300e-08	-1.155260e-09	-1.734910e-01	-7.756526e+01
8.300000e-07	2.959027e-08	-1.101782e-09	2.045848e-01	-7.389336e+01
8.400000e-07	8.423720e-08	-1.051615e-09	5.824092e-01	-7.015992e+01
8.500000e-07	1.388824e-07	-9.955111e-10	9.602219e-01	-6.636449e+01
8.600000e-07	1.935011e-07	-9.316405e-10	1.337851e+00	-6.250337e+01
8.700000e-07	2.480372e-07	-8.687278e-10	1.714909e+00	-5.857056e+01
8.800000e-07	3.025143e-07	-8.107948e-10	2.091560e+00	-5.455836e+01
8.900000e-07	3.569001e-07	-7.519247e-10	2.467579e+00	-5.045761e+01
9.000000e-07	4.111678e-07	-6.851150e-10	2.842781e+00	-4.625772e+01
9.100000e-07	4.653377e-07	-6.168716e-10	3.217308e+00	-4.194697e+01
9.200000e-07	5.193994e-07	-5.524353e-10	3.591086e+00	-3.751356e+01
9.300000e-07	5.733012e-07	-4.884529e-10	3.963758e+00	-3.294708e+01
9.400000e-07	6.269430e-07	-4.173629e-10	4.334633e+00	-2.824019e+01
9.500000e-07	6.802474e-07	-3.383586e-10	4.703176e+00	-2.338949e+01
9.600000e-07	7.332756e-07	-2.604852e-10	5.069809e+00	-1.839507e+01
9.700000e-07	7.860992e-07	-1.859202e-10	5.435027e+00	-1.325857e+01
9.800000e-07	8.386681e-07	-1.086695e-10	5.798484e+00	-7.980309e+00
9.900000e-07	8.909484e-07	-2.356717e-11	6.159946e+00	-2.556400e+00
1.000000e-06	9.429013e-07	6.456512e-11	6.519144e+00	3.022679e+00
1.010000e-06	9.944042e-07	1.511418e-10	6.875231e+00	8.771403e+00
1.020000e-06	1.045328e-06	2.392782e-10	7.227314e+00	1.470620e+01
1.030000e-06	1.095587e-06	3.337289e-10	7.574800e+00	2.084092e+01
1.040000e-06	1.145225e-06	4.336342e-10	7.917994e+00	2.718215e+01
1.050000e-06	1.194340e-06	5.340188e-10	8.257571e+00	3.372581e+01
1.060000e-06	1.243002e-06	6.341117e-10	8.594016e+00	4.045603e+01
1.070000e-06	1.291354e-06	7.378751e-10	8.928318e+00	4.734638e+01
1.080000e-06	1.339394e-06	8.468565e-10	9.260462e+00	5.436274e+01
1.090000e-06	1.386958e-06	9.566415e-10	9.589317e+00	6.146638e+01
1.100000e-06	1.434015e-06	1.064564e-09	9.914664e+00	6.861631e+01
1.110000e-06	1.480547e-06	1.171845e-09	1.023638e+01	7.576995e+01
1.120000e-06	1.526567e-06	1.280355e-09	1.055456e+01	8.288274e+01
1.130000e-06	1.572047e-06	1.388947e-09	1.086901e+01	8.990747e+01
1.140000e-06	1.616997e-06	1.492959e-09	1.117979e+01	9.679472e+01
1.150000e-06	1.661572e-06	1.592238e-09	1.148798e+01	1.034952e+02
1.160000e-06	1.705787e-06	1.689464e-09	1.179367e+01	1.099637e+02
1.170000e-06	1.749457e-06	1.784959e-09	1.209561e+01	1.161645e+02
1.180000e-06	1.792299e-06	1.876161e-09	1.239181e+01	1.220749e+02
1.190000e-06	1.834137e-06	1.961820e-09	1.268107e+01	1.276873e+02
1.200000e-06	1.875116e-06	2.042068e-09	1.296440e+01	1.330071e+02
1.210000e-06	1.915547e-06	2.117483e-09	1.324394e+01	1.380479e+02
1.220000e-06	1.955450e-06	2.187847e-09	1.351982e+01	1.428257e+02
1.230000e-06	1.994716e-06	2.253769e-09	1.379131e+01	1.473529e+02
1.240000e-06	2.033303e-06	2.317109e-09	1.405810e+01	1.516354e+02
1.250000e-06	2.071192e-06	2.377334e-09	1.432006e+01	1.556735e+02
1.260000e-06	2.108382e-06	2.432994e-09	1.457718e+01	1.594653e+02
1.270000e-06	2.144997e-06	2.483861e-09	1.483034e+01	1.630113e+02
1.280000e-06	2.181091e-06	2.531466e-09	1.507989e+01	1.663190e+02
1.290000e-06	2.216361e-06	2.575538e-09	1.532374e+01	1.694033e+02
1.300000e-06	2.250517e-06	2.615988e-09	1.555990e+01	1.722855e+02
1.310000e-06	2.283648e-06	2.652729e-09	1.578896e+01	1.749875e+02
1.320000e-06	2.316044e-06	2.687023e-09	1.601294e+01	1.775275e+02
1.330000e-06	2.347725e-06	2.721030e-09	1.623198e+01	1.799163e+02
1.340000e-06	2.378608e-06	2.754576e-09	1.644550e+01	1.821569e+02
1.350000e-06	2.408717e-06	2.786199e-09	1.665368e+01	1.842483e+02
1.360000e-06	2.438041e-06	2.814808e-09	1.685642e+01	1.861904e+02
1.370000e-06	2.466662e-06	2.840780e-09	1.705431e+01	1.879894e+02
1.380000e-06	2.494628e-06	2.864228e-09	1.724766e+01	1.896600e+02
1.390000e-06	2.521551e-06	2.885761e-09	1.743380e+01	1.912239e+02
1.400000e-06	2.547170e-06	2.905778e-09	1.761093e+01	1.927047e+02
1.410000e-06	2.571755e-06	2.926191e-09	1.778091e+01	1.941207e+02
1.420000e-06	2.595481e-06	2.947445e-09	1.794495e+01	1.954800e+02
1.430000e-06	2.618326e-06	2.966861e-09	1.810289e+01	1.967780e+02
1.440000e-06	2.640306e-06	2.984530e-09	1.825486e+01	1.980007e+02
1.450000e-06	2.661438e-06	3.001365e-09	1.840097e+01	1.991313e+02
1.460000e-06	2.681801e-06	3.017361e-09	1.854175e+01	2.001584e+02
1.470000e-06	2.701336e-06	3.031087e-09	1.867682e+01	2.010820e+02
1.480000e-06	2.719848e-06	3.042847e-09	1.880481e+01	2.019157e+02
1.490000e-06	2.737397e-06	3.054154e-09	1.892615e+01	2.026822e+02
1.500000e-06	2.753992e-06	3.066372e-09	1.904088e+01	2.034063e+02
1.510000e-06	2.769534e-06	3.079348e-09	1.914834e+01	2.041057e+02
1.520000e-06	2.783998e-06	3.090762e-09	1.924834e+01	2.047850e+02
1.530000e-06	2.797393e-06	3.100467e-09	1.934095e+01	2.054347e+02
1.540000e-06	2.809754e-06	3.110980e-09	1.942642e+01	2.060356e+02
1.550000e-06	2.820875e-06	3.120469e-09	1.950330e+01	2.065680e+02
1.560000e-06	2.830667e-06	3.126222e-09	1.957100e+01	2.070203e+02
1.570000e-06	2.839459e-06	3.131072e-09	1.963179e+01	2.073947e+02
1.580000e-06	2.847390e-06	3.136979e-09	1.968662e+01	2.077075e+02
1.590000e-06	2.854309e-06	3.144070e-09	1.973446e+01	2.079823e+02
1.600000e-06	2.860210e-06	3.150605e-09	1.977526e+01	2.082412e+02
1.610000e-06	2.865264e-06	3.154643e-09	1.981020e+01	2.084947e+02
1.620000e-06	2.869539e-06	3.156117e-09	1.983976e+01	2.087374e+02
1.630000e-06	2.872679e-06	3.159110e-09	1.986147e+01	2.089490e+02
1.640000e-06	2.874432e-06	3.164113e-09	1.987359e+01	2.091027e+02
1.650000e-06	2.875142e-06	3.168141e-09	1.987850e+01	2.091754e+02
1.660000e-06	2.875053e-06	3.169152e-09	1.987789e+01	2.091585e+02
1.670000e-06	2.874060e-06	3.166231e-09	1.987102e+01	2.090613e+02
1.680000e-06	2.872124e-06	3.161568e-09	1.985763e+01	2.089090e+02
1.690000e-06	2.869349e-06	3.158497e-09	1.983845e+01	2.087322e+02
1.700000e-06	2.865853e-06	3.156016e-09	1.981428e+01	2.085555e+02
1.710000e-06	2.861465e-06	3.154047e-09	1.978394e+01	2.083863e+02
1.720000e-06	2.855856e-06	3.160730e-09	1.974516e+01	2.082117e+02
1.730000e-06	2.849117e-06	3.175902e-09	1.969857e+01	2.080030e+02
1.740000e-06	2.841540e-06	3.131909e-09	1.964618e+01	2.077271e+02
1.750000e-06	2.832878e-06	3.042396e-09	1.958629e+01	2.073613e+02
1.760000e-06	2.822603e-06	3.071085e-09	1.951525e+01	2.069046e+02
1.770000e-06	2.810980e-06	3.233300e-09	1.943489e+01	2.063815e+02
1.780000e-06	2.799028e-06	3.211636e-09	1.935226e+01	2.058361e+02
1.790000e-06	2.786857e-06	3.029142e-09	1.926811e+01	2.053179e+02
1.800000e-06	2.773268e-06	3.048972e-09	1.917415e+01	2.048648e+02
1.810000e-06	2.758012e-06	3.191591e-09	1.906867e+01	2.044886e+02
1.820000e-06	2.742106e-06	3.050565e-09	1.895870e+01	2.041693e+02
1.830000e-06	2.725525e-06	2.972350e-09	1.884406e+01	2.038599e+02
1.840000e-06	2.707506e-06	3.212880e-09	1.871948e+01	2.035001e+02
1.850000e-06	2.688478e-06	3.158762e-09	1.858792e+01	2.030347e+02
1.860000e-06	2.668962e-06	2.963100e-09	1.845299e+01	2.024303e+02
1.870000e-06	2.648309e-06	3.142359e-09	1.831020e+01	2.016837e+02
1.880000e-06	2.626373e-06	3.146773e-09	1.815853e+01	2.008203e+02
1.890000e-06	2.603538e-06	2.877473e-09	1.800065e+01	1.998829e+02
1.900000e-06	2.579667e-06	2.991359e-09	1.783561e+01	1.989159e+02
1.910000e-06	2.554886e-06	3.126847e-09	1.766428e+01	1.979499e+02
1.920000e-06	2.529450e-06	2.985713e-09	1.748842e+01	1.969929e+02
1.930000e-06	2.503142e-06	2.974211e-09	1.730652e+01	1.960303e+02
1.940000e-06	2.476049e-06	2.997562e-09	1.711921e+01	1.950333e+02
1.950000e-06	2.448312e-06	2.931613e-09	1.692743e+01	1.939720e+02
1.960000e-06	2.419411e-06	2.972205e-09	1.672761e+01	1.928277e+02
1.970000e-06	2.389226e-06	2.883871e-09	1.651892e+01	1.915997e+02
1.980000e-06	2.358220e-06	2.824239e-09	1.630454e+01	1.903051e+02
1.990000e-06	2.326520e-06	2.962801e-09	1.608537e+01	1.889712e+02
2.000000e-06	2.294099e-06	2.887594e-09	1.586122e+01	1.876247e+02
2.010000e-06	2.260899e-06	2.801363e-09	1.563167e+01	1.862818e+02
2.020000e-06	2.226821e-06	2.863412e-09	1.539606e+01	1.849429e+02
2.030000e-06	2.192095e-06	2.768349e-09	1.515597e+01	1.835946e+02
2.040000e-06	2.156802e-06	2.743973e-09	1.491195e+01	1.822159e+02
2.050000e-06	2.120744e-06	2.806025e-09	1.466265e+01	1.807883e+02
2.060000e-06	2.083880e-06	2.701377e-09	1.440778e+01	1.793031e+02
2.070000e-06	2.045957e-06	2.689276e-09	1.414558e+01	1.777647e+02
2.080000e-06	2.007063e-06	2.730614e-09	1.387667e+01	1.761881e+02
2.090000e-06	1.967648e-06	2.666234e-09	1.360416e+01	1.745919e+02
2.100000e-06	1.927654e-06	2.636140e-09	1.332765e+01	1.729903e+02
2.110000e-06	1.886968e-06	2.598257e-09	1.304635e+01	1.713866e+02
2.120000e-06	1.845648e-06	2.577081e-09	1.276066e+01	1.697715e+02
2.130000e-06	1.803689e-06	2.586370e-09	1.247056e+01	1.681265e+02
2.140000e-06	1.761134e-06	2.538532e-09	1.217634e+01	1.664305e+02
2.150000e-06	1.718082e-06	2.504784e-09	1.187868e+01	1.646676e+02
2.160000e-06	1.674634e-06	2.488641e-09	1.157829e+01	1.628322e+02
2.170000e-06	1.630716e-06	2.463158e-09	1.127464e+01	1.609296e+02
2.180000e-06	1.586074e-06	2.435795e-09	1.096599e+01	1.589732e+02
2.190000e-06	1.540731e-06	2.387100e-09	1.065249e+01	1.569785e+02
2.200000e-06	1.494831e-06	2.361558e-09	1.033514e+01	1.549564e+02
2.210000e-06	1.448539e-06	2.346168e-09	1.001508e+01	1.529100e+02
2.220000e-06	1.401881e-06	2.313097e-09	9.692489e+00	1.508340e+02
2.230000e-06	1.354694e-06	2.284273e-09	9.366245e+00	1.487182e+02
2.240000e-06	1.306871e-06	2.230429e-09	9.035600e+00	1.465525e+02
2.250000e-06	1.258410e-06	2.200792e-09	8.700542e+00	1.443314e+02
2.260000e-06	1.209477e-06	2.187683e-09	8.362226e+00	1.420559e+02
2.270000e-06	1.160235e-06	2.140787e-09	8.021773e+00	1.397327e+02
2.280000e-06	1.110606e-06	2.102599e-09	7.678639e+00	1.373705e+02
2.290000e-06	1.060467e-06	2.068488e-09	7.331982e+00	1.349753e+02
2.300000e-06	1.009830e-06	2.040950e-09	6.981881e+00	1.325479e+02
2.310000e-06	9.588574e-07	2.008819e-09	6.629463e+00	1.300822e+02
2.320000e-06	9.076597e-07	1.954314e-09	6.275486e+00	1.275685e+02
2.330000e-06	8.561815e-07	1.913054e-09	5.919570e+00	1.249963e+02
2.340000e-06	8.043779e-07	1.882234e-09	5.561404e+00	1.223592e+02
2.350000e-06	7.521744e-07	1.843903e-09	5.200473e+00	1.196568e+02
2.360000e-06	6.995395e-07	1.799922e-09	4.836560e+00	1.168944e+02
2.370000e-06	6.464561e-07	1.751207e-09	4.469545e+00	1.140803e+02
2.380000e-06	5.929283e-07	1.714553e-09	4.099459e+00	1.112217e+02
2.390000e-06	5.390490e-07	1.678152e-09	3.726941e+00	1.083206e+02
2.400000e-06	4.848566e-07	1.629597e-09	3.352259e+00	1.053722e+02
2.410000e-06	4.303864e-07	1.580925e-09	2.975657e+00	1.023655e+02
2.420000e-06	3.757689e-07	1.533293e-09	2.598036e+00	9.928645e+01
2.430000e-06	3.210023e-07	1.491781e-09	2.219384e+00	9.612212e+01
2.440000e-06	2.661054e-07	1.444042e-09	1.839832e+00	9.286416e+01
2.450000e-06	2.111507e-07	1.386020e-09	1.459879e+00	8.951081e+01
2.460000e-06	1.561063e-07	1.332156e-09	1.079307e+00	8.606653e+01
2.470000e-06	1.010389e-07	1.281873e-09	6.985749e-01	8.253978e+01
2.480000e-06	4.597590e-08	1.230892e-09	3.178737e-01	7.893993e+01
2.490000e-06	-9.075635e-09	1.171983e-09	-6.274821e-02	7.527447e+01
2.500000e-06	-6.414889e-08	1.111062e-09	-4.435203e-01	7.154728e+01
2.510000e-06	-1.192239e-07	1.056199e-09	-8.243045e-01	6.775833e+01
2.520000e-06	-1.742469e-07	1.000589e-09	-1.204729e+00	6.390421e+01
2.530000e-06	-2.292378e-07	9.382632e-10	-1.584932e+00	5.997913e+01
2.540000e-06	-2.841963e-07	8.722829e-10	-1.964910e+00	5.597555e+01
2.550000e-06	-3.390848e-07	8.109379e-10	-2.344405e+00	5.188449e+01
2.560000e-06	-3.937803e-07	7.532954e-10	-2.722566e+00	4.769547e+01
2.570000e-06	-4.482301e-07	6.882773e-10	-3.099027e+00	4.339688e+01
2.580000e-06	-5.024844e-07	6.158626e-10	-3.474136e+00	3.897685e+01
2.590000e-06	-5.564862e-07	5.446336e-10	-3.847501e+00	3.442476e+01
2.600000e-06	-6.102002e-07	4.747921e-10	-4.218875e+00	2.973286e+01
2.610000e-06	-6.635784e-07	4.022114e-10	-4.587928e+00	2.489732e+01
2.620000e-06	-7.165184e-07	3.229485e-10	-4.953950e+00	1.991793e+01
2.630000e-06	-7.689946e-07	2.419182e-10	-5.316767e+00	1.479630e+01
2.640000e-06	-8.210100e-07	1.635271e-10	-5.676397e+00	9.533023e+00
2.650000e-06	-8.726372e-07	8.514042e-11	-6.033344e+00	4.124779e+00
2.660000e-06	-9.239710e-07	1.476976e-12	-6.388261e+00	-1.437344e+00
2.670000e-06	-9.750592e-07	-8.814365e-11	-6.741481e+00	-7.167398e+00
2.680000e-06	-1.025797e-06	-1.782867e-10	-7.092276e+00	-1.308180e+01
2.690000e-06	-1.076133e-06	-2.685268e-10	-7.440297e+00	-1.919492e+01
2.700000e-06	-1.126072e-06	-3.641712e-10	-7.785572e+00	-2.551430e+01
2.710000e-06	-1.175625e-06	-4.672271e-10	-8.128179e+00	-3.203711e+01
2.720000e-06	-1.224717e-06	-5.714078e-10	-8.467593e+00	-3.874873e+01
2.730000e-06	-1.273256e-06	-6.731041e-10	-8.803191e+00	-4.562375e+01
2.740000e-06	-1.321054e-06	-7.760872e-10	-9.133663e+00	-5.262869e+01
2.750000e-06	-1.368048e-06	-8.856006e-10	-9.458577e+00	-5.972521e+01
2.760000e-06	-1.414444e-06	-9.977670e-10	-9.779350e+00	-6.687248e+01
2.770000e-06	-1.460375e-06	-1.105336e-09	-1.009691e+01	-7.402811e+01
2.780000e-06	-1.505989e-06	-1.210886e-09	-1.041229e+01	-8.114777e+01
2.790000e-06	-1.551259e-06	-1.320009e-09	-1.072528e+01	-8.818457e+01
2.800000e-06	-1.596037e-06	-1.431851e-09	-1.103487e+01	-9.508923e+01
2.810000e-06	-1.640202e-06	-1.536755e-09	-1.134023e+01	-1.018122e+02
2.820000e-06	-1.683802e-06	-1.631910e-09	-1.164167e+01	-1.083078e+02
2.830000e-06	-1.727007e-06	-1.723561e-09	-1.194039e+01	-1.145390e+02
2.840000e-06	-1.769780e-06	-1.815102e-09	-1.223612e+01	-1.204814e+02
2.850000e-06	-1.811964e-06	-1.903331e-09	-1.252778e+01	-1.261260e+02
2.860000e-06	-1.853540e-06	-1.984833e-09	-1.281523e+01	-1.314768e+02
2.870000e-06	-1.894523e-06	-2.063168e-09	-1.309858e+01	-1.365471e+02
2.880000e-06	-1.934851e-06	-2.139455e-09	-1.337740e+01	-1.413527e+02
2.890000e-06	-1.974543e-06	-2.212021e-09	-1.365183e+01	-1.459065e+02
2.900000e-06	-2.013661e-06	-2.278440e-09	-1.392229e+01	-1.502155e+02
2.910000e-06	-2.052076e-06	-2.340174e-09	-1.418789e+01	-1.542802e+02
2.920000e-06	-2.089571e-06	-2.400937e-09	-1.444713e+01	-1.580987e+02
2.930000e-06	-2.126057e-06	-2.460758e-09	-1.469939e+01	-1.616712e+02
2.940000e-06	-2.161703e-06	-2.516072e-09	-1.494584e+01	-1.650040e+02
