# Temperatura_=_28.35
# Concentracion g/m^3_=_13400.0
# C_Vs_to_Am_M_A/Vsm_=_65563218390.804596
# pendiente_HvsI_1/m_=_3716.3
# ordenada_HvsI_A/m_=_1297.0
# frecuencia_Hz_=_300978.2968641153

Tiempo_(s)	Campo_(V.s)	Magnetizacion_(V.s)	Campo_(kA/m)	Magnetizacion_(A/m)
0.000000e+00	-2.863238e-06	-3.313429e-09	-1.978328e+01	-2.172000e+02
1.000000e-08	-2.862562e-06	-3.317798e-09	-1.977862e+01	-2.171717e+02
2.000000e-08	-2.861006e-06	-3.319495e-09	-1.976787e+01	-2.171219e+02
3.000000e-08	-2.858148e-06	-3.318397e-09	-1.974812e+01	-2.170556e+02
4.000000e-08	-2.854137e-06	-3.315768e-09	-1.972041e+01	-2.169688e+02
5.000000e-08	-2.849343e-06	-3.310800e-09	-1.968728e+01	-2.168477e+02
6.000000e-08	-2.843687e-06	-3.302193e-09	-1.964820e+01	-2.166726e+02
7.000000e-08	-2.837156e-06	-3.291426e-09	-1.960307e+01	-2.164245e+02
8.000000e-08	-2.829632e-06	-3.324700e-09	-1.955109e+01	-2.160918e+02
9.000000e-08	-2.820940e-06	-3.377729e-09	-1.949103e+01	-2.156757e+02
1.000000e-07	-2.810795e-06	-3.338234e-09	-1.942094e+01	-2.151913e+02
1.100000e-07	-2.799233e-06	-3.164702e-09	-1.934105e+01	-2.146645e+02
1.200000e-07	-2.786874e-06	-3.180677e-09	-1.925566e+01	-2.141242e+02
1.300000e-07	-2.773814e-06	-3.367280e-09	-1.916542e+01	-2.135945e+02
1.400000e-07	-2.759782e-06	-3.333715e-09	-1.906847e+01	-2.130875e+02
1.500000e-07	-2.744765e-06	-3.111878e-09	-1.896471e+01	-2.126000e+02
1.600000e-07	-2.728544e-06	-3.287273e-09	-1.885263e+01	-2.121152e+02
1.700000e-07	-2.710939e-06	-3.394142e-09	-1.873099e+01	-2.116081e+02
1.800000e-07	-2.692469e-06	-3.113571e-09	-1.860337e+01	-2.110530e+02
1.900000e-07	-2.673416e-06	-3.192327e-09	-1.847173e+01	-2.104305e+02
2.000000e-07	-2.653468e-06	-3.327932e-09	-1.833390e+01	-2.097319e+02
2.100000e-07	-2.632509e-06	-3.113425e-09	-1.818909e+01	-2.089591e+02
2.200000e-07	-2.610775e-06	-3.091394e-09	-1.803892e+01	-2.081225e+02
2.300000e-07	-2.588223e-06	-3.324356e-09	-1.788309e+01	-2.072349e+02
2.400000e-07	-2.564656e-06	-3.203848e-09	-1.772026e+01	-2.063077e+02
2.500000e-07	-2.540267e-06	-3.063478e-09	-1.755175e+01	-2.053469e+02
2.600000e-07	-2.515060e-06	-3.134354e-09	-1.737758e+01	-2.043536e+02
2.700000e-07	-2.488735e-06	-3.120638e-09	-1.719570e+01	-2.033252e+02
2.800000e-07	-2.461283e-06	-3.081522e-09	-1.700601e+01	-2.022584e+02
2.900000e-07	-2.432920e-06	-3.106228e-09	-1.681004e+01	-2.011523e+02
3.000000e-07	-2.403712e-06	-3.008520e-09	-1.660823e+01	-2.000089e+02
3.100000e-07	-2.373724e-06	-3.046888e-09	-1.640103e+01	-1.988326e+02
3.200000e-07	-2.343035e-06	-3.106629e-09	-1.618899e+01	-1.976280e+02
3.300000e-07	-2.311538e-06	-2.956178e-09	-1.597136e+01	-1.963976e+02
3.400000e-07	-2.279307e-06	-2.964027e-09	-1.574867e+01	-1.951403e+02
3.500000e-07	-2.246507e-06	-2.978736e-09	-1.552204e+01	-1.938517e+02
3.600000e-07	-2.212919e-06	-2.902461e-09	-1.528997e+01	-1.925259e+02
3.700000e-07	-2.178200e-06	-2.942731e-09	-1.505008e+01	-1.911580e+02
3.800000e-07	-2.142412e-06	-2.952988e-09	-1.480281e+01	-1.897462e+02
3.900000e-07	-2.105965e-06	-2.827373e-09	-1.455098e+01	-1.882926e+02
4.000000e-07	-2.068970e-06	-2.860182e-09	-1.429536e+01	-1.868026e+02
4.100000e-07	-2.031211e-06	-2.887713e-09	-1.403447e+01	-1.852823e+02
4.200000e-07	-1.992690e-06	-2.773088e-09	-1.376831e+01	-1.837365e+02
4.300000e-07	-1.953419e-06	-2.743351e-09	-1.349697e+01	-1.821659e+02
4.400000e-07	-1.913418e-06	-2.770180e-09	-1.322059e+01	-1.805675e+02
4.500000e-07	-1.872966e-06	-2.755868e-09	-1.294109e+01	-1.789354e+02
4.600000e-07	-1.832170e-06	-2.717757e-09	-1.265922e+01	-1.772629e+02
4.700000e-07	-1.790667e-06	-2.683356e-09	-1.237245e+01	-1.755453e+02
4.800000e-07	-1.748068e-06	-2.631622e-09	-1.207812e+01	-1.737809e+02
4.900000e-07	-1.704508e-06	-2.620602e-09	-1.177714e+01	-1.719715e+02
5.000000e-07	-1.660352e-06	-2.602347e-09	-1.147206e+01	-1.701210e+02
5.100000e-07	-1.615809e-06	-2.557850e-09	-1.116429e+01	-1.682335e+02
5.200000e-07	-1.570801e-06	-2.529488e-09	-1.085331e+01	-1.663113e+02
5.300000e-07	-1.525221e-06	-2.514635e-09	-1.053838e+01	-1.643544e+02
5.400000e-07	-1.479050e-06	-2.488112e-09	-1.021936e+01	-1.623608e+02
5.500000e-07	-1.432294e-06	-2.441950e-09	-9.896308e+00	-1.603278e+02
5.600000e-07	-1.384999e-06	-2.394968e-09	-9.569527e+00	-1.582540e+02
5.700000e-07	-1.337246e-06	-2.354452e-09	-9.239582e+00	-1.561394e+02
5.800000e-07	-1.289133e-06	-2.351425e-09	-8.907149e+00	-1.539859e+02
5.900000e-07	-1.240655e-06	-2.323669e-09	-8.572196e+00	-1.517956e+02
6.000000e-07	-1.191781e-06	-2.271991e-09	-8.234505e+00	-1.495691e+02
6.100000e-07	-1.142351e-06	-2.233773e-09	-7.892969e+00	-1.473038e+02
6.200000e-07	-1.092151e-06	-2.204682e-09	-7.546120e+00	-1.449942e+02
6.300000e-07	-1.041202e-06	-2.171700e-09	-7.194091e+00	-1.426325e+02
6.400000e-07	-9.897426e-07	-2.124883e-09	-6.838538e+00	-1.402114e+02
6.500000e-07	-9.379116e-07	-2.079954e-09	-6.480417e+00	-1.377264e+02
6.600000e-07	-8.857205e-07	-2.044701e-09	-6.119807e+00	-1.351776e+02
6.700000e-07	-8.332430e-07	-2.020687e-09	-5.757218e+00	-1.325693e+02
6.800000e-07	-7.805229e-07	-1.974777e-09	-5.392954e+00	-1.299088e+02
6.900000e-07	-7.275444e-07	-1.921356e-09	-5.026903e+00	-1.272026e+02
7.000000e-07	-6.742227e-07	-1.879972e-09	-4.658481e+00	-1.244539e+02
7.100000e-07	-6.205805e-07	-1.848232e-09	-4.287846e+00	-1.216604e+02
7.200000e-07	-5.667690e-07	-1.808036e-09	-3.916040e+00	-1.188143e+02
7.300000e-07	-5.127770e-07	-1.755045e-09	-3.542987e+00	-1.159042e+02
7.400000e-07	-4.585934e-07	-1.704855e-09	-3.168610e+00	-1.129185e+02
7.500000e-07	-4.042853e-07	-1.659331e-09	-2.793373e+00	-1.098484e+02
7.600000e-07	-3.498946e-07	-1.617971e-09	-2.417566e+00	-1.066903e+02
7.700000e-07	-2.954374e-07	-1.563115e-09	-2.041298e+00	-1.034457e+02
7.800000e-07	-2.409026e-07	-1.507132e-09	-1.664495e+00	-1.001192e+02
7.900000e-07	-1.862664e-07	-1.460388e-09	-1.286991e+00	-9.671582e+01
8.000000e-07	-1.315800e-07	-1.415206e-09	-9.091403e-01	-9.323814e+01
8.100000e-07	-7.688549e-08	-1.359119e-09	-5.312334e-01	-8.968444e+01
8.200000e-07	-2.212505e-08	-1.295743e-09	-1.528711e-01	-8.604899e+01
8.300000e-07	3.268150e-08	-1.238625e-09	2.258099e-01	-8.232385e+01
8.400000e-07	8.742759e-08	-1.185123e-09	6.040732e-01	-7.850135e+01
8.500000e-07	1.421024e-07	-1.128954e-09	9.818442e-01	-7.457640e+01
8.600000e-07	1.967483e-07	-1.062716e-09	1.359415e+00	-7.054721e+01
8.700000e-07	2.513792e-07	-9.973470e-10	1.736882e+00	-6.641451e+01
8.800000e-07	3.059522e-07	-9.372133e-10	2.113950e+00	-6.217926e+01
8.900000e-07	3.603927e-07	-8.773389e-10	2.490101e+00	-5.784003e+01
9.000000e-07	4.147121e-07	-8.078005e-10	2.865417e+00	-5.339111e+01
9.100000e-07	4.688994e-07	-7.327098e-10	3.239819e+00	-4.882213e+01
9.200000e-07	5.229321e-07	-6.635546e-10	3.613153e+00	-4.411937e+01
9.300000e-07	5.768221e-07	-5.939685e-10	3.985501e+00	-3.926819e+01
9.400000e-07	6.304961e-07	-5.174592e-10	4.356356e+00	-3.425550e+01
9.500000e-07	6.838341e-07	-4.320235e-10	4.724891e+00	-2.907126e+01
9.600000e-07	7.368882e-07	-3.487331e-10	5.091464e+00	-2.370835e+01
9.700000e-07	7.897201e-07	-2.692455e-10	5.456501e+00	-1.816078e+01
9.800000e-07	8.422688e-07	-1.871368e-10	5.819581e+00	-1.242121e+01
9.900000e-07	8.945358e-07	-9.204686e-11	6.180716e+00	-6.478778e+00
1.000000e-06	9.465345e-07	8.363500e-12	6.539996e+00	-3.184925e-01
1.010000e-06	9.981349e-07	1.052542e-10	6.896524e+00	6.077337e+00
1.020000e-06	1.049130e-06	2.056959e-10	7.248870e+00	1.272568e+01
1.030000e-06	1.099425e-06	3.123751e-10	7.596380e+00	1.963829e+01
1.040000e-06	1.149074e-06	4.267329e-10	7.939422e+00	2.681732e+01
1.050000e-06	1.198188e-06	5.399147e-10	8.278770e+00	3.425216e+01
1.060000e-06	1.246891e-06	6.512644e-10	8.615284e+00	4.191829e+01
1.070000e-06	1.295284e-06	7.671891e-10	8.949653e+00	4.977795e+01
1.080000e-06	1.343345e-06	8.912272e-10	9.281723e+00	5.778237e+01
1.090000e-06	1.390934e-06	1.016875e-09	9.610533e+00	6.587451e+01
1.100000e-06	1.438011e-06	1.140401e-09	9.935811e+00	7.399186e+01
1.110000e-06	1.484586e-06	1.265653e-09	1.025761e+01	8.206884e+01
1.120000e-06	1.530556e-06	1.390110e-09	1.057524e+01	9.003895e+01
1.130000e-06	1.575934e-06	1.509006e-09	1.088878e+01	9.783713e+01
1.140000e-06	1.620848e-06	1.617872e-09	1.119911e+01	1.054026e+02
1.150000e-06	1.665423e-06	1.722507e-09	1.150709e+01	1.126820e+02
1.160000e-06	1.709681e-06	1.825760e-09	1.181289e+01	1.196330e+02
1.170000e-06	1.753385e-06	1.927711e-09	1.211486e+01	1.262267e+02
1.180000e-06	1.796186e-06	2.025198e-09	1.241059e+01	1.324492e+02
1.190000e-06	1.838007e-06	2.117511e-09	1.269955e+01	1.383000e+02
1.200000e-06	1.879057e-06	2.203980e-09	1.298318e+01	1.437900e+02
1.210000e-06	1.919543e-06	2.280783e-09	1.326291e+01	1.489371e+02
1.220000e-06	1.959497e-06	2.348818e-09	1.353897e+01	1.537619e+02
1.230000e-06	1.998764e-06	2.410987e-09	1.381028e+01	1.582842e+02
1.240000e-06	2.037337e-06	2.472977e-09	1.407680e+01	1.625218e+02
1.250000e-06	2.075259e-06	2.534529e-09	1.433882e+01	1.664895e+02
1.260000e-06	2.112460e-06	2.594085e-09	1.459585e+01	1.702004e+02
1.270000e-06	2.149057e-06	2.647077e-09	1.484872e+01	1.736674e+02
1.280000e-06	2.185118e-06	2.694084e-09	1.509788e+01	1.769036e+02
1.290000e-06	2.220316e-06	2.737376e-09	1.534107e+01	1.799224e+02
1.300000e-06	2.254309e-06	2.777255e-09	1.557595e+01	1.827369e+02
1.310000e-06	2.287307e-06	2.812801e-09	1.580394e+01	1.853585e+02
1.320000e-06	2.319689e-06	2.845684e-09	1.602769e+01	1.877976e+02
1.330000e-06	2.351371e-06	2.878320e-09	1.624659e+01	1.900633e+02
1.340000e-06	2.382230e-06	2.910733e-09	1.645980e+01	1.921658e+02
1.350000e-06	2.412315e-06	2.942676e-09	1.666768e+01	1.941174e+02
1.360000e-06	2.441586e-06	2.970348e-09	1.686992e+01	1.959343e+02
1.370000e-06	2.470181e-06	2.994387e-09	1.706750e+01	1.976356e+02
1.380000e-06	2.498083e-06	3.016269e-09	1.726028e+01	1.992409e+02
1.390000e-06	2.524875e-06	3.037684e-09	1.744540e+01	2.007677e+02
1.400000e-06	2.550432e-06	3.057842e-09	1.762198e+01	2.022273e+02
1.410000e-06	2.575037e-06	3.077703e-09	1.779199e+01	2.036229e+02
1.420000e-06	2.598768e-06	3.098389e-09	1.795596e+01	2.049503e+02
1.430000e-06	2.621580e-06	3.118662e-09	1.811357e+01	2.062001e+02
1.440000e-06	2.643445e-06	3.139184e-09	1.826465e+01	2.073629e+02
1.450000e-06	2.664483e-06	3.158103e-09	1.841001e+01	2.084332e+02
1.460000e-06	2.684853e-06	3.173133e-09	1.855075e+01	2.094134e+02
1.470000e-06	2.704287e-06	3.184168e-09	1.868503e+01	2.103131e+02
1.480000e-06	2.722633e-06	3.194821e-09	1.881179e+01	2.111478e+02
1.490000e-06	2.740085e-06	3.206938e-09	1.893237e+01	2.119332e+02
1.500000e-06	2.756533e-06	3.219578e-09	1.904602e+01	2.126810e+02
1.510000e-06	2.771801e-06	3.232065e-09	1.915151e+01	2.133955e+02
1.520000e-06	2.786108e-06	3.244822e-09	1.925036e+01	2.140725e+02
1.530000e-06	2.799468e-06	3.257462e-09	1.934267e+01	2.147024e+02
1.540000e-06	2.811806e-06	3.267500e-09	1.942792e+01	2.152743e+02
1.550000e-06	2.823012e-06	3.273915e-09	1.950535e+01	2.157809e+02
1.560000e-06	2.832870e-06	3.278619e-09	1.957346e+01	2.162214e+02
1.570000e-06	2.841607e-06	3.284147e-09	1.963383e+01	2.166021e+02
1.580000e-06	2.849439e-06	3.290615e-09	1.968794e+01	2.169338e+02
1.590000e-06	2.856321e-06	3.296901e-09	1.973549e+01	2.172274e+02
1.600000e-06	2.862186e-06	3.303175e-09	1.977602e+01	2.174898e+02
1.610000e-06	2.867153e-06	3.308545e-09	1.981034e+01	2.177216e+02
1.620000e-06	2.871376e-06	3.311857e-09	1.983952e+01	2.179177e+02
1.630000e-06	2.874492e-06	3.316331e-09	1.986105e+01	2.180702e+02
1.640000e-06	2.876278e-06	3.320864e-09	1.987339e+01	2.181730e+02
1.650000e-06	2.877018e-06	3.325054e-09	1.987850e+01	2.182254e+02
1.660000e-06	2.876850e-06	3.326879e-09	1.987734e+01	2.182335e+02
1.670000e-06	2.875775e-06	3.322020e-09	1.986991e+01	2.182080e+02
1.680000e-06	2.873804e-06	3.317181e-09	1.985629e+01	2.181600e+02
1.690000e-06	2.870962e-06	3.315880e-09	1.983665e+01	2.180955e+02
1.700000e-06	2.867386e-06	3.317003e-09	1.981195e+01	2.180113e+02
1.710000e-06	2.862908e-06	3.320277e-09	1.978101e+01	2.178947e+02
1.720000e-06	2.857180e-06	3.329397e-09	1.974143e+01	2.177264e+02
1.730000e-06	2.850373e-06	3.335658e-09	1.969440e+01	2.174868e+02
1.740000e-06	2.842819e-06	3.257674e-09	1.964221e+01	2.171632e+02
1.750000e-06	2.834123e-06	3.199062e-09	1.958212e+01	2.167555e+02
1.760000e-06	2.823695e-06	3.289877e-09	1.951007e+01	2.162773e+02
1.770000e-06	2.812059e-06	3.432392e-09	1.942967e+01	2.157536e+02
1.780000e-06	2.800255e-06	3.299270e-09	1.934811e+01	2.152134e+02
1.790000e-06	2.788119e-06	3.142134e-09	1.926426e+01	2.146817e+02
1.800000e-06	2.774377e-06	3.315410e-09	1.916931e+01	2.141720e+02
1.810000e-06	2.759087e-06	3.327854e-09	1.906366e+01	2.136830e+02
1.820000e-06	2.743273e-06	3.101806e-09	1.895440e+01	2.131989e+02
1.830000e-06	2.726589e-06	3.194555e-09	1.883912e+01	2.126954e+02
1.840000e-06	2.708428e-06	3.416294e-09	1.871364e+01	2.121465e+02
1.850000e-06	2.689396e-06	3.161656e-09	1.858215e+01	2.115318e+02
1.860000e-06	2.669867e-06	3.072382e-09	1.844721e+01	2.108413e+02
1.870000e-06	2.649138e-06	3.382231e-09	1.830398e+01	2.100761e+02
1.880000e-06	2.627149e-06	3.187489e-09	1.815205e+01	2.092457e+02
1.890000e-06	2.604264e-06	2.968123e-09	1.799393e+01	2.083629e+02
1.900000e-06	2.580326e-06	3.235616e-09	1.782853e+01	2.074394e+02
1.910000e-06	2.555554e-06	3.208832e-09	1.765737e+01	2.064821e+02
1.920000e-06	2.530140e-06	3.080649e-09	1.748178e+01	2.054923e+02
1.930000e-06	2.503771e-06	3.150255e-09	1.729958e+01	2.044677e+02
1.940000e-06	2.476622e-06	3.066618e-09	1.711200e+01	2.034051e+02
1.950000e-06	2.448834e-06	3.077280e-09	1.692000e+01	2.023031e+02
1.960000e-06	2.419841e-06	3.152513e-09	1.671968e+01	2.011635e+02
1.970000e-06	2.389595e-06	2.958729e-09	1.651070e+01	1.999904e+02
1.980000e-06	2.358526e-06	2.978912e-09	1.629603e+01	1.987886e+02
1.990000e-06	2.326761e-06	3.126926e-09	1.607655e+01	1.975609e+02
2.000000e-06	2.294298e-06	2.950120e-09	1.585225e+01	1.963066e+02
2.010000e-06	2.261005e-06	2.969482e-09	1.562221e+01	1.950216e+02
2.020000e-06	2.226862e-06	3.025208e-09	1.538630e+01	1.937000e+02
2.030000e-06	2.192121e-06	2.849519e-09	1.514627e+01	1.923367e+02
2.040000e-06	2.156794e-06	2.919605e-09	1.490218e+01	1.909295e+02
2.050000e-06	2.120662e-06	2.948671e-09	1.465253e+01	1.894801e+02
2.060000e-06	2.083684e-06	2.791518e-09	1.439703e+01	1.879936e+02
2.070000e-06	2.045665e-06	2.847784e-09	1.413434e+01	1.864763e+02
2.080000e-06	2.006704e-06	2.873891e-09	1.386514e+01	1.849330e+02
2.090000e-06	1.967220e-06	2.791999e-09	1.359233e+01	1.833651e+02
2.100000e-06	1.927160e-06	2.780358e-09	1.331554e+01	1.817699e+02
2.110000e-06	1.886429e-06	2.723003e-09	1.303412e+01	1.801416e+02
2.120000e-06	1.845067e-06	2.712205e-09	1.274833e+01	1.784737e+02
2.130000e-06	1.803102e-06	2.723419e-09	1.245837e+01	1.767610e+02
2.140000e-06	1.760583e-06	2.670784e-09	1.216459e+01	1.750015e+02
2.150000e-06	1.717522e-06	2.649572e-09	1.186706e+01	1.731968e+02
2.160000e-06	1.674020e-06	2.621984e-09	1.156649e+01	1.713504e+02
2.170000e-06	1.630005e-06	2.595446e-09	1.126237e+01	1.694667e+02
2.180000e-06	1.585370e-06	2.561190e-09	1.095397e+01	1.675481e+02
2.190000e-06	1.540077e-06	2.521074e-09	1.064103e+01	1.655949e+02
2.200000e-06	1.494088e-06	2.501390e-09	1.032327e+01	1.636053e+02
2.210000e-06	1.447687e-06	2.476358e-09	1.000266e+01	1.615766e+02
2.220000e-06	1.400919e-06	2.457652e-09	9.679526e+00	1.595071e+02
2.230000e-06	1.353577e-06	2.423007e-09	9.352419e+00	1.573967e+02
2.240000e-06	1.305655e-06	2.357556e-09	9.021306e+00	1.552472e+02
2.250000e-06	1.257112e-06	2.339916e-09	8.685900e+00	1.530608e+02
2.260000e-06	1.208040e-06	2.324663e-09	8.346846e+00	1.508381e+02
2.270000e-06	1.158631e-06	2.276358e-09	8.005459e+00	1.485772e+02
2.280000e-06	1.108892e-06	2.242918e-09	7.661790e+00	1.462727e+02
2.290000e-06	1.058720e-06	2.198607e-09	7.315135e+00	1.439169e+02
2.300000e-06	1.008046e-06	2.176069e-09	6.965003e+00	1.415024e+02
2.310000e-06	9.569707e-07	2.146663e-09	6.612104e+00	1.390242e+02
2.320000e-06	9.056344e-07	2.092520e-09	6.257400e+00	1.364820e+02
2.330000e-06	8.540872e-07	2.055786e-09	5.901239e+00	1.338797e+02
2.340000e-06	8.022463e-07	2.021768e-09	5.543049e+00	1.312244e+02
2.350000e-06	7.499329e-07	1.985785e-09	5.181595e+00	1.285228e+02
2.360000e-06	6.971275e-07	1.937407e-09	4.816740e+00	1.257786e+02
2.370000e-06	6.439319e-07	1.884207e-09	4.449190e+00	1.229902e+02
2.380000e-06	5.904191e-07	1.844778e-09	4.079448e+00	1.201501e+02
2.390000e-06	5.365518e-07	1.807835e-09	3.707257e+00	1.172474e+02
2.400000e-06	4.823066e-07	1.767369e-09	3.332454e+00	1.142702e+02
2.410000e-06	4.277951e-07	1.721452e-09	2.955812e+00	1.112094e+02
2.420000e-06	3.731663e-07	1.668846e-09	2.578359e+00	1.080607e+02
2.430000e-06	3.183871e-07	1.621808e-09	2.199867e+00	1.048251e+02
2.440000e-06	2.634334e-07	1.569868e-09	1.820170e+00	1.015070e+02
2.450000e-06	2.083996e-07	1.511207e-09	1.439918e+00	9.811169e+01
2.460000e-06	1.533143e-07	1.456995e-09	1.059311e+00	9.464191e+01
2.470000e-06	9.821761e-08	1.403676e-09	6.786258e-01	9.109651e+01
2.480000e-06	4.311491e-08	1.355683e-09	2.978986e-01	8.747013e+01
2.490000e-06	-1.199225e-08	1.301504e-09	-8.285937e-02	8.375493e+01
2.500000e-06	-6.711909e-08	1.240286e-09	-4.637534e-01	7.994312e+01
2.510000e-06	-1.222293e-07	1.179091e-09	-8.445327e-01	7.602922e+01
2.520000e-06	-1.773292e-07	1.116403e-09	-1.225240e+00	7.201114e+01
2.530000e-06	-2.323995e-07	1.051987e-09	-1.605743e+00	6.788942e+01
2.540000e-06	-2.873484e-07	9.848392e-10	-1.985408e+00	6.366510e+01
2.550000e-06	-3.421871e-07	9.201416e-10	-2.364311e+00	5.933714e+01
2.560000e-06	-3.969087e-07	8.553831e-10	-2.742405e+00	5.490033e+01
2.570000e-06	-4.514810e-07	7.859323e-10	-3.119468e+00	5.034478e+01
2.580000e-06	-5.058776e-07	7.127922e-10	-3.495316e+00	4.565701e+01
2.590000e-06	-5.599748e-07	6.389197e-10	-3.869096e+00	4.082234e+01
2.600000e-06	-6.136692e-07	5.619346e-10	-4.240092e+00	3.582743e+01
2.610000e-06	-6.669511e-07	4.822346e-10	-4.608239e+00	3.066190e+01
2.620000e-06	-7.198014e-07	3.997880e-10	-4.973404e+00	2.531837e+01
2.630000e-06	-7.721883e-07	3.153256e-10	-5.335367e+00	1.979083e+01
2.640000e-06	-8.242139e-07	2.298306e-10	-5.694833e+00	1.407222e+01
2.650000e-06	-8.759481e-07	1.420120e-10	-6.052286e+00	8.152115e+00
2.660000e-06	-9.273625e-07	5.008737e-11	-6.407529e+00	2.015936e+00
2.670000e-06	-9.785045e-07	-4.914053e-11	-6.760890e+00	-4.353852e+00
2.680000e-06	-1.029334e-06	-1.508202e-10	-7.112091e+00	-1.097450e+01
2.690000e-06	-1.079745e-06	-2.536704e-10	-7.460402e+00	-1.785855e+01
2.700000e-06	-1.129705e-06	-3.606780e-10	-7.805598e+00	-2.500935e+01
2.710000e-06	-1.179276e-06	-4.749131e-10	-8.148105e+00	-3.241777e+01
2.720000e-06	-1.228457e-06	-5.926601e-10	-8.487914e+00	-4.006076e+01
2.730000e-06	-1.277096e-06	-7.114286e-10	-8.823981e+00	-4.790191e+01
2.740000e-06	-1.324979e-06	-8.339345e-10	-9.154822e+00	-5.589348e+01
2.750000e-06	-1.372041e-06	-9.586892e-10	-9.479993e+00	-6.397919e+01
2.760000e-06	-1.418521e-06	-1.083545e-09	-9.801143e+00	-7.209700e+01
2.770000e-06	-1.464558e-06	-1.205887e-09	-1.011923e+01	-8.018154e+01
2.780000e-06	-1.510199e-06	-1.326330e-09	-1.043459e+01	-8.816632e+01
2.790000e-06	-1.555488e-06	-1.444955e-09	-1.074750e+01	-9.598599e+01
2.800000e-06	-1.600200e-06	-1.562894e-09	-1.105644e+01	-1.035791e+02
2.810000e-06	-1.644280e-06	-1.677872e-09	-1.136101e+01	-1.108915e+02
2.820000e-06	-1.687908e-06	-1.786203e-09	-1.166245e+01	-1.178794e+02
2.830000e-06	-1.731178e-06	-1.888088e-09	-1.196142e+01	-1.245124e+02
2.840000e-06	-1.773978e-06	-1.985374e-09	-1.225714e+01	-1.307749e+02
2.850000e-06	-1.816155e-06	-2.077674e-09	-1.254856e+01	-1.366652e+02
2.860000e-06	-1.857724e-06	-2.160758e-09	-1.283578e+01	-1.421932e+02
2.870000e-06	-1.898644e-06	-2.237041e-09	-1.311851e+01	-1.473761e+02
2.880000e-06	-1.938895e-06	-2.310494e-09	-1.339662e+01	-1.522345e+02
2.890000e-06	-1.978569e-06	-2.382224e-09	-1.367074e+01	-1.567884e+02
2.900000e-06	-2.017714e-06	-2.450314e-09	-1.394121e+01	-1.610558e+02
2.910000e-06	-2.056183e-06	-2.513951e-09	-1.420702e+01	-1.650518e+02
2.920000e-06	-2.093637e-06	-2.574262e-09	-1.446580e+01	-1.687897e+02
2.930000e-06	-2.130052e-06	-2.631699e-09	-1.471741e+01	-1.722823e+02
2.940000e-06	-2.165743e-06	-2.684459e-09	-1.496401e+01	-1.755426e+02
