# Temperatura_=_29.81
# Concentracion g/m^3_=_13400.0
# C_Vs_to_Am_M_A/Vsm_=_65563218390.804596
# pendiente_HvsI_1/m_=_3716.3
# ordenada_HvsI_A/m_=_1297.0
# frecuencia_Hz_=_300979.79065910535

Tiempo_(s)	Campo_(V.s)	Magnetizacion_(V.s)	Campo_(kA/m)	Magnetizacion_(A/m)
0.000000e+00	-2.860050e-06	-3.333067e-09	-1.978624e+01	-2.183932e+02
1.000000e-08	-2.859520e-06	-3.333422e-09	-1.978257e+01	-2.183142e+02
2.000000e-08	-2.858243e-06	-3.337697e-09	-1.977373e+01	-2.181999e+02
3.000000e-08	-2.855838e-06	-3.338499e-09	-1.975709e+01	-2.180636e+02
4.000000e-08	-2.852135e-06	-3.338357e-09	-1.973148e+01	-2.179118e+02
5.000000e-08	-2.847555e-06	-3.335680e-09	-1.969979e+01	-2.177419e+02
6.000000e-08	-2.842240e-06	-3.327272e-09	-1.966303e+01	-2.175423e+02
7.000000e-08	-2.835984e-06	-3.307943e-09	-1.961974e+01	-2.172965e+02
8.000000e-08	-2.828738e-06	-3.315758e-09	-1.956962e+01	-2.169883e+02
9.000000e-08	-2.820501e-06	-3.384165e-09	-1.951263e+01	-2.166071e+02
1.000000e-07	-2.810997e-06	-3.408398e-09	-1.944688e+01	-2.161502e+02
1.100000e-07	-2.799979e-06	-3.248075e-09	-1.937065e+01	-2.156233e+02
1.200000e-07	-2.787856e-06	-3.124071e-09	-1.928679e+01	-2.150371e+02
1.300000e-07	-2.775039e-06	-3.296257e-09	-1.919812e+01	-2.144036e+02
1.400000e-07	-2.761279e-06	-3.435492e-09	-1.910292e+01	-2.137319e+02
1.500000e-07	-2.746541e-06	-3.196365e-09	-1.900096e+01	-2.130273e+02
1.600000e-07	-2.730930e-06	-3.160731e-09	-1.889297e+01	-2.122916e+02
1.700000e-07	-2.713939e-06	-3.390078e-09	-1.877542e+01	-2.115261e+02
1.800000e-07	-2.695654e-06	-3.222099e-09	-1.864892e+01	-2.107346e+02
1.900000e-07	-2.676770e-06	-3.067355e-09	-1.851828e+01	-2.099251e+02
2.000000e-07	-2.657140e-06	-3.284203e-09	-1.838248e+01	-2.091086e+02
2.100000e-07	-2.636490e-06	-3.219555e-09	-1.823962e+01	-2.082959e+02
2.200000e-07	-2.615025e-06	-3.003009e-09	-1.809112e+01	-2.074927e+02
2.300000e-07	-2.592790e-06	-3.218426e-09	-1.793729e+01	-2.066954e+02
2.400000e-07	-2.569514e-06	-3.299375e-09	-1.777627e+01	-2.058902e+02
2.500000e-07	-2.545284e-06	-3.068032e-09	-1.760864e+01	-2.050550e+02
2.600000e-07	-2.520422e-06	-3.065344e-09	-1.743664e+01	-2.041653e+02
2.700000e-07	-2.494687e-06	-3.145112e-09	-1.725860e+01	-2.032018e+02
2.800000e-07	-2.467760e-06	-3.079328e-09	-1.707232e+01	-2.021563e+02
2.900000e-07	-2.439715e-06	-3.078330e-09	-1.687830e+01	-2.010347e+02
3.000000e-07	-2.410777e-06	-3.037509e-09	-1.667810e+01	-1.998555e+02
3.100000e-07	-2.381088e-06	-3.005217e-09	-1.647271e+01	-1.986438e+02
3.200000e-07	-2.350720e-06	-3.080324e-09	-1.626262e+01	-1.974233e+02
3.300000e-07	-2.319609e-06	-3.010792e-09	-1.604739e+01	-1.962086e+02
3.400000e-07	-2.287645e-06	-2.925852e-09	-1.582626e+01	-1.950014e+02
3.500000e-07	-2.255050e-06	-2.951420e-09	-1.560076e+01	-1.937905e+02
3.600000e-07	-2.221927e-06	-2.911317e-09	-1.537161e+01	-1.925572e+02
3.700000e-07	-2.187874e-06	-2.904551e-09	-1.513603e+01	-1.912818e+02
3.800000e-07	-2.152512e-06	-2.947561e-09	-1.489138e+01	-1.899512e+02
3.900000e-07	-2.116146e-06	-2.847649e-09	-1.463980e+01	-1.885622e+02
4.000000e-07	-2.079266e-06	-2.814458e-09	-1.438466e+01	-1.871218e+02
4.100000e-07	-2.041785e-06	-2.872907e-09	-1.412536e+01	-1.856427e+02
4.200000e-07	-2.003512e-06	-2.805419e-09	-1.386058e+01	-1.841367e+02
4.300000e-07	-1.964493e-06	-2.726471e-09	-1.359064e+01	-1.826096e+02
4.400000e-07	-1.924733e-06	-2.745050e-09	-1.331558e+01	-1.810579e+02
4.500000e-07	-1.884369e-06	-2.754414e-09	-1.303633e+01	-1.794704e+02
4.600000e-07	-1.843646e-06	-2.721738e-09	-1.275461e+01	-1.778324e+02
4.700000e-07	-1.802472e-06	-2.685434e-09	-1.246976e+01	-1.761325e+02
4.800000e-07	-1.760472e-06	-2.636724e-09	-1.217920e+01	-1.743666e+02
4.900000e-07	-1.717351e-06	-2.611070e-09	-1.188088e+01	-1.725406e+02
5.000000e-07	-1.673308e-06	-2.603236e-09	-1.157618e+01	-1.706677e+02
5.100000e-07	-1.628792e-06	-2.571146e-09	-1.126821e+01	-1.687632e+02
5.200000e-07	-1.583892e-06	-2.524290e-09	-1.095759e+01	-1.668383e+02
5.300000e-07	-1.538526e-06	-2.506104e-09	-1.064375e+01	-1.648953e+02
5.400000e-07	-1.492620e-06	-2.492073e-09	-1.032616e+01	-1.629267e+02
5.500000e-07	-1.446129e-06	-2.452312e-09	-1.000452e+01	-1.609182e+02
5.600000e-07	-1.399127e-06	-2.402199e-09	-9.679361e+00	-1.588541e+02
5.700000e-07	-1.351617e-06	-2.359158e-09	-9.350679e+00	-1.567239e+02
5.800000e-07	-1.303571e-06	-2.344609e-09	-9.018293e+00	-1.545269e+02
5.900000e-07	-1.255163e-06	-2.327292e-09	-8.683400e+00	-1.522722e+02
6.000000e-07	-1.206490e-06	-2.281154e-09	-8.346670e+00	-1.499756e+02
6.100000e-07	-1.157387e-06	-2.230358e-09	-8.006969e+00	-1.476532e+02
6.200000e-07	-1.107695e-06	-2.199385e-09	-7.663194e+00	-1.453146e+02
6.300000e-07	-1.057258e-06	-2.173306e-09	-7.314262e+00	-1.429587e+02
6.400000e-07	-1.006158e-06	-2.133134e-09	-6.960745e+00	-1.405733e+02
6.500000e-07	-9.545874e-07	-2.082524e-09	-6.603972e+00	-1.381391e+02
6.600000e-07	-9.025708e-07	-2.042292e-09	-6.244114e+00	-1.356363e+02
6.700000e-07	-8.502013e-07	-2.018701e-09	-5.881814e+00	-1.330514e+02
6.800000e-07	-7.975923e-07	-1.982888e-09	-5.517857e+00	-1.303815e+02
6.900000e-07	-7.447468e-07	-1.929600e-09	-5.152265e+00	-1.276351e+02
7.000000e-07	-6.916135e-07	-1.879394e-09	-4.784681e+00	-1.248278e+02
7.100000e-07	-6.382021e-07	-1.843564e-09	-4.415174e+00	-1.219760e+02
7.200000e-07	-5.845998e-07	-1.805953e-09	-4.044345e+00	-1.190903e+02
7.300000e-07	-5.308058e-07	-1.755580e-09	-3.672191e+00	-1.161708e+02
7.400000e-07	-4.767671e-07	-1.701360e-09	-3.298343e+00	-1.132069e+02
7.500000e-07	-4.225063e-07	-1.653792e-09	-2.922959e+00	-1.101804e+02
7.600000e-07	-3.681071e-07	-1.613512e-09	-2.546618e+00	-1.070718e+02
7.700000e-07	-3.136723e-07	-1.565620e-09	-2.170030e+00	-1.038663e+02
7.800000e-07	-2.591465e-07	-1.508584e-09	-1.792812e+00	-1.005582e+02
7.900000e-07	-2.045117e-07	-1.455537e-09	-1.414842e+00	-9.715171e+01
8.000000e-07	-1.498212e-07	-1.407237e-09	-1.036484e+00	-9.365781e+01
8.100000e-07	-9.509666e-08	-1.352117e-09	-6.578923e-01	-9.008938e+01
8.200000e-07	-4.037647e-08	-1.290181e-09	-2.793302e-01	-8.645563e+01
8.300000e-07	1.434156e-08	-1.229876e-09	9.921694e-02	-8.275833e+01
8.400000e-07	6.908477e-08	-1.176476e-09	4.779383e-01	-7.899106e+01
8.500000e-07	1.238047e-07	-1.125035e-09	8.564989e-01	-7.514139e+01
8.600000e-07	1.784740e-07	-1.065186e-09	1.234708e+00	-7.119491e+01
8.700000e-07	2.331025e-07	-9.984489e-10	1.612636e+00	-6.713945e+01
8.800000e-07	2.876632e-07	-9.338654e-10	1.990095e+00	-6.296776e+01
8.900000e-07	3.421384e-07	-8.712280e-10	2.366962e+00	-5.867774e+01
9.000000e-07	3.964732e-07	-8.022197e-10	2.742858e+00	-5.427040e+01
9.100000e-07	4.506373e-07	-7.290060e-10	3.117573e+00	-4.974637e+01
9.200000e-07	5.046612e-07	-6.594857e-10	3.491319e+00	-4.510268e+01
9.300000e-07	5.584991e-07	-5.921038e-10	3.863776e+00	-4.033075e+01
9.400000e-07	6.120939e-07	-5.201072e-10	4.234553e+00	-3.541658e+01
9.500000e-07	6.654632e-07	-4.407943e-10	4.603769e+00	-3.034264e+01
9.600000e-07	7.185424e-07	-3.570567e-10	4.970979e+00	-2.509063e+01
9.700000e-07	7.713607e-07	-2.736127e-10	5.336384e+00	-1.964402e+01
9.800000e-07	8.239536e-07	-1.898130e-10	5.700229e+00	-1.398920e+01
9.900000e-07	8.762437e-07	-9.847104e-11	6.061979e+00	-8.115317e+00
1.000000e-06	9.282278e-07	-2.144618e-12	6.421613e+00	-2.012846e+00
1.010000e-06	9.798333e-07	9.301185e-11	6.778627e+00	4.327829e+00
1.020000e-06	1.030961e-06	1.893183e-10	7.132338e+00	1.091695e+01
1.030000e-06	1.081396e-06	2.923383e-10	7.481255e+00	1.776423e+01
1.040000e-06	1.131070e-06	4.039814e-10	7.824904e+00	2.487598e+01
1.050000e-06	1.180243e-06	5.194539e-10	8.165091e+00	3.225103e+01
1.060000e-06	1.229057e-06	6.355057e-10	8.502794e+00	3.987660e+01
1.070000e-06	1.277535e-06	7.544163e-10	8.838169e+00	4.772521e+01
1.080000e-06	1.325666e-06	8.768074e-10	9.171144e+00	5.575357e+01
1.090000e-06	1.373377e-06	9.990719e-10	9.501219e+00	6.390373e+01
1.100000e-06	1.420516e-06	1.118450e-09	9.827333e+00	7.210638e+01
1.110000e-06	1.467091e-06	1.240607e-09	1.014954e+01	8.028554e+01
1.120000e-06	1.513208e-06	1.366532e-09	1.046859e+01	8.836395e+01
1.130000e-06	1.558808e-06	1.491710e-09	1.078406e+01	9.626827e+01
1.140000e-06	1.603903e-06	1.609080e-09	1.109603e+01	1.039335e+02
1.150000e-06	1.648633e-06	1.716573e-09	1.140548e+01	1.113066e+02
1.160000e-06	1.693034e-06	1.819634e-09	1.171265e+01	1.183484e+02
1.170000e-06	1.736896e-06	1.920487e-09	1.201610e+01	1.250342e+02
1.180000e-06	1.779812e-06	2.016847e-09	1.231300e+01	1.313539e+02
1.190000e-06	1.821724e-06	2.106638e-09	1.260294e+01	1.373095e+02
1.200000e-06	1.862887e-06	2.191427e-09	1.288772e+01	1.429125e+02
1.210000e-06	1.903495e-06	2.272705e-09	1.316865e+01	1.481802e+02
1.220000e-06	1.943627e-06	2.348952e-09	1.344629e+01	1.531318e+02
1.230000e-06	1.983123e-06	2.417961e-09	1.371953e+01	1.577857e+02
1.240000e-06	2.021916e-06	2.481007e-09	1.398790e+01	1.621576e+02
1.250000e-06	2.060002e-06	2.539561e-09	1.425139e+01	1.662595e+02
1.260000e-06	2.097363e-06	2.597021e-09	1.450985e+01	1.701008e+02
1.270000e-06	2.134143e-06	2.651727e-09	1.476431e+01	1.736900e+02
1.280000e-06	2.170379e-06	2.701835e-09	1.501499e+01	1.770363e+02
1.290000e-06	2.205780e-06	2.746673e-09	1.525990e+01	1.801508e+02
1.300000e-06	2.240035e-06	2.787342e-09	1.549688e+01	1.830470e+02
1.310000e-06	2.273265e-06	2.825254e-09	1.572677e+01	1.857407e+02
1.320000e-06	2.305810e-06	2.860659e-09	1.595192e+01	1.882482e+02
1.330000e-06	2.337688e-06	2.894164e-09	1.617246e+01	1.905861e+02
1.340000e-06	2.368814e-06	2.927107e-09	1.638779e+01	1.927697e+02
1.350000e-06	2.399157e-06	2.959199e-09	1.659771e+01	1.948131e+02
1.360000e-06	2.428658e-06	2.989062e-09	1.680180e+01	1.967287e+02
1.370000e-06	2.457443e-06	3.014865e-09	1.700094e+01	1.985278e+02
1.380000e-06	2.485521e-06	3.036896e-09	1.719519e+01	2.002197e+02
1.390000e-06	2.512557e-06	3.058890e-09	1.738223e+01	2.018122e+02
1.400000e-06	2.538354e-06	3.080421e-09	1.756070e+01	2.033106e+02
1.410000e-06	2.563142e-06	3.101641e-09	1.773219e+01	2.047179e+02
1.420000e-06	2.587087e-06	3.122440e-09	1.789784e+01	2.060352e+02
1.430000e-06	2.610172e-06	3.141413e-09	1.805754e+01	2.072630e+02
1.440000e-06	2.632369e-06	3.158531e-09	1.821111e+01	2.084026e+02
1.450000e-06	2.653698e-06	3.174840e-09	1.835866e+01	2.094582e+02
1.460000e-06	2.674323e-06	3.191276e-09	1.850135e+01	2.104370e+02
1.470000e-06	2.694083e-06	3.206024e-09	1.863805e+01	2.113490e+02
1.480000e-06	2.712775e-06	3.218175e-09	1.876737e+01	2.122051e+02
1.490000e-06	2.730524e-06	3.229572e-09	1.889016e+01	2.130144e+02
1.500000e-06	2.747329e-06	3.241397e-09	1.900642e+01	2.137817e+02
1.510000e-06	2.763090e-06	3.254812e-09	1.911545e+01	2.145064e+02
1.520000e-06	2.777797e-06	3.267954e-09	1.921720e+01	2.151829e+02
1.530000e-06	2.791480e-06	3.278692e-09	1.931186e+01	2.158032e+02
1.540000e-06	2.804151e-06	3.288464e-09	1.939952e+01	2.163605e+02
1.550000e-06	2.815649e-06	3.297151e-09	1.947906e+01	2.168522e+02
1.560000e-06	2.825824e-06	3.302783e-09	1.954945e+01	2.172818e+02
1.570000e-06	2.834874e-06	3.306272e-09	1.961206e+01	2.176589e+02
1.580000e-06	2.843020e-06	3.311365e-09	1.966842e+01	2.179953e+02
1.590000e-06	2.850242e-06	3.319808e-09	1.971838e+01	2.183017e+02
1.600000e-06	2.856494e-06	3.327946e-09	1.976163e+01	2.185833e+02
1.610000e-06	2.861851e-06	3.333544e-09	1.979870e+01	2.188380e+02
1.620000e-06	2.866375e-06	3.335961e-09	1.982999e+01	2.190564e+02
1.630000e-06	2.869877e-06	3.338184e-09	1.985422e+01	2.192259e+02
1.640000e-06	2.872100e-06	3.341579e-09	1.986960e+01	2.193350e+02
1.650000e-06	2.873193e-06	3.344462e-09	1.987716e+01	2.193779e+02
1.660000e-06	2.873387e-06	3.347192e-09	1.987850e+01	2.193576e+02
1.670000e-06	2.872675e-06	3.345780e-09	1.987358e+01	2.192847e+02
1.680000e-06	2.871013e-06	3.341047e-09	1.986208e+01	2.191743e+02
1.690000e-06	2.868470e-06	3.338253e-09	1.984449e+01	2.190403e+02
1.700000e-06	2.865253e-06	3.335281e-09	1.982223e+01	2.188906e+02
1.710000e-06	2.861196e-06	3.331946e-09	1.979416e+01	2.187236e+02
1.720000e-06	2.855942e-06	3.336368e-09	1.975782e+01	2.185289e+02
1.730000e-06	2.849524e-06	3.357217e-09	1.971341e+01	2.182905e+02
1.740000e-06	2.842240e-06	3.312126e-09	1.966303e+01	2.179919e+02
1.750000e-06	2.834025e-06	3.210696e-09	1.960619e+01	2.176212e+02
1.760000e-06	2.824269e-06	3.228373e-09	1.953870e+01	2.171748e+02
1.770000e-06	2.812901e-06	3.424351e-09	1.946005e+01	2.166571e+02
1.780000e-06	2.800934e-06	3.425950e-09	1.937726e+01	2.160784e+02
1.790000e-06	2.788954e-06	3.185638e-09	1.929439e+01	2.154507e+02
1.800000e-06	2.775832e-06	3.211415e-09	1.920360e+01	2.147839e+02
1.810000e-06	2.760905e-06	3.395576e-09	1.910034e+01	2.140836e+02
1.820000e-06	2.745198e-06	3.200752e-09	1.899168e+01	2.133521e+02
1.830000e-06	2.729011e-06	3.059668e-09	1.887969e+01	2.125905e+02
1.840000e-06	2.711441e-06	3.331867e-09	1.875813e+01	2.118021e+02
1.850000e-06	2.692656e-06	3.288044e-09	1.862818e+01	2.109943e+02
1.860000e-06	2.673365e-06	3.014121e-09	1.849472e+01	2.101779e+02
1.870000e-06	2.653021e-06	3.237214e-09	1.835398e+01	2.093639e+02
1.880000e-06	2.631279e-06	3.323729e-09	1.820357e+01	2.085591e+02
1.890000e-06	2.608653e-06	2.967692e-09	1.804703e+01	2.077614e+02
1.900000e-06	2.585133e-06	3.055649e-09	1.788432e+01	2.069583e+02
1.910000e-06	2.560647e-06	3.253533e-09	1.771492e+01	2.061286e+02
1.920000e-06	2.535544e-06	3.088334e-09	1.754126e+01	2.052479e+02
1.930000e-06	2.509628e-06	3.066649e-09	1.736197e+01	2.042956e+02
1.940000e-06	2.482792e-06	3.107906e-09	1.717631e+01	2.032615e+02
1.950000e-06	2.455385e-06	3.039341e-09	1.698671e+01	2.021497e+02
1.960000e-06	2.426921e-06	3.111049e-09	1.678979e+01	2.009770e+02
1.970000e-06	2.397015e-06	3.021295e-09	1.658289e+01	1.997682e+02
1.980000e-06	2.366252e-06	2.898650e-09	1.637007e+01	1.985475e+02
1.990000e-06	2.334870e-06	3.049081e-09	1.615296e+01	1.973314e+02
2.000000e-06	2.302706e-06	3.008840e-09	1.593045e+01	1.961233e+02
2.010000e-06	2.269796e-06	2.919158e-09	1.570278e+01	1.949138e+02
2.020000e-06	2.236013e-06	3.003109e-09	1.546906e+01	1.936847e+02
2.030000e-06	2.201446e-06	2.894116e-09	1.522992e+01	1.924162e+02
2.040000e-06	2.166350e-06	2.851312e-09	1.498712e+01	1.910936e+02
2.050000e-06	2.130526e-06	2.946942e-09	1.473929e+01	1.897126e+02
2.060000e-06	2.093802e-06	2.829660e-09	1.448522e+01	1.882786e+02
2.070000e-06	2.056083e-06	2.793413e-09	1.422428e+01	1.868040e+02
2.080000e-06	2.017424e-06	2.863966e-09	1.395683e+01	1.853011e+02
2.090000e-06	1.978159e-06	2.805527e-09	1.368518e+01	1.837768e+02
2.100000e-06	1.938317e-06	2.770407e-09	1.340956e+01	1.822289e+02
2.110000e-06	1.897839e-06	2.729700e-09	1.312952e+01	1.806472e+02
2.120000e-06	1.856765e-06	2.692513e-09	1.284537e+01	1.790171e+02
2.130000e-06	1.815076e-06	2.715447e-09	1.255695e+01	1.773262e+02
2.140000e-06	1.772760e-06	2.682702e-09	1.226421e+01	1.755694e+02
2.150000e-06	1.729872e-06	2.641106e-09	1.196751e+01	1.737511e+02
2.160000e-06	1.686604e-06	2.612679e-09	1.166817e+01	1.718837e+02
2.170000e-06	1.642910e-06	2.582787e-09	1.136589e+01	1.699827e+02
2.180000e-06	1.598498e-06	2.563726e-09	1.105864e+01	1.680600e+02
2.190000e-06	1.553335e-06	2.520348e-09	1.074620e+01	1.661196e+02
2.200000e-06	1.507647e-06	2.491077e-09	1.043012e+01	1.641553e+02
2.210000e-06	1.461485e-06	2.474396e-09	1.011077e+01	1.621533e+02
2.220000e-06	1.414915e-06	2.444220e-09	9.788582e+00	1.600978e+02
2.230000e-06	1.367864e-06	2.421643e-09	9.463081e+00	1.579771e+02
2.240000e-06	1.320139e-06	2.363794e-09	9.132909e+00	1.557890e+02
2.250000e-06	1.271779e-06	2.319807e-09	8.798348e+00	1.535415e+02
2.260000e-06	1.222978e-06	2.312528e-09	8.460737e+00	1.512496e+02
2.270000e-06	1.173860e-06	2.276833e-09	8.120932e+00	1.489299e+02
2.280000e-06	1.124349e-06	2.236223e-09	7.778409e+00	1.465932e+02
2.290000e-06	1.074392e-06	2.192531e-09	7.432794e+00	1.442401e+02
2.300000e-06	1.023983e-06	2.160570e-09	7.084063e+00	1.418597e+02
2.310000e-06	9.731385e-07	2.139330e-09	6.732311e+00	1.394336e+02
2.320000e-06	9.220013e-07	2.091391e-09	6.378537e+00	1.369414e+02
2.330000e-06	8.705671e-07	2.045626e-09	6.022708e+00	1.343684e+02
2.340000e-06	8.188211e-07	2.013152e-09	5.664722e+00	1.317102e+02
2.350000e-06	7.667030e-07	1.977687e-09	5.304161e+00	1.289737e+02
2.360000e-06	7.140730e-07	1.933549e-09	4.940059e+00	1.261738e+02
2.370000e-06	6.610625e-07	1.877694e-09	4.573325e+00	1.233273e+02
2.380000e-06	6.076295e-07	1.834589e-09	4.203667e+00	1.204459e+02
2.390000e-06	5.537294e-07	1.801664e-09	3.830779e+00	1.175314e+02
2.400000e-06	4.995227e-07	1.760487e-09	3.455770e+00	1.145746e+02
2.410000e-06	4.450886e-07	1.714883e-09	3.079187e+00	1.115581e+02
2.420000e-06	3.904939e-07	1.663418e-09	2.701492e+00	1.084621e+02
2.430000e-06	3.357777e-07	1.617325e-09	2.322958e+00	1.052708e+02
2.440000e-06	2.809428e-07	1.569691e-09	1.943602e+00	1.019772e+02
2.450000e-06	2.260346e-07	1.512191e-09	1.563739e+00	9.858392e+01
2.460000e-06	1.711399e-07	1.457030e-09	1.183971e+00	9.510148e+01
2.470000e-06	1.162246e-07	1.404287e-09	8.040582e-01	9.154279e+01
2.480000e-06	6.124955e-08	1.356581e-09	4.237332e-01	8.791785e+01
2.490000e-06	6.277364e-09	1.305498e-09	4.342770e-02	8.422962e+01
2.500000e-06	-4.869138e-08	1.244570e-09	-3.368540e-01	8.047279e+01
2.510000e-06	-1.036627e-07	1.184394e-09	-7.171537e-01	7.663556e+01
2.520000e-06	-1.586292e-07	1.125473e-09	-1.097419e+00	7.270353e+01
2.530000e-06	-2.135579e-07	1.062123e-09	-1.477424e+00	6.866400e+01
2.540000e-06	-2.684217e-07	9.945699e-10	-1.856980e+00	6.450893e+01
2.550000e-06	-3.232450e-07	9.288113e-10	-2.236255e+00	6.023558e+01
2.560000e-06	-3.779864e-07	8.685396e-10	-2.614964e+00	5.584469e+01
2.570000e-06	-4.326126e-07	8.043749e-10	-2.992876e+00	5.133719e+01
2.580000e-06	-4.870681e-07	7.321612e-10	-3.369607e+00	4.671076e+01
2.590000e-06	-5.412135e-07	6.571326e-10	-3.744192e+00	4.195768e+01
2.600000e-06	-5.950342e-07	5.798233e-10	-4.116532e+00	3.706463e+01
2.610000e-06	-6.485309e-07	5.019537e-10	-4.486629e+00	3.201443e+01
2.620000e-06	-7.015672e-07	4.221109e-10	-4.853543e+00	2.678873e+01
2.630000e-06	-7.541133e-07	3.387870e-10	-5.217064e+00	2.137060e+01
2.640000e-06	-8.061666e-07	2.537583e-10	-5.577176e+00	1.574603e+01
2.650000e-06	-8.577915e-07	1.684528e-10	-5.934324e+00	9.903820e+00
2.660000e-06	-9.091617e-07	8.061950e-11	-6.289711e+00	3.834362e+00
2.670000e-06	-9.603228e-07	-1.684227e-11	-6.643650e+00	-2.471882e+00
2.680000e-06	-1.011188e-06	-1.214478e-10	-6.995546e+00	-9.025094e+00
2.690000e-06	-1.061634e-06	-2.249735e-10	-7.344539e+00	-1.583521e+01
2.700000e-06	-1.111640e-06	-3.297500e-10	-7.690488e+00	-2.290924e+01
2.710000e-06	-1.161229e-06	-4.412293e-10	-8.033550e+00	-3.024736e+01
2.720000e-06	-1.210384e-06	-5.589919e-10	-8.373608e+00	-3.783868e+01
2.730000e-06	-1.259064e-06	-6.785277e-10	-8.710388e+00	-4.565792e+01
2.740000e-06	-1.307129e-06	-7.983794e-10	-9.042903e+00	-5.366405e+01
2.750000e-06	-1.354466e-06	-9.230623e-10	-9.370392e+00	-6.180106e+01
2.760000e-06	-1.401187e-06	-1.050219e-09	-9.693611e+00	-7.000097e+01
2.770000e-06	-1.447288e-06	-1.174340e-09	-1.001255e+01	-7.818846e+01
2.780000e-06	-1.492924e-06	-1.296536e-09	-1.032826e+01	-8.628611e+01
2.790000e-06	-1.538240e-06	-1.419742e-09	-1.064176e+01	-9.421973e+01
2.800000e-06	-1.583066e-06	-1.541529e-09	-1.095188e+01	-1.019229e+02
2.810000e-06	-1.627297e-06	-1.657004e-09	-1.125787e+01	-1.093407e+02
2.820000e-06	-1.670983e-06	-1.764029e-09	-1.156010e+01	-1.164318e+02
2.830000e-06	-1.714261e-06	-1.864538e-09	-1.185951e+01	-1.231697e+02
2.840000e-06	-1.757146e-06	-1.963237e-09	-1.215618e+01	-1.295420e+02
2.850000e-06	-1.799461e-06	-2.058933e-09	-1.244893e+01	-1.355494e+02
2.860000e-06	-1.841119e-06	-2.146827e-09	-1.273712e+01	-1.412020e+02
2.870000e-06	-1.882194e-06	-2.226716e-09	-1.302129e+01	-1.465166e+02
2.880000e-06	-1.922609e-06	-2.303348e-09	-1.330088e+01	-1.515124e+02
2.890000e-06	-1.962348e-06	-2.378352e-09	-1.357580e+01	-1.562081e+02
2.900000e-06	-2.001592e-06	-2.449121e-09	-1.384730e+01	-1.606196e+02
2.910000e-06	-2.040279e-06	-2.513534e-09	-1.411494e+01	-1.647597e+02
2.920000e-06	-2.078118e-06	-2.573155e-09	-1.437672e+01	-1.686379e+02
2.930000e-06	-2.114845e-06	-2.631069e-09	-1.463080e+01	-1.722629e+02
2.940000e-06	-2.150595e-06	-2.686338e-09	-1.487813e+01	-1.756434e+02
