# Temperatura_=_24.3
# Concentracion g/m^3_=_13400.0
# C_Vs_to_Am_M_A/Vsm_=_65563218390.804596
# pendiente_HvsI_1/m_=_3716.3
# ordenada_HvsI_A/m_=_1297.0
# frecuencia_Hz_=_300987.53683845524

Tiempo_(s)	Campo_(V.s)	Magnetizacion_(V.s)	Campo_(kA/m)	Magnetizacion_(A/m)
0.000000e+00	-2.859918e-06	-3.303025e-09	-1.978044e+01	-2.153223e+02
1.000000e-08	-2.859020e-06	-3.303622e-09	-1.977423e+01	-2.152263e+02
2.000000e-08	-2.857113e-06	-3.301704e-09	-1.976104e+01	-2.150992e+02
3.000000e-08	-2.853952e-06	-3.298683e-09	-1.973917e+01	-2.149543e+02
4.000000e-08	-2.849754e-06	-3.295574e-09	-1.971014e+01	-2.147931e+02
5.000000e-08	-2.844780e-06	-3.291118e-09	-1.967573e+01	-2.146040e+02
6.000000e-08	-2.838948e-06	-3.283345e-09	-1.963540e+01	-2.143655e+02
7.000000e-08	-2.832172e-06	-3.285139e-09	-1.958854e+01	-2.140550e+02
8.000000e-08	-2.824403e-06	-3.316757e-09	-1.953480e+01	-2.136575e+02
9.000000e-08	-2.815450e-06	-3.325253e-09	-1.947288e+01	-2.131741e+02
1.000000e-07	-2.805004e-06	-3.255382e-09	-1.940063e+01	-2.126232e+02
1.100000e-07	-2.793306e-06	-3.174475e-09	-1.931972e+01	-2.120373e+02
1.200000e-07	-2.780836e-06	-3.234391e-09	-1.923347e+01	-2.114537e+02
1.300000e-07	-2.767530e-06	-3.305421e-09	-1.914144e+01	-2.109030e+02
1.400000e-07	-2.753213e-06	-3.198351e-09	-1.904242e+01	-2.104001e+02
1.500000e-07	-2.737909e-06	-3.199913e-09	-1.893657e+01	-2.099387e+02
1.600000e-07	-2.721403e-06	-3.298354e-09	-1.882241e+01	-2.094939e+02
1.700000e-07	-2.703582e-06	-3.208452e-09	-1.869915e+01	-2.090291e+02
1.800000e-07	-2.684925e-06	-3.120732e-09	-1.857011e+01	-2.085078e+02
1.900000e-07	-2.665618e-06	-3.216473e-09	-1.843658e+01	-2.079035e+02
2.000000e-07	-2.645364e-06	-3.183652e-09	-1.829649e+01	-2.072068e+02
2.100000e-07	-2.624191e-06	-3.055230e-09	-1.815005e+01	-2.064262e+02
2.200000e-07	-2.602280e-06	-3.157353e-09	-1.799850e+01	-2.055831e+02
2.300000e-07	-2.579430e-06	-3.219316e-09	-1.784046e+01	-2.047028e+02
2.400000e-07	-2.555626e-06	-3.107457e-09	-1.767582e+01	-2.038052e+02
2.500000e-07	-2.531083e-06	-3.080554e-09	-1.750607e+01	-2.028979e+02
2.600000e-07	-2.505724e-06	-3.079126e-09	-1.733068e+01	-2.019744e+02
2.700000e-07	-2.479247e-06	-3.041451e-09	-1.714755e+01	-2.010177e+02
2.800000e-07	-2.451631e-06	-3.072336e-09	-1.695655e+01	-2.000075e+02
2.900000e-07	-2.423095e-06	-3.030106e-09	-1.675918e+01	-1.989288e+02
3.000000e-07	-2.393688e-06	-2.980463e-09	-1.655579e+01	-1.977782e+02
3.100000e-07	-2.363552e-06	-3.031279e-09	-1.634736e+01	-1.965657e+02
3.200000e-07	-2.332725e-06	-3.018215e-09	-1.613414e+01	-1.953115e+02
3.300000e-07	-2.301088e-06	-2.939583e-09	-1.591532e+01	-1.940392e+02
3.400000e-07	-2.268734e-06	-2.923480e-09	-1.569156e+01	-1.927670e+02
3.500000e-07	-2.235763e-06	-2.900874e-09	-1.546351e+01	-1.915010e+02
3.600000e-07	-2.201976e-06	-2.881235e-09	-1.522983e+01	-1.902331e+02
3.700000e-07	-2.167085e-06	-2.909446e-09	-1.498851e+01	-1.889429e+02
3.800000e-07	-2.131180e-06	-2.863652e-09	-1.474017e+01	-1.876050e+02
3.900000e-07	-2.094613e-06	-2.820390e-09	-1.448726e+01	-1.861977e+02
4.000000e-07	-2.057435e-06	-2.838275e-09	-1.423011e+01	-1.847109e+02
4.100000e-07	-2.019505e-06	-2.814398e-09	-1.396778e+01	-1.831494e+02
4.200000e-07	-1.980833e-06	-2.741434e-09	-1.370030e+01	-1.815320e+02
4.300000e-07	-1.941457e-06	-2.717871e-09	-1.342797e+01	-1.798850e+02
4.400000e-07	-1.901428e-06	-2.719575e-09	-1.315110e+01	-1.782336e+02
4.500000e-07	-1.860922e-06	-2.706695e-09	-1.287095e+01	-1.765930e+02
4.600000e-07	-1.819924e-06	-2.678453e-09	-1.258739e+01	-1.749634e+02
4.700000e-07	-1.778151e-06	-2.630585e-09	-1.229847e+01	-1.733297e+02
4.800000e-07	-1.735374e-06	-2.599277e-09	-1.200260e+01	-1.716663e+02
4.900000e-07	-1.691630e-06	-2.587474e-09	-1.170005e+01	-1.699458e+02
5.000000e-07	-1.647297e-06	-2.562317e-09	-1.139342e+01	-1.681471e+02
5.100000e-07	-1.602601e-06	-2.516169e-09	-1.108428e+01	-1.662621e+02
5.200000e-07	-1.557480e-06	-2.494595e-09	-1.077221e+01	-1.642973e+02
5.300000e-07	-1.511808e-06	-2.476624e-09	-1.045632e+01	-1.622701e+02
5.400000e-07	-1.465565e-06	-2.442050e-09	-1.013649e+01	-1.602023e+02
5.500000e-07	-1.418817e-06	-2.398516e-09	-9.813155e+00	-1.581116e+02
5.600000e-07	-1.371535e-06	-2.354572e-09	-9.486137e+00	-1.560056e+02
5.700000e-07	-1.323775e-06	-2.328376e-09	-9.155807e+00	-1.538800e+02
5.800000e-07	-1.275614e-06	-2.312752e-09	-8.822699e+00	-1.517212e+02
5.900000e-07	-1.227055e-06	-2.282296e-09	-8.486845e+00	-1.495121e+02
6.000000e-07	-1.178066e-06	-2.232468e-09	-8.148015e+00	-1.472397e+02
6.100000e-07	-1.128470e-06	-2.192648e-09	-7.804988e+00	-1.449000e+02
6.200000e-07	-1.078224e-06	-2.161349e-09	-7.457464e+00	-1.424992e+02
6.300000e-07	-1.027389e-06	-2.126426e-09	-7.105868e+00	-1.400510e+02
6.400000e-07	-9.759836e-07	-2.080246e-09	-6.750328e+00	-1.375694e+02
6.500000e-07	-9.241236e-07	-2.036977e-09	-6.391642e+00	-1.350627e+02
6.600000e-07	-8.718828e-07	-2.009258e-09	-6.030321e+00	-1.325282e+02
6.700000e-07	-8.193202e-07	-1.979351e-09	-5.666775e+00	-1.299522e+02
6.800000e-07	-7.665714e-07	-1.933881e-09	-5.301942e+00	-1.273141e+02
6.900000e-07	-7.135794e-07	-1.882045e-09	-4.935426e+00	-1.245940e+02
7.000000e-07	-6.602447e-07	-1.841846e-09	-4.566540e+00	-1.217802e+02
7.100000e-07	-6.066381e-07	-1.804067e-09	-4.195773e+00	-1.188743e+02
7.200000e-07	-5.528070e-07	-1.759253e-09	-3.823454e+00	-1.158904e+02
7.300000e-07	-4.987963e-07	-1.706190e-09	-3.449893e+00	-1.128500e+02
7.400000e-07	-4.446209e-07	-1.654822e-09	-3.075192e+00	-1.097733e+02
7.500000e-07	-3.902937e-07	-1.610818e-09	-2.699441e+00	-1.066701e+02
7.600000e-07	-3.358832e-07	-1.564283e-09	-2.323115e+00	-1.035346e+02
7.700000e-07	-2.813976e-07	-1.509873e-09	-1.946268e+00	-1.003455e+02
7.800000e-07	-2.268195e-07	-1.454721e-09	-1.568782e+00	-9.707243e+01
7.900000e-07	-1.722257e-07	-1.406560e-09	-1.191188e+00	-9.368607e+01
8.000000e-07	-1.176303e-07	-1.358138e-09	-8.135821e-01	-9.016847e+01
8.100000e-07	-6.298963e-08	-1.303717e-09	-4.356637e-01	-8.651957e+01
8.200000e-07	-8.325294e-09	-1.243561e-09	-5.758136e-02	-8.275736e+01
8.300000e-07	4.633977e-08	-1.184775e-09	3.205060e-01	-7.891117e+01
8.400000e-07	1.009714e-07	-1.127556e-09	6.983619e-01	-7.501059e+01
8.500000e-07	1.555895e-07	-1.066521e-09	1.076125e+00	-7.107370e+01
8.600000e-07	2.101744e-07	-1.001611e-09	1.453657e+00	-6.709933e+01
8.700000e-07	2.646995e-07	-9.392560e-10	1.830777e+00	-6.306602e+01
8.800000e-07	3.191947e-07	-8.818188e-10	2.207690e+00	-5.893833e+01
8.900000e-07	3.735980e-07	-8.197857e-10	2.583966e+00	-5.467826e+01
9.000000e-07	4.278702e-07	-7.510911e-10	2.959337e+00	-5.025746e+01
9.100000e-07	4.820275e-07	-6.791661e-10	3.333912e+00	-4.566571e+01
9.200000e-07	5.360304e-07	-6.073103e-10	3.707419e+00	-4.091233e+01
9.300000e-07	5.898184e-07	-5.333383e-10	4.079441e+00	-3.601994e+01
9.400000e-07	6.433548e-07	-4.541866e-10	4.449722e+00	-3.101284e+01
9.500000e-07	6.966229e-07	-3.728361e-10	4.818147e+00	-2.590423e+01
9.600000e-07	7.495968e-07	-2.932968e-10	5.184538e+00	-2.068727e+01
9.700000e-07	8.022744e-07	-2.165561e-10	5.548879e+00	-1.533332e+01
9.800000e-07	8.546809e-07	-1.346424e-10	5.911346e+00	-9.798200e+00
9.900000e-07	9.067887e-07	-4.358579e-11	6.271746e+00	-4.034229e+00
1.000000e-06	9.585245e-07	5.264126e-11	6.629573e+00	1.996168e+00
1.010000e-06	1.009804e-06	1.497544e-10	6.984247e+00	8.310247e+00
1.020000e-06	1.060533e-06	2.496919e-10	7.335105e+00	1.490155e+01
1.030000e-06	1.110583e-06	3.556297e-10	7.681278e+00	2.174413e+01
1.040000e-06	1.160018e-06	4.664110e-10	8.023192e+00	2.880234e+01
1.050000e-06	1.208951e-06	5.771334e-10	8.361629e+00	3.604176e+01
1.060000e-06	1.257508e-06	6.871292e-10	8.697472e+00	4.343684e+01
1.070000e-06	1.305778e-06	8.007089e-10	9.031331e+00	5.097181e+01
1.080000e-06	1.353667e-06	9.177233e-10	9.362548e+00	5.863458e+01
1.090000e-06	1.401028e-06	1.035715e-09	9.690118e+00	6.640599e+01
1.100000e-06	1.447850e-06	1.153807e-09	1.001396e+01	7.424905e+01
1.110000e-06	1.494227e-06	1.273074e-09	1.033472e+01	8.210297e+01
1.120000e-06	1.540084e-06	1.391586e-09	1.065189e+01	8.988518e+01
1.130000e-06	1.585365e-06	1.507093e-09	1.096508e+01	9.750149e+01
1.140000e-06	1.630175e-06	1.617402e-09	1.127500e+01	1.048618e+02
1.150000e-06	1.674623e-06	1.720591e-09	1.158242e+01	1.118959e+02
1.160000e-06	1.718649e-06	1.819534e-09	1.188692e+01	1.185649e+02
1.170000e-06	1.762019e-06	1.916180e-09	1.218689e+01	1.248634e+02
1.180000e-06	1.804502e-06	2.008248e-09	1.248073e+01	1.308125e+02
1.190000e-06	1.846021e-06	2.095190e-09	1.276789e+01	1.364473e+02
1.200000e-06	1.886822e-06	2.177404e-09	1.305008e+01	1.418007e+02
1.210000e-06	1.927123e-06	2.253600e-09	1.332882e+01	1.468927e+02
1.220000e-06	1.966846e-06	2.324723e-09	1.360357e+01	1.517249e+02
1.230000e-06	2.005925e-06	2.390417e-09	1.387385e+01	1.562852e+02
1.240000e-06	2.044341e-06	2.451868e-09	1.413955e+01	1.605569e+02
1.250000e-06	2.082010e-06	2.511343e-09	1.440009e+01	1.645303e+02
1.260000e-06	2.118954e-06	2.567284e-09	1.465561e+01	1.682115e+02
1.270000e-06	2.155353e-06	2.618164e-09	1.490736e+01	1.716236e+02
1.280000e-06	2.191131e-06	2.663503e-09	1.515482e+01	1.748022e+02
1.290000e-06	2.225954e-06	2.705562e-09	1.539566e+01	1.777857e+02
1.300000e-06	2.259687e-06	2.745817e-09	1.562898e+01	1.806039e+02
1.310000e-06	2.292517e-06	2.783352e-09	1.585604e+01	1.832713e+02
1.320000e-06	2.324667e-06	2.816940e-09	1.607841e+01	1.857862e+02
1.330000e-06	2.356097e-06	2.847980e-09	1.629580e+01	1.881364e+02
1.340000e-06	2.386697e-06	2.879253e-09	1.650743e+01	1.903092e+02
1.350000e-06	2.416506e-06	2.911406e-09	1.671361e+01	1.923020e+02
1.360000e-06	2.445594e-06	2.941468e-09	1.691479e+01	1.941280e+02
1.370000e-06	2.474013e-06	2.965807e-09	1.711135e+01	1.958161e+02
1.380000e-06	2.501629e-06	2.987227e-09	1.730235e+01	1.974037e+02
1.390000e-06	2.528145e-06	3.007856e-09	1.748576e+01	1.989265e+02
1.400000e-06	2.553444e-06	3.027443e-09	1.766073e+01	2.004072e+02
1.410000e-06	2.577723e-06	3.047167e-09	1.782865e+01	2.018496e+02
1.420000e-06	2.601164e-06	3.067226e-09	1.799078e+01	2.032391e+02
1.430000e-06	2.623746e-06	3.088863e-09	1.814697e+01	2.045501e+02
1.440000e-06	2.645477e-06	3.111191e-09	1.829727e+01	2.057564e+02
1.450000e-06	2.666387e-06	3.130508e-09	1.844189e+01	2.068427e+02
1.460000e-06	2.686486e-06	3.144312e-09	1.858091e+01	2.078109e+02
1.470000e-06	2.705655e-06	3.154106e-09	1.871349e+01	2.086797e+02
1.480000e-06	2.723838e-06	3.164427e-09	1.883925e+01	2.094787e+02
1.490000e-06	2.741088e-06	3.177490e-09	1.895856e+01	2.102379e+02
1.500000e-06	2.757310e-06	3.191566e-09	1.907076e+01	2.109774e+02
1.510000e-06	2.772436e-06	3.205506e-09	1.917538e+01	2.117017e+02
1.520000e-06	2.786499e-06	3.218611e-09	1.927264e+01	2.123991e+02
1.530000e-06	2.799599e-06	3.229427e-09	1.936324e+01	2.130482e+02
1.540000e-06	2.811681e-06	3.237236e-09	1.944681e+01	2.136270e+02
1.550000e-06	2.822487e-06	3.242690e-09	1.952155e+01	2.141219e+02
1.560000e-06	2.832031e-06	3.248896e-09	1.958756e+01	2.145332e+02
1.570000e-06	2.840546e-06	3.257975e-09	1.964646e+01	2.148747e+02
1.580000e-06	2.848134e-06	3.267358e-09	1.969893e+01	2.151681e+02
1.590000e-06	2.854777e-06	3.273992e-09	1.974488e+01	2.154345e+02
1.600000e-06	2.860453e-06	3.278312e-09	1.978414e+01	2.156861e+02
1.610000e-06	2.865273e-06	3.280751e-09	1.981748e+01	2.159223e+02
1.620000e-06	2.869223e-06	3.282487e-09	1.984479e+01	2.161305e+02
1.630000e-06	2.872030e-06	3.284712e-09	1.986421e+01	2.162920e+02
1.640000e-06	2.873588e-06	3.287663e-09	1.987498e+01	2.163898e+02
1.650000e-06	2.874096e-06	3.291804e-09	1.987850e+01	2.164164e+02
1.660000e-06	2.873714e-06	3.293469e-09	1.987586e+01	2.163764e+02
1.670000e-06	2.872450e-06	3.289482e-09	1.986711e+01	2.162845e+02
1.680000e-06	2.870259e-06	3.284258e-09	1.985196e+01	2.161596e+02
1.690000e-06	2.867228e-06	3.280056e-09	1.983100e+01	2.160159e+02
1.700000e-06	2.863475e-06	3.278220e-09	1.980504e+01	2.158565e+02
1.710000e-06	2.858720e-06	3.279480e-09	1.977215e+01	2.156709e+02
1.720000e-06	2.852742e-06	3.284158e-09	1.973080e+01	2.154386e+02
1.730000e-06	2.845760e-06	3.264274e-09	1.968252e+01	2.151363e+02
1.740000e-06	2.837882e-06	3.214501e-09	1.962803e+01	2.147482e+02
1.750000e-06	2.828702e-06	3.209240e-09	1.956454e+01	2.142730e+02
1.760000e-06	2.817929e-06	3.295614e-09	1.949003e+01	2.137276e+02
1.770000e-06	2.806174e-06	3.302338e-09	1.940872e+01	2.131434e+02
1.780000e-06	2.794246e-06	3.218944e-09	1.932622e+01	2.125575e+02
1.790000e-06	2.781673e-06	3.194922e-09	1.923926e+01	2.120019e+02
1.800000e-06	2.767479e-06	3.249660e-09	1.914109e+01	2.114935e+02
1.810000e-06	2.752010e-06	3.173661e-09	1.903410e+01	2.110282e+02
1.820000e-06	2.735987e-06	3.125773e-09	1.892328e+01	2.105829e+02
1.830000e-06	2.718970e-06	3.266610e-09	1.880558e+01	2.101218e+02
1.840000e-06	2.700629e-06	3.232005e-09	1.867872e+01	2.096077e+02
1.850000e-06	2.681533e-06	3.097067e-09	1.854665e+01	2.090128e+02
1.860000e-06	2.661709e-06	3.192568e-09	1.840954e+01	2.083255e+02
1.870000e-06	2.640664e-06	3.228763e-09	1.826398e+01	2.075527e+02
1.880000e-06	2.618485e-06	3.061031e-09	1.811059e+01	2.067147e+02
1.890000e-06	2.595366e-06	3.074376e-09	1.795068e+01	2.058369e+02
1.900000e-06	2.571226e-06	3.161202e-09	1.778372e+01	2.049402e+02
1.910000e-06	2.546290e-06	3.117467e-09	1.761125e+01	2.040337e+02
1.920000e-06	2.520626e-06	3.098060e-09	1.743375e+01	2.031124e+02
1.930000e-06	2.494093e-06	3.081973e-09	1.725023e+01	2.021599e+02
1.940000e-06	2.466861e-06	3.026652e-09	1.706188e+01	2.011559e+02
1.950000e-06	2.438763e-06	3.082118e-09	1.686754e+01	2.000846e+02
1.960000e-06	2.409411e-06	3.040943e-09	1.666453e+01	1.989411e+02
1.970000e-06	2.378998e-06	2.937768e-09	1.645419e+01	1.977340e+02
1.980000e-06	2.347765e-06	3.001107e-09	1.623817e+01	1.964829e+02
1.990000e-06	2.315751e-06	3.007337e-09	1.601674e+01	1.952111e+02
2.000000e-06	2.283046e-06	2.950656e-09	1.579054e+01	1.939380e+02
2.010000e-06	2.249580e-06	2.965129e-09	1.555907e+01	1.926713e+02
2.020000e-06	2.215356e-06	2.909196e-09	1.532237e+01	1.914040e+02
2.030000e-06	2.180523e-06	2.866456e-09	1.508145e+01	1.901170e+02
2.040000e-06	2.145014e-06	2.902322e-09	1.483585e+01	1.887851e+02
2.050000e-06	2.108723e-06	2.848682e-09	1.458484e+01	1.873857e+02
2.060000e-06	2.071558e-06	2.807443e-09	1.432780e+01	1.859070e+02
2.070000e-06	2.033375e-06	2.830428e-09	1.406371e+01	1.843525e+02
2.080000e-06	1.994338e-06	2.811472e-09	1.379371e+01	1.827396e+02
2.090000e-06	1.954701e-06	2.777399e-09	1.351957e+01	1.810942e+02
2.100000e-06	1.914474e-06	2.728891e-09	1.324134e+01	1.794419e+02
2.110000e-06	1.873593e-06	2.689132e-09	1.295858e+01	1.777995e+02
2.120000e-06	1.832093e-06	2.689494e-09	1.267156e+01	1.761689e+02
2.130000e-06	1.790014e-06	2.677930e-09	1.238052e+01	1.745364e+02
2.140000e-06	1.747346e-06	2.644847e-09	1.208541e+01	1.728772e+02
2.150000e-06	1.704166e-06	2.616654e-09	1.178676e+01	1.711637e+02
2.160000e-06	1.660521e-06	2.596781e-09	1.148489e+01	1.693736e+02
2.170000e-06	1.616371e-06	2.570566e-09	1.117952e+01	1.674975e+02
2.180000e-06	1.571613e-06	2.530113e-09	1.086996e+01	1.655402e+02
2.190000e-06	1.526172e-06	2.500669e-09	1.055567e+01	1.635184e+02
2.200000e-06	1.480154e-06	2.474469e-09	1.023739e+01	1.614536e+02
2.210000e-06	1.433722e-06	2.443263e-09	9.916243e+00	1.593644e+02
2.220000e-06	1.386856e-06	2.422693e-09	9.592097e+00	1.572597e+02
2.230000e-06	1.339487e-06	2.376980e-09	9.264473e+00	1.551364e+02
2.240000e-06	1.291508e-06	2.333206e-09	8.932634e+00	1.529816e+02
2.250000e-06	1.242933e-06	2.313250e-09	8.596664e+00	1.507783e+02
2.260000e-06	1.193919e-06	2.287230e-09	8.257661e+00	1.485128e+02
2.270000e-06	1.144534e-06	2.251857e-09	7.916092e+00	1.461798e+02
2.280000e-06	1.094772e-06	2.205563e-09	7.571920e+00	1.437847e+02
2.290000e-06	1.044555e-06	2.165442e-09	7.224598e+00	1.413405e+02
2.300000e-06	9.938404e-07	2.135626e-09	6.873833e+00	1.388616e+02
2.310000e-06	9.427491e-07	2.095543e-09	6.520463e+00	1.363572e+02
2.320000e-06	8.914012e-07	2.050973e-09	6.165319e+00	1.338258e+02
2.330000e-06	8.397567e-07	2.015614e-09	5.808123e+00	1.312548e+02
2.340000e-06	7.877943e-07	1.982503e-09	5.448729e+00	1.286241e+02
2.350000e-06	7.354401e-07	1.942474e-09	5.086624e+00	1.259132e+02
2.360000e-06	6.826311e-07	1.891336e-09	4.721374e+00	1.231093e+02
2.370000e-06	6.294621e-07	1.842759e-09	4.353634e+00	1.202124e+02
2.380000e-06	5.758921e-07	1.800709e-09	3.983120e+00	1.172355e+02
2.390000e-06	5.219071e-07	1.758874e-09	3.609737e+00	1.141998e+02
2.400000e-06	4.676437e-07	1.715866e-09	3.234427e+00	1.111259e+02
2.410000e-06	4.131790e-07	1.668604e-09	2.857726e+00	1.080252e+02
2.420000e-06	3.585897e-07	1.622689e-09	2.480162e+00	1.048937e+02
2.430000e-06	3.038762e-07	1.575601e-09	2.101740e+00	1.017113e+02
2.440000e-06	2.490159e-07	1.523178e-09	1.722302e+00	9.844845e+01
2.450000e-06	1.940548e-07	1.467190e-09	1.342168e+00	9.507503e+01
2.460000e-06	1.390603e-07	1.411115e-09	9.618018e-01	9.157150e+01
2.470000e-06	8.405401e-08	1.359567e-09	5.813541e-01	8.793576e+01
2.480000e-06	2.900594e-08	1.307216e-09	2.006177e-01	8.418406e+01
2.490000e-06	-2.601974e-08	1.247774e-09	-1.799639e-01	8.034503e+01
2.500000e-06	-8.103693e-08	1.185550e-09	-5.604867e-01	7.644878e+01
2.510000e-06	-1.360843e-07	1.126358e-09	-9.412186e-01	7.251513e+01
2.520000e-06	-1.911058e-07	1.066164e-09	-1.321771e+00	6.854514e+01
2.530000e-06	-2.461106e-07	1.001816e-09	-1.702208e+00	6.451934e+01
2.540000e-06	-3.010372e-07	9.364996e-10	-2.082105e+00	6.040331e+01
2.550000e-06	-3.557794e-07	8.739063e-10	-2.460725e+00	5.615871e+01
2.560000e-06	-4.103258e-07	8.100980e-10	-2.837992e+00	5.175565e+01
2.570000e-06	-4.647654e-07	7.403339e-10	-3.214520e+00	4.718175e+01
2.580000e-06	-5.190099e-07	6.666725e-10	-3.589698e+00	4.244442e+01
2.590000e-06	-5.728967e-07	5.901191e-10	-3.962403e+00	3.756535e+01
2.600000e-06	-6.263926e-07	5.132183e-10	-4.332404e+00	3.256928e+01
2.610000e-06	-6.794499e-07	4.367602e-10	-4.699371e+00	2.747114e+01
2.620000e-06	-7.320618e-07	3.583127e-10	-5.063258e+00	2.226646e+01
2.630000e-06	-7.842644e-07	2.755621e-10	-5.424314e+00	1.692879e+01
2.640000e-06	-8.360790e-07	1.914701e-10	-5.782686e+00	1.141508e+01
2.650000e-06	-8.876139e-07	1.067180e-10	-6.139124e+00	5.677374e+00
2.660000e-06	-9.389057e-07	1.601831e-11	-6.493881e+00	-3.235714e-01
2.670000e-06	-9.898871e-07	-8.136912e-11	-6.846491e+00	-6.607490e+00
2.680000e-06	-1.040501e-06	-1.816045e-10	-7.196556e+00	-1.317039e+01
2.690000e-06	-1.090648e-06	-2.824077e-10	-7.543395e+00	-1.998801e+01
2.700000e-06	-1.140396e-06	-3.878178e-10	-7.887476e+00	-2.702520e+01
2.710000e-06	-1.189775e-06	-4.985501e-10	-8.229005e+00	-3.424695e+01
2.720000e-06	-1.238755e-06	-6.114477e-10	-8.567771e+00	-4.162659e+01
2.730000e-06	-1.287150e-06	-7.256737e-10	-8.902492e+00	-4.914747e+01
2.740000e-06	-1.334716e-06	-8.434708e-10	-9.231474e+00	-5.679758e+01
2.750000e-06	-1.381526e-06	-9.644566e-10	-9.555233e+00	-6.455905e+01
2.760000e-06	-1.427769e-06	-1.085088e-09	-9.875073e+00	-7.239724e+01
2.770000e-06	-1.473589e-06	-1.205045e-09	-1.019198e+01	-8.025397e+01
2.780000e-06	-1.519079e-06	-1.324183e-09	-1.050661e+01	-8.804861e+01
2.790000e-06	-1.564186e-06	-1.441078e-09	-1.081859e+01	-9.568755e+01
2.800000e-06	-1.608715e-06	-1.554924e-09	-1.112657e+01	-1.030794e+02
2.810000e-06	-1.652631e-06	-1.664564e-09	-1.143032e+01	-1.101513e+02
2.820000e-06	-1.696097e-06	-1.767415e-09	-1.173094e+01	-1.168606e+02
2.830000e-06	-1.739181e-06	-1.864584e-09	-1.202894e+01	-1.231984e+02
2.840000e-06	-1.781780e-06	-1.957445e-09	-1.232357e+01	-1.291838e+02
2.850000e-06	-1.823749e-06	-2.045480e-09	-1.261384e+01	-1.348508e+02
2.860000e-06	-1.865076e-06	-2.127540e-09	-1.289968e+01	-1.402335e+02
2.870000e-06	-1.905775e-06	-2.205081e-09	-1.318117e+01	-1.453534e+02
2.880000e-06	-1.945832e-06	-2.280266e-09	-1.345822e+01	-1.502142e+02
2.890000e-06	-1.985350e-06	-2.352026e-09	-1.373154e+01	-1.548048e+02
2.900000e-06	-2.024298e-06	-2.419895e-09	-1.400092e+01	-1.591084e+02
2.910000e-06	-2.062459e-06	-2.484495e-09	-1.426486e+01	-1.631142e+02
2.920000e-06	-2.099616e-06	-2.545783e-09	-1.452186e+01	-1.668262e+02
2.930000e-06	-2.135781e-06	-2.602052e-09	-1.477199e+01	-1.702658e+02
2.940000e-06	-2.171233e-06	-2.653816e-09	-1.501719e+01	-1.734680e+02
