# Temperatura_=_16.96
# Concentracion g/m^3_=_13400.0
# C_Vs_to_Am_M_A/Vsm_=_65563218390.804596
# pendiente_HvsI_1/m_=_3716.3
# ordenada_HvsI_A/m_=_1297.0
# frecuencia_Hz_=_301005.3518610706

Tiempo_(s)	Campo_(V.s)	Magnetizacion_(V.s)	Campo_(kA/m)	Magnetizacion_(A/m)
0.000000e+00	-2.857930e-06	-3.143280e-09	-1.977818e+01	-2.050563e+02
1.000000e-08	-2.857096e-06	-3.144214e-09	-1.977240e+01	-2.049674e+02
2.000000e-08	-2.855392e-06	-3.142999e-09	-1.976062e+01	-2.048318e+02
3.000000e-08	-2.852509e-06	-3.140528e-09	-1.974067e+01	-2.046650e+02
4.000000e-08	-2.848503e-06	-3.137041e-09	-1.971294e+01	-2.044756e+02
5.000000e-08	-2.843649e-06	-3.132505e-09	-1.967935e+01	-2.042612e+02
6.000000e-08	-2.837990e-06	-3.132858e-09	-1.964018e+01	-2.040098e+02
7.000000e-08	-2.831396e-06	-3.140315e-09	-1.959455e+01	-2.037048e+02
8.000000e-08	-2.823736e-06	-3.145172e-09	-1.954154e+01	-2.033333e+02
9.000000e-08	-2.814895e-06	-3.109978e-09	-1.948036e+01	-2.028929e+02
1.000000e-07	-2.804723e-06	-3.081192e-09	-1.940996e+01	-2.023958e+02
1.100000e-07	-2.793274e-06	-3.092039e-09	-1.933073e+01	-2.018667e+02
1.200000e-07	-2.780897e-06	-3.136197e-09	-1.924508e+01	-2.013361e+02
1.300000e-07	-2.767746e-06	-3.069207e-09	-1.915407e+01	-2.008312e+02
1.400000e-07	-2.753632e-06	-2.995618e-09	-1.905639e+01	-2.003671e+02
1.500000e-07	-2.738497e-06	-3.107736e-09	-1.895165e+01	-1.999413e+02
1.600000e-07	-2.722174e-06	-3.123212e-09	-1.883868e+01	-1.995344e+02
1.700000e-07	-2.704545e-06	-3.000694e-09	-1.871669e+01	-1.991153e+02
1.800000e-07	-2.686011e-06	-3.000587e-09	-1.858842e+01	-1.986498e+02
1.900000e-07	-2.666796e-06	-3.087010e-09	-1.845544e+01	-1.981102e+02
2.000000e-07	-2.646693e-06	-2.987932e-09	-1.831632e+01	-1.974815e+02
2.100000e-07	-2.625669e-06	-2.934775e-09	-1.817082e+01	-1.967636e+02
2.200000e-07	-2.603837e-06	-3.051392e-09	-1.801974e+01	-1.959682e+02
2.300000e-07	-2.581112e-06	-3.009819e-09	-1.786247e+01	-1.951133e+02
2.400000e-07	-2.557440e-06	-2.935529e-09	-1.769865e+01	-1.942159e+02
2.500000e-07	-2.532965e-06	-2.984693e-09	-1.752927e+01	-1.932863e+02
2.600000e-07	-2.507689e-06	-2.928734e-09	-1.735435e+01	-1.923262e+02
2.700000e-07	-2.481340e-06	-2.868886e-09	-1.717200e+01	-1.913302e+02
2.800000e-07	-2.453877e-06	-2.924020e-09	-1.698195e+01	-1.902890e+02
2.900000e-07	-2.425492e-06	-2.895731e-09	-1.678551e+01	-1.891953e+02
3.000000e-07	-2.396279e-06	-2.849554e-09	-1.658334e+01	-1.880464e+02
3.100000e-07	-2.366274e-06	-2.855400e-09	-1.637570e+01	-1.868466e+02
3.200000e-07	-2.335545e-06	-2.848820e-09	-1.616304e+01	-1.856052e+02
3.300000e-07	-2.304139e-06	-2.811034e-09	-1.594569e+01	-1.843335e+02
3.400000e-07	-2.272031e-06	-2.784932e-09	-1.572349e+01	-1.830408e+02
3.500000e-07	-2.239203e-06	-2.751376e-09	-1.549631e+01	-1.817313e+02
3.600000e-07	-2.205563e-06	-2.752868e-09	-1.526350e+01	-1.804032e+02
3.700000e-07	-2.170921e-06	-2.751103e-09	-1.502377e+01	-1.790496e+02
3.800000e-07	-2.135274e-06	-2.703126e-09	-1.477707e+01	-1.776613e+02
3.900000e-07	-2.098831e-06	-2.695978e-09	-1.452487e+01	-1.762302e+02
4.000000e-07	-2.061744e-06	-2.684975e-09	-1.426821e+01	-1.747519e+02
4.100000e-07	-2.023952e-06	-2.649898e-09	-1.400667e+01	-1.732274e+02
4.200000e-07	-1.985430e-06	-2.609547e-09	-1.374008e+01	-1.716622e+02
4.300000e-07	-1.946203e-06	-2.586605e-09	-1.346862e+01	-1.700649e+02
4.400000e-07	-1.906255e-06	-2.567421e-09	-1.319215e+01	-1.684434e+02
4.500000e-07	-1.865768e-06	-2.557218e-09	-1.291196e+01	-1.668033e+02
4.600000e-07	-1.824889e-06	-2.530918e-09	-1.262907e+01	-1.651449e+02
4.700000e-07	-1.783349e-06	-2.494744e-09	-1.234159e+01	-1.634635e+02
4.800000e-07	-1.740779e-06	-2.465122e-09	-1.204699e+01	-1.617503e+02
4.900000e-07	-1.697228e-06	-2.437805e-09	-1.174559e+01	-1.599945e+02
5.000000e-07	-1.653037e-06	-2.412519e-09	-1.143977e+01	-1.581860e+02
5.100000e-07	-1.608433e-06	-2.376517e-09	-1.113109e+01	-1.563179e+02
5.200000e-07	-1.563397e-06	-2.355134e-09	-1.081942e+01	-1.543880e+02
5.300000e-07	-1.517850e-06	-2.330728e-09	-1.050421e+01	-1.523989e+02
5.400000e-07	-1.471744e-06	-2.301162e-09	-1.018514e+01	-1.503569e+02
5.500000e-07	-1.425052e-06	-2.255078e-09	-9.862011e+00	-1.482699e+02
5.600000e-07	-1.377809e-06	-2.212264e-09	-9.535064e+00	-1.461446e+02
5.700000e-07	-1.330079e-06	-2.185904e-09	-9.204754e+00	-1.439853e+02
5.800000e-07	-1.281925e-06	-2.163011e-09	-8.871506e+00	-1.417920e+02
5.900000e-07	-1.233430e-06	-2.130936e-09	-8.535900e+00	-1.395614e+02
6.000000e-07	-1.184545e-06	-2.088214e-09	-8.197594e+00	-1.372886e+02
6.100000e-07	-1.135051e-06	-2.052050e-09	-7.855071e+00	-1.349687e+02
6.200000e-07	-1.084899e-06	-2.012918e-09	-7.507998e+00	-1.325989e+02
6.300000e-07	-1.034175e-06	-1.973685e-09	-7.156960e+00	-1.301791e+02
6.400000e-07	-9.828673e-07	-1.929366e-09	-6.801890e+00	-1.277118e+02
6.500000e-07	-9.310650e-07	-1.889690e-09	-6.443394e+00	-1.251997e+02
6.600000e-07	-8.789033e-07	-1.857346e-09	-6.082412e+00	-1.226442e+02
6.700000e-07	-8.264584e-07	-1.824927e-09	-5.719469e+00	-1.200436e+02
6.800000e-07	-7.737914e-07	-1.782977e-09	-5.354989e+00	-1.173927e+02
6.900000e-07	-7.208590e-07	-1.733267e-09	-4.988673e+00	-1.146845e+02
7.000000e-07	-6.676247e-07	-1.691122e-09	-4.620267e+00	-1.119124e+02
7.100000e-07	-6.140946e-07	-1.650364e-09	-4.249815e+00	-1.090732e+02
7.200000e-07	-5.603189e-07	-1.606418e-09	-3.877662e+00	-1.061689e+02
7.300000e-07	-5.063717e-07	-1.556439e-09	-3.504323e+00	-1.032060e+02
7.400000e-07	-4.522484e-07	-1.509695e-09	-3.129765e+00	-1.001933e+02
7.500000e-07	-3.979678e-07	-1.465485e-09	-2.754119e+00	-9.713806e+01
7.600000e-07	-3.436036e-07	-1.417677e-09	-2.377893e+00	-9.404186e+01
7.700000e-07	-2.891835e-07	-1.364895e-09	-2.001282e+00	-9.089839e+01
7.800000e-07	-2.347099e-07	-1.312753e-09	-1.624299e+00	-8.769406e+01
7.900000e-07	-1.801609e-07	-1.265858e-09	-1.246796e+00	-8.441168e+01
8.000000e-07	-1.255309e-07	-1.215238e-09	-8.687312e-01	-8.103606e+01
8.100000e-07	-7.088695e-08	-1.159789e-09	-4.905700e-01	-7.755964e+01
8.200000e-07	-1.623865e-08	-1.102851e-09	-1.123789e-01	-7.398581e+01
8.300000e-07	3.842373e-08	-1.050738e-09	2.659097e-01	-7.032836e+01
8.400000e-07	9.310502e-08	-9.969405e-10	6.443292e-01	-6.660693e+01
8.500000e-07	1.477635e-07	-9.390928e-10	1.022591e+00	-6.283967e+01
8.600000e-07	2.023689e-07	-8.798061e-10	1.400485e+00	-5.903562e+01
8.700000e-07	2.569111e-07	-8.211493e-10	1.777942e+00	-5.518989e+01
8.800000e-07	3.113756e-07	-7.635442e-10	2.154861e+00	-5.128333e+01
8.900000e-07	3.657470e-07	-7.019247e-10	2.531136e+00	-4.728735e+01
9.000000e-07	4.200031e-07	-6.378302e-10	2.906613e+00	-4.317232e+01
9.100000e-07	4.741472e-07	-5.727193e-10	3.281315e+00	-3.891658e+01
9.200000e-07	5.281475e-07	-5.082649e-10	3.655021e+00	-3.451271e+01
9.300000e-07	5.819662e-07	-4.404008e-10	4.027471e+00	-2.996867e+01
9.400000e-07	6.355073e-07	-3.684558e-10	4.398000e+00	-2.530314e+01
9.500000e-07	6.886942e-07	-2.938410e-10	4.766078e+00	-2.053662e+01
9.600000e-07	7.415863e-07	-2.203290e-10	5.132115e+00	-1.568157e+01
9.700000e-07	7.942663e-07	-1.483894e-10	5.496685e+00	-1.073519e+01
9.800000e-07	8.467103e-07	-7.267280e-11	5.859622e+00	-5.677782e+00
9.900000e-07	8.988985e-07	8.298443e-12	6.220787e+00	-4.772937e-01
1.000000e-06	9.507824e-07	9.350345e-11	6.579848e+00	4.901361e+00
1.010000e-06	1.002196e-06	1.789237e-10	6.935652e+00	1.048564e+01
1.020000e-06	1.052953e-06	2.663766e-10	7.286914e+00	1.628717e+01
1.030000e-06	1.102997e-06	3.572425e-10	7.633241e+00	2.229893e+01
1.040000e-06	1.152434e-06	4.532441e-10	7.975369e+00	2.849853e+01
1.050000e-06	1.201380e-06	5.520814e-10	8.314098e+00	3.485599e+01
1.060000e-06	1.249975e-06	6.498571e-10	8.650396e+00	4.134262e+01
1.070000e-06	1.298312e-06	7.490840e-10	8.984908e+00	4.793717e+01
1.080000e-06	1.346239e-06	8.519042e-10	9.316590e+00	5.462660e+01
1.090000e-06	1.393651e-06	9.559126e-10	9.644699e+00	6.140105e+01
1.100000e-06	1.440554e-06	1.058145e-09	9.969294e+00	6.824513e+01
1.110000e-06	1.486946e-06	1.161642e-09	1.029035e+01	7.512928e+01
1.120000e-06	1.532827e-06	1.266423e-09	1.060786e+01	8.200532e+01
1.130000e-06	1.578172e-06	1.370394e-09	1.092167e+01	8.880862e+01
1.140000e-06	1.623058e-06	1.470978e-09	1.123230e+01	9.546708e+01
1.150000e-06	1.667573e-06	1.566450e-09	1.154036e+01	1.019142e+02
1.160000e-06	1.711635e-06	1.657621e-09	1.184529e+01	1.081019e+02
1.170000e-06	1.755014e-06	1.746013e-09	1.214550e+01	1.140085e+02
1.180000e-06	1.797533e-06	1.831758e-09	1.243975e+01	1.196386e+02
1.190000e-06	1.839165e-06	1.913092e-09	1.272786e+01	1.250158e+02
1.200000e-06	1.880070e-06	1.990885e-09	1.301094e+01	1.301692e+02
1.210000e-06	1.920436e-06	2.066154e-09	1.329030e+01	1.351204e+02
1.220000e-06	1.960217e-06	2.139781e-09	1.356560e+01	1.398744e+02
1.230000e-06	1.999354e-06	2.209263e-09	1.383644e+01	1.444177e+02
1.240000e-06	2.037836e-06	2.272072e-09	1.410276e+01	1.487249e+02
1.250000e-06	2.075605e-06	2.328756e-09	1.436414e+01	1.527697e+02
1.260000e-06	2.112678e-06	2.382631e-09	1.462069e+01	1.565373e+02
1.270000e-06	2.149176e-06	2.433588e-09	1.487328e+01	1.600325e+02
1.280000e-06	2.185057e-06	2.480461e-09	1.512159e+01	1.632799e+02
1.290000e-06	2.219989e-06	2.524640e-09	1.536334e+01	1.663177e+02
1.300000e-06	2.253839e-06	2.566467e-09	1.559759e+01	1.691860e+02
1.310000e-06	2.286811e-06	2.606219e-09	1.582578e+01	1.719152e+02
1.320000e-06	2.319089e-06	2.642377e-09	1.604915e+01	1.745180e+02
1.330000e-06	2.350620e-06	2.676514e-09	1.626736e+01	1.769886e+02
1.340000e-06	2.381354e-06	2.709970e-09	1.648005e+01	1.793096e+02
1.350000e-06	2.411306e-06	2.742070e-09	1.668734e+01	1.814621e+02
1.360000e-06	2.440476e-06	2.770316e-09	1.688921e+01	1.834374e+02
1.370000e-06	2.468951e-06	2.795196e-09	1.708627e+01	1.852431e+02
1.380000e-06	2.496600e-06	2.819289e-09	1.727761e+01	1.869036e+02
1.390000e-06	2.523136e-06	2.842604e-09	1.746126e+01	1.884530e+02
1.400000e-06	2.548529e-06	2.865166e-09	1.763699e+01	1.899249e+02
1.410000e-06	2.572934e-06	2.886523e-09	1.780588e+01	1.913416e+02
1.420000e-06	2.596433e-06	2.906423e-09	1.796850e+01	1.927086e+02
1.430000e-06	2.619106e-06	2.925097e-09	1.812541e+01	1.940147e+02
1.440000e-06	2.640965e-06	2.942747e-09	1.827668e+01	1.952391e+02
1.450000e-06	2.661972e-06	2.959853e-09	1.842206e+01	1.963615e+02
1.460000e-06	2.682155e-06	2.976197e-09	1.856174e+01	1.973717e+02
1.470000e-06	2.701468e-06	2.990125e-09	1.869539e+01	1.982747e+02
1.480000e-06	2.719787e-06	3.002402e-09	1.882217e+01	1.990902e+02
1.490000e-06	2.737122e-06	3.014160e-09	1.894213e+01	1.998454e+02
1.500000e-06	2.753461e-06	3.025877e-09	1.905521e+01	2.005653e+02
1.510000e-06	2.768744e-06	3.038035e-09	1.916097e+01	2.012647e+02
1.520000e-06	2.783018e-06	3.049027e-09	1.925975e+01	2.019432e+02
1.530000e-06	2.796313e-06	3.059001e-09	1.935176e+01	2.025870e+02
1.540000e-06	2.808515e-06	3.070028e-09	1.943621e+01	2.031759e+02
1.550000e-06	2.819470e-06	3.079528e-09	1.951202e+01	2.036919e+02
1.560000e-06	2.829226e-06	3.086105e-09	1.957954e+01	2.041270e+02
1.570000e-06	2.837903e-06	3.092107e-09	1.963958e+01	2.044868e+02
1.580000e-06	2.845596e-06	3.098878e-09	1.969282e+01	2.047876e+02
1.590000e-06	2.852353e-06	3.105466e-09	1.973958e+01	2.050506e+02
1.600000e-06	2.858144e-06	3.110229e-09	1.977966e+01	2.052928e+02
1.610000e-06	2.863055e-06	3.112672e-09	1.981365e+01	2.055210e+02
1.620000e-06	2.867125e-06	3.115204e-09	1.984181e+01	2.057295e+02
1.630000e-06	2.870076e-06	3.119806e-09	1.986223e+01	2.059026e+02
1.640000e-06	2.871772e-06	3.124272e-09	1.987397e+01	2.060218e+02
1.650000e-06	2.872426e-06	3.126608e-09	1.987850e+01	2.060735e+02
1.660000e-06	2.872175e-06	3.127493e-09	1.987676e+01	2.060539e+02
1.670000e-06	2.871018e-06	3.127004e-09	1.986875e+01	2.059707e+02
1.680000e-06	2.868976e-06	3.125124e-09	1.985462e+01	2.058391e+02
1.690000e-06	2.866123e-06	3.119996e-09	1.983488e+01	2.056748e+02
1.700000e-06	2.862434e-06	3.114865e-09	1.980935e+01	2.054874e+02
1.710000e-06	2.857735e-06	3.112769e-09	1.977683e+01	2.052759e+02
1.720000e-06	2.851942e-06	3.104292e-09	1.973674e+01	2.050290e+02
1.730000e-06	2.845167e-06	3.088223e-09	1.968985e+01	2.047302e+02
1.740000e-06	2.837464e-06	3.084781e-09	1.963655e+01	2.043659e+02
1.750000e-06	2.828545e-06	3.111063e-09	1.957482e+01	2.039323e+02
1.760000e-06	2.818134e-06	3.107587e-09	1.950277e+01	2.034401e+02
1.770000e-06	2.806590e-06	3.044884e-09	1.942289e+01	2.029127e+02
1.780000e-06	2.794624e-06	3.069427e-09	1.934007e+01	2.023805e+02
1.790000e-06	2.782101e-06	3.116535e-09	1.925341e+01	2.018716e+02
1.800000e-06	2.768214e-06	3.075457e-09	1.915731e+01	2.014027e+02
1.810000e-06	2.752977e-06	2.952597e-09	1.905186e+01	2.009732e+02
1.820000e-06	2.737006e-06	3.027282e-09	1.894133e+01	2.005654e+02
1.830000e-06	2.720147e-06	3.130557e-09	1.882466e+01	2.001490e+02
1.840000e-06	2.702054e-06	3.001798e-09	1.869945e+01	1.996897e+02
1.850000e-06	2.683038e-06	3.002051e-09	1.856785e+01	1.991588e+02
1.860000e-06	2.663255e-06	3.109198e-09	1.843094e+01	1.985396e+02
1.870000e-06	2.642370e-06	3.004214e-09	1.828640e+01	1.978306e+02
1.880000e-06	2.620299e-06	2.914804e-09	1.813366e+01	1.970424e+02
1.890000e-06	2.597272e-06	3.009525e-09	1.797431e+01	1.961928e+02
1.900000e-06	2.573317e-06	2.985922e-09	1.780853e+01	1.952990e+02
1.910000e-06	2.548532e-06	2.931907e-09	1.763701e+01	1.943723e+02
1.920000e-06	2.522974e-06	2.991885e-09	1.746013e+01	1.934155e+02
1.930000e-06	2.496559e-06	2.953469e-09	1.727732e+01	1.924234e+02
1.940000e-06	2.469425e-06	2.863664e-09	1.708954e+01	1.913873e+02
1.950000e-06	2.441517e-06	2.919490e-09	1.689641e+01	1.902991e+02
1.960000e-06	2.412479e-06	2.886626e-09	1.669546e+01	1.891558e+02
1.970000e-06	2.382240e-06	2.830775e-09	1.648619e+01	1.879609e+02
1.980000e-06	2.351121e-06	2.856684e-09	1.627083e+01	1.867232e+02
1.990000e-06	2.319301e-06	2.833723e-09	1.605062e+01	1.854539e+02
2.000000e-06	2.286780e-06	2.824779e-09	1.582556e+01	1.841629e+02
2.010000e-06	2.253462e-06	2.808470e-09	1.559499e+01	1.828549e+02
2.020000e-06	2.219328e-06	2.742255e-09	1.535876e+01	1.815288e+02
2.030000e-06	2.184543e-06	2.749245e-09	1.511804e+01	1.801781e+02
2.040000e-06	2.149140e-06	2.747263e-09	1.487303e+01	1.787937e+02
2.050000e-06	2.112988e-06	2.678431e-09	1.462284e+01	1.773672e+02
2.060000e-06	2.075935e-06	2.678474e-09	1.436642e+01	1.758937e+02
2.070000e-06	2.037920e-06	2.673132e-09	1.410333e+01	1.743737e+02
2.080000e-06	1.999034e-06	2.641431e-09	1.383423e+01	1.728123e+02
2.090000e-06	1.959496e-06	2.623383e-09	1.356061e+01	1.712177e+02
2.100000e-06	1.919367e-06	2.579288e-09	1.328290e+01	1.695983e+02
2.110000e-06	1.878568e-06	2.550810e-09	1.300055e+01	1.679597e+02
2.120000e-06	1.837154e-06	2.535634e-09	1.271394e+01	1.663032e+02
2.130000e-06	1.795165e-06	2.513061e-09	1.242336e+01	1.646244e+02
2.140000e-06	1.752592e-06	2.497249e-09	1.212874e+01	1.629148e+02
2.150000e-06	1.709523e-06	2.465952e-09	1.183068e+01	1.611639e+02
2.160000e-06	1.665998e-06	2.432287e-09	1.152946e+01	1.593612e+02
2.170000e-06	1.621924e-06	2.407279e-09	1.122446e+01	1.574994e+02
2.180000e-06	1.577211e-06	2.367753e-09	1.091502e+01	1.555758e+02
2.190000e-06	1.531868e-06	2.339552e-09	1.060122e+01	1.535925e+02
2.200000e-06	1.485968e-06	2.319211e-09	1.028358e+01	1.515556e+02
2.210000e-06	1.439613e-06	2.296636e-09	9.962776e+00	1.494727e+02
2.220000e-06	1.392808e-06	2.270606e-09	9.638866e+00	1.473511e+02
2.230000e-06	1.345493e-06	2.219429e-09	9.311423e+00	1.451950e+02
2.240000e-06	1.297634e-06	2.180336e-09	8.980221e+00	1.430052e+02
2.250000e-06	1.249206e-06	2.148645e-09	8.645078e+00	1.407786e+02
2.260000e-06	1.200297e-06	2.116636e-09	8.306602e+00	1.385104e+02
2.270000e-06	1.150997e-06	2.090500e-09	7.965426e+00	1.361954e+02
2.280000e-06	1.101268e-06	2.055143e-09	7.621276e+00	1.338307e+02
2.290000e-06	1.051051e-06	2.021843e-09	7.273754e+00	1.314160e+02
2.300000e-06	1.000386e-06	1.986848e-09	6.923126e+00	1.289533e+02
2.310000e-06	9.493825e-07	1.944019e-09	6.570160e+00	1.264457e+02
2.320000e-06	8.981415e-07	1.899962e-09	6.215549e+00	1.238946e+02
2.330000e-06	8.466627e-07	1.859955e-09	5.859292e+00	1.212987e+02
2.340000e-06	7.948613e-07	1.826392e-09	5.500803e+00	1.186533e+02
2.350000e-06	7.426491e-07	1.790408e-09	5.139471e+00	1.159513e+02
2.360000e-06	6.900056e-07	1.744129e-09	4.775154e+00	1.131860e+02
2.370000e-06	6.369176e-07	1.699932e-09	4.407760e+00	1.103538e+02
2.380000e-06	5.834325e-07	1.656870e-09	4.037619e+00	1.074560e+02
2.390000e-06	5.295856e-07	1.613907e-09	3.664974e+00	1.044986e+02
2.400000e-06	4.754290e-07	1.569365e-09	3.290186e+00	1.014906e+02
2.410000e-06	4.210346e-07	1.520458e-09	2.913751e+00	9.843949e+01
2.420000e-06	3.664272e-07	1.477402e-09	2.535843e+00	9.534759e+01
2.430000e-06	3.116943e-07	1.432943e-09	2.157067e+00	9.220946e+01
2.440000e-06	2.568467e-07	1.383930e-09	1.777496e+00	8.901220e+01
2.450000e-06	2.018981e-07	1.331541e-09	1.397227e+00	8.573873e+01
2.460000e-06	1.468974e-07	1.278701e-09	1.016597e+00	8.237338e+01
2.470000e-06	9.185291e-08	1.228205e-09	6.356640e-01	7.890755e+01
2.480000e-06	3.678354e-08	1.175062e-09	2.545589e-01	7.534339e+01
2.490000e-06	-1.829981e-08	1.119598e-09	-1.266430e-01	7.169375e+01
2.500000e-06	-7.340325e-08	1.063359e-09	-5.079839e-01	6.797796e+01
2.510000e-06	-1.284668e-07	1.005572e-09	-8.890490e-01	6.421470e+01
2.520000e-06	-1.834537e-07	9.454434e-10	-1.269583e+00	6.041431e+01
2.530000e-06	-2.384245e-07	8.851191e-10	-1.650006e+00	5.657347e+01
2.540000e-06	-2.933315e-07	8.244182e-10	-2.029988e+00	5.267443e+01
2.550000e-06	-3.480940e-07	7.659337e-10	-2.408969e+00	4.868925e+01
2.560000e-06	-4.027053e-07	7.067616e-10	-2.786904e+00	4.458796e+01
2.570000e-06	-4.571766e-07	6.417638e-10	-3.163871e+00	4.034767e+01
2.580000e-06	-5.114260e-07	5.719091e-10	-3.539301e+00	3.595929e+01
2.590000e-06	-5.652711e-07	5.017962e-10	-3.911934e+00	3.142924e+01
2.600000e-06	-6.187143e-07	4.319527e-10	-4.281785e+00	2.677544e+01
2.610000e-06	-6.718388e-07	3.592380e-10	-4.649431e+00	2.201867e+01
2.620000e-06	-7.245804e-07	2.850288e-10	-5.014427e+00	1.717267e+01
2.630000e-06	-7.768322e-07	2.094877e-10	-5.376033e+00	1.223648e+01
2.640000e-06	-8.286571e-07	1.336242e-10	-5.734685e+00	7.192090e+00
2.650000e-06	-8.801813e-07	5.471719e-11	-6.091256e+00	2.008389e+00
2.660000e-06	-9.314536e-07	-2.781052e-11	-6.446084e+00	-3.349903e+00
2.670000e-06	-9.824322e-07	-1.121560e-10	-6.798879e+00	-8.911525e+00
2.680000e-06	-1.033059e-06	-1.990678e-10	-7.149237e+00	-1.469005e+01
2.690000e-06	-1.083273e-06	-2.883938e-10	-7.496741e+00	-2.068040e+01
2.700000e-06	-1.133079e-06	-3.812786e-10	-7.841423e+00	-2.686151e+01
2.710000e-06	-1.182507e-06	-4.782927e-10	-8.183490e+00	-3.320378e+01
2.720000e-06	-1.231491e-06	-5.783467e-10	-8.522480e+00	-3.967800e+01
2.730000e-06	-1.279897e-06	-6.786967e-10	-8.857473e+00	-4.626199e+01
2.740000e-06	-1.327545e-06	-7.804570e-10	-9.187214e+00	-5.294198e+01
2.750000e-06	-1.374476e-06	-8.843086e-10	-9.512004e+00	-5.970813e+01
2.760000e-06	-1.420828e-06	-9.885248e-10	-9.832780e+00	-6.654611e+01
2.770000e-06	-1.466709e-06	-1.091910e-09	-1.015029e+01	-7.342820e+01
2.780000e-06	-1.512204e-06	-1.194878e-09	-1.046514e+01	-8.030822e+01
2.790000e-06	-1.557320e-06	-1.299817e-09	-1.077736e+01	-8.712299e+01
2.800000e-06	-1.601969e-06	-1.404760e-09	-1.108635e+01	-9.380062e+01
2.810000e-06	-1.645995e-06	-1.506458e-09	-1.139103e+01	-1.002734e+02
2.820000e-06	-1.689474e-06	-1.603641e-09	-1.169193e+01	-1.064907e+02
2.830000e-06	-1.732575e-06	-1.696672e-09	-1.199021e+01	-1.124278e+02
2.840000e-06	-1.775221e-06	-1.783513e-09	-1.228534e+01	-1.180869e+02
2.850000e-06	-1.817281e-06	-1.865329e-09	-1.257641e+01	-1.234900e+02
2.860000e-06	-1.858706e-06	-1.943171e-09	-1.286309e+01	-1.286664e+02
2.870000e-06	-1.899497e-06	-2.018426e-09	-1.314538e+01	-1.336390e+02
2.880000e-06	-1.939627e-06	-2.092247e-09	-1.342310e+01	-1.384147e+02
2.890000e-06	-1.979141e-06	-2.164022e-09	-1.369656e+01	-1.429820e+02
2.900000e-06	-2.018156e-06	-2.234531e-09	-1.396656e+01	-1.473160e+02
2.910000e-06	-2.056509e-06	-2.301148e-09	-1.423198e+01	-1.513902e+02
2.920000e-06	-2.093847e-06	-2.362484e-09	-1.449038e+01	-1.551880e+02
2.930000e-06	-2.130086e-06	-2.418178e-09	-1.474117e+01	-1.587117e+02
2.940000e-06	-2.165523e-06	-2.469287e-09	-1.498641e+01	-1.619842e+02
