# Temperatura_=_18.18
# Concentracion g/m^3_=_13400.0
# C_Vs_to_Am_M_A/Vsm_=_65563218390.804596
# pendiente_HvsI_1/m_=_3716.3
# ordenada_HvsI_A/m_=_1297.0
# frecuencia_Hz_=_301000.6426621684

Tiempo_(s)	Campo_(V.s)	Magnetizacion_(V.s)	Campo_(kA/m)	Magnetizacion_(A/m)
0.000000e+00	-2.854543e-06	-3.204892e-09	-1.978348e+01	-2.101210e+02
1.000000e-08	-2.853729e-06	-3.207994e-09	-1.977783e+01	-2.100752e+02
2.000000e-08	-2.851943e-06	-3.209551e-09	-1.976546e+01	-2.100242e+02
3.000000e-08	-2.848888e-06	-3.209226e-09	-1.974429e+01	-2.099632e+02
4.000000e-08	-2.844759e-06	-3.207916e-09	-1.971567e+01	-2.098769e+02
5.000000e-08	-2.839844e-06	-3.204172e-09	-1.968161e+01	-2.097444e+02
6.000000e-08	-2.834108e-06	-3.196302e-09	-1.964186e+01	-2.095466e+02
7.000000e-08	-2.827406e-06	-3.193322e-09	-1.959540e+01	-2.092729e+02
8.000000e-08	-2.819679e-06	-3.228620e-09	-1.954185e+01	-2.089250e+02
9.000000e-08	-2.810810e-06	-3.240811e-09	-1.948039e+01	-2.085163e+02
1.000000e-07	-2.800488e-06	-3.181924e-09	-1.940885e+01	-2.080671e+02
1.100000e-07	-2.788819e-06	-3.087740e-09	-1.932798e+01	-2.075972e+02
1.200000e-07	-2.776356e-06	-3.166460e-09	-1.924160e+01	-2.071197e+02
1.300000e-07	-2.763118e-06	-3.238296e-09	-1.914986e+01	-2.066369e+02
1.400000e-07	-2.748868e-06	-3.101693e-09	-1.905109e+01	-2.061406e+02
1.500000e-07	-2.733645e-06	-3.109386e-09	-1.894559e+01	-2.056167e+02
1.600000e-07	-2.717207e-06	-3.239011e-09	-1.883167e+01	-2.050506e+02
1.700000e-07	-2.699435e-06	-3.152774e-09	-1.870850e+01	-2.044333e+02
1.800000e-07	-2.680855e-06	-3.010160e-09	-1.857973e+01	-2.037639e+02
1.900000e-07	-2.661624e-06	-3.145645e-09	-1.844645e+01	-2.030487e+02
2.000000e-07	-2.641447e-06	-3.130467e-09	-1.830661e+01	-2.022973e+02
2.100000e-07	-2.620384e-06	-2.964044e-09	-1.816063e+01	-2.015169e+02
2.200000e-07	-2.598535e-06	-3.103617e-09	-1.800921e+01	-2.007085e+02
2.300000e-07	-2.575744e-06	-3.172153e-09	-1.785126e+01	-1.998654e+02
2.400000e-07	-2.552003e-06	-3.007433e-09	-1.768672e+01	-1.989753e+02
2.500000e-07	-2.527497e-06	-3.008953e-09	-1.751688e+01	-1.980254e+02
2.600000e-07	-2.502239e-06	-3.027700e-09	-1.734183e+01	-1.970081e+02
2.700000e-07	-2.475908e-06	-2.962900e-09	-1.715934e+01	-1.959245e+02
2.800000e-07	-2.448429e-06	-3.002831e-09	-1.696890e+01	-1.947850e+02
2.900000e-07	-2.420013e-06	-2.976493e-09	-1.677196e+01	-1.936061e+02
3.000000e-07	-2.390732e-06	-2.918891e-09	-1.656903e+01	-1.924050e+02
3.100000e-07	-2.360703e-06	-2.959350e-09	-1.636091e+01	-1.911934e+02
3.200000e-07	-2.329991e-06	-2.942615e-09	-1.614806e+01	-1.899737e+02
3.300000e-07	-2.298493e-06	-2.849754e-09	-1.592976e+01	-1.887387e+02
3.400000e-07	-2.266254e-06	-2.866578e-09	-1.570633e+01	-1.874746e+02
3.500000e-07	-2.233430e-06	-2.848954e-09	-1.547884e+01	-1.861668e+02
3.600000e-07	-2.199774e-06	-2.813238e-09	-1.524559e+01	-1.848055e+02
3.700000e-07	-2.164975e-06	-2.845372e-09	-1.500441e+01	-1.833893e+02
3.800000e-07	-2.129150e-06	-2.789632e-09	-1.475612e+01	-1.819257e+02
3.900000e-07	-2.092681e-06	-2.743820e-09	-1.450338e+01	-1.804275e+02
4.000000e-07	-2.055615e-06	-2.765073e-09	-1.424649e+01	-1.789080e+02
4.100000e-07	-2.017793e-06	-2.738327e-09	-1.398436e+01	-1.773752e+02
4.200000e-07	-1.979249e-06	-2.665184e-09	-1.371724e+01	-1.758294e+02
4.300000e-07	-1.939929e-06	-2.659570e-09	-1.344472e+01	-1.742624e+02
4.400000e-07	-1.899943e-06	-2.658016e-09	-1.316760e+01	-1.726613e+02
4.500000e-07	-1.859526e-06	-2.638119e-09	-1.288749e+01	-1.710131e+02
4.600000e-07	-1.818729e-06	-2.603461e-09	-1.260475e+01	-1.693093e+02
4.700000e-07	-1.777271e-06	-2.558545e-09	-1.231742e+01	-1.675490e+02
4.800000e-07	-1.734759e-06	-2.532527e-09	-1.202279e+01	-1.657380e+02
4.900000e-07	-1.691225e-06	-2.518972e-09	-1.172108e+01	-1.638863e+02
5.000000e-07	-1.647032e-06	-2.491042e-09	-1.141480e+01	-1.620037e+02
5.100000e-07	-1.602479e-06	-2.438700e-09	-1.110602e+01	-1.600954e+02
5.200000e-07	-1.557534e-06	-2.421531e-09	-1.079453e+01	-1.581607e+02
5.300000e-07	-1.511996e-06	-2.403863e-09	-1.047892e+01	-1.561931e+02
5.400000e-07	-1.465873e-06	-2.371615e-09	-1.015927e+01	-1.541831e+02
5.500000e-07	-1.419262e-06	-2.324758e-09	-9.836226e+00	-1.521224e+02
5.600000e-07	-1.372113e-06	-2.285300e-09	-9.509463e+00	-1.500071e+02
5.700000e-07	-1.324417e-06	-2.262704e-09	-9.178906e+00	-1.478386e+02
5.800000e-07	-1.276308e-06	-2.241958e-09	-8.845486e+00	-1.456233e+02
5.900000e-07	-1.227926e-06	-2.203052e-09	-8.510167e+00	-1.433691e+02
6.000000e-07	-1.179146e-06	-2.150884e-09	-8.172101e+00	-1.410823e+02
6.100000e-07	-1.129770e-06	-2.119806e-09	-7.829897e+00	-1.387647e+02
6.200000e-07	-1.079754e-06	-2.090516e-09	-7.483264e+00	-1.364129e+02
6.300000e-07	-1.029049e-06	-2.055539e-09	-7.131851e+00	-1.340189e+02
6.400000e-07	-9.777621e-07	-2.006008e-09	-6.776404e+00	-1.315734e+02
6.500000e-07	-9.260516e-07	-1.964096e-09	-6.418023e+00	-1.290687e+02
6.600000e-07	-8.739548e-07	-1.936590e-09	-6.056965e+00	-1.265011e+02
6.700000e-07	-8.215806e-07	-1.903121e-09	-5.693984e+00	-1.238718e+02
6.800000e-07	-7.689984e-07	-1.853279e-09	-5.329562e+00	-1.211862e+02
6.900000e-07	-7.161495e-07	-1.802681e-09	-4.963291e+00	-1.184511e+02
7.000000e-07	-6.630073e-07	-1.769705e-09	-4.594988e+00	-1.156725e+02
7.100000e-07	-6.095589e-07	-1.732421e-09	-4.224562e+00	-1.128530e+02
7.200000e-07	-5.558572e-07	-1.683808e-09	-3.852381e+00	-1.099908e+02
7.300000e-07	-5.019534e-07	-1.628676e-09	-3.478800e+00	-1.070798e+02
7.400000e-07	-4.478474e-07	-1.583922e-09	-3.103817e+00	-1.041107e+02
7.500000e-07	-3.935754e-07	-1.544937e-09	-2.727684e+00	-1.010736e+02
7.600000e-07	-3.392221e-07	-1.497693e-09	-2.350987e+00	-9.795903e+01
7.700000e-07	-2.848476e-07	-1.440641e-09	-1.974143e+00	-9.476006e+01
7.800000e-07	-2.303711e-07	-1.387803e-09	-1.596592e+00	-9.147297e+01
7.900000e-07	-1.757960e-07	-1.344261e-09	-1.218358e+00	-8.809757e+01
8.000000e-07	-1.212204e-07	-1.293074e-09	-8.401208e-01	-8.463698e+01
8.100000e-07	-6.663808e-08	-1.233798e-09	-4.618368e-01	-8.109680e+01
8.200000e-07	-1.204368e-08	-1.172159e-09	-8.346902e-02	-7.748392e+01
8.300000e-07	4.253608e-08	-1.119739e-09	2.947973e-01	-7.380471e+01
8.400000e-07	9.709315e-08	-1.068450e-09	6.729064e-01	-7.006322e+01
8.500000e-07	1.516228e-07	-1.010048e-09	1.050825e+00	-6.625934e+01
8.600000e-07	2.061250e-07	-9.468046e-10	1.428554e+00	-6.238784e+01
8.700000e-07	2.605800e-07	-8.877715e-10	1.805956e+00	-5.843845e+01
8.800000e-07	3.149514e-07	-8.321899e-10	2.182778e+00	-5.439737e+01
8.900000e-07	3.692214e-07	-7.672159e-10	2.558898e+00	-5.024981e+01
9.000000e-07	4.233895e-07	-6.972767e-10	2.934311e+00	-4.598297e+01
9.100000e-07	4.774450e-07	-6.299743e-10	3.308944e+00	-4.158835e+01
9.200000e-07	5.313449e-07	-5.662980e-10	3.682498e+00	-3.706265e+01
9.300000e-07	5.850366e-07	-4.967051e-10	4.054610e+00	-3.240675e+01
9.400000e-07	6.384778e-07	-4.215463e-10	4.424986e+00	-2.762296e+01
9.500000e-07	6.916581e-07	-3.440075e-10	4.793553e+00	-2.271154e+01
9.600000e-07	7.445603e-07	-2.680284e-10	5.160193e+00	-1.766769e+01
9.700000e-07	7.971682e-07	-1.926975e-10	5.524793e+00	-1.248018e+01
9.800000e-07	8.495366e-07	-1.101098e-10	5.887734e+00	-7.132277e+00
9.900000e-07	9.016310e-07	-2.246273e-11	6.248775e+00	-1.604754e+00
1.000000e-06	9.533115e-07	6.646043e-11	6.606949e+00	4.119959e+00
1.010000e-06	1.004441e-06	1.549310e-10	6.961304e+00	1.005389e+01
1.020000e-06	1.054976e-06	2.493763e-10	7.311538e+00	1.620113e+01
1.030000e-06	1.104853e-06	3.498750e-10	7.657209e+00	2.255758e+01
1.040000e-06	1.154137e-06	4.533255e-10	7.998775e+00	2.911253e+01
1.050000e-06	1.203007e-06	5.546535e-10	8.337467e+00	3.585112e+01
1.060000e-06	1.251553e-06	6.566360e-10	8.673918e+00	4.275617e+01
1.070000e-06	1.299832e-06	7.660266e-10	9.008520e+00	4.980842e+01
1.080000e-06	1.347681e-06	8.789339e-10	9.340134e+00	5.698478e+01
1.090000e-06	1.394970e-06	9.890041e-10	9.667876e+00	6.425525e+01
1.100000e-06	1.441767e-06	1.096787e-09	9.992201e+00	7.157994e+01
1.110000e-06	1.488082e-06	1.210747e-09	1.031319e+01	7.890791e+01
1.120000e-06	1.533849e-06	1.326591e-09	1.063037e+01	8.617899e+01
1.130000e-06	1.579070e-06	1.436605e-09	1.094379e+01	9.332866e+01
1.140000e-06	1.623867e-06	1.539550e-09	1.125425e+01	1.002951e+02
1.150000e-06	1.668308e-06	1.639552e-09	1.156225e+01	1.070265e+02
1.160000e-06	1.712326e-06	1.738590e-09	1.186731e+01	1.134866e+02
1.170000e-06	1.755652e-06	1.832378e-09	1.216759e+01	1.196561e+02
1.180000e-06	1.798019e-06	1.920187e-09	1.246121e+01	1.255314e+02
1.190000e-06	1.839475e-06	2.005169e-09	1.274853e+01	1.311193e+02
1.200000e-06	1.880238e-06	2.089039e-09	1.303103e+01	1.364307e+02
1.210000e-06	1.920464e-06	2.168310e-09	1.330982e+01	1.414752e+02
1.220000e-06	1.960118e-06	2.240353e-09	1.358464e+01	1.462587e+02
1.230000e-06	1.999142e-06	2.305464e-09	1.385510e+01	1.507828e+02
1.240000e-06	2.037553e-06	2.366874e-09	1.412131e+01	1.550480e+02
1.250000e-06	2.075234e-06	2.426763e-09	1.438246e+01	1.590565e+02
1.260000e-06	2.112208e-06	2.482462e-09	1.463871e+01	1.628145e+02
1.270000e-06	2.148660e-06	2.533483e-09	1.489134e+01	1.663331e+02
1.280000e-06	2.184448e-06	2.582807e-09	1.513937e+01	1.696266e+02
1.290000e-06	2.219303e-06	2.630831e-09	1.538093e+01	1.727091e+02
1.300000e-06	2.253094e-06	2.672608e-09	1.561512e+01	1.755923e+02
1.310000e-06	2.285961e-06	2.708949e-09	1.584291e+01	1.782841e+02
1.320000e-06	2.318081e-06	2.742959e-09	1.606552e+01	1.807896e+02
1.330000e-06	2.349451e-06	2.777524e-09	1.628292e+01	1.831137e+02
1.340000e-06	2.380090e-06	2.810493e-09	1.649527e+01	1.852648e+02
1.350000e-06	2.409921e-06	2.839089e-09	1.670202e+01	1.872567e+02
1.360000e-06	2.438966e-06	2.865351e-09	1.690331e+01	1.891088e+02
1.370000e-06	2.467349e-06	2.891480e-09	1.710002e+01	1.908433e+02
1.380000e-06	2.494912e-06	2.917414e-09	1.729105e+01	1.924809e+02
1.390000e-06	2.521340e-06	2.939157e-09	1.747421e+01	1.940366e+02
1.400000e-06	2.546649e-06	2.958363e-09	1.764961e+01	1.955167e+02
1.410000e-06	2.571016e-06	2.979107e-09	1.781849e+01	1.969190e+02
1.420000e-06	2.594488e-06	3.000764e-09	1.798116e+01	1.982363e+02
1.430000e-06	2.617060e-06	3.019711e-09	1.813760e+01	1.994610e+02
1.440000e-06	2.638722e-06	3.035661e-09	1.828772e+01	2.005900e+02
1.450000e-06	2.659599e-06	3.051775e-09	1.843241e+01	2.016277e+02
1.460000e-06	2.679759e-06	3.068426e-09	1.857214e+01	2.025857e+02
1.470000e-06	2.699017e-06	3.082784e-09	1.870560e+01	2.034794e+02
1.480000e-06	2.717242e-06	3.093935e-09	1.883191e+01	2.043232e+02
1.490000e-06	2.734539e-06	3.104319e-09	1.895179e+01	2.051258e+02
1.500000e-06	2.750793e-06	3.116299e-09	1.906444e+01	2.058882e+02
1.510000e-06	2.765889e-06	3.129337e-09	1.916906e+01	2.066042e+02
1.520000e-06	2.779982e-06	3.139796e-09	1.926673e+01	2.072644e+02
1.530000e-06	2.793096e-06	3.148324e-09	1.935762e+01	2.078609e+02
1.540000e-06	2.805154e-06	3.158327e-09	1.944119e+01	2.083914e+02
1.550000e-06	2.816023e-06	3.167563e-09	1.951652e+01	2.088610e+02
1.560000e-06	2.825631e-06	3.174388e-09	1.958311e+01	2.092802e+02
1.570000e-06	2.834195e-06	3.179402e-09	1.964246e+01	2.096605e+02
1.580000e-06	2.841870e-06	3.184129e-09	1.969565e+01	2.100098e+02
1.590000e-06	2.848581e-06	3.190713e-09	1.974216e+01	2.103288e+02
1.600000e-06	2.854293e-06	3.198046e-09	1.978175e+01	2.106105e+02
1.610000e-06	2.859147e-06	3.201560e-09	1.981538e+01	2.108430e+02
1.620000e-06	2.863184e-06	3.203234e-09	1.984337e+01	2.110154e+02
1.630000e-06	2.866069e-06	3.206716e-09	1.986336e+01	2.111226e+02
1.640000e-06	2.867670e-06	3.210786e-09	1.987446e+01	2.111688e+02
1.650000e-06	2.868253e-06	3.212864e-09	1.987850e+01	2.111672e+02
1.660000e-06	2.867916e-06	3.210583e-09	1.987616e+01	2.111357e+02
1.670000e-06	2.866631e-06	3.205625e-09	1.986726e+01	2.110906e+02
1.680000e-06	2.864462e-06	3.204105e-09	1.985222e+01	2.110400e+02
1.690000e-06	2.861529e-06	3.203464e-09	1.983190e+01	2.109804e+02
1.700000e-06	2.857817e-06	3.202305e-09	1.980617e+01	2.108976e+02
1.710000e-06	2.853107e-06	3.202738e-09	1.977352e+01	2.107709e+02
1.720000e-06	2.847214e-06	3.209228e-09	1.973269e+01	2.105805e+02
1.730000e-06	2.840326e-06	3.195956e-09	1.968495e+01	2.103149e+02
1.740000e-06	2.832580e-06	3.136021e-09	1.963127e+01	2.099743e+02
1.750000e-06	2.823570e-06	3.130962e-09	1.956882e+01	2.095710e+02
1.760000e-06	2.812943e-06	3.225021e-09	1.949517e+01	2.091250e+02
1.770000e-06	2.801307e-06	3.223331e-09	1.941452e+01	2.086563e+02
1.780000e-06	2.789525e-06	3.139334e-09	1.933287e+01	2.081791e+02
1.790000e-06	2.777083e-06	3.111510e-09	1.924664e+01	2.076969e+02
1.800000e-06	2.762969e-06	3.219508e-09	1.914882e+01	2.072025e+02
1.810000e-06	2.747571e-06	3.100676e-09	1.904211e+01	2.066820e+02
1.820000e-06	2.731638e-06	3.021156e-09	1.893168e+01	2.061208e+02
1.830000e-06	2.714700e-06	3.229828e-09	1.881429e+01	2.055090e+02
1.840000e-06	2.696416e-06	3.197471e-09	1.868758e+01	2.048448e+02
1.850000e-06	2.677364e-06	3.031101e-09	1.855554e+01	2.041339e+02
1.860000e-06	2.657585e-06	3.149259e-09	1.841846e+01	2.033857e+02
1.870000e-06	2.636593e-06	3.199233e-09	1.827297e+01	2.026081e+02
1.880000e-06	2.614509e-06	2.971462e-09	1.811992e+01	2.018027e+02
1.890000e-06	2.591480e-06	3.006169e-09	1.796031e+01	2.009636e+02
1.900000e-06	2.567399e-06	3.137616e-09	1.779342e+01	2.000789e+02
1.910000e-06	2.542567e-06	3.039446e-09	1.762132e+01	1.991358e+02
1.920000e-06	2.517019e-06	3.023488e-09	1.744426e+01	1.981257e+02
1.930000e-06	2.490536e-06	3.053104e-09	1.726072e+01	1.970486e+02
1.940000e-06	2.463350e-06	2.944124e-09	1.707231e+01	1.959142e+02
1.950000e-06	2.435413e-06	3.006121e-09	1.687869e+01	1.947384e+02
1.960000e-06	2.406222e-06	2.980086e-09	1.667638e+01	1.935388e+02
1.970000e-06	2.375856e-06	2.856688e-09	1.646592e+01	1.923278e+02
1.980000e-06	2.344705e-06	2.948275e-09	1.625003e+01	1.911090e+02
1.990000e-06	2.312884e-06	2.948856e-09	1.602950e+01	1.898760e+02
2.000000e-06	2.280386e-06	2.853669e-09	1.580427e+01	1.886156e+02
2.010000e-06	2.247042e-06	2.896042e-09	1.557318e+01	1.873129e+02
2.020000e-06	2.212909e-06	2.841560e-09	1.533662e+01	1.859573e+02
2.030000e-06	2.178204e-06	2.778283e-09	1.509609e+01	1.845466e+02
2.040000e-06	2.142868e-06	2.838005e-09	1.485120e+01	1.830873e+02
2.050000e-06	2.106828e-06	2.766142e-09	1.460142e+01	1.815920e+02
2.060000e-06	2.069912e-06	2.718889e-09	1.434558e+01	1.800740e+02
2.070000e-06	2.031891e-06	2.755431e-09	1.408207e+01	1.785423e+02
2.080000e-06	1.992959e-06	2.715253e-09	1.381225e+01	1.769979e+02
2.090000e-06	1.953474e-06	2.682979e-09	1.353860e+01	1.754336e+02
2.100000e-06	1.913380e-06	2.649447e-09	1.326073e+01	1.738366e+02
2.110000e-06	1.872569e-06	2.606909e-09	1.297788e+01	1.721938e+02
2.120000e-06	1.831171e-06	2.613329e-09	1.269098e+01	1.704960e+02
2.130000e-06	1.789227e-06	2.593062e-09	1.240028e+01	1.687413e+02
2.140000e-06	1.746684e-06	2.548938e-09	1.210544e+01	1.669351e+02
2.150000e-06	1.703604e-06	2.524757e-09	1.180687e+01	1.650871e+02
2.160000e-06	1.660124e-06	2.499219e-09	1.150553e+01	1.632072e+02
2.170000e-06	1.616141e-06	2.474919e-09	1.120071e+01	1.613014e+02
2.180000e-06	1.571420e-06	2.429031e-09	1.089077e+01	1.593696e+02
2.190000e-06	1.526018e-06	2.401477e-09	1.057611e+01	1.574057e+02
2.200000e-06	1.480139e-06	2.388169e-09	1.025814e+01	1.554005e+02
2.210000e-06	1.433939e-06	2.351629e-09	9.937945e+00	1.533453e+02
2.220000e-06	1.387289e-06	2.327342e-09	9.614641e+00	1.512357e+02
2.230000e-06	1.340040e-06	2.277944e-09	9.287180e+00	1.490725e+02
2.240000e-06	1.292179e-06	2.236235e-09	8.955480e+00	1.468616e+02
2.250000e-06	1.243723e-06	2.220612e-09	8.619649e+00	1.446110e+02
2.260000e-06	1.194882e-06	2.186423e-09	8.281161e+00	1.423273e+02
2.270000e-06	1.145705e-06	2.147688e-09	7.940338e+00	1.400129e+02
2.280000e-06	1.096094e-06	2.108215e-09	7.596506e+00	1.376649e+02
2.290000e-06	1.046055e-06	2.072735e-09	7.249706e+00	1.352757e+02
2.300000e-06	9.955274e-07	2.046922e-09	6.899527e+00	1.328359e+02
2.310000e-06	9.445696e-07	2.004290e-09	6.546363e+00	1.303376e+02
2.320000e-06	8.933677e-07	1.955988e-09	6.191506e+00	1.277766e+02
2.330000e-06	8.419670e-07	1.923336e-09	5.835272e+00	1.251535e+02
2.340000e-06	7.902989e-07	1.887995e-09	5.477185e+00	1.224734e+02
2.350000e-06	7.382044e-07	1.846115e-09	5.116144e+00	1.197430e+02
2.360000e-06	6.856953e-07	1.794388e-09	4.752228e+00	1.169687e+02
2.370000e-06	6.327325e-07	1.751726e-09	4.385168e+00	1.141535e+02
2.380000e-06	5.793300e-07	1.716924e-09	4.015061e+00	1.112959e+02
2.390000e-06	5.256179e-07	1.674400e-09	3.642807e+00	1.083903e+02
2.400000e-06	4.715855e-07	1.629077e-09	3.268334e+00	1.054277e+02
2.410000e-06	4.172773e-07	1.580607e-09	2.891950e+00	1.023982e+02
2.420000e-06	3.627563e-07	1.536801e-09	2.514092e+00	9.929207e+01
2.430000e-06	3.080383e-07	1.489956e-09	2.134867e+00	9.610219e+01
2.440000e-06	2.531724e-07	1.435930e-09	1.754617e+00	9.282441e+01
2.450000e-06	1.982282e-07	1.382322e-09	1.373826e+00	8.945818e+01
2.460000e-06	1.432452e-07	1.330589e-09	9.927645e-01	8.600628e+01
2.470000e-06	8.824910e-08	1.280331e-09	6.116125e-01	8.247412e+01
2.480000e-06	3.323744e-08	1.227922e-09	2.303529e-01	7.886850e+01
2.490000e-06	-2.181590e-08	1.169289e-09	-1.511956e-01	7.519595e+01
2.500000e-06	-7.689272e-08	1.110304e-09	-5.329069e-01	7.146086e+01
2.510000e-06	-1.318932e-07	1.053708e-09	-9.140892e-01	6.766362e+01
2.520000e-06	-1.868393e-07	9.929566e-10	-1.294894e+00	6.379958e+01
2.530000e-06	-2.417814e-07	9.298766e-10	-1.675672e+00	5.985895e+01
2.540000e-06	-2.966374e-07	8.679681e-10	-2.055852e+00	5.582821e+01
2.550000e-06	-3.513080e-07	8.107486e-10	-2.434749e+00	5.169253e+01
2.560000e-06	-4.058209e-07	7.492572e-10	-2.812551e+00	4.743877e+01
2.570000e-06	-4.601380e-07	6.784605e-10	-3.188997e+00	4.305789e+01
2.580000e-06	-5.142025e-07	6.067900e-10	-3.563693e+00	3.854606e+01
2.590000e-06	-5.679527e-07	5.356897e-10	-3.936210e+00	3.390380e+01
2.600000e-06	-6.213302e-07	4.628824e-10	-4.306144e+00	2.913343e+01
2.610000e-06	-6.743024e-07	3.869637e-10	-4.673269e+00	2.423561e+01
2.620000e-06	-7.268631e-07	3.100482e-10	-5.037542e+00	1.920618e+01
2.630000e-06	-7.790117e-07	2.321401e-10	-5.398959e+00	1.403458e+01
2.640000e-06	-8.307829e-07	1.534189e-10	-5.757761e+00	8.704575e+00
2.650000e-06	-8.822847e-07	7.104579e-11	-6.114696e+00	3.197005e+00
2.660000e-06	-9.335228e-07	-1.740492e-11	-6.469802e+00	-2.506078e+00
2.670000e-06	-9.844796e-07	-1.090105e-10	-6.822959e+00	-8.417443e+00
2.680000e-06	-1.035082e-06	-2.007613e-10	-7.173659e+00	-1.454209e+01
2.690000e-06	-1.085238e-06	-2.936941e-10	-7.521271e+00	-2.087673e+01
2.700000e-06	-1.134945e-06	-3.927917e-10	-7.865761e+00	-2.741127e+01
2.710000e-06	-1.184263e-06	-4.969643e-10	-8.207562e+00	-3.413117e+01
2.720000e-06	-1.233121e-06	-6.020483e-10	-8.546172e+00	-4.101946e+01
2.730000e-06	-1.281346e-06	-7.070115e-10	-8.880401e+00	-4.805715e+01
2.740000e-06	-1.328708e-06	-8.160529e-10	-9.208641e+00	-5.522170e+01
2.750000e-06	-1.375290e-06	-9.285300e-10	-9.531480e+00	-6.248399e+01
2.760000e-06	-1.421419e-06	-1.039286e-09	-9.851180e+00	-6.980531e+01
2.770000e-06	-1.467198e-06	-1.147943e-09	-1.016845e+01	-7.713588e+01
2.780000e-06	-1.512628e-06	-1.257820e-09	-1.048330e+01	-8.441632e+01
2.790000e-06	-1.557638e-06	-1.368396e-09	-1.079525e+01	-9.158226e+01
2.800000e-06	-1.602097e-06	-1.476409e-09	-1.110337e+01	-9.857124e+01
2.810000e-06	-1.645998e-06	-1.581088e-09	-1.140763e+01	-1.053301e+02
2.820000e-06	-1.689457e-06	-1.680887e-09	-1.170882e+01	-1.118206e+02
2.830000e-06	-1.732493e-06	-1.776963e-09	-1.200709e+01	-1.180219e+02
2.840000e-06	-1.775063e-06	-1.868461e-09	-1.230212e+01	-1.239287e+02
2.850000e-06	-1.817087e-06	-1.954236e-09	-1.259337e+01	-1.295471e+02
2.860000e-06	-1.858509e-06	-2.033708e-09	-1.288044e+01	-1.348878e+02
2.870000e-06	-1.899231e-06	-2.109207e-09	-1.316267e+01	-1.399607e+02
2.880000e-06	-1.939249e-06	-2.184357e-09	-1.344001e+01	-1.447722e+02
2.890000e-06	-1.978736e-06	-2.257005e-09	-1.371368e+01	-1.493244e+02
2.900000e-06	-2.017716e-06	-2.325688e-09	-1.398383e+01	-1.536175e+02
2.910000e-06	-2.055899e-06	-2.390735e-09	-1.424846e+01	-1.576534e+02
2.920000e-06	-2.093031e-06	-2.452485e-09	-1.450580e+01	-1.614380e+02
2.930000e-06	-2.129186e-06	-2.508623e-09	-1.475637e+01	-1.649818e+02
2.940000e-06	-2.164611e-06	-2.558667e-09	-1.500189e+01	-1.682989e+02
