# Temperatura_=_31.04
# Concentracion g/m^3_=_13400.0
# C_Vs_to_Am_M_A/Vsm_=_65563218390.804596
# pendiente_HvsI_1/m_=_3716.3
# ordenada_HvsI_A/m_=_1297.0
# frecuencia_Hz_=_300973.9884602004

Tiempo_(s)	Campo_(V.s)	Magnetizacion_(V.s)	Campo_(kA/m)	Magnetizacion_(A/m)
0.000000e+00	-2.860910e-06	-3.304897e-09	-1.978345e+01	-2.171403e+02
1.000000e-08	-2.860012e-06	-3.308001e-09	-1.977724e+01	-2.170414e+02
2.000000e-08	-2.858146e-06	-3.307062e-09	-1.976434e+01	-2.169275e+02
3.000000e-08	-2.855019e-06	-3.304124e-09	-1.974271e+01	-2.168089e+02
4.000000e-08	-2.850831e-06	-3.303019e-09	-1.971375e+01	-2.166840e+02
5.000000e-08	-2.845891e-06	-3.299324e-09	-1.967959e+01	-2.165370e+02
6.000000e-08	-2.840112e-06	-3.288342e-09	-1.963963e+01	-2.163422e+02
7.000000e-08	-2.833300e-06	-3.279470e-09	-1.959253e+01	-2.160714e+02
8.000000e-08	-2.825493e-06	-3.317345e-09	-1.953854e+01	-2.157041e+02
9.000000e-08	-2.816515e-06	-3.364443e-09	-1.947646e+01	-2.152371e+02
1.000000e-07	-2.806026e-06	-3.305179e-09	-1.940392e+01	-2.146888e+02
1.100000e-07	-2.794220e-06	-3.152442e-09	-1.932228e+01	-2.140977e+02
1.200000e-07	-2.781681e-06	-3.178315e-09	-1.923558e+01	-2.135135e+02
1.300000e-07	-2.768382e-06	-3.358013e-09	-1.914361e+01	-2.129839e+02
1.400000e-07	-2.754020e-06	-3.284274e-09	-1.904429e+01	-2.125403e+02
1.500000e-07	-2.738749e-06	-3.147691e-09	-1.893870e+01	-2.121874e+02
1.600000e-07	-2.722340e-06	-3.302714e-09	-1.882523e+01	-2.119001e+02
1.700000e-07	-2.704528e-06	-3.333106e-09	-1.870206e+01	-2.116289e+02
1.800000e-07	-2.685820e-06	-3.140201e-09	-1.857269e+01	-2.113128e+02
1.900000e-07	-2.666469e-06	-3.199077e-09	-1.843887e+01	-2.108958e+02
2.000000e-07	-2.646211e-06	-3.284118e-09	-1.829879e+01	-2.103417e+02
2.100000e-07	-2.625033e-06	-3.102051e-09	-1.815234e+01	-2.096434e+02
2.200000e-07	-2.603071e-06	-3.124776e-09	-1.800047e+01	-2.088220e+02
2.300000e-07	-2.580240e-06	-3.326628e-09	-1.784259e+01	-2.079187e+02
2.400000e-07	-2.556458e-06	-3.201241e-09	-1.767814e+01	-2.069803e+02
2.500000e-07	-2.531898e-06	-3.062028e-09	-1.750830e+01	-2.060439e+02
2.600000e-07	-2.506490e-06	-3.138450e-09	-1.733261e+01	-2.051259e+02
2.700000e-07	-2.479963e-06	-3.124457e-09	-1.714917e+01	-2.042184e+02
2.800000e-07	-2.452338e-06	-3.085127e-09	-1.695814e+01	-2.032943e+02
2.900000e-07	-2.423807e-06	-3.089871e-09	-1.676085e+01	-2.023187e+02
3.000000e-07	-2.394448e-06	-3.044984e-09	-1.655782e+01	-2.012615e+02
3.100000e-07	-2.364358e-06	-3.074117e-09	-1.634975e+01	-2.001088e+02
3.200000e-07	-2.333594e-06	-3.100032e-09	-1.613701e+01	-1.988667e+02
3.300000e-07	-2.301999e-06	-3.008820e-09	-1.591853e+01	-1.975587e+02
3.400000e-07	-2.269669e-06	-2.966661e-09	-1.569497e+01	-1.962160e+02
3.500000e-07	-2.236765e-06	-2.966441e-09	-1.546743e+01	-1.948664e+02
3.600000e-07	-2.203102e-06	-2.953086e-09	-1.523465e+01	-1.935247e+02
3.700000e-07	-2.168258e-06	-2.974150e-09	-1.499370e+01	-1.921880e+02
3.800000e-07	-2.132309e-06	-2.940585e-09	-1.474511e+01	-1.908382e+02
3.900000e-07	-2.095739e-06	-2.881096e-09	-1.449223e+01	-1.894495e+02
4.000000e-07	-2.058602e-06	-2.905330e-09	-1.423542e+01	-1.879985e+02
4.100000e-07	-2.020696e-06	-2.892757e-09	-1.397329e+01	-1.864727e+02
4.200000e-07	-1.981998e-06	-2.806561e-09	-1.370570e+01	-1.848745e+02
4.300000e-07	-1.942555e-06	-2.777259e-09	-1.343295e+01	-1.832198e+02
4.400000e-07	-1.902496e-06	-2.792236e-09	-1.315593e+01	-1.815307e+02
4.500000e-07	-1.862009e-06	-2.781343e-09	-1.287596e+01	-1.798278e+02
4.600000e-07	-1.821076e-06	-2.746291e-09	-1.259291e+01	-1.781221e+02
4.700000e-07	-1.779413e-06	-2.700393e-09	-1.230480e+01	-1.764120e+02
4.800000e-07	-1.736740e-06	-2.661023e-09	-1.200971e+01	-1.746843e+02
4.900000e-07	-1.693104e-06	-2.647038e-09	-1.170797e+01	-1.729205e+02
5.000000e-07	-1.648803e-06	-2.631921e-09	-1.140162e+01	-1.711032e+02
5.100000e-07	-1.604079e-06	-2.586037e-09	-1.109235e+01	-1.692226e+02
5.200000e-07	-1.558914e-06	-2.550219e-09	-1.078003e+01	-1.672789e+02
5.300000e-07	-1.513212e-06	-2.541190e-09	-1.046400e+01	-1.652808e+02
5.400000e-07	-1.466978e-06	-2.514435e-09	-1.014428e+01	-1.632409e+02
5.500000e-07	-1.420229e-06	-2.461392e-09	-9.821009e+00	-1.611702e+02
5.600000e-07	-1.372960e-06	-2.416396e-09	-9.494142e+00	-1.590737e+02
5.700000e-07	-1.325215e-06	-2.394960e-09	-9.163982e+00	-1.569492e+02
5.800000e-07	-1.277051e-06	-2.381688e-09	-8.830925e+00	-1.547894e+02
5.900000e-07	-1.228504e-06	-2.349772e-09	-8.495218e+00	-1.525859e+02
6.000000e-07	-1.179560e-06	-2.299361e-09	-8.156764e+00	-1.503336e+02
6.100000e-07	-1.130008e-06	-2.256571e-09	-7.814107e+00	-1.480327e+02
6.200000e-07	-1.079737e-06	-2.226996e-09	-7.466479e+00	-1.456885e+02
6.300000e-07	-1.028829e-06	-2.194747e-09	-7.114445e+00	-1.433072e+02
6.400000e-07	-9.773894e-07	-2.149013e-09	-6.758736e+00	-1.408923e+02
6.500000e-07	-9.255403e-07	-2.104822e-09	-6.400195e+00	-1.384404e+02
6.600000e-07	-8.733383e-07	-2.076483e-09	-6.039213e+00	-1.359409e+02
6.700000e-07	-8.208371e-07	-2.048651e-09	-5.676163e+00	-1.333780e+02
6.800000e-07	-7.680759e-07	-2.001839e-09	-5.311314e+00	-1.307360e+02
6.900000e-07	-7.150467e-07	-1.945999e-09	-4.944613e+00	-1.280047e+02
7.000000e-07	-6.617144e-07	-1.903255e-09	-4.575815e+00	-1.251832e+02
7.100000e-07	-6.081408e-07	-1.869700e-09	-4.205349e+00	-1.222803e+02
7.200000e-07	-5.544189e-07	-1.826492e-09	-3.833857e+00	-1.193112e+02
7.300000e-07	-5.004996e-07	-1.773575e-09	-3.461000e+00	-1.162912e+02
7.400000e-07	-4.463651e-07	-1.722923e-09	-3.086655e+00	-1.132297e+02
7.500000e-07	-3.920799e-07	-1.678598e-09	-2.711268e+00	-1.101260e+02
7.600000e-07	-3.376841e-07	-1.631717e-09	-2.335116e+00	-1.069686e+02
7.700000e-07	-2.832210e-07	-1.576055e-09	-1.958499e+00	-1.037393e+02
7.800000e-07	-2.286991e-07	-1.522173e-09	-1.581475e+00	-1.004190e+02
7.900000e-07	-1.740796e-07	-1.475361e-09	-1.203776e+00	-9.699503e+01
8.000000e-07	-1.193984e-07	-1.426167e-09	-8.256510e-01	-9.346476e+01
8.100000e-07	-6.470059e-08	-1.367528e-09	-4.474104e-01	-8.983634e+01
8.200000e-07	-9.957196e-09	-1.305703e-09	-6.885491e-02	-8.612463e+01
8.300000e-07	4.479288e-08	-1.249655e-09	3.097468e-01	-8.234457e+01
8.400000e-07	9.950848e-08	-1.196756e-09	6.881101e-01	-7.850432e+01
8.500000e-07	1.542043e-07	-1.139617e-09	1.066337e+00	-7.460084e+01
8.600000e-07	2.088608e-07	-1.075175e-09	1.444291e+00	-7.061946e+01
8.700000e-07	2.634797e-07	-1.009683e-09	1.821986e+00	-6.653777e+01
8.800000e-07	3.180071e-07	-9.481764e-10	2.199048e+00	-6.233217e+01
8.900000e-07	3.724016e-07	-8.843944e-10	2.575191e+00	-5.798472e+01
9.000000e-07	4.267121e-07	-8.132518e-10	2.950753e+00	-5.348750e+01
9.100000e-07	4.808723e-07	-7.409310e-10	3.325275e+00	-4.884298e+01
9.200000e-07	5.347992e-07	-6.726705e-10	3.698185e+00	-4.406019e+01
9.300000e-07	5.885031e-07	-6.025813e-10	4.069552e+00	-3.914809e+01
9.400000e-07	6.419973e-07	-5.241095e-10	4.439469e+00	-3.410871e+01
9.500000e-07	6.952123e-07	-4.392682e-10	4.807456e+00	-2.893244e+01
9.600000e-07	7.481560e-07	-3.553060e-10	5.173566e+00	-2.359736e+01
9.700000e-07	8.008692e-07	-2.746215e-10	5.538083e+00	-1.807262e+01
9.800000e-07	8.532868e-07	-1.899676e-10	5.900555e+00	-1.232478e+01
9.900000e-07	9.053915e-07	-9.591470e-11	6.260864e+00	-6.324781e+00
1.000000e-06	9.571799e-07	1.488553e-12	6.618986e+00	-5.337975e-02
1.010000e-06	1.008591e-06	9.845562e-11	6.974499e+00	6.496595e+00
1.020000e-06	1.059425e-06	1.994662e-10	7.326021e+00	1.332127e+01
1.030000e-06	1.109517e-06	3.090320e-10	7.672411e+00	2.040902e+01
1.040000e-06	1.158958e-06	4.265910e-10	8.014298e+00	2.774405e+01
1.050000e-06	1.207919e-06	5.446182e-10	8.352869e+00	3.530849e+01
1.060000e-06	1.256513e-06	6.604903e-10	8.688898e+00	4.308176e+01
1.070000e-06	1.304785e-06	7.811656e-10	9.022705e+00	5.103741e+01
1.080000e-06	1.352657e-06	9.060535e-10	9.353747e+00	5.913875e+01
1.090000e-06	1.400062e-06	1.030271e-09	9.681557e+00	6.733513e+01
1.100000e-06	1.446969e-06	1.152466e-09	1.000592e+01	7.556095e+01
1.110000e-06	1.493346e-06	1.276333e-09	1.032662e+01	8.373843e+01
1.120000e-06	1.539194e-06	1.401873e-09	1.064366e+01	9.178392e+01
1.130000e-06	1.584485e-06	1.521998e-09	1.095686e+01	9.961649e+01
1.140000e-06	1.629298e-06	1.633892e-09	1.126674e+01	1.071666e+02
1.150000e-06	1.673762e-06	1.740175e-09	1.157421e+01	1.143828e+02
1.160000e-06	1.717862e-06	1.843318e-09	1.187917e+01	1.212345e+02
1.170000e-06	1.761356e-06	1.942711e-09	1.217993e+01	1.277116e+02
1.180000e-06	1.803883e-06	2.036296e-09	1.247401e+01	1.338193e+02
1.190000e-06	1.845358e-06	2.124376e-09	1.276082e+01	1.395732e+02
1.200000e-06	1.886101e-06	2.206864e-09	1.304256e+01	1.449925e+02
1.210000e-06	1.926408e-06	2.283028e-09	1.332129e+01	1.500957e+02
1.220000e-06	1.966193e-06	2.353514e-09	1.359640e+01	1.548989e+02
1.230000e-06	2.005342e-06	2.419426e-09	1.386712e+01	1.594147e+02
1.240000e-06	2.043861e-06	2.482991e-09	1.413348e+01	1.636539e+02
1.250000e-06	2.081645e-06	2.544813e-09	1.439476e+01	1.676269e+02
1.260000e-06	2.118680e-06	2.602096e-09	1.465087e+01	1.713443e+02
1.270000e-06	2.155130e-06	2.652982e-09	1.490292e+01	1.748174e+02
1.280000e-06	2.190963e-06	2.699543e-09	1.515071e+01	1.780576e+02
1.290000e-06	2.225837e-06	2.742858e-09	1.539186e+01	1.810758e+02
1.300000e-06	2.259594e-06	2.782821e-09	1.562530e+01	1.838822e+02
1.310000e-06	2.292471e-06	2.818360e-09	1.585265e+01	1.864865e+02
1.320000e-06	2.324702e-06	2.852252e-09	1.607553e+01	1.888995e+02
1.330000e-06	2.356222e-06	2.886880e-09	1.629349e+01	1.911337e+02
1.340000e-06	2.386886e-06	2.920600e-09	1.650553e+01	1.932046e+02
1.350000e-06	2.416727e-06	2.950663e-09	1.671189e+01	1.951301e+02
1.360000e-06	2.445829e-06	2.976234e-09	1.691313e+01	1.969293e+02
1.370000e-06	2.474261e-06	2.999531e-09	1.710974e+01	1.986202e+02
1.380000e-06	2.501864e-06	3.022626e-09	1.730062e+01	2.002175e+02
1.390000e-06	2.528332e-06	3.044826e-09	1.748365e+01	2.017303e+02
1.400000e-06	2.553657e-06	3.064858e-09	1.765877e+01	2.031618e+02
1.410000e-06	2.578024e-06	3.084312e-09	1.782727e+01	2.045104e+02
1.420000e-06	2.601482e-06	3.103757e-09	1.798948e+01	2.057719e+02
1.430000e-06	2.624034e-06	3.122763e-09	1.814543e+01	2.069426e+02
1.440000e-06	2.645711e-06	3.140311e-09	1.829533e+01	2.080218e+02
1.450000e-06	2.666569e-06	3.156721e-09	1.843956e+01	2.090141e+02
1.460000e-06	2.686715e-06	3.172529e-09	1.857887e+01	2.099288e+02
1.470000e-06	2.705954e-06	3.187548e-09	1.871191e+01	2.107784e+02
1.480000e-06	2.724164e-06	3.201853e-09	1.883784e+01	2.115756e+02
1.490000e-06	2.741478e-06	3.214218e-09	1.895757e+01	2.123305e+02
1.500000e-06	2.757808e-06	3.224746e-09	1.907049e+01	2.130483e+02
1.510000e-06	2.772995e-06	3.235496e-09	1.917551e+01	2.137286e+02
1.520000e-06	2.787107e-06	3.246492e-09	1.927309e+01	2.143667e+02
1.530000e-06	2.800248e-06	3.255778e-09	1.936397e+01	2.149562e+02
1.540000e-06	2.812352e-06	3.264051e-09	1.944767e+01	2.154917e+02
1.550000e-06	2.823155e-06	3.271731e-09	1.952237e+01	2.159717e+02
1.560000e-06	2.832618e-06	3.279438e-09	1.958781e+01	2.163992e+02
1.570000e-06	2.841101e-06	3.288525e-09	1.964647e+01	2.167804e+02
1.580000e-06	2.848769e-06	3.296851e-09	1.969949e+01	2.171224e+02
1.590000e-06	2.855453e-06	3.302245e-09	1.974571e+01	2.174295e+02
1.600000e-06	2.861102e-06	3.305700e-09	1.978478e+01	2.177013e+02
1.610000e-06	2.865900e-06	3.308876e-09	1.981796e+01	2.179317e+02
1.620000e-06	2.869846e-06	3.311938e-09	1.984524e+01	2.181111e+02
1.630000e-06	2.872635e-06	3.315332e-09	1.986453e+01	2.182297e+02
1.640000e-06	2.874134e-06	3.318599e-09	1.987489e+01	2.182824e+02
1.650000e-06	2.874655e-06	3.321932e-09	1.987850e+01	2.182719e+02
1.660000e-06	2.874345e-06	3.322751e-09	1.987636e+01	2.182097e+02
1.670000e-06	2.873090e-06	3.318312e-09	1.986768e+01	2.181130e+02
1.680000e-06	2.870906e-06	3.313200e-09	1.985257e+01	2.179996e+02
1.690000e-06	2.867908e-06	3.311560e-09	1.983184e+01	2.178810e+02
1.700000e-06	2.864219e-06	3.312296e-09	1.980633e+01	2.177568e+02
1.710000e-06	2.859579e-06	3.313428e-09	1.977424e+01	2.176129e+02
1.720000e-06	2.853651e-06	3.322530e-09	1.973325e+01	2.174243e+02
1.730000e-06	2.846666e-06	3.317006e-09	1.968495e+01	2.171624e+02
1.740000e-06	2.838867e-06	3.243017e-09	1.963102e+01	2.168056e+02
1.750000e-06	2.829787e-06	3.189195e-09	1.956823e+01	2.163483e+02
1.760000e-06	2.819031e-06	3.306247e-09	1.949386e+01	2.158068e+02
1.770000e-06	2.807274e-06	3.404834e-09	1.941255e+01	2.152176e+02
1.780000e-06	2.795431e-06	3.280417e-09	1.933066e+01	2.146299e+02
1.790000e-06	2.783038e-06	3.159493e-09	1.924496e+01	2.140921e+02
1.800000e-06	2.768880e-06	3.269919e-09	1.914705e+01	2.136381e+02
1.810000e-06	2.753316e-06	3.285128e-09	1.903943e+01	2.132758e+02
1.820000e-06	2.737316e-06	3.124960e-09	1.892878e+01	2.129831e+02
1.830000e-06	2.720342e-06	3.248869e-09	1.881141e+01	2.127127e+02
1.840000e-06	2.701928e-06	3.390315e-09	1.868408e+01	2.124038e+02
1.850000e-06	2.682782e-06	3.168710e-09	1.855168e+01	2.119994e+02
1.860000e-06	2.663032e-06	3.158485e-09	1.841511e+01	2.114606e+02
1.870000e-06	2.642014e-06	3.361271e-09	1.826977e+01	2.107767e+02
1.880000e-06	2.619797e-06	3.174972e-09	1.811613e+01	2.099663e+02
1.890000e-06	2.596705e-06	3.035022e-09	1.795645e+01	2.090692e+02
1.900000e-06	2.572595e-06	3.235419e-09	1.778973e+01	2.081321e+02
1.910000e-06	2.547666e-06	3.236014e-09	1.761734e+01	2.071939e+02
1.920000e-06	2.522044e-06	3.110323e-09	1.744016e+01	2.062735e+02
1.930000e-06	2.495492e-06	3.142921e-09	1.725655e+01	2.053655e+02
1.940000e-06	2.468201e-06	3.116652e-09	1.706783e+01	2.044444e+02
1.950000e-06	2.440202e-06	3.109713e-09	1.687422e+01	2.034755e+02
1.960000e-06	2.411007e-06	3.127542e-09	1.667233e+01	2.024277e+02
1.970000e-06	2.380616e-06	3.010484e-09	1.646217e+01	2.012849e+02
1.980000e-06	2.349416e-06	3.029516e-09	1.624642e+01	2.000511e+02
1.990000e-06	2.317519e-06	3.103419e-09	1.602586e+01	1.987483e+02
2.000000e-06	2.284930e-06	3.016591e-09	1.580050e+01	1.974074e+02
2.010000e-06	2.251513e-06	3.008807e-09	1.556942e+01	1.960572e+02
2.020000e-06	2.217261e-06	2.990139e-09	1.533256e+01	1.947140e+02
2.030000e-06	2.182404e-06	2.906507e-09	1.509152e+01	1.933770e+02
2.040000e-06	2.146919e-06	2.952701e-09	1.484614e+01	1.920294e+02
2.050000e-06	2.110700e-06	2.927543e-09	1.459568e+01	1.906458e+02
2.060000e-06	2.073548e-06	2.845314e-09	1.433877e+01	1.892019e+02
2.070000e-06	2.035254e-06	2.887207e-09	1.407397e+01	1.876839e+02
2.080000e-06	1.996149e-06	2.880270e-09	1.380355e+01	1.860925e+02
2.090000e-06	1.956527e-06	2.824658e-09	1.352956e+01	1.844424e+02
2.100000e-06	1.916291e-06	2.791428e-09	1.325133e+01	1.827555e+02
2.110000e-06	1.875430e-06	2.739969e-09	1.296877e+01	1.810529e+02
2.120000e-06	1.833936e-06	2.733800e-09	1.268183e+01	1.793470e+02
2.130000e-06	1.791820e-06	2.731898e-09	1.239060e+01	1.776374e+02
2.140000e-06	1.749137e-06	2.696805e-09	1.209544e+01	1.759121e+02
2.150000e-06	1.705959e-06	2.665902e-09	1.179686e+01	1.741527e+02
2.160000e-06	1.662382e-06	2.632505e-09	1.149552e+01	1.723414e+02
2.170000e-06	1.618246e-06	2.616898e-09	1.119032e+01	1.704673e+02
2.180000e-06	1.573391e-06	2.582994e-09	1.088014e+01	1.685296e+02
2.190000e-06	1.527894e-06	2.533770e-09	1.056553e+01	1.665363e+02
2.200000e-06	1.481873e-06	2.517621e-09	1.024729e+01	1.645000e+02
2.210000e-06	1.435441e-06	2.496645e-09	9.926202e+00	1.624318e+02
2.220000e-06	1.388618e-06	2.466002e-09	9.602417e+00	1.603377e+02
2.230000e-06	1.341282e-06	2.424662e-09	9.275087e+00	1.582161e+02
2.240000e-06	1.293261e-06	2.374138e-09	8.943014e+00	1.560600e+02
2.250000e-06	1.244617e-06	2.354319e-09	8.606636e+00	1.538611e+02
2.260000e-06	1.195598e-06	2.333462e-09	8.267670e+00	1.516137e+02
2.270000e-06	1.146204e-06	2.294381e-09	7.926104e+00	1.493176e+02
2.280000e-06	1.096388e-06	2.254070e-09	7.581622e+00	1.469772e+02
2.290000e-06	1.046108e-06	2.213313e-09	7.233928e+00	1.445993e+02
2.300000e-06	9.953678e-07	2.186562e-09	6.883058e+00	1.421876e+02
2.310000e-06	9.443346e-07	2.150659e-09	6.530159e+00	1.397397e+02
2.320000e-06	8.930835e-07	2.102361e-09	6.175753e+00	1.372455e+02
2.330000e-06	8.415121e-07	2.067377e-09	5.819132e+00	1.346898e+02
2.340000e-06	7.894989e-07	2.036603e-09	5.459456e+00	1.320565e+02
2.350000e-06	7.370232e-07	2.000011e-09	5.096582e+00	1.293346e+02
2.360000e-06	6.841421e-07	1.949253e-09	4.730904e+00	1.265221e+02
2.370000e-06	6.308998e-07	1.896158e-09	4.362729e+00	1.236269e+02
2.380000e-06	5.772760e-07	1.855495e-09	3.991915e+00	1.206637e+02
2.390000e-06	5.233042e-07	1.814918e-09	3.618696e+00	1.176481e+02
2.400000e-06	4.690432e-07	1.770801e-09	3.243476e+00	1.145906e+02
2.410000e-06	4.146223e-07	1.723167e-09	2.867151e+00	1.114914e+02
2.420000e-06	3.600464e-07	1.675158e-09	2.489754e+00	1.083401e+02
2.430000e-06	3.052573e-07	1.629044e-09	2.110882e+00	1.051191e+02
2.440000e-06	2.503555e-07	1.575297e-09	1.731231e+00	1.018089e+02
2.450000e-06	1.953967e-07	1.518072e-09	1.351186e+00	9.839595e+01
2.460000e-06	1.404175e-07	1.465188e-09	9.709994e-01	9.487645e+01
2.470000e-06	8.541964e-08	1.413622e-09	5.906845e-01	9.125750e+01
2.480000e-06	3.035089e-08	1.360999e-09	2.098791e-01	8.755354e+01
2.490000e-06	-2.473754e-08	1.302278e-09	-1.710623e-01	8.377985e+01
2.500000e-06	-7.978118e-08	1.239115e-09	-5.516941e-01	7.994558e+01
2.510000e-06	-1.347995e-07	1.177687e-09	-9.321506e-01	7.604899e+01
2.520000e-06	-1.897955e-07	1.118488e-09	-1.312453e+00	7.207654e+01
2.530000e-06	-2.447832e-07	1.058354e-09	-1.692698e+00	6.800637e+01
2.540000e-06	-2.996885e-07	9.942767e-10	-2.072373e+00	6.381466e+01
2.550000e-06	-3.544750e-07	9.303015e-10	-2.451227e+00	5.948258e+01
2.560000e-06	-4.091155e-07	8.642635e-10	-2.829071e+00	5.500105e+01
2.570000e-06	-4.635635e-07	7.914190e-10	-3.205583e+00	5.037155e+01
2.580000e-06	-5.177317e-07	7.150758e-10	-3.580162e+00	4.560268e+01
2.590000e-06	-5.715560e-07	6.389503e-10	-3.952361e+00	4.070377e+01
2.600000e-06	-6.250563e-07	5.631150e-10	-4.322321e+00	3.567786e+01
2.610000e-06	-6.782142e-07	4.860810e-10	-4.689912e+00	3.051671e+01
2.620000e-06	-7.310024e-07	4.065364e-10	-5.054948e+00	2.519961e+01
2.630000e-06	-7.833263e-07	3.237571e-10	-5.416772e+00	1.969641e+01
2.640000e-06	-8.352600e-07	2.370148e-10	-5.775899e+00	1.397359e+01
2.650000e-06	-8.869116e-07	1.466663e-10	-6.133074e+00	8.001338e+00
2.660000e-06	-9.382314e-07	5.156196e-11	-6.487955e+00	1.759176e+00
2.670000e-06	-9.892084e-07	-4.932131e-11	-6.840465e+00	-4.761363e+00
2.680000e-06	-1.039837e-06	-1.532984e-10	-7.190569e+00	-1.155746e+01
2.690000e-06	-1.090067e-06	-2.591934e-10	-7.537914e+00	-1.861813e+01
2.700000e-06	-1.139901e-06	-3.694780e-10	-7.882519e+00	-2.592788e+01
2.710000e-06	-1.189322e-06	-4.838663e-10	-8.224270e+00	-3.346906e+01
2.720000e-06	-1.238209e-06	-6.007262e-10	-8.562327e+00	-4.122147e+01
2.730000e-06	-1.286452e-06	-7.206679e-10	-8.895934e+00	-4.915952e+01
2.740000e-06	-1.333995e-06	-8.444737e-10	-9.224699e+00	-5.724781e+01
2.750000e-06	-1.380847e-06	-9.715943e-10	-9.548684e+00	-6.543728e+01
2.760000e-06	-1.427089e-06	-1.098511e-09	-9.868448e+00	-7.366390e+01
2.770000e-06	-1.472917e-06	-1.222771e-09	-1.018536e+01	-8.185092e+01
2.780000e-06	-1.518450e-06	-1.346209e-09	-1.050022e+01	-8.991495e+01
2.790000e-06	-1.563592e-06	-1.468009e-09	-1.081238e+01	-9.777432e+01
2.800000e-06	-1.608198e-06	-1.584300e-09	-1.112083e+01	-1.053579e+02
2.810000e-06	-1.652166e-06	-1.693861e-09	-1.142488e+01	-1.126121e+02
2.820000e-06	-1.695609e-06	-1.798805e-09	-1.172529e+01	-1.195041e+02
2.830000e-06	-1.738698e-06	-1.900344e-09	-1.202325e+01	-1.260217e+02
2.840000e-06	-1.781334e-06	-1.996763e-09	-1.231809e+01	-1.321688e+02
2.850000e-06	-1.823353e-06	-2.085049e-09	-1.260865e+01	-1.379601e+02
2.860000e-06	-1.864751e-06	-2.166493e-09	-1.289492e+01	-1.434147e+02
2.870000e-06	-1.905476e-06	-2.244310e-09	-1.317654e+01	-1.485514e+02
2.880000e-06	-1.945538e-06	-2.319553e-09	-1.345357e+01	-1.533864e+02
2.890000e-06	-1.985057e-06	-2.392086e-09	-1.372685e+01	-1.579329e+02
2.900000e-06	-2.024035e-06	-2.459313e-09	-1.399639e+01	-1.622016e+02
2.910000e-06	-2.062235e-06	-2.522159e-09	-1.426054e+01	-1.662030e+02
2.920000e-06	-2.099466e-06	-2.582251e-09	-1.451800e+01	-1.699477e+02
2.930000e-06	-2.135725e-06	-2.638138e-09	-1.476873e+01	-1.734468e+02
2.940000e-06	-2.171209e-06	-2.688410e-09	-1.501410e+01	-1.767118e+02
