# Temperatura_=_22.84
# Concentracion g/m^3_=_13400.0
# C_Vs_to_Am_M_A/Vsm_=_65563218390.804596
# pendiente_HvsI_1/m_=_3716.3
# ordenada_HvsI_A/m_=_1297.0
# frecuencia_Hz_=_300990.8981036765

Tiempo_(s)	Campo_(V.s)	Magnetizacion_(V.s)	Campo_(kA/m)	Magnetizacion_(A/m)
0.000000e+00	-2.858968e-06	-3.263028e-09	-1.978155e+01	-2.138404e+02
1.000000e-08	-2.858062e-06	-3.266802e-09	-1.977528e+01	-2.137485e+02
2.000000e-08	-2.856138e-06	-3.267359e-09	-1.976196e+01	-2.136313e+02
3.000000e-08	-2.852909e-06	-3.265502e-09	-1.973962e+01	-2.134973e+02
4.000000e-08	-2.848664e-06	-3.261033e-09	-1.971026e+01	-2.133474e+02
5.000000e-08	-2.843648e-06	-3.253593e-09	-1.967555e+01	-2.131729e+02
6.000000e-08	-2.837779e-06	-3.243166e-09	-1.963494e+01	-2.129571e+02
7.000000e-08	-2.830969e-06	-3.235259e-09	-1.958782e+01	-2.126802e+02
8.000000e-08	-2.823154e-06	-3.266920e-09	-1.953375e+01	-2.123259e+02
9.000000e-08	-2.814193e-06	-3.309001e-09	-1.947175e+01	-2.118883e+02
1.000000e-07	-2.803758e-06	-3.269610e-09	-1.939954e+01	-2.113746e+02
1.100000e-07	-2.792005e-06	-3.126008e-09	-1.931822e+01	-2.108056e+02
1.200000e-07	-2.779524e-06	-3.137579e-09	-1.923186e+01	-2.102092e+02
1.300000e-07	-2.766264e-06	-3.271757e-09	-1.914011e+01	-2.096137e+02
1.400000e-07	-2.751861e-06	-3.243529e-09	-1.904046e+01	-2.090384e+02
1.500000e-07	-2.736408e-06	-3.107972e-09	-1.893354e+01	-2.084882e+02
1.600000e-07	-2.719855e-06	-3.217763e-09	-1.881901e+01	-2.079524e+02
1.700000e-07	-2.701974e-06	-3.275408e-09	-1.869529e+01	-2.074080e+02
1.800000e-07	-2.683212e-06	-3.077995e-09	-1.856547e+01	-2.068272e+02
1.900000e-07	-2.663906e-06	-3.139323e-09	-1.843189e+01	-2.061864e+02
2.000000e-07	-2.643721e-06	-3.223246e-09	-1.829223e+01	-2.054728e+02
2.100000e-07	-2.622540e-06	-3.045964e-09	-1.814567e+01	-2.046876e+02
2.200000e-07	-2.600584e-06	-3.048698e-09	-1.799376e+01	-2.038436e+02
2.300000e-07	-2.577737e-06	-3.230682e-09	-1.783568e+01	-2.029596e+02
2.400000e-07	-2.553929e-06	-3.131959e-09	-1.767095e+01	-2.020525e+02
2.500000e-07	-2.529414e-06	-3.004597e-09	-1.750133e+01	-2.011311e+02
2.600000e-07	-2.504037e-06	-3.048887e-09	-1.732574e+01	-2.001931e+02
2.700000e-07	-2.477447e-06	-3.063717e-09	-1.714176e+01	-1.992265e+02
2.800000e-07	-2.449758e-06	-3.029702e-09	-1.695017e+01	-1.982153e+02
2.900000e-07	-2.421190e-06	-3.016759e-09	-1.675251e+01	-1.971457e+02
3.000000e-07	-2.391747e-06	-2.965776e-09	-1.654879e+01	-1.960125e+02
3.100000e-07	-2.361598e-06	-2.987007e-09	-1.634019e+01	-1.948210e+02
3.200000e-07	-2.330815e-06	-3.015060e-09	-1.612720e+01	-1.935856e+02
3.300000e-07	-2.299223e-06	-2.914097e-09	-1.590860e+01	-1.923245e+02
3.400000e-07	-2.266916e-06	-2.894259e-09	-1.568507e+01	-1.910529e+02
3.500000e-07	-2.234036e-06	-2.894008e-09	-1.545757e+01	-1.897778e+02
3.600000e-07	-2.200322e-06	-2.873827e-09	-1.522430e+01	-1.884950e+02
3.700000e-07	-2.165452e-06	-2.894439e-09	-1.498303e+01	-1.871914e+02
3.800000e-07	-2.129516e-06	-2.859067e-09	-1.473438e+01	-1.858495e+02
3.900000e-07	-2.092929e-06	-2.782642e-09	-1.448123e+01	-1.844539e+02
4.000000e-07	-2.055719e-06	-2.809335e-09	-1.422377e+01	-1.829966e+02
4.100000e-07	-2.017717e-06	-2.811099e-09	-1.396083e+01	-1.814795e+02
4.200000e-07	-1.978965e-06	-2.725866e-09	-1.369270e+01	-1.799131e+02
4.300000e-07	-1.939524e-06	-2.698939e-09	-1.341980e+01	-1.783116e+02
4.400000e-07	-1.899532e-06	-2.706321e-09	-1.314309e+01	-1.766878e+02
4.500000e-07	-1.859093e-06	-2.695189e-09	-1.286329e+01	-1.750475e+02
4.600000e-07	-1.818204e-06	-2.658780e-09	-1.258038e+01	-1.733878e+02
4.700000e-07	-1.776545e-06	-2.618499e-09	-1.229213e+01	-1.716979e+02
4.800000e-07	-1.733797e-06	-2.579915e-09	-1.199635e+01	-1.699635e+02
4.900000e-07	-1.690102e-06	-2.570065e-09	-1.169402e+01	-1.681719e+02
5.000000e-07	-1.645809e-06	-2.551040e-09	-1.138755e+01	-1.663166e+02
5.100000e-07	-1.601164e-06	-2.503853e-09	-1.107865e+01	-1.643991e+02
5.200000e-07	-1.556087e-06	-2.468854e-09	-1.076676e+01	-1.624279e+02
5.300000e-07	-1.510438e-06	-2.452033e-09	-1.045090e+01	-1.604149e+02
5.400000e-07	-1.464250e-06	-2.431639e-09	-1.013132e+01	-1.583710e+02
5.500000e-07	-1.417497e-06	-2.385231e-09	-9.807834e+00	-1.563023e+02
5.600000e-07	-1.370129e-06	-2.339825e-09	-9.480090e+00	-1.542082e+02
5.700000e-07	-1.322283e-06	-2.308522e-09	-9.149038e+00	-1.520825e+02
5.800000e-07	-1.274117e-06	-2.296843e-09	-8.815771e+00	-1.499162e+02
5.900000e-07	-1.225649e-06	-2.263091e-09	-8.480411e+00	-1.477015e+02
6.000000e-07	-1.176754e-06	-2.212322e-09	-8.142107e+00	-1.454341e+02
6.100000e-07	-1.127249e-06	-2.177288e-09	-7.799571e+00	-1.431144e+02
6.200000e-07	-1.077053e-06	-2.150704e-09	-7.452258e+00	-1.407463e+02
6.300000e-07	-1.026182e-06	-2.117574e-09	-7.100278e+00	-1.383344e+02
6.400000e-07	-9.747529e-07	-2.065228e-09	-6.744434e+00	-1.358810e+02
6.500000e-07	-9.229050e-07	-2.018033e-09	-6.385692e+00	-1.333843e+02
6.600000e-07	-8.707069e-07	-1.986632e-09	-6.024527e+00	-1.308383e+02
6.700000e-07	-8.182259e-07	-1.961357e-09	-5.661405e+00	-1.282347e+02
6.800000e-07	-7.654815e-07	-1.917814e-09	-5.296460e+00	-1.255659e+02
6.900000e-07	-7.124133e-07	-1.865956e-09	-4.929275e+00	-1.228279e+02
7.000000e-07	-6.589950e-07	-1.823819e-09	-4.559667e+00	-1.200211e+02
7.100000e-07	-6.053336e-07	-1.787179e-09	-4.188377e+00	-1.171509e+02
7.200000e-07	-5.515359e-07	-1.741746e-09	-3.816144e+00	-1.142241e+02
7.300000e-07	-4.976093e-07	-1.684643e-09	-3.443019e+00	-1.112465e+02
7.400000e-07	-4.434883e-07	-1.635710e-09	-3.068550e+00	-1.082195e+02
7.500000e-07	-3.891958e-07	-1.595276e-09	-2.692893e+00	-1.051389e+02
7.600000e-07	-3.348521e-07	-1.553513e-09	-2.316882e+00	-1.019954e+02
7.700000e-07	-2.804552e-07	-1.498308e-09	-1.940504e+00	-9.877746e+01
7.800000e-07	-2.259335e-07	-1.441945e-09	-1.563261e+00	-9.547450e+01
7.900000e-07	-1.713229e-07	-1.392666e-09	-1.185404e+00	-9.208016e+01
8.000000e-07	-1.167141e-07	-1.342783e-09	-8.075588e-01	-8.859387e+01
8.100000e-07	-6.210438e-08	-1.285833e-09	-4.297078e-01	-8.502034e+01
8.200000e-07	-7.463370e-09	-1.224873e-09	-5.163997e-02	-8.136712e+01
8.300000e-07	4.717566e-08	-1.170041e-09	3.264141e-01	-7.764122e+01
8.400000e-07	1.017959e-07	-1.115824e-09	7.043379e-01	-7.384588e+01
8.500000e-07	1.563867e-07	-1.059031e-09	1.082059e+00	-6.997864e+01
8.600000e-07	2.109406e-07	-9.949860e-10	1.459524e+00	-6.603138e+01
8.700000e-07	2.654838e-07	-9.311576e-10	1.836915e+00	-6.199211e+01
8.800000e-07	3.199736e-07	-8.713903e-10	2.213937e+00	-5.784781e+01
8.900000e-07	3.743480e-07	-8.091703e-10	2.590159e+00	-5.358731e+01
9.000000e-07	4.286022e-07	-7.407579e-10	2.965551e+00	-4.920304e+01
9.100000e-07	4.827331e-07	-6.706801e-10	3.340089e+00	-4.469126e+01
9.200000e-07	5.366947e-07	-6.028826e-10	3.713456e+00	-4.005068e+01
9.300000e-07	5.904487e-07	-5.317737e-10	4.085386e+00	-3.528010e+01
9.400000e-07	6.439727e-07	-4.557432e-10	4.455726e+00	-3.037591e+01
9.500000e-07	6.972304e-07	-3.738469e-10	4.824222e+00	-2.533045e+01
9.600000e-07	7.502024e-07	-2.930743e-10	5.190742e+00	-2.013153e+01
9.700000e-07	8.028701e-07	-2.147151e-10	5.555156e+00	-1.476349e+01
9.800000e-07	8.552623e-07	-1.333902e-10	5.917664e+00	-9.209017e+00
9.900000e-07	9.074124e-07	-4.402845e-11	6.278497e+00	-3.451508e+00
1.000000e-06	9.592396e-07	4.943558e-11	6.637096e+00	2.523038e+00
1.010000e-06	1.010559e-06	1.430442e-10	6.992181e+00	8.724702e+00
1.020000e-06	1.061274e-06	2.413097e-10	7.343084e+00	1.515905e+01
1.030000e-06	1.111378e-06	3.454629e-10	7.689762e+00	2.182692e+01
1.040000e-06	1.160818e-06	4.552542e-10	8.031844e+00	2.872405e+01
1.050000e-06	1.209680e-06	5.648751e-10	8.369925e+00	3.584031e+01
1.060000e-06	1.258197e-06	6.736601e-10	8.705620e+00	4.315826e+01
1.070000e-06	1.306457e-06	7.838545e-10	9.039538e+00	5.065143e+01
1.080000e-06	1.354343e-06	8.997681e-10	9.370864e+00	5.828280e+01
1.090000e-06	1.401691e-06	1.017761e-09	9.698473e+00	6.600428e+01
1.100000e-06	1.448499e-06	1.134702e-09	1.002234e+01	7.375769e+01
1.110000e-06	1.494830e-06	1.253126e-09	1.034291e+01	8.147764e+01
1.120000e-06	1.540644e-06	1.371863e-09	1.065990e+01	8.909598e+01
1.130000e-06	1.585890e-06	1.486988e-09	1.097296e+01	9.654724e+01
1.140000e-06	1.630650e-06	1.593417e-09	1.128267e+01	1.037739e+02
1.150000e-06	1.675080e-06	1.693442e-09	1.159008e+01	1.107309e+02
1.160000e-06	1.719128e-06	1.790786e-09	1.189486e+01	1.173875e+02
1.170000e-06	1.762544e-06	1.886985e-09	1.219526e+01	1.237274e+02
1.180000e-06	1.805036e-06	1.980443e-09	1.248926e+01	1.297467e+02
1.190000e-06	1.846522e-06	2.070098e-09	1.277631e+01	1.354497e+02
1.200000e-06	1.887264e-06	2.153805e-09	1.305821e+01	1.408450e+02
1.210000e-06	1.927524e-06	2.232027e-09	1.333678e+01	1.459418e+02
1.220000e-06	1.967216e-06	2.304305e-09	1.361141e+01	1.507476e+02
1.230000e-06	2.006230e-06	2.368537e-09	1.388135e+01	1.552681e+02
1.240000e-06	2.044575e-06	2.427648e-09	1.414667e+01	1.595080e+02
1.250000e-06	2.082193e-06	2.485283e-09	1.440695e+01	1.634733e+02
1.260000e-06	2.119132e-06	2.541470e-09	1.466253e+01	1.671732e+02
1.270000e-06	2.155527e-06	2.593903e-09	1.491436e+01	1.706212e+02
1.280000e-06	2.191337e-06	2.641719e-09	1.516213e+01	1.738346e+02
1.290000e-06	2.226161e-06	2.685478e-09	1.540308e+01	1.768333e+02
1.300000e-06	2.259780e-06	2.725596e-09	1.563570e+01	1.796370e+02
1.310000e-06	2.292503e-06	2.761665e-09	1.586211e+01	1.822631e+02
1.320000e-06	2.324604e-06	2.793662e-09	1.608422e+01	1.847250e+02
1.330000e-06	2.355992e-06	2.825655e-09	1.630140e+01	1.870321e+02
1.340000e-06	2.386593e-06	2.858904e-09	1.651313e+01	1.891905e+02
1.350000e-06	2.416417e-06	2.891294e-09	1.671948e+01	1.912059e+02
1.360000e-06	2.445437e-06	2.919642e-09	1.692028e+01	1.930851e+02
1.370000e-06	2.473797e-06	2.944646e-09	1.711650e+01	1.948374e+02
1.380000e-06	2.501411e-06	2.968516e-09	1.730757e+01	1.964749e+02
1.390000e-06	2.527789e-06	2.991114e-09	1.749008e+01	1.980109e+02
1.400000e-06	2.552902e-06	3.011535e-09	1.766384e+01	1.994578e+02
1.410000e-06	2.577154e-06	3.030237e-09	1.783164e+01	2.008249e+02
1.420000e-06	2.600543e-06	3.048403e-09	1.799348e+01	2.021171e+02
1.430000e-06	2.623052e-06	3.066405e-09	1.814921e+01	2.033351e+02
1.440000e-06	2.644740e-06	3.086021e-09	1.829928e+01	2.044773e+02
1.450000e-06	2.665625e-06	3.106096e-09	1.844379e+01	2.055417e+02
1.460000e-06	2.685821e-06	3.123940e-09	1.858352e+01	2.065286e+02
1.470000e-06	2.705116e-06	3.137738e-09	1.871703e+01	2.074419e+02
1.480000e-06	2.723277e-06	3.149371e-09	1.884268e+01	2.082887e+02
1.490000e-06	2.740473e-06	3.159735e-09	1.896167e+01	2.090778e+02
1.500000e-06	2.756695e-06	3.170129e-09	1.907391e+01	2.098167e+02
1.510000e-06	2.771771e-06	3.181397e-09	1.917822e+01	2.105101e+02
1.520000e-06	2.785824e-06	3.191847e-09	1.927545e+01	2.111583e+02
1.530000e-06	2.798914e-06	3.202625e-09	1.936603e+01	2.117577e+02
1.540000e-06	2.810964e-06	3.214725e-09	1.944940e+01	2.123031e+02
1.550000e-06	2.821762e-06	3.224146e-09	1.952411e+01	2.127904e+02
1.560000e-06	2.831216e-06	3.228175e-09	1.958953e+01	2.132185e+02
1.570000e-06	2.839679e-06	3.231489e-09	1.964809e+01	2.135902e+02
1.580000e-06	2.847273e-06	3.237834e-09	1.970063e+01	2.139114e+02
1.590000e-06	2.853883e-06	3.245585e-09	1.974636e+01	2.141886e+02
1.600000e-06	2.859524e-06	3.251479e-09	1.978540e+01	2.144261e+02
1.610000e-06	2.864303e-06	3.254883e-09	1.981846e+01	2.146244e+02
1.620000e-06	2.868255e-06	3.258200e-09	1.984581e+01	2.147798e+02
1.630000e-06	2.871039e-06	3.263106e-09	1.986507e+01	2.148864e+02
1.640000e-06	2.872501e-06	3.266028e-09	1.987518e+01	2.149395e+02
1.650000e-06	2.872980e-06	3.266539e-09	1.987850e+01	2.149384e+02
1.660000e-06	2.872600e-06	3.266471e-09	1.987587e+01	2.148883e+02
1.670000e-06	2.871269e-06	3.263048e-09	1.986666e+01	2.147996e+02
1.680000e-06	2.869020e-06	3.257660e-09	1.985110e+01	2.146842e+02
1.690000e-06	2.865950e-06	3.254115e-09	1.982986e+01	2.145514e+02
1.700000e-06	2.862161e-06	3.254770e-09	1.980364e+01	2.144031e+02
1.710000e-06	2.857427e-06	3.258157e-09	1.977089e+01	2.142316e+02
1.720000e-06	2.851459e-06	3.265993e-09	1.972959e+01	2.140208e+02
1.730000e-06	2.844446e-06	3.263419e-09	1.968107e+01	2.137510e+02
1.740000e-06	2.836590e-06	3.194011e-09	1.962671e+01	2.134052e+02
1.750000e-06	2.827489e-06	3.151828e-09	1.956374e+01	2.129761e+02
1.760000e-06	2.816744e-06	3.231589e-09	1.948939e+01	2.124695e+02
1.770000e-06	2.804894e-06	3.333898e-09	1.940740e+01	2.119047e+02
1.780000e-06	2.792896e-06	3.238480e-09	1.932439e+01	2.113095e+02
1.790000e-06	2.780410e-06	3.107019e-09	1.923799e+01	2.107124e+02
1.800000e-06	2.766207e-06	3.226735e-09	1.913972e+01	2.101341e+02
1.810000e-06	2.750592e-06	3.229565e-09	1.903168e+01	2.095812e+02
1.820000e-06	2.734537e-06	3.082794e-09	1.892059e+01	2.090444e+02
1.830000e-06	2.717552e-06	3.163062e-09	1.880307e+01	2.085019e+02
1.840000e-06	2.699131e-06	3.284611e-09	1.867562e+01	2.079259e+02
1.850000e-06	2.679919e-06	3.114294e-09	1.854269e+01	2.072920e+02
1.860000e-06	2.660052e-06	3.071767e-09	1.840522e+01	2.065861e+02
1.870000e-06	2.638954e-06	3.266023e-09	1.825925e+01	2.058078e+02
1.880000e-06	2.616762e-06	3.105238e-09	1.810569e+01	2.049689e+02
1.890000e-06	2.593661e-06	2.940531e-09	1.794585e+01	2.040879e+02
1.900000e-06	2.569438e-06	3.146508e-09	1.777825e+01	2.031823e+02
1.910000e-06	2.544451e-06	3.151762e-09	1.760536e+01	2.022621e+02
1.920000e-06	2.518849e-06	3.024173e-09	1.742822e+01	2.013259e+02
1.930000e-06	2.492273e-06	3.057004e-09	1.724434e+01	2.003628e+02
1.940000e-06	2.464930e-06	3.026570e-09	1.705515e+01	1.993567e+02
1.950000e-06	2.436826e-06	3.027303e-09	1.686070e+01	1.982935e+02
1.960000e-06	2.407507e-06	3.038649e-09	1.665784e+01	1.971667e+02
1.970000e-06	2.377097e-06	2.921662e-09	1.644742e+01	1.959805e+02
1.980000e-06	2.345893e-06	2.938908e-09	1.623152e+01	1.947487e+02
1.990000e-06	2.314040e-06	3.018718e-09	1.601112e+01	1.934891e+02
2.000000e-06	2.281499e-06	2.927365e-09	1.578597e+01	1.922178e+02
2.010000e-06	2.248048e-06	2.913510e-09	1.555452e+01	1.909427e+02
2.020000e-06	2.213699e-06	2.908323e-09	1.531685e+01	1.896609e+02
2.030000e-06	2.178740e-06	2.822418e-09	1.507497e+01	1.883600e+02
2.040000e-06	2.143213e-06	2.869050e-09	1.482915e+01	1.870227e+02
2.050000e-06	2.106969e-06	2.858478e-09	1.457837e+01	1.856331e+02
2.060000e-06	2.069873e-06	2.766352e-09	1.432171e+01	1.841821e+02
2.070000e-06	2.031671e-06	2.795418e-09	1.405738e+01	1.826707e+02
2.080000e-06	1.992573e-06	2.796390e-09	1.378685e+01	1.811086e+02
2.090000e-06	1.952933e-06	2.739739e-09	1.351258e+01	1.795098e+02
2.100000e-06	1.912707e-06	2.710831e-09	1.323425e+01	1.778877e+02
2.110000e-06	1.871827e-06	2.668209e-09	1.295140e+01	1.762488e+02
2.120000e-06	1.830305e-06	2.663197e-09	1.266410e+01	1.745912e+02
2.130000e-06	1.788215e-06	2.659084e-09	1.237287e+01	1.729048e+02
2.140000e-06	1.745582e-06	2.615517e-09	1.207789e+01	1.711755e+02
2.150000e-06	1.702431e-06	2.585462e-09	1.177933e+01	1.693902e+02
2.160000e-06	1.658853e-06	2.552941e-09	1.147781e+01	1.675415e+02
2.170000e-06	1.614719e-06	2.537864e-09	1.117244e+01	1.656300e+02
2.180000e-06	1.569889e-06	2.509915e-09	1.086225e+01	1.636636e+02
2.190000e-06	1.524455e-06	2.466179e-09	1.054789e+01	1.616542e+02
2.200000e-06	1.478494e-06	2.436875e-09	1.022988e+01	1.596129e+02
2.210000e-06	1.432174e-06	2.411014e-09	9.909383e+00	1.575464e+02
2.220000e-06	1.385407e-06	2.388850e-09	9.585802e+00	1.554549e+02
2.230000e-06	1.338067e-06	2.349153e-09	9.258248e+00	1.533326e+02
2.240000e-06	1.290190e-06	2.301651e-09	8.926982e+00	1.511708e+02
2.250000e-06	1.241712e-06	2.283238e-09	8.591559e+00	1.489612e+02
2.260000e-06	1.192729e-06	2.260552e-09	8.252640e+00	1.466991e+02
2.270000e-06	1.143345e-06	2.213401e-09	7.910942e+00	1.443845e+02
2.280000e-06	1.093534e-06	2.171499e-09	7.566296e+00	1.420211e+02
2.290000e-06	1.043309e-06	2.133508e-09	7.218782e+00	1.396134e+02
2.300000e-06	9.926781e-07	2.110544e-09	6.868460e+00	1.371641e+02
2.310000e-06	9.416826e-07	2.077380e-09	6.515617e+00	1.346719e+02
2.320000e-06	8.904256e-07	2.028480e-09	6.160963e+00	1.321312e+02
2.330000e-06	8.388695e-07	1.989037e-09	5.804240e+00	1.295338e+02
2.340000e-06	7.869733e-07	1.950726e-09	5.445164e+00	1.268720e+02
2.350000e-06	7.346247e-07	1.912077e-09	5.082957e+00	1.241410e+02
2.360000e-06	6.818265e-07	1.864368e-09	4.717641e+00	1.213412e+02
2.370000e-06	6.286513e-07	1.816678e-09	4.349715e+00	1.184770e+02
2.380000e-06	5.751218e-07	1.779709e-09	3.979338e+00	1.155556e+02
2.390000e-06	5.212450e-07	1.742004e-09	3.606558e+00	1.125830e+02
2.400000e-06	4.670117e-07	1.696293e-09	3.231311e+00	1.095610e+02
2.410000e-06	4.125294e-07	1.644660e-09	2.854341e+00	1.064862e+02
2.420000e-06	3.578879e-07	1.593713e-09	2.476270e+00	1.033496e+02
2.430000e-06	3.030856e-07	1.548126e-09	2.097086e+00	1.001399e+02
2.440000e-06	2.481482e-07	1.499496e-09	1.716968e+00	9.684610e+01
2.450000e-06	1.931229e-07	1.444319e-09	1.336241e+00	9.346134e+01
2.460000e-06	1.380837e-07	1.391830e-09	9.554180e-01	8.998442e+01
2.470000e-06	8.305648e-08	1.340981e-09	5.746779e-01	8.641955e+01
2.480000e-06	2.796813e-08	1.288845e-09	1.935149e-01	8.277415e+01
2.490000e-06	-2.711749e-08	1.230387e-09	-1.876292e-01	7.905545e+01
2.500000e-06	-8.213744e-08	1.169511e-09	-5.683190e-01	7.526722e+01
2.510000e-06	-1.371227e-07	1.111035e-09	-9.487690e-01	7.140764e+01
2.520000e-06	-1.920955e-07	1.050866e-09	-1.329132e+00	6.746914e+01
2.530000e-06	-2.470863e-07	9.879657e-10	-1.709620e+00	6.344001e+01
2.540000e-06	-3.020261e-07	9.231877e-10	-2.089756e+00	5.930721e+01
2.550000e-06	-3.568151e-07	8.620286e-10	-2.468847e+00	5.505925e+01
2.560000e-06	-4.114280e-07	8.003884e-10	-2.846721e+00	5.068814e+01
2.570000e-06	-4.658447e-07	7.311476e-10	-3.223236e+00	4.618977e+01
2.580000e-06	-5.200417e-07	6.551846e-10	-3.598232e+00	4.156269e+01
2.590000e-06	-5.739095e-07	5.805913e-10	-3.970950e+00	3.680580e+01
2.600000e-06	-6.273574e-07	5.073588e-10	-4.340762e+00	3.191587e+01
2.610000e-06	-6.803861e-07	4.322243e-10	-4.707674e+00	2.688571e+01
2.620000e-06	-7.329715e-07	3.535044e-10	-5.071519e+00	2.170360e+01
2.630000e-06	-7.850981e-07	2.708450e-10	-5.432189e+00	1.635415e+01
2.640000e-06	-8.368733e-07	1.881424e-10	-5.790428e+00	1.082013e+01
2.650000e-06	-8.884005e-07	1.033711e-10	-6.146952e+00	5.084765e+00
2.660000e-06	-9.396942e-07	1.293288e-11	-6.501859e+00	-8.663105e-01
2.670000e-06	-9.907111e-07	-8.412964e-11	-6.854850e+00	-7.043634e+00
2.680000e-06	-1.041353e-06	-1.822702e-10	-7.205251e+00	-1.345327e+01
2.690000e-06	-1.091532e-06	-2.810385e-10	-7.552442e+00	-2.009657e+01
2.700000e-06	-1.141229e-06	-3.835079e-10	-7.896299e+00	-2.696985e+01
2.710000e-06	-1.190541e-06	-4.908649e-10	-8.237497e+00	-3.406366e+01
2.720000e-06	-1.239426e-06	-6.034058e-10	-8.575737e+00	-4.136144e+01
2.730000e-06	-1.287687e-06	-7.171708e-10	-8.909666e+00	-4.883775e+01
2.740000e-06	-1.335098e-06	-8.331679e-10	-9.237706e+00	-5.645677e+01
2.750000e-06	-1.381745e-06	-9.520905e-10	-9.560465e+00	-6.417156e+01
2.760000e-06	-1.427914e-06	-1.071661e-09	-9.879907e+00	-7.192492e+01
2.770000e-06	-1.473696e-06	-1.189259e-09	-1.019668e+01	-7.965205e+01
2.780000e-06	-1.519138e-06	-1.304824e-09	-1.051110e+01	-8.728485e+01
2.790000e-06	-1.564228e-06	-1.418793e-09	-1.082308e+01	-9.475728e+01
2.800000e-06	-1.608814e-06	-1.531281e-09	-1.113158e+01	-1.020108e+02
2.810000e-06	-1.652759e-06	-1.640980e-09	-1.143564e+01	-1.089987e+02
2.820000e-06	-1.696220e-06	-1.745085e-09	-1.173635e+01	-1.156889e+02
2.830000e-06	-1.739331e-06	-1.843726e-09	-1.203464e+01	-1.220635e+02
2.840000e-06	-1.781904e-06	-1.936866e-09	-1.232921e+01	-1.281173e+02
2.850000e-06	-1.823832e-06	-2.023735e-09	-1.261931e+01	-1.338542e+02
2.860000e-06	-1.865207e-06	-2.103874e-09	-1.290559e+01	-1.392824e+02
2.870000e-06	-1.905986e-06	-2.179185e-09	-1.318775e+01	-1.444111e+02
2.880000e-06	-1.946036e-06	-2.252623e-09	-1.346486e+01	-1.492481e+02
2.890000e-06	-1.985495e-06	-2.326033e-09	-1.373788e+01	-1.537992e+02
2.900000e-06	-2.024485e-06	-2.396956e-09	-1.400766e+01	-1.580693e+02
2.910000e-06	-2.062668e-06	-2.462585e-09	-1.427185e+01	-1.620640e+02
2.920000e-06	-2.099762e-06	-2.521932e-09	-1.452851e+01	-1.657922e+02
2.930000e-06	-2.135846e-06	-2.576337e-09	-1.477818e+01	-1.692667e+02
2.940000e-06	-2.171251e-06	-2.627102e-09	-1.502315e+01	-1.725047e+02
