# Temperatura_=_20.93
# Concentracion g/m^3_=_13400.0
# C_Vs_to_Am_M_A/Vsm_=_65563218390.804596
# pendiente_HvsI_1/m_=_3716.3
# ordenada_HvsI_A/m_=_1297.0
# frecuencia_Hz_=_300994.05187628407

Tiempo_(s)	Campo_(V.s)	Magnetizacion_(V.s)	Campo_(kA/m)	Magnetizacion_(A/m)
0.000000e+00	-2.860442e-06	-3.239580e-09	-1.978805e+01	-2.118042e+02
1.000000e-08	-2.859943e-06	-3.241903e-09	-1.978460e+01	-2.116999e+02
2.000000e-08	-2.858590e-06	-3.244516e-09	-1.977524e+01	-2.115705e+02
3.000000e-08	-2.856017e-06	-3.244712e-09	-1.975745e+01	-2.114297e+02
4.000000e-08	-2.852268e-06	-3.243173e-09	-1.973151e+01	-2.112798e+02
5.000000e-08	-2.847663e-06	-3.239222e-09	-1.969965e+01	-2.111099e+02
6.000000e-08	-2.842217e-06	-3.230877e-09	-1.966198e+01	-2.108995e+02
7.000000e-08	-2.835853e-06	-3.216203e-09	-1.961795e+01	-2.106258e+02
8.000000e-08	-2.828570e-06	-3.226518e-09	-1.956757e+01	-2.102725e+02
9.000000e-08	-2.820197e-06	-3.276866e-09	-1.950964e+01	-2.098369e+02
1.000000e-07	-2.810450e-06	-3.289854e-09	-1.944222e+01	-2.093333e+02
1.100000e-07	-2.799306e-06	-3.175273e-09	-1.936513e+01	-2.087906e+02
1.200000e-07	-2.787208e-06	-3.094387e-09	-1.928144e+01	-2.082446e+02
1.300000e-07	-2.774359e-06	-3.199631e-09	-1.919255e+01	-2.077283e+02
1.400000e-07	-2.760558e-06	-3.271433e-09	-1.909707e+01	-2.072618e+02
1.500000e-07	-2.745780e-06	-3.122221e-09	-1.899485e+01	-2.068463e+02
1.600000e-07	-2.729946e-06	-3.134283e-09	-1.888530e+01	-2.064630e+02
1.700000e-07	-2.712756e-06	-3.269718e-09	-1.876639e+01	-2.060782e+02
1.800000e-07	-2.694421e-06	-3.138358e-09	-1.863955e+01	-2.056515e+02
1.900000e-07	-2.675433e-06	-3.050738e-09	-1.850820e+01	-2.051467e+02
2.000000e-07	-2.655673e-06	-3.154817e-09	-1.837149e+01	-2.045399e+02
2.100000e-07	-2.634952e-06	-3.095038e-09	-1.822815e+01	-2.038236e+02
2.200000e-07	-2.613398e-06	-3.000453e-09	-1.807904e+01	-2.030067e+02
2.300000e-07	-2.591047e-06	-3.144256e-09	-1.792442e+01	-2.021093e+02
2.400000e-07	-2.567741e-06	-3.165103e-09	-1.776320e+01	-2.011559e+02
2.500000e-07	-2.543572e-06	-3.020913e-09	-1.759600e+01	-2.001679e+02
2.600000e-07	-2.518664e-06	-3.005329e-09	-1.742369e+01	-1.991591e+02
2.700000e-07	-2.492729e-06	-3.022922e-09	-1.724428e+01	-1.981339e+02
2.800000e-07	-2.465599e-06	-2.987766e-09	-1.705660e+01	-1.970888e+02
2.900000e-07	-2.437485e-06	-2.994951e-09	-1.686211e+01	-1.960162e+02
3.000000e-07	-2.408541e-06	-2.951535e-09	-1.666188e+01	-1.949084e+02
3.100000e-07	-2.378818e-06	-2.949641e-09	-1.645626e+01	-1.937609e+02
3.200000e-07	-2.348398e-06	-3.005003e-09	-1.624582e+01	-1.925731e+02
3.300000e-07	-2.317180e-06	-2.920212e-09	-1.602986e+01	-1.913484e+02
3.400000e-07	-2.285157e-06	-2.854478e-09	-1.580833e+01	-1.900917e+02
3.500000e-07	-2.252530e-06	-2.878856e-09	-1.558263e+01	-1.888072e+02
3.600000e-07	-2.219291e-06	-2.847393e-09	-1.535268e+01	-1.874971e+02
3.700000e-07	-2.185014e-06	-2.833162e-09	-1.511555e+01	-1.861611e+02
3.800000e-07	-2.149523e-06	-2.857224e-09	-1.487004e+01	-1.847971e+02
3.900000e-07	-2.113236e-06	-2.791881e-09	-1.461901e+01	-1.834023e+02
4.000000e-07	-2.076389e-06	-2.769429e-09	-1.436411e+01	-1.819747e+02
4.100000e-07	-2.038875e-06	-2.793859e-09	-1.410459e+01	-1.805133e+02
4.200000e-07	-2.000611e-06	-2.729249e-09	-1.383989e+01	-1.790183e+02
4.300000e-07	-1.961547e-06	-2.669191e-09	-1.356965e+01	-1.774901e+02
4.400000e-07	-1.921765e-06	-2.680990e-09	-1.329445e+01	-1.759286e+02
4.500000e-07	-1.881484e-06	-2.682335e-09	-1.301579e+01	-1.743329e+02
4.600000e-07	-1.840865e-06	-2.649258e-09	-1.273479e+01	-1.727010e+02
4.700000e-07	-1.799667e-06	-2.613427e-09	-1.244980e+01	-1.710302e+02
4.800000e-07	-1.757420e-06	-2.572877e-09	-1.215754e+01	-1.693186e+02
4.900000e-07	-1.714119e-06	-2.552377e-09	-1.185799e+01	-1.675649e+02
5.000000e-07	-1.670103e-06	-2.535272e-09	-1.155349e+01	-1.657688e+02
5.100000e-07	-1.625664e-06	-2.497426e-09	-1.124607e+01	-1.639310e+02
5.200000e-07	-1.580831e-06	-2.460706e-09	-1.093592e+01	-1.620516e+02
5.300000e-07	-1.535428e-06	-2.447052e-09	-1.062183e+01	-1.601303e+02
5.400000e-07	-1.489424e-06	-2.427017e-09	-1.030358e+01	-1.581652e+02
5.500000e-07	-1.442923e-06	-2.381294e-09	-9.981901e+00	-1.561539e+02
5.600000e-07	-1.395926e-06	-2.333871e-09	-9.656777e+00	-1.540938e+02
5.700000e-07	-1.348362e-06	-2.300269e-09	-9.327741e+00	-1.519827e+02
5.800000e-07	-1.300318e-06	-2.286967e-09	-8.995381e+00	-1.498202e+02
5.900000e-07	-1.251990e-06	-2.261688e-09	-8.661056e+00	-1.476071e+02
6.000000e-07	-1.203346e-06	-2.216247e-09	-8.324545e+00	-1.453455e+02
6.100000e-07	-1.154116e-06	-2.175503e-09	-7.983980e+00	-1.430369e+02
6.200000e-07	-1.104142e-06	-2.142945e-09	-7.638267e+00	-1.406820e+02
6.300000e-07	-1.053459e-06	-2.106086e-09	-7.287654e+00	-1.382793e+02
6.400000e-07	-1.002220e-06	-2.062682e-09	-6.933192e+00	-1.358257e+02
6.500000e-07	-9.505782e-07	-2.019011e-09	-6.575939e+00	-1.333168e+02
6.600000e-07	-8.985640e-07	-1.982558e-09	-6.216114e+00	-1.307487e+02
6.700000e-07	-8.462518e-07	-1.954823e-09	-5.854227e+00	-1.281191e+02
6.800000e-07	-7.937026e-07	-1.913919e-09	-5.490700e+00	-1.254284e+02
6.900000e-07	-7.408443e-07	-1.860583e-09	-5.125036e+00	-1.226795e+02
7.000000e-07	-6.876626e-07	-1.813790e-09	-4.757134e+00	-1.198768e+02
7.100000e-07	-6.342057e-07	-1.776141e-09	-4.387328e+00	-1.170248e+02
7.200000e-07	-5.805385e-07	-1.734093e-09	-4.016067e+00	-1.141259e+02
7.300000e-07	-5.266903e-07	-1.684411e-09	-3.643554e+00	-1.111790e+02
7.400000e-07	-4.726401e-07	-1.636151e-09	-3.269644e+00	-1.081794e+02
7.500000e-07	-4.184265e-07	-1.590942e-09	-2.894604e+00	-1.051190e+02
7.600000e-07	-3.641346e-07	-1.544760e-09	-2.519021e+00	-1.019877e+02
7.700000e-07	-3.097454e-07	-1.489335e-09	-2.142767e+00	-9.877607e+01
7.800000e-07	-2.552564e-07	-1.432268e-09	-1.765821e+00	-9.547710e+01
7.900000e-07	-2.006986e-07	-1.383176e-09	-1.388399e+00	-9.208764e+01
8.000000e-07	-1.460966e-07	-1.336854e-09	-1.010672e+00	-8.860888e+01
8.100000e-07	-9.147411e-08	-1.283405e-09	-6.328025e-01	-8.504561e+01
8.200000e-07	-3.679326e-08	-1.223797e-09	-2.545295e-01	-8.140463e+01
8.300000e-07	1.790636e-08	-1.164912e-09	1.238732e-01	-7.769258e+01
8.400000e-07	7.254701e-08	-1.107778e-09	5.018680e-01	-7.391394e+01
8.500000e-07	1.271181e-07	-1.050049e-09	8.793817e-01	-7.006955e+01
8.600000e-07	1.816398e-07	-9.876035e-10	1.256554e+00	-6.615603e+01
8.700000e-07	2.361299e-07	-9.248929e-10	1.633507e+00	-6.216620e+01
8.800000e-07	2.906028e-07	-8.662903e-10	2.010341e+00	-5.809033e+01
8.900000e-07	3.450300e-07	-8.085342e-10	2.386859e+00	-5.391771e+01
9.000000e-07	3.993572e-07	-7.433709e-10	2.762685e+00	-4.963838e+01
9.100000e-07	4.535653e-07	-6.722784e-10	3.137688e+00	-4.524416e+01
9.200000e-07	5.076242e-07	-6.037950e-10	3.511658e+00	-4.072910e+01
9.300000e-07	5.615048e-07	-5.355588e-10	3.884395e+00	-3.608901e+01
9.400000e-07	6.151733e-07	-4.614687e-10	4.255665e+00	-3.132031e+01
9.500000e-07	6.686156e-07	-3.824949e-10	4.625370e+00	-2.641873e+01
9.600000e-07	7.217749e-07	-3.054698e-10	4.993117e+00	-2.137802e+01
9.700000e-07	7.746080e-07	-2.300457e-10	5.358607e+00	-1.618932e+01
9.800000e-07	8.271768e-07	-1.520597e-10	5.722269e+00	-1.084123e+01
9.900000e-07	8.794982e-07	-6.692932e-11	6.084220e+00	-5.320691e+00
1.000000e-06	9.315120e-07	2.289021e-11	6.444043e+00	3.856225e-01
1.010000e-06	9.831778e-07	1.136531e-10	6.801458e+00	6.289683e+00
1.020000e-06	1.034318e-06	2.081008e-10	7.155237e+00	1.240063e+01
1.030000e-06	1.084772e-06	3.074344e-10	7.504270e+00	1.872359e+01
1.040000e-06	1.134535e-06	4.097290e-10	7.848520e+00	2.525890e+01
1.050000e-06	1.183667e-06	5.109890e-10	8.188406e+00	3.200136e+01
1.060000e-06	1.232366e-06	6.126764e-10	8.525303e+00	3.893960e+01
1.070000e-06	1.280741e-06	7.197007e-10	8.859949e+00	4.605505e+01
1.080000e-06	1.328836e-06	8.317675e-10	9.192663e+00	5.332092e+01
1.090000e-06	1.376559e-06	9.440234e-10	9.522802e+00	6.070126e+01
1.100000e-06	1.423700e-06	1.055835e-09	9.848914e+00	6.815067e+01
1.110000e-06	1.470297e-06	1.170776e-09	1.017127e+01	7.561525e+01
1.120000e-06	1.516410e-06	1.287911e-09	1.049027e+01	8.303505e+01
1.130000e-06	1.561976e-06	1.400937e-09	1.080548e+01	9.034788e+01
1.140000e-06	1.607015e-06	1.506186e-09	1.111706e+01	9.749410e+01
1.150000e-06	1.651641e-06	1.607097e-09	1.142578e+01	1.044215e+02
1.160000e-06	1.695907e-06	1.706791e-09	1.173200e+01	1.110889e+02
1.170000e-06	1.739672e-06	1.803497e-09	1.203475e+01	1.174688e+02
1.180000e-06	1.782657e-06	1.894532e-09	1.233212e+01	1.235467e+02
1.190000e-06	1.824722e-06	1.983030e-09	1.262312e+01	1.293196e+02
1.200000e-06	1.865918e-06	2.069860e-09	1.290811e+01	1.347924e+02
1.210000e-06	1.906457e-06	2.150744e-09	1.318855e+01	1.399744e+02
1.220000e-06	1.946498e-06	2.222868e-09	1.346555e+01	1.448762e+02
1.230000e-06	1.985937e-06	2.287179e-09	1.373838e+01	1.495079e+02
1.240000e-06	2.024668e-06	2.349579e-09	1.400631e+01	1.538783e+02
1.250000e-06	2.062674e-06	2.410939e-09	1.426923e+01	1.579957e+02
1.260000e-06	2.099953e-06	2.469859e-09	1.452712e+01	1.618683e+02
1.270000e-06	2.136635e-06	2.523909e-09	1.478088e+01	1.655046e+02
1.280000e-06	2.172815e-06	2.574870e-09	1.503117e+01	1.689141e+02
1.290000e-06	2.208177e-06	2.623890e-09	1.527580e+01	1.721061e+02
1.300000e-06	2.242439e-06	2.667134e-09	1.551282e+01	1.750899e+02
1.310000e-06	2.275688e-06	2.703464e-09	1.574283e+01	1.778740e+02
1.320000e-06	2.308151e-06	2.736547e-09	1.596740e+01	1.804675e+02
1.330000e-06	2.339922e-06	2.770495e-09	1.618718e+01	1.828805e+02
1.340000e-06	2.370963e-06	2.805148e-09	1.640192e+01	1.851255e+02
1.350000e-06	2.401212e-06	2.837273e-09	1.661118e+01	1.872181e+02
1.360000e-06	2.430645e-06	2.866197e-09	1.681479e+01	1.891764e+02
1.370000e-06	2.459368e-06	2.892954e-09	1.701350e+01	1.910190e+02
1.380000e-06	2.487402e-06	2.917661e-09	1.720743e+01	1.927626e+02
1.390000e-06	2.514472e-06	2.941130e-09	1.739470e+01	1.944191e+02
1.400000e-06	2.540301e-06	2.962355e-09	1.757337e+01	1.959939e+02
1.410000e-06	2.565055e-06	2.982570e-09	1.774462e+01	1.974858e+02
1.420000e-06	2.588937e-06	3.002435e-09	1.790983e+01	1.988894e+02
1.430000e-06	2.611944e-06	3.022187e-09	1.806898e+01	2.001983e+02
1.440000e-06	2.634078e-06	3.041500e-09	1.822211e+01	2.014093e+02
1.450000e-06	2.655324e-06	3.060786e-09	1.836908e+01	2.025250e+02
1.460000e-06	2.675798e-06	3.079848e-09	1.851072e+01	2.035546e+02
1.470000e-06	2.695537e-06	3.095562e-09	1.864727e+01	2.045116e+02
1.480000e-06	2.714323e-06	3.108143e-09	1.877723e+01	2.054107e+02
1.490000e-06	2.732086e-06	3.119713e-09	1.890011e+01	2.062626e+02
1.500000e-06	2.748915e-06	3.130991e-09	1.901653e+01	2.070718e+02
1.510000e-06	2.764688e-06	3.142720e-09	1.912565e+01	2.078348e+02
1.520000e-06	2.779382e-06	3.154304e-09	1.922730e+01	2.085428e+02
1.530000e-06	2.793040e-06	3.164871e-09	1.932178e+01	2.091853e+02
1.540000e-06	2.805642e-06	3.174966e-09	1.940896e+01	2.097555e+02
1.550000e-06	2.817086e-06	3.184057e-09	1.948813e+01	2.102537e+02
1.560000e-06	2.827181e-06	3.190904e-09	1.955796e+01	2.106879e+02
1.570000e-06	2.836128e-06	3.196178e-09	1.961985e+01	2.110721e+02
1.580000e-06	2.844161e-06	3.201055e-09	1.967542e+01	2.114210e+02
1.590000e-06	2.851295e-06	3.207733e-09	1.972478e+01	2.117452e+02
1.600000e-06	2.857434e-06	3.214945e-09	1.976725e+01	2.120462e+02
1.610000e-06	2.862638e-06	3.220243e-09	1.980325e+01	2.123165e+02
1.620000e-06	2.867002e-06	3.223514e-09	1.983344e+01	2.125411e+02
1.630000e-06	2.870334e-06	3.227200e-09	1.985649e+01	2.127038e+02
1.640000e-06	2.872430e-06	3.231617e-09	1.987098e+01	2.127931e+02
1.650000e-06	2.873401e-06	3.233680e-09	1.987771e+01	2.128072e+02
1.660000e-06	2.873516e-06	3.232881e-09	1.987850e+01	2.127555e+02
1.670000e-06	2.872787e-06	3.229223e-09	1.987345e+01	2.126560e+02
1.680000e-06	2.871105e-06	3.224895e-09	1.986182e+01	2.125288e+02
1.690000e-06	2.868482e-06	3.221727e-09	1.984367e+01	2.123889e+02
1.700000e-06	2.865066e-06	3.219764e-09	1.982004e+01	2.122403e+02
1.710000e-06	2.860895e-06	3.219145e-09	1.979119e+01	2.120740e+02
1.720000e-06	2.855676e-06	3.223159e-09	1.975508e+01	2.118705e+02
1.730000e-06	2.849242e-06	3.232101e-09	1.971058e+01	2.116068e+02
1.740000e-06	2.841826e-06	3.187914e-09	1.965927e+01	2.112650e+02
1.750000e-06	2.833366e-06	3.115332e-09	1.960075e+01	2.108403e+02
1.760000e-06	2.823443e-06	3.136912e-09	1.953210e+01	2.103446e+02
1.770000e-06	2.812120e-06	3.264604e-09	1.945377e+01	2.098050e+02
1.780000e-06	2.800224e-06	3.247640e-09	1.937148e+01	2.092569e+02
1.790000e-06	2.788109e-06	3.100315e-09	1.928767e+01	2.087344e+02
1.800000e-06	2.774837e-06	3.135320e-09	1.919586e+01	2.082599e+02
1.810000e-06	2.759903e-06	3.217329e-09	1.909254e+01	2.078375e+02
1.820000e-06	2.744112e-06	3.085326e-09	1.898330e+01	2.074511e+02
1.830000e-06	2.727684e-06	3.052099e-09	1.886966e+01	2.070685e+02
1.840000e-06	2.709955e-06	3.246136e-09	1.874701e+01	2.066499e+02
1.850000e-06	2.691092e-06	3.190906e-09	1.861652e+01	2.061578e+02
1.860000e-06	2.671618e-06	3.041383e-09	1.848180e+01	2.055660e+02
1.870000e-06	2.651213e-06	3.188437e-09	1.834064e+01	2.048648e+02
1.880000e-06	2.629552e-06	3.172229e-09	1.819080e+01	2.040609e+02
1.890000e-06	2.606910e-06	2.959672e-09	1.803416e+01	2.031732e+02
1.900000e-06	2.583300e-06	3.049680e-09	1.787083e+01	2.022260e+02
1.910000e-06	2.558712e-06	3.134167e-09	1.770074e+01	2.012415e+02
1.920000e-06	2.533427e-06	3.044505e-09	1.752582e+01	2.002348e+02
1.930000e-06	2.507347e-06	3.046297e-09	1.734541e+01	1.992117e+02
1.940000e-06	2.480417e-06	3.020385e-09	1.715911e+01	1.981695e+02
1.950000e-06	2.452814e-06	2.982422e-09	1.696816e+01	1.971010e+02
1.960000e-06	2.424194e-06	3.031823e-09	1.677017e+01	1.959983e+02
1.970000e-06	2.394317e-06	2.930737e-09	1.656348e+01	1.948562e+02
1.980000e-06	2.363516e-06	2.876152e-09	1.635040e+01	1.936737e+02
1.990000e-06	2.331949e-06	3.001725e-09	1.613203e+01	1.924536e+02
2.000000e-06	2.299719e-06	2.935165e-09	1.590907e+01	1.912008e+02
2.010000e-06	2.266771e-06	2.862566e-09	1.568114e+01	1.899197e+02
2.020000e-06	2.232899e-06	2.915787e-09	1.544682e+01	1.886129e+02
2.030000e-06	2.198317e-06	2.831207e-09	1.520758e+01	1.872804e+02
2.040000e-06	2.163151e-06	2.801676e-09	1.496432e+01	1.859202e+02
2.050000e-06	2.127282e-06	2.844785e-09	1.471618e+01	1.845296e+02
2.060000e-06	2.090657e-06	2.760206e-09	1.446281e+01	1.831065e+02
2.070000e-06	2.053021e-06	2.746889e-09	1.420245e+01	1.816496e+02
2.080000e-06	2.014353e-06	2.782372e-09	1.393495e+01	1.801589e+02
2.090000e-06	1.975023e-06	2.730024e-09	1.366287e+01	1.786351e+02
2.100000e-06	1.935139e-06	2.695923e-09	1.338697e+01	1.770781e+02
2.110000e-06	1.894621e-06	2.656875e-09	1.310667e+01	1.754871e+02
2.120000e-06	1.853428e-06	2.627619e-09	1.282170e+01	1.738601e+02
2.130000e-06	1.811605e-06	2.634560e-09	1.253237e+01	1.721947e+02
2.140000e-06	1.769236e-06	2.605802e-09	1.223927e+01	1.704886e+02
2.150000e-06	1.726325e-06	2.572299e-09	1.194242e+01	1.687406e+02
2.160000e-06	1.682951e-06	2.550381e-09	1.164237e+01	1.669503e+02
2.170000e-06	1.639127e-06	2.524131e-09	1.133920e+01	1.651180e+02
2.180000e-06	1.594705e-06	2.488901e-09	1.103190e+01	1.632442e+02
2.190000e-06	1.549573e-06	2.447415e-09	1.071969e+01	1.613286e+02
2.200000e-06	1.503779e-06	2.427135e-09	1.040289e+01	1.593696e+02
2.210000e-06	1.457546e-06	2.412133e-09	1.008306e+01	1.573647e+02
2.220000e-06	1.410993e-06	2.385317e-09	9.761010e+00	1.553113e+02
2.230000e-06	1.363996e-06	2.353182e-09	9.435893e+00	1.532072e+02
2.240000e-06	1.316446e-06	2.301104e-09	9.106951e+00	1.510517e+02
2.250000e-06	1.268278e-06	2.265708e-09	8.773735e+00	1.488454e+02
2.260000e-06	1.219559e-06	2.244929e-09	8.436706e+00	1.465903e+02
2.270000e-06	1.170400e-06	2.206820e-09	8.096633e+00	1.442880e+02
2.280000e-06	1.120835e-06	2.174580e-09	7.753748e+00	1.419394e+02
2.290000e-06	1.070866e-06	2.138613e-09	7.408068e+00	1.395433e+02
2.300000e-06	1.020432e-06	2.104205e-09	7.059176e+00	1.370969e+02
2.310000e-06	9.695490e-07	2.072151e-09	6.707176e+00	1.345958e+02
2.320000e-06	9.183521e-07	2.023903e-09	6.353005e+00	1.320360e+02
2.330000e-06	8.669046e-07	1.980813e-09	5.997100e+00	1.294149e+02
2.340000e-06	8.151934e-07	1.947834e-09	5.639370e+00	1.267325e+02
2.350000e-06	7.631353e-07	1.911394e-09	5.279241e+00	1.239913e+02
2.360000e-06	7.106377e-07	1.866850e-09	4.916072e+00	1.211956e+02
2.370000e-06	6.577122e-07	1.817363e-09	4.549942e+00	1.183501e+02
2.380000e-06	6.043381e-07	1.776743e-09	4.180709e+00	1.154575e+02
2.390000e-06	5.505652e-07	1.739773e-09	3.808717e+00	1.125173e+02
2.400000e-06	4.965142e-07	1.694339e-09	3.434802e+00	1.095254e+02
2.410000e-06	4.422281e-07	1.645465e-09	3.059259e+00	1.064739e+02
2.420000e-06	3.877457e-07	1.598256e-09	2.682359e+00	1.033530e+02
2.430000e-06	3.330718e-07	1.553820e-09	2.304135e+00	1.001530e+02
2.440000e-06	2.782069e-07	1.503540e-09	1.924588e+00	9.686643e+01
2.450000e-06	2.232604e-07	1.446358e-09	1.544478e+00	9.348958e+01
2.460000e-06	1.682426e-07	1.392576e-09	1.163874e+00	9.002300e+01
2.470000e-06	1.131602e-07	1.340646e-09	7.828229e-01	8.647107e+01
2.480000e-06	5.810235e-08	1.288834e-09	4.019422e-01	8.284041e+01
2.490000e-06	3.047007e-09	1.232568e-09	2.107868e-02	7.913782e+01
2.500000e-06	-5.202393e-08	1.171810e-09	-3.598927e-01	7.536820e+01
2.510000e-06	-1.070790e-07	1.113203e-09	-7.407545e-01	7.153296e+01
2.520000e-06	-1.621340e-07	1.055225e-09	-1.121615e+00	6.762933e+01
2.530000e-06	-2.171721e-07	9.930354e-10	-1.502360e+00	6.365061e+01
2.540000e-06	-2.721736e-07	9.273284e-10	-1.882851e+00	5.958733e+01
2.550000e-06	-3.270276e-07	8.637833e-10	-2.262322e+00	5.542883e+01
2.560000e-06	-3.816803e-07	8.028654e-10	-2.640400e+00	5.116494e+01
2.570000e-06	-4.362139e-07	7.366285e-10	-3.017654e+00	4.678720e+01
2.580000e-06	-4.905553e-07	6.633199e-10	-3.393578e+00	4.228935e+01
2.590000e-06	-5.446421e-07	5.921983e-10	-3.767742e+00	3.766699e+01
2.600000e-06	-5.983907e-07	5.221028e-10	-4.139566e+00	3.291654e+01
2.610000e-06	-6.517581e-07	4.476135e-10	-4.508752e+00	2.803392e+01
2.620000e-06	-7.046851e-07	3.690937e-10	-4.874893e+00	2.301322e+01
2.630000e-06	-7.571394e-07	2.892985e-10	-5.237762e+00	1.784596e+01
2.640000e-06	-8.091926e-07	2.091409e-10	-5.597858e+00	1.252107e+01
2.650000e-06	-8.608895e-07	1.274597e-10	-5.955488e+00	7.025645e+00
2.660000e-06	-9.123559e-07	4.305613e-11	-6.311524e+00	1.346304e+00
2.670000e-06	-9.635542e-07	-4.604617e-11	-6.665706e+00	-4.529214e+00
2.680000e-06	-1.014369e-06	-1.387960e-10	-7.017231e+00	-1.061053e+01
2.690000e-06	-1.064758e-06	-2.335418e-10	-7.365814e+00	-1.690342e+01
2.700000e-06	-1.114720e-06	-3.314533e-10	-7.711445e+00	-2.340892e+01
2.710000e-06	-1.164284e-06	-4.356928e-10	-8.054318e+00	-3.012268e+01
2.720000e-06	-1.213420e-06	-5.445044e-10	-8.394234e+00	-3.703425e+01
2.730000e-06	-1.262079e-06	-6.521445e-10	-8.730847e+00	-4.412617e+01
2.740000e-06	-1.310068e-06	-7.590041e-10	-9.062826e+00	-5.137289e+01
2.750000e-06	-1.357194e-06	-8.702136e-10	-9.388838e+00	-5.873978e+01
2.760000e-06	-1.403687e-06	-9.854988e-10	-9.710471e+00	-6.618279e+01
2.770000e-06	-1.449764e-06	-1.099285e-09	-1.002923e+01	-7.364912e+01
2.780000e-06	-1.495456e-06	-1.210809e-09	-1.034532e+01	-8.107947e+01
2.790000e-06	-1.540778e-06	-1.323163e-09	-1.065884e+01	-8.841169e+01
2.800000e-06	-1.585625e-06	-1.434895e-09	-1.096909e+01	-9.558548e+01
2.810000e-06	-1.629905e-06	-1.541593e-09	-1.127541e+01	-1.025473e+02
2.820000e-06	-1.673663e-06	-1.643838e-09	-1.157812e+01	-1.092542e+02
2.830000e-06	-1.716985e-06	-1.742717e-09	-1.187781e+01	-1.156767e+02
2.840000e-06	-1.759856e-06	-1.837948e-09	-1.217439e+01	-1.217985e+02
2.850000e-06	-1.802176e-06	-1.927771e-09	-1.246715e+01	-1.276151e+02
2.860000e-06	-1.843873e-06	-2.010838e-09	-1.275560e+01	-1.331307e+02
2.870000e-06	-1.884930e-06	-2.089345e-09	-1.303963e+01	-1.383539e+02
2.880000e-06	-1.925339e-06	-2.164743e-09	-1.331917e+01	-1.432955e+02
2.890000e-06	-1.965179e-06	-2.238190e-09	-1.359477e+01	-1.479655e+02
2.900000e-06	-2.004484e-06	-2.308049e-09	-1.386668e+01	-1.523731e+02
2.910000e-06	-2.043088e-06	-2.374273e-09	-1.413374e+01	-1.565265e+02
2.920000e-06	-2.080777e-06	-2.437859e-09	-1.439447e+01	-1.604339e+02
2.930000e-06	-2.117413e-06	-2.497726e-09	-1.464790e+01	-1.641038e+02
2.940000e-06	-2.153172e-06	-2.552300e-09	-1.489528e+01	-1.675454e+02
