# Temperatura_=_26.6
# Concentracion g/m^3_=_13400.0
# C_Vs_to_Am_M_A/Vsm_=_65563218390.804596
# pendiente_HvsI_1/m_=_3716.3
# ordenada_HvsI_A/m_=_1297.0
# frecuencia_Hz_=_300983.0262623013

Tiempo_(s)	Campo_(V.s)	Magnetizacion_(V.s)	Campo_(kA/m)	Magnetizacion_(A/m)
0.000000e+00	-2.859511e-06	-3.315522e-09	-1.978519e+01	-2.159976e+02
1.000000e-08	-2.858601e-06	-3.315080e-09	-1.977889e+01	-2.159619e+02
2.000000e-08	-2.856717e-06	-3.314276e-09	-1.976585e+01	-2.158714e+02
3.000000e-08	-2.853634e-06	-3.312456e-09	-1.974453e+01	-2.157210e+02
4.000000e-08	-2.849482e-06	-3.309683e-09	-1.971580e+01	-2.155128e+02
5.000000e-08	-2.844488e-06	-3.304832e-09	-1.968124e+01	-2.152539e+02
6.000000e-08	-2.838670e-06	-3.299791e-09	-1.964099e+01	-2.149525e+02
7.000000e-08	-2.831946e-06	-3.310567e-09	-1.959446e+01	-2.146144e+02
8.000000e-08	-2.824197e-06	-3.319742e-09	-1.954085e+01	-2.142407e+02
9.000000e-08	-2.815153e-06	-3.301882e-09	-1.947827e+01	-2.138286e+02
1.000000e-07	-2.804620e-06	-3.240936e-09	-1.940539e+01	-2.133744e+02
1.100000e-07	-2.792861e-06	-3.249228e-09	-1.932403e+01	-2.128786e+02
1.200000e-07	-2.780289e-06	-3.279384e-09	-1.923704e+01	-2.123485e+02
1.300000e-07	-2.766930e-06	-3.254219e-09	-1.914461e+01	-2.117990e+02
1.400000e-07	-2.752617e-06	-3.207618e-09	-1.904558e+01	-2.112495e+02
1.500000e-07	-2.737286e-06	-3.283650e-09	-1.893950e+01	-2.107179e+02
1.600000e-07	-2.720804e-06	-3.290625e-09	-1.882546e+01	-2.102129e+02
1.700000e-07	-2.703091e-06	-3.153718e-09	-1.870290e+01	-2.097290e+02
1.800000e-07	-2.684425e-06	-3.199423e-09	-1.857375e+01	-2.092454e+02
1.900000e-07	-2.665052e-06	-3.240065e-09	-1.843971e+01	-2.087292e+02
2.000000e-07	-2.644809e-06	-3.142291e-09	-1.829965e+01	-2.081440e+02
2.100000e-07	-2.623632e-06	-3.128231e-09	-1.815312e+01	-2.074600e+02
2.200000e-07	-2.601666e-06	-3.193846e-09	-1.800113e+01	-2.066627e+02
2.300000e-07	-2.578814e-06	-3.164519e-09	-1.784302e+01	-2.057576e+02
2.400000e-07	-2.555012e-06	-3.138775e-09	-1.767834e+01	-2.047681e+02
2.500000e-07	-2.530456e-06	-3.117094e-09	-1.750843e+01	-2.037286e+02
2.600000e-07	-2.505111e-06	-3.071795e-09	-1.733307e+01	-2.026742e+02
2.700000e-07	-2.478636e-06	-3.058320e-09	-1.714988e+01	-2.016295e+02
2.800000e-07	-2.451014e-06	-3.079142e-09	-1.695876e+01	-2.006023e+02
2.900000e-07	-2.422492e-06	-3.036871e-09	-1.676142e+01	-1.995826e+02
3.000000e-07	-2.393121e-06	-3.004650e-09	-1.655820e+01	-1.985473e+02
3.100000e-07	-2.362952e-06	-3.018707e-09	-1.634946e+01	-1.974697e+02
3.200000e-07	-2.332026e-06	-3.002228e-09	-1.613547e+01	-1.963295e+02
3.300000e-07	-2.300382e-06	-2.992537e-09	-1.591653e+01	-1.951193e+02
3.400000e-07	-2.268119e-06	-2.931494e-09	-1.569330e+01	-1.938475e+02
3.500000e-07	-2.235261e-06	-2.898349e-09	-1.546595e+01	-1.925334e+02
3.600000e-07	-2.201546e-06	-2.920907e-09	-1.523267e+01	-1.911995e+02
3.700000e-07	-2.166641e-06	-2.909543e-09	-1.499116e+01	-1.898627e+02
3.800000e-07	-2.130714e-06	-2.863231e-09	-1.474258e+01	-1.885267e+02
3.900000e-07	-2.094127e-06	-2.858297e-09	-1.448944e+01	-1.871808e+02
4.000000e-07	-2.056948e-06	-2.851129e-09	-1.423219e+01	-1.858037e+02
4.100000e-07	-2.019036e-06	-2.813842e-09	-1.396987e+01	-1.843710e+02
4.200000e-07	-1.980397e-06	-2.778328e-09	-1.370253e+01	-1.828647e+02
4.300000e-07	-1.941047e-06	-2.742380e-09	-1.343026e+01	-1.812795e+02
4.400000e-07	-1.901027e-06	-2.734310e-09	-1.315336e+01	-1.796251e+02
4.500000e-07	-1.860572e-06	-2.724198e-09	-1.287345e+01	-1.779223e+02
4.600000e-07	-1.819657e-06	-2.699176e-09	-1.259036e+01	-1.761948e+02
4.700000e-07	-1.777989e-06	-2.654378e-09	-1.230205e+01	-1.744604e+02
4.800000e-07	-1.735278e-06	-2.620695e-09	-1.200653e+01	-1.727238e+02
4.900000e-07	-1.691563e-06	-2.597323e-09	-1.170406e+01	-1.709748e+02
5.000000e-07	-1.647249e-06	-2.572516e-09	-1.139745e+01	-1.691922e+02
5.100000e-07	-1.602598e-06	-2.541554e-09	-1.108851e+01	-1.673511e+02
5.200000e-07	-1.557524e-06	-2.509910e-09	-1.077663e+01	-1.654333e+02
5.300000e-07	-1.511874e-06	-2.492288e-09	-1.046078e+01	-1.634335e+02
5.400000e-07	-1.465649e-06	-2.462779e-09	-1.014094e+01	-1.613621e+02
5.500000e-07	-1.418920e-06	-2.417901e-09	-9.817619e+00	-1.592411e+02
5.600000e-07	-1.371673e-06	-2.368971e-09	-9.490717e+00	-1.570965e+02
5.700000e-07	-1.323928e-06	-2.343848e-09	-9.160364e+00	-1.549482e+02
5.800000e-07	-1.275794e-06	-2.321221e-09	-8.827325e+00	-1.528025e+02
5.900000e-07	-1.227291e-06	-2.289489e-09	-8.491727e+00	-1.506495e+02
6.000000e-07	-1.178381e-06	-2.251593e-09	-8.153314e+00	-1.484660e+02
6.100000e-07	-1.128855e-06	-2.211828e-09	-7.810636e+00	-1.462236e+02
6.200000e-07	-1.078542e-06	-2.178672e-09	-7.462518e+00	-1.438984e+02
6.300000e-07	-1.027630e-06	-2.141039e-09	-7.110258e+00	-1.414793e+02
6.400000e-07	-9.762537e-07	-2.098590e-09	-6.754778e+00	-1.389708e+02
6.500000e-07	-9.244091e-07	-2.050846e-09	-6.396061e+00	-1.363911e+02
6.600000e-07	-8.721764e-07	-2.016023e-09	-6.034659e+00	-1.337641e+02
6.700000e-07	-8.196600e-07	-1.984265e-09	-5.671294e+00	-1.311108e+02
6.800000e-07	-7.669136e-07	-1.942923e-09	-5.306337e+00	-1.284407e+02
6.900000e-07	-7.138782e-07	-1.895042e-09	-4.939381e+00	-1.257485e+02
7.000000e-07	-6.605104e-07	-1.851351e-09	-4.570124e+00	-1.230160e+02
7.100000e-07	-6.069038e-07	-1.813619e-09	-4.199216e+00	-1.202190e+02
7.200000e-07	-5.531078e-07	-1.769894e-09	-3.826997e+00	-1.173356e+02
7.300000e-07	-4.991203e-07	-1.720426e-09	-3.453453e+00	-1.143540e+02
7.400000e-07	-4.449708e-07	-1.668355e-09	-3.078789e+00	-1.112752e+02
7.500000e-07	-3.907043e-07	-1.623146e-09	-2.703315e+00	-1.081116e+02
7.600000e-07	-3.363488e-07	-1.575259e-09	-2.327225e+00	-1.048806e+02
7.700000e-07	-2.819247e-07	-1.522588e-09	-1.950660e+00	-1.015965e+02
7.800000e-07	-2.274290e-07	-1.468738e-09	-1.573600e+00	-9.826389e+01
7.900000e-07	-1.728515e-07	-1.417079e-09	-1.195973e+00	-9.487547e+01
8.000000e-07	-1.182381e-07	-1.365957e-09	-8.180988e-01	-9.141435e+01
8.100000e-07	-6.361756e-08	-1.310036e-09	-4.401750e-01	-8.786070e+01
8.200000e-07	-9.009343e-09	-1.254029e-09	-6.233637e-02	-8.419964e+01
8.300000e-07	4.562130e-08	-1.197526e-09	3.156575e-01	-8.042721e+01
8.400000e-07	1.002912e-07	-1.141383e-09	6.939227e-01	-7.655195e+01
8.500000e-07	1.549067e-07	-1.080601e-09	1.071812e+00	-7.259126e+01
8.600000e-07	2.094821e-07	-1.017000e-09	1.449423e+00	-6.856365e+01
8.700000e-07	2.640095e-07	-9.530212e-10	1.826703e+00	-6.447998e+01
8.800000e-07	3.184567e-07	-8.906480e-10	2.203428e+00	-6.033677e+01
8.900000e-07	3.728147e-07	-8.278527e-10	2.579535e+00	-5.611454e+01
9.000000e-07	4.270696e-07	-7.615111e-10	2.954929e+00	-5.178169e+01
9.100000e-07	4.811688e-07	-6.941797e-10	3.329246e+00	-4.730290e+01
9.200000e-07	5.350710e-07	-6.243678e-10	3.702199e+00	-4.264880e+01
9.300000e-07	5.888082e-07	-5.525282e-10	4.074011e+00	-3.780352e+01
9.400000e-07	6.422943e-07	-4.743009e-10	4.444086e+00	-3.276713e+01
9.500000e-07	6.955238e-07	-3.922345e-10	4.812386e+00	-2.755213e+01
9.600000e-07	7.484927e-07	-3.092264e-10	5.178881e+00	-2.217511e+01
9.700000e-07	8.011834e-07	-2.269104e-10	5.543452e+00	-1.664672e+01
9.800000e-07	8.536209e-07	-1.419481e-10	5.906272e+00	-1.096369e+01
9.900000e-07	9.057587e-07	-5.200705e-11	6.267018e+00	-5.105931e+00
1.000000e-06	9.574998e-07	4.156012e-11	6.625018e+00	9.599868e-01
1.010000e-06	1.008765e-06	1.398014e-10	6.979724e+00	7.271990e+00
1.020000e-06	1.059435e-06	2.404994e-10	7.330315e+00	1.386120e+01
1.030000e-06	1.109437e-06	3.457802e-10	7.676284e+00	2.074185e+01
1.040000e-06	1.158892e-06	4.555176e-10	8.018464e+00	2.790572e+01
1.050000e-06	1.207864e-06	5.686994e-10	8.357310e+00	3.532246e+01
1.060000e-06	1.256396e-06	6.836903e-10	8.693104e+00	4.294527e+01
1.070000e-06	1.304600e-06	8.007858e-10	9.026631e+00	5.071951e+01
1.080000e-06	1.352454e-06	9.188806e-10	9.357741e+00	5.859078e+01
1.090000e-06	1.399802e-06	1.036800e-09	9.685341e+00	6.650970e+01
1.100000e-06	1.446622e-06	1.155847e-09	1.000929e+01	7.443205e+01
1.110000e-06	1.492973e-06	1.275969e-09	1.033000e+01	8.231491e+01
1.120000e-06	1.538807e-06	1.396700e-09	1.064713e+01	9.011122e+01
1.130000e-06	1.584099e-06	1.514320e-09	1.096051e+01	9.776586e+01
1.140000e-06	1.628910e-06	1.626795e-09	1.127056e+01	1.052157e+02
1.150000e-06	1.673317e-06	1.732044e-09	1.157782e+01	1.123950e+02
1.160000e-06	1.717289e-06	1.832511e-09	1.188206e+01	1.192438e+02
1.170000e-06	1.760634e-06	1.930137e-09	1.218197e+01	1.257187e+02
1.180000e-06	1.803058e-06	2.023735e-09	1.247550e+01	1.317999e+02
1.190000e-06	1.844536e-06	2.112931e-09	1.276249e+01	1.374939e+02
1.200000e-06	1.885354e-06	2.195314e-09	1.304492e+01	1.428288e+02
1.210000e-06	1.925650e-06	2.271595e-09	1.332373e+01	1.478448e+02
1.220000e-06	1.965364e-06	2.342230e-09	1.359851e+01	1.525824e+02
1.230000e-06	2.004469e-06	2.408142e-09	1.386908e+01	1.570711e+02
1.240000e-06	2.042896e-06	2.467790e-09	1.413496e+01	1.613240e+02
1.250000e-06	2.080559e-06	2.523505e-09	1.439555e+01	1.653380e+02
1.260000e-06	2.117549e-06	2.577688e-09	1.465150e+01	1.691002e+02
1.270000e-06	2.153970e-06	2.630737e-09	1.490349e+01	1.725980e+02
1.280000e-06	2.189745e-06	2.680204e-09	1.515102e+01	1.758280e+02
1.290000e-06	2.224617e-06	2.724036e-09	1.539231e+01	1.788022e+02
1.300000e-06	2.258392e-06	2.762750e-09	1.562600e+01	1.815476e+02
1.310000e-06	2.291280e-06	2.796779e-09	1.585355e+01	1.841007e+02
1.320000e-06	2.323483e-06	2.827804e-09	1.607636e+01	1.864989e+02
1.330000e-06	2.354960e-06	2.857435e-09	1.629416e+01	1.887711e+02
1.340000e-06	2.385617e-06	2.888209e-09	1.650628e+01	1.909322e+02
1.350000e-06	2.415393e-06	2.919261e-09	1.671230e+01	1.929824e+02
1.360000e-06	2.444432e-06	2.950024e-09	1.691322e+01	1.949121e+02
1.370000e-06	2.472830e-06	2.979385e-09	1.710971e+01	1.967097e+02
1.380000e-06	2.500407e-06	3.005269e-09	1.730052e+01	1.983697e+02
1.390000e-06	2.526880e-06	3.025575e-09	1.748369e+01	1.998979e+02
1.400000e-06	2.552208e-06	3.042221e-09	1.765893e+01	2.013121e+02
1.410000e-06	2.576537e-06	3.060205e-09	1.782726e+01	2.026372e+02
1.420000e-06	2.599968e-06	3.079977e-09	1.798939e+01	2.038981e+02
1.430000e-06	2.622543e-06	3.099215e-09	1.814559e+01	2.051118e+02
1.440000e-06	2.644274e-06	3.117407e-09	1.829595e+01	2.062824e+02
1.450000e-06	2.665201e-06	3.136252e-09	1.844074e+01	2.074008e+02
1.460000e-06	2.685351e-06	3.155023e-09	1.858016e+01	2.084496e+02
1.470000e-06	2.704601e-06	3.170114e-09	1.871335e+01	2.094105e+02
1.480000e-06	2.722769e-06	3.180975e-09	1.883906e+01	2.102723e+02
1.490000e-06	2.739898e-06	3.190344e-09	1.895757e+01	2.110368e+02
1.500000e-06	2.756105e-06	3.200903e-09	1.906971e+01	2.117186e+02
1.510000e-06	2.771268e-06	3.212700e-09	1.917463e+01	2.123420e+02
1.520000e-06	2.785376e-06	3.223488e-09	1.927224e+01	2.129324e+02
1.530000e-06	2.798510e-06	3.232457e-09	1.936312e+01	2.135090e+02
1.540000e-06	2.810521e-06	3.241431e-09	1.944622e+01	2.140782e+02
1.550000e-06	2.821283e-06	3.250998e-09	1.952069e+01	2.146324e+02
1.560000e-06	2.830822e-06	3.260884e-09	1.958669e+01	2.151532e+02
1.570000e-06	2.839308e-06	3.269240e-09	1.964540e+01	2.156181e+02
1.580000e-06	2.846922e-06	3.276467e-09	1.969808e+01	2.160085e+02
1.590000e-06	2.853572e-06	3.282326e-09	1.974409e+01	2.163156e+02
1.600000e-06	2.859217e-06	3.285930e-09	1.978315e+01	2.165432e+02
1.610000e-06	2.864000e-06	3.287902e-09	1.981625e+01	2.167051e+02
1.620000e-06	2.867949e-06	3.289973e-09	1.984357e+01	2.168200e+02
1.630000e-06	2.870791e-06	3.293296e-09	1.986324e+01	2.169046e+02
1.640000e-06	2.872396e-06	3.297494e-09	1.987434e+01	2.169682e+02
1.650000e-06	2.872997e-06	3.301413e-09	1.987850e+01	2.170104e+02
1.660000e-06	2.872725e-06	3.301886e-09	1.987662e+01	2.170226e+02
1.670000e-06	2.871532e-06	3.299414e-09	1.986836e+01	2.169921e+02
1.680000e-06	2.869373e-06	3.295361e-09	1.985342e+01	2.169078e+02
1.690000e-06	2.866344e-06	3.292076e-09	1.983247e+01	2.167638e+02
1.700000e-06	2.862515e-06	3.289797e-09	1.980597e+01	2.165615e+02
1.710000e-06	2.857690e-06	3.288477e-09	1.977259e+01	2.163076e+02
1.720000e-06	2.851708e-06	3.286228e-09	1.973120e+01	2.160104e+02
1.730000e-06	2.844734e-06	3.257665e-09	1.968294e+01	2.156760e+02
1.740000e-06	2.836849e-06	3.245681e-09	1.962839e+01	2.153062e+02
1.750000e-06	2.827686e-06	3.256828e-09	1.956499e+01	2.148984e+02
1.760000e-06	2.817006e-06	3.287455e-09	1.949109e+01	2.144488e+02
1.770000e-06	2.805338e-06	3.262549e-09	1.941036e+01	2.139572e+02
1.780000e-06	2.793361e-06	3.236654e-09	1.932749e+01	2.134301e+02
1.790000e-06	2.780747e-06	3.287928e-09	1.924021e+01	2.128818e+02
1.800000e-06	2.766639e-06	3.213342e-09	1.914260e+01	2.123313e+02
1.810000e-06	2.751211e-06	3.138363e-09	1.903585e+01	2.117971e+02
1.820000e-06	2.735098e-06	3.209766e-09	1.892436e+01	2.112892e+02
1.830000e-06	2.718069e-06	3.261381e-09	1.880654e+01	2.108039e+02
1.840000e-06	2.699806e-06	3.160825e-09	1.868018e+01	2.103216e+02
1.850000e-06	2.680670e-06	3.138097e-09	1.854777e+01	2.098106e+02
1.860000e-06	2.660808e-06	3.233801e-09	1.841034e+01	2.092344e+02
1.870000e-06	2.639816e-06	3.152050e-09	1.826510e+01	2.085619e+02
1.880000e-06	2.617638e-06	3.085344e-09	1.811165e+01	2.077769e+02
1.890000e-06	2.594492e-06	3.152240e-09	1.795150e+01	2.068825e+02
1.900000e-06	2.570406e-06	3.113005e-09	1.778485e+01	2.059004e+02
1.910000e-06	2.545518e-06	3.107526e-09	1.761264e+01	2.048646e+02
1.920000e-06	2.519866e-06	3.136434e-09	1.743516e+01	2.038103e+02
1.930000e-06	2.493342e-06	3.057606e-09	1.725164e+01	2.027638e+02
1.940000e-06	2.466059e-06	3.050139e-09	1.706286e+01	2.017349e+02
1.950000e-06	2.438026e-06	3.080557e-09	1.686890e+01	2.007152e+02
1.960000e-06	2.408885e-06	3.028405e-09	1.666727e+01	1.996829e+02
1.970000e-06	2.378558e-06	2.994084e-09	1.645744e+01	1.986110e+02
1.980000e-06	2.347365e-06	2.991555e-09	1.624161e+01	1.974781e+02
1.990000e-06	2.315477e-06	2.979352e-09	1.602097e+01	1.962753e+02
2.000000e-06	2.282854e-06	3.006297e-09	1.579525e+01	1.950092e+02
2.010000e-06	2.249405e-06	2.962893e-09	1.556382e+01	1.936985e+02
2.020000e-06	2.215134e-06	2.897924e-09	1.532669e+01	1.923658e+02
2.030000e-06	2.180202e-06	2.922116e-09	1.508499e+01	1.910288e+02
2.040000e-06	2.144674e-06	2.891868e-09	1.483917e+01	1.896929e+02
2.050000e-06	2.108429e-06	2.838884e-09	1.458839e+01	1.883490e+02
2.060000e-06	2.071309e-06	2.841811e-09	1.433155e+01	1.869764e+02
2.070000e-06	2.033159e-06	2.832079e-09	1.406759e+01	1.855507e+02
2.080000e-06	1.994133e-06	2.824703e-09	1.379757e+01	1.840527e+02
2.090000e-06	1.954510e-06	2.802282e-09	1.352341e+01	1.824757e+02
2.100000e-06	1.914330e-06	2.745508e-09	1.324540e+01	1.808279e+02
2.110000e-06	1.873535e-06	2.718296e-09	1.296314e+01	1.791291e+02
2.120000e-06	1.832119e-06	2.696757e-09	1.267658e+01	1.774032e+02
2.130000e-06	1.790100e-06	2.680406e-09	1.238585e+01	1.756690e+02
2.140000e-06	1.747483e-06	2.669368e-09	1.209098e+01	1.739328e+02
2.150000e-06	1.704348e-06	2.628579e-09	1.179252e+01	1.721860e+02
2.160000e-06	1.660729e-06	2.603491e-09	1.149071e+01	1.704081e+02
2.170000e-06	1.616534e-06	2.577148e-09	1.118493e+01	1.685744e+02
2.180000e-06	1.571688e-06	2.542904e-09	1.087464e+01	1.666653e+02
2.190000e-06	1.526198e-06	2.511517e-09	1.055989e+01	1.646740e+02
2.200000e-06	1.480249e-06	2.481619e-09	1.024196e+01	1.626093e+02
2.210000e-06	1.433914e-06	2.464746e-09	9.921366e+00	1.604923e+02
2.220000e-06	1.387168e-06	2.435470e-09	9.597928e+00	1.583491e+02
2.230000e-06	1.339889e-06	2.389481e-09	9.270799e+00	1.562006e+02
2.240000e-06	1.291918e-06	2.350307e-09	8.938887e+00	1.540548e+02
2.250000e-06	1.243342e-06	2.318432e-09	8.602783e+00	1.519035e+02
2.260000e-06	1.194316e-06	2.293716e-09	8.263570e+00	1.497246e+02
2.270000e-06	1.144959e-06	2.268632e-09	7.922064e+00	1.474898e+02
2.280000e-06	1.095238e-06	2.227270e-09	7.578040e+00	1.451742e+02
2.290000e-06	1.045031e-06	2.192289e-09	7.230654e+00	1.427652e+02
2.300000e-06	9.943327e-07	2.157428e-09	6.879868e+00	1.402656e+02
2.310000e-06	9.432779e-07	2.116238e-09	6.526616e+00	1.376924e+02
2.320000e-06	8.919912e-07	2.071661e-09	6.171759e+00	1.350693e+02
2.330000e-06	8.404915e-07	2.028411e-09	5.815428e+00	1.324181e+02
2.340000e-06	7.886399e-07	1.999203e-09	5.456663e+00	1.297498e+02
2.350000e-06	7.363395e-07	1.963169e-09	5.094792e+00	1.270605e+02
2.360000e-06	6.836302e-07	1.918509e-09	4.730092e+00	1.243335e+02
2.370000e-06	6.305526e-07	1.871061e-09	4.362844e+00	1.215445e+02
2.380000e-06	5.771033e-07	1.825011e-09	3.993024e+00	1.186712e+02
2.390000e-06	5.233256e-07	1.784244e-09	3.620932e+00	1.157002e+02
2.400000e-06	4.692283e-07	1.739816e-09	3.246629e+00	1.126313e+02
2.410000e-06	4.148037e-07	1.691079e-09	2.870060e+00	1.094760e+02
2.420000e-06	3.601923e-07	1.644302e-09	2.492199e+00	1.062514e+02
2.430000e-06	3.054297e-07	1.596535e-09	2.113293e+00	1.029725e+02
2.440000e-06	2.505143e-07	1.545218e-09	1.733329e+00	9.964525e+01
2.450000e-06	1.955352e-07	1.491382e-09	1.352924e+00	9.626347e+01
2.460000e-06	1.405242e-07	1.436157e-09	9.722982e-01	9.281107e+01
2.470000e-06	8.548313e-08	1.383842e-09	5.914647e-01	8.926817e+01
2.480000e-06	3.041330e-08	1.329314e-09	2.104321e-01	8.561901e+01
2.490000e-06	-2.466445e-08	1.271229e-09	-1.706553e-01	8.185828e+01
2.500000e-06	-7.977665e-08	1.211102e-09	-5.519811e-01	7.799329e+01
2.510000e-06	-1.348674e-07	1.149853e-09	-9.331587e-01	7.404078e+01
2.520000e-06	-1.899003e-07	1.089029e-09	-1.313936e+00	7.001960e+01
2.530000e-06	-2.448601e-07	1.027148e-09	-1.694207e+00	6.594178e+01
2.540000e-06	-2.997470e-07	9.647516e-10	-2.073973e+00	6.180559e+01
2.550000e-06	-3.545146e-07	9.010403e-10	-2.452915e+00	5.759315e+01
2.560000e-06	-4.091394e-07	8.365400e-10	-2.830868e+00	5.327384e+01
2.570000e-06	-4.636194e-07	7.683437e-10	-3.207820e+00	4.881224e+01
2.580000e-06	-5.177909e-07	6.952351e-10	-3.582637e+00	4.417794e+01
2.590000e-06	-5.715974e-07	6.196208e-10	-3.954928e+00	3.935338e+01
2.600000e-06	-6.250292e-07	5.433723e-10	-4.324627e+00	3.433701e+01
2.610000e-06	-6.780647e-07	4.662627e-10	-4.691584e+00	2.914031e+01
2.620000e-06	-7.307063e-07	3.863360e-10	-5.055816e+00	2.377993e+01
2.630000e-06	-7.829228e-07	3.018030e-10	-5.417106e+00	1.826760e+01
2.640000e-06	-8.347591e-07	2.136344e-10	-5.775766e+00	1.260178e+01
2.650000e-06	-8.863443e-07	1.256814e-10	-6.132688e+00	6.764141e+00
2.660000e-06	-9.376710e-07	3.454701e-11	-6.487821e+00	7.223257e-01
2.670000e-06	-9.886082e-07	-6.143125e-11	-6.840260e+00	-5.561635e+00
2.680000e-06	-1.039140e-06	-1.628470e-10	-7.189897e+00	-1.212012e+01
2.690000e-06	-1.089265e-06	-2.659699e-10	-7.536712e+00	-1.896955e+01
2.700000e-06	-1.138996e-06	-3.715867e-10	-7.880802e+00	-2.610420e+01
2.710000e-06	-1.188381e-06	-4.846910e-10	-8.222505e+00	-3.349589e+01
2.720000e-06	-1.237366e-06	-6.035409e-10	-8.561438e+00	-4.109919e+01
2.730000e-06	-1.285771e-06	-7.247559e-10	-8.896355e+00	-4.885990e+01
2.740000e-06	-1.333388e-06	-8.451929e-10	-9.225821e+00	-5.672326e+01
2.750000e-06	-1.380224e-06	-9.669284e-10	-9.549878e+00	-6.463929e+01
2.760000e-06	-1.426469e-06	-1.088716e-09	-9.869854e+00	-7.256333e+01
2.770000e-06	-1.472352e-06	-1.209320e-09	-1.018732e+01	-8.045258e+01
2.780000e-06	-1.517886e-06	-1.328554e-09	-1.050237e+01	-8.826067e+01
2.790000e-06	-1.562931e-06	-1.446874e-09	-1.081405e+01	-9.593342e+01
2.800000e-06	-1.607449e-06	-1.563774e-09	-1.112207e+01	-1.034084e+02
2.810000e-06	-1.651435e-06	-1.676392e-09	-1.142641e+01	-1.106197e+02
2.820000e-06	-1.694953e-06	-1.782170e-09	-1.172752e+01	-1.175064e+02
2.830000e-06	-1.738032e-06	-1.881125e-09	-1.202558e+01	-1.240228e+02
2.840000e-06	-1.780574e-06	-1.975774e-09	-1.231994e+01	-1.301464e+02
2.850000e-06	-1.822559e-06	-2.064405e-09	-1.261043e+01	-1.358809e+02
2.860000e-06	-1.863980e-06	-2.145922e-09	-1.289703e+01	-1.412524e+02
2.870000e-06	-1.904728e-06	-2.221723e-09	-1.317896e+01	-1.463006e+02
2.880000e-06	-1.944780e-06	-2.295433e-09	-1.345609e+01	-1.510664e+02
2.890000e-06	-1.984283e-06	-2.367950e-09	-1.372941e+01	-1.555808e+02
2.900000e-06	-2.023205e-06	-2.436729e-09	-1.399872e+01	-1.598589e+02
2.910000e-06	-2.061353e-06	-2.500897e-09	-1.426267e+01	-1.638990e+02
2.920000e-06	-2.098539e-06	-2.561510e-09	-1.451996e+01	-1.676890e+02
2.930000e-06	-2.134748e-06	-2.618917e-09	-1.477049e+01	-1.712155e+02
2.940000e-06	-2.170186e-06	-2.672241e-09	-1.501569e+01	-1.744740e+02
