# Temperatura_=_19.84
# Concentracion g/m^3_=_13400.0
# C_Vs_to_Am_M_A/Vsm_=_65563218390.804596
# pendiente_HvsI_1/m_=_3716.3
# ordenada_HvsI_A/m_=_1297.0
# frecuencia_Hz_=_300997.9647669703

Tiempo_(s)	Campo_(V.s)	Magnetizacion_(V.s)	Campo_(kA/m)	Magnetizacion_(A/m)
0.000000e+00	-2.855759e-06	-3.218193e-09	-1.978082e+01	-2.100331e+02
1.000000e-08	-2.854821e-06	-3.218811e-09	-1.977432e+01	-2.098989e+02
2.000000e-08	-2.852946e-06	-3.218713e-09	-1.976133e+01	-2.097364e+02
3.000000e-08	-2.849811e-06	-3.215486e-09	-1.973962e+01	-2.095733e+02
4.000000e-08	-2.845574e-06	-3.209711e-09	-1.971026e+01	-2.094223e+02
5.000000e-08	-2.840546e-06	-3.204500e-09	-1.967544e+01	-2.092757e+02
6.000000e-08	-2.834695e-06	-3.205227e-09	-1.963491e+01	-2.091074e+02
7.000000e-08	-2.827904e-06	-3.209877e-09	-1.958787e+01	-2.088829e+02
8.000000e-08	-2.820103e-06	-3.219820e-09	-1.953384e+01	-2.085731e+02
9.000000e-08	-2.811101e-06	-3.210803e-09	-1.947149e+01	-2.081661e+02
1.000000e-07	-2.800635e-06	-3.185582e-09	-1.939899e+01	-2.076739e+02
1.100000e-07	-2.788890e-06	-3.154973e-09	-1.931763e+01	-2.071299e+02
1.200000e-07	-2.776361e-06	-3.154872e-09	-1.923085e+01	-2.065785e+02
1.300000e-07	-2.763049e-06	-3.169345e-09	-1.913864e+01	-2.060607e+02
1.400000e-07	-2.748699e-06	-3.140477e-09	-1.903925e+01	-2.055994e+02
1.500000e-07	-2.733316e-06	-3.161278e-09	-1.893269e+01	-2.051912e+02
1.600000e-07	-2.716751e-06	-3.173036e-09	-1.881795e+01	-2.048069e+02
1.700000e-07	-2.698943e-06	-3.126808e-09	-1.869461e+01	-2.044004e+02
1.800000e-07	-2.680287e-06	-3.101004e-09	-1.856538e+01	-2.039234e+02
1.900000e-07	-2.660911e-06	-3.119338e-09	-1.843117e+01	-2.033401e+02
2.000000e-07	-2.640632e-06	-3.098284e-09	-1.829071e+01	-2.026375e+02
2.100000e-07	-2.619485e-06	-3.045399e-09	-1.814423e+01	-2.018279e+02
2.200000e-07	-2.597548e-06	-3.081921e-09	-1.799228e+01	-2.009427e+02
2.300000e-07	-2.574719e-06	-3.108201e-09	-1.783415e+01	-2.000199e+02
2.400000e-07	-2.550945e-06	-3.048150e-09	-1.766947e+01	-1.990909e+02
2.500000e-07	-2.526390e-06	-3.012060e-09	-1.749939e+01	-1.981704e+02
2.600000e-07	-2.501020e-06	-3.011221e-09	-1.732367e+01	-1.972529e+02
2.700000e-07	-2.474527e-06	-2.997644e-09	-1.714016e+01	-1.963170e+02
2.800000e-07	-2.446876e-06	-3.000341e-09	-1.694863e+01	-1.953351e+02
2.900000e-07	-2.418299e-06	-2.968162e-09	-1.675068e+01	-1.942850e+02
3.000000e-07	-2.388947e-06	-2.934282e-09	-1.654737e+01	-1.931581e+02
3.100000e-07	-2.358902e-06	-2.939744e-09	-1.633927e+01	-1.919629e+02
3.200000e-07	-2.328102e-06	-2.939012e-09	-1.612593e+01	-1.907207e+02
3.300000e-07	-2.296482e-06	-2.894160e-09	-1.590690e+01	-1.894571e+02
3.400000e-07	-2.264166e-06	-2.853756e-09	-1.568306e+01	-1.881918e+02
3.500000e-07	-2.231287e-06	-2.848939e-09	-1.545532e+01	-1.869308e+02
3.600000e-07	-2.197559e-06	-2.846575e-09	-1.522170e+01	-1.856642e+02
3.700000e-07	-2.162657e-06	-2.829741e-09	-1.497995e+01	-1.843697e+02
3.800000e-07	-2.126748e-06	-2.790358e-09	-1.473121e+01	-1.830215e+02
3.900000e-07	-2.090181e-06	-2.773385e-09	-1.447793e+01	-1.815998e+02
4.000000e-07	-2.053018e-06	-2.763686e-09	-1.422051e+01	-1.800984e+02
4.100000e-07	-2.015097e-06	-2.736829e-09	-1.395785e+01	-1.785271e+02
4.200000e-07	-1.976450e-06	-2.693352e-09	-1.369016e+01	-1.769083e+02
4.300000e-07	-1.937096e-06	-2.665920e-09	-1.341756e+01	-1.752686e+02
4.400000e-07	-1.897121e-06	-2.657344e-09	-1.314067e+01	-1.736295e+02
4.500000e-07	-1.856712e-06	-2.639768e-09	-1.286077e+01	-1.719992e+02
4.600000e-07	-1.815877e-06	-2.602211e-09	-1.257792e+01	-1.703702e+02
4.700000e-07	-1.774292e-06	-2.563753e-09	-1.228988e+01	-1.687218e+02
4.800000e-07	-1.731649e-06	-2.543342e-09	-1.199451e+01	-1.670279e+02
4.900000e-07	-1.688065e-06	-2.523863e-09	-1.169262e+01	-1.652657e+02
5.000000e-07	-1.643826e-06	-2.497416e-09	-1.138619e+01	-1.634242e+02
5.100000e-07	-1.599127e-06	-2.456445e-09	-1.107657e+01	-1.615070e+02
5.200000e-07	-1.554023e-06	-2.426188e-09	-1.076415e+01	-1.595304e+02
5.300000e-07	-1.508372e-06	-2.403208e-09	-1.044795e+01	-1.575173e+02
5.400000e-07	-1.462136e-06	-2.368719e-09	-1.012769e+01	-1.554882e+02
5.500000e-07	-1.415374e-06	-2.325065e-09	-9.803786e+00	-1.534536e+02
5.600000e-07	-1.368086e-06	-2.292387e-09	-9.476241e+00	-1.514111e+02
5.700000e-07	-1.320335e-06	-2.272538e-09	-9.145485e+00	-1.493460e+02
5.800000e-07	-1.272146e-06	-2.244659e-09	-8.811697e+00	-1.472375e+02
5.900000e-07	-1.223593e-06	-2.208319e-09	-8.475390e+00	-1.450661e+02
6.000000e-07	-1.174703e-06	-2.165649e-09	-8.136747e+00	-1.428211e+02
6.100000e-07	-1.125259e-06	-2.128992e-09	-7.794264e+00	-1.405035e+02
6.200000e-07	-1.075061e-06	-2.096726e-09	-7.446561e+00	-1.381251e+02
6.300000e-07	-1.024227e-06	-2.060701e-09	-7.094452e+00	-1.357030e+02
6.400000e-07	-9.729128e-07	-2.017077e-09	-6.739017e+00	-1.332522e+02
6.500000e-07	-9.211237e-07	-1.976957e-09	-6.380292e+00	-1.307794e+02
6.600000e-07	-8.689490e-07	-1.947238e-09	-6.018896e+00	-1.282793e+02
6.700000e-07	-8.164773e-07	-1.911714e-09	-5.655444e+00	-1.257368e+02
6.800000e-07	-7.637398e-07	-1.866179e-09	-5.290151e+00	-1.231322e+02
6.900000e-07	-7.107453e-07	-1.819884e-09	-4.923076e+00	-1.204484e+02
7.000000e-07	-6.574766e-07	-1.782793e-09	-4.554103e+00	-1.176776e+02
7.100000e-07	-6.039454e-07	-1.744761e-09	-4.183312e+00	-1.148243e+02
7.200000e-07	-5.502052e-07	-1.697366e-09	-3.811073e+00	-1.119028e+02
7.300000e-07	-4.962722e-07	-1.644515e-09	-3.437499e+00	-1.089315e+02
7.400000e-07	-4.421684e-07	-1.597555e-09	-3.062741e+00	-1.059247e+02
7.500000e-07	-3.879394e-07	-1.554861e-09	-2.687116e+00	-1.028856e+02
7.600000e-07	-3.336233e-07	-1.506474e-09	-2.310889e+00	-9.980321e+01
7.700000e-07	-2.792023e-07	-1.454267e-09	-1.933934e+00	-9.665497e+01
7.800000e-07	-2.246900e-07	-1.403151e-09	-1.556347e+00	-9.341350e+01
7.900000e-07	-1.701567e-07	-1.356651e-09	-1.178614e+00	-9.005602e+01
8.000000e-07	-1.156058e-07	-1.305402e-09	-8.007597e-01	-8.657256e+01
8.100000e-07	-6.103299e-08	-1.247390e-09	-4.227535e-01	-8.296996e+01
8.200000e-07	-6.460553e-09	-1.187720e-09	-4.474992e-02	-7.926992e+01
8.300000e-07	4.807918e-08	-1.131537e-09	3.330271e-01	-7.550155e+01
8.400000e-07	1.026188e-07	-1.075723e-09	7.108034e-01	-7.169088e+01
8.500000e-07	1.572057e-07	-1.017404e-09	1.088908e+00	-6.785103e+01
8.600000e-07	2.117627e-07	-9.565419e-10	1.466804e+00	-6.397647e+01
8.700000e-07	2.662330e-07	-8.951867e-10	1.844100e+00	-6.004373e+01
8.800000e-07	3.206606e-07	-8.371252e-10	2.221100e+00	-5.601814e+01
8.900000e-07	3.749894e-07	-7.759887e-10	2.597416e+00	-5.186448e+01
9.000000e-07	4.291296e-07	-7.099855e-10	2.972426e+00	-4.755759e+01
9.100000e-07	4.831294e-07	-6.414212e-10	3.346464e+00	-4.308923e+01
9.200000e-07	5.370227e-07	-5.717638e-10	3.719763e+00	-3.846850e+01
9.300000e-07	5.907335e-07	-4.984987e-10	4.091798e+00	-3.371589e+01
9.400000e-07	6.441979e-07	-4.222625e-10	4.462127e+00	-2.885290e+01
9.500000e-07	6.973402e-07	-3.462209e-10	4.830224e+00	-2.389121e+01
9.600000e-07	7.501494e-07	-2.703523e-10	5.196014e+00	-1.882537e+01
9.700000e-07	8.027087e-07	-1.945074e-10	5.560074e+00	-1.363176e+01
9.800000e-07	8.550273e-07	-1.139594e-10	5.922466e+00	-8.274207e+00
9.900000e-07	9.070550e-07	-2.690595e-11	6.282843e+00	-2.714310e+00
1.000000e-06	9.588009e-07	6.445330e-11	6.641269e+00	3.077351e+00
1.010000e-06	1.010157e-06	1.575294e-10	6.996991e+00	9.113123e+00
1.020000e-06	1.060904e-06	2.530766e-10	7.348499e+00	1.538613e+01
1.030000e-06	1.110917e-06	3.520589e-10	7.694919e+00	2.187453e+01
1.040000e-06	1.160203e-06	4.543005e-10	8.036307e+00	2.855013e+01
1.050000e-06	1.208983e-06	5.580682e-10	8.374190e+00	3.538768e+01
1.060000e-06	1.257452e-06	6.636399e-10	8.709914e+00	4.237078e+01
1.070000e-06	1.305673e-06	7.726578e-10	9.043927e+00	4.949164e+01
1.080000e-06	1.353544e-06	8.826855e-10	9.375511e+00	5.674469e+01
1.090000e-06	1.400908e-06	9.935444e-10	9.703584e+00	6.411618e+01
1.100000e-06	1.447754e-06	1.105997e-09	1.002807e+01	7.157407e+01
1.110000e-06	1.494075e-06	1.221677e-09	1.034892e+01	7.906269e+01
1.120000e-06	1.539867e-06	1.337254e-09	1.066610e+01	8.650483e+01
1.130000e-06	1.585095e-06	1.448404e-09	1.097938e+01	9.381168e+01
1.140000e-06	1.629805e-06	1.554281e-09	1.128907e+01	1.008978e+02
1.150000e-06	1.674160e-06	1.654695e-09	1.159630e+01	1.076966e+02
1.160000e-06	1.718110e-06	1.750743e-09	1.190073e+01	1.141708e+02
1.170000e-06	1.761377e-06	1.843353e-09	1.220043e+01	1.203150e+02
1.180000e-06	1.803729e-06	1.933100e-09	1.249378e+01	1.261491e+02
1.190000e-06	1.845120e-06	2.018935e-09	1.278048e+01	1.317054e+02
1.200000e-06	1.885786e-06	2.100492e-09	1.306216e+01	1.370134e+02
1.210000e-06	1.925959e-06	2.177476e-09	1.334042e+01	1.420878e+02
1.220000e-06	1.965596e-06	2.249878e-09	1.361497e+01	1.469246e+02
1.230000e-06	2.004600e-06	2.317285e-09	1.388514e+01	1.515044e+02
1.240000e-06	2.042933e-06	2.379464e-09	1.415066e+01	1.558028e+02
1.250000e-06	2.080534e-06	2.437870e-09	1.441111e+01	1.598028e+02
1.260000e-06	2.117432e-06	2.492645e-09	1.466669e+01	1.635042e+02
1.270000e-06	2.153803e-06	2.543582e-09	1.491862e+01	1.669269e+02
1.280000e-06	2.189529e-06	2.591307e-09	1.516608e+01	1.701062e+02
1.290000e-06	2.224274e-06	2.635192e-09	1.540675e+01	1.730829e+02
1.300000e-06	2.257932e-06	2.673967e-09	1.563988e+01	1.758908e+02
1.310000e-06	2.290688e-06	2.708904e-09	1.586677e+01	1.785488e+02
1.320000e-06	2.322779e-06	2.742277e-09	1.608905e+01	1.810575e+02
1.330000e-06	2.354140e-06	2.776145e-09	1.630628e+01	1.834049e+02
1.340000e-06	2.384701e-06	2.809316e-09	1.651796e+01	1.855759e+02
1.350000e-06	2.414499e-06	2.839839e-09	1.672437e+01	1.875638e+02
1.360000e-06	2.443505e-06	2.866376e-09	1.692528e+01	1.893781e+02
1.370000e-06	2.471793e-06	2.889036e-09	1.712122e+01	1.910452e+02
1.380000e-06	2.499310e-06	2.909880e-09	1.731182e+01	1.926026e+02
1.390000e-06	2.525685e-06	2.928915e-09	1.749451e+01	1.940878e+02
1.400000e-06	2.550809e-06	2.947904e-09	1.766853e+01	1.955265e+02
1.410000e-06	2.574966e-06	2.968098e-09	1.783586e+01	1.969254e+02
1.420000e-06	2.598281e-06	2.988588e-09	1.799735e+01	1.982712e+02
1.430000e-06	2.620760e-06	3.008492e-09	1.815306e+01	1.995379e+02
1.440000e-06	2.642411e-06	3.026742e-09	1.830303e+01	2.006986e+02
1.450000e-06	2.663242e-06	3.043477e-09	1.844732e+01	2.017375e+02
1.460000e-06	2.683361e-06	3.057665e-09	1.858668e+01	2.026579e+02
1.470000e-06	2.702615e-06	3.068604e-09	1.872004e+01	2.034824e+02
1.480000e-06	2.720786e-06	3.078256e-09	1.884591e+01	2.042464e+02
1.490000e-06	2.738006e-06	3.088212e-09	1.896518e+01	2.049852e+02
1.500000e-06	2.754214e-06	3.100127e-09	1.907745e+01	2.057222e+02
1.510000e-06	2.769254e-06	3.114046e-09	1.918162e+01	2.064606e+02
1.520000e-06	2.783238e-06	3.127095e-09	1.927849e+01	2.071831e+02
1.530000e-06	2.796220e-06	3.137522e-09	1.936841e+01	2.078590e+02
1.540000e-06	2.808167e-06	3.147240e-09	1.945116e+01	2.084561e+02
1.550000e-06	2.818902e-06	3.155429e-09	1.952552e+01	2.089536e+02
1.560000e-06	2.828332e-06	3.160515e-09	1.959084e+01	2.093496e+02
1.570000e-06	2.836755e-06	3.164334e-09	1.964918e+01	2.096620e+02
1.580000e-06	2.844316e-06	3.168568e-09	1.970155e+01	2.099211e+02
1.590000e-06	2.850946e-06	3.174288e-09	1.974747e+01	2.101585e+02
1.600000e-06	2.856618e-06	3.181084e-09	1.978676e+01	2.103943e+02
1.610000e-06	2.861371e-06	3.186215e-09	1.981969e+01	2.106304e+02
1.620000e-06	2.865223e-06	3.189865e-09	1.984637e+01	2.108502e+02
1.630000e-06	2.867938e-06	3.194636e-09	1.986518e+01	2.110258e+02
1.640000e-06	2.869400e-06	3.199562e-09	1.987530e+01	2.111298e+02
1.650000e-06	2.869862e-06	3.201692e-09	1.987850e+01	2.111467e+02
1.660000e-06	2.869463e-06	3.199339e-09	1.987573e+01	2.110796e+02
1.670000e-06	2.868172e-06	3.193935e-09	1.986679e+01	2.109499e+02
1.680000e-06	2.865989e-06	3.189992e-09	1.985167e+01	2.107884e+02
1.690000e-06	2.862952e-06	3.189828e-09	1.983064e+01	2.106240e+02
1.700000e-06	2.859157e-06	3.191801e-09	1.980435e+01	2.104712e+02
1.710000e-06	2.854421e-06	3.192482e-09	1.977154e+01	2.103246e+02
1.720000e-06	2.848463e-06	3.188513e-09	1.973028e+01	2.101597e+02
1.730000e-06	2.841437e-06	3.178343e-09	1.968161e+01	2.099424e+02
1.740000e-06	2.833500e-06	3.160909e-09	1.962663e+01	2.096422e+02
1.750000e-06	2.824318e-06	3.150025e-09	1.956303e+01	2.092450e+02
1.760000e-06	2.813577e-06	3.173630e-09	1.948864e+01	2.087601e+02
1.770000e-06	2.801831e-06	3.174993e-09	1.940728e+01	2.082190e+02
1.780000e-06	2.789831e-06	3.167882e-09	1.932416e+01	2.076658e+02
1.790000e-06	2.777193e-06	3.145631e-09	1.923662e+01	2.071424e+02
1.800000e-06	2.763051e-06	3.128348e-09	1.913866e+01	2.066742e+02
1.810000e-06	2.747576e-06	3.103707e-09	1.903147e+01	2.062608e+02
1.820000e-06	2.731454e-06	3.105163e-09	1.891980e+01	2.058755e+02
1.830000e-06	2.714395e-06	3.158364e-09	1.880164e+01	2.054733e+02
1.840000e-06	2.696024e-06	3.134682e-09	1.867439e+01	2.050054e+02
1.850000e-06	2.676815e-06	3.090645e-09	1.854133e+01	2.044340e+02
1.860000e-06	2.656908e-06	3.123508e-09	1.840344e+01	2.037435e+02
1.870000e-06	2.635841e-06	3.120797e-09	1.825752e+01	2.029437e+02
1.880000e-06	2.613631e-06	3.051144e-09	1.810368e+01	2.020642e+02
1.890000e-06	2.590530e-06	3.040752e-09	1.794367e+01	2.011432e+02
1.900000e-06	2.566460e-06	3.067227e-09	1.777695e+01	2.002133e+02
1.910000e-06	2.541539e-06	3.058330e-09	1.760432e+01	1.992913e+02
1.920000e-06	2.515842e-06	3.023149e-09	1.742633e+01	1.983738e+02
1.930000e-06	2.489271e-06	3.003418e-09	1.724228e+01	1.974407e+02
1.940000e-06	2.461950e-06	2.988631e-09	1.705304e+01	1.964645e+02
1.950000e-06	2.433837e-06	3.000271e-09	1.685831e+01	1.954219e+02
1.960000e-06	2.404613e-06	2.970721e-09	1.665589e+01	1.943026e+02
1.970000e-06	2.374284e-06	2.914687e-09	1.644581e+01	1.931134e+02
1.980000e-06	2.343085e-06	2.920901e-09	1.622970e+01	1.918745e+02
1.990000e-06	2.311124e-06	2.930015e-09	1.600833e+01	1.906116e+02
2.000000e-06	2.278484e-06	2.905800e-09	1.578224e+01	1.893454e+02
2.010000e-06	2.245071e-06	2.874520e-09	1.555080e+01	1.880837e+02
2.020000e-06	2.210803e-06	2.841333e-09	1.531343e+01	1.868180e+02
2.030000e-06	2.175872e-06	2.831441e-09	1.507148e+01	1.855273e+02
2.040000e-06	2.140380e-06	2.821185e-09	1.482564e+01	1.841855e+02
2.050000e-06	2.104152e-06	2.776375e-09	1.457470e+01	1.827717e+02
2.060000e-06	2.067033e-06	2.758433e-09	1.431759e+01	1.812781e+02
2.070000e-06	2.028899e-06	2.758739e-09	1.405345e+01	1.797129e+02
2.080000e-06	1.989886e-06	2.734532e-09	1.378322e+01	1.780974e+02
2.090000e-06	1.950292e-06	2.700743e-09	1.350897e+01	1.764583e+02
2.100000e-06	1.910080e-06	2.658551e-09	1.323044e+01	1.748180e+02
2.110000e-06	1.869190e-06	2.630519e-09	1.294721e+01	1.731863e+02
2.120000e-06	1.827702e-06	2.622037e-09	1.265983e+01	1.715575e+02
2.130000e-06	1.785698e-06	2.603233e-09	1.236889e+01	1.699119e+02
2.140000e-06	1.743126e-06	2.576286e-09	1.207401e+01	1.682236e+02
2.150000e-06	1.700002e-06	2.548565e-09	1.177530e+01	1.664690e+02
2.160000e-06	1.656464e-06	2.521136e-09	1.147373e+01	1.646356e+02
2.170000e-06	1.612422e-06	2.494476e-09	1.116867e+01	1.627254e+02
2.180000e-06	1.567696e-06	2.457343e-09	1.085886e+01	1.607536e+02
2.190000e-06	1.522294e-06	2.423718e-09	1.054438e+01	1.587429e+02
2.200000e-06	1.476364e-06	2.404721e-09	1.022624e+01	1.567142e+02
2.210000e-06	1.430012e-06	2.377066e-09	9.905175e+00	1.546796e+02
2.220000e-06	1.383241e-06	2.344399e-09	9.581210e+00	1.526380e+02
2.230000e-06	1.335939e-06	2.308156e-09	9.253569e+00	1.505757e+02
2.240000e-06	1.288076e-06	2.274281e-09	8.922035e+00	1.484723e+02
2.250000e-06	1.239601e-06	2.245882e-09	8.586273e+00	1.463079e+02
2.260000e-06	1.190590e-06	2.215325e-09	8.246786e+00	1.440705e+02
2.270000e-06	1.141217e-06	2.179314e-09	7.904797e+00	1.417597e+02
2.280000e-06	1.091431e-06	2.137011e-09	7.559953e+00	1.393866e+02
2.290000e-06	1.041213e-06	2.101241e-09	7.212108e+00	1.369678e+02
2.300000e-06	9.905907e-07	2.069727e-09	6.861465e+00	1.345191e+02
2.310000e-06	9.396212e-07	2.032909e-09	6.508418e+00	1.320482e+02
2.320000e-06	8.883733e-07	1.993181e-09	6.153442e+00	1.295511e+02
2.330000e-06	8.368739e-07	1.958856e-09	5.796724e+00	1.270136e+02
2.340000e-06	7.850199e-07	1.924807e-09	5.437550e+00	1.244161e+02
2.350000e-06	7.327373e-07	1.881069e-09	5.075407e+00	1.217408e+02
2.360000e-06	6.801030e-07	1.828832e-09	4.710828e+00	1.189789e+02
2.370000e-06	6.270792e-07	1.782139e-09	4.343551e+00	1.161334e+02
2.380000e-06	5.735443e-07	1.744156e-09	3.972735e+00	1.132178e+02
2.390000e-06	5.196910e-07	1.704772e-09	3.599712e+00	1.102505e+02
2.400000e-06	4.656492e-07	1.661598e-09	3.225384e+00	1.072467e+02
2.410000e-06	4.113455e-07	1.615496e-09	2.849242e+00	1.042107e+02
2.420000e-06	3.567995e-07	1.569571e-09	2.471422e+00	1.011334e+02
2.430000e-06	3.020562e-07	1.520643e-09	2.092235e+00	9.799303e+01
2.440000e-06	2.471985e-07	1.467812e-09	1.712255e+00	9.476230e+01
2.450000e-06	1.922604e-07	1.413803e-09	1.331718e+00	9.141750e+01
2.460000e-06	1.372641e-07	1.361236e-09	9.507791e-01	8.794702e+01
2.470000e-06	8.225594e-08	1.310975e-09	5.697572e-01	8.435586e+01
2.480000e-06	2.722304e-08	1.257999e-09	1.885642e-01	8.066442e+01
2.490000e-06	-2.787150e-08	1.200681e-09	-1.930559e-01	7.690148e+01
2.500000e-06	-8.293980e-08	1.141362e-09	-5.744941e-01	7.309392e+01
2.510000e-06	-1.379435e-07	1.082047e-09	-9.554851e-01	6.925661e+01
2.520000e-06	-1.929070e-07	1.021847e-09	-1.336197e+00	6.538612e+01
2.530000e-06	-2.478496e-07	9.603960e-10	-1.716765e+00	6.146065e+01
2.540000e-06	-3.027230e-07	8.990711e-10	-2.096853e+00	5.744628e+01
2.550000e-06	-3.574408e-07	8.382635e-10	-2.475864e+00	5.330730e+01
2.560000e-06	-4.119941e-07	7.734871e-10	-2.853735e+00	4.901705e+01
2.570000e-06	-4.663191e-07	7.034915e-10	-3.230024e+00	4.456533e+01
2.580000e-06	-5.203170e-07	6.318035e-10	-3.604048e+00	3.995958e+01
2.590000e-06	-5.739864e-07	5.594929e-10	-3.975797e+00	3.521949e+01
2.600000e-06	-6.273501e-07	4.872376e-10	-4.345428e+00	3.036702e+01
2.610000e-06	-6.803413e-07	4.137055e-10	-4.712479e+00	2.541533e+01
2.620000e-06	-7.328850e-07	3.363900e-10	-5.076431e+00	2.036098e+01
2.630000e-06	-7.849940e-07	2.550230e-10	-5.437370e+00	1.518214e+01
2.640000e-06	-8.367593e-07	1.727522e-10	-5.795930e+00	9.843550e+00
2.650000e-06	-8.882341e-07	8.903834e-11	-6.152478e+00	4.306484e+00
2.660000e-06	-9.394221e-07	9.634585e-13	-6.507039e+00	-1.459910e+00
2.670000e-06	-9.903040e-07	-9.084801e-11	-6.859479e+00	-7.470032e+00
2.680000e-06	-1.040844e-06	-1.843206e-10	-7.209552e+00	-1.371896e+01
2.690000e-06	-1.091003e-06	-2.784117e-10	-7.556982e+00	-2.018610e+01
2.700000e-06	-1.140738e-06	-3.788249e-10	-7.901480e+00	-2.684347e+01
2.710000e-06	-1.189996e-06	-4.868338e-10	-8.242673e+00	-3.366514e+01
2.720000e-06	-1.238752e-06	-5.955550e-10	-8.580386e+00	-4.063363e+01
2.730000e-06	-1.286953e-06	-7.032883e-10	-8.914263e+00	-4.774045e+01
2.740000e-06	-1.334439e-06	-8.134021e-10	-9.243176e+00	-5.498026e+01
2.750000e-06	-1.381137e-06	-9.265445e-10	-9.566639e+00	-6.234070e+01
2.760000e-06	-1.427264e-06	-1.039891e-09	-9.886143e+00	-6.979207e+01
2.770000e-06	-1.473048e-06	-1.151458e-09	-1.020327e+01	-7.728127e+01
2.780000e-06	-1.518477e-06	-1.263256e-09	-1.051794e+01	-8.473305e+01
2.790000e-06	-1.563479e-06	-1.376663e-09	-1.082965e+01	-9.205917e+01
2.800000e-06	-1.607929e-06	-1.488189e-09	-1.113754e+01	-9.917310e+01
2.810000e-06	-1.651786e-06	-1.595394e-09	-1.144133e+01	-1.060055e+02
2.820000e-06	-1.695186e-06	-1.696991e-09	-1.174195e+01	-1.125158e+02
2.830000e-06	-1.738168e-06	-1.792379e-09	-1.203967e+01	-1.186952e+02
2.840000e-06	-1.780653e-06	-1.882268e-09	-1.233394e+01	-1.245616e+02
2.850000e-06	-1.822547e-06	-1.966656e-09	-1.262413e+01	-1.301466e+02
2.860000e-06	-1.863845e-06	-2.046228e-09	-1.291018e+01	-1.354806e+02
2.870000e-06	-1.904504e-06	-2.123850e-09	-1.319181e+01	-1.405804e+02
2.880000e-06	-1.944490e-06	-2.200012e-09	-1.346878e+01	-1.454439e+02
2.890000e-06	-1.983902e-06	-2.273658e-09	-1.374177e+01	-1.500530e+02
2.900000e-06	-2.022740e-06	-2.343463e-09	-1.401079e+01	-1.543831e+02
2.910000e-06	-2.060817e-06	-2.408811e-09	-1.427453e+01	-1.584159e+02
2.920000e-06	-2.097929e-06	-2.469321e-09	-1.453160e+01	-1.621492e+02
2.930000e-06	-2.134069e-06	-2.522523e-09	-1.478193e+01	-1.656008e+02
2.940000e-06	-2.169478e-06	-2.571041e-09	-1.502719e+01	-1.688047e+02
