# Temperatura_=_20.68
# Concentracion g/m^3_=_13400.0
# C_Vs_to_Am_M_A/Vsm_=_65563218390.804596
# pendiente_HvsI_1/m_=_3716.3
# ordenada_HvsI_A/m_=_1297.0
# frecuencia_Hz_=_301418.99199146143

Tiempo_(s)	Campo_(V.s)	Magnetizacion_(V.s)	Campo_(kA/m)	Magnetizacion_(A/m)
0.000000e+00	-8.359593e-06	-1.829132e-08	-5.691964e+01	-1.198346e+03
1.000000e-08	-8.356075e-06	-1.829367e-08	-5.689568e+01	-1.197822e+03
2.000000e-08	-8.349831e-06	-1.829029e-08	-5.685316e+01	-1.197481e+03
3.000000e-08	-8.340922e-06	-1.828220e-08	-5.679251e+01	-1.197293e+03
4.000000e-08	-8.329116e-06	-1.827239e-08	-5.671212e+01	-1.197111e+03
5.000000e-08	-8.314278e-06	-1.826277e-08	-5.661109e+01	-1.196737e+03
6.000000e-08	-8.296491e-06	-1.824849e-08	-5.648998e+01	-1.196012e+03
7.000000e-08	-8.276174e-06	-1.822427e-08	-5.635164e+01	-1.194887e+03
8.000000e-08	-8.253306e-06	-1.822111e-08	-5.619593e+01	-1.193443e+03
9.000000e-08	-8.227255e-06	-1.825244e-08	-5.601856e+01	-1.191863e+03
1.000000e-07	-8.197773e-06	-1.822134e-08	-5.581782e+01	-1.190349e+03
1.100000e-07	-8.165141e-06	-1.816896e-08	-5.559563e+01	-1.189037e+03
1.200000e-07	-8.129588e-06	-1.815056e-08	-5.535355e+01	-1.187942e+03
1.300000e-07	-8.091396e-06	-1.812677e-08	-5.509351e+01	-1.186954e+03
1.400000e-07	-8.050863e-06	-1.805711e-08	-5.481752e+01	-1.185890e+03
1.500000e-07	-8.007796e-06	-1.802155e-08	-5.452428e+01	-1.184573e+03
1.600000e-07	-7.961932e-06	-1.808072e-08	-5.421200e+01	-1.182907e+03
1.700000e-07	-7.913279e-06	-1.799004e-08	-5.388073e+01	-1.180912e+03
1.800000e-07	-7.861621e-06	-1.798725e-08	-5.352899e+01	-1.178707e+03
1.900000e-07	-7.806923e-06	-1.798303e-08	-5.315656e+01	-1.176443e+03
2.000000e-07	-7.749392e-06	-1.787386e-08	-5.276483e+01	-1.174223e+03
2.100000e-07	-7.689076e-06	-1.785955e-08	-5.235415e+01	-1.172051e+03
2.200000e-07	-7.626097e-06	-1.779501e-08	-5.192533e+01	-1.169821e+03
2.300000e-07	-7.560346e-06	-1.778056e-08	-5.147764e+01	-1.167363e+03
2.400000e-07	-7.491735e-06	-1.773724e-08	-5.101048e+01	-1.164518e+03
2.500000e-07	-7.420331e-06	-1.768960e-08	-5.052429e+01	-1.161219e+03
2.600000e-07	-7.346007e-06	-1.765402e-08	-5.001823e+01	-1.157523e+03
2.700000e-07	-7.268850e-06	-1.758176e-08	-4.949287e+01	-1.153595e+03
2.800000e-07	-7.188885e-06	-1.753261e-08	-4.894840e+01	-1.149637e+03
2.900000e-07	-7.106203e-06	-1.744869e-08	-4.838542e+01	-1.145804e+03
3.000000e-07	-7.021122e-06	-1.740543e-08	-4.780612e+01	-1.142126e+03
3.100000e-07	-6.933724e-06	-1.735594e-08	-4.721103e+01	-1.138497e+03
3.200000e-07	-6.843865e-06	-1.728678e-08	-4.659920e+01	-1.134716e+03
3.300000e-07	-6.751491e-06	-1.722762e-08	-4.597023e+01	-1.130571e+03
3.400000e-07	-6.656761e-06	-1.714233e-08	-4.532522e+01	-1.125929e+03
3.500000e-07	-6.559689e-06	-1.707910e-08	-4.466426e+01	-1.120801e+03
3.600000e-07	-6.460188e-06	-1.700157e-08	-4.398677e+01	-1.115330e+03
3.700000e-07	-6.358347e-06	-1.692200e-08	-4.329335e+01	-1.109732e+03
3.800000e-07	-6.254236e-06	-1.683537e-08	-4.258447e+01	-1.104195e+03
3.900000e-07	-6.147811e-06	-1.675394e-08	-4.185983e+01	-1.098795e+03
4.000000e-07	-6.039143e-06	-1.667300e-08	-4.111992e+01	-1.093453e+03
4.100000e-07	-5.928337e-06	-1.657249e-08	-4.036545e+01	-1.087966e+03
4.200000e-07	-5.815314e-06	-1.647652e-08	-3.959589e+01	-1.082094e+03
4.300000e-07	-5.699950e-06	-1.637362e-08	-3.881039e+01	-1.075660e+03
4.400000e-07	-5.582356e-06	-1.627995e-08	-3.800971e+01	-1.068630e+03
4.500000e-07	-5.462767e-06	-1.617738e-08	-3.719543e+01	-1.061129e+03
4.600000e-07	-5.341219e-06	-1.606540e-08	-3.636783e+01	-1.053384e+03
4.700000e-07	-5.217743e-06	-1.594639e-08	-3.552709e+01	-1.045622e+03
4.800000e-07	-5.092391e-06	-1.583003e-08	-3.467358e+01	-1.037963e+03
4.900000e-07	-4.965213e-06	-1.571235e-08	-3.380764e+01	-1.030359e+03
5.000000e-07	-4.836227e-06	-1.558035e-08	-3.292939e+01	-1.022608e+03
5.100000e-07	-4.705487e-06	-1.544550e-08	-3.203919e+01	-1.014433e+03
5.200000e-07	-4.573034e-06	-1.530941e-08	-3.113733e+01	-1.005606e+03
5.300000e-07	-4.438935e-06	-1.517107e-08	-3.022426e+01	-9.960430e+02
5.400000e-07	-4.303304e-06	-1.502346e-08	-2.930076e+01	-9.858428e+02
5.500000e-07	-4.166075e-06	-1.486951e-08	-2.836639e+01	-9.752442e+02
5.600000e-07	-4.027212e-06	-1.471156e-08	-2.742088e+01	-9.645142e+02
5.700000e-07	-3.886769e-06	-1.454959e-08	-2.646462e+01	-9.538215e+02
5.800000e-07	-3.744772e-06	-1.437923e-08	-2.549778e+01	-9.431482e+02
5.900000e-07	-3.601284e-06	-1.419731e-08	-2.452078e+01	-9.322831e+02
6.000000e-07	-3.456489e-06	-1.401112e-08	-2.353489e+01	-9.209029e+02
6.100000e-07	-3.310466e-06	-1.382277e-08	-2.254063e+01	-9.087075e+02
6.200000e-07	-3.163203e-06	-1.363092e-08	-2.153793e+01	-8.955516e+02
6.300000e-07	-3.014784e-06	-1.342734e-08	-2.052736e+01	-8.815099e+02
6.400000e-07	-2.865381e-06	-1.321368e-08	-1.951009e+01	-8.668449e+02
6.500000e-07	-2.715067e-06	-1.299459e-08	-1.848662e+01	-8.518839e+02
6.600000e-07	-2.563804e-06	-1.276620e-08	-1.745668e+01	-8.368583e+02
6.700000e-07	-2.411617e-06	-1.252506e-08	-1.642046e+01	-8.217755e+02
6.800000e-07	-2.258565e-06	-1.227139e-08	-1.537834e+01	-8.063839e+02
6.900000e-07	-2.104694e-06	-1.201140e-08	-1.433065e+01	-7.902549e+02
7.000000e-07	-1.950053e-06	-1.174472e-08	-1.327771e+01	-7.729506e+02
7.100000e-07	-1.794732e-06	-1.146674e-08	-1.222015e+01	-7.542076e+02
7.200000e-07	-1.638783e-06	-1.117272e-08	-1.115831e+01	-7.340514e+02
7.300000e-07	-1.482224e-06	-1.086470e-08	-1.009232e+01	-7.127835e+02
7.400000e-07	-1.325075e-06	-1.054136e-08	-9.022306e+00	-6.908341e+02
7.500000e-07	-1.167368e-06	-1.020159e-08	-7.948495e+00	-6.685370e+02
7.600000e-07	-1.009201e-06	-9.844103e-09	-6.871546e+00	-6.459207e+02
7.700000e-07	-8.506846e-07	-9.466359e-09	-5.792226e+00	-6.226169e+02
7.800000e-07	-6.919122e-07	-9.070748e-09	-4.711161e+00	-5.979399e+02
7.900000e-07	-5.329431e-07	-8.652767e-09	-3.628756e+00	-5.711219e+02
8.000000e-07	-3.737331e-07	-8.208975e-09	-2.544711e+00	-5.416125e+02
8.100000e-07	-2.143882e-07	-7.735504e-09	-1.459748e+00	-5.093120e+02
8.200000e-07	-5.499561e-08	-7.232468e-09	-3.744596e-01	-4.746144e+02
8.300000e-07	1.044254e-07	-6.697135e-09	7.110223e-01	-4.382046e+02
8.400000e-07	2.637571e-07	-6.125681e-09	1.795896e+00	-4.006518e+02
8.500000e-07	4.229613e-07	-5.513424e-09	2.879901e+00	-3.619352e+02
8.600000e-07	5.820391e-07	-4.850365e-09	3.963046e+00	-3.210928e+02
8.700000e-07	7.409682e-07	-4.126370e-09	5.045178e+00	-2.761662e+02
8.800000e-07	8.996336e-07	-3.322951e-09	6.125516e+00	-2.245276e+02
8.900000e-07	1.057989e-06	-2.416064e-09	7.203741e+00	-1.635456e+02
9.000000e-07	1.215943e-06	-1.370199e-09	8.279234e+00	-9.141749e+01
9.100000e-07	1.373386e-06	-1.441925e-10	9.351250e+00	-7.916109e+00
9.200000e-07	1.530259e-06	1.281684e-09	1.041938e+01	8.520030e+01
9.300000e-07	1.686552e-06	2.857562e-09	1.148356e+01	1.842751e+02
9.400000e-07	1.842253e-06	4.459887e-09	1.254372e+01	2.843509e+02
9.500000e-07	1.997342e-06	5.947350e-09	1.359971e+01	3.801294e+02
9.600000e-07	2.151760e-06	7.228657e-09	1.465112e+01	4.670325e+02
9.700000e-07	2.305347e-06	8.296474e-09	1.569688e+01	5.420662e+02
9.800000e-07	2.458013e-06	9.184046e-09	1.673637e+01	6.042567e+02
9.900000e-07	2.609752e-06	9.932401e-09	1.776954e+01	6.545599e+02
1.000000e-06	2.760615e-06	1.057338e-08	1.879675e+01	6.953105e+02
1.010000e-06	2.910526e-06	1.112736e-08	1.981748e+01	7.294102e+02
1.020000e-06	3.059384e-06	1.161243e-08	2.083104e+01	7.595160e+02
1.030000e-06	3.207154e-06	1.204372e-08	2.183719e+01	7.874643e+02
1.040000e-06	3.353766e-06	1.243458e-08	2.283546e+01	8.140649e+02
1.050000e-06	3.499193e-06	1.279234e-08	2.382565e+01	8.392633e+02
1.060000e-06	3.643382e-06	1.312292e-08	2.480743e+01	8.625488e+02
1.070000e-06	3.786215e-06	1.342660e-08	2.577996e+01	8.834226e+02
1.080000e-06	3.927550e-06	1.370459e-08	2.674230e+01	9.017450e+02
1.090000e-06	4.067382e-06	1.396298e-08	2.769440e+01	9.178526e+02
1.100000e-06	4.205678e-06	1.420492e-08	2.863604e+01	9.324407e+02
1.110000e-06	4.342361e-06	1.442984e-08	2.956670e+01	9.462928e+02
1.120000e-06	4.477477e-06	1.463979e-08	3.048669e+01	9.599922e+02
1.130000e-06	4.610988e-06	1.483879e-08	3.139576e+01	9.737395e+02
1.140000e-06	4.742820e-06	1.503107e-08	3.229339e+01	9.873417e+02
1.150000e-06	4.872945e-06	1.521621e-08	3.317940e+01	1.000364e+03
1.160000e-06	5.001347e-06	1.539068e-08	3.405367e+01	1.012364e+03
1.170000e-06	5.128023e-06	1.555546e-08	3.491619e+01	1.023106e+03
1.180000e-06	5.252954e-06	1.571082e-08	3.576684e+01	1.032668e+03
1.190000e-06	5.376050e-06	1.585841e-08	3.660499e+01	1.041397e+03
1.200000e-06	5.497205e-06	1.599753e-08	3.742992e+01	1.049758e+03
1.210000e-06	5.616324e-06	1.612938e-08	3.824099e+01	1.058135e+03
1.220000e-06	5.733282e-06	1.625804e-08	3.903735e+01	1.066680e+03
1.230000e-06	5.848022e-06	1.638293e-08	3.981860e+01	1.075271e+03
1.240000e-06	5.960558e-06	1.649972e-08	4.058484e+01	1.083590e+03
1.250000e-06	6.070944e-06	1.660838e-08	4.133645e+01	1.091284e+03
1.260000e-06	6.179217e-06	1.671217e-08	4.207367e+01	1.098128e+03
1.270000e-06	6.285317e-06	1.681218e-08	4.279609e+01	1.104130e+03
1.280000e-06	6.389198e-06	1.690465e-08	4.350341e+01	1.109526e+03
1.290000e-06	6.490791e-06	1.698659e-08	4.419515e+01	1.114679e+03
1.300000e-06	6.589905e-06	1.706466e-08	4.487000e+01	1.119923e+03
1.310000e-06	6.686576e-06	1.714534e-08	4.552823e+01	1.125429e+03
1.320000e-06	6.780929e-06	1.722706e-08	4.617066e+01	1.131140e+03
1.330000e-06	6.872914e-06	1.730588e-08	4.679698e+01	1.136813e+03
1.340000e-06	6.962451e-06	1.737960e-08	4.740664e+01	1.142127e+03
1.350000e-06	7.049575e-06	1.744920e-08	4.799985e+01	1.146831e+03
1.360000e-06	7.134276e-06	1.751414e-08	4.857657e+01	1.150852e+03
1.370000e-06	7.216407e-06	1.757452e-08	4.913580e+01	1.154317e+03
1.380000e-06	7.295961e-06	1.763007e-08	4.967747e+01	1.157496e+03
1.390000e-06	7.372841e-06	1.768324e-08	5.020094e+01	1.160685e+03
1.400000e-06	7.446925e-06	1.773758e-08	5.070537e+01	1.164074e+03
1.410000e-06	7.518301e-06	1.779123e-08	5.119136e+01	1.167679e+03
1.420000e-06	7.587038e-06	1.784048e-08	5.165938e+01	1.171340e+03
1.430000e-06	7.653033e-06	1.788591e-08	5.210874e+01	1.174801e+03
1.440000e-06	7.716301e-06	1.792931e-08	5.253952e+01	1.177827e+03
1.450000e-06	7.776964e-06	1.796990e-08	5.295257e+01	1.180306e+03
1.460000e-06	7.834919e-06	1.800804e-08	5.334718e+01	1.182297e+03
1.470000e-06	7.890034e-06	1.804178e-08	5.372245e+01	1.183993e+03
1.480000e-06	7.942080e-06	1.807161e-08	5.407683e+01	1.185640e+03
1.490000e-06	7.990960e-06	1.809857e-08	5.440965e+01	1.187423e+03
1.500000e-06	8.036956e-06	1.812467e-08	5.472283e+01	1.189392e+03
1.510000e-06	8.080084e-06	1.814899e-08	5.501648e+01	1.191441e+03
1.520000e-06	8.120235e-06	1.817066e-08	5.528987e+01	1.193368e+03
1.530000e-06	8.157595e-06	1.819163e-08	5.554425e+01	1.194962e+03
1.540000e-06	8.192166e-06	1.821188e-08	5.577964e+01	1.196105e+03
1.550000e-06	8.223839e-06	1.823181e-08	5.599530e+01	1.196822e+03
1.560000e-06	8.252649e-06	1.824906e-08	5.619146e+01	1.197269e+03
1.570000e-06	8.278499e-06	1.826032e-08	5.636747e+01	1.197662e+03
1.580000e-06	8.301392e-06	1.826847e-08	5.652335e+01	1.198186e+03
1.590000e-06	8.321450e-06	1.827626e-08	5.665992e+01	1.198910e+03
1.600000e-06	8.338572e-06	1.828258e-08	5.677650e+01	1.199761e+03
1.610000e-06	8.352572e-06	1.828817e-08	5.687183e+01	1.200561e+03
1.620000e-06	8.363322e-06	1.829474e-08	5.694502e+01	1.201109e+03
1.630000e-06	8.370937e-06	1.829952e-08	5.699687e+01	1.201266e+03
1.640000e-06	8.375660e-06	1.830114e-08	5.702903e+01	1.201025e+03
1.650000e-06	8.377491e-06	1.830050e-08	5.704150e+01	1.200505e+03
1.660000e-06	8.376484e-06	1.829655e-08	5.703464e+01	1.199899e+03
1.670000e-06	8.372712e-06	1.828517e-08	5.700896e+01	1.199392e+03
1.680000e-06	8.366120e-06	1.827867e-08	5.696407e+01	1.199070e+03
1.690000e-06	8.356739e-06	1.827266e-08	5.690020e+01	1.198890e+03
1.700000e-06	8.344413e-06	1.826229e-08	5.681628e+01	1.198696e+03
1.710000e-06	8.329191e-06	1.825285e-08	5.671263e+01	1.198290e+03
1.720000e-06	8.311491e-06	1.825058e-08	5.659211e+01	1.197522e+03
1.730000e-06	8.291261e-06	1.824449e-08	5.645437e+01	1.196355e+03
1.740000e-06	8.267973e-06	1.816429e-08	5.629580e+01	1.194886e+03
1.750000e-06	8.241013e-06	1.813694e-08	5.611224e+01	1.193304e+03
1.760000e-06	8.210253e-06	1.815629e-08	5.590279e+01	1.191805e+03
1.770000e-06	8.176393e-06	1.813471e-08	5.567224e+01	1.190517e+03
1.780000e-06	8.140024e-06	1.811130e-08	5.542461e+01	1.189440e+03
1.790000e-06	8.101362e-06	1.815342e-08	5.516136e+01	1.188453e+03
1.800000e-06	8.060694e-06	1.810981e-08	5.488446e+01	1.187368e+03
1.810000e-06	8.017635e-06	1.802988e-08	5.459127e+01	1.186015e+03
1.820000e-06	7.971566e-06	1.809778e-08	5.427760e+01	1.184310e+03
1.830000e-06	7.922637e-06	1.800187e-08	5.394444e+01	1.182286e+03
1.840000e-06	7.870506e-06	1.800772e-08	5.358949e+01	1.180066e+03
1.850000e-06	7.815215e-06	1.799498e-08	5.321302e+01	1.177802e+03
1.860000e-06	7.757281e-06	1.793064e-08	5.281855e+01	1.175588e+03
1.870000e-06	7.696507e-06	1.798166e-08	5.240475e+01	1.173417e+03
1.880000e-06	7.632973e-06	1.785945e-08	5.197215e+01	1.171170e+03
1.890000e-06	7.566649e-06	1.784347e-08	5.152056e+01	1.168676e+03
1.900000e-06	7.497430e-06	1.777687e-08	5.104926e+01	1.165783e+03
1.910000e-06	7.425333e-06	1.771957e-08	5.055835e+01	1.162435e+03
1.920000e-06	7.350303e-06	1.770712e-08	5.004748e+01	1.158704e+03
1.930000e-06	7.272507e-06	1.761483e-08	4.951777e+01	1.154762e+03
1.940000e-06	7.192100e-06	1.761508e-08	4.897029e+01	1.150812e+03
1.950000e-06	7.109243e-06	1.750431e-08	4.840612e+01	1.146995e+03
1.960000e-06	7.023765e-06	1.746373e-08	4.782411e+01	1.143329e+03
1.970000e-06	6.935659e-06	1.739524e-08	4.722421e+01	1.139694e+03
1.980000e-06	6.845203e-06	1.731101e-08	4.660830e+01	1.135883e+03
1.990000e-06	6.752321e-06	1.728138e-08	4.597588e+01	1.131687e+03
2.000000e-06	6.657012e-06	1.718716e-08	4.532693e+01	1.126990e+03
2.010000e-06	6.559370e-06	1.714133e-08	4.466209e+01	1.121815e+03
2.020000e-06	6.459396e-06	1.703426e-08	4.398138e+01	1.116319e+03
2.030000e-06	6.356961e-06	1.696716e-08	4.328391e+01	1.110719e+03
2.040000e-06	6.252237e-06	1.687376e-08	4.257086e+01	1.105195e+03
2.050000e-06	6.145393e-06	1.678974e-08	4.184337e+01	1.099806e+03
2.060000e-06	6.036398e-06	1.670754e-08	4.110123e+01	1.094459e+03
2.070000e-06	5.925223e-06	1.661340e-08	4.034425e+01	1.088942e+03
2.080000e-06	5.811787e-06	1.653371e-08	3.957188e+01	1.083015e+03
2.090000e-06	5.696037e-06	1.642348e-08	3.878375e+01	1.076515e+03
2.100000e-06	5.577988e-06	1.632361e-08	3.797996e+01	1.069426e+03
2.110000e-06	5.457845e-06	1.620793e-08	3.716192e+01	1.061886e+03
2.120000e-06	5.335791e-06	1.610177e-08	3.633087e+01	1.054128e+03
2.130000e-06	5.211880e-06	1.597896e-08	3.548717e+01	1.046374e+03
2.140000e-06	5.086079e-06	1.586197e-08	3.463061e+01	1.038725e+03
2.150000e-06	4.958428e-06	1.573579e-08	3.376144e+01	1.031116e+03
2.160000e-06	4.829036e-06	1.561491e-08	3.288043e+01	1.023332e+03
2.170000e-06	4.697954e-06	1.548636e-08	3.198790e+01	1.015096e+03
2.180000e-06	4.565181e-06	1.535051e-08	3.108386e+01	1.006190e+03
2.190000e-06	4.430784e-06	1.520662e-08	3.016877e+01	9.965498e+02
2.200000e-06	4.294765e-06	1.505629e-08	2.924263e+01	9.862931e+02
2.210000e-06	4.157126e-06	1.490578e-08	2.830546e+01	9.756675e+02
2.220000e-06	4.017902e-06	1.474398e-08	2.735749e+01	9.649354e+02
2.230000e-06	3.877137e-06	1.458111e-08	2.639904e+01	9.542485e+02
2.240000e-06	3.734953e-06	1.440823e-08	2.543092e+01	9.435669e+02
2.250000e-06	3.591380e-06	1.423664e-08	2.445335e+01	9.326620e+02
2.260000e-06	3.446523e-06	1.405500e-08	2.346703e+01	9.212062e+02
2.270000e-06	3.300453e-06	1.386631e-08	2.247245e+01	9.089104e+02
2.280000e-06	3.153206e-06	1.366880e-08	2.146987e+01	8.956513e+02
2.290000e-06	3.004825e-06	1.346386e-08	2.045955e+01	8.815270e+02
2.300000e-06	2.855404e-06	1.325112e-08	1.944216e+01	8.668141e+02
2.310000e-06	2.705060e-06	1.302861e-08	1.841848e+01	8.518374e+02
2.320000e-06	2.553719e-06	1.279726e-08	1.738801e+01	8.368093e+02
2.330000e-06	2.401384e-06	1.255639e-08	1.635078e+01	8.217088e+02
2.340000e-06	2.248157e-06	1.230923e-08	1.530748e+01	8.062596e+02
2.350000e-06	2.094114e-06	1.205268e-08	1.425861e+01	7.900231e+02
2.360000e-06	1.939329e-06	1.178595e-08	1.320470e+01	7.725720e+02
2.370000e-06	1.783873e-06	1.150532e-08	1.214621e+01	7.536700e+02
2.380000e-06	1.627829e-06	1.120905e-08	1.108373e+01	7.333755e+02
2.390000e-06	1.471196e-06	1.089668e-08	1.001723e+01	7.120129e+02
2.400000e-06	1.313980e-06	1.056775e-08	8.946758e+00	6.900134e+02
2.410000e-06	1.156263e-06	1.022389e-08	7.872882e+00	6.676867e+02
2.420000e-06	9.980939e-07	9.866353e-09	6.795922e+00	6.450204e+02
2.430000e-06	8.395943e-07	9.493526e-09	5.716713e+00	6.216053e+02
2.440000e-06	6.808779e-07	9.101037e-09	4.636029e+00	5.967335e+02
2.450000e-06	5.219227e-07	8.685657e-09	3.553720e+00	5.696461e+02
2.460000e-06	3.627672e-07	8.241563e-09	2.470046e+00	5.398325e+02
2.470000e-06	2.034828e-07	7.766255e-09	1.385494e+00	5.072478e+02
2.480000e-06	4.412018e-08	7.256682e-09	3.004099e-01	4.723312e+02
2.490000e-06	-1.152265e-07	6.712227e-09	-7.845655e-01	4.357775e+02
2.500000e-06	-2.745009e-07	6.135302e-09	-1.869049e+00	3.981146e+02
2.510000e-06	-4.336441e-07	5.521699e-09	-2.952640e+00	3.592338e+02
2.520000e-06	-5.926323e-07	4.859788e-09	-4.035174e+00	3.180626e+02
2.530000e-06	-7.514442e-07	4.134564e-09	-5.116509e+00	2.725484e+02
2.540000e-06	-9.099794e-07	3.330466e-09	-6.195959e+00	2.200262e+02
2.550000e-06	-1.068128e-06	2.423960e-09	-7.272774e+00	1.579130e+02
2.560000e-06	-1.225847e-06	1.377687e-09	-8.346670e+00	8.454317e+01
2.570000e-06	-1.383116e-06	1.475829e-10	-9.417496e+00	-1.094585e-01
2.580000e-06	-1.539831e-06	-1.283757e-09	-1.048456e+01	-9.406959e+01
2.590000e-06	-1.695959e-06	-2.866860e-09	-1.154762e+01	-1.935045e+02
2.600000e-06	-1.851497e-06	-4.475448e-09	-1.260666e+01	-2.933700e+02
2.610000e-06	-2.006409e-06	-5.966307e-09	-1.366144e+01	-3.883955e+02
2.620000e-06	-2.160596e-06	-7.251622e-09	-1.471128e+01	-4.741370e+02
2.630000e-06	-2.313931e-06	-8.319161e-09	-1.575532e+01	-5.478054e+02
2.640000e-06	-2.466378e-06	-9.204485e-09	-1.679332e+01	-6.086471e+02
2.650000e-06	-2.617916e-06	-9.951749e-09	-1.782513e+01	-6.577987e+02
2.660000e-06	-2.768530e-06	-1.059650e-08	-1.885064e+01	-6.976968e+02
2.670000e-06	-2.918145e-06	-1.115904e-08	-1.986936e+01	-7.312532e+02
2.680000e-06	-3.066682e-06	-1.165264e-08	-2.088073e+01	-7.610586e+02
2.690000e-06	-3.214167e-06	-1.209178e-08	-2.188494e+01	-7.888423e+02
2.700000e-06	-3.360565e-06	-1.248638e-08	-2.288175e+01	-8.153081e+02
2.710000e-06	-3.505747e-06	-1.284218e-08	-2.387028e+01	-8.403303e+02
2.720000e-06	-3.649647e-06	-1.316693e-08	-2.485008e+01	-8.633780e+02
2.730000e-06	-3.792232e-06	-1.346657e-08	-2.582093e+01	-8.839777e+02
2.740000e-06	-3.933383e-06	-1.374434e-08	-2.678201e+01	-9.020394e+02
2.750000e-06	-4.072987e-06	-1.400467e-08	-2.773256e+01	-9.179476e+02
2.760000e-06	-4.211022e-06	-1.425117e-08	-2.867243e+01	-9.324216e+02
2.770000e-06	-4.347513e-06	-1.448376e-08	-2.960178e+01	-9.462360e+02
2.780000e-06	-4.482424e-06	-1.470062e-08	-3.052038e+01	-9.599393e+02
2.790000e-06	-4.615687e-06	-1.490227e-08	-3.142775e+01	-9.736870e+02
2.800000e-06	-4.747317e-06	-1.509189e-08	-3.232400e+01	-9.872509e+02
2.810000e-06	-4.877295e-06	-1.527201e-08	-3.320902e+01	-1.000183e+03
2.820000e-06	-5.005496e-06	-1.544291e-08	-3.408192e+01	-1.012055e+03
2.830000e-06	-5.131950e-06	-1.560744e-08	-3.494293e+01	-1.022663e+03
2.840000e-06	-5.256659e-06	-1.576476e-08	-3.579207e+01	-1.032116e+03
2.850000e-06	-5.379502e-06	-1.591077e-08	-3.662849e+01	-1.040784e+03
2.860000e-06	-5.500373e-06	-1.604528e-08	-3.745149e+01	-1.049133e+03
2.870000e-06	-5.619182e-06	-1.617291e-08	-3.826045e+01	-1.057526e+03
2.880000e-06	-5.735829e-06	-1.629814e-08	-3.905468e+01	-1.066087e+03
2.890000e-06	-5.850124e-06	-1.641831e-08	-3.983291e+01	-1.074667e+03
2.900000e-06	-5.962063e-06	-1.653135e-08	-4.059509e+01	-1.082936e+03
2.910000e-06	-6.071754e-06	-1.663815e-08	-4.134197e+01	-1.090547e+03
2.920000e-06	-6.179309e-06	-1.674092e-08	-4.207430e+01	-1.097297e+03
2.930000e-06	-6.284811e-06	-1.684024e-08	-4.279265e+01	-1.103220e+03
2.940000e-06	-6.388101e-06	-1.693515e-08	-4.349594e+01	-1.108572e+03
