# Temperatura_=_64.1
# Concentracion g/m^3_=_13400.0
# C_Vs_to_Am_M_A/Vsm_=_65563218390.804596
# pendiente_HvsI_1/m_=_3716.3
# ordenada_HvsI_A/m_=_1297.0
# frecuencia_Hz_=_301418.8593614551

Tiempo_(s)	Campo_(V.s)	Magnetizacion_(V.s)	Campo_(kA/m)	Magnetizacion_(A/m)
0.000000e+00	-8.358581e-06	-1.747075e-08	-5.692020e+01	-1.146213e+03
1.000000e-08	-8.355235e-06	-1.747546e-08	-5.689741e+01	-1.146018e+03
2.000000e-08	-8.349167e-06	-1.746721e-08	-5.685609e+01	-1.145957e+03
3.000000e-08	-8.340369e-06	-1.745481e-08	-5.679617e+01	-1.145848e+03
4.000000e-08	-8.328670e-06	-1.744419e-08	-5.671651e+01	-1.145474e+03
5.000000e-08	-8.313953e-06	-1.743279e-08	-5.661629e+01	-1.144687e+03
6.000000e-08	-8.296327e-06	-1.741395e-08	-5.649626e+01	-1.143473e+03
7.000000e-08	-8.276168e-06	-1.738062e-08	-5.635898e+01	-1.141963e+03
8.000000e-08	-8.253415e-06	-1.738727e-08	-5.620403e+01	-1.140372e+03
9.000000e-08	-8.227463e-06	-1.746732e-08	-5.602731e+01	-1.138915e+03
1.000000e-07	-8.198138e-06	-1.742843e-08	-5.582761e+01	-1.137708e+03
1.100000e-07	-8.165739e-06	-1.734157e-08	-5.560698e+01	-1.136724e+03
1.200000e-07	-8.130403e-06	-1.732248e-08	-5.536635e+01	-1.135803e+03
1.300000e-07	-8.092410e-06	-1.730727e-08	-5.510762e+01	-1.134729e+03
1.400000e-07	-8.052083e-06	-1.720548e-08	-5.483301e+01	-1.133319e+03
1.500000e-07	-8.009282e-06	-1.713394e-08	-5.454154e+01	-1.131500e+03
1.600000e-07	-7.963658e-06	-1.727666e-08	-5.423085e+01	-1.129332e+03
1.700000e-07	-7.915160e-06	-1.713874e-08	-5.390059e+01	-1.126973e+03
1.800000e-07	-7.863689e-06	-1.714183e-08	-5.355009e+01	-1.124596e+03
1.900000e-07	-7.809157e-06	-1.718440e-08	-5.317873e+01	-1.122300e+03
2.000000e-07	-7.751774e-06	-1.701648e-08	-5.278797e+01	-1.120062e+03
2.100000e-07	-7.691603e-06	-1.701783e-08	-5.237821e+01	-1.117740e+03
2.200000e-07	-7.628701e-06	-1.692314e-08	-5.194986e+01	-1.115144e+03
2.300000e-07	-7.563071e-06	-1.693221e-08	-5.150294e+01	-1.112122e+03
2.400000e-07	-7.494633e-06	-1.688717e-08	-5.103689e+01	-1.108638e+03
2.500000e-07	-7.423393e-06	-1.682449e-08	-5.055176e+01	-1.104799e+03
2.600000e-07	-7.349258e-06	-1.681502e-08	-5.004692e+01	-1.100811e+03
2.700000e-07	-7.272267e-06	-1.673032e-08	-4.952262e+01	-1.096896e+03
2.800000e-07	-7.192477e-06	-1.668148e-08	-4.897927e+01	-1.093183e+03
2.900000e-07	-7.109975e-06	-1.657355e-08	-4.841745e+01	-1.089654e+03
3.000000e-07	-7.025067e-06	-1.654204e-08	-4.783924e+01	-1.086135e+03
3.100000e-07	-6.937809e-06	-1.649733e-08	-4.724504e+01	-1.082373e+03
3.200000e-07	-6.848134e-06	-1.642033e-08	-4.663437e+01	-1.078139e+03
3.300000e-07	-6.755981e-06	-1.637779e-08	-4.600682e+01	-1.073330e+03
3.400000e-07	-6.661390e-06	-1.627225e-08	-4.536268e+01	-1.068017e+03
3.500000e-07	-6.564475e-06	-1.620367e-08	-4.470271e+01	-1.062419e+03
3.600000e-07	-6.465125e-06	-1.611952e-08	-4.402615e+01	-1.056803e+03
3.700000e-07	-6.363408e-06	-1.604162e-08	-4.333348e+01	-1.051371e+03
3.800000e-07	-6.259389e-06	-1.595515e-08	-4.262513e+01	-1.046164e+03
3.900000e-07	-6.153071e-06	-1.587752e-08	-4.190113e+01	-1.041038e+03
4.000000e-07	-6.044549e-06	-1.580487e-08	-4.116212e+01	-1.035721e+03
4.100000e-07	-5.933839e-06	-1.569519e-08	-4.040821e+01	-1.029931e+03
4.200000e-07	-5.820956e-06	-1.559683e-08	-3.963950e+01	-1.023493e+03
4.300000e-07	-5.705824e-06	-1.548524e-08	-3.885548e+01	-1.016422e+03
4.400000e-07	-5.588432e-06	-1.539173e-08	-3.805606e+01	-1.008915e+03
4.500000e-07	-5.468943e-06	-1.529251e-08	-3.724236e+01	-1.001267e+03
4.600000e-07	-5.347550e-06	-1.518763e-08	-3.641570e+01	-9.937320e+02
4.700000e-07	-5.224245e-06	-1.506925e-08	-3.557602e+01	-9.864122e+02
4.800000e-07	-5.099020e-06	-1.494715e-08	-3.472327e+01	-9.791985e+02
4.900000e-07	-4.971984e-06	-1.482572e-08	-3.385818e+01	-9.718124e+02
5.000000e-07	-4.843151e-06	-1.469021e-08	-3.298085e+01	-9.639228e+02
5.100000e-07	-4.712575e-06	-1.455407e-08	-3.209166e+01	-9.552908e+02
5.200000e-07	-4.580260e-06	-1.441787e-08	-3.119062e+01	-9.458778e+02
5.300000e-07	-4.446301e-06	-1.428418e-08	-3.027839e+01	-9.358665e+02
5.400000e-07	-4.310734e-06	-1.414038e-08	-2.935520e+01	-9.255820e+02
5.500000e-07	-4.173584e-06	-1.398777e-08	-2.842124e+01	-9.153451e+02
5.600000e-07	-4.034907e-06	-1.382934e-08	-2.747688e+01	-9.053202e+02
5.700000e-07	-3.894555e-06	-1.366933e-08	-2.652111e+01	-8.954276e+02
5.800000e-07	-3.752601e-06	-1.350630e-08	-2.555443e+01	-8.853622e+02
5.900000e-07	-3.609283e-06	-1.333063e-08	-2.457847e+01	-8.747150e+02
6.000000e-07	-3.464690e-06	-1.314642e-08	-2.359382e+01	-8.631479e+02
6.100000e-07	-3.318762e-06	-1.295794e-08	-2.260008e+01	-8.505444e+02
6.200000e-07	-3.171543e-06	-1.277061e-08	-2.159755e+01	-8.370670e+02
6.300000e-07	-3.023268e-06	-1.257299e-08	-2.058783e+01	-8.230896e+02
6.400000e-07	-2.874024e-06	-1.236393e-08	-1.957151e+01	-8.090284e+02
6.500000e-07	-2.723801e-06	-1.215184e-08	-1.854852e+01	-7.951414e+02
6.600000e-07	-2.572641e-06	-1.193293e-08	-1.751915e+01	-7.813874e+02
6.700000e-07	-2.420533e-06	-1.170153e-08	-1.648333e+01	-7.674113e+02
6.800000e-07	-2.267589e-06	-1.145303e-08	-1.544181e+01	-7.526707e+02
6.900000e-07	-2.113826e-06	-1.119836e-08	-1.439471e+01	-7.366580e+02
7.000000e-07	-1.959259e-06	-1.093963e-08	-1.334215e+01	-7.191212e+02
7.100000e-07	-1.804050e-06	-1.067490e-08	-1.228520e+01	-7.001825e+02
7.200000e-07	-1.648195e-06	-1.039579e-08	-1.122386e+01	-6.802920e+02
7.300000e-07	-1.491613e-06	-1.010221e-08	-1.015757e+01	-6.600210e+02
7.400000e-07	-1.334354e-06	-9.794199e-09	-9.086670e+00	-6.397751e+02
7.500000e-07	-1.176613e-06	-9.468209e-09	-8.012491e+00	-6.195502e+02
7.600000e-07	-1.018485e-06	-9.122660e-09	-6.935670e+00	-5.988471e+02
7.700000e-07	-8.599980e-07	-8.755534e-09	-5.856407e+00	-5.768015e+02
7.800000e-07	-7.012433e-07	-8.374283e-09	-4.775321e+00	-5.524941e+02
7.900000e-07	-5.422971e-07	-7.973834e-09	-3.692931e+00	-5.253203e+02
8.000000e-07	-3.831932e-07	-7.547418e-09	-2.609466e+00	-4.952538e+02
8.100000e-07	-2.239470e-07	-7.085556e-09	-1.525032e+00	-4.628643e+02
8.200000e-07	-6.459509e-08	-6.589049e-09	-4.398791e-01	-4.290351e+02
8.300000e-07	9.478757e-08	-6.058925e-09	6.454836e-01	-3.944490e+02
8.400000e-07	2.540675e-07	-5.489081e-09	1.730147e+00	-3.590210e+02
8.500000e-07	4.132444e-07	-4.866471e-09	2.814109e+00	-3.215081e+02
8.600000e-07	5.723270e-07	-4.172975e-09	3.897428e+00	-2.794950e+02
8.700000e-07	7.311781e-07	-3.397783e-09	4.979170e+00	-2.298387e+02
8.800000e-07	8.897671e-07	-2.514757e-09	6.059129e+00	-1.694973e+02
8.900000e-07	1.048120e-06	-1.479875e-09	7.137477e+00	-9.651791e+01
9.000000e-07	1.206205e-06	-2.371406e-10	8.214005e+00	-1.087805e+01
9.100000e-07	1.363868e-06	1.238044e-09	9.287656e+00	8.510816e+01
9.200000e-07	1.520979e-06	2.887311e-09	1.035755e+01	1.869866e+02
9.300000e-07	1.677454e-06	4.547959e-09	1.142311e+01	2.889479e+02
9.400000e-07	1.833258e-06	6.039079e-09	1.248411e+01	3.849993e+02
9.500000e-07	1.988427e-06	7.270841e-09	1.354077e+01	4.701971e+02
9.600000e-07	2.142788e-06	8.255314e-09	1.459194e+01	5.415939e+02
9.700000e-07	2.296233e-06	9.053122e-09	1.563687e+01	5.986444e+02
9.800000e-07	2.448883e-06	9.717018e-09	1.667638e+01	6.429857e+02
9.900000e-07	2.600718e-06	1.028500e-08	1.771035e+01	6.777001e+02
1.000000e-06	2.751632e-06	1.077299e-08	1.873804e+01	7.063186e+02
1.010000e-06	2.901575e-06	1.119663e-08	1.975912e+01	7.318788e+02
1.020000e-06	3.050442e-06	1.157549e-08	2.077288e+01	7.563063e+02
1.030000e-06	3.198216e-06	1.192140e-08	2.177918e+01	7.802526e+02
1.040000e-06	3.344837e-06	1.223837e-08	2.277764e+01	8.033650e+02
1.050000e-06	3.490259e-06	1.252709e-08	2.376793e+01	8.248218e+02
1.060000e-06	3.634407e-06	1.279865e-08	2.474955e+01	8.439029e+02
1.070000e-06	3.777251e-06	1.305722e-08	2.572229e+01	8.603865e+02
1.080000e-06	3.918761e-06	1.329887e-08	2.668595e+01	8.746567e+02
1.090000e-06	4.058762e-06	1.352018e-08	2.763933e+01	8.875293e+02
1.100000e-06	4.197183e-06	1.372633e-08	2.858195e+01	8.999103e+02
1.110000e-06	4.333996e-06	1.392215e-08	2.951361e+01	9.124481e+02
1.120000e-06	4.469212e-06	1.410630e-08	3.043441e+01	9.253267e+02
1.130000e-06	4.602793e-06	1.427937e-08	3.134406e+01	9.382677e+02
1.140000e-06	4.734700e-06	1.444639e-08	3.224232e+01	9.507215e+02
1.150000e-06	4.864941e-06	1.461333e-08	3.312923e+01	9.621485e+02
1.160000e-06	4.993504e-06	1.477544e-08	3.400473e+01	9.722665e+02
1.170000e-06	5.120304e-06	1.492740e-08	3.486820e+01	9.811634e+02
1.180000e-06	5.245301e-06	1.506730e-08	3.571941e+01	9.892408e+02
1.190000e-06	5.368454e-06	1.519992e-08	3.655806e+01	9.970266e+02
1.200000e-06	5.489702e-06	1.532799e-08	3.738373e+01	1.004948e+03
1.210000e-06	5.608933e-06	1.544989e-08	3.819566e+01	1.013162e+03
1.220000e-06	5.725983e-06	1.556347e-08	3.899275e+01	1.021517e+03
1.230000e-06	5.840821e-06	1.567134e-08	3.977478e+01	1.029649e+03
1.240000e-06	5.953419e-06	1.577871e-08	4.054155e+01	1.037163e+03
1.250000e-06	6.063890e-06	1.588323e-08	4.129383e+01	1.043816e+03
1.260000e-06	6.172311e-06	1.598226e-08	4.203215e+01	1.049626e+03
1.270000e-06	6.278595e-06	1.607502e-08	4.275592e+01	1.054859e+03
1.280000e-06	6.382604e-06	1.616441e-08	4.346420e+01	1.059908e+03
1.290000e-06	6.484249e-06	1.624841e-08	4.415639e+01	1.065119e+03
1.300000e-06	6.583506e-06	1.632621e-08	4.483230e+01	1.070653e+03
1.310000e-06	6.680308e-06	1.640118e-08	4.549151e+01	1.076422e+03
1.320000e-06	6.774746e-06	1.647546e-08	4.613461e+01	1.082143e+03
1.330000e-06	6.866875e-06	1.654924e-08	4.676199e+01	1.087473e+03
1.340000e-06	6.956607e-06	1.661972e-08	4.737304e+01	1.092158e+03
1.350000e-06	7.043886e-06	1.668652e-08	4.796740e+01	1.096147e+03
1.360000e-06	7.128704e-06	1.675072e-08	4.854499e+01	1.099602e+03
1.370000e-06	7.211003e-06	1.681403e-08	4.910543e+01	1.102827e+03
1.380000e-06	7.290684e-06	1.687483e-08	4.964804e+01	1.106126e+03
1.390000e-06	7.367672e-06	1.692969e-08	5.017231e+01	1.109678e+03
1.400000e-06	7.441839e-06	1.697902e-08	5.067737e+01	1.113464e+03
1.410000e-06	7.513291e-06	1.702577e-08	5.116395e+01	1.117285e+03
1.420000e-06	7.582222e-06	1.707225e-08	5.163335e+01	1.120859e+03
1.430000e-06	7.648391e-06	1.711913e-08	5.208395e+01	1.123946e+03
1.440000e-06	7.711771e-06	1.716489e-08	5.251555e+01	1.126458e+03
1.450000e-06	7.772544e-06	1.720786e-08	5.292940e+01	1.128489e+03
1.460000e-06	7.830601e-06	1.724965e-08	5.332476e+01	1.130270e+03
1.470000e-06	7.885861e-06	1.728679e-08	5.370107e+01	1.132062e+03
1.480000e-06	7.938108e-06	1.731534e-08	5.405686e+01	1.134043e+03
1.490000e-06	7.987108e-06	1.733735e-08	5.439054e+01	1.136231e+03
1.500000e-06	8.033153e-06	1.736040e-08	5.470410e+01	1.138481e+03
1.510000e-06	8.076443e-06	1.738670e-08	5.499889e+01	1.140558e+03
1.520000e-06	8.116820e-06	1.741108e-08	5.527386e+01	1.142242e+03
1.530000e-06	8.154361e-06	1.743208e-08	5.552950e+01	1.143428e+03
1.540000e-06	8.189098e-06	1.745280e-08	5.576605e+01	1.144175e+03
1.550000e-06	8.220903e-06	1.747463e-08	5.598264e+01	1.144674e+03
1.560000e-06	8.249851e-06	1.749227e-08	5.617977e+01	1.145163e+03
1.570000e-06	8.275862e-06	1.750193e-08	5.635690e+01	1.145824e+03
1.580000e-06	8.298868e-06	1.750807e-08	5.651356e+01	1.146703e+03
1.590000e-06	8.319125e-06	1.751707e-08	5.665151e+01	1.147694e+03
1.600000e-06	8.336464e-06	1.752574e-08	5.676959e+01	1.148590e+03
1.610000e-06	8.350649e-06	1.752967e-08	5.686618e+01	1.149180e+03
1.620000e-06	8.361633e-06	1.753230e-08	5.694098e+01	1.149342e+03
1.630000e-06	8.369463e-06	1.753931e-08	5.699430e+01	1.149100e+03
1.640000e-06	8.374388e-06	1.754769e-08	5.702784e+01	1.148609e+03
1.650000e-06	8.376394e-06	1.754758e-08	5.704150e+01	1.148084e+03
1.660000e-06	8.375535e-06	1.753810e-08	5.703565e+01	1.147704e+03
1.670000e-06	8.371991e-06	1.751904e-08	5.701151e+01	1.147529e+03
1.680000e-06	8.365590e-06	1.751505e-08	5.696793e+01	1.147473e+03
1.690000e-06	8.356334e-06	1.751116e-08	5.690489e+01	1.147344e+03
1.700000e-06	8.344152e-06	1.749616e-08	5.682194e+01	1.146931e+03
1.710000e-06	8.329097e-06	1.748488e-08	5.671941e+01	1.146096e+03
1.720000e-06	8.311563e-06	1.748951e-08	5.660001e+01	1.144842e+03
1.730000e-06	8.291511e-06	1.749880e-08	5.646346e+01	1.143311e+03
1.740000e-06	8.268492e-06	1.736355e-08	5.630671e+01	1.141725e+03
1.750000e-06	8.241784e-06	1.731991e-08	5.612483e+01	1.140291e+03
1.760000e-06	8.211142e-06	1.736753e-08	5.591617e+01	1.139111e+03
1.770000e-06	8.177334e-06	1.734073e-08	5.568594e+01	1.138142e+03
1.780000e-06	8.141046e-06	1.730762e-08	5.543883e+01	1.137216e+03
1.790000e-06	8.102460e-06	1.741590e-08	5.517607e+01	1.136113e+03
1.800000e-06	8.061922e-06	1.736049e-08	5.490001e+01	1.134659e+03
1.810000e-06	8.019089e-06	1.720549e-08	5.460833e+01	1.132797e+03
1.820000e-06	7.973239e-06	1.734937e-08	5.429609e+01	1.130599e+03
1.830000e-06	7.924569e-06	1.719172e-08	5.396467e+01	1.128231e+03
1.840000e-06	7.872712e-06	1.720995e-08	5.361153e+01	1.125859e+03
1.850000e-06	7.817556e-06	1.718722e-08	5.323593e+01	1.123572e+03
1.860000e-06	7.759753e-06	1.708180e-08	5.284230e+01	1.121332e+03
1.870000e-06	7.699118e-06	1.719486e-08	5.242939e+01	1.118990e+03
1.880000e-06	7.635738e-06	1.699108e-08	5.199779e+01	1.116354e+03
1.890000e-06	7.569619e-06	1.702392e-08	5.154753e+01	1.113281e+03
1.900000e-06	7.500647e-06	1.692281e-08	5.107784e+01	1.109751e+03
1.910000e-06	7.428831e-06	1.683262e-08	5.058879e+01	1.105884e+03
1.920000e-06	7.354095e-06	1.686251e-08	5.007985e+01	1.101894e+03
1.930000e-06	7.276556e-06	1.673633e-08	4.955183e+01	1.097996e+03
1.940000e-06	7.196289e-06	1.678800e-08	4.900523e+01	1.094307e+03
1.950000e-06	7.113591e-06	1.662975e-08	4.844207e+01	1.090788e+03
1.960000e-06	7.028284e-06	1.661112e-08	4.786115e+01	1.087256e+03
1.970000e-06	6.940287e-06	1.652109e-08	4.726191e+01	1.083452e+03
1.980000e-06	6.849933e-06	1.640580e-08	4.664662e+01	1.079157e+03
1.990000e-06	6.757167e-06	1.640437e-08	4.601490e+01	1.074287e+03
2.000000e-06	6.661993e-06	1.628516e-08	4.536679e+01	1.068932e+03
2.010000e-06	6.564462e-06	1.627535e-08	4.470262e+01	1.063318e+03
2.020000e-06	6.464639e-06	1.614148e-08	4.402284e+01	1.057714e+03
2.030000e-06	6.362392e-06	1.608087e-08	4.332657e+01	1.052307e+03
2.040000e-06	6.257843e-06	1.596263e-08	4.261461e+01	1.047118e+03
2.050000e-06	6.151126e-06	1.587719e-08	4.188788e+01	1.041985e+03
2.060000e-06	6.042230e-06	1.580261e-08	4.114633e+01	1.036630e+03
2.070000e-06	5.931136e-06	1.570144e-08	4.038980e+01	1.030775e+03
2.080000e-06	5.817743e-06	1.563047e-08	3.961762e+01	1.024264e+03
2.090000e-06	5.702120e-06	1.550889e-08	3.883025e+01	1.017134e+03
2.100000e-06	5.584245e-06	1.540664e-08	3.802755e+01	1.009598e+03
2.110000e-06	5.464266e-06	1.527368e-08	3.721052e+01	1.001950e+03
2.120000e-06	5.342319e-06	1.516998e-08	3.638008e+01	9.944367e+02
2.130000e-06	5.218522e-06	1.504743e-08	3.553705e+01	9.871367e+02
2.140000e-06	5.092851e-06	1.494346e-08	3.468125e+01	9.799195e+02
2.150000e-06	4.965291e-06	1.481814e-08	3.381260e+01	9.724943e+02
2.160000e-06	4.835927e-06	1.469626e-08	3.293165e+01	9.645332e+02
2.170000e-06	4.704862e-06	1.455653e-08	3.203913e+01	9.558148e+02
2.180000e-06	4.572225e-06	1.441655e-08	3.113590e+01	9.463250e+02
2.190000e-06	4.438035e-06	1.427398e-08	3.022210e+01	9.362670e+02
2.200000e-06	4.302139e-06	1.412806e-08	2.929667e+01	9.259734e+02
2.210000e-06	4.164527e-06	1.398271e-08	2.835956e+01	9.157547e+02
2.220000e-06	4.025348e-06	1.382137e-08	2.741178e+01	9.057519e+02
2.230000e-06	3.884694e-06	1.366354e-08	2.645396e+01	8.958580e+02
2.240000e-06	3.742670e-06	1.349160e-08	2.548681e+01	8.857496e+02
2.250000e-06	3.599150e-06	1.332180e-08	2.450946e+01	8.750166e+02
2.260000e-06	3.454218e-06	1.314043e-08	2.352251e+01	8.633386e+02
2.270000e-06	3.308097e-06	1.295671e-08	2.252745e+01	8.506285e+02
2.280000e-06	3.160843e-06	1.276503e-08	2.152469e+01	8.370767e+02
2.290000e-06	3.012493e-06	1.256833e-08	2.051445e+01	8.230711e+02
2.300000e-06	2.863130e-06	1.236165e-08	1.949732e+01	8.090202e+02
2.310000e-06	2.712840e-06	1.214703e-08	1.847387e+01	7.951548e+02
2.320000e-06	2.561592e-06	1.192459e-08	1.744391e+01	7.813984e+02
2.330000e-06	2.409297e-06	1.169361e-08	1.640681e+01	7.673672e+02
2.340000e-06	2.256074e-06	1.145395e-08	1.536340e+01	7.525112e+02
2.350000e-06	2.102140e-06	1.120428e-08	1.431513e+01	7.363407e+02
2.360000e-06	1.947468e-06	1.094447e-08	1.326185e+01	7.186405e+02
2.370000e-06	1.792044e-06	1.067278e-08	1.220345e+01	6.995735e+02
2.380000e-06	1.636005e-06	1.038872e-08	1.114085e+01	6.796148e+02
2.390000e-06	1.479456e-06	1.009115e-08	1.007479e+01	6.593321e+02
2.400000e-06	1.322429e-06	9.778868e-09	9.005466e+00	6.390969e+02
2.410000e-06	1.164852e-06	9.449834e-09	7.932397e+00	6.188525e+02
2.420000e-06	1.006773e-06	9.105741e-09	6.855914e+00	5.980504e+02
2.430000e-06	8.483799e-07	8.746499e-09	5.777291e+00	5.758034e+02
2.440000e-06	6.897746e-07	8.366750e-09	4.697221e+00	5.512087e+02
2.450000e-06	5.309705e-07	7.963819e-09	3.615798e+00	5.237143e+02
2.460000e-06	3.719351e-07	7.535341e-09	2.532801e+00	4.933622e+02
2.470000e-06	2.127636e-07	7.076872e-09	1.448876e+00	4.607743e+02
2.480000e-06	5.350995e-08	6.580108e-09	3.643916e-01	4.268399e+02
2.490000e-06	-1.057772e-07	6.040926e-09	-7.203205e-01	3.921854e+02
2.500000e-06	-2.649822e-07	5.461922e-09	-1.804474e+00	3.566151e+02
2.510000e-06	-4.240469e-07	4.836279e-09	-2.887671e+00	3.187532e+02
2.520000e-06	-5.829518e-07	4.147726e-09	-3.969781e+00	2.760772e+02
2.530000e-06	-7.416436e-07	3.373827e-09	-5.050439e+00	2.254101e+02
2.540000e-06	-9.000609e-07	2.489886e-09	-6.129227e+00	1.637794e+02
2.550000e-06	-1.058182e-06	1.453988e-09	-7.205996e+00	8.940433e+01
2.560000e-06	-1.215968e-06	2.120120e-10	-8.280486e+00	2.503074e+00
2.570000e-06	-1.373247e-06	-1.268735e-09	-9.351525e+00	-9.436030e+01
2.580000e-06	-1.529959e-06	-2.930820e-09	-1.041870e+01	-1.965398e+02
2.590000e-06	-1.686203e-06	-4.602702e-09	-1.148269e+01	-2.981464e+02
2.600000e-06	-1.841909e-06	-6.096945e-09	-1.254301e+01	-3.932430e+02
2.610000e-06	-1.996871e-06	-7.326094e-09	-1.359828e+01	-4.770623e+02
2.620000e-06	-2.151007e-06	-8.310452e-09	-1.464791e+01	-5.469062e+02
2.630000e-06	-2.304421e-06	-9.107220e-09	-1.569263e+01	-6.024841e+02
2.640000e-06	-2.457047e-06	-9.767383e-09	-1.673198e+01	-6.456304e+02
2.650000e-06	-2.608689e-06	-1.032742e-08	-1.776463e+01	-6.795249e+02
2.660000e-06	-2.759295e-06	-1.081365e-08	-1.879023e+01	-7.076868e+02
2.670000e-06	-2.908874e-06	-1.124501e-08	-1.980883e+01	-7.330570e+02
2.680000e-06	-3.057452e-06	-1.163288e-08	-2.082061e+01	-7.574235e+02
2.690000e-06	-3.205018e-06	-1.198271e-08	-2.182551e+01	-7.813111e+02
2.700000e-06	-3.351463e-06	-1.230180e-08	-2.282276e+01	-8.042886e+02
2.710000e-06	-3.496760e-06	-1.259477e-08	-2.381221e+01	-8.255194e+02
2.720000e-06	-3.640783e-06	-1.286373e-08	-2.479298e+01	-8.443224e+02
2.730000e-06	-3.783384e-06	-1.311267e-08	-2.576406e+01	-8.605411e+02
2.740000e-06	-3.924521e-06	-1.334523e-08	-2.672517e+01	-8.746183e+02
2.750000e-06	-4.064092e-06	-1.356836e-08	-2.767562e+01	-8.873973e+02
2.760000e-06	-4.202150e-06	-1.378317e-08	-2.861577e+01	-8.997717e+02
2.770000e-06	-4.338677e-06	-1.398503e-08	-2.954549e+01	-9.123467e+02
2.780000e-06	-4.473588e-06	-1.417262e-08	-3.046420e+01	-9.252527e+02
2.790000e-06	-4.606921e-06	-1.434875e-08	-3.137217e+01	-9.381706e+02
2.800000e-06	-4.738653e-06	-1.451691e-08	-3.226924e+01	-9.505379e+02
2.810000e-06	-4.868731e-06	-1.467587e-08	-3.315504e+01	-9.618325e+02
2.820000e-06	-4.997097e-06	-1.482517e-08	-3.402919e+01	-9.718093e+02
2.830000e-06	-5.123679e-06	-1.496999e-08	-3.489119e+01	-9.805956e+02
2.840000e-06	-5.248423e-06	-1.511150e-08	-3.574066e+01	-9.886169e+02
2.850000e-06	-5.371363e-06	-1.524519e-08	-3.657786e+01	-9.964010e+02
2.860000e-06	-5.492420e-06	-1.536839e-08	-3.740224e+01	-1.004352e+03
2.870000e-06	-5.611390e-06	-1.548500e-08	-3.821240e+01	-1.012594e+03
2.880000e-06	-5.728176e-06	-1.559900e-08	-3.900769e+01	-1.020946e+03
2.890000e-06	-5.842654e-06	-1.570810e-08	-3.978726e+01	-1.029030e+03
2.900000e-06	-5.954757e-06	-1.581021e-08	-4.055066e+01	-1.036459e+03
2.910000e-06	-6.064603e-06	-1.590690e-08	-4.129868e+01	-1.043017e+03
2.920000e-06	-6.172320e-06	-1.600090e-08	-4.203221e+01	-1.048749e+03
2.930000e-06	-6.277950e-06	-1.609332e-08	-4.275153e+01	-1.053944e+03
2.940000e-06	-6.381389e-06	-1.618337e-08	-4.345593e+01	-1.058995e+03
