# Temperatura_=_19.65
# Concentracion g/m^3_=_13400.0
# C_Vs_to_Am_M_A/Vsm_=_65563218390.804596
# pendiente_HvsI_1/m_=_3716.3
# ordenada_HvsI_A/m_=_1297.0
# frecuencia_Hz_=_301421.6187663191

Tiempo_(s)	Campo_(V.s)	Magnetizacion_(V.s)	Campo_(kA/m)	Magnetizacion_(A/m)
0.000000e+00	-8.365091e-06	-1.797071e-08	-5.692412e+01	-1.176462e+03
1.000000e-08	-8.362151e-06	-1.797827e-08	-5.690411e+01	-1.175908e+03
2.000000e-08	-8.356392e-06	-1.797415e-08	-5.686492e+01	-1.175472e+03
3.000000e-08	-8.348007e-06	-1.796164e-08	-5.680786e+01	-1.175164e+03
4.000000e-08	-8.336692e-06	-1.795005e-08	-5.673086e+01	-1.174887e+03
5.000000e-08	-8.322319e-06	-1.794006e-08	-5.663306e+01	-1.174485e+03
6.000000e-08	-8.305015e-06	-1.792144e-08	-5.651530e+01	-1.173809e+03
7.000000e-08	-8.285148e-06	-1.787933e-08	-5.638011e+01	-1.172788e+03
8.000000e-08	-8.262835e-06	-1.785580e-08	-5.622827e+01	-1.171455e+03
9.000000e-08	-8.237416e-06	-1.795280e-08	-5.605529e+01	-1.169935e+03
1.000000e-07	-8.208499e-06	-1.792602e-08	-5.585851e+01	-1.168383e+03
1.100000e-07	-8.176414e-06	-1.782178e-08	-5.564018e+01	-1.166919e+03
1.200000e-07	-8.141393e-06	-1.780875e-08	-5.540186e+01	-1.165580e+03
1.300000e-07	-8.103673e-06	-1.781571e-08	-5.514517e+01	-1.164306e+03
1.400000e-07	-8.063602e-06	-1.772260e-08	-5.487250e+01	-1.162979e+03
1.500000e-07	-8.021062e-06	-1.760711e-08	-5.458301e+01	-1.161482e+03
1.600000e-07	-7.975733e-06	-1.779377e-08	-5.427455e+01	-1.159753e+03
1.700000e-07	-7.927614e-06	-1.764512e-08	-5.394710e+01	-1.157820e+03
1.800000e-07	-7.876532e-06	-1.763398e-08	-5.359949e+01	-1.155775e+03
1.900000e-07	-7.822302e-06	-1.774074e-08	-5.323046e+01	-1.153725e+03
2.000000e-07	-7.765232e-06	-1.753443e-08	-5.284210e+01	-1.151728e+03
2.100000e-07	-7.705376e-06	-1.754309e-08	-5.243478e+01	-1.149748e+03
2.200000e-07	-7.642749e-06	-1.743516e-08	-5.200861e+01	-1.147656e+03
2.300000e-07	-7.577408e-06	-1.743587e-08	-5.156396e+01	-1.145275e+03
2.400000e-07	-7.509219e-06	-1.742260e-08	-5.109994e+01	-1.142457e+03
2.500000e-07	-7.438240e-06	-1.733428e-08	-5.061693e+01	-1.139149e+03
2.600000e-07	-7.364404e-06	-1.734524e-08	-5.011448e+01	-1.135426e+03
2.700000e-07	-7.287684e-06	-1.725768e-08	-4.959241e+01	-1.131471e+03
2.800000e-07	-7.208130e-06	-1.721434e-08	-4.905104e+01	-1.127500e+03
2.900000e-07	-7.125831e-06	-1.709644e-08	-4.849100e+01	-1.123678e+03
3.000000e-07	-7.041141e-06	-1.705759e-08	-4.791469e+01	-1.120042e+03
3.100000e-07	-6.954192e-06	-1.703594e-08	-4.732301e+01	-1.116487e+03
3.200000e-07	-6.864838e-06	-1.694241e-08	-4.671495e+01	-1.112801e+03
3.300000e-07	-6.772956e-06	-1.691852e-08	-4.608970e+01	-1.108755e+03
3.400000e-07	-6.678643e-06	-1.680168e-08	-4.544790e+01	-1.104199e+03
3.500000e-07	-6.581988e-06	-1.673941e-08	-4.479017e+01	-1.099122e+03
3.600000e-07	-6.482877e-06	-1.666782e-08	-4.411572e+01	-1.093659e+03
3.700000e-07	-6.381325e-06	-1.658939e-08	-4.342466e+01	-1.088033e+03
3.800000e-07	-6.277498e-06	-1.650148e-08	-4.271813e+01	-1.082453e+03
3.900000e-07	-6.171383e-06	-1.641199e-08	-4.199602e+01	-1.077026e+03
4.000000e-07	-6.063010e-06	-1.635020e-08	-4.125854e+01	-1.071701e+03
4.100000e-07	-5.952531e-06	-1.623943e-08	-4.050674e+01	-1.066295e+03
4.200000e-07	-5.839874e-06	-1.614792e-08	-3.974012e+01	-1.060560e+03
4.300000e-07	-5.724920e-06	-1.603180e-08	-3.895785e+01	-1.054297e+03
4.400000e-07	-5.607722e-06	-1.594514e-08	-3.816033e+01	-1.047434e+03
4.500000e-07	-5.488421e-06	-1.584959e-08	-3.734849e+01	-1.040063e+03
4.600000e-07	-5.367134e-06	-1.574473e-08	-3.652313e+01	-1.032392e+03
4.700000e-07	-5.243979e-06	-1.562663e-08	-3.568507e+01	-1.024654e+03
4.800000e-07	-5.118922e-06	-1.550400e-08	-3.483406e+01	-1.016996e+03
4.900000e-07	-4.992014e-06	-1.538791e-08	-3.397046e+01	-1.009414e+03
5.000000e-07	-4.863333e-06	-1.525516e-08	-3.309479e+01	-1.001743e+03
5.100000e-07	-4.732905e-06	-1.512105e-08	-3.220723e+01	-9.937252e+02
5.200000e-07	-4.600735e-06	-1.497812e-08	-3.130782e+01	-9.851248e+02
5.300000e-07	-4.466887e-06	-1.484925e-08	-3.039699e+01	-9.758263e+02
5.400000e-07	-4.331495e-06	-1.471112e-08	-2.947565e+01	-9.658881e+02
5.500000e-07	-4.194466e-06	-1.456229e-08	-2.854318e+01	-9.555145e+02
5.600000e-07	-4.055820e-06	-1.440158e-08	-2.759970e+01	-9.449608e+02
5.700000e-07	-3.915588e-06	-1.423863e-08	-2.664542e+01	-9.344112e+02
5.800000e-07	-3.773747e-06	-1.407396e-08	-2.568020e+01	-9.238840e+02
5.900000e-07	-3.630408e-06	-1.389737e-08	-2.470478e+01	-9.132091e+02
6.000000e-07	-3.485716e-06	-1.371614e-08	-2.372016e+01	-9.020900e+02
6.100000e-07	-3.339729e-06	-1.352765e-08	-2.272673e+01	-8.902277e+02
6.200000e-07	-3.192569e-06	-1.334050e-08	-2.172530e+01	-8.774502e+02
6.300000e-07	-3.044343e-06	-1.314163e-08	-2.071663e+01	-8.637907e+02
6.400000e-07	-2.895053e-06	-1.293253e-08	-1.970072e+01	-8.494744e+02
6.500000e-07	-2.744843e-06	-1.271667e-08	-1.867855e+01	-8.348144e+02
6.600000e-07	-2.593778e-06	-1.249355e-08	-1.765056e+01	-8.200600e+02
6.700000e-07	-2.441755e-06	-1.226128e-08	-1.661604e+01	-8.052628e+02
6.800000e-07	-2.288744e-06	-1.201597e-08	-1.557481e+01	-7.902233e+02
6.900000e-07	-2.134840e-06	-1.176452e-08	-1.452751e+01	-7.745491e+02
7.000000e-07	-1.980200e-06	-1.150269e-08	-1.347519e+01	-7.578036e+02
7.100000e-07	-1.824931e-06	-1.122997e-08	-1.241859e+01	-7.396867e+02
7.200000e-07	-1.669044e-06	-1.093863e-08	-1.135778e+01	-7.201630e+02
7.300000e-07	-1.512468e-06	-1.063725e-08	-1.029228e+01	-6.994766e+02
7.400000e-07	-1.355206e-06	-1.032614e-08	-9.222122e+00	-6.780333e+02
7.500000e-07	-1.197396e-06	-1.000081e-08	-8.148230e+00	-6.561930e+02
7.600000e-07	-1.039184e-06	-9.656406e-09	-7.071608e+00	-6.340580e+02
7.700000e-07	-8.806808e-07	-9.288781e-09	-5.992998e+00	-6.113559e+02
7.800000e-07	-7.219252e-07	-8.905100e-09	-4.912673e+00	-5.874803e+02
7.900000e-07	-5.629096e-07	-8.498684e-09	-3.830578e+00	-5.616893e+02
8.000000e-07	-4.036620e-07	-8.068209e-09	-2.746904e+00	-5.333902e+02
8.100000e-07	-2.443074e-07	-7.608966e-09	-1.662502e+00	-5.023862e+02
8.200000e-07	-8.491152e-08	-7.125714e-09	-5.778196e-01	-4.689645e+02
8.300000e-07	7.450669e-08	-6.614958e-09	5.070151e-01	-4.337519e+02
8.400000e-07	2.338601e-07	-6.070536e-09	1.591409e+00	-3.973599e+02
8.500000e-07	3.931489e-07	-5.484358e-09	2.675363e+00	-3.599295e+02
8.600000e-07	5.523410e-07	-4.845918e-09	3.758659e+00	-3.207536e+02
8.700000e-07	7.113661e-07	-4.153900e-09	4.840818e+00	-2.781503e+02
8.800000e-07	8.701684e-07	-3.393456e-09	5.921462e+00	-2.296921e+02
8.900000e-07	1.028707e-06	-2.541218e-09	7.000309e+00	-1.727805e+02
9.000000e-07	1.186944e-06	-1.561527e-09	8.077107e+00	-1.054245e+02
9.100000e-07	1.344741e-06	-4.188443e-10	9.150910e+00	-2.699495e+01
9.200000e-07	1.501929e-06	9.144813e-10	1.022057e+01	6.129018e+01
9.300000e-07	1.658442e-06	2.413252e-09	1.128563e+01	1.563313e+02
9.400000e-07	1.814317e-06	3.976031e-09	1.234636e+01	2.536083e+02
9.500000e-07	1.969538e-06	5.460243e-09	1.340263e+01	3.480324e+02
9.600000e-07	2.124113e-06	6.758002e-09	1.445451e+01	4.349583e+02
9.700000e-07	2.277983e-06	7.846422e-09	1.550159e+01	5.110760e+02
9.800000e-07	2.430958e-06	8.754713e-09	1.654258e+01	5.749390e+02
9.900000e-07	2.582961e-06	9.522896e-09	1.757695e+01	6.270037e+02
1.000000e-06	2.734099e-06	1.017649e-08	1.860544e+01	6.692039e+02
1.010000e-06	2.884306e-06	1.073921e-08	1.962759e+01	7.042236e+02
1.020000e-06	3.033414e-06	1.123189e-08	2.064226e+01	7.347071e+02
1.030000e-06	3.181459e-06	1.167007e-08	2.164971e+01	7.626427e+02
1.040000e-06	3.328419e-06	1.206539e-08	2.264976e+01	7.890724e+02
1.050000e-06	3.474191e-06	1.242416e-08	2.364173e+01	8.141589e+02
1.060000e-06	3.618736e-06	1.275502e-08	2.462536e+01	8.375217e+02
1.070000e-06	3.761939e-06	1.305990e-08	2.559985e+01	8.586751e+02
1.080000e-06	3.903652e-06	1.333989e-08	2.656420e+01	8.773925e+02
1.090000e-06	4.043856e-06	1.359849e-08	2.751828e+01	8.938765e+02
1.100000e-06	4.182547e-06	1.384138e-08	2.846207e+01	9.087032e+02
1.110000e-06	4.319672e-06	1.407023e-08	2.939520e+01	9.225997e+02
1.120000e-06	4.455214e-06	1.428514e-08	3.031756e+01	9.361727e+02
1.130000e-06	4.589160e-06	1.448517e-08	3.122905e+01	9.497080e+02
1.140000e-06	4.721416e-06	1.467451e-08	3.212905e+01	9.631198e+02
1.150000e-06	4.851981e-06	1.485748e-08	3.301754e+01	9.760565e+02
1.160000e-06	4.980857e-06	1.503188e-08	3.389454e+01	9.881044e+02
1.170000e-06	5.107944e-06	1.519604e-08	3.475936e+01	9.989960e+02
1.180000e-06	5.233247e-06	1.534805e-08	3.561204e+01	1.008735e+03
1.190000e-06	5.356724e-06	1.549382e-08	3.645229e+01	1.017590e+03
1.200000e-06	5.478273e-06	1.563603e-08	3.727943e+01	1.025976e+03
1.210000e-06	5.597802e-06	1.577444e-08	3.809282e+01	1.034273e+03
1.220000e-06	5.715204e-06	1.590360e-08	3.889174e+01	1.042678e+03
1.230000e-06	5.830457e-06	1.602321e-08	3.967603e+01	1.051138e+03
1.240000e-06	5.943527e-06	1.613679e-08	4.044547e+01	1.059398e+03
1.250000e-06	6.054393e-06	1.624623e-08	4.119991e+01	1.067134e+03
1.260000e-06	6.163062e-06	1.634924e-08	4.193939e+01	1.074109e+03
1.270000e-06	6.269569e-06	1.644371e-08	4.266417e+01	1.080282e+03
1.280000e-06	6.373845e-06	1.653583e-08	4.337377e+01	1.085826e+03
1.290000e-06	6.475808e-06	1.662631e-08	4.406762e+01	1.091057e+03
1.300000e-06	6.575422e-06	1.671162e-08	4.474549e+01	1.096293e+03
1.310000e-06	6.672645e-06	1.679066e-08	4.540708e+01	1.101728e+03
1.320000e-06	6.767496e-06	1.686739e-08	4.605255e+01	1.107353e+03
1.330000e-06	6.859971e-06	1.694405e-08	4.668183e+01	1.112975e+03
1.340000e-06	6.950021e-06	1.701646e-08	4.729462e+01	1.118308e+03
1.350000e-06	7.037612e-06	1.708348e-08	4.789067e+01	1.123104e+03
1.360000e-06	7.122766e-06	1.714776e-08	4.847014e+01	1.127260e+03
1.370000e-06	7.205450e-06	1.721263e-08	4.903280e+01	1.130862e+03
1.380000e-06	7.285567e-06	1.727500e-08	4.957800e+01	1.134142e+03
1.390000e-06	7.363029e-06	1.732951e-08	5.010512e+01	1.137376e+03
1.400000e-06	7.437740e-06	1.737646e-08	5.061353e+01	1.140767e+03
1.410000e-06	7.509689e-06	1.742330e-08	5.110314e+01	1.144364e+03
1.420000e-06	7.578994e-06	1.747482e-08	5.157475e+01	1.148046e+03
1.430000e-06	7.645586e-06	1.752665e-08	5.202791e+01	1.151582e+03
1.440000e-06	7.709377e-06	1.757235e-08	5.246200e+01	1.154739e+03
1.450000e-06	7.770595e-06	1.761230e-08	5.287859e+01	1.157382e+03
1.460000e-06	7.829131e-06	1.765334e-08	5.327693e+01	1.159528e+03
1.470000e-06	7.884810e-06	1.769183e-08	5.365582e+01	1.161336e+03
1.480000e-06	7.937560e-06	1.772043e-08	5.401478e+01	1.163034e+03
1.490000e-06	7.987058e-06	1.774025e-08	5.435162e+01	1.164817e+03
1.500000e-06	8.033487e-06	1.776229e-08	5.466757e+01	1.166765e+03
1.510000e-06	8.077124e-06	1.779158e-08	5.496451e+01	1.168814e+03
1.520000e-06	8.117821e-06	1.781959e-08	5.524145e+01	1.170791e+03
1.530000e-06	8.155697e-06	1.784135e-08	5.549920e+01	1.172491e+03
1.540000e-06	8.190811e-06	1.785859e-08	5.573815e+01	1.173774e+03
1.550000e-06	8.223004e-06	1.787693e-08	5.595722e+01	1.174626e+03
1.560000e-06	8.252396e-06	1.789495e-08	5.615723e+01	1.175161e+03
1.570000e-06	8.278847e-06	1.790510e-08	5.633723e+01	1.175571e+03
1.580000e-06	8.302270e-06	1.790944e-08	5.649662e+01	1.176044e+03
1.590000e-06	8.322884e-06	1.791559e-08	5.663690e+01	1.176679e+03
1.600000e-06	8.340597e-06	1.792469e-08	5.675744e+01	1.177450e+03
1.610000e-06	8.355216e-06	1.793261e-08	5.685692e+01	1.178222e+03
1.620000e-06	8.366542e-06	1.793695e-08	5.693399e+01	1.178813e+03
1.630000e-06	8.374696e-06	1.793977e-08	5.698948e+01	1.179075e+03
1.640000e-06	8.379995e-06	1.794346e-08	5.702554e+01	1.178963e+03
1.650000e-06	8.382341e-06	1.794531e-08	5.704150e+01	1.178547e+03
1.660000e-06	8.381800e-06	1.794433e-08	5.703782e+01	1.177983e+03
1.670000e-06	8.378586e-06	1.792420e-08	5.701595e+01	1.177437e+03
1.680000e-06	8.372522e-06	1.791893e-08	5.697468e+01	1.177016e+03
1.690000e-06	8.363614e-06	1.791884e-08	5.691406e+01	1.176716e+03
1.700000e-06	8.351835e-06	1.790993e-08	5.683391e+01	1.176433e+03
1.710000e-06	8.337103e-06	1.790136e-08	5.673366e+01	1.176007e+03
1.720000e-06	8.319777e-06	1.790818e-08	5.661575e+01	1.175295e+03
1.730000e-06	8.300029e-06	1.794298e-08	5.648137e+01	1.174236e+03
1.740000e-06	8.277410e-06	1.780716e-08	5.632745e+01	1.172876e+03
1.750000e-06	8.251179e-06	1.774574e-08	5.614895e+01	1.171344e+03
1.760000e-06	8.221018e-06	1.781382e-08	5.594370e+01	1.169796e+03
1.770000e-06	8.187587e-06	1.778960e-08	5.571621e+01	1.168345e+03
1.780000e-06	8.151671e-06	1.773165e-08	5.547180e+01	1.167016e+03
1.790000e-06	8.113408e-06	1.784229e-08	5.521142e+01	1.165742e+03
1.800000e-06	8.073094e-06	1.781322e-08	5.493709e+01	1.164401e+03
1.810000e-06	8.030552e-06	1.758985e-08	5.464759e+01	1.162879e+03
1.820000e-06	7.985040e-06	1.777739e-08	5.433789e+01	1.161126e+03
1.830000e-06	7.936727e-06	1.759521e-08	5.400912e+01	1.159175e+03
1.840000e-06	7.885302e-06	1.757731e-08	5.365917e+01	1.157123e+03
1.850000e-06	7.830510e-06	1.765704e-08	5.328631e+01	1.155077e+03
1.860000e-06	7.773013e-06	1.751057e-08	5.289505e+01	1.153085e+03
1.870000e-06	7.712731e-06	1.771521e-08	5.248483e+01	1.151099e+03
1.880000e-06	7.649687e-06	1.750283e-08	5.205582e+01	1.148984e+03
1.890000e-06	7.583909e-06	1.749603e-08	5.160820e+01	1.146562e+03
1.900000e-06	7.515202e-06	1.744782e-08	5.114065e+01	1.143691e+03
1.910000e-06	7.443595e-06	1.731666e-08	5.065337e+01	1.140331e+03
1.920000e-06	7.369077e-06	1.739608e-08	5.014628e+01	1.136573e+03
1.930000e-06	7.291780e-06	1.723618e-08	4.962027e+01	1.132605e+03
1.940000e-06	7.211779e-06	1.731344e-08	4.907587e+01	1.128644e+03
1.950000e-06	7.129297e-06	1.716016e-08	4.851459e+01	1.124841e+03
1.960000e-06	7.044271e-06	1.711509e-08	4.793599e+01	1.121221e+03
1.970000e-06	6.956563e-06	1.707822e-08	4.733914e+01	1.117662e+03
1.980000e-06	6.866421e-06	1.692589e-08	4.672572e+01	1.113947e+03
1.990000e-06	6.773923e-06	1.697161e-08	4.609628e+01	1.109851e+03
2.000000e-06	6.679046e-06	1.683874e-08	4.545064e+01	1.105236e+03
2.010000e-06	6.581753e-06	1.683928e-08	4.478857e+01	1.100108e+03
2.020000e-06	6.482167e-06	1.670216e-08	4.411089e+01	1.094616e+03
2.030000e-06	6.380152e-06	1.663518e-08	4.341668e+01	1.088985e+03
2.040000e-06	6.275760e-06	1.654004e-08	4.270630e+01	1.083418e+03
2.050000e-06	6.169259e-06	1.644306e-08	4.198157e+01	1.078006e+03
2.060000e-06	6.060620e-06	1.638861e-08	4.124228e+01	1.072683e+03
2.070000e-06	5.949796e-06	1.627715e-08	4.048813e+01	1.067252e+03
2.080000e-06	5.836711e-06	1.622632e-08	3.971859e+01	1.061468e+03
2.090000e-06	5.721382e-06	1.610312e-08	3.893378e+01	1.055140e+03
2.100000e-06	5.603760e-06	1.601251e-08	3.813337e+01	1.048215e+03
2.110000e-06	5.483933e-06	1.587852e-08	3.731795e+01	1.040800e+03
2.120000e-06	5.362145e-06	1.577663e-08	3.648918e+01	1.033111e+03
2.130000e-06	5.238519e-06	1.565448e-08	3.564792e+01	1.025375e+03
2.140000e-06	5.113002e-06	1.555232e-08	3.479378e+01	1.017729e+03
2.150000e-06	4.985552e-06	1.542974e-08	3.392649e+01	1.010146e+03
2.160000e-06	4.856321e-06	1.530990e-08	3.304707e+01	1.002450e+03
2.170000e-06	4.725424e-06	1.518285e-08	3.215633e+01	9.943791e+02
2.180000e-06	4.592869e-06	1.504474e-08	3.125429e+01	9.857057e+02
2.190000e-06	4.458696e-06	1.490534e-08	3.034125e+01	9.763321e+02
2.200000e-06	4.322846e-06	1.475354e-08	2.941680e+01	9.663348e+02
2.210000e-06	4.185343e-06	1.461507e-08	2.848110e+01	9.559292e+02
2.220000e-06	4.046324e-06	1.445479e-08	2.753508e+01	9.453687e+02
2.230000e-06	3.905749e-06	1.429928e-08	2.657847e+01	9.348233e+02
2.240000e-06	3.763734e-06	1.412543e-08	2.561207e+01	9.242907e+02
2.250000e-06	3.620315e-06	1.395905e-08	2.463610e+01	9.135828e+02
2.260000e-06	3.475587e-06	1.378172e-08	2.365123e+01	9.023963e+02
2.270000e-06	3.329704e-06	1.359835e-08	2.265850e+01	8.904401e+02
2.280000e-06	3.182671e-06	1.340188e-08	2.165795e+01	8.775619e+02
2.290000e-06	3.034431e-06	1.320047e-08	2.064919e+01	8.638179e+02
2.300000e-06	2.885107e-06	1.299514e-08	1.963304e+01	8.494488e+02
2.310000e-06	2.734890e-06	1.278218e-08	1.861082e+01	8.347685e+02
2.320000e-06	2.583675e-06	1.255771e-08	1.758181e+01	8.200107e+02
2.330000e-06	2.431425e-06	1.232309e-08	1.654575e+01	8.052006e+02
2.340000e-06	2.278282e-06	1.208161e-08	1.550362e+01	7.901134e+02
2.350000e-06	2.124361e-06	1.182752e-08	1.445620e+01	7.743435e+02
2.360000e-06	1.969664e-06	1.156248e-08	1.340349e+01	7.574608e+02
2.370000e-06	1.814210e-06	1.129004e-08	1.234563e+01	7.391888e+02
2.380000e-06	1.658030e-06	1.100986e-08	1.128283e+01	7.195239e+02
2.390000e-06	1.501229e-06	1.071146e-08	1.021580e+01	6.987351e+02
2.400000e-06	1.343939e-06	1.039068e-08	9.145455e+00	6.772342e+02
2.410000e-06	1.186209e-06	1.005126e-08	8.072106e+00	6.553627e+02
2.420000e-06	1.028111e-06	9.700310e-09	6.996258e+00	6.331861e+02
2.430000e-06	8.696750e-07	9.336499e-09	5.918104e+00	6.103911e+02
2.440000e-06	7.109169e-07	8.954371e-09	4.837762e+00	5.863447e+02
2.450000e-06	5.519245e-07	8.550868e-09	3.755825e+00	5.603073e+02
2.460000e-06	3.927638e-07	8.126794e-09	2.672742e+00	5.317185e+02
2.470000e-06	2.335115e-07	7.672376e-09	1.589037e+00	5.004329e+02
2.480000e-06	7.418056e-08	7.179524e-09	5.047958e-01	4.667852e+02
2.490000e-06	-8.517808e-08	6.649700e-09	-5.796335e-01	4.314208e+02
2.500000e-06	-2.444436e-07	6.092983e-09	-1.663429e+00	3.949224e+02
2.510000e-06	-4.035968e-07	5.507594e-09	-2.746461e+00	3.573553e+02
2.520000e-06	-5.626339e-07	4.878192e-09	-3.828701e+00	3.179083e+02
2.530000e-06	-7.214941e-07	4.186961e-09	-4.909739e+00	2.748019e+02
2.540000e-06	-8.800916e-07	3.420805e-09	-5.988989e+00	2.255577e+02
2.550000e-06	-1.038389e-06	2.563856e-09	-7.066198e+00	1.676032e+02
2.560000e-06	-1.196301e-06	1.584248e-09	-8.140783e+00	9.906009e+01
2.570000e-06	-1.353793e-06	4.379281e-10	-9.212506e+00	1.948091e+01
2.580000e-06	-1.510808e-06	-9.044106e-10	-1.028099e+01	-6.970770e+01
2.590000e-06	-1.667292e-06	-2.411960e-09	-1.134586e+01	-1.652235e+02
2.600000e-06	-1.823174e-06	-3.978571e-09	-1.240663e+01	-2.624397e+02
2.610000e-06	-1.978267e-06	-5.465461e-09	-1.346203e+01	-3.562663e+02
2.620000e-06	-2.132625e-06	-6.771020e-09	-1.451243e+01	-4.421632e+02
2.630000e-06	-2.286268e-06	-7.864176e-09	-1.555796e+01	-5.170028e+02
2.640000e-06	-2.439079e-06	-8.769434e-09	-1.659784e+01	-5.795495e+02
2.650000e-06	-2.590911e-06	-9.529716e-09	-1.763105e+01	-6.304457e+02
2.660000e-06	-2.741765e-06	-1.018401e-08	-1.865760e+01	-6.717433e+02
2.670000e-06	-2.891683e-06	-1.075631e-08	-1.967779e+01	-7.061586e+02
2.680000e-06	-3.040617e-06	-1.125826e-08	-2.069128e+01	-7.362904e+02
2.690000e-06	-3.188465e-06	-1.170288e-08	-2.169738e+01	-7.640329e+02
2.700000e-06	-3.335164e-06	-1.210382e-08	-2.269566e+01	-7.903246e+02
2.710000e-06	-3.480705e-06	-1.246581e-08	-2.368606e+01	-8.152510e+02
2.720000e-06	-3.624952e-06	-1.279114e-08	-2.466766e+01	-8.383991e+02
2.730000e-06	-3.767808e-06	-1.308726e-08	-2.563979e+01	-8.592961e+02
2.740000e-06	-3.909276e-06	-1.336366e-08	-2.660247e+01	-8.777574e+02
2.750000e-06	-4.049298e-06	-1.362745e-08	-2.755531e+01	-8.940321e+02
2.760000e-06	-4.187809e-06	-1.387789e-08	-2.849788e+01	-9.087250e+02
2.770000e-06	-4.324766e-06	-1.411272e-08	-2.942986e+01	-9.225631e+02
2.780000e-06	-4.460073e-06	-1.433022e-08	-3.035062e+01	-9.361259e+02
2.790000e-06	-4.593755e-06	-1.453157e-08	-3.126032e+01	-9.496589e+02
2.800000e-06	-4.725805e-06	-1.472101e-08	-3.215892e+01	-9.630404e+02
2.810000e-06	-4.856158e-06	-1.489908e-08	-3.304597e+01	-9.759014e+02
2.820000e-06	-4.984762e-06	-1.506771e-08	-3.392111e+01	-9.878348e+02
2.830000e-06	-5.111591e-06	-1.523196e-08	-3.478417e+01	-9.985983e+02
2.840000e-06	-5.236675e-06	-1.539187e-08	-3.563536e+01	-1.008226e+03
2.850000e-06	-5.359969e-06	-1.554090e-08	-3.647438e+01	-1.017011e+03
2.860000e-06	-5.481348e-06	-1.567526e-08	-3.730036e+01	-1.025372e+03
2.870000e-06	-5.600633e-06	-1.580173e-08	-3.811209e+01	-1.033677e+03
2.880000e-06	-5.717750e-06	-1.592680e-08	-3.890906e+01	-1.042096e+03
2.890000e-06	-5.832579e-06	-1.604873e-08	-3.969047e+01	-1.050550e+03
2.900000e-06	-5.945031e-06	-1.616353e-08	-4.045570e+01	-1.058769e+03
2.910000e-06	-6.055214e-06	-1.627205e-08	-4.120549e+01	-1.066433e+03
2.920000e-06	-6.163249e-06	-1.637650e-08	-4.194067e+01	-1.073321e+03
2.930000e-06	-6.269242e-06	-1.647557e-08	-4.266194e+01	-1.079415e+03
2.940000e-06	-6.373061e-06	-1.656933e-08	-4.336843e+01	-1.084910e+03
