# Temperatura_=_55.16
# Concentracion g/m^3_=_13400.0
# C_Vs_to_Am_M_A/Vsm_=_65563218390.804596
# pendiente_HvsI_1/m_=_3716.3
# ordenada_HvsI_A/m_=_1297.0
# frecuencia_Hz_=_301415.93454063387

Tiempo_(s)	Campo_(V.s)	Magnetizacion_(V.s)	Campo_(kA/m)	Magnetizacion_(A/m)
0.000000e+00	-8.385769e-06	-1.720531e-08	-5.692427e+01	-1.128694e+03
1.000000e-08	-8.382648e-06	-1.720964e-08	-5.690309e+01	-1.128487e+03
2.000000e-08	-8.376754e-06	-1.720251e-08	-5.686308e+01	-1.128435e+03
3.000000e-08	-8.368226e-06	-1.719079e-08	-5.680518e+01	-1.128374e+03
4.000000e-08	-8.356820e-06	-1.717993e-08	-5.672776e+01	-1.128093e+03
5.000000e-08	-8.342348e-06	-1.716601e-08	-5.662952e+01	-1.127429e+03
6.000000e-08	-8.324850e-06	-1.714533e-08	-5.651074e+01	-1.126341e+03
7.000000e-08	-8.304747e-06	-1.711349e-08	-5.637428e+01	-1.124934e+03
8.000000e-08	-8.282126e-06	-1.712073e-08	-5.622073e+01	-1.123411e+03
9.000000e-08	-8.256355e-06	-1.722189e-08	-5.604578e+01	-1.121991e+03
1.000000e-07	-8.227182e-06	-1.718767e-08	-5.584775e+01	-1.120815e+03
1.100000e-07	-8.194879e-06	-1.708506e-08	-5.562848e+01	-1.119885e+03
1.200000e-07	-8.159624e-06	-1.706773e-08	-5.538915e+01	-1.119066e+03
1.300000e-07	-8.121690e-06	-1.706132e-08	-5.513165e+01	-1.118147e+03
1.400000e-07	-8.081408e-06	-1.695733e-08	-5.485821e+01	-1.116932e+03
1.500000e-07	-8.038600e-06	-1.686053e-08	-5.456762e+01	-1.115323e+03
1.600000e-07	-7.992969e-06	-1.703016e-08	-5.425787e+01	-1.113353e+03
1.700000e-07	-7.944494e-06	-1.690551e-08	-5.392881e+01	-1.111165e+03
1.800000e-07	-7.892978e-06	-1.688843e-08	-5.357911e+01	-1.108932e+03
1.900000e-07	-7.838352e-06	-1.695812e-08	-5.320830e+01	-1.106775e+03
2.000000e-07	-7.780940e-06	-1.677650e-08	-5.281857e+01	-1.104696e+03
2.100000e-07	-7.720811e-06	-1.678805e-08	-5.241040e+01	-1.102574e+03
2.200000e-07	-7.657926e-06	-1.669791e-08	-5.198353e+01	-1.100217e+03
2.300000e-07	-7.592254e-06	-1.669036e-08	-5.153773e+01	-1.097454e+03
2.400000e-07	-7.523770e-06	-1.666782e-08	-5.107285e+01	-1.094214e+03
2.500000e-07	-7.452500e-06	-1.659596e-08	-5.058906e+01	-1.090573e+03
2.600000e-07	-7.378313e-06	-1.659682e-08	-5.008546e+01	-1.086721e+03
2.700000e-07	-7.301257e-06	-1.651531e-08	-4.956239e+01	-1.082887e+03
2.800000e-07	-7.221385e-06	-1.647442e-08	-4.902020e+01	-1.079240e+03
2.900000e-07	-7.138786e-06	-1.636473e-08	-4.845950e+01	-1.075805e+03
3.000000e-07	-7.053786e-06	-1.633259e-08	-4.788250e+01	-1.072452e+03
3.100000e-07	-6.966417e-06	-1.630035e-08	-4.728943e+01	-1.068944e+03
3.200000e-07	-6.876594e-06	-1.620413e-08	-4.667969e+01	-1.065041e+03
3.300000e-07	-6.784286e-06	-1.617293e-08	-4.605308e+01	-1.060599e+03
3.400000e-07	-6.689547e-06	-1.607607e-08	-4.540998e+01	-1.055640e+03
3.500000e-07	-6.592467e-06	-1.602052e-08	-4.475098e+01	-1.050338e+03
3.600000e-07	-6.492969e-06	-1.594856e-08	-4.407557e+01	-1.044950e+03
3.700000e-07	-6.391076e-06	-1.587202e-08	-4.338390e+01	-1.039696e+03
3.800000e-07	-6.286865e-06	-1.578121e-08	-4.267650e+01	-1.034658e+03
3.900000e-07	-6.180333e-06	-1.569469e-08	-4.195333e+01	-1.029743e+03
4.000000e-07	-6.071601e-06	-1.562889e-08	-4.121524e+01	-1.024714e+03
4.100000e-07	-5.960724e-06	-1.552250e-08	-4.046258e+01	-1.019289e+03
4.200000e-07	-5.847604e-06	-1.543562e-08	-3.969471e+01	-1.013267e+03
4.300000e-07	-5.732161e-06	-1.533240e-08	-3.891105e+01	-1.006614e+03
4.400000e-07	-5.614456e-06	-1.524916e-08	-3.811205e+01	-9.994802e+02
4.500000e-07	-5.494695e-06	-1.515221e-08	-3.729908e+01	-9.921341e+02
4.600000e-07	-5.372985e-06	-1.504541e-08	-3.647289e+01	-9.848413e+02
4.700000e-07	-5.249345e-06	-1.492919e-08	-3.563360e+01	-9.777413e+02
4.800000e-07	-5.123796e-06	-1.481296e-08	-3.478135e+01	-9.707780e+02
4.900000e-07	-4.996436e-06	-1.469864e-08	-3.391681e+01	-9.637156e+02
5.000000e-07	-4.867338e-06	-1.456894e-08	-3.304046e+01	-9.562363e+02
5.100000e-07	-4.736467e-06	-1.444223e-08	-3.215208e+01	-9.480773e+02
5.200000e-07	-4.603843e-06	-1.431224e-08	-3.125180e+01	-9.391479e+02
5.300000e-07	-4.469556e-06	-1.418610e-08	-3.034024e+01	-9.295723e+02
5.400000e-07	-4.333668e-06	-1.404589e-08	-2.941780e+01	-9.196356e+02
5.500000e-07	-4.196188e-06	-1.389643e-08	-2.848456e+01	-9.096548e+02
5.600000e-07	-4.057074e-06	-1.374168e-08	-2.754023e+01	-8.998298e+02
5.700000e-07	-3.916319e-06	-1.358678e-08	-2.658475e+01	-8.901407e+02
5.800000e-07	-3.774001e-06	-1.342538e-08	-2.561867e+01	-8.803408e+02
5.900000e-07	-3.630257e-06	-1.325156e-08	-2.464291e+01	-8.700530e+02
6.000000e-07	-3.485218e-06	-1.307469e-08	-2.365836e+01	-8.589291e+02
6.100000e-07	-3.338901e-06	-1.289572e-08	-2.266513e+01	-8.468049e+02
6.200000e-07	-3.191344e-06	-1.271744e-08	-2.166348e+01	-8.337771e+02
6.300000e-07	-3.042727e-06	-1.252484e-08	-2.065464e+01	-8.201657e+02
6.400000e-07	-2.893124e-06	-1.232158e-08	-1.963910e+01	-8.063688e+02
6.500000e-07	-2.742500e-06	-1.211459e-08	-1.861664e+01	-7.926732e+02
6.600000e-07	-2.590898e-06	-1.189989e-08	-1.758753e+01	-7.791016e+02
6.700000e-07	-2.438403e-06	-1.167026e-08	-1.655237e+01	-7.653705e+02
6.800000e-07	-2.285053e-06	-1.142539e-08	-1.551140e+01	-7.509855e+02
6.900000e-07	-2.130903e-06	-1.117787e-08	-1.446499e+01	-7.354396e+02
7.000000e-07	-1.975906e-06	-1.092628e-08	-1.341285e+01	-7.184310e+02
7.100000e-07	-1.820083e-06	-1.066636e-08	-1.235509e+01	-7.000020e+02
7.200000e-07	-1.663622e-06	-1.039034e-08	-1.129299e+01	-6.805273e+02
7.300000e-07	-1.506596e-06	-1.010156e-08	-1.022707e+01	-6.605431e+02
7.400000e-07	-1.348992e-06	-9.799663e-09	-9.157225e+00	-6.404797e+02
7.500000e-07	-1.190862e-06	-9.480967e-09	-8.083807e+00	-6.204109e+02
7.600000e-07	-1.032293e-06	-9.139898e-09	-7.007414e+00	-5.999378e+02
7.700000e-07	-8.733842e-07	-8.776381e-09	-5.928706e+00	-5.782733e+02
7.800000e-07	-7.142050e-07	-8.401247e-09	-4.848166e+00	-5.545143e+02
7.900000e-07	-5.547443e-07	-8.008564e-09	-3.765715e+00	-5.279966e+02
8.000000e-07	-3.950134e-07	-7.588180e-09	-2.681430e+00	-4.985795e+02
8.100000e-07	-2.351334e-07	-7.132425e-09	-1.596132e+00	-4.667135e+02
8.200000e-07	-7.521678e-08	-6.645767e-09	-5.105865e-01	-4.332207e+02
8.300000e-07	8.470753e-08	-6.126457e-09	5.750116e-01	-3.988298e+02
8.400000e-07	2.445714e-07	-5.565235e-09	1.660200e+00	-3.636218e+02
8.500000e-07	4.043179e-07	-4.949522e-09	2.744590e+00	-3.266047e+02
8.600000e-07	5.639153e-07	-4.269276e-09	3.827969e+00	-2.856218e+02
8.700000e-07	7.233001e-07	-3.515818e-09	4.909905e+00	-2.377014e+02
8.800000e-07	8.824082e-07	-2.660848e-09	5.989963e+00	-1.798038e+02
8.900000e-07	1.041234e-06	-1.663442e-09	7.068105e+00	-1.097735e+02
9.000000e-07	1.199754e-06	-4.730740e-10	8.144167e+00	-2.720671e+01
9.100000e-07	1.357811e-06	9.415623e-10	9.217094e+00	6.605667e+01
9.200000e-07	1.515257e-06	2.545203e-09	1.028586e+01	1.660092e+02
9.300000e-07	1.672115e-06	4.195730e-09	1.135065e+01	2.671416e+02
9.400000e-07	1.828475e-06	5.711938e-09	1.241206e+01	3.635340e+02
9.500000e-07	1.984279e-06	6.982046e-09	1.346968e+01	4.500737e+02
9.600000e-07	2.139251e-06	7.999856e-09	1.452166e+01	5.234541e+02
9.700000e-07	2.293259e-06	8.822523e-09	1.556710e+01	5.826846e+02
9.800000e-07	2.446445e-06	9.505619e-09	1.660696e+01	6.289901e+02
9.900000e-07	2.598847e-06	1.008586e-08	1.764149e+01	6.651739e+02
1.000000e-06	2.750350e-06	1.058094e-08	1.866993e+01	6.946703e+02
1.010000e-06	2.900828e-06	1.101106e-08	1.969140e+01	7.205928e+02
1.020000e-06	3.050205e-06	1.139839e-08	2.070540e+01	7.450553e+02
1.030000e-06	3.198531e-06	1.175324e-08	2.171227e+01	7.689256e+02
1.040000e-06	3.345712e-06	1.207572e-08	2.271136e+01	7.920184e+02
1.050000e-06	3.491658e-06	1.236486e-08	2.370207e+01	8.135842e+02
1.060000e-06	3.636380e-06	1.263267e-08	2.468447e+01	8.328771e+02
1.070000e-06	3.779740e-06	1.288566e-08	2.565763e+01	8.495861e+02
1.080000e-06	3.921682e-06	1.312373e-08	2.662116e+01	8.639947e+02
1.090000e-06	4.062164e-06	1.334317e-08	2.757478e+01	8.768549e+02
1.100000e-06	4.201051e-06	1.354867e-08	2.851757e+01	8.890700e+02
1.110000e-06	4.338337e-06	1.374686e-08	2.944950e+01	9.013428e+02
1.120000e-06	4.474093e-06	1.393412e-08	3.037104e+01	9.139386e+02
1.130000e-06	4.608221e-06	1.410702e-08	3.128153e+01	9.266499e+02
1.140000e-06	4.740674e-06	1.426986e-08	3.218064e+01	9.389575e+02
1.150000e-06	4.871410e-06	1.443218e-08	3.306810e+01	9.503030e+02
1.160000e-06	5.000416e-06	1.459032e-08	3.394382e+01	9.603492e+02
1.170000e-06	5.127661e-06	1.473717e-08	3.480758e+01	9.691222e+02
1.180000e-06	5.253125e-06	1.487108e-08	3.565926e+01	9.769845e+02
1.190000e-06	5.376787e-06	1.499988e-08	3.649870e+01	9.844667e+02
1.200000e-06	5.498549e-06	1.512580e-08	3.732525e+01	9.920383e+02
1.210000e-06	5.618330e-06	1.524520e-08	3.813835e+01	9.999202e+02
1.220000e-06	5.735975e-06	1.535570e-08	3.893694e+01	1.008017e+03
1.230000e-06	5.851372e-06	1.546157e-08	3.972028e+01	1.015989e+03
1.240000e-06	5.964508e-06	1.556624e-08	4.048827e+01	1.023422e+03
1.250000e-06	6.075500e-06	1.566792e-08	4.124171e+01	1.030024e+03
1.260000e-06	6.184380e-06	1.576421e-08	4.198081e+01	1.035752e+03
1.270000e-06	6.291053e-06	1.585260e-08	4.270493e+01	1.040828e+03
1.280000e-06	6.395476e-06	1.593603e-08	4.341376e+01	1.045633e+03
1.290000e-06	6.497604e-06	1.601601e-08	4.410703e+01	1.050548e+03
1.300000e-06	6.597386e-06	1.609324e-08	4.478437e+01	1.055785e+03
1.310000e-06	6.694761e-06	1.616877e-08	4.544538e+01	1.061315e+03
1.320000e-06	6.789683e-06	1.624327e-08	4.608972e+01	1.066887e+03
1.330000e-06	6.882171e-06	1.631497e-08	4.671755e+01	1.072154e+03
1.340000e-06	6.972265e-06	1.638313e-08	4.732913e+01	1.076824e+03
1.350000e-06	7.059952e-06	1.644853e-08	4.792436e+01	1.080786e+03
1.360000e-06	7.145239e-06	1.651015e-08	4.850331e+01	1.084152e+03
1.370000e-06	7.228022e-06	1.656932e-08	4.906525e+01	1.087201e+03
1.380000e-06	7.308183e-06	1.662640e-08	4.960940e+01	1.090254e+03
1.390000e-06	7.385645e-06	1.667947e-08	5.013523e+01	1.093531e+03
1.400000e-06	7.460315e-06	1.672858e-08	5.064211e+01	1.097071e+03
1.410000e-06	7.532234e-06	1.677546e-08	5.113030e+01	1.100716e+03
1.420000e-06	7.601486e-06	1.682023e-08	5.160040e+01	1.104198e+03
1.430000e-06	7.668079e-06	1.686304e-08	5.205245e+01	1.107255e+03
1.440000e-06	7.731963e-06	1.690476e-08	5.248611e+01	1.109754e+03
1.450000e-06	7.793193e-06	1.694607e-08	5.290175e+01	1.111737e+03
1.460000e-06	7.851698e-06	1.698500e-08	5.329889e+01	1.113404e+03
1.470000e-06	7.907383e-06	1.701796e-08	5.367689e+01	1.115015e+03
1.480000e-06	7.960046e-06	1.704571e-08	5.403438e+01	1.116779e+03
1.490000e-06	8.009468e-06	1.706996e-08	5.436987e+01	1.118761e+03
1.500000e-06	8.055879e-06	1.709362e-08	5.468491e+01	1.120865e+03
1.510000e-06	8.099451e-06	1.711816e-08	5.498069e+01	1.122880e+03
1.520000e-06	8.140087e-06	1.714041e-08	5.525653e+01	1.124582e+03
1.530000e-06	8.177877e-06	1.716065e-08	5.551306e+01	1.125837e+03
1.540000e-06	8.212855e-06	1.718025e-08	5.575050e+01	1.126654e+03
1.550000e-06	8.244947e-06	1.720016e-08	5.596835e+01	1.127186e+03
1.560000e-06	8.274257e-06	1.721936e-08	5.616731e+01	1.127653e+03
1.570000e-06	8.300646e-06	1.723253e-08	5.634644e+01	1.128244e+03
1.580000e-06	8.323989e-06	1.723940e-08	5.650490e+01	1.129034e+03
1.590000e-06	8.344425e-06	1.724591e-08	5.664362e+01	1.129955e+03
1.600000e-06	8.361928e-06	1.725379e-08	5.676244e+01	1.130825e+03
1.610000e-06	8.376383e-06	1.725998e-08	5.686056e+01	1.131440e+03
1.620000e-06	8.387612e-06	1.726373e-08	5.693678e+01	1.131665e+03
1.630000e-06	8.395683e-06	1.726663e-08	5.699157e+01	1.131493e+03
1.640000e-06	8.400847e-06	1.727098e-08	5.702662e+01	1.131054e+03
1.650000e-06	8.403038e-06	1.727454e-08	5.704150e+01	1.130550e+03
1.660000e-06	8.402342e-06	1.727212e-08	5.703677e+01	1.130163e+03
1.670000e-06	8.398940e-06	1.725279e-08	5.701368e+01	1.129977e+03
1.680000e-06	8.392689e-06	1.724586e-08	5.697125e+01	1.129932e+03
1.690000e-06	8.383581e-06	1.724295e-08	5.690942e+01	1.129857e+03
1.700000e-06	8.371579e-06	1.723335e-08	5.682795e+01	1.129541e+03
1.710000e-06	8.356661e-06	1.722560e-08	5.672668e+01	1.128830e+03
1.720000e-06	8.339182e-06	1.723118e-08	5.660803e+01	1.127700e+03
1.730000e-06	8.319267e-06	1.724598e-08	5.647285e+01	1.126269e+03
1.740000e-06	8.296406e-06	1.710079e-08	5.631766e+01	1.124747e+03
1.750000e-06	8.269862e-06	1.704388e-08	5.613747e+01	1.123349e+03
1.760000e-06	8.239383e-06	1.710769e-08	5.593058e+01	1.122201e+03
1.770000e-06	8.205684e-06	1.708430e-08	5.570182e+01	1.121290e+03
1.780000e-06	8.169517e-06	1.704327e-08	5.545631e+01	1.120471e+03
1.790000e-06	8.131012e-06	1.716204e-08	5.519493e+01	1.119527e+03
1.800000e-06	8.090460e-06	1.713703e-08	5.491966e+01	1.118272e+03
1.810000e-06	8.047663e-06	1.694690e-08	5.462914e+01	1.116620e+03
1.820000e-06	8.001891e-06	1.710783e-08	5.431843e+01	1.114618e+03
1.830000e-06	7.953254e-06	1.695586e-08	5.398828e+01	1.112417e+03
1.840000e-06	7.901441e-06	1.695322e-08	5.363656e+01	1.110188e+03
1.850000e-06	7.846334e-06	1.697961e-08	5.326248e+01	1.108041e+03
1.860000e-06	7.788583e-06	1.683082e-08	5.287045e+01	1.105965e+03
1.870000e-06	7.728021e-06	1.697809e-08	5.245934e+01	1.103826e+03
1.880000e-06	7.664717e-06	1.677838e-08	5.202963e+01	1.101432e+03
1.890000e-06	7.598647e-06	1.678441e-08	5.158113e+01	1.098618e+03
1.900000e-06	7.529631e-06	1.671606e-08	5.111264e+01	1.095329e+03
1.910000e-06	7.457703e-06	1.660930e-08	5.062438e+01	1.091654e+03
1.920000e-06	7.382832e-06	1.666244e-08	5.011614e+01	1.087793e+03
1.930000e-06	7.305216e-06	1.651285e-08	4.958926e+01	1.083973e+03
1.940000e-06	7.224945e-06	1.658031e-08	4.904436e+01	1.080349e+03
1.950000e-06	7.142212e-06	1.642248e-08	4.848276e+01	1.076931e+03
1.960000e-06	7.056863e-06	1.638850e-08	4.790340e+01	1.073573e+03
1.970000e-06	6.968810e-06	1.633714e-08	4.730567e+01	1.070034e+03
1.980000e-06	6.878334e-06	1.620090e-08	4.669150e+01	1.066076e+03
1.990000e-06	6.785397e-06	1.622215e-08	4.606063e+01	1.061575e+03
2.000000e-06	6.690056e-06	1.609396e-08	4.541344e+01	1.056567e+03
2.010000e-06	6.592414e-06	1.608870e-08	4.475062e+01	1.051244e+03
2.020000e-06	6.492464e-06	1.595452e-08	4.407214e+01	1.045860e+03
2.030000e-06	6.390071e-06	1.589643e-08	4.337708e+01	1.040627e+03
2.040000e-06	6.285342e-06	1.579872e-08	4.266616e+01	1.035610e+03
2.050000e-06	6.178455e-06	1.570949e-08	4.194058e+01	1.030696e+03
2.060000e-06	6.069410e-06	1.564639e-08	4.120036e+01	1.025636e+03
2.070000e-06	5.958134e-06	1.553809e-08	4.044500e+01	1.020154e+03
2.080000e-06	5.844555e-06	1.547887e-08	3.967401e+01	1.014062e+03
2.090000e-06	5.728747e-06	1.535853e-08	3.888788e+01	1.007347e+03
2.100000e-06	5.610633e-06	1.526791e-08	3.808609e+01	1.000176e+03
2.110000e-06	5.490374e-06	1.514016e-08	3.726975e+01	9.928239e+02
2.120000e-06	5.368141e-06	1.504094e-08	3.644001e+01	9.855477e+02
2.130000e-06	5.244025e-06	1.492068e-08	3.559749e+01	9.784681e+02
2.140000e-06	5.118074e-06	1.481942e-08	3.474251e+01	9.715074e+02
2.150000e-06	4.990259e-06	1.469687e-08	3.387488e+01	9.644153e+02
2.160000e-06	4.860641e-06	1.457976e-08	3.299500e+01	9.568730e+02
2.170000e-06	4.729347e-06	1.445347e-08	3.210375e+01	9.486314e+02
2.180000e-06	4.596366e-06	1.432043e-08	3.120105e+01	9.396227e+02
2.190000e-06	4.461660e-06	1.418215e-08	3.028664e+01	9.299925e+02
2.200000e-06	4.325317e-06	1.403431e-08	2.936112e+01	9.200362e+02
2.210000e-06	4.187381e-06	1.389545e-08	2.842478e+01	9.100654e+02
2.220000e-06	4.047920e-06	1.373911e-08	2.747809e+01	9.002597e+02
2.230000e-06	3.906962e-06	1.359020e-08	2.652124e+01	8.905734e+02
2.240000e-06	3.764530e-06	1.342313e-08	2.555438e+01	8.807397e+02
2.250000e-06	3.620692e-06	1.325988e-08	2.457798e+01	8.703763e+02
2.260000e-06	3.475567e-06	1.308518e-08	2.359284e+01	8.591483e+02
2.270000e-06	3.329175e-06	1.290576e-08	2.259911e+01	8.469174e+02
2.280000e-06	3.181617e-06	1.271551e-08	2.159745e+01	8.338084e+02
2.290000e-06	3.032959e-06	1.251959e-08	2.058833e+01	8.201579e+02
2.300000e-06	2.883231e-06	1.231767e-08	1.957195e+01	8.063613e+02
2.310000e-06	2.732538e-06	1.210935e-08	1.854901e+01	7.926829e+02
2.320000e-06	2.580897e-06	1.189234e-08	1.751964e+01	7.791122e+02
2.330000e-06	2.428256e-06	1.166616e-08	1.648349e+01	7.653363e+02
2.340000e-06	2.274694e-06	1.143411e-08	1.544108e+01	7.508488e+02
2.350000e-06	2.120300e-06	1.119273e-08	1.439302e+01	7.351547e+02
2.360000e-06	1.965065e-06	1.093851e-08	1.333926e+01	7.179848e+02
2.370000e-06	1.809150e-06	1.066939e-08	1.228087e+01	6.994205e+02
2.380000e-06	1.652724e-06	1.038940e-08	1.121902e+01	6.798646e+02
2.390000e-06	1.495765e-06	1.009958e-08	1.015355e+01	6.598553e+02
2.400000e-06	1.338225e-06	9.795853e-09	9.084139e+00	6.397953e+02
2.410000e-06	1.180118e-06	9.471767e-09	8.010878e+00	6.197101e+02
2.420000e-06	1.021558e-06	9.131158e-09	6.934542e+00	5.991513e+02
2.430000e-06	8.626389e-07	8.777476e-09	5.855765e+00	5.773038e+02
2.440000e-06	7.033859e-07	8.406089e-09	4.774724e+00	5.532731e+02
2.450000e-06	5.439100e-07	8.009283e-09	3.692169e+00	5.264401e+02
2.460000e-06	3.843082e-07	7.583498e-09	2.608761e+00	4.967291e+02
2.470000e-06	2.245922e-07	7.128828e-09	1.524576e+00	4.646461e+02
2.480000e-06	6.480134e-08	6.641242e-09	4.398844e-01	4.310285e+02
2.490000e-06	-9.498902e-08	6.112600e-09	-6.448044e-01	3.965620e+02
2.500000e-06	-2.547092e-07	5.542490e-09	-1.729017e+00	3.612284e+02
2.510000e-06	-4.143132e-07	4.926913e-09	-2.812440e+00	3.239079e+02
2.520000e-06	-5.737958e-07	4.253496e-09	-3.895041e+00	2.823319e+02
2.530000e-06	-7.331136e-07	3.500500e-09	-4.976522e+00	2.334800e+02
2.540000e-06	-8.922044e-07	2.642322e-09	-6.056462e+00	1.743605e+02
2.550000e-06	-1.050990e-06	1.642590e-09	-7.134331e+00	1.029685e+02
2.560000e-06	-1.209341e-06	4.503168e-10	-8.209249e+00	1.912607e+01
2.570000e-06	-1.367119e-06	-9.727793e-10	-9.280276e+00	-7.508019e+01
2.580000e-06	-1.524278e-06	-2.588482e-09	-1.034711e+01	-1.754406e+02
2.590000e-06	-1.680895e-06	-4.247711e-09	-1.141025e+01	-2.763445e+02
2.600000e-06	-1.837033e-06	-5.763629e-09	-1.247015e+01	-3.719014e+02
2.610000e-06	-1.992602e-06	-7.030199e-09	-1.352618e+01	-4.571511e+02
2.620000e-06	-2.147404e-06	-8.050912e-09	-1.457700e+01	-5.290213e+02
2.630000e-06	-2.301343e-06	-8.874913e-09	-1.562198e+01	-5.867741e+02
2.640000e-06	-2.454411e-06	-9.555800e-09	-1.666103e+01	-6.318420e+02
2.650000e-06	-2.606579e-06	-1.013211e-08	-1.769398e+01	-6.671438e+02
2.660000e-06	-2.757870e-06	-1.062978e-08	-1.872097e+01	-6.961222e+02
2.670000e-06	-2.908127e-06	-1.106851e-08	-1.974095e+01	-7.218094e+02
2.680000e-06	-3.057265e-06	-1.146130e-08	-2.075332e+01	-7.461889e+02
2.690000e-06	-3.205364e-06	-1.181597e-08	-2.175865e+01	-7.700001e+02
2.700000e-06	-3.352317e-06	-1.213734e-08	-2.275620e+01	-7.929702e+02
2.710000e-06	-3.498051e-06	-1.243170e-08	-2.374547e+01	-8.143237e+02
2.720000e-06	-3.642549e-06	-1.270105e-08	-2.472635e+01	-8.333450e+02
2.730000e-06	-3.785712e-06	-1.294960e-08	-2.569817e+01	-8.497842e+02
2.740000e-06	-3.927391e-06	-1.318388e-08	-2.665991e+01	-8.639857e+02
2.750000e-06	-4.067602e-06	-1.340744e-08	-2.761169e+01	-8.767349e+02
2.760000e-06	-4.206324e-06	-1.362134e-08	-2.855337e+01	-8.889295e+02
2.770000e-06	-4.343447e-06	-1.382167e-08	-2.948418e+01	-9.012335e+02
2.780000e-06	-4.478994e-06	-1.400611e-08	-3.040430e+01	-9.138596e+02
2.790000e-06	-4.612853e-06	-1.417868e-08	-3.131296e+01	-9.265561e+02
2.800000e-06	-4.745023e-06	-1.434346e-08	-3.221016e+01	-9.387858e+02
2.810000e-06	-4.875580e-06	-1.449876e-08	-3.309641e+01	-9.500030e+02
2.820000e-06	-5.004486e-06	-1.464378e-08	-3.397145e+01	-9.599053e+02
2.830000e-06	-5.131596e-06	-1.478498e-08	-3.483430e+01	-9.685591e+02
2.840000e-06	-5.256814e-06	-1.492392e-08	-3.568430e+01	-9.763550e+02
2.850000e-06	-5.380192e-06	-1.505652e-08	-3.652181e+01	-9.838280e+02
2.860000e-06	-5.501664e-06	-1.517972e-08	-3.734639e+01	-9.914282e+02
2.870000e-06	-5.621135e-06	-1.529358e-08	-3.815739e+01	-9.993437e+02
2.880000e-06	-5.738506e-06	-1.540194e-08	-3.895412e+01	-1.007447e+03
2.890000e-06	-5.853586e-06	-1.550578e-08	-3.973531e+01	-1.015381e+03
2.900000e-06	-5.966258e-06	-1.560467e-08	-4.050015e+01	-1.022736e+03
2.910000e-06	-6.076615e-06	-1.569909e-08	-4.124928e+01	-1.029242e+03
2.920000e-06	-6.184830e-06	-1.579132e-08	-4.198386e+01	-1.034886e+03
2.930000e-06	-6.290940e-06	-1.588292e-08	-4.270415e+01	-1.039913e+03
2.940000e-06	-6.394814e-06	-1.597292e-08	-4.340927e+01	-1.044714e+03
