# Temperatura_=_49.14
# Concentracion g/m^3_=_13400.0
# C_Vs_to_Am_M_A/Vsm_=_65563218390.804596
# pendiente_HvsI_1/m_=_3716.3
# ordenada_HvsI_A/m_=_1297.0
# frecuencia_Hz_=_301417.9332014285

Tiempo_(s)	Campo_(V.s)	Magnetizacion_(V.s)	Campo_(kA/m)	Magnetizacion_(A/m)
0.000000e+00	-8.400843e-06	-1.703930e-08	-5.692102e+01	-1.117669e+03
1.000000e-08	-8.397536e-06	-1.704150e-08	-5.689862e+01	-1.117405e+03
2.000000e-08	-8.391493e-06	-1.703438e-08	-5.685767e+01	-1.117388e+03
3.000000e-08	-8.382771e-06	-1.702627e-08	-5.679857e+01	-1.117442e+03
4.000000e-08	-8.371070e-06	-1.702026e-08	-5.671929e+01	-1.117315e+03
5.000000e-08	-8.356281e-06	-1.701135e-08	-5.661909e+01	-1.116790e+03
6.000000e-08	-8.338575e-06	-1.699431e-08	-5.649912e+01	-1.115783e+03
7.000000e-08	-8.318320e-06	-1.696718e-08	-5.636188e+01	-1.114377e+03
8.000000e-08	-8.295476e-06	-1.697738e-08	-5.620709e+01	-1.112794e+03
9.000000e-08	-8.269414e-06	-1.704151e-08	-5.603051e+01	-1.111296e+03
1.000000e-07	-8.239970e-06	-1.700428e-08	-5.583101e+01	-1.110077e+03
1.100000e-07	-8.207429e-06	-1.693036e-08	-5.561053e+01	-1.109180e+03
1.200000e-07	-8.171932e-06	-1.690906e-08	-5.537001e+01	-1.108478e+03
1.300000e-07	-8.133773e-06	-1.689133e-08	-5.511146e+01	-1.107733e+03
1.400000e-07	-8.093206e-06	-1.680388e-08	-5.483659e+01	-1.106693e+03
1.500000e-07	-8.050111e-06	-1.674339e-08	-5.454459e+01	-1.105196e+03
1.600000e-07	-8.004232e-06	-1.686739e-08	-5.423374e+01	-1.103232e+03
1.700000e-07	-7.955421e-06	-1.674987e-08	-5.390301e+01	-1.100934e+03
1.800000e-07	-7.903600e-06	-1.674876e-08	-5.355189e+01	-1.098511e+03
1.900000e-07	-7.848769e-06	-1.677160e-08	-5.318037e+01	-1.096151e+03
2.000000e-07	-7.791120e-06	-1.661743e-08	-5.278977e+01	-1.093932e+03
2.100000e-07	-7.730698e-06	-1.662505e-08	-5.238037e+01	-1.091793e+03
2.200000e-07	-7.667552e-06	-1.654636e-08	-5.195252e+01	-1.089566e+03
2.300000e-07	-7.601600e-06	-1.655672e-08	-5.150565e+01	-1.087054e+03
2.400000e-07	-7.532775e-06	-1.652462e-08	-5.103931e+01	-1.084133e+03
2.500000e-07	-7.461178e-06	-1.646359e-08	-5.055420e+01	-1.080802e+03
2.600000e-07	-7.386694e-06	-1.644080e-08	-5.004952e+01	-1.077193e+03
2.700000e-07	-7.309322e-06	-1.636928e-08	-4.952528e+01	-1.073507e+03
2.800000e-07	-7.229121e-06	-1.632132e-08	-4.898187e+01	-1.069922e+03
2.900000e-07	-7.146242e-06	-1.622212e-08	-4.842031e+01	-1.066510e+03
3.000000e-07	-7.060970e-06	-1.620525e-08	-4.784254e+01	-1.063195e+03
3.100000e-07	-6.973306e-06	-1.616944e-08	-4.724856e+01	-1.059790e+03
3.200000e-07	-6.883155e-06	-1.609158e-08	-4.663773e+01	-1.056072e+03
3.300000e-07	-6.790542e-06	-1.604298e-08	-4.601021e+01	-1.051885e+03
3.400000e-07	-6.695494e-06	-1.594697e-08	-4.536620e+01	-1.047210e+03
3.500000e-07	-6.598026e-06	-1.588506e-08	-4.470580e+01	-1.042174e+03
3.600000e-07	-6.498161e-06	-1.581570e-08	-4.402915e+01	-1.036994e+03
3.700000e-07	-6.395941e-06	-1.574511e-08	-4.333655e+01	-1.031875e+03
3.800000e-07	-6.291415e-06	-1.566461e-08	-4.262832e+01	-1.026919e+03
3.900000e-07	-6.184590e-06	-1.559559e-08	-4.190451e+01	-1.022067e+03
4.000000e-07	-6.075577e-06	-1.552867e-08	-4.116588e+01	-1.017124e+03
4.100000e-07	-5.964393e-06	-1.542486e-08	-4.041253e+01	-1.011839e+03
4.200000e-07	-5.850888e-06	-1.532646e-08	-3.964347e+01	-1.006016e+03
4.300000e-07	-5.735071e-06	-1.522108e-08	-3.885873e+01	-9.996056e+02
4.400000e-07	-5.617099e-06	-1.513666e-08	-3.805940e+01	-9.927226e+02
4.500000e-07	-5.497052e-06	-1.504633e-08	-3.724601e+01	-9.856006e+02
4.600000e-07	-5.374969e-06	-1.494540e-08	-3.641881e+01	-9.784828e+02
4.700000e-07	-5.250985e-06	-1.483626e-08	-3.557874e+01	-9.715081e+02
4.800000e-07	-5.125158e-06	-1.472670e-08	-3.472619e+01	-9.646398e+02
4.900000e-07	-4.997518e-06	-1.461450e-08	-3.386134e+01	-9.576730e+02
5.000000e-07	-4.868077e-06	-1.448622e-08	-3.298430e+01	-9.503183e+02
5.100000e-07	-4.736823e-06	-1.435589e-08	-3.209497e+01	-9.423276e+02
5.200000e-07	-4.603860e-06	-1.422586e-08	-3.119406e+01	-9.336060e+02
5.300000e-07	-4.469232e-06	-1.409875e-08	-3.028187e+01	-9.242576e+02
5.400000e-07	-4.333001e-06	-1.396263e-08	-2.935882e+01	-9.145412e+02
5.500000e-07	-4.195140e-06	-1.381811e-08	-2.842473e+01	-9.047534e+02
5.600000e-07	-4.055582e-06	-1.367031e-08	-2.747913e+01	-8.950879e+02
5.700000e-07	-3.914429e-06	-1.351918e-08	-2.652273e+01	-8.855353e+02
5.800000e-07	-3.771731e-06	-1.336056e-08	-2.555586e+01	-8.758708e+02
5.900000e-07	-3.627533e-06	-1.318995e-08	-2.457883e+01	-8.657393e+02
6.000000e-07	-3.482037e-06	-1.301618e-08	-2.359300e+01	-8.548054e+02
6.100000e-07	-3.335375e-06	-1.283912e-08	-2.259928e+01	-8.429011e+02
6.200000e-07	-3.187569e-06	-1.265775e-08	-2.159779e+01	-8.301052e+02
6.300000e-07	-3.038676e-06	-1.246417e-08	-2.058895e+01	-8.167121e+02
6.400000e-07	-2.888736e-06	-1.226235e-08	-1.957301e+01	-8.030988e+02
6.500000e-07	-2.737758e-06	-1.206081e-08	-1.855004e+01	-7.895438e+02
6.600000e-07	-2.585773e-06	-1.185054e-08	-1.752025e+01	-7.760789e+02
6.700000e-07	-2.432852e-06	-1.162453e-08	-1.648411e+01	-7.624431e+02
6.800000e-07	-2.278996e-06	-1.138392e-08	-1.544164e+01	-7.481680e+02
6.900000e-07	-2.124249e-06	-1.114029e-08	-1.439313e+01	-7.327645e+02
7.000000e-07	-1.968725e-06	-1.089181e-08	-1.333936e+01	-7.159324e+02
7.100000e-07	-1.812534e-06	-1.063112e-08	-1.228106e+01	-6.976973e+02
7.200000e-07	-1.655775e-06	-1.035379e-08	-1.121892e+01	-6.784056e+02
7.300000e-07	-1.498462e-06	-1.006606e-08	-1.015303e+01	-6.585645e+02
7.400000e-07	-1.340582e-06	-9.767810e-09	-9.083292e+00	-6.385872e+02
7.500000e-07	-1.182204e-06	-9.450667e-09	-8.010183e+00	-6.185499e+02
7.600000e-07	-1.023427e-06	-9.111317e-09	-6.934363e+00	-5.980752e+02
7.700000e-07	-8.643553e-07	-8.750260e-09	-5.856554e+00	-5.764090e+02
7.800000e-07	-7.049914e-07	-8.374991e-09	-4.776762e+00	-5.526787e+02
7.900000e-07	-5.453157e-07	-7.980706e-09	-3.694859e+00	-5.262359e+02
8.000000e-07	-3.854182e-07	-7.559629e-09	-2.611452e+00	-4.969338e+02
8.100000e-07	-2.253748e-07	-7.105836e-09	-1.527057e+00	-4.651967e+02
8.200000e-07	-6.528219e-08	-6.620297e-09	-4.423281e-01	-4.318114e+02
8.300000e-07	9.479642e-08	-6.099959e-09	6.423057e-01	-3.974777e+02
8.400000e-07	2.548322e-07	-5.537461e-09	1.726649e+00	-3.622692e+02
8.500000e-07	4.147597e-07	-4.924299e-09	2.810259e+00	-3.252166e+02
8.600000e-07	5.745047e-07	-4.248512e-09	3.892633e+00	-2.842145e+02
8.700000e-07	7.340439e-07	-3.497827e-09	4.973612e+00	-2.363585e+02
8.800000e-07	8.933947e-07	-2.645050e-09	6.053314e+00	-1.786742e+02
8.900000e-07	1.052483e-06	-1.652383e-09	7.131238e+00	-1.090495e+02
9.000000e-07	1.211157e-06	-4.682712e-10	8.206352e+00	-2.708774e+01
9.100000e-07	1.369329e-06	9.418286e-10	9.278073e+00	6.540493e+01
9.200000e-07	1.526995e-06	2.536111e-09	1.034636e+01	1.644891e+02
9.300000e-07	1.684094e-06	4.168664e-09	1.141080e+01	2.647427e+02
9.400000e-07	1.840560e-06	5.663205e-09	1.247096e+01	3.603331e+02
9.500000e-07	1.996401e-06	6.919188e-09	1.352688e+01	4.462162e+02
9.600000e-07	2.151652e-06	7.934803e-09	1.457881e+01	5.191235e+02
9.700000e-07	2.306257e-06	8.759927e-09	1.562635e+01	5.780674e+02
9.800000e-07	2.459971e-06	9.441740e-09	1.666786e+01	6.242456e+02
9.900000e-07	2.612649e-06	1.001879e-08	1.770235e+01	6.604131e+02
1.000000e-06	2.764334e-06	1.051546e-08	1.873011e+01	6.899485e+02
1.010000e-06	2.914978e-06	1.094895e-08	1.975082e+01	7.159138e+02
1.020000e-06	3.064531e-06	1.133306e-08	2.076414e+01	7.403843e+02
1.030000e-06	3.212991e-06	1.167994e-08	2.177004e+01	7.642071e+02
1.040000e-06	3.360370e-06	1.199814e-08	2.276864e+01	7.871936e+02
1.050000e-06	3.506638e-06	1.229064e-08	2.375969e+01	8.086053e+02
1.060000e-06	3.651631e-06	1.256277e-08	2.474211e+01	8.277160e+02
1.070000e-06	3.795245e-06	1.281546e-08	2.571519e+01	8.442363e+02
1.080000e-06	3.937388e-06	1.304889e-08	2.667829e+01	8.584679e+02
1.090000e-06	4.078019e-06	1.326397e-08	2.763116e+01	8.711731e+02
1.100000e-06	4.217190e-06	1.346632e-08	2.857413e+01	8.832561e+02
1.110000e-06	4.354740e-06	1.365934e-08	2.950612e+01	8.954120e+02
1.120000e-06	4.490668e-06	1.384249e-08	3.042712e+01	9.078935e+02
1.130000e-06	4.624980e-06	1.401383e-08	3.133716e+01	9.204802e+02
1.140000e-06	4.757572e-06	1.417625e-08	3.223556e+01	9.326445e+02
1.150000e-06	4.888555e-06	1.433663e-08	3.312305e+01	9.438268e+02
1.160000e-06	5.017778e-06	1.449172e-08	3.399862e+01	9.536966e+02
1.170000e-06	5.145149e-06	1.463467e-08	3.486164e+01	9.622910e+02
1.180000e-06	5.270717e-06	1.476528e-08	3.571244e+01	9.699841e+02
1.190000e-06	5.394474e-06	1.489067e-08	3.655097e+01	9.773133e+02
1.200000e-06	5.516318e-06	1.501382e-08	3.737654e+01	9.847475e+02
1.210000e-06	5.636106e-06	1.513176e-08	3.818818e+01	9.925006e+02
1.220000e-06	5.753829e-06	1.524204e-08	3.898583e+01	1.000467e+03
1.230000e-06	5.869359e-06	1.534642e-08	3.976862e+01	1.008296e+03
1.240000e-06	5.982544e-06	1.544738e-08	4.053552e+01	1.015575e+03
1.250000e-06	6.093536e-06	1.554406e-08	4.128756e+01	1.022017e+03
1.260000e-06	6.202478e-06	1.563544e-08	4.202571e+01	1.027593e+03
1.270000e-06	6.309253e-06	1.572275e-08	4.274918e+01	1.032539e+03
1.280000e-06	6.413712e-06	1.580799e-08	4.345696e+01	1.037249e+03
1.290000e-06	6.515808e-06	1.588765e-08	4.414872e+01	1.042099e+03
1.300000e-06	6.615613e-06	1.596138e-08	4.482496e+01	1.047288e+03
1.310000e-06	6.712962e-06	1.603353e-08	4.548457e+01	1.052765e+03
1.320000e-06	6.807904e-06	1.610465e-08	4.612786e+01	1.058256e+03
1.330000e-06	6.900520e-06	1.617332e-08	4.675539e+01	1.063400e+03
1.340000e-06	6.990675e-06	1.623986e-08	4.736624e+01	1.067906e+03
1.350000e-06	7.078374e-06	1.630504e-08	4.796046e+01	1.071684e+03
1.360000e-06	7.163593e-06	1.636747e-08	4.853787e+01	1.074874e+03
1.370000e-06	7.246354e-06	1.642601e-08	4.909863e+01	1.077785e+03
1.380000e-06	7.326536e-06	1.648029e-08	4.964192e+01	1.080752e+03
1.390000e-06	7.403978e-06	1.653096e-08	5.016663e+01	1.083998e+03
1.400000e-06	7.478609e-06	1.657889e-08	5.067230e+01	1.087537e+03
1.410000e-06	7.550501e-06	1.662460e-08	5.115942e+01	1.091179e+03
1.420000e-06	7.619771e-06	1.666919e-08	5.162877e+01	1.094622e+03
1.430000e-06	7.686311e-06	1.671287e-08	5.207962e+01	1.097587e+03
1.440000e-06	7.750084e-06	1.675555e-08	5.251172e+01	1.099941e+03
1.450000e-06	7.811221e-06	1.679639e-08	5.292596e+01	1.101756e+03
1.460000e-06	7.869671e-06	1.683315e-08	5.332200e+01	1.103267e+03
1.470000e-06	7.925280e-06	1.686286e-08	5.369878e+01	1.104771e+03
1.480000e-06	7.977838e-06	1.688751e-08	5.405490e+01	1.106497e+03
1.490000e-06	8.027138e-06	1.691095e-08	5.438894e+01	1.108503e+03
1.500000e-06	8.073433e-06	1.693490e-08	5.470261e+01	1.110663e+03
1.510000e-06	8.116914e-06	1.695855e-08	5.499722e+01	1.112721e+03
1.520000e-06	8.157487e-06	1.698304e-08	5.527213e+01	1.114413e+03
1.530000e-06	8.195244e-06	1.700757e-08	5.552796e+01	1.115583e+03
1.540000e-06	8.230124e-06	1.702742e-08	5.576429e+01	1.116250e+03
1.550000e-06	8.262050e-06	1.704200e-08	5.598061e+01	1.116601e+03
1.560000e-06	8.291204e-06	1.705289e-08	5.617815e+01	1.116906e+03
1.570000e-06	8.317429e-06	1.706335e-08	5.635584e+01	1.117398e+03
1.580000e-06	8.340623e-06	1.707366e-08	5.651300e+01	1.118175e+03
1.590000e-06	8.360969e-06	1.708264e-08	5.665085e+01	1.119156e+03
1.600000e-06	8.378374e-06	1.708954e-08	5.676878e+01	1.120124e+03
1.610000e-06	8.392669e-06	1.709496e-08	5.686564e+01	1.120824e+03
1.620000e-06	8.403731e-06	1.710070e-08	5.694059e+01	1.121074e+03
1.630000e-06	8.411633e-06	1.710492e-08	5.699413e+01	1.120848e+03
1.640000e-06	8.416594e-06	1.710567e-08	5.702775e+01	1.120287e+03
1.650000e-06	8.418624e-06	1.710402e-08	5.704150e+01	1.119634e+03
1.660000e-06	8.417773e-06	1.709955e-08	5.703573e+01	1.119127e+03
1.670000e-06	8.414141e-06	1.708533e-08	5.701113e+01	1.118893e+03
1.680000e-06	8.407679e-06	1.707947e-08	5.696734e+01	1.118893e+03
1.690000e-06	8.398374e-06	1.707476e-08	5.690429e+01	1.118939e+03
1.700000e-06	8.386157e-06	1.706507e-08	5.682152e+01	1.118778e+03
1.710000e-06	8.371096e-06	1.705839e-08	5.671947e+01	1.118202e+03
1.720000e-06	8.353495e-06	1.705898e-08	5.660021e+01	1.117144e+03
1.730000e-06	8.333372e-06	1.705617e-08	5.646386e+01	1.115707e+03
1.740000e-06	8.310253e-06	1.694062e-08	5.630722e+01	1.114120e+03
1.750000e-06	8.283391e-06	1.690527e-08	5.612522e+01	1.112644e+03
1.760000e-06	8.252636e-06	1.694384e-08	5.591683e+01	1.111460e+03
1.770000e-06	8.218786e-06	1.692221e-08	5.568748e+01	1.110592e+03
1.780000e-06	8.182442e-06	1.689648e-08	5.544122e+01	1.109897e+03
1.790000e-06	8.143749e-06	1.699263e-08	5.517905e+01	1.109131e+03
1.800000e-06	8.102995e-06	1.694706e-08	5.490291e+01	1.108047e+03
1.810000e-06	8.059881e-06	1.681267e-08	5.461079e+01	1.106497e+03
1.820000e-06	8.013803e-06	1.693565e-08	5.429858e+01	1.104488e+03
1.830000e-06	7.964912e-06	1.679581e-08	5.396732e+01	1.102165e+03
1.840000e-06	7.912827e-06	1.681276e-08	5.361441e+01	1.099741e+03
1.850000e-06	7.857504e-06	1.680406e-08	5.323956e+01	1.097394e+03
1.860000e-06	7.799469e-06	1.669659e-08	5.284634e+01	1.095188e+03
1.870000e-06	7.738531e-06	1.677837e-08	5.243344e+01	1.093048e+03
1.880000e-06	7.674886e-06	1.659739e-08	5.200220e+01	1.090798e+03
1.890000e-06	7.608430e-06	1.660791e-08	5.155192e+01	1.088247e+03
1.900000e-06	7.538993e-06	1.654187e-08	5.108144e+01	1.085278e+03
1.910000e-06	7.466720e-06	1.649166e-08	5.059175e+01	1.081909e+03
1.920000e-06	7.391505e-06	1.651119e-08	5.008212e+01	1.078281e+03
1.930000e-06	7.313482e-06	1.639681e-08	4.955347e+01	1.074598e+03
1.940000e-06	7.232848e-06	1.642302e-08	4.900712e+01	1.071030e+03
1.950000e-06	7.149752e-06	1.626729e-08	4.844409e+01	1.067633e+03
1.960000e-06	7.064041e-06	1.623557e-08	4.786334e+01	1.064319e+03
1.970000e-06	6.975685e-06	1.616568e-08	4.726468e+01	1.060889e+03
1.980000e-06	6.884889e-06	1.607718e-08	4.664948e+01	1.057126e+03
1.990000e-06	6.791654e-06	1.608644e-08	4.601775e+01	1.052884e+03
2.000000e-06	6.696066e-06	1.599253e-08	4.537008e+01	1.048162e+03
2.010000e-06	6.598135e-06	1.596478e-08	4.470654e+01	1.043098e+03
2.020000e-06	6.497881e-06	1.583744e-08	4.402725e+01	1.037915e+03
2.030000e-06	6.395237e-06	1.577155e-08	4.333177e+01	1.032811e+03
2.040000e-06	6.290278e-06	1.566809e-08	4.262061e+01	1.027871e+03
2.050000e-06	6.183116e-06	1.558380e-08	4.189452e+01	1.023020e+03
2.060000e-06	6.073653e-06	1.551245e-08	4.115284e+01	1.018051e+03
2.070000e-06	5.961961e-06	1.542827e-08	4.039605e+01	1.012715e+03
2.080000e-06	5.848038e-06	1.536988e-08	3.962415e+01	1.006829e+03
2.090000e-06	5.731800e-06	1.526493e-08	3.883657e+01	1.000358e+03
2.100000e-06	5.613266e-06	1.516713e-08	3.803343e+01	9.934366e+02
2.110000e-06	5.492734e-06	1.504366e-08	3.721675e+01	9.863037e+02
2.120000e-06	5.370317e-06	1.493702e-08	3.638730e+01	9.791967e+02
2.130000e-06	5.245992e-06	1.481953e-08	3.554491e+01	9.722377e+02
2.140000e-06	5.119693e-06	1.471838e-08	3.468916e+01	9.653705e+02
2.150000e-06	4.991519e-06	1.460362e-08	3.382070e+01	9.583756e+02
2.160000e-06	4.861600e-06	1.449478e-08	3.294041e+01	9.509620e+02
2.170000e-06	4.729932e-06	1.437116e-08	3.204828e+01	9.428934e+02
2.180000e-06	4.596578e-06	1.423869e-08	3.114473e+01	9.340956e+02
2.190000e-06	4.461582e-06	1.409788e-08	3.023004e+01	9.246929e+02
2.200000e-06	4.325061e-06	1.395680e-08	2.930502e+01	9.149546e+02
2.210000e-06	4.186872e-06	1.382174e-08	2.836871e+01	9.051729e+02
2.220000e-06	4.046967e-06	1.367107e-08	2.742076e+01	8.955234e+02
2.230000e-06	3.905528e-06	1.351770e-08	2.646242e+01	8.859722e+02
2.240000e-06	3.762751e-06	1.335318e-08	2.549502e+01	8.762750e+02
2.250000e-06	3.618686e-06	1.319399e-08	2.451889e+01	8.660711e+02
2.260000e-06	3.473324e-06	1.302338e-08	2.353396e+01	8.550364e+02
2.270000e-06	3.326663e-06	1.284509e-08	2.254024e+01	8.430277e+02
2.280000e-06	3.178800e-06	1.266026e-08	2.153838e+01	8.301502e+02
2.290000e-06	3.029735e-06	1.247252e-08	2.052837e+01	8.167150e+02
2.300000e-06	2.879511e-06	1.227644e-08	1.951051e+01	8.030973e+02
2.310000e-06	2.728392e-06	1.206809e-08	1.848658e+01	7.895550e+02
2.320000e-06	2.576393e-06	1.184938e-08	1.745670e+01	7.760884e+02
2.330000e-06	2.423508e-06	1.162378e-08	1.642080e+01	7.624080e+02
2.340000e-06	2.269724e-06	1.139236e-08	1.537882e+01	7.480330e+02
2.350000e-06	2.115054e-06	1.115065e-08	1.433083e+01	7.324851e+02
2.360000e-06	1.959602e-06	1.089928e-08	1.327754e+01	7.154945e+02
2.370000e-06	1.803447e-06	1.063668e-08	1.221949e+01	6.971243e+02
2.380000e-06	1.646632e-06	1.036229e-08	1.115697e+01	6.777482e+02
2.390000e-06	1.489103e-06	1.007258e-08	1.008961e+01	6.578762e+02
2.400000e-06	1.330958e-06	9.765933e-09	9.018080e+00	6.378957e+02
2.410000e-06	1.172387e-06	9.441717e-09	7.943662e+00	6.178370e+02
2.420000e-06	1.013484e-06	9.104070e-09	6.866998e+00	5.972748e+02
2.430000e-06	8.542740e-07	8.752687e-09	5.788247e+00	5.754275e+02
2.440000e-06	6.947689e-07	8.380280e-09	4.707499e+00	5.514298e+02
2.450000e-06	5.349964e-07	7.985079e-09	3.624939e+00	5.246766e+02
2.460000e-06	3.750584e-07	7.564575e-09	2.541258e+00	4.950834e+02
2.470000e-06	2.149941e-07	7.112106e-09	1.456721e+00	4.631286e+02
2.480000e-06	5.485199e-08	6.621058e-09	3.716569e-01	4.296141e+02
2.490000e-06	-1.052516e-07	6.091261e-09	-7.131460e-01	3.951982e+02
2.500000e-06	-2.652833e-07	5.522998e-09	-1.797462e+00	3.598585e+02
2.510000e-06	-4.252164e-07	4.909312e-09	-2.881110e+00	3.225013e+02
2.520000e-06	-5.850406e-07	4.236996e-09	-3.964020e+00	2.809115e+02
2.530000e-06	-7.446988e-07	3.486606e-09	-5.045806e+00	2.321369e+02
2.540000e-06	-9.040434e-07	2.633687e-09	-6.125466e+00	1.732496e+02
2.550000e-06	-1.063003e-06	1.638690e-09	-7.202518e+00	1.022848e+02
2.560000e-06	-1.221659e-06	4.499702e-10	-8.277512e+00	1.906728e+01
2.570000e-06	-1.379935e-06	-9.656132e-10	-9.349934e+00	-7.435423e+01
2.580000e-06	-1.537676e-06	-2.564370e-09	-1.041872e+01	-1.738410e+02
2.590000e-06	-1.694851e-06	-4.201171e-09	-1.148369e+01	-2.738705e+02
2.600000e-06	-1.851345e-06	-5.700208e-09	-1.254403e+01	-3.686384e+02
2.610000e-06	-2.006991e-06	-6.960432e-09	-1.359863e+01	-4.532501e+02
2.620000e-06	-2.161850e-06	-7.978440e-09	-1.464790e+01	-5.246677e+02
2.630000e-06	-2.315974e-06	-8.800058e-09	-1.569219e+01	-5.821530e+02
2.640000e-06	-2.469218e-06	-9.479319e-09	-1.673052e+01	-6.271082e+02
2.650000e-06	-2.621516e-06	-1.005682e-08	-1.776243e+01	-6.624025e+02
2.660000e-06	-2.772889e-06	-1.055799e-08	-1.878808e+01	-6.914227e+02
2.670000e-06	-2.923344e-06	-1.099721e-08	-1.980751e+01	-7.171506e+02
2.680000e-06	-3.072809e-06	-1.138566e-08	-2.082022e+01	-7.415331e+02
2.690000e-06	-3.221098e-06	-1.173471e-08	-2.182497e+01	-7.652905e+02
2.700000e-06	-3.368190e-06	-1.205326e-08	-2.282162e+01	-7.881486e+02
2.710000e-06	-3.514039e-06	-1.234625e-08	-2.380984e+01	-8.093441e+02
2.720000e-06	-3.658554e-06	-1.261529e-08	-2.478902e+01	-8.281816e+02
2.730000e-06	-3.801820e-06	-1.286419e-08	-2.575973e+01	-8.444328e+02
2.740000e-06	-3.943825e-06	-1.309866e-08	-2.672191e+01	-8.584596e+02
2.750000e-06	-4.084318e-06	-1.332068e-08	-2.767384e+01	-8.710565e+02
2.760000e-06	-4.223147e-06	-1.352826e-08	-2.861449e+01	-8.831212e+02
2.770000e-06	-4.360330e-06	-1.372105e-08	-2.954399e+01	-8.953095e+02
2.780000e-06	-4.495900e-06	-1.390223e-08	-3.046257e+01	-9.078209e+02
2.790000e-06	-4.629965e-06	-1.407629e-08	-3.137094e+01	-9.203912e+02
2.800000e-06	-4.762377e-06	-1.424352e-08	-3.226811e+01	-9.324756e+02
2.810000e-06	-4.893027e-06	-1.440010e-08	-3.315335e+01	-9.435279e+02
2.820000e-06	-5.021939e-06	-1.454606e-08	-3.402682e+01	-9.532532e+02
2.830000e-06	-5.149162e-06	-1.468505e-08	-3.488883e+01	-9.617291e+02
2.840000e-06	-5.274633e-06	-1.481883e-08	-3.573897e+01	-9.693574e+02
2.850000e-06	-5.398131e-06	-1.494424e-08	-3.657575e+01	-9.766794e+02
2.860000e-06	-5.519634e-06	-1.506115e-08	-3.739901e+01	-9.841439e+02
2.870000e-06	-5.639185e-06	-1.517452e-08	-3.820905e+01	-9.919310e+02
2.880000e-06	-5.756669e-06	-1.528444e-08	-3.900507e+01	-9.999025e+02
2.890000e-06	-5.871824e-06	-1.538895e-08	-3.978532e+01	-1.007693e+03
2.900000e-06	-5.984614e-06	-1.548634e-08	-4.054955e+01	-1.014893e+03
2.910000e-06	-6.095035e-06	-1.557955e-08	-4.129772e+01	-1.021239e+03
2.920000e-06	-6.203220e-06	-1.567176e-08	-4.203074e+01	-1.026733e+03
2.930000e-06	-6.309387e-06	-1.576060e-08	-4.275009e+01	-1.031634e+03
2.940000e-06	-6.413337e-06	-1.584523e-08	-4.345441e+01	-1.036344e+03
