# Temperatura_=_63.18
# Concentracion g/m^3_=_13400.0
# C_Vs_to_Am_M_A/Vsm_=_65563218390.804596
# pendiente_HvsI_1/m_=_3716.3
# ordenada_HvsI_A/m_=_1297.0
# frecuencia_Hz_=_301418.93866507185

Tiempo_(s)	Campo_(V.s)	Magnetizacion_(V.s)	Campo_(kA/m)	Magnetizacion_(A/m)
0.000000e+00	-8.349479e-06	-1.746829e-08	-5.692300e+01	-1.145780e+03
1.000000e-08	-8.346305e-06	-1.747269e-08	-5.690135e+01	-1.145586e+03
2.000000e-08	-8.340388e-06	-1.746877e-08	-5.686102e+01	-1.145571e+03
3.000000e-08	-8.331768e-06	-1.745959e-08	-5.680225e+01	-1.145548e+03
4.000000e-08	-8.320251e-06	-1.744919e-08	-5.672373e+01	-1.145284e+03
5.000000e-08	-8.305760e-06	-1.743563e-08	-5.662494e+01	-1.144597e+03
6.000000e-08	-8.288300e-06	-1.741792e-08	-5.650591e+01	-1.143443e+03
7.000000e-08	-8.268214e-06	-1.739126e-08	-5.636897e+01	-1.141935e+03
8.000000e-08	-8.245613e-06	-1.737408e-08	-5.621489e+01	-1.140293e+03
9.000000e-08	-8.219941e-06	-1.744494e-08	-5.603987e+01	-1.138756e+03
1.000000e-07	-8.190912e-06	-1.743483e-08	-5.584196e+01	-1.137475e+03
1.100000e-07	-8.158735e-06	-1.735077e-08	-5.562259e+01	-1.136457e+03
1.200000e-07	-8.123590e-06	-1.732324e-08	-5.538298e+01	-1.135561e+03
1.300000e-07	-8.085781e-06	-1.731329e-08	-5.512523e+01	-1.134564e+03
1.400000e-07	-8.045589e-06	-1.723410e-08	-5.485121e+01	-1.133262e+03
1.500000e-07	-8.002868e-06	-1.712051e-08	-5.455996e+01	-1.131547e+03
1.600000e-07	-7.957380e-06	-1.726182e-08	-5.424984e+01	-1.129455e+03
1.700000e-07	-7.909012e-06	-1.715620e-08	-5.392009e+01	-1.127131e+03
1.800000e-07	-7.857738e-06	-1.710118e-08	-5.357053e+01	-1.124752e+03
1.900000e-07	-7.803478e-06	-1.719316e-08	-5.320060e+01	-1.122440e+03
2.000000e-07	-7.746316e-06	-1.702302e-08	-5.281090e+01	-1.120194e+03
2.100000e-07	-7.686324e-06	-1.700964e-08	-5.240190e+01	-1.117890e+03
2.200000e-07	-7.623575e-06	-1.693721e-08	-5.197411e+01	-1.115333e+03
2.300000e-07	-7.558105e-06	-1.690111e-08	-5.152776e+01	-1.112352e+03
2.400000e-07	-7.489811e-06	-1.688135e-08	-5.106217e+01	-1.108884e+03
2.500000e-07	-7.418725e-06	-1.680724e-08	-5.057753e+01	-1.105013e+03
2.600000e-07	-7.344815e-06	-1.680154e-08	-5.007365e+01	-1.100941e+03
2.700000e-07	-7.268037e-06	-1.671616e-08	-4.955021e+01	-1.096905e+03
2.800000e-07	-7.188450e-06	-1.667489e-08	-4.900762e+01	-1.093069e+03
2.900000e-07	-7.106156e-06	-1.657435e-08	-4.844658e+01	-1.089453e+03
3.000000e-07	-7.021379e-06	-1.650997e-08	-4.786861e+01	-1.085913e+03
3.100000e-07	-6.934290e-06	-1.648691e-08	-4.727487e+01	-1.082202e+03
3.200000e-07	-6.844844e-06	-1.639411e-08	-4.666507e+01	-1.078070e+03
3.300000e-07	-6.752942e-06	-1.635703e-08	-4.603852e+01	-1.073376e+03
3.400000e-07	-6.658608e-06	-1.626178e-08	-4.539540e+01	-1.068149e+03
3.500000e-07	-6.561888e-06	-1.619056e-08	-4.473601e+01	-1.062575e+03
3.600000e-07	-6.462752e-06	-1.611249e-08	-4.406014e+01	-1.056917e+03
3.700000e-07	-6.361260e-06	-1.602734e-08	-4.336821e+01	-1.051398e+03
3.800000e-07	-6.257482e-06	-1.594464e-08	-4.266070e+01	-1.046098e+03
3.900000e-07	-6.151433e-06	-1.585282e-08	-4.193771e+01	-1.040915e+03
4.000000e-07	-6.043180e-06	-1.578309e-08	-4.119969e+01	-1.035606e+03
4.100000e-07	-5.932744e-06	-1.567117e-08	-4.044678e+01	-1.029887e+03
4.200000e-07	-5.820080e-06	-1.557828e-08	-3.967869e+01	-1.023562e+03
4.300000e-07	-5.705161e-06	-1.547237e-08	-3.889522e+01	-1.016608e+03
4.400000e-07	-5.588030e-06	-1.538056e-08	-3.809668e+01	-1.009183e+03
4.500000e-07	-5.468833e-06	-1.528417e-08	-3.728405e+01	-1.001561e+03
4.600000e-07	-5.347664e-06	-1.517612e-08	-3.645797e+01	-9.940037e+02
4.700000e-07	-5.224557e-06	-1.505416e-08	-3.561868e+01	-9.866385e+02
4.800000e-07	-5.099561e-06	-1.492858e-08	-3.476651e+01	-9.793944e+02
4.900000e-07	-4.972703e-06	-1.481287e-08	-3.390165e+01	-9.720246e+02
5.000000e-07	-4.844106e-06	-1.468110e-08	-3.302494e+01	-9.642094e+02
5.100000e-07	-4.713766e-06	-1.454946e-08	-3.213634e+01	-9.556971e+02
5.200000e-07	-4.581679e-06	-1.441181e-08	-3.123583e+01	-9.464174e+02
5.300000e-07	-4.447933e-06	-1.427848e-08	-3.032401e+01	-9.365165e+02
5.400000e-07	-4.312525e-06	-1.413539e-08	-2.940085e+01	-9.262948e+02
5.500000e-07	-4.175573e-06	-1.398426e-08	-2.846718e+01	-9.160703e+02
5.600000e-07	-4.037106e-06	-1.382390e-08	-2.752317e+01	-9.060284e+02
5.700000e-07	-3.897039e-06	-1.366442e-08	-2.656826e+01	-8.961239e+02
5.800000e-07	-3.755398e-06	-1.350415e-08	-2.560261e+01	-8.860843e+02
5.900000e-07	-3.612303e-06	-1.333016e-08	-2.462706e+01	-8.755159e+02
6.000000e-07	-3.467894e-06	-1.314759e-08	-2.364254e+01	-8.640712e+02
6.100000e-07	-3.322217e-06	-1.295871e-08	-2.264938e+01	-8.516036e+02
6.200000e-07	-3.175334e-06	-1.277466e-08	-2.164800e+01	-8.382381e+02
6.300000e-07	-3.027354e-06	-1.258030e-08	-2.063914e+01	-8.243212e+02
6.400000e-07	-2.878356e-06	-1.237419e-08	-1.962334e+01	-8.102658e+02
6.500000e-07	-2.728377e-06	-1.215971e-08	-1.860085e+01	-7.963542e+02
6.600000e-07	-2.577379e-06	-1.193921e-08	-1.757141e+01	-7.825878e+02
6.700000e-07	-2.425417e-06	-1.170917e-08	-1.653540e+01	-7.686539e+02
6.800000e-07	-2.272660e-06	-1.146517e-08	-1.549397e+01	-7.540329e+02
6.900000e-07	-2.119144e-06	-1.121527e-08	-1.444737e+01	-7.382078e+02
7.000000e-07	-1.964824e-06	-1.095836e-08	-1.339529e+01	-7.208854e+02
7.100000e-07	-1.809752e-06	-1.069448e-08	-1.233808e+01	-7.021310e+02
7.200000e-07	-1.654032e-06	-1.041451e-08	-1.127645e+01	-6.823445e+02
7.300000e-07	-1.497720e-06	-1.012028e-08	-1.021078e+01	-6.620769e+02
7.400000e-07	-1.340862e-06	-9.811033e-09	-9.141398e+00	-6.417541e+02
7.500000e-07	-1.183492e-06	-9.485718e-09	-8.068514e+00	-6.214280e+02
7.600000e-07	-1.025617e-06	-9.141503e-09	-6.992196e+00	-6.006693e+02
7.700000e-07	-8.673339e-07	-8.777974e-09	-5.913093e+00	-5.786688e+02
7.800000e-07	-7.087097e-07	-8.400351e-09	-4.831664e+00	-5.545231e+02
7.900000e-07	-5.497999e-07	-8.001424e-09	-3.748289e+00	-5.275933e+02
8.000000e-07	-3.906742e-07	-7.577329e-09	-2.663441e+00	-4.977809e+02
8.100000e-07	-2.314104e-07	-7.119300e-09	-1.577652e+00	-4.655743e+02
8.200000e-07	-7.212030e-08	-6.626897e-09	-4.916838e-01	-4.318034e+02
8.300000e-07	8.713439e-08	-6.097532e-09	5.940431e-01	-3.971560e+02
8.400000e-07	2.463506e-07	-5.526660e-09	1.679508e+00	-3.616205e+02
8.500000e-07	4.055092e-07	-4.904490e-09	2.764580e+00	-3.240801e+02
8.600000e-07	5.645373e-07	-4.216487e-09	3.848762e+00	-2.822586e+02
8.700000e-07	7.233448e-07	-3.448002e-09	4.931440e+00	-2.331153e+02
8.800000e-07	8.818473e-07	-2.572707e-09	6.012039e+00	-1.736300e+02
8.900000e-07	1.040037e-06	-1.550529e-09	7.090505e+00	-1.017704e+02
9.000000e-07	1.197857e-06	-3.270511e-10	8.166451e+00	-1.734393e+01
9.100000e-07	1.355197e-06	1.125074e-09	9.239121e+00	7.755529e+01
9.200000e-07	1.511995e-06	2.755266e-09	1.030810e+01	1.786852e+02
9.300000e-07	1.668222e-06	4.408749e-09	1.137318e+01	2.803830e+02
9.400000e-07	1.823878e-06	5.909074e-09	1.243438e+01	3.766983e+02
9.500000e-07	1.978888e-06	7.159529e-09	1.349117e+01	4.626175e+02
9.600000e-07	2.133132e-06	8.163644e-09	1.454273e+01	5.350356e+02
9.700000e-07	2.286487e-06	8.975803e-09	1.558824e+01	5.932085e+02
9.800000e-07	2.438954e-06	9.649413e-09	1.662769e+01	6.385882e+02
9.900000e-07	2.590632e-06	1.022263e-08	1.766177e+01	6.741298e+02
1.000000e-06	2.741444e-06	1.071460e-08	1.868993e+01	7.033160e+02
1.010000e-06	2.891300e-06	1.114356e-08	1.971158e+01	7.292114e+02
1.020000e-06	3.040105e-06	1.152702e-08	2.072607e+01	7.538167e+02
1.030000e-06	3.187801e-06	1.187953e-08	2.173299e+01	7.778718e+02
1.040000e-06	3.334346e-06	1.220270e-08	2.273208e+01	8.010936e+02
1.050000e-06	3.479700e-06	1.249334e-08	2.372303e+01	8.226937e+02
1.060000e-06	3.623812e-06	1.276188e-08	2.470552e+01	8.419481e+02
1.070000e-06	3.766573e-06	1.301977e-08	2.567880e+01	8.586074e+02
1.080000e-06	3.907877e-06	1.326377e-08	2.664215e+01	8.730241e+02
1.090000e-06	4.047618e-06	1.348511e-08	2.759484e+01	8.859955e+02
1.100000e-06	4.185840e-06	1.368914e-08	2.853718e+01	8.984281e+02
1.110000e-06	4.322571e-06	1.388516e-08	2.946934e+01	9.109881e+02
1.120000e-06	4.457728e-06	1.407466e-08	3.039078e+01	9.238821e+02
1.130000e-06	4.591276e-06	1.425202e-08	3.130125e+01	9.368481e+02
1.140000e-06	4.723117e-06	1.441888e-08	3.220009e+01	9.493388e+02
1.150000e-06	4.853214e-06	1.458341e-08	3.308703e+01	9.608035e+02
1.160000e-06	4.981616e-06	1.474513e-08	3.396242e+01	9.709428e+02
1.170000e-06	5.108315e-06	1.489568e-08	3.482620e+01	9.798313e+02
1.180000e-06	5.233285e-06	1.503172e-08	3.567819e+01	9.878691e+02
1.190000e-06	5.356425e-06	1.516049e-08	3.651770e+01	9.955962e+02
1.200000e-06	5.477644e-06	1.528781e-08	3.734412e+01	1.003460e+03
1.210000e-06	5.596818e-06	1.541288e-08	3.815659e+01	1.011638e+03
1.220000e-06	5.713807e-06	1.553054e-08	3.895417e+01	1.019987e+03
1.230000e-06	5.828583e-06	1.564086e-08	3.973666e+01	1.028139e+03
1.240000e-06	5.941193e-06	1.574743e-08	4.050438e+01	1.035681e+03
1.250000e-06	6.051690e-06	1.585095e-08	4.125771e+01	1.042349e+03
1.260000e-06	6.160055e-06	1.594697e-08	4.199649e+01	1.048146e+03
1.270000e-06	6.266225e-06	1.603424e-08	4.272031e+01	1.053339e+03
1.280000e-06	6.370137e-06	1.611966e-08	4.342873e+01	1.058332e+03
1.290000e-06	6.471755e-06	1.620486e-08	4.412152e+01	1.063498e+03
1.300000e-06	6.571011e-06	1.628817e-08	4.479820e+01	1.069019e+03
1.310000e-06	6.667825e-06	1.636749e-08	4.545823e+01	1.074818e+03
1.320000e-06	6.762302e-06	1.644352e-08	4.610234e+01	1.080607e+03
1.330000e-06	6.854484e-06	1.651605e-08	4.673079e+01	1.086022e+03
1.340000e-06	6.944214e-06	1.658474e-08	4.734253e+01	1.090782e+03
1.350000e-06	7.031456e-06	1.665019e-08	4.793731e+01	1.094810e+03
1.360000e-06	7.116348e-06	1.671342e-08	4.851606e+01	1.098259e+03
1.370000e-06	7.198717e-06	1.677629e-08	4.907762e+01	1.101440e+03
1.380000e-06	7.278410e-06	1.683674e-08	4.962093e+01	1.104681e+03
1.390000e-06	7.355435e-06	1.689251e-08	5.014605e+01	1.108190e+03
1.400000e-06	7.429701e-06	1.694468e-08	5.065236e+01	1.111967e+03
1.410000e-06	7.501286e-06	1.699552e-08	5.114040e+01	1.115822e+03
1.420000e-06	7.570247e-06	1.704227e-08	5.161054e+01	1.119459e+03
1.430000e-06	7.636447e-06	1.708605e-08	5.206186e+01	1.122620e+03
1.440000e-06	7.699921e-06	1.712936e-08	5.249460e+01	1.125190e+03
1.450000e-06	7.760801e-06	1.717205e-08	5.290966e+01	1.127249e+03
1.460000e-06	7.818919e-06	1.721271e-08	5.330588e+01	1.129027e+03
1.470000e-06	7.874232e-06	1.724813e-08	5.368298e+01	1.130802e+03
1.480000e-06	7.926565e-06	1.727900e-08	5.403976e+01	1.132775e+03
1.490000e-06	7.975654e-06	1.730684e-08	5.437442e+01	1.134983e+03
1.500000e-06	8.021784e-06	1.733336e-08	5.468892e+01	1.137290e+03
1.510000e-06	8.065125e-06	1.735790e-08	5.498440e+01	1.139454e+03
1.520000e-06	8.105539e-06	1.737978e-08	5.525992e+01	1.141235e+03
1.530000e-06	8.143131e-06	1.740150e-08	5.551621e+01	1.142508e+03
1.540000e-06	8.177942e-06	1.742466e-08	5.575353e+01	1.143315e+03
1.550000e-06	8.209834e-06	1.744728e-08	5.597096e+01	1.143843e+03
1.560000e-06	8.238890e-06	1.746568e-08	5.616905e+01	1.144345e+03
1.570000e-06	8.265062e-06	1.747848e-08	5.634748e+01	1.145022e+03
1.580000e-06	8.288249e-06	1.748768e-08	5.650556e+01	1.145940e+03
1.590000e-06	8.308635e-06	1.749623e-08	5.664454e+01	1.147000e+03
1.600000e-06	8.326141e-06	1.750344e-08	5.676389e+01	1.147990e+03
1.610000e-06	8.340534e-06	1.750936e-08	5.686202e+01	1.148678e+03
1.620000e-06	8.351691e-06	1.751608e-08	5.693808e+01	1.148918e+03
1.630000e-06	8.359664e-06	1.752354e-08	5.699244e+01	1.148717e+03
1.640000e-06	8.364722e-06	1.752983e-08	5.702692e+01	1.148226e+03
1.650000e-06	8.366861e-06	1.753070e-08	5.704150e+01	1.147676e+03
1.660000e-06	8.366121e-06	1.752722e-08	5.703645e+01	1.147273e+03
1.670000e-06	8.362658e-06	1.750966e-08	5.701285e+01	1.147103e+03
1.680000e-06	8.356365e-06	1.750371e-08	5.696994e+01	1.147096e+03
1.690000e-06	8.347248e-06	1.750186e-08	5.690779e+01	1.147058e+03
1.700000e-06	8.335263e-06	1.749033e-08	5.682608e+01	1.146755e+03
1.710000e-06	8.320380e-06	1.747770e-08	5.672461e+01	1.146017e+03
1.720000e-06	8.302922e-06	1.747563e-08	5.660559e+01	1.144817e+03
1.730000e-06	8.282975e-06	1.749182e-08	5.646960e+01	1.143282e+03
1.740000e-06	8.260091e-06	1.738601e-08	5.631359e+01	1.141640e+03
1.750000e-06	8.233594e-06	1.731419e-08	5.613295e+01	1.140125e+03
1.760000e-06	8.203251e-06	1.735369e-08	5.592608e+01	1.138875e+03
1.770000e-06	8.169685e-06	1.734204e-08	5.569724e+01	1.137878e+03
1.780000e-06	8.133581e-06	1.729587e-08	5.545110e+01	1.136981e+03
1.790000e-06	8.095153e-06	1.737594e-08	5.518912e+01	1.135960e+03
1.800000e-06	8.054712e-06	1.738568e-08	5.491341e+01	1.134615e+03
1.810000e-06	8.012012e-06	1.720263e-08	5.462230e+01	1.132856e+03
1.820000e-06	7.966369e-06	1.733560e-08	5.431112e+01	1.130730e+03
1.830000e-06	7.917924e-06	1.723554e-08	5.398085e+01	1.128391e+03
1.840000e-06	7.866412e-06	1.718211e-08	5.362966e+01	1.126015e+03
1.850000e-06	7.811584e-06	1.722830e-08	5.325587e+01	1.123712e+03
1.860000e-06	7.753954e-06	1.706935e-08	5.286297e+01	1.121467e+03
1.870000e-06	7.693565e-06	1.718746e-08	5.245127e+01	1.119145e+03
1.880000e-06	7.630466e-06	1.704157e-08	5.202109e+01	1.116549e+03
1.890000e-06	7.564516e-06	1.701512e-08	5.157147e+01	1.113515e+03
1.900000e-06	7.495635e-06	1.696907e-08	5.110187e+01	1.109997e+03
1.910000e-06	7.423976e-06	1.683330e-08	5.061333e+01	1.106093e+03
1.920000e-06	7.349369e-06	1.688036e-08	5.010470e+01	1.102014e+03
1.930000e-06	7.271985e-06	1.674018e-08	4.957713e+01	1.097993e+03
1.940000e-06	7.191992e-06	1.677849e-08	4.903177e+01	1.094182e+03
1.950000e-06	7.109459e-06	1.667086e-08	4.846910e+01	1.090583e+03
1.960000e-06	7.024346e-06	1.659832e-08	4.788884e+01	1.087037e+03
1.970000e-06	6.936608e-06	1.656389e-08	4.729068e+01	1.083291e+03
1.980000e-06	6.846464e-06	1.641463e-08	4.667612e+01	1.079102e+03
1.990000e-06	6.753927e-06	1.641978e-08	4.604524e+01	1.074347e+03
2.000000e-06	6.659034e-06	1.630255e-08	4.539830e+01	1.069071e+03
2.010000e-06	6.561787e-06	1.627783e-08	4.473532e+01	1.063474e+03
2.020000e-06	6.462177e-06	1.616713e-08	4.405622e+01	1.057822e+03
2.030000e-06	6.360217e-06	1.608008e-08	4.336110e+01	1.052325e+03
2.040000e-06	6.255939e-06	1.599322e-08	4.265018e+01	1.047045e+03
2.050000e-06	6.149407e-06	1.589004e-08	4.192390e+01	1.041861e+03
2.060000e-06	6.040734e-06	1.583327e-08	4.118301e+01	1.036520e+03
2.070000e-06	5.929955e-06	1.571859e-08	4.042777e+01	1.030743e+03
2.080000e-06	5.816843e-06	1.564671e-08	3.965662e+01	1.024348e+03
2.090000e-06	5.701413e-06	1.552499e-08	3.886967e+01	1.017332e+03
2.100000e-06	5.583766e-06	1.542030e-08	3.806761e+01	1.009872e+03
2.110000e-06	5.464052e-06	1.529632e-08	3.725145e+01	1.002245e+03
2.120000e-06	5.342368e-06	1.518895e-08	3.642186e+01	9.947049e+02
2.130000e-06	5.218793e-06	1.507463e-08	3.557938e+01	9.873591e+02
2.140000e-06	5.093373e-06	1.496563e-08	3.472433e+01	9.801152e+02
2.150000e-06	4.966089e-06	1.484560e-08	3.385656e+01	9.727123e+02
2.160000e-06	4.836971e-06	1.471154e-08	3.297630e+01	9.648315e+02
2.170000e-06	4.706065e-06	1.457428e-08	3.208383e+01	9.562360e+02
2.180000e-06	4.573553e-06	1.443275e-08	3.118043e+01	9.468786e+02
2.190000e-06	4.439517e-06	1.429766e-08	3.026663e+01	9.369268e+02
2.200000e-06	4.303824e-06	1.415212e-08	2.934154e+01	9.266902e+02
2.210000e-06	4.166418e-06	1.401193e-08	2.840476e+01	9.164795e+02
2.220000e-06	4.027463e-06	1.385180e-08	2.745743e+01	9.064583e+02
2.230000e-06	3.887033e-06	1.369168e-08	2.650005e+01	8.965552e+02
2.240000e-06	3.745140e-06	1.351855e-08	2.553268e+01	8.864779e+02
2.250000e-06	3.601873e-06	1.334501e-08	2.455595e+01	8.758292e+02
2.260000e-06	3.457343e-06	1.316707e-08	2.357061e+01	8.642768e+02
2.270000e-06	3.311515e-06	1.298426e-08	2.257642e+01	8.517017e+02
2.280000e-06	3.164469e-06	1.279726e-08	2.157393e+01	8.382573e+02
2.290000e-06	3.016414e-06	1.259832e-08	2.056456e+01	8.243059e+02
2.300000e-06	2.867351e-06	1.238984e-08	1.954831e+01	8.102559e+02
2.310000e-06	2.717252e-06	1.217294e-08	1.852500e+01	7.963650e+02
2.320000e-06	2.566218e-06	1.195445e-08	1.749532e+01	7.826001e+02
2.330000e-06	2.414301e-06	1.172780e-08	1.645962e+01	7.686188e+02
2.340000e-06	2.261408e-06	1.148950e-08	1.541726e+01	7.538908e+02
2.350000e-06	2.107558e-06	1.123807e-08	1.436838e+01	7.379130e+02
2.360000e-06	1.952957e-06	1.097763e-08	1.331439e+01	7.204268e+02
2.370000e-06	1.797754e-06	1.070819e-08	1.225628e+01	7.015375e+02
2.380000e-06	1.641975e-06	1.042625e-08	1.119425e+01	6.816723e+02
2.390000e-06	1.485627e-06	1.013200e-08	1.012834e+01	6.613827e+02
2.400000e-06	1.328707e-06	9.821971e-09	9.058530e+00	6.410648e+02
2.410000e-06	1.171238e-06	9.495475e-09	7.984973e+00	6.207207e+02
2.420000e-06	1.013373e-06	9.150847e-09	6.908722e+00	5.998716e+02
2.430000e-06	8.552114e-07	8.787716e-09	5.830447e+00	5.776823e+02
2.440000e-06	6.967263e-07	8.403867e-09	4.749967e+00	5.532604e+02
2.450000e-06	5.380340e-07	7.998844e-09	3.668074e+00	5.260150e+02
2.460000e-06	3.791959e-07	7.572460e-09	2.585187e+00	4.959131e+02
2.470000e-06	2.202009e-07	7.119449e-09	1.501231e+00	4.634965e+02
2.480000e-06	6.116525e-08	6.627261e-09	4.169972e-01	4.296061e+02
2.490000e-06	-9.781757e-08	6.088628e-09	-6.668762e-01	3.948806e+02
2.500000e-06	-2.567465e-07	5.509121e-09	-1.750382e+00	3.592048e+02
2.510000e-06	-4.155931e-07	4.884141e-09	-2.833327e+00	3.213324e+02
2.520000e-06	-5.742843e-07	4.196784e-09	-3.915213e+00	2.788786e+02
2.530000e-06	-7.328000e-07	3.426476e-09	-4.995901e+00	2.287619e+02
2.540000e-06	-8.910754e-07	2.552112e-09	-6.074952e+00	1.680211e+02
2.550000e-06	-1.049051e-06	1.531372e-09	-7.151955e+00	9.478518e+01
2.560000e-06	-1.206708e-06	3.071177e-10	-8.226795e+00	9.094675e+00
2.570000e-06	-1.363899e-06	-1.153407e-09	-9.298450e+00	-8.670859e+01
2.580000e-06	-1.520454e-06	-2.794432e-09	-1.036577e+01	-1.881862e+02
2.590000e-06	-1.676416e-06	-4.456515e-09	-1.142905e+01	-2.895859e+02
2.600000e-06	-1.831845e-06	-5.961290e-09	-1.248870e+01	-3.850005e+02
2.610000e-06	-1.986697e-06	-7.214938e-09	-1.354441e+01	-4.695822e+02
2.620000e-06	-2.140810e-06	-8.223192e-09	-1.459508e+01	-5.404679e+02
2.630000e-06	-2.294069e-06	-9.035786e-09	-1.563993e+01	-5.971674e+02
2.640000e-06	-2.446490e-06	-9.706860e-09	-1.667907e+01	-6.413343e+02
2.650000e-06	-2.597983e-06	-1.027675e-08	-1.771188e+01	-6.760290e+02
2.660000e-06	-2.748507e-06	-1.077101e-08	-1.873809e+01	-7.047314e+02
2.670000e-06	-2.898020e-06	-1.120745e-08	-1.975740e+01	-7.304158e+02
2.680000e-06	-3.046486e-06	-1.159871e-08	-2.076957e+01	-7.549486e+02
2.690000e-06	-3.193964e-06	-1.195278e-08	-2.177501e+01	-7.789423e+02
2.700000e-06	-3.340326e-06	-1.227703e-08	-2.277284e+01	-8.020321e+02
2.710000e-06	-3.485492e-06	-1.257395e-08	-2.376252e+01	-8.234102e+02
2.720000e-06	-3.629348e-06	-1.284427e-08	-2.474326e+01	-8.423883e+02
2.730000e-06	-3.771782e-06	-1.309385e-08	-2.571432e+01	-8.587810e+02
2.740000e-06	-3.912808e-06	-1.332970e-08	-2.667577e+01	-8.730002e+02
2.750000e-06	-4.052418e-06	-1.355524e-08	-2.762757e+01	-8.858726e+02
2.760000e-06	-4.190524e-06	-1.376918e-08	-2.856911e+01	-8.982945e+02
2.770000e-06	-4.327005e-06	-1.397014e-08	-2.949957e+01	-9.108899e+02
2.780000e-06	-4.461869e-06	-1.415912e-08	-3.041902e+01	-9.238118e+02
2.790000e-06	-4.595119e-06	-1.433834e-08	-3.132746e+01	-9.367561e+02
2.800000e-06	-4.726788e-06	-1.450849e-08	-3.222512e+01	-9.491611e+02
2.810000e-06	-4.856829e-06	-1.466785e-08	-3.311168e+01	-9.604925e+02
2.820000e-06	-4.985168e-06	-1.481753e-08	-3.398663e+01	-9.704880e+02
2.830000e-06	-5.111691e-06	-1.496147e-08	-3.484922e+01	-9.792624e+02
2.840000e-06	-5.236365e-06	-1.510140e-08	-3.569918e+01	-9.872413e+02
2.850000e-06	-5.359228e-06	-1.523424e-08	-3.653681e+01	-9.949659e+02
2.860000e-06	-5.480234e-06	-1.535795e-08	-3.736177e+01	-1.002861e+03
2.870000e-06	-5.599166e-06	-1.547506e-08	-3.817260e+01	-1.011070e+03
2.880000e-06	-5.715903e-06	-1.558829e-08	-3.896846e+01	-1.019419e+03
2.890000e-06	-5.830334e-06	-1.569763e-08	-3.974860e+01	-1.027524e+03
2.900000e-06	-5.942351e-06	-1.580055e-08	-4.051228e+01	-1.034981e+03
2.910000e-06	-6.052117e-06	-1.589845e-08	-4.126061e+01	-1.041551e+03
2.920000e-06	-6.159786e-06	-1.599200e-08	-4.199465e+01	-1.047268e+03
2.930000e-06	-6.265408e-06	-1.608246e-08	-4.271474e+01	-1.052420e+03
2.940000e-06	-6.368835e-06	-1.617177e-08	-4.341986e+01	-1.057416e+03
