# Temperatura_=_65.29
# Concentracion g/m^3_=_13400.0
# C_Vs_to_Am_M_A/Vsm_=_65563218390.804596
# pendiente_HvsI_1/m_=_3716.3
# ordenada_HvsI_A/m_=_1297.0
# frecuencia_Hz_=_301417.81328761205

Tiempo_(s)	Campo_(V.s)	Magnetizacion_(V.s)	Campo_(kA/m)	Magnetizacion_(A/m)
0.000000e+00	-8.362903e-06	-1.756556e-08	-5.692026e+01	-1.152072e+03
1.000000e-08	-8.359523e-06	-1.756724e-08	-5.689725e+01	-1.151839e+03
2.000000e-08	-8.353416e-06	-1.755802e-08	-5.685568e+01	-1.151803e+03
3.000000e-08	-8.344590e-06	-1.754680e-08	-5.679561e+01	-1.151760e+03
4.000000e-08	-8.332863e-06	-1.753848e-08	-5.671580e+01	-1.151461e+03
5.000000e-08	-8.318090e-06	-1.752841e-08	-5.661524e+01	-1.150712e+03
6.000000e-08	-8.300347e-06	-1.750908e-08	-5.649448e+01	-1.149471e+03
7.000000e-08	-8.280059e-06	-1.747826e-08	-5.635640e+01	-1.147861e+03
8.000000e-08	-8.257228e-06	-1.748160e-08	-5.620100e+01	-1.146120e+03
9.000000e-08	-8.231237e-06	-1.754813e-08	-5.602410e+01	-1.144501e+03
1.000000e-07	-8.201871e-06	-1.751449e-08	-5.582422e+01	-1.143168e+03
1.100000e-07	-8.169350e-06	-1.743376e-08	-5.560288e+01	-1.142126e+03
1.200000e-07	-8.133863e-06	-1.740843e-08	-5.536134e+01	-1.141228e+03
1.300000e-07	-8.095785e-06	-1.739145e-08	-5.510218e+01	-1.140238e+03
1.400000e-07	-8.055403e-06	-1.730070e-08	-5.482732e+01	-1.138938e+03
1.500000e-07	-8.012465e-06	-1.722833e-08	-5.453507e+01	-1.137215e+03
1.600000e-07	-7.966684e-06	-1.735173e-08	-5.422348e+01	-1.135098e+03
1.700000e-07	-7.918040e-06	-1.723432e-08	-5.389239e+01	-1.132733e+03
1.800000e-07	-7.866390e-06	-1.722999e-08	-5.354085e+01	-1.130303e+03
1.900000e-07	-7.811707e-06	-1.726337e-08	-5.316866e+01	-1.127934e+03
2.000000e-07	-7.754180e-06	-1.710641e-08	-5.277711e+01	-1.125629e+03
2.100000e-07	-7.693865e-06	-1.709283e-08	-5.236659e+01	-1.123268e+03
2.200000e-07	-7.630909e-06	-1.699868e-08	-5.193810e+01	-1.120660e+03
2.300000e-07	-7.565213e-06	-1.699894e-08	-5.149095e+01	-1.117637e+03
2.400000e-07	-7.496629e-06	-1.696072e-08	-5.102415e+01	-1.114139e+03
2.500000e-07	-7.425249e-06	-1.690664e-08	-5.053832e+01	-1.110249e+03
2.600000e-07	-7.350969e-06	-1.690223e-08	-5.003275e+01	-1.106166e+03
2.700000e-07	-7.273818e-06	-1.682043e-08	-4.950764e+01	-1.102116e+03
2.800000e-07	-7.193858e-06	-1.675352e-08	-4.896341e+01	-1.098253e+03
2.900000e-07	-7.111237e-06	-1.664103e-08	-4.840107e+01	-1.094587e+03
3.000000e-07	-7.026245e-06	-1.659969e-08	-4.782259e+01	-1.090970e+03
3.100000e-07	-6.938898e-06	-1.655578e-08	-4.722808e+01	-1.087157e+03
3.200000e-07	-6.849081e-06	-1.648467e-08	-4.661676e+01	-1.082910e+03
3.300000e-07	-6.756779e-06	-1.644371e-08	-4.598852e+01	-1.078104e+03
3.400000e-07	-6.662108e-06	-1.634653e-08	-4.534417e+01	-1.072781e+03
3.500000e-07	-6.565054e-06	-1.628023e-08	-4.468359e+01	-1.067136e+03
3.600000e-07	-6.465583e-06	-1.619460e-08	-4.400656e+01	-1.061427e+03
3.700000e-07	-6.363750e-06	-1.610084e-08	-4.331346e+01	-1.055863e+03
3.800000e-07	-6.259569e-06	-1.600488e-08	-4.260437e+01	-1.050507e+03
3.900000e-07	-6.153126e-06	-1.592506e-08	-4.187990e+01	-1.045241e+03
4.000000e-07	-6.044535e-06	-1.585592e-08	-4.114079e+01	-1.039814e+03
4.100000e-07	-5.933795e-06	-1.575103e-08	-4.038707e+01	-1.033951e+03
4.200000e-07	-5.820790e-06	-1.565406e-08	-3.961792e+01	-1.027473e+03
4.300000e-07	-5.705495e-06	-1.554838e-08	-3.883319e+01	-1.020376e+03
4.400000e-07	-5.588013e-06	-1.545422e-08	-3.803358e+01	-1.012837e+03
4.500000e-07	-5.468477e-06	-1.534638e-08	-3.721998e+01	-1.005133e+03
4.600000e-07	-5.346892e-06	-1.523052e-08	-3.639244e+01	-9.975132e+02
4.700000e-07	-5.223363e-06	-1.511122e-08	-3.555167e+01	-9.900856e+02
4.800000e-07	-5.098040e-06	-1.499368e-08	-3.469868e+01	-9.827563e+02
4.900000e-07	-4.970925e-06	-1.487573e-08	-3.383350e+01	-9.752648e+02
5.000000e-07	-4.841966e-06	-1.474093e-08	-3.295578e+01	-9.672941e+02
5.100000e-07	-4.711187e-06	-1.460313e-08	-3.206565e+01	-9.586102e+02
5.200000e-07	-4.578682e-06	-1.446569e-08	-3.116379e+01	-9.491692e+02
5.300000e-07	-4.444589e-06	-1.433156e-08	-3.025111e+01	-9.391402e+02
5.400000e-07	-4.308960e-06	-1.418660e-08	-2.932799e+01	-9.288314e+02
5.500000e-07	-4.171649e-06	-1.403199e-08	-2.839341e+01	-9.185485e+02
5.600000e-07	-4.032678e-06	-1.387350e-08	-2.744753e+01	-9.084467e+02
5.700000e-07	-3.892140e-06	-1.371363e-08	-2.649099e+01	-8.984448e+02
5.800000e-07	-3.750042e-06	-1.354761e-08	-2.552384e+01	-8.882434e+02
5.900000e-07	-3.606439e-06	-1.336739e-08	-2.454643e+01	-8.774437e+02
6.000000e-07	-3.461538e-06	-1.318279e-08	-2.356019e+01	-8.657191e+02
6.100000e-07	-3.315442e-06	-1.299766e-08	-2.256582e+01	-8.529637e+02
6.200000e-07	-3.168171e-06	-1.281093e-08	-2.156346e+01	-8.393468e+02
6.300000e-07	-3.019823e-06	-1.261041e-08	-2.055376e+01	-8.252449e+02
6.400000e-07	-2.870514e-06	-1.239655e-08	-1.953752e+01	-8.110722e+02
6.500000e-07	-2.720265e-06	-1.218022e-08	-1.851488e+01	-7.970813e+02
6.600000e-07	-2.569052e-06	-1.195749e-08	-1.748568e+01	-7.832234e+02
6.700000e-07	-2.416890e-06	-1.172362e-08	-1.645003e+01	-7.691357e+02
6.800000e-07	-2.263791e-06	-1.147500e-08	-1.540799e+01	-7.542700e+02
6.900000e-07	-2.109827e-06	-1.122234e-08	-1.436007e+01	-7.381168e+02
7.000000e-07	-1.955072e-06	-1.096645e-08	-1.330676e+01	-7.204261e+02
7.100000e-07	-1.799578e-06	-1.069980e-08	-1.224843e+01	-7.013261e+02
7.200000e-07	-1.643441e-06	-1.041361e-08	-1.118572e+01	-6.812739e+02
7.300000e-07	-1.486738e-06	-1.011174e-08	-1.011915e+01	-6.608460e+02
7.400000e-07	-1.329524e-06	-9.799896e-09	-9.049112e+00	-6.404489e+02
7.500000e-07	-1.171817e-06	-9.472649e-09	-7.975713e+00	-6.200736e+02
7.600000e-07	-1.013678e-06	-9.125374e-09	-6.899376e+00	-5.992116e+02
7.700000e-07	-8.552145e-07	-8.758428e-09	-5.820829e+00	-5.769890e+02
7.800000e-07	-6.964725e-07	-8.378657e-09	-4.740386e+00	-5.524806e+02
7.900000e-07	-5.374711e-07	-7.977990e-09	-3.658178e+00	-5.250824e+02
8.000000e-07	-3.782656e-07	-7.546211e-09	-2.574581e+00	-4.947755e+02
8.100000e-07	-2.188943e-07	-7.076998e-09	-1.489855e+00	-4.621386e+02
8.200000e-07	-5.942577e-08	-6.575891e-09	-4.044684e-01	-4.280586e+02
8.300000e-07	1.000522e-07	-6.040997e-09	6.809832e-01	-3.932086e+02
8.400000e-07	2.594599e-07	-5.463517e-09	1.765956e+00	-3.574769e+02
8.500000e-07	4.187400e-07	-4.832397e-09	2.850062e+00	-3.195805e+02
8.600000e-07	5.778635e-07	-4.133374e-09	3.933101e+00	-2.770619e+02
8.700000e-07	7.367561e-07	-3.354132e-09	5.014568e+00	-2.267510e+02
8.800000e-07	8.953806e-07	-2.464122e-09	6.094210e+00	-1.656115e+02
8.900000e-07	1.053721e-06	-1.417156e-09	7.171922e+00	-9.174059e+01
9.000000e-07	1.211685e-06	-1.574600e-10	8.247067e+00	-5.208844e+00
9.100000e-07	1.369190e-06	1.337098e-09	9.319091e+00	9.154846e+01
9.200000e-07	1.526185e-06	2.999423e-09	1.038764e+01	1.939558e+02
9.300000e-07	1.682569e-06	4.662350e-09	1.145203e+01	2.961149e+02
9.400000e-07	1.838398e-06	6.146676e-09	1.251265e+01	3.920034e+02
9.500000e-07	1.993668e-06	7.367098e-09	1.356946e+01	4.767210e+02
9.600000e-07	2.148152e-06	8.340684e-09	1.462092e+01	5.474288e+02
9.700000e-07	2.301797e-06	9.127234e-09	1.566668e+01	6.037292e+02
9.800000e-07	2.454655e-06	9.781690e-09	1.670707e+01	6.474077e+02
9.900000e-07	2.606622e-06	1.034230e-08	1.774139e+01	6.816569e+02
1.000000e-06	2.757570e-06	1.082841e-08	1.876879e+01	7.100532e+02
1.010000e-06	2.907440e-06	1.125378e-08	1.978885e+01	7.356081e+02
1.020000e-06	3.056295e-06	1.163394e-08	2.080200e+01	7.601647e+02
1.030000e-06	3.204160e-06	1.198089e-08	2.180841e+01	7.842680e+02
1.040000e-06	3.350843e-06	1.229874e-08	2.280677e+01	8.074724e+02
1.050000e-06	3.496311e-06	1.258868e-08	2.379687e+01	8.289067e+02
1.060000e-06	3.640534e-06	1.285772e-08	2.477849e+01	8.478569e+02
1.070000e-06	3.783387e-06	1.311090e-08	2.575079e+01	8.641556e+02
1.080000e-06	3.924837e-06	1.334909e-08	2.671354e+01	8.782638e+02
1.090000e-06	4.064802e-06	1.357071e-08	2.766618e+01	8.910653e+02
1.100000e-06	4.203210e-06	1.377921e-08	2.860822e+01	9.034980e+02
1.110000e-06	4.340033e-06	1.397720e-08	2.953948e+01	9.161952e+02
1.120000e-06	4.475232e-06	1.416566e-08	3.045968e+01	9.292848e+02
1.130000e-06	4.608832e-06	1.434545e-08	3.136900e+01	9.424147e+02
1.140000e-06	4.740810e-06	1.451640e-08	3.226728e+01	9.549721e+02
1.150000e-06	4.871077e-06	1.468135e-08	3.315391e+01	9.663890e+02
1.160000e-06	4.999618e-06	1.483808e-08	3.402879e+01	9.763993e+02
1.170000e-06	5.126395e-06	1.498609e-08	3.489167e+01	9.851439e+02
1.180000e-06	5.251401e-06	1.512408e-08	3.574250e+01	9.930933e+02
1.190000e-06	5.374544e-06	1.525610e-08	3.658065e+01	1.000833e+03
1.200000e-06	5.495764e-06	1.538668e-08	3.740571e+01	1.008816e+03
1.210000e-06	5.614973e-06	1.551312e-08	3.821707e+01	1.017184e+03
1.220000e-06	5.732053e-06	1.563136e-08	3.901396e+01	1.025735e+03
1.230000e-06	5.846928e-06	1.574140e-08	3.979582e+01	1.034044e+03
1.240000e-06	5.959539e-06	1.584785e-08	4.056229e+01	1.041663e+03
1.250000e-06	6.070030e-06	1.595076e-08	4.131432e+01	1.048331e+03
1.260000e-06	6.178470e-06	1.604846e-08	4.205239e+01	1.054080e+03
1.270000e-06	6.284732e-06	1.614071e-08	4.277564e+01	1.059223e+03
1.280000e-06	6.388647e-06	1.622968e-08	4.348292e+01	1.064206e+03
1.290000e-06	6.490236e-06	1.631536e-08	4.417436e+01	1.069422e+03
1.300000e-06	6.589467e-06	1.639636e-08	4.484975e+01	1.075044e+03
1.310000e-06	6.686229e-06	1.647386e-08	4.550835e+01	1.080969e+03
1.320000e-06	6.780629e-06	1.654960e-08	4.615086e+01	1.086874e+03
1.330000e-06	6.872707e-06	1.662383e-08	4.677756e+01	1.092367e+03
1.340000e-06	6.962349e-06	1.669458e-08	4.738769e+01	1.097163e+03
1.350000e-06	7.049491e-06	1.676178e-08	4.798080e+01	1.101200e+03
1.360000e-06	7.134224e-06	1.682663e-08	4.855752e+01	1.104660e+03
1.370000e-06	7.216466e-06	1.689006e-08	4.911728e+01	1.107880e+03
1.380000e-06	7.296078e-06	1.695003e-08	4.965915e+01	1.111201e+03
1.390000e-06	7.373056e-06	1.700499e-08	5.018308e+01	1.114822e+03
1.400000e-06	7.447262e-06	1.705652e-08	5.068815e+01	1.118722e+03
1.410000e-06	7.518710e-06	1.710734e-08	5.117444e+01	1.122677e+03
1.420000e-06	7.587549e-06	1.715832e-08	5.164298e+01	1.126369e+03
1.430000e-06	7.653702e-06	1.720587e-08	5.209323e+01	1.129529e+03
1.440000e-06	7.717137e-06	1.724790e-08	5.252499e+01	1.132054e+03
1.450000e-06	7.777956e-06	1.728770e-08	5.293894e+01	1.134053e+03
1.460000e-06	7.836017e-06	1.732875e-08	5.333412e+01	1.135785e+03
1.470000e-06	7.891248e-06	1.736468e-08	5.371004e+01	1.137550e+03
1.480000e-06	7.943439e-06	1.739175e-08	5.406527e+01	1.139553e+03
1.490000e-06	7.992361e-06	1.741540e-08	5.439824e+01	1.141819e+03
1.500000e-06	8.038382e-06	1.744358e-08	5.471147e+01	1.144188e+03
1.510000e-06	8.081634e-06	1.747464e-08	5.500586e+01	1.146391e+03
1.520000e-06	8.121906e-06	1.750050e-08	5.527996e+01	1.148174e+03
1.530000e-06	8.159349e-06	1.752037e-08	5.553481e+01	1.149413e+03
1.540000e-06	8.194043e-06	1.753839e-08	5.577095e+01	1.150163e+03
1.550000e-06	8.225859e-06	1.755792e-08	5.598749e+01	1.150635e+03
1.560000e-06	8.254805e-06	1.757569e-08	5.618451e+01	1.151099e+03
1.570000e-06	8.280752e-06	1.758761e-08	5.636111e+01	1.151766e+03
1.580000e-06	8.303706e-06	1.759607e-08	5.651734e+01	1.152695e+03
1.590000e-06	8.323881e-06	1.760623e-08	5.665466e+01	1.153770e+03
1.600000e-06	8.341122e-06	1.761640e-08	5.677201e+01	1.154756e+03
1.610000e-06	8.355236e-06	1.762278e-08	5.686807e+01	1.155408e+03
1.620000e-06	8.366136e-06	1.762503e-08	5.694226e+01	1.155577e+03
1.630000e-06	8.373900e-06	1.762804e-08	5.699510e+01	1.155278e+03
1.640000e-06	8.378766e-06	1.763279e-08	5.702822e+01	1.154683e+03
1.650000e-06	8.380717e-06	1.763392e-08	5.704150e+01	1.154042e+03
1.660000e-06	8.379805e-06	1.762682e-08	5.703530e+01	1.153575e+03
1.670000e-06	8.376145e-06	1.760714e-08	5.701038e+01	1.153368e+03
1.680000e-06	8.369625e-06	1.760015e-08	5.696601e+01	1.153341e+03
1.690000e-06	8.360313e-06	1.759665e-08	5.690263e+01	1.153283e+03
1.700000e-06	8.348154e-06	1.758545e-08	5.681987e+01	1.152941e+03
1.710000e-06	8.333106e-06	1.757505e-08	5.671745e+01	1.152139e+03
1.720000e-06	8.315495e-06	1.757529e-08	5.659758e+01	1.150849e+03
1.730000e-06	8.295328e-06	1.757727e-08	5.646032e+01	1.149211e+03
1.740000e-06	8.272182e-06	1.745730e-08	5.630278e+01	1.147471e+03
1.750000e-06	8.245354e-06	1.740869e-08	5.612018e+01	1.145878e+03
1.760000e-06	8.214618e-06	1.744068e-08	5.591099e+01	1.144578e+03
1.770000e-06	8.180769e-06	1.741855e-08	5.568060e+01	1.143560e+03
1.780000e-06	8.144453e-06	1.739103e-08	5.543342e+01	1.142663e+03
1.790000e-06	8.105816e-06	1.748222e-08	5.517045e+01	1.141648e+03
1.800000e-06	8.065168e-06	1.744168e-08	5.489378e+01	1.140306e+03
1.810000e-06	8.022188e-06	1.730893e-08	5.460125e+01	1.138536e+03
1.820000e-06	7.976237e-06	1.742904e-08	5.428850e+01	1.136383e+03
1.830000e-06	7.927487e-06	1.728417e-08	5.395669e+01	1.134002e+03
1.840000e-06	7.875521e-06	1.728962e-08	5.360299e+01	1.131574e+03
1.850000e-06	7.820300e-06	1.727365e-08	5.322715e+01	1.129213e+03
1.860000e-06	7.762402e-06	1.717662e-08	5.283308e+01	1.126910e+03
1.870000e-06	7.701661e-06	1.727875e-08	5.241966e+01	1.124531e+03
1.880000e-06	7.638248e-06	1.710082e-08	5.198805e+01	1.121884e+03
1.890000e-06	7.572075e-06	1.710767e-08	5.153766e+01	1.118810e+03
1.900000e-06	7.502959e-06	1.701532e-08	5.106724e+01	1.115263e+03
1.910000e-06	7.431000e-06	1.691918e-08	5.057746e+01	1.111341e+03
1.920000e-06	7.356109e-06	1.693405e-08	5.006773e+01	1.107250e+03
1.930000e-06	7.278397e-06	1.682704e-08	4.953880e+01	1.103214e+03
1.940000e-06	7.198064e-06	1.686249e-08	4.899204e+01	1.099375e+03
1.950000e-06	7.115327e-06	1.672239e-08	4.842891e+01	1.095723e+03
1.960000e-06	7.029970e-06	1.668977e-08	4.784794e+01	1.092097e+03
1.970000e-06	6.941904e-06	1.660201e-08	4.724854e+01	1.088246e+03
1.980000e-06	6.851428e-06	1.648601e-08	4.663273e+01	1.083942e+03
1.990000e-06	6.758505e-06	1.647971e-08	4.600027e+01	1.079075e+03
2.000000e-06	6.663202e-06	1.636870e-08	4.535162e+01	1.073706e+03
2.010000e-06	6.565612e-06	1.634430e-08	4.468739e+01	1.068041e+03
2.020000e-06	6.465709e-06	1.622084e-08	4.400742e+01	1.062338e+03
2.030000e-06	6.363387e-06	1.615301e-08	4.331099e+01	1.056797e+03
2.040000e-06	6.258731e-06	1.604187e-08	4.259867e+01	1.051458e+03
2.050000e-06	6.151874e-06	1.594704e-08	4.187137e+01	1.046188e+03
2.060000e-06	6.042808e-06	1.587119e-08	4.112904e+01	1.040726e+03
2.070000e-06	5.931583e-06	1.577346e-08	4.037201e+01	1.034802e+03
2.080000e-06	5.818111e-06	1.569718e-08	3.959969e+01	1.028254e+03
2.090000e-06	5.702324e-06	1.557507e-08	3.881161e+01	1.021098e+03
2.100000e-06	5.584290e-06	1.546904e-08	3.800824e+01	1.013527e+03
2.110000e-06	5.464250e-06	1.534052e-08	3.719122e+01	1.005820e+03
2.120000e-06	5.342256e-06	1.523357e-08	3.636089e+01	9.982193e+02
2.130000e-06	5.218364e-06	1.511261e-08	3.551764e+01	9.908096e+02
2.140000e-06	5.092591e-06	1.500265e-08	3.466160e+01	9.834769e+02
2.150000e-06	4.964942e-06	1.487475e-08	3.379278e+01	9.759483e+02
2.160000e-06	4.835560e-06	1.475109e-08	3.291218e+01	9.679090e+02
2.170000e-06	4.704464e-06	1.461303e-08	3.201989e+01	9.591416e+02
2.180000e-06	4.571647e-06	1.447245e-08	3.111591e+01	9.496255e+02
2.190000e-06	4.437234e-06	1.432657e-08	3.020106e+01	9.395498e+02
2.200000e-06	4.301275e-06	1.417924e-08	2.927568e+01	9.292301e+02
2.210000e-06	4.163639e-06	1.403327e-08	2.833889e+01	9.189623e+02
2.220000e-06	4.024347e-06	1.387360e-08	2.739083e+01	9.088789e+02
2.230000e-06	3.883502e-06	1.371235e-08	2.643220e+01	8.988724e+02
2.240000e-06	3.741269e-06	1.353755e-08	2.546412e+01	8.886256e+02
2.250000e-06	3.597721e-06	1.336567e-08	2.448710e+01	8.777388e+02
2.260000e-06	3.452913e-06	1.318257e-08	2.350149e+01	8.659035e+02
2.270000e-06	3.306863e-06	1.299378e-08	2.250743e+01	8.530423e+02
2.280000e-06	3.159605e-06	1.279570e-08	2.150515e+01	8.393525e+02
2.290000e-06	3.011151e-06	1.259697e-08	2.049473e+01	8.252239e+02
2.300000e-06	2.861581e-06	1.239284e-08	1.947672e+01	8.110624e+02
2.310000e-06	2.711053e-06	1.218015e-08	1.845218e+01	7.970934e+02
2.320000e-06	2.559622e-06	1.195395e-08	1.742150e+01	7.832325e+02
2.330000e-06	2.407328e-06	1.171884e-08	1.638495e+01	7.690884e+02
2.340000e-06	2.254159e-06	1.147656e-08	1.534244e+01	7.541056e+02
2.350000e-06	2.100163e-06	1.122535e-08	1.429430e+01	7.377927e+02
2.360000e-06	1.945405e-06	1.096218e-08	1.324097e+01	7.199374e+02
2.370000e-06	1.789905e-06	1.068736e-08	1.218259e+01	7.007086e+02
2.380000e-06	1.633742e-06	1.040307e-08	1.111970e+01	6.805884e+02
2.390000e-06	1.477015e-06	1.010656e-08	1.005298e+01	6.601495e+02
2.400000e-06	1.319741e-06	9.793410e-09	8.982523e+00	6.397634e+02
2.410000e-06	1.161933e-06	9.459638e-09	7.908443e+00	6.193679e+02
2.420000e-06	1.003620e-06	9.108804e-09	6.830920e+00	5.984054e+02
2.430000e-06	8.449453e-07	8.742737e-09	5.750933e+00	5.759788e+02
2.440000e-06	6.860050e-07	8.362436e-09	4.669141e+00	5.511802e+02
2.450000e-06	5.268403e-07	7.960473e-09	3.585822e+00	5.234592e+02
2.460000e-06	3.675483e-07	7.528682e-09	2.501637e+00	4.928654e+02
2.470000e-06	2.081862e-07	7.063336e-09	1.416974e+00	4.600297e+02
2.480000e-06	4.876072e-08	6.562533e-09	3.318791e-01	4.258437e+02
2.490000e-06	-1.106755e-07	6.021499e-09	-7.532887e-01	3.909225e+02
2.500000e-06	-2.700365e-07	5.436616e-09	-1.837944e+00	3.550420e+02
2.510000e-06	-4.293069e-07	4.801617e-09	-2.921983e+00	3.167853e+02
2.520000e-06	-5.884885e-07	4.104288e-09	-4.005417e+00	2.735886e+02
2.530000e-06	-7.474957e-07	3.324650e-09	-5.087664e+00	2.222504e+02
2.540000e-06	-9.062137e-07	2.432580e-09	-6.167943e+00	1.598083e+02
2.550000e-06	-1.064536e-06	1.383367e-09	-7.245527e+00	8.453632e+01
2.560000e-06	-1.222412e-06	1.225850e-10	-8.320079e+00	-3.250060e+00
2.570000e-06	-1.379761e-06	-1.376338e-09	-9.391039e+00	-1.008642e+02
2.580000e-06	-1.536523e-06	-3.046935e-09	-1.045801e+01	-2.035407e+02
2.590000e-06	-1.692763e-06	-4.715585e-09	-1.152142e+01	-3.053067e+02
2.600000e-06	-1.848420e-06	-6.200014e-09	-1.258086e+01	-4.002032e+02
2.610000e-06	-2.003422e-06	-7.419123e-09	-1.363585e+01	-4.835139e+02
2.620000e-06	-2.157651e-06	-8.392783e-09	-1.468558e+01	-5.526548e+02
2.630000e-06	-2.311040e-06	-9.179806e-09	-1.572958e+01	-6.074854e+02
2.640000e-06	-2.463533e-06	-9.835310e-09	-1.676749e+01	-6.499859e+02
2.650000e-06	-2.615122e-06	-1.039505e-08	-1.779925e+01	-6.834405e+02
2.660000e-06	-2.765850e-06	-1.087943e-08	-1.882515e+01	-7.114061e+02
2.670000e-06	-2.915517e-06	-1.130687e-08	-1.984382e+01	-7.367901e+02
2.680000e-06	-3.064140e-06	-1.169250e-08	-2.085539e+01	-7.612940e+02
2.690000e-06	-3.211765e-06	-1.204385e-08	-2.186017e+01	-7.853356e+02
2.700000e-06	-3.358169e-06	-1.236276e-08	-2.285664e+01	-8.083944e+02
2.710000e-06	-3.503354e-06	-1.265254e-08	-2.384480e+01	-8.295899e+02
2.720000e-06	-3.647348e-06	-1.292042e-08	-2.482487e+01	-8.482531e+02
2.730000e-06	-3.790026e-06	-1.317174e-08	-2.579598e+01	-8.642857e+02
2.740000e-06	-3.931272e-06	-1.340924e-08	-2.675733e+01	-8.782079e+02
2.750000e-06	-4.071046e-06	-1.363293e-08	-2.770868e+01	-8.909284e+02
2.760000e-06	-4.209223e-06	-1.384343e-08	-2.864915e+01	-9.033678e+02
2.770000e-06	-4.345815e-06	-1.404202e-08	-2.957883e+01	-9.161110e+02
2.780000e-06	-4.480846e-06	-1.422983e-08	-3.049789e+01	-9.292293e+02
2.790000e-06	-4.614205e-06	-1.440829e-08	-3.140557e+01	-9.423296e+02
2.800000e-06	-4.745925e-06	-1.457663e-08	-3.230209e+01	-9.547891e+02
2.810000e-06	-4.875953e-06	-1.473413e-08	-3.318710e+01	-9.660617e+02
2.820000e-06	-5.004311e-06	-1.488585e-08	-3.406074e+01	-9.759231e+02
2.830000e-06	-5.130941e-06	-1.503414e-08	-3.492262e+01	-9.845565e+02
2.840000e-06	-5.255696e-06	-1.517520e-08	-3.577174e+01	-9.924565e+02
2.850000e-06	-5.378576e-06	-1.530598e-08	-3.660809e+01	-1.000206e+03
2.860000e-06	-5.499585e-06	-1.542767e-08	-3.743171e+01	-1.008230e+03
2.870000e-06	-5.618543e-06	-1.554582e-08	-3.824138e+01	-1.016633e+03
2.880000e-06	-5.735324e-06	-1.566171e-08	-3.903622e+01	-1.025182e+03
2.890000e-06	-5.849836e-06	-1.577042e-08	-3.981562e+01	-1.033437e+03
2.900000e-06	-5.961977e-06	-1.587171e-08	-4.057888e+01	-1.040963e+03
2.910000e-06	-6.071861e-06	-1.597225e-08	-4.132678e+01	-1.047525e+03
2.920000e-06	-6.179584e-06	-1.607151e-08	-4.205997e+01	-1.053192e+03
2.930000e-06	-6.285175e-06	-1.616480e-08	-4.277866e+01	-1.058296e+03
2.940000e-06	-6.388546e-06	-1.625218e-08	-4.348223e+01	-1.063289e+03
