# Temperatura_=_41.3
# Concentracion g/m^3_=_13400.0
# C_Vs_to_Am_M_A/Vsm_=_65563218390.804596
# pendiente_HvsI_1/m_=_3716.3
# ordenada_HvsI_A/m_=_1297.0
# frecuencia_Hz_=_301413.6790590694

Tiempo_(s)	Campo_(V.s)	Magnetizacion_(V.s)	Campo_(kA/m)	Magnetizacion_(A/m)
0.000000e+00	-8.333571e-06	-1.676557e-08	-5.692263e+01	-1.099562e+03
1.000000e-08	-8.329916e-06	-1.676433e-08	-5.689766e+01	-1.099340e+03
2.000000e-08	-8.323563e-06	-1.675650e-08	-5.685427e+01	-1.099322e+03
3.000000e-08	-8.314513e-06	-1.675126e-08	-5.679245e+01	-1.099350e+03
4.000000e-08	-8.302534e-06	-1.674668e-08	-5.671063e+01	-1.099204e+03
5.000000e-08	-8.287539e-06	-1.673804e-08	-5.660820e+01	-1.098697e+03
6.000000e-08	-8.269664e-06	-1.671930e-08	-5.648611e+01	-1.097756e+03
7.000000e-08	-8.249261e-06	-1.669091e-08	-5.634675e+01	-1.096462e+03
8.000000e-08	-8.226251e-06	-1.671847e-08	-5.618958e+01	-1.095008e+03
9.000000e-08	-8.200016e-06	-1.677219e-08	-5.601038e+01	-1.093625e+03
1.000000e-07	-8.170422e-06	-1.671358e-08	-5.580824e+01	-1.092478e+03
1.100000e-07	-8.137790e-06	-1.664864e-08	-5.558534e+01	-1.091600e+03
1.200000e-07	-8.102219e-06	-1.664285e-08	-5.534238e+01	-1.090879e+03
1.300000e-07	-8.064053e-06	-1.661923e-08	-5.508168e+01	-1.090105e+03
1.400000e-07	-8.023595e-06	-1.651519e-08	-5.480533e+01	-1.089062e+03
1.500000e-07	-7.980566e-06	-1.651923e-08	-5.451142e+01	-1.087613e+03
1.600000e-07	-7.934637e-06	-1.660549e-08	-5.419770e+01	-1.085753e+03
1.700000e-07	-7.885879e-06	-1.646103e-08	-5.386466e+01	-1.083599e+03
1.800000e-07	-7.834164e-06	-1.651486e-08	-5.351142e+01	-1.081328e+03
1.900000e-07	-7.779443e-06	-1.648684e-08	-5.313764e+01	-1.079091e+03
2.000000e-07	-7.721942e-06	-1.635719e-08	-5.274489e+01	-1.076942e+03
2.100000e-07	-7.661637e-06	-1.636560e-08	-5.233297e+01	-1.074816e+03
2.200000e-07	-7.598609e-06	-1.628119e-08	-5.190245e+01	-1.072562e+03
2.300000e-07	-7.532827e-06	-1.630633e-08	-5.145313e+01	-1.070018e+03
2.400000e-07	-7.464192e-06	-1.625177e-08	-5.098432e+01	-1.067092e+03
2.500000e-07	-7.392828e-06	-1.621579e-08	-5.049686e+01	-1.063811e+03
2.600000e-07	-7.318673e-06	-1.617899e-08	-4.999035e+01	-1.060312e+03
2.700000e-07	-7.241699e-06	-1.611052e-08	-4.946458e+01	-1.056785e+03
2.800000e-07	-7.161869e-06	-1.606182e-08	-4.891929e+01	-1.053383e+03
2.900000e-07	-7.079244e-06	-1.596668e-08	-4.835492e+01	-1.050147e+03
3.000000e-07	-6.994216e-06	-1.595894e-08	-4.777414e+01	-1.046985e+03
3.100000e-07	-6.906946e-06	-1.590547e-08	-4.717803e+01	-1.043699e+03
3.200000e-07	-6.817261e-06	-1.585171e-08	-4.656544e+01	-1.040078e+03
3.300000e-07	-6.725082e-06	-1.580044e-08	-4.593581e+01	-1.035984e+03
3.400000e-07	-6.630535e-06	-1.570761e-08	-4.529000e+01	-1.031415e+03
3.500000e-07	-6.533618e-06	-1.564695e-08	-4.462801e+01	-1.026514e+03
3.600000e-07	-6.434239e-06	-1.557248e-08	-4.394920e+01	-1.021501e+03
3.700000e-07	-6.332504e-06	-1.550571e-08	-4.325430e+01	-1.016578e+03
3.800000e-07	-6.228537e-06	-1.542612e-08	-4.254415e+01	-1.011834e+03
3.900000e-07	-6.122375e-06	-1.536663e-08	-4.181901e+01	-1.007201e+03
4.000000e-07	-6.013991e-06	-1.529350e-08	-4.107869e+01	-1.002477e+03
4.100000e-07	-5.903393e-06	-1.519929e-08	-4.032325e+01	-9.974089e+02
4.200000e-07	-5.790596e-06	-1.510665e-08	-3.955279e+01	-9.918048e+02
4.300000e-07	-5.675483e-06	-1.500560e-08	-3.876650e+01	-9.856157e+02
4.400000e-07	-5.558139e-06	-1.492058e-08	-3.796498e+01	-9.789597e+02
4.500000e-07	-5.438755e-06	-1.483258e-08	-3.714953e+01	-9.720691e+02
4.600000e-07	-5.317461e-06	-1.473657e-08	-3.632103e+01	-9.651852e+02
4.700000e-07	-5.194285e-06	-1.462975e-08	-3.547967e+01	-9.584465e+02
4.800000e-07	-5.069206e-06	-1.452310e-08	-3.462532e+01	-9.518186e+02
4.900000e-07	-4.942301e-06	-1.440984e-08	-3.375849e+01	-9.451014e+02
5.000000e-07	-4.813644e-06	-1.428572e-08	-3.287969e+01	-9.380109e+02
5.100000e-07	-4.683252e-06	-1.416169e-08	-3.198905e+01	-9.303018e+02
5.200000e-07	-4.551150e-06	-1.404268e-08	-3.108672e+01	-9.218768e+02
5.300000e-07	-4.417401e-06	-1.392116e-08	-3.017315e+01	-9.128317e+02
5.400000e-07	-4.282066e-06	-1.378966e-08	-2.924874e+01	-9.034147e+02
5.500000e-07	-4.145138e-06	-1.364735e-08	-2.831345e+01	-8.939133e+02
5.600000e-07	-4.006624e-06	-1.350157e-08	-2.736732e+01	-8.845182e+02
5.700000e-07	-3.866564e-06	-1.335359e-08	-2.641064e+01	-8.752253e+02
5.800000e-07	-3.724955e-06	-1.320087e-08	-2.544338e+01	-8.658216e+02
5.900000e-07	-3.581904e-06	-1.303869e-08	-2.446627e+01	-8.559656e+02
6.000000e-07	-3.437500e-06	-1.287006e-08	-2.347992e+01	-8.453305e+02
6.100000e-07	-3.291829e-06	-1.269646e-08	-2.248490e+01	-8.337478e+02
6.200000e-07	-3.144962e-06	-1.251743e-08	-2.148173e+01	-8.212848e+02
6.300000e-07	-2.996966e-06	-1.232883e-08	-2.047084e+01	-8.082188e+02
6.400000e-07	-2.848012e-06	-1.213313e-08	-1.945341e+01	-7.949102e+02
6.500000e-07	-2.698119e-06	-1.193789e-08	-1.842956e+01	-7.816301e+02
6.600000e-07	-2.547280e-06	-1.173278e-08	-1.739925e+01	-7.684156e+02
6.700000e-07	-2.395546e-06	-1.151272e-08	-1.636283e+01	-7.550226e+02
6.800000e-07	-2.242961e-06	-1.127946e-08	-1.532059e+01	-7.410039e+02
6.900000e-07	-2.089556e-06	-1.104058e-08	-1.427275e+01	-7.258862e+02
7.000000e-07	-1.935321e-06	-1.079203e-08	-1.321925e+01	-7.093716e+02
7.100000e-07	-1.780400e-06	-1.053122e-08	-1.216106e+01	-6.914723e+02
7.200000e-07	-1.624893e-06	-1.026087e-08	-1.109886e+01	-6.725100e+02
7.300000e-07	-1.468795e-06	-9.981849e-09	-1.003263e+01	-6.529670e+02
7.400000e-07	-1.312069e-06	-9.689498e-09	-8.962116e+00	-6.332440e+02
7.500000e-07	-1.154760e-06	-9.375800e-09	-7.887612e+00	-6.134243e+02
7.600000e-07	-9.970328e-07	-9.042098e-09	-6.810253e+00	-5.931570e+02
7.700000e-07	-8.389418e-07	-8.689324e-09	-5.730409e+00	-5.717234e+02
7.800000e-07	-6.806027e-07	-8.319842e-09	-4.648871e+00	-5.482800e+02
7.900000e-07	-5.220792e-07	-7.927310e-09	-3.566073e+00	-5.221872e+02
8.000000e-07	-3.633729e-07	-7.507956e-09	-2.482026e+00	-4.932809e+02
8.100000e-07	-2.045541e-07	-7.060062e-09	-1.397211e+00	-4.619504e+02
8.200000e-07	-4.568255e-08	-6.582408e-09	-3.120356e-01	-4.289498e+02
8.300000e-07	1.132151e-07	-6.070054e-09	7.733180e-01	-3.949753e+02
8.400000e-07	2.720963e-07	-5.515734e-09	1.858559e+00	-3.601457e+02
8.500000e-07	4.308646e-07	-4.913947e-09	2.943030e+00	-3.235905e+02
8.600000e-07	5.894493e-07	-4.252894e-09	4.026246e+00	-2.833389e+02
8.700000e-07	7.478703e-07	-3.517741e-09	5.108343e+00	-2.366194e+02
8.800000e-07	9.060922e-07	-2.680918e-09	6.189082e+00	-1.805393e+02
8.900000e-07	1.064017e-06	-1.709291e-09	7.267792e+00	-1.129755e+02
9.000000e-07	1.221573e-06	-5.583659e-10	8.343976e+00	-3.340565e+01
9.100000e-07	1.378635e-06	8.055968e-10	9.416795e+00	5.659223e+01
9.200000e-07	1.535016e-06	2.351178e-09	1.048496e+01	1.533660e+02
9.300000e-07	1.690725e-06	3.949829e-09	1.154853e+01	2.517732e+02
9.400000e-07	1.845878e-06	5.431091e-09	1.260831e+01	3.461843e+02
9.500000e-07	2.000463e-06	6.690449e-09	1.366420e+01	4.316299e+02
9.600000e-07	2.154308e-06	7.718287e-09	1.471504e+01	5.047708e+02
9.700000e-07	2.307219e-06	8.556449e-09	1.575951e+01	5.644258e+02
9.800000e-07	2.459269e-06	9.249376e-09	1.679809e+01	6.115314e+02
9.900000e-07	2.610466e-06	9.834227e-09	1.783084e+01	6.485853e+02
1.000000e-06	2.760760e-06	1.033613e-08	1.885743e+01	6.787759e+02
1.010000e-06	2.910114e-06	1.077109e-08	1.987760e+01	7.050819e+02
1.020000e-06	3.058421e-06	1.115650e-08	2.089061e+01	7.296040e+02
1.030000e-06	3.205642e-06	1.150521e-08	2.189621e+01	7.532941e+02
1.040000e-06	3.351724e-06	1.182480e-08	2.289402e+01	7.760966e+02
1.050000e-06	3.496613e-06	1.211758e-08	2.388369e+01	7.973830e+02
1.060000e-06	3.640219e-06	1.238930e-08	2.486459e+01	8.164782e+02
1.070000e-06	3.782473e-06	1.264234e-08	2.583626e+01	8.330766e+02
1.080000e-06	3.923286e-06	1.287583e-08	2.679809e+01	8.474133e+02
1.090000e-06	4.062598e-06	1.308978e-08	2.774966e+01	8.601685e+02
1.100000e-06	4.200361e-06	1.328967e-08	2.869065e+01	8.721851e+02
1.110000e-06	4.336498e-06	1.348044e-08	2.962054e+01	8.841414e+02
1.120000e-06	4.471114e-06	1.366046e-08	3.054003e+01	8.963216e+02
1.130000e-06	4.604143e-06	1.383097e-08	3.144870e+01	9.085690e+02
1.140000e-06	4.735493e-06	1.399412e-08	3.234588e+01	9.204238e+02
1.150000e-06	4.865159e-06	1.415238e-08	3.323157e+01	9.313712e+02
1.160000e-06	4.993063e-06	1.430201e-08	3.410522e+01	9.410871e+02
1.170000e-06	5.119257e-06	1.444129e-08	3.496719e+01	9.495778e+02
1.180000e-06	5.243719e-06	1.457097e-08	3.581733e+01	9.571664e+02
1.190000e-06	5.366317e-06	1.469387e-08	3.665474e+01	9.643432e+02
1.200000e-06	5.486940e-06	1.481425e-08	3.747866e+01	9.715538e+02
1.210000e-06	5.605529e-06	1.493075e-08	3.828868e+01	9.790224e+02
1.220000e-06	5.721981e-06	1.503922e-08	3.908411e+01	9.866800e+02
1.230000e-06	5.836200e-06	1.514003e-08	3.986428e+01	9.942246e+02
1.240000e-06	5.948230e-06	1.523691e-08	4.062950e+01	1.001277e+03
1.250000e-06	6.058182e-06	1.532982e-08	4.138054e+01	1.007562e+03
1.260000e-06	6.166062e-06	1.541848e-08	4.211741e+01	1.013029e+03
1.270000e-06	6.271710e-06	1.550344e-08	4.283904e+01	1.017874e+03
1.280000e-06	6.375087e-06	1.558634e-08	4.354516e+01	1.022450e+03
1.290000e-06	6.476176e-06	1.566587e-08	4.423565e+01	1.027106e+03
1.300000e-06	6.574836e-06	1.574043e-08	4.490955e+01	1.032046e+03
1.310000e-06	6.671061e-06	1.581092e-08	4.556682e+01	1.037244e+03
1.320000e-06	6.764968e-06	1.587820e-08	4.620825e+01	1.042470e+03
1.330000e-06	6.856471e-06	1.594354e-08	4.683326e+01	1.047395e+03
1.340000e-06	6.945502e-06	1.600686e-08	4.744139e+01	1.051747e+03
1.350000e-06	7.032181e-06	1.606582e-08	4.803345e+01	1.055419e+03
1.360000e-06	7.116519e-06	1.612232e-08	4.860953e+01	1.058518e+03
1.370000e-06	7.198344e-06	1.618034e-08	4.916844e+01	1.061312e+03
1.380000e-06	7.277465e-06	1.623505e-08	4.970887e+01	1.064107e+03
1.390000e-06	7.353859e-06	1.628369e-08	5.023069e+01	1.067120e+03
1.400000e-06	7.427548e-06	1.632895e-08	5.073402e+01	1.070391e+03
1.410000e-06	7.498557e-06	1.637259e-08	5.121905e+01	1.073771e+03
1.420000e-06	7.566912e-06	1.641419e-08	5.168595e+01	1.077005e+03
1.430000e-06	7.632509e-06	1.645309e-08	5.213401e+01	1.079840e+03
1.440000e-06	7.695418e-06	1.649058e-08	5.256371e+01	1.082144e+03
1.450000e-06	7.755763e-06	1.652628e-08	5.297590e+01	1.083961e+03
1.460000e-06	7.813384e-06	1.656233e-08	5.336948e+01	1.085483e+03
1.470000e-06	7.868171e-06	1.659719e-08	5.374370e+01	1.086965e+03
1.480000e-06	7.919823e-06	1.662571e-08	5.409651e+01	1.088611e+03
1.490000e-06	7.968297e-06	1.664720e-08	5.442762e+01	1.090488e+03
1.500000e-06	8.013952e-06	1.666834e-08	5.473946e+01	1.092497e+03
1.510000e-06	8.056752e-06	1.669092e-08	5.503181e+01	1.094429e+03
1.520000e-06	8.096634e-06	1.671196e-08	5.530422e+01	1.096056e+03
1.530000e-06	8.133732e-06	1.673108e-08	5.555763e+01	1.097237e+03
1.540000e-06	8.167975e-06	1.674882e-08	5.579152e+01	1.097980e+03
1.550000e-06	8.199348e-06	1.676934e-08	5.600582e+01	1.098434e+03
1.560000e-06	8.227938e-06	1.678897e-08	5.620110e+01	1.098822e+03
1.570000e-06	8.253554e-06	1.680102e-08	5.637607e+01	1.099343e+03
1.580000e-06	8.276190e-06	1.680815e-08	5.653068e+01	1.100078e+03
1.590000e-06	8.296054e-06	1.681491e-08	5.666637e+01	1.100965e+03
1.600000e-06	8.313009e-06	1.682212e-08	5.678218e+01	1.101821e+03
1.610000e-06	8.326808e-06	1.682819e-08	5.687643e+01	1.102433e+03
1.620000e-06	8.337318e-06	1.683193e-08	5.694822e+01	1.102651e+03
1.630000e-06	8.344739e-06	1.683476e-08	5.699891e+01	1.102457e+03
1.640000e-06	8.349343e-06	1.683813e-08	5.703036e+01	1.101978e+03
1.650000e-06	8.350974e-06	1.684156e-08	5.704150e+01	1.101423e+03
1.660000e-06	8.349728e-06	1.683701e-08	5.703299e+01	1.100994e+03
1.670000e-06	8.345781e-06	1.682388e-08	5.700603e+01	1.100798e+03
1.680000e-06	8.339020e-06	1.681946e-08	5.695985e+01	1.100794e+03
1.690000e-06	8.329459e-06	1.681539e-08	5.689454e+01	1.100814e+03
1.700000e-06	8.316943e-06	1.680576e-08	5.680905e+01	1.100636e+03
1.710000e-06	8.301565e-06	1.679945e-08	5.670401e+01	1.100082e+03
1.720000e-06	8.283742e-06	1.680787e-08	5.658227e+01	1.099097e+03
1.730000e-06	8.263432e-06	1.679410e-08	5.644354e+01	1.097774e+03
1.740000e-06	8.240110e-06	1.667602e-08	5.628424e+01	1.096316e+03
1.750000e-06	8.212992e-06	1.666664e-08	5.609901e+01	1.094952e+03
1.760000e-06	8.182026e-06	1.670329e-08	5.588750e+01	1.093834e+03
1.770000e-06	8.148114e-06	1.667199e-08	5.565586e+01	1.092980e+03
1.780000e-06	8.111787e-06	1.666453e-08	5.540773e+01	1.092264e+03
1.790000e-06	8.073130e-06	1.675592e-08	5.514368e+01	1.091470e+03
1.800000e-06	8.032479e-06	1.664803e-08	5.486602e+01	1.090387e+03
1.810000e-06	7.989462e-06	1.658212e-08	5.457218e+01	1.088891e+03
1.820000e-06	7.943419e-06	1.669311e-08	5.425769e+01	1.086992e+03
1.830000e-06	7.894515e-06	1.652445e-08	5.392365e+01	1.084816e+03
1.840000e-06	7.842406e-06	1.658219e-08	5.356771e+01	1.082542e+03
1.850000e-06	7.787144e-06	1.651274e-08	5.319025e+01	1.080314e+03
1.860000e-06	7.729203e-06	1.646015e-08	5.279448e+01	1.078172e+03
1.870000e-06	7.668419e-06	1.651577e-08	5.237929e+01	1.076040e+03
1.880000e-06	7.604980e-06	1.633796e-08	5.194597e+01	1.073762e+03
1.890000e-06	7.538776e-06	1.637690e-08	5.149376e+01	1.071178e+03
1.900000e-06	7.469694e-06	1.626450e-08	5.102190e+01	1.068210e+03
1.910000e-06	7.397730e-06	1.624409e-08	5.053035e+01	1.064897e+03
1.920000e-06	7.322844e-06	1.623013e-08	5.001883e+01	1.061385e+03
1.930000e-06	7.245189e-06	1.613992e-08	4.948841e+01	1.057865e+03
1.940000e-06	7.164870e-06	1.617022e-08	4.893979e+01	1.054481e+03
1.950000e-06	7.082154e-06	1.601456e-08	4.837480e+01	1.051259e+03
1.960000e-06	6.996815e-06	1.601755e-08	4.779189e+01	1.048093e+03
1.970000e-06	6.908827e-06	1.591842e-08	4.719089e+01	1.044781e+03
1.980000e-06	6.818434e-06	1.585432e-08	4.657346e+01	1.041113e+03
1.990000e-06	6.725648e-06	1.583359e-08	4.593968e+01	1.036964e+03
2.000000e-06	6.630552e-06	1.573846e-08	4.529012e+01	1.032351e+03
2.010000e-06	6.533115e-06	1.571600e-08	4.462458e+01	1.027426e+03
2.020000e-06	6.433373e-06	1.559447e-08	4.394329e+01	1.022414e+03
2.030000e-06	6.331177e-06	1.554378e-08	4.324523e+01	1.017508e+03
2.040000e-06	6.226648e-06	1.543431e-08	4.253125e+01	1.012781e+03
2.050000e-06	6.119963e-06	1.537140e-08	4.180253e+01	1.008149e+03
2.060000e-06	6.011192e-06	1.529482e-08	4.105957e+01	1.003399e+03
2.070000e-06	5.900282e-06	1.521589e-08	4.030199e+01	9.982808e+02
2.080000e-06	5.787081e-06	1.514795e-08	3.952877e+01	9.926128e+02
2.090000e-06	5.671599e-06	1.504323e-08	3.873997e+01	9.863648e+02
2.100000e-06	5.553806e-06	1.494764e-08	3.793539e+01	9.796708e+02
2.110000e-06	5.433911e-06	1.483142e-08	3.711644e+01	9.727697e+02
2.120000e-06	5.312079e-06	1.473633e-08	3.628426e+01	9.658970e+02
2.130000e-06	5.188408e-06	1.462841e-08	3.543953e+01	9.591745e+02
2.140000e-06	5.062970e-06	1.453729e-08	3.458272e+01	9.525484e+02
2.150000e-06	4.935690e-06	1.442211e-08	3.371333e+01	9.458046e+02
2.160000e-06	4.806567e-06	1.431152e-08	3.283136e+01	9.386571e+02
2.170000e-06	4.675728e-06	1.418402e-08	3.193766e+01	9.308720e+02
2.180000e-06	4.543255e-06	1.405639e-08	3.103280e+01	9.223721e+02
2.190000e-06	4.409185e-06	1.392149e-08	3.011703e+01	9.132729e+02
2.200000e-06	4.273483e-06	1.378803e-08	2.919011e+01	9.038331e+02
2.210000e-06	4.136142e-06	1.365690e-08	2.825200e+01	8.943362e+02
2.220000e-06	3.997239e-06	1.351191e-08	2.730322e+01	8.849556e+02
2.230000e-06	3.856834e-06	1.336312e-08	2.634419e+01	8.756637e+02
2.240000e-06	3.715037e-06	1.320135e-08	2.537564e+01	8.662284e+02
2.250000e-06	3.571888e-06	1.304467e-08	2.439785e+01	8.563022e+02
2.260000e-06	3.427396e-06	1.287957e-08	2.341090e+01	8.455693e+02
2.270000e-06	3.281657e-06	1.270708e-08	2.241543e+01	8.338840e+02
2.280000e-06	3.134770e-06	1.252557e-08	2.141211e+01	8.213399e+02
2.290000e-06	2.986723e-06	1.233944e-08	2.040087e+01	8.082301e+02
2.300000e-06	2.837642e-06	1.214452e-08	1.938257e+01	7.949142e+02
2.310000e-06	2.687681e-06	1.194048e-08	1.835826e+01	7.816438e+02
2.320000e-06	2.536839e-06	1.172875e-08	1.732793e+01	7.684260e+02
2.330000e-06	2.384995e-06	1.150874e-08	1.629076e+01	7.549889e+02
2.340000e-06	2.232117e-06	1.128074e-08	1.524652e+01	7.408730e+02
2.350000e-06	2.078468e-06	1.104371e-08	1.419702e+01	7.256145e+02
2.360000e-06	1.924200e-06	1.079733e-08	1.314329e+01	7.089444e+02
2.370000e-06	1.769261e-06	1.053749e-08	1.208498e+01	6.909107e+02
2.380000e-06	1.613683e-06	1.026409e-08	1.102230e+01	6.718618e+02
2.390000e-06	1.457559e-06	9.977319e-09	9.955886e+00	6.522837e+02
2.400000e-06	1.300890e-06	9.676344e-09	8.885757e+00	6.325530e+02
2.410000e-06	1.143656e-06	9.359355e-09	7.811764e+00	6.127093e+02
2.420000e-06	9.859515e-07	9.026880e-09	6.734562e+00	5.923556e+02
2.430000e-06	8.279484e-07	8.678368e-09	5.655318e+00	5.707456e+02
2.440000e-06	6.697070e-07	8.307548e-09	4.574448e+00	5.470418e+02
2.450000e-06	5.112385e-07	7.914301e-09	3.492025e+00	5.206448e+02
2.460000e-06	3.526073e-07	7.495231e-09	2.408491e+00	4.914506e+02
2.470000e-06	1.938670e-07	7.046034e-09	1.324212e+00	4.599013e+02
2.480000e-06	3.509690e-08	6.561270e-09	2.397301e-01	4.267684e+02
2.490000e-06	-1.236492e-07	6.040520e-09	-8.445884e-01	3.927108e+02
2.500000e-06	-2.823436e-07	5.485061e-09	-1.928553e+00	3.577572e+02
2.510000e-06	-4.409331e-07	4.885063e-09	-3.011802e+00	3.209178e+02
2.520000e-06	-5.993980e-07	4.223463e-09	-4.094200e+00	2.801142e+02
2.530000e-06	-7.576546e-07	3.483646e-09	-5.175176e+00	2.325236e+02
2.540000e-06	-9.156593e-07	2.647727e-09	-6.254430e+00	1.752921e+02
2.550000e-06	-1.073343e-06	1.680598e-09	-7.331492e+00	1.064317e+02
2.560000e-06	-1.230608e-06	5.306182e-10	-8.405693e+00	2.562972e+01
2.570000e-06	-1.387362e-06	-8.389006e-10	-9.476407e+00	-6.530243e+01
2.580000e-06	-1.543535e-06	-2.392305e-09	-1.054314e+01	-1.625157e+02
2.590000e-06	-1.699135e-06	-3.997332e-09	-1.160598e+01	-2.607625e+02
2.600000e-06	-1.854109e-06	-5.484746e-09	-1.266453e+01	-3.544294e+02
2.610000e-06	-2.008397e-06	-6.749399e-09	-1.371840e+01	-4.386814e+02
2.620000e-06	-2.161996e-06	-7.778216e-09	-1.476756e+01	-5.103947e+02
2.630000e-06	-2.314829e-06	-8.611798e-09	-1.581149e+01	-5.686271e+02
2.640000e-06	-2.466737e-06	-9.301473e-09	-1.684910e+01	-6.145168e+02
2.650000e-06	-2.617684e-06	-9.887282e-09	-1.788015e+01	-6.506800e+02
2.660000e-06	-2.767769e-06	-1.039514e-08	-1.890530e+01	-6.803237e+02
2.670000e-06	-2.916904e-06	-1.083911e-08	-1.992397e+01	-7.063582e+02
2.680000e-06	-3.064946e-06	-1.123140e-08	-2.093517e+01	-7.307665e+02
2.690000e-06	-3.211881e-06	-1.158321e-08	-2.193882e+01	-7.543791e+02
2.700000e-06	-3.357722e-06	-1.190330e-08	-2.293499e+01	-7.770550e+02
2.710000e-06	-3.502391e-06	-1.219533e-08	-2.392315e+01	-7.981357e+02
2.720000e-06	-3.645742e-06	-1.246273e-08	-2.490231e+01	-8.169695e+02
2.730000e-06	-3.787715e-06	-1.271147e-08	-2.587206e+01	-8.333054e+02
2.740000e-06	-3.928226e-06	-1.294441e-08	-2.683183e+01	-8.474350e+02
2.750000e-06	-4.067220e-06	-1.316324e-08	-2.778123e+01	-8.600717e+02
2.760000e-06	-4.204762e-06	-1.336847e-08	-2.872071e+01	-8.720555e+02
2.770000e-06	-4.340749e-06	-1.356044e-08	-2.964958e+01	-8.840309e+02
2.780000e-06	-4.475120e-06	-1.374022e-08	-3.056740e+01	-8.962335e+02
2.790000e-06	-4.607885e-06	-1.390960e-08	-3.147425e+01	-9.084646e+02
2.800000e-06	-4.739006e-06	-1.407103e-08	-3.236988e+01	-9.202458e+02
2.810000e-06	-4.868541e-06	-1.422301e-08	-3.325467e+01	-9.310722e+02
2.820000e-06	-4.996353e-06	-1.436406e-08	-3.412769e+01	-9.406508e+02
2.830000e-06	-5.122317e-06	-1.450011e-08	-3.498809e+01	-9.490254e+02
2.840000e-06	-5.246435e-06	-1.463134e-08	-3.583588e+01	-9.565460e+02
2.850000e-06	-5.368770e-06	-1.475349e-08	-3.667149e+01	-9.637084e+02
2.860000e-06	-5.489220e-06	-1.486620e-08	-3.749423e+01	-9.709416e+02
2.870000e-06	-5.607584e-06	-1.497279e-08	-3.830272e+01	-9.784393e+02
2.880000e-06	-5.723771e-06	-1.507899e-08	-3.909634e+01	-9.861027e+02
2.890000e-06	-5.837611e-06	-1.518230e-08	-3.987392e+01	-9.936130e+02
2.900000e-06	-5.949044e-06	-1.527874e-08	-4.063507e+01	-1.000594e+03
2.910000e-06	-6.058277e-06	-1.536910e-08	-4.138119e+01	-1.006789e+03
2.920000e-06	-6.165520e-06	-1.545642e-08	-4.211371e+01	-1.012177e+03
2.930000e-06	-6.270706e-06	-1.554169e-08	-4.283219e+01	-1.016976e+03
2.940000e-06	-6.373576e-06	-1.562238e-08	-4.353484e+01	-1.021545e+03
