# Temperatura_=_62.65
# Concentracion g/m^3_=_13400.0
# C_Vs_to_Am_M_A/Vsm_=_65563218390.804596
# pendiente_HvsI_1/m_=_3716.3
# ordenada_HvsI_A/m_=_1297.0
# frecuencia_Hz_=_301418.06059053313

Tiempo_(s)	Campo_(V.s)	Magnetizacion_(V.s)	Campo_(kA/m)	Magnetizacion_(A/m)
0.000000e+00	-8.356839e-06	-1.740530e-08	-5.692166e+01	-1.142006e+03
1.000000e-08	-8.353781e-06	-1.741416e-08	-5.690083e+01	-1.141808e+03
2.000000e-08	-8.347979e-06	-1.740693e-08	-5.686131e+01	-1.141771e+03
3.000000e-08	-8.339550e-06	-1.739339e-08	-5.680390e+01	-1.141704e+03
4.000000e-08	-8.328220e-06	-1.738291e-08	-5.672673e+01	-1.141374e+03
5.000000e-08	-8.313844e-06	-1.737043e-08	-5.662880e+01	-1.140615e+03
6.000000e-08	-8.296480e-06	-1.734766e-08	-5.651053e+01	-1.139399e+03
7.000000e-08	-8.276527e-06	-1.730765e-08	-5.637462e+01	-1.137860e+03
8.000000e-08	-8.254064e-06	-1.731089e-08	-5.622162e+01	-1.136237e+03
9.000000e-08	-8.228450e-06	-1.741682e-08	-5.604716e+01	-1.134769e+03
1.000000e-07	-8.199447e-06	-1.738465e-08	-5.584960e+01	-1.133600e+03
1.100000e-07	-8.167332e-06	-1.728298e-08	-5.563086e+01	-1.132711e+03
1.200000e-07	-8.132231e-06	-1.726872e-08	-5.539177e+01	-1.131928e+03
1.300000e-07	-8.094481e-06	-1.726275e-08	-5.513464e+01	-1.131001e+03
1.400000e-07	-8.054388e-06	-1.714417e-08	-5.486155e+01	-1.129700e+03
1.500000e-07	-8.011803e-06	-1.704305e-08	-5.457149e+01	-1.127916e+03
1.600000e-07	-7.966456e-06	-1.723347e-08	-5.426261e+01	-1.125694e+03
1.700000e-07	-7.918258e-06	-1.707962e-08	-5.393432e+01	-1.123202e+03
1.800000e-07	-7.867093e-06	-1.707228e-08	-5.358581e+01	-1.120652e+03
1.900000e-07	-7.812851e-06	-1.714916e-08	-5.321635e+01	-1.118194e+03
2.000000e-07	-7.755732e-06	-1.695079e-08	-5.282729e+01	-1.115849e+03
2.100000e-07	-7.695797e-06	-1.696094e-08	-5.241905e+01	-1.113502e+03
2.200000e-07	-7.633121e-06	-1.685621e-08	-5.199213e+01	-1.110957e+03
2.300000e-07	-7.567680e-06	-1.687050e-08	-5.154639e+01	-1.108031e+03
2.400000e-07	-7.499431e-06	-1.683832e-08	-5.108152e+01	-1.104648e+03
2.500000e-07	-7.428432e-06	-1.676253e-08	-5.059792e+01	-1.100880e+03
2.600000e-07	-7.354562e-06	-1.676444e-08	-5.009476e+01	-1.096920e+03
2.700000e-07	-7.277886e-06	-1.667620e-08	-4.957249e+01	-1.092997e+03
2.800000e-07	-7.198344e-06	-1.663050e-08	-4.903070e+01	-1.089273e+03
2.900000e-07	-7.116020e-06	-1.651383e-08	-4.846996e+01	-1.085762e+03
3.000000e-07	-7.031308e-06	-1.648541e-08	-4.789296e+01	-1.082317e+03
3.100000e-07	-6.944304e-06	-1.644974e-08	-4.730034e+01	-1.078687e+03
3.200000e-07	-6.854867e-06	-1.636332e-08	-4.669115e+01	-1.074620e+03
3.300000e-07	-6.762900e-06	-1.633174e-08	-4.606472e+01	-1.069980e+03
3.400000e-07	-6.668556e-06	-1.621852e-08	-4.542211e+01	-1.064803e+03
3.500000e-07	-6.571853e-06	-1.615071e-08	-4.476343e+01	-1.059286e+03
3.600000e-07	-6.472727e-06	-1.607263e-08	-4.408824e+01	-1.053705e+03
3.700000e-07	-6.371266e-06	-1.599638e-08	-4.339716e+01	-1.048288e+03
3.800000e-07	-6.267509e-06	-1.590939e-08	-4.269043e+01	-1.043112e+03
3.900000e-07	-6.161477e-06	-1.583155e-08	-4.196820e+01	-1.038065e+03
4.000000e-07	-6.053230e-06	-1.576813e-08	-4.123089e+01	-1.032886e+03
4.100000e-07	-5.942831e-06	-1.565645e-08	-4.047892e+01	-1.027277e+03
4.200000e-07	-5.830178e-06	-1.555854e-08	-3.971160e+01	-1.021032e+03
4.300000e-07	-5.715221e-06	-1.544445e-08	-3.892858e+01	-1.014125e+03
4.400000e-07	-5.598063e-06	-1.535407e-08	-3.813057e+01	-1.006731e+03
4.500000e-07	-5.478823e-06	-1.525662e-08	-3.731838e+01	-9.991408e+02
4.600000e-07	-5.357573e-06	-1.515168e-08	-3.649250e+01	-9.916351e+02
4.700000e-07	-5.234390e-06	-1.503391e-08	-3.565346e+01	-9.843545e+02
4.800000e-07	-5.109310e-06	-1.491233e-08	-3.480149e+01	-9.772280e+02
4.900000e-07	-4.982423e-06	-1.479693e-08	-3.393721e+01	-9.699963e+02
5.000000e-07	-4.853795e-06	-1.466800e-08	-3.306108e+01	-9.623196e+02
5.100000e-07	-4.723379e-06	-1.453617e-08	-3.217276e+01	-9.539254e+02
5.200000e-07	-4.591230e-06	-1.439870e-08	-3.127264e+01	-9.447299e+02
5.300000e-07	-4.457461e-06	-1.426465e-08	-3.036149e+01	-9.348789e+02
5.400000e-07	-4.322150e-06	-1.412029e-08	-2.943983e+01	-9.246846e+02
5.500000e-07	-4.185218e-06	-1.396872e-08	-2.850714e+01	-9.144847e+02
5.600000e-07	-4.046639e-06	-1.381383e-08	-2.756322e+01	-9.044837e+02
5.700000e-07	-3.906447e-06	-1.365862e-08	-2.660832e+01	-8.946472e+02
5.800000e-07	-3.764685e-06	-1.350026e-08	-2.564273e+01	-8.847002e+02
5.900000e-07	-3.621452e-06	-1.332695e-08	-2.466711e+01	-8.742345e+02
6.000000e-07	-3.476839e-06	-1.314441e-08	-2.368210e+01	-8.628821e+02
6.100000e-07	-3.331020e-06	-1.295399e-08	-2.268886e+01	-8.504778e+02
6.200000e-07	-3.184059e-06	-1.276380e-08	-2.168786e+01	-8.371389e+02
6.300000e-07	-3.035937e-06	-1.256632e-08	-2.067894e+01	-8.232180e+02
6.400000e-07	-2.886787e-06	-1.236025e-08	-1.966302e+01	-8.091460e+02
6.500000e-07	-2.736737e-06	-1.215227e-08	-1.864097e+01	-7.952282e+02
6.600000e-07	-2.585778e-06	-1.193692e-08	-1.761273e+01	-7.814842e+02
6.700000e-07	-2.433819e-06	-1.170847e-08	-1.657768e+01	-7.676069e+02
6.800000e-07	-2.280907e-06	-1.146241e-08	-1.553614e+01	-7.530678e+02
6.900000e-07	-2.127171e-06	-1.120991e-08	-1.448899e+01	-7.373299e+02
7.000000e-07	-1.972625e-06	-1.095122e-08	-1.343631e+01	-7.200781e+02
7.100000e-07	-1.817332e-06	-1.068577e-08	-1.237855e+01	-7.013638e+02
7.200000e-07	-1.661416e-06	-1.040714e-08	-1.131654e+01	-6.815890e+02
7.300000e-07	-1.504884e-06	-1.011677e-08	-1.025035e+01	-6.613229e+02
7.400000e-07	-1.347821e-06	-9.813063e-09	-9.180529e+00	-6.410204e+02
7.500000e-07	-1.190298e-06	-9.490203e-09	-8.107582e+00	-6.207610e+02
7.600000e-07	-1.032342e-06	-9.145919e-09	-7.031681e+00	-6.001301e+02
7.700000e-07	-8.740100e-07	-8.779425e-09	-5.953220e+00	-5.783128e+02
7.800000e-07	-7.153478e-07	-8.399889e-09	-4.872511e+00	-5.543802e+02
7.900000e-07	-5.564303e-07	-8.001373e-09	-3.790062e+00	-5.276581e+02
8.000000e-07	-3.973170e-07	-7.578264e-09	-2.706279e+00	-4.980173e+02
8.100000e-07	-2.380477e-07	-7.123056e-09	-1.621435e+00	-4.659356e+02
8.200000e-07	-7.870256e-08	-6.635786e-09	-5.360736e-01	-4.322612e+02
8.300000e-07	8.062785e-08	-6.113279e-09	5.491874e-01	-3.977274e+02
8.400000e-07	2.399103e-07	-5.547842e-09	1.634122e+00	-3.623817e+02
8.500000e-07	3.990670e-07	-4.929654e-09	2.718200e+00	-3.251595e+02
8.600000e-07	5.580901e-07	-4.244576e-09	3.801368e+00	-2.838080e+02
8.700000e-07	7.169607e-07	-3.480211e-09	4.883496e+00	-2.352663e+02
8.800000e-07	8.755685e-07	-2.609875e-09	5.963835e+00	-1.764483e+02
8.900000e-07	1.033827e-06	-1.595912e-09	7.041793e+00	-1.052227e+02
9.000000e-07	1.191685e-06	-3.844939e-10	8.117024e+00	-2.128952e+01
9.100000e-07	1.349086e-06	1.057438e-09	9.189145e+00	7.334461e+01
9.200000e-07	1.505998e-06	2.686416e-09	1.025793e+01	1.744804e+02
9.300000e-07	1.662332e-06	4.349534e-09	1.132278e+01	2.764408e+02
9.400000e-07	1.818122e-06	5.862862e-09	1.238393e+01	3.732083e+02
9.500000e-07	1.973446e-06	7.124672e-09	1.344190e+01	4.596674e+02
9.600000e-07	2.128061e-06	8.136022e-09	1.449504e+01	5.326033e+02
9.700000e-07	2.281759e-06	8.954394e-09	1.554194e+01	5.911830e+02
9.800000e-07	2.434536e-06	9.631943e-09	1.658256e+01	6.368094e+02
9.900000e-07	2.586430e-06	1.020554e-08	1.761718e+01	6.724352e+02
1.000000e-06	2.737422e-06	1.069670e-08	1.864564e+01	7.015810e+02
1.010000e-06	2.887400e-06	1.112474e-08	1.966720e+01	7.273704e+02
1.020000e-06	3.036286e-06	1.150946e-08	2.068132e+01	7.518637e+02
1.030000e-06	3.184132e-06	1.186155e-08	2.168835e+01	7.758427e+02
1.040000e-06	3.330904e-06	1.218312e-08	2.268807e+01	7.990390e+02
1.050000e-06	3.476473e-06	1.247520e-08	2.367960e+01	8.206524e+02
1.060000e-06	3.620766e-06	1.274716e-08	2.466243e+01	8.399310e+02
1.070000e-06	3.763704e-06	1.300296e-08	2.563604e+01	8.565953e+02
1.080000e-06	3.905183e-06	1.324294e-08	2.659971e+01	8.709782e+02
1.090000e-06	4.045181e-06	1.346390e-08	2.755329e+01	8.838741e+02
1.100000e-06	4.183673e-06	1.366923e-08	2.849661e+01	8.962043e+02
1.110000e-06	4.320556e-06	1.386379e-08	2.942897e+01	9.086588e+02
1.120000e-06	4.455843e-06	1.404798e-08	3.035047e+01	9.214687e+02
1.130000e-06	4.589495e-06	1.422412e-08	3.126082e+01	9.343867e+02
1.140000e-06	4.721495e-06	1.439450e-08	3.215993e+01	9.468665e+02
1.150000e-06	4.851874e-06	1.456136e-08	3.304799e+01	9.583451e+02
1.160000e-06	4.980554e-06	1.471984e-08	3.392448e+01	9.685027e+02
1.170000e-06	5.107477e-06	1.486839e-08	3.478900e+01	9.773940e+02
1.180000e-06	5.232609e-06	1.500658e-08	3.564132e+01	9.854065e+02
1.190000e-06	5.355921e-06	1.513817e-08	3.648125e+01	9.930789e+02
1.200000e-06	5.477337e-06	1.526385e-08	3.730826e+01	1.000868e+03
1.210000e-06	5.596701e-06	1.538474e-08	3.812130e+01	1.008968e+03
1.220000e-06	5.713919e-06	1.550055e-08	3.891971e+01	1.017253e+03
1.230000e-06	5.828966e-06	1.561020e-08	3.970334e+01	1.025367e+03
1.240000e-06	5.941785e-06	1.571543e-08	4.047180e+01	1.032899e+03
1.250000e-06	6.052443e-06	1.581647e-08	4.122553e+01	1.039581e+03
1.260000e-06	6.161014e-06	1.591410e-08	4.196505e+01	1.045404e+03
1.270000e-06	6.267420e-06	1.600664e-08	4.268982e+01	1.050619e+03
1.280000e-06	6.371526e-06	1.609457e-08	4.339892e+01	1.055621e+03
1.290000e-06	6.473328e-06	1.617616e-08	4.409234e+01	1.060775e+03
1.300000e-06	6.572816e-06	1.625344e-08	4.476999e+01	1.066265e+03
1.310000e-06	6.669846e-06	1.633004e-08	4.543090e+01	1.072019e+03
1.320000e-06	6.764468e-06	1.640635e-08	4.607541e+01	1.077760e+03
1.330000e-06	6.856754e-06	1.648007e-08	4.670400e+01	1.083131e+03
1.340000e-06	6.946601e-06	1.655039e-08	4.731598e+01	1.087858e+03
1.350000e-06	7.034008e-06	1.661861e-08	4.791134e+01	1.091869e+03
1.360000e-06	7.119003e-06	1.668266e-08	4.849028e+01	1.095316e+03
1.370000e-06	7.201509e-06	1.674264e-08	4.905226e+01	1.098504e+03
1.380000e-06	7.281436e-06	1.679903e-08	4.959667e+01	1.101757e+03
1.390000e-06	7.358724e-06	1.685416e-08	5.012311e+01	1.105275e+03
1.400000e-06	7.433217e-06	1.690872e-08	5.063051e+01	1.109056e+03
1.410000e-06	7.504966e-06	1.696024e-08	5.111923e+01	1.112904e+03
1.420000e-06	7.574114e-06	1.700920e-08	5.159022e+01	1.116525e+03
1.430000e-06	7.640500e-06	1.705602e-08	5.204240e+01	1.119662e+03
1.440000e-06	7.704147e-06	1.710043e-08	5.247592e+01	1.122202e+03
1.450000e-06	7.765234e-06	1.714155e-08	5.289201e+01	1.124228e+03
1.460000e-06	7.823616e-06	1.717839e-08	5.328967e+01	1.125974e+03
1.470000e-06	7.879168e-06	1.721111e-08	5.366806e+01	1.127716e+03
1.480000e-06	7.931694e-06	1.724163e-08	5.402583e+01	1.129653e+03
1.490000e-06	7.980924e-06	1.726862e-08	5.436116e+01	1.131823e+03
1.500000e-06	8.027178e-06	1.729299e-08	5.467621e+01	1.134088e+03
1.510000e-06	8.070643e-06	1.731809e-08	5.497227e+01	1.136205e+03
1.520000e-06	8.111213e-06	1.734370e-08	5.524861e+01	1.137938e+03
1.530000e-06	8.148987e-06	1.736716e-08	5.550590e+01	1.139162e+03
1.540000e-06	8.183940e-06	1.738628e-08	5.574398e+01	1.139922e+03
1.550000e-06	8.216021e-06	1.740277e-08	5.596249e+01	1.140407e+03
1.560000e-06	8.245303e-06	1.741812e-08	5.616195e+01	1.140868e+03
1.570000e-06	8.271601e-06	1.743038e-08	5.634107e+01	1.141505e+03
1.580000e-06	8.294903e-06	1.743966e-08	5.649979e+01	1.142380e+03
1.590000e-06	8.315456e-06	1.744821e-08	5.663979e+01	1.143395e+03
1.600000e-06	8.333040e-06	1.745584e-08	5.675956e+01	1.144336e+03
1.610000e-06	8.347538e-06	1.746328e-08	5.685831e+01	1.144977e+03
1.620000e-06	8.358866e-06	1.747006e-08	5.693546e+01	1.145177e+03
1.630000e-06	8.366979e-06	1.747375e-08	5.699073e+01	1.144949e+03
1.640000e-06	8.372184e-06	1.747583e-08	5.702618e+01	1.144445e+03
1.650000e-06	8.374433e-06	1.747743e-08	5.704150e+01	1.143895e+03
1.660000e-06	8.373763e-06	1.747646e-08	5.703694e+01	1.143494e+03
1.670000e-06	8.370427e-06	1.745707e-08	5.701421e+01	1.143318e+03
1.680000e-06	8.364284e-06	1.744871e-08	5.697237e+01	1.143288e+03
1.690000e-06	8.355352e-06	1.744569e-08	5.691153e+01	1.143203e+03
1.700000e-06	8.343474e-06	1.743546e-08	5.683062e+01	1.142833e+03
1.710000e-06	8.328609e-06	1.742659e-08	5.672937e+01	1.142022e+03
1.720000e-06	8.311236e-06	1.743106e-08	5.661104e+01	1.140762e+03
1.730000e-06	8.291436e-06	1.745003e-08	5.647617e+01	1.139201e+03
1.740000e-06	8.268731e-06	1.729474e-08	5.632152e+01	1.137583e+03
1.750000e-06	8.242414e-06	1.723828e-08	5.614227e+01	1.136143e+03
1.760000e-06	8.212161e-06	1.730300e-08	5.593620e+01	1.135008e+03
1.770000e-06	8.178667e-06	1.727430e-08	5.570806e+01	1.134139e+03
1.780000e-06	8.142671e-06	1.723013e-08	5.546288e+01	1.133353e+03
1.790000e-06	8.104291e-06	1.737143e-08	5.520146e+01	1.132395e+03
1.800000e-06	8.063908e-06	1.733188e-08	5.492639e+01	1.131045e+03
1.810000e-06	8.021288e-06	1.713208e-08	5.463609e+01	1.129209e+03
1.820000e-06	7.975700e-06	1.731641e-08	5.432557e+01	1.126947e+03
1.830000e-06	7.927324e-06	1.712437e-08	5.399607e+01	1.124438e+03
1.840000e-06	7.875824e-06	1.713124e-08	5.364528e+01	1.121892e+03
1.850000e-06	7.821016e-06	1.713853e-08	5.327196e+01	1.119447e+03
1.860000e-06	7.763504e-06	1.699139e-08	5.288022e+01	1.117110e+03
1.870000e-06	7.703118e-06	1.715022e-08	5.246891e+01	1.114751e+03
1.880000e-06	7.640012e-06	1.691835e-08	5.203908e+01	1.112172e+03
1.890000e-06	7.574205e-06	1.695221e-08	5.159084e+01	1.109197e+03
1.900000e-06	7.505456e-06	1.686504e-08	5.112256e+01	1.105767e+03
1.910000e-06	7.433852e-06	1.674947e-08	5.063484e+01	1.101967e+03
1.920000e-06	7.359353e-06	1.680931e-08	5.012740e+01	1.098000e+03
1.930000e-06	7.282073e-06	1.666349e-08	4.960101e+01	1.094092e+03
1.940000e-06	7.202105e-06	1.673588e-08	4.905632e+01	1.090392e+03
1.950000e-06	7.119678e-06	1.656421e-08	4.849488e+01	1.086898e+03
1.960000e-06	7.034689e-06	1.654501e-08	4.791598e+01	1.083446e+03
1.970000e-06	6.947040e-06	1.647079e-08	4.731897e+01	1.079778e+03
1.980000e-06	6.857004e-06	1.633576e-08	4.670570e+01	1.075654e+03
1.990000e-06	6.764492e-06	1.636485e-08	4.607557e+01	1.070951e+03
2.000000e-06	6.669556e-06	1.623509e-08	4.542892e+01	1.065725e+03
2.010000e-06	6.572300e-06	1.623296e-08	4.476647e+01	1.060188e+03
2.020000e-06	6.472730e-06	1.609037e-08	4.408826e+01	1.054614e+03
2.030000e-06	6.370676e-06	1.603275e-08	4.339314e+01	1.049222e+03
2.040000e-06	6.266268e-06	1.591883e-08	4.268197e+01	1.044068e+03
2.050000e-06	6.159759e-06	1.582732e-08	4.195650e+01	1.039020e+03
2.060000e-06	6.051069e-06	1.576136e-08	4.121617e+01	1.033809e+03
2.070000e-06	5.940132e-06	1.565742e-08	4.046053e+01	1.028138e+03
2.080000e-06	5.826970e-06	1.559608e-08	3.968975e+01	1.021819e+03
2.090000e-06	5.711591e-06	1.547383e-08	3.890385e+01	1.014849e+03
2.100000e-06	5.593908e-06	1.537703e-08	3.810227e+01	1.007418e+03
2.110000e-06	5.474152e-06	1.524314e-08	3.728656e+01	9.998239e+02
2.120000e-06	5.352512e-06	1.514357e-08	3.645803e+01	9.923385e+02
2.130000e-06	5.228955e-06	1.502332e-08	3.561643e+01	9.850811e+02
2.140000e-06	5.103467e-06	1.492018e-08	3.476169e+01	9.779578e+02
2.150000e-06	4.976149e-06	1.479040e-08	3.389448e+01	9.706942e+02
2.160000e-06	4.847062e-06	1.466739e-08	3.301521e+01	9.629507e+02
2.170000e-06	4.716265e-06	1.453295e-08	3.212430e+01	9.544700e+02
2.180000e-06	4.583780e-06	1.440058e-08	3.122190e+01	9.451930e+02
2.190000e-06	4.449591e-06	1.426453e-08	3.030789e+01	9.352879e+02
2.200000e-06	4.313804e-06	1.411903e-08	2.938299e+01	9.250774e+02
2.210000e-06	4.176470e-06	1.397541e-08	2.844755e+01	9.148921e+02
2.220000e-06	4.037582e-06	1.381262e-08	2.750153e+01	9.049145e+02
2.230000e-06	3.897092e-06	1.365154e-08	2.654460e+01	8.950823e+02
2.240000e-06	3.755129e-06	1.347479e-08	2.557764e+01	8.850996e+02
2.250000e-06	3.611812e-06	1.330885e-08	2.460145e+01	8.745536e+02
2.260000e-06	3.467216e-06	1.313807e-08	2.361655e+01	8.630911e+02
2.270000e-06	3.321416e-06	1.296397e-08	2.262345e+01	8.505755e+02
2.280000e-06	3.174457e-06	1.277382e-08	2.162245e+01	8.371538e+02
2.290000e-06	3.026344e-06	1.257336e-08	2.061360e+01	8.231961e+02
2.300000e-06	2.877076e-06	1.236451e-08	1.959688e+01	8.091296e+02
2.310000e-06	2.726792e-06	1.214903e-08	1.857323e+01	7.952349e+02
2.320000e-06	2.575581e-06	1.192478e-08	1.754328e+01	7.814960e+02
2.330000e-06	2.423487e-06	1.169401e-08	1.650731e+01	7.675747e+02
2.340000e-06	2.270483e-06	1.145858e-08	1.546514e+01	7.529302e+02
2.350000e-06	2.116599e-06	1.121806e-08	1.441698e+01	7.370389e+02
2.360000e-06	1.961987e-06	1.096542e-08	1.336385e+01	7.196204e+02
2.370000e-06	1.806712e-06	1.069643e-08	1.230622e+01	7.007678e+02
2.380000e-06	1.650783e-06	1.041047e-08	1.124412e+01	6.809120e+02
2.390000e-06	1.494217e-06	1.010866e-08	1.017769e+01	6.606245e+02
2.400000e-06	1.337069e-06	9.794749e-09	9.107291e+00	6.403308e+02
2.410000e-06	1.179431e-06	9.468211e-09	8.033560e+00	6.200594e+02
2.420000e-06	1.021371e-06	9.128541e-09	6.956954e+00	5.993448e+02
2.430000e-06	8.629817e-07	8.775572e-09	5.878102e+00	5.773434e+02
2.440000e-06	7.043239e-07	8.404817e-09	4.797422e+00	5.531359e+02
2.450000e-06	5.453840e-07	8.008743e-09	3.714821e+00	5.260955e+02
2.460000e-06	3.861919e-07	7.580717e-09	2.630502e+00	4.961602e+02
2.470000e-06	2.268890e-07	7.119320e-09	1.545429e+00	4.638640e+02
2.480000e-06	6.755506e-08	6.624185e-09	4.601437e-01	4.300694e+02
2.490000e-06	-9.176782e-08	6.089741e-09	-6.250661e-01	3.954628e+02
2.500000e-06	-2.510173e-07	5.515222e-09	-1.709776e+00	3.599883e+02
2.510000e-06	-4.101610e-07	4.895381e-09	-2.793765e+00	3.224499e+02
2.520000e-06	-5.691338e-07	4.219231e-09	-3.876591e+00	2.804821e+02
2.530000e-06	-7.279208e-07	3.464117e-09	-4.958150e+00	2.309779e+02
2.540000e-06	-8.864605e-07	2.598536e-09	-6.038025e+00	1.709060e+02
2.550000e-06	-1.044660e-06	1.582171e-09	-7.115586e+00	9.829409e+01
2.560000e-06	-1.202537e-06	3.661573e-10	-8.190947e+00	1.307594e+01
2.570000e-06	-1.359867e-06	-1.083828e-09	-9.262579e+00	-8.249016e+01
2.580000e-06	-1.516523e-06	-2.723241e-09	-1.032962e+01	-1.840028e+02
2.590000e-06	-1.672598e-06	-4.396410e-09	-1.139271e+01	-2.856895e+02
2.600000e-06	-1.828114e-06	-5.912445e-09	-1.245199e+01	-3.815710e+02
2.610000e-06	-1.983050e-06	-7.168921e-09	-1.350732e+01	-4.666953e+02
2.620000e-06	-2.137253e-06	-8.174949e-09	-1.455765e+01	-5.380905e+02
2.630000e-06	-2.290619e-06	-8.989419e-09	-1.560229e+01	-5.951812e+02
2.640000e-06	-2.443132e-06	-9.667963e-09	-1.664111e+01	-6.395766e+02
2.650000e-06	-2.594753e-06	-1.024257e-08	-1.767386e+01	-6.743399e+02
2.660000e-06	-2.745482e-06	-1.073443e-08	-1.870054e+01	-7.029918e+02
2.670000e-06	-2.895260e-06	-1.116753e-08	-1.972073e+01	-7.285669e+02
2.680000e-06	-3.043955e-06	-1.156025e-08	-2.073355e+01	-7.529900e+02
2.690000e-06	-3.191533e-06	-1.191578e-08	-2.173876e+01	-7.769129e+02
2.700000e-06	-3.337964e-06	-1.223570e-08	-2.273616e+01	-7.999822e+02
2.710000e-06	-3.483202e-06	-1.252624e-08	-2.372543e+01	-8.213762e+02
2.720000e-06	-3.627157e-06	-1.279548e-08	-2.470597e+01	-8.403779e+02
2.730000e-06	-3.769818e-06	-1.304803e-08	-2.567769e+01	-8.567721e+02
2.740000e-06	-3.911103e-06	-1.328551e-08	-2.664004e+01	-8.709527e+02
2.750000e-06	-4.050851e-06	-1.350973e-08	-2.759191e+01	-8.837459e+02
2.760000e-06	-4.189023e-06	-1.372289e-08	-2.853306e+01	-8.960637e+02
2.770000e-06	-4.325635e-06	-1.392615e-08	-2.946357e+01	-9.085550e+02
2.780000e-06	-4.460724e-06	-1.411650e-08	-3.038371e+01	-9.213961e+02
2.790000e-06	-4.594214e-06	-1.429162e-08	-3.129297e+01	-9.342966e+02
2.800000e-06	-4.726035e-06	-1.445609e-08	-3.219085e+01	-9.466942e+02
2.810000e-06	-4.856171e-06	-1.461364e-08	-3.307726e+01	-9.580409e+02
2.820000e-06	-4.984588e-06	-1.476426e-08	-3.395195e+01	-9.680540e+02
2.830000e-06	-5.111308e-06	-1.490980e-08	-3.481510e+01	-9.768285e+02
2.840000e-06	-5.236255e-06	-1.505079e-08	-3.566616e+01	-9.847789e+02
2.850000e-06	-5.359295e-06	-1.518447e-08	-3.650423e+01	-9.924460e+02
2.860000e-06	-5.480427e-06	-1.530854e-08	-3.732931e+01	-1.000266e+03
2.870000e-06	-5.599548e-06	-1.542585e-08	-3.814069e+01	-1.008397e+03
2.880000e-06	-5.716456e-06	-1.553685e-08	-3.893699e+01	-1.016684e+03
2.890000e-06	-5.831034e-06	-1.564170e-08	-3.971743e+01	-1.024755e+03
2.900000e-06	-5.943277e-06	-1.574243e-08	-4.048196e+01	-1.032205e+03
2.910000e-06	-6.053261e-06	-1.584031e-08	-4.123110e+01	-1.038791e+03
2.920000e-06	-6.161139e-06	-1.593706e-08	-4.196590e+01	-1.044533e+03
2.930000e-06	-6.266937e-06	-1.603188e-08	-4.268653e+01	-1.049706e+03
2.940000e-06	-6.370531e-06	-1.612446e-08	-4.339215e+01	-1.054710e+03
