# Temperatura_=_52.1
# Concentracion g/m^3_=_13400.0
# C_Vs_to_Am_M_A/Vsm_=_65563218390.804596
# pendiente_HvsI_1/m_=_3716.3
# ordenada_HvsI_A/m_=_1297.0
# frecuencia_Hz_=_301425.94722959906

Tiempo_(s)	Campo_(V.s)	Magnetizacion_(V.s)	Campo_(kA/m)	Magnetizacion_(A/m)
0.000000e+00	-8.436895e-06	-1.711588e-08	-5.691898e+01	-1.123067e+03
1.000000e-08	-8.433464e-06	-1.711870e-08	-5.689583e+01	-1.123032e+03
2.000000e-08	-8.427352e-06	-1.711542e-08	-5.685459e+01	-1.123121e+03
3.000000e-08	-8.418571e-06	-1.710621e-08	-5.679536e+01	-1.123137e+03
4.000000e-08	-8.406813e-06	-1.709360e-08	-5.671603e+01	-1.122859e+03
5.000000e-08	-8.391945e-06	-1.708109e-08	-5.661573e+01	-1.122145e+03
6.000000e-08	-8.374099e-06	-1.707011e-08	-5.649532e+01	-1.120992e+03
7.000000e-08	-8.353722e-06	-1.705476e-08	-5.635785e+01	-1.119548e+03
8.000000e-08	-8.330776e-06	-1.706102e-08	-5.620305e+01	-1.118046e+03
9.000000e-08	-8.304564e-06	-1.710255e-08	-5.602621e+01	-1.116711e+03
1.000000e-07	-8.274938e-06	-1.707434e-08	-5.582635e+01	-1.115661e+03
1.100000e-07	-8.242158e-06	-1.701567e-08	-5.560520e+01	-1.114867e+03
1.200000e-07	-8.206390e-06	-1.698950e-08	-5.536389e+01	-1.114157e+03
1.300000e-07	-8.168008e-06	-1.696625e-08	-5.510494e+01	-1.113298e+03
1.400000e-07	-8.127266e-06	-1.689602e-08	-5.483008e+01	-1.112093e+03
1.500000e-07	-8.083973e-06	-1.683600e-08	-5.453801e+01	-1.110459e+03
1.600000e-07	-8.037854e-06	-1.691732e-08	-5.422687e+01	-1.108457e+03
1.700000e-07	-7.988847e-06	-1.683771e-08	-5.389625e+01	-1.106254e+03
1.800000e-07	-7.936776e-06	-1.682062e-08	-5.354496e+01	-1.104040e+03
1.900000e-07	-7.881673e-06	-1.684880e-08	-5.317320e+01	-1.101932e+03
2.000000e-07	-7.823691e-06	-1.673584e-08	-5.278203e+01	-1.099923e+03
2.100000e-07	-7.762875e-06	-1.670790e-08	-5.237174e+01	-1.097873e+03
2.200000e-07	-7.699381e-06	-1.664237e-08	-5.194339e+01	-1.095581e+03
2.300000e-07	-7.633102e-06	-1.662888e-08	-5.149624e+01	-1.092872e+03
2.400000e-07	-7.563923e-06	-1.657953e-08	-5.102953e+01	-1.089683e+03
2.500000e-07	-7.491960e-06	-1.653051e-08	-5.054403e+01	-1.086098e+03
2.600000e-07	-7.417053e-06	-1.651933e-08	-5.003868e+01	-1.082316e+03
2.700000e-07	-7.339267e-06	-1.645533e-08	-4.951390e+01	-1.078564e+03
2.800000e-07	-7.258671e-06	-1.641192e-08	-4.897016e+01	-1.075001e+03
2.900000e-07	-7.175372e-06	-1.632326e-08	-4.840819e+01	-1.071640e+03
3.000000e-07	-7.089721e-06	-1.626551e-08	-4.783035e+01	-1.068339e+03
3.100000e-07	-7.001668e-06	-1.621431e-08	-4.723631e+01	-1.064859e+03
3.200000e-07	-6.911080e-06	-1.614731e-08	-4.662516e+01	-1.060968e+03
3.300000e-07	-6.818021e-06	-1.609578e-08	-4.599734e+01	-1.056538e+03
3.400000e-07	-6.722595e-06	-1.601775e-08	-4.535356e+01	-1.051605e+03
3.500000e-07	-6.624659e-06	-1.596676e-08	-4.469284e+01	-1.046353e+03
3.600000e-07	-6.524239e-06	-1.589752e-08	-4.401536e+01	-1.041031e+03
3.700000e-07	-6.421532e-06	-1.581632e-08	-4.332245e+01	-1.035843e+03
3.800000e-07	-6.316479e-06	-1.572150e-08	-4.261372e+01	-1.030854e+03
3.900000e-07	-6.209107e-06	-1.563322e-08	-4.188934e+01	-1.025954e+03
4.000000e-07	-6.099585e-06	-1.555603e-08	-4.115047e+01	-1.020905e+03
4.100000e-07	-5.987971e-06	-1.546048e-08	-4.039746e+01	-1.015443e+03
4.200000e-07	-5.873981e-06	-1.537349e-08	-3.962844e+01	-1.009392e+03
4.300000e-07	-5.757527e-06	-1.528458e-08	-3.884279e+01	-1.002743e+03
4.400000e-07	-5.638919e-06	-1.520174e-08	-3.804261e+01	-9.956636e+02
4.500000e-07	-5.518298e-06	-1.510321e-08	-3.722885e+01	-9.884167e+02
4.600000e-07	-5.395696e-06	-1.499146e-08	-3.640172e+01	-9.812457e+02
4.700000e-07	-5.271217e-06	-1.487082e-08	-3.556193e+01	-9.742584e+02
4.800000e-07	-5.144884e-06	-1.475577e-08	-3.470963e+01	-9.673708e+02
4.900000e-07	-5.016698e-06	-1.464556e-08	-3.384483e+01	-9.603364e+02
5.000000e-07	-4.886583e-06	-1.452307e-08	-3.296702e+01	-9.528499e+02
5.100000e-07	-4.754681e-06	-1.439552e-08	-3.207715e+01	-9.446809e+02
5.200000e-07	-4.621076e-06	-1.426651e-08	-3.117580e+01	-9.357785e+02
5.300000e-07	-4.485844e-06	-1.413614e-08	-3.026346e+01	-9.262969e+02
5.400000e-07	-4.349061e-06	-1.399736e-08	-2.934067e+01	-9.165288e+02
5.500000e-07	-4.210538e-06	-1.385133e-08	-2.840613e+01	-9.067713e+02
5.600000e-07	-4.070350e-06	-1.370265e-08	-2.746036e+01	-8.971837e+02
5.700000e-07	-3.928575e-06	-1.355408e-08	-2.650388e+01	-8.877010e+02
5.800000e-07	-3.785099e-06	-1.339777e-08	-2.553593e+01	-8.780457e+02
5.900000e-07	-3.640116e-06	-1.322677e-08	-2.455781e+01	-8.678368e+02
6.000000e-07	-3.493924e-06	-1.304984e-08	-2.357153e+01	-8.567517e+02
6.100000e-07	-3.346602e-06	-1.287271e-08	-2.257764e+01	-8.446701e+02
6.200000e-07	-3.198202e-06	-1.269378e-08	-2.157647e+01	-8.317322e+02
6.300000e-07	-3.048666e-06	-1.250291e-08	-2.056763e+01	-8.182809e+02
6.400000e-07	-2.898057e-06	-1.230117e-08	-1.955155e+01	-8.047055e+02
6.500000e-07	-2.746522e-06	-1.209613e-08	-1.852923e+01	-7.912534e+02
6.600000e-07	-2.594066e-06	-1.188312e-08	-1.750070e+01	-7.778931e+02
6.700000e-07	-2.440549e-06	-1.165506e-08	-1.646501e+01	-7.642947e+02
6.800000e-07	-2.286005e-06	-1.141280e-08	-1.542239e+01	-7.499449e+02
6.900000e-07	-2.130633e-06	-1.116748e-08	-1.437418e+01	-7.343548e+02
7.000000e-07	-1.974484e-06	-1.091809e-08	-1.332073e+01	-7.172714e+02
7.100000e-07	-1.817622e-06	-1.065806e-08	-1.226247e+01	-6.987953e+02
7.200000e-07	-1.660143e-06	-1.038076e-08	-1.120005e+01	-6.793437e+02
7.300000e-07	-1.502098e-06	-1.008949e-08	-1.013381e+01	-6.594580e+02
7.400000e-07	-1.343490e-06	-9.787225e-09	-9.063767e+00	-6.395319e+02
7.500000e-07	-1.184409e-06	-9.468053e-09	-7.990542e+00	-6.195733e+02
7.600000e-07	-1.025029e-06	-9.128404e-09	-6.915296e+00	-5.991149e+02
7.700000e-07	-8.653838e-07	-8.769080e-09	-5.838257e+00	-5.773297e+02
7.800000e-07	-7.054420e-07	-8.394713e-09	-4.759219e+00	-5.533230e+02
7.900000e-07	-5.452074e-07	-7.997119e-09	-3.678207e+00	-5.264876e+02
8.000000e-07	-3.846713e-07	-7.569363e-09	-2.595161e+00	-4.967666e+02
8.100000e-07	-2.239474e-07	-7.109390e-09	-1.510847e+00	-4.646838e+02
8.200000e-07	-6.316849e-08	-6.619407e-09	-4.261622e-01	-4.310865e+02
8.300000e-07	9.762833e-08	-6.095671e-09	6.586433e-01	-3.966577e+02
8.400000e-07	2.583813e-07	-5.528883e-09	1.743153e+00	-3.613658e+02
8.500000e-07	4.190344e-07	-4.909750e-09	2.826989e+00	-3.240730e+02
8.600000e-07	5.794347e-07	-4.227336e-09	3.909119e+00	-2.824960e+02
8.700000e-07	7.395799e-07	-3.466385e-09	4.989529e+00	-2.336100e+02
8.800000e-07	8.995369e-07	-2.596053e-09	6.068668e+00	-1.744317e+02
8.900000e-07	1.059229e-06	-1.577465e-09	7.146019e+00	-1.029743e+02
9.000000e-07	1.218547e-06	-3.618296e-10	8.220852e+00	-1.908023e+01
9.100000e-07	1.377392e-06	1.079098e-09	9.292484e+00	7.514965e+01
9.200000e-07	1.535673e-06	2.696902e-09	1.036032e+01	1.755034e+02
9.300000e-07	1.693386e-06	4.340067e-09	1.142432e+01	2.763810e+02
9.400000e-07	1.850589e-06	5.830061e-09	1.248488e+01	3.719112e+02
9.500000e-07	2.007218e-06	7.070820e-09	1.354157e+01	4.571524e+02
9.600000e-07	2.163149e-06	8.068392e-09	1.459355e+01	5.290429e+02
9.700000e-07	2.318288e-06	8.877576e-09	1.564018e+01	5.868412e+02
9.800000e-07	2.472609e-06	9.549002e-09	1.668130e+01	6.319636e+02
9.900000e-07	2.626051e-06	1.011926e-08	1.771649e+01	6.673061e+02
1.000000e-06	2.778454e-06	1.060862e-08	1.874466e+01	6.962913e+02
1.010000e-06	2.929758e-06	1.103439e-08	1.976543e+01	7.219430e+02
1.020000e-06	3.079951e-06	1.141471e-08	2.077869e+01	7.462511e+02
1.030000e-06	3.229057e-06	1.176133e-08	2.178463e+01	7.699739e+02
1.040000e-06	3.377027e-06	1.207855e-08	2.278290e+01	7.928622e+02
1.050000e-06	3.523824e-06	1.236632e-08	2.377325e+01	8.141586e+02
1.060000e-06	3.669427e-06	1.263474e-08	2.475556e+01	8.331515e+02
1.070000e-06	3.813637e-06	1.288924e-08	2.572846e+01	8.495791e+02
1.080000e-06	3.956368e-06	1.312573e-08	2.669138e+01	8.637622e+02
1.090000e-06	4.097700e-06	1.334149e-08	2.764487e+01	8.764613e+02
1.100000e-06	4.237526e-06	1.354392e-08	2.858820e+01	8.885583e+02
1.110000e-06	4.375659e-06	1.373817e-08	2.952010e+01	9.007190e+02
1.120000e-06	4.512031e-06	1.392072e-08	3.044013e+01	9.131752e+02
1.130000e-06	4.646751e-06	1.409128e-08	3.134901e+01	9.257063e+02
1.140000e-06	4.779900e-06	1.425440e-08	3.224729e+01	9.378051e+02
1.150000e-06	4.911381e-06	1.441590e-08	3.313432e+01	9.489432e+02
1.160000e-06	5.041133e-06	1.457245e-08	3.400969e+01	9.588155e+02
1.170000e-06	5.169086e-06	1.471673e-08	3.487291e+01	9.674653e+02
1.180000e-06	5.295215e-06	1.484984e-08	3.572383e+01	9.752485e+02
1.190000e-06	5.419462e-06	1.497693e-08	3.656205e+01	9.826673e+02
1.200000e-06	5.541806e-06	1.509970e-08	3.738744e+01	9.901541e+02
1.210000e-06	5.662137e-06	1.521640e-08	3.819925e+01	9.979013e+02
1.220000e-06	5.780329e-06	1.532537e-08	3.899662e+01	1.005807e+03
1.230000e-06	5.896368e-06	1.543058e-08	3.977947e+01	1.013552e+03
1.240000e-06	6.010100e-06	1.553272e-08	4.054675e+01	1.020761e+03
1.250000e-06	6.121573e-06	1.562857e-08	4.129881e+01	1.027180e+03
1.260000e-06	6.230925e-06	1.571824e-08	4.203654e+01	1.032791e+03
1.270000e-06	6.338108e-06	1.580513e-08	4.275964e+01	1.037811e+03
1.280000e-06	6.442987e-06	1.589092e-08	4.346720e+01	1.042591e+03
1.290000e-06	6.545514e-06	1.597147e-08	4.415889e+01	1.047464e+03
1.300000e-06	6.645709e-06	1.604656e-08	4.483485e+01	1.052603e+03
1.310000e-06	6.743470e-06	1.612096e-08	4.549439e+01	1.057958e+03
1.320000e-06	6.838770e-06	1.619386e-08	4.613733e+01	1.063290e+03
1.330000e-06	6.931689e-06	1.626171e-08	4.676420e+01	1.068291e+03
1.340000e-06	7.022206e-06	1.632265e-08	4.737487e+01	1.072718e+03
1.350000e-06	7.110230e-06	1.638207e-08	4.796871e+01	1.076501e+03
1.360000e-06	7.195781e-06	1.644388e-08	4.854588e+01	1.079769e+03
1.370000e-06	7.278836e-06	1.650494e-08	4.910620e+01	1.082782e+03
1.380000e-06	7.359276e-06	1.656128e-08	4.964889e+01	1.085820e+03
1.390000e-06	7.437007e-06	1.661217e-08	5.017329e+01	1.089057e+03
1.400000e-06	7.511975e-06	1.666090e-08	5.067906e+01	1.092496e+03
1.410000e-06	7.584188e-06	1.670750e-08	5.116624e+01	1.095976e+03
1.420000e-06	7.653719e-06	1.675062e-08	5.163533e+01	1.099252e+03
1.430000e-06	7.720533e-06	1.679087e-08	5.208608e+01	1.102110e+03
1.440000e-06	7.784568e-06	1.683062e-08	5.251809e+01	1.104461e+03
1.450000e-06	7.845906e-06	1.687057e-08	5.293191e+01	1.106379e+03
1.460000e-06	7.904489e-06	1.690936e-08	5.332713e+01	1.108060e+03
1.470000e-06	7.960241e-06	1.694374e-08	5.370326e+01	1.109732e+03
1.480000e-06	8.012984e-06	1.697230e-08	5.405908e+01	1.111553e+03
1.490000e-06	8.062499e-06	1.699550e-08	5.439314e+01	1.113544e+03
1.500000e-06	8.108996e-06	1.701650e-08	5.470683e+01	1.115584e+03
1.510000e-06	8.152619e-06	1.703757e-08	5.500113e+01	1.117471e+03
1.520000e-06	8.193283e-06	1.705891e-08	5.527546e+01	1.119017e+03
1.530000e-06	8.231112e-06	1.708099e-08	5.553067e+01	1.120136e+03
1.540000e-06	8.266082e-06	1.710156e-08	5.576660e+01	1.120882e+03
1.550000e-06	8.298130e-06	1.711974e-08	5.598280e+01	1.121422e+03
1.560000e-06	8.327388e-06	1.713519e-08	5.618019e+01	1.121962e+03
1.570000e-06	8.353715e-06	1.714771e-08	5.635781e+01	1.122650e+03
1.580000e-06	8.377005e-06	1.715799e-08	5.651493e+01	1.123512e+03
1.590000e-06	8.397392e-06	1.716674e-08	5.665247e+01	1.124440e+03
1.600000e-06	8.414798e-06	1.717328e-08	5.676990e+01	1.125246e+03
1.610000e-06	8.429074e-06	1.717761e-08	5.686621e+01	1.125747e+03
1.620000e-06	8.440146e-06	1.718199e-08	5.694091e+01	1.125852e+03
1.630000e-06	8.448080e-06	1.718610e-08	5.699444e+01	1.125606e+03
1.640000e-06	8.453075e-06	1.718946e-08	5.702813e+01	1.125173e+03
1.650000e-06	8.455056e-06	1.719033e-08	5.704150e+01	1.124761e+03
1.660000e-06	8.454105e-06	1.718732e-08	5.703508e+01	1.124530e+03
1.670000e-06	8.450426e-06	1.717732e-08	5.701026e+01	1.124514e+03
1.680000e-06	8.443920e-06	1.717342e-08	5.696637e+01	1.124606e+03
1.690000e-06	8.434590e-06	1.716972e-08	5.690343e+01	1.124600e+03
1.700000e-06	8.422272e-06	1.715816e-08	5.682032e+01	1.124280e+03
1.710000e-06	8.407022e-06	1.714566e-08	5.671744e+01	1.123515e+03
1.720000e-06	8.389286e-06	1.713802e-08	5.659778e+01	1.122322e+03
1.730000e-06	8.369011e-06	1.712673e-08	5.646100e+01	1.120860e+03
1.740000e-06	8.345689e-06	1.703759e-08	5.630366e+01	1.119366e+03
1.750000e-06	8.318666e-06	1.700685e-08	5.612135e+01	1.118057e+03
1.760000e-06	8.287779e-06	1.703127e-08	5.591297e+01	1.117039e+03
1.770000e-06	8.253746e-06	1.701442e-08	5.568337e+01	1.116263e+03
1.780000e-06	8.217178e-06	1.699050e-08	5.543667e+01	1.115548e+03
1.790000e-06	8.178273e-06	1.705373e-08	5.517420e+01	1.114660e+03
1.800000e-06	8.137342e-06	1.703537e-08	5.489806e+01	1.113410e+03
1.810000e-06	8.094037e-06	1.692588e-08	5.460591e+01	1.111731e+03
1.820000e-06	8.047728e-06	1.699748e-08	5.429348e+01	1.109698e+03
1.830000e-06	7.998529e-06	1.690662e-08	5.396157e+01	1.107485e+03
1.840000e-06	7.946105e-06	1.688890e-08	5.360789e+01	1.105278e+03
1.850000e-06	7.890478e-06	1.687513e-08	5.323261e+01	1.103184e+03
1.860000e-06	7.832157e-06	1.679736e-08	5.283915e+01	1.101178e+03
1.870000e-06	7.770932e-06	1.684262e-08	5.242610e+01	1.099112e+03
1.880000e-06	7.706993e-06	1.672298e-08	5.199474e+01	1.096783e+03
1.890000e-06	7.640244e-06	1.672604e-08	5.154442e+01	1.094022e+03
1.900000e-06	7.570437e-06	1.664934e-08	5.107347e+01	1.090784e+03
1.910000e-06	7.497719e-06	1.657426e-08	5.058288e+01	1.087167e+03
1.920000e-06	7.422075e-06	1.656929e-08	5.007256e+01	1.083377e+03
1.930000e-06	7.343695e-06	1.646470e-08	4.954377e+01	1.079640e+03
1.940000e-06	7.262724e-06	1.647064e-08	4.899750e+01	1.076100e+03
1.950000e-06	7.179264e-06	1.636944e-08	4.843445e+01	1.072754e+03
1.960000e-06	7.093126e-06	1.633540e-08	4.785333e+01	1.069446e+03
1.970000e-06	7.004364e-06	1.626608e-08	4.725450e+01	1.065932e+03
1.980000e-06	6.913225e-06	1.617764e-08	4.663963e+01	1.061986e+03
1.990000e-06	6.819588e-06	1.614670e-08	4.600792e+01	1.057497e+03
2.000000e-06	6.723548e-06	1.604691e-08	4.535999e+01	1.052519e+03
2.010000e-06	6.625212e-06	1.600500e-08	4.469657e+01	1.047247e+03
2.020000e-06	6.524480e-06	1.589633e-08	4.401699e+01	1.041931e+03
2.030000e-06	6.421230e-06	1.583309e-08	4.332042e+01	1.036764e+03
2.040000e-06	6.315692e-06	1.574212e-08	4.260841e+01	1.031792e+03
2.050000e-06	6.207979e-06	1.566413e-08	4.188173e+01	1.026889e+03
2.060000e-06	6.098041e-06	1.558805e-08	4.114004e+01	1.021808e+03
2.070000e-06	5.985852e-06	1.549273e-08	4.038317e+01	1.016288e+03
2.080000e-06	5.871362e-06	1.540844e-08	3.961077e+01	1.010170e+03
2.090000e-06	5.754561e-06	1.529963e-08	3.882278e+01	1.003464e+03
2.100000e-06	5.635493e-06	1.519993e-08	3.801949e+01	9.963529e+02
2.110000e-06	5.514402e-06	1.508586e-08	3.720256e+01	9.891037e+02
2.120000e-06	5.391423e-06	1.498541e-08	3.637290e+01	9.819501e+02
2.130000e-06	5.266482e-06	1.487024e-08	3.552999e+01	9.749806e+02
2.140000e-06	5.139588e-06	1.476224e-08	3.467390e+01	9.680909e+02
2.150000e-06	5.010907e-06	1.464133e-08	3.380577e+01	9.610222e+02
2.160000e-06	4.880512e-06	1.452583e-08	3.292606e+01	9.534707e+02
2.170000e-06	4.748273e-06	1.439968e-08	3.203392e+01	9.452215e+02
2.180000e-06	4.614233e-06	1.427338e-08	3.112963e+01	9.362460e+02
2.190000e-06	4.478649e-06	1.413583e-08	3.021492e+01	9.267181e+02
2.200000e-06	4.341490e-06	1.399278e-08	2.928958e+01	9.169380e+02
2.210000e-06	4.202658e-06	1.384677e-08	2.835296e+01	9.071943e+02
2.220000e-06	4.062064e-06	1.369172e-08	2.740445e+01	8.976250e+02
2.230000e-06	3.919888e-06	1.353976e-08	2.644528e+01	8.881398e+02
2.240000e-06	3.776410e-06	1.338262e-08	2.547731e+01	8.784435e+02
2.250000e-06	3.631601e-06	1.322369e-08	2.450036e+01	8.681532e+02
2.260000e-06	3.485545e-06	1.304968e-08	2.351501e+01	8.569623e+02
2.270000e-06	3.338322e-06	1.286767e-08	2.252177e+01	8.447775e+02
2.280000e-06	3.189792e-06	1.267714e-08	2.151973e+01	8.317655e+02
2.290000e-06	3.039974e-06	1.248415e-08	2.050899e+01	8.182829e+02
2.300000e-06	2.889133e-06	1.228550e-08	1.949135e+01	8.047126e+02
2.310000e-06	2.737390e-06	1.208199e-08	1.846763e+01	7.912772e+02
2.320000e-06	2.584729e-06	1.186961e-08	1.743771e+01	7.779115e+02
2.330000e-06	2.431111e-06	1.164993e-08	1.640134e+01	7.642583e+02
2.340000e-06	2.276661e-06	1.141794e-08	1.535935e+01	7.497961e+02
2.350000e-06	2.121469e-06	1.117083e-08	1.431235e+01	7.340521e+02
2.360000e-06	1.965401e-06	1.091170e-08	1.325945e+01	7.168078e+02
2.370000e-06	1.808466e-06	1.064490e-08	1.220070e+01	6.982028e+02
2.380000e-06	1.650840e-06	1.036949e-08	1.113728e+01	6.786787e+02
2.390000e-06	1.492605e-06	1.008003e-08	1.006976e+01	6.587747e+02
2.400000e-06	1.333809e-06	9.774996e-09	8.998459e+00	6.388528e+02
2.410000e-06	1.174527e-06	9.452472e-09	7.923872e+00	6.188707e+02
2.420000e-06	1.014831e-06	9.113602e-09	6.846491e+00	5.983135e+02
2.430000e-06	8.548549e-07	8.757258e-09	5.767224e+00	5.763306e+02
2.440000e-06	6.946225e-07	8.379895e-09	4.686226e+00	5.520414e+02
2.450000e-06	5.341589e-07	7.979002e-09	3.603669e+00	5.248883e+02
2.460000e-06	3.735462e-07	7.552978e-09	2.520105e+00	4.948800e+02
2.470000e-06	2.128147e-07	7.096888e-09	1.435741e+00	4.625924e+02
2.480000e-06	5.197481e-08	6.605142e-09	3.506447e-01	4.288812e+02
2.490000e-06	-1.088605e-07	6.072415e-09	-7.344204e-01	3.943783e+02
2.500000e-06	-2.696306e-07	5.498672e-09	-1.819046e+00	3.589476e+02
2.510000e-06	-4.302923e-07	4.878759e-09	-2.902940e+00	3.213227e+02
2.520000e-06	-5.907736e-07	4.197115e-09	-3.985617e+00	2.791138e+02
2.530000e-06	-7.511033e-07	3.432650e-09	-5.067271e+00	2.292579e+02
2.540000e-06	-9.111950e-07	2.560627e-09	-6.147319e+00	1.688324e+02
2.550000e-06	-1.070909e-06	1.541845e-09	-7.224822e+00	9.601163e+01
2.560000e-06	-1.230187e-06	3.232789e-10	-8.299378e+00	1.086866e+01
2.570000e-06	-1.388992e-06	-1.127063e-09	-9.370747e+00	-8.425147e+01
2.580000e-06	-1.547285e-06	-2.756777e-09	-1.043866e+01	-1.849445e+02
2.590000e-06	-1.705060e-06	-4.406705e-09	-1.150308e+01	-2.855236e+02
2.600000e-06	-1.862239e-06	-5.895739e-09	-1.256347e+01	-3.801613e+02
2.610000e-06	-2.018651e-06	-7.133587e-09	-1.361870e+01	-4.640796e+02
2.620000e-06	-2.174173e-06	-8.130952e-09	-1.466792e+01	-5.344543e+02
2.630000e-06	-2.328829e-06	-8.937989e-09	-1.571129e+01	-5.907939e+02
2.640000e-06	-2.482634e-06	-9.607632e-09	-1.674893e+01	-6.347125e+02
2.650000e-06	-2.635565e-06	-1.017736e-08	-1.778067e+01	-6.692104e+02
2.660000e-06	-2.787614e-06	-1.066910e-08	-1.880646e+01	-6.977085e+02
2.670000e-06	-2.938629e-06	-1.109844e-08	-1.982527e+01	-7.231430e+02
2.680000e-06	-3.088602e-06	-1.147999e-08	-2.083706e+01	-7.473734e+02
2.690000e-06	-3.237508e-06	-1.182597e-08	-2.184164e+01	-7.710328e+02
2.700000e-06	-3.385171e-06	-1.214396e-08	-2.283784e+01	-7.937907e+02
2.710000e-06	-3.531582e-06	-1.243629e-08	-2.382560e+01	-8.148692e+02
2.720000e-06	-3.676775e-06	-1.270450e-08	-2.480513e+01	-8.335898e+02
2.730000e-06	-3.820696e-06	-1.295443e-08	-2.577608e+01	-8.497521e+02
2.740000e-06	-3.963221e-06	-1.318884e-08	-2.673762e+01	-8.637351e+02
2.750000e-06	-4.104271e-06	-1.340822e-08	-2.768921e+01	-8.763289e+02
2.760000e-06	-4.243710e-06	-1.361265e-08	-2.862992e+01	-8.884077e+02
2.770000e-06	-4.381465e-06	-1.380319e-08	-2.955927e+01	-9.005979e+02
2.780000e-06	-4.517625e-06	-1.398422e-08	-3.047787e+01	-9.130799e+02
2.790000e-06	-4.652217e-06	-1.415668e-08	-3.138589e+01	-9.255920e+02
2.800000e-06	-4.785146e-06	-1.432043e-08	-3.228268e+01	-9.376113e+02
2.810000e-06	-4.916289e-06	-1.447466e-08	-3.316743e+01	-9.486230e+02
2.820000e-06	-5.045656e-06	-1.461998e-08	-3.404020e+01	-9.583562e+02
2.830000e-06	-5.173327e-06	-1.476167e-08	-3.490152e+01	-9.668921e+02
2.840000e-06	-5.299217e-06	-1.489829e-08	-3.575083e+01	-9.746120e+02
2.850000e-06	-5.423188e-06	-1.502550e-08	-3.658719e+01	-9.820209e+02
2.860000e-06	-5.545226e-06	-1.514217e-08	-3.741052e+01	-9.895318e+02
2.870000e-06	-5.665290e-06	-1.525126e-08	-3.822052e+01	-9.973061e+02
2.880000e-06	-5.783265e-06	-1.535819e-08	-3.901643e+01	-1.005213e+03
2.890000e-06	-5.898952e-06	-1.546161e-08	-3.979691e+01	-1.012918e+03
2.900000e-06	-6.012253e-06	-1.556030e-08	-4.056128e+01	-1.020051e+03
2.910000e-06	-6.123149e-06	-1.565556e-08	-4.130943e+01	-1.026380e+03
2.920000e-06	-6.231780e-06	-1.574907e-08	-4.204230e+01	-1.031915e+03
2.930000e-06	-6.338332e-06	-1.584023e-08	-4.276115e+01	-1.036891e+03
2.940000e-06	-6.442644e-06	-1.592668e-08	-4.346489e+01	-1.041668e+03
