# Temperatura_=_44.04
# Concentracion g/m^3_=_13400.0
# C_Vs_to_Am_M_A/Vsm_=_65563218390.804596
# pendiente_HvsI_1/m_=_3716.3
# ordenada_HvsI_A/m_=_1297.0
# frecuencia_Hz_=_301420.05957712844

Tiempo_(s)	Campo_(V.s)	Magnetizacion_(V.s)	Campo_(kA/m)	Magnetizacion_(A/m)
0.000000e+00	-8.355666e-06	-1.686503e-08	-5.692187e+01	-1.106082e+03
1.000000e-08	-8.352351e-06	-1.686660e-08	-5.689928e+01	-1.105870e+03
2.000000e-08	-8.346334e-06	-1.685965e-08	-5.685829e+01	-1.105822e+03
3.000000e-08	-8.337606e-06	-1.684963e-08	-5.679884e+01	-1.105788e+03
4.000000e-08	-8.325948e-06	-1.683870e-08	-5.671941e+01	-1.105559e+03
5.000000e-08	-8.311290e-06	-1.682702e-08	-5.661956e+01	-1.104968e+03
6.000000e-08	-8.293694e-06	-1.681136e-08	-5.649969e+01	-1.103961e+03
7.000000e-08	-8.273554e-06	-1.678399e-08	-5.636249e+01	-1.102629e+03
8.000000e-08	-8.250895e-06	-1.679606e-08	-5.620813e+01	-1.101170e+03
9.000000e-08	-8.225103e-06	-1.685908e-08	-5.603242e+01	-1.099808e+03
1.000000e-07	-8.195950e-06	-1.682548e-08	-5.583382e+01	-1.098698e+03
1.100000e-07	-8.163654e-06	-1.675672e-08	-5.561381e+01	-1.097861e+03
1.200000e-07	-8.128415e-06	-1.673898e-08	-5.537375e+01	-1.097174e+03
1.300000e-07	-8.090526e-06	-1.672178e-08	-5.511564e+01	-1.096423e+03
1.400000e-07	-8.050265e-06	-1.662893e-08	-5.484136e+01	-1.095394e+03
1.500000e-07	-8.007511e-06	-1.657910e-08	-5.455010e+01	-1.093960e+03
1.600000e-07	-7.961965e-06	-1.669231e-08	-5.423983e+01	-1.092126e+03
1.700000e-07	-7.913599e-06	-1.656976e-08	-5.391034e+01	-1.090018e+03
1.800000e-07	-7.862206e-06	-1.657815e-08	-5.356023e+01	-1.087816e+03
1.900000e-07	-7.807711e-06	-1.660817e-08	-5.318900e+01	-1.085667e+03
2.000000e-07	-7.750370e-06	-1.647075e-08	-5.279837e+01	-1.083614e+03
2.100000e-07	-7.690234e-06	-1.646836e-08	-5.238870e+01	-1.081575e+03
2.200000e-07	-7.627418e-06	-1.639174e-08	-5.196077e+01	-1.079381e+03
2.300000e-07	-7.561867e-06	-1.639733e-08	-5.151422e+01	-1.076860e+03
2.400000e-07	-7.493475e-06	-1.634521e-08	-5.104830e+01	-1.073914e+03
2.500000e-07	-7.422305e-06	-1.629659e-08	-5.056347e+01	-1.070574e+03
2.600000e-07	-7.348253e-06	-1.628105e-08	-5.005900e+01	-1.066992e+03
2.700000e-07	-7.271350e-06	-1.620960e-08	-4.953511e+01	-1.063373e+03
2.800000e-07	-7.191623e-06	-1.617238e-08	-4.899198e+01	-1.059885e+03
2.900000e-07	-7.109174e-06	-1.608316e-08	-4.843030e+01	-1.056583e+03
3.000000e-07	-7.024357e-06	-1.604849e-08	-4.785250e+01	-1.053374e+03
3.100000e-07	-6.937188e-06	-1.599573e-08	-4.725867e+01	-1.050061e+03
3.200000e-07	-6.847473e-06	-1.592866e-08	-4.664750e+01	-1.046419e+03
3.300000e-07	-6.755270e-06	-1.588166e-08	-4.601938e+01	-1.042299e+03
3.400000e-07	-6.660772e-06	-1.579445e-08	-4.537562e+01	-1.037692e+03
3.500000e-07	-6.563916e-06	-1.574112e-08	-4.471580e+01	-1.032736e+03
3.600000e-07	-6.464630e-06	-1.567644e-08	-4.403943e+01	-1.027652e+03
3.700000e-07	-6.362984e-06	-1.560892e-08	-4.334698e+01	-1.022649e+03
3.800000e-07	-6.259001e-06	-1.552172e-08	-4.263861e+01	-1.017824e+03
3.900000e-07	-6.152746e-06	-1.544111e-08	-4.191477e+01	-1.013115e+03
4.000000e-07	-6.044327e-06	-1.536571e-08	-4.117617e+01	-1.008323e+03
4.100000e-07	-5.933732e-06	-1.527111e-08	-4.042276e+01	-1.003193e+03
4.200000e-07	-5.820886e-06	-1.518623e-08	-3.965401e+01	-9.975270e+02
4.300000e-07	-5.705788e-06	-1.509615e-08	-3.886992e+01	-9.912708e+02
4.400000e-07	-5.588535e-06	-1.501551e-08	-3.807115e+01	-9.845389e+02
4.500000e-07	-5.469162e-06	-1.492478e-08	-3.725794e+01	-9.775634e+02
4.600000e-07	-5.347764e-06	-1.482216e-08	-3.643093e+01	-9.705889e+02
4.700000e-07	-5.224521e-06	-1.470676e-08	-3.559136e+01	-9.637584e+02
4.800000e-07	-5.099425e-06	-1.459154e-08	-3.473916e+01	-9.570418e+02
4.900000e-07	-4.972480e-06	-1.447962e-08	-3.387436e+01	-9.502406e+02
5.000000e-07	-4.843724e-06	-1.436103e-08	-3.299723e+01	-9.430696e+02
5.100000e-07	-4.713170e-06	-1.424162e-08	-3.210785e+01	-9.352807e+02
5.200000e-07	-4.580884e-06	-1.412188e-08	-3.120667e+01	-9.267737e+02
5.300000e-07	-4.447003e-06	-1.399689e-08	-3.029462e+01	-9.176438e+02
5.400000e-07	-4.311512e-06	-1.385985e-08	-2.937160e+01	-9.081418e+02
5.500000e-07	-4.174387e-06	-1.371454e-08	-2.843746e+01	-8.985598e+02
5.600000e-07	-4.035716e-06	-1.356790e-08	-2.749278e+01	-8.890934e+02
5.700000e-07	-3.895432e-06	-1.342019e-08	-2.653712e+01	-8.797406e+02
5.800000e-07	-3.753579e-06	-1.326772e-08	-2.557076e+01	-8.702862e+02
5.900000e-07	-3.610245e-06	-1.310348e-08	-2.459431e+01	-8.603820e+02
6.000000e-07	-3.465571e-06	-1.293287e-08	-2.360874e+01	-8.496929e+02
6.100000e-07	-3.319739e-06	-1.275897e-08	-2.261528e+01	-8.380432e+02
6.200000e-07	-3.172690e-06	-1.258083e-08	-2.161353e+01	-8.254989e+02
6.300000e-07	-3.024463e-06	-1.239324e-08	-2.060376e+01	-8.123424e+02
6.400000e-07	-2.875262e-06	-1.219638e-08	-1.958734e+01	-7.989455e+02
6.500000e-07	-2.725082e-06	-1.199662e-08	-1.856426e+01	-7.855921e+02
6.600000e-07	-2.573877e-06	-1.178709e-08	-1.753420e+01	-7.723289e+02
6.700000e-07	-2.421752e-06	-1.156505e-08	-1.649786e+01	-7.589134e+02
6.800000e-07	-2.268797e-06	-1.133005e-08	-1.545588e+01	-7.448903e+02
6.900000e-07	-2.114999e-06	-1.109062e-08	-1.440815e+01	-7.297709e+02
7.000000e-07	-1.960402e-06	-1.084663e-08	-1.335498e+01	-7.132406e+02
7.100000e-07	-1.805118e-06	-1.059216e-08	-1.229713e+01	-6.953004e+02
7.200000e-07	-1.649187e-06	-1.032113e-08	-1.123487e+01	-6.762728e+02
7.300000e-07	-1.492717e-06	-1.003449e-08	-1.016894e+01	-6.566537e+02
7.400000e-07	-1.335790e-06	-9.736293e-09	-9.099894e+00	-6.368669e+02
7.500000e-07	-1.178397e-06	-9.422957e-09	-8.027674e+00	-6.170202e+02
7.600000e-07	-1.020544e-06	-9.090007e-09	-6.952321e+00	-5.967782e+02
7.700000e-07	-8.622357e-07	-8.735823e-09	-5.873866e+00	-5.754226e+02
7.800000e-07	-7.035503e-07	-8.367767e-09	-4.792843e+00	-5.520926e+02
7.900000e-07	-5.445689e-07	-7.980949e-09	-3.709803e+00	-5.261195e+02
8.000000e-07	-3.853401e-07	-7.566699e-09	-2.625078e+00	-4.973086e+02
8.100000e-07	-2.259613e-07	-7.117730e-09	-1.539331e+00	-4.660306e+02
8.200000e-07	-6.653307e-08	-6.636452e-09	-4.532477e-01	-4.330415e+02
8.300000e-07	9.291141e-08	-6.124251e-09	6.329466e-01	-3.990612e+02
8.400000e-07	2.523245e-07	-5.572660e-09	1.718927e+00	-3.642471e+02
8.500000e-07	4.116654e-07	-4.971852e-09	2.804416e+00	-3.277662e+02
8.600000e-07	5.708720e-07	-4.310732e-09	3.888990e+00	-2.876662e+02
8.700000e-07	7.298153e-07	-3.578762e-09	4.971770e+00	-2.411608e+02
8.800000e-07	8.884348e-07	-2.749719e-09	6.052344e+00	-1.853055e+02
8.900000e-07	1.046679e-06	-1.784862e-09	7.130362e+00	-1.178962e+02
9.000000e-07	1.204474e-06	-6.341818e-10	8.205321e+00	-3.832039e+01
9.100000e-07	1.361808e-06	7.343920e-10	9.277137e+00	5.191826e+01
9.200000e-07	1.518646e-06	2.287378e-09	1.034558e+01	1.492022e+02
9.300000e-07	1.674910e-06	3.897962e-09	1.141010e+01	2.483706e+02
9.400000e-07	1.830621e-06	5.398110e-09	1.247086e+01	3.437235e+02
9.500000e-07	1.985770e-06	6.677500e-09	1.352779e+01	4.301849e+02
9.600000e-07	2.140172e-06	7.717457e-09	1.457964e+01	5.042989e+02
9.700000e-07	2.293693e-06	8.560999e-09	1.562548e+01	5.647859e+02
9.800000e-07	2.446343e-06	9.260089e-09	1.666539e+01	6.125243e+02
9.900000e-07	2.598184e-06	9.853586e-09	1.769978e+01	6.500036e+02
1.000000e-06	2.749107e-06	1.036191e-08	1.872793e+01	6.804487e+02
1.010000e-06	2.898967e-06	1.080015e-08	1.974883e+01	7.069016e+02
1.020000e-06	3.047793e-06	1.118793e-08	2.076268e+01	7.315311e+02
1.030000e-06	3.195569e-06	1.154136e-08	2.176939e+01	7.553411e+02
1.040000e-06	3.342177e-06	1.186496e-08	2.276814e+01	7.782996e+02
1.050000e-06	3.487593e-06	1.215670e-08	2.375877e+01	7.997735e+02
1.060000e-06	3.631782e-06	1.242454e-08	2.474103e+01	8.190649e+02
1.070000e-06	3.774576e-06	1.267793e-08	2.571380e+01	8.358410e+02
1.080000e-06	3.915922e-06	1.291840e-08	2.667670e+01	8.503207e+02
1.090000e-06	4.055789e-06	1.313748e-08	2.762952e+01	8.631852e+02
1.100000e-06	4.194118e-06	1.333834e-08	2.857187e+01	8.752950e+02
1.110000e-06	4.330894e-06	1.353059e-08	2.950364e+01	8.873537e+02
1.120000e-06	4.466087e-06	1.371371e-08	3.042462e+01	8.996664e+02
1.130000e-06	4.599665e-06	1.388458e-08	3.133461e+01	9.120831e+02
1.140000e-06	4.731560e-06	1.404440e-08	3.223313e+01	9.241328e+02
1.150000e-06	4.861748e-06	1.420154e-08	3.312001e+01	9.352753e+02
1.160000e-06	4.990246e-06	1.435580e-08	3.399539e+01	9.451570e+02
1.170000e-06	5.117010e-06	1.450143e-08	3.485895e+01	9.537625e+02
1.180000e-06	5.241936e-06	1.463425e-08	3.571000e+01	9.614097e+02
1.190000e-06	5.364973e-06	1.475609e-08	3.654817e+01	9.686024e+02
1.200000e-06	5.486104e-06	1.487148e-08	3.737336e+01	9.758143e+02
1.210000e-06	5.605214e-06	1.498465e-08	3.818478e+01	9.833008e+02
1.220000e-06	5.722224e-06	1.509485e-08	3.898189e+01	9.910165e+02
1.230000e-06	5.837067e-06	1.519771e-08	3.976424e+01	9.986665e+02
1.240000e-06	5.949673e-06	1.529555e-08	4.053136e+01	1.005861e+03
1.250000e-06	6.060108e-06	1.539244e-08	4.128368e+01	1.012298e+03
1.260000e-06	6.168461e-06	1.548564e-08	4.202182e+01	1.017903e+03
1.270000e-06	6.274668e-06	1.557092e-08	4.274534e+01	1.022850e+03
1.280000e-06	6.378614e-06	1.565087e-08	4.345346e+01	1.027487e+03
1.290000e-06	6.480238e-06	1.572825e-08	4.414576e+01	1.032175e+03
1.300000e-06	6.579494e-06	1.580360e-08	4.482193e+01	1.037140e+03
1.310000e-06	6.676346e-06	1.587508e-08	4.548172e+01	1.042381e+03
1.320000e-06	6.770847e-06	1.594410e-08	4.612550e+01	1.047682e+03
1.330000e-06	6.862961e-06	1.601277e-08	4.675301e+01	1.052719e+03
1.340000e-06	6.952585e-06	1.607846e-08	4.736356e+01	1.057204e+03
1.350000e-06	7.039790e-06	1.614005e-08	4.795764e+01	1.061008e+03
1.360000e-06	7.124622e-06	1.619746e-08	4.853554e+01	1.064215e+03
1.370000e-06	7.206945e-06	1.625377e-08	4.909636e+01	1.067078e+03
1.380000e-06	7.286675e-06	1.630916e-08	4.963950e+01	1.069905e+03
1.390000e-06	7.363709e-06	1.635976e-08	5.016429e+01	1.072926e+03
1.400000e-06	7.437925e-06	1.640499e-08	5.066988e+01	1.076203e+03
1.410000e-06	7.509446e-06	1.644631e-08	5.115710e+01	1.079612e+03
1.420000e-06	7.578326e-06	1.648846e-08	5.162634e+01	1.082906e+03
1.430000e-06	7.644439e-06	1.653152e-08	5.207673e+01	1.085834e+03
1.440000e-06	7.707870e-06	1.657145e-08	5.250884e+01	1.088247e+03
1.450000e-06	7.768716e-06	1.660871e-08	5.292334e+01	1.090163e+03
1.460000e-06	7.826807e-06	1.664616e-08	5.331908e+01	1.091751e+03
1.470000e-06	7.882130e-06	1.668076e-08	5.369596e+01	1.093252e+03
1.480000e-06	7.934406e-06	1.670718e-08	5.405209e+01	1.094871e+03
1.490000e-06	7.983391e-06	1.672563e-08	5.438579e+01	1.096686e+03
1.500000e-06	8.029495e-06	1.674397e-08	5.469987e+01	1.098623e+03
1.510000e-06	8.072810e-06	1.676626e-08	5.499495e+01	1.100497e+03
1.520000e-06	8.113188e-06	1.678950e-08	5.527002e+01	1.102098e+03
1.530000e-06	8.150748e-06	1.681089e-08	5.552589e+01	1.103290e+03
1.540000e-06	8.185505e-06	1.682935e-08	5.576266e+01	1.104073e+03
1.550000e-06	8.217354e-06	1.684858e-08	5.597963e+01	1.104581e+03
1.560000e-06	8.246365e-06	1.686645e-08	5.617726e+01	1.105021e+03
1.570000e-06	8.272451e-06	1.687791e-08	5.635497e+01	1.105576e+03
1.580000e-06	8.295506e-06	1.688446e-08	5.651204e+01	1.106327e+03
1.590000e-06	8.315747e-06	1.689169e-08	5.664992e+01	1.107216e+03
1.600000e-06	8.333095e-06	1.690027e-08	5.676810e+01	1.108073e+03
1.610000e-06	8.347311e-06	1.690651e-08	5.686495e+01	1.108698e+03
1.620000e-06	8.358283e-06	1.691067e-08	5.693969e+01	1.108950e+03
1.630000e-06	8.366143e-06	1.691622e-08	5.699324e+01	1.108813e+03
1.640000e-06	8.371153e-06	1.692316e-08	5.702737e+01	1.108402e+03
1.650000e-06	8.373227e-06	1.692531e-08	5.704150e+01	1.107909e+03
1.660000e-06	8.372389e-06	1.691860e-08	5.703579e+01	1.107521e+03
1.670000e-06	8.368762e-06	1.690331e-08	5.701108e+01	1.107330e+03
1.680000e-06	8.362308e-06	1.689982e-08	5.696711e+01	1.107292e+03
1.690000e-06	8.353119e-06	1.689826e-08	5.690451e+01	1.107247e+03
1.700000e-06	8.341034e-06	1.688743e-08	5.682218e+01	1.106985e+03
1.710000e-06	8.326031e-06	1.687874e-08	5.671998e+01	1.106349e+03
1.720000e-06	8.308502e-06	1.688294e-08	5.660057e+01	1.105300e+03
1.730000e-06	8.288452e-06	1.688626e-08	5.646398e+01	1.103943e+03
1.740000e-06	8.265487e-06	1.677116e-08	5.630753e+01	1.102483e+03
1.750000e-06	8.238840e-06	1.673220e-08	5.612600e+01	1.101143e+03
1.760000e-06	8.208262e-06	1.676622e-08	5.591770e+01	1.100064e+03
1.770000e-06	8.174587e-06	1.674476e-08	5.568829e+01	1.099250e+03
1.780000e-06	8.138405e-06	1.672266e-08	5.544180e+01	1.098567e+03
1.790000e-06	8.099919e-06	1.682249e-08	5.517962e+01	1.097795e+03
1.800000e-06	8.059454e-06	1.677216e-08	5.490396e+01	1.096726e+03
1.810000e-06	8.016650e-06	1.665822e-08	5.461236e+01	1.095245e+03
1.820000e-06	7.970832e-06	1.677517e-08	5.430024e+01	1.093374e+03
1.830000e-06	7.922197e-06	1.662812e-08	5.396892e+01	1.091246e+03
1.840000e-06	7.870421e-06	1.665074e-08	5.361620e+01	1.089044e+03
1.850000e-06	7.815421e-06	1.662659e-08	5.324152e+01	1.086905e+03
1.860000e-06	7.757723e-06	1.654276e-08	5.284846e+01	1.084859e+03
1.870000e-06	7.697167e-06	1.662002e-08	5.243592e+01	1.082811e+03
1.880000e-06	7.633935e-06	1.645478e-08	5.200517e+01	1.080590e+03
1.890000e-06	7.567922e-06	1.648585e-08	5.155546e+01	1.078025e+03
1.900000e-06	7.498996e-06	1.639471e-08	5.108592e+01	1.075032e+03
1.910000e-06	7.427244e-06	1.633568e-08	5.059711e+01	1.071658e+03
1.920000e-06	7.352550e-06	1.634462e-08	5.008827e+01	1.068061e+03
1.930000e-06	7.275057e-06	1.623286e-08	4.956036e+01	1.064449e+03
1.940000e-06	7.194927e-06	1.625952e-08	4.901448e+01	1.060980e+03
1.950000e-06	7.112311e-06	1.612582e-08	4.845168e+01	1.057694e+03
1.960000e-06	7.027013e-06	1.611639e-08	4.787059e+01	1.054485e+03
1.970000e-06	6.939032e-06	1.603741e-08	4.727123e+01	1.051146e+03
1.980000e-06	6.848680e-06	1.595315e-08	4.665572e+01	1.047457e+03
1.990000e-06	6.755935e-06	1.593949e-08	4.602391e+01	1.043282e+03
2.000000e-06	6.660813e-06	1.583866e-08	4.537590e+01	1.038629e+03
2.010000e-06	6.563421e-06	1.581116e-08	4.471243e+01	1.033647e+03
2.020000e-06	6.463768e-06	1.569165e-08	4.403356e+01	1.028562e+03
2.030000e-06	6.361638e-06	1.563922e-08	4.333781e+01	1.023576e+03
2.040000e-06	6.257199e-06	1.554296e-08	4.262634e+01	1.018769e+03
2.050000e-06	6.150610e-06	1.547603e-08	4.190021e+01	1.014062e+03
2.060000e-06	6.041837e-06	1.540479e-08	4.115921e+01	1.009245e+03
2.070000e-06	5.930873e-06	1.531521e-08	4.040329e+01	1.004065e+03
2.080000e-06	5.817649e-06	1.523789e-08	3.963196e+01	9.983343e+02
2.090000e-06	5.702155e-06	1.512760e-08	3.884518e+01	9.920185e+02
2.100000e-06	5.584371e-06	1.503231e-08	3.804279e+01	9.852476e+02
2.110000e-06	5.464510e-06	1.492261e-08	3.722625e+01	9.782608e+02
2.120000e-06	5.342656e-06	1.483194e-08	3.639613e+01	9.712971e+02
2.130000e-06	5.218909e-06	1.472499e-08	3.555313e+01	9.644831e+02
2.140000e-06	5.093288e-06	1.462692e-08	3.469735e+01	9.577688e+02
2.150000e-06	4.965846e-06	1.450438e-08	3.382917e+01	9.509415e+02
2.160000e-06	4.836674e-06	1.438731e-08	3.294920e+01	9.437139e+02
2.170000e-06	4.705719e-06	1.425833e-08	3.205709e+01	9.358489e+02
2.180000e-06	4.573040e-06	1.413566e-08	3.115323e+01	9.272667e+02
2.190000e-06	4.438787e-06	1.400663e-08	3.023864e+01	9.180826e+02
2.200000e-06	4.303006e-06	1.387464e-08	2.931366e+01	9.085581e+02
2.210000e-06	4.165531e-06	1.373777e-08	2.837713e+01	8.989815e+02
2.220000e-06	4.026409e-06	1.358553e-08	2.742937e+01	8.895308e+02
2.230000e-06	3.885749e-06	1.343349e-08	2.647115e+01	8.801803e+02
2.240000e-06	3.743686e-06	1.327542e-08	2.550337e+01	8.706949e+02
2.250000e-06	3.600337e-06	1.312003e-08	2.452682e+01	8.607204e+02
2.260000e-06	3.455726e-06	1.295211e-08	2.354168e+01	8.499323e+02
2.270000e-06	3.309807e-06	1.277791e-08	2.254762e+01	8.381786e+02
2.280000e-06	3.162674e-06	1.259576e-08	2.154530e+01	8.255518e+02
2.290000e-06	3.014495e-06	1.240923e-08	2.053585e+01	8.123513e+02
2.300000e-06	2.865242e-06	1.221348e-08	1.951908e+01	7.989481e+02
2.310000e-06	2.714938e-06	1.201118e-08	1.849516e+01	7.856067e+02
2.320000e-06	2.563717e-06	1.179922e-08	1.746498e+01	7.723432e+02
2.330000e-06	2.411668e-06	1.157839e-08	1.642917e+01	7.588862e+02
2.340000e-06	2.258704e-06	1.134788e-08	1.538712e+01	7.447670e+02
2.350000e-06	2.104768e-06	1.110977e-08	1.433845e+01	7.295062e+02
2.360000e-06	1.949981e-06	1.086253e-08	1.328399e+01	7.128180e+02
2.370000e-06	1.794531e-06	1.060151e-08	1.222500e+01	6.947406e+02
2.380000e-06	1.638539e-06	1.032683e-08	1.116233e+01	6.756244e+02
2.390000e-06	1.482012e-06	1.004096e-08	1.009601e+01	6.559704e+02
2.400000e-06	1.324922e-06	9.742830e-09	9.025858e+00	6.361788e+02
2.410000e-06	1.167297e-06	9.425990e-09	7.952054e+00	6.163132e+02
2.420000e-06	1.009212e-06	9.091538e-09	6.875126e+00	5.959908e+02
2.430000e-06	8.508273e-07	8.742292e-09	5.796148e+00	5.744638e+02
2.440000e-06	6.921943e-07	8.373886e-09	4.715482e+00	5.508756e+02
2.450000e-06	5.332845e-07	7.980893e-09	3.632930e+00	5.245971e+02
2.460000e-06	3.741933e-07	7.562211e-09	2.549142e+00	4.954944e+02
2.470000e-06	2.149845e-07	7.115332e-09	1.464553e+00	4.639928e+02
2.480000e-06	5.568789e-08	6.635307e-09	3.793664e-01	4.308680e+02
2.490000e-06	-1.035994e-07	6.117271e-09	-7.057571e-01	3.968050e+02
2.500000e-06	-2.628376e-07	5.557668e-09	-1.790546e+00	3.618717e+02
2.510000e-06	-4.219801e-07	4.952889e-09	-2.874683e+00	3.251145e+02
2.520000e-06	-5.809818e-07	4.292774e-09	-3.957862e+00	2.844706e+02
2.530000e-06	-7.397989e-07	3.557498e-09	-5.039782e+00	2.370985e+02
2.540000e-06	-8.983294e-07	2.723661e-09	-6.119749e+00	1.800885e+02
2.550000e-06	-1.056485e-06	1.757175e-09	-7.197163e+00	1.113698e+02
2.560000e-06	-1.214200e-06	6.103127e-10	-8.271573e+00	3.053972e+01
2.570000e-06	-1.371448e-06	-7.575792e-10	-9.342810e+00	-6.066122e+01
2.580000e-06	-1.528188e-06	-2.318656e-09	-1.041058e+01	-1.584134e+02
2.590000e-06	-1.684378e-06	-3.940915e-09	-1.147460e+01	-2.574449e+02
2.600000e-06	-1.839941e-06	-5.449255e-09	-1.253435e+01	-3.520670e+02
2.610000e-06	-1.994826e-06	-6.730499e-09	-1.358949e+01	-4.373356e+02
2.620000e-06	-2.148952e-06	-7.771537e-09	-1.463945e+01	-5.100110e+02
2.630000e-06	-2.302191e-06	-8.614241e-09	-1.568337e+01	-5.690559e+02
2.640000e-06	-2.454558e-06	-9.310536e-09	-1.672135e+01	-6.155557e+02
2.650000e-06	-2.606053e-06	-9.899596e-09	-1.775339e+01	-6.521235e+02
2.660000e-06	-2.756644e-06	-1.040724e-08	-1.877927e+01	-6.820067e+02
2.670000e-06	-2.906233e-06	-1.085423e-08	-1.979833e+01	-7.081807e+02
2.680000e-06	-3.054784e-06	-1.125279e-08	-2.081031e+01	-7.326957e+02
2.690000e-06	-3.202301e-06	-1.161058e-08	-2.181525e+01	-7.564314e+02
2.700000e-06	-3.348699e-06	-1.193325e-08	-2.281257e+01	-7.792673e+02
2.710000e-06	-3.493855e-06	-1.222577e-08	-2.380142e+01	-8.005377e+02
2.720000e-06	-3.637678e-06	-1.249274e-08	-2.478120e+01	-8.195668e+02
2.730000e-06	-3.780191e-06	-1.273988e-08	-2.575205e+01	-8.360772e+02
2.740000e-06	-3.921322e-06	-1.297361e-08	-2.671349e+01	-8.503458e+02
2.750000e-06	-4.060996e-06	-1.319570e-08	-2.766499e+01	-8.630889e+02
2.760000e-06	-4.199091e-06	-1.340596e-08	-2.860575e+01	-8.751656e+02
2.770000e-06	-4.335532e-06	-1.360316e-08	-2.953524e+01	-8.872458e+02
2.780000e-06	-4.470398e-06	-1.378804e-08	-3.045399e+01	-8.995847e+02
2.790000e-06	-4.603697e-06	-1.396110e-08	-3.136207e+01	-9.119886e+02
2.800000e-06	-4.735390e-06	-1.412176e-08	-3.225921e+01	-9.239661e+02
2.810000e-06	-4.865410e-06	-1.427121e-08	-3.314496e+01	-9.349858e+02
2.820000e-06	-4.993677e-06	-1.441393e-08	-3.401876e+01	-9.447255e+02
2.830000e-06	-5.120162e-06	-1.455471e-08	-3.488043e+01	-9.532087e+02
2.840000e-06	-5.244869e-06	-1.469039e-08	-3.572997e+01	-9.607823e+02
2.850000e-06	-5.367731e-06	-1.481408e-08	-3.656695e+01	-9.679575e+02
2.860000e-06	-5.488673e-06	-1.492784e-08	-3.739086e+01	-9.751922e+02
2.870000e-06	-5.607600e-06	-1.503851e-08	-3.820103e+01	-9.827112e+02
2.880000e-06	-5.724398e-06	-1.514733e-08	-3.899670e+01	-9.904377e+02
2.890000e-06	-5.838880e-06	-1.524964e-08	-3.977659e+01	-9.980579e+02
2.900000e-06	-5.950960e-06	-1.534359e-08	-4.054013e+01	-1.005183e+03
2.910000e-06	-6.060770e-06	-1.543330e-08	-4.128819e+01	-1.011531e+03
2.920000e-06	-6.168471e-06	-1.552440e-08	-4.202189e+01	-1.017053e+03
2.930000e-06	-6.274117e-06	-1.561561e-08	-4.274159e+01	-1.021949e+03
2.940000e-06	-6.377558e-06	-1.570168e-08	-4.344627e+01	-1.026576e+03
