# Temperatura_=_33.27
# Concentracion g/m^3_=_13400.0
# C_Vs_to_Am_M_A/Vsm_=_65563218390.804596
# pendiente_HvsI_1/m_=_3716.3
# ordenada_HvsI_A/m_=_1297.0
# frecuencia_Hz_=_301422.76176343777

Tiempo_(s)	Campo_(V.s)	Magnetizacion_(V.s)	Campo_(kA/m)	Magnetizacion_(A/m)
0.000000e+00	-8.374704e-06	-1.661427e-08	-5.692288e+01	-1.090596e+03
1.000000e-08	-8.371480e-06	-1.662136e-08	-5.690096e+01	-1.090245e+03
2.000000e-08	-8.365478e-06	-1.661817e-08	-5.686017e+01	-1.090074e+03
3.000000e-08	-8.356878e-06	-1.660978e-08	-5.680171e+01	-1.089990e+03
4.000000e-08	-8.345375e-06	-1.660508e-08	-5.672353e+01	-1.089814e+03
5.000000e-08	-8.330806e-06	-1.659826e-08	-5.662450e+01	-1.089367e+03
6.000000e-08	-8.313315e-06	-1.658131e-08	-5.650561e+01	-1.088550e+03
7.000000e-08	-8.293268e-06	-1.654990e-08	-5.636936e+01	-1.087393e+03
8.000000e-08	-8.270696e-06	-1.654157e-08	-5.621594e+01	-1.086046e+03
9.000000e-08	-8.244931e-06	-1.662234e-08	-5.604081e+01	-1.084711e+03
1.000000e-07	-8.215773e-06	-1.659864e-08	-5.584262e+01	-1.083558e+03
1.100000e-07	-8.183486e-06	-1.651162e-08	-5.562317e+01	-1.082650e+03
1.200000e-07	-8.148179e-06	-1.649899e-08	-5.538319e+01	-1.081913e+03
1.300000e-07	-8.110142e-06	-1.649945e-08	-5.512464e+01	-1.081171e+03
1.400000e-07	-8.069727e-06	-1.641309e-08	-5.484995e+01	-1.080215e+03
1.500000e-07	-8.026881e-06	-1.631958e-08	-5.455872e+01	-1.078897e+03
1.600000e-07	-7.981282e-06	-1.647878e-08	-5.424879e+01	-1.077185e+03
1.700000e-07	-7.932835e-06	-1.635209e-08	-5.391949e+01	-1.075170e+03
1.800000e-07	-7.881419e-06	-1.632670e-08	-5.357002e+01	-1.073019e+03
1.900000e-07	-7.826883e-06	-1.640774e-08	-5.319934e+01	-1.070892e+03
2.000000e-07	-7.769508e-06	-1.623853e-08	-5.280936e+01	-1.068866e+03
2.100000e-07	-7.709393e-06	-1.624914e-08	-5.240076e+01	-1.066900e+03
2.200000e-07	-7.646546e-06	-1.617593e-08	-5.197359e+01	-1.064852e+03
2.300000e-07	-7.580952e-06	-1.617484e-08	-5.152774e+01	-1.062549e+03
2.400000e-07	-7.512468e-06	-1.615353e-08	-5.106226e+01	-1.059869e+03
2.500000e-07	-7.441146e-06	-1.608456e-08	-5.057748e+01	-1.056800e+03
2.600000e-07	-7.366996e-06	-1.608189e-08	-5.007348e+01	-1.053457e+03
2.700000e-07	-7.289999e-06	-1.599949e-08	-4.955013e+01	-1.050028e+03
2.800000e-07	-7.210192e-06	-1.596618e-08	-4.900768e+01	-1.046695e+03
2.900000e-07	-7.127670e-06	-1.587891e-08	-4.844679e+01	-1.043547e+03
3.000000e-07	-7.042702e-06	-1.584668e-08	-4.786926e+01	-1.040533e+03
3.100000e-07	-6.955369e-06	-1.582287e-08	-4.727565e+01	-1.037481e+03
3.200000e-07	-6.865592e-06	-1.574259e-08	-4.666544e+01	-1.034164e+03
3.300000e-07	-6.773356e-06	-1.571451e-08	-4.603851e+01	-1.030401e+03
3.400000e-07	-6.678727e-06	-1.561907e-08	-4.539532e+01	-1.026136e+03
3.500000e-07	-6.581785e-06	-1.556142e-08	-4.473640e+01	-1.021462e+03
3.600000e-07	-6.482390e-06	-1.549613e-08	-4.406081e+01	-1.016582e+03
3.700000e-07	-6.380567e-06	-1.542883e-08	-4.336872e+01	-1.011720e+03
3.800000e-07	-6.276455e-06	-1.535890e-08	-4.266107e+01	-1.007019e+03
3.900000e-07	-6.170086e-06	-1.528687e-08	-4.193808e+01	-1.002473e+03
4.000000e-07	-6.061505e-06	-1.522932e-08	-4.120006e+01	-9.979218e+02
4.100000e-07	-5.950733e-06	-1.512911e-08	-4.044714e+01	-9.931215e+02
4.200000e-07	-5.837729e-06	-1.504718e-08	-3.967905e+01	-9.878454e+02
4.300000e-07	-5.722463e-06	-1.495154e-08	-3.889559e+01	-9.819848e+02
4.400000e-07	-5.604950e-06	-1.487233e-08	-3.809685e+01	-9.755986e+02
4.500000e-07	-5.485310e-06	-1.478548e-08	-3.728366e+01	-9.688871e+02
4.600000e-07	-5.363727e-06	-1.469253e-08	-3.645726e+01	-9.621033e+02
4.700000e-07	-5.240264e-06	-1.458911e-08	-3.561808e+01	-9.554357e+02
4.800000e-07	-5.114917e-06	-1.448081e-08	-3.476610e+01	-9.489178e+02
4.900000e-07	-4.987737e-06	-1.437702e-08	-3.390166e+01	-9.424040e+02
5.000000e-07	-4.858707e-06	-1.425792e-08	-3.302464e+01	-9.356256e+02
5.100000e-07	-4.727875e-06	-1.414068e-08	-3.213537e+01	-9.283038e+02
5.200000e-07	-4.595372e-06	-1.401958e-08	-3.123475e+01	-9.202711e+02
5.300000e-07	-4.461210e-06	-1.390089e-08	-3.032285e+01	-9.115467e+02
5.400000e-07	-4.325450e-06	-1.376822e-08	-2.940009e+01	-9.023292e+02
5.500000e-07	-4.188157e-06	-1.362975e-08	-2.846691e+01	-8.929078e+02
5.600000e-07	-4.049263e-06	-1.348931e-08	-2.752285e+01	-8.835287e+02
5.700000e-07	-3.908705e-06	-1.334827e-08	-2.656748e+01	-8.742743e+02
5.800000e-07	-3.766543e-06	-1.320265e-08	-2.560120e+01	-8.650122e+02
5.900000e-07	-3.622916e-06	-1.304145e-08	-2.462497e+01	-8.554391e+02
6.000000e-07	-3.477994e-06	-1.287308e-08	-2.363993e+01	-8.452038e+02
6.100000e-07	-3.331888e-06	-1.269802e-08	-2.264685e+01	-8.340585e+02
6.200000e-07	-3.184565e-06	-1.252355e-08	-2.164549e+01	-8.219688e+02
6.300000e-07	-3.036074e-06	-1.234052e-08	-2.063620e+01	-8.091316e+02
6.400000e-07	-2.886597e-06	-1.215070e-08	-1.962020e+01	-7.958875e+02
6.500000e-07	-2.736161e-06	-1.195738e-08	-1.859769e+01	-7.825604e+02
6.600000e-07	-2.584742e-06	-1.175667e-08	-1.756850e+01	-7.692944e+02
6.700000e-07	-2.432350e-06	-1.154018e-08	-1.653269e+01	-7.559623e+02
6.800000e-07	-2.279055e-06	-1.130604e-08	-1.549074e+01	-7.421913e+02
6.900000e-07	-2.124933e-06	-1.106636e-08	-1.444317e+01	-7.275034e+02
7.000000e-07	-1.970019e-06	-1.082008e-08	-1.339022e+01	-7.115131e+02
7.100000e-07	-1.814416e-06	-1.056663e-08	-1.233259e+01	-6.940955e+02
7.200000e-07	-1.658199e-06	-1.029959e-08	-1.127078e+01	-6.754451e+02
7.300000e-07	-1.501432e-06	-1.002450e-08	-1.020524e+01	-6.559867e+02
7.400000e-07	-1.344105e-06	-9.736842e-09	-9.135886e+00	-6.361674e+02
7.500000e-07	-1.186203e-06	-9.428538e-09	-8.062621e+00	-6.162124e+02
7.600000e-07	-1.027837e-06	-9.095549e-09	-6.986209e+00	-5.959543e+02
7.700000e-07	-8.691297e-07	-8.740715e-09	-5.907476e+00	-5.748226e+02
7.800000e-07	-7.101692e-07	-8.372963e-09	-4.827021e+00	-5.520169e+02
7.900000e-07	-5.509597e-07	-7.986656e-09	-3.744874e+00	-5.268045e+02
8.000000e-07	-3.915476e-07	-7.578189e-09	-2.661350e+00	-4.988215e+02
8.100000e-07	-2.320445e-07	-7.140806e-09	-1.577207e+00	-4.682333e+02
8.200000e-07	-7.245520e-08	-6.674576e-09	-4.924781e-01	-4.356556e+02
8.300000e-07	8.722459e-08	-6.174645e-09	5.928657e-01	-4.018242e+02
8.400000e-07	2.468587e-07	-5.635130e-09	1.677899e+00	-3.671109e+02
8.500000e-07	4.063674e-07	-5.047980e-09	2.762080e+00	-3.310646e+02
8.600000e-07	5.657206e-07	-4.402603e-09	3.845204e+00	-2.921772e+02
8.700000e-07	7.248528e-07	-3.692210e-09	4.926826e+00	-2.480179e+02
8.800000e-07	8.837289e-07	-2.898151e-09	6.006707e+00	-1.957639e+02
8.900000e-07	1.042338e-06	-1.990556e-09	7.084774e+00	-1.330076e+02
9.000000e-07	1.200656e-06	-9.235885e-10	8.160860e+00	-5.861263e+01
9.100000e-07	1.358528e-06	3.426181e-10	9.233916e+00	2.665870e+01
9.200000e-07	1.515825e-06	1.804655e-09	1.030307e+01	1.199693e+02
9.300000e-07	1.672474e-06	3.370205e-09	1.136781e+01	2.167787e+02
9.400000e-07	1.828502e-06	4.885745e-09	1.242833e+01	3.116868e+02
9.500000e-07	1.983987e-06	6.220191e-09	1.348516e+01	3.995260e+02
9.600000e-07	2.138815e-06	7.323192e-09	1.453753e+01	4.763962e+02
9.700000e-07	2.292804e-06	8.219405e-09	1.558419e+01	5.403540e+02
9.800000e-07	2.445943e-06	8.956141e-09	1.662508e+01	5.915791e+02
9.900000e-07	2.598196e-06	9.576085e-09	1.765994e+01	6.320034e+02
1.000000e-06	2.749433e-06	1.010286e-08	1.868790e+01	6.645525e+02
1.010000e-06	2.899717e-06	1.055657e-08	1.970938e+01	6.922542e+02
1.020000e-06	3.048986e-06	1.095933e-08	2.072396e+01	7.174875e+02
1.030000e-06	3.197087e-06	1.132880e-08	2.173060e+01	7.415729e+02
1.040000e-06	3.344042e-06	1.166835e-08	2.272946e+01	7.647733e+02
1.050000e-06	3.489835e-06	1.197225e-08	2.372041e+01	7.866325e+02
1.060000e-06	3.634373e-06	1.224661e-08	2.470284e+01	8.064758e+02
1.070000e-06	3.777560e-06	1.250176e-08	2.567608e+01	8.238692e+02
1.080000e-06	3.919305e-06	1.274030e-08	2.663952e+01	8.388760e+02
1.090000e-06	4.059516e-06	1.295834e-08	2.759254e+01	8.520487e+02
1.100000e-06	4.198217e-06	1.315945e-08	2.853528e+01	8.642020e+02
1.110000e-06	4.335362e-06	1.335070e-08	2.946746e+01	8.760917e+02
1.120000e-06	4.470876e-06	1.353605e-08	3.038855e+01	8.881440e+02
1.130000e-06	4.604790e-06	1.371246e-08	3.129877e+01	9.003440e+02
1.140000e-06	4.737075e-06	1.387752e-08	3.219791e+01	9.123134e+02
1.150000e-06	4.867670e-06	1.403585e-08	3.308556e+01	9.235303e+02
1.160000e-06	4.996499e-06	1.418753e-08	3.396121e+01	9.335854e+02
1.170000e-06	5.123549e-06	1.432892e-08	3.482477e+01	9.423656e+02
1.180000e-06	5.248873e-06	1.445769e-08	3.567659e+01	9.500952e+02
1.190000e-06	5.372367e-06	1.457795e-08	3.651599e+01	9.572289e+02
1.200000e-06	5.493918e-06	1.469464e-08	3.734217e+01	9.642529e+02
1.210000e-06	5.613425e-06	1.480911e-08	3.815446e+01	9.714859e+02
1.220000e-06	5.730815e-06	1.491935e-08	3.895236e+01	9.789653e+02
1.230000e-06	5.845998e-06	1.502357e-08	3.973526e+01	9.864601e+02
1.240000e-06	5.958896e-06	1.512105e-08	4.050262e+01	9.935989e+02
1.250000e-06	6.069653e-06	1.521273e-08	4.125544e+01	1.000050e+03
1.260000e-06	6.178344e-06	1.529922e-08	4.199422e+01	1.005672e+03
1.270000e-06	6.284891e-06	1.538030e-08	4.271841e+01	1.010577e+03
1.280000e-06	6.389142e-06	1.545989e-08	4.342701e+01	1.015075e+03
1.290000e-06	6.491095e-06	1.553842e-08	4.411998e+01	1.019538e+03
1.300000e-06	6.590731e-06	1.561425e-08	4.479721e+01	1.024238e+03
1.310000e-06	6.687883e-06	1.568523e-08	4.545755e+01	1.029241e+03
1.320000e-06	6.782627e-06	1.575135e-08	4.610153e+01	1.034381e+03
1.330000e-06	6.875071e-06	1.581525e-08	4.672987e+01	1.039352e+03
1.340000e-06	6.965095e-06	1.587724e-08	4.734176e+01	1.043839e+03
1.350000e-06	7.052601e-06	1.593658e-08	4.793654e+01	1.047660e+03
1.360000e-06	7.137659e-06	1.599403e-08	4.851468e+01	1.050841e+03
1.370000e-06	7.220224e-06	1.605095e-08	4.907587e+01	1.053598e+03
1.380000e-06	7.300214e-06	1.610478e-08	4.961956e+01	1.056240e+03
1.390000e-06	7.377541e-06	1.615474e-08	5.014516e+01	1.059037e+03
1.400000e-06	7.452026e-06	1.620016e-08	5.065143e+01	1.062104e+03
1.410000e-06	7.523753e-06	1.624114e-08	5.113896e+01	1.065365e+03
1.420000e-06	7.592878e-06	1.628036e-08	5.160881e+01	1.068594e+03
1.430000e-06	7.659295e-06	1.632011e-08	5.206024e+01	1.071519e+03
1.440000e-06	7.723017e-06	1.635934e-08	5.249336e+01	1.073945e+03
1.450000e-06	7.784116e-06	1.639599e-08	5.290865e+01	1.075839e+03
1.460000e-06	7.842403e-06	1.643089e-08	5.330482e+01	1.077336e+03
1.470000e-06	7.897898e-06	1.646275e-08	5.368203e+01	1.078678e+03
1.480000e-06	7.950424e-06	1.648985e-08	5.403905e+01	1.080105e+03
1.490000e-06	7.999674e-06	1.651098e-08	5.437380e+01	1.081753e+03
1.500000e-06	8.045953e-06	1.652936e-08	5.468836e+01	1.083598e+03
1.510000e-06	8.089422e-06	1.654767e-08	5.498382e+01	1.085473e+03
1.520000e-06	8.129981e-06	1.656703e-08	5.525949e+01	1.087149e+03
1.530000e-06	8.167764e-06	1.658788e-08	5.551631e+01	1.088438e+03
1.540000e-06	8.202712e-06	1.660821e-08	5.575385e+01	1.089274e+03
1.550000e-06	8.234726e-06	1.662677e-08	5.597144e+01	1.089743e+03
1.560000e-06	8.263925e-06	1.664208e-08	5.616991e+01	1.090037e+03
1.570000e-06	8.290164e-06	1.665276e-08	5.634826e+01	1.090372e+03
1.580000e-06	8.313370e-06	1.665997e-08	5.650599e+01	1.090890e+03
1.590000e-06	8.333779e-06	1.666557e-08	5.664471e+01	1.091599e+03
1.600000e-06	8.351299e-06	1.666889e-08	5.676379e+01	1.092379e+03
1.610000e-06	8.365709e-06	1.667105e-08	5.686174e+01	1.093035e+03
1.620000e-06	8.376872e-06	1.667543e-08	5.693761e+01	1.093391e+03
1.630000e-06	8.384863e-06	1.668194e-08	5.699193e+01	1.093368e+03
1.640000e-06	8.389968e-06	1.668803e-08	5.702663e+01	1.093020e+03
1.650000e-06	8.392156e-06	1.669012e-08	5.704150e+01	1.092505e+03
1.660000e-06	8.391464e-06	1.668938e-08	5.703679e+01	1.092014e+03
1.670000e-06	8.387975e-06	1.667363e-08	5.701308e+01	1.091681e+03
1.680000e-06	8.381617e-06	1.666711e-08	5.696987e+01	1.091526e+03
1.690000e-06	8.372465e-06	1.666166e-08	5.690766e+01	1.091441e+03
1.700000e-06	8.360434e-06	1.664753e-08	5.682589e+01	1.091243e+03
1.710000e-06	8.345501e-06	1.663681e-08	5.672438e+01	1.090758e+03
1.720000e-06	8.328023e-06	1.663901e-08	5.660559e+01	1.089900e+03
1.730000e-06	8.308084e-06	1.665723e-08	5.647006e+01	1.088714e+03
1.740000e-06	8.285174e-06	1.654224e-08	5.631434e+01	1.087357e+03
1.750000e-06	8.258624e-06	1.649591e-08	5.613388e+01	1.086034e+03
1.760000e-06	8.228174e-06	1.655336e-08	5.592691e+01	1.084906e+03
1.770000e-06	8.194484e-06	1.653277e-08	5.569792e+01	1.084022e+03
1.780000e-06	8.158316e-06	1.648499e-08	5.545208e+01	1.083294e+03
1.790000e-06	8.119807e-06	1.658496e-08	5.519034e+01	1.082537e+03
1.800000e-06	8.079273e-06	1.657015e-08	5.491483e+01	1.081547e+03
1.810000e-06	8.036501e-06	1.639111e-08	5.462411e+01	1.080186e+03
1.820000e-06	7.990777e-06	1.654637e-08	5.431332e+01	1.078434e+03
1.830000e-06	7.942178e-06	1.641337e-08	5.398300e+01	1.076396e+03
1.840000e-06	7.890401e-06	1.640029e-08	5.363107e+01	1.074240e+03
1.850000e-06	7.835364e-06	1.643615e-08	5.325698e+01	1.072121e+03
1.860000e-06	7.777620e-06	1.628333e-08	5.286449e+01	1.070105e+03
1.870000e-06	7.717065e-06	1.640957e-08	5.245290e+01	1.068137e+03
1.880000e-06	7.653759e-06	1.623272e-08	5.202261e+01	1.066070e+03
1.890000e-06	7.587591e-06	1.624473e-08	5.157287e+01	1.063730e+03
1.900000e-06	7.518509e-06	1.619901e-08	5.110332e+01	1.061005e+03
1.910000e-06	7.446602e-06	1.609752e-08	5.061457e+01	1.057899e+03
1.920000e-06	7.371784e-06	1.615830e-08	5.010603e+01	1.054536e+03
1.930000e-06	7.294255e-06	1.601299e-08	4.957906e+01	1.051110e+03
1.940000e-06	7.214077e-06	1.606442e-08	4.903409e+01	1.047794e+03
1.950000e-06	7.131352e-06	1.593399e-08	4.847181e+01	1.044665e+03
1.960000e-06	7.046003e-06	1.589809e-08	4.789169e+01	1.041656e+03
1.970000e-06	6.958046e-06	1.586894e-08	4.729385e+01	1.038585e+03
1.980000e-06	6.867739e-06	1.574751e-08	4.668003e+01	1.035227e+03
1.990000e-06	6.774967e-06	1.577162e-08	4.604946e+01	1.031410e+03
2.000000e-06	6.679781e-06	1.565288e-08	4.540248e+01	1.027093e+03
2.010000e-06	6.582246e-06	1.564297e-08	4.473954e+01	1.022385e+03
2.020000e-06	6.482352e-06	1.552712e-08	4.406056e+01	1.017497e+03
2.030000e-06	6.380056e-06	1.546620e-08	4.336525e+01	1.012647e+03
2.040000e-06	6.275423e-06	1.538283e-08	4.265406e+01	1.007965e+03
2.050000e-06	6.168606e-06	1.529744e-08	4.192803e+01	1.003427e+03
2.060000e-06	6.059633e-06	1.524934e-08	4.118733e+01	9.988612e+02
2.070000e-06	5.948468e-06	1.515069e-08	4.043175e+01	9.940188e+02
2.080000e-06	5.835008e-06	1.509652e-08	3.966056e+01	9.886818e+02
2.090000e-06	5.719249e-06	1.498458e-08	3.887374e+01	9.827584e+02
2.100000e-06	5.601204e-06	1.489478e-08	3.807139e+01	9.763252e+02
2.110000e-06	5.481077e-06	1.478182e-08	3.725489e+01	9.695935e+02
2.120000e-06	5.358992e-06	1.469332e-08	3.642507e+01	9.628145e+02
2.130000e-06	5.235022e-06	1.458805e-08	3.558245e+01	9.561639e+02
2.140000e-06	5.109206e-06	1.449180e-08	3.472728e+01	9.496557e+02
2.150000e-06	4.981562e-06	1.438502e-08	3.385969e+01	9.431270e+02
2.160000e-06	4.852130e-06	1.427638e-08	3.297993e+01	9.363020e+02
2.170000e-06	4.720970e-06	1.415829e-08	3.208844e+01	9.289085e+02
2.180000e-06	4.588132e-06	1.403053e-08	3.118554e+01	9.207966e+02
2.190000e-06	4.453664e-06	1.390495e-08	3.027156e+01	9.120065e+02
2.200000e-06	4.317578e-06	1.377031e-08	2.934659e+01	9.027522e+02
2.210000e-06	4.179784e-06	1.364321e-08	2.841000e+01	8.933250e+02
2.220000e-06	4.040378e-06	1.349514e-08	2.746246e+01	8.839584e+02
2.230000e-06	3.899461e-06	1.334926e-08	2.650465e+01	8.747125e+02
2.240000e-06	3.757199e-06	1.319231e-08	2.553769e+01	8.654330e+02
2.250000e-06	3.613641e-06	1.304116e-08	2.456192e+01	8.558045e+02
2.260000e-06	3.468725e-06	1.288257e-08	2.357693e+01	8.454798e+02
2.270000e-06	3.322512e-06	1.271359e-08	2.258312e+01	8.342300e+02
2.280000e-06	3.175126e-06	1.253476e-08	2.158133e+01	8.220464e+02
2.290000e-06	3.026586e-06	1.234826e-08	2.057171e+01	8.091475e+02
2.300000e-06	2.876917e-06	1.215647e-08	1.955441e+01	7.958803e+02
2.310000e-06	2.726304e-06	1.195269e-08	1.853069e+01	7.825566e+02
2.320000e-06	2.574850e-06	1.174304e-08	1.750126e+01	7.692940e+02
2.330000e-06	2.422437e-06	1.152809e-08	1.646531e+01	7.559354e+02
2.340000e-06	2.269060e-06	1.130966e-08	1.542281e+01	7.420884e+02
2.350000e-06	2.114878e-06	1.107879e-08	1.437483e+01	7.272753e+02
2.360000e-06	1.959927e-06	1.083257e-08	1.332162e+01	7.111317e+02
2.370000e-06	1.804233e-06	1.057312e-08	1.226338e+01	6.935667e+02
2.380000e-06	1.647872e-06	1.030024e-08	1.120059e+01	6.748063e+02
2.390000e-06	1.490916e-06	1.001511e-08	1.013376e+01	6.552892e+02
2.400000e-06	1.333405e-06	9.717350e-09	9.063155e+00	6.354498e+02
2.410000e-06	1.175361e-06	9.408250e-09	7.988933e+00	6.154774e+02
2.420000e-06	1.016898e-06	9.084323e-09	6.911857e+00	5.951584e+02
2.430000e-06	8.581442e-07	8.743168e-09	5.832807e+00	5.738865e+02
2.440000e-06	6.991694e-07	8.378856e-09	4.752256e+00	5.508531e+02
2.450000e-06	5.399568e-07	7.989647e-09	3.670087e+00	5.253518e+02
2.460000e-06	3.805351e-07	7.574783e-09	2.586498e+00	4.970716e+02
2.470000e-06	2.210430e-07	7.131362e-09	1.502430e+00	4.662345e+02
2.480000e-06	6.146971e-08	6.655543e-09	4.178097e-01	4.334887e+02
2.490000e-06	-9.813101e-08	6.145211e-09	-6.669966e-01	3.995555e+02
2.500000e-06	-2.576049e-07	5.602743e-09	-1.750941e+00	3.647381e+02
2.510000e-06	-4.169333e-07	5.019841e-09	-2.833897e+00	3.284778e+02
2.520000e-06	-5.761264e-07	4.380677e-09	-3.915932e+00	2.891537e+02
2.530000e-06	-7.351718e-07	3.670878e-09	-4.996964e+00	2.442616e+02
2.540000e-06	-8.939993e-07	2.875499e-09	-6.076515e+00	1.909812e+02
2.550000e-06	-1.052516e-06	1.964511e-09	-7.153951e+00	1.270020e+02
2.560000e-06	-1.210718e-06	8.921041e-10	-8.229253e+00	5.136755e+01
2.570000e-06	-1.368517e-06	-3.839916e-10	-9.301812e+00	-3.493659e+01
2.580000e-06	-1.525727e-06	-1.855753e-09	-1.037037e+01	-1.288635e+02
2.590000e-06	-1.682262e-06	-3.427994e-09	-1.143433e+01	-2.257335e+02
2.600000e-06	-1.838140e-06	-4.943461e-09	-1.249384e+01	-3.201175e+02
2.610000e-06	-1.993356e-06	-6.272934e-09	-1.354884e+01	-4.069383e+02
2.620000e-06	-2.147836e-06	-7.372516e-09	-1.459884e+01	-4.824806e+02
2.630000e-06	-2.301517e-06	-8.265232e-09	-1.564342e+01	-5.450304e+02
2.640000e-06	-2.454343e-06	-9.000755e-09	-1.668217e+01	-5.949817e+02
2.650000e-06	-2.606236e-06	-9.622534e-09	-1.771459e+01	-6.344138e+02
2.660000e-06	-2.757188e-06	-1.015894e-08	-1.874061e+01	-6.663055e+02
2.670000e-06	-2.907195e-06	-1.062455e-08	-1.976021e+01	-6.936463e+02
2.680000e-06	-3.056146e-06	-1.103309e-08	-2.077263e+01	-7.187142e+02
2.690000e-06	-3.204013e-06	-1.139983e-08	-2.177768e+01	-7.427093e+02
2.700000e-06	-3.350761e-06	-1.173245e-08	-2.277513e+01	-7.657967e+02
2.710000e-06	-3.496287e-06	-1.203450e-08	-2.376427e+01	-7.874719e+02
2.720000e-06	-3.640542e-06	-1.230855e-08	-2.474477e+01	-8.070666e+02
2.730000e-06	-3.783526e-06	-1.256103e-08	-2.571663e+01	-8.241924e+02
2.740000e-06	-3.925119e-06	-1.279831e-08	-2.667904e+01	-8.389698e+02
2.750000e-06	-4.065171e-06	-1.302170e-08	-2.763098e+01	-8.519932e+02
2.760000e-06	-4.203646e-06	-1.323065e-08	-2.857219e+01	-8.640868e+02
2.770000e-06	-4.340508e-06	-1.342501e-08	-2.950244e+01	-8.759817e+02
2.780000e-06	-4.475783e-06	-1.360791e-08	-3.042190e+01	-8.880590e+02
2.790000e-06	-4.609473e-06	-1.378134e-08	-3.133059e+01	-9.002576e+02
2.800000e-06	-4.741526e-06	-1.394609e-08	-3.222816e+01	-9.121721e+02
2.810000e-06	-4.871891e-06	-1.410004e-08	-3.311425e+01	-9.232808e+02
2.820000e-06	-5.000557e-06	-1.424106e-08	-3.398879e+01	-9.331991e+02
2.830000e-06	-5.127494e-06	-1.437478e-08	-3.485158e+01	-9.418512e+02
2.840000e-06	-5.252619e-06	-1.450446e-08	-3.570206e+01	-9.494935e+02
2.850000e-06	-5.375829e-06	-1.462810e-08	-3.653952e+01	-9.565944e+02
2.860000e-06	-5.497127e-06	-1.474428e-08	-3.736398e+01	-9.636306e+02
2.870000e-06	-5.616454e-06	-1.485472e-08	-3.817505e+01	-9.708942e+02
2.880000e-06	-5.733580e-06	-1.496175e-08	-3.897115e+01	-9.783908e+02
2.890000e-06	-5.848390e-06	-1.506448e-08	-3.975151e+01	-9.858668e+02
2.900000e-06	-5.960848e-06	-1.515989e-08	-4.051590e+01	-9.929461e+02
2.910000e-06	-6.070971e-06	-1.524741e-08	-4.126440e+01	-9.993110e+02
2.920000e-06	-6.178958e-06	-1.533238e-08	-4.199839e+01	-1.004847e+03
2.930000e-06	-6.284928e-06	-1.541823e-08	-4.271866e+01	-1.009692e+03
2.940000e-06	-6.388707e-06	-1.550182e-08	-4.342405e+01	-1.014170e+03
