# Temperatura_=_61.67
# Concentracion g/m^3_=_13400.0
# C_Vs_to_Am_M_A/Vsm_=_65563218390.804596
# pendiente_HvsI_1/m_=_3716.3
# ordenada_HvsI_A/m_=_1297.0
# frecuencia_Hz_=_301415.79823813064

Tiempo_(s)	Campo_(V.s)	Magnetizacion_(V.s)	Campo_(kA/m)	Magnetizacion_(A/m)
0.000000e+00	-8.352004e-06	-1.736855e-08	-5.691922e+01	-1.138889e+03
1.000000e-08	-8.348571e-06	-1.737095e-08	-5.689583e+01	-1.138687e+03
2.000000e-08	-8.342425e-06	-1.736322e-08	-5.685394e+01	-1.138684e+03
3.000000e-08	-8.333613e-06	-1.735231e-08	-5.679389e+01	-1.138680e+03
4.000000e-08	-8.321928e-06	-1.734208e-08	-5.671426e+01	-1.138427e+03
5.000000e-08	-8.307208e-06	-1.732972e-08	-5.661394e+01	-1.137736e+03
6.000000e-08	-8.289534e-06	-1.731249e-08	-5.649349e+01	-1.136563e+03
7.000000e-08	-8.269300e-06	-1.728598e-08	-5.635560e+01	-1.135027e+03
8.000000e-08	-8.246492e-06	-1.728930e-08	-5.620016e+01	-1.133358e+03
9.000000e-08	-8.220525e-06	-1.735256e-08	-5.602320e+01	-1.131803e+03
1.000000e-07	-8.191155e-06	-1.732221e-08	-5.582303e+01	-1.130522e+03
1.100000e-07	-8.158635e-06	-1.724470e-08	-5.560141e+01	-1.129523e+03
1.200000e-07	-8.123183e-06	-1.722121e-08	-5.535981e+01	-1.128663e+03
1.300000e-07	-8.085119e-06	-1.720104e-08	-5.510040e+01	-1.127718e+03
1.400000e-07	-8.044767e-06	-1.711163e-08	-5.482539e+01	-1.126477e+03
1.500000e-07	-8.001922e-06	-1.704397e-08	-5.453341e+01	-1.124831e+03
1.600000e-07	-7.956256e-06	-1.715257e-08	-5.422219e+01	-1.122806e+03
1.700000e-07	-7.907742e-06	-1.705376e-08	-5.389156e+01	-1.120543e+03
1.800000e-07	-7.856179e-06	-1.704424e-08	-5.354016e+01	-1.118212e+03
1.900000e-07	-7.801531e-06	-1.707627e-08	-5.316773e+01	-1.115929e+03
2.000000e-07	-7.744124e-06	-1.692504e-08	-5.277650e+01	-1.113693e+03
2.100000e-07	-7.683964e-06	-1.690136e-08	-5.236651e+01	-1.111382e+03
2.200000e-07	-7.621078e-06	-1.682470e-08	-5.193794e+01	-1.108813e+03
2.300000e-07	-7.555434e-06	-1.681847e-08	-5.149057e+01	-1.105828e+03
2.400000e-07	-7.486932e-06	-1.678701e-08	-5.102373e+01	-1.102381e+03
2.500000e-07	-7.415649e-06	-1.673621e-08	-5.053793e+01	-1.098565e+03
2.600000e-07	-7.341551e-06	-1.672440e-08	-5.003295e+01	-1.094582e+03
2.700000e-07	-7.264645e-06	-1.664016e-08	-4.950883e+01	-1.090658e+03
2.800000e-07	-7.184843e-06	-1.657775e-08	-4.896498e+01	-1.086941e+03
2.900000e-07	-7.102298e-06	-1.647124e-08	-4.840243e+01	-1.083430e+03
3.000000e-07	-7.017404e-06	-1.642555e-08	-4.782387e+01	-1.079967e+03
3.100000e-07	-6.930191e-06	-1.639266e-08	-4.722952e+01	-1.076301e+03
3.200000e-07	-6.840463e-06	-1.632922e-08	-4.661802e+01	-1.072192e+03
3.300000e-07	-6.748218e-06	-1.628812e-08	-4.598936e+01	-1.067516e+03
3.400000e-07	-6.653690e-06	-1.619216e-08	-4.534515e+01	-1.062324e+03
3.500000e-07	-6.556816e-06	-1.612130e-08	-4.468495e+01	-1.056818e+03
3.600000e-07	-6.457469e-06	-1.603324e-08	-4.400790e+01	-1.051269e+03
3.700000e-07	-6.355753e-06	-1.594369e-08	-4.331470e+01	-1.045890e+03
3.800000e-07	-6.251731e-06	-1.585609e-08	-4.260579e+01	-1.040744e+03
3.900000e-07	-6.145418e-06	-1.578161e-08	-4.188126e+01	-1.035707e+03
4.000000e-07	-6.036913e-06	-1.571779e-08	-4.114179e+01	-1.030517e+03
4.100000e-07	-5.926313e-06	-1.561868e-08	-4.038805e+01	-1.024885e+03
4.200000e-07	-5.813479e-06	-1.552422e-08	-3.961908e+01	-1.018621e+03
4.300000e-07	-5.698299e-06	-1.541516e-08	-3.883412e+01	-1.011714e+03
4.400000e-07	-5.580892e-06	-1.531694e-08	-3.803399e+01	-1.004346e+03
4.500000e-07	-5.461451e-06	-1.521258e-08	-3.722000e+01	-9.968019e+02
4.600000e-07	-5.340033e-06	-1.510519e-08	-3.639253e+01	-9.893493e+02
4.700000e-07	-5.216704e-06	-1.498974e-08	-3.555204e+01	-9.821101e+02
4.800000e-07	-5.091527e-06	-1.487241e-08	-3.469895e+01	-9.750000e+02
4.900000e-07	-4.964561e-06	-1.475731e-08	-3.383368e+01	-9.677575e+02
5.000000e-07	-4.835746e-06	-1.462740e-08	-3.295579e+01	-9.600535e+02
5.100000e-07	-4.705130e-06	-1.449229e-08	-3.206564e+01	-9.516347e+02
5.200000e-07	-4.572873e-06	-1.435416e-08	-3.116430e+01	-9.424368e+02
5.300000e-07	-4.438969e-06	-1.422190e-08	-3.025174e+01	-9.326160e+02
5.400000e-07	-4.303528e-06	-1.408355e-08	-2.932871e+01	-9.224801e+02
5.500000e-07	-4.166414e-06	-1.393501e-08	-2.839427e+01	-9.123490e+02
5.600000e-07	-4.027631e-06	-1.377796e-08	-2.744846e+01	-9.024023e+02
5.700000e-07	-3.887411e-06	-1.361849e-08	-2.649286e+01	-8.925857e+02
5.800000e-07	-3.745611e-06	-1.345445e-08	-2.552648e+01	-8.826183e+02
5.900000e-07	-3.602278e-06	-1.328020e-08	-2.454966e+01	-8.721047e+02
6.000000e-07	-3.457637e-06	-1.310152e-08	-2.356393e+01	-8.607043e+02
6.100000e-07	-3.311782e-06	-1.292044e-08	-2.256992e+01	-8.482831e+02
6.200000e-07	-3.164744e-06	-1.273650e-08	-2.156785e+01	-8.349794e+02
6.300000e-07	-3.016564e-06	-1.253857e-08	-2.055800e+01	-8.211461e+02
6.400000e-07	-2.867424e-06	-1.232822e-08	-1.954160e+01	-8.071913e+02
6.500000e-07	-2.717314e-06	-1.211396e-08	-1.851860e+01	-7.933811e+02
6.600000e-07	-2.566247e-06	-1.189459e-08	-1.748907e+01	-7.796952e+02
6.700000e-07	-2.414249e-06	-1.166560e-08	-1.645320e+01	-7.658029e+02
6.800000e-07	-2.261259e-06	-1.142465e-08	-1.541056e+01	-7.511793e+02
6.900000e-07	-2.107452e-06	-1.117784e-08	-1.436237e+01	-7.353190e+02
7.000000e-07	-1.952961e-06	-1.092340e-08	-1.330950e+01	-7.179554e+02
7.100000e-07	-1.797777e-06	-1.065811e-08	-1.225192e+01	-6.991854e+02
7.200000e-07	-1.641971e-06	-1.037563e-08	-1.119009e+01	-6.794331e+02
7.300000e-07	-1.485596e-06	-1.007860e-08	-1.012439e+01	-6.592548e+02
7.400000e-07	-1.328639e-06	-9.770155e-09	-9.054726e+00	-6.390588e+02
7.500000e-07	-1.171133e-06	-9.447729e-09	-7.981318e+00	-6.188605e+02
7.600000e-07	-1.013180e-06	-9.106795e-09	-6.904861e+00	-5.981894e+02
7.700000e-07	-8.548874e-07	-8.744711e-09	-5.826090e+00	-5.762068e+02
7.800000e-07	-6.963085e-07	-8.367341e-09	-4.745369e+00	-5.520047e+02
7.900000e-07	-5.374907e-07	-7.967647e-09	-3.663019e+00	-5.249696e+02
8.000000e-07	-3.784627e-07	-7.536831e-09	-2.579238e+00	-4.950493e+02
8.100000e-07	-2.193343e-07	-7.072736e-09	-1.494772e+00	-4.627821e+02
8.200000e-07	-6.018230e-08	-6.580341e-09	-4.101447e-01	-4.290284e+02
8.300000e-07	9.899565e-08	-6.054280e-09	6.746592e-01	-3.944706e+02
8.400000e-07	2.581566e-07	-5.484771e-09	1.759347e+00	-3.590502e+02
8.500000e-07	4.172212e-07	-4.861823e-09	2.843379e+00	-3.215740e+02
8.600000e-07	5.761073e-07	-4.173932e-09	3.926194e+00	-2.796849e+02
8.700000e-07	7.347685e-07	-3.406629e-09	5.007475e+00	-2.302880e+02
8.800000e-07	8.932004e-07	-2.527573e-09	6.087195e+00	-1.703612e+02
8.900000e-07	1.051431e-06	-1.494379e-09	7.165543e+00	-9.793410e+01
9.000000e-07	1.209319e-06	-2.580813e-10	8.241557e+00	-1.293054e+01
9.100000e-07	1.366646e-06	1.204180e-09	9.313742e+00	8.241279e+01
9.200000e-07	1.523415e-06	2.838729e-09	1.038213e+01	1.837235e+02
9.300000e-07	1.679634e-06	4.490358e-09	1.144677e+01	2.852582e+02
9.400000e-07	1.835183e-06	5.981558e-09	1.250684e+01	3.810592e+02
9.500000e-07	1.990098e-06	7.215697e-09	1.356259e+01	4.661819e+02
9.600000e-07	2.144430e-06	8.200873e-09	1.461438e+01	5.376466e+02
9.700000e-07	2.298013e-06	8.999193e-09	1.566105e+01	5.948560e+02
9.800000e-07	2.450682e-06	9.665513e-09	1.670149e+01	6.393910e+02
9.900000e-07	2.602425e-06	1.023356e-08	1.773563e+01	6.742863e+02
1.000000e-06	2.753218e-06	1.071899e-08	1.876329e+01	7.030418e+02
1.010000e-06	2.902999e-06	1.114201e-08	1.978405e+01	7.286823e+02
1.020000e-06	3.051713e-06	1.152397e-08	2.079754e+01	7.531339e+02
1.030000e-06	3.199318e-06	1.187361e-08	2.180348e+01	7.770573e+02
1.040000e-06	3.345832e-06	1.219011e-08	2.280197e+01	8.001111e+02
1.050000e-06	3.491165e-06	1.247619e-08	2.379242e+01	8.214842e+02
1.060000e-06	3.635222e-06	1.274420e-08	2.477417e+01	8.404651e+02
1.070000e-06	3.777936e-06	1.299867e-08	2.574678e+01	8.568394e+02
1.080000e-06	3.919193e-06	1.323898e-08	2.670945e+01	8.709976e+02
1.090000e-06	4.058933e-06	1.345914e-08	2.766178e+01	8.837611e+02
1.100000e-06	4.197163e-06	1.366304e-08	2.860383e+01	8.960381e+02
1.110000e-06	4.333863e-06	1.385763e-08	2.953544e+01	9.084756e+02
1.120000e-06	4.468971e-06	1.404270e-08	3.045621e+01	9.212503e+02
1.130000e-06	4.602446e-06	1.421659e-08	3.136584e+01	9.340736e+02
1.140000e-06	4.734239e-06	1.438012e-08	3.226402e+01	9.463857e+02
1.150000e-06	4.864369e-06	1.454187e-08	3.315086e+01	9.576414e+02
1.160000e-06	4.992789e-06	1.470118e-08	3.402605e+01	9.675609e+02
1.170000e-06	5.119458e-06	1.485044e-08	3.488930e+01	9.762434e+02
1.180000e-06	5.244291e-06	1.498570e-08	3.574004e+01	9.841075e+02
1.190000e-06	5.367267e-06	1.511273e-08	3.657813e+01	9.916994e+02
1.200000e-06	5.488371e-06	1.523808e-08	3.740346e+01	9.994589e+02
1.210000e-06	5.607388e-06	1.535977e-08	3.821457e+01	1.007547e+03
1.220000e-06	5.724238e-06	1.547454e-08	3.901090e+01	1.015807e+03
1.230000e-06	5.838919e-06	1.558284e-08	3.979246e+01	1.023858e+03
1.240000e-06	5.951378e-06	1.568678e-08	4.055887e+01	1.031291e+03
1.250000e-06	6.061701e-06	1.578651e-08	4.131073e+01	1.037851e+03
1.260000e-06	6.169955e-06	1.588053e-08	4.204848e+01	1.043555e+03
1.270000e-06	6.275986e-06	1.597138e-08	4.277109e+01	1.048674e+03
1.280000e-06	6.379754e-06	1.605969e-08	4.347827e+01	1.053612e+03
1.290000e-06	6.481229e-06	1.614201e-08	4.416983e+01	1.058727e+03
1.300000e-06	6.580325e-06	1.621889e-08	4.484516e+01	1.064186e+03
1.310000e-06	6.676989e-06	1.629392e-08	4.550393e+01	1.069899e+03
1.320000e-06	6.771286e-06	1.636859e-08	4.614658e+01	1.075574e+03
1.330000e-06	6.863296e-06	1.644040e-08	4.677362e+01	1.080855e+03
1.340000e-06	6.952891e-06	1.650745e-08	4.738422e+01	1.085480e+03
1.350000e-06	7.040026e-06	1.657228e-08	4.797805e+01	1.089394e+03
1.360000e-06	7.124727e-06	1.663663e-08	4.855529e+01	1.092766e+03
1.370000e-06	7.206913e-06	1.669913e-08	4.911539e+01	1.095907e+03
1.380000e-06	7.286462e-06	1.675712e-08	4.965752e+01	1.099136e+03
1.390000e-06	7.363295e-06	1.681144e-08	5.018114e+01	1.102637e+03
1.400000e-06	7.437362e-06	1.686427e-08	5.068591e+01	1.106389e+03
1.410000e-06	7.508753e-06	1.691351e-08	5.117244e+01	1.110186e+03
1.420000e-06	7.577543e-06	1.695776e-08	5.164125e+01	1.113732e+03
1.430000e-06	7.643638e-06	1.700094e-08	5.209169e+01	1.116783e+03
1.440000e-06	7.707047e-06	1.704589e-08	5.252382e+01	1.119245e+03
1.450000e-06	7.767779e-06	1.708921e-08	5.293771e+01	1.121221e+03
1.460000e-06	7.825737e-06	1.712888e-08	5.333270e+01	1.122955e+03
1.470000e-06	7.880878e-06	1.716319e-08	5.370849e+01	1.124722e+03
1.480000e-06	7.932972e-06	1.719242e-08	5.406351e+01	1.126706e+03
1.490000e-06	7.981868e-06	1.721897e-08	5.439673e+01	1.128921e+03
1.500000e-06	8.027840e-06	1.724304e-08	5.471004e+01	1.131208e+03
1.510000e-06	8.071014e-06	1.726546e-08	5.500427e+01	1.133315e+03
1.520000e-06	8.111287e-06	1.728852e-08	5.527873e+01	1.135004e+03
1.530000e-06	8.148771e-06	1.731260e-08	5.553419e+01	1.136166e+03
1.540000e-06	8.183464e-06	1.733404e-08	5.577062e+01	1.136869e+03
1.550000e-06	8.215213e-06	1.735247e-08	5.598699e+01	1.137321e+03
1.560000e-06	8.244113e-06	1.736853e-08	5.618394e+01	1.137786e+03
1.570000e-06	8.270070e-06	1.738156e-08	5.636084e+01	1.138463e+03
1.580000e-06	8.293004e-06	1.739134e-08	5.651714e+01	1.139399e+03
1.590000e-06	8.313111e-06	1.739997e-08	5.665417e+01	1.140477e+03
1.600000e-06	8.330315e-06	1.740732e-08	5.677142e+01	1.141461e+03
1.610000e-06	8.344445e-06	1.741269e-08	5.686771e+01	1.142110e+03
1.620000e-06	8.355358e-06	1.741754e-08	5.694209e+01	1.142282e+03
1.630000e-06	8.363133e-06	1.742178e-08	5.699507e+01	1.141996e+03
1.640000e-06	8.368025e-06	1.742462e-08	5.702841e+01	1.141423e+03
1.650000e-06	8.369946e-06	1.742344e-08	5.704150e+01	1.140811e+03
1.660000e-06	8.368994e-06	1.741717e-08	5.703502e+01	1.140374e+03
1.670000e-06	8.365309e-06	1.740380e-08	5.700990e+01	1.140199e+03
1.680000e-06	8.358749e-06	1.740104e-08	5.696519e+01	1.140206e+03
1.690000e-06	8.349393e-06	1.739824e-08	5.690143e+01	1.140187e+03
1.700000e-06	8.337152e-06	1.738652e-08	5.681801e+01	1.139893e+03
1.710000e-06	8.322049e-06	1.737551e-08	5.671508e+01	1.139149e+03
1.720000e-06	8.304448e-06	1.737523e-08	5.659513e+01	1.137929e+03
1.730000e-06	8.284329e-06	1.737402e-08	5.645802e+01	1.136365e+03
1.740000e-06	8.261223e-06	1.726111e-08	5.630055e+01	1.134697e+03
1.750000e-06	8.234456e-06	1.721093e-08	5.611813e+01	1.133166e+03
1.760000e-06	8.203815e-06	1.724509e-08	5.590931e+01	1.131917e+03
1.770000e-06	8.170060e-06	1.722848e-08	5.567927e+01	1.130941e+03
1.780000e-06	8.133800e-06	1.720642e-08	5.543216e+01	1.130082e+03
1.790000e-06	8.095202e-06	1.729031e-08	5.516911e+01	1.129114e+03
1.800000e-06	8.054613e-06	1.725514e-08	5.489250e+01	1.127832e+03
1.810000e-06	8.011728e-06	1.711738e-08	5.460024e+01	1.126141e+03
1.820000e-06	7.965848e-06	1.721762e-08	5.428756e+01	1.124082e+03
1.830000e-06	7.917093e-06	1.710948e-08	5.395529e+01	1.121803e+03
1.840000e-06	7.865170e-06	1.710281e-08	5.360144e+01	1.119473e+03
1.850000e-06	7.810037e-06	1.709941e-08	5.322570e+01	1.117197e+03
1.860000e-06	7.752211e-06	1.701309e-08	5.283162e+01	1.114960e+03
1.870000e-06	7.691585e-06	1.709173e-08	5.241845e+01	1.112630e+03
1.880000e-06	7.628273e-06	1.692819e-08	5.198697e+01	1.110021e+03
1.890000e-06	7.562166e-06	1.691853e-08	5.153645e+01	1.106987e+03
1.900000e-06	7.493109e-06	1.682363e-08	5.106582e+01	1.103493e+03
1.910000e-06	7.421144e-06	1.672944e-08	5.057538e+01	1.099647e+03
1.920000e-06	7.346250e-06	1.675722e-08	5.006498e+01	1.095659e+03
1.930000e-06	7.268598e-06	1.665833e-08	4.953577e+01	1.091752e+03
1.940000e-06	7.188343e-06	1.669641e-08	4.898883e+01	1.088059e+03
1.950000e-06	7.105625e-06	1.657136e-08	4.842511e+01	1.084563e+03
1.960000e-06	7.020324e-06	1.651742e-08	4.784377e+01	1.081091e+03
1.970000e-06	6.932424e-06	1.643187e-08	4.724474e+01	1.077387e+03
1.980000e-06	6.842099e-06	1.631626e-08	4.662917e+01	1.073219e+03
1.990000e-06	6.749321e-06	1.630498e-08	4.599688e+01	1.068482e+03
2.000000e-06	6.654161e-06	1.620270e-08	4.534836e+01	1.063244e+03
2.010000e-06	6.556733e-06	1.618570e-08	4.468439e+01	1.057720e+03
2.020000e-06	6.457002e-06	1.607673e-08	4.400471e+01	1.052180e+03
2.030000e-06	6.354756e-06	1.600918e-08	4.330791e+01	1.046826e+03
2.040000e-06	6.250171e-06	1.589984e-08	4.259515e+01	1.041700e+03
2.050000e-06	6.143444e-06	1.580178e-08	4.186781e+01	1.036660e+03
2.060000e-06	6.034558e-06	1.572478e-08	4.112574e+01	1.031435e+03
2.070000e-06	5.923530e-06	1.562299e-08	4.036909e+01	1.025742e+03
2.080000e-06	5.810284e-06	1.555163e-08	3.959731e+01	1.019404e+03
2.090000e-06	5.694751e-06	1.544371e-08	3.880994e+01	1.012437e+03
2.100000e-06	5.576972e-06	1.534954e-08	3.800728e+01	1.005034e+03
2.110000e-06	5.457115e-06	1.522560e-08	3.719044e+01	9.974885e+02
2.120000e-06	5.335294e-06	1.511578e-08	3.636024e+01	9.900558e+02
2.130000e-06	5.211555e-06	1.499045e-08	3.551695e+01	9.828375e+02
2.140000e-06	5.085915e-06	1.488104e-08	3.466070e+01	9.757275e+02
2.150000e-06	4.958431e-06	1.476279e-08	3.379190e+01	9.684506e+02
2.160000e-06	4.829184e-06	1.464493e-08	3.291107e+01	9.606789e+02
2.170000e-06	4.698272e-06	1.451446e-08	3.201890e+01	9.521752e+02
2.180000e-06	4.565648e-06	1.437877e-08	3.111507e+01	9.428990e+02
2.190000e-06	4.431442e-06	1.423730e-08	3.020045e+01	9.330275e+02
2.200000e-06	4.295661e-06	1.408755e-08	2.927509e+01	9.228776e+02
2.210000e-06	4.158164e-06	1.393974e-08	2.833805e+01	9.127606e+02
2.220000e-06	4.019059e-06	1.378348e-08	2.739004e+01	9.028344e+02
2.230000e-06	3.878457e-06	1.363052e-08	2.643183e+01	8.930177e+02
2.240000e-06	3.736489e-06	1.346362e-08	2.546431e+01	8.830107e+02
2.250000e-06	3.593140e-06	1.329222e-08	2.448738e+01	8.724152e+02
2.260000e-06	3.448402e-06	1.310993e-08	2.350099e+01	8.609066e+02
2.270000e-06	3.302486e-06	1.292570e-08	2.250657e+01	8.483790e+02
2.280000e-06	3.155443e-06	1.273635e-08	2.150447e+01	8.349984e+02
2.290000e-06	3.007176e-06	1.254337e-08	2.049402e+01	8.211330e+02
2.300000e-06	2.857840e-06	1.234178e-08	1.947629e+01	8.071845e+02
2.310000e-06	2.707576e-06	1.213228e-08	1.845223e+01	7.933937e+02
2.320000e-06	2.556415e-06	1.191205e-08	1.742207e+01	7.797059e+02
2.330000e-06	2.404334e-06	1.167916e-08	1.638563e+01	7.657614e+02
2.340000e-06	2.251295e-06	1.143539e-08	1.534266e+01	7.510263e+02
2.350000e-06	2.097452e-06	1.118486e-08	1.429421e+01	7.350112e+02
2.360000e-06	1.942887e-06	1.092846e-08	1.324085e+01	7.174850e+02
2.370000e-06	1.787576e-06	1.066199e-08	1.218240e+01	6.985844e+02
2.380000e-06	1.631570e-06	1.038222e-08	1.111921e+01	6.787595e+02
2.390000e-06	1.474953e-06	1.008827e-08	1.005186e+01	6.585645e+02
2.400000e-06	1.317828e-06	9.779693e-09	8.981051e+00	6.383754e+02
2.410000e-06	1.160235e-06	9.451600e-09	7.907043e+00	6.181566e+02
2.420000e-06	1.002237e-06	9.102759e-09	6.830282e+00	5.973887e+02
2.430000e-06	8.438993e-07	8.737488e-09	5.751206e+00	5.752089e+02
2.440000e-06	6.852967e-07	8.360450e-09	4.670324e+00	5.507237e+02
2.450000e-06	5.265176e-07	7.964937e-09	3.588238e+00	5.233702e+02
2.460000e-06	3.675867e-07	7.540259e-09	2.505117e+00	4.931632e+02
2.470000e-06	2.085420e-07	7.080778e-09	1.421222e+00	4.606934e+02
2.480000e-06	4.939951e-08	6.585489e-09	3.366595e-01	4.268289e+02
2.490000e-06	-1.097644e-07	6.050295e-09	-7.480487e-01	3.921986e+02
2.500000e-06	-2.688400e-07	5.470464e-09	-1.832155e+00	3.566362e+02
2.510000e-06	-4.277992e-07	4.839926e-09	-2.915468e+00	3.188176e+02
2.520000e-06	-5.866604e-07	4.150215e-09	-3.998113e+00	2.762781e+02
2.530000e-06	-7.453399e-07	3.384251e-09	-5.079520e+00	2.258866e+02
2.540000e-06	-9.037315e-07	2.509996e-09	-6.158965e+00	1.646867e+02
2.550000e-06	-1.061793e-06	1.480921e-09	-7.236158e+00	9.087597e+01
2.560000e-06	-1.219450e-06	2.444150e-10	-8.310600e+00	4.615588e+00
2.570000e-06	-1.376631e-06	-1.226678e-09	-9.381793e+00	-9.160925e+01
2.580000e-06	-1.533321e-06	-2.873620e-09	-1.044964e+01	-1.932336e+02
2.590000e-06	-1.689491e-06	-4.535207e-09	-1.151395e+01	-2.944314e+02
2.600000e-06	-1.845034e-06	-6.028986e-09	-1.257398e+01	-3.892971e+02
2.610000e-06	-1.999822e-06	-7.262020e-09	-1.362886e+01	-4.730589e+02
2.620000e-06	-2.153832e-06	-8.247843e-09	-1.467845e+01	-5.429831e+02
2.630000e-06	-2.307078e-06	-9.045023e-09	-1.572283e+01	-5.987263e+02
2.640000e-06	-2.459466e-06	-9.710112e-09	-1.676136e+01	-6.420670e+02
2.650000e-06	-2.610911e-06	-1.027826e-08	-1.779346e+01	-6.761389e+02
2.660000e-06	-2.761336e-06	-1.076785e-08	-1.881861e+01	-7.044323e+02
2.670000e-06	-2.910837e-06	-1.119639e-08	-1.983747e+01	-7.298765e+02
2.680000e-06	-3.059419e-06	-1.158152e-08	-2.085006e+01	-7.542617e+02
2.690000e-06	-3.206877e-06	-1.193314e-08	-2.185499e+01	-7.781221e+02
2.700000e-06	-3.353119e-06	-1.225439e-08	-2.285163e+01	-8.010379e+02
2.710000e-06	-3.498194e-06	-1.254692e-08	-2.384033e+01	-8.221829e+02
2.720000e-06	-3.641984e-06	-1.281362e-08	-2.482026e+01	-8.408845e+02
2.730000e-06	-3.784389e-06	-1.306054e-08	-2.579075e+01	-8.569933e+02
2.740000e-06	-3.925481e-06	-1.329388e-08	-2.675230e+01	-8.709587e+02
2.750000e-06	-4.065085e-06	-1.351548e-08	-2.770371e+01	-8.836292e+02
2.760000e-06	-4.203043e-06	-1.372515e-08	-2.864390e+01	-8.959003e+02
2.770000e-06	-4.339383e-06	-1.392284e-08	-2.957306e+01	-9.083751e+02
2.780000e-06	-4.474132e-06	-1.411008e-08	-3.049138e+01	-9.211763e+02
2.790000e-06	-4.607307e-06	-1.428747e-08	-3.139897e+01	-9.339744e+02
2.800000e-06	-4.738842e-06	-1.445444e-08	-3.229539e+01	-9.461970e+02
2.810000e-06	-4.868715e-06	-1.460949e-08	-3.318048e+01	-9.573172e+02
2.820000e-06	-4.996899e-06	-1.475418e-08	-3.405406e+01	-9.670933e+02
2.830000e-06	-5.123295e-06	-1.489563e-08	-3.491545e+01	-9.756645e+02
2.840000e-06	-5.247887e-06	-1.503549e-08	-3.576455e+01	-9.834739e+02
2.850000e-06	-5.370636e-06	-1.516724e-08	-3.660109e+01	-9.910672e+02
2.860000e-06	-5.491424e-06	-1.528849e-08	-3.742426e+01	-9.988606e+02
2.870000e-06	-5.610181e-06	-1.540354e-08	-3.823360e+01	-1.006981e+03
2.880000e-06	-5.726826e-06	-1.551563e-08	-3.902854e+01	-1.015239e+03
2.890000e-06	-5.841155e-06	-1.562263e-08	-3.980769e+01	-1.023243e+03
2.900000e-06	-5.953153e-06	-1.572295e-08	-4.057096e+01	-1.030590e+03
2.910000e-06	-6.062937e-06	-1.581953e-08	-4.131915e+01	-1.037054e+03
2.920000e-06	-6.170564e-06	-1.591462e-08	-4.205263e+01	-1.042679e+03
2.930000e-06	-6.276095e-06	-1.600754e-08	-4.277183e+01	-1.047759e+03
2.940000e-06	-6.379371e-06	-1.609656e-08	-4.347566e+01	-1.052701e+03
