# Temperatura_=_38.92
# Concentracion g/m^3_=_13400.0
# C_Vs_to_Am_M_A/Vsm_=_65563218390.804596
# pendiente_HvsI_1/m_=_3716.3
# ordenada_HvsI_A/m_=_1297.0
# frecuencia_Hz_=_301422.17213197687

Tiempo_(s)	Campo_(V.s)	Magnetizacion_(V.s)	Campo_(kA/m)	Magnetizacion_(A/m)
0.000000e+00	-8.351968e-06	-1.664929e-08	-5.692150e+01	-1.092024e+03
1.000000e-08	-8.348941e-06	-1.665869e-08	-5.690088e+01	-1.091795e+03
2.000000e-08	-8.343176e-06	-1.665460e-08	-5.686159e+01	-1.091740e+03
3.000000e-08	-8.334817e-06	-1.664244e-08	-5.680462e+01	-1.091726e+03
4.000000e-08	-8.323575e-06	-1.663239e-08	-5.672800e+01	-1.091556e+03
5.000000e-08	-8.309281e-06	-1.662322e-08	-5.663058e+01	-1.091055e+03
6.000000e-08	-8.292031e-06	-1.660791e-08	-5.651301e+01	-1.090153e+03
7.000000e-08	-8.272201e-06	-1.657647e-08	-5.637787e+01	-1.088916e+03
8.000000e-08	-8.249863e-06	-1.656705e-08	-5.622562e+01	-1.087521e+03
9.000000e-08	-8.224384e-06	-1.667541e-08	-5.605198e+01	-1.086187e+03
1.000000e-07	-8.195513e-06	-1.665175e-08	-5.585521e+01	-1.085075e+03
1.100000e-07	-8.163545e-06	-1.654447e-08	-5.563734e+01	-1.084226e+03
1.200000e-07	-8.128607e-06	-1.653262e-08	-5.539922e+01	-1.083536e+03
1.300000e-07	-8.090912e-06	-1.653595e-08	-5.514232e+01	-1.082808e+03
1.400000e-07	-8.050909e-06	-1.644045e-08	-5.486968e+01	-1.081829e+03
1.500000e-07	-8.008487e-06	-1.632844e-08	-5.458057e+01	-1.080458e+03
1.600000e-07	-7.963219e-06	-1.652315e-08	-5.427205e+01	-1.078680e+03
1.700000e-07	-7.915141e-06	-1.638370e-08	-5.394438e+01	-1.076603e+03
1.800000e-07	-7.864106e-06	-1.635112e-08	-5.359656e+01	-1.074399e+03
1.900000e-07	-7.809888e-06	-1.645247e-08	-5.322704e+01	-1.072220e+03
2.000000e-07	-7.752833e-06	-1.625308e-08	-5.283819e+01	-1.070128e+03
2.100000e-07	-7.693048e-06	-1.627917e-08	-5.243074e+01	-1.068066e+03
2.200000e-07	-7.630537e-06	-1.618691e-08	-5.200471e+01	-1.065890e+03
2.300000e-07	-7.565314e-06	-1.618060e-08	-5.156019e+01	-1.063438e+03
2.400000e-07	-7.497240e-06	-1.618317e-08	-5.109624e+01	-1.060613e+03
2.500000e-07	-7.426401e-06	-1.609886e-08	-5.061345e+01	-1.057437e+03
2.600000e-07	-7.352702e-06	-1.611067e-08	-5.011117e+01	-1.054045e+03
2.700000e-07	-7.276113e-06	-1.602940e-08	-4.958919e+01	-1.050630e+03
2.800000e-07	-7.196740e-06	-1.599467e-08	-4.904823e+01	-1.047353e+03
2.900000e-07	-7.114597e-06	-1.588681e-08	-4.848840e+01	-1.044267e+03
3.000000e-07	-7.030021e-06	-1.585783e-08	-4.791199e+01	-1.041281e+03
3.100000e-07	-6.943182e-06	-1.584804e-08	-4.732015e+01	-1.038195e+03
3.200000e-07	-6.853907e-06	-1.575307e-08	-4.671171e+01	-1.034782e+03
3.300000e-07	-6.762152e-06	-1.574149e-08	-4.608637e+01	-1.030882e+03
3.400000e-07	-6.667987e-06	-1.563934e-08	-4.544460e+01	-1.026480e+03
3.500000e-07	-6.571399e-06	-1.557525e-08	-4.478632e+01	-1.021711e+03
3.600000e-07	-6.472342e-06	-1.550594e-08	-4.411121e+01	-1.016806e+03
3.700000e-07	-6.370939e-06	-1.543843e-08	-4.342012e+01	-1.011988e+03
3.800000e-07	-6.267308e-06	-1.536638e-08	-4.271384e+01	-1.007372e+03
3.900000e-07	-6.161390e-06	-1.529230e-08	-4.199197e+01	-1.002909e+03
4.000000e-07	-6.053237e-06	-1.524475e-08	-4.125487e+01	-9.983961e+02
4.100000e-07	-5.942966e-06	-1.514109e-08	-4.050334e+01	-9.935638e+02
4.200000e-07	-5.830494e-06	-1.505622e-08	-3.973680e+01	-9.881887e+02
4.300000e-07	-5.715726e-06	-1.495062e-08	-3.895462e+01	-9.821923e+02
4.400000e-07	-5.598705e-06	-1.487182e-08	-3.815708e+01	-9.756768e+02
4.500000e-07	-5.479592e-06	-1.478458e-08	-3.734529e+01	-9.688828e+02
4.600000e-07	-5.358495e-06	-1.469365e-08	-3.651997e+01	-9.620821e+02
4.700000e-07	-5.235507e-06	-1.459135e-08	-3.568176e+01	-9.554548e+02
4.800000e-07	-5.110602e-06	-1.448412e-08	-3.483049e+01	-9.490022e+02
4.900000e-07	-4.983851e-06	-1.437937e-08	-3.396664e+01	-9.425371e+02
5.000000e-07	-4.855359e-06	-1.425583e-08	-3.309093e+01	-9.357578e+02
5.100000e-07	-4.725058e-06	-1.413808e-08	-3.220288e+01	-9.283756e+02
5.200000e-07	-4.593035e-06	-1.401298e-08	-3.130310e+01	-9.202408e+02
5.300000e-07	-4.459348e-06	-1.389571e-08	-3.039197e+01	-9.114099e+02
5.400000e-07	-4.324066e-06	-1.376651e-08	-2.946998e+01	-9.021228e+02
5.500000e-07	-4.187258e-06	-1.363071e-08	-2.853759e+01	-8.926957e+02
5.600000e-07	-4.048857e-06	-1.348511e-08	-2.759434e+01	-8.833756e+02
5.700000e-07	-3.908823e-06	-1.333848e-08	-2.663996e+01	-8.742188e+02
5.800000e-07	-3.767208e-06	-1.319085e-08	-2.567480e+01	-8.650511e+02
5.900000e-07	-3.624105e-06	-1.303278e-08	-2.469951e+01	-8.555292e+02
6.000000e-07	-3.479656e-06	-1.286880e-08	-2.371504e+01	-8.452815e+02
6.100000e-07	-3.333961e-06	-1.269581e-08	-2.272208e+01	-8.340682e+02
6.200000e-07	-3.187021e-06	-1.252247e-08	-2.172063e+01	-8.218887e+02
6.300000e-07	-3.038986e-06	-1.233742e-08	-2.071172e+01	-8.089851e+02
6.400000e-07	-2.889972e-06	-1.214390e-08	-1.969615e+01	-7.957351e+02
6.500000e-07	-2.739958e-06	-1.194621e-08	-1.867375e+01	-7.824756e+02
6.600000e-07	-2.589009e-06	-1.174422e-08	-1.764497e+01	-7.693341e+02
6.700000e-07	-2.437136e-06	-1.152932e-08	-1.660991e+01	-7.561441e+02
6.800000e-07	-2.284328e-06	-1.129981e-08	-1.556847e+01	-7.424884e+02
6.900000e-07	-2.130713e-06	-1.106486e-08	-1.452153e+01	-7.278594e+02
7.000000e-07	-1.976312e-06	-1.082118e-08	-1.346924e+01	-7.118706e+02
7.100000e-07	-1.821171e-06	-1.056895e-08	-1.241190e+01	-6.944263e+02
7.200000e-07	-1.665397e-06	-1.030124e-08	-1.135025e+01	-6.757677e+02
7.300000e-07	-1.509023e-06	-1.002353e-08	-1.028450e+01	-6.563632e+02
7.400000e-07	-1.352082e-06	-9.731638e-09	-9.214902e+00	-6.366793e+02
7.500000e-07	-1.194664e-06	-9.423003e-09	-8.142044e+00	-6.169259e+02
7.600000e-07	-1.036818e-06	-9.094749e-09	-7.066266e+00	-5.968895e+02
7.700000e-07	-8.785768e-07	-8.746420e-09	-5.987800e+00	-5.759418e+02
7.800000e-07	-7.200223e-07	-8.385108e-09	-4.907197e+00	-5.532378e+02
7.900000e-07	-5.612257e-07	-8.000975e-09	-3.824944e+00	-5.280358e+02
8.000000e-07	-4.021753e-07	-7.591236e-09	-2.740961e+00	-5.000051e+02
8.100000e-07	-2.429561e-07	-7.150836e-09	-1.655829e+00	-4.693748e+02
8.200000e-07	-8.368234e-08	-6.682098e-09	-5.703237e-01	-4.368263e+02
8.300000e-07	7.563611e-08	-6.180722e-09	5.154859e-01	-4.031291e+02
8.400000e-07	2.348972e-07	-5.640804e-09	1.600904e+00	-3.686296e+02
8.500000e-07	3.940484e-07	-5.057078e-09	2.685574e+00	-3.327850e+02
8.600000e-07	5.530400e-07	-4.417010e-09	3.769156e+00	-2.939475e+02
8.700000e-07	7.118635e-07	-3.708892e-09	4.851592e+00	-2.495398e+02
8.800000e-07	8.704093e-07	-2.909085e-09	5.932136e+00	-1.966334e+02
8.900000e-07	1.028567e-06	-1.985084e-09	7.010037e+00	-1.328001e+02
9.000000e-07	1.186342e-06	-8.937284e-10	8.085327e+00	-5.698650e+01
9.100000e-07	1.343679e-06	4.012575e-10	9.157631e+00	2.986876e+01
9.200000e-07	1.500518e-06	1.894788e-09	1.022654e+01	1.246985e+02
9.300000e-07	1.656859e-06	3.487390e-09	1.129206e+01	2.227343e+02
9.400000e-07	1.812620e-06	5.012152e-09	1.235363e+01	3.184070e+02
9.500000e-07	1.967701e-06	6.335250e-09	1.341055e+01	4.064771e+02
9.600000e-07	2.122092e-06	7.419871e-09	1.446278e+01	4.830802e+02
9.700000e-07	2.275736e-06	8.303566e-09	1.550991e+01	5.463969e+02
9.800000e-07	2.428505e-06	9.034031e-09	1.655109e+01	5.967787e+02
9.900000e-07	2.580346e-06	9.648391e-09	1.758594e+01	6.363289e+02
1.000000e-06	2.731244e-06	1.017002e-08	1.861436e+01	6.681033e+02
1.010000e-06	2.881116e-06	1.061967e-08	1.963579e+01	6.951979e+02
1.020000e-06	3.029937e-06	1.101860e-08	2.065005e+01	7.199982e+02
1.030000e-06	3.177684e-06	1.137837e-08	2.165700e+01	7.437888e+02
1.040000e-06	3.324350e-06	1.170230e-08	2.265658e+01	7.667799e+02
1.050000e-06	3.469901e-06	1.199512e-08	2.364855e+01	7.884704e+02
1.060000e-06	3.614137e-06	1.226857e-08	2.463157e+01	8.081618e+02
1.070000e-06	3.756932e-06	1.252767e-08	2.560477e+01	8.254176e+02
1.080000e-06	3.898355e-06	1.276952e-08	2.656861e+01	8.403109e+02
1.090000e-06	4.038362e-06	1.298941e-08	2.752281e+01	8.534032e+02
1.100000e-06	4.176838e-06	1.319344e-08	2.846657e+01	8.655093e+02
1.110000e-06	4.313735e-06	1.338644e-08	2.939957e+01	8.773731e+02
1.120000e-06	4.448994e-06	1.356680e-08	3.032141e+01	8.894028e+02
1.130000e-06	4.582644e-06	1.373327e-08	3.123228e+01	9.015676e+02
1.140000e-06	4.714724e-06	1.389118e-08	3.213245e+01	9.134842e+02
1.150000e-06	4.845118e-06	1.404928e-08	3.302113e+01	9.246378e+02
1.160000e-06	4.973767e-06	1.420467e-08	3.389792e+01	9.346343e+02
1.170000e-06	5.100675e-06	1.435009e-08	3.476283e+01	9.433763e+02
1.180000e-06	5.225821e-06	1.448012e-08	3.561575e+01	9.510959e+02
1.190000e-06	5.349155e-06	1.460205e-08	3.645631e+01	9.582435e+02
1.200000e-06	5.470571e-06	1.471960e-08	3.728381e+01	9.652912e+02
1.210000e-06	5.589967e-06	1.483116e-08	3.809753e+01	9.725410e+02
1.220000e-06	5.707266e-06	1.493526e-08	3.889696e+01	9.800195e+02
1.230000e-06	5.822342e-06	1.503570e-08	3.968124e+01	9.874971e+02
1.240000e-06	5.935121e-06	1.513453e-08	4.044987e+01	9.946159e+02
1.250000e-06	6.045730e-06	1.523006e-08	4.120371e+01	1.001063e+03
1.260000e-06	6.154292e-06	1.532011e-08	4.194359e+01	1.006714e+03
1.270000e-06	6.260740e-06	1.540487e-08	4.266907e+01	1.011683e+03
1.280000e-06	6.364925e-06	1.548654e-08	4.337913e+01	1.016270e+03
1.290000e-06	6.466795e-06	1.556245e-08	4.407341e+01	1.020819e+03
1.300000e-06	6.566312e-06	1.563298e-08	4.475165e+01	1.025578e+03
1.310000e-06	6.663381e-06	1.570088e-08	4.541321e+01	1.030590e+03
1.320000e-06	6.758083e-06	1.576915e-08	4.605863e+01	1.035693e+03
1.330000e-06	6.850481e-06	1.583614e-08	4.668836e+01	1.040595e+03
1.340000e-06	6.940435e-06	1.589903e-08	4.730143e+01	1.045011e+03
1.350000e-06	7.027927e-06	1.595773e-08	4.789772e+01	1.048787e+03
1.360000e-06	7.113028e-06	1.601425e-08	4.847771e+01	1.051965e+03
1.370000e-06	7.195596e-06	1.607080e-08	4.904044e+01	1.054757e+03
1.380000e-06	7.275522e-06	1.612382e-08	4.958516e+01	1.057450e+03
1.390000e-06	7.352843e-06	1.617076e-08	5.011212e+01	1.060281e+03
1.400000e-06	7.427343e-06	1.621375e-08	5.061987e+01	1.063342e+03
1.410000e-06	7.499077e-06	1.625533e-08	5.110876e+01	1.066547e+03
1.420000e-06	7.568258e-06	1.629440e-08	5.158025e+01	1.069683e+03
1.430000e-06	7.634743e-06	1.633174e-08	5.203337e+01	1.072511e+03
1.440000e-06	7.698471e-06	1.637050e-08	5.246770e+01	1.074873e+03
1.450000e-06	7.759546e-06	1.640953e-08	5.288395e+01	1.076762e+03
1.460000e-06	7.817856e-06	1.644514e-08	5.328135e+01	1.078321e+03
1.470000e-06	7.873340e-06	1.647396e-08	5.365949e+01	1.079771e+03
1.480000e-06	7.925904e-06	1.649724e-08	5.401773e+01	1.081314e+03
1.490000e-06	7.975270e-06	1.651752e-08	5.435418e+01	1.083045e+03
1.500000e-06	8.021602e-06	1.653941e-08	5.466995e+01	1.084911e+03
1.510000e-06	8.065107e-06	1.656143e-08	5.496645e+01	1.086743e+03
1.520000e-06	8.105750e-06	1.658181e-08	5.524345e+01	1.088334e+03
1.530000e-06	8.143609e-06	1.660287e-08	5.550147e+01	1.089539e+03
1.540000e-06	8.178625e-06	1.662229e-08	5.574011e+01	1.090332e+03
1.550000e-06	8.210724e-06	1.663770e-08	5.595888e+01	1.090827e+03
1.560000e-06	8.240061e-06	1.664899e-08	5.615882e+01	1.091214e+03
1.570000e-06	8.266483e-06	1.665825e-08	5.633890e+01	1.091683e+03
1.580000e-06	8.289875e-06	1.666720e-08	5.649832e+01	1.092331e+03
1.590000e-06	8.310414e-06	1.667749e-08	5.663830e+01	1.093125e+03
1.600000e-06	8.327995e-06	1.668586e-08	5.675812e+01	1.093922e+03
1.610000e-06	8.342478e-06	1.668944e-08	5.685683e+01	1.094529e+03
1.620000e-06	8.353772e-06	1.669233e-08	5.693380e+01	1.094800e+03
1.630000e-06	8.361923e-06	1.669611e-08	5.698935e+01	1.094699e+03
1.640000e-06	8.367223e-06	1.669942e-08	5.702547e+01	1.094320e+03
1.650000e-06	8.369575e-06	1.670032e-08	5.704150e+01	1.093841e+03
1.660000e-06	8.368983e-06	1.670030e-08	5.703747e+01	1.093445e+03
1.670000e-06	8.365691e-06	1.668399e-08	5.701503e+01	1.093237e+03
1.680000e-06	8.359561e-06	1.668154e-08	5.697325e+01	1.093193e+03
1.690000e-06	8.350653e-06	1.668053e-08	5.691254e+01	1.093172e+03
1.700000e-06	8.338867e-06	1.666845e-08	5.683222e+01	1.092973e+03
1.710000e-06	8.324063e-06	1.665805e-08	5.673132e+01	1.092430e+03
1.720000e-06	8.306694e-06	1.666415e-08	5.661294e+01	1.091486e+03
1.730000e-06	8.286954e-06	1.669333e-08	5.647841e+01	1.090221e+03
1.740000e-06	8.264372e-06	1.654587e-08	5.632451e+01	1.088822e+03
1.750000e-06	8.238226e-06	1.647890e-08	5.614631e+01	1.087505e+03
1.760000e-06	8.208155e-06	1.655920e-08	5.594137e+01	1.086422e+03
1.770000e-06	8.174744e-06	1.654398e-08	5.571367e+01	1.085596e+03
1.780000e-06	8.138853e-06	1.649636e-08	5.546905e+01	1.084913e+03
1.790000e-06	8.100576e-06	1.661204e-08	5.520818e+01	1.084167e+03
1.800000e-06	8.060235e-06	1.660237e-08	5.493324e+01	1.083150e+03
1.810000e-06	8.017772e-06	1.638176e-08	5.464384e+01	1.081733e+03
1.820000e-06	7.972344e-06	1.657665e-08	5.433424e+01	1.079915e+03
1.830000e-06	7.924058e-06	1.642881e-08	5.400515e+01	1.077816e+03
1.840000e-06	7.872696e-06	1.640338e-08	5.365510e+01	1.075607e+03
1.850000e-06	7.818022e-06	1.645683e-08	5.328248e+01	1.073436e+03
1.860000e-06	7.760620e-06	1.625939e-08	5.289127e+01	1.071352e+03
1.870000e-06	7.700418e-06	1.646282e-08	5.248097e+01	1.069285e+03
1.880000e-06	7.637417e-06	1.624959e-08	5.205160e+01	1.067086e+03
1.890000e-06	7.571658e-06	1.623836e-08	5.160343e+01	1.064597e+03
1.900000e-06	7.503072e-06	1.621986e-08	5.113599e+01	1.061731e+03
1.910000e-06	7.431594e-06	1.606625e-08	5.064884e+01	1.058523e+03
1.920000e-06	7.357192e-06	1.615559e-08	5.014177e+01	1.055118e+03
1.930000e-06	7.280050e-06	1.599896e-08	4.961602e+01	1.051711e+03
1.940000e-06	7.200209e-06	1.608019e-08	4.907187e+01	1.048454e+03
1.950000e-06	7.117895e-06	1.594719e-08	4.851088e+01	1.045384e+03
1.960000e-06	7.032965e-06	1.589933e-08	4.793205e+01	1.042398e+03
1.970000e-06	6.945347e-06	1.588373e-08	4.733491e+01	1.039287e+03
1.980000e-06	6.855351e-06	1.571715e-08	4.672155e+01	1.035826e+03
1.990000e-06	6.762930e-06	1.576424e-08	4.609167e+01	1.031871e+03
2.000000e-06	6.668131e-06	1.564288e-08	4.544558e+01	1.027420e+03
2.010000e-06	6.570998e-06	1.564624e-08	4.478359e+01	1.022624e+03
2.020000e-06	6.471591e-06	1.553029e-08	4.410610e+01	1.017718e+03
2.030000e-06	6.369748e-06	1.546913e-08	4.341200e+01	1.012918e+03
2.040000e-06	6.265507e-06	1.538571e-08	4.270156e+01	1.008324e+03
2.050000e-06	6.159156e-06	1.529484e-08	4.197675e+01	1.003866e+03
2.060000e-06	6.050676e-06	1.524471e-08	4.123742e+01	9.993319e+02
2.070000e-06	5.940021e-06	1.514705e-08	4.048327e+01	9.944497e+02
2.080000e-06	5.827031e-06	1.510269e-08	3.971320e+01	9.890081e+02
2.090000e-06	5.711763e-06	1.498729e-08	3.892761e+01	9.829476e+02
2.100000e-06	5.594225e-06	1.490752e-08	3.812655e+01	9.763886e+02
2.110000e-06	5.474545e-06	1.478006e-08	3.731088e+01	9.695809e+02
2.120000e-06	5.352976e-06	1.469541e-08	3.648235e+01	9.627923e+02
2.130000e-06	5.229565e-06	1.458079e-08	3.564127e+01	9.561867e+02
2.140000e-06	5.104264e-06	1.449405e-08	3.478730e+01	9.497441e+02
2.150000e-06	4.977076e-06	1.438562e-08	3.392047e+01	9.432601e+02
2.160000e-06	4.848098e-06	1.427390e-08	3.304144e+01	9.364280e+02
2.170000e-06	4.717416e-06	1.416118e-08	3.215080e+01	9.289685e+02
2.180000e-06	4.585091e-06	1.403300e-08	3.124896e+01	9.207521e+02
2.190000e-06	4.451128e-06	1.391246e-08	3.033595e+01	9.118578e+02
2.200000e-06	4.315538e-06	1.377103e-08	2.941186e+01	9.025400e+02
2.210000e-06	4.178274e-06	1.364106e-08	2.847636e+01	8.931146e+02
2.220000e-06	4.039436e-06	1.349267e-08	2.753013e+01	8.838129e+02
2.230000e-06	3.899074e-06	1.335350e-08	2.657351e+01	8.746666e+02
2.240000e-06	3.757244e-06	1.319858e-08	2.560690e+01	8.654787e+02
2.250000e-06	3.614022e-06	1.304890e-08	2.463079e+01	8.558951e+02
2.260000e-06	3.469498e-06	1.288672e-08	2.364581e+01	8.455513e+02
2.270000e-06	3.323765e-06	1.271940e-08	2.265259e+01	8.342293e+02
2.280000e-06	3.176913e-06	1.253802e-08	2.165174e+01	8.219565e+02
2.290000e-06	3.028955e-06	1.235205e-08	2.064336e+01	8.089963e+02
2.300000e-06	2.879902e-06	1.215786e-08	1.962751e+01	7.957310e+02
2.310000e-06	2.729887e-06	1.195852e-08	1.860511e+01	7.824825e+02
2.320000e-06	2.578899e-06	1.175670e-08	1.757607e+01	7.693485e+02
2.330000e-06	2.426945e-06	1.154277e-08	1.654046e+01	7.561313e+02
2.340000e-06	2.274072e-06	1.132104e-08	1.549857e+01	7.423947e+02
2.350000e-06	2.120316e-06	1.108571e-08	1.445067e+01	7.276339e+02
2.360000e-06	1.965786e-06	1.084103e-08	1.339750e+01	7.114871e+02
2.370000e-06	1.810633e-06	1.058330e-08	1.234008e+01	6.938952e+02
2.380000e-06	1.654884e-06	1.031404e-08	1.127860e+01	6.751316e+02
2.390000e-06	1.498487e-06	1.003400e-08	1.021270e+01	6.556768e+02
2.400000e-06	1.341469e-06	9.741486e-09	9.142570e+00	6.359814e+02
2.410000e-06	1.183982e-06	9.432431e-09	8.069240e+00	6.162155e+02
2.420000e-06	1.026073e-06	9.107206e-09	6.993038e+00	5.961171e+02
2.430000e-06	8.677824e-07	8.763093e-09	5.914232e+00	5.750221e+02
2.440000e-06	7.092084e-07	8.398226e-09	4.833497e+00	5.520804e+02
2.450000e-06	5.504032e-07	8.012448e-09	3.751185e+00	5.265813e+02
2.460000e-06	3.913693e-07	7.603678e-09	2.667315e+00	4.982506e+02
2.470000e-06	2.321757e-07	7.165363e-09	1.582357e+00	4.673762e+02
2.480000e-06	7.290397e-08	6.691827e-09	4.968654e-01	4.346704e+02
2.490000e-06	-8.638946e-08	6.182410e-09	-5.887736e-01	4.008825e+02
2.500000e-06	-2.455895e-07	5.637946e-09	-1.673776e+00	3.662832e+02
2.510000e-06	-4.046612e-07	5.050828e-09	-2.757904e+00	3.302155e+02
2.520000e-06	-5.635725e-07	4.407540e-09	-3.840938e+00	2.909164e+02
2.530000e-06	-7.222816e-07	3.693891e-09	-4.922595e+00	2.457364e+02
2.540000e-06	-8.807140e-07	2.892968e-09	-6.002366e+00	1.917575e+02
2.550000e-06	-1.038748e-06	1.972653e-09	-7.079423e+00	1.266591e+02
2.560000e-06	-1.196378e-06	8.856450e-10	-8.153725e+00	4.957858e+01
2.570000e-06	-1.353647e-06	-4.124245e-10	-9.225564e+00	-3.831388e+01
2.580000e-06	-1.510416e-06	-1.914230e-09	-1.029400e+01	-1.337387e+02
2.590000e-06	-1.666563e-06	-3.516211e-09	-1.135819e+01	-2.317921e+02
2.600000e-06	-1.822112e-06	-5.049241e-09	-1.241832e+01	-3.268850e+02
2.610000e-06	-1.977039e-06	-6.378035e-09	-1.347420e+01	-4.138796e+02
2.620000e-06	-2.131189e-06	-7.465378e-09	-1.452478e+01	-4.891074e+02
2.630000e-06	-2.284477e-06	-8.343062e-09	-1.556949e+01	-5.509858e+02
2.640000e-06	-2.436925e-06	-9.066353e-09	-1.660847e+01	-6.000826e+02
2.650000e-06	-2.588499e-06	-9.678894e-09	-1.764150e+01	-6.386458e+02
2.660000e-06	-2.739144e-06	-1.020558e-08	-1.866820e+01	-6.697786e+02
2.670000e-06	-2.888800e-06	-1.066233e-08	-1.968816e+01	-6.965314e+02
2.680000e-06	-3.037461e-06	-1.106424e-08	-2.070133e+01	-7.211833e+02
2.690000e-06	-3.185062e-06	-1.142635e-08	-2.170728e+01	-7.448952e+02
2.700000e-06	-3.331490e-06	-1.175593e-08	-2.270524e+01	-7.677794e+02
2.710000e-06	-3.476695e-06	-1.205441e-08	-2.369486e+01	-7.892883e+02
2.720000e-06	-3.620662e-06	-1.232606e-08	-2.467604e+01	-8.087323e+02
2.730000e-06	-3.763290e-06	-1.257836e-08	-2.564811e+01	-8.257223e+02
2.740000e-06	-3.904546e-06	-1.281554e-08	-2.661081e+01	-8.403892e+02
2.750000e-06	-4.044314e-06	-1.303774e-08	-2.756338e+01	-8.533360e+02
2.760000e-06	-4.182442e-06	-1.324470e-08	-2.850477e+01	-8.653853e+02
2.770000e-06	-4.319007e-06	-1.343836e-08	-2.943550e+01	-8.772554e+02
2.780000e-06	-4.454025e-06	-1.362019e-08	-3.035569e+01	-8.893091e+02
2.790000e-06	-4.587473e-06	-1.379302e-08	-3.126519e+01	-9.014707e+02
2.800000e-06	-4.719302e-06	-1.395722e-08	-3.216365e+01	-9.133306e+02
2.810000e-06	-4.849433e-06	-1.411029e-08	-3.305054e+01	-9.243754e+02
2.820000e-06	-4.977875e-06	-1.425328e-08	-3.392591e+01	-9.342366e+02
2.830000e-06	-5.104608e-06	-1.439003e-08	-3.478964e+01	-9.428533e+02
2.840000e-06	-5.229516e-06	-1.452122e-08	-3.564093e+01	-9.504884e+02
2.850000e-06	-5.352497e-06	-1.464373e-08	-3.647909e+01	-9.576049e+02
2.860000e-06	-5.473583e-06	-1.475622e-08	-3.730433e+01	-9.646647e+02
2.870000e-06	-5.592718e-06	-1.486354e-08	-3.811627e+01	-9.719434e+02
2.880000e-06	-5.709640e-06	-1.496935e-08	-3.891314e+01	-9.794369e+02
2.890000e-06	-5.824229e-06	-1.507388e-08	-3.969410e+01	-9.868944e+02
2.900000e-06	-5.936482e-06	-1.517309e-08	-4.045915e+01	-9.939543e+02
2.910000e-06	-6.046451e-06	-1.526427e-08	-4.120862e+01	-1.000318e+03
2.920000e-06	-6.154329e-06	-1.535128e-08	-4.194385e+01	-1.005887e+03
2.930000e-06	-6.260112e-06	-1.543537e-08	-4.266480e+01	-1.010800e+03
2.940000e-06	-6.363697e-06	-1.551634e-08	-4.337076e+01	-1.015367e+03
