# Temperatura_=_69.23
# Concentracion g/m^3_=_13400.0
# C_Vs_to_Am_M_A/Vsm_=_65563218390.804596
# pendiente_HvsI_1/m_=_3716.3
# ordenada_HvsI_A/m_=_1297.0
# frecuencia_Hz_=_301424.8325292064

Tiempo_(s)	Campo_(V.s)	Magnetizacion_(V.s)	Campo_(kA/m)	Magnetizacion_(A/m)
0.000000e+00	-8.354626e-06	-1.771371e-08	-5.691533e+01	-1.161852e+03
1.000000e-08	-8.351022e-06	-1.771069e-08	-5.689078e+01	-1.161630e+03
2.000000e-08	-8.344666e-06	-1.770256e-08	-5.684748e+01	-1.161561e+03
3.000000e-08	-8.335568e-06	-1.769246e-08	-5.678550e+01	-1.161452e+03
4.000000e-08	-8.323552e-06	-1.768151e-08	-5.670364e+01	-1.161076e+03
5.000000e-08	-8.308583e-06	-1.766921e-08	-5.660166e+01	-1.160272e+03
6.000000e-08	-8.290745e-06	-1.765254e-08	-5.648015e+01	-1.159017e+03
7.000000e-08	-8.270339e-06	-1.762979e-08	-5.634113e+01	-1.157437e+03
8.000000e-08	-8.247278e-06	-1.764181e-08	-5.618403e+01	-1.155748e+03
9.000000e-08	-8.221016e-06	-1.767445e-08	-5.600512e+01	-1.154171e+03
1.000000e-07	-8.191421e-06	-1.763541e-08	-5.580351e+01	-1.152832e+03
1.100000e-07	-8.158728e-06	-1.758015e-08	-5.558079e+01	-1.151714e+03
1.200000e-07	-8.123099e-06	-1.755445e-08	-5.533807e+01	-1.150673e+03
1.300000e-07	-8.084859e-06	-1.751674e-08	-5.507756e+01	-1.149500e+03
1.400000e-07	-8.044295e-06	-1.743447e-08	-5.480122e+01	-1.148017e+03
1.500000e-07	-8.001198e-06	-1.740563e-08	-5.450763e+01	-1.146150e+03
1.600000e-07	-7.955306e-06	-1.745466e-08	-5.419499e+01	-1.143951e+03
1.700000e-07	-7.906582e-06	-1.737041e-08	-5.386306e+01	-1.141565e+03
1.800000e-07	-7.854770e-06	-1.738079e-08	-5.351009e+01	-1.139150e+03
1.900000e-07	-7.799907e-06	-1.736659e-08	-5.313635e+01	-1.136796e+03
2.000000e-07	-7.742299e-06	-1.724695e-08	-5.274389e+01	-1.134471e+03
2.100000e-07	-7.681871e-06	-1.720747e-08	-5.233224e+01	-1.132035e+03
2.200000e-07	-7.618691e-06	-1.714205e-08	-5.190182e+01	-1.129302e+03
2.300000e-07	-7.552752e-06	-1.712776e-08	-5.145262e+01	-1.126126e+03
2.400000e-07	-7.483937e-06	-1.707093e-08	-5.098382e+01	-1.122475e+03
2.500000e-07	-7.412350e-06	-1.704373e-08	-5.049614e+01	-1.118457e+03
2.600000e-07	-7.337882e-06	-1.701205e-08	-4.998883e+01	-1.114274e+03
2.700000e-07	-7.260602e-06	-1.693186e-08	-4.946237e+01	-1.110143e+03
2.800000e-07	-7.180518e-06	-1.687170e-08	-4.891680e+01	-1.106195e+03
2.900000e-07	-7.097722e-06	-1.676831e-08	-4.835275e+01	-1.102417e+03
3.000000e-07	-7.012637e-06	-1.670859e-08	-4.777312e+01	-1.098650e+03
3.100000e-07	-6.925255e-06	-1.665670e-08	-4.717784e+01	-1.094657e+03
3.200000e-07	-6.835381e-06	-1.660460e-08	-4.656557e+01	-1.090224e+03
3.300000e-07	-6.742982e-06	-1.653907e-08	-4.593611e+01	-1.085252e+03
3.400000e-07	-6.648218e-06	-1.645376e-08	-4.529054e+01	-1.079801e+03
3.500000e-07	-6.551076e-06	-1.638912e-08	-4.462876e+01	-1.074064e+03
3.600000e-07	-6.451453e-06	-1.629913e-08	-4.395009e+01	-1.068276e+03
3.700000e-07	-6.349488e-06	-1.620533e-08	-4.325546e+01	-1.062614e+03
3.800000e-07	-6.245266e-06	-1.610477e-08	-4.254546e+01	-1.057106e+03
3.900000e-07	-6.138767e-06	-1.602013e-08	-4.181994e+01	-1.051619e+03
4.000000e-07	-6.030086e-06	-1.593525e-08	-4.107956e+01	-1.045913e+03
4.100000e-07	-5.919308e-06	-1.583481e-08	-4.032489e+01	-1.039745e+03
4.200000e-07	-5.806294e-06	-1.573409e-08	-3.955499e+01	-1.032980e+03
4.300000e-07	-5.690913e-06	-1.562812e-08	-3.876897e+01	-1.025649e+03
4.400000e-07	-5.573276e-06	-1.552835e-08	-3.796757e+01	-1.017944e+03
4.500000e-07	-5.453636e-06	-1.542161e-08	-3.715253e+01	-1.010124e+03
4.600000e-07	-5.332091e-06	-1.530730e-08	-3.632451e+01	-1.002403e+03
4.700000e-07	-5.208591e-06	-1.518158e-08	-3.548318e+01	-9.948397e+02
4.800000e-07	-5.083205e-06	-1.505839e-08	-3.462899e+01	-9.873078e+02
4.900000e-07	-4.956052e-06	-1.493394e-08	-3.376277e+01	-9.795390e+02
5.000000e-07	-4.827110e-06	-1.479527e-08	-3.288437e+01	-9.712390e+02
5.100000e-07	-4.696370e-06	-1.465312e-08	-3.199371e+01	-9.622174e+02
5.200000e-07	-4.563898e-06	-1.451630e-08	-3.109125e+01	-9.524753e+02
5.300000e-07	-4.429811e-06	-1.437905e-08	-3.017779e+01	-9.422096e+02
5.400000e-07	-4.294171e-06	-1.423257e-08	-2.925376e+01	-9.317260e+02
5.500000e-07	-4.156958e-06	-1.407499e-08	-2.831900e+01	-9.212988e+02
5.600000e-07	-4.018164e-06	-1.390921e-08	-2.737348e+01	-9.110373e+02
5.700000e-07	-3.877709e-06	-1.374010e-08	-2.641663e+01	-9.008213e+02
5.800000e-07	-3.735662e-06	-1.356681e-08	-2.544895e+01	-8.903382e+02
5.900000e-07	-3.592200e-06	-1.338606e-08	-2.447162e+01	-8.792107e+02
6.000000e-07	-3.447407e-06	-1.320275e-08	-2.348523e+01	-8.671605e+02
6.100000e-07	-3.301335e-06	-1.301790e-08	-2.249012e+01	-8.541359e+02
6.200000e-07	-3.154096e-06	-1.282776e-08	-2.148707e+01	-8.403422e+02
6.300000e-07	-3.005795e-06	-1.262565e-08	-2.047678e+01	-8.261541e+02
6.400000e-07	-2.856486e-06	-1.241176e-08	-1.945962e+01	-8.119427e+02
6.500000e-07	-2.706243e-06	-1.219007e-08	-1.843610e+01	-7.978914e+02
6.600000e-07	-2.555059e-06	-1.195837e-08	-1.740617e+01	-7.838833e+02
6.700000e-07	-2.402921e-06	-1.171773e-08	-1.636974e+01	-7.695185e+02
6.800000e-07	-2.249875e-06	-1.146923e-08	-1.532712e+01	-7.542619e+02
6.900000e-07	-2.095998e-06	-1.121659e-08	-1.427884e+01	-7.376656e+02
7.000000e-07	-1.941371e-06	-1.095599e-08	-1.322546e+01	-7.195676e+02
7.100000e-07	-1.786067e-06	-1.068335e-08	-1.216746e+01	-7.001746e+02
7.200000e-07	-1.630103e-06	-1.039600e-08	-1.110497e+01	-6.799784e+02
7.300000e-07	-1.473497e-06	-1.009444e-08	-1.003810e+01	-6.595281e+02
7.400000e-07	-1.316287e-06	-9.778644e-09	-8.967115e+00	-6.391462e+02
7.500000e-07	-1.158552e-06	-9.445713e-09	-7.892561e+00	-6.187152e+02
7.600000e-07	-1.000417e-06	-9.096317e-09	-6.815274e+00	-5.976381e+02
7.700000e-07	-8.419780e-07	-8.729158e-09	-5.735919e+00	-5.750116e+02
7.800000e-07	-6.832910e-07	-8.342638e-09	-4.654874e+00	-5.499591e+02
7.900000e-07	-5.243820e-07	-7.931632e-09	-3.572317e+00	-5.219888e+02
8.000000e-07	-3.653406e-07	-7.493746e-09	-2.488859e+00	-4.912135e+02
8.100000e-07	-2.062208e-07	-7.025223e-09	-1.404866e+00	-4.583051e+02
8.200000e-07	-4.702772e-08	-6.523855e-09	-3.203732e-01	-4.241528e+02
8.300000e-07	1.121987e-07	-5.984509e-09	7.643460e-01	-3.893194e+02
8.400000e-07	2.713541e-07	-5.398740e-09	1.848582e+00	-3.534885e+02
8.500000e-07	4.304259e-07	-4.758086e-09	2.932248e+00	-3.151367e+02
8.600000e-07	5.894058e-07	-4.046680e-09	4.015288e+00	-2.716112e+02
8.700000e-07	7.481980e-07	-3.246802e-09	5.097049e+00	-2.196688e+02
8.800000e-07	9.067580e-07	-2.331254e-09	6.177229e+00	-1.563671e+02
8.900000e-07	1.065056e-06	-1.255030e-09	7.255623e+00	-8.006102e+01
9.000000e-07	1.222996e-06	4.020887e-11	8.331577e+00	8.811661e+00
9.100000e-07	1.380390e-06	1.576384e-09	9.403815e+00	1.074297e+02
9.200000e-07	1.537231e-06	3.270921e-09	1.047228e+01	2.109118e+02
9.300000e-07	1.693486e-06	4.935170e-09	1.153676e+01	3.132114e+02
9.400000e-07	1.849113e-06	6.391443e-09	1.259696e+01	4.083487e+02
9.500000e-07	2.004099e-06	7.575679e-09	1.365279e+01	4.916362e+02
9.600000e-07	2.158337e-06	8.519316e-09	1.470352e+01	5.605532e+02
9.700000e-07	2.311811e-06	9.285090e-09	1.574906e+01	6.150387e+02
9.800000e-07	2.464401e-06	9.926608e-09	1.678857e+01	6.571510e+02
9.900000e-07	2.616064e-06	1.047655e-08	1.782176e+01	6.902380e+02
1.000000e-06	2.766844e-06	1.095227e-08	1.884894e+01	7.179014e+02
1.010000e-06	2.916659e-06	1.137034e-08	1.986955e+01	7.430741e+02
1.020000e-06	3.065401e-06	1.174453e-08	2.088284e+01	7.674667e+02
1.030000e-06	3.213048e-06	1.208475e-08	2.188868e+01	7.914931e+02
1.040000e-06	3.359584e-06	1.239455e-08	2.288694e+01	8.146174e+02
1.050000e-06	3.504889e-06	1.267897e-08	2.387682e+01	8.359352e+02
1.060000e-06	3.648871e-06	1.294971e-08	2.485769e+01	8.547476e+02
1.070000e-06	3.791509e-06	1.320882e-08	2.582940e+01	8.709254e+02
1.080000e-06	3.932738e-06	1.345144e-08	2.679152e+01	8.849636e+02
1.090000e-06	4.072410e-06	1.367465e-08	2.774302e+01	8.977583e+02
1.100000e-06	4.210552e-06	1.388244e-08	2.868410e+01	9.102344e+02
1.110000e-06	4.347108e-06	1.407848e-08	2.961438e+01	9.229971e+02
1.120000e-06	4.482062e-06	1.426224e-08	3.053375e+01	9.361476e+02
1.130000e-06	4.615479e-06	1.443677e-08	3.144264e+01	9.493222e+02
1.140000e-06	4.747195e-06	1.460642e-08	3.233995e+01	9.619162e+02
1.150000e-06	4.877250e-06	1.477499e-08	3.322594e+01	9.733831e+02
1.160000e-06	5.005605e-06	1.493952e-08	3.410035e+01	9.834787e+02
1.170000e-06	5.132121e-06	1.509339e-08	3.496223e+01	9.923535e+02
1.180000e-06	5.256845e-06	1.523468e-08	3.581190e+01	1.000468e+03
1.190000e-06	5.379732e-06	1.536730e-08	3.664907e+01	1.008383e+03
1.200000e-06	5.500710e-06	1.549692e-08	3.747322e+01	1.016518e+03
1.210000e-06	5.619639e-06	1.562279e-08	3.828342e+01	1.024995e+03
1.220000e-06	5.736373e-06	1.574096e-08	3.907866e+01	1.033611e+03
1.230000e-06	5.850929e-06	1.585280e-08	3.985906e+01	1.041956e+03
1.240000e-06	5.963311e-06	1.596243e-08	4.062466e+01	1.049616e+03
1.250000e-06	6.073609e-06	1.606927e-08	4.137605e+01	1.056355e+03
1.260000e-06	6.181750e-06	1.617032e-08	4.211276e+01	1.062224e+03
1.270000e-06	6.287615e-06	1.626456e-08	4.283395e+01	1.067525e+03
1.280000e-06	6.391231e-06	1.635413e-08	4.353983e+01	1.072680e+03
1.290000e-06	6.492532e-06	1.643933e-08	4.422994e+01	1.078044e+03
1.300000e-06	6.591465e-06	1.652117e-08	4.490392e+01	1.083766e+03
1.310000e-06	6.687994e-06	1.660054e-08	4.556151e+01	1.089731e+03
1.320000e-06	6.782150e-06	1.667770e-08	4.620294e+01	1.095632e+03
1.330000e-06	6.873966e-06	1.675233e-08	4.682843e+01	1.101108e+03
1.340000e-06	6.963353e-06	1.682259e-08	4.743737e+01	1.105908e+03
1.350000e-06	7.050294e-06	1.689061e-08	4.802965e+01	1.109994e+03
1.360000e-06	7.134792e-06	1.695761e-08	4.860529e+01	1.113550e+03
1.370000e-06	7.216782e-06	1.702334e-08	4.916384e+01	1.116896e+03
1.380000e-06	7.296184e-06	1.708548e-08	4.970477e+01	1.120340e+03
1.390000e-06	7.372835e-06	1.714257e-08	5.022694e+01	1.124052e+03
1.400000e-06	7.446713e-06	1.719569e-08	5.073023e+01	1.127994e+03
1.410000e-06	7.517920e-06	1.724567e-08	5.121533e+01	1.131947e+03
1.420000e-06	7.586468e-06	1.729432e-08	5.168231e+01	1.135617e+03
1.430000e-06	7.652338e-06	1.734208e-08	5.213104e+01	1.138769e+03
1.440000e-06	7.715543e-06	1.738768e-08	5.256162e+01	1.141328e+03
1.450000e-06	7.776069e-06	1.743177e-08	5.297395e+01	1.143408e+03
1.460000e-06	7.833819e-06	1.747511e-08	5.336737e+01	1.145259e+03
1.470000e-06	7.888743e-06	1.751317e-08	5.374153e+01	1.147151e+03
1.480000e-06	7.940633e-06	1.754383e-08	5.409503e+01	1.149257e+03
1.490000e-06	7.989339e-06	1.756972e-08	5.442684e+01	1.151578e+03
1.500000e-06	8.035129e-06	1.759408e-08	5.473878e+01	1.153950e+03
1.510000e-06	8.078097e-06	1.761939e-08	5.503149e+01	1.156120e+03
1.520000e-06	8.118126e-06	1.764497e-08	5.530419e+01	1.157863e+03
1.530000e-06	8.155324e-06	1.766955e-08	5.555760e+01	1.159082e+03
1.540000e-06	8.189696e-06	1.769239e-08	5.579176e+01	1.159848e+03
1.550000e-06	8.221180e-06	1.771334e-08	5.600624e+01	1.160368e+03
1.560000e-06	8.249831e-06	1.773063e-08	5.620142e+01	1.160894e+03
1.570000e-06	8.275565e-06	1.774242e-08	5.637674e+01	1.161608e+03
1.580000e-06	8.298342e-06	1.774918e-08	5.653190e+01	1.162547e+03
1.590000e-06	8.318248e-06	1.775503e-08	5.666751e+01	1.163592e+03
1.600000e-06	8.335197e-06	1.776257e-08	5.678297e+01	1.164519e+03
1.610000e-06	8.348988e-06	1.777139e-08	5.687692e+01	1.165109e+03
1.620000e-06	8.359537e-06	1.778001e-08	5.694879e+01	1.165238e+03
1.630000e-06	8.367009e-06	1.778505e-08	5.699969e+01	1.164938e+03
1.640000e-06	8.371562e-06	1.778596e-08	5.703071e+01	1.164379e+03
1.650000e-06	8.373146e-06	1.778452e-08	5.704150e+01	1.163791e+03
1.660000e-06	8.371935e-06	1.777671e-08	5.703324e+01	1.163365e+03
1.670000e-06	8.368020e-06	1.776144e-08	5.700657e+01	1.163165e+03
1.680000e-06	8.361275e-06	1.775180e-08	5.696062e+01	1.163102e+03
1.690000e-06	8.351711e-06	1.774572e-08	5.689548e+01	1.162974e+03
1.700000e-06	8.339143e-06	1.773774e-08	5.680985e+01	1.162557e+03
1.710000e-06	8.323735e-06	1.772954e-08	5.670488e+01	1.161703e+03
1.720000e-06	8.305943e-06	1.772490e-08	5.658368e+01	1.160404e+03
1.730000e-06	8.285586e-06	1.770073e-08	5.644500e+01	1.158800e+03
1.740000e-06	8.262159e-06	1.761350e-08	5.628540e+01	1.157114e+03
1.750000e-06	8.235011e-06	1.758675e-08	5.610046e+01	1.155558e+03
1.760000e-06	8.204002e-06	1.759007e-08	5.588921e+01	1.154245e+03
1.770000e-06	8.169996e-06	1.756740e-08	5.565755e+01	1.153144e+03
1.780000e-06	8.133535e-06	1.756804e-08	5.540916e+01	1.152099e+03
1.790000e-06	8.094754e-06	1.761017e-08	5.514497e+01	1.150899e+03
1.800000e-06	8.053993e-06	1.754696e-08	5.486729e+01	1.149375e+03
1.810000e-06	8.010848e-06	1.748571e-08	5.457337e+01	1.147467e+03
1.820000e-06	7.964757e-06	1.752686e-08	5.425937e+01	1.145240e+03
1.830000e-06	7.915836e-06	1.744044e-08	5.392610e+01	1.142843e+03
1.840000e-06	7.863653e-06	1.744287e-08	5.357061e+01	1.140432e+03
1.850000e-06	7.808294e-06	1.739419e-08	5.319348e+01	1.138084e+03
1.860000e-06	7.750256e-06	1.736272e-08	5.279810e+01	1.135754e+03
1.870000e-06	7.689347e-06	1.737050e-08	5.238317e+01	1.133295e+03
1.880000e-06	7.625740e-06	1.725593e-08	5.194984e+01	1.130520e+03
1.890000e-06	7.559374e-06	1.724019e-08	5.149773e+01	1.127291e+03
1.900000e-06	7.490116e-06	1.711982e-08	5.102592e+01	1.123593e+03
1.910000e-06	7.417965e-06	1.707948e-08	5.053439e+01	1.119546e+03
1.920000e-06	7.342916e-06	1.705250e-08	5.002312e+01	1.115359e+03
1.930000e-06	7.265051e-06	1.697303e-08	4.949267e+01	1.111243e+03
1.940000e-06	7.184498e-06	1.696959e-08	4.894391e+01	1.107316e+03
1.950000e-06	7.101540e-06	1.685871e-08	4.837877e+01	1.103548e+03
1.960000e-06	7.015929e-06	1.681020e-08	4.779554e+01	1.099768e+03
1.970000e-06	6.927650e-06	1.669992e-08	4.719415e+01	1.095736e+03
1.980000e-06	6.837039e-06	1.662566e-08	4.657687e+01	1.091247e+03
1.990000e-06	6.744034e-06	1.657126e-08	4.594328e+01	1.086218e+03
2.000000e-06	6.648631e-06	1.649105e-08	4.529335e+01	1.080725e+03
2.010000e-06	6.550916e-06	1.644460e-08	4.462768e+01	1.074970e+03
2.020000e-06	6.450907e-06	1.633264e-08	4.394637e+01	1.069189e+03
2.030000e-06	6.348407e-06	1.625696e-08	4.324810e+01	1.063544e+03
2.040000e-06	6.243625e-06	1.614250e-08	4.253428e+01	1.058047e+03
2.050000e-06	6.136781e-06	1.605786e-08	4.180641e+01	1.052548e+03
2.060000e-06	6.027761e-06	1.595907e-08	4.106372e+01	1.046803e+03
2.070000e-06	5.916452e-06	1.586531e-08	4.030544e+01	1.040575e+03
2.080000e-06	5.802920e-06	1.577668e-08	3.953201e+01	1.033743e+03
2.090000e-06	5.687160e-06	1.566916e-08	3.874339e+01	1.026361e+03
2.100000e-06	5.569023e-06	1.555329e-08	3.793860e+01	1.018630e+03
2.110000e-06	5.448808e-06	1.542380e-08	3.711964e+01	1.010812e+03
2.120000e-06	5.326771e-06	1.530937e-08	3.628827e+01	1.003107e+03
2.130000e-06	5.202873e-06	1.518517e-08	3.544422e+01	9.955561e+02
2.140000e-06	5.076987e-06	1.507201e-08	3.458664e+01	9.880126e+02
2.150000e-06	4.949227e-06	1.494309e-08	3.371628e+01	9.801996e+02
2.160000e-06	4.819750e-06	1.481483e-08	3.283422e+01	9.718280e+02
2.170000e-06	4.688595e-06	1.467040e-08	3.194074e+01	9.627248e+02
2.180000e-06	4.555792e-06	1.452680e-08	3.103603e+01	9.529138e+02
2.190000e-06	4.421388e-06	1.437684e-08	3.012041e+01	9.426088e+02
2.200000e-06	4.285364e-06	1.422734e-08	2.919375e+01	9.321195e+02
2.210000e-06	4.147765e-06	1.407826e-08	2.825637e+01	9.217081e+02
2.220000e-06	4.008613e-06	1.391921e-08	2.730841e+01	9.114607e+02
2.230000e-06	3.867869e-06	1.375363e-08	2.634960e+01	9.012329e+02
2.240000e-06	3.725623e-06	1.357536e-08	2.538056e+01	8.906980e+02
2.250000e-06	3.581968e-06	1.339285e-08	2.440192e+01	8.794811e+02
2.260000e-06	3.437094e-06	1.320500e-08	2.341497e+01	8.673237e+02
2.270000e-06	3.291087e-06	1.301519e-08	2.242031e+01	8.542022e+02
2.280000e-06	3.143939e-06	1.281952e-08	2.141787e+01	8.403463e+02
2.290000e-06	2.995630e-06	1.261709e-08	2.040753e+01	8.261392e+02
2.300000e-06	2.846197e-06	1.240755e-08	1.938952e+01	8.119404e+02
2.310000e-06	2.695761e-06	1.219106e-08	1.836469e+01	7.979043e+02
2.320000e-06	2.544362e-06	1.196514e-08	1.733330e+01	7.838806e+02
2.330000e-06	2.392028e-06	1.172813e-08	1.629553e+01	7.694457e+02
2.340000e-06	2.238853e-06	1.147938e-08	1.525204e+01	7.540628e+02
2.350000e-06	2.084910e-06	1.122137e-08	1.420331e+01	7.373064e+02
2.360000e-06	1.930211e-06	1.095443e-08	1.314943e+01	7.190528e+02
2.370000e-06	1.774817e-06	1.067565e-08	1.209082e+01	6.995464e+02
2.380000e-06	1.618836e-06	1.038578e-08	1.102821e+01	6.792979e+02
2.390000e-06	1.462276e-06	1.008502e-08	9.961659e+00	6.588453e+02
2.400000e-06	1.305145e-06	9.771646e-09	8.891213e+00	6.384720e+02
2.410000e-06	1.147513e-06	9.438754e-09	7.817357e+00	6.180074e+02
2.420000e-06	9.894683e-07	9.083331e-09	6.740687e+00	5.968096e+02
2.430000e-06	8.311096e-07	8.710872e-09	5.661879e+00	5.739606e+02
2.440000e-06	6.724523e-07	8.322774e-09	4.581036e+00	5.486088e+02
2.450000e-06	5.135249e-07	7.914859e-09	3.498354e+00	5.203206e+02
2.460000e-06	3.544146e-07	7.478059e-09	2.414426e+00	4.892764e+02
2.470000e-06	1.951790e-07	7.008489e-09	1.329644e+00	4.561925e+02
2.480000e-06	3.588084e-08	6.502824e-09	2.444358e-01	4.219511e+02
2.490000e-06	-1.233697e-07	5.957896e-09	-8.404478e-01	3.870451e+02
2.500000e-06	-2.825573e-07	5.369341e-09	-1.924903e+00	3.510386e+02
2.510000e-06	-4.416476e-07	4.727415e-09	-3.008695e+00	3.122753e+02
2.520000e-06	-6.005228e-07	4.014791e-09	-4.091021e+00	2.680056e+02
2.530000e-06	-7.591709e-07	3.213098e-09	-5.171801e+00	2.149715e+02
2.540000e-06	-9.175837e-07	2.295292e-09	-6.250978e+00	1.503231e+02
2.550000e-06	-1.075629e-06	1.213996e-09	-7.327654e+00	7.260741e+01
2.560000e-06	-1.233271e-06	-8.606117e-11	-8.401576e+00	-1.748624e+01
2.570000e-06	-1.390455e-06	-1.627241e-09	-9.472381e+00	-1.168892e+02
2.580000e-06	-1.547102e-06	-3.327233e-09	-1.053953e+01	-2.205441e+02
2.590000e-06	-1.703258e-06	-4.997297e-09	-1.160333e+01	-3.223496e+02
2.600000e-06	-1.858770e-06	-6.456622e-09	-1.266275e+01	-4.164094e+02
2.610000e-06	-2.013498e-06	-7.641709e-09	-1.371682e+01	-4.982350e+02
2.620000e-06	-2.167474e-06	-8.586989e-09	-1.476577e+01	-5.655669e+02
2.630000e-06	-2.320705e-06	-9.352794e-09	-1.580964e+01	-6.185979e+02
2.640000e-06	-2.473134e-06	-9.990507e-09	-1.684806e+01	-6.595703e+02
2.650000e-06	-2.624575e-06	-1.053384e-08	-1.787974e+01	-6.919096e+02
2.660000e-06	-2.774994e-06	-1.100590e-08	-1.890446e+01	-7.191850e+02
2.670000e-06	-2.924460e-06	-1.142583e-08	-1.992269e+01	-7.442168e+02
2.680000e-06	-3.072962e-06	-1.180692e-08	-2.093435e+01	-7.685719e+02
2.690000e-06	-3.220349e-06	-1.215466e-08	-2.193841e+01	-7.925395e+02
2.700000e-06	-3.366533e-06	-1.247324e-08	-2.293428e+01	-8.155148e+02
2.710000e-06	-3.511517e-06	-1.276631e-08	-2.392198e+01	-8.365901e+02
2.720000e-06	-3.655238e-06	-1.303632e-08	-2.490106e+01	-8.551154e+02
2.730000e-06	-3.797654e-06	-1.328548e-08	-2.587126e+01	-8.710310e+02
2.740000e-06	-3.938629e-06	-1.351720e-08	-2.683165e+01	-8.848898e+02
2.750000e-06	-4.078036e-06	-1.373593e-08	-2.778135e+01	-8.976099e+02
2.760000e-06	-4.215886e-06	-1.394671e-08	-2.872044e+01	-9.100964e+02
2.770000e-06	-4.352202e-06	-1.414907e-08	-2.964909e+01	-9.229057e+02
2.780000e-06	-4.486924e-06	-1.433959e-08	-3.056687e+01	-9.360833e+02
2.790000e-06	-4.620048e-06	-1.452040e-08	-3.147377e+01	-9.492267e+02
2.800000e-06	-4.751547e-06	-1.469295e-08	-3.236959e+01	-9.617229e+02
2.810000e-06	-4.881346e-06	-1.485490e-08	-3.325384e+01	-9.730483e+02
2.820000e-06	-5.009452e-06	-1.500504e-08	-3.412656e+01	-9.829998e+02
2.830000e-06	-5.135813e-06	-1.514868e-08	-3.498738e+01	-9.917678e+02
2.840000e-06	-5.260332e-06	-1.528913e-08	-3.583566e+01	-9.998354e+02
2.850000e-06	-5.383001e-06	-1.542449e-08	-3.667133e+01	-1.007758e+03
2.860000e-06	-5.503714e-06	-1.555179e-08	-3.749368e+01	-1.015931e+03
2.870000e-06	-5.622366e-06	-1.567194e-08	-3.830199e+01	-1.024439e+03
2.880000e-06	-5.738836e-06	-1.578838e-08	-3.909544e+01	-1.033048e+03
2.890000e-06	-5.852953e-06	-1.590028e-08	-3.987285e+01	-1.041338e+03
2.900000e-06	-5.964771e-06	-1.600390e-08	-4.063460e+01	-1.048906e+03
2.910000e-06	-6.074380e-06	-1.609965e-08	-4.138131e+01	-1.055545e+03
2.920000e-06	-6.181840e-06	-1.619448e-08	-4.211337e+01	-1.061336e+03
2.930000e-06	-6.287181e-06	-1.629131e-08	-4.283100e+01	-1.066601e+03
2.940000e-06	-6.390261e-06	-1.638612e-08	-4.353322e+01	-1.071764e+03
