# Temperatura_=_74.02
# Concentracion g/m^3_=_13400.0
# C_Vs_to_Am_M_A/Vsm_=_65563218390.804596
# pendiente_HvsI_1/m_=_3716.3
# ordenada_HvsI_A/m_=_1297.0
# frecuencia_Hz_=_301421.9628391355

Tiempo_(s)	Campo_(V.s)	Magnetizacion_(V.s)	Campo_(kA/m)	Magnetizacion_(A/m)
0.000000e+00	-8.337867e-06	-1.793838e-08	-5.691850e+01	-1.176494e+03
1.000000e-08	-8.334369e-06	-1.793891e-08	-5.689462e+01	-1.176327e+03
2.000000e-08	-8.328178e-06	-1.793028e-08	-5.685235e+01	-1.176288e+03
3.000000e-08	-8.319350e-06	-1.791968e-08	-5.679209e+01	-1.176162e+03
4.000000e-08	-8.307596e-06	-1.791032e-08	-5.671185e+01	-1.175717e+03
5.000000e-08	-8.292720e-06	-1.789978e-08	-5.661030e+01	-1.174804e+03
6.000000e-08	-8.274895e-06	-1.788098e-08	-5.648862e+01	-1.173428e+03
7.000000e-08	-8.254570e-06	-1.784715e-08	-5.634987e+01	-1.171745e+03
8.000000e-08	-8.231707e-06	-1.785347e-08	-5.619379e+01	-1.169995e+03
9.000000e-08	-8.205637e-06	-1.791204e-08	-5.601583e+01	-1.168402e+03
1.000000e-07	-8.176194e-06	-1.787321e-08	-5.581483e+01	-1.167078e+03
1.100000e-07	-8.143728e-06	-1.780148e-08	-5.559321e+01	-1.165982e+03
1.200000e-07	-8.108298e-06	-1.777413e-08	-5.535134e+01	-1.164937e+03
1.300000e-07	-8.070166e-06	-1.774465e-08	-5.509104e+01	-1.163717e+03
1.400000e-07	-8.029766e-06	-1.764985e-08	-5.481524e+01	-1.162141e+03
1.500000e-07	-7.986892e-06	-1.760279e-08	-5.452257e+01	-1.160146e+03
1.600000e-07	-7.941184e-06	-1.769312e-08	-5.421054e+01	-1.157808e+03
1.700000e-07	-7.892685e-06	-1.756598e-08	-5.387946e+01	-1.155292e+03
1.800000e-07	-7.841159e-06	-1.758889e-08	-5.352772e+01	-1.152764e+03
1.900000e-07	-7.786510e-06	-1.758810e-08	-5.315465e+01	-1.150308e+03
2.000000e-07	-7.729104e-06	-1.744257e-08	-5.276278e+01	-1.147875e+03
2.100000e-07	-7.668894e-06	-1.742849e-08	-5.235175e+01	-1.145303e+03
2.200000e-07	-7.605946e-06	-1.732624e-08	-5.192203e+01	-1.142390e+03
2.300000e-07	-7.540279e-06	-1.733280e-08	-5.147376e+01	-1.138992e+03
2.400000e-07	-7.471766e-06	-1.728266e-08	-5.100605e+01	-1.135093e+03
2.500000e-07	-7.400504e-06	-1.722832e-08	-5.051958e+01	-1.130827e+03
2.600000e-07	-7.326356e-06	-1.720010e-08	-5.001341e+01	-1.126426e+03
2.700000e-07	-7.249357e-06	-1.712278e-08	-4.948778e+01	-1.122120e+03
2.800000e-07	-7.169538e-06	-1.705508e-08	-4.894289e+01	-1.118036e+03
2.900000e-07	-7.087000e-06	-1.693556e-08	-4.837945e+01	-1.114140e+03
3.000000e-07	-7.002135e-06	-1.689941e-08	-4.780012e+01	-1.110244e+03
3.100000e-07	-6.914965e-06	-1.684160e-08	-4.720505e+01	-1.106083e+03
3.200000e-07	-6.825336e-06	-1.677390e-08	-4.659320e+01	-1.101429e+03
3.300000e-07	-6.733213e-06	-1.672341e-08	-4.596432e+01	-1.096190e+03
3.400000e-07	-6.638702e-06	-1.661427e-08	-4.531913e+01	-1.090451e+03
3.500000e-07	-6.541800e-06	-1.653618e-08	-4.465764e+01	-1.084435e+03
3.600000e-07	-6.442433e-06	-1.644713e-08	-4.397931e+01	-1.078406e+03
3.700000e-07	-6.340754e-06	-1.635820e-08	-4.328520e+01	-1.072549e+03
3.800000e-07	-6.236887e-06	-1.625676e-08	-4.257615e+01	-1.066886e+03
3.900000e-07	-6.130762e-06	-1.617327e-08	-4.185168e+01	-1.061258e+03
4.000000e-07	-6.022372e-06	-1.609102e-08	-4.111176e+01	-1.055397e+03
4.100000e-07	-5.911856e-06	-1.598132e-08	-4.035732e+01	-1.049039e+03
4.200000e-07	-5.799183e-06	-1.587466e-08	-3.958816e+01	-1.042045e+03
4.300000e-07	-5.684183e-06	-1.575726e-08	-3.880311e+01	-1.034461e+03
4.400000e-07	-5.566864e-06	-1.565621e-08	-3.800223e+01	-1.026503e+03
4.500000e-07	-5.447480e-06	-1.554825e-08	-3.718725e+01	-1.018457e+03
4.600000e-07	-5.326220e-06	-1.543408e-08	-3.635947e+01	-1.010547e+03
4.700000e-07	-5.203007e-06	-1.530989e-08	-3.551836e+01	-1.002827e+03
4.800000e-07	-5.077852e-06	-1.518108e-08	-3.466399e+01	-9.951469e+02
4.900000e-07	-4.950890e-06	-1.504957e-08	-3.379728e+01	-9.872097e+02
5.000000e-07	-4.822234e-06	-1.490876e-08	-3.291901e+01	-9.786966e+02
5.100000e-07	-4.691852e-06	-1.476442e-08	-3.202895e+01	-9.694097e+02
5.200000e-07	-4.559729e-06	-1.461959e-08	-3.112701e+01	-9.593644e+02
5.300000e-07	-4.425988e-06	-1.447699e-08	-3.021404e+01	-9.487870e+02
5.400000e-07	-4.290662e-06	-1.432808e-08	-2.929023e+01	-9.380176e+02
5.500000e-07	-4.153808e-06	-1.416824e-08	-2.835599e+01	-9.273544e+02
5.600000e-07	-4.015357e-06	-1.400169e-08	-2.741086e+01	-9.169102e+02
5.700000e-07	-3.875241e-06	-1.383017e-08	-2.645436e+01	-9.065455e+02
5.800000e-07	-3.733616e-06	-1.365331e-08	-2.548755e+01	-8.959132e+02
5.900000e-07	-3.590565e-06	-1.346890e-08	-2.451101e+01	-8.845998e+02
6.000000e-07	-3.446107e-06	-1.328004e-08	-2.352487e+01	-8.723048e+02
6.100000e-07	-3.300325e-06	-1.308738e-08	-2.252969e+01	-8.589775e+02
6.200000e-07	-3.153327e-06	-1.289130e-08	-2.152620e+01	-8.448472e+02
6.300000e-07	-3.005283e-06	-1.268505e-08	-2.051558e+01	-8.303267e+02
6.400000e-07	-2.856293e-06	-1.246605e-08	-1.949850e+01	-8.158242e+02
6.500000e-07	-2.706361e-06	-1.224220e-08	-1.847499e+01	-8.015440e+02
6.600000e-07	-2.555532e-06	-1.201092e-08	-1.744535e+01	-7.873663e+02
6.700000e-07	-2.403786e-06	-1.177142e-08	-1.640946e+01	-7.728660e+02
6.800000e-07	-2.251191e-06	-1.152082e-08	-1.536777e+01	-7.574716e+02
6.900000e-07	-2.097814e-06	-1.126222e-08	-1.432074e+01	-7.407028e+02
7.000000e-07	-1.943590e-06	-1.099515e-08	-1.326793e+01	-7.223830e+02
7.100000e-07	-1.788593e-06	-1.071833e-08	-1.220984e+01	-7.027272e+02
7.200000e-07	-1.632966e-06	-1.042793e-08	-1.114745e+01	-6.822537e+02
7.300000e-07	-1.476769e-06	-1.012295e-08	-1.008117e+01	-6.615434e+02
7.400000e-07	-1.319976e-06	-9.802554e-09	-9.010822e+00	-6.409416e+02
7.500000e-07	-1.162598e-06	-9.467557e-09	-7.936480e+00	-6.203332e+02
7.600000e-07	-1.004725e-06	-9.117855e-09	-6.858759e+00	-5.991024e+02
7.700000e-07	-8.464703e-07	-8.745339e-09	-5.778435e+00	-5.763144e+02
7.800000e-07	-6.879851e-07	-8.353372e-09	-4.696534e+00	-5.510645e+02
7.900000e-07	-5.293050e-07	-7.939423e-09	-3.613304e+00	-5.228505e+02
8.000000e-07	-3.704115e-07	-7.499458e-09	-2.528617e+00	-4.918004e+02
8.100000e-07	-2.114310e-07	-7.025869e-09	-1.443335e+00	-4.586223e+02
8.200000e-07	-5.243407e-08	-6.518606e-09	-3.579415e-01	-4.242472e+02
8.300000e-07	1.065917e-07	-5.978233e-09	7.276488e-01	-3.892639e+02
8.400000e-07	2.655483e-07	-5.395910e-09	1.812767e+00	-3.533487e+02
8.500000e-07	4.243669e-07	-4.755944e-09	2.896943e+00	-3.149315e+02
8.600000e-07	5.830759e-07	-4.039283e-09	3.980371e+00	-2.712820e+02
8.700000e-07	7.416421e-07	-3.234360e-09	5.062824e+00	-2.190720e+02
8.800000e-07	8.999600e-07	-2.313222e-09	6.143583e+00	-1.552967e+02
8.900000e-07	1.057975e-06	-1.226054e-09	7.222271e+00	-7.829591e+01
9.000000e-07	1.215621e-06	8.617458e-11	8.298442e+00	1.144813e+01
9.100000e-07	1.372814e-06	1.638490e-09	9.371525e+00	1.110174e+02
9.200000e-07	1.529445e-06	3.344703e-09	1.044077e+01	2.154059e+02
9.300000e-07	1.685436e-06	5.017980e-09	1.150564e+01	3.184490e+02
9.400000e-07	1.840824e-06	6.480926e-09	1.256640e+01	4.140874e+02
9.500000e-07	1.995544e-06	7.669677e-09	1.362260e+01	4.976131e+02
9.600000e-07	2.149453e-06	8.614005e-09	1.467325e+01	5.665456e+02
9.700000e-07	2.302478e-06	9.377660e-09	1.571788e+01	6.209075e+02
9.800000e-07	2.454651e-06	1.001495e-08	1.675669e+01	6.628556e+02
9.900000e-07	2.606014e-06	1.056391e-08	1.778997e+01	6.958222e+02
1.000000e-06	2.756479e-06	1.104103e-08	1.881712e+01	7.234571e+02
1.010000e-06	2.905966e-06	1.145738e-08	1.983759e+01	7.486994e+02
1.020000e-06	3.054433e-06	1.183053e-08	2.085110e+01	7.732324e+02
1.030000e-06	3.201855e-06	1.217342e-08	2.185748e+01	7.974285e+02
1.040000e-06	3.348103e-06	1.249280e-08	2.285584e+01	8.207162e+02
1.050000e-06	3.493082e-06	1.278519e-08	2.384554e+01	8.421755e+02
1.060000e-06	3.636793e-06	1.305626e-08	2.482659e+01	8.611143e+02
1.070000e-06	3.779201e-06	1.331324e-08	2.579874e+01	8.774248e+02
1.080000e-06	3.920174e-06	1.355762e-08	2.676109e+01	8.916244e+02
1.090000e-06	4.059620e-06	1.378616e-08	2.771302e+01	9.046189e+02
1.100000e-06	4.197510e-06	1.399633e-08	2.865433e+01	9.173241e+02
1.110000e-06	4.333827e-06	1.419188e-08	2.958490e+01	9.303209e+02
1.120000e-06	4.468643e-06	1.437855e-08	3.050522e+01	9.436811e+02
1.130000e-06	4.601867e-06	1.455955e-08	3.141467e+01	9.570202e+02
1.140000e-06	4.733415e-06	1.473301e-08	3.231269e+01	9.697309e+02
1.150000e-06	4.863218e-06	1.490082e-08	3.319879e+01	9.812843e+02
1.160000e-06	4.991304e-06	1.506320e-08	3.407316e+01	9.914671e+02
1.170000e-06	5.117706e-06	1.521956e-08	3.493605e+01	1.000461e+03
1.180000e-06	5.242292e-06	1.536650e-08	3.578654e+01	1.008747e+03
1.190000e-06	5.364980e-06	1.550407e-08	3.662407e+01	1.016882e+03
1.200000e-06	5.485729e-06	1.563439e-08	3.744836e+01	1.025267e+03
1.210000e-06	5.604489e-06	1.576085e-08	3.825908e+01	1.033991e+03
1.220000e-06	5.721054e-06	1.588427e-08	3.905481e+01	1.042821e+03
1.230000e-06	5.835333e-06	1.600259e-08	3.983493e+01	1.051332e+03
1.240000e-06	5.947477e-06	1.611448e-08	4.060048e+01	1.059112e+03
1.250000e-06	6.057628e-06	1.621931e-08	4.135243e+01	1.065950e+03
1.260000e-06	6.165718e-06	1.632046e-08	4.209031e+01	1.071923e+03
1.270000e-06	6.271513e-06	1.641923e-08	4.281252e+01	1.077359e+03
1.280000e-06	6.374999e-06	1.651393e-08	4.351897e+01	1.082686e+03
1.290000e-06	6.476173e-06	1.660270e-08	4.420963e+01	1.088253e+03
1.300000e-06	6.574927e-06	1.668621e-08	4.488378e+01	1.094184e+03
1.310000e-06	6.671269e-06	1.676545e-08	4.554146e+01	1.100338e+03
1.320000e-06	6.765311e-06	1.684228e-08	4.618344e+01	1.106388e+03
1.330000e-06	6.857071e-06	1.691829e-08	4.680984e+01	1.111971e+03
1.340000e-06	6.946390e-06	1.699276e-08	4.741957e+01	1.116851e+03
1.350000e-06	7.033287e-06	1.706498e-08	4.801278e+01	1.121016e+03
1.360000e-06	7.117742e-06	1.713505e-08	4.858930e+01	1.124677e+03
1.370000e-06	7.199622e-06	1.720364e-08	4.914826e+01	1.128169e+03
1.380000e-06	7.278911e-06	1.726728e-08	4.968953e+01	1.131804e+03
1.390000e-06	7.355532e-06	1.732420e-08	5.021258e+01	1.135737e+03
1.400000e-06	7.429403e-06	1.737720e-08	5.071687e+01	1.139906e+03
1.410000e-06	7.500610e-06	1.742924e-08	5.120296e+01	1.144073e+03
1.420000e-06	7.569148e-06	1.748069e-08	5.167084e+01	1.147932e+03
1.430000e-06	7.634889e-06	1.753063e-08	5.211961e+01	1.151248e+03
1.440000e-06	7.697922e-06	1.758065e-08	5.254991e+01	1.153959e+03
1.450000e-06	7.758362e-06	1.763047e-08	5.296250e+01	1.156194e+03
1.460000e-06	7.816070e-06	1.767712e-08	5.335645e+01	1.158213e+03
1.470000e-06	7.870935e-06	1.771558e-08	5.373099e+01	1.160286e+03
1.480000e-06	7.922733e-06	1.774578e-08	5.408458e+01	1.162574e+03
1.490000e-06	7.971345e-06	1.777183e-08	5.441643e+01	1.165064e+03
1.500000e-06	8.017080e-06	1.779806e-08	5.472865e+01	1.167578e+03
1.510000e-06	8.060014e-06	1.782525e-08	5.502173e+01	1.169859e+03
1.520000e-06	8.100073e-06	1.785199e-08	5.529520e+01	1.171691e+03
1.530000e-06	8.137353e-06	1.787778e-08	5.554969e+01	1.172992e+03
1.540000e-06	8.171770e-06	1.790209e-08	5.578464e+01	1.173852e+03
1.550000e-06	8.203241e-06	1.792634e-08	5.599947e+01	1.174490e+03
1.560000e-06	8.231867e-06	1.794688e-08	5.619489e+01	1.175153e+03
1.570000e-06	8.257536e-06	1.796025e-08	5.637012e+01	1.176009e+03
1.580000e-06	8.280269e-06	1.796796e-08	5.652530e+01	1.177072e+03
1.590000e-06	8.300213e-06	1.797447e-08	5.666145e+01	1.178200e+03
1.600000e-06	8.317235e-06	1.798165e-08	5.677765e+01	1.179161e+03
1.610000e-06	8.331168e-06	1.798791e-08	5.687277e+01	1.179742e+03
1.620000e-06	8.341835e-06	1.799360e-08	5.694559e+01	1.179839e+03
1.630000e-06	8.349374e-06	1.799943e-08	5.699705e+01	1.179513e+03
1.640000e-06	8.354094e-06	1.800521e-08	5.702928e+01	1.178952e+03
1.650000e-06	8.355885e-06	1.800667e-08	5.704150e+01	1.178397e+03
1.660000e-06	8.354784e-06	1.799869e-08	5.703398e+01	1.178026e+03
1.670000e-06	8.350952e-06	1.798046e-08	5.700782e+01	1.177880e+03
1.680000e-06	8.344315e-06	1.797161e-08	5.696252e+01	1.177843e+03
1.690000e-06	8.334880e-06	1.796464e-08	5.689811e+01	1.177692e+03
1.700000e-06	8.322507e-06	1.795173e-08	5.681364e+01	1.177201e+03
1.710000e-06	8.307249e-06	1.794039e-08	5.670948e+01	1.176235e+03
1.720000e-06	8.289511e-06	1.793968e-08	5.658839e+01	1.174816e+03
1.730000e-06	8.269312e-06	1.793352e-08	5.645051e+01	1.173113e+03
1.740000e-06	8.246123e-06	1.781460e-08	5.629220e+01	1.171370e+03
1.750000e-06	8.219208e-06	1.778185e-08	5.610847e+01	1.169802e+03
1.760000e-06	8.188420e-06	1.780544e-08	5.589830e+01	1.168507e+03
1.770000e-06	8.154591e-06	1.777479e-08	5.566736e+01	1.167426e+03
1.780000e-06	8.118320e-06	1.775823e-08	5.541976e+01	1.166373e+03
1.790000e-06	8.079735e-06	1.784067e-08	5.515636e+01	1.165122e+03
1.800000e-06	8.039177e-06	1.776841e-08	5.487949e+01	1.163500e+03
1.810000e-06	7.996280e-06	1.767536e-08	5.458666e+01	1.161463e+03
1.820000e-06	7.950366e-06	1.777287e-08	5.427322e+01	1.159096e+03
1.830000e-06	7.901608e-06	1.761879e-08	5.394037e+01	1.156571e+03
1.840000e-06	7.849660e-06	1.765709e-08	5.358575e+01	1.154049e+03
1.850000e-06	7.794530e-06	1.760167e-08	5.320940e+01	1.151600e+03
1.860000e-06	7.736735e-06	1.753378e-08	5.281487e+01	1.149160e+03
1.870000e-06	7.676053e-06	1.760746e-08	5.240062e+01	1.146561e+03
1.880000e-06	7.612626e-06	1.742629e-08	5.196764e+01	1.143600e+03
1.890000e-06	7.546456e-06	1.743608e-08	5.151592e+01	1.140146e+03
1.900000e-06	7.477394e-06	1.731450e-08	5.104447e+01	1.136198e+03
1.910000e-06	7.405444e-06	1.725053e-08	5.055331e+01	1.131906e+03
1.920000e-06	7.330643e-06	1.723822e-08	5.004268e+01	1.127504e+03
1.930000e-06	7.253113e-06	1.714174e-08	4.951342e+01	1.123218e+03
1.940000e-06	7.172879e-06	1.717106e-08	4.896570e+01	1.119158e+03
1.950000e-06	7.090176e-06	1.701349e-08	4.840113e+01	1.115273e+03
1.960000e-06	7.004831e-06	1.698843e-08	4.781852e+01	1.111361e+03
1.970000e-06	6.916827e-06	1.687093e-08	4.721776e+01	1.107156e+03
1.980000e-06	6.826515e-06	1.677087e-08	4.660124e+01	1.102440e+03
1.990000e-06	6.733819e-06	1.674915e-08	4.596845e+01	1.097140e+03
2.000000e-06	6.638700e-06	1.664661e-08	4.531913e+01	1.091358e+03
2.010000e-06	6.541233e-06	1.661887e-08	4.465376e+01	1.085328e+03
2.020000e-06	6.441485e-06	1.648102e-08	4.397283e+01	1.079311e+03
2.030000e-06	6.339279e-06	1.641015e-08	4.327513e+01	1.073477e+03
2.040000e-06	6.234764e-06	1.628169e-08	4.256166e+01	1.067827e+03
2.050000e-06	6.128154e-06	1.619402e-08	4.183388e+01	1.062187e+03
2.060000e-06	6.019446e-06	1.610281e-08	4.109178e+01	1.056284e+03
2.070000e-06	5.908509e-06	1.600354e-08	4.033447e+01	1.049861e+03
2.080000e-06	5.795260e-06	1.591938e-08	3.956138e+01	1.042797e+03
2.090000e-06	5.679809e-06	1.579572e-08	3.877325e+01	1.035161e+03
2.100000e-06	5.562016e-06	1.568509e-08	3.796914e+01	1.027179e+03
2.110000e-06	5.442085e-06	1.554702e-08	3.715042e+01	1.019138e+03
2.120000e-06	5.320281e-06	1.543267e-08	3.631893e+01	1.011249e+03
2.130000e-06	5.196653e-06	1.530376e-08	3.547498e+01	1.003543e+03
2.140000e-06	5.071101e-06	1.519132e-08	3.461790e+01	9.958515e+02
2.150000e-06	4.943638e-06	1.505475e-08	3.374777e+01	9.878663e+02
2.160000e-06	4.814406e-06	1.492624e-08	3.286557e+01	9.792760e+02
2.170000e-06	4.683536e-06	1.478063e-08	3.197219e+01	9.699025e+02
2.180000e-06	4.551077e-06	1.463433e-08	3.106796e+01	9.597857e+02
2.190000e-06	4.416939e-06	1.447735e-08	3.015226e+01	9.491704e+02
2.200000e-06	4.281130e-06	1.432199e-08	2.922516e+01	9.383998e+02
2.210000e-06	4.143760e-06	1.416807e-08	2.828740e+01	9.277585e+02
2.220000e-06	4.004950e-06	1.400397e-08	2.733982e+01	9.173334e+02
2.230000e-06	3.864626e-06	1.383863e-08	2.638190e+01	9.069588e+02
2.240000e-06	3.722767e-06	1.365731e-08	2.541349e+01	8.962723e+02
2.250000e-06	3.579446e-06	1.347700e-08	2.443511e+01	8.848641e+02
2.260000e-06	3.434829e-06	1.328399e-08	2.344788e+01	8.724553e+02
2.270000e-06	3.289023e-06	1.309095e-08	2.245254e+01	8.590260e+02
2.280000e-06	3.142122e-06	1.288932e-08	2.144972e+01	8.448320e+02
2.290000e-06	2.994177e-06	1.268467e-08	2.043977e+01	8.302955e+02
2.300000e-06	2.845176e-06	1.247059e-08	1.942261e+01	8.158117e+02
2.310000e-06	2.695159e-06	1.225142e-08	1.839852e+01	8.015538e+02
2.320000e-06	2.544163e-06	1.202027e-08	1.736775e+01	7.873657e+02
2.330000e-06	2.392221e-06	1.177717e-08	1.633051e+01	7.727969e+02
2.340000e-06	2.239337e-06	1.152316e-08	1.528685e+01	7.572738e+02
2.350000e-06	2.085636e-06	1.126280e-08	1.423760e+01	7.403401e+02
2.360000e-06	1.931240e-06	1.099628e-08	1.318362e+01	7.218596e+02
2.370000e-06	1.776177e-06	1.071792e-08	1.212508e+01	7.020874e+02
2.380000e-06	1.620502e-06	1.042743e-08	1.106237e+01	6.815620e+02
2.390000e-06	1.464279e-06	1.012306e-08	9.995910e+00	6.608530e+02
2.400000e-06	1.307546e-06	9.802996e-09	8.925968e+00	6.402648e+02
2.410000e-06	1.150301e-06	9.461233e-09	7.852539e+00	6.196267e+02
2.420000e-06	9.926071e-07	9.101761e-09	6.776038e+00	5.982759e+02
2.430000e-06	8.345916e-07	8.729591e-09	5.697344e+00	5.752628e+02
2.440000e-06	6.762877e-07	8.343975e-09	4.616682e+00	5.497088e+02
2.450000e-06	5.177460e-07	7.934702e-09	3.534396e+00	5.211725e+02
2.460000e-06	3.589955e-07	7.494453e-09	2.450685e+00	4.898521e+02
2.470000e-06	2.000556e-07	7.020407e-09	1.365680e+00	4.565017e+02
2.480000e-06	4.107033e-08	6.510260e-09	2.803668e-01	4.220446e+02
2.490000e-06	-1.178248e-07	5.959375e-09	-8.043318e-01	3.869968e+02
2.500000e-06	-2.766512e-07	5.364851e-09	-1.888561e+00	3.509111e+02
2.510000e-06	-4.353554e-07	4.718721e-09	-2.971956e+00	3.120802e+02
2.520000e-06	-5.938526e-07	4.006132e-09	-4.053938e+00	2.676751e+02
2.530000e-06	-7.521415e-07	3.205866e-09	-5.134499e+00	2.143538e+02
2.540000e-06	-9.101596e-07	2.284384e-09	-6.213210e+00	1.492079e+02
2.550000e-06	-1.067824e-06	1.193540e-09	-7.289506e+00	7.077543e+01
2.560000e-06	-1.225083e-06	-1.218728e-10	-8.363037e+00	-2.020344e+01
2.570000e-06	-1.381806e-06	-1.680608e-09	-9.432908e+00	-1.205589e+02
2.580000e-06	-1.537929e-06	-3.397199e-09	-1.049868e+01	-2.251079e+02
2.590000e-06	-1.693577e-06	-5.079791e-09	-1.156122e+01	-3.276337e+02
2.600000e-06	-1.848737e-06	-6.544473e-09	-1.262041e+01	-4.221662e+02
2.610000e-06	-2.003241e-06	-7.727453e-09	-1.367514e+01	-5.042033e+02
2.620000e-06	-2.157022e-06	-8.668926e-09	-1.472493e+01	-5.715311e+02
2.630000e-06	-2.310054e-06	-9.433901e-09	-1.576960e+01	-6.244293e+02
2.640000e-06	-2.462233e-06	-1.007314e-08	-1.680845e+01	-6.652387e+02
2.650000e-06	-2.613449e-06	-1.061868e-08	-1.784072e+01	-6.974658e+02
2.660000e-06	-2.763653e-06	-1.109313e-08	-1.886609e+01	-7.247235e+02
2.670000e-06	-2.912792e-06	-1.151517e-08	-1.988419e+01	-7.498341e+02
2.680000e-06	-3.060856e-06	-1.189616e-08	-2.089495e+01	-7.743347e+02
2.690000e-06	-3.207896e-06	-1.224199e-08	-2.189872e+01	-7.984727e+02
2.700000e-06	-3.353874e-06	-1.256015e-08	-2.289524e+01	-8.216094e+02
2.710000e-06	-3.498712e-06	-1.285428e-08	-2.388398e+01	-8.428238e+02
2.720000e-06	-3.642265e-06	-1.312463e-08	-2.486394e+01	-8.614749e+02
2.730000e-06	-3.784412e-06	-1.337468e-08	-2.583431e+01	-8.775253e+02
2.740000e-06	-3.925042e-06	-1.361156e-08	-2.679432e+01	-8.915494e+02
2.750000e-06	-4.064143e-06	-1.383949e-08	-2.774390e+01	-9.044730e+02
2.760000e-06	-4.201810e-06	-1.405654e-08	-2.868368e+01	-9.171905e+02
2.770000e-06	-4.337935e-06	-1.426034e-08	-2.961294e+01	-9.302325e+02
2.780000e-06	-4.472473e-06	-1.445077e-08	-3.053136e+01	-9.436157e+02
2.790000e-06	-4.605387e-06	-1.463138e-08	-3.143870e+01	-9.569182e+02
2.800000e-06	-4.736640e-06	-1.480513e-08	-3.233470e+01	-9.695266e+02
2.810000e-06	-4.866260e-06	-1.496881e-08	-3.321955e+01	-9.809369e+02
2.820000e-06	-4.994164e-06	-1.512131e-08	-3.409269e+01	-9.909775e+02
2.830000e-06	-5.120244e-06	-1.526922e-08	-3.495337e+01	-9.998698e+02
2.840000e-06	-5.244501e-06	-1.541634e-08	-3.580162e+01	-1.008114e+03
2.850000e-06	-5.367000e-06	-1.555675e-08	-3.663786e+01	-1.016262e+03
2.860000e-06	-5.487610e-06	-1.568375e-08	-3.746120e+01	-1.024686e+03
2.870000e-06	-5.606094e-06	-1.580213e-08	-3.827004e+01	-1.033438e+03
2.880000e-06	-5.722358e-06	-1.592033e-08	-3.906371e+01	-1.042256e+03
2.890000e-06	-5.836376e-06	-1.603663e-08	-3.984206e+01	-1.050706e+03
2.900000e-06	-5.948026e-06	-1.614422e-08	-4.060423e+01	-1.058392e+03
2.910000e-06	-6.057428e-06	-1.624392e-08	-4.135106e+01	-1.065128e+03
2.920000e-06	-6.164766e-06	-1.634098e-08	-4.208381e+01	-1.071025e+03
2.930000e-06	-6.270050e-06	-1.643860e-08	-4.280253e+01	-1.076429e+03
2.940000e-06	-6.373078e-06	-1.653494e-08	-4.350585e+01	-1.081769e+03
