# Temperatura_=_30.05
# Concentracion g/m^3_=_13400.0
# C_Vs_to_Am_M_A/Vsm_=_65563218390.804596
# pendiente_HvsI_1/m_=_3716.3
# ordenada_HvsI_A/m_=_1297.0
# frecuencia_Hz_=_301416.3529060211

Tiempo_(s)	Campo_(V.s)	Magnetizacion_(V.s)	Campo_(kA/m)	Magnetizacion_(A/m)
0.000000e+00	-8.339487e-06	-1.659597e-08	-5.692452e+01	-1.088314e+03
1.000000e-08	-8.336190e-06	-1.660204e-08	-5.690201e+01	-1.087924e+03
2.000000e-08	-8.330169e-06	-1.659913e-08	-5.686092e+01	-1.087717e+03
3.000000e-08	-8.321509e-06	-1.659012e-08	-5.680180e+01	-1.087606e+03
4.000000e-08	-8.309932e-06	-1.657875e-08	-5.672278e+01	-1.087415e+03
5.000000e-08	-8.295302e-06	-1.656685e-08	-5.662292e+01	-1.086960e+03
6.000000e-08	-8.277746e-06	-1.654982e-08	-5.650308e+01	-1.086135e+03
7.000000e-08	-8.257670e-06	-1.651761e-08	-5.636604e+01	-1.084959e+03
8.000000e-08	-8.235108e-06	-1.651826e-08	-5.621203e+01	-1.083574e+03
9.000000e-08	-8.209360e-06	-1.660566e-08	-5.603629e+01	-1.082186e+03
1.000000e-07	-8.180149e-06	-1.657192e-08	-5.583689e+01	-1.080976e+03
1.100000e-07	-8.147791e-06	-1.648583e-08	-5.561602e+01	-1.080025e+03
1.200000e-07	-8.112475e-06	-1.647646e-08	-5.537496e+01	-1.079281e+03
1.300000e-07	-8.074514e-06	-1.646788e-08	-5.511584e+01	-1.078580e+03
1.400000e-07	-8.034338e-06	-1.636988e-08	-5.484160e+01	-1.077719e+03
1.500000e-07	-7.991734e-06	-1.630088e-08	-5.455079e+01	-1.076537e+03
1.600000e-07	-7.946255e-06	-1.645651e-08	-5.424036e+01	-1.074983e+03
1.700000e-07	-7.897932e-06	-1.631176e-08	-5.391051e+01	-1.073121e+03
1.800000e-07	-7.846566e-06	-1.631842e-08	-5.355989e+01	-1.071100e+03
1.900000e-07	-7.792041e-06	-1.637396e-08	-5.318770e+01	-1.069067e+03
2.000000e-07	-7.734710e-06	-1.620541e-08	-5.279637e+01	-1.067103e+03
2.100000e-07	-7.674638e-06	-1.622775e-08	-5.238632e+01	-1.065174e+03
2.200000e-07	-7.611896e-06	-1.613835e-08	-5.195806e+01	-1.063152e+03
2.300000e-07	-7.546442e-06	-1.615181e-08	-5.151127e+01	-1.060874e+03
2.400000e-07	-7.478114e-06	-1.612492e-08	-5.104487e+01	-1.058218e+03
2.500000e-07	-7.407027e-06	-1.605749e-08	-5.055964e+01	-1.055172e+03
2.600000e-07	-7.333152e-06	-1.605005e-08	-5.005537e+01	-1.051841e+03
2.700000e-07	-7.256420e-06	-1.597177e-08	-4.953161e+01	-1.048412e+03
2.800000e-07	-7.176864e-06	-1.593867e-08	-4.898856e+01	-1.045068e+03
2.900000e-07	-7.094565e-06	-1.584529e-08	-4.842680e+01	-1.041910e+03
3.000000e-07	-7.009847e-06	-1.582701e-08	-4.784853e+01	-1.038902e+03
3.100000e-07	-6.922894e-06	-1.579406e-08	-4.725499e+01	-1.035882e+03
3.200000e-07	-6.833514e-06	-1.571693e-08	-4.664489e+01	-1.032626e+03
3.300000e-07	-6.741609e-06	-1.569153e-08	-4.601756e+01	-1.028945e+03
3.400000e-07	-6.647304e-06	-1.559346e-08	-4.537384e+01	-1.024762e+03
3.500000e-07	-6.550606e-06	-1.554046e-08	-4.471379e+01	-1.020148e+03
3.600000e-07	-6.451479e-06	-1.547581e-08	-4.403716e+01	-1.015291e+03
3.700000e-07	-6.349996e-06	-1.541159e-08	-4.334445e+01	-1.010411e+03
3.800000e-07	-6.246245e-06	-1.533506e-08	-4.263625e+01	-1.005664e+03
3.900000e-07	-6.140218e-06	-1.526111e-08	-4.191252e+01	-1.001069e+03
4.000000e-07	-6.031939e-06	-1.519879e-08	-4.117342e+01	-9.964918e+02
4.100000e-07	-5.921548e-06	-1.509950e-08	-4.041991e+01	-9.917068e+02
4.200000e-07	-5.809005e-06	-1.501893e-08	-3.965169e+01	-9.864892e+02
4.300000e-07	-5.694169e-06	-1.492478e-08	-3.886784e+01	-9.807156e+02
4.400000e-07	-5.577043e-06	-1.485259e-08	-3.806835e+01	-9.744180e+02
4.500000e-07	-5.457842e-06	-1.476787e-08	-3.725469e+01	-9.677694e+02
4.600000e-07	-5.336719e-06	-1.467178e-08	-3.642792e+01	-9.610053e+02
4.700000e-07	-5.213652e-06	-1.456402e-08	-3.558788e+01	-9.543147e+02
4.800000e-07	-5.088718e-06	-1.445500e-08	-3.473509e+01	-9.477491e+02
4.900000e-07	-4.961996e-06	-1.434894e-08	-3.387010e+01	-9.411912e+02
5.000000e-07	-4.833485e-06	-1.422891e-08	-3.299289e+01	-9.343993e+02
5.100000e-07	-4.703222e-06	-1.411216e-08	-3.210373e+01	-9.271092e+02
5.200000e-07	-4.571268e-06	-1.399430e-08	-3.120303e+01	-9.191496e+02
5.300000e-07	-4.437695e-06	-1.387829e-08	-3.029127e+01	-9.105189e+02
5.400000e-07	-4.302541e-06	-1.374792e-08	-2.936872e+01	-9.013869e+02
5.500000e-07	-4.165799e-06	-1.360973e-08	-2.843533e+01	-8.920181e+02
5.600000e-07	-4.027498e-06	-1.346770e-08	-2.749131e+01	-8.826482e+02
5.700000e-07	-3.887537e-06	-1.332281e-08	-2.653595e+01	-8.733676e+02
5.800000e-07	-3.745950e-06	-1.317217e-08	-2.556948e+01	-8.640666e+02
5.900000e-07	-3.602966e-06	-1.300991e-08	-2.459349e+01	-8.544684e+02
6.000000e-07	-3.458654e-06	-1.284538e-08	-2.360843e+01	-8.442414e+02
6.100000e-07	-3.313015e-06	-1.267482e-08	-2.261432e+01	-8.331406e+02
6.200000e-07	-3.166174e-06	-1.250258e-08	-2.161199e+01	-8.211174e+02
6.300000e-07	-3.018263e-06	-1.232115e-08	-2.060237e+01	-8.083440e+02
6.400000e-07	-2.869348e-06	-1.213079e-08	-1.958589e+01	-7.951372e+02
6.500000e-07	-2.719529e-06	-1.193702e-08	-1.856323e+01	-7.818100e+02
6.600000e-07	-2.568755e-06	-1.173180e-08	-1.753407e+01	-7.685140e+02
6.700000e-07	-2.417035e-06	-1.151130e-08	-1.649844e+01	-7.551449e+02
6.800000e-07	-2.264455e-06	-1.127648e-08	-1.545695e+01	-7.413589e+02
6.900000e-07	-2.111004e-06	-1.103931e-08	-1.440950e+01	-7.266994e+02
7.000000e-07	-1.956736e-06	-1.079730e-08	-1.335649e+01	-7.107837e+02
7.100000e-07	-1.801781e-06	-1.054652e-08	-1.229878e+01	-6.934693e+02
7.200000e-07	-1.646205e-06	-1.028339e-08	-1.123683e+01	-6.749195e+02
7.300000e-07	-1.490043e-06	-1.000917e-08	-1.017089e+01	-6.555287e+02
7.400000e-07	-1.333315e-06	-9.717722e-09	-9.101074e+00	-6.357291e+02
7.500000e-07	-1.176039e-06	-9.403252e-09	-8.027526e+00	-6.157556e+02
7.600000e-07	-1.018294e-06	-9.068997e-09	-6.950776e+00	-5.954728e+02
7.700000e-07	-8.601925e-07	-8.719478e-09	-5.871589e+00	-5.743523e+02
7.800000e-07	-7.018467e-07	-8.359049e-09	-4.790736e+00	-5.516260e+02
7.900000e-07	-5.432418e-07	-7.977582e-09	-3.708115e+00	-5.265694e+02
8.000000e-07	-3.844046e-07	-7.570962e-09	-2.623908e+00	-4.987958e+02
8.100000e-07	-2.254365e-07	-7.134982e-09	-1.538808e+00	-4.684277e+02
8.200000e-07	-6.643298e-08	-6.668741e-09	-4.534650e-01	-4.360401e+02
8.300000e-07	9.260714e-08	-6.167085e-09	6.321272e-01	-4.023573e+02
8.400000e-07	2.516454e-07	-5.628280e-09	1.717707e+00	-3.677893e+02
8.500000e-07	4.105986e-07	-5.047465e-09	2.802706e+00	-3.319746e+02
8.600000e-07	5.694055e-07	-4.414859e-09	3.886706e+00	-2.935257e+02
8.700000e-07	7.279493e-07	-3.721604e-09	4.968910e+00	-2.501247e+02
8.800000e-07	8.861806e-07	-2.944758e-09	6.048982e+00	-1.990066e+02
8.900000e-07	1.044065e-06	-2.054052e-09	7.126685e+00	-1.377306e+02
9.000000e-07	1.201604e-06	-1.007324e-09	8.202029e+00	-6.502254e+01
9.100000e-07	1.358717e-06	2.323033e-10	9.274467e+00	1.857748e+01
9.200000e-07	1.515282e-06	1.669013e-09	1.034317e+01	1.104905e+02
9.300000e-07	1.671289e-06	3.220924e-09	1.140805e+01	2.064049e+02
9.400000e-07	1.826653e-06	4.735293e-09	1.246855e+01	3.010586e+02
9.500000e-07	1.981400e-06	6.076268e-09	1.352484e+01	3.892932e+02
9.600000e-07	2.135537e-06	7.190487e-09	1.457696e+01	4.670860e+02
9.700000e-07	2.288878e-06	8.101767e-09	1.562365e+01	5.322742e+02
9.800000e-07	2.441284e-06	8.853944e-09	1.666396e+01	5.847819e+02
9.900000e-07	2.592795e-06	9.487731e-09	1.769817e+01	6.263176e+02
1.000000e-06	2.743418e-06	1.002988e-08	1.872630e+01	6.596686e+02
1.010000e-06	2.892970e-06	1.049830e-08	1.974713e+01	6.878343e+02
1.020000e-06	3.041455e-06	1.090955e-08	2.076067e+01	7.132643e+02
1.030000e-06	3.188914e-06	1.127601e-08	2.176721e+01	7.374083e+02
1.040000e-06	3.335238e-06	1.160818e-08	2.276600e+01	7.606655e+02
1.050000e-06	3.480374e-06	1.191111e-08	2.375669e+01	7.826751e+02
1.060000e-06	3.624264e-06	1.219322e-08	2.473887e+01	8.027920e+02
1.070000e-06	3.766800e-06	1.245614e-08	2.571181e+01	8.205468e+02
1.080000e-06	3.907862e-06	1.269785e-08	2.667468e+01	8.359275e+02
1.090000e-06	4.047463e-06	1.291935e-08	2.762759e+01	8.494074e+02
1.100000e-06	4.185572e-06	1.312591e-08	2.857030e+01	8.617520e+02
1.110000e-06	4.322051e-06	1.332040e-08	2.950189e+01	8.737144e+02
1.120000e-06	4.456949e-06	1.350230e-08	3.042269e+01	8.857620e+02
1.130000e-06	4.590258e-06	1.367437e-08	3.133265e+01	8.979431e+02
1.140000e-06	4.721911e-06	1.384057e-08	3.223130e+01	9.099377e+02
1.150000e-06	4.851882e-06	1.400310e-08	3.311847e+01	9.212524e+02
1.160000e-06	4.980077e-06	1.415494e-08	3.399351e+01	9.314676e+02
1.170000e-06	5.106536e-06	1.429436e-08	3.485671e+01	9.404279e+02
1.180000e-06	5.231252e-06	1.442375e-08	3.570801e+01	9.483041e+02
1.190000e-06	5.354098e-06	1.454793e-08	3.654654e+01	9.555097e+02
1.200000e-06	5.475017e-06	1.466707e-08	3.737192e+01	9.625200e+02
1.210000e-06	5.593936e-06	1.477920e-08	3.818366e+01	9.696780e+02
1.220000e-06	5.710768e-06	1.488417e-08	3.898114e+01	9.770692e+02
1.230000e-06	5.825390e-06	1.498576e-08	3.976354e+01	9.845152e+02
1.240000e-06	5.937757e-06	1.508520e-08	4.053055e+01	9.916798e+02
1.250000e-06	6.048019e-06	1.517868e-08	4.128318e+01	9.982352e+02
1.260000e-06	6.156201e-06	1.526699e-08	4.202162e+01	1.004013e+03
1.270000e-06	6.262172e-06	1.535249e-08	4.274497e+01	1.009076e+03
1.280000e-06	6.365872e-06	1.543552e-08	4.345281e+01	1.013686e+03
1.290000e-06	6.467255e-06	1.551102e-08	4.414485e+01	1.018186e+03
1.300000e-06	6.566312e-06	1.558084e-08	4.482100e+01	1.022846e+03
1.310000e-06	6.662952e-06	1.565045e-08	4.548065e+01	1.027758e+03
1.320000e-06	6.757218e-06	1.571924e-08	4.612411e+01	1.032802e+03
1.330000e-06	6.849186e-06	1.578449e-08	4.675187e+01	1.037711e+03
1.340000e-06	6.938706e-06	1.584555e-08	4.736292e+01	1.042192e+03
1.350000e-06	7.025760e-06	1.590633e-08	4.795715e+01	1.046060e+03
1.360000e-06	7.110430e-06	1.596736e-08	4.853509e+01	1.049312e+03
1.370000e-06	7.192616e-06	1.602381e-08	4.909609e+01	1.052126e+03
1.380000e-06	7.272234e-06	1.607320e-08	4.963956e+01	1.054778e+03
1.390000e-06	7.349184e-06	1.611781e-08	5.016481e+01	1.057523e+03
1.400000e-06	7.423289e-06	1.616156e-08	5.067064e+01	1.060485e+03
1.410000e-06	7.494673e-06	1.620541e-08	5.115790e+01	1.063619e+03
1.420000e-06	7.563497e-06	1.624567e-08	5.162768e+01	1.066734e+03
1.430000e-06	7.629612e-06	1.628301e-08	5.207898e+01	1.069589e+03
1.440000e-06	7.692990e-06	1.631971e-08	5.251159e+01	1.072002e+03
1.450000e-06	7.753702e-06	1.635649e-08	5.292601e+01	1.073930e+03
1.460000e-06	7.811611e-06	1.639194e-08	5.332128e+01	1.075484e+03
1.470000e-06	7.866751e-06	1.642228e-08	5.369766e+01	1.076872e+03
1.480000e-06	7.918873e-06	1.644706e-08	5.405345e+01	1.078309e+03
1.490000e-06	7.967719e-06	1.646787e-08	5.438687e+01	1.079921e+03
1.500000e-06	8.013655e-06	1.648816e-08	5.470042e+01	1.081689e+03
1.510000e-06	8.056817e-06	1.650677e-08	5.499504e+01	1.083468e+03
1.520000e-06	8.097080e-06	1.652382e-08	5.526987e+01	1.085051e+03
1.530000e-06	8.134551e-06	1.654276e-08	5.552565e+01	1.086271e+03
1.540000e-06	8.169209e-06	1.656260e-08	5.576221e+01	1.087071e+03
1.550000e-06	8.200970e-06	1.658188e-08	5.597901e+01	1.087533e+03
1.560000e-06	8.229945e-06	1.659692e-08	5.617679e+01	1.087841e+03
1.570000e-06	8.255993e-06	1.660602e-08	5.635459e+01	1.088195e+03
1.580000e-06	8.279044e-06	1.661069e-08	5.651194e+01	1.088728e+03
1.590000e-06	8.299244e-06	1.661455e-08	5.664982e+01	1.089443e+03
1.600000e-06	8.316532e-06	1.661991e-08	5.676783e+01	1.090219e+03
1.610000e-06	8.330744e-06	1.662601e-08	5.686484e+01	1.090866e+03
1.620000e-06	8.341766e-06	1.663200e-08	5.694007e+01	1.091209e+03
1.630000e-06	8.349679e-06	1.663640e-08	5.699408e+01	1.091170e+03
1.640000e-06	8.354644e-06	1.664087e-08	5.702797e+01	1.090800e+03
1.650000e-06	8.356625e-06	1.664430e-08	5.704150e+01	1.090255e+03
1.660000e-06	8.355760e-06	1.664177e-08	5.703559e+01	1.089728e+03
1.670000e-06	8.352194e-06	1.661965e-08	5.701125e+01	1.089357e+03
1.680000e-06	8.345761e-06	1.660852e-08	5.696734e+01	1.089167e+03
1.690000e-06	8.336560e-06	1.660601e-08	5.690454e+01	1.089056e+03
1.700000e-06	8.324462e-06	1.660042e-08	5.682195e+01	1.088844e+03
1.710000e-06	8.309423e-06	1.659619e-08	5.671930e+01	1.088352e+03
1.720000e-06	8.291934e-06	1.660309e-08	5.659992e+01	1.087484e+03
1.730000e-06	8.272045e-06	1.661791e-08	5.646416e+01	1.086277e+03
1.740000e-06	8.249192e-06	1.648350e-08	5.630817e+01	1.084881e+03
1.750000e-06	8.222606e-06	1.644069e-08	5.612670e+01	1.083504e+03
1.760000e-06	8.192109e-06	1.649566e-08	5.591853e+01	1.082319e+03
1.770000e-06	8.158464e-06	1.646688e-08	5.568887e+01	1.081395e+03
1.780000e-06	8.122359e-06	1.643555e-08	5.544242e+01	1.080664e+03
1.790000e-06	8.083935e-06	1.655593e-08	5.518014e+01	1.079955e+03
1.800000e-06	8.043519e-06	1.651069e-08	5.490427e+01	1.079064e+03
1.810000e-06	8.000848e-06	1.635036e-08	5.461300e+01	1.077842e+03
1.820000e-06	7.955192e-06	1.651554e-08	5.430136e+01	1.076249e+03
1.830000e-06	7.906719e-06	1.636137e-08	5.397048e+01	1.074362e+03
1.840000e-06	7.855080e-06	1.638573e-08	5.361800e+01	1.072332e+03
1.850000e-06	7.800169e-06	1.638328e-08	5.324319e+01	1.070304e+03
1.860000e-06	7.742596e-06	1.625936e-08	5.285020e+01	1.068346e+03
1.870000e-06	7.682169e-06	1.640210e-08	5.243773e+01	1.066414e+03
1.880000e-06	7.619037e-06	1.620063e-08	5.200679e+01	1.064372e+03
1.890000e-06	7.553144e-06	1.623753e-08	5.155702e+01	1.062057e+03
1.900000e-06	7.484351e-06	1.616781e-08	5.108744e+01	1.059358e+03
1.910000e-06	7.412739e-06	1.607836e-08	5.059863e+01	1.056273e+03
1.920000e-06	7.338211e-06	1.612846e-08	5.008991e+01	1.052921e+03
1.930000e-06	7.260907e-06	1.599135e-08	4.956224e+01	1.049492e+03
1.940000e-06	7.180921e-06	1.605195e-08	4.901626e+01	1.046166e+03
1.950000e-06	7.098447e-06	1.589842e-08	4.845330e+01	1.043027e+03
1.960000e-06	7.013363e-06	1.589297e-08	4.787253e+01	1.040026e+03
1.970000e-06	6.925655e-06	1.583924e-08	4.727384e+01	1.036991e+03
1.980000e-06	6.835583e-06	1.572729e-08	4.665902e+01	1.033697e+03
1.990000e-06	6.743088e-06	1.575428e-08	4.602766e+01	1.029963e+03
2.000000e-06	6.648194e-06	1.562998e-08	4.537992e+01	1.025727e+03
2.010000e-06	6.550960e-06	1.562544e-08	4.471621e+01	1.021075e+03
2.020000e-06	6.451455e-06	1.549521e-08	4.403699e+01	1.016204e+03
2.030000e-06	6.349521e-06	1.545102e-08	4.334120e+01	1.011333e+03
2.040000e-06	6.245193e-06	1.536297e-08	4.262907e+01	1.006604e+03
2.050000e-06	6.138705e-06	1.529250e-08	4.190220e+01	1.002018e+03
2.060000e-06	6.030124e-06	1.523746e-08	4.116103e+01	9.974298e+02
2.070000e-06	5.919333e-06	1.513696e-08	4.040478e+01	9.926074e+02
2.080000e-06	5.806258e-06	1.507810e-08	3.963294e+01	9.873330e+02
2.090000e-06	5.690997e-06	1.496150e-08	3.884619e+01	9.814981e+02
2.100000e-06	5.573442e-06	1.487966e-08	3.804376e+01	9.751519e+02
2.110000e-06	5.453703e-06	1.476693e-08	3.722644e+01	9.684789e+02
2.120000e-06	5.331986e-06	1.468557e-08	3.639561e+01	9.617147e+02
2.130000e-06	5.208464e-06	1.458149e-08	3.555246e+01	9.550373e+02
2.140000e-06	5.083125e-06	1.448963e-08	3.469691e+01	9.484802e+02
2.150000e-06	4.955939e-06	1.437295e-08	3.382875e+01	9.419095e+02
2.160000e-06	4.826969e-06	1.426089e-08	3.294841e+01	9.350755e+02
2.170000e-06	4.696266e-06	1.414315e-08	3.205625e+01	9.277186e+02
2.180000e-06	4.563905e-06	1.402275e-08	3.115276e+01	9.196831e+02
2.190000e-06	4.429931e-06	1.389928e-08	3.023827e+01	9.109873e+02
2.200000e-06	4.294352e-06	1.376593e-08	2.931283e+01	9.018159e+02
2.210000e-06	4.157090e-06	1.363762e-08	2.837589e+01	8.924368e+02
2.220000e-06	4.018308e-06	1.349117e-08	2.742858e+01	8.830748e+02
2.230000e-06	3.878050e-06	1.334854e-08	2.647119e+01	8.738001e+02
2.240000e-06	3.736314e-06	1.318966e-08	2.550371e+01	8.644818e+02
2.250000e-06	3.593192e-06	1.303800e-08	2.452677e+01	8.548311e+02
2.260000e-06	3.448763e-06	1.287816e-08	2.354091e+01	8.445187e+02
2.270000e-06	3.303089e-06	1.271297e-08	2.254656e+01	8.333166e+02
2.280000e-06	3.156288e-06	1.253280e-08	2.154451e+01	8.212005e+02
2.290000e-06	3.008370e-06	1.234313e-08	2.053484e+01	8.083635e+02
2.300000e-06	2.859331e-06	1.214950e-08	1.951751e+01	7.951298e+02
2.310000e-06	2.709377e-06	1.195308e-08	1.849394e+01	7.818021e+02
2.320000e-06	2.558501e-06	1.174848e-08	1.746407e+01	7.685072e+02
2.330000e-06	2.406667e-06	1.153173e-08	1.642767e+01	7.551126e+02
2.340000e-06	2.253899e-06	1.130774e-08	1.538489e+01	7.412545e+02
2.350000e-06	2.100288e-06	1.107609e-08	1.433636e+01	7.264749e+02
2.360000e-06	1.945939e-06	1.083376e-08	1.328279e+01	7.104101e+02
2.370000e-06	1.790988e-06	1.057529e-08	1.222511e+01	6.929496e+02
2.380000e-06	1.635473e-06	1.030377e-08	1.116358e+01	6.742876e+02
2.390000e-06	1.479297e-06	1.002182e-08	1.009753e+01	6.548331e+02
2.400000e-06	1.322492e-06	9.726404e-09	9.027202e+00	6.350084e+02
2.410000e-06	1.165147e-06	9.414014e-09	7.953176e+00	6.150149e+02
2.420000e-06	1.007394e-06	9.087197e-09	6.876374e+00	5.946731e+02
2.430000e-06	8.493489e-07	8.746653e-09	5.797572e+00	5.734184e+02
2.440000e-06	6.910116e-07	8.384624e-09	4.716777e+00	5.504727e+02
2.450000e-06	5.324079e-07	7.996296e-09	3.634164e+00	5.251345e+02
2.460000e-06	3.736384e-07	7.582628e-09	2.550419e+00	4.970670e+02
2.470000e-06	2.147545e-07	7.143008e-09	1.465893e+00	4.664484e+02
2.480000e-06	5.579992e-08	6.673332e-09	3.808848e-01	4.338880e+02
2.490000e-06	-1.031223e-07	6.167690e-09	-7.039024e-01	4.001002e+02
2.500000e-06	-2.619780e-07	5.625690e-09	-1.788236e+00	3.654322e+02
2.510000e-06	-4.207573e-07	5.043880e-09	-2.872048e+00	3.294195e+02
2.520000e-06	-5.793624e-07	4.412768e-09	-3.954671e+00	2.905635e+02
2.530000e-06	-7.377484e-07	3.715037e-09	-5.035798e+00	2.464686e+02
2.540000e-06	-8.959155e-07	2.932243e-09	-6.115431e+00	1.943644e+02
2.550000e-06	-1.053785e-06	2.038753e-09	-7.193036e+00	1.318960e+02
2.560000e-06	-1.211290e-06	9.932192e-10	-8.268143e+00	5.795846e+01
2.570000e-06	-1.368327e-06	-2.485902e-10	-9.340064e+00	-2.669135e+01
2.580000e-06	-1.524743e-06	-1.690732e-09	-1.040775e+01	-1.192648e+02
2.590000e-06	-1.680502e-06	-3.248770e-09	-1.147094e+01	-2.153039e+02
2.600000e-06	-1.835630e-06	-4.767163e-09	-1.252983e+01	-3.095053e+02
2.610000e-06	-1.990168e-06	-6.111241e-09	-1.358469e+01	-3.967859e+02
2.620000e-06	-2.144060e-06	-7.230801e-09	-1.463514e+01	-4.732955e+02
2.630000e-06	-2.297084e-06	-8.143871e-09	-1.567967e+01	-5.370936e+02
2.640000e-06	-2.449179e-06	-8.895585e-09	-1.671785e+01	-5.883188e+02
2.650000e-06	-2.600424e-06	-9.528399e-09	-1.775023e+01	-6.288338e+02
2.660000e-06	-2.750778e-06	-1.007261e-08	-1.877654e+01	-6.614907e+02
2.670000e-06	-2.900165e-06	-1.054622e-08	-1.979624e+01	-6.892621e+02
2.680000e-06	-3.048461e-06	-1.096285e-08	-2.080849e+01	-7.145052e+02
2.690000e-06	-3.195635e-06	-1.133386e-08	-2.181309e+01	-7.385527e+02
2.700000e-06	-3.341728e-06	-1.166858e-08	-2.281031e+01	-7.617034e+02
2.710000e-06	-3.486646e-06	-1.197304e-08	-2.379950e+01	-7.835421e+02
2.720000e-06	-3.630227e-06	-1.225083e-08	-2.477957e+01	-8.034225e+02
2.730000e-06	-3.772463e-06	-1.250638e-08	-2.575046e+01	-8.209150e+02
2.740000e-06	-3.913332e-06	-1.274500e-08	-2.671202e+01	-8.360627e+02
2.750000e-06	-4.052695e-06	-1.297359e-08	-2.766330e+01	-8.493826e+02
2.760000e-06	-4.190544e-06	-1.319181e-08	-2.860424e+01	-8.616540e+02
2.770000e-06	-4.326806e-06	-1.339208e-08	-2.953435e+01	-8.736109e+02
2.780000e-06	-4.461456e-06	-1.357422e-08	-3.045346e+01	-8.856787e+02
2.790000e-06	-4.594606e-06	-1.374507e-08	-3.136233e+01	-8.978609e+02
2.800000e-06	-4.726107e-06	-1.390881e-08	-3.225994e+01	-9.098077e+02
2.810000e-06	-4.855898e-06	-1.406346e-08	-3.314588e+01	-9.210220e+02
2.820000e-06	-4.984027e-06	-1.420695e-08	-3.402048e+01	-9.311051e+02
2.830000e-06	-5.110382e-06	-1.434519e-08	-3.488296e+01	-9.399363e+02
2.840000e-06	-5.234901e-06	-1.448160e-08	-3.573292e+01	-9.477188e+02
2.850000e-06	-5.357551e-06	-1.461111e-08	-3.657011e+01	-9.548823e+02
2.860000e-06	-5.478237e-06	-1.472705e-08	-3.739391e+01	-9.618967e+02
2.870000e-06	-5.596885e-06	-1.483231e-08	-3.820378e+01	-9.690813e+02
2.880000e-06	-5.713437e-06	-1.493652e-08	-3.899936e+01	-9.764916e+02
2.890000e-06	-5.827671e-06	-1.503908e-08	-3.977911e+01	-9.839256e+02
2.900000e-06	-5.939530e-06	-1.513442e-08	-4.054265e+01	-9.910396e+02
2.910000e-06	-6.049151e-06	-1.522337e-08	-4.129091e+01	-9.975165e+02
2.920000e-06	-6.156618e-06	-1.531252e-08	-4.202447e+01	-1.003211e+03
2.930000e-06	-6.261998e-06	-1.540390e-08	-4.274378e+01	-1.008211e+03
2.940000e-06	-6.365174e-06	-1.549180e-08	-4.344805e+01	-1.012794e+03
