# Temperatura_=_58.25
# Concentracion g/m^3_=_13400.0
# C_Vs_to_Am_M_A/Vsm_=_65563218390.804596
# pendiente_HvsI_1/m_=_3716.3
# ordenada_HvsI_A/m_=_1297.0
# frecuencia_Hz_=_301420.02794332453

Tiempo_(s)	Campo_(V.s)	Magnetizacion_(V.s)	Campo_(kA/m)	Magnetizacion_(A/m)
0.000000e+00	-8.378394e-06	-1.723399e-08	-5.691784e+01	-1.130580e+03
1.000000e-08	-8.374789e-06	-1.723951e-08	-5.689335e+01	-1.130445e+03
2.000000e-08	-8.368512e-06	-1.723285e-08	-5.685070e+01	-1.130453e+03
3.000000e-08	-8.359577e-06	-1.721982e-08	-5.679001e+01	-1.130405e+03
4.000000e-08	-8.347664e-06	-1.720772e-08	-5.670908e+01	-1.130074e+03
5.000000e-08	-8.332704e-06	-1.719759e-08	-5.660745e+01	-1.129309e+03
6.000000e-08	-8.314867e-06	-1.718215e-08	-5.648628e+01	-1.128099e+03
7.000000e-08	-8.294492e-06	-1.715532e-08	-5.634786e+01	-1.126587e+03
8.000000e-08	-8.271511e-06	-1.715998e-08	-5.619174e+01	-1.125008e+03
9.000000e-08	-8.245290e-06	-1.721653e-08	-5.601361e+01	-1.123591e+03
1.000000e-07	-8.215682e-06	-1.718393e-08	-5.581247e+01	-1.122463e+03
1.100000e-07	-8.182959e-06	-1.711583e-08	-5.559017e+01	-1.121597e+03
1.200000e-07	-8.147311e-06	-1.709351e-08	-5.534799e+01	-1.120829e+03
1.300000e-07	-8.109047e-06	-1.707445e-08	-5.508806e+01	-1.119926e+03
1.400000e-07	-8.068438e-06	-1.698969e-08	-5.481218e+01	-1.118688e+03
1.500000e-07	-8.025299e-06	-1.692902e-08	-5.451912e+01	-1.117027e+03
1.600000e-07	-7.979336e-06	-1.703286e-08	-5.420688e+01	-1.114995e+03
1.700000e-07	-7.930524e-06	-1.691596e-08	-5.387527e+01	-1.112747e+03
1.800000e-07	-7.878676e-06	-1.692051e-08	-5.352305e+01	-1.110458e+03
1.900000e-07	-7.823713e-06	-1.694697e-08	-5.314966e+01	-1.108237e+03
2.000000e-07	-7.765944e-06	-1.680816e-08	-5.275721e+01	-1.106069e+03
2.100000e-07	-7.705390e-06	-1.680313e-08	-5.234585e+01	-1.103821e+03
2.200000e-07	-7.642089e-06	-1.671921e-08	-5.191582e+01	-1.101302e+03
2.300000e-07	-7.576051e-06	-1.671679e-08	-5.146720e+01	-1.098362e+03
2.400000e-07	-7.507180e-06	-1.666297e-08	-5.099933e+01	-1.094962e+03
2.500000e-07	-7.435523e-06	-1.660508e-08	-5.051253e+01	-1.091209e+03
2.600000e-07	-7.360971e-06	-1.659086e-08	-5.000607e+01	-1.087313e+03
2.700000e-07	-7.283566e-06	-1.652308e-08	-4.948023e+01	-1.083501e+03
2.800000e-07	-7.203373e-06	-1.647917e-08	-4.893544e+01	-1.079913e+03
2.900000e-07	-7.120499e-06	-1.638044e-08	-4.837245e+01	-1.076536e+03
3.000000e-07	-7.035222e-06	-1.633957e-08	-4.779312e+01	-1.073204e+03
3.100000e-07	-6.947596e-06	-1.629003e-08	-4.719785e+01	-1.069659e+03
3.200000e-07	-6.857528e-06	-1.621936e-08	-4.658598e+01	-1.065662e+03
3.300000e-07	-6.764944e-06	-1.617162e-08	-4.595701e+01	-1.061098e+03
3.400000e-07	-6.669943e-06	-1.608098e-08	-4.531164e+01	-1.056022e+03
3.500000e-07	-6.572544e-06	-1.602660e-08	-4.464996e+01	-1.050639e+03
3.600000e-07	-6.472748e-06	-1.595603e-08	-4.397201e+01	-1.045215e+03
3.700000e-07	-6.370648e-06	-1.587542e-08	-4.327840e+01	-1.039957e+03
3.800000e-07	-6.266235e-06	-1.577930e-08	-4.256908e+01	-1.034917e+03
3.900000e-07	-6.159475e-06	-1.569204e-08	-4.184382e+01	-1.029969e+03
4.000000e-07	-6.050498e-06	-1.561508e-08	-4.110349e+01	-1.024855e+03
4.100000e-07	-5.939372e-06	-1.551597e-08	-4.034857e+01	-1.019297e+03
4.200000e-07	-5.825975e-06	-1.542920e-08	-3.957822e+01	-1.013122e+03
4.300000e-07	-5.710320e-06	-1.533411e-08	-3.879253e+01	-1.006332e+03
4.400000e-07	-5.592494e-06	-1.524948e-08	-3.799209e+01	-9.991131e+02
4.500000e-07	-5.472624e-06	-1.515150e-08	-3.717776e+01	-9.917442e+02
4.600000e-07	-5.350765e-06	-1.503909e-08	-3.634992e+01	-9.844753e+02
4.700000e-07	-5.226973e-06	-1.491665e-08	-3.550895e+01	-9.774076e+02
4.800000e-07	-5.101318e-06	-1.479756e-08	-3.465533e+01	-9.704402e+02
4.900000e-07	-4.973882e-06	-1.468397e-08	-3.378961e+01	-9.633054e+02
5.000000e-07	-4.844623e-06	-1.456035e-08	-3.291150e+01	-9.556815e+02
5.100000e-07	-4.713567e-06	-1.443482e-08	-3.202118e+01	-9.473333e+02
5.200000e-07	-4.580824e-06	-1.430597e-08	-3.111940e+01	-9.382181e+02
5.300000e-07	-4.446409e-06	-1.417342e-08	-3.020626e+01	-9.285085e+02
5.400000e-07	-4.310437e-06	-1.402853e-08	-2.928255e+01	-9.185177e+02
5.500000e-07	-4.172816e-06	-1.387737e-08	-2.834763e+01	-9.085573e+02
5.600000e-07	-4.033542e-06	-1.372436e-08	-2.740149e+01	-8.987891e+02
5.700000e-07	-3.892759e-06	-1.356865e-08	-2.644510e+01	-8.891390e+02
5.800000e-07	-3.750412e-06	-1.340717e-08	-2.547808e+01	-8.793125e+02
5.900000e-07	-3.606523e-06	-1.323651e-08	-2.450058e+01	-8.689124e+02
6.000000e-07	-3.461281e-06	-1.306190e-08	-2.351389e+01	-8.576081e+02
6.100000e-07	-3.314851e-06	-1.288204e-08	-2.251913e+01	-8.452825e+02
6.200000e-07	-3.167295e-06	-1.269801e-08	-2.151673e+01	-8.320900e+02
6.300000e-07	-3.018684e-06	-1.250268e-08	-2.050715e+01	-8.183910e+02
6.400000e-07	-2.869072e-06	-1.229733e-08	-1.949077e+01	-8.045890e+02
6.500000e-07	-2.718442e-06	-1.208590e-08	-1.846748e+01	-7.909356e+02
6.600000e-07	-2.566841e-06	-1.186605e-08	-1.743760e+01	-7.773926e+02
6.700000e-07	-2.414319e-06	-1.163692e-08	-1.640145e+01	-7.636162e+02
6.800000e-07	-2.260842e-06	-1.139738e-08	-1.535882e+01	-7.490798e+02
6.900000e-07	-2.106452e-06	-1.115381e-08	-1.430999e+01	-7.332889e+02
7.000000e-07	-1.951308e-06	-1.090216e-08	-1.325603e+01	-7.159958e+02
7.100000e-07	-1.795529e-06	-1.063848e-08	-1.219776e+01	-6.973158e+02
7.200000e-07	-1.639145e-06	-1.035724e-08	-1.113538e+01	-6.776817e+02
7.300000e-07	-1.482197e-06	-1.006148e-08	-1.006916e+01	-6.576433e+02
7.400000e-07	-1.324692e-06	-9.753612e-09	-8.999169e+00	-6.375889e+02
7.500000e-07	-1.166644e-06	-9.430725e-09	-7.925487e+00	-6.175077e+02
7.600000e-07	-1.008167e-06	-9.091841e-09	-6.848891e+00	-5.969071e+02
7.700000e-07	-8.493738e-07	-8.733070e-09	-5.770142e+00	-5.749407e+02
7.800000e-07	-6.903488e-07	-8.356951e-09	-4.689820e+00	-5.507109e+02
7.900000e-07	-5.310810e-07	-7.956591e-09	-3.607849e+00	-5.236290e+02
8.000000e-07	-3.716114e-07	-7.528228e-09	-2.524508e+00	-4.936722e+02
8.100000e-07	-2.120743e-07	-7.068151e-09	-1.440707e+00	-4.613993e+02
8.200000e-07	-5.249811e-08	-6.573154e-09	-3.566410e-01	-4.276733e+02
8.300000e-07	1.070713e-07	-6.041178e-09	7.273787e-01	-3.931585e+02
8.400000e-07	2.665768e-07	-5.469372e-09	1.810964e+00	-3.577651e+02
8.500000e-07	4.260291e-07	-4.848989e-09	2.894189e+00	-3.202695e+02
8.600000e-07	5.853705e-07	-4.163472e-09	3.976660e+00	-2.783016e+02
8.700000e-07	7.445209e-07	-3.394548e-09	5.057833e+00	-2.287819e+02
8.800000e-07	9.034507e-07	-2.513620e-09	6.137508e+00	-1.687340e+02
8.900000e-07	1.062136e-06	-1.483546e-09	7.215523e+00	-9.625261e+01
9.000000e-07	1.220488e-06	-2.506170e-10	8.291272e+00	-1.132688e+01
9.100000e-07	1.378386e-06	1.212831e-09	9.363940e+00	8.376267e+01
9.200000e-07	1.535675e-06	2.848593e-09	1.043246e+01	1.846379e+02
9.300000e-07	1.692311e-06	4.492537e-09	1.149656e+01	2.855927e+02
9.400000e-07	1.848351e-06	5.966787e-09	1.255660e+01	3.807410e+02
9.500000e-07	2.003794e-06	7.186390e-09	1.361259e+01	4.652243e+02
9.600000e-07	2.158571e-06	8.167226e-09	1.466405e+01	5.361390e+02
9.700000e-07	2.312538e-06	8.965917e-09	1.571001e+01	5.929342e+02
9.800000e-07	2.465616e-06	9.628120e-09	1.674993e+01	6.371968e+02
9.900000e-07	2.617752e-06	1.019130e-08	1.778345e+01	6.719310e+02
1.000000e-06	2.768950e-06	1.067655e-08	1.881060e+01	7.005844e+02
1.010000e-06	2.919120e-06	1.110166e-08	1.983077e+01	7.261277e+02
1.020000e-06	3.068168e-06	1.147962e-08	2.084331e+01	7.504496e+02
1.030000e-06	3.216161e-06	1.182148e-08	2.184869e+01	7.741995e+02
1.040000e-06	3.363103e-06	1.213730e-08	2.284693e+01	7.970506e+02
1.050000e-06	3.508851e-06	1.242785e-08	2.383705e+01	8.182209e+02
1.060000e-06	3.653298e-06	1.269707e-08	2.481834e+01	8.370282e+02
1.070000e-06	3.796419e-06	1.294599e-08	2.579062e+01	8.532747e+02
1.080000e-06	3.938116e-06	1.317793e-08	2.675322e+01	8.673485e+02
1.090000e-06	4.078305e-06	1.339588e-08	2.770558e+01	8.800523e+02
1.100000e-06	4.216991e-06	1.360249e-08	2.864774e+01	8.922684e+02
1.110000e-06	4.354059e-06	1.379687e-08	2.957889e+01	9.046219e+02
1.120000e-06	4.489461e-06	1.397817e-08	3.049874e+01	9.172812e+02
1.130000e-06	4.623281e-06	1.415112e-08	3.140783e+01	9.299642e+02
1.140000e-06	4.755490e-06	1.431898e-08	3.230598e+01	9.421286e+02
1.150000e-06	4.886012e-06	1.448065e-08	3.319267e+01	9.532480e+02
1.160000e-06	5.014721e-06	1.463247e-08	3.406704e+01	9.630539e+02
1.170000e-06	5.141635e-06	1.477545e-08	3.492922e+01	9.716434e+02
1.180000e-06	5.266770e-06	1.491082e-08	3.577931e+01	9.794217e+02
1.190000e-06	5.390093e-06	1.504051e-08	3.661709e+01	9.869158e+02
1.200000e-06	5.511496e-06	1.516366e-08	3.744184e+01	9.945501e+02
1.210000e-06	5.630803e-06	1.528041e-08	3.825234e+01	1.002482e+03
1.220000e-06	5.747993e-06	1.539312e-08	3.904846e+01	1.010564e+03
1.230000e-06	5.862963e-06	1.550303e-08	3.982949e+01	1.018437e+03
1.240000e-06	5.975682e-06	1.560765e-08	4.059524e+01	1.025713e+03
1.250000e-06	6.086292e-06	1.570350e-08	4.134666e+01	1.032153e+03
1.260000e-06	6.194812e-06	1.579215e-08	4.208387e+01	1.037773e+03
1.270000e-06	6.301104e-06	1.587934e-08	4.280597e+01	1.042832e+03
1.280000e-06	6.405039e-06	1.596841e-08	4.351204e+01	1.047713e+03
1.290000e-06	6.506650e-06	1.605238e-08	4.420232e+01	1.052755e+03
1.300000e-06	6.605964e-06	1.612948e-08	4.487700e+01	1.058111e+03
1.310000e-06	6.702852e-06	1.620492e-08	4.553520e+01	1.063695e+03
1.320000e-06	6.797367e-06	1.628013e-08	4.617728e+01	1.069231e+03
1.330000e-06	6.889581e-06	1.635046e-08	4.680373e+01	1.074383e+03
1.340000e-06	6.979334e-06	1.641220e-08	4.741345e+01	1.078905e+03
1.350000e-06	7.066623e-06	1.647296e-08	4.800645e+01	1.082749e+03
1.360000e-06	7.151516e-06	1.653804e-08	4.858316e+01	1.086073e+03
1.370000e-06	7.233873e-06	1.660437e-08	4.914264e+01	1.089171e+03
1.380000e-06	7.313567e-06	1.666458e-08	4.968404e+01	1.092340e+03
1.390000e-06	7.390597e-06	1.671620e-08	5.020733e+01	1.095749e+03
1.400000e-06	7.464855e-06	1.676444e-08	5.071180e+01	1.099380e+03
1.410000e-06	7.536369e-06	1.681197e-08	5.119762e+01	1.103038e+03
1.420000e-06	7.605259e-06	1.685522e-08	5.166562e+01	1.106451e+03
1.430000e-06	7.671406e-06	1.689449e-08	5.211498e+01	1.109393e+03
1.440000e-06	7.734831e-06	1.693563e-08	5.254585e+01	1.111782e+03
1.450000e-06	7.795639e-06	1.698035e-08	5.295895e+01	1.113716e+03
1.460000e-06	7.853684e-06	1.702436e-08	5.335327e+01	1.115419e+03
1.470000e-06	7.908857e-06	1.705940e-08	5.372808e+01	1.117144e+03
1.480000e-06	7.960958e-06	1.708501e-08	5.408203e+01	1.119056e+03
1.490000e-06	8.009871e-06	1.710681e-08	5.441431e+01	1.121164e+03
1.500000e-06	8.055882e-06	1.712922e-08	5.472688e+01	1.123321e+03
1.510000e-06	8.099065e-06	1.715196e-08	5.502024e+01	1.125297e+03
1.520000e-06	8.139329e-06	1.717343e-08	5.529377e+01	1.126885e+03
1.530000e-06	8.176777e-06	1.719544e-08	5.554817e+01	1.127993e+03
1.540000e-06	8.211344e-06	1.721847e-08	5.578300e+01	1.128688e+03
1.550000e-06	8.242960e-06	1.723973e-08	5.599778e+01	1.129164e+03
1.560000e-06	8.271792e-06	1.725471e-08	5.619365e+01	1.129654e+03
1.570000e-06	8.297687e-06	1.726456e-08	5.636956e+01	1.130326e+03
1.580000e-06	8.320570e-06	1.727366e-08	5.652502e+01	1.131213e+03
1.590000e-06	8.340621e-06	1.728249e-08	5.666123e+01	1.132195e+03
1.600000e-06	8.357728e-06	1.728832e-08	5.677744e+01	1.133061e+03
1.610000e-06	8.371756e-06	1.729070e-08	5.687274e+01	1.133603e+03
1.620000e-06	8.382545e-06	1.729420e-08	5.694604e+01	1.133711e+03
1.630000e-06	8.390144e-06	1.730024e-08	5.699766e+01	1.133423e+03
1.640000e-06	8.394839e-06	1.730489e-08	5.702956e+01	1.132910e+03
1.650000e-06	8.396597e-06	1.730446e-08	5.704150e+01	1.132393e+03
1.660000e-06	8.395479e-06	1.729828e-08	5.703390e+01	1.132053e+03
1.670000e-06	8.391627e-06	1.728452e-08	5.700773e+01	1.131939e+03
1.680000e-06	8.384949e-06	1.728042e-08	5.696237e+01	1.131951e+03
1.690000e-06	8.375463e-06	1.727590e-08	5.689793e+01	1.131883e+03
1.700000e-06	8.363061e-06	1.726254e-08	5.681368e+01	1.131511e+03
1.710000e-06	8.347807e-06	1.725076e-08	5.671005e+01	1.130694e+03
1.720000e-06	8.330039e-06	1.724878e-08	5.658934e+01	1.129443e+03
1.730000e-06	8.309737e-06	1.724506e-08	5.645143e+01	1.127911e+03
1.740000e-06	8.286402e-06	1.713832e-08	5.629290e+01	1.126339e+03
1.750000e-06	8.259329e-06	1.710633e-08	5.610898e+01	1.124949e+03
1.760000e-06	8.228399e-06	1.713645e-08	5.589886e+01	1.123853e+03
1.770000e-06	8.194391e-06	1.711399e-08	5.566783e+01	1.123007e+03
1.780000e-06	8.157916e-06	1.708943e-08	5.542004e+01	1.122235e+03
1.790000e-06	8.119126e-06	1.717070e-08	5.515653e+01	1.121304e+03
1.800000e-06	8.078307e-06	1.712492e-08	5.487922e+01	1.120022e+03
1.810000e-06	8.035128e-06	1.701434e-08	5.458589e+01	1.118316e+03
1.820000e-06	7.988958e-06	1.712464e-08	5.427224e+01	1.116252e+03
1.830000e-06	7.939946e-06	1.699427e-08	5.393928e+01	1.113991e+03
1.840000e-06	7.887719e-06	1.700256e-08	5.358448e+01	1.111706e+03
1.850000e-06	7.832273e-06	1.697005e-08	5.320781e+01	1.109493e+03
1.860000e-06	7.774136e-06	1.688605e-08	5.281287e+01	1.107324e+03
1.870000e-06	7.713124e-06	1.696295e-08	5.239839e+01	1.105055e+03
1.880000e-06	7.649384e-06	1.680033e-08	5.196537e+01	1.102497e+03
1.890000e-06	7.582831e-06	1.681905e-08	5.151325e+01	1.099506e+03
1.900000e-06	7.513381e-06	1.672279e-08	5.104146e+01	1.096061e+03
1.910000e-06	7.441078e-06	1.664530e-08	5.055027e+01	1.092281e+03
1.920000e-06	7.365871e-06	1.665250e-08	5.003936e+01	1.088383e+03
1.930000e-06	7.287902e-06	1.654607e-08	4.950968e+01	1.084590e+03
1.940000e-06	7.207298e-06	1.657332e-08	4.896211e+01	1.081028e+03
1.950000e-06	7.124269e-06	1.644401e-08	4.839806e+01	1.077666e+03
1.960000e-06	7.038617e-06	1.642287e-08	4.781619e+01	1.074323e+03
1.970000e-06	6.950363e-06	1.633737e-08	4.721665e+01	1.070739e+03
1.980000e-06	6.859708e-06	1.623851e-08	4.660078e+01	1.066684e+03
1.990000e-06	6.766549e-06	1.621844e-08	4.596792e+01	1.062059e+03
2.000000e-06	6.670995e-06	1.610823e-08	4.531878e+01	1.056938e+03
2.010000e-06	6.573121e-06	1.607871e-08	4.465388e+01	1.051538e+03
2.020000e-06	6.472889e-06	1.596364e-08	4.397297e+01	1.046123e+03
2.030000e-06	6.370141e-06	1.590966e-08	4.327496e+01	1.040888e+03
2.040000e-06	6.265064e-06	1.581096e-08	4.256112e+01	1.035867e+03
2.050000e-06	6.157863e-06	1.572992e-08	4.183287e+01	1.030915e+03
2.060000e-06	6.048537e-06	1.564949e-08	4.109017e+01	1.025765e+03
2.070000e-06	5.937032e-06	1.554810e-08	4.033267e+01	1.020146e+03
2.080000e-06	5.823259e-06	1.546615e-08	3.955977e+01	1.013900e+03
2.090000e-06	5.707145e-06	1.535235e-08	3.877096e+01	1.007053e+03
2.100000e-06	5.588726e-06	1.525766e-08	3.796649e+01	9.998035e+02
2.110000e-06	5.468327e-06	1.514487e-08	3.714857e+01	9.924347e+02
2.120000e-06	5.346055e-06	1.504640e-08	3.631793e+01	9.851855e+02
2.130000e-06	5.221846e-06	1.492594e-08	3.547413e+01	9.781365e+02
2.140000e-06	5.095699e-06	1.481391e-08	3.461716e+01	9.711656e+02
2.150000e-06	4.967698e-06	1.468663e-08	3.374759e+01	9.639930e+02
2.160000e-06	4.837948e-06	1.456722e-08	3.286615e+01	9.562996e+02
2.170000e-06	4.706518e-06	1.443768e-08	3.197329e+01	9.478667e+02
2.180000e-06	4.573413e-06	1.430742e-08	3.106905e+01	9.386757e+02
2.190000e-06	4.438695e-06	1.417133e-08	3.015386e+01	9.289193e+02
2.200000e-06	4.302378e-06	1.402816e-08	2.922780e+01	9.189179e+02
2.210000e-06	4.164439e-06	1.388307e-08	2.829073e+01	9.089737e+02
2.220000e-06	4.024840e-06	1.372319e-08	2.734238e+01	8.992257e+02
2.230000e-06	3.883608e-06	1.356639e-08	2.638293e+01	8.895734e+02
2.240000e-06	3.741023e-06	1.340201e-08	2.541429e+01	8.797043e+02
2.250000e-06	3.597149e-06	1.323843e-08	2.443689e+01	8.692199e+02
2.260000e-06	3.451978e-06	1.306204e-08	2.345069e+01	8.578065e+02
2.270000e-06	3.305604e-06	1.287854e-08	2.245631e+01	8.453757e+02
2.280000e-06	3.158056e-06	1.268998e-08	2.145396e+01	8.321088e+02
2.290000e-06	3.009269e-06	1.249588e-08	2.044319e+01	8.183801e+02
2.300000e-06	2.859376e-06	1.229396e-08	1.942490e+01	8.045858e+02
2.310000e-06	2.708607e-06	1.208314e-08	1.840067e+01	7.909515e+02
2.320000e-06	2.556961e-06	1.186497e-08	1.737047e+01	7.774042e+02
2.330000e-06	2.404390e-06	1.163745e-08	1.633400e+01	7.635725e+02
2.340000e-06	2.250939e-06	1.139967e-08	1.529154e+01	7.489221e+02
2.350000e-06	2.096651e-06	1.115076e-08	1.424340e+01	7.329757e+02
2.360000e-06	1.941611e-06	1.089275e-08	1.319015e+01	7.155215e+02
2.370000e-06	1.785851e-06	1.062673e-08	1.213201e+01	6.967139e+02
2.380000e-06	1.629336e-06	1.035029e-08	1.106874e+01	6.770101e+02
2.390000e-06	1.472170e-06	1.005841e-08	1.000105e+01	6.569565e+02
2.400000e-06	1.314459e-06	9.748331e-09	8.929653e+00	6.369078e+02
2.410000e-06	1.156253e-06	9.420420e-09	7.854896e+00	6.168021e+02
2.420000e-06	9.976400e-07	9.074347e-09	6.777374e+00	5.960991e+02
2.430000e-06	8.387421e-07	8.713416e-09	5.697917e+00	5.739301e+02
2.440000e-06	6.796053e-07	8.334570e-09	4.616835e+00	5.494139e+02
2.450000e-06	5.202666e-07	7.935590e-09	3.534383e+00	5.220135e+02
2.460000e-06	3.607568e-07	7.510098e-09	2.450767e+00	4.917726e+02
2.470000e-06	2.011392e-07	7.050200e-09	1.366421e+00	4.593011e+02
2.480000e-06	4.146623e-08	6.551887e-09	2.816970e-01	4.254673e+02
2.490000e-06	-1.182221e-07	6.015175e-09	-8.031306e-01	3.908800e+02
2.500000e-06	-2.778120e-07	5.439081e-09	-1.887290e+00	3.553412e+02
2.510000e-06	-4.372989e-07	4.813335e-09	-2.970749e+00	3.174971e+02
2.520000e-06	-5.966965e-07	4.123947e-09	-4.053602e+00	2.748729e+02
2.530000e-06	-7.558627e-07	3.353216e-09	-5.134883e+00	2.243563e+02
2.540000e-06	-9.147280e-07	2.474918e-09	-6.214119e+00	1.630392e+02
2.550000e-06	-1.073274e-06	1.445271e-09	-7.291188e+00	8.918554e+01
2.560000e-06	-1.231491e-06	2.095857e-10	-8.366017e+00	3.020442e+00
2.570000e-06	-1.389255e-06	-1.259250e-09	-9.437773e+00	-9.293053e+01
2.580000e-06	-1.546434e-06	-2.900802e-09	-1.050555e+01	-1.941013e+02
2.590000e-06	-1.703019e-06	-4.551247e-09	-1.156930e+01	-2.947074e+02
2.600000e-06	-1.858933e-06	-6.030207e-09	-1.262849e+01	-3.889175e+02
2.610000e-06	-2.014079e-06	-7.253002e-09	-1.368246e+01	-4.720460e+02
2.620000e-06	-2.168448e-06	-8.232598e-09	-1.473115e+01	-5.414331e+02
2.630000e-06	-2.322091e-06	-9.023574e-09	-1.577491e+01	-5.967777e+02
2.640000e-06	-2.474888e-06	-9.681981e-09	-1.681292e+01	-6.398598e+02
2.650000e-06	-2.626703e-06	-1.024538e-08	-1.784426e+01	-6.737795e+02
2.660000e-06	-2.777606e-06	-1.073485e-08	-1.886941e+01	-7.019736e+02
2.670000e-06	-2.927576e-06	-1.116512e-08	-1.988821e+01	-7.273183e+02
2.680000e-06	-3.076484e-06	-1.154877e-08	-2.089980e+01	-7.515690e+02
2.690000e-06	-3.224223e-06	-1.189532e-08	-2.190346e+01	-7.752516e+02
2.700000e-06	-3.370817e-06	-1.220866e-08	-2.289933e+01	-7.979631e+02
2.710000e-06	-3.516324e-06	-1.249330e-08	-2.388782e+01	-8.189070e+02
2.720000e-06	-3.660535e-06	-1.275643e-08	-2.486750e+01	-8.374393e+02
2.730000e-06	-3.803380e-06	-1.300462e-08	-2.583791e+01	-8.534253e+02
2.740000e-06	-3.944854e-06	-1.324193e-08	-2.679900e+01	-8.673099e+02
2.750000e-06	-4.084746e-06	-1.346593e-08	-2.774934e+01	-8.799217e+02
2.760000e-06	-4.223062e-06	-1.367493e-08	-2.868898e+01	-8.921301e+02
2.770000e-06	-4.359827e-06	-1.387020e-08	-2.961808e+01	-9.045176e+02
2.780000e-06	-4.494970e-06	-1.405265e-08	-3.053616e+01	-9.172000e+02
2.790000e-06	-4.628541e-06	-1.422217e-08	-3.144356e+01	-9.298560e+02
2.800000e-06	-4.760460e-06	-1.438131e-08	-3.233974e+01	-9.419311e+02
2.810000e-06	-4.890642e-06	-1.453549e-08	-3.322412e+01	-9.529170e+02
2.820000e-06	-5.019077e-06	-1.468736e-08	-3.409663e+01	-9.625819e+02
2.830000e-06	-5.145716e-06	-1.483348e-08	-3.495694e+01	-9.710616e+02
2.840000e-06	-5.270514e-06	-1.496851e-08	-3.580475e+01	-9.787846e+02
2.850000e-06	-5.393461e-06	-1.509384e-08	-3.663997e+01	-9.862776e+02
2.860000e-06	-5.514573e-06	-1.521329e-08	-3.746274e+01	-9.939422e+02
2.870000e-06	-5.633727e-06	-1.532669e-08	-3.827220e+01	-1.001903e+03
2.880000e-06	-5.750690e-06	-1.543309e-08	-3.906678e+01	-1.009982e+03
2.890000e-06	-5.865253e-06	-1.553447e-08	-3.984505e+01	-1.017809e+03
2.900000e-06	-5.977443e-06	-1.563389e-08	-4.060720e+01	-1.025003e+03
2.910000e-06	-6.087378e-06	-1.573317e-08	-4.135403e+01	-1.031350e+03
2.920000e-06	-6.195175e-06	-1.582909e-08	-4.208634e+01	-1.036895e+03
2.930000e-06	-6.300916e-06	-1.591851e-08	-4.280468e+01	-1.041916e+03
2.940000e-06	-6.404482e-06	-1.600358e-08	-4.350825e+01	-1.046801e+03
