# Temperatura_=_28.19
# Concentracion g/m^3_=_13400.0
# C_Vs_to_Am_M_A/Vsm_=_65563218390.804596
# pendiente_HvsI_1/m_=_3716.3
# ordenada_HvsI_A/m_=_1297.0
# frecuencia_Hz_=_301412.07973919134

Tiempo_(s)	Campo_(V.s)	Magnetizacion_(V.s)	Campo_(kA/m)	Magnetizacion_(A/m)
0.000000e+00	-8.345644e-06	-1.672010e-08	-5.692414e+01	-1.096454e+03
1.000000e-08	-8.342332e-06	-1.672670e-08	-5.690155e+01	-1.096139e+03
2.000000e-08	-8.336295e-06	-1.672397e-08	-5.686037e+01	-1.095982e+03
3.000000e-08	-8.327592e-06	-1.671664e-08	-5.680101e+01	-1.095898e+03
4.000000e-08	-8.315995e-06	-1.670899e-08	-5.672191e+01	-1.095723e+03
5.000000e-08	-8.301384e-06	-1.669871e-08	-5.662225e+01	-1.095290e+03
6.000000e-08	-8.283839e-06	-1.668105e-08	-5.650258e+01	-1.094507e+03
7.000000e-08	-8.263730e-06	-1.664874e-08	-5.636542e+01	-1.093396e+03
8.000000e-08	-8.241074e-06	-1.665733e-08	-5.621088e+01	-1.092094e+03
9.000000e-08	-8.215205e-06	-1.673588e-08	-5.603443e+01	-1.090789e+03
1.000000e-07	-8.185937e-06	-1.670184e-08	-5.583480e+01	-1.089645e+03
1.100000e-07	-8.153541e-06	-1.662178e-08	-5.561384e+01	-1.088727e+03
1.200000e-07	-8.118185e-06	-1.661087e-08	-5.537268e+01	-1.087972e+03
1.300000e-07	-8.080218e-06	-1.660217e-08	-5.511371e+01	-1.087217e+03
1.400000e-07	-8.039958e-06	-1.650623e-08	-5.483911e+01	-1.086265e+03
1.500000e-07	-7.997220e-06	-1.645406e-08	-5.454760e+01	-1.084968e+03
1.600000e-07	-7.951634e-06	-1.658835e-08	-5.423666e+01	-1.083282e+03
1.700000e-07	-7.903231e-06	-1.645115e-08	-5.390652e+01	-1.081286e+03
1.800000e-07	-7.851847e-06	-1.645403e-08	-5.355604e+01	-1.079131e+03
1.900000e-07	-7.797323e-06	-1.649982e-08	-5.318414e+01	-1.076972e+03
2.000000e-07	-7.740024e-06	-1.634599e-08	-5.279331e+01	-1.074893e+03
2.100000e-07	-7.679995e-06	-1.635318e-08	-5.238387e+01	-1.072865e+03
2.200000e-07	-7.617236e-06	-1.628026e-08	-5.195580e+01	-1.070762e+03
2.300000e-07	-7.551779e-06	-1.629058e-08	-5.150933e+01	-1.068421e+03
2.400000e-07	-7.483476e-06	-1.624840e-08	-5.104345e+01	-1.065719e+03
2.500000e-07	-7.412410e-06	-1.618846e-08	-5.055872e+01	-1.062633e+03
2.600000e-07	-7.338537e-06	-1.617920e-08	-5.005485e+01	-1.059260e+03
2.700000e-07	-7.261774e-06	-1.610130e-08	-4.953125e+01	-1.055777e+03
2.800000e-07	-7.182187e-06	-1.606441e-08	-4.898841e+01	-1.052361e+03
2.900000e-07	-7.099851e-06	-1.597756e-08	-4.842681e+01	-1.049111e+03
3.000000e-07	-7.015055e-06	-1.595426e-08	-4.784843e+01	-1.045998e+03
3.100000e-07	-6.927947e-06	-1.591837e-08	-4.725428e+01	-1.042869e+03
3.200000e-07	-6.838396e-06	-1.584799e-08	-4.664347e+01	-1.039512e+03
3.300000e-07	-6.746352e-06	-1.580743e-08	-4.601565e+01	-1.035741e+03
3.400000e-07	-6.651904e-06	-1.571082e-08	-4.537144e+01	-1.031481e+03
3.500000e-07	-6.555110e-06	-1.565399e-08	-4.471123e+01	-1.026799e+03
3.600000e-07	-6.455886e-06	-1.558775e-08	-4.403444e+01	-1.021876e+03
3.700000e-07	-6.354304e-06	-1.552264e-08	-4.334156e+01	-1.016928e+03
3.800000e-07	-6.250494e-06	-1.544603e-08	-4.263350e+01	-1.012107e+03
3.900000e-07	-6.144433e-06	-1.537415e-08	-4.191008e+01	-1.007435e+03
4.000000e-07	-6.036131e-06	-1.531120e-08	-4.117137e+01	-1.002784e+03
4.100000e-07	-5.925678e-06	-1.521554e-08	-4.041798e+01	-9.979325e+02
4.200000e-07	-5.813040e-06	-1.512889e-08	-3.964970e+01	-9.926587e+02
4.300000e-07	-5.698089e-06	-1.503163e-08	-3.886564e+01	-9.868350e+02
4.400000e-07	-5.580856e-06	-1.495225e-08	-3.806602e+01	-9.804848e+02
4.500000e-07	-5.461561e-06	-1.486644e-08	-3.725233e+01	-9.737716e+02
4.600000e-07	-5.340369e-06	-1.477076e-08	-3.642570e+01	-9.669243e+02
4.700000e-07	-5.217242e-06	-1.466107e-08	-3.558587e+01	-9.601326e+02
4.800000e-07	-5.092180e-06	-1.455038e-08	-3.473285e+01	-9.534561e+02
4.900000e-07	-4.965325e-06	-1.444499e-08	-3.386759e+01	-9.467909e+02
5.000000e-07	-4.836748e-06	-1.432849e-08	-3.299059e+01	-9.399085e+02
5.100000e-07	-4.706407e-06	-1.421115e-08	-3.210156e+01	-9.325522e+02
5.200000e-07	-4.574324e-06	-1.408887e-08	-3.120064e+01	-9.245489e+02
5.300000e-07	-4.440562e-06	-1.396549e-08	-3.028827e+01	-9.158862e+02
5.400000e-07	-4.305181e-06	-1.383260e-08	-2.936487e+01	-9.067183e+02
5.500000e-07	-4.168253e-06	-1.369268e-08	-2.843091e+01	-8.972954e+02
5.600000e-07	-4.029770e-06	-1.355075e-08	-2.748634e+01	-8.878469e+02
5.700000e-07	-3.889703e-06	-1.340994e-08	-2.653097e+01	-8.784678e+02
5.800000e-07	-3.748068e-06	-1.326347e-08	-2.556490e+01	-8.690619e+02
5.900000e-07	-3.604959e-06	-1.310209e-08	-2.458878e+01	-8.593704e+02
6.000000e-07	-3.460500e-06	-1.293231e-08	-2.360345e+01	-8.490747e+02
6.100000e-07	-3.314751e-06	-1.275818e-08	-2.260932e+01	-8.379330e+02
6.200000e-07	-3.167732e-06	-1.258320e-08	-2.160653e+01	-8.258871e+02
6.300000e-07	-3.019647e-06	-1.239926e-08	-2.059647e+01	-8.130903e+02
6.400000e-07	-2.870629e-06	-1.220585e-08	-1.958005e+01	-7.998387e+02
6.500000e-07	-2.720610e-06	-1.200789e-08	-1.855679e+01	-7.864307e+02
6.600000e-07	-2.569633e-06	-1.180274e-08	-1.752701e+01	-7.730166e+02
6.700000e-07	-2.417755e-06	-1.158600e-08	-1.649107e+01	-7.595039e+02
6.800000e-07	-2.264974e-06	-1.135624e-08	-1.544898e+01	-7.455691e+02
6.900000e-07	-2.111384e-06	-1.111870e-08	-1.440137e+01	-7.307749e+02
7.000000e-07	-1.957057e-06	-1.087113e-08	-1.334873e+01	-7.147487e+02
7.100000e-07	-1.801997e-06	-1.061416e-08	-1.229110e+01	-6.973434e+02
7.200000e-07	-1.646273e-06	-1.034415e-08	-1.122893e+01	-6.787050e+02
7.300000e-07	-1.489941e-06	-1.006319e-08	-1.016262e+01	-6.592052e+02
7.400000e-07	-1.333025e-06	-9.768283e-09	-9.092323e+00	-6.392597e+02
7.500000e-07	-1.175565e-06	-9.456232e-09	-8.018321e+00	-6.191014e+02
7.600000e-07	-1.017662e-06	-9.127182e-09	-6.941289e+00	-5.986109e+02
7.700000e-07	-8.593761e-07	-8.779345e-09	-5.861650e+00	-5.772879e+02
7.800000e-07	-7.007824e-07	-8.413899e-09	-4.779911e+00	-5.543936e+02
7.900000e-07	-5.419907e-07	-8.025132e-09	-3.696821e+00	-5.292199e+02
8.000000e-07	-3.830381e-07	-7.612588e-09	-2.612634e+00	-5.013751e+02
8.100000e-07	-2.240006e-07	-7.171384e-09	-1.527868e+00	-4.709554e+02
8.200000e-07	-6.488936e-08	-6.701429e-09	-4.425987e-01	-4.384987e+02
8.300000e-07	9.427658e-08	-6.199421e-09	6.430436e-01	-4.047004e+02
8.400000e-07	2.533815e-07	-5.662691e-09	1.728269e+00	-3.699676e+02
8.500000e-07	4.123722e-07	-5.087248e-09	2.812716e+00	-3.339732e+02
8.600000e-07	5.712755e-07	-4.458615e-09	3.896567e+00	-2.953982e+02
8.700000e-07	7.300135e-07	-3.763059e-09	4.979291e+00	-2.520086e+02
8.800000e-07	8.884524e-07	-2.981646e-09	6.059974e+00	-2.011100e+02
8.900000e-07	1.046538e-06	-2.089286e-09	7.138247e+00	-1.402887e+02
9.000000e-07	1.204203e-06	-1.048330e-09	8.213651e+00	-6.823342e+01
9.100000e-07	1.361445e-06	1.805600e-10	9.286173e+00	1.461912e+01
9.200000e-07	1.518207e-06	1.603183e-09	1.035542e+01	1.058400e+02
9.300000e-07	1.674431e-06	3.139523e-09	1.142099e+01	2.012777e+02
9.400000e-07	1.830097e-06	4.645819e-09	1.248277e+01	2.957984e+02
9.500000e-07	1.985010e-06	5.991930e-09	1.353940e+01	3.843036e+02
9.600000e-07	2.139126e-06	7.122494e-09	1.459059e+01	4.627456e+02
9.700000e-07	2.292449e-06	8.054887e-09	1.563638e+01	5.288595e+02
9.800000e-07	2.444896e-06	8.826992e-09	1.667619e+01	5.824192e+02
9.900000e-07	2.596480e-06	9.476159e-09	1.771013e+01	6.249771e+02
1.000000e-06	2.747156e-06	1.002857e-08	1.873786e+01	6.592001e+02
1.010000e-06	2.896818e-06	1.050609e-08	1.975868e+01	6.880294e+02
1.020000e-06	3.045448e-06	1.092435e-08	2.077245e+01	7.139247e+02
1.030000e-06	3.193013e-06	1.129387e-08	2.177897e+01	7.383985e+02
1.040000e-06	3.339453e-06	1.162778e-08	2.277781e+01	7.619341e+02
1.050000e-06	3.484705e-06	1.193540e-08	2.376855e+01	7.842433e+02
1.060000e-06	3.628668e-06	1.222448e-08	2.475050e+01	8.047175e+02
1.070000e-06	3.771301e-06	1.249487e-08	2.572337e+01	8.228788e+02
1.080000e-06	3.912505e-06	1.274715e-08	2.668649e+01	8.386719e+02
1.090000e-06	4.052159e-06	1.298026e-08	2.763905e+01	8.525146e+02
1.100000e-06	4.190256e-06	1.319226e-08	2.858098e+01	8.651285e+02
1.110000e-06	4.326806e-06	1.338531e-08	2.951237e+01	8.772539e+02
1.120000e-06	4.461806e-06	1.356386e-08	3.043318e+01	8.893804e+02
1.130000e-06	4.595246e-06	1.373393e-08	3.134335e+01	9.016045e+02
1.140000e-06	4.727069e-06	1.389977e-08	3.224249e+01	9.136613e+02
1.150000e-06	4.857163e-06	1.406311e-08	3.312983e+01	9.250986e+02
1.160000e-06	4.985464e-06	1.422129e-08	3.400495e+01	9.355095e+02
1.170000e-06	5.112015e-06	1.437157e-08	3.486813e+01	9.447208e+02
1.180000e-06	5.236867e-06	1.451018e-08	3.571973e+01	9.528632e+02
1.190000e-06	5.359897e-06	1.463703e-08	3.655890e+01	9.603053e+02
1.200000e-06	5.480945e-06	1.475415e-08	3.738454e+01	9.674899e+02
1.210000e-06	5.599955e-06	1.486382e-08	3.819629e+01	9.747503e+02
1.220000e-06	5.716838e-06	1.496832e-08	3.899353e+01	9.821877e+02
1.230000e-06	5.831465e-06	1.507116e-08	3.977538e+01	9.896559e+02
1.240000e-06	5.943839e-06	1.517259e-08	4.054185e+01	9.968535e+02
1.250000e-06	6.054135e-06	1.527143e-08	4.129417e+01	1.003477e+03
1.260000e-06	6.162407e-06	1.536507e-08	4.203267e+01	1.009362e+03
1.270000e-06	6.268429e-06	1.545336e-08	4.275583e+01	1.014561e+03
1.280000e-06	6.372113e-06	1.553771e-08	4.346304e+01	1.019311e+03
1.290000e-06	6.473515e-06	1.561369e-08	4.415468e+01	1.023930e+03
1.300000e-06	6.572559e-06	1.568172e-08	4.483024e+01	1.028678e+03
1.310000e-06	6.669190e-06	1.574742e-08	4.548935e+01	1.033647e+03
1.320000e-06	6.763512e-06	1.581743e-08	4.613270e+01	1.038730e+03
1.330000e-06	6.855556e-06	1.588973e-08	4.676052e+01	1.043678e+03
1.340000e-06	6.945127e-06	1.595667e-08	4.737146e+01	1.048213e+03
1.350000e-06	7.032179e-06	1.601815e-08	4.796523e+01	1.052154e+03
1.360000e-06	7.116849e-06	1.607572e-08	4.854275e+01	1.055493e+03
1.370000e-06	7.199039e-06	1.613241e-08	4.910335e+01	1.058396e+03
1.380000e-06	7.278617e-06	1.618535e-08	4.964614e+01	1.061125e+03
1.390000e-06	7.355522e-06	1.622938e-08	5.017069e+01	1.063931e+03
1.400000e-06	7.429611e-06	1.626963e-08	5.067604e+01	1.066944e+03
1.410000e-06	7.501037e-06	1.631206e-08	5.116322e+01	1.070129e+03
1.420000e-06	7.569873e-06	1.635830e-08	5.163274e+01	1.073309e+03
1.430000e-06	7.635924e-06	1.640371e-08	5.208326e+01	1.076253e+03
1.440000e-06	7.699280e-06	1.644409e-08	5.251541e+01	1.078774e+03
1.450000e-06	7.760051e-06	1.648060e-08	5.292991e+01	1.080816e+03
1.460000e-06	7.818059e-06	1.651518e-08	5.332558e+01	1.082471e+03
1.470000e-06	7.873214e-06	1.654383e-08	5.370178e+01	1.083931e+03
1.480000e-06	7.925297e-06	1.656526e-08	5.405702e+01	1.085408e+03
1.490000e-06	7.974171e-06	1.658304e-08	5.439039e+01	1.087033e+03
1.500000e-06	8.020177e-06	1.660430e-08	5.470419e+01	1.088809e+03
1.510000e-06	8.063409e-06	1.663095e-08	5.499906e+01	1.090615e+03
1.520000e-06	8.103732e-06	1.665603e-08	5.527410e+01	1.092267e+03
1.530000e-06	8.141226e-06	1.667667e-08	5.552984e+01	1.093601e+03
1.540000e-06	8.175857e-06	1.669432e-08	5.576605e+01	1.094551e+03
1.550000e-06	8.207611e-06	1.671136e-08	5.598264e+01	1.095175e+03
1.560000e-06	8.236571e-06	1.672568e-08	5.618017e+01	1.095626e+03
1.570000e-06	8.262595e-06	1.673406e-08	5.635768e+01	1.096079e+03
1.580000e-06	8.285632e-06	1.673924e-08	5.651481e+01	1.096657e+03
1.590000e-06	8.305827e-06	1.674695e-08	5.665256e+01	1.097368e+03
1.600000e-06	8.323104e-06	1.675703e-08	5.677040e+01	1.098114e+03
1.610000e-06	8.337257e-06	1.676425e-08	5.686693e+01	1.098732e+03
1.620000e-06	8.348140e-06	1.676807e-08	5.694116e+01	1.099071e+03
1.630000e-06	8.355925e-06	1.677086e-08	5.699426e+01	1.099067e+03
1.640000e-06	8.360861e-06	1.677410e-08	5.702793e+01	1.098767e+03
1.650000e-06	8.362850e-06	1.677528e-08	5.704150e+01	1.098314e+03
1.660000e-06	8.362027e-06	1.677079e-08	5.703588e+01	1.097878e+03
1.670000e-06	8.358471e-06	1.675643e-08	5.701163e+01	1.097580e+03
1.680000e-06	8.352074e-06	1.675352e-08	5.696799e+01	1.097436e+03
1.690000e-06	8.342884e-06	1.675215e-08	5.690531e+01	1.097350e+03
1.700000e-06	8.330744e-06	1.674264e-08	5.682250e+01	1.097154e+03
1.710000e-06	8.315692e-06	1.673467e-08	5.671984e+01	1.096686e+03
1.720000e-06	8.298137e-06	1.674229e-08	5.660010e+01	1.095863e+03
1.730000e-06	8.278057e-06	1.674705e-08	5.646314e+01	1.094724e+03
1.740000e-06	8.255026e-06	1.662414e-08	5.630605e+01	1.093411e+03
1.750000e-06	8.228407e-06	1.658908e-08	5.612449e+01	1.092117e+03
1.760000e-06	8.197931e-06	1.664141e-08	5.591661e+01	1.090995e+03
1.770000e-06	8.164301e-06	1.661878e-08	5.568723e+01	1.090099e+03
1.780000e-06	8.128153e-06	1.659252e-08	5.544067e+01	1.089353e+03
1.790000e-06	8.089682e-06	1.669144e-08	5.517827e+01	1.088585e+03
1.800000e-06	8.049230e-06	1.662929e-08	5.490235e+01	1.087602e+03
1.810000e-06	8.006437e-06	1.649925e-08	5.461047e+01	1.086262e+03
1.820000e-06	7.960656e-06	1.664336e-08	5.429820e+01	1.084537e+03
1.830000e-06	7.912027e-06	1.649391e-08	5.396651e+01	1.082515e+03
1.840000e-06	7.860240e-06	1.650469e-08	5.361329e+01	1.080352e+03
1.850000e-06	7.805276e-06	1.649387e-08	5.323839e+01	1.078199e+03
1.860000e-06	7.747600e-06	1.639369e-08	5.284498e+01	1.076128e+03
1.870000e-06	7.687051e-06	1.648988e-08	5.243199e+01	1.074099e+03
1.880000e-06	7.623833e-06	1.630446e-08	5.200080e+01	1.071978e+03
1.890000e-06	7.557900e-06	1.633574e-08	5.155107e+01	1.069602e+03
1.900000e-06	7.489058e-06	1.626296e-08	5.108152e+01	1.066857e+03
1.910000e-06	7.417363e-06	1.619285e-08	5.059250e+01	1.063733e+03
1.920000e-06	7.342730e-06	1.622262e-08	5.008344e+01	1.060339e+03
1.930000e-06	7.265298e-06	1.610240e-08	4.955529e+01	1.056854e+03
1.940000e-06	7.185239e-06	1.614222e-08	4.900922e+01	1.053453e+03
1.950000e-06	7.102739e-06	1.600089e-08	4.844651e+01	1.050221e+03
1.960000e-06	7.017611e-06	1.598180e-08	4.786587e+01	1.047115e+03
1.970000e-06	6.929821e-06	1.591643e-08	4.726706e+01	1.043971e+03
1.980000e-06	6.839652e-06	1.582545e-08	4.665203e+01	1.040576e+03
1.990000e-06	6.747054e-06	1.584293e-08	4.602044e+01	1.036753e+03
2.000000e-06	6.652072e-06	1.573825e-08	4.537259e+01	1.032442e+03
2.010000e-06	6.554761e-06	1.571782e-08	4.470885e+01	1.027724e+03
2.020000e-06	6.455173e-06	1.559428e-08	4.402958e+01	1.022788e+03
2.030000e-06	6.353145e-06	1.553912e-08	4.333366e+01	1.017847e+03
2.040000e-06	6.248770e-06	1.544490e-08	4.262174e+01	1.013044e+03
2.050000e-06	6.142277e-06	1.536830e-08	4.189537e+01	1.008381e+03
2.060000e-06	6.033645e-06	1.530986e-08	4.115441e+01	1.003719e+03
2.070000e-06	5.922778e-06	1.522392e-08	4.039821e+01	9.988320e+02
2.080000e-06	5.809580e-06	1.516550e-08	3.962610e+01	9.935025e+02
2.090000e-06	5.694131e-06	1.505611e-08	3.883864e+01	9.876178e+02
2.100000e-06	5.576436e-06	1.496680e-08	3.803587e+01	9.812184e+02
2.110000e-06	5.456646e-06	1.485369e-08	3.721880e+01	9.744790e+02
2.120000e-06	5.334910e-06	1.476289e-08	3.638846e+01	9.676297e+02
2.130000e-06	5.211357e-06	1.465601e-08	3.554573e+01	9.608498e+02
2.140000e-06	5.085906e-06	1.456294e-08	3.469005e+01	9.541817e+02
2.150000e-06	4.958489e-06	1.445075e-08	3.382096e+01	9.475050e+02
2.160000e-06	4.829285e-06	1.433947e-08	3.293969e+01	9.405829e+02
2.170000e-06	4.698467e-06	1.421909e-08	3.204740e+01	9.331625e+02
2.180000e-06	4.566066e-06	1.410134e-08	3.114431e+01	9.250854e+02
2.190000e-06	4.432026e-06	1.398007e-08	3.023005e+01	9.163581e+02
2.200000e-06	4.296315e-06	1.384649e-08	2.930439e+01	9.071496e+02
2.210000e-06	4.158956e-06	1.371219e-08	2.836749e+01	8.977140e+02
2.220000e-06	4.020057e-06	1.356067e-08	2.742009e+01	8.882710e+02
2.230000e-06	3.879606e-06	1.341463e-08	2.646210e+01	8.788964e+02
2.240000e-06	3.737660e-06	1.325697e-08	2.549390e+01	8.694739e+02
2.250000e-06	3.594389e-06	1.310677e-08	2.451668e+01	8.597320e+02
2.260000e-06	3.449876e-06	1.294638e-08	2.353099e+01	8.493541e+02
2.270000e-06	3.304100e-06	1.278008e-08	2.253667e+01	8.381139e+02
2.280000e-06	3.157189e-06	1.260213e-08	2.153462e+01	8.259762e+02
2.290000e-06	3.009209e-06	1.241355e-08	2.052527e+01	8.131145e+02
2.300000e-06	2.860162e-06	1.221487e-08	1.950865e+01	7.998327e+02
2.310000e-06	2.710100e-06	1.201326e-08	1.848511e+01	7.864201e+02
2.320000e-06	2.559085e-06	1.181116e-08	1.745506e+01	7.730038e+02
2.330000e-06	2.407099e-06	1.159819e-08	1.641839e+01	7.594641e+02
2.340000e-06	2.254136e-06	1.137267e-08	1.537506e+01	7.454580e+02
2.350000e-06	2.100364e-06	1.113368e-08	1.432621e+01	7.305461e+02
2.360000e-06	1.945921e-06	1.088797e-08	1.327278e+01	7.143736e+02
2.370000e-06	1.790827e-06	1.062941e-08	1.221491e+01	6.968236e+02
2.380000e-06	1.635070e-06	1.035761e-08	1.115252e+01	6.780719e+02
2.390000e-06	1.478705e-06	1.007367e-08	1.008598e+01	6.585052e+02
2.400000e-06	1.321778e-06	9.778806e-09	9.015609e+00	6.385304e+02
2.410000e-06	1.164367e-06	9.466552e-09	7.941937e+00	6.183487e+02
2.420000e-06	1.006536e-06	9.135925e-09	6.865403e+00	5.977984e+02
2.430000e-06	8.483218e-07	8.788980e-09	5.786251e+00	5.763437e+02
2.440000e-06	6.898283e-07	8.424418e-09	4.705195e+00	5.532351e+02
2.450000e-06	5.311038e-07	8.038912e-09	3.622564e+00	5.277855e+02
2.460000e-06	3.721674e-07	7.624531e-09	2.538487e+00	4.996506e+02
2.470000e-06	2.131429e-07	7.181954e-09	1.453810e+00	4.689804e+02
2.480000e-06	5.405526e-08	6.710668e-09	3.687012e-01	4.363471e+02
2.490000e-06	-1.050778e-07	6.205527e-09	-7.167165e-01	4.024382e+02
2.500000e-06	-2.641393e-07	5.661911e-09	-1.801647e+00	3.676017e+02
2.510000e-06	-4.230448e-07	5.077115e-09	-2.885513e+00	3.314115e+02
2.520000e-06	-5.817741e-07	4.445045e-09	-3.968176e+00	2.924400e+02
2.530000e-06	-7.402742e-07	3.752188e-09	-5.049278e+00	2.483761e+02
2.540000e-06	-8.984690e-07	2.974517e-09	-6.128295e+00	1.965165e+02
2.550000e-06	-1.056319e-06	2.082346e-09	-7.204965e+00	1.345271e+02
2.560000e-06	-1.213794e-06	1.039630e-09	-8.279073e+00	6.125864e+01
2.570000e-06	-1.370822e-06	-1.899686e-10	-9.350132e+00	-2.264179e+01
2.580000e-06	-1.527308e-06	-1.612746e-09	-1.041749e+01	-1.145385e+02
2.590000e-06	-1.683229e-06	-3.157488e-09	-1.148100e+01	-2.101326e+02
2.600000e-06	-1.838527e-06	-4.675490e-09	-1.254026e+01	-3.042426e+02
2.610000e-06	-1.993121e-06	-6.028619e-09	-1.359472e+01	-3.918369e+02
2.620000e-06	-2.147005e-06	-7.161482e-09	-1.464434e+01	-4.690313e+02
2.630000e-06	-2.300138e-06	-8.090641e-09	-1.568883e+01	-5.337762e+02
2.640000e-06	-2.452433e-06	-8.860351e-09	-1.672760e+01	-5.860572e+02
2.650000e-06	-2.603859e-06	-9.509541e-09	-1.776045e+01	-6.275832e+02
2.660000e-06	-2.754343e-06	-1.006376e-08	-1.878688e+01	-6.610911e+02
2.670000e-06	-2.903799e-06	-1.054394e-08	-1.980629e+01	-6.895031e+02
2.680000e-06	-3.052224e-06	-1.096749e-08	-2.081867e+01	-7.151932e+02
2.690000e-06	-3.199559e-06	-1.134534e-08	-2.182362e+01	-7.395607e+02
2.700000e-06	-3.345719e-06	-1.168561e-08	-2.282055e+01	-7.629890e+02
2.710000e-06	-3.490656e-06	-1.199779e-08	-2.380914e+01	-7.851325e+02
2.720000e-06	-3.634353e-06	-1.228564e-08	-2.478927e+01	-8.053764e+02
2.730000e-06	-3.776741e-06	-1.254807e-08	-2.576047e+01	-8.232784e+02
2.740000e-06	-3.917686e-06	-1.278906e-08	-2.672183e+01	-8.388358e+02
2.750000e-06	-4.057060e-06	-1.301712e-08	-2.767248e+01	-8.525100e+02
2.760000e-06	-4.194871e-06	-1.323452e-08	-2.861246e+01	-8.650392e+02
2.770000e-06	-4.331179e-06	-1.343751e-08	-2.954219e+01	-8.771483e+02
2.780000e-06	-4.465955e-06	-1.362441e-08	-3.046148e+01	-8.892884e+02
2.790000e-06	-4.599144e-06	-1.379981e-08	-3.136994e+01	-9.015130e+02
2.800000e-06	-4.730688e-06	-1.396838e-08	-3.226717e+01	-9.135268e+02
2.810000e-06	-4.860509e-06	-1.412754e-08	-3.315266e+01	-9.248714e+02
2.820000e-06	-4.988616e-06	-1.427417e-08	-3.402646e+01	-9.351573e+02
2.830000e-06	-5.115054e-06	-1.441288e-08	-3.488886e+01	-9.442432e+02
2.840000e-06	-5.239667e-06	-1.454718e-08	-3.573883e+01	-9.522906e+02
2.850000e-06	-5.362388e-06	-1.467544e-08	-3.657589e+01	-9.596851e+02
2.860000e-06	-5.483199e-06	-1.479494e-08	-3.739992e+01	-9.668658e+02
2.870000e-06	-5.601964e-06	-1.490651e-08	-3.820999e+01	-9.741456e+02
2.880000e-06	-5.718558e-06	-1.501377e-08	-3.900525e+01	-9.815977e+02
2.890000e-06	-5.832842e-06	-1.511690e-08	-3.978477e+01	-9.890534e+02
2.900000e-06	-5.944750e-06	-1.521359e-08	-4.054807e+01	-9.962030e+02
2.910000e-06	-6.054356e-06	-1.530310e-08	-4.129568e+01	-1.002752e+03
2.920000e-06	-6.161833e-06	-1.538997e-08	-4.202876e+01	-1.008558e+03
2.930000e-06	-6.267299e-06	-1.547865e-08	-4.274812e+01	-1.013695e+03
2.940000e-06	-6.370578e-06	-1.556725e-08	-4.345257e+01	-1.018417e+03
