# Temperatura_=_40.72
# Concentracion g/m^3_=_13400.0
# C_Vs_to_Am_M_A/Vsm_=_65563218390.804596
# pendiente_HvsI_1/m_=_3716.3
# ordenada_HvsI_A/m_=_1297.0
# frecuencia_Hz_=_301414.7734637453

Tiempo_(s)	Campo_(V.s)	Magnetizacion_(V.s)	Campo_(kA/m)	Magnetizacion_(A/m)
0.000000e+00	-8.370326e-06	-1.671269e-08	-5.692174e+01	-1.095881e+03
1.000000e-08	-8.366737e-06	-1.671957e-08	-5.689734e+01	-1.095704e+03
2.000000e-08	-8.360492e-06	-1.671530e-08	-5.685487e+01	-1.095648e+03
3.000000e-08	-8.351548e-06	-1.670446e-08	-5.679405e+01	-1.095565e+03
4.000000e-08	-8.339658e-06	-1.669069e-08	-5.671319e+01	-1.095272e+03
5.000000e-08	-8.324681e-06	-1.667902e-08	-5.661134e+01	-1.094636e+03
6.000000e-08	-8.306773e-06	-1.666264e-08	-5.648956e+01	-1.093630e+03
7.000000e-08	-8.286370e-06	-1.663034e-08	-5.635081e+01	-1.092357e+03
8.000000e-08	-8.263346e-06	-1.665504e-08	-5.619424e+01	-1.091002e+03
9.000000e-08	-8.237101e-06	-1.672595e-08	-5.601576e+01	-1.089756e+03
1.000000e-07	-8.207524e-06	-1.667116e-08	-5.581463e+01	-1.088736e+03
1.100000e-07	-8.174796e-06	-1.660190e-08	-5.559206e+01	-1.087934e+03
1.200000e-07	-8.139094e-06	-1.659948e-08	-5.534927e+01	-1.087221e+03
1.300000e-07	-8.100844e-06	-1.658017e-08	-5.508915e+01	-1.086404e+03
1.400000e-07	-8.060281e-06	-1.646591e-08	-5.481331e+01	-1.085309e+03
1.500000e-07	-8.017205e-06	-1.644305e-08	-5.452037e+01	-1.083851e+03
1.600000e-07	-7.971305e-06	-1.656250e-08	-5.420823e+01	-1.082063e+03
1.700000e-07	-7.922475e-06	-1.640754e-08	-5.387617e+01	-1.080071e+03
1.800000e-07	-7.870600e-06	-1.645817e-08	-5.352340e+01	-1.078029e+03
1.900000e-07	-7.815716e-06	-1.646115e-08	-5.315016e+01	-1.076038e+03
2.000000e-07	-7.758005e-06	-1.632099e-08	-5.275770e+01	-1.074093e+03
2.100000e-07	-7.697473e-06	-1.633850e-08	-5.234606e+01	-1.072086e+03
2.200000e-07	-7.634249e-06	-1.624511e-08	-5.191611e+01	-1.069856e+03
2.300000e-07	-7.568287e-06	-1.627373e-08	-5.146754e+01	-1.067262e+03
2.400000e-07	-7.499465e-06	-1.621014e-08	-5.099952e+01	-1.064263e+03
2.500000e-07	-7.427855e-06	-1.617398e-08	-5.051255e+01	-1.060942e+03
2.600000e-07	-7.353391e-06	-1.615173e-08	-5.000616e+01	-1.057477e+03
2.700000e-07	-7.276094e-06	-1.607593e-08	-4.948051e+01	-1.054070e+03
2.800000e-07	-7.195955e-06	-1.603798e-08	-4.893553e+01	-1.050850e+03
2.900000e-07	-7.113112e-06	-1.594391e-08	-4.837216e+01	-1.047815e+03
3.000000e-07	-7.027908e-06	-1.593478e-08	-4.779274e+01	-1.044819e+03
3.100000e-07	-6.940366e-06	-1.587596e-08	-4.719741e+01	-1.041631e+03
3.200000e-07	-6.850337e-06	-1.582097e-08	-4.658518e+01	-1.038033e+03
3.300000e-07	-6.757791e-06	-1.577703e-08	-4.595583e+01	-1.033908e+03
3.400000e-07	-6.662914e-06	-1.568191e-08	-4.531062e+01	-1.029299e+03
3.500000e-07	-6.565630e-06	-1.562370e-08	-4.464905e+01	-1.024390e+03
3.600000e-07	-6.465840e-06	-1.554807e-08	-4.397044e+01	-1.019429e+03
3.700000e-07	-6.363778e-06	-1.548362e-08	-4.327637e+01	-1.014615e+03
3.800000e-07	-6.259441e-06	-1.540155e-08	-4.256684e+01	-1.010010e+03
3.900000e-07	-6.152807e-06	-1.533965e-08	-4.184168e+01	-1.005502e+03
4.000000e-07	-6.043993e-06	-1.527162e-08	-4.110170e+01	-1.000851e+03
4.100000e-07	-5.933074e-06	-1.518008e-08	-4.034741e+01	-9.957879e+02
4.200000e-07	-5.819888e-06	-1.508888e-08	-3.957769e+01	-9.901297e+02
4.300000e-07	-5.704310e-06	-1.498762e-08	-3.879171e+01	-9.838633e+02
4.400000e-07	-5.586537e-06	-1.490113e-08	-3.799080e+01	-9.771523e+02
4.500000e-07	-5.466727e-06	-1.480913e-08	-3.717605e+01	-9.702670e+02
4.600000e-07	-5.344912e-06	-1.471384e-08	-3.634765e+01	-9.634638e+02
4.700000e-07	-5.221204e-06	-1.461168e-08	-3.550639e+01	-9.568664e+02
4.800000e-07	-5.095659e-06	-1.451153e-08	-3.465263e+01	-9.504031e+02
4.900000e-07	-4.968303e-06	-1.440390e-08	-3.378656e+01	-9.438277e+02
5.000000e-07	-4.839115e-06	-1.427891e-08	-3.290802e+01	-9.368202e+02
5.100000e-07	-4.708165e-06	-1.414771e-08	-3.201750e+01	-9.291229e+02
5.200000e-07	-4.575498e-06	-1.402161e-08	-3.111532e+01	-9.206541e+02
5.300000e-07	-4.441211e-06	-1.389769e-08	-3.020211e+01	-9.115461e+02
5.400000e-07	-4.305375e-06	-1.376914e-08	-2.927836e+01	-9.020887e+02
5.500000e-07	-4.167809e-06	-1.363140e-08	-2.834286e+01	-8.925996e+02
5.600000e-07	-4.028715e-06	-1.348927e-08	-2.739696e+01	-8.832760e+02
5.700000e-07	-3.888109e-06	-1.334312e-08	-2.644078e+01	-8.740951e+02
5.800000e-07	-3.745842e-06	-1.318926e-08	-2.547330e+01	-8.648078e+02
5.900000e-07	-3.602046e-06	-1.302168e-08	-2.449543e+01	-8.550358e+02
6.000000e-07	-3.456977e-06	-1.284881e-08	-2.350890e+01	-8.444297e+02
6.100000e-07	-3.310741e-06	-1.267732e-08	-2.251443e+01	-8.328228e+02
6.200000e-07	-3.163353e-06	-1.250329e-08	-2.151214e+01	-8.203084e+02
6.300000e-07	-3.014880e-06	-1.231830e-08	-2.050246e+01	-8.072024e+02
6.400000e-07	-2.865369e-06	-1.212125e-08	-1.948571e+01	-7.939019e+02
6.500000e-07	-2.714890e-06	-1.192337e-08	-1.846240e+01	-7.806966e+02
6.600000e-07	-2.563463e-06	-1.171705e-08	-1.743263e+01	-7.676166e+02
6.700000e-07	-2.411092e-06	-1.149873e-08	-1.639644e+01	-7.543878e+02
6.800000e-07	-2.257754e-06	-1.126546e-08	-1.535368e+01	-7.405216e+02
6.900000e-07	-2.103498e-06	-1.102582e-08	-1.430467e+01	-7.255088e+02
7.000000e-07	-1.948523e-06	-1.078009e-08	-1.325077e+01	-7.090351e+02
7.100000e-07	-1.792969e-06	-1.052315e-08	-1.219294e+01	-6.911231e+02
7.200000e-07	-1.636837e-06	-1.025206e-08	-1.113118e+01	-6.721272e+02
7.300000e-07	-1.480131e-06	-9.966961e-09	-1.006552e+01	-6.525728e+02
7.400000e-07	-1.322809e-06	-9.672709e-09	-8.995657e+00	-6.328961e+02
7.500000e-07	-1.164891e-06	-9.362154e-09	-7.921752e+00	-6.131955e+02
7.600000e-07	-1.006533e-06	-9.031044e-09	-6.844849e+00	-5.931081e+02
7.700000e-07	-8.478355e-07	-8.677781e-09	-5.765639e+00	-5.718805e+02
7.800000e-07	-6.889231e-07	-8.310016e-09	-4.684967e+00	-5.486252e+02
7.900000e-07	-5.298119e-07	-7.921259e-09	-3.602944e+00	-5.226659e+02
8.000000e-07	-3.704919e-07	-7.503070e-09	-2.519501e+00	-4.938228e+02
8.100000e-07	-2.110571e-07	-7.052354e-09	-1.435278e+00	-4.624967e+02
8.200000e-07	-5.154059e-08	-6.571475e-09	-3.504977e-01	-4.294767e+02
8.300000e-07	1.080061e-07	-6.062773e-09	7.344872e-01	-3.955041e+02
8.400000e-07	2.675146e-07	-5.515068e-09	1.819212e+00	-3.607372e+02
8.500000e-07	4.269565e-07	-4.915801e-09	2.903484e+00	-3.243248e+02
8.600000e-07	5.862688e-07	-4.253214e-09	3.986875e+00	-2.842883e+02
8.700000e-07	7.453420e-07	-3.519749e-09	5.068639e+00	-2.378223e+02
8.800000e-07	9.041598e-07	-2.689106e-09	6.148668e+00	-1.819851e+02
8.900000e-07	1.062703e-06	-1.723234e-09	7.226831e+00	-1.146030e+02
9.000000e-07	1.220892e-06	-5.752464e-10	8.302579e+00	-3.511677e+01
9.100000e-07	1.378611e-06	7.871197e-10	9.375135e+00	5.491091e+01
9.200000e-07	1.535685e-06	2.333124e-09	1.044330e+01	1.518181e+02
9.300000e-07	1.692097e-06	3.937347e-09	1.150697e+01	2.504327e+02
9.400000e-07	1.847911e-06	5.427221e-09	1.256657e+01	3.450840e+02
9.500000e-07	2.003160e-06	6.691981e-09	1.362234e+01	4.307611e+02
9.600000e-07	2.157774e-06	7.718338e-09	1.467377e+01	5.040912e+02
9.700000e-07	2.311518e-06	8.553375e-09	1.571929e+01	5.638727e+02
9.800000e-07	2.464299e-06	9.246460e-09	1.675827e+01	6.110362e+02
9.900000e-07	2.616186e-06	9.831889e-09	1.779117e+01	6.480857e+02
1.000000e-06	2.767223e-06	1.033234e-08	1.881828e+01	6.782248e+02
1.010000e-06	2.917269e-06	1.076765e-08	1.983866e+01	7.044510e+02
1.020000e-06	3.066181e-06	1.115596e-08	2.085132e+01	7.288844e+02
1.030000e-06	3.214015e-06	1.150547e-08	2.185665e+01	7.524929e+02
1.040000e-06	3.360798e-06	1.182222e-08	2.285484e+01	7.752320e+02
1.050000e-06	3.506385e-06	1.211088e-08	2.384490e+01	7.964778e+02
1.060000e-06	3.650681e-06	1.238085e-08	2.482617e+01	8.155539e+02
1.070000e-06	3.793652e-06	1.263369e-08	2.579843e+01	8.321483e+02
1.080000e-06	3.935137e-06	1.286772e-08	2.676059e+01	8.464878e+02
1.090000e-06	4.075100e-06	1.308306e-08	2.771240e+01	8.592450e+02
1.100000e-06	4.213541e-06	1.328440e-08	2.865386e+01	8.712581e+02
1.110000e-06	4.350394e-06	1.347492e-08	2.958451e+01	8.832054e+02
1.120000e-06	4.485643e-06	1.365151e-08	3.050426e+01	8.953744e+02
1.130000e-06	4.619276e-06	1.381889e-08	3.141303e+01	9.076126e+02
1.140000e-06	4.751269e-06	1.398194e-08	3.231063e+01	9.194623e+02
1.150000e-06	4.881544e-06	1.414241e-08	3.319656e+01	9.304061e+02
1.160000e-06	5.010072e-06	1.429287e-08	3.407060e+01	9.401121e+02
1.170000e-06	5.136889e-06	1.442998e-08	3.493301e+01	9.485766e+02
1.180000e-06	5.261916e-06	1.455616e-08	3.578325e+01	9.561147e+02
1.190000e-06	5.385073e-06	1.467799e-08	3.662077e+01	9.632151e+02
1.200000e-06	5.506291e-06	1.479650e-08	3.744510e+01	9.703317e+02
1.210000e-06	5.625496e-06	1.490855e-08	3.825574e+01	9.777046e+02
1.220000e-06	5.742574e-06	1.501430e-08	3.905193e+01	9.852847e+02
1.230000e-06	5.857373e-06	1.511629e-08	3.983260e+01	9.927858e+02
1.240000e-06	5.969940e-06	1.521557e-08	4.059811e+01	9.998340e+02
1.250000e-06	6.080411e-06	1.530806e-08	4.134936e+01	1.006144e+03
1.260000e-06	6.188817e-06	1.539403e-08	4.208656e+01	1.011643e+03
1.270000e-06	6.295011e-06	1.547705e-08	4.280873e+01	1.016501e+03
1.280000e-06	6.398879e-06	1.555955e-08	4.351507e+01	1.021043e+03
1.290000e-06	6.500471e-06	1.563661e-08	4.420594e+01	1.025611e+03
1.300000e-06	6.599666e-06	1.570651e-08	4.488051e+01	1.030413e+03
1.310000e-06	6.696408e-06	1.577426e-08	4.553840e+01	1.035448e+03
1.320000e-06	6.790857e-06	1.584201e-08	4.618069e+01	1.040516e+03
1.330000e-06	6.882950e-06	1.590758e-08	4.680696e+01	1.045319e+03
1.340000e-06	6.972596e-06	1.596816e-08	4.741659e+01	1.049594e+03
1.350000e-06	7.059798e-06	1.602630e-08	4.800960e+01	1.053231e+03
1.360000e-06	7.144601e-06	1.608394e-08	4.858630e+01	1.056313e+03
1.370000e-06	7.226865e-06	1.614142e-08	4.914573e+01	1.059077e+03
1.380000e-06	7.306470e-06	1.619482e-08	4.968707e+01	1.061801e+03
1.390000e-06	7.383414e-06	1.624096e-08	5.021033e+01	1.064694e+03
1.400000e-06	7.457557e-06	1.628302e-08	5.071453e+01	1.067804e+03
1.410000e-06	7.528963e-06	1.632338e-08	5.120012e+01	1.071011e+03
1.420000e-06	7.597733e-06	1.636189e-08	5.166779e+01	1.074092e+03
1.430000e-06	7.663768e-06	1.639896e-08	5.211685e+01	1.076825e+03
1.440000e-06	7.727081e-06	1.643591e-08	5.254741e+01	1.079084e+03
1.450000e-06	7.787806e-06	1.647238e-08	5.296036e+01	1.080898e+03
1.460000e-06	7.845774e-06	1.650735e-08	5.335457e+01	1.082428e+03
1.470000e-06	7.900875e-06	1.653821e-08	5.372928e+01	1.083893e+03
1.480000e-06	7.952892e-06	1.656379e-08	5.408302e+01	1.085470e+03
1.490000e-06	8.001661e-06	1.658495e-08	5.441467e+01	1.087220e+03
1.500000e-06	8.047575e-06	1.660459e-08	5.472690e+01	1.089062e+03
1.510000e-06	8.090722e-06	1.662291e-08	5.502032e+01	1.090824e+03
1.520000e-06	8.130939e-06	1.663907e-08	5.529381e+01	1.092316e+03
1.530000e-06	8.168350e-06	1.665660e-08	5.554822e+01	1.093426e+03
1.540000e-06	8.202916e-06	1.667548e-08	5.578328e+01	1.094163e+03
1.550000e-06	8.234557e-06	1.669567e-08	5.599846e+01	1.094658e+03
1.560000e-06	8.263437e-06	1.671503e-08	5.619485e+01	1.095096e+03
1.570000e-06	8.289327e-06	1.672858e-08	5.637091e+01	1.095636e+03
1.580000e-06	8.312160e-06	1.673720e-08	5.652619e+01	1.096340e+03
1.590000e-06	8.332162e-06	1.674086e-08	5.666221e+01	1.097144e+03
1.600000e-06	8.349220e-06	1.674158e-08	5.677822e+01	1.097895e+03
1.610000e-06	8.363197e-06	1.674167e-08	5.687326e+01	1.098417e+03
1.620000e-06	8.373929e-06	1.674428e-08	5.694624e+01	1.098601e+03
1.630000e-06	8.381517e-06	1.675191e-08	5.699785e+01	1.098445e+03
1.640000e-06	8.386205e-06	1.676092e-08	5.702973e+01	1.098065e+03
1.650000e-06	8.387936e-06	1.676723e-08	5.704150e+01	1.097633e+03
1.660000e-06	8.386811e-06	1.676221e-08	5.703385e+01	1.097306e+03
1.670000e-06	8.382947e-06	1.674305e-08	5.700757e+01	1.097146e+03
1.680000e-06	8.376271e-06	1.673416e-08	5.696217e+01	1.097094e+03
1.690000e-06	8.366815e-06	1.672914e-08	5.689787e+01	1.096997e+03
1.700000e-06	8.354401e-06	1.671870e-08	5.681345e+01	1.096672e+03
1.710000e-06	8.339087e-06	1.671196e-08	5.670931e+01	1.095995e+03
1.720000e-06	8.321307e-06	1.672143e-08	5.658839e+01	1.094953e+03
1.730000e-06	8.300997e-06	1.672176e-08	5.645028e+01	1.093661e+03
1.740000e-06	8.277650e-06	1.658826e-08	5.629151e+01	1.092308e+03
1.750000e-06	8.250592e-06	1.657549e-08	5.610751e+01	1.091083e+03
1.760000e-06	8.219637e-06	1.662216e-08	5.589700e+01	1.090088e+03
1.770000e-06	8.185614e-06	1.658472e-08	5.566562e+01	1.089303e+03
1.780000e-06	8.149194e-06	1.656210e-08	5.541796e+01	1.088588e+03
1.790000e-06	8.110461e-06	1.668106e-08	5.515455e+01	1.087749e+03
1.800000e-06	8.069720e-06	1.658614e-08	5.487750e+01	1.086617e+03
1.810000e-06	8.026607e-06	1.648741e-08	5.458431e+01	1.085119e+03
1.820000e-06	7.980467e-06	1.663089e-08	5.427054e+01	1.083301e+03
1.830000e-06	7.931553e-06	1.644517e-08	5.393790e+01	1.081297e+03
1.840000e-06	7.879385e-06	1.651885e-08	5.358314e+01	1.079257e+03
1.850000e-06	7.823981e-06	1.645859e-08	5.320637e+01	1.077272e+03
1.860000e-06	7.765960e-06	1.639174e-08	5.281180e+01	1.075326e+03
1.870000e-06	7.705065e-06	1.647853e-08	5.239769e+01	1.073304e+03
1.880000e-06	7.641462e-06	1.627912e-08	5.196516e+01	1.071039e+03
1.890000e-06	7.575053e-06	1.634278e-08	5.151355e+01	1.068402e+03
1.900000e-06	7.505734e-06	1.621357e-08	5.104215e+01	1.065361e+03
1.910000e-06	7.433547e-06	1.618343e-08	5.055125e+01	1.062014e+03
1.920000e-06	7.358364e-06	1.618674e-08	5.003997e+01	1.058547e+03
1.930000e-06	7.280407e-06	1.607626e-08	4.950983e+01	1.055155e+03
1.940000e-06	7.199820e-06	1.613294e-08	4.896181e+01	1.051957e+03
1.950000e-06	7.116789e-06	1.596899e-08	4.839716e+01	1.048935e+03
1.960000e-06	7.031122e-06	1.598779e-08	4.781459e+01	1.045929e+03
1.970000e-06	6.942815e-06	1.588275e-08	4.721407e+01	1.042707e+03
1.980000e-06	6.852141e-06	1.580933e-08	4.659745e+01	1.039054e+03
1.990000e-06	6.759034e-06	1.579774e-08	4.596428e+01	1.034872e+03
2.000000e-06	6.663582e-06	1.569383e-08	4.531517e+01	1.030220e+03
2.010000e-06	6.565843e-06	1.568646e-08	4.465050e+01	1.025294e+03
2.020000e-06	6.465708e-06	1.555771e-08	4.396954e+01	1.020340e+03
2.030000e-06	6.363096e-06	1.552317e-08	4.327173e+01	1.015548e+03
2.040000e-06	6.258209e-06	1.541101e-08	4.255846e+01	1.010961e+03
2.050000e-06	6.151152e-06	1.534724e-08	4.183043e+01	1.006450e+03
2.060000e-06	6.041938e-06	1.526682e-08	4.108772e+01	1.001767e+03
2.070000e-06	5.930528e-06	1.518405e-08	4.033009e+01	9.966458e+02
2.080000e-06	5.816869e-06	1.511918e-08	3.955716e+01	9.909193e+02
2.090000e-06	5.700892e-06	1.501554e-08	3.876847e+01	9.845943e+02
2.100000e-06	5.582639e-06	1.492630e-08	3.796430e+01	9.778504e+02
2.110000e-06	5.462374e-06	1.480812e-08	3.714644e+01	9.709627e+02
2.120000e-06	5.340217e-06	1.471280e-08	3.631572e+01	9.641783e+02
2.130000e-06	5.216123e-06	1.459608e-08	3.547184e+01	9.576019e+02
2.140000e-06	5.090104e-06	1.450541e-08	3.461485e+01	9.511402e+02
2.150000e-06	4.962257e-06	1.439364e-08	3.374544e+01	9.445335e+02
2.160000e-06	4.832672e-06	1.429439e-08	3.286421e+01	9.374616e+02
2.170000e-06	4.701399e-06	1.417178e-08	3.197149e+01	9.296813e+02
2.180000e-06	4.568387e-06	1.404780e-08	3.106695e+01	9.211337e+02
2.190000e-06	4.433825e-06	1.390728e-08	3.015188e+01	9.119722e+02
2.200000e-06	4.297673e-06	1.376928e-08	2.922599e+01	9.024968e+02
2.210000e-06	4.159819e-06	1.363374e-08	2.828852e+01	8.930188e+02
2.220000e-06	4.020308e-06	1.348914e-08	2.733979e+01	8.837155e+02
2.230000e-06	3.879208e-06	1.334846e-08	2.638025e+01	8.745381e+02
2.240000e-06	3.736783e-06	1.319571e-08	2.541170e+01	8.652175e+02
2.250000e-06	3.593054e-06	1.304216e-08	2.443428e+01	8.553702e+02
2.260000e-06	3.447995e-06	1.286945e-08	2.344782e+01	8.446601e+02
2.270000e-06	3.301720e-06	1.269493e-08	2.245309e+01	8.329464e+02
2.280000e-06	3.154242e-06	1.251247e-08	2.145017e+01	8.203502e+02
2.290000e-06	3.005514e-06	1.232706e-08	2.043877e+01	8.072042e+02
2.300000e-06	2.855755e-06	1.213131e-08	1.942034e+01	7.939032e+02
2.310000e-06	2.705145e-06	1.193385e-08	1.839613e+01	7.807149e+02
2.320000e-06	2.553613e-06	1.172923e-08	1.736564e+01	7.676367e+02
2.330000e-06	2.401098e-06	1.151265e-08	1.632848e+01	7.543648e+02
2.340000e-06	2.247670e-06	1.128260e-08	1.528510e+01	7.403979e+02
2.350000e-06	2.093428e-06	1.104370e-08	1.423619e+01	7.252379e+02
2.360000e-06	1.938519e-06	1.079786e-08	1.318275e+01	7.086022e+02
2.370000e-06	1.782968e-06	1.053841e-08	1.212493e+01	6.905518e+02
2.380000e-06	1.626687e-06	1.026603e-08	1.106216e+01	6.714697e+02
2.390000e-06	1.469671e-06	9.982002e-09	9.994381e+00	6.518850e+02
2.400000e-06	1.312054e-06	9.687857e-09	8.922520e+00	6.322083e+02
2.410000e-06	1.154004e-06	9.375139e-09	7.847713e+00	6.124915e+02
2.420000e-06	9.955966e-07	9.042253e-09	6.770477e+00	5.923225e+02
2.430000e-06	8.368904e-07	8.691033e-09	5.691207e+00	5.709189e+02
2.440000e-06	6.779582e-07	8.322676e-09	4.610402e+00	5.473990e+02
2.450000e-06	5.188727e-07	7.934559e-09	3.528553e+00	5.211284e+02
2.460000e-06	3.596403e-07	7.519259e-09	2.445706e+00	4.919901e+02
2.470000e-06	2.002542e-07	7.071599e-09	1.361813e+00	4.604409e+02
2.480000e-06	4.078863e-08	6.588325e-09	2.773799e-01	4.272888e+02
2.490000e-06	-1.186614e-07	6.069189e-09	-8.069477e-01	3.932381e+02
2.500000e-06	-2.780422e-07	5.510887e-09	-1.890804e+00	3.583555e+02
2.510000e-06	-4.372776e-07	4.906786e-09	-2.973672e+00	3.216677e+02
2.520000e-06	-5.963530e-07	4.246300e-09	-4.055452e+00	2.810854e+02
2.530000e-06	-7.552607e-07	3.512468e-09	-5.136091e+00	2.337498e+02
2.540000e-06	-9.139776e-07	2.681221e-09	-6.215433e+00	1.767570e+02
2.550000e-06	-1.072430e-06	1.716364e-09	-7.292976e+00	1.080696e+02
2.560000e-06	-1.230509e-06	5.702941e-10	-8.367976e+00	2.733934e+01
2.570000e-06	-1.388082e-06	-7.955665e-10	-9.439543e+00	-6.363445e+01
2.580000e-06	-1.545019e-06	-2.353202e-09	-1.050678e+01	-1.609907e+02
2.590000e-06	-1.701356e-06	-3.968360e-09	-1.156994e+01	-2.594503e+02
2.600000e-06	-1.857061e-06	-5.461946e-09	-1.262880e+01	-3.533583e+02
2.610000e-06	-2.012043e-06	-6.726360e-09	-1.368274e+01	-4.378384e+02
2.620000e-06	-2.166317e-06	-7.754112e-09	-1.473187e+01	-5.097348e+02
2.630000e-06	-2.319872e-06	-8.588759e-09	-1.577611e+01	-5.680863e+02
2.640000e-06	-2.472575e-06	-9.281201e-09	-1.681455e+01	-6.140265e+02
2.650000e-06	-2.624280e-06	-9.867940e-09	-1.784621e+01	-6.501794e+02
2.660000e-06	-2.775075e-06	-1.037237e-08	-1.887168e+01	-6.797674e+02
2.670000e-06	-2.924963e-06	-1.081206e-08	-1.989098e+01	-7.057201e+02
2.680000e-06	-3.073764e-06	-1.120323e-08	-2.090289e+01	-7.300396e+02
2.690000e-06	-3.221394e-06	-1.155578e-08	-2.190684e+01	-7.535721e+02
2.700000e-06	-3.367884e-06	-1.187483e-08	-2.290303e+01	-7.761867e+02
2.710000e-06	-3.513244e-06	-1.216523e-08	-2.389154e+01	-7.972292e+02
2.720000e-06	-3.657267e-06	-1.243192e-08	-2.487096e+01	-8.160457e+02
2.730000e-06	-3.799912e-06	-1.268011e-08	-2.584100e+01	-8.323786e+02
2.740000e-06	-3.941163e-06	-1.291252e-08	-2.680157e+01	-8.465112e+02
2.750000e-06	-4.080855e-06	-1.313080e-08	-2.775153e+01	-8.591492e+02
2.760000e-06	-4.219018e-06	-1.333587e-08	-2.869110e+01	-8.711288e+02
2.770000e-06	-4.355670e-06	-1.352916e-08	-2.962039e+01	-8.830946e+02
2.780000e-06	-4.490719e-06	-1.371107e-08	-3.053878e+01	-8.952858e+02
2.790000e-06	-4.624146e-06	-1.388231e-08	-3.144614e+01	-9.075080e+02
2.800000e-06	-4.755920e-06	-1.404359e-08	-3.234226e+01	-9.192844e+02
2.810000e-06	-4.886021e-06	-1.419326e-08	-3.322700e+01	-9.301068e+02
2.820000e-06	-5.014426e-06	-1.433238e-08	-3.410021e+01	-9.396741e+02
2.830000e-06	-5.141013e-06	-1.446663e-08	-3.496105e+01	-9.480200e+02
2.840000e-06	-5.265756e-06	-1.459798e-08	-3.580936e+01	-9.554871e+02
2.850000e-06	-5.388688e-06	-1.472198e-08	-3.664535e+01	-9.625706e+02
2.860000e-06	-5.509729e-06	-1.483676e-08	-3.746848e+01	-9.697085e+02
2.870000e-06	-5.628738e-06	-1.494595e-08	-3.827779e+01	-9.771115e+02
2.880000e-06	-5.745562e-06	-1.505216e-08	-3.907225e+01	-9.847002e+02
2.890000e-06	-5.860014e-06	-1.515205e-08	-3.985057e+01	-9.921710e+02
2.900000e-06	-5.972075e-06	-1.524346e-08	-4.061263e+01	-9.991511e+02
2.910000e-06	-6.081897e-06	-1.533239e-08	-4.135946e+01	-1.005373e+03
2.920000e-06	-6.189611e-06	-1.542326e-08	-4.209196e+01	-1.010793e+03
2.930000e-06	-6.295269e-06	-1.551254e-08	-4.281048e+01	-1.015600e+03
2.940000e-06	-6.398656e-06	-1.559628e-08	-4.351356e+01	-1.020130e+03
