# Temperatura_=_37.99
# Concentracion g/m^3_=_13400.0
# C_Vs_to_Am_M_A/Vsm_=_65563218390.804596
# pendiente_HvsI_1/m_=_3716.3
# ordenada_HvsI_A/m_=_1297.0
# frecuencia_Hz_=_301418.54587265727

Tiempo_(s)	Campo_(V.s)	Magnetizacion_(V.s)	Campo_(kA/m)	Magnetizacion_(A/m)
0.000000e+00	-8.399979e-06	-1.665313e-08	-5.691892e+01	-1.092121e+03
1.000000e-08	-8.396237e-06	-1.665612e-08	-5.689356e+01	-1.091957e+03
2.000000e-08	-8.389846e-06	-1.665165e-08	-5.685025e+01	-1.091974e+03
3.000000e-08	-8.380716e-06	-1.664142e-08	-5.678839e+01	-1.092019e+03
4.000000e-08	-8.368616e-06	-1.663006e-08	-5.670640e+01	-1.091882e+03
5.000000e-08	-8.353480e-06	-1.662099e-08	-5.660383e+01	-1.091388e+03
6.000000e-08	-8.335473e-06	-1.661062e-08	-5.648182e+01	-1.090478e+03
7.000000e-08	-8.314946e-06	-1.659523e-08	-5.634273e+01	-1.089239e+03
8.000000e-08	-8.291771e-06	-1.661667e-08	-5.618569e+01	-1.087863e+03
9.000000e-08	-8.265344e-06	-1.663948e-08	-5.600662e+01	-1.086572e+03
1.000000e-07	-8.235501e-06	-1.660237e-08	-5.580440e+01	-1.085520e+03
1.100000e-07	-8.202527e-06	-1.656236e-08	-5.558097e+01	-1.084731e+03
1.200000e-07	-8.166653e-06	-1.654118e-08	-5.533788e+01	-1.084089e+03
1.300000e-07	-8.128217e-06	-1.650743e-08	-5.507744e+01	-1.083387e+03
1.400000e-07	-8.087430e-06	-1.643725e-08	-5.480106e+01	-1.082420e+03
1.500000e-07	-8.044044e-06	-1.643863e-08	-5.450707e+01	-1.081061e+03
1.600000e-07	-7.997768e-06	-1.646423e-08	-5.419350e+01	-1.079312e+03
1.700000e-07	-7.948587e-06	-1.639267e-08	-5.386025e+01	-1.077290e+03
1.800000e-07	-7.896371e-06	-1.641843e-08	-5.350643e+01	-1.075161e+03
1.900000e-07	-7.841115e-06	-1.638415e-08	-5.313201e+01	-1.073062e+03
2.000000e-07	-7.783076e-06	-1.630209e-08	-5.273873e+01	-1.071034e+03
2.100000e-07	-7.722302e-06	-1.627479e-08	-5.232693e+01	-1.069001e+03
2.200000e-07	-7.658774e-06	-1.621751e-08	-5.189645e+01	-1.066815e+03
2.300000e-07	-7.592454e-06	-1.620668e-08	-5.144706e+01	-1.064323e+03
2.400000e-07	-7.523334e-06	-1.615608e-08	-5.097870e+01	-1.061451e+03
2.500000e-07	-7.451373e-06	-1.613581e-08	-5.049109e+01	-1.058244e+03
2.600000e-07	-7.376493e-06	-1.610480e-08	-4.998369e+01	-1.054851e+03
2.700000e-07	-7.298803e-06	-1.605424e-08	-4.945726e+01	-1.051463e+03
2.800000e-07	-7.218276e-06	-1.600114e-08	-4.891160e+01	-1.048222e+03
2.900000e-07	-7.135086e-06	-1.591776e-08	-4.834790e+01	-1.045155e+03
3.000000e-07	-7.049544e-06	-1.587877e-08	-4.776826e+01	-1.042150e+03
3.100000e-07	-6.961590e-06	-1.582708e-08	-4.717228e+01	-1.039001e+03
3.200000e-07	-6.871117e-06	-1.578068e-08	-4.655923e+01	-1.035494e+03
3.300000e-07	-6.778184e-06	-1.572472e-08	-4.592951e+01	-1.031496e+03
3.400000e-07	-6.682840e-06	-1.566085e-08	-4.528345e+01	-1.027023e+03
3.500000e-07	-6.585078e-06	-1.560553e-08	-4.462101e+01	-1.022226e+03
3.600000e-07	-6.484914e-06	-1.553460e-08	-4.394228e+01	-1.017332e+03
3.700000e-07	-6.382417e-06	-1.545651e-08	-4.324776e+01	-1.012537e+03
3.800000e-07	-6.277628e-06	-1.537020e-08	-4.253770e+01	-1.007918e+03
3.900000e-07	-6.170571e-06	-1.530198e-08	-4.181227e+01	-1.003390e+03
4.000000e-07	-6.061354e-06	-1.522738e-08	-4.107221e+01	-9.987391e+02
4.100000e-07	-5.949951e-06	-1.514278e-08	-4.031734e+01	-9.937112e+02
4.200000e-07	-5.836214e-06	-1.505497e-08	-3.954664e+01	-9.881242e+02
4.300000e-07	-5.720156e-06	-1.497204e-08	-3.876023e+01	-9.819501e+02
4.400000e-07	-5.601917e-06	-1.488833e-08	-3.795903e+01	-9.753312e+02
4.500000e-07	-5.481586e-06	-1.479488e-08	-3.714366e+01	-9.685188e+02
4.600000e-07	-5.359269e-06	-1.468995e-08	-3.631483e+01	-9.617615e+02
4.700000e-07	-5.235073e-06	-1.457928e-08	-3.547327e+01	-9.551895e+02
4.800000e-07	-5.109006e-06	-1.447946e-08	-3.461903e+01	-9.487479e+02
4.900000e-07	-4.981078e-06	-1.437604e-08	-3.375218e+01	-9.422109e+02
5.000000e-07	-4.851362e-06	-1.426061e-08	-3.287321e+01	-9.352723e+02
5.100000e-07	-4.719858e-06	-1.413872e-08	-3.198213e+01	-9.276764e+02
5.200000e-07	-4.586658e-06	-1.401779e-08	-3.107955e+01	-9.193304e+02
5.300000e-07	-4.451898e-06	-1.389209e-08	-3.016641e+01	-9.103477e+02
5.400000e-07	-4.315514e-06	-1.375826e-08	-2.924226e+01	-9.009996e+02
5.500000e-07	-4.177481e-06	-1.361674e-08	-2.830694e+01	-8.915936e+02
5.600000e-07	-4.037828e-06	-1.347509e-08	-2.736064e+01	-8.823299e+02
5.700000e-07	-3.896528e-06	-1.333320e-08	-2.640318e+01	-8.731995e+02
5.800000e-07	-3.753678e-06	-1.318391e-08	-2.543522e+01	-8.639723e+02
5.900000e-07	-3.609412e-06	-1.302122e-08	-2.445766e+01	-8.542848e+02
6.000000e-07	-3.463803e-06	-1.285126e-08	-2.347100e+01	-8.437918e+02
6.100000e-07	-3.316992e-06	-1.268007e-08	-2.247620e+01	-8.323175e+02
6.200000e-07	-3.169091e-06	-1.250648e-08	-2.147401e+01	-8.199364e+02
6.300000e-07	-3.020109e-06	-1.232258e-08	-2.046450e+01	-8.069439e+02
6.400000e-07	-2.870063e-06	-1.212532e-08	-1.944777e+01	-7.937234e+02
6.500000e-07	-2.718989e-06	-1.192525e-08	-1.842408e+01	-7.805640e+02
6.600000e-07	-2.566924e-06	-1.171888e-08	-1.739368e+01	-7.675086e+02
6.700000e-07	-2.413928e-06	-1.150204e-08	-1.635697e+01	-7.543038e+02
6.800000e-07	-2.260040e-06	-1.127271e-08	-1.531421e+01	-7.404805e+02
6.900000e-07	-2.105308e-06	-1.103534e-08	-1.426573e+01	-7.255390e+02
7.000000e-07	-1.949826e-06	-1.078990e-08	-1.321218e+01	-7.091592e+02
7.100000e-07	-1.793679e-06	-1.053195e-08	-1.215411e+01	-6.913439e+02
7.200000e-07	-1.636930e-06	-1.026048e-08	-1.109197e+01	-6.724215e+02
7.300000e-07	-1.479571e-06	-9.975607e-09	-1.002569e+01	-6.528945e+02
7.400000e-07	-1.321648e-06	-9.680257e-09	-8.955589e+00	-6.331900e+02
7.500000e-07	-1.163236e-06	-9.369872e-09	-7.882181e+00	-6.134145e+02
7.600000e-07	-1.004432e-06	-9.040487e-09	-6.806112e+00	-5.932278e+02
7.700000e-07	-8.452380e-07	-8.689568e-09	-5.727399e+00	-5.719058e+02
7.800000e-07	-6.856869e-07	-8.318852e-09	-4.646268e+00	-5.485852e+02
7.900000e-07	-5.258792e-07	-7.926468e-09	-3.563398e+00	-5.225984e+02
8.000000e-07	-3.658934e-07	-7.507341e-09	-2.479322e+00	-4.937560e+02
8.100000e-07	-2.058073e-07	-7.058590e-09	-1.394566e+00	-4.624342e+02
8.200000e-07	-4.566166e-08	-6.578687e-09	-3.094070e-01	-4.293922e+02
8.300000e-07	1.145049e-07	-6.066069e-09	7.758945e-01	-3.953499e+02
8.400000e-07	2.746411e-07	-5.514160e-09	1.860990e+00	-3.604628e+02
8.500000e-07	4.346463e-07	-4.914622e-09	2.945198e+00	-3.239011e+02
8.600000e-07	5.944670e-07	-4.253419e-09	4.028155e+00	-2.837274e+02
8.700000e-07	7.540742e-07	-3.517112e-09	5.109666e+00	-2.371873e+02
8.800000e-07	9.134072e-07	-2.685331e-09	6.189319e+00	-1.813849e+02
8.900000e-07	1.072402e-06	-1.722000e-09	7.266677e+00	-1.141737e+02
9.000000e-07	1.231036e-06	-5.799257e-10	8.341599e+00	-3.499390e+01
9.100000e-07	1.389184e-06	7.754315e-10	9.413218e+00	5.462026e+01
9.200000e-07	1.546773e-06	2.313641e-09	1.048106e+01	1.510568e+02
9.300000e-07	1.703815e-06	3.907654e-09	1.154518e+01	2.492028e+02
9.400000e-07	1.860255e-06	5.391069e-09	1.260524e+01	3.434435e+02
9.500000e-07	2.016020e-06	6.654314e-09	1.366071e+01	4.288083e+02
9.600000e-07	2.171076e-06	7.682792e-09	1.471138e+01	5.019443e+02
9.700000e-07	2.325369e-06	8.519392e-09	1.575688e+01	5.616482e+02
9.800000e-07	2.478788e-06	9.211991e-09	1.679646e+01	6.088317e+02
9.900000e-07	2.631298e-06	9.797014e-09	1.782988e+01	6.459690e+02
1.000000e-06	2.782835e-06	1.029879e-08	1.885671e+01	6.762308e+02
1.010000e-06	2.933341e-06	1.073697e-08	1.987655e+01	7.025844e+02
1.020000e-06	3.082787e-06	1.112830e-08	2.088921e+01	7.271262e+02
1.030000e-06	3.231142e-06	1.148128e-08	2.189447e+01	7.508093e+02
1.040000e-06	3.378392e-06	1.179843e-08	2.289225e+01	7.735828e+02
1.050000e-06	3.524475e-06	1.208516e-08	2.388212e+01	7.948247e+02
1.060000e-06	3.669275e-06	1.235270e-08	2.486330e+01	8.138661e+02
1.070000e-06	3.812671e-06	1.260465e-08	2.583496e+01	8.304064e+02
1.080000e-06	3.954625e-06	1.283684e-08	2.679685e+01	8.446836e+02
1.090000e-06	4.095085e-06	1.304998e-08	2.774862e+01	8.573795e+02
1.100000e-06	4.234029e-06	1.325176e-08	2.869011e+01	8.693369e+02
1.110000e-06	4.371370e-06	1.344505e-08	2.962074e+01	8.812335e+02
1.120000e-06	4.507075e-06	1.362554e-08	3.054030e+01	8.933525e+02
1.130000e-06	4.641135e-06	1.379201e-08	3.144870e+01	9.055360e+02
1.140000e-06	4.773494e-06	1.395011e-08	3.234557e+01	9.173232e+02
1.150000e-06	4.904216e-06	1.410690e-08	3.323135e+01	9.281975e+02
1.160000e-06	5.033199e-06	1.425623e-08	3.410535e+01	9.378329e+02
1.170000e-06	5.160348e-06	1.439179e-08	3.496692e+01	9.462338e+02
1.180000e-06	5.285638e-06	1.451779e-08	3.581590e+01	9.537220e+02
1.190000e-06	5.409118e-06	1.464083e-08	3.665261e+01	9.607875e+02
1.200000e-06	5.530727e-06	1.476187e-08	3.747664e+01	9.678784e+02
1.210000e-06	5.650264e-06	1.487487e-08	3.828663e+01	9.752224e+02
1.220000e-06	5.767637e-06	1.497891e-08	3.908196e+01	9.827561e+02
1.230000e-06	5.882825e-06	1.507770e-08	3.986248e+01	9.901829e+02
1.240000e-06	5.995804e-06	1.517437e-08	4.062804e+01	9.971279e+02
1.250000e-06	6.106608e-06	1.526431e-08	4.137885e+01	1.003316e+03
1.260000e-06	6.215284e-06	1.534756e-08	4.211525e+01	1.008696e+03
1.270000e-06	6.321761e-06	1.543055e-08	4.283675e+01	1.013459e+03
1.280000e-06	6.425956e-06	1.551326e-08	4.354278e+01	1.017951e+03
1.290000e-06	6.527791e-06	1.559079e-08	4.423282e+01	1.022516e+03
1.300000e-06	6.627282e-06	1.566264e-08	4.490698e+01	1.027354e+03
1.310000e-06	6.724339e-06	1.573397e-08	4.556465e+01	1.032438e+03
1.320000e-06	6.818964e-06	1.580398e-08	4.620583e+01	1.037539e+03
1.330000e-06	6.911264e-06	1.586793e-08	4.683127e+01	1.042333e+03
1.340000e-06	7.001131e-06	1.592436e-08	4.744021e+01	1.046550e+03
1.350000e-06	7.088518e-06	1.597844e-08	4.803235e+01	1.050086e+03
1.360000e-06	7.173479e-06	1.603379e-08	4.860805e+01	1.053049e+03
1.370000e-06	7.255970e-06	1.609029e-08	4.916702e+01	1.055706e+03
1.380000e-06	7.335824e-06	1.614333e-08	4.970812e+01	1.058364e+03
1.390000e-06	7.412911e-06	1.619100e-08	5.023047e+01	1.061242e+03
1.400000e-06	7.487230e-06	1.623727e-08	5.073406e+01	1.064380e+03
1.410000e-06	7.558852e-06	1.628082e-08	5.121937e+01	1.067636e+03
1.420000e-06	7.627786e-06	1.631803e-08	5.168647e+01	1.070756e+03
1.430000e-06	7.693918e-06	1.635157e-08	5.213459e+01	1.073490e+03
1.440000e-06	7.757321e-06	1.638696e-08	5.256421e+01	1.075704e+03
1.450000e-06	7.818138e-06	1.642473e-08	5.297632e+01	1.077437e+03
1.460000e-06	7.876244e-06	1.646074e-08	5.337005e+01	1.078873e+03
1.470000e-06	7.931515e-06	1.649015e-08	5.374457e+01	1.080261e+03
1.480000e-06	7.983712e-06	1.651385e-08	5.409826e+01	1.081802e+03
1.490000e-06	8.032660e-06	1.653518e-08	5.442993e+01	1.083562e+03
1.500000e-06	8.078632e-06	1.655505e-08	5.474145e+01	1.085448e+03
1.510000e-06	8.121723e-06	1.657388e-08	5.503343e+01	1.087258e+03
1.520000e-06	8.161910e-06	1.659150e-08	5.530574e+01	1.088774e+03
1.530000e-06	8.199283e-06	1.660903e-08	5.555899e+01	1.089860e+03
1.540000e-06	8.233765e-06	1.662702e-08	5.579264e+01	1.090526e+03
1.550000e-06	8.265355e-06	1.664577e-08	5.600669e+01	1.090918e+03
1.560000e-06	8.294163e-06	1.666306e-08	5.620190e+01	1.091254e+03
1.570000e-06	8.319994e-06	1.667305e-08	5.637693e+01	1.091726e+03
1.580000e-06	8.342782e-06	1.667871e-08	5.653134e+01	1.092417e+03
1.590000e-06	8.362746e-06	1.668655e-08	5.666662e+01	1.093264e+03
1.600000e-06	8.379736e-06	1.669400e-08	5.678175e+01	1.094093e+03
1.610000e-06	8.393594e-06	1.669727e-08	5.687565e+01	1.094698e+03
1.620000e-06	8.404253e-06	1.669970e-08	5.694788e+01	1.094935e+03
1.630000e-06	8.411791e-06	1.670522e-08	5.699896e+01	1.094790e+03
1.640000e-06	8.416430e-06	1.671166e-08	5.703039e+01	1.094378e+03
1.650000e-06	8.418070e-06	1.671332e-08	5.704150e+01	1.093900e+03
1.660000e-06	8.416794e-06	1.670431e-08	5.703286e+01	1.093543e+03
1.670000e-06	8.412777e-06	1.669340e-08	5.700564e+01	1.093402e+03
1.680000e-06	8.405950e-06	1.669044e-08	5.695938e+01	1.093431e+03
1.690000e-06	8.396338e-06	1.668720e-08	5.689425e+01	1.093466e+03
1.700000e-06	8.383814e-06	1.667898e-08	5.680938e+01	1.093297e+03
1.710000e-06	8.368426e-06	1.667095e-08	5.670511e+01	1.092758e+03
1.720000e-06	8.350519e-06	1.666909e-08	5.658377e+01	1.091807e+03
1.730000e-06	8.330052e-06	1.664335e-08	5.644509e+01	1.090541e+03
1.740000e-06	8.306501e-06	1.657283e-08	5.628550e+01	1.089164e+03
1.750000e-06	8.279179e-06	1.656021e-08	5.610037e+01	1.087893e+03
1.760000e-06	8.248040e-06	1.656631e-08	5.588937e+01	1.086870e+03
1.770000e-06	8.213829e-06	1.655005e-08	5.565755e+01	1.086104e+03
1.780000e-06	8.177066e-06	1.655216e-08	5.540844e+01	1.085465e+03
1.790000e-06	8.138005e-06	1.659583e-08	5.514376e+01	1.084744e+03
1.800000e-06	8.097005e-06	1.653106e-08	5.486594e+01	1.083738e+03
1.810000e-06	8.053615e-06	1.649717e-08	5.457193e+01	1.082335e+03
1.820000e-06	8.007199e-06	1.653369e-08	5.425741e+01	1.080549e+03
1.830000e-06	7.957869e-06	1.645093e-08	5.392314e+01	1.078506e+03
1.840000e-06	7.905292e-06	1.646464e-08	5.356688e+01	1.076375e+03
1.850000e-06	7.849607e-06	1.640010e-08	5.318955e+01	1.074283e+03
1.860000e-06	7.791257e-06	1.637793e-08	5.279417e+01	1.072259e+03
1.870000e-06	7.730040e-06	1.638345e-08	5.237936e+01	1.070218e+03
1.880000e-06	7.666103e-06	1.628521e-08	5.194612e+01	1.068004e+03
1.890000e-06	7.599345e-06	1.628613e-08	5.149376e+01	1.065473e+03
1.900000e-06	7.529655e-06	1.618859e-08	5.102154e+01	1.062561e+03
1.910000e-06	7.457057e-06	1.614582e-08	5.052960e+01	1.059325e+03
1.920000e-06	7.381569e-06	1.611611e-08	5.001809e+01	1.055923e+03
1.930000e-06	7.303291e-06	1.605719e-08	4.948767e+01	1.052545e+03
1.940000e-06	7.222349e-06	1.605344e-08	4.893920e+01	1.049323e+03
1.950000e-06	7.138932e-06	1.597533e-08	4.837397e+01	1.046270e+03
1.960000e-06	7.052862e-06	1.594064e-08	4.779075e+01	1.043260e+03
1.970000e-06	6.964267e-06	1.584796e-08	4.719042e+01	1.040082e+03
1.980000e-06	6.873259e-06	1.578123e-08	4.657374e+01	1.036525e+03
1.990000e-06	6.779749e-06	1.573351e-08	4.594011e+01	1.032473e+03
2.000000e-06	6.683867e-06	1.567079e-08	4.529041e+01	1.027955e+03
2.010000e-06	6.585636e-06	1.562388e-08	4.462479e+01	1.023136e+03
2.020000e-06	6.485074e-06	1.554584e-08	4.394337e+01	1.018244e+03
2.030000e-06	6.382046e-06	1.547997e-08	4.324524e+01	1.013466e+03
2.040000e-06	6.276692e-06	1.538911e-08	4.253136e+01	1.008863e+03
2.050000e-06	6.169184e-06	1.531412e-08	4.180287e+01	1.004334e+03
2.060000e-06	6.059514e-06	1.523027e-08	4.105974e+01	9.996540e+02
2.070000e-06	5.947662e-06	1.515878e-08	4.030183e+01	9.945722e+02
2.080000e-06	5.833509e-06	1.507533e-08	3.952832e+01	9.889200e+02
2.090000e-06	5.717011e-06	1.499037e-08	3.873892e+01	9.826883e+02
2.100000e-06	5.598211e-06	1.489006e-08	3.793392e+01	9.760351e+02
2.110000e-06	5.477401e-06	1.478721e-08	3.711530e+01	9.692175e+02
2.120000e-06	5.354676e-06	1.468722e-08	3.628371e+01	9.624763e+02
2.130000e-06	5.230045e-06	1.457416e-08	3.543920e+01	9.559238e+02
2.140000e-06	5.103509e-06	1.447396e-08	3.458178e+01	9.494848e+02
2.150000e-06	4.975123e-06	1.436293e-08	3.371182e+01	9.429191e+02
2.160000e-06	4.844996e-06	1.425869e-08	3.283008e+01	9.359197e+02
2.170000e-06	4.713173e-06	1.414231e-08	3.193683e+01	9.282438e+02
2.180000e-06	4.579669e-06	1.402209e-08	3.103220e+01	9.198202e+02
2.190000e-06	4.444532e-06	1.389263e-08	3.011650e+01	9.107830e+02
2.200000e-06	4.307757e-06	1.375495e-08	2.918970e+01	9.014143e+02
2.210000e-06	4.169289e-06	1.361256e-08	2.825143e+01	8.920166e+02
2.220000e-06	4.029238e-06	1.346526e-08	2.730244e+01	8.827713e+02
2.230000e-06	3.887659e-06	1.331872e-08	2.634308e+01	8.736445e+02
2.240000e-06	3.744649e-06	1.317345e-08	2.537403e+01	8.643859e+02
2.250000e-06	3.600338e-06	1.302142e-08	2.439617e+01	8.546263e+02
2.260000e-06	3.454765e-06	1.285941e-08	2.340976e+01	8.440319e+02
2.270000e-06	3.307885e-06	1.268596e-08	2.241449e+01	8.324519e+02
2.280000e-06	3.159804e-06	1.250440e-08	2.141108e+01	8.199877e+02
2.290000e-06	3.010623e-06	1.231599e-08	2.040021e+01	8.069520e+02
2.300000e-06	2.860408e-06	1.211833e-08	1.938235e+01	7.937271e+02
2.310000e-06	2.709245e-06	1.191937e-08	1.835806e+01	7.805816e+02
2.320000e-06	2.557129e-06	1.171594e-08	1.732731e+01	7.675268e+02
2.330000e-06	2.404114e-06	1.150513e-08	1.629046e+01	7.542800e+02
2.340000e-06	2.250197e-06	1.128301e-08	1.524751e+01	7.403589e+02
2.350000e-06	2.095386e-06	1.104707e-08	1.419850e+01	7.252731e+02
2.360000e-06	1.939788e-06	1.079891e-08	1.314416e+01	7.087326e+02
2.370000e-06	1.783531e-06	1.053680e-08	1.208534e+01	6.907777e+02
2.380000e-06	1.626658e-06	1.026222e-08	1.102236e+01	6.717650e+02
2.390000e-06	1.469127e-06	9.979112e-09	9.954917e+00	6.522020e+02
2.400000e-06	1.310992e-06	9.683803e-09	8.883384e+00	6.324918e+02
2.410000e-06	1.152410e-06	9.372084e-09	7.808818e+00	6.126960e+02
2.420000e-06	9.934852e-07	9.039513e-09	6.731933e+00	5.924268e+02
2.430000e-06	8.342471e-07	8.688536e-09	5.652924e+00	5.709309e+02
2.440000e-06	6.747193e-07	8.319421e-09	4.571951e+00	5.473495e+02
2.450000e-06	5.149556e-07	7.928302e-09	3.489380e+00	5.210552e+02
2.460000e-06	3.549958e-07	7.509786e-09	2.405479e+00	4.919194e+02
2.470000e-06	1.949560e-07	7.060560e-09	1.321037e+00	4.603730e+02
2.480000e-06	3.492721e-08	6.578281e-09	2.366695e-01	4.271945e+02
2.490000e-06	-1.251456e-07	6.060381e-09	-8.479966e-01	3.930684e+02
2.500000e-06	-2.852148e-07	5.502121e-09	-1.932638e+00	3.580610e+02
2.510000e-06	-4.451095e-07	4.897243e-09	-3.016097e+00	3.212228e+02
2.520000e-06	-6.048348e-07	4.234667e-09	-4.098408e+00	2.805075e+02
2.530000e-06	-7.644003e-07	3.500001e-09	-5.179637e+00	2.331076e+02
2.540000e-06	-9.237036e-07	2.670260e-09	-6.259088e+00	1.761634e+02
2.550000e-06	-1.082634e-06	1.705783e-09	-7.336015e+00	1.076617e+02
2.560000e-06	-1.241182e-06	5.594750e-10	-8.410345e+00	2.725121e+01
2.570000e-06	-1.399352e-06	-8.037613e-10	-9.482118e+00	-6.330032e+01
2.580000e-06	-1.556946e-06	-2.351093e-09	-1.054999e+01	-1.601833e+02
2.590000e-06	-1.713869e-06	-3.953313e-09	-1.161331e+01	-2.581781e+02
2.600000e-06	-1.870127e-06	-5.439145e-09	-1.267213e+01	-3.516844e+02
2.610000e-06	-2.025720e-06	-6.700649e-09	-1.372644e+01	-4.358644e+02
2.620000e-06	-2.180617e-06	-7.727165e-09	-1.477603e+01	-5.075796e+02
2.630000e-06	-2.334696e-06	-8.560661e-09	-1.582008e+01	-5.658652e+02
2.640000e-06	-2.487847e-06	-9.251388e-09	-1.685785e+01	-6.118343e+02
2.650000e-06	-2.640029e-06	-9.836874e-09	-1.788904e+01	-6.480803e+02
2.660000e-06	-2.791280e-06	-1.034221e-08	-1.891393e+01	-6.777929e+02
2.670000e-06	-2.941592e-06	-1.078409e-08	-1.993246e+01	-7.038720e+02
2.680000e-06	-3.090847e-06	-1.117546e-08	-2.094382e+01	-7.282970e+02
2.690000e-06	-3.238923e-06	-1.152806e-08	-2.194720e+01	-7.518999e+02
2.700000e-06	-3.385798e-06	-1.184929e-08	-2.294244e+01	-7.745447e+02
2.710000e-06	-3.531490e-06	-1.214204e-08	-2.392965e+01	-7.955795e+02
2.720000e-06	-3.675901e-06	-1.240808e-08	-2.490819e+01	-8.143588e+02
2.730000e-06	-3.818956e-06	-1.265403e-08	-2.587755e+01	-8.306362e+02
2.740000e-06	-3.960674e-06	-1.288682e-08	-2.683784e+01	-8.447062e+02
2.750000e-06	-4.100904e-06	-1.310514e-08	-2.778805e+01	-8.572835e+02
2.760000e-06	-4.239585e-06	-1.330799e-08	-2.872776e+01	-8.692080e+02
2.770000e-06	-4.376738e-06	-1.349767e-08	-2.965712e+01	-8.811235e+02
2.780000e-06	-4.512199e-06	-1.367810e-08	-3.057501e+01	-8.932645e+02
2.790000e-06	-4.646044e-06	-1.384861e-08	-3.148196e+01	-9.054313e+02
2.800000e-06	-4.778252e-06	-1.400634e-08	-3.237781e+01	-9.171443e+02
2.810000e-06	-4.908706e-06	-1.415485e-08	-3.326177e+01	-9.278968e+02
2.820000e-06	-5.037453e-06	-1.429827e-08	-3.413418e+01	-9.373939e+02
2.830000e-06	-5.164465e-06	-1.443673e-08	-3.499482e+01	-9.456775e+02
2.840000e-06	-5.289658e-06	-1.456561e-08	-3.584314e+01	-9.530964e+02
2.850000e-06	-5.412955e-06	-1.468318e-08	-3.667861e+01	-9.601464e+02
2.860000e-06	-5.534315e-06	-1.479407e-08	-3.750095e+01	-9.672590e+02
2.870000e-06	-5.653656e-06	-1.490244e-08	-3.830961e+01	-9.746319e+02
2.880000e-06	-5.770834e-06	-1.500848e-08	-3.910363e+01	-9.821717e+02
2.890000e-06	-5.885663e-06	-1.510866e-08	-3.988172e+01	-9.895650e+02
2.900000e-06	-5.998070e-06	-1.520215e-08	-4.064339e+01	-9.964393e+02
2.910000e-06	-6.108184e-06	-1.529274e-08	-4.138953e+01	-1.002539e+03
2.920000e-06	-6.216162e-06	-1.538123e-08	-4.212120e+01	-1.007841e+03
2.930000e-06	-6.322055e-06	-1.546492e-08	-4.283874e+01	-1.012557e+03
2.940000e-06	-6.425716e-06	-1.554428e-08	-4.354115e+01	-1.017042e+03
