# Temperatura_=_72.28
# Concentracion g/m^3_=_13400.0
# C_Vs_to_Am_M_A/Vsm_=_65563218390.804596
# pendiente_HvsI_1/m_=_3716.3
# ordenada_HvsI_A/m_=_1297.0
# frecuencia_Hz_=_301423.08260623965

Tiempo_(s)	Campo_(V.s)	Magnetizacion_(V.s)	Campo_(kA/m)	Magnetizacion_(A/m)
0.000000e+00	-8.386409e-06	-1.789992e-08	-5.692166e+01	-1.175228e+03
1.000000e-08	-8.383254e-06	-1.790599e-08	-5.690024e+01	-1.175143e+03
2.000000e-08	-8.377381e-06	-1.790262e-08	-5.686038e+01	-1.175159e+03
3.000000e-08	-8.368800e-06	-1.789250e-08	-5.680213e+01	-1.175064e+03
4.000000e-08	-8.357266e-06	-1.788169e-08	-5.672385e+01	-1.174632e+03
5.000000e-08	-8.342684e-06	-1.786845e-08	-5.662488e+01	-1.173733e+03
6.000000e-08	-8.325145e-06	-1.784937e-08	-5.650583e+01	-1.172389e+03
7.000000e-08	-8.305047e-06	-1.781716e-08	-5.636943e+01	-1.170768e+03
8.000000e-08	-8.282428e-06	-1.781694e-08	-5.621590e+01	-1.169116e+03
9.000000e-08	-8.256654e-06	-1.790442e-08	-5.604096e+01	-1.167646e+03
1.000000e-07	-8.227488e-06	-1.787423e-08	-5.584300e+01	-1.166453e+03
1.100000e-07	-8.195191e-06	-1.778003e-08	-5.562379e+01	-1.165468e+03
1.200000e-07	-8.159958e-06	-1.775652e-08	-5.538465e+01	-1.164497e+03
1.300000e-07	-8.122089e-06	-1.774502e-08	-5.512762e+01	-1.163301e+03
1.400000e-07	-8.081852e-06	-1.764587e-08	-5.485451e+01	-1.161704e+03
1.500000e-07	-8.039129e-06	-1.753739e-08	-5.456454e+01	-1.159666e+03
1.600000e-07	-7.993556e-06	-1.769660e-08	-5.425522e+01	-1.157289e+03
1.700000e-07	-7.945036e-06	-1.757489e-08	-5.392590e+01	-1.154765e+03
1.800000e-07	-7.893526e-06	-1.754307e-08	-5.357628e+01	-1.152278e+03
1.900000e-07	-7.838956e-06	-1.760780e-08	-5.320589e+01	-1.149909e+03
2.000000e-07	-7.781539e-06	-1.741844e-08	-5.281618e+01	-1.147593e+03
2.100000e-07	-7.721363e-06	-1.741914e-08	-5.240774e+01	-1.145140e+03
2.200000e-07	-7.658456e-06	-1.733336e-08	-5.198077e+01	-1.142324e+03
2.300000e-07	-7.592791e-06	-1.732544e-08	-5.153508e+01	-1.138984e+03
2.400000e-07	-7.524301e-06	-1.730012e-08	-5.107021e+01	-1.135110e+03
2.500000e-07	-7.453008e-06	-1.722249e-08	-5.058632e+01	-1.130852e+03
2.600000e-07	-7.378823e-06	-1.720622e-08	-5.008280e+01	-1.126469e+03
2.700000e-07	-7.301785e-06	-1.710880e-08	-4.955991e+01	-1.122211e+03
2.800000e-07	-7.221956e-06	-1.705262e-08	-4.901809e+01	-1.118216e+03
2.900000e-07	-7.139375e-06	-1.693232e-08	-4.845758e+01	-1.114438e+03
3.000000e-07	-7.054376e-06	-1.689407e-08	-4.788065e+01	-1.110661e+03
3.100000e-07	-6.967034e-06	-1.687282e-08	-4.728783e+01	-1.106592e+03
3.200000e-07	-6.877243e-06	-1.678318e-08	-4.667839e+01	-1.101980e+03
3.300000e-07	-6.784988e-06	-1.673748e-08	-4.605222e+01	-1.096730e+03
3.400000e-07	-6.690290e-06	-1.662164e-08	-4.540947e+01	-1.090946e+03
3.500000e-07	-6.593246e-06	-1.653695e-08	-4.475080e+01	-1.084889e+03
3.600000e-07	-6.493766e-06	-1.644295e-08	-4.407559e+01	-1.078860e+03
3.700000e-07	-6.391842e-06	-1.635444e-08	-4.338379e+01	-1.073072e+03
3.800000e-07	-6.287645e-06	-1.626823e-08	-4.267657e+01	-1.067546e+03
3.900000e-07	-6.181172e-06	-1.619099e-08	-4.195390e+01	-1.062098e+03
4.000000e-07	-6.072464e-06	-1.612738e-08	-4.121606e+01	-1.056414e+03
4.100000e-07	-5.961591e-06	-1.600961e-08	-4.046352e+01	-1.050184e+03
4.200000e-07	-5.848546e-06	-1.589719e-08	-3.969624e+01	-1.043238e+03
4.300000e-07	-5.733204e-06	-1.576802e-08	-3.891337e+01	-1.035623e+03
4.400000e-07	-5.615533e-06	-1.566160e-08	-3.811470e+01	-1.027587e+03
4.500000e-07	-5.495760e-06	-1.555429e-08	-3.730175e+01	-1.019467e+03
4.600000e-07	-5.374077e-06	-1.544644e-08	-3.647584e+01	-1.011544e+03
4.700000e-07	-5.250474e-06	-1.533045e-08	-3.563691e+01	-1.003905e+03
4.800000e-07	-5.124931e-06	-1.520791e-08	-3.478480e+01	-9.964018e+02
4.900000e-07	-4.997573e-06	-1.508348e-08	-3.392037e+01	-9.887017e+02
5.000000e-07	-4.868444e-06	-1.493918e-08	-3.304393e+01	-9.804293e+02
5.100000e-07	-4.737501e-06	-1.479385e-08	-3.215517e+01	-9.713300e+02
5.200000e-07	-4.604847e-06	-1.464673e-08	-3.125480e+01	-9.613838e+02
5.300000e-07	-4.470557e-06	-1.450657e-08	-3.034332e+01	-9.508189e+02
5.400000e-07	-4.334645e-06	-1.435648e-08	-2.942084e+01	-9.400129e+02
5.500000e-07	-4.197189e-06	-1.419759e-08	-2.848788e+01	-9.293230e+02
5.600000e-07	-4.058050e-06	-1.403398e-08	-2.754349e+01	-9.189186e+02
5.700000e-07	-3.917295e-06	-1.386860e-08	-2.658813e+01	-9.086905e+02
5.800000e-07	-3.775063e-06	-1.369670e-08	-2.562275e+01	-8.982826e+02
5.900000e-07	-3.631407e-06	-1.351255e-08	-2.464770e+01	-8.872360e+02
6.000000e-07	-3.486369e-06	-1.332411e-08	-2.366327e+01	-8.751852e+02
6.100000e-07	-3.339971e-06	-1.313079e-08	-2.266962e+01	-8.620224e+02
6.200000e-07	-3.192405e-06	-1.293673e-08	-2.166803e+01	-8.479512e+02
6.300000e-07	-3.043815e-06	-1.273079e-08	-2.065949e+01	-8.334016e+02
6.400000e-07	-2.894141e-06	-1.251374e-08	-1.964360e+01	-8.188371e+02
6.500000e-07	-2.743447e-06	-1.229376e-08	-1.862079e+01	-8.045330e+02
6.600000e-07	-2.591874e-06	-1.206946e-08	-1.759201e+01	-7.904276e+02
6.700000e-07	-2.439397e-06	-1.183234e-08	-1.655709e+01	-7.761158e+02
6.800000e-07	-2.286021e-06	-1.157869e-08	-1.551607e+01	-7.609983e+02
6.900000e-07	-2.131793e-06	-1.131994e-08	-1.446927e+01	-7.445287e+02
7.000000e-07	-1.976723e-06	-1.105511e-08	-1.341675e+01	-7.264520e+02
7.100000e-07	-1.820982e-06	-1.078105e-08	-1.235968e+01	-7.069258e+02
7.200000e-07	-1.664682e-06	-1.049052e-08	-1.129881e+01	-6.864577e+02
7.300000e-07	-1.507760e-06	-1.018763e-08	-1.023372e+01	-6.656727e+02
7.400000e-07	-1.350165e-06	-9.872926e-09	-9.164069e+00	-6.450002e+02
7.500000e-07	-1.191966e-06	-9.542959e-09	-8.090312e+00	-6.244171e+02
7.600000e-07	-1.033265e-06	-9.191493e-09	-7.013152e+00	-6.033692e+02
7.700000e-07	-8.741940e-07	-8.815716e-09	-5.933478e+00	-5.809249e+02
7.800000e-07	-7.148892e-07	-8.426321e-09	-4.852217e+00	-5.561177e+02
7.900000e-07	-5.553722e-07	-8.019300e-09	-3.769516e+00	-5.283400e+02
8.000000e-07	-3.957209e-07	-7.586476e-09	-2.685904e+00	-4.976113e+02
8.100000e-07	-2.359643e-07	-7.118030e-09	-1.601577e+00	-4.645753e+02
8.200000e-07	-7.611106e-08	-6.616366e-09	-5.165939e-01	-4.301783e+02
8.300000e-07	8.380714e-08	-6.078030e-09	5.688300e-01	-3.951110e+02
8.400000e-07	2.436790e-07	-5.494558e-09	1.653939e+00	-3.592131e+02
8.500000e-07	4.034483e-07	-4.855228e-09	2.738353e+00	-3.210871e+02
8.600000e-07	5.631162e-07	-4.145412e-09	3.822078e+00	-2.781214e+02
8.700000e-07	7.225986e-07	-3.352115e-09	4.904544e+00	-2.270014e+02
8.800000e-07	8.818740e-07	-2.445183e-09	5.985605e+00	-1.646080e+02
8.900000e-07	1.040906e-06	-1.379218e-09	7.065014e+00	-8.905694e+01
9.000000e-07	1.199547e-06	-9.596550e-11	8.141769e+00	-5.494572e-01
9.100000e-07	1.357646e-06	1.429676e-09	9.214845e+00	9.826102e+01
9.200000e-07	1.515121e-06	3.129255e-09	1.028369e+01	2.025457e+02
9.300000e-07	1.671945e-06	4.821150e-09	1.134811e+01	3.061826e+02
9.400000e-07	1.828159e-06	6.316413e-09	1.240839e+01	4.030119e+02
9.500000e-07	1.983848e-06	7.535325e-09	1.346511e+01	4.881127e+02
9.600000e-07	2.138925e-06	8.504088e-09	1.451767e+01	5.587389e+02
9.700000e-07	2.293169e-06	9.287073e-09	1.556459e+01	6.146640e+02
9.800000e-07	2.446443e-06	9.937374e-09	1.660491e+01	6.578697e+02
9.900000e-07	2.598814e-06	1.049289e-08	1.763911e+01	6.917167e+02
1.000000e-06	2.750397e-06	1.097416e-08	1.866796e+01	7.198838e+02
1.010000e-06	2.900992e-06	1.139839e-08	1.969010e+01	7.454084e+02
1.020000e-06	3.050419e-06	1.178097e-08	2.070432e+01	7.700965e+02
1.030000e-06	3.198739e-06	1.213096e-08	2.171102e+01	7.944239e+02
1.040000e-06	3.345978e-06	1.245130e-08	2.271039e+01	8.178769e+02
1.050000e-06	3.491962e-06	1.274378e-08	2.370124e+01	8.395420e+02
1.060000e-06	3.636631e-06	1.301635e-08	2.468316e+01	8.586973e+02
1.070000e-06	3.780071e-06	1.327385e-08	2.565674e+01	8.751934e+02
1.080000e-06	3.922092e-06	1.351564e-08	2.662068e+01	8.895191e+02
1.090000e-06	4.062600e-06	1.374184e-08	2.757436e+01	9.025780e+02
1.100000e-06	4.201610e-06	1.395700e-08	2.851788e+01	9.153103e+02
1.110000e-06	4.339018e-06	1.416060e-08	2.945052e+01	9.283344e+02
1.120000e-06	4.474859e-06	1.434970e-08	3.037252e+01	9.417560e+02
1.130000e-06	4.609071e-06	1.452868e-08	3.128347e+01	9.552051e+02
1.140000e-06	4.741550e-06	1.470416e-08	3.218265e+01	9.680647e+02
1.150000e-06	4.872394e-06	1.487699e-08	3.307074e+01	9.797770e+02
1.160000e-06	5.001546e-06	1.504098e-08	3.394734e+01	9.900939e+02
1.170000e-06	5.128904e-06	1.519291e-08	3.481177e+01	9.991724e+02
1.180000e-06	5.254445e-06	1.533658e-08	3.566386e+01	1.007487e+03
1.190000e-06	5.378135e-06	1.547723e-08	3.650339e+01	1.015613e+03
1.200000e-06	5.499891e-06	1.561208e-08	3.732979e+01	1.023981e+03
1.210000e-06	5.619617e-06	1.573972e-08	3.814242e+01	1.032713e+03
1.220000e-06	5.737197e-06	1.586330e-08	3.894048e+01	1.041595e+03
1.230000e-06	5.852575e-06	1.598399e-08	3.972359e+01	1.050205e+03
1.240000e-06	5.965709e-06	1.609827e-08	4.049147e+01	1.058109e+03
1.250000e-06	6.076628e-06	1.620393e-08	4.124432e+01	1.065066e+03
1.260000e-06	6.185451e-06	1.630372e-08	4.198294e+01	1.071122e+03
1.270000e-06	6.292182e-06	1.640028e-08	4.270737e+01	1.076585e+03
1.280000e-06	6.396663e-06	1.649367e-08	4.341651e+01	1.081883e+03
1.290000e-06	6.498735e-06	1.658244e-08	4.410932e+01	1.087380e+03
1.300000e-06	6.598437e-06	1.666799e-08	4.478603e+01	1.093224e+03
1.310000e-06	6.695763e-06	1.675038e-08	4.544662e+01	1.099302e+03
1.320000e-06	6.790714e-06	1.682957e-08	4.609109e+01	1.105302e+03
1.330000e-06	6.883277e-06	1.690359e-08	4.671934e+01	1.110864e+03
1.340000e-06	6.973436e-06	1.697290e-08	4.733129e+01	1.115742e+03
1.350000e-06	7.061138e-06	1.703961e-08	4.792655e+01	1.119908e+03
1.360000e-06	7.146398e-06	1.710621e-08	4.850525e+01	1.123555e+03
1.370000e-06	7.229157e-06	1.717688e-08	4.906696e+01	1.127010e+03
1.380000e-06	7.309286e-06	1.724600e-08	4.961082e+01	1.130587e+03
1.390000e-06	7.386738e-06	1.730558e-08	5.013652e+01	1.134450e+03
1.400000e-06	7.461436e-06	1.735753e-08	5.064353e+01	1.138551e+03
1.410000e-06	7.533399e-06	1.740840e-08	5.113196e+01	1.142664e+03
1.420000e-06	7.602694e-06	1.745911e-08	5.160230e+01	1.146486e+03
1.430000e-06	7.669263e-06	1.750626e-08	5.205412e+01	1.149780e+03
1.440000e-06	7.733095e-06	1.755029e-08	5.248737e+01	1.152474e+03
1.450000e-06	7.794314e-06	1.759707e-08	5.290289e+01	1.154686e+03
1.460000e-06	7.852839e-06	1.764601e-08	5.330012e+01	1.156669e+03
1.470000e-06	7.908549e-06	1.769037e-08	5.367824e+01	1.158690e+03
1.480000e-06	7.961173e-06	1.772516e-08	5.403542e+01	1.160917e+03
1.490000e-06	8.010529e-06	1.775144e-08	5.437042e+01	1.163345e+03
1.500000e-06	8.056923e-06	1.777521e-08	5.468531e+01	1.165807e+03
1.510000e-06	8.100517e-06	1.780017e-08	5.498120e+01	1.168056e+03
1.520000e-06	8.141220e-06	1.782569e-08	5.525747e+01	1.169877e+03
1.530000e-06	8.179063e-06	1.784975e-08	5.551432e+01	1.171186e+03
1.540000e-06	8.214031e-06	1.787388e-08	5.575166e+01	1.172065e+03
1.550000e-06	8.246097e-06	1.789984e-08	5.596930e+01	1.172725e+03
1.560000e-06	8.275357e-06	1.792494e-08	5.616790e+01	1.173405e+03
1.570000e-06	8.301694e-06	1.794273e-08	5.634667e+01	1.174270e+03
1.580000e-06	8.325009e-06	1.795121e-08	5.650491e+01	1.175335e+03
1.590000e-06	8.345433e-06	1.795752e-08	5.664353e+01	1.176465e+03
1.600000e-06	8.362933e-06	1.796591e-08	5.676232e+01	1.177438e+03
1.610000e-06	8.377393e-06	1.797357e-08	5.686046e+01	1.178047e+03
1.620000e-06	8.388630e-06	1.797741e-08	5.693673e+01	1.178198e+03
1.630000e-06	8.396683e-06	1.798238e-08	5.699139e+01	1.177947e+03
1.640000e-06	8.401848e-06	1.799125e-08	5.702644e+01	1.177483e+03
1.650000e-06	8.404066e-06	1.799866e-08	5.704150e+01	1.177031e+03
1.660000e-06	8.403355e-06	1.799908e-08	5.703667e+01	1.176757e+03
1.670000e-06	8.399893e-06	1.797861e-08	5.701318e+01	1.176690e+03
1.680000e-06	8.393633e-06	1.796844e-08	5.697069e+01	1.176706e+03
1.690000e-06	8.384585e-06	1.796328e-08	5.690927e+01	1.176584e+03
1.700000e-06	8.372555e-06	1.794951e-08	5.682762e+01	1.176106e+03
1.710000e-06	8.357589e-06	1.793492e-08	5.672605e+01	1.175155e+03
1.720000e-06	8.340135e-06	1.793235e-08	5.660758e+01	1.173770e+03
1.730000e-06	8.320262e-06	1.794247e-08	5.647269e+01	1.172134e+03
1.740000e-06	8.297446e-06	1.780963e-08	5.631783e+01	1.170492e+03
1.750000e-06	8.270894e-06	1.775602e-08	5.613761e+01	1.169049e+03
1.760000e-06	8.240431e-06	1.780663e-08	5.593085e+01	1.167884e+03
1.770000e-06	8.206783e-06	1.778241e-08	5.570247e+01	1.166911e+03
1.780000e-06	8.170601e-06	1.774244e-08	5.545688e+01	1.165927e+03
1.790000e-06	8.132036e-06	1.784597e-08	5.519513e+01	1.164694e+03
1.800000e-06	8.091447e-06	1.781307e-08	5.491964e+01	1.163049e+03
1.810000e-06	8.048623e-06	1.762351e-08	5.462898e+01	1.160967e+03
1.820000e-06	8.002804e-06	1.777442e-08	5.431799e+01	1.158564e+03
1.830000e-06	7.954137e-06	1.763523e-08	5.398767e+01	1.156036e+03
1.840000e-06	7.902318e-06	1.762890e-08	5.363595e+01	1.153560e+03
1.850000e-06	7.847245e-06	1.764709e-08	5.326215e+01	1.151202e+03
1.860000e-06	7.789501e-06	1.749968e-08	5.287022e+01	1.148881e+03
1.870000e-06	7.728882e-06	1.762396e-08	5.245878e+01	1.146400e+03
1.880000e-06	7.665503e-06	1.742490e-08	5.202860e+01	1.143532e+03
1.890000e-06	7.599356e-06	1.740961e-08	5.157964e+01	1.140133e+03
1.900000e-06	7.530313e-06	1.733037e-08	5.111101e+01	1.136207e+03
1.910000e-06	7.458387e-06	1.722727e-08	5.062282e+01	1.131923e+03
1.920000e-06	7.383518e-06	1.726818e-08	5.011466e+01	1.127541e+03
1.930000e-06	7.305877e-06	1.713402e-08	4.958768e+01	1.123308e+03
1.940000e-06	7.225560e-06	1.719054e-08	4.904255e+01	1.119341e+03
1.950000e-06	7.142745e-06	1.702745e-08	4.848045e+01	1.115575e+03
1.960000e-06	7.057326e-06	1.697058e-08	4.790068e+01	1.111782e+03
1.970000e-06	6.969301e-06	1.689940e-08	4.730322e+01	1.107664e+03
1.980000e-06	6.878862e-06	1.675827e-08	4.668938e+01	1.102984e+03
1.990000e-06	6.785908e-06	1.676369e-08	4.605846e+01	1.097668e+03
2.000000e-06	6.690546e-06	1.664523e-08	4.541121e+01	1.091840e+03
2.010000e-06	6.592821e-06	1.663158e-08	4.474791e+01	1.085772e+03
2.020000e-06	6.492849e-06	1.649923e-08	4.406937e+01	1.079761e+03
2.030000e-06	6.390549e-06	1.641949e-08	4.337502e+01	1.074004e+03
2.040000e-06	6.285868e-06	1.629815e-08	4.266451e+01	1.068498e+03
2.050000e-06	6.178957e-06	1.619170e-08	4.193886e+01	1.063041e+03
2.060000e-06	6.069843e-06	1.611574e-08	4.119827e+01	1.057311e+03
2.070000e-06	5.958496e-06	1.600652e-08	4.044251e+01	1.051009e+03
2.080000e-06	5.844860e-06	1.593934e-08	3.967123e+01	1.043984e+03
2.090000e-06	5.729045e-06	1.581498e-08	3.888514e+01	1.036309e+03
2.100000e-06	5.610914e-06	1.570610e-08	3.808334e+01	1.028247e+03
2.110000e-06	5.490666e-06	1.556549e-08	3.726718e+01	1.020137e+03
2.120000e-06	5.368522e-06	1.544931e-08	3.643814e+01	1.012244e+03
2.130000e-06	5.244539e-06	1.531806e-08	3.559662e+01	1.004630e+03
2.140000e-06	5.118679e-06	1.520427e-08	3.474236e+01	9.971237e+02
2.150000e-06	4.990879e-06	1.507754e-08	3.387494e+01	9.893790e+02
2.160000e-06	4.861267e-06	1.495135e-08	3.299521e+01	9.810264e+02
2.170000e-06	4.729991e-06	1.481075e-08	3.210419e+01	9.718322e+02
2.180000e-06	4.597124e-06	1.465918e-08	3.120238e+01	9.618046e+02
2.190000e-06	4.462525e-06	1.450425e-08	3.028881e+01	9.511943e+02
2.200000e-06	4.326184e-06	1.434775e-08	2.936341e+01	9.403853e+02
2.210000e-06	4.188193e-06	1.420014e-08	2.842681e+01	9.297222e+02
2.220000e-06	4.048700e-06	1.403673e-08	2.748002e+01	9.193465e+02
2.230000e-06	3.907689e-06	1.387189e-08	2.652293e+01	9.091192e+02
2.240000e-06	3.765192e-06	1.369170e-08	2.555575e+01	8.986645e+02
2.250000e-06	3.621359e-06	1.351392e-08	2.457950e+01	8.875239e+02
2.260000e-06	3.476160e-06	1.332809e-08	2.359398e+01	8.753533e+02
2.270000e-06	3.329687e-06	1.313492e-08	2.259981e+01	8.620779e+02
2.280000e-06	3.182161e-06	1.293326e-08	2.159850e+01	8.479320e+02
2.290000e-06	3.033558e-06	1.272715e-08	2.058988e+01	8.333599e+02
2.300000e-06	2.883814e-06	1.251472e-08	1.957351e+01	8.188149e+02
2.310000e-06	2.733029e-06	1.229232e-08	1.855008e+01	8.045413e+02
2.320000e-06	2.581338e-06	1.205981e-08	1.752050e+01	7.904379e+02
2.330000e-06	2.428702e-06	1.182091e-08	1.648450e+01	7.760694e+02
2.340000e-06	2.275044e-06	1.157728e-08	1.544156e+01	7.608294e+02
2.350000e-06	2.120523e-06	1.132474e-08	1.439277e+01	7.441925e+02
2.360000e-06	1.965295e-06	1.105765e-08	1.333918e+01	7.259453e+02
2.370000e-06	1.809464e-06	1.077618e-08	1.228150e+01	7.062890e+02
2.380000e-06	1.653072e-06	1.048201e-08	1.122001e+01	6.857575e+02
2.390000e-06	1.495988e-06	1.017665e-08	1.015382e+01	6.649700e+02
2.400000e-06	1.338225e-06	9.857614e-09	9.083028e+00	6.443173e+02
2.410000e-06	1.179998e-06	9.523083e-09	8.009082e+00	6.237194e+02
2.420000e-06	1.021428e-06	9.174271e-09	6.932811e+00	6.025699e+02
2.430000e-06	8.625638e-07	8.809166e-09	5.854539e+00	5.799151e+02
2.440000e-06	7.034447e-07	8.420920e-09	4.774539e+00	5.548088e+02
2.450000e-06	5.440917e-07	8.008143e-09	3.692951e+00	5.267015e+02
2.460000e-06	3.845739e-07	7.569594e-09	2.610245e+00	4.956853e+02
2.470000e-06	2.249052e-07	7.101220e-09	1.526515e+00	4.624572e+02
2.480000e-06	6.513557e-08	6.595947e-09	4.420992e-01	4.279654e+02
2.490000e-06	-9.463111e-08	6.047902e-09	-6.422963e-01	3.928361e+02
2.500000e-06	-2.543339e-07	5.458525e-09	-1.726258e+00	3.567894e+02
2.510000e-06	-4.138789e-07	4.820461e-09	-2.809149e+00	3.182877e+02
2.520000e-06	-5.732796e-07	4.117453e-09	-3.891061e+00	2.746116e+02
2.530000e-06	-7.324846e-07	3.325279e-09	-4.971644e+00	2.224193e+02
2.540000e-06	-8.914199e-07	2.416905e-09	-6.050396e+00	1.586750e+02
2.550000e-06	-1.050116e-06	1.346256e-09	-7.127527e+00	8.168337e+01
2.560000e-06	-1.208512e-06	5.606526e-11	-8.202619e+00	-8.098341e+00
2.570000e-06	-1.366504e-06	-1.480940e-09	-9.274967e+00	-1.077587e+02
2.580000e-06	-1.523938e-06	-3.190504e-09	-1.034353e+01	-2.122791e+02
2.590000e-06	-1.680705e-06	-4.885758e-09	-1.140757e+01	-3.154697e+02
2.600000e-06	-1.836813e-06	-6.378744e-09	-1.246713e+01	-4.112458e+02
2.610000e-06	-1.992196e-06	-7.594732e-09	-1.352177e+01	-4.948835e+02
2.620000e-06	-2.146905e-06	-8.563504e-09	-1.457184e+01	-5.639019e+02
2.630000e-06	-2.301036e-06	-9.347299e-09	-1.561798e+01	-6.183372e+02
2.640000e-06	-2.454344e-06	-1.000033e-08	-1.665854e+01	-6.603651e+02
2.650000e-06	-2.606532e-06	-1.055573e-08	-1.769150e+01	-6.934322e+02
2.660000e-06	-2.757659e-06	-1.103724e-08	-1.871725e+01	-7.211897e+02
2.670000e-06	-2.907937e-06	-1.146408e-08	-1.973725e+01	-7.465631e+02
2.680000e-06	-3.057209e-06	-1.185011e-08	-2.075040e+01	-7.712117e+02
2.690000e-06	-3.205264e-06	-1.220263e-08	-2.175531e+01	-7.954828e+02
2.700000e-06	-3.352273e-06	-1.252510e-08	-2.275311e+01	-8.187894e+02
2.710000e-06	-3.498182e-06	-1.282067e-08	-2.374345e+01	-8.402126e+02
2.720000e-06	-3.642680e-06	-1.309442e-08	-2.472422e+01	-8.590785e+02
2.730000e-06	-3.785796e-06	-1.334895e-08	-2.569560e+01	-8.753091e+02
2.740000e-06	-3.927573e-06	-1.358497e-08	-2.665789e+01	-8.894521e+02
2.750000e-06	-4.067813e-06	-1.380924e-08	-2.760975e+01	-9.024345e+02
2.760000e-06	-4.206521e-06	-1.402789e-08	-2.855121e+01	-9.151771e+02
2.770000e-06	-4.343690e-06	-1.423613e-08	-2.948223e+01	-9.282486e+02
2.780000e-06	-4.479212e-06	-1.442881e-08	-3.040207e+01	-9.416980e+02
2.790000e-06	-4.613155e-06	-1.460912e-08	-3.131119e+01	-9.551153e+02
2.800000e-06	-4.745492e-06	-1.478325e-08	-3.220941e+01	-9.678752e+02
2.810000e-06	-4.876142e-06	-1.495002e-08	-3.309617e+01	-9.794432e+02
2.820000e-06	-5.005073e-06	-1.510585e-08	-3.397128e+01	-9.896134e+02
2.830000e-06	-5.132192e-06	-1.525541e-08	-3.483408e+01	-9.985837e+02
2.840000e-06	-5.257480e-06	-1.540140e-08	-3.568446e+01	-1.006851e+03
2.850000e-06	-5.380972e-06	-1.553998e-08	-3.652265e+01	-1.014987e+03
2.860000e-06	-5.502555e-06	-1.566683e-08	-3.734787e+01	-1.023396e+03
2.870000e-06	-5.622068e-06	-1.578605e-08	-3.815905e+01	-1.032159e+03
2.880000e-06	-5.739420e-06	-1.590598e-08	-3.895556e+01	-1.041035e+03
2.890000e-06	-5.854478e-06	-1.602435e-08	-3.973650e+01	-1.049588e+03
2.900000e-06	-5.967174e-06	-1.613360e-08	-4.050141e+01	-1.057398e+03
2.910000e-06	-6.077611e-06	-1.623478e-08	-4.125099e+01	-1.064252e+03
2.920000e-06	-6.185858e-06	-1.633400e-08	-4.198571e+01	-1.070226e+03
2.930000e-06	-6.291962e-06	-1.643179e-08	-4.270587e+01	-1.075651e+03
2.940000e-06	-6.395893e-06	-1.652491e-08	-4.341129e+01	-1.080956e+03
