# Temperatura_=_55.92
# Concentracion g/m^3_=_13400.0
# C_Vs_to_Am_M_A/Vsm_=_65563218390.804596
# pendiente_HvsI_1/m_=_3716.3
# ordenada_HvsI_A/m_=_1297.0
# frecuencia_Hz_=_301415.8049007872

Tiempo_(s)	Campo_(V.s)	Magnetizacion_(V.s)	Campo_(kA/m)	Magnetizacion_(A/m)
0.000000e+00	-8.343759e-06	-1.714902e-08	-5.692340e+01	-1.124645e+03
1.000000e-08	-8.340397e-06	-1.715234e-08	-5.690046e+01	-1.124426e+03
2.000000e-08	-8.334342e-06	-1.714686e-08	-5.685916e+01	-1.124355e+03
3.000000e-08	-8.325627e-06	-1.713806e-08	-5.679970e+01	-1.124271e+03
4.000000e-08	-8.314014e-06	-1.712777e-08	-5.672047e+01	-1.123967e+03
5.000000e-08	-8.299336e-06	-1.711297e-08	-5.662033e+01	-1.123282e+03
6.000000e-08	-8.281713e-06	-1.709285e-08	-5.650011e+01	-1.122180e+03
7.000000e-08	-8.261534e-06	-1.706421e-08	-5.636244e+01	-1.120763e+03
8.000000e-08	-8.238771e-06	-1.707092e-08	-5.620714e+01	-1.119231e+03
9.000000e-08	-8.212848e-06	-1.713083e-08	-5.603029e+01	-1.117799e+03
1.000000e-07	-8.183578e-06	-1.710111e-08	-5.583060e+01	-1.116604e+03
1.100000e-07	-8.151180e-06	-1.702981e-08	-5.560958e+01	-1.115652e+03
1.200000e-07	-8.115776e-06	-1.700932e-08	-5.536804e+01	-1.114818e+03
1.300000e-07	-8.077749e-06	-1.699260e-08	-5.510861e+01	-1.113902e+03
1.400000e-07	-8.037472e-06	-1.690040e-08	-5.483383e+01	-1.112722e+03
1.500000e-07	-7.994695e-06	-1.684202e-08	-5.454199e+01	-1.111185e+03
1.600000e-07	-7.949079e-06	-1.694526e-08	-5.423078e+01	-1.109323e+03
1.700000e-07	-7.900622e-06	-1.683662e-08	-5.390020e+01	-1.107265e+03
1.800000e-07	-7.849204e-06	-1.683816e-08	-5.354941e+01	-1.105167e+03
1.900000e-07	-7.794748e-06	-1.686817e-08	-5.317790e+01	-1.103129e+03
2.000000e-07	-7.737439e-06	-1.672681e-08	-5.278692e+01	-1.101138e+03
2.100000e-07	-7.677346e-06	-1.671367e-08	-5.237695e+01	-1.099070e+03
2.200000e-07	-7.614566e-06	-1.664248e-08	-5.194864e+01	-1.096738e+03
2.300000e-07	-7.549049e-06	-1.663750e-08	-5.150167e+01	-1.093984e+03
2.400000e-07	-7.480682e-06	-1.659417e-08	-5.103526e+01	-1.090757e+03
2.500000e-07	-7.409542e-06	-1.654253e-08	-5.054992e+01	-1.087139e+03
2.600000e-07	-7.335494e-06	-1.652607e-08	-5.004474e+01	-1.083328e+03
2.700000e-07	-7.258589e-06	-1.645267e-08	-4.952007e+01	-1.079547e+03
2.800000e-07	-7.178914e-06	-1.640320e-08	-4.897651e+01	-1.075954e+03
2.900000e-07	-7.096545e-06	-1.630647e-08	-4.841457e+01	-1.072563e+03
3.000000e-07	-7.011796e-06	-1.626491e-08	-4.783638e+01	-1.069240e+03
3.100000e-07	-6.924708e-06	-1.622651e-08	-4.724225e+01	-1.065751e+03
3.200000e-07	-6.835119e-06	-1.616203e-08	-4.663104e+01	-1.061862e+03
3.300000e-07	-6.743039e-06	-1.611108e-08	-4.600285e+01	-1.057441e+03
3.400000e-07	-6.648639e-06	-1.601834e-08	-4.535883e+01	-1.052517e+03
3.500000e-07	-6.551821e-06	-1.595907e-08	-4.469831e+01	-1.047264e+03
3.600000e-07	-6.452569e-06	-1.588730e-08	-4.402119e+01	-1.041931e+03
3.700000e-07	-6.351031e-06	-1.580760e-08	-4.332846e+01	-1.036722e+03
3.800000e-07	-6.247192e-06	-1.571674e-08	-4.262005e+01	-1.031711e+03
3.900000e-07	-6.141070e-06	-1.563698e-08	-4.189606e+01	-1.026796e+03
4.000000e-07	-6.032742e-06	-1.556716e-08	-4.115701e+01	-1.021744e+03
4.100000e-07	-5.922312e-06	-1.546917e-08	-4.040363e+01	-1.016286e+03
4.200000e-07	-5.809679e-06	-1.537612e-08	-3.963521e+01	-1.010240e+03
4.300000e-07	-5.694714e-06	-1.527649e-08	-3.885089e+01	-1.003585e+03
4.400000e-07	-5.577498e-06	-1.518999e-08	-3.805122e+01	-9.964792e+02
4.500000e-07	-5.458233e-06	-1.509575e-08	-3.723756e+01	-9.891852e+02
4.600000e-07	-5.337003e-06	-1.498863e-08	-3.641049e+01	-9.819540e+02
4.700000e-07	-5.213844e-06	-1.486935e-08	-3.557027e+01	-9.749073e+02
4.800000e-07	-5.088806e-06	-1.475379e-08	-3.471722e+01	-9.679751e+02
4.900000e-07	-4.961952e-06	-1.464374e-08	-3.385179e+01	-9.609179e+02
5.000000e-07	-4.833296e-06	-1.451744e-08	-3.297407e+01	-9.534260e+02
5.100000e-07	-4.702871e-06	-1.438534e-08	-3.208427e+01	-9.452534e+02
5.200000e-07	-4.570751e-06	-1.425621e-08	-3.118291e+01	-9.363276e+02
5.300000e-07	-4.436972e-06	-1.413010e-08	-3.027024e+01	-9.267843e+02
5.400000e-07	-4.301660e-06	-1.399387e-08	-2.934710e+01	-9.169086e+02
5.500000e-07	-4.164700e-06	-1.384655e-08	-2.841272e+01	-9.070049e+02
5.600000e-07	-4.026142e-06	-1.369342e-08	-2.746744e+01	-8.972528e+02
5.700000e-07	-3.886094e-06	-1.353894e-08	-2.651199e+01	-8.876132e+02
5.800000e-07	-3.744456e-06	-1.337944e-08	-2.554570e+01	-8.778290e+02
5.900000e-07	-3.601309e-06	-1.320858e-08	-2.456911e+01	-8.675254e+02
6.000000e-07	-3.456859e-06	-1.303328e-08	-2.358364e+01	-8.563696e+02
6.100000e-07	-3.311131e-06	-1.285354e-08	-2.258944e+01	-8.442182e+02
6.200000e-07	-3.164181e-06	-1.267083e-08	-2.158691e+01	-8.311864e+02
6.300000e-07	-3.016190e-06	-1.247760e-08	-2.057727e+01	-8.176017e+02
6.400000e-07	-2.867222e-06	-1.227423e-08	-1.956097e+01	-8.038568e+02
6.500000e-07	-2.717320e-06	-1.206796e-08	-1.853830e+01	-7.902217e+02
6.600000e-07	-2.566522e-06	-1.185469e-08	-1.750951e+01	-7.766997e+02
6.700000e-07	-2.414833e-06	-1.162895e-08	-1.647465e+01	-7.629938e+02
6.800000e-07	-2.262220e-06	-1.138815e-08	-1.543348e+01	-7.486085e+02
6.900000e-07	-2.108645e-06	-1.114093e-08	-1.438575e+01	-7.330489e+02
7.000000e-07	-1.954227e-06	-1.088767e-08	-1.333227e+01	-7.160335e+02
7.100000e-07	-1.799150e-06	-1.062575e-08	-1.227429e+01	-6.976235e+02
7.200000e-07	-1.643431e-06	-1.035131e-08	-1.121193e+01	-6.782014e+02
7.300000e-07	-1.487090e-06	-1.006494e-08	-1.014534e+01	-6.582951e+02
7.400000e-07	-1.330200e-06	-9.763909e-09	-9.074989e+00	-6.383131e+02
7.500000e-07	-1.172818e-06	-9.444281e-09	-8.001285e+00	-6.183024e+02
7.600000e-07	-1.015007e-06	-9.106168e-09	-6.924653e+00	-5.978440e+02
7.700000e-07	-8.568610e-07	-8.748834e-09	-5.845740e+00	-5.761480e+02
7.800000e-07	-6.984571e-07	-8.373735e-09	-4.765065e+00	-5.523286e+02
7.900000e-07	-5.398017e-07	-7.976132e-09	-3.682674e+00	-5.257527e+02
8.000000e-07	-3.809133e-07	-7.554125e-09	-2.598695e+00	-4.963115e+02
8.100000e-07	-2.219018e-07	-7.102061e-09	-1.513875e+00	-4.644719e+02
8.200000e-07	-6.284951e-08	-6.616844e-09	-4.287765e-01	-4.310452e+02
8.300000e-07	9.623112e-08	-6.095172e-09	6.565149e-01	-3.967215e+02
8.400000e-07	2.552841e-07	-5.531436e-09	1.741618e+00	-3.615255e+02
8.500000e-07	4.142514e-07	-4.916699e-09	2.826136e+00	-3.244121e+02
8.600000e-07	5.730802e-07	-4.237211e-09	3.909709e+00	-2.831989e+02
8.700000e-07	7.317264e-07	-3.481533e-09	4.992037e+00	-2.349324e+02
8.800000e-07	8.901126e-07	-2.622929e-09	6.072591e+00	-1.766403e+02
8.900000e-07	1.048212e-06	-1.619146e-09	7.151191e+00	-1.062702e+02
9.000000e-07	1.205946e-06	-4.186427e-10	8.227291e+00	-2.353178e+01
9.100000e-07	1.363143e-06	1.004347e-09	9.299733e+00	6.964481e+01
9.200000e-07	1.519770e-06	2.602726e-09	1.036829e+01	1.692125e+02
9.300000e-07	1.675787e-06	4.235284e-09	1.143268e+01	2.696876e+02
9.400000e-07	1.831199e-06	5.729909e-09	1.249294e+01	3.652366e+02
9.500000e-07	1.986100e-06	6.983305e-09	1.354971e+01	4.508708e+02
9.600000e-07	2.140381e-06	7.990900e-09	1.460226e+01	5.234131e+02
9.700000e-07	2.293763e-06	8.806648e-09	1.564867e+01	5.819734e+02
9.800000e-07	2.446112e-06	9.485871e-09	1.668804e+01	6.278257e+02
9.900000e-07	2.597573e-06	1.006475e-08	1.772135e+01	6.637645e+02
1.000000e-06	2.748174e-06	1.055984e-08	1.874879e+01	6.931689e+02
1.010000e-06	2.897779e-06	1.098874e-08	1.976944e+01	7.190745e+02
1.020000e-06	3.046333e-06	1.137303e-08	2.078291e+01	7.435218e+02
1.030000e-06	3.193893e-06	1.172413e-08	2.178961e+01	7.673317e+02
1.040000e-06	3.340382e-06	1.204210e-08	2.278900e+01	7.903073e+02
1.050000e-06	3.485583e-06	1.232826e-08	2.377960e+01	8.117181e+02
1.060000e-06	3.629434e-06	1.259662e-08	2.476099e+01	8.308540e+02
1.070000e-06	3.771979e-06	1.285378e-08	2.573347e+01	8.474367e+02
1.080000e-06	3.913133e-06	1.309348e-08	2.669646e+01	8.617664e+02
1.090000e-06	4.052784e-06	1.331023e-08	2.764919e+01	8.745900e+02
1.100000e-06	4.190845e-06	1.351106e-08	2.859109e+01	8.867886e+02
1.110000e-06	4.327290e-06	1.370431e-08	2.952195e+01	8.990374e+02
1.120000e-06	4.462183e-06	1.388825e-08	3.044223e+01	9.115812e+02
1.130000e-06	4.595542e-06	1.406050e-08	3.135204e+01	9.242080e+02
1.140000e-06	4.727280e-06	1.422424e-08	3.225079e+01	9.364110e+02
1.150000e-06	4.857264e-06	1.438649e-08	3.313758e+01	9.476541e+02
1.160000e-06	4.985493e-06	1.454486e-08	3.401239e+01	9.576218e+02
1.170000e-06	5.112017e-06	1.469104e-08	3.487558e+01	9.663511e+02
1.180000e-06	5.236840e-06	1.482337e-08	3.572715e+01	9.741996e+02
1.190000e-06	5.359827e-06	1.495068e-08	3.656620e+01	9.816796e+02
1.200000e-06	5.480831e-06	1.507625e-08	3.739172e+01	9.892363e+02
1.210000e-06	5.599819e-06	1.519445e-08	3.820349e+01	9.970726e+02
1.220000e-06	5.716717e-06	1.530248e-08	3.900101e+01	1.005088e+03
1.230000e-06	5.831324e-06	1.540617e-08	3.978288e+01	1.012954e+03
1.240000e-06	5.943668e-06	1.551092e-08	4.054933e+01	1.020281e+03
1.250000e-06	6.053969e-06	1.561253e-08	4.130183e+01	1.026802e+03
1.260000e-06	6.162226e-06	1.570627e-08	4.204039e+01	1.032495e+03
1.270000e-06	6.268210e-06	1.579350e-08	4.276344e+01	1.037583e+03
1.280000e-06	6.371879e-06	1.587925e-08	4.347070e+01	1.042436e+03
1.290000e-06	6.473350e-06	1.596079e-08	4.416296e+01	1.047409e+03
1.300000e-06	6.572475e-06	1.603562e-08	4.483922e+01	1.052688e+03
1.310000e-06	6.669113e-06	1.610744e-08	4.549851e+01	1.058223e+03
1.320000e-06	6.763356e-06	1.617970e-08	4.614146e+01	1.063760e+03
1.330000e-06	6.855257e-06	1.625320e-08	4.676843e+01	1.068960e+03
1.340000e-06	6.944737e-06	1.632382e-08	4.737889e+01	1.073551e+03
1.350000e-06	7.031777e-06	1.638802e-08	4.797270e+01	1.077445e+03
1.360000e-06	7.116446e-06	1.644717e-08	4.855034e+01	1.080769e+03
1.370000e-06	7.198614e-06	1.650556e-08	4.911091e+01	1.083807e+03
1.380000e-06	7.278115e-06	1.656313e-08	4.965329e+01	1.086870e+03
1.390000e-06	7.354967e-06	1.661673e-08	5.017759e+01	1.090166e+03
1.400000e-06	7.429077e-06	1.666496e-08	5.068319e+01	1.093714e+03
1.410000e-06	7.500442e-06	1.671074e-08	5.117006e+01	1.097352e+03
1.420000e-06	7.569183e-06	1.675780e-08	5.163903e+01	1.100808e+03
1.430000e-06	7.635173e-06	1.680371e-08	5.208923e+01	1.103831e+03
1.440000e-06	7.698413e-06	1.684625e-08	5.252068e+01	1.106297e+03
1.450000e-06	7.759126e-06	1.688603e-08	5.293488e+01	1.108259e+03
1.460000e-06	7.817131e-06	1.692431e-08	5.333060e+01	1.109920e+03
1.470000e-06	7.872311e-06	1.695926e-08	5.370705e+01	1.111533e+03
1.480000e-06	7.924466e-06	1.698823e-08	5.406287e+01	1.113297e+03
1.490000e-06	7.973316e-06	1.700961e-08	5.439613e+01	1.115266e+03
1.500000e-06	8.019263e-06	1.702970e-08	5.470960e+01	1.117335e+03
1.510000e-06	8.062483e-06	1.705173e-08	5.500445e+01	1.119294e+03
1.520000e-06	8.102744e-06	1.707471e-08	5.527913e+01	1.120926e+03
1.530000e-06	8.140144e-06	1.709847e-08	5.553428e+01	1.122106e+03
1.540000e-06	8.174733e-06	1.711969e-08	5.577026e+01	1.122857e+03
1.550000e-06	8.206443e-06	1.713814e-08	5.598659e+01	1.123338e+03
1.560000e-06	8.235388e-06	1.715291e-08	5.618406e+01	1.123771e+03
1.570000e-06	8.261357e-06	1.716247e-08	5.636123e+01	1.124340e+03
1.580000e-06	8.284270e-06	1.716843e-08	5.651755e+01	1.125114e+03
1.590000e-06	8.304373e-06	1.717538e-08	5.665470e+01	1.126017e+03
1.600000e-06	8.321532e-06	1.718359e-08	5.677176e+01	1.126866e+03
1.610000e-06	8.335621e-06	1.719094e-08	5.686788e+01	1.127458e+03
1.620000e-06	8.346504e-06	1.719664e-08	5.694213e+01	1.127660e+03
1.630000e-06	8.354240e-06	1.720043e-08	5.699490e+01	1.127471e+03
1.640000e-06	8.359125e-06	1.720161e-08	5.702823e+01	1.127019e+03
1.650000e-06	8.361070e-06	1.720099e-08	5.704150e+01	1.126505e+03
1.660000e-06	8.360094e-06	1.719615e-08	5.703484e+01	1.126109e+03
1.670000e-06	8.356418e-06	1.718315e-08	5.700976e+01	1.125909e+03
1.680000e-06	8.349984e-06	1.717973e-08	5.696587e+01	1.125846e+03
1.690000e-06	8.340704e-06	1.717624e-08	5.690256e+01	1.125748e+03
1.700000e-06	8.328489e-06	1.716543e-08	5.681922e+01	1.125408e+03
1.710000e-06	8.313418e-06	1.715549e-08	5.671640e+01	1.124677e+03
1.720000e-06	8.295844e-06	1.715564e-08	5.659651e+01	1.123533e+03
1.730000e-06	8.275792e-06	1.715442e-08	5.645971e+01	1.122093e+03
1.740000e-06	8.252767e-06	1.705063e-08	5.630263e+01	1.120561e+03
1.750000e-06	8.226054e-06	1.700701e-08	5.612039e+01	1.119150e+03
1.760000e-06	8.195468e-06	1.703502e-08	5.591172e+01	1.117983e+03
1.770000e-06	8.161762e-06	1.701553e-08	5.568177e+01	1.117051e+03
1.780000e-06	8.125604e-06	1.699453e-08	5.543509e+01	1.116217e+03
1.790000e-06	8.087158e-06	1.708514e-08	5.517279e+01	1.115281e+03
1.800000e-06	8.046676e-06	1.703810e-08	5.489662e+01	1.114064e+03
1.810000e-06	8.003860e-06	1.691724e-08	5.460451e+01	1.112488e+03
1.820000e-06	7.958100e-06	1.702449e-08	5.429233e+01	1.110597e+03
1.830000e-06	7.909517e-06	1.690844e-08	5.396088e+01	1.108527e+03
1.840000e-06	7.857704e-06	1.691785e-08	5.360740e+01	1.106432e+03
1.850000e-06	7.802640e-06	1.690279e-08	5.323174e+01	1.104401e+03
1.860000e-06	7.744924e-06	1.681931e-08	5.283798e+01	1.102409e+03
1.870000e-06	7.684404e-06	1.690039e-08	5.242510e+01	1.100321e+03
1.880000e-06	7.621201e-06	1.675228e-08	5.199391e+01	1.097950e+03
1.890000e-06	7.555226e-06	1.675563e-08	5.154381e+01	1.095145e+03
1.900000e-06	7.486297e-06	1.666666e-08	5.107356e+01	1.091869e+03
1.910000e-06	7.414472e-06	1.658613e-08	5.058355e+01	1.088220e+03
1.920000e-06	7.339836e-06	1.659758e-08	5.007436e+01	1.084401e+03
1.930000e-06	7.262461e-06	1.649397e-08	4.954649e+01	1.080634e+03
1.940000e-06	7.182329e-06	1.651832e-08	4.899981e+01	1.077063e+03
1.950000e-06	7.099730e-06	1.639550e-08	4.843629e+01	1.073689e+03
1.960000e-06	7.014574e-06	1.636450e-08	4.785534e+01	1.070360e+03
1.970000e-06	6.926760e-06	1.629421e-08	4.725625e+01	1.066837e+03
1.980000e-06	6.836558e-06	1.619337e-08	4.664087e+01	1.062894e+03
1.990000e-06	6.743926e-06	1.617145e-08	4.600890e+01	1.058415e+03
2.000000e-06	6.648883e-06	1.606618e-08	4.536049e+01	1.053444e+03
2.010000e-06	6.551546e-06	1.603488e-08	4.469643e+01	1.048170e+03
2.020000e-06	6.451898e-06	1.592588e-08	4.401661e+01	1.042841e+03
2.030000e-06	6.349842e-06	1.586381e-08	4.332035e+01	1.037653e+03
2.040000e-06	6.245492e-06	1.577048e-08	4.260845e+01	1.032660e+03
2.050000e-06	6.138969e-06	1.569200e-08	4.188172e+01	1.027742e+03
2.060000e-06	6.030264e-06	1.561915e-08	4.114011e+01	1.022658e+03
2.070000e-06	5.919367e-06	1.551636e-08	4.038353e+01	1.017143e+03
2.080000e-06	5.806235e-06	1.543399e-08	3.961172e+01	1.011029e+03
2.090000e-06	5.690832e-06	1.532365e-08	3.882441e+01	1.004315e+03
2.100000e-06	5.573153e-06	1.522547e-08	3.802157e+01	9.971750e+02
2.110000e-06	5.453406e-06	1.510875e-08	3.720462e+01	9.898766e+02
2.120000e-06	5.331778e-06	1.500775e-08	3.637484e+01	9.826619e+02
2.130000e-06	5.208281e-06	1.489636e-08	3.553232e+01	9.756338e+02
2.140000e-06	5.082873e-06	1.479361e-08	3.467675e+01	9.687014e+02
2.150000e-06	4.955592e-06	1.467642e-08	3.380840e+01	9.616120e+02
2.160000e-06	4.826516e-06	1.455237e-08	3.292781e+01	9.540560e+02
2.170000e-06	4.695703e-06	1.441903e-08	3.203536e+01	9.458019e+02
2.180000e-06	4.563123e-06	1.428483e-08	3.113087e+01	9.367995e+02
2.190000e-06	4.428913e-06	1.415005e-08	3.021526e+01	9.272049e+02
2.200000e-06	4.293197e-06	1.400692e-08	2.928936e+01	9.173121e+02
2.210000e-06	4.155905e-06	1.386401e-08	2.835272e+01	9.074189e+02
2.220000e-06	4.016996e-06	1.371135e-08	2.740504e+01	8.976845e+02
2.230000e-06	3.876539e-06	1.355915e-08	2.644680e+01	8.880444e+02
2.240000e-06	3.734671e-06	1.339592e-08	2.547895e+01	8.782225e+02
2.250000e-06	3.591451e-06	1.322684e-08	2.450186e+01	8.678408e+02
2.260000e-06	3.446935e-06	1.305056e-08	2.351593e+01	8.565803e+02
2.270000e-06	3.301233e-06	1.286896e-08	2.252191e+01	8.443240e+02
2.280000e-06	3.154438e-06	1.268387e-08	2.152044e+01	8.312141e+02
2.290000e-06	3.006402e-06	1.248909e-08	2.051050e+01	8.175935e+02
2.300000e-06	2.857202e-06	1.228741e-08	1.949261e+01	8.038507e+02
2.310000e-06	2.707083e-06	1.207728e-08	1.846846e+01	7.902326e+02
2.320000e-06	2.556026e-06	1.186269e-08	1.743790e+01	7.767094e+02
2.330000e-06	2.404028e-06	1.163972e-08	1.640093e+01	7.629557e+02
2.340000e-06	2.251145e-06	1.140530e-08	1.535793e+01	7.484655e+02
2.350000e-06	2.097464e-06	1.115835e-08	1.430947e+01	7.327575e+02
2.360000e-06	1.943090e-06	1.090177e-08	1.325629e+01	7.155828e+02
2.370000e-06	1.788070e-06	1.063790e-08	1.219870e+01	6.970410e+02
2.380000e-06	1.632415e-06	1.035946e-08	1.113678e+01	6.775410e+02
2.390000e-06	1.476066e-06	1.006686e-08	1.007012e+01	6.576112e+02
2.400000e-06	1.319072e-06	9.760093e-09	8.999069e+00	6.376314e+02
2.410000e-06	1.161607e-06	9.441477e-09	7.924797e+00	6.176003e+02
2.420000e-06	1.003805e-06	9.104314e-09	6.848235e+00	5.970510e+02
2.430000e-06	8.456832e-07	8.748236e-09	5.769481e+00	5.751678e+02
2.440000e-06	6.872484e-07	8.370255e-09	4.688596e+00	5.510752e+02
2.450000e-06	5.286152e-07	7.971842e-09	3.606357e+00	5.241864e+02
2.460000e-06	3.698044e-07	7.549001e-09	2.522907e+00	4.944563e+02
2.470000e-06	2.108802e-07	7.093780e-09	1.438682e+00	4.624049e+02
2.480000e-06	5.192302e-08	6.601994e-09	3.542330e-01	4.288560e+02
2.490000e-06	-1.070640e-07	6.072772e-09	-7.304195e-01	3.944535e+02
2.500000e-06	-2.659912e-07	5.506837e-09	-1.814664e+00	3.591224e+02
2.510000e-06	-4.248020e-07	4.893995e-09	-2.898115e+00	3.216919e+02
2.520000e-06	-5.834921e-07	4.217996e-09	-3.980743e+00	2.798714e+02
2.530000e-06	-7.419749e-07	3.457467e-09	-5.061955e+00	2.306642e+02
2.540000e-06	-9.001868e-07	2.591638e-09	-6.141320e+00	1.711506e+02
2.550000e-06	-1.058123e-06	1.585356e-09	-7.218804e+00	9.943163e+01
2.560000e-06	-1.215719e-06	3.880127e-10	-8.293966e+00	1.544156e+01
2.570000e-06	-1.372781e-06	-1.036103e-09	-9.365484e+00	-7.864678e+01
2.580000e-06	-1.529209e-06	-2.642730e-09	-1.043268e+01	-1.785907e+02
2.590000e-06	-1.684978e-06	-4.283331e-09	-1.149538e+01	-2.788124e+02
2.600000e-06	-1.840112e-06	-5.780012e-09	-1.255374e+01	-3.735129e+02
2.610000e-06	-1.994630e-06	-7.035228e-09	-1.360791e+01	-4.578585e+02
2.620000e-06	-2.148473e-06	-8.050709e-09	-1.465747e+01	-5.289045e+02
2.630000e-06	-2.301525e-06	-8.871158e-09	-1.570163e+01	-5.860091e+02
2.640000e-06	-2.453709e-06	-9.546317e-09	-1.673987e+01	-6.306475e+02
2.650000e-06	-2.605015e-06	-1.011727e-08	-1.777212e+01	-6.657240e+02
2.660000e-06	-2.755419e-06	-1.061255e-08	-1.879822e+01	-6.946223e+02
2.670000e-06	-2.904895e-06	-1.104810e-08	-1.981799e+01	-7.202959e+02
2.680000e-06	-3.053309e-06	-1.143513e-08	-2.083050e+01	-7.446571e+02
2.690000e-06	-3.200567e-06	-1.178583e-08	-2.183514e+01	-7.684017e+02
2.700000e-06	-3.346673e-06	-1.210895e-08	-2.283192e+01	-7.912491e+02
2.710000e-06	-3.491623e-06	-1.240506e-08	-2.382081e+01	-8.124457e+02
2.720000e-06	-3.635352e-06	-1.267409e-08	-2.480136e+01	-8.313118e+02
2.730000e-06	-3.777736e-06	-1.292242e-08	-2.577275e+01	-8.476295e+02
2.740000e-06	-3.918648e-06	-1.315765e-08	-2.673409e+01	-8.617572e+02
2.750000e-06	-4.058002e-06	-1.338080e-08	-2.768480e+01	-8.744732e+02
2.760000e-06	-4.195821e-06	-1.358901e-08	-2.862504e+01	-8.866519e+02
2.770000e-06	-4.332127e-06	-1.378358e-08	-2.955495e+01	-8.989296e+02
2.780000e-06	-4.466856e-06	-1.396830e-08	-3.047411e+01	-9.115001e+02
2.790000e-06	-4.599966e-06	-1.414403e-08	-3.138222e+01	-9.241092e+02
2.800000e-06	-4.731431e-06	-1.431019e-08	-3.227911e+01	-9.362334e+02
2.810000e-06	-4.861243e-06	-1.446616e-08	-3.316472e+01	-9.473498e+02
2.820000e-06	-4.989368e-06	-1.461292e-08	-3.403883e+01	-9.571771e+02
2.830000e-06	-5.115737e-06	-1.475448e-08	-3.490095e+01	-9.657909e+02
2.840000e-06	-5.240250e-06	-1.489054e-08	-3.575041e+01	-9.735754e+02
2.850000e-06	-5.362893e-06	-1.501733e-08	-3.658712e+01	-9.810459e+02
2.860000e-06	-5.483689e-06	-1.513541e-08	-3.741122e+01	-9.886288e+02
2.870000e-06	-5.602445e-06	-1.524929e-08	-3.822141e+01	-9.964946e+02
2.880000e-06	-5.718937e-06	-1.536176e-08	-3.901615e+01	-1.004513e+03
2.890000e-06	-5.833105e-06	-1.546932e-08	-3.979503e+01	-1.012339e+03
2.900000e-06	-5.944937e-06	-1.556778e-08	-4.055798e+01	-1.019590e+03
2.910000e-06	-6.054508e-06	-1.566047e-08	-4.130551e+01	-1.026019e+03
2.920000e-06	-6.162008e-06	-1.575237e-08	-4.203890e+01	-1.031633e+03
2.930000e-06	-6.267466e-06	-1.584325e-08	-4.275836e+01	-1.036678e+03
2.940000e-06	-6.370695e-06	-1.593168e-08	-4.346262e+01	-1.041529e+03
