# Temperatura_=_59.89
# Concentracion g/m^3_=_13400.0
# C_Vs_to_Am_M_A/Vsm_=_65563218390.804596
# pendiente_HvsI_1/m_=_3716.3
# ordenada_HvsI_A/m_=_1297.0
# frecuencia_Hz_=_301421.1218340082

Tiempo_(s)	Campo_(V.s)	Magnetizacion_(V.s)	Campo_(kA/m)	Magnetizacion_(A/m)
0.000000e+00	-8.377324e-06	-1.728756e-08	-5.691523e+01	-1.134051e+03
1.000000e-08	-8.373625e-06	-1.728664e-08	-5.689010e+01	-1.133879e+03
2.000000e-08	-8.367259e-06	-1.728002e-08	-5.684685e+01	-1.133831e+03
3.000000e-08	-8.358160e-06	-1.727082e-08	-5.678502e+01	-1.133715e+03
4.000000e-08	-8.346090e-06	-1.726077e-08	-5.670302e+01	-1.133317e+03
5.000000e-08	-8.331013e-06	-1.725123e-08	-5.660059e+01	-1.132499e+03
6.000000e-08	-8.313059e-06	-1.723638e-08	-5.647861e+01	-1.131261e+03
7.000000e-08	-8.292554e-06	-1.721038e-08	-5.633931e+01	-1.129744e+03
8.000000e-08	-8.269405e-06	-1.722708e-08	-5.618203e+01	-1.128172e+03
9.000000e-08	-8.243023e-06	-1.724937e-08	-5.600279e+01	-1.126757e+03
1.000000e-07	-8.213308e-06	-1.721124e-08	-5.580091e+01	-1.125609e+03
1.100000e-07	-8.180469e-06	-1.717233e-08	-5.557780e+01	-1.124693e+03
1.200000e-07	-8.144672e-06	-1.714915e-08	-5.533460e+01	-1.123846e+03
1.300000e-07	-8.106303e-06	-1.711010e-08	-5.507392e+01	-1.122852e+03
1.400000e-07	-8.065546e-06	-1.702643e-08	-5.479702e+01	-1.121533e+03
1.500000e-07	-8.022236e-06	-1.702691e-08	-5.450277e+01	-1.119822e+03
1.600000e-07	-7.976152e-06	-1.704927e-08	-5.418968e+01	-1.117787e+03
1.700000e-07	-7.927134e-06	-1.695394e-08	-5.385665e+01	-1.115585e+03
1.800000e-07	-7.875019e-06	-1.698601e-08	-5.350259e+01	-1.113381e+03
1.900000e-07	-7.819930e-06	-1.694879e-08	-5.312831e+01	-1.111264e+03
2.000000e-07	-7.762084e-06	-1.686239e-08	-5.273531e+01	-1.109196e+03
2.100000e-07	-7.701450e-06	-1.683651e-08	-5.232337e+01	-1.107028e+03
2.200000e-07	-7.638094e-06	-1.677173e-08	-5.189292e+01	-1.104565e+03
2.300000e-07	-7.571984e-06	-1.676811e-08	-5.144378e+01	-1.101656e+03
2.400000e-07	-7.503008e-06	-1.670469e-08	-5.097516e+01	-1.098276e+03
2.500000e-07	-7.431194e-06	-1.667088e-08	-5.048726e+01	-1.094541e+03
2.600000e-07	-7.356533e-06	-1.662210e-08	-4.998001e+01	-1.090668e+03
2.700000e-07	-7.279014e-06	-1.656931e-08	-4.945335e+01	-1.086882e+03
2.800000e-07	-7.198673e-06	-1.651477e-08	-4.890752e+01	-1.083316e+03
2.900000e-07	-7.115711e-06	-1.642569e-08	-4.834387e+01	-1.079946e+03
3.000000e-07	-7.030350e-06	-1.639381e-08	-4.776393e+01	-1.076595e+03
3.100000e-07	-6.942539e-06	-1.633053e-08	-4.716735e+01	-1.073006e+03
3.200000e-07	-6.852253e-06	-1.627283e-08	-4.655395e+01	-1.068946e+03
3.300000e-07	-6.759554e-06	-1.620239e-08	-4.592416e+01	-1.064312e+03
3.400000e-07	-6.664455e-06	-1.612661e-08	-4.527806e+01	-1.059171e+03
3.500000e-07	-6.566978e-06	-1.606290e-08	-4.461580e+01	-1.053741e+03
3.600000e-07	-6.467091e-06	-1.598794e-08	-4.393717e+01	-1.048286e+03
3.700000e-07	-6.364833e-06	-1.591032e-08	-4.324244e+01	-1.043007e+03
3.800000e-07	-6.260214e-06	-1.581707e-08	-4.253166e+01	-1.037948e+03
3.900000e-07	-6.153308e-06	-1.574276e-08	-4.180535e+01	-1.032967e+03
4.000000e-07	-6.044276e-06	-1.565771e-08	-4.106458e+01	-1.027803e+03
4.100000e-07	-5.933064e-06	-1.556289e-08	-4.030902e+01	-1.022179e+03
4.200000e-07	-5.819529e-06	-1.546219e-08	-3.953766e+01	-1.015926e+03
4.300000e-07	-5.703718e-06	-1.536784e-08	-3.875085e+01	-1.009060e+03
4.400000e-07	-5.585805e-06	-1.528031e-08	-3.794975e+01	-1.001771e+03
4.500000e-07	-5.465809e-06	-1.518252e-08	-3.713450e+01	-9.943417e+02
4.600000e-07	-5.343816e-06	-1.506870e-08	-3.630568e+01	-9.870153e+02
4.700000e-07	-5.219942e-06	-1.494959e-08	-3.546409e+01	-9.798835e+02
4.800000e-07	-5.094213e-06	-1.483735e-08	-3.460990e+01	-9.728358e+02
4.900000e-07	-4.966598e-06	-1.471842e-08	-3.374288e+01	-9.656000e+02
5.000000e-07	-4.837117e-06	-1.458921e-08	-3.286319e+01	-9.578572e+02
5.100000e-07	-4.705921e-06	-1.445441e-08	-3.197185e+01	-9.493811e+02
5.200000e-07	-4.573073e-06	-1.432374e-08	-3.106929e+01	-9.401406e+02
5.300000e-07	-4.438651e-06	-1.418893e-08	-3.015603e+01	-9.303170e+02
5.400000e-07	-4.302584e-06	-1.404815e-08	-2.923159e+01	-9.202249e+02
5.500000e-07	-4.164854e-06	-1.389720e-08	-2.829586e+01	-9.101695e+02
5.600000e-07	-4.025584e-06	-1.374346e-08	-2.734967e+01	-9.003014e+02
5.700000e-07	-3.884721e-06	-1.358802e-08	-2.639265e+01	-8.905354e+02
5.800000e-07	-3.742271e-06	-1.342564e-08	-2.542485e+01	-8.805721e+02
5.900000e-07	-3.598368e-06	-1.325116e-08	-2.444718e+01	-8.700189e+02
6.000000e-07	-3.453215e-06	-1.306815e-08	-2.346101e+01	-8.585579e+02
6.100000e-07	-3.306912e-06	-1.288541e-08	-2.246704e+01	-8.460888e+02
6.200000e-07	-3.159417e-06	-1.270117e-08	-2.146496e+01	-8.327779e+02
6.300000e-07	-3.010756e-06	-1.250927e-08	-2.045497e+01	-8.189884e+02
6.400000e-07	-2.861090e-06	-1.230387e-08	-1.943814e+01	-8.051138e+02
6.500000e-07	-2.710432e-06	-1.209180e-08	-1.841457e+01	-7.913869e+02
6.600000e-07	-2.558689e-06	-1.187097e-08	-1.738364e+01	-7.777488e+02
6.700000e-07	-2.406005e-06	-1.164031e-08	-1.634631e+01	-7.638427e+02
6.800000e-07	-2.252502e-06	-1.139840e-08	-1.530341e+01	-7.491431e+02
6.900000e-07	-2.098220e-06	-1.114759e-08	-1.425523e+01	-7.331709e+02
7.000000e-07	-1.943176e-06	-1.088918e-08	-1.320187e+01	-7.157035e+02
7.100000e-07	-1.787418e-06	-1.062188e-08	-1.214365e+01	-6.968794e+02
7.200000e-07	-1.631021e-06	-1.034539e-08	-1.108110e+01	-6.771432e+02
7.300000e-07	-1.474091e-06	-1.005284e-08	-1.001492e+01	-6.570378e+02
7.400000e-07	-1.316753e-06	-9.744779e-09	-8.945973e+00	-6.369272e+02
7.500000e-07	-1.158998e-06	-9.418489e-09	-7.874187e+00	-6.167682e+02
7.600000e-07	-1.000698e-06	-9.074169e-09	-6.798704e+00	-5.960417e+02
7.700000e-07	-8.418898e-07	-8.711179e-09	-5.719768e+00	-5.738933e+02
7.800000e-07	-6.827426e-07	-8.330361e-09	-4.638528e+00	-5.494420e+02
7.900000e-07	-5.233043e-07	-7.927486e-09	-3.555310e+00	-5.221365e+02
8.000000e-07	-3.636601e-07	-7.497424e-09	-2.470693e+00	-4.919967e+02
8.100000e-07	-2.038896e-07	-7.038104e-09	-1.385218e+00	-4.596094e+02
8.200000e-07	-4.404286e-08	-6.543494e-09	-2.992255e-01	-4.258323e+02
8.300000e-07	1.158079e-07	-6.011591e-09	7.867946e-01	-3.912831e+02
8.400000e-07	2.756100e-07	-5.436905e-09	1.872484e+00	-3.557913e+02
8.500000e-07	4.352469e-07	-4.809898e-09	2.957051e+00	-3.180403e+02
8.600000e-07	5.946581e-07	-4.115529e-09	4.040085e+00	-2.755867e+02
8.700000e-07	7.538290e-07	-3.337640e-09	5.121486e+00	-2.253274e+02
8.800000e-07	9.126912e-07	-2.448457e-09	6.200790e+00	-1.643320e+02
8.900000e-07	1.071203e-06	-1.403293e-09	7.277716e+00	-9.080976e+01
9.000000e-07	1.229318e-06	-1.516565e-10	8.351943e+00	-4.911665e+00
9.100000e-07	1.386985e-06	1.328797e-09	9.423126e+00	9.091088e+01
9.200000e-07	1.544137e-06	2.971393e-09	1.049081e+01	1.921434e+02
9.300000e-07	1.700759e-06	4.609239e-09	1.155490e+01	2.930140e+02
9.400000e-07	1.856876e-06	6.069040e-09	1.261555e+01	3.876593e+02
9.500000e-07	2.012385e-06	7.272413e-09	1.367207e+01	4.713256e+02
9.600000e-07	2.167063e-06	8.237979e-09	1.472294e+01	5.412678e+02
9.700000e-07	2.320898e-06	9.023346e-09	1.576810e+01	5.971063e+02
9.800000e-07	2.473978e-06	9.679101e-09	1.680811e+01	6.405700e+02
9.900000e-07	2.626182e-06	1.023842e-08	1.784218e+01	6.747456e+02
1.000000e-06	2.777347e-06	1.071699e-08	1.886919e+01	7.030919e+02
1.010000e-06	2.927445e-06	1.113527e-08	1.988895e+01	7.285300e+02
1.020000e-06	3.076470e-06	1.151285e-08	2.090143e+01	7.528636e+02
1.030000e-06	3.224402e-06	1.185835e-08	2.190647e+01	7.766531e+02
1.040000e-06	3.371227e-06	1.217309e-08	2.290399e+01	7.995060e+02
1.050000e-06	3.516865e-06	1.245753e-08	2.389345e+01	8.206132e+02
1.060000e-06	3.661202e-06	1.272271e-08	2.487407e+01	8.393039e+02
1.070000e-06	3.804148e-06	1.297354e-08	2.584524e+01	8.554167e+02
1.080000e-06	3.945669e-06	1.320885e-08	2.680673e+01	8.693823e+02
1.090000e-06	4.085731e-06	1.342690e-08	2.775831e+01	8.820336e+02
1.100000e-06	4.224290e-06	1.363088e-08	2.869967e+01	8.942610e+02
1.110000e-06	4.361273e-06	1.382429e-08	2.963033e+01	9.066749e+02
1.120000e-06	4.496602e-06	1.400496e-08	3.054975e+01	9.194151e+02
1.130000e-06	4.630251e-06	1.417712e-08	3.145775e+01	9.321699e+02
1.140000e-06	4.762286e-06	1.434289e-08	3.235479e+01	9.443784e+02
1.150000e-06	4.892651e-06	1.450393e-08	3.324049e+01	9.555131e+02
1.160000e-06	5.021259e-06	1.465808e-08	3.411425e+01	9.653200e+02
1.170000e-06	5.148087e-06	1.480310e-08	3.497591e+01	9.739199e+02
1.180000e-06	5.273081e-06	1.494221e-08	3.582511e+01	9.817397e+02
1.190000e-06	5.396217e-06	1.507449e-08	3.666170e+01	9.893182e+02
1.200000e-06	5.517419e-06	1.519989e-08	3.748514e+01	9.970770e+02
1.210000e-06	5.636589e-06	1.531812e-08	3.829477e+01	1.005158e+03
1.220000e-06	5.753628e-06	1.543003e-08	3.908993e+01	1.013391e+03
1.230000e-06	5.868519e-06	1.553759e-08	3.987050e+01	1.021395e+03
1.240000e-06	5.981230e-06	1.564101e-08	4.063626e+01	1.028770e+03
1.250000e-06	6.091731e-06	1.574117e-08	4.138699e+01	1.035275e+03
1.260000e-06	6.200091e-06	1.583771e-08	4.212318e+01	1.040935e+03
1.270000e-06	6.306258e-06	1.592967e-08	4.284448e+01	1.046025e+03
1.280000e-06	6.410163e-06	1.601782e-08	4.355041e+01	1.050943e+03
1.290000e-06	6.511742e-06	1.610020e-08	4.424053e+01	1.056040e+03
1.300000e-06	6.610905e-06	1.617730e-08	4.491424e+01	1.061472e+03
1.310000e-06	6.707616e-06	1.625085e-08	4.557129e+01	1.067149e+03
1.320000e-06	6.801945e-06	1.632328e-08	4.621216e+01	1.072786e+03
1.330000e-06	6.893936e-06	1.639636e-08	4.683715e+01	1.078034e+03
1.340000e-06	6.983488e-06	1.646697e-08	4.744556e+01	1.082639e+03
1.350000e-06	7.070579e-06	1.653246e-08	4.803725e+01	1.086544e+03
1.360000e-06	7.155245e-06	1.659439e-08	4.861247e+01	1.089908e+03
1.370000e-06	7.237429e-06	1.665619e-08	4.917082e+01	1.093026e+03
1.380000e-06	7.317040e-06	1.671430e-08	4.971170e+01	1.096201e+03
1.390000e-06	7.393964e-06	1.676457e-08	5.023431e+01	1.099611e+03
1.400000e-06	7.468080e-06	1.681108e-08	5.073785e+01	1.103240e+03
1.410000e-06	7.539449e-06	1.685840e-08	5.122273e+01	1.106901e+03
1.420000e-06	7.608170e-06	1.690599e-08	5.168962e+01	1.110321e+03
1.430000e-06	7.674170e-06	1.695072e-08	5.213802e+01	1.113272e+03
1.440000e-06	7.737441e-06	1.699256e-08	5.256789e+01	1.115668e+03
1.450000e-06	7.798074e-06	1.703295e-08	5.297983e+01	1.117599e+03
1.460000e-06	7.855977e-06	1.707238e-08	5.337321e+01	1.119286e+03
1.470000e-06	7.910992e-06	1.710733e-08	5.374698e+01	1.120978e+03
1.480000e-06	7.962904e-06	1.713565e-08	5.409968e+01	1.122845e+03
1.490000e-06	8.011656e-06	1.715876e-08	5.443089e+01	1.124901e+03
1.500000e-06	8.057502e-06	1.718094e-08	5.474237e+01	1.127013e+03
1.510000e-06	8.100476e-06	1.720433e-08	5.503433e+01	1.128960e+03
1.520000e-06	8.140527e-06	1.722718e-08	5.530644e+01	1.130541e+03
1.530000e-06	8.177795e-06	1.724802e-08	5.555963e+01	1.131664e+03
1.540000e-06	8.212194e-06	1.726751e-08	5.579334e+01	1.132390e+03
1.550000e-06	8.243693e-06	1.728941e-08	5.600734e+01	1.132900e+03
1.560000e-06	8.272428e-06	1.731057e-08	5.620257e+01	1.133413e+03
1.570000e-06	8.298183e-06	1.732312e-08	5.637755e+01	1.134086e+03
1.580000e-06	8.320931e-06	1.732813e-08	5.653210e+01	1.134947e+03
1.590000e-06	8.340862e-06	1.733305e-08	5.666751e+01	1.135882e+03
1.600000e-06	8.357827e-06	1.734033e-08	5.678276e+01	1.136691e+03
1.610000e-06	8.371658e-06	1.734528e-08	5.687673e+01	1.137179e+03
1.620000e-06	8.382284e-06	1.734806e-08	5.694892e+01	1.137247e+03
1.630000e-06	8.389804e-06	1.735314e-08	5.700002e+01	1.136936e+03
1.640000e-06	8.394353e-06	1.735935e-08	5.703092e+01	1.136412e+03
1.650000e-06	8.395910e-06	1.736172e-08	5.704150e+01	1.135887e+03
1.660000e-06	8.394650e-06	1.735143e-08	5.703294e+01	1.135527e+03
1.670000e-06	8.390606e-06	1.733656e-08	5.700547e+01	1.135375e+03
1.680000e-06	8.383736e-06	1.732839e-08	5.695879e+01	1.135329e+03
1.690000e-06	8.374082e-06	1.732094e-08	5.689320e+01	1.135192e+03
1.700000e-06	8.361478e-06	1.730928e-08	5.680757e+01	1.134753e+03
1.710000e-06	8.346050e-06	1.729937e-08	5.670275e+01	1.133887e+03
1.720000e-06	8.328151e-06	1.729917e-08	5.658115e+01	1.132609e+03
1.730000e-06	8.307694e-06	1.727155e-08	5.644216e+01	1.131075e+03
1.740000e-06	8.284172e-06	1.719041e-08	5.628236e+01	1.129510e+03
1.750000e-06	8.256876e-06	1.717485e-08	5.609691e+01	1.128120e+03
1.760000e-06	8.225711e-06	1.717570e-08	5.588518e+01	1.127001e+03
1.770000e-06	8.191593e-06	1.715204e-08	5.565338e+01	1.126101e+03
1.780000e-06	8.154987e-06	1.715329e-08	5.540468e+01	1.125249e+03
1.790000e-06	8.116029e-06	1.720770e-08	5.514000e+01	1.124227e+03
1.800000e-06	8.075112e-06	1.712547e-08	5.486201e+01	1.122866e+03
1.810000e-06	8.031743e-06	1.709260e-08	5.456736e+01	1.121115e+03
1.820000e-06	7.985353e-06	1.713739e-08	5.425219e+01	1.119053e+03
1.830000e-06	7.936143e-06	1.704416e-08	5.391786e+01	1.116843e+03
1.840000e-06	7.883722e-06	1.707932e-08	5.356171e+01	1.114645e+03
1.850000e-06	7.828158e-06	1.700001e-08	5.318421e+01	1.112537e+03
1.860000e-06	7.769883e-06	1.698060e-08	5.278830e+01	1.110467e+03
1.870000e-06	7.708809e-06	1.697315e-08	5.237336e+01	1.108276e+03
1.880000e-06	7.645009e-06	1.686629e-08	5.193991e+01	1.105770e+03
1.890000e-06	7.578272e-06	1.686985e-08	5.148650e+01	1.102809e+03
1.900000e-06	7.508688e-06	1.675794e-08	5.101375e+01	1.099382e+03
1.910000e-06	7.436305e-06	1.674537e-08	5.052198e+01	1.095621e+03
1.920000e-06	7.361000e-06	1.668846e-08	5.001036e+01	1.091747e+03
1.930000e-06	7.282932e-06	1.662774e-08	4.947997e+01	1.087980e+03
1.940000e-06	7.202235e-06	1.661032e-08	4.893172e+01	1.084439e+03
1.950000e-06	7.119052e-06	1.649882e-08	4.836657e+01	1.081081e+03
1.960000e-06	7.033220e-06	1.647999e-08	4.778343e+01	1.077717e+03
1.970000e-06	6.944788e-06	1.637389e-08	4.718263e+01	1.074086e+03
1.980000e-06	6.853875e-06	1.632334e-08	4.656497e+01	1.069967e+03
1.990000e-06	6.760565e-06	1.626310e-08	4.593102e+01	1.065271e+03
2.000000e-06	6.665007e-06	1.619339e-08	4.528181e+01	1.060087e+03
2.010000e-06	6.567099e-06	1.613037e-08	4.461663e+01	1.054640e+03
2.020000e-06	6.466758e-06	1.601895e-08	4.393491e+01	1.049197e+03
2.030000e-06	6.363938e-06	1.595083e-08	4.323636e+01	1.043943e+03
2.040000e-06	6.258900e-06	1.585046e-08	4.252273e+01	1.038900e+03
2.050000e-06	6.151688e-06	1.578464e-08	4.179434e+01	1.033914e+03
2.060000e-06	6.042259e-06	1.569224e-08	4.105088e+01	1.028712e+03
2.070000e-06	5.930659e-06	1.561148e-08	4.029268e+01	1.023025e+03
2.080000e-06	5.816763e-06	1.551623e-08	3.951887e+01	1.016702e+03
2.090000e-06	5.700528e-06	1.540937e-08	3.872918e+01	1.009778e+03
2.100000e-06	5.582047e-06	1.529755e-08	3.792422e+01	1.002460e+03
2.110000e-06	5.461540e-06	1.518818e-08	3.710550e+01	9.950315e+02
2.120000e-06	5.339101e-06	1.508323e-08	3.627365e+01	9.877245e+02
2.130000e-06	5.214744e-06	1.496758e-08	3.542878e+01	9.806100e+02
2.140000e-06	5.088550e-06	1.485472e-08	3.457142e+01	9.735567e+02
2.150000e-06	4.960595e-06	1.472904e-08	3.370210e+01	9.662809e+02
2.160000e-06	4.830824e-06	1.461044e-08	3.282044e+01	9.584670e+02
2.170000e-06	4.699252e-06	1.447759e-08	3.192654e+01	9.499061e+02
2.180000e-06	4.566020e-06	1.434724e-08	3.102137e+01	9.405907e+02
2.190000e-06	4.431240e-06	1.420345e-08	3.010568e+01	9.307215e+02
2.200000e-06	4.294878e-06	1.406164e-08	2.917924e+01	9.206199e+02
2.210000e-06	4.156793e-06	1.391080e-08	2.824109e+01	9.105807e+02
2.220000e-06	4.017080e-06	1.375122e-08	2.729190e+01	9.007316e+02
2.230000e-06	3.875906e-06	1.358858e-08	2.633276e+01	8.909612e+02
2.240000e-06	3.733313e-06	1.342402e-08	2.536399e+01	8.809531e+02
2.250000e-06	3.589391e-06	1.326044e-08	2.438619e+01	8.703145e+02
2.260000e-06	3.444247e-06	1.308515e-08	2.340008e+01	8.587451e+02
2.270000e-06	3.297769e-06	1.289867e-08	2.240492e+01	8.461729e+02
2.280000e-06	3.149994e-06	1.270342e-08	2.140094e+01	8.327907e+02
2.290000e-06	3.001114e-06	1.250742e-08	2.038946e+01	8.189741e+02
2.300000e-06	2.851228e-06	1.230577e-08	1.937114e+01	8.051082e+02
2.310000e-06	2.700382e-06	1.209378e-08	1.834630e+01	7.913988e+02
2.320000e-06	2.548661e-06	1.186835e-08	1.731551e+01	7.777531e+02
2.330000e-06	2.396126e-06	1.163627e-08	1.627919e+01	7.637878e+02
2.340000e-06	2.242666e-06	1.140050e-08	1.523659e+01	7.489712e+02
2.350000e-06	2.088244e-06	1.115665e-08	1.418745e+01	7.328431e+02
2.360000e-06	1.932962e-06	1.089975e-08	1.313247e+01	7.152167e+02
2.370000e-06	1.776969e-06	1.062853e-08	1.207266e+01	6.962692e+02
2.380000e-06	1.620412e-06	1.034549e-08	1.100902e+01	6.764678e+02
2.390000e-06	1.463348e-06	1.005001e-08	9.941934e+00	6.563496e+02
2.400000e-06	1.305742e-06	9.738086e-09	8.871163e+00	6.362440e+02
2.410000e-06	1.147647e-06	9.406551e-09	7.797074e+00	6.160564e+02
2.420000e-06	9.891475e-07	9.061272e-09	6.720231e+00	5.952215e+02
2.430000e-06	8.303065e-07	8.702329e-09	5.641071e+00	5.728649e+02
2.440000e-06	6.711492e-07	8.324046e-09	4.559763e+00	5.481250e+02
2.450000e-06	5.117601e-07	7.922614e-09	3.476879e+00	5.205033e+02
2.460000e-06	3.522623e-07	7.492317e-09	2.393257e+00	4.900860e+02
2.470000e-06	1.926341e-07	7.029464e-09	1.308749e+00	4.575077e+02
2.480000e-06	3.291603e-08	6.527156e-09	2.236303e-01	4.236275e+02
2.490000e-06	-1.267763e-07	5.984348e-09	-8.613137e-01	3.890033e+02
2.500000e-06	-2.863942e-07	5.402524e-09	-1.945751e+00	3.533535e+02
2.510000e-06	-4.458877e-07	4.775583e-09	-3.029344e+00	3.152322e+02
2.520000e-06	-6.052162e-07	4.086152e-09	-4.111816e+00	2.720950e+02
2.530000e-06	-7.643274e-07	3.310180e-09	-5.192812e+00	2.208131e+02
2.540000e-06	-9.231942e-07	2.418484e-09	-6.272147e+00	1.585320e+02
2.550000e-06	-1.081726e-06	1.369800e-09	-7.349209e+00	8.363648e+01
2.560000e-06	-1.239814e-06	1.134284e-10	-8.423247e+00	-3.483276e+00
2.570000e-06	-1.397376e-06	-1.374999e-09	-9.493722e+00	-1.001325e+02
2.580000e-06	-1.554380e-06	-3.026950e-09	-1.056040e+01	-2.016149e+02
2.590000e-06	-1.710901e-06	-4.671516e-09	-1.162380e+01	-3.020894e+02
2.600000e-06	-1.866924e-06	-6.132187e-09	-1.268381e+01	-3.957567e+02
2.610000e-06	-2.022241e-06	-7.335680e-09	-1.373903e+01	-4.780433e+02
2.620000e-06	-2.176666e-06	-8.302997e-09	-1.478819e+01	-5.464516e+02
2.630000e-06	-2.330195e-06	-9.087701e-09	-1.583126e+01	-6.008504e+02
2.640000e-06	-2.482891e-06	-9.740686e-09	-1.686867e+01	-6.431568e+02
2.650000e-06	-2.634704e-06	-1.029585e-08	-1.790008e+01	-6.765455e+02
2.660000e-06	-2.785591e-06	-1.077827e-08	-1.892520e+01	-7.044574e+02
2.670000e-06	-2.935477e-06	-1.120511e-08	-1.994352e+01	-7.297139e+02
2.680000e-06	-3.084293e-06	-1.158616e-08	-2.095457e+01	-7.539833e+02
2.690000e-06	-3.232056e-06	-1.192881e-08	-2.195847e+01	-7.777040e+02
2.700000e-06	-3.378595e-06	-1.224207e-08	-2.295405e+01	-8.004109e+02
2.710000e-06	-3.523923e-06	-1.253202e-08	-2.394140e+01	-8.212850e+02
2.720000e-06	-3.668015e-06	-1.280007e-08	-2.492036e+01	-8.396968e+02
2.730000e-06	-3.810730e-06	-1.304755e-08	-2.588996e+01	-8.555499e+02
2.740000e-06	-3.952033e-06	-1.327756e-08	-2.684996e+01	-8.693312e+02
2.750000e-06	-4.091827e-06	-1.349715e-08	-2.779972e+01	-8.818974e+02
2.760000e-06	-4.230026e-06	-1.370757e-08	-2.873864e+01	-8.941235e+02
2.770000e-06	-4.366633e-06	-1.390495e-08	-2.966674e+01	-9.065750e+02
2.780000e-06	-4.501703e-06	-1.408832e-08	-3.058440e+01	-9.193387e+02
2.790000e-06	-4.635197e-06	-1.426135e-08	-3.149136e+01	-9.320641e+02
2.800000e-06	-4.766999e-06	-1.442715e-08	-3.238681e+01	-9.441801e+02
2.810000e-06	-4.897058e-06	-1.458279e-08	-3.327043e+01	-9.551787e+02
2.820000e-06	-5.025396e-06	-1.472864e-08	-3.414235e+01	-9.648445e+02
2.830000e-06	-5.151993e-06	-1.487125e-08	-3.500245e+01	-9.733370e+02
2.840000e-06	-5.276801e-06	-1.500932e-08	-3.585039e+01	-9.811059e+02
2.850000e-06	-5.399738e-06	-1.513813e-08	-3.668562e+01	-9.886880e+02
2.860000e-06	-5.520743e-06	-1.525790e-08	-3.750773e+01	-9.964807e+02
2.870000e-06	-5.639752e-06	-1.537152e-08	-3.831626e+01	-1.004592e+03
2.880000e-06	-5.756572e-06	-1.548190e-08	-3.910994e+01	-1.012820e+03
2.890000e-06	-5.871004e-06	-1.558791e-08	-3.988738e+01	-1.020776e+03
2.900000e-06	-5.983085e-06	-1.568838e-08	-4.064885e+01	-1.028065e+03
2.910000e-06	-6.092899e-06	-1.578499e-08	-4.139493e+01	-1.034474e+03
2.920000e-06	-6.200563e-06	-1.587950e-08	-4.212639e+01	-1.040057e+03
2.930000e-06	-6.306184e-06	-1.597196e-08	-4.284398e+01	-1.045109e+03
2.940000e-06	-6.409548e-06	-1.606097e-08	-4.354623e+01	-1.050032e+03
