# Temperatura_=_43.25
# Concentracion g/m^3_=_13400.0
# C_Vs_to_Am_M_A/Vsm_=_65563218390.804596
# pendiente_HvsI_1/m_=_3716.3
# ordenada_HvsI_A/m_=_1297.0
# frecuencia_Hz_=_301416.0476555924

Tiempo_(s)	Campo_(V.s)	Magnetizacion_(V.s)	Campo_(kA/m)	Magnetizacion_(A/m)
0.000000e+00	-8.363029e-06	-1.684509e-08	-5.692136e+01	-1.104466e+03
1.000000e-08	-8.359297e-06	-1.684649e-08	-5.689596e+01	-1.104301e+03
2.000000e-08	-8.352878e-06	-1.684328e-08	-5.685227e+01	-1.104337e+03
3.000000e-08	-8.343734e-06	-1.683528e-08	-5.679003e+01	-1.104383e+03
4.000000e-08	-8.331692e-06	-1.682363e-08	-5.670807e+01	-1.104199e+03
5.000000e-08	-8.316634e-06	-1.681216e-08	-5.660558e+01	-1.103598e+03
6.000000e-08	-8.298635e-06	-1.679935e-08	-5.648308e+01	-1.102531e+03
7.000000e-08	-8.278097e-06	-1.677839e-08	-5.634329e+01	-1.101112e+03
8.000000e-08	-8.254914e-06	-1.679595e-08	-5.618550e+01	-1.099570e+03
9.000000e-08	-8.228518e-06	-1.682094e-08	-5.600584e+01	-1.098152e+03
1.000000e-07	-8.198809e-06	-1.677811e-08	-5.580363e+01	-1.097023e+03
1.100000e-07	-8.165994e-06	-1.673377e-08	-5.558028e+01	-1.096194e+03
1.200000e-07	-8.130231e-06	-1.671914e-08	-5.533687e+01	-1.095520e+03
1.300000e-07	-8.091899e-06	-1.668815e-08	-5.507597e+01	-1.094767e+03
1.400000e-07	-8.051207e-06	-1.660519e-08	-5.479901e+01	-1.093707e+03
1.500000e-07	-8.007963e-06	-1.660263e-08	-5.450467e+01	-1.092215e+03
1.600000e-07	-7.961936e-06	-1.665455e-08	-5.419140e+01	-1.090315e+03
1.700000e-07	-7.913032e-06	-1.655176e-08	-5.385854e+01	-1.088155e+03
1.800000e-07	-7.861120e-06	-1.657010e-08	-5.350521e+01	-1.085936e+03
1.900000e-07	-7.806143e-06	-1.654920e-08	-5.313102e+01	-1.083810e+03
2.000000e-07	-7.748297e-06	-1.644298e-08	-5.273731e+01	-1.081813e+03
2.100000e-07	-7.687723e-06	-1.643048e-08	-5.232502e+01	-1.079844e+03
2.200000e-07	-7.624420e-06	-1.638441e-08	-5.189416e+01	-1.077712e+03
2.300000e-07	-7.558324e-06	-1.637735e-08	-5.144429e+01	-1.075228e+03
2.400000e-07	-7.489403e-06	-1.631512e-08	-5.097519e+01	-1.072293e+03
2.500000e-07	-7.417710e-06	-1.629164e-08	-5.048723e+01	-1.068948e+03
2.600000e-07	-7.343209e-06	-1.624854e-08	-4.998015e+01	-1.065361e+03
2.700000e-07	-7.265864e-06	-1.617608e-08	-4.945372e+01	-1.061751e+03
2.800000e-07	-7.185682e-06	-1.613428e-08	-4.890797e+01	-1.058292e+03
2.900000e-07	-7.102847e-06	-1.605772e-08	-4.834418e+01	-1.055029e+03
3.000000e-07	-7.017602e-06	-1.602331e-08	-4.776397e+01	-1.051857e+03
3.100000e-07	-6.929961e-06	-1.597655e-08	-4.716746e+01	-1.048556e+03
3.200000e-07	-6.839859e-06	-1.592234e-08	-4.655419e+01	-1.044895e+03
3.300000e-07	-6.747316e-06	-1.585236e-08	-4.592432e+01	-1.040726e+03
3.400000e-07	-6.652417e-06	-1.577722e-08	-4.527841e+01	-1.036058e+03
3.500000e-07	-6.555100e-06	-1.571786e-08	-4.461604e+01	-1.031049e+03
3.600000e-07	-6.455343e-06	-1.564263e-08	-4.393706e+01	-1.025942e+03
3.700000e-07	-6.353246e-06	-1.557056e-08	-4.324216e+01	-1.020952e+03
3.800000e-07	-6.248862e-06	-1.549303e-08	-4.253168e+01	-1.016169e+03
3.900000e-07	-6.142208e-06	-1.542568e-08	-4.180576e+01	-1.011511e+03
4.000000e-07	-6.033348e-06	-1.534764e-08	-4.106483e+01	-1.006754e+03
4.100000e-07	-5.922350e-06	-1.525626e-08	-4.030935e+01	-1.001628e+03
4.200000e-07	-5.809103e-06	-1.516532e-08	-3.953855e+01	-9.959297e+02
4.300000e-07	-5.693560e-06	-1.507554e-08	-3.875213e+01	-9.896183e+02
4.400000e-07	-5.575831e-06	-1.498676e-08	-3.795083e+01	-9.828297e+02
4.500000e-07	-5.456043e-06	-1.489275e-08	-3.713551e+01	-9.758188e+02
4.600000e-07	-5.334319e-06	-1.479066e-08	-3.630703e+01	-9.688432e+02
4.700000e-07	-5.210680e-06	-1.468052e-08	-3.546550e+01	-9.620439e+02
4.800000e-07	-5.085124e-06	-1.457364e-08	-3.461093e+01	-9.553749e+02
4.900000e-07	-4.957756e-06	-1.446410e-08	-3.374402e+01	-9.486149e+02
5.000000e-07	-4.828613e-06	-1.434289e-08	-3.286503e+01	-9.414591e+02
5.100000e-07	-4.697675e-06	-1.421815e-08	-3.197383e+01	-9.336510e+02
5.200000e-07	-4.565027e-06	-1.409507e-08	-3.107098e+01	-9.250964e+02
5.300000e-07	-4.430760e-06	-1.396442e-08	-3.015712e+01	-9.159071e+02
5.400000e-07	-4.294840e-06	-1.382811e-08	-2.923201e+01	-9.063521e+02
5.500000e-07	-4.157331e-06	-1.368642e-08	-2.829608e+01	-8.967346e+02
5.600000e-07	-4.018277e-06	-1.354309e-08	-2.734964e+01	-8.872481e+02
5.700000e-07	-3.877596e-06	-1.339654e-08	-2.639212e+01	-8.778765e+02
5.800000e-07	-3.735361e-06	-1.324111e-08	-2.542402e+01	-8.683852e+02
5.900000e-07	-3.591777e-06	-1.307353e-08	-2.444674e+01	-8.584121e+02
6.000000e-07	-3.446861e-06	-1.290078e-08	-2.346040e+01	-8.476210e+02
6.100000e-07	-3.300652e-06	-1.272535e-08	-2.246526e+01	-8.358511e+02
6.200000e-07	-3.153281e-06	-1.254476e-08	-2.146221e+01	-8.231927e+02
6.300000e-07	-3.004796e-06	-1.235523e-08	-2.045157e+01	-8.099516e+02
6.400000e-07	-2.855302e-06	-1.215849e-08	-1.943407e+01	-7.965108e+02
6.500000e-07	-2.704896e-06	-1.196075e-08	-1.841036e+01	-7.831464e+02
6.600000e-07	-2.553545e-06	-1.175182e-08	-1.738022e+01	-7.698802e+02
6.700000e-07	-2.401185e-06	-1.152731e-08	-1.634321e+01	-7.564371e+02
6.800000e-07	-2.247966e-06	-1.129011e-08	-1.530035e+01	-7.423366e+02
6.900000e-07	-2.093984e-06	-1.104820e-08	-1.425230e+01	-7.270832e+02
7.000000e-07	-1.939286e-06	-1.080023e-08	-1.319938e+01	-7.103780e+02
7.100000e-07	-1.783870e-06	-1.053972e-08	-1.214157e+01	-6.922538e+02
7.200000e-07	-1.627753e-06	-1.026571e-08	-1.107899e+01	-6.730657e+02
7.300000e-07	-1.471013e-06	-9.981547e-09	-1.001217e+01	-6.533275e+02
7.400000e-07	-1.313672e-06	-9.685634e-09	-8.941259e+00	-6.334538e+02
7.500000e-07	-1.155869e-06	-9.368723e-09	-7.867203e+00	-6.135188e+02
7.600000e-07	-9.976700e-07	-9.029558e-09	-6.790451e+00	-5.931424e+02
7.700000e-07	-8.390966e-07	-8.671479e-09	-5.711151e+00	-5.715703e+02
7.800000e-07	-6.802632e-07	-8.300130e-09	-4.630082e+00	-5.479353e+02
7.900000e-07	-5.212061e-07	-7.909015e-09	-3.547490e+00	-5.215973e+02
8.000000e-07	-3.619424e-07	-7.487858e-09	-2.463492e+00	-4.924169e+02
8.100000e-07	-2.025395e-07	-7.032782e-09	-1.378547e+00	-4.608199e+02
8.200000e-07	-4.305794e-08	-6.546955e-09	-2.930657e-01	-4.275854e+02
8.300000e-07	1.164279e-07	-6.031616e-09	7.924444e-01	-3.933997e+02
8.400000e-07	2.758501e-07	-5.475912e-09	1.877521e+00	-3.583238e+02
8.500000e-07	4.351654e-07	-4.866454e-09	2.961870e+00	-3.213887e+02
8.600000e-07	5.942909e-07	-4.193618e-09	4.044928e+00	-2.805116e+02
8.700000e-07	7.531506e-07	-3.446943e-09	5.126176e+00	-2.328371e+02
8.800000e-07	9.117872e-07	-2.598499e-09	6.205906e+00	-1.754587e+02
8.900000e-07	1.070178e-06	-1.607346e-09	7.283959e+00	-1.063346e+02
9.000000e-07	1.228211e-06	-4.265880e-10	8.359586e+00	-2.511841e+01
9.100000e-07	1.385785e-06	9.682973e-10	9.432084e+00	6.637583e+01
9.200000e-07	1.542832e-06	2.533152e-09	1.050099e+01	1.642556e+02
9.300000e-07	1.699212e-06	4.134882e-09	1.156536e+01	2.631979e+02
9.400000e-07	1.854914e-06	5.608130e-09	1.262512e+01	3.575033e+02
9.500000e-07	2.009997e-06	6.852104e-09	1.368066e+01	4.422640e+02
9.600000e-07	2.164297e-06	7.860699e-09	1.473088e+01	5.143177e+02
9.700000e-07	2.317789e-06	8.680955e-09	1.577559e+01	5.727265e+02
9.800000e-07	2.470479e-06	9.362721e-09	1.681485e+01	6.186707e+02
9.900000e-07	2.622293e-06	9.939723e-09	1.784814e+01	6.548296e+02
1.000000e-06	2.773238e-06	1.043187e-08	1.887552e+01	6.844719e+02
1.010000e-06	2.923243e-06	1.086025e-08	1.989650e+01	7.105485e+02
1.020000e-06	3.072148e-06	1.124337e-08	2.090999e+01	7.350526e+02
1.030000e-06	3.219889e-06	1.159343e-08	2.191556e+01	7.587961e+02
1.040000e-06	3.366427e-06	1.191264e-08	2.291294e+01	7.816029e+02
1.050000e-06	3.511747e-06	1.220000e-08	2.390203e+01	8.027815e+02
1.060000e-06	3.655860e-06	1.246665e-08	2.488291e+01	8.216627e+02
1.070000e-06	3.798634e-06	1.271814e-08	2.585468e+01	8.380010e+02
1.080000e-06	3.939950e-06	1.295219e-08	2.681652e+01	8.521138e+02
1.090000e-06	4.079699e-06	1.316550e-08	2.776769e+01	8.647486e+02
1.100000e-06	4.217912e-06	1.336371e-08	2.870842e+01	8.767746e+02
1.110000e-06	4.354588e-06	1.355378e-08	2.963867e+01	8.888481e+02
1.120000e-06	4.489630e-06	1.373298e-08	3.055781e+01	9.011961e+02
1.130000e-06	4.623143e-06	1.390183e-08	3.146654e+01	9.135950e+02
1.140000e-06	4.754972e-06	1.406464e-08	3.236381e+01	9.255352e+02
1.150000e-06	4.885029e-06	1.422503e-08	3.324902e+01	9.364872e+02
1.160000e-06	5.013441e-06	1.437723e-08	3.412303e+01	9.461480e+02
1.170000e-06	5.140121e-06	1.451678e-08	3.498525e+01	9.545686e+02
1.180000e-06	5.264948e-06	1.464571e-08	3.583486e+01	9.621182e+02
1.190000e-06	5.387852e-06	1.476625e-08	3.667139e+01	9.693145e+02
1.200000e-06	5.508832e-06	1.488403e-08	3.749482e+01	9.766022e+02
1.210000e-06	5.627829e-06	1.499836e-08	3.830475e+01	9.841781e+02
1.220000e-06	5.744641e-06	1.510762e-08	3.909980e+01	9.919343e+02
1.230000e-06	5.859232e-06	1.521152e-08	3.987975e+01	9.995358e+02
1.240000e-06	5.971671e-06	1.531004e-08	4.064504e+01	1.006591e+03
1.250000e-06	6.081996e-06	1.540406e-08	4.139595e+01	1.012837e+03
1.260000e-06	6.190142e-06	1.549326e-08	4.213202e+01	1.018256e+03
1.270000e-06	6.296085e-06	1.557700e-08	4.285310e+01	1.023078e+03
1.280000e-06	6.399826e-06	1.565639e-08	4.355919e+01	1.027678e+03
1.290000e-06	6.501235e-06	1.573187e-08	4.424942e+01	1.032408e+03
1.300000e-06	6.600249e-06	1.580456e-08	4.492334e+01	1.037449e+03
1.310000e-06	6.696818e-06	1.587677e-08	4.558061e+01	1.042745e+03
1.320000e-06	6.791020e-06	1.594707e-08	4.622178e+01	1.048034e+03
1.330000e-06	6.882831e-06	1.601542e-08	4.684668e+01	1.052977e+03
1.340000e-06	6.972161e-06	1.608102e-08	4.745468e+01	1.057305e+03
1.350000e-06	7.059075e-06	1.614151e-08	4.804625e+01	1.060939e+03
1.360000e-06	7.143599e-06	1.619697e-08	4.862154e+01	1.064017e+03
1.370000e-06	7.225613e-06	1.625152e-08	4.917976e+01	1.066827e+03
1.380000e-06	7.305001e-06	1.630462e-08	4.972009e+01	1.069681e+03
1.390000e-06	7.381703e-06	1.635233e-08	5.024216e+01	1.072779e+03
1.400000e-06	7.455607e-06	1.639608e-08	5.074517e+01	1.076130e+03
1.410000e-06	7.526788e-06	1.644099e-08	5.122965e+01	1.079558e+03
1.420000e-06	7.595346e-06	1.648668e-08	5.169627e+01	1.082787e+03
1.430000e-06	7.661176e-06	1.652930e-08	5.214433e+01	1.085570e+03
1.440000e-06	7.724310e-06	1.656683e-08	5.257404e+01	1.087796e+03
1.450000e-06	7.784801e-06	1.660106e-08	5.298576e+01	1.089538e+03
1.460000e-06	7.842524e-06	1.663429e-08	5.337864e+01	1.091016e+03
1.470000e-06	7.897406e-06	1.666328e-08	5.375219e+01	1.092496e+03
1.480000e-06	7.949182e-06	1.668828e-08	5.410459e+01	1.094172e+03
1.490000e-06	7.997728e-06	1.671241e-08	5.443501e+01	1.096084e+03
1.500000e-06	8.043441e-06	1.673644e-08	5.474615e+01	1.098106e+03
1.510000e-06	8.086386e-06	1.675794e-08	5.503844e+01	1.100004e+03
1.520000e-06	8.126394e-06	1.677776e-08	5.531075e+01	1.101550e+03
1.530000e-06	8.163577e-06	1.679827e-08	5.556383e+01	1.102617e+03
1.540000e-06	8.197900e-06	1.681707e-08	5.579744e+01	1.103244e+03
1.550000e-06	8.229284e-06	1.683325e-08	5.601105e+01	1.103610e+03
1.560000e-06	8.257830e-06	1.684691e-08	5.620534e+01	1.103955e+03
1.570000e-06	8.283439e-06	1.685735e-08	5.637965e+01	1.104475e+03
1.580000e-06	8.306090e-06	1.686434e-08	5.653382e+01	1.105234e+03
1.590000e-06	8.325883e-06	1.687092e-08	5.666854e+01	1.106139e+03
1.600000e-06	8.342692e-06	1.687834e-08	5.678294e+01	1.106983e+03
1.610000e-06	8.356425e-06	1.688404e-08	5.687641e+01	1.107545e+03
1.620000e-06	8.367001e-06	1.688767e-08	5.694840e+01	1.107683e+03
1.630000e-06	8.374494e-06	1.689148e-08	5.699940e+01	1.107407e+03
1.640000e-06	8.379063e-06	1.689364e-08	5.703050e+01	1.106870e+03
1.650000e-06	8.380680e-06	1.689313e-08	5.704150e+01	1.106302e+03
1.660000e-06	8.379465e-06	1.688716e-08	5.703323e+01	1.105906e+03
1.670000e-06	8.375491e-06	1.687691e-08	5.700618e+01	1.105768e+03
1.680000e-06	8.368651e-06	1.687309e-08	5.695963e+01	1.105815e+03
1.690000e-06	8.359023e-06	1.686879e-08	5.689409e+01	1.105847e+03
1.700000e-06	8.346495e-06	1.685993e-08	5.680882e+01	1.105625e+03
1.710000e-06	8.331132e-06	1.685365e-08	5.670426e+01	1.104973e+03
1.720000e-06	8.313284e-06	1.685397e-08	5.658278e+01	1.103860e+03
1.730000e-06	8.292837e-06	1.682873e-08	5.644361e+01	1.102415e+03
1.740000e-06	8.269330e-06	1.674520e-08	5.628362e+01	1.100874e+03
1.750000e-06	8.242075e-06	1.672882e-08	5.609811e+01	1.099482e+03
1.760000e-06	8.210951e-06	1.674111e-08	5.588627e+01	1.098387e+03
1.770000e-06	8.176801e-06	1.672067e-08	5.565384e+01	1.097583e+03
1.780000e-06	8.140165e-06	1.671826e-08	5.540448e+01	1.096912e+03
1.790000e-06	8.101236e-06	1.677898e-08	5.513952e+01	1.096135e+03
1.800000e-06	8.060388e-06	1.670177e-08	5.486150e+01	1.095032e+03
1.810000e-06	8.017154e-06	1.664956e-08	5.456723e+01	1.093492e+03
1.820000e-06	7.970920e-06	1.671515e-08	5.425255e+01	1.091555e+03
1.830000e-06	7.921817e-06	1.661674e-08	5.391834e+01	1.089379e+03
1.840000e-06	7.869455e-06	1.663324e-08	5.356194e+01	1.087163e+03
1.850000e-06	7.813961e-06	1.657802e-08	5.318424e+01	1.085051e+03
1.860000e-06	7.755773e-06	1.654521e-08	5.278819e+01	1.083064e+03
1.870000e-06	7.694763e-06	1.654768e-08	5.237293e+01	1.081086e+03
1.880000e-06	7.631058e-06	1.644320e-08	5.193934e+01	1.078924e+03
1.890000e-06	7.564512e-06	1.646099e-08	5.148641e+01	1.076394e+03
1.900000e-06	7.495077e-06	1.636068e-08	5.101381e+01	1.073410e+03
1.910000e-06	7.422747e-06	1.634318e-08	5.052151e+01	1.070029e+03
1.920000e-06	7.347484e-06	1.631055e-08	5.000925e+01	1.066428e+03
1.930000e-06	7.269460e-06	1.622334e-08	4.947819e+01	1.062827e+03
1.940000e-06	7.188835e-06	1.620988e-08	4.892944e+01	1.059389e+03
1.950000e-06	7.105731e-06	1.611184e-08	4.836380e+01	1.056144e+03
1.960000e-06	7.019968e-06	1.609092e-08	4.778007e+01	1.052968e+03
1.970000e-06	6.931675e-06	1.600322e-08	4.717912e+01	1.049639e+03
1.980000e-06	6.840997e-06	1.595243e-08	4.656194e+01	1.045927e+03
1.990000e-06	6.747881e-06	1.590419e-08	4.592816e+01	1.041702e+03
2.000000e-06	6.652360e-06	1.582696e-08	4.527802e+01	1.036986e+03
2.010000e-06	6.554461e-06	1.577257e-08	4.461169e+01	1.031955e+03
2.020000e-06	6.454281e-06	1.567042e-08	4.392983e+01	1.026850e+03
2.030000e-06	6.351725e-06	1.560888e-08	4.323181e+01	1.021881e+03
2.040000e-06	6.246899e-06	1.551695e-08	4.251832e+01	1.017117e+03
2.050000e-06	6.139881e-06	1.545272e-08	4.178993e+01	1.012461e+03
2.060000e-06	6.030689e-06	1.537457e-08	4.104673e+01	1.007677e+03
2.070000e-06	5.919270e-06	1.529391e-08	4.028838e+01	1.002496e+03
2.080000e-06	5.805522e-06	1.520845e-08	3.951418e+01	9.967302e+02
2.090000e-06	5.689459e-06	1.510876e-08	3.872422e+01	9.903577e+02
2.100000e-06	5.571171e-06	1.500319e-08	3.791911e+01	9.835315e+02
2.110000e-06	5.450871e-06	1.489735e-08	3.710031e+01	9.765126e+02
2.120000e-06	5.328618e-06	1.480082e-08	3.626822e+01	9.695516e+02
2.130000e-06	5.204477e-06	1.469670e-08	3.542328e+01	9.627715e+02
2.140000e-06	5.078470e-06	1.459281e-08	3.456564e+01	9.561052e+02
2.150000e-06	4.950629e-06	1.447787e-08	3.369551e+01	9.493172e+02
2.160000e-06	4.821035e-06	1.436255e-08	3.281345e+01	9.421011e+02
2.170000e-06	4.689717e-06	1.423714e-08	3.191966e+01	9.342134e+02
2.180000e-06	4.556695e-06	1.411345e-08	3.101427e+01	9.255814e+02
2.190000e-06	4.422083e-06	1.398145e-08	3.009807e+01	9.163377e+02
2.200000e-06	4.285877e-06	1.384802e-08	2.917101e+01	9.067618e+02
2.210000e-06	4.148007e-06	1.370418e-08	2.823262e+01	8.971517e+02
2.220000e-06	4.008544e-06	1.355256e-08	2.728339e+01	8.876819e+02
2.230000e-06	3.867589e-06	1.340209e-08	2.632400e+01	8.783114e+02
2.240000e-06	3.725269e-06	1.325062e-08	2.535533e+01	8.687862e+02
2.250000e-06	3.581587e-06	1.309163e-08	2.437739e+01	8.587391e+02
2.260000e-06	3.436643e-06	1.292185e-08	2.339086e+01	8.478462e+02
2.270000e-06	3.290458e-06	1.274448e-08	2.239587e+01	8.359717e+02
2.280000e-06	3.143007e-06	1.256327e-08	2.139228e+01	8.232329e+02
2.290000e-06	2.994468e-06	1.237338e-08	2.038128e+01	8.099519e+02
2.300000e-06	2.844925e-06	1.217290e-08	1.936344e+01	7.965090e+02
2.310000e-06	2.694401e-06	1.196701e-08	1.833893e+01	7.831589e+02
2.320000e-06	2.542941e-06	1.175948e-08	1.730804e+01	7.698912e+02
2.330000e-06	2.390508e-06	1.154491e-08	1.627054e+01	7.564023e+02
2.340000e-06	2.237199e-06	1.131524e-08	1.522707e+01	7.421996e+02
2.350000e-06	2.083124e-06	1.107193e-08	1.417839e+01	7.267993e+02
2.360000e-06	1.928197e-06	1.082077e-08	1.312390e+01	7.099335e+02
2.370000e-06	1.772524e-06	1.055947e-08	1.206435e+01	6.916732e+02
2.380000e-06	1.616323e-06	1.028204e-08	1.100120e+01	6.724005e+02
2.390000e-06	1.459612e-06	9.992745e-09	9.934571e+00	6.526317e+02
2.400000e-06	1.302380e-06	9.691462e-09	8.864400e+00	6.327550e+02
2.410000e-06	1.144667e-06	9.374527e-09	7.790957e+00	6.127984e+02
2.420000e-06	9.865789e-07	9.037698e-09	6.714961e+00	5.923341e+02
2.430000e-06	8.281815e-07	8.683445e-09	5.636859e+00	5.705808e+02
2.440000e-06	6.694596e-07	8.311801e-09	4.556549e+00	5.466792e+02
2.450000e-06	5.104498e-07	7.920613e-09	3.474280e+00	5.200324e+02
2.460000e-06	3.512404e-07	7.500932e-09	2.390651e+00	4.905632e+02
2.470000e-06	1.919434e-07	7.047238e-09	1.306426e+00	4.587502e+02
2.480000e-06	3.261291e-08	6.556389e-09	2.219736e-01	4.253872e+02
2.490000e-06	-1.267668e-07	6.030184e-09	-8.628139e-01	3.911182e+02
2.500000e-06	-2.861198e-07	5.465750e-09	-1.947420e+00	3.559093e+02
2.510000e-06	-4.453458e-07	4.853866e-09	-3.031161e+00	3.186690e+02
2.520000e-06	-6.044138e-07	4.183027e-09	-4.113828e+00	2.772077e+02
2.530000e-06	-7.632200e-07	3.436882e-09	-5.194711e+00	2.286246e+02
2.540000e-06	-9.217063e-07	2.591125e-09	-6.273418e+00	1.700610e+02
2.550000e-06	-1.079824e-06	1.600915e-09	-7.349618e+00	9.962141e+01
2.560000e-06	-1.237545e-06	4.188906e-10	-8.423112e+00	1.717720e+01
2.570000e-06	-1.394789e-06	-9.850846e-10	-9.493366e+00	-7.522040e+01
2.580000e-06	-1.551480e-06	-2.564166e-09	-1.055985e+01	-1.734855e+02
2.590000e-06	-1.707646e-06	-4.175140e-09	-1.162277e+01	-2.721998e+02
2.600000e-06	-1.863264e-06	-5.650256e-09	-1.268195e+01	-3.656937e+02
2.610000e-06	-2.018239e-06	-6.893600e-09	-1.373676e+01	-4.492074e+02
2.620000e-06	-2.172408e-06	-7.903286e-09	-1.478608e+01	-5.198042e+02
2.630000e-06	-2.325780e-06	-8.722151e-09	-1.582998e+01	-5.767885e+02
2.640000e-06	-2.478358e-06	-9.401246e-09	-1.686847e+01	-6.215381e+02
2.650000e-06	-2.629963e-06	-9.977230e-09	-1.790034e+01	-6.568416e+02
2.660000e-06	-2.780550e-06	-1.047475e-08	-1.892528e+01	-6.859740e+02
2.670000e-06	-2.930143e-06	-1.091115e-08	-1.994346e+01	-7.118080e+02
2.680000e-06	-3.078708e-06	-1.130048e-08	-2.095464e+01	-7.362126e+02
2.690000e-06	-3.226212e-06	-1.165258e-08	-2.195859e+01	-7.598783e+02
2.700000e-06	-3.372575e-06	-1.197257e-08	-2.295479e+01	-7.825483e+02
2.710000e-06	-3.517767e-06	-1.226400e-08	-2.394301e+01	-8.035084e+02
2.720000e-06	-3.661673e-06	-1.252878e-08	-2.492248e+01	-8.221196e+02
2.730000e-06	-3.804135e-06	-1.277225e-08	-2.589212e+01	-8.381952e+02
2.740000e-06	-3.945167e-06	-1.300212e-08	-2.685202e+01	-8.521093e+02
2.750000e-06	-4.084758e-06	-1.322201e-08	-2.780213e+01	-8.646390e+02
2.760000e-06	-4.222804e-06	-1.343040e-08	-2.874171e+01	-8.766456e+02
2.770000e-06	-4.359255e-06	-1.362547e-08	-2.967044e+01	-8.887467e+02
2.780000e-06	-4.494030e-06	-1.380731e-08	-3.058776e+01	-9.011184e+02
2.790000e-06	-4.627162e-06	-1.397752e-08	-3.149389e+01	-9.134958e+02
2.800000e-06	-4.758714e-06	-1.413706e-08	-3.238928e+01	-9.253538e+02
2.810000e-06	-4.888604e-06	-1.428588e-08	-3.327335e+01	-9.361767e+02
2.820000e-06	-5.016769e-06	-1.442808e-08	-3.414568e+01	-9.456962e+02
2.830000e-06	-5.143131e-06	-1.456898e-08	-3.500574e+01	-9.540019e+02
2.840000e-06	-5.267691e-06	-1.470453e-08	-3.585354e+01	-9.614889e+02
2.850000e-06	-5.390441e-06	-1.482860e-08	-3.668901e+01	-9.686775e+02
2.860000e-06	-5.511273e-06	-1.494105e-08	-3.751142e+01	-9.759926e+02
2.870000e-06	-5.629980e-06	-1.504791e-08	-3.831938e+01	-9.835986e+02
2.880000e-06	-5.746514e-06	-1.515250e-08	-3.911255e+01	-9.913574e+02
2.890000e-06	-5.860758e-06	-1.525238e-08	-3.989013e+01	-9.989188e+02
2.900000e-06	-5.972566e-06	-1.534883e-08	-4.065113e+01	-1.005897e+03
2.910000e-06	-6.082157e-06	-1.544351e-08	-4.139704e+01	-1.012051e+03
2.920000e-06	-6.189663e-06	-1.553591e-08	-4.212876e+01	-1.017392e+03
2.930000e-06	-6.295098e-06	-1.562352e-08	-4.284638e+01	-1.022172e+03
2.940000e-06	-6.398277e-06	-1.570508e-08	-4.354865e+01	-1.026771e+03
