# Temperatura_=_31.07
# Concentracion g/m^3_=_13400.0
# C_Vs_to_Am_M_A/Vsm_=_65563218390.804596
# pendiente_HvsI_1/m_=_3716.3
# ordenada_HvsI_A/m_=_1297.0
# frecuencia_Hz_=_301417.22258780745

Tiempo_(s)	Campo_(V.s)	Magnetizacion_(V.s)	Campo_(kA/m)	Magnetizacion_(A/m)
0.000000e+00	-8.322495e-06	-1.662908e-08	-5.692493e+01	-1.090554e+03
1.000000e-08	-8.319264e-06	-1.663408e-08	-5.690283e+01	-1.090128e+03
2.000000e-08	-8.313323e-06	-1.662835e-08	-5.686219e+01	-1.089877e+03
3.000000e-08	-8.304766e-06	-1.661852e-08	-5.680366e+01	-1.089721e+03
4.000000e-08	-8.293328e-06	-1.660888e-08	-5.672543e+01	-1.089494e+03
5.000000e-08	-8.278881e-06	-1.659622e-08	-5.662661e+01	-1.089023e+03
6.000000e-08	-8.261473e-06	-1.657653e-08	-5.650754e+01	-1.088205e+03
7.000000e-08	-8.241475e-06	-1.654158e-08	-5.637076e+01	-1.087054e+03
8.000000e-08	-8.218997e-06	-1.654215e-08	-5.621702e+01	-1.085701e+03
9.000000e-08	-8.193386e-06	-1.664603e-08	-5.604184e+01	-1.084336e+03
1.000000e-07	-8.164353e-06	-1.661077e-08	-5.584325e+01	-1.083127e+03
1.100000e-07	-8.132241e-06	-1.651117e-08	-5.562361e+01	-1.082147e+03
1.200000e-07	-8.097170e-06	-1.650404e-08	-5.538373e+01	-1.081347e+03
1.300000e-07	-8.059402e-06	-1.650300e-08	-5.512540e+01	-1.080574e+03
1.400000e-07	-8.019328e-06	-1.639304e-08	-5.485130e+01	-1.079640e+03
1.500000e-07	-7.976794e-06	-1.630867e-08	-5.456037e+01	-1.078400e+03
1.600000e-07	-7.931455e-06	-1.650140e-08	-5.425026e+01	-1.076806e+03
1.700000e-07	-7.883268e-06	-1.633235e-08	-5.392066e+01	-1.074924e+03
1.800000e-07	-7.832107e-06	-1.634044e-08	-5.357073e+01	-1.072892e+03
1.900000e-07	-7.777869e-06	-1.642112e-08	-5.319975e+01	-1.070845e+03
2.000000e-07	-7.720852e-06	-1.622973e-08	-5.280976e+01	-1.068852e+03
2.100000e-07	-7.661087e-06	-1.626503e-08	-5.240097e+01	-1.066877e+03
2.200000e-07	-7.598569e-06	-1.616503e-08	-5.197336e+01	-1.064797e+03
2.300000e-07	-7.533282e-06	-1.617731e-08	-5.152680e+01	-1.062458e+03
2.400000e-07	-7.465137e-06	-1.614242e-08	-5.106069e+01	-1.059753e+03
2.500000e-07	-7.394237e-06	-1.607565e-08	-5.057574e+01	-1.056678e+03
2.600000e-07	-7.320547e-06	-1.608356e-08	-5.007172e+01	-1.053339e+03
2.700000e-07	-7.244044e-06	-1.599985e-08	-4.954844e+01	-1.049916e+03
2.800000e-07	-7.164703e-06	-1.597322e-08	-4.900576e+01	-1.046581e+03
2.900000e-07	-7.082612e-06	-1.587374e-08	-4.844426e+01	-1.043417e+03
3.000000e-07	-6.998109e-06	-1.585351e-08	-4.786627e+01	-1.040383e+03
3.100000e-07	-6.911346e-06	-1.581749e-08	-4.727283e+01	-1.037315e+03
3.200000e-07	-6.822156e-06	-1.573274e-08	-4.666278e+01	-1.034001e+03
3.300000e-07	-6.730433e-06	-1.571367e-08	-4.603540e+01	-1.030265e+03
3.400000e-07	-6.636322e-06	-1.561190e-08	-4.539169e+01	-1.026043e+03
3.500000e-07	-6.539860e-06	-1.556150e-08	-4.473190e+01	-1.021415e+03
3.600000e-07	-6.441014e-06	-1.549758e-08	-4.405581e+01	-1.016569e+03
3.700000e-07	-6.339818e-06	-1.543290e-08	-4.336364e+01	-1.011715e+03
3.800000e-07	-6.236286e-06	-1.535603e-08	-4.265549e+01	-1.006997e+03
3.900000e-07	-6.130520e-06	-1.527956e-08	-4.193206e+01	-1.002417e+03
4.000000e-07	-6.022575e-06	-1.521999e-08	-4.119374e+01	-9.978385e+02
4.100000e-07	-5.912512e-06	-1.511871e-08	-4.044092e+01	-9.930364e+02
4.200000e-07	-5.800257e-06	-1.503994e-08	-3.967310e+01	-9.877962e+02
4.300000e-07	-5.685710e-06	-1.494355e-08	-3.888961e+01	-9.820075e+02
4.400000e-07	-5.568951e-06	-1.487132e-08	-3.809100e+01	-9.757130e+02
4.500000e-07	-5.450089e-06	-1.478743e-08	-3.727800e+01	-9.690891e+02
4.600000e-07	-5.329237e-06	-1.469174e-08	-3.645138e+01	-9.623662e+02
4.700000e-07	-5.206510e-06	-1.458494e-08	-3.561194e+01	-9.557214e+02
4.800000e-07	-5.081861e-06	-1.447760e-08	-3.475936e+01	-9.491924e+02
4.900000e-07	-4.955363e-06	-1.437630e-08	-3.389413e+01	-9.426522e+02
5.000000e-07	-4.827142e-06	-1.425792e-08	-3.301711e+01	-9.358564e+02
5.100000e-07	-4.697193e-06	-1.413956e-08	-3.212827e+01	-9.285468e+02
5.200000e-07	-4.565518e-06	-1.401721e-08	-3.122763e+01	-9.205635e+02
5.300000e-07	-4.432174e-06	-1.390013e-08	-3.031557e+01	-9.119169e+02
5.400000e-07	-4.297267e-06	-1.377093e-08	-2.939282e+01	-9.027841e+02
5.500000e-07	-4.160741e-06	-1.363309e-08	-2.845900e+01	-8.934288e+02
5.600000e-07	-4.022660e-06	-1.349133e-08	-2.751454e+01	-8.840783e+02
5.700000e-07	-3.883109e-06	-1.335153e-08	-2.656003e+01	-8.748107e+02
5.800000e-07	-3.741930e-06	-1.320542e-08	-2.559438e+01	-8.655051e+02
5.900000e-07	-3.599191e-06	-1.304075e-08	-2.461806e+01	-8.558798e+02
6.000000e-07	-3.455163e-06	-1.287031e-08	-2.363293e+01	-8.456065e+02
6.100000e-07	-3.309909e-06	-1.269684e-08	-2.263940e+01	-8.344510e+02
6.200000e-07	-3.163424e-06	-1.252580e-08	-2.163746e+01	-8.223781e+02
6.300000e-07	-3.015777e-06	-1.234413e-08	-2.062758e+01	-8.095711e+02
6.400000e-07	-2.867137e-06	-1.215158e-08	-1.961090e+01	-7.963504e+02
6.500000e-07	-2.717558e-06	-1.195599e-08	-1.858779e+01	-7.830235e+02
6.600000e-07	-2.567037e-06	-1.175145e-08	-1.755824e+01	-7.697302e+02
6.700000e-07	-2.415660e-06	-1.153201e-08	-1.652284e+01	-7.563525e+02
6.800000e-07	-2.263360e-06	-1.129621e-08	-1.548113e+01	-7.425368e+02
6.900000e-07	-2.110159e-06	-1.105817e-08	-1.443325e+01	-7.278244e+02
7.000000e-07	-1.956253e-06	-1.081651e-08	-1.338055e+01	-7.118403e+02
7.100000e-07	-1.801652e-06	-1.056638e-08	-1.232310e+01	-6.944559e+02
7.200000e-07	-1.646447e-06	-1.030017e-08	-1.126151e+01	-6.758492e+02
7.300000e-07	-1.490721e-06	-1.001993e-08	-1.019636e+01	-6.564252e+02
7.400000e-07	-1.334387e-06	-9.725701e-09	-9.127058e+00	-6.366182e+02
7.500000e-07	-1.177533e-06	-9.415267e-09	-8.054192e+00	-6.166560e+02
7.600000e-07	-1.020243e-06	-9.086099e-09	-6.978350e+00	-5.963906e+02
7.700000e-07	-8.625121e-07	-8.734938e-09	-5.899486e+00	-5.752799e+02
7.800000e-07	-7.044327e-07	-8.371370e-09	-4.818240e+00	-5.525473e+02
7.900000e-07	-5.461308e-07	-7.990352e-09	-3.735473e+00	-5.274678e+02
8.000000e-07	-3.876332e-07	-7.584830e-09	-2.651368e+00	-4.996623e+02
8.100000e-07	-2.289852e-07	-7.145212e-09	-1.566233e+00	-4.692663e+02
8.200000e-07	-7.026488e-08	-6.674970e-09	-4.806039e-01	-4.368676e+02
8.300000e-07	8.848396e-08	-6.174595e-09	6.052203e-01	-4.031987e+02
8.400000e-07	2.471663e-07	-5.638976e-09	1.690590e+00	-3.686705e+02
8.500000e-07	4.057595e-07	-5.060036e-09	2.775349e+00	-3.329151e+02
8.600000e-07	5.642170e-07	-4.424853e-09	3.859180e+00	-2.945336e+02
8.700000e-07	7.224515e-07	-3.729741e-09	4.941487e+00	-2.511962e+02
8.800000e-07	8.804382e-07	-2.955551e-09	6.022098e+00	-2.001286e+02
8.900000e-07	1.038052e-06	-2.068812e-09	7.100156e+00	-1.388850e+02
9.000000e-07	1.195253e-06	-1.023920e-09	8.175396e+00	-6.618980e+01
9.100000e-07	1.352034e-06	2.160769e-10	9.247762e+00	1.741675e+01
9.200000e-07	1.508272e-06	1.651948e-09	1.031641e+01	1.093562e+02
9.300000e-07	1.663924e-06	3.203777e-09	1.138105e+01	2.053189e+02
9.400000e-07	1.818952e-06	4.723015e-09	1.244143e+01	3.000458e+02
9.500000e-07	1.973348e-06	6.071631e-09	1.349748e+01	3.883793e+02
9.600000e-07	2.127107e-06	7.189176e-09	1.454917e+01	4.662933e+02
9.700000e-07	2.280096e-06	8.098543e-09	1.559560e+01	5.316156e+02
9.800000e-07	2.432190e-06	8.848999e-09	1.663590e+01	5.842559e+02
9.900000e-07	2.583426e-06	9.484326e-09	1.767034e+01	6.259067e+02
1.000000e-06	2.733739e-06	1.002795e-08	1.869847e+01	6.593435e+02
1.010000e-06	2.882960e-06	1.049582e-08	1.971912e+01	6.875612e+02
1.020000e-06	3.031159e-06	1.090737e-08	2.073279e+01	7.130150e+02
1.030000e-06	3.178373e-06	1.127769e-08	2.173971e+01	7.371685e+02
1.040000e-06	3.324489e-06	1.161356e-08	2.273913e+01	7.604377e+02
1.050000e-06	3.469427e-06	1.191718e-08	2.373049e+01	7.824756e+02
1.060000e-06	3.613080e-06	1.219595e-08	2.471306e+01	8.026416e+02
1.070000e-06	3.755301e-06	1.245509e-08	2.568584e+01	8.204598e+02
1.080000e-06	3.896038e-06	1.269679e-08	2.664846e+01	8.359018e+02
1.090000e-06	4.035357e-06	1.291931e-08	2.760139e+01	8.494219e+02
1.100000e-06	4.173205e-06	1.312647e-08	2.854425e+01	8.617704e+02
1.110000e-06	4.309425e-06	1.332148e-08	2.947598e+01	8.736966e+02
1.120000e-06	4.444083e-06	1.350474e-08	3.039702e+01	8.856774e+02
1.130000e-06	4.577174e-06	1.367770e-08	3.130735e+01	8.977823e+02
1.140000e-06	4.708616e-06	1.384166e-08	3.220640e+01	9.097175e+02
1.150000e-06	4.838404e-06	1.400133e-08	3.309414e+01	9.210119e+02
1.160000e-06	4.966466e-06	1.415343e-08	3.397007e+01	9.312562e+02
1.170000e-06	5.092800e-06	1.429466e-08	3.483418e+01	9.402911e+02
1.180000e-06	5.217346e-06	1.442435e-08	3.568606e+01	9.482694e+02
1.190000e-06	5.340056e-06	1.454705e-08	3.652538e+01	9.555796e+02
1.200000e-06	5.460846e-06	1.466636e-08	3.735157e+01	9.626736e+02
1.210000e-06	5.579596e-06	1.478252e-08	3.816381e+01	9.698801e+02
1.220000e-06	5.696227e-06	1.489234e-08	3.896155e+01	9.772844e+02
1.230000e-06	5.810667e-06	1.499543e-08	3.974431e+01	9.847204e+02
1.240000e-06	5.922887e-06	1.509375e-08	4.051188e+01	9.918717e+02
1.250000e-06	6.033002e-06	1.518670e-08	4.126506e+01	9.984297e+02
1.260000e-06	6.141054e-06	1.527263e-08	4.200411e+01	1.004238e+03
1.270000e-06	6.246849e-06	1.535415e-08	4.272775e+01	1.009362e+03
1.280000e-06	6.350377e-06	1.543715e-08	4.343586e+01	1.014053e+03
1.290000e-06	6.451654e-06	1.551957e-08	4.412859e+01	1.018636e+03
1.300000e-06	6.550572e-06	1.559512e-08	4.480517e+01	1.023370e+03
1.310000e-06	6.647041e-06	1.566185e-08	4.546501e+01	1.028336e+03
1.320000e-06	6.741146e-06	1.572771e-08	4.610868e+01	1.033415e+03
1.330000e-06	6.832923e-06	1.579590e-08	4.673643e+01	1.038349e+03
1.340000e-06	6.922248e-06	1.586184e-08	4.734740e+01	1.042863e+03
1.350000e-06	7.009178e-06	1.592136e-08	4.794199e+01	1.046783e+03
1.360000e-06	7.093749e-06	1.597612e-08	4.852044e+01	1.050116e+03
1.370000e-06	7.175800e-06	1.603162e-08	4.908166e+01	1.053039e+03
1.380000e-06	7.255250e-06	1.608580e-08	4.962509e+01	1.055820e+03
1.390000e-06	7.332068e-06	1.613595e-08	5.015052e+01	1.058700e+03
1.400000e-06	7.406112e-06	1.618235e-08	5.065697e+01	1.061792e+03
1.410000e-06	7.477423e-06	1.622653e-08	5.114473e+01	1.065040e+03
1.420000e-06	7.546136e-06	1.626979e-08	5.161472e+01	1.068248e+03
1.430000e-06	7.612129e-06	1.631073e-08	5.206610e+01	1.071177e+03
1.440000e-06	7.675438e-06	1.634707e-08	5.249913e+01	1.073650e+03
1.450000e-06	7.736172e-06	1.637883e-08	5.291455e+01	1.075629e+03
1.460000e-06	7.794166e-06	1.641184e-08	5.331122e+01	1.077230e+03
1.470000e-06	7.849326e-06	1.644512e-08	5.368851e+01	1.078667e+03
1.480000e-06	7.901428e-06	1.647373e-08	5.404488e+01	1.080156e+03
1.490000e-06	7.950319e-06	1.649558e-08	5.437929e+01	1.081824e+03
1.500000e-06	7.996323e-06	1.651542e-08	5.469395e+01	1.083656e+03
1.510000e-06	8.039517e-06	1.653777e-08	5.498939e+01	1.085505e+03
1.520000e-06	8.079786e-06	1.655954e-08	5.526483e+01	1.087167e+03
1.530000e-06	8.117276e-06	1.657771e-08	5.552125e+01	1.088468e+03
1.540000e-06	8.151954e-06	1.659265e-08	5.575844e+01	1.089348e+03
1.550000e-06	8.183741e-06	1.660947e-08	5.597587e+01	1.089879e+03
1.560000e-06	8.212739e-06	1.662727e-08	5.617421e+01	1.090238e+03
1.570000e-06	8.238773e-06	1.663922e-08	5.635228e+01	1.090618e+03
1.580000e-06	8.261783e-06	1.664545e-08	5.650966e+01	1.091152e+03
1.590000e-06	8.282015e-06	1.665194e-08	5.664805e+01	1.091849e+03
1.600000e-06	8.299325e-06	1.665941e-08	5.676645e+01	1.092595e+03
1.610000e-06	8.313528e-06	1.666429e-08	5.686360e+01	1.093210e+03
1.620000e-06	8.324600e-06	1.666653e-08	5.693932e+01	1.093526e+03
1.630000e-06	8.332502e-06	1.666947e-08	5.699337e+01	1.093468e+03
1.640000e-06	8.337482e-06	1.667393e-08	5.702744e+01	1.093083e+03
1.650000e-06	8.339538e-06	1.667642e-08	5.704150e+01	1.092523e+03
1.660000e-06	8.338724e-06	1.667397e-08	5.703593e+01	1.091970e+03
1.670000e-06	8.335252e-06	1.665383e-08	5.701219e+01	1.091563e+03
1.680000e-06	8.328974e-06	1.664889e-08	5.696924e+01	1.091327e+03
1.690000e-06	8.319876e-06	1.664754e-08	5.690701e+01	1.091171e+03
1.700000e-06	8.307910e-06	1.663647e-08	5.682517e+01	1.090925e+03
1.710000e-06	8.293048e-06	1.662772e-08	5.672351e+01	1.090420e+03
1.720000e-06	8.275644e-06	1.663638e-08	5.660447e+01	1.089562e+03
1.730000e-06	8.255864e-06	1.666112e-08	5.646918e+01	1.088381e+03
1.740000e-06	8.233185e-06	1.651042e-08	5.631406e+01	1.087017e+03
1.750000e-06	8.206776e-06	1.646194e-08	5.613342e+01	1.085661e+03
1.760000e-06	8.176417e-06	1.653321e-08	5.592577e+01	1.084473e+03
1.770000e-06	8.142907e-06	1.650547e-08	5.569657e+01	1.083517e+03
1.780000e-06	8.106933e-06	1.646296e-08	5.545051e+01	1.082728e+03
1.790000e-06	8.068608e-06	1.660219e-08	5.518837e+01	1.081946e+03
1.800000e-06	8.028359e-06	1.655107e-08	5.491307e+01	1.080984e+03
1.810000e-06	7.985917e-06	1.636225e-08	5.462277e+01	1.079705e+03
1.820000e-06	7.940411e-06	1.656234e-08	5.431151e+01	1.078074e+03
1.830000e-06	7.892073e-06	1.637124e-08	5.398089e+01	1.076169e+03
1.840000e-06	7.840614e-06	1.640173e-08	5.362892e+01	1.074128e+03
1.850000e-06	7.785863e-06	1.641644e-08	5.325443e+01	1.072085e+03
1.860000e-06	7.728454e-06	1.626722e-08	5.286176e+01	1.070096e+03
1.870000e-06	7.668233e-06	1.644180e-08	5.244985e+01	1.068117e+03
1.880000e-06	7.605295e-06	1.621873e-08	5.201936e+01	1.066015e+03
1.890000e-06	7.539563e-06	1.626697e-08	5.156976e+01	1.063640e+03
1.900000e-06	7.470940e-06	1.618767e-08	5.110039e+01	1.060893e+03
1.910000e-06	7.399505e-06	1.608617e-08	5.061178e+01	1.057782e+03
1.920000e-06	7.325149e-06	1.614971e-08	5.010319e+01	1.054424e+03
1.930000e-06	7.248077e-06	1.599483e-08	4.957603e+01	1.051003e+03
1.940000e-06	7.168323e-06	1.608515e-08	4.903052e+01	1.047683e+03
1.950000e-06	7.086040e-06	1.592035e-08	4.846772e+01	1.044537e+03
1.960000e-06	7.001212e-06	1.591422e-08	4.788750e+01	1.041507e+03
1.970000e-06	6.913721e-06	1.586277e-08	4.728907e+01	1.038423e+03
1.980000e-06	6.823796e-06	1.573396e-08	4.667400e+01	1.035070e+03
1.990000e-06	6.731496e-06	1.577236e-08	4.604268e+01	1.031281e+03
2.000000e-06	6.636881e-06	1.563924e-08	4.539552e+01	1.027009e+03
2.010000e-06	6.539983e-06	1.565125e-08	4.473275e+01	1.022347e+03
2.020000e-06	6.440749e-06	1.551899e-08	4.405400e+01	1.017489e+03
2.030000e-06	6.339088e-06	1.547954e-08	4.335865e+01	1.012645e+03
2.040000e-06	6.235078e-06	1.538671e-08	4.264723e+01	1.007943e+03
2.050000e-06	6.128863e-06	1.530304e-08	4.192073e+01	1.003371e+03
2.060000e-06	6.020527e-06	1.525116e-08	4.117973e+01	9.987796e+02
2.070000e-06	5.910085e-06	1.514959e-08	4.042432e+01	9.939389e+02
2.080000e-06	5.797388e-06	1.510204e-08	3.965348e+01	9.886420e+02
2.090000e-06	5.682386e-06	1.498396e-08	3.886688e+01	9.827935e+02
2.100000e-06	5.565180e-06	1.490554e-08	3.806521e+01	9.764527e+02
2.110000e-06	5.445860e-06	1.479158e-08	3.724907e+01	9.698065e+02
2.120000e-06	5.324552e-06	1.470725e-08	3.641934e+01	9.630846e+02
2.130000e-06	5.201355e-06	1.459788e-08	3.557668e+01	9.564526e+02
2.140000e-06	5.076296e-06	1.450406e-08	3.472129e+01	9.499305e+02
2.150000e-06	4.949460e-06	1.438723e-08	3.385375e+01	9.433750e+02
2.160000e-06	4.820810e-06	1.427842e-08	3.297380e+01	9.365350e+02
2.170000e-06	4.690429e-06	1.416305e-08	3.208200e+01	9.291575e+02
2.180000e-06	4.558394e-06	1.404605e-08	3.117890e+01	9.210986e+02
2.190000e-06	4.424780e-06	1.392180e-08	3.026500e+01	9.123883e+02
2.200000e-06	4.289592e-06	1.378464e-08	2.934033e+01	9.032178e+02
2.210000e-06	4.152731e-06	1.365344e-08	2.840421e+01	8.938532e+02
2.220000e-06	4.014272e-06	1.350248e-08	2.745717e+01	8.845105e+02
2.230000e-06	3.874322e-06	1.336172e-08	2.649992e+01	8.752474e+02
2.240000e-06	3.732950e-06	1.320500e-08	2.553296e+01	8.659222e+02
2.250000e-06	3.590217e-06	1.305828e-08	2.455668e+01	8.562419e+02
2.260000e-06	3.446191e-06	1.289524e-08	2.357156e+01	8.458817e+02
2.270000e-06	3.300892e-06	1.272686e-08	2.257773e+01	8.346248e+02
2.280000e-06	3.154373e-06	1.254378e-08	2.157555e+01	8.224604e+02
2.290000e-06	3.006634e-06	1.235642e-08	2.056504e+01	8.095918e+02
2.300000e-06	2.857848e-06	1.216432e-08	1.954736e+01	7.963460e+02
2.310000e-06	2.708194e-06	1.196897e-08	1.852374e+01	7.830194e+02
2.320000e-06	2.557679e-06	1.176708e-08	1.749424e+01	7.697268e+02
2.330000e-06	2.406265e-06	1.155166e-08	1.645858e+01	7.563216e+02
2.340000e-06	2.253885e-06	1.132694e-08	1.541632e+01	7.424311e+02
2.350000e-06	2.100607e-06	1.108979e-08	1.436792e+01	7.275965e+02
2.360000e-06	1.946586e-06	1.084319e-08	1.331443e+01	7.114623e+02
2.370000e-06	1.791875e-06	1.058331e-08	1.225622e+01	6.939325e+02
2.380000e-06	1.636451e-06	1.031499e-08	1.119314e+01	6.752157e+02
2.390000e-06	1.480386e-06	1.003511e-08	1.012568e+01	6.557309e+02
2.400000e-06	1.323807e-06	9.742579e-09	9.054693e+00	6.359013e+02
2.410000e-06	1.166790e-06	9.432661e-09	7.980714e+00	6.159204e+02
2.420000e-06	1.009383e-06	9.105218e-09	6.904066e+00	5.955956e+02
2.430000e-06	8.516346e-07	8.759799e-09	5.825085e+00	5.743493e+02
2.440000e-06	6.935740e-07	8.395223e-09	4.743968e+00	5.513953e+02
2.450000e-06	5.353113e-07	8.008890e-09	3.661469e+00	5.260327e+02
2.460000e-06	3.769000e-07	7.596489e-09	2.577953e+00	4.979331e+02
2.470000e-06	2.183466e-07	7.156707e-09	1.493466e+00	4.672877e+02
2.480000e-06	5.971386e-08	6.686964e-09	4.084361e-01	4.347186e+02
2.490000e-06	-9.892121e-08	6.184437e-09	-6.766099e-01	4.009476e+02
2.500000e-06	-2.574880e-07	5.646356e-09	-1.761189e+00	3.663219e+02
2.510000e-06	-4.159369e-07	5.065990e-09	-2.844961e+00	3.303699e+02
2.520000e-06	-5.742175e-07	4.433644e-09	-3.927583e+00	2.915814e+02
2.530000e-06	-7.323173e-07	3.736299e-09	-5.008968e+00	2.475490e+02
2.540000e-06	-8.901526e-07	2.954398e-09	-6.088544e+00	1.954936e+02
2.550000e-06	-1.047618e-06	2.057869e-09	-7.165587e+00	1.330554e+02
2.560000e-06	-1.204781e-06	1.008507e-09	-8.240568e+00	5.912861e+01
2.570000e-06	-1.361589e-06	-2.339250e-10	-9.313119e+00	-2.552983e+01
2.580000e-06	-1.517845e-06	-1.672327e-09	-1.038189e+01	-1.181319e+02
2.590000e-06	-1.673442e-06	-3.225433e-09	-1.144615e+01	-2.142219e+02
2.600000e-06	-1.828374e-06	-4.744059e-09	-1.250587e+01	-3.084992e+02
2.610000e-06	-1.982651e-06	-6.092242e-09	-1.356111e+01	-3.958815e+02
2.620000e-06	-2.136192e-06	-7.212836e-09	-1.461131e+01	-4.725143e+02
2.630000e-06	-2.288868e-06	-8.126947e-09	-1.565560e+01	-5.364471e+02
2.640000e-06	-2.440617e-06	-8.883875e-09	-1.669355e+01	-5.878038e+02
2.650000e-06	-2.591497e-06	-9.523974e-09	-1.772555e+01	-6.284314e+02
2.660000e-06	-2.741555e-06	-1.007015e-08	-1.875193e+01	-6.611704e+02
2.670000e-06	-2.890669e-06	-1.053819e-08	-1.977185e+01	-6.889904e+02
2.680000e-06	-3.038752e-06	-1.095032e-08	-2.078472e+01	-7.142550e+02
2.690000e-06	-3.185744e-06	-1.132246e-08	-2.179013e+01	-7.383114e+02
2.700000e-06	-3.331574e-06	-1.165999e-08	-2.278759e+01	-7.614755e+02
2.710000e-06	-3.476177e-06	-1.196497e-08	-2.377666e+01	-7.833447e+02
2.720000e-06	-3.619472e-06	-1.224384e-08	-2.475678e+01	-8.032763e+02
2.730000e-06	-3.761433e-06	-1.250369e-08	-2.572778e+01	-8.208329e+02
2.740000e-06	-3.902031e-06	-1.274854e-08	-2.668945e+01	-8.360406e+02
2.750000e-06	-4.041170e-06	-1.297761e-08	-2.764115e+01	-8.493974e+02
2.760000e-06	-4.178732e-06	-1.319003e-08	-2.858206e+01	-8.616685e+02
2.770000e-06	-4.314698e-06	-1.338738e-08	-2.951205e+01	-8.735851e+02
2.780000e-06	-4.449086e-06	-1.356914e-08	-3.043124e+01	-8.855840e+02
2.790000e-06	-4.581930e-06	-1.373811e-08	-3.133988e+01	-8.976906e+02
2.800000e-06	-4.713181e-06	-1.389963e-08	-3.223762e+01	-9.095813e+02
2.810000e-06	-4.842760e-06	-1.405540e-08	-3.312393e+01	-9.207803e+02
2.820000e-06	-4.970607e-06	-1.420463e-08	-3.399839e+01	-9.308979e+02
2.830000e-06	-5.096696e-06	-1.434843e-08	-3.486082e+01	-9.398078e+02
2.840000e-06	-5.221018e-06	-1.448518e-08	-3.571118e+01	-9.476939e+02
2.850000e-06	-5.343485e-06	-1.461229e-08	-3.654883e+01	-9.549607e+02
2.860000e-06	-5.463990e-06	-1.472709e-08	-3.737307e+01	-9.620555e+02
2.870000e-06	-5.582455e-06	-1.483158e-08	-3.818336e+01	-9.692847e+02
2.880000e-06	-5.698779e-06	-1.493372e-08	-3.897900e+01	-9.767049e+02
2.890000e-06	-5.812812e-06	-1.503616e-08	-3.975898e+01	-9.841275e+02
2.900000e-06	-5.924452e-06	-1.513474e-08	-4.052258e+01	-9.912290e+02
2.910000e-06	-6.033844e-06	-1.522838e-08	-4.127081e+01	-9.977114e+02
2.920000e-06	-6.141207e-06	-1.531987e-08	-4.200516e+01	-1.003440e+03
2.930000e-06	-6.246517e-06	-1.540981e-08	-4.272547e+01	-1.008504e+03
2.940000e-06	-6.349571e-06	-1.549546e-08	-4.343035e+01	-1.013168e+03
