# Temperatura_=_44.7
# Concentracion g/m^3_=_13400.0
# C_Vs_to_Am_M_A/Vsm_=_65563218390.804596
# pendiente_HvsI_1/m_=_3716.3
# ordenada_HvsI_A/m_=_1297.0
# frecuencia_Hz_=_301421.7648791483

Tiempo_(s)	Campo_(V.s)	Magnetizacion_(V.s)	Campo_(kA/m)	Magnetizacion_(A/m)
0.000000e+00	-8.362792e-06	-1.686606e-08	-5.691996e+01	-1.106466e+03
1.000000e-08	-8.359579e-06	-1.687372e-08	-5.689809e+01	-1.106253e+03
2.000000e-08	-8.353641e-06	-1.686618e-08	-5.685768e+01	-1.106183e+03
3.000000e-08	-8.345080e-06	-1.684878e-08	-5.679941e+01	-1.106108e+03
4.000000e-08	-8.333600e-06	-1.683543e-08	-5.672128e+01	-1.105838e+03
5.000000e-08	-8.319042e-06	-1.682841e-08	-5.662219e+01	-1.105220e+03
6.000000e-08	-8.301517e-06	-1.681643e-08	-5.650290e+01	-1.104213e+03
7.000000e-08	-8.281425e-06	-1.678436e-08	-5.636615e+01	-1.102906e+03
8.000000e-08	-8.258814e-06	-1.678450e-08	-5.621226e+01	-1.101486e+03
9.000000e-08	-8.233072e-06	-1.687799e-08	-5.603705e+01	-1.100156e+03
1.000000e-07	-8.203937e-06	-1.684495e-08	-5.583874e+01	-1.099053e+03
1.100000e-07	-8.171679e-06	-1.674947e-08	-5.561919e+01	-1.098189e+03
1.200000e-07	-8.136469e-06	-1.673437e-08	-5.537954e+01	-1.097453e+03
1.300000e-07	-8.098533e-06	-1.672453e-08	-5.512133e+01	-1.096652e+03
1.400000e-07	-8.058279e-06	-1.661998e-08	-5.484735e+01	-1.095603e+03
1.500000e-07	-8.015564e-06	-1.654039e-08	-5.455661e+01	-1.094199e+03
1.600000e-07	-7.970012e-06	-1.672603e-08	-5.424657e+01	-1.092454e+03
1.700000e-07	-7.921664e-06	-1.657268e-08	-5.391750e+01	-1.090476e+03
1.800000e-07	-7.870361e-06	-1.656525e-08	-5.356831e+01	-1.088411e+03
1.900000e-07	-7.815911e-06	-1.664633e-08	-5.319771e+01	-1.086368e+03
2.000000e-07	-7.758624e-06	-1.645339e-08	-5.280779e+01	-1.084355e+03
2.100000e-07	-7.698570e-06	-1.646779e-08	-5.239905e+01	-1.082280e+03
2.200000e-07	-7.635785e-06	-1.638292e-08	-5.197172e+01	-1.079990e+03
2.300000e-07	-7.570272e-06	-1.639080e-08	-5.152581e+01	-1.077346e+03
2.400000e-07	-7.501854e-06	-1.635761e-08	-5.106014e+01	-1.074298e+03
2.500000e-07	-7.430665e-06	-1.629793e-08	-5.057560e+01	-1.070915e+03
2.600000e-07	-7.356670e-06	-1.629373e-08	-5.007196e+01	-1.067365e+03
2.700000e-07	-7.279823e-06	-1.619983e-08	-4.954891e+01	-1.063844e+03
2.800000e-07	-7.200126e-06	-1.617621e-08	-4.900647e+01	-1.060489e+03
2.900000e-07	-7.117672e-06	-1.607938e-08	-4.844526e+01	-1.057310e+03
3.000000e-07	-7.032824e-06	-1.604633e-08	-4.786776e+01	-1.054180e+03
3.100000e-07	-6.945664e-06	-1.601740e-08	-4.727452e+01	-1.050881e+03
3.200000e-07	-6.856064e-06	-1.593778e-08	-4.666467e+01	-1.047195e+03
3.300000e-07	-6.763998e-06	-1.590188e-08	-4.603804e+01	-1.043000e+03
3.400000e-07	-6.669526e-06	-1.579746e-08	-4.539503e+01	-1.038323e+03
3.500000e-07	-6.572654e-06	-1.574177e-08	-4.473568e+01	-1.033331e+03
3.600000e-07	-6.473318e-06	-1.567452e-08	-4.405957e+01	-1.028263e+03
3.700000e-07	-6.371640e-06	-1.560993e-08	-4.336752e+01	-1.023318e+03
3.800000e-07	-6.267757e-06	-1.553096e-08	-4.266045e+01	-1.018572e+03
3.900000e-07	-6.161594e-06	-1.544994e-08	-4.193787e+01	-1.013931e+03
4.000000e-07	-6.053178e-06	-1.538721e-08	-4.119996e+01	-1.009171e+03
4.100000e-07	-5.942645e-06	-1.528533e-08	-4.044763e+01	-1.004030e+03
4.200000e-07	-5.829920e-06	-1.519961e-08	-3.968039e+01	-9.983210e+02
4.300000e-07	-5.714849e-06	-1.509803e-08	-3.889718e+01	-9.920117e+02
4.400000e-07	-5.597491e-06	-1.501719e-08	-3.809840e+01	-9.852426e+02
4.500000e-07	-5.478082e-06	-1.492891e-08	-3.728566e+01	-9.782634e+02
4.600000e-07	-5.356695e-06	-1.482945e-08	-3.645946e+01	-9.713210e+02
4.700000e-07	-5.233344e-06	-1.471513e-08	-3.561989e+01	-9.645446e+02
4.800000e-07	-5.108148e-06	-1.460191e-08	-3.476777e+01	-9.578810e+02
4.900000e-07	-4.981174e-06	-1.449770e-08	-3.390354e+01	-9.511095e+02
5.000000e-07	-4.852411e-06	-1.437716e-08	-3.302713e+01	-9.439327e+02
5.100000e-07	-4.721839e-06	-1.425464e-08	-3.213842e+01	-9.361056e+02
5.200000e-07	-4.589500e-06	-1.412773e-08	-3.123768e+01	-9.275450e+02
5.300000e-07	-4.455536e-06	-1.400306e-08	-3.032587e+01	-9.183693e+02
5.400000e-07	-4.320060e-06	-1.386750e-08	-2.940378e+01	-9.088485e+02
5.500000e-07	-4.182974e-06	-1.372606e-08	-2.847072e+01	-8.992823e+02
5.600000e-07	-4.044264e-06	-1.358090e-08	-2.752661e+01	-8.898588e+02
5.700000e-07	-3.903938e-06	-1.343449e-08	-2.657151e+01	-8.805571e+02
5.800000e-07	-3.762041e-06	-1.328309e-08	-2.560571e+01	-8.711398e+02
5.900000e-07	-3.618687e-06	-1.311737e-08	-2.462999e+01	-8.612431e+02
6.000000e-07	-3.473944e-06	-1.294695e-08	-2.364483e+01	-8.505291e+02
6.100000e-07	-3.327944e-06	-1.277113e-08	-2.265110e+01	-8.388344e+02
6.200000e-07	-3.180783e-06	-1.259376e-08	-2.164948e+01	-8.262460e+02
6.300000e-07	-3.032541e-06	-1.240607e-08	-2.064049e+01	-8.130682e+02
6.400000e-07	-2.883278e-06	-1.220995e-08	-1.962456e+01	-7.996854e+02
6.500000e-07	-2.733056e-06	-1.201108e-08	-1.860210e+01	-7.863797e+02
6.600000e-07	-2.581880e-06	-1.180381e-08	-1.757314e+01	-7.731819e+02
6.700000e-07	-2.429769e-06	-1.158449e-08	-1.653782e+01	-7.598257e+02
6.800000e-07	-2.276773e-06	-1.135179e-08	-1.549648e+01	-7.458338e+02
6.900000e-07	-2.122863e-06	-1.111439e-08	-1.444892e+01	-7.307069e+02
7.000000e-07	-1.968172e-06	-1.086644e-08	-1.339604e+01	-7.141351e+02
7.100000e-07	-1.812829e-06	-1.060622e-08	-1.233872e+01	-6.961388e+02
7.200000e-07	-1.656790e-06	-1.033145e-08	-1.127666e+01	-6.770666e+02
7.300000e-07	-1.500114e-06	-1.004793e-08	-1.021028e+01	-6.574379e+02
7.400000e-07	-1.342887e-06	-9.752636e-09	-9.140140e+00	-6.376878e+02
7.500000e-07	-1.185181e-06	-9.440281e-09	-8.066742e+00	-6.179190e+02
7.600000e-07	-1.027069e-06	-9.109731e-09	-6.990573e+00	-5.977767e+02
7.700000e-07	-8.686299e-07	-8.758321e-09	-5.912186e+00	-5.765153e+02
7.800000e-07	-7.099452e-07	-8.390741e-09	-4.832125e+00	-5.532497e+02
7.900000e-07	-5.510060e-07	-8.000320e-09	-3.750331e+00	-5.272981e+02
8.000000e-07	-3.917909e-07	-7.584071e-09	-2.666660e+00	-4.984694e+02
8.100000e-07	-2.324234e-07	-7.134700e-09	-1.581952e+00	-4.671528e+02
8.200000e-07	-7.301565e-08	-6.654586e-09	-4.969690e-01	-4.341329e+02
8.300000e-07	8.640641e-08	-6.142756e-09	5.881110e-01	-4.001582e+02
8.400000e-07	2.457587e-07	-5.594029e-09	1.672716e+00	-3.654068e+02
8.500000e-07	4.049866e-07	-4.999640e-09	2.756474e+00	-3.290518e+02
8.600000e-07	5.640389e-07	-4.343126e-09	3.839038e+00	-2.891307e+02
8.700000e-07	7.229121e-07	-3.610849e-09	4.920382e+00	-2.428331e+02
8.800000e-07	8.815593e-07	-2.778623e-09	6.000188e+00	-1.871813e+02
8.900000e-07	1.039921e-06	-1.813982e-09	7.078054e+00	-1.199346e+02
9.000000e-07	1.197982e-06	-6.689529e-10	8.153868e+00	-4.044826e+01
9.100000e-07	1.355580e-06	6.928926e-10	9.226533e+00	4.979809e+01
9.200000e-07	1.512641e-06	2.246799e-09	1.029554e+01	1.471982e+02
9.300000e-07	1.669188e-06	3.864736e-09	1.136105e+01	2.465876e+02
9.400000e-07	1.825138e-06	5.372426e-09	1.242250e+01	3.422468e+02
9.500000e-07	1.980435e-06	6.656885e-09	1.347951e+01	4.290666e+02
9.600000e-07	2.134982e-06	7.703516e-09	1.453140e+01	5.035482e+02
9.700000e-07	2.288683e-06	8.555685e-09	1.557754e+01	5.643670e+02
9.800000e-07	2.441550e-06	9.257076e-09	1.661801e+01	6.123630e+02
9.900000e-07	2.593500e-06	9.846930e-09	1.765223e+01	6.500028e+02
1.000000e-06	2.744483e-06	1.035280e-08	1.867987e+01	6.805099e+02
1.010000e-06	2.894470e-06	1.079368e-08	1.970073e+01	7.069468e+02
1.020000e-06	3.043427e-06	1.118532e-08	2.071458e+01	7.315192e+02
1.030000e-06	3.191370e-06	1.153869e-08	2.172154e+01	7.552735e+02
1.040000e-06	3.338165e-06	1.185965e-08	2.272067e+01	7.782133e+02
1.050000e-06	3.483769e-06	1.215082e-08	2.371170e+01	7.997232e+02
1.060000e-06	3.628160e-06	1.242216e-08	2.469447e+01	8.190995e+02
1.070000e-06	3.771191e-06	1.267714e-08	2.566799e+01	8.359842e+02
1.080000e-06	3.912810e-06	1.291259e-08	2.663190e+01	8.505601e+02
1.090000e-06	4.052993e-06	1.312955e-08	2.758603e+01	8.634762e+02
1.100000e-06	4.191607e-06	1.333535e-08	2.852948e+01	8.755766e+02
1.110000e-06	4.328577e-06	1.353063e-08	2.946175e+01	8.875715e+02
1.120000e-06	4.463919e-06	1.371102e-08	3.038293e+01	8.997933e+02
1.130000e-06	4.597654e-06	1.387784e-08	3.129318e+01	9.121308e+02
1.140000e-06	4.729749e-06	1.403900e-08	3.219226e+01	9.241481e+02
1.150000e-06	4.860151e-06	1.420135e-08	3.307982e+01	9.353243e+02
1.160000e-06	4.988831e-06	1.435865e-08	3.395566e+01	9.453012e+02
1.170000e-06	5.115771e-06	1.450254e-08	3.481965e+01	9.540369e+02
1.180000e-06	5.240953e-06	1.463336e-08	3.567169e+01	9.618113e+02
1.190000e-06	5.364306e-06	1.475913e-08	3.651126e+01	9.690927e+02
1.200000e-06	5.485715e-06	1.487858e-08	3.733762e+01	9.763353e+02
1.210000e-06	5.605077e-06	1.499037e-08	3.815003e+01	9.837985e+02
1.220000e-06	5.722366e-06	1.509725e-08	3.894834e+01	9.914615e+02
1.230000e-06	5.837420e-06	1.520165e-08	3.973144e+01	9.990653e+02
1.240000e-06	5.950137e-06	1.530349e-08	4.049863e+01	1.006252e+03
1.250000e-06	6.060707e-06	1.539951e-08	4.125120e+01	1.012735e+03
1.260000e-06	6.169314e-06	1.549066e-08	4.199042e+01	1.018430e+03
1.270000e-06	6.275751e-06	1.557647e-08	4.271487e+01	1.023487e+03
1.280000e-06	6.379808e-06	1.565892e-08	4.342311e+01	1.028214e+03
1.290000e-06	6.481598e-06	1.573732e-08	4.411593e+01	1.032943e+03
1.300000e-06	6.581073e-06	1.581144e-08	4.479299e+01	1.037888e+03
1.310000e-06	6.678087e-06	1.588409e-08	4.545330e+01	1.043057e+03
1.320000e-06	6.772728e-06	1.595503e-08	4.609746e+01	1.048266e+03
1.330000e-06	6.865071e-06	1.602224e-08	4.672597e+01	1.053227e+03
1.340000e-06	6.954962e-06	1.608442e-08	4.733780e+01	1.057682e+03
1.350000e-06	7.042375e-06	1.614552e-08	4.793277e+01	1.061514e+03
1.360000e-06	7.127422e-06	1.620601e-08	4.851163e+01	1.064797e+03
1.370000e-06	7.209995e-06	1.626477e-08	4.907365e+01	1.067751e+03
1.380000e-06	7.289938e-06	1.632097e-08	4.961776e+01	1.070649e+03
1.390000e-06	7.367190e-06	1.637220e-08	5.014356e+01	1.073692e+03
1.400000e-06	7.441645e-06	1.641928e-08	5.065033e+01	1.076932e+03
1.410000e-06	7.513330e-06	1.646261e-08	5.113824e+01	1.080256e+03
1.420000e-06	7.582387e-06	1.650224e-08	5.160827e+01	1.083448e+03
1.430000e-06	7.648703e-06	1.654134e-08	5.205963e+01	1.086290e+03
1.440000e-06	7.712260e-06	1.658138e-08	5.249223e+01	1.088660e+03
1.450000e-06	7.773260e-06	1.661945e-08	5.290741e+01	1.090586e+03
1.460000e-06	7.831557e-06	1.665549e-08	5.330420e+01	1.092227e+03
1.470000e-06	7.887051e-06	1.668975e-08	5.368191e+01	1.093799e+03
1.480000e-06	7.939508e-06	1.671999e-08	5.403895e+01	1.095478e+03
1.490000e-06	7.988671e-06	1.674231e-08	5.437357e+01	1.097325e+03
1.500000e-06	8.034888e-06	1.676049e-08	5.468814e+01	1.099260e+03
1.510000e-06	8.078311e-06	1.677992e-08	5.498369e+01	1.101109e+03
1.520000e-06	8.118809e-06	1.680129e-08	5.525934e+01	1.102679e+03
1.530000e-06	8.156493e-06	1.682145e-08	5.551582e+01	1.103857e+03
1.540000e-06	8.191357e-06	1.683888e-08	5.575312e+01	1.104651e+03
1.550000e-06	8.223320e-06	1.685893e-08	5.597067e+01	1.105191e+03
1.560000e-06	8.252506e-06	1.688051e-08	5.616932e+01	1.105669e+03
1.570000e-06	8.278764e-06	1.689487e-08	5.634804e+01	1.106246e+03
1.580000e-06	8.302009e-06	1.689899e-08	5.650625e+01	1.106989e+03
1.590000e-06	8.322434e-06	1.690182e-08	5.664527e+01	1.107833e+03
1.600000e-06	8.339925e-06	1.690931e-08	5.676432e+01	1.108620e+03
1.610000e-06	8.354323e-06	1.691849e-08	5.686232e+01	1.109168e+03
1.620000e-06	8.365480e-06	1.692294e-08	5.693826e+01	1.109357e+03
1.630000e-06	8.373456e-06	1.692328e-08	5.699255e+01	1.109184e+03
1.640000e-06	8.378530e-06	1.692630e-08	5.702708e+01	1.108765e+03
1.650000e-06	8.380648e-06	1.693148e-08	5.704150e+01	1.108282e+03
1.660000e-06	8.379894e-06	1.693087e-08	5.703637e+01	1.107905e+03
1.670000e-06	8.376442e-06	1.690986e-08	5.701287e+01	1.107711e+03
1.680000e-06	8.370152e-06	1.690253e-08	5.697006e+01	1.107648e+03
1.690000e-06	8.361072e-06	1.690365e-08	5.690826e+01	1.107562e+03
1.700000e-06	8.349059e-06	1.689744e-08	5.682649e+01	1.107259e+03
1.710000e-06	8.334067e-06	1.688942e-08	5.672445e+01	1.106599e+03
1.720000e-06	8.316542e-06	1.689141e-08	5.660518e+01	1.105552e+03
1.730000e-06	8.296585e-06	1.690505e-08	5.646934e+01	1.104223e+03
1.740000e-06	8.273743e-06	1.676392e-08	5.631387e+01	1.102803e+03
1.750000e-06	8.247229e-06	1.671712e-08	5.613340e+01	1.101492e+03
1.760000e-06	8.216796e-06	1.678100e-08	5.592627e+01	1.100416e+03
1.770000e-06	8.183159e-06	1.675810e-08	5.569732e+01	1.099573e+03
1.780000e-06	8.147022e-06	1.672082e-08	5.545136e+01	1.098838e+03
1.790000e-06	8.108580e-06	1.684943e-08	5.518971e+01	1.098019e+03
1.800000e-06	8.068140e-06	1.681385e-08	5.491446e+01	1.096934e+03
1.810000e-06	8.025430e-06	1.662386e-08	5.462376e+01	1.095491e+03
1.820000e-06	7.979709e-06	1.679720e-08	5.431257e+01	1.093713e+03
1.830000e-06	7.931191e-06	1.663868e-08	5.398234e+01	1.091719e+03
1.840000e-06	7.879532e-06	1.665024e-08	5.363073e+01	1.089652e+03
1.850000e-06	7.824564e-06	1.667161e-08	5.325661e+01	1.087613e+03
1.860000e-06	7.766905e-06	1.653139e-08	5.286416e+01	1.085599e+03
1.870000e-06	7.706401e-06	1.666929e-08	5.245235e+01	1.083508e+03
1.880000e-06	7.643156e-06	1.646407e-08	5.202188e+01	1.081185e+03
1.890000e-06	7.577189e-06	1.649750e-08	5.157289e+01	1.078498e+03
1.900000e-06	7.508327e-06	1.641451e-08	5.110419e+01	1.075408e+03
1.910000e-06	7.436578e-06	1.631750e-08	5.061584e+01	1.071998e+03
1.920000e-06	7.361925e-06	1.638208e-08	5.010773e+01	1.068441e+03
1.930000e-06	7.284511e-06	1.622802e-08	4.958082e+01	1.064933e+03
1.940000e-06	7.204334e-06	1.629457e-08	4.903511e+01	1.061598e+03
1.950000e-06	7.121652e-06	1.614508e-08	4.847235e+01	1.058432e+03
1.960000e-06	7.036437e-06	1.612052e-08	4.789235e+01	1.055294e+03
1.970000e-06	6.948573e-06	1.606216e-08	4.729432e+01	1.051963e+03
1.980000e-06	6.858271e-06	1.594244e-08	4.667969e+01	1.048226e+03
1.990000e-06	6.765557e-06	1.596816e-08	4.604865e+01	1.043974e+03
2.000000e-06	6.670473e-06	1.584480e-08	4.540147e+01	1.039253e+03
2.010000e-06	6.573038e-06	1.584044e-08	4.473830e+01	1.034241e+03
2.020000e-06	6.473362e-06	1.570437e-08	4.405987e+01	1.029177e+03
2.030000e-06	6.371264e-06	1.564998e-08	4.336496e+01	1.024253e+03
2.040000e-06	6.266794e-06	1.555825e-08	4.265390e+01	1.019524e+03
2.050000e-06	6.160202e-06	1.548021e-08	4.192840e+01	1.014882e+03
2.060000e-06	6.051415e-06	1.542305e-08	4.118796e+01	1.010094e+03
2.070000e-06	5.940392e-06	1.532019e-08	4.043230e+01	1.004898e+03
2.080000e-06	5.827107e-06	1.526081e-08	3.966124e+01	9.991224e+02
2.090000e-06	5.711542e-06	1.514442e-08	3.887467e+01	9.927540e+02
2.100000e-06	5.593658e-06	1.505282e-08	3.807231e+01	9.859489e+02
2.110000e-06	5.473687e-06	1.493187e-08	3.725575e+01	9.789625e+02
2.120000e-06	5.351809e-06	1.484516e-08	3.642621e+01	9.720341e+02
2.130000e-06	5.228067e-06	1.473829e-08	3.558397e+01	9.652753e+02
2.140000e-06	5.102444e-06	1.464006e-08	3.472895e+01	9.586125e+02
2.150000e-06	4.974944e-06	1.451721e-08	3.386114e+01	9.518114e+02
2.160000e-06	4.845627e-06	1.439953e-08	3.298096e+01	9.445741e+02
2.170000e-06	4.714606e-06	1.427621e-08	3.208919e+01	9.366684e+02
2.180000e-06	4.581955e-06	1.415116e-08	3.118632e+01	9.280323e+02
2.190000e-06	4.447623e-06	1.401934e-08	3.027201e+01	9.188045e+02
2.200000e-06	4.311688e-06	1.387968e-08	2.934679e+01	9.092648e+02
2.210000e-06	4.174181e-06	1.374700e-08	2.841087e+01	8.997075e+02
2.220000e-06	4.035073e-06	1.359646e-08	2.746406e+01	8.903017e+02
2.230000e-06	3.894395e-06	1.344787e-08	2.650656e+01	8.810018e+02
2.240000e-06	3.752264e-06	1.328717e-08	2.553917e+01	8.715509e+02
2.250000e-06	3.608740e-06	1.313286e-08	2.456229e+01	8.615803e+02
2.260000e-06	3.463957e-06	1.296510e-08	2.357685e+01	8.507644e+02
2.270000e-06	3.318008e-06	1.278887e-08	2.258348e+01	8.389647e+02
2.280000e-06	3.170894e-06	1.260220e-08	2.158217e+01	8.262954e+02
2.290000e-06	3.022593e-06	1.241387e-08	2.057278e+01	8.130769e+02
2.300000e-06	2.873199e-06	1.222131e-08	1.955596e+01	7.996918e+02
2.310000e-06	2.722847e-06	1.202058e-08	1.853261e+01	7.864011e+02
2.320000e-06	2.571529e-06	1.180853e-08	1.750269e+01	7.732034e+02
2.330000e-06	2.419291e-06	1.158675e-08	1.646651e+01	7.598036e+02
2.340000e-06	2.266211e-06	1.135824e-08	1.542459e+01	7.457118e+02
2.350000e-06	2.112324e-06	1.111978e-08	1.437718e+01	7.304393e+02
2.360000e-06	1.957646e-06	1.086915e-08	1.332440e+01	7.137070e+02
2.370000e-06	1.802262e-06	1.060663e-08	1.226680e+01	6.955735e+02
2.380000e-06	1.646253e-06	1.033445e-08	1.120495e+01	6.764155e+02
2.390000e-06	1.489605e-06	1.005076e-08	1.013875e+01	6.567566e+02
2.400000e-06	1.332348e-06	9.752538e-09	9.068410e+00	6.370067e+02
2.410000e-06	1.174606e-06	9.436607e-09	7.994761e+00	6.172225e+02
2.420000e-06	1.016450e-06	9.105000e-09	6.918298e+00	5.970005e+02
2.430000e-06	8.579366e-07	8.757054e-09	5.839404e+00	5.755656e+02
2.440000e-06	6.991288e-07	8.387890e-09	4.758505e+00	5.520376e+02
2.450000e-06	5.400602e-07	7.995408e-09	3.675831e+00	5.257759e+02
2.460000e-06	3.807618e-07	7.576770e-09	2.591592e+00	4.966520e+02
2.470000e-06	2.213428e-07	7.127962e-09	1.506533e+00	4.651113e+02
2.480000e-06	6.186072e-08	6.646956e-09	4.210448e-01	4.319583e+02
2.490000e-06	-9.763374e-08	6.129736e-09	-6.645280e-01	3.979063e+02
2.500000e-06	-2.570136e-07	5.573909e-09	-1.749321e+00	3.630424e+02
2.510000e-06	-4.162560e-07	4.972496e-09	-2.833178e+00	3.264176e+02
2.520000e-06	-5.753360e-07	4.312566e-09	-3.915930e+00	2.859571e+02
2.530000e-06	-7.342203e-07	3.577038e-09	-4.997350e+00	2.387941e+02
2.540000e-06	-8.928388e-07	2.744600e-09	-6.076960e+00	1.819848e+02
2.550000e-06	-1.051108e-06	1.780680e-09	-7.154192e+00	1.134225e+02
2.560000e-06	-1.208987e-06	6.359355e-10	-8.228771e+00	3.267235e+01
2.570000e-06	-1.366393e-06	-7.305466e-10	-9.300127e+00	-5.854761e+01
2.580000e-06	-1.523240e-06	-2.292085e-09	-1.036768e+01	-1.564277e+02
2.590000e-06	-1.679531e-06	-3.917066e-09	-1.143145e+01	-2.556904e+02
2.600000e-06	-1.835252e-06	-5.429860e-09	-1.249134e+01	-3.506262e+02
2.610000e-06	-1.990243e-06	-6.718154e-09	-1.354626e+01	-4.362563e+02
2.620000e-06	-2.144385e-06	-7.766415e-09	-1.459540e+01	-5.092976e+02
2.630000e-06	-2.297746e-06	-8.614361e-09	-1.563923e+01	-5.686680e+02
2.640000e-06	-2.450320e-06	-9.313933e-09	-1.667770e+01	-6.154156e+02
2.650000e-06	-2.602049e-06	-9.905456e-09	-1.771042e+01	-6.521331e+02
2.660000e-06	-2.752882e-06	-1.041492e-08	-1.873704e+01	-6.820686e+02
2.670000e-06	-2.902645e-06	-1.085958e-08	-1.975638e+01	-7.082202e+02
2.680000e-06	-3.051336e-06	-1.125487e-08	-2.076842e+01	-7.326762e+02
2.690000e-06	-3.199015e-06	-1.161173e-08	-2.177357e+01	-7.563587e+02
2.700000e-06	-3.345573e-06	-1.193599e-08	-2.277109e+01	-7.791813e+02
2.710000e-06	-3.490944e-06	-1.223156e-08	-2.376053e+01	-8.004935e+02
2.720000e-06	-3.635087e-06	-1.250067e-08	-2.474162e+01	-8.196117e+02
2.730000e-06	-3.777899e-06	-1.274994e-08	-2.571364e+01	-8.362310e+02
2.740000e-06	-3.919257e-06	-1.298516e-08	-2.667578e+01	-8.505923e+02
2.750000e-06	-4.058995e-06	-1.320803e-08	-2.762688e+01	-8.633808e+02
2.760000e-06	-4.197153e-06	-1.341738e-08	-2.856723e+01	-8.754416e+02
2.770000e-06	-4.333839e-06	-1.361246e-08	-2.949756e+01	-8.874534e+02
2.780000e-06	-4.469003e-06	-1.379479e-08	-3.041754e+01	-8.997008e+02
2.790000e-06	-4.602577e-06	-1.396562e-08	-3.132668e+01	-9.120290e+02
2.800000e-06	-4.734449e-06	-1.412648e-08	-3.222425e+01	-9.239807e+02
2.810000e-06	-4.864606e-06	-1.427818e-08	-3.311014e+01	-9.350413e+02
2.820000e-06	-4.993097e-06	-1.442298e-08	-3.398469e+01	-9.448815e+02
2.830000e-06	-5.119844e-06	-1.456271e-08	-3.484738e+01	-9.534965e+02
2.840000e-06	-5.244741e-06	-1.469624e-08	-3.569746e+01	-9.611946e+02
2.850000e-06	-5.367744e-06	-1.482281e-08	-3.653467e+01	-9.684528e+02
2.860000e-06	-5.488872e-06	-1.494150e-08	-3.735910e+01	-9.757118e+02
2.870000e-06	-5.608032e-06	-1.505100e-08	-3.817015e+01	-9.832029e+02
2.880000e-06	-5.725028e-06	-1.515378e-08	-3.896646e+01	-9.908757e+02
2.890000e-06	-5.839669e-06	-1.525483e-08	-3.974674e+01	-9.984525e+02
2.900000e-06	-5.951902e-06	-1.535409e-08	-4.051064e+01	-1.005575e+03
2.910000e-06	-6.061864e-06	-1.544760e-08	-4.125908e+01	-1.011974e+03
2.920000e-06	-6.169703e-06	-1.553609e-08	-4.199307e+01	-1.017590e+03
2.930000e-06	-6.275499e-06	-1.562403e-08	-4.271315e+01	-1.022596e+03
2.940000e-06	-6.379152e-06	-1.571294e-08	-4.341865e+01	-1.027309e+03
