# Temperatura_=_23.28
# Concentracion g/m^3_=_13400.0
# C_Vs_to_Am_M_A/Vsm_=_65563218390.804596
# pendiente_HvsI_1/m_=_3716.3
# ordenada_HvsI_A/m_=_1297.0
# frecuencia_Hz_=_301416.8689090651

Tiempo_(s)	Campo_(V.s)	Magnetizacion_(V.s)	Campo_(kA/m)	Magnetizacion_(A/m)
0.000000e+00	-8.371245e-06	-1.778832e-08	-5.692197e+01	-1.166023e+03
1.000000e-08	-8.367770e-06	-1.779109e-08	-5.689834e+01	-1.165535e+03
2.000000e-08	-8.361604e-06	-1.778185e-08	-5.685642e+01	-1.165202e+03
3.000000e-08	-8.352796e-06	-1.777047e-08	-5.679652e+01	-1.164995e+03
4.000000e-08	-8.341012e-06	-1.776144e-08	-5.671639e+01	-1.164784e+03
5.000000e-08	-8.326088e-06	-1.775127e-08	-5.661492e+01	-1.164392e+03
6.000000e-08	-8.308244e-06	-1.773424e-08	-5.649358e+01	-1.163680e+03
7.000000e-08	-8.287892e-06	-1.770859e-08	-5.635519e+01	-1.162609e+03
8.000000e-08	-8.265008e-06	-1.771855e-08	-5.619959e+01	-1.161259e+03
9.000000e-08	-8.238970e-06	-1.778772e-08	-5.602254e+01	-1.159797e+03
1.000000e-07	-8.209523e-06	-1.774460e-08	-5.582231e+01	-1.158407e+03
1.100000e-07	-8.176919e-06	-1.766307e-08	-5.560061e+01	-1.157210e+03
1.200000e-07	-8.141335e-06	-1.764352e-08	-5.535865e+01	-1.156218e+03
1.300000e-07	-8.103086e-06	-1.762695e-08	-5.509857e+01	-1.155328e+03
1.400000e-07	-8.062572e-06	-1.754442e-08	-5.482309e+01	-1.154368e+03
1.500000e-07	-8.019559e-06	-1.748930e-08	-5.453061e+01	-1.153170e+03
1.600000e-07	-7.973706e-06	-1.760822e-08	-5.421882e+01	-1.151637e+03
1.700000e-07	-7.925008e-06	-1.749393e-08	-5.388769e+01	-1.149775e+03
1.800000e-07	-7.873253e-06	-1.750496e-08	-5.353577e+01	-1.147674e+03
1.900000e-07	-7.818430e-06	-1.752526e-08	-5.316299e+01	-1.145460e+03
2.000000e-07	-7.760794e-06	-1.737864e-08	-5.277109e+01	-1.143224e+03
2.100000e-07	-7.700378e-06	-1.737868e-08	-5.236027e+01	-1.140974e+03
2.200000e-07	-7.637304e-06	-1.729003e-08	-5.193139e+01	-1.138634e+03
2.300000e-07	-7.571502e-06	-1.729629e-08	-5.148396e+01	-1.136077e+03
2.400000e-07	-7.502820e-06	-1.724727e-08	-5.101694e+01	-1.133192e+03
2.500000e-07	-7.431347e-06	-1.719130e-08	-5.053094e+01	-1.129941e+03
2.600000e-07	-7.356941e-06	-1.718526e-08	-5.002501e+01	-1.126383e+03
2.700000e-07	-7.279680e-06	-1.711238e-08	-4.949965e+01	-1.122660e+03
2.800000e-07	-7.199624e-06	-1.706423e-08	-4.895530e+01	-1.118929e+03
2.900000e-07	-7.116829e-06	-1.696456e-08	-4.839232e+01	-1.115297e+03
3.000000e-07	-7.031651e-06	-1.693186e-08	-4.781313e+01	-1.111763e+03
3.100000e-07	-6.944199e-06	-1.687762e-08	-4.721849e+01	-1.108216e+03
3.200000e-07	-6.854293e-06	-1.680319e-08	-4.660715e+01	-1.104476e+03
3.300000e-07	-6.761883e-06	-1.676470e-08	-4.597879e+01	-1.100372e+03
3.400000e-07	-6.667146e-06	-1.667478e-08	-4.533460e+01	-1.095813e+03
3.500000e-07	-6.569957e-06	-1.662739e-08	-4.467375e+01	-1.090835e+03
3.600000e-07	-6.470255e-06	-1.655718e-08	-4.399581e+01	-1.085582e+03
3.700000e-07	-6.368243e-06	-1.647675e-08	-4.330216e+01	-1.080244e+03
3.800000e-07	-6.263974e-06	-1.637894e-08	-4.259316e+01	-1.074972e+03
3.900000e-07	-6.157388e-06	-1.629284e-08	-4.186840e+01	-1.069807e+03
4.000000e-07	-6.048566e-06	-1.621879e-08	-4.112844e+01	-1.064655e+03
4.100000e-07	-5.937703e-06	-1.612134e-08	-4.037461e+01	-1.059325e+03
4.200000e-07	-5.824628e-06	-1.604004e-08	-3.960573e+01	-1.053607e+03
4.300000e-07	-5.709123e-06	-1.594793e-08	-3.882033e+01	-1.047365e+03
4.400000e-07	-5.591400e-06	-1.586852e-08	-3.801985e+01	-1.040593e+03
4.500000e-07	-5.471668e-06	-1.576583e-08	-3.720571e+01	-1.033420e+03
4.600000e-07	-5.349913e-06	-1.565039e-08	-3.637781e+01	-1.026049e+03
4.700000e-07	-5.226244e-06	-1.552921e-08	-3.553690e+01	-1.018666e+03
4.800000e-07	-5.100724e-06	-1.541262e-08	-3.468340e+01	-1.011346e+03
4.900000e-07	-4.973458e-06	-1.530056e-08	-3.381803e+01	-1.004018e+03
5.000000e-07	-4.844413e-06	-1.517686e-08	-3.294056e+01	-9.964852e+02
5.100000e-07	-4.713485e-06	-1.505185e-08	-3.205030e+01	-9.885070e+02
5.200000e-07	-4.580838e-06	-1.492240e-08	-3.114833e+01	-9.799053e+02
5.300000e-07	-4.446590e-06	-1.478988e-08	-3.023548e+01	-9.706423e+02
5.400000e-07	-4.310885e-06	-1.464306e-08	-2.931273e+01	-9.608386e+02
5.500000e-07	-4.173567e-06	-1.449030e-08	-2.837901e+01	-9.507182e+02
5.600000e-07	-4.034508e-06	-1.433835e-08	-2.743345e+01	-9.405031e+02
5.700000e-07	-3.893865e-06	-1.418446e-08	-2.647712e+01	-9.303036e+02
5.800000e-07	-3.751643e-06	-1.402249e-08	-2.551005e+01	-9.200551e+02
5.900000e-07	-3.607894e-06	-1.384774e-08	-2.453260e+01	-9.095313e+02
6.000000e-07	-3.462744e-06	-1.367013e-08	-2.354563e+01	-8.984333e+02
6.100000e-07	-3.316377e-06	-1.348896e-08	-2.255038e+01	-8.865168e+02
6.200000e-07	-3.168954e-06	-1.330281e-08	-2.154794e+01	-8.737003e+02
6.300000e-07	-3.020476e-06	-1.310491e-08	-2.053834e+01	-8.601040e+02
6.400000e-07	-2.871024e-06	-1.289754e-08	-1.952210e+01	-8.459970e+02
6.500000e-07	-2.720615e-06	-1.268626e-08	-1.849937e+01	-8.316694e+02
6.600000e-07	-2.569220e-06	-1.246559e-08	-1.746993e+01	-8.172849e+02
6.700000e-07	-2.416899e-06	-1.223258e-08	-1.643419e+01	-8.027795e+02
6.800000e-07	-2.263663e-06	-1.198676e-08	-1.539224e+01	-7.878568e+02
6.900000e-07	-2.109508e-06	-1.173554e-08	-1.434403e+01	-7.720897e+02
7.000000e-07	-1.954519e-06	-1.147547e-08	-1.329015e+01	-7.550899e+02
7.100000e-07	-1.798844e-06	-1.120421e-08	-1.223160e+01	-7.366725e+02
7.200000e-07	-1.642564e-06	-1.091731e-08	-1.116895e+01	-7.169388e+02
7.300000e-07	-1.485691e-06	-1.061807e-08	-1.010226e+01	-6.962305e+02
7.400000e-07	-1.328300e-06	-1.030531e-08	-9.032041e+00	-6.749632e+02
7.500000e-07	-1.170494e-06	-9.975208e-09	-7.959011e+00	-6.534036e+02
7.600000e-07	-1.012299e-06	-9.625544e-09	-6.883333e+00	-6.314862e+02
7.700000e-07	-8.536976e-07	-9.254303e-09	-5.804889e+00	-6.087601e+02
7.800000e-07	-6.948173e-07	-8.868018e-09	-4.724550e+00	-5.845052e+02
7.900000e-07	-5.357167e-07	-8.459821e-09	-3.642714e+00	-5.579859e+02
8.000000e-07	-3.763791e-07	-8.026075e-09	-2.559265e+00	-5.287431e+02
8.100000e-07	-2.168916e-07	-7.561162e-09	-1.474798e+00	-4.967934e+02
8.200000e-07	-5.731893e-08	-7.066565e-09	-3.897516e-01	-4.626235e+02
8.300000e-07	1.022550e-07	-6.540920e-09	6.953036e-01	-4.269426e+02
8.400000e-07	2.617540e-07	-5.979323e-09	1.779849e+00	-3.902527e+02
8.500000e-07	4.211680e-07	-5.375251e-09	2.863817e+00	-3.523855e+02
8.600000e-07	5.804239e-07	-4.717738e-09	3.946710e+00	-3.121942e+02
8.700000e-07	7.394485e-07	-3.999483e-09	5.028029e+00	-2.675628e+02
8.800000e-07	8.981965e-07	-3.200689e-09	6.107468e+00	-2.157948e+02
8.900000e-07	1.056626e-06	-2.293778e-09	7.184742e+00	-1.543202e+02
9.000000e-07	1.214675e-06	-1.242498e-09	8.259427e+00	-8.152924e+01
9.100000e-07	1.372254e-06	-7.637344e-12	9.330915e+00	2.520607e+00
9.200000e-07	1.529351e-06	1.427328e-09	1.039913e+01	9.576358e+01
9.300000e-07	1.685939e-06	3.003797e-09	1.146388e+01	1.942922e+02
9.400000e-07	1.841969e-06	4.587988e-09	1.252484e+01	2.930194e+02
9.500000e-07	1.997430e-06	6.033380e-09	1.358193e+01	3.866705e+02
9.600000e-07	2.152174e-06	7.261168e-09	1.463414e+01	4.708338e+02
9.700000e-07	2.306032e-06	8.279834e-09	1.568033e+01	5.427786e+02
9.800000e-07	2.458982e-06	9.126612e-09	1.672034e+01	6.018237e+02
9.900000e-07	2.610985e-06	9.837443e-09	1.775392e+01	6.491808e+02
1.000000e-06	2.762008e-06	1.044040e-08	1.878083e+01	6.873549e+02
1.010000e-06	2.912007e-06	1.095948e-08	1.980078e+01	7.193143e+02
1.020000e-06	3.060996e-06	1.141694e-08	2.081386e+01	7.476903e+02
1.030000e-06	3.208934e-06	1.182712e-08	2.181979e+01	7.742342e+02
1.040000e-06	3.355792e-06	1.219979e-08	2.281838e+01	7.996512e+02
1.050000e-06	3.501471e-06	1.254114e-08	2.380896e+01	8.237961e+02
1.060000e-06	3.645825e-06	1.285815e-08	2.479053e+01	8.461004e+02
1.070000e-06	3.788826e-06	1.315138e-08	2.576289e+01	8.660421e+02
1.080000e-06	3.930387e-06	1.341738e-08	2.672546e+01	8.834816e+02
1.090000e-06	4.070494e-06	1.365873e-08	2.767814e+01	8.987647e+02
1.100000e-06	4.209026e-06	1.388514e-08	2.862012e+01	9.125916e+02
1.110000e-06	4.345955e-06	1.410084e-08	2.955120e+01	9.257419e+02
1.120000e-06	4.481333e-06	1.430438e-08	3.047173e+01	9.387877e+02
1.130000e-06	4.615058e-06	1.449556e-08	3.138102e+01	9.519175e+02
1.140000e-06	4.747135e-06	1.467781e-08	3.227910e+01	9.649305e+02
1.150000e-06	4.877525e-06	1.485596e-08	3.316571e+01	9.773895e+02
1.160000e-06	5.006145e-06	1.502524e-08	3.404030e+01	9.888534e+02
1.170000e-06	5.132975e-06	1.518189e-08	3.490270e+01	9.990861e+02
1.180000e-06	5.258077e-06	1.532634e-08	3.575335e+01	1.008158e+03
1.190000e-06	5.381401e-06	1.546522e-08	3.659192e+01	1.016404e+03
1.200000e-06	5.502737e-06	1.560048e-08	3.741697e+01	1.024277e+03
1.210000e-06	5.621984e-06	1.572805e-08	3.822782e+01	1.032152e+03
1.220000e-06	5.739143e-06	1.584570e-08	3.902446e+01	1.040186e+03
1.230000e-06	5.854144e-06	1.595958e-08	3.980643e+01	1.048277e+03
1.240000e-06	5.966851e-06	1.607154e-08	4.057281e+01	1.056133e+03
1.250000e-06	6.077369e-06	1.617563e-08	4.132430e+01	1.063427e+03
1.260000e-06	6.185832e-06	1.627179e-08	4.206181e+01	1.069950e+03
1.270000e-06	6.292093e-06	1.636404e-08	4.278436e+01	1.075704e+03
1.280000e-06	6.396086e-06	1.645738e-08	4.349148e+01	1.080903e+03
1.290000e-06	6.497803e-06	1.654505e-08	4.418312e+01	1.085874e+03
1.300000e-06	6.597132e-06	1.662167e-08	4.485853e+01	1.090916e+03
1.310000e-06	6.694019e-06	1.669544e-08	4.551734e+01	1.096177e+03
1.320000e-06	6.788499e-06	1.677191e-08	4.615977e+01	1.101599e+03
1.330000e-06	6.880623e-06	1.684756e-08	4.678618e+01	1.106955e+03
1.340000e-06	6.970311e-06	1.691648e-08	4.739604e+01	1.111958e+03
1.350000e-06	7.057548e-06	1.697977e-08	4.798922e+01	1.116392e+03
1.360000e-06	7.142409e-06	1.704279e-08	4.856625e+01	1.120204e+03
1.370000e-06	7.224815e-06	1.710626e-08	4.912659e+01	1.123523e+03
1.380000e-06	7.304584e-06	1.716442e-08	4.966899e+01	1.126604e+03
1.390000e-06	7.381620e-06	1.721512e-08	5.019282e+01	1.129710e+03
1.400000e-06	7.455894e-06	1.726449e-08	5.069785e+01	1.133005e+03
1.410000e-06	7.527417e-06	1.731478e-08	5.118419e+01	1.136483e+03
1.420000e-06	7.596277e-06	1.736132e-08	5.165242e+01	1.139982e+03
1.430000e-06	7.662451e-06	1.740407e-08	5.210238e+01	1.143258e+03
1.440000e-06	7.725919e-06	1.744481e-08	5.253394e+01	1.146099e+03
1.450000e-06	7.786746e-06	1.748529e-08	5.294755e+01	1.148415e+03
1.460000e-06	7.844852e-06	1.752536e-08	5.334265e+01	1.150273e+03
1.470000e-06	7.900118e-06	1.755979e-08	5.371845e+01	1.151871e+03
1.480000e-06	7.952257e-06	1.758702e-08	5.407298e+01	1.153443e+03
1.490000e-06	8.001172e-06	1.760984e-08	5.440558e+01	1.155162e+03
1.500000e-06	8.047208e-06	1.763399e-08	5.471861e+01	1.157067e+03
1.510000e-06	8.090442e-06	1.765939e-08	5.501259e+01	1.159052e+03
1.520000e-06	8.130760e-06	1.768283e-08	5.528675e+01	1.160920e+03
1.530000e-06	8.168250e-06	1.770288e-08	5.554166e+01	1.162470e+03
1.540000e-06	8.202850e-06	1.772137e-08	5.577693e+01	1.163592e+03
1.550000e-06	8.234515e-06	1.774267e-08	5.599225e+01	1.164311e+03
1.560000e-06	8.263399e-06	1.776486e-08	5.618865e+01	1.164774e+03
1.570000e-06	8.289302e-06	1.777963e-08	5.636478e+01	1.165186e+03
1.580000e-06	8.312171e-06	1.778549e-08	5.652029e+01	1.165716e+03
1.590000e-06	8.332282e-06	1.779173e-08	5.665704e+01	1.166430e+03
1.600000e-06	8.349515e-06	1.780044e-08	5.677421e+01	1.167258e+03
1.610000e-06	8.363589e-06	1.780594e-08	5.686991e+01	1.168035e+03
1.620000e-06	8.374408e-06	1.780788e-08	5.694348e+01	1.168574e+03
1.630000e-06	8.382109e-06	1.781158e-08	5.699584e+01	1.168748e+03
1.640000e-06	8.386943e-06	1.782144e-08	5.702871e+01	1.168549e+03
1.650000e-06	8.388824e-06	1.783037e-08	5.704150e+01	1.168085e+03
1.660000e-06	8.387811e-06	1.782771e-08	5.703461e+01	1.167533e+03
1.670000e-06	8.384071e-06	1.780636e-08	5.700918e+01	1.167059e+03
1.680000e-06	8.377493e-06	1.779647e-08	5.696445e+01	1.166742e+03
1.690000e-06	8.368135e-06	1.779097e-08	5.690082e+01	1.166542e+03
1.700000e-06	8.355880e-06	1.778043e-08	5.681749e+01	1.166319e+03
1.710000e-06	8.340734e-06	1.777323e-08	5.671450e+01	1.165897e+03
1.720000e-06	8.323072e-06	1.777719e-08	5.659441e+01	1.165146e+03
1.730000e-06	8.302928e-06	1.778577e-08	5.645744e+01	1.164038e+03
1.740000e-06	8.279775e-06	1.766901e-08	5.630000e+01	1.162666e+03
1.750000e-06	8.252861e-06	1.763868e-08	5.611700e+01	1.161203e+03
1.760000e-06	8.222038e-06	1.767746e-08	5.590740e+01	1.159829e+03
1.770000e-06	8.188133e-06	1.765098e-08	5.567686e+01	1.158655e+03
1.780000e-06	8.151816e-06	1.762893e-08	5.542992e+01	1.157680e+03
1.790000e-06	8.113157e-06	1.771496e-08	5.516705e+01	1.156791e+03
1.800000e-06	8.072422e-06	1.767122e-08	5.489006e+01	1.155811e+03
1.810000e-06	8.029367e-06	1.755031e-08	5.459730e+01	1.154580e+03
1.820000e-06	7.983357e-06	1.766858e-08	5.428445e+01	1.153009e+03
1.830000e-06	7.934479e-06	1.752154e-08	5.395209e+01	1.151115e+03
1.840000e-06	7.882370e-06	1.754225e-08	5.359776e+01	1.148995e+03
1.850000e-06	7.827081e-06	1.753622e-08	5.322182e+01	1.146775e+03
1.860000e-06	7.769156e-06	1.744972e-08	5.282795e+01	1.144537e+03
1.870000e-06	7.708288e-06	1.754832e-08	5.241406e+01	1.142282e+03
1.880000e-06	7.644665e-06	1.737207e-08	5.198144e+01	1.139924e+03
1.890000e-06	7.578316e-06	1.739192e-08	5.153029e+01	1.137336e+03
1.900000e-06	7.509104e-06	1.730553e-08	5.105966e+01	1.134412e+03
1.910000e-06	7.437064e-06	1.723595e-08	5.056982e+01	1.131122e+03
1.920000e-06	7.362053e-06	1.725313e-08	5.005976e+01	1.127538e+03
1.930000e-06	7.284192e-06	1.713549e-08	4.953033e+01	1.123806e+03
1.940000e-06	7.203667e-06	1.717756e-08	4.898279e+01	1.120082e+03
1.950000e-06	7.120763e-06	1.703451e-08	4.841907e+01	1.116461e+03
1.960000e-06	7.035299e-06	1.701826e-08	4.783794e+01	1.112932e+03
1.970000e-06	6.947193e-06	1.694185e-08	4.723884e+01	1.109373e+03
1.980000e-06	6.856709e-06	1.684738e-08	4.662358e+01	1.105601e+03
1.990000e-06	6.763701e-06	1.683987e-08	4.599115e+01	1.101449e+03
2.000000e-06	6.668228e-06	1.672104e-08	4.534196e+01	1.096841e+03
2.010000e-06	6.570502e-06	1.669922e-08	4.467746e+01	1.091824e+03
2.020000e-06	6.470488e-06	1.657162e-08	4.399739e+01	1.086552e+03
2.030000e-06	6.367948e-06	1.652673e-08	4.330015e+01	1.081215e+03
2.040000e-06	6.263095e-06	1.642941e-08	4.258718e+01	1.075954e+03
2.050000e-06	6.156171e-06	1.635772e-08	4.186012e+01	1.070796e+03
2.060000e-06	6.047070e-06	1.628156e-08	4.111827e+01	1.065635e+03
2.070000e-06	5.935738e-06	1.618058e-08	4.036125e+01	1.060272e+03
2.080000e-06	5.822180e-06	1.610296e-08	3.958909e+01	1.054502e+03
2.090000e-06	5.706272e-06	1.598170e-08	3.880095e+01	1.048199e+03
2.100000e-06	5.587995e-06	1.589397e-08	3.799670e+01	1.041376e+03
2.110000e-06	5.467702e-06	1.577981e-08	3.717874e+01	1.034170e+03
2.120000e-06	5.345613e-06	1.568849e-08	3.634857e+01	1.026790e+03
2.130000e-06	5.221671e-06	1.556862e-08	3.550581e+01	1.019411e+03
2.140000e-06	5.095726e-06	1.546165e-08	3.464942e+01	1.012096e+03
2.150000e-06	4.967896e-06	1.533495e-08	3.378021e+01	1.004757e+03
2.160000e-06	4.838347e-06	1.521779e-08	3.289932e+01	9.971865e+02
2.170000e-06	4.707151e-06	1.508817e-08	3.200722e+01	9.891474e+02
2.180000e-06	4.574215e-06	1.495888e-08	3.110330e+01	9.804729e+02
2.190000e-06	4.439574e-06	1.482289e-08	3.018778e+01	9.711430e+02
2.200000e-06	4.303435e-06	1.468162e-08	2.926207e+01	9.612929e+02
2.210000e-06	4.165782e-06	1.453552e-08	2.832608e+01	9.511522e+02
2.220000e-06	4.026460e-06	1.437557e-08	2.737873e+01	9.409355e+02
2.230000e-06	3.885382e-06	1.422123e-08	2.641944e+01	9.307364e+02
2.240000e-06	3.742846e-06	1.405735e-08	2.545024e+01	9.204706e+02
2.250000e-06	3.599003e-06	1.389564e-08	2.447215e+01	9.098990e+02
2.260000e-06	3.453943e-06	1.371386e-08	2.348578e+01	8.987222e+02
2.270000e-06	3.307790e-06	1.352639e-08	2.249199e+01	8.867088e+02
2.280000e-06	3.160488e-06	1.333020e-08	2.149038e+01	8.737988e+02
2.290000e-06	3.011924e-06	1.313431e-08	2.048018e+01	8.601326e+02
2.300000e-06	2.862189e-06	1.293042e-08	1.946203e+01	8.459884e+02
2.310000e-06	2.711521e-06	1.271980e-08	1.843753e+01	8.316496e+02
2.320000e-06	2.559921e-06	1.249917e-08	1.740670e+01	8.172589e+02
2.330000e-06	2.407409e-06	1.227010e-08	1.636966e+01	8.027257e+02
2.340000e-06	2.254113e-06	1.202941e-08	1.532730e+01	7.877331e+02
2.350000e-06	2.100050e-06	1.177455e-08	1.427971e+01	7.718493e+02
2.360000e-06	1.945213e-06	1.150785e-08	1.322687e+01	7.547009e+02
2.370000e-06	1.789712e-06	1.123025e-08	1.216951e+01	7.361318e+02
2.380000e-06	1.633500e-06	1.094280e-08	1.110731e+01	7.162735e+02
2.390000e-06	1.476566e-06	1.064191e-08	1.004021e+01	6.954855e+02
2.400000e-06	1.319059e-06	1.032615e-08	8.969205e+00	6.741780e+02
2.410000e-06	1.161037e-06	9.992654e-09	7.894708e+00	6.525894e+02
2.420000e-06	1.002586e-06	9.643922e-09	6.817285e+00	6.306125e+02
2.430000e-06	8.438033e-07	9.276014e-09	5.737611e+00	6.077590e+02
2.440000e-06	6.847365e-07	8.886303e-09	4.656004e+00	5.832934e+02
2.450000e-06	5.254099e-07	8.472982e-09	3.572631e+00	5.564961e+02
2.460000e-06	3.658590e-07	8.033463e-09	2.487732e+00	5.269526e+02
2.470000e-06	2.062123e-07	7.565261e-09	1.402182e+00	4.947342e+02
2.480000e-06	4.655367e-08	7.065273e-09	3.165511e-01	4.603673e+02
2.490000e-06	-1.131257e-07	6.532061e-09	-7.692210e-01	4.245618e+02
2.500000e-06	-2.728095e-07	5.966707e-09	-1.855023e+00	3.877687e+02
2.510000e-06	-4.323429e-07	5.363213e-09	-2.939803e+00	3.497250e+02
2.520000e-06	-5.916585e-07	4.708631e-09	-4.023101e+00	3.091733e+02
2.530000e-06	-7.507854e-07	3.986364e-09	-5.105117e+00	2.639100e+02
2.540000e-06	-9.096648e-07	3.180694e-09	-6.185449e+00	2.112142e+02
2.550000e-06	-1.068222e-06	2.271119e-09	-7.263593e+00	1.485790e+02
2.560000e-06	-1.226372e-06	1.220594e-09	-8.338963e+00	7.454392e+01
2.570000e-06	-1.384017e-06	-1.712837e-11	-9.410903e+00	-1.062624e+01
2.580000e-06	-1.540977e-06	-1.459989e-09	-1.047818e+01	-1.046511e+02
2.590000e-06	-1.697242e-06	-3.045990e-09	-1.154074e+01	-2.034573e+02
2.600000e-06	-1.852901e-06	-4.635593e-09	-1.259918e+01	-3.018869e+02
2.610000e-06	-2.007977e-06	-6.084294e-09	-1.365365e+01	-3.947091e+02
2.620000e-06	-2.162364e-06	-7.316011e-09	-1.470343e+01	-4.776598e+02
2.630000e-06	-2.315825e-06	-8.331193e-09	-1.574692e+01	-5.482192e+02
2.640000e-06	-2.468367e-06	-9.171963e-09	-1.678416e+01	-6.059257e+02
2.650000e-06	-2.620118e-06	-9.881876e-09	-1.781602e+01	-6.521644e+02
2.660000e-06	-2.771001e-06	-1.049264e-08	-1.884198e+01	-6.895313e+02
2.670000e-06	-2.920873e-06	-1.102393e-08	-1.986107e+01	-7.209939e+02
2.680000e-06	-3.069606e-06	-1.148822e-08	-2.087241e+01	-7.491090e+02
2.690000e-06	-3.217239e-06	-1.190227e-08	-2.187627e+01	-7.755170e+02
2.700000e-06	-3.363769e-06	-1.227693e-08	-2.287262e+01	-8.008169e+02
2.710000e-06	-3.509053e-06	-1.261739e-08	-2.386051e+01	-8.247954e+02
2.720000e-06	-3.653133e-06	-1.292780e-08	-2.484022e+01	-8.468676e+02
2.730000e-06	-3.795982e-06	-1.321112e-08	-2.581155e+01	-8.665400e+02
2.740000e-06	-3.937340e-06	-1.347432e-08	-2.677274e+01	-8.837246e+02
2.750000e-06	-4.077081e-06	-1.372485e-08	-2.772294e+01	-8.988150e+02
2.760000e-06	-4.215290e-06	-1.396276e-08	-2.866271e+01	-9.125344e+02
2.770000e-06	-4.351935e-06	-1.418468e-08	-2.959186e+01	-9.256527e+02
2.780000e-06	-4.487032e-06	-1.439074e-08	-3.051048e+01	-9.387067e+02
2.790000e-06	-4.620534e-06	-1.458361e-08	-3.141825e+01	-9.518403e+02
2.800000e-06	-4.752351e-06	-1.476459e-08	-3.231457e+01	-9.648176e+02
2.810000e-06	-4.882496e-06	-1.493173e-08	-3.319952e+01	-9.771897e+02
2.820000e-06	-5.010937e-06	-1.508836e-08	-3.407288e+01	-9.885287e+02
2.830000e-06	-5.137624e-06	-1.524319e-08	-3.493431e+01	-9.986289e+02
2.840000e-06	-5.262456e-06	-1.539551e-08	-3.578313e+01	-1.007593e+03
2.850000e-06	-5.385431e-06	-1.553771e-08	-3.661932e+01	-1.015778e+03
2.860000e-06	-5.506544e-06	-1.566750e-08	-3.744286e+01	-1.023637e+03
2.870000e-06	-5.625669e-06	-1.578894e-08	-3.825287e+01	-1.031527e+03
2.880000e-06	-5.742592e-06	-1.590770e-08	-3.904791e+01	-1.039578e+03
2.890000e-06	-5.857137e-06	-1.602064e-08	-3.982678e+01	-1.047660e+03
2.900000e-06	-5.969266e-06	-1.612190e-08	-4.058923e+01	-1.055471e+03
2.910000e-06	-6.079086e-06	-1.621668e-08	-4.133597e+01	-1.062690e+03
2.920000e-06	-6.186797e-06	-1.631377e-08	-4.206838e+01	-1.069127e+03
2.930000e-06	-6.292459e-06	-1.641371e-08	-4.278685e+01	-1.074809e+03
2.940000e-06	-6.395943e-06	-1.650924e-08	-4.349051e+01	-1.079968e+03
