# Temperatura_=_42.44
# Concentracion g/m^3_=_13400.0
# C_Vs_to_Am_M_A/Vsm_=_65563218390.804596
# pendiente_HvsI_1/m_=_3716.3
# ordenada_HvsI_A/m_=_1297.0
# frecuencia_Hz_=_301414.05345472915

Tiempo_(s)	Campo_(V.s)	Magnetizacion_(V.s)	Campo_(kA/m)	Magnetizacion_(A/m)
0.000000e+00	-8.317858e-06	-1.676523e-08	-5.692404e+01	-1.099711e+03
1.000000e-08	-8.314268e-06	-1.677176e-08	-5.689948e+01	-1.099459e+03
2.000000e-08	-8.307968e-06	-1.676624e-08	-5.685636e+01	-1.099351e+03
3.000000e-08	-8.299026e-06	-1.675634e-08	-5.679517e+01	-1.099258e+03
4.000000e-08	-8.287167e-06	-1.674751e-08	-5.671401e+01	-1.098998e+03
5.000000e-08	-8.272304e-06	-1.673781e-08	-5.661229e+01	-1.098418e+03
6.000000e-08	-8.254596e-06	-1.671768e-08	-5.649110e+01	-1.097466e+03
7.000000e-08	-8.234331e-06	-1.668027e-08	-5.635242e+01	-1.096215e+03
8.000000e-08	-8.211457e-06	-1.669920e-08	-5.619588e+01	-1.094837e+03
9.000000e-08	-8.185378e-06	-1.677833e-08	-5.601741e+01	-1.093528e+03
1.000000e-07	-8.155977e-06	-1.673275e-08	-5.581619e+01	-1.092426e+03
1.100000e-07	-8.123531e-06	-1.665888e-08	-5.559415e+01	-1.091553e+03
1.200000e-07	-8.088138e-06	-1.665291e-08	-5.535194e+01	-1.090809e+03
1.300000e-07	-8.050104e-06	-1.663170e-08	-5.509164e+01	-1.090011e+03
1.400000e-07	-8.009774e-06	-1.651968e-08	-5.481564e+01	-1.088975e+03
1.500000e-07	-7.966900e-06	-1.650085e-08	-5.452223e+01	-1.087592e+03
1.600000e-07	-7.921147e-06	-1.661095e-08	-5.420912e+01	-1.085860e+03
1.700000e-07	-7.872616e-06	-1.645911e-08	-5.387699e+01	-1.083883e+03
1.800000e-07	-7.821100e-06	-1.651320e-08	-5.352444e+01	-1.081803e+03
1.900000e-07	-7.766499e-06	-1.651699e-08	-5.315077e+01	-1.079734e+03
2.000000e-07	-7.709111e-06	-1.636938e-08	-5.275802e+01	-1.077700e+03
2.100000e-07	-7.648948e-06	-1.637851e-08	-5.234630e+01	-1.075623e+03
2.200000e-07	-7.586082e-06	-1.629042e-08	-5.191607e+01	-1.073362e+03
2.300000e-07	-7.520503e-06	-1.631627e-08	-5.146727e+01	-1.070779e+03
2.400000e-07	-7.452085e-06	-1.625727e-08	-5.099904e+01	-1.067813e+03
2.500000e-07	-7.380913e-06	-1.621341e-08	-5.051197e+01	-1.064515e+03
2.600000e-07	-7.306906e-06	-1.619434e-08	-5.000550e+01	-1.061032e+03
2.700000e-07	-7.230038e-06	-1.612012e-08	-4.947945e+01	-1.057545e+03
2.800000e-07	-7.150362e-06	-1.608119e-08	-4.893418e+01	-1.054188e+03
2.900000e-07	-7.067997e-06	-1.598580e-08	-4.837050e+01	-1.050982e+03
3.000000e-07	-6.983260e-06	-1.597008e-08	-4.779060e+01	-1.047817e+03
3.100000e-07	-6.896170e-06	-1.591693e-08	-4.719459e+01	-1.044494e+03
3.200000e-07	-6.806657e-06	-1.585658e-08	-4.658200e+01	-1.040811e+03
3.300000e-07	-6.714704e-06	-1.580786e-08	-4.595271e+01	-1.036647e+03
3.400000e-07	-6.620390e-06	-1.570732e-08	-4.530726e+01	-1.032018e+03
3.500000e-07	-6.523705e-06	-1.565658e-08	-4.464559e+01	-1.027076e+03
3.600000e-07	-6.424558e-06	-1.558772e-08	-4.396707e+01	-1.022037e+03
3.700000e-07	-6.323109e-06	-1.552115e-08	-4.327279e+01	-1.017093e+03
3.800000e-07	-6.219416e-06	-1.543670e-08	-4.256316e+01	-1.012317e+03
3.900000e-07	-6.113419e-06	-1.536730e-08	-4.183776e+01	-1.007631e+03
4.000000e-07	-6.005239e-06	-1.529377e-08	-4.109742e+01	-1.002829e+03
4.100000e-07	-5.894987e-06	-1.519679e-08	-4.034290e+01	-9.976696e+02
4.200000e-07	-5.782540e-06	-1.510890e-08	-3.957335e+01	-9.919770e+02
4.300000e-07	-5.667747e-06	-1.501101e-08	-3.878776e+01	-9.857205e+02
4.400000e-07	-5.550677e-06	-1.493213e-08	-3.798658e+01	-9.790295e+02
4.500000e-07	-5.431566e-06	-1.484389e-08	-3.717143e+01	-9.721370e+02
4.600000e-07	-5.310563e-06	-1.474483e-08	-3.634334e+01	-9.652738e+02
4.700000e-07	-5.187626e-06	-1.463283e-08	-3.550201e+01	-9.585609e+02
4.800000e-07	-5.062808e-06	-1.452423e-08	-3.464781e+01	-9.519468e+02
4.900000e-07	-4.936268e-06	-1.441558e-08	-3.378182e+01	-9.452208e+02
5.000000e-07	-4.807980e-06	-1.429365e-08	-3.290386e+01	-9.380987e+02
5.100000e-07	-4.677865e-06	-1.417006e-08	-3.201341e+01	-9.303449e+02
5.200000e-07	-4.545983e-06	-1.404831e-08	-3.111087e+01	-9.218764e+02
5.300000e-07	-4.412524e-06	-1.392468e-08	-3.019752e+01	-9.128024e+02
5.400000e-07	-4.277498e-06	-1.379087e-08	-2.927346e+01	-9.033770e+02
5.500000e-07	-4.140925e-06	-1.364865e-08	-2.833881e+01	-8.938842e+02
5.600000e-07	-4.002886e-06	-1.350509e-08	-2.739413e+01	-8.845037e+02
5.700000e-07	-3.863228e-06	-1.336082e-08	-2.643837e+01	-8.752173e+02
5.800000e-07	-3.721951e-06	-1.320795e-08	-2.547153e+01	-8.658010e+02
5.900000e-07	-3.579181e-06	-1.304011e-08	-2.449446e+01	-8.559098e+02
6.000000e-07	-3.434978e-06	-1.286679e-08	-2.350759e+01	-8.452227e+02
6.100000e-07	-3.289449e-06	-1.269407e-08	-2.251165e+01	-8.335836e+02
6.200000e-07	-3.142734e-06	-1.251943e-08	-2.150760e+01	-8.210743e+02
6.300000e-07	-2.994990e-06	-1.233228e-08	-2.049650e+01	-8.079823e+02
6.400000e-07	-2.846329e-06	-1.213355e-08	-1.947912e+01	-7.946715e+02
6.500000e-07	-2.696771e-06	-1.193635e-08	-1.845561e+01	-7.814078e+02
6.600000e-07	-2.546296e-06	-1.173253e-08	-1.742582e+01	-7.682177e+02
6.700000e-07	-2.394955e-06	-1.151242e-08	-1.639010e+01	-7.548453e+02
6.800000e-07	-2.242726e-06	-1.127426e-08	-1.534831e+01	-7.408352e+02
6.900000e-07	-2.089632e-06	-1.103130e-08	-1.430060e+01	-7.257125e+02
7.000000e-07	-1.935820e-06	-1.078502e-08	-1.324797e+01	-7.091846e+02
7.100000e-07	-1.781282e-06	-1.052947e-08	-1.219037e+01	-6.912738e+02
7.200000e-07	-1.626042e-06	-1.026084e-08	-1.112797e+01	-6.723126e+02
7.300000e-07	-1.470211e-06	-9.979033e-09	-1.006153e+01	-6.527919e+02
7.400000e-07	-1.313785e-06	-9.684142e-09	-8.991013e+00	-6.331151e+02
7.500000e-07	-1.156779e-06	-9.371320e-09	-7.916524e+00	-6.133634e+02
7.600000e-07	-9.993710e-07	-9.037831e-09	-6.839290e+00	-5.931791e+02
7.700000e-07	-8.416574e-07	-8.683791e-09	-5.759962e+00	-5.718359e+02
7.800000e-07	-6.836098e-07	-8.315127e-09	-4.678348e+00	-5.484836e+02
7.900000e-07	-5.252920e-07	-7.925312e-09	-3.594885e+00	-5.224790e+02
8.000000e-07	-3.667890e-07	-7.508518e-09	-2.510155e+00	-4.936584e+02
8.100000e-07	-2.081875e-07	-7.061294e-09	-1.424751e+00	-4.624151e+02
8.200000e-07	-4.957487e-08	-6.584779e-09	-3.392703e-01	-4.295094e+02
8.300000e-07	1.090489e-07	-6.077277e-09	7.462864e-01	-3.956439e+02
8.400000e-07	2.676578e-07	-5.528407e-09	1.831742e+00	-3.609420e+02
8.500000e-07	4.261650e-07	-4.928644e-09	2.916500e+00	-3.245333e+02
8.600000e-07	5.845611e-07	-4.264980e-09	4.000499e+00	-2.844403e+02
8.700000e-07	7.427724e-07	-3.528689e-09	5.083233e+00	-2.378759e+02
8.800000e-07	9.006881e-07	-2.695606e-09	6.163944e+00	-1.819242e+02
8.900000e-07	1.058298e-06	-1.729345e-09	7.242559e+00	-1.144330e+02
9.000000e-07	1.215570e-06	-5.817563e-10	8.318865e+00	-3.485192e+01
9.100000e-07	1.372360e-06	7.813262e-10	9.391877e+00	5.526087e+01
9.200000e-07	1.528558e-06	2.328662e-09	1.046083e+01	1.522566e+02
9.300000e-07	1.684157e-06	3.933950e-09	1.152568e+01	2.509748e+02
9.400000e-07	1.839125e-06	5.425315e-09	1.258623e+01	3.457461e+02
9.500000e-07	1.993424e-06	6.693293e-09	1.364218e+01	4.315459e+02
9.600000e-07	2.146915e-06	7.722813e-09	1.469261e+01	5.049770e+02
9.700000e-07	2.299508e-06	8.559141e-09	1.573690e+01	5.648115e+02
9.800000e-07	2.451262e-06	9.251398e-09	1.677544e+01	6.119639e+02
9.900000e-07	2.602209e-06	9.836908e-09	1.780846e+01	6.489417e+02
1.000000e-06	2.752349e-06	1.033894e-08	1.883596e+01	6.789729e+02
1.010000e-06	2.901563e-06	1.077228e-08	1.985712e+01	7.050942e+02
1.020000e-06	3.049714e-06	1.115499e-08	2.087101e+01	7.294661e+02
1.030000e-06	3.196781e-06	1.150309e-08	2.187747e+01	7.530837e+02
1.040000e-06	3.342632e-06	1.182398e-08	2.287562e+01	7.759063e+02
1.050000e-06	3.487231e-06	1.211696e-08	2.386519e+01	7.972882e+02
1.060000e-06	3.630584e-06	1.238897e-08	2.484624e+01	8.165137e+02
1.070000e-06	3.772581e-06	1.264317e-08	2.581801e+01	8.332276e+02
1.080000e-06	3.913095e-06	1.287781e-08	2.677963e+01	8.476256e+02
1.090000e-06	4.052063e-06	1.309136e-08	2.773067e+01	8.603721e+02
1.100000e-06	4.189478e-06	1.328944e-08	2.867109e+01	8.723228e+02
1.110000e-06	4.325381e-06	1.348022e-08	2.960115e+01	8.841916e+02
1.120000e-06	4.459845e-06	1.366115e-08	3.052137e+01	8.963064e+02
1.130000e-06	4.592730e-06	1.382917e-08	3.143078e+01	9.085456e+02
1.140000e-06	4.723861e-06	1.398935e-08	3.232819e+01	9.204618e+02
1.150000e-06	4.853220e-06	1.415000e-08	3.321347e+01	9.315257e+02
1.160000e-06	4.980893e-06	1.430463e-08	3.408721e+01	9.413766e+02
1.170000e-06	5.106947e-06	1.444593e-08	3.494987e+01	9.499771e+02
1.180000e-06	5.231231e-06	1.457471e-08	3.580042e+01	9.576159e+02
1.190000e-06	5.353510e-06	1.469793e-08	3.663725e+01	9.647713e+02
1.200000e-06	5.473873e-06	1.481802e-08	3.746097e+01	9.719039e+02
1.210000e-06	5.592350e-06	1.493048e-08	3.827177e+01	9.792731e+02
1.220000e-06	5.708659e-06	1.503506e-08	3.906774e+01	9.868525e+02
1.230000e-06	5.822606e-06	1.513494e-08	3.984755e+01	9.943734e+02
1.240000e-06	5.934383e-06	1.523294e-08	4.061251e+01	1.001468e+03
1.250000e-06	6.044216e-06	1.532780e-08	4.136416e+01	1.007847e+03
1.260000e-06	6.151891e-06	1.541758e-08	4.210105e+01	1.013428e+03
1.270000e-06	6.257286e-06	1.550365e-08	4.282233e+01	1.018371e+03
1.280000e-06	6.360466e-06	1.558825e-08	4.352845e+01	1.022998e+03
1.290000e-06	6.461423e-06	1.566777e-08	4.421936e+01	1.027653e+03
1.300000e-06	6.559967e-06	1.573955e-08	4.489375e+01	1.032555e+03
1.310000e-06	6.656033e-06	1.580733e-08	4.555119e+01	1.037708e+03
1.320000e-06	6.749824e-06	1.587488e-08	4.619306e+01	1.042913e+03
1.330000e-06	6.841282e-06	1.594295e-08	4.681896e+01	1.047863e+03
1.340000e-06	6.930290e-06	1.600853e-08	4.742809e+01	1.052284e+03
1.350000e-06	7.016889e-06	1.606930e-08	4.802074e+01	1.056050e+03
1.360000e-06	7.101070e-06	1.612590e-08	4.859684e+01	1.059235e+03
1.370000e-06	7.182709e-06	1.618181e-08	4.915554e+01	1.062077e+03
1.380000e-06	7.261810e-06	1.623504e-08	4.969688e+01	1.064866e+03
1.390000e-06	7.338216e-06	1.628294e-08	5.021978e+01	1.067825e+03
1.400000e-06	7.411815e-06	1.632934e-08	5.072345e+01	1.071016e+03
1.410000e-06	7.482814e-06	1.637651e-08	5.120934e+01	1.074325e+03
1.420000e-06	7.551120e-06	1.642201e-08	5.167680e+01	1.077524e+03
1.430000e-06	7.616639e-06	1.646031e-08	5.212519e+01	1.080372e+03
1.440000e-06	7.679528e-06	1.649289e-08	5.255557e+01	1.082728e+03
1.450000e-06	7.739843e-06	1.652668e-08	5.296834e+01	1.084605e+03
1.460000e-06	7.797425e-06	1.656430e-08	5.336241e+01	1.086164e+03
1.470000e-06	7.852142e-06	1.659878e-08	5.373687e+01	1.087632e+03
1.480000e-06	7.903757e-06	1.662519e-08	5.409011e+01	1.089208e+03
1.490000e-06	7.952226e-06	1.664663e-08	5.442181e+01	1.090969e+03
1.500000e-06	7.997887e-06	1.666897e-08	5.473430e+01	1.092849e+03
1.510000e-06	8.040673e-06	1.669161e-08	5.502710e+01	1.094671e+03
1.520000e-06	8.080523e-06	1.671049e-08	5.529982e+01	1.096232e+03
1.530000e-06	8.117631e-06	1.672730e-08	5.555377e+01	1.097396e+03
1.540000e-06	8.151855e-06	1.674382e-08	5.578799e+01	1.098155e+03
1.550000e-06	8.183180e-06	1.676142e-08	5.600236e+01	1.098629e+03
1.560000e-06	8.211774e-06	1.677642e-08	5.619805e+01	1.099012e+03
1.570000e-06	8.237455e-06	1.678648e-08	5.637380e+01	1.099485e+03
1.580000e-06	8.260154e-06	1.679423e-08	5.652915e+01	1.100135e+03
1.590000e-06	8.279985e-06	1.680282e-08	5.666486e+01	1.100921e+03
1.600000e-06	8.296846e-06	1.681144e-08	5.678025e+01	1.101694e+03
1.610000e-06	8.310614e-06	1.681667e-08	5.687447e+01	1.102270e+03
1.620000e-06	8.321193e-06	1.681875e-08	5.694687e+01	1.102512e+03
1.630000e-06	8.328714e-06	1.682108e-08	5.699834e+01	1.102395e+03
1.640000e-06	8.333362e-06	1.682573e-08	5.703015e+01	1.102014e+03
1.650000e-06	8.335021e-06	1.682940e-08	5.704150e+01	1.101539e+03
1.660000e-06	8.333840e-06	1.682462e-08	5.703342e+01	1.101140e+03
1.670000e-06	8.329977e-06	1.680956e-08	5.700698e+01	1.100907e+03
1.680000e-06	8.323282e-06	1.680661e-08	5.696116e+01	1.100808e+03
1.690000e-06	8.313813e-06	1.680349e-08	5.689636e+01	1.100705e+03
1.700000e-06	8.301393e-06	1.679084e-08	5.681137e+01	1.100416e+03
1.710000e-06	8.286086e-06	1.678205e-08	5.670661e+01	1.099796e+03
1.720000e-06	8.268349e-06	1.679225e-08	5.658523e+01	1.098805e+03
1.730000e-06	8.248118e-06	1.679124e-08	5.644677e+01	1.097531e+03
1.740000e-06	8.224910e-06	1.665742e-08	5.628795e+01	1.096151e+03
1.750000e-06	8.198007e-06	1.663799e-08	5.610383e+01	1.094858e+03
1.760000e-06	8.167250e-06	1.668518e-08	5.589335e+01	1.093782e+03
1.770000e-06	8.133476e-06	1.665187e-08	5.566221e+01	1.092929e+03
1.780000e-06	8.097283e-06	1.663795e-08	5.541452e+01	1.092188e+03
1.790000e-06	8.058779e-06	1.674380e-08	5.515102e+01	1.091372e+03
1.800000e-06	8.018276e-06	1.664376e-08	5.487382e+01	1.090302e+03
1.810000e-06	7.975384e-06	1.654961e-08	5.458029e+01	1.088879e+03
1.820000e-06	7.929435e-06	1.668727e-08	5.426584e+01	1.087114e+03
1.830000e-06	7.880673e-06	1.651951e-08	5.393212e+01	1.085118e+03
1.840000e-06	7.828732e-06	1.658052e-08	5.357667e+01	1.083035e+03
1.850000e-06	7.773635e-06	1.652233e-08	5.319960e+01	1.080969e+03
1.860000e-06	7.715920e-06	1.645758e-08	5.280463e+01	1.078936e+03
1.870000e-06	7.655297e-06	1.654696e-08	5.238975e+01	1.076846e+03
1.880000e-06	7.591960e-06	1.635081e-08	5.195629e+01	1.074555e+03
1.890000e-06	7.525914e-06	1.640249e-08	5.150430e+01	1.071932e+03
1.900000e-06	7.457038e-06	1.628260e-08	5.103294e+01	1.068926e+03
1.910000e-06	7.385319e-06	1.624763e-08	5.054212e+01	1.065599e+03
1.920000e-06	7.310681e-06	1.626447e-08	5.003134e+01	1.062106e+03
1.930000e-06	7.233266e-06	1.614587e-08	4.950154e+01	1.058628e+03
1.940000e-06	7.153153e-06	1.619031e-08	4.895327e+01	1.055289e+03
1.950000e-06	7.070634e-06	1.603065e-08	4.838855e+01	1.052093e+03
1.960000e-06	6.985511e-06	1.604066e-08	4.780600e+01	1.048921e+03
1.970000e-06	6.897720e-06	1.594038e-08	4.720519e+01	1.045568e+03
1.980000e-06	6.807579e-06	1.586129e-08	4.658831e+01	1.041837e+03
1.990000e-06	6.715087e-06	1.585766e-08	4.595533e+01	1.037619e+03
2.000000e-06	6.620174e-06	1.574820e-08	4.530579e+01	1.032947e+03
2.010000e-06	6.522900e-06	1.573818e-08	4.464008e+01	1.027983e+03
2.020000e-06	6.423381e-06	1.560415e-08	4.395901e+01	1.022946e+03
2.030000e-06	6.321378e-06	1.556107e-08	4.326095e+01	1.018019e+03
2.040000e-06	6.217047e-06	1.545221e-08	4.254695e+01	1.013258e+03
2.050000e-06	6.110614e-06	1.538793e-08	4.181856e+01	1.008570e+03
2.060000e-06	6.002076e-06	1.531287e-08	4.107577e+01	1.003741e+03
2.070000e-06	5.891361e-06	1.522352e-08	4.031809e+01	9.985301e+02
2.080000e-06	5.778389e-06	1.515806e-08	3.954495e+01	9.927751e+02
2.090000e-06	5.663182e-06	1.504805e-08	3.875652e+01	9.864627e+02
2.100000e-06	5.545640e-06	1.495758e-08	3.795211e+01	9.797375e+02
2.110000e-06	5.426053e-06	1.483702e-08	3.713371e+01	9.728377e+02
2.120000e-06	5.304607e-06	1.474712e-08	3.630258e+01	9.659870e+02
2.130000e-06	5.181287e-06	1.463742e-08	3.545863e+01	9.592899e+02
2.140000e-06	5.056029e-06	1.454423e-08	3.460141e+01	9.526755e+02
2.150000e-06	4.928895e-06	1.442209e-08	3.373136e+01	9.459203e+02
2.160000e-06	4.800027e-06	1.430950e-08	3.284944e+01	9.387393e+02
2.170000e-06	4.669469e-06	1.418401e-08	3.195595e+01	9.309090e+02
2.180000e-06	4.537306e-06	1.406238e-08	3.105148e+01	9.223667e+02
2.190000e-06	4.403475e-06	1.393046e-08	3.013559e+01	9.132406e+02
2.200000e-06	4.268028e-06	1.379617e-08	2.920865e+01	9.037946e+02
2.210000e-06	4.131087e-06	1.366288e-08	2.827148e+01	8.943077e+02
2.220000e-06	3.992648e-06	1.351409e-08	2.732406e+01	8.849415e+02
2.230000e-06	3.852705e-06	1.336705e-08	2.636635e+01	8.756546e+02
2.240000e-06	3.711277e-06	1.320508e-08	2.539848e+01	8.662042e+02
2.250000e-06	3.568369e-06	1.304878e-08	2.442047e+01	8.562407e+02
2.260000e-06	3.424159e-06	1.288154e-08	2.343356e+01	8.454546e+02
2.270000e-06	3.278743e-06	1.271133e-08	2.243838e+01	8.337135e+02
2.280000e-06	3.132175e-06	1.252791e-08	2.143533e+01	8.211248e+02
2.290000e-06	2.984539e-06	1.233856e-08	2.042497e+01	8.079917e+02
2.300000e-06	2.835898e-06	1.214179e-08	1.940774e+01	7.946759e+02
2.310000e-06	2.686291e-06	1.194094e-08	1.838389e+01	7.814234e+02
2.320000e-06	2.535633e-06	1.173074e-08	1.735284e+01	7.682301e+02
2.330000e-06	2.383974e-06	1.151089e-08	1.631495e+01	7.548127e+02
2.340000e-06	2.231433e-06	1.128376e-08	1.527102e+01	7.407040e+02
2.350000e-06	2.078081e-06	1.104861e-08	1.422154e+01	7.254393e+02
2.360000e-06	1.924049e-06	1.080207e-08	1.316741e+01	7.087556e+02
2.370000e-06	1.769406e-06	1.053812e-08	1.210910e+01	6.907112e+02
2.380000e-06	1.614184e-06	1.026256e-08	1.104682e+01	6.716655e+02
2.390000e-06	1.458399e-06	9.977431e-09	9.980693e+00	6.521122e+02
2.400000e-06	1.302068e-06	9.680826e-09	8.910823e+00	6.324303e+02
2.410000e-06	1.145289e-06	9.366430e-09	7.837892e+00	6.126566e+02
2.420000e-06	9.881061e-07	9.035246e-09	6.762197e+00	5.923871e+02
2.430000e-06	8.305802e-07	8.688250e-09	5.684154e+00	5.708678e+02
2.440000e-06	6.727494e-07	8.321028e-09	4.604024e+00	5.472549e+02
2.450000e-06	5.146541e-07	7.929046e-09	3.522084e+00	5.209459e+02
2.460000e-06	3.563265e-07	7.509173e-09	2.438554e+00	4.918374e+02
2.470000e-06	1.978496e-07	7.059764e-09	1.354002e+00	4.603759e+02
2.480000e-06	3.929787e-08	6.576209e-09	2.689387e-01	4.273391e+02
2.490000e-06	-1.192548e-07	6.057627e-09	-8.161317e-01	3.933923e+02
2.500000e-06	-2.777004e-07	5.503448e-09	-1.900469e+00	3.585686e+02
2.510000e-06	-4.360098e-07	4.905390e-09	-2.983874e+00	3.218775e+02
2.520000e-06	-5.941213e-07	4.249064e-09	-4.065925e+00	2.812330e+02
2.530000e-06	-7.520121e-07	3.514974e-09	-5.146466e+00	2.337961e+02
2.540000e-06	-9.096082e-07	2.680275e-09	-6.224989e+00	1.766884e+02
2.550000e-06	-1.066800e-06	1.709981e-09	-7.300750e+00	1.078930e+02
2.560000e-06	-1.223589e-06	5.563830e-10	-8.373746e+00	2.706936e+01
2.570000e-06	-1.379918e-06	-8.148905e-10	-9.443598e+00	-6.398933e+01
2.580000e-06	-1.535718e-06	-2.371631e-09	-1.050983e+01	-1.614354e+02
2.590000e-06	-1.690980e-06	-3.982624e-09	-1.157238e+01	-2.600006e+02
2.600000e-06	-1.845650e-06	-5.475972e-09	-1.263088e+01	-3.540298e+02
2.610000e-06	-1.999686e-06	-6.743657e-09	-1.368504e+01	-4.386318e+02
2.620000e-06	-2.153044e-06	-7.773511e-09	-1.473456e+01	-5.106253e+02
2.630000e-06	-2.305650e-06	-8.607264e-09	-1.577894e+01	-5.690235e+02
2.640000e-06	-2.457479e-06	-9.297644e-09	-1.681799e+01	-6.149457e+02
2.650000e-06	-2.608382e-06	-9.885283e-09	-1.785071e+01	-6.510215e+02
2.660000e-06	-2.758271e-06	-1.039293e-08	-1.887649e+01	-6.805001e+02
2.670000e-06	-2.907083e-06	-1.083373e-08	-1.989489e+01	-7.063509e+02
2.680000e-06	-3.054825e-06	-1.122228e-08	-2.090598e+01	-7.306156e+02
2.690000e-06	-3.201612e-06	-1.157283e-08	-2.191053e+01	-7.541655e+02
2.700000e-06	-3.347318e-06	-1.189210e-08	-2.290768e+01	-7.768708e+02
2.710000e-06	-3.491836e-06	-1.218258e-08	-2.389671e+01	-7.980530e+02
2.720000e-06	-3.635051e-06	-1.244877e-08	-2.487681e+01	-8.170178e+02
2.730000e-06	-3.776830e-06	-1.269789e-08	-2.584710e+01	-8.334649e+02
2.740000e-06	-3.917091e-06	-1.293513e-08	-2.680698e+01	-8.476485e+02
2.750000e-06	-4.055844e-06	-1.315901e-08	-2.775655e+01	-8.602692e+02
2.760000e-06	-4.193200e-06	-1.336696e-08	-2.869656e+01	-8.721828e+02
2.770000e-06	-4.329047e-06	-1.355930e-08	-2.962624e+01	-8.840709e+02
2.780000e-06	-4.463272e-06	-1.373786e-08	-3.054483e+01	-8.962128e+02
2.790000e-06	-4.595812e-06	-1.390381e-08	-3.145187e+01	-9.084430e+02
2.800000e-06	-4.726708e-06	-1.405924e-08	-3.234767e+01	-9.202927e+02
2.810000e-06	-4.856042e-06	-1.420760e-08	-3.323278e+01	-9.312395e+02
2.820000e-06	-4.983686e-06	-1.435277e-08	-3.410633e+01	-9.409524e+02
2.830000e-06	-5.109483e-06	-1.449643e-08	-3.496723e+01	-9.494317e+02
2.840000e-06	-5.233426e-06	-1.463243e-08	-3.581544e+01	-9.569950e+02
2.850000e-06	-5.355683e-06	-1.475536e-08	-3.665212e+01	-9.641287e+02
2.860000e-06	-5.476123e-06	-1.486689e-08	-3.747636e+01	-9.712795e+02
2.870000e-06	-5.594329e-06	-1.497306e-08	-3.828532e+01	-9.786781e+02
2.880000e-06	-5.710244e-06	-1.507750e-08	-3.907859e+01	-9.862679e+02
2.890000e-06	-5.823864e-06	-1.517702e-08	-3.985616e+01	-9.937612e+02
2.900000e-06	-5.935111e-06	-1.527064e-08	-4.061749e+01	-1.000791e+03
2.910000e-06	-6.044207e-06	-1.536279e-08	-4.136410e+01	-1.007084e+03
2.920000e-06	-6.151296e-06	-1.545552e-08	-4.209697e+01	-1.012586e+03
2.930000e-06	-6.256338e-06	-1.554711e-08	-4.281584e+01	-1.017478e+03
2.940000e-06	-6.359061e-06	-1.563342e-08	-4.351883e+01	-1.022093e+03
