# Temperatura_=_66.1
# Concentracion g/m^3_=_13400.0
# C_Vs_to_Am_M_A/Vsm_=_65563218390.804596
# pendiente_HvsI_1/m_=_3716.3
# ordenada_HvsI_A/m_=_1297.0
# frecuencia_Hz_=_301422.2583794222

Tiempo_(s)	Campo_(V.s)	Magnetizacion_(V.s)	Campo_(kA/m)	Magnetizacion_(A/m)
0.000000e+00	-8.368917e-06	-1.758648e-08	-5.692089e+01	-1.154316e+03
1.000000e-08	-8.365624e-06	-1.758884e-08	-5.689849e+01	-1.154129e+03
2.000000e-08	-8.359635e-06	-1.758294e-08	-5.685775e+01	-1.154076e+03
3.000000e-08	-8.351017e-06	-1.757315e-08	-5.679914e+01	-1.153975e+03
4.000000e-08	-8.339440e-06	-1.756407e-08	-5.672040e+01	-1.153609e+03
5.000000e-08	-8.324833e-06	-1.755225e-08	-5.662105e+01	-1.152825e+03
6.000000e-08	-8.307323e-06	-1.753515e-08	-5.650195e+01	-1.151603e+03
7.000000e-08	-8.287240e-06	-1.750798e-08	-5.636536e+01	-1.150066e+03
8.000000e-08	-8.264612e-06	-1.750116e-08	-5.621146e+01	-1.148432e+03
9.000000e-08	-8.238841e-06	-1.757019e-08	-5.603617e+01	-1.146920e+03
1.000000e-07	-8.209681e-06	-1.755189e-08	-5.583785e+01	-1.145658e+03
1.100000e-07	-8.177343e-06	-1.746957e-08	-5.561790e+01	-1.144635e+03
1.200000e-07	-8.142059e-06	-1.744051e-08	-5.537792e+01	-1.143708e+03
1.300000e-07	-8.104129e-06	-1.742628e-08	-5.511994e+01	-1.142670e+03
1.400000e-07	-8.063773e-06	-1.734020e-08	-5.484546e+01	-1.141339e+03
1.500000e-07	-8.020922e-06	-1.724274e-08	-5.455401e+01	-1.139631e+03
1.600000e-07	-7.975322e-06	-1.737528e-08	-5.424386e+01	-1.137589e+03
1.700000e-07	-7.926849e-06	-1.727263e-08	-5.391417e+01	-1.135347e+03
1.800000e-07	-7.875396e-06	-1.723422e-08	-5.356422e+01	-1.133056e+03
1.900000e-07	-7.820859e-06	-1.729419e-08	-5.319328e+01	-1.130801e+03
2.000000e-07	-7.763473e-06	-1.713037e-08	-5.280298e+01	-1.128553e+03
2.100000e-07	-7.703373e-06	-1.711619e-08	-5.239421e+01	-1.126178e+03
2.200000e-07	-7.640521e-06	-1.703974e-08	-5.196672e+01	-1.123498e+03
2.300000e-07	-7.574881e-06	-1.702544e-08	-5.152027e+01	-1.120378e+03
2.400000e-07	-7.506430e-06	-1.700595e-08	-5.105471e+01	-1.116795e+03
2.500000e-07	-7.435207e-06	-1.693050e-08	-5.057029e+01	-1.112863e+03
2.600000e-07	-7.361127e-06	-1.691543e-08	-5.006644e+01	-1.108791e+03
2.700000e-07	-7.284230e-06	-1.683504e-08	-4.954342e+01	-1.104793e+03
2.800000e-07	-7.204524e-06	-1.678250e-08	-4.900131e+01	-1.100993e+03
2.900000e-07	-7.122053e-06	-1.668040e-08	-4.844038e+01	-1.097366e+03
3.000000e-07	-7.037129e-06	-1.663232e-08	-4.786278e+01	-1.093739e+03
3.100000e-07	-6.949846e-06	-1.660482e-08	-4.726913e+01	-1.089860e+03
3.200000e-07	-6.860134e-06	-1.651947e-08	-4.665895e+01	-1.085509e+03
3.300000e-07	-6.767959e-06	-1.647480e-08	-4.603203e+01	-1.080591e+03
3.400000e-07	-6.673352e-06	-1.637091e-08	-4.538856e+01	-1.075183e+03
3.500000e-07	-6.576347e-06	-1.629252e-08	-4.472879e+01	-1.069502e+03
3.600000e-07	-6.476962e-06	-1.620946e-08	-4.405282e+01	-1.063812e+03
3.700000e-07	-6.375225e-06	-1.612519e-08	-4.336086e+01	-1.058305e+03
3.800000e-07	-6.271166e-06	-1.604579e-08	-4.265311e+01	-1.053013e+03
3.900000e-07	-6.164851e-06	-1.596721e-08	-4.193001e+01	-1.047787e+03
4.000000e-07	-6.056349e-06	-1.589966e-08	-4.119204e+01	-1.042357e+03
4.100000e-07	-5.945686e-06	-1.578558e-08	-4.043936e+01	-1.036442e+03
4.200000e-07	-5.832786e-06	-1.567949e-08	-3.967148e+01	-1.029881e+03
4.300000e-07	-5.717603e-06	-1.556419e-08	-3.888807e+01	-1.022696e+03
4.400000e-07	-5.600173e-06	-1.546784e-08	-3.808937e+01	-1.015091e+03
4.500000e-07	-5.480628e-06	-1.536912e-08	-3.727629e+01	-1.007361e+03
4.600000e-07	-5.359075e-06	-1.526372e-08	-3.644955e+01	-9.997566e+02
4.700000e-07	-5.235618e-06	-1.514936e-08	-3.560986e+01	-9.923700e+02
4.800000e-07	-5.110310e-06	-1.502905e-08	-3.475758e+01	-9.850828e+02
4.900000e-07	-4.983209e-06	-1.490722e-08	-3.389311e+01	-9.776100e+02
5.000000e-07	-4.854267e-06	-1.476671e-08	-3.301612e+01	-9.696192e+02
5.100000e-07	-4.723529e-06	-1.462661e-08	-3.212691e+01	-9.608758e+02
5.200000e-07	-4.591105e-06	-1.448726e-08	-3.122624e+01	-9.513492e+02
5.300000e-07	-4.457031e-06	-1.435512e-08	-3.031434e+01	-9.412305e+02
5.400000e-07	-4.321406e-06	-1.421258e-08	-2.939188e+01	-9.308506e+02
5.500000e-07	-4.184146e-06	-1.405934e-08	-2.845831e+01	-9.205306e+02
5.600000e-07	-4.045278e-06	-1.390014e-08	-2.751381e+01	-9.104302e+02
5.700000e-07	-3.904872e-06	-1.374205e-08	-2.655885e+01	-9.004611e+02
5.800000e-07	-3.762839e-06	-1.358018e-08	-2.559281e+01	-8.903090e+02
5.900000e-07	-3.619238e-06	-1.340252e-08	-2.461612e+01	-8.795587e+02
6.000000e-07	-3.474355e-06	-1.321660e-08	-2.363070e+01	-8.678710e+02
6.100000e-07	-3.328325e-06	-1.302636e-08	-2.263748e+01	-8.551341e+02
6.200000e-07	-3.181089e-06	-1.283689e-08	-2.163606e+01	-8.415195e+02
6.300000e-07	-3.032700e-06	-1.263597e-08	-2.062680e+01	-8.274114e+02
6.400000e-07	-2.883286e-06	-1.242544e-08	-1.961057e+01	-8.132341e+02
6.500000e-07	-2.732916e-06	-1.221266e-08	-1.858783e+01	-7.992497e+02
6.600000e-07	-2.581610e-06	-1.199733e-08	-1.755873e+01	-7.854158e+02
6.700000e-07	-2.429351e-06	-1.177020e-08	-1.652314e+01	-7.713719e+02
6.800000e-07	-2.276163e-06	-1.152391e-08	-1.548124e+01	-7.565683e+02
6.900000e-07	-2.122138e-06	-1.126794e-08	-1.443365e+01	-7.404907e+02
7.000000e-07	-1.967354e-06	-1.100484e-08	-1.338088e+01	-7.228825e+02
7.100000e-07	-1.811854e-06	-1.073510e-08	-1.232326e+01	-7.038643e+02
7.200000e-07	-1.655764e-06	-1.045103e-08	-1.126162e+01	-6.838865e+02
7.300000e-07	-1.499063e-06	-1.015632e-08	-1.019582e+01	-6.635215e+02
7.400000e-07	-1.341722e-06	-9.849669e-09	-9.125673e+00	-6.431749e+02
7.500000e-07	-1.183892e-06	-9.526119e-09	-8.052196e+00	-6.228409e+02
7.600000e-07	-1.025698e-06	-9.181968e-09	-6.976246e+00	-6.020177e+02
7.700000e-07	-8.671773e-07	-8.814125e-09	-5.898075e+00	-5.798387e+02
7.800000e-07	-7.083678e-07	-8.428605e-09	-4.817938e+00	-5.553846e+02
7.900000e-07	-5.493280e-07	-8.022348e-09	-3.736234e+00	-5.280528e+02
8.000000e-07	-3.900813e-07	-7.591498e-09	-2.653124e+00	-4.978217e+02
8.100000e-07	-2.306406e-07	-7.129031e-09	-1.568694e+00	-4.652653e+02
8.200000e-07	-7.110265e-08	-6.634547e-09	-4.836021e-01	-4.312680e+02
8.300000e-07	8.841962e-08	-6.103943e-09	6.013828e-01	-3.965086e+02
8.400000e-07	2.478853e-07	-5.529663e-09	1.685983e+00	-3.608912e+02
8.500000e-07	4.072383e-07	-4.901773e-09	2.769817e+00	-3.231575e+02
8.600000e-07	5.664366e-07	-4.206509e-09	3.852598e+00	-2.808762e+02
8.700000e-07	7.254432e-07	-3.428029e-09	4.934075e+00	-2.308930e+02
8.800000e-07	8.841848e-07	-2.538233e-09	6.013750e+00	-1.701645e+02
8.900000e-07	1.042684e-06	-1.494897e-09	7.091780e+00	-9.674864e+01
9.000000e-07	1.200877e-06	-2.446458e-10	8.167724e+00	-1.064612e+01
9.100000e-07	1.358644e-06	1.237099e-09	9.240769e+00	8.579834e+01
9.200000e-07	1.515888e-06	2.893132e-09	1.031026e+01	1.880993e+02
9.300000e-07	1.672445e-06	4.560215e-09	1.137508e+01	2.904232e+02
9.400000e-07	1.828333e-06	6.057037e-09	1.243534e+01	3.867657e+02
9.500000e-07	1.983619e-06	7.291116e-09	1.349151e+01	4.721871e+02
9.600000e-07	2.138206e-06	8.276317e-09	1.454293e+01	5.437565e+02
9.700000e-07	2.292049e-06	9.075684e-09	1.558928e+01	6.009525e+02
9.800000e-07	2.445102e-06	9.743231e-09	1.663027e+01	6.454350e+02
9.900000e-07	2.597213e-06	1.031345e-08	1.766485e+01	6.803017e+02
1.000000e-06	2.748345e-06	1.080235e-08	1.869277e+01	7.090871e+02
1.010000e-06	2.898475e-06	1.122856e-08	1.971387e+01	7.348210e+02
1.020000e-06	3.047560e-06	1.161095e-08	2.072787e+01	7.594136e+02
1.030000e-06	3.195558e-06	1.196064e-08	2.173447e+01	7.835011e+02
1.040000e-06	3.342442e-06	1.227970e-08	2.273350e+01	8.067215e+02
1.050000e-06	3.488095e-06	1.256886e-08	2.372415e+01	8.282547e+02
1.060000e-06	3.632432e-06	1.283864e-08	2.470585e+01	8.473924e+02
1.070000e-06	3.775516e-06	1.309648e-08	2.567904e+01	8.639317e+02
1.080000e-06	3.917244e-06	1.333948e-08	2.664299e+01	8.782756e+02
1.090000e-06	4.057419e-06	1.356186e-08	2.759639e+01	8.912521e+02
1.100000e-06	4.196053e-06	1.377043e-08	2.853930e+01	9.037679e+02
1.110000e-06	4.333111e-06	1.397216e-08	2.947150e+01	9.164602e+02
1.120000e-06	4.468541e-06	1.416251e-08	3.039262e+01	9.294934e+02
1.130000e-06	4.602404e-06	1.433760e-08	3.130309e+01	9.425678e+02
1.140000e-06	4.734583e-06	1.450311e-08	3.220210e+01	9.551184e+02
1.150000e-06	4.865050e-06	1.466896e-08	3.308946e+01	9.666018e+02
1.160000e-06	4.993813e-06	1.483214e-08	3.396524e+01	9.767448e+02
1.170000e-06	5.120811e-06	1.498259e-08	3.482901e+01	9.856544e+02
1.180000e-06	5.246029e-06	1.512026e-08	3.568068e+01	9.937548e+02
1.190000e-06	5.369373e-06	1.525411e-08	3.651960e+01	1.001592e+03
1.200000e-06	5.490778e-06	1.538747e-08	3.734533e+01	1.009602e+03
1.210000e-06	5.610190e-06	1.551561e-08	3.815750e+01	1.017935e+03
1.220000e-06	5.727502e-06	1.563430e-08	3.895540e+01	1.026425e+03
1.230000e-06	5.842611e-06	1.574548e-08	3.973831e+01	1.034683e+03
1.240000e-06	5.955472e-06	1.585100e-08	4.050593e+01	1.042295e+03
1.250000e-06	6.066196e-06	1.595128e-08	4.125901e+01	1.049006e+03
1.260000e-06	6.174835e-06	1.604649e-08	4.199791e+01	1.054838e+03
1.270000e-06	6.281285e-06	1.613817e-08	4.272193e+01	1.060069e+03
1.280000e-06	6.385422e-06	1.622962e-08	4.343021e+01	1.065114e+03
1.290000e-06	6.487274e-06	1.631802e-08	4.412296e+01	1.070342e+03
1.300000e-06	6.586805e-06	1.640181e-08	4.479991e+01	1.075927e+03
1.310000e-06	6.683880e-06	1.648085e-08	4.546017e+01	1.081785e+03
1.320000e-06	6.778559e-06	1.655683e-08	4.610413e+01	1.087625e+03
1.330000e-06	6.870888e-06	1.662925e-08	4.673209e+01	1.093086e+03
1.340000e-06	6.960777e-06	1.669664e-08	4.734347e+01	1.097894e+03
1.350000e-06	7.048198e-06	1.676306e-08	4.793806e+01	1.101983e+03
1.360000e-06	7.133239e-06	1.682986e-08	4.851647e+01	1.105510e+03
1.370000e-06	7.215790e-06	1.689706e-08	4.907794e+01	1.108781e+03
1.380000e-06	7.295717e-06	1.696228e-08	4.962155e+01	1.112115e+03
1.390000e-06	7.372987e-06	1.702050e-08	5.014710e+01	1.115707e+03
1.400000e-06	7.447489e-06	1.707174e-08	5.065383e+01	1.119550e+03
1.410000e-06	7.519260e-06	1.711935e-08	5.114198e+01	1.123453e+03
1.420000e-06	7.588404e-06	1.716538e-08	5.161225e+01	1.127129e+03
1.430000e-06	7.654789e-06	1.721161e-08	5.206377e+01	1.130331e+03
1.440000e-06	7.718379e-06	1.725824e-08	5.249627e+01	1.132957e+03
1.450000e-06	7.779357e-06	1.730457e-08	5.291102e+01	1.135090e+03
1.460000e-06	7.837622e-06	1.734905e-08	5.330730e+01	1.136955e+03
1.470000e-06	7.893106e-06	1.738733e-08	5.368467e+01	1.138817e+03
1.480000e-06	7.945573e-06	1.741952e-08	5.404153e+01	1.140863e+03
1.490000e-06	7.994744e-06	1.744669e-08	5.437596e+01	1.143120e+03
1.500000e-06	8.040972e-06	1.747153e-08	5.469038e+01	1.145455e+03
1.510000e-06	8.084415e-06	1.749618e-08	5.498585e+01	1.147636e+03
1.520000e-06	8.124953e-06	1.752076e-08	5.526157e+01	1.149442e+03
1.530000e-06	8.162665e-06	1.754477e-08	5.551807e+01	1.150761e+03
1.540000e-06	8.197537e-06	1.756805e-08	5.575525e+01	1.151640e+03
1.550000e-06	8.229534e-06	1.759139e-08	5.597288e+01	1.152260e+03
1.560000e-06	8.258741e-06	1.761284e-08	5.617153e+01	1.152853e+03
1.570000e-06	8.284968e-06	1.762853e-08	5.634991e+01	1.153599e+03
1.580000e-06	8.308161e-06	1.763821e-08	5.650765e+01	1.154545e+03
1.590000e-06	8.328557e-06	1.764530e-08	5.664638e+01	1.155591e+03
1.600000e-06	8.346032e-06	1.765028e-08	5.676523e+01	1.156535e+03
1.610000e-06	8.360379e-06	1.765559e-08	5.686281e+01	1.157168e+03
1.620000e-06	8.371492e-06	1.766233e-08	5.693840e+01	1.157370e+03
1.630000e-06	8.379426e-06	1.766888e-08	5.699236e+01	1.157161e+03
1.640000e-06	8.384485e-06	1.767306e-08	5.702677e+01	1.156695e+03
1.650000e-06	8.386651e-06	1.767380e-08	5.704150e+01	1.156188e+03
1.660000e-06	8.385872e-06	1.767116e-08	5.703620e+01	1.155818e+03
1.670000e-06	8.382318e-06	1.765420e-08	5.701203e+01	1.155651e+03
1.680000e-06	8.375972e-06	1.764387e-08	5.696887e+01	1.155602e+03
1.690000e-06	8.366819e-06	1.763683e-08	5.690661e+01	1.155482e+03
1.700000e-06	8.354806e-06	1.762726e-08	5.682491e+01	1.155076e+03
1.710000e-06	8.339918e-06	1.761882e-08	5.672365e+01	1.154243e+03
1.720000e-06	8.322450e-06	1.761486e-08	5.660484e+01	1.152979e+03
1.730000e-06	8.302442e-06	1.761589e-08	5.646876e+01	1.151420e+03
1.740000e-06	8.279467e-06	1.750527e-08	5.631249e+01	1.149789e+03
1.750000e-06	8.252880e-06	1.744630e-08	5.613166e+01	1.148299e+03
1.760000e-06	8.222363e-06	1.748323e-08	5.592410e+01	1.147065e+03
1.770000e-06	8.188677e-06	1.746729e-08	5.569499e+01	1.146061e+03
1.780000e-06	8.152551e-06	1.743155e-08	5.544928e+01	1.145132e+03
1.790000e-06	8.114072e-06	1.751746e-08	5.518756e+01	1.144069e+03
1.800000e-06	8.073554e-06	1.750479e-08	5.491198e+01	1.142699e+03
1.810000e-06	8.030768e-06	1.734008e-08	5.462098e+01	1.140951e+03
1.820000e-06	7.984987e-06	1.746180e-08	5.430960e+01	1.138879e+03
1.830000e-06	7.936356e-06	1.735970e-08	5.397883e+01	1.136625e+03
1.840000e-06	7.884628e-06	1.734047e-08	5.362701e+01	1.134335e+03
1.850000e-06	7.829653e-06	1.736309e-08	5.325310e+01	1.132084e+03
1.860000e-06	7.771926e-06	1.723051e-08	5.286047e+01	1.129829e+03
1.870000e-06	7.711371e-06	1.733186e-08	5.244861e+01	1.127430e+03
1.880000e-06	7.648067e-06	1.716337e-08	5.201805e+01	1.124708e+03
1.890000e-06	7.581938e-06	1.713418e-08	5.156828e+01	1.121535e+03
1.900000e-06	7.512930e-06	1.707893e-08	5.109892e+01	1.117907e+03
1.910000e-06	7.441095e-06	1.696742e-08	5.061033e+01	1.113949e+03
1.920000e-06	7.366304e-06	1.700350e-08	5.010165e+01	1.109874e+03
1.930000e-06	7.288751e-06	1.688838e-08	4.957418e+01	1.105894e+03
1.940000e-06	7.208553e-06	1.691171e-08	4.902871e+01	1.102116e+03
1.950000e-06	7.125891e-06	1.677948e-08	4.846649e+01	1.098499e+03
1.960000e-06	7.040651e-06	1.671481e-08	4.788673e+01	1.094857e+03
1.970000e-06	6.952747e-06	1.665913e-08	4.728885e+01	1.090936e+03
1.980000e-06	6.862445e-06	1.652555e-08	4.667467e+01	1.086525e+03
1.990000e-06	6.769688e-06	1.652862e-08	4.604378e+01	1.081547e+03
2.000000e-06	6.674527e-06	1.642063e-08	4.539655e+01	1.076098e+03
2.010000e-06	6.577059e-06	1.639253e-08	4.473363e+01	1.070403e+03
2.020000e-06	6.477227e-06	1.627750e-08	4.405462e+01	1.064725e+03
2.030000e-06	6.374971e-06	1.619108e-08	4.335914e+01	1.059242e+03
2.040000e-06	6.270411e-06	1.608884e-08	4.264797e+01	1.053967e+03
2.050000e-06	6.163655e-06	1.598356e-08	4.192187e+01	1.048733e+03
2.060000e-06	6.054741e-06	1.591623e-08	4.118110e+01	1.043262e+03
2.070000e-06	5.943679e-06	1.581006e-08	4.042572e+01	1.037283e+03
2.080000e-06	5.830324e-06	1.574073e-08	3.965473e+01	1.030649e+03
2.090000e-06	5.714611e-06	1.562587e-08	3.886772e+01	1.023407e+03
2.100000e-06	5.596638e-06	1.551963e-08	3.806533e+01	1.015774e+03
2.110000e-06	5.476581e-06	1.538668e-08	3.724877e+01	1.008046e+03
2.120000e-06	5.354567e-06	1.526909e-08	3.641889e+01	1.000464e+03
2.130000e-06	5.230646e-06	1.514844e-08	3.557605e+01	9.930971e+02
2.140000e-06	5.104818e-06	1.503834e-08	3.472024e+01	9.858052e+02
2.150000e-06	4.977192e-06	1.491809e-08	3.385219e+01	9.782917e+02
2.160000e-06	4.847840e-06	1.479178e-08	3.297241e+01	9.702281e+02
2.170000e-06	4.716773e-06	1.465604e-08	3.208096e+01	9.613976e+02
2.180000e-06	4.583981e-06	1.451278e-08	3.117778e+01	9.517944e+02
2.190000e-06	4.449587e-06	1.437009e-08	3.026371e+01	9.416302e+02
2.200000e-06	4.313641e-06	1.421731e-08	2.933907e+01	9.312426e+02
2.210000e-06	4.175996e-06	1.406678e-08	2.840289e+01	9.209420e+02
2.220000e-06	4.036688e-06	1.390307e-08	2.745539e+01	9.108640e+02
2.230000e-06	3.895834e-06	1.374162e-08	2.649737e+01	9.008930e+02
2.240000e-06	3.753609e-06	1.356980e-08	2.553003e+01	8.906963e+02
2.250000e-06	3.610020e-06	1.339756e-08	2.455342e+01	8.798583e+02
2.260000e-06	3.465125e-06	1.321719e-08	2.356792e+01	8.680581e+02
2.270000e-06	3.319026e-06	1.303002e-08	2.257423e+01	8.552137e+02
2.280000e-06	3.171697e-06	1.283742e-08	2.157218e+01	8.415250e+02
2.290000e-06	3.023195e-06	1.263566e-08	2.056215e+01	8.273899e+02
2.300000e-06	2.873650e-06	1.242488e-08	1.954503e+01	8.132248e+02
2.310000e-06	2.723194e-06	1.220556e-08	1.852170e+01	7.992641e+02
2.320000e-06	2.571822e-06	1.198054e-08	1.749215e+01	7.854293e+02
2.330000e-06	2.419501e-06	1.174796e-08	1.645615e+01	7.713312e+02
2.340000e-06	2.266267e-06	1.150663e-08	1.541394e+01	7.564124e+02
2.350000e-06	2.112172e-06	1.125583e-08	1.436586e+01	7.401763e+02
2.360000e-06	1.957291e-06	1.099418e-08	1.331244e+01	7.224039e+02
2.370000e-06	1.801705e-06	1.072222e-08	1.225423e+01	7.032565e+02
2.380000e-06	1.645478e-06	1.043872e-08	1.119166e+01	6.832099e+02
2.390000e-06	1.488651e-06	1.014218e-08	1.012500e+01	6.628326e+02
2.400000e-06	1.331220e-06	9.826953e-09	9.054244e+00	6.424958e+02
2.410000e-06	1.173233e-06	9.492712e-09	7.979700e+00	6.221413e+02
2.420000e-06	1.014899e-06	9.144991e-09	6.902799e+00	6.012178e+02
2.430000e-06	8.563097e-07	8.784399e-09	5.824159e+00	5.788359e+02
2.440000e-06	6.974323e-07	8.402805e-09	4.743560e+00	5.540930e+02
2.450000e-06	5.383124e-07	7.996129e-09	3.661312e+00	5.264398e+02
2.460000e-06	3.789946e-07	7.564037e-09	2.577718e+00	4.959227e+02
2.470000e-06	2.195467e-07	7.103626e-09	1.493239e+00	4.631678e+02
2.480000e-06	6.004250e-08	6.605840e-09	4.083769e-01	4.290651e+02
2.490000e-06	-9.944863e-08	6.062662e-09	-6.763962e-01	3.942362e+02
2.500000e-06	-2.588643e-07	5.477678e-09	-1.760656e+00	3.584739e+02
2.510000e-06	-4.181319e-07	4.847985e-09	-2.843909e+00	3.203869e+02
2.520000e-06	-5.772483e-07	4.156358e-09	-3.926134e+00	2.774369e+02
2.530000e-06	-7.362195e-07	3.378078e-09	-5.007370e+00	2.264363e+02
2.540000e-06	-8.948949e-07	2.487901e-09	-6.086595e+00	1.644124e+02
2.550000e-06	-1.053252e-06	1.446505e-09	-7.163658e+00	8.959680e+01
2.560000e-06	-1.211280e-06	1.967323e-10	-8.238474e+00	2.231820e+00
2.570000e-06	-1.368800e-06	-1.293640e-09	-9.309842e+00	-9.508740e+01
2.580000e-06	-1.525795e-06	-2.960776e-09	-1.037764e+01	-1.976840e+02
2.590000e-06	-1.682263e-06	-4.634999e-09	-1.144185e+01	-2.996458e+02
2.600000e-06	-1.838130e-06	-6.131946e-09	-1.250197e+01	-3.950258e+02
2.610000e-06	-1.993266e-06	-7.366889e-09	-1.355713e+01	-4.790623e+02
2.620000e-06	-2.147593e-06	-8.355747e-09	-1.460678e+01	-5.490746e+02
2.630000e-06	-2.301185e-06	-9.155383e-09	-1.565142e+01	-6.047964e+02
2.640000e-06	-2.453952e-06	-9.819732e-09	-1.669047e+01	-6.480846e+02
2.650000e-06	-2.605740e-06	-1.038398e-08	-1.772284e+01	-6.821330e+02
2.660000e-06	-2.756523e-06	-1.087123e-08	-1.874839e+01	-7.104632e+02
2.670000e-06	-2.906349e-06	-1.130046e-08	-1.976743e+01	-7.360068e+02
2.680000e-06	-3.055232e-06	-1.168770e-08	-2.078005e+01	-7.605366e+02
2.690000e-06	-3.203023e-06	-1.204050e-08	-2.178524e+01	-7.845621e+02
2.700000e-06	-3.349555e-06	-1.236398e-08	-2.278188e+01	-8.076440e+02
2.710000e-06	-3.494918e-06	-1.266103e-08	-2.377056e+01	-8.289482e+02
2.720000e-06	-3.639065e-06	-1.293248e-08	-2.475097e+01	-8.478068e+02
2.730000e-06	-3.781833e-06	-1.318240e-08	-2.572200e+01	-8.640822e+02
2.740000e-06	-3.923250e-06	-1.341736e-08	-2.668384e+01	-8.782359e+02
2.750000e-06	-4.063221e-06	-1.364085e-08	-2.763585e+01	-8.911224e+02
2.760000e-06	-4.201650e-06	-1.385221e-08	-2.857737e+01	-9.036344e+02
2.770000e-06	-4.338522e-06	-1.405231e-08	-2.950830e+01	-9.163650e+02
2.780000e-06	-4.473742e-06	-1.424379e-08	-3.042799e+01	-9.294242e+02
2.790000e-06	-4.607359e-06	-1.442703e-08	-3.133678e+01	-9.424721e+02
2.800000e-06	-4.739366e-06	-1.459948e-08	-3.223463e+01	-9.549318e+02
2.810000e-06	-4.869639e-06	-1.475688e-08	-3.312067e+01	-9.662788e+02
2.820000e-06	-4.998216e-06	-1.490357e-08	-3.399519e+01	-9.762783e+02
2.830000e-06	-5.125016e-06	-1.504949e-08	-3.485761e+01	-9.850773e+02
2.840000e-06	-5.249972e-06	-1.519440e-08	-3.570749e+01	-9.931240e+02
2.850000e-06	-5.373121e-06	-1.532827e-08	-3.654508e+01	-1.000964e+03
2.860000e-06	-5.494412e-06	-1.544879e-08	-3.737004e+01	-1.009007e+03
2.870000e-06	-5.613675e-06	-1.556649e-08	-3.818121e+01	-1.017371e+03
2.880000e-06	-5.730730e-06	-1.568398e-08	-3.897735e+01	-1.025857e+03
2.890000e-06	-5.845431e-06	-1.579387e-08	-3.975749e+01	-1.034065e+03
2.900000e-06	-5.957737e-06	-1.589322e-08	-4.052133e+01	-1.041588e+03
2.910000e-06	-6.067777e-06	-1.599027e-08	-4.126977e+01	-1.048200e+03
2.920000e-06	-6.175703e-06	-1.609123e-08	-4.200382e+01	-1.053950e+03
2.930000e-06	-6.281618e-06	-1.618916e-08	-4.272420e+01	-1.059142e+03
2.940000e-06	-6.385304e-06	-1.627776e-08	-4.342942e+01	-1.064191e+03
