# Temperatura_=_69.64
# Concentracion g/m^3_=_13400.0
# C_Vs_to_Am_M_A/Vsm_=_65563218390.804596
# pendiente_HvsI_1/m_=_3716.3
# ordenada_HvsI_A/m_=_1297.0
# frecuencia_Hz_=_301425.78318349837

Tiempo_(s)	Campo_(V.s)	Magnetizacion_(V.s)	Campo_(kA/m)	Magnetizacion_(A/m)
0.000000e+00	-8.408083e-06	-1.783623e-08	-5.691948e+01	-1.170978e+03
1.000000e-08	-8.405193e-06	-1.784509e-08	-5.689991e+01	-1.170838e+03
2.000000e-08	-8.399536e-06	-1.783958e-08	-5.686162e+01	-1.170824e+03
3.000000e-08	-8.391237e-06	-1.782888e-08	-5.680544e+01	-1.170730e+03
4.000000e-08	-8.380001e-06	-1.782126e-08	-5.672937e+01	-1.170327e+03
5.000000e-08	-8.365794e-06	-1.780802e-08	-5.663320e+01	-1.169466e+03
6.000000e-08	-8.348612e-06	-1.778306e-08	-5.651688e+01	-1.168148e+03
7.000000e-08	-8.328755e-06	-1.774065e-08	-5.638245e+01	-1.166526e+03
8.000000e-08	-8.306409e-06	-1.773315e-08	-5.623119e+01	-1.164840e+03
9.000000e-08	-8.280980e-06	-1.786973e-08	-5.605904e+01	-1.163316e+03
1.000000e-07	-8.252140e-06	-1.783530e-08	-5.586380e+01	-1.162068e+03
1.100000e-07	-8.220125e-06	-1.770259e-08	-5.564707e+01	-1.161050e+03
1.200000e-07	-8.185067e-06	-1.769302e-08	-5.540975e+01	-1.160079e+03
1.300000e-07	-8.147213e-06	-1.769865e-08	-5.515349e+01	-1.158916e+03
1.400000e-07	-8.107000e-06	-1.757347e-08	-5.488126e+01	-1.157370e+03
1.500000e-07	-8.064367e-06	-1.741100e-08	-5.459265e+01	-1.155378e+03
1.600000e-07	-8.018898e-06	-1.766565e-08	-5.428484e+01	-1.153023e+03
1.700000e-07	-7.970524e-06	-1.751107e-08	-5.395737e+01	-1.150492e+03
1.800000e-07	-7.919213e-06	-1.745319e-08	-5.361001e+01	-1.147979e+03
1.900000e-07	-7.864849e-06	-1.759659e-08	-5.324200e+01	-1.145588e+03
2.000000e-07	-7.807575e-06	-1.734666e-08	-5.285427e+01	-1.143279e+03
2.100000e-07	-7.747490e-06	-1.736034e-08	-5.244752e+01	-1.140880e+03
2.200000e-07	-7.684707e-06	-1.725770e-08	-5.202250e+01	-1.138164e+03
2.300000e-07	-7.619178e-06	-1.725181e-08	-5.157890e+01	-1.134956e+03
2.400000e-07	-7.550756e-06	-1.724617e-08	-5.111571e+01	-1.131214e+03
2.500000e-07	-7.479551e-06	-1.715136e-08	-5.063367e+01	-1.127063e+03
2.600000e-07	-7.405425e-06	-1.716903e-08	-5.013187e+01	-1.122744e+03
2.700000e-07	-7.328388e-06	-1.704875e-08	-4.961036e+01	-1.118513e+03
2.800000e-07	-7.248582e-06	-1.700583e-08	-4.907010e+01	-1.114528e+03
2.900000e-07	-7.166083e-06	-1.687521e-08	-4.851161e+01	-1.110775e+03
3.000000e-07	-7.081164e-06	-1.683272e-08	-4.793674e+01	-1.107064e+03
3.100000e-07	-6.993858e-06	-1.682656e-08	-4.734572e+01	-1.103110e+03
3.200000e-07	-6.904064e-06	-1.672055e-08	-4.673785e+01	-1.098651e+03
3.300000e-07	-6.811761e-06	-1.670263e-08	-4.611299e+01	-1.093566e+03
3.400000e-07	-6.717057e-06	-1.657240e-08	-4.547188e+01	-1.087925e+03
3.500000e-07	-6.619913e-06	-1.649046e-08	-4.481425e+01	-1.081966e+03
3.600000e-07	-6.520332e-06	-1.639414e-08	-4.414013e+01	-1.075992e+03
3.700000e-07	-6.418432e-06	-1.630839e-08	-4.345031e+01	-1.070235e+03
3.800000e-07	-6.314157e-06	-1.622696e-08	-4.274441e+01	-1.064754e+03
3.900000e-07	-6.207582e-06	-1.614308e-08	-4.202294e+01	-1.059402e+03
4.000000e-07	-6.098830e-06	-1.608933e-08	-4.128673e+01	-1.053883e+03
4.100000e-07	-5.987886e-06	-1.596684e-08	-4.053568e+01	-1.047882e+03
4.200000e-07	-5.874618e-06	-1.586785e-08	-3.976890e+01	-1.041195e+03
4.300000e-07	-5.759009e-06	-1.573959e-08	-3.898627e+01	-1.033824e+03
4.400000e-07	-5.641239e-06	-1.563953e-08	-3.818901e+01	-1.025975e+03
4.500000e-07	-5.521371e-06	-1.553171e-08	-3.737755e+01	-1.017965e+03
4.600000e-07	-5.399473e-06	-1.542291e-08	-3.655235e+01	-1.010083e+03
4.700000e-07	-5.275676e-06	-1.530456e-08	-3.571429e+01	-1.002454e+03
4.800000e-07	-5.150033e-06	-1.518134e-08	-3.486374e+01	-9.949752e+02
4.900000e-07	-5.022579e-06	-1.506341e-08	-3.400092e+01	-9.873568e+02
5.000000e-07	-4.893323e-06	-1.492161e-08	-3.312591e+01	-9.792407e+02
5.100000e-07	-4.762243e-06	-1.478134e-08	-3.223855e+01	-9.703584e+02
5.200000e-07	-4.629356e-06	-1.463415e-08	-3.133895e+01	-9.606511e+02
5.300000e-07	-4.494839e-06	-1.449793e-08	-3.042833e+01	-9.502984e+02
5.400000e-07	-4.358739e-06	-1.434974e-08	-2.950698e+01	-9.396404e+02
5.500000e-07	-4.220985e-06	-1.419484e-08	-2.857444e+01	-9.290229e+02
5.600000e-07	-4.081686e-06	-1.403066e-08	-2.763144e+01	-9.186342e+02
5.700000e-07	-3.940755e-06	-1.386631e-08	-2.667739e+01	-9.084065e+02
5.800000e-07	-3.798159e-06	-1.369790e-08	-2.571207e+01	-8.980294e+02
5.900000e-07	-3.654086e-06	-1.351598e-08	-2.473675e+01	-8.870745e+02
6.000000e-07	-3.508725e-06	-1.333122e-08	-2.375271e+01	-8.751794e+02
6.100000e-07	-3.362175e-06	-1.313866e-08	-2.276063e+01	-8.622103e+02
6.200000e-07	-3.214445e-06	-1.294534e-08	-2.176055e+01	-8.483282e+02
6.300000e-07	-3.065596e-06	-1.273639e-08	-2.075290e+01	-8.339231e+02
6.400000e-07	-2.915676e-06	-1.251891e-08	-1.973800e+01	-8.194379e+02
6.500000e-07	-2.764747e-06	-1.230038e-08	-1.871627e+01	-8.051576e+02
6.600000e-07	-2.612835e-06	-1.207926e-08	-1.768788e+01	-7.910552e+02
6.700000e-07	-2.459946e-06	-1.184607e-08	-1.665289e+01	-7.767705e+02
6.800000e-07	-2.306131e-06	-1.159552e-08	-1.561162e+01	-7.617387e+02
6.900000e-07	-2.151520e-06	-1.133962e-08	-1.456496e+01	-7.454217e+02
7.000000e-07	-1.996138e-06	-1.107459e-08	-1.351309e+01	-7.275422e+02
7.100000e-07	-1.840014e-06	-1.079980e-08	-1.245618e+01	-7.082147e+02
7.200000e-07	-1.683282e-06	-1.050689e-08	-1.139517e+01	-6.879024e+02
7.300000e-07	-1.525961e-06	-1.020511e-08	-1.033017e+01	-6.672060e+02
7.400000e-07	-1.368046e-06	-9.894006e-09	-9.261143e+00	-6.465636e+02
7.500000e-07	-1.209630e-06	-9.568220e-09	-8.188729e+00	-6.259916e+02
7.600000e-07	-1.050757e-06	-9.220111e-09	-7.113216e+00	-6.049900e+02
7.700000e-07	-8.914471e-07	-8.847275e-09	-6.034753e+00	-5.826712e+02
7.800000e-07	-7.318802e-07	-8.460661e-09	-4.954547e+00	-5.580812e+02
7.900000e-07	-5.720691e-07	-8.053914e-09	-3.872687e+00	-5.305854e+02
8.000000e-07	-4.119765e-07	-7.622026e-09	-2.788922e+00	-5.001483e+02
8.100000e-07	-2.517321e-07	-7.154682e-09	-1.704129e+00	-4.673585e+02
8.200000e-07	-9.142235e-08	-6.657812e-09	-6.188940e-01	-4.331390e+02
8.300000e-07	6.894425e-08	-6.126902e-09	4.667260e-01	-3.982141e+02
8.400000e-07	2.292631e-07	-5.550997e-09	1.552023e+00	-3.625160e+02
8.500000e-07	3.894524e-07	-4.918634e-09	2.636442e+00	-3.247738e+02
8.600000e-07	5.495048e-07	-4.217701e-09	3.719935e+00	-2.824920e+02
8.700000e-07	7.093504e-07	-3.438005e-09	4.802029e+00	-2.324082e+02
8.800000e-07	8.689153e-07	-2.548556e-09	5.882221e+00	-1.713540e+02
8.900000e-07	1.028229e-06	-1.503486e-09	6.960715e+00	-9.728406e+01
9.000000e-07	1.187195e-06	-2.428700e-10	8.036854e+00	-1.015513e+01
9.100000e-07	1.345693e-06	1.260821e-09	9.109824e+00	8.764780e+01
9.200000e-07	1.503670e-06	2.951260e-09	1.017927e+01	1.915146e+02
9.300000e-07	1.661063e-06	4.653059e-09	1.124475e+01	2.954274e+02
9.400000e-07	1.817891e-06	6.171159e-09	1.230642e+01	3.931827e+02
9.500000e-07	1.974085e-06	7.414258e-09	1.336379e+01	4.796763e+02
9.600000e-07	2.129513e-06	8.402882e-09	1.441598e+01	5.518899e+02
9.700000e-07	2.284096e-06	9.203396e-09	1.546245e+01	6.093095e+02
9.800000e-07	2.437920e-06	9.871741e-09	1.650378e+01	6.536900e+02
9.900000e-07	2.590990e-06	1.044415e-08	1.754000e+01	6.882793e+02
1.000000e-06	2.743104e-06	1.093343e-08	1.856975e+01	7.167721e+02
1.010000e-06	2.894087e-06	1.135571e-08	1.959185e+01	7.423255e+02
1.020000e-06	3.043942e-06	1.173369e-08	2.060632e+01	7.669147e+02
1.030000e-06	3.192736e-06	1.208245e-08	2.161359e+01	7.911723e+02
1.040000e-06	3.340418e-06	1.240484e-08	2.261334e+01	8.146790e+02
1.050000e-06	3.486907e-06	1.270016e-08	2.360502e+01	8.365326e+02
1.060000e-06	3.632100e-06	1.297838e-08	2.458792e+01	8.559511e+02
1.070000e-06	3.775988e-06	1.324225e-08	2.556198e+01	8.726894e+02
1.080000e-06	3.918571e-06	1.348745e-08	2.652722e+01	8.871492e+02
1.090000e-06	4.059622e-06	1.371048e-08	2.748207e+01	9.001919e+02
1.100000e-06	4.199059e-06	1.391818e-08	2.842601e+01	9.127733e+02
1.110000e-06	4.336945e-06	1.411660e-08	2.935944e+01	9.255754e+02
1.120000e-06	4.473202e-06	1.430605e-08	3.028185e+01	9.387858e+02
1.130000e-06	4.607853e-06	1.448583e-08	3.119338e+01	9.521020e+02
1.140000e-06	4.740858e-06	1.466021e-08	3.209378e+01	9.649337e+02
1.150000e-06	4.872131e-06	1.483462e-08	3.298245e+01	9.767033e+02
1.160000e-06	5.001689e-06	1.500268e-08	3.385950e+01	9.871077e+02
1.170000e-06	5.129467e-06	1.515668e-08	3.472451e+01	9.962389e+02
1.180000e-06	5.255484e-06	1.529405e-08	3.557760e+01	1.004524e+03
1.190000e-06	5.379670e-06	1.542731e-08	3.641829e+01	1.012526e+03
1.200000e-06	5.501945e-06	1.556068e-08	3.724605e+01	1.020699e+03
1.210000e-06	5.622253e-06	1.569066e-08	3.806048e+01	1.029214e+03
1.220000e-06	5.740435e-06	1.581284e-08	3.886053e+01	1.037908e+03
1.230000e-06	5.856424e-06	1.593005e-08	3.964573e+01	1.046392e+03
1.240000e-06	5.970158e-06	1.604406e-08	4.041567e+01	1.054236e+03
1.250000e-06	6.081628e-06	1.615058e-08	4.117027e+01	1.061176e+03
1.260000e-06	6.190944e-06	1.624728e-08	4.191030e+01	1.067223e+03
1.270000e-06	6.298148e-06	1.633816e-08	4.263603e+01	1.072653e+03
1.280000e-06	6.403104e-06	1.643115e-08	4.334654e+01	1.077882e+03
1.290000e-06	6.505741e-06	1.652101e-08	4.404135e+01	1.083289e+03
1.300000e-06	6.605997e-06	1.660537e-08	4.472005e+01	1.089052e+03
1.310000e-06	6.703820e-06	1.668703e-08	4.538228e+01	1.095093e+03
1.320000e-06	6.799245e-06	1.676781e-08	4.602826e+01	1.101122e+03
1.330000e-06	6.892264e-06	1.684564e-08	4.665797e+01	1.106777e+03
1.340000e-06	6.982855e-06	1.691682e-08	4.727124e+01	1.111788e+03
1.350000e-06	7.071026e-06	1.698398e-08	4.786811e+01	1.116085e+03
1.360000e-06	7.156787e-06	1.705124e-08	4.844869e+01	1.119825e+03
1.370000e-06	7.240026e-06	1.711938e-08	4.901219e+01	1.123314e+03
1.380000e-06	7.320652e-06	1.718424e-08	4.955799e+01	1.126863e+03
1.390000e-06	7.398611e-06	1.724409e-08	5.008574e+01	1.130661e+03
1.400000e-06	7.473779e-06	1.730016e-08	5.059460e+01	1.134694e+03
1.410000e-06	7.546167e-06	1.735357e-08	5.108464e+01	1.138766e+03
1.420000e-06	7.615915e-06	1.740371e-08	5.155681e+01	1.142590e+03
1.430000e-06	7.682933e-06	1.745158e-08	5.201050e+01	1.145925e+03
1.440000e-06	7.747171e-06	1.749767e-08	5.244536e+01	1.148679e+03
1.450000e-06	7.808805e-06	1.754307e-08	5.286260e+01	1.150945e+03
1.460000e-06	7.867727e-06	1.758917e-08	5.326148e+01	1.152953e+03
1.470000e-06	7.923791e-06	1.763026e-08	5.364101e+01	1.154964e+03
1.480000e-06	7.976850e-06	1.766455e-08	5.400019e+01	1.157152e+03
1.490000e-06	8.026650e-06	1.769326e-08	5.433732e+01	1.159530e+03
1.500000e-06	8.073459e-06	1.772135e-08	5.465420e+01	1.161951e+03
1.510000e-06	8.117521e-06	1.774941e-08	5.495249e+01	1.164178e+03
1.520000e-06	8.158622e-06	1.777415e-08	5.523072e+01	1.165994e+03
1.530000e-06	8.196847e-06	1.779653e-08	5.548949e+01	1.167306e+03
1.540000e-06	8.232267e-06	1.781822e-08	5.572927e+01	1.168179e+03
1.550000e-06	8.264746e-06	1.784009e-08	5.594914e+01	1.168813e+03
1.560000e-06	8.294386e-06	1.786140e-08	5.614979e+01	1.169446e+03
1.570000e-06	8.321095e-06	1.787765e-08	5.633060e+01	1.170253e+03
1.580000e-06	8.344772e-06	1.788798e-08	5.649089e+01	1.171265e+03
1.590000e-06	8.365588e-06	1.789763e-08	5.663180e+01	1.172360e+03
1.600000e-06	8.383417e-06	1.790647e-08	5.675250e+01	1.173320e+03
1.610000e-06	8.398154e-06	1.791189e-08	5.685226e+01	1.173935e+03
1.620000e-06	8.409759e-06	1.791444e-08	5.693082e+01	1.174093e+03
1.630000e-06	8.418175e-06	1.791809e-08	5.698780e+01	1.173837e+03
1.640000e-06	8.423638e-06	1.792418e-08	5.702478e+01	1.173343e+03
1.650000e-06	8.426108e-06	1.792916e-08	5.704150e+01	1.172838e+03
1.660000e-06	8.425636e-06	1.793185e-08	5.703830e+01	1.172502e+03
1.670000e-06	8.422477e-06	1.790834e-08	5.701692e+01	1.172382e+03
1.680000e-06	8.416497e-06	1.789878e-08	5.697644e+01	1.172370e+03
1.690000e-06	8.407670e-06	1.789348e-08	5.691668e+01	1.172253e+03
1.700000e-06	8.395932e-06	1.787780e-08	5.683722e+01	1.171805e+03
1.710000e-06	8.381244e-06	1.786760e-08	5.673779e+01	1.170892e+03
1.720000e-06	8.363982e-06	1.787456e-08	5.662093e+01	1.169532e+03
1.730000e-06	8.344250e-06	1.790675e-08	5.648735e+01	1.167890e+03
1.740000e-06	8.321628e-06	1.772281e-08	5.633421e+01	1.166212e+03
1.750000e-06	8.295400e-06	1.764879e-08	5.615666e+01	1.164714e+03
1.760000e-06	8.265229e-06	1.774415e-08	5.595241e+01	1.163495e+03
1.770000e-06	8.231813e-06	1.771393e-08	5.572620e+01	1.162492e+03
1.780000e-06	8.195847e-06	1.764537e-08	5.548272e+01	1.161511e+03
1.790000e-06	8.157397e-06	1.779705e-08	5.522243e+01	1.160315e+03
1.800000e-06	8.116892e-06	1.780009e-08	5.494823e+01	1.158721e+03
1.810000e-06	8.074285e-06	1.751333e-08	5.465980e+01	1.156683e+03
1.820000e-06	8.028681e-06	1.773588e-08	5.435107e+01	1.154299e+03
1.830000e-06	7.980159e-06	1.755670e-08	5.402260e+01	1.151761e+03
1.840000e-06	7.928509e-06	1.752807e-08	5.367295e+01	1.149258e+03
1.850000e-06	7.873555e-06	1.760699e-08	5.330093e+01	1.146880e+03
1.860000e-06	7.815938e-06	1.739233e-08	5.291088e+01	1.144570e+03
1.870000e-06	7.755463e-06	1.760535e-08	5.250149e+01	1.142148e+03
1.880000e-06	7.692224e-06	1.734496e-08	5.207339e+01	1.139386e+03
1.890000e-06	7.626217e-06	1.735310e-08	5.162655e+01	1.136119e+03
1.900000e-06	7.557259e-06	1.728685e-08	5.115972e+01	1.132324e+03
1.910000e-06	7.485422e-06	1.712527e-08	5.067342e+01	1.128142e+03
1.920000e-06	7.410551e-06	1.724039e-08	5.016657e+01	1.123820e+03
1.930000e-06	7.332947e-06	1.704935e-08	4.964122e+01	1.119610e+03
1.940000e-06	7.252696e-06	1.715823e-08	4.909795e+01	1.115654e+03
1.950000e-06	7.169950e-06	1.696897e-08	4.853780e+01	1.111916e+03
1.960000e-06	7.084629e-06	1.690931e-08	4.796021e+01	1.108193e+03
1.970000e-06	6.996504e-06	1.685980e-08	4.736363e+01	1.104195e+03
1.980000e-06	6.905978e-06	1.667602e-08	4.675081e+01	1.099672e+03
1.990000e-06	6.813061e-06	1.673328e-08	4.612179e+01	1.094519e+03
2.000000e-06	6.717728e-06	1.658306e-08	4.547643e+01	1.088830e+03
2.010000e-06	6.620085e-06	1.660588e-08	4.481542e+01	1.082855e+03
2.020000e-06	6.520098e-06	1.645067e-08	4.413855e+01	1.076895e+03
2.030000e-06	6.417623e-06	1.638114e-08	4.344483e+01	1.071169e+03
2.040000e-06	6.312812e-06	1.626139e-08	4.273530e+01	1.065712e+03
2.050000e-06	6.205841e-06	1.614625e-08	4.201115e+01	1.060357e+03
2.060000e-06	6.096661e-06	1.608743e-08	4.127204e+01	1.054800e+03
2.070000e-06	5.985301e-06	1.596387e-08	4.051818e+01	1.048731e+03
2.080000e-06	5.871664e-06	1.591301e-08	3.974890e+01	1.041966e+03
2.090000e-06	5.755664e-06	1.577966e-08	3.896362e+01	1.034531e+03
2.100000e-06	5.637326e-06	1.568648e-08	3.816252e+01	1.026648e+03
2.110000e-06	5.516935e-06	1.554041e-08	3.734752e+01	1.018640e+03
2.120000e-06	5.394630e-06	1.543350e-08	3.651956e+01	1.010783e+03
2.130000e-06	5.270407e-06	1.529631e-08	3.567862e+01	1.003178e+03
2.140000e-06	5.144287e-06	1.518614e-08	3.482484e+01	9.957000e+02
2.150000e-06	5.016298e-06	1.505499e-08	3.395840e+01	9.880447e+02
2.160000e-06	4.886578e-06	1.492952e-08	3.308025e+01	9.798560e+02
2.170000e-06	4.755084e-06	1.479254e-08	3.219008e+01	9.708833e+02
2.180000e-06	4.621847e-06	1.464797e-08	3.128812e+01	9.610939e+02
2.190000e-06	4.486990e-06	1.450233e-08	3.037519e+01	9.506902e+02
2.200000e-06	4.350534e-06	1.434330e-08	2.945143e+01	9.400211e+02
2.210000e-06	4.212410e-06	1.419528e-08	2.851639e+01	9.294227e+02
2.220000e-06	4.072605e-06	1.402334e-08	2.756996e+01	9.190589e+02
2.230000e-06	3.931278e-06	1.386144e-08	2.661323e+01	9.088331e+02
2.240000e-06	3.788562e-06	1.368132e-08	2.564710e+01	8.984145e+02
2.250000e-06	3.644486e-06	1.350974e-08	2.467176e+01	8.873729e+02
2.260000e-06	3.499181e-06	1.332451e-08	2.368811e+01	8.753635e+02
2.270000e-06	3.352600e-06	1.313569e-08	2.269581e+01	8.622834e+02
2.280000e-06	3.204753e-06	1.293599e-08	2.169494e+01	8.483235e+02
2.290000e-06	3.055768e-06	1.273153e-08	2.068637e+01	8.338892e+02
2.300000e-06	2.905711e-06	1.251876e-08	1.967055e+01	8.194165e+02
2.310000e-06	2.754682e-06	1.230027e-08	1.864813e+01	8.051624e+02
2.320000e-06	2.602673e-06	1.207386e-08	1.761909e+01	7.910625e+02
2.330000e-06	2.449717e-06	1.183592e-08	1.658364e+01	7.767260e+02
2.340000e-06	2.295827e-06	1.158795e-08	1.554186e+01	7.615789e+02
2.350000e-06	2.141052e-06	1.133040e-08	1.449410e+01	7.451009e+02
2.360000e-06	1.985490e-06	1.106626e-08	1.344100e+01	7.270532e+02
2.370000e-06	1.829222e-06	1.079184e-08	1.238313e+01	7.075929e+02
2.380000e-06	1.672314e-06	1.050367e-08	1.132092e+01	6.872106e+02
2.390000e-06	1.514849e-06	1.020214e-08	1.025495e+01	6.665042e+02
2.400000e-06	1.356839e-06	9.887405e-09	9.185278e+00	6.458771e+02
2.410000e-06	1.198288e-06	9.553367e-09	8.111948e+00	6.252914e+02
2.420000e-06	1.039290e-06	9.199967e-09	7.035590e+00	6.041950e+02
2.430000e-06	8.799698e-07	8.830139e-09	5.957056e+00	5.816756e+02
2.440000e-06	7.203843e-07	8.444678e-09	4.876724e+00	5.567952e+02
2.450000e-06	5.605595e-07	8.039136e-09	3.794772e+00	5.289736e+02
2.460000e-06	4.005205e-07	7.606506e-09	2.711369e+00	4.982465e+02
2.470000e-06	2.403319e-07	7.141376e-09	1.626954e+00	4.652573e+02
2.480000e-06	8.008301e-08	6.640894e-09	5.421311e-01	4.309364e+02
2.490000e-06	-8.021002e-08	6.098282e-09	-5.429909e-01	3.959503e+02
2.500000e-06	-2.404648e-07	5.514347e-09	-1.627854e+00	3.601166e+02
2.510000e-06	-4.005861e-07	4.881172e-09	-2.711814e+00	3.220260e+02
2.520000e-06	-5.605496e-07	4.182768e-09	-3.794705e+00	2.790705e+02
2.530000e-06	-7.203360e-07	3.398651e-09	-4.876397e+00	2.279513e+02
2.540000e-06	-8.798374e-07	2.505249e-09	-5.956159e+00	1.655707e+02
2.550000e-06	-1.038973e-06	1.460011e-09	-7.033446e+00	9.006189e+01
2.560000e-06	-1.197770e-06	2.011150e-10	-8.108443e+00	1.631475e+00
2.570000e-06	-1.356114e-06	-1.308550e-09	-9.180370e+00	-9.707570e+01
2.580000e-06	-1.513873e-06	-3.007784e-09	-1.024833e+01	-2.012501e+02
2.590000e-06	-1.671064e-06	-4.716438e-09	-1.131246e+01	-3.047912e+02
2.600000e-06	-1.827761e-06	-6.238859e-09	-1.237324e+01	-4.015542e+02
2.610000e-06	-1.983861e-06	-7.483902e-09	-1.342997e+01	-4.866196e+02
2.620000e-06	-2.139114e-06	-8.473923e-09	-1.448098e+01	-5.572289e+02
2.630000e-06	-2.293488e-06	-9.269663e-09	-1.552603e+01	-6.131336e+02
2.640000e-06	-2.447033e-06	-9.929723e-09	-1.656547e+01	-6.562932e+02
2.650000e-06	-2.599701e-06	-1.049315e-08	-1.759897e+01	-6.900550e+02
2.660000e-06	-2.751431e-06	-1.098159e-08	-1.862612e+01	-7.180994e+02
2.670000e-06	-2.902095e-06	-1.141290e-08	-1.964606e+01	-7.434796e+02
2.680000e-06	-3.051712e-06	-1.180133e-08	-2.065891e+01	-7.680259e+02
2.690000e-06	-3.200323e-06	-1.215636e-08	-2.166495e+01	-7.922373e+02
2.700000e-06	-3.347746e-06	-1.248051e-08	-2.266295e+01	-8.156131e+02
2.710000e-06	-3.493900e-06	-1.277655e-08	-2.365236e+01	-8.372367e+02
2.720000e-06	-3.638855e-06	-1.304841e-08	-2.463364e+01	-8.563685e+02
2.730000e-06	-3.782539e-06	-1.330150e-08	-2.560633e+01	-8.728333e+02
2.740000e-06	-3.924804e-06	-1.354140e-08	-2.656941e+01	-8.870955e+02
2.750000e-06	-4.065613e-06	-1.376974e-08	-2.752263e+01	-9.000456e+02
2.760000e-06	-4.204846e-06	-1.398669e-08	-2.846518e+01	-9.126261e+02
2.770000e-06	-4.342470e-06	-1.419098e-08	-2.939685e+01	-9.254729e+02
2.780000e-06	-4.478511e-06	-1.438354e-08	-3.031779e+01	-9.387169e+02
2.790000e-06	-4.612932e-06	-1.456516e-08	-3.122777e+01	-9.520122e+02
2.800000e-06	-4.745738e-06	-1.473630e-08	-3.212682e+01	-9.647552e+02
2.810000e-06	-4.876817e-06	-1.489780e-08	-3.301417e+01	-9.763868e+02
2.820000e-06	-5.006159e-06	-1.505290e-08	-3.388976e+01	-9.866438e+02
2.830000e-06	-5.133792e-06	-1.520571e-08	-3.475379e+01	-9.956600e+02
2.840000e-06	-5.259636e-06	-1.535280e-08	-3.560571e+01	-1.003888e+03
2.850000e-06	-5.383608e-06	-1.548897e-08	-3.644495e+01	-1.011891e+03
2.860000e-06	-5.505637e-06	-1.561495e-08	-3.727104e+01	-1.020099e+03
2.870000e-06	-5.625594e-06	-1.573463e-08	-3.808310e+01	-1.028647e+03
2.880000e-06	-5.743410e-06	-1.585098e-08	-3.888067e+01	-1.037340e+03
2.890000e-06	-5.859012e-06	-1.596278e-08	-3.966325e+01	-1.045775e+03
2.900000e-06	-5.972247e-06	-1.606825e-08	-4.042981e+01	-1.053531e+03
2.910000e-06	-6.083133e-06	-1.617111e-08	-4.118047e+01	-1.060370e+03
2.920000e-06	-6.191807e-06	-1.627294e-08	-4.191615e+01	-1.066334e+03
2.930000e-06	-6.298380e-06	-1.637124e-08	-4.263760e+01	-1.071722e+03
2.940000e-06	-6.402764e-06	-1.646381e-08	-4.334424e+01	-1.076955e+03
