# Temperatura_=_63.64
# Concentracion g/m^3_=_13400.0
# C_Vs_to_Am_M_A/Vsm_=_65563218390.804596
# pendiente_HvsI_1/m_=_3716.3
# ordenada_HvsI_A/m_=_1297.0
# frecuencia_Hz_=_301415.854544678

Tiempo_(s)	Campo_(V.s)	Magnetizacion_(V.s)	Campo_(kA/m)	Magnetizacion_(A/m)
0.000000e+00	-8.283351e-06	-1.743658e-08	-5.692221e+01	-1.143055e+03
1.000000e-08	-8.280040e-06	-1.743892e-08	-5.689946e+01	-1.142811e+03
2.000000e-08	-8.274031e-06	-1.743331e-08	-5.685816e+01	-1.142720e+03
3.000000e-08	-8.265404e-06	-1.742397e-08	-5.679888e+01	-1.142626e+03
4.000000e-08	-8.253913e-06	-1.741440e-08	-5.671992e+01	-1.142317e+03
5.000000e-08	-8.239370e-06	-1.740199e-08	-5.661998e+01	-1.141626e+03
6.000000e-08	-8.221905e-06	-1.738261e-08	-5.649996e+01	-1.140500e+03
7.000000e-08	-8.201908e-06	-1.735360e-08	-5.636254e+01	-1.139030e+03
8.000000e-08	-8.179377e-06	-1.733679e-08	-5.620772e+01	-1.137412e+03
9.000000e-08	-8.153750e-06	-1.739783e-08	-5.603161e+01	-1.135866e+03
1.000000e-07	-8.124806e-06	-1.739402e-08	-5.583271e+01	-1.134544e+03
1.100000e-07	-8.092766e-06	-1.731909e-08	-5.561254e+01	-1.133467e+03
1.200000e-07	-8.057790e-06	-1.728490e-08	-5.537218e+01	-1.132524e+03
1.300000e-07	-8.020168e-06	-1.727108e-08	-5.511365e+01	-1.131518e+03
1.400000e-07	-7.980189e-06	-1.719898e-08	-5.483892e+01	-1.130255e+03
1.500000e-07	-7.937785e-06	-1.711254e-08	-5.454752e+01	-1.128621e+03
1.600000e-07	-7.892605e-06	-1.721016e-08	-5.423705e+01	-1.126621e+03
1.700000e-07	-7.844617e-06	-1.711742e-08	-5.390728e+01	-1.124365e+03
1.800000e-07	-7.793704e-06	-1.709134e-08	-5.355742e+01	-1.122004e+03
1.900000e-07	-7.739673e-06	-1.713975e-08	-5.318612e+01	-1.119649e+03
2.000000e-07	-7.682825e-06	-1.699652e-08	-5.279547e+01	-1.117318e+03
2.100000e-07	-7.623237e-06	-1.697411e-08	-5.238599e+01	-1.114919e+03
2.200000e-07	-7.560897e-06	-1.688966e-08	-5.195759e+01	-1.112298e+03
2.300000e-07	-7.495864e-06	-1.685983e-08	-5.151069e+01	-1.109311e+03
2.400000e-07	-7.428029e-06	-1.683725e-08	-5.104454e+01	-1.105899e+03
2.500000e-07	-7.357418e-06	-1.676741e-08	-5.055931e+01	-1.102123e+03
2.600000e-07	-7.284029e-06	-1.676277e-08	-5.005499e+01	-1.098145e+03
2.700000e-07	-7.207834e-06	-1.669796e-08	-4.953139e+01	-1.094160e+03
2.800000e-07	-7.128826e-06	-1.663860e-08	-4.898845e+01	-1.090306e+03
2.900000e-07	-7.047005e-06	-1.653634e-08	-4.842619e+01	-1.086604e+03
3.000000e-07	-6.962744e-06	-1.647594e-08	-4.784716e+01	-1.082942e+03
3.100000e-07	-6.876240e-06	-1.643432e-08	-4.725271e+01	-1.079116e+03
3.200000e-07	-6.787360e-06	-1.634949e-08	-4.664194e+01	-1.074921e+03
3.300000e-07	-6.696015e-06	-1.631723e-08	-4.601423e+01	-1.070242e+03
3.400000e-07	-6.602272e-06	-1.622466e-08	-4.537003e+01	-1.065098e+03
3.500000e-07	-6.506252e-06	-1.615382e-08	-4.471020e+01	-1.059645e+03
3.600000e-07	-6.407823e-06	-1.607974e-08	-4.403380e+01	-1.054097e+03
3.700000e-07	-6.306967e-06	-1.599126e-08	-4.334073e+01	-1.048635e+03
3.800000e-07	-6.203853e-06	-1.590358e-08	-4.263215e+01	-1.043319e+03
3.900000e-07	-6.098555e-06	-1.581324e-08	-4.190855e+01	-1.038057e+03
4.000000e-07	-5.991023e-06	-1.573901e-08	-4.116961e+01	-1.032643e+03
4.100000e-07	-5.881280e-06	-1.562935e-08	-4.041546e+01	-1.026841e+03
4.200000e-07	-5.769455e-06	-1.553573e-08	-3.964702e+01	-1.020491e+03
4.300000e-07	-5.655488e-06	-1.543231e-08	-3.886384e+01	-1.013583e+03
4.400000e-07	-5.539180e-06	-1.534267e-08	-3.806459e+01	-1.006260e+03
4.500000e-07	-5.420705e-06	-1.524477e-08	-3.725045e+01	-9.987541e+02
4.600000e-07	-5.300334e-06	-1.513452e-08	-3.642327e+01	-9.912820e+02
4.700000e-07	-5.178067e-06	-1.501726e-08	-3.558307e+01	-9.839394e+02
4.800000e-07	-5.053836e-06	-1.489409e-08	-3.472937e+01	-9.766505e+02
4.900000e-07	-4.927775e-06	-1.477124e-08	-3.386309e+01	-9.691927e+02
5.000000e-07	-4.800077e-06	-1.463528e-08	-3.298556e+01	-9.612901e+02
5.100000e-07	-4.670716e-06	-1.450346e-08	-3.209661e+01	-9.527347e+02
5.200000e-07	-4.539670e-06	-1.436891e-08	-3.119608e+01	-9.434816e+02
5.300000e-07	-4.406935e-06	-1.423728e-08	-3.028394e+01	-9.336730e+02
5.400000e-07	-4.272562e-06	-1.409471e-08	-2.936054e+01	-9.235766e+02
5.500000e-07	-4.136667e-06	-1.394463e-08	-2.842669e+01	-9.134630e+02
5.600000e-07	-3.999303e-06	-1.378777e-08	-2.748274e+01	-9.034748e+02
5.700000e-07	-3.860448e-06	-1.362800e-08	-2.652854e+01	-8.935472e+02
5.800000e-07	-3.720021e-06	-1.346184e-08	-2.556355e+01	-8.834195e+02
5.900000e-07	-3.578074e-06	-1.328303e-08	-2.458810e+01	-8.727372e+02
6.000000e-07	-3.434735e-06	-1.310110e-08	-2.360310e+01	-8.612033e+02
6.100000e-07	-3.290112e-06	-1.291682e-08	-2.260926e+01	-8.487121e+02
6.200000e-07	-3.144214e-06	-1.273353e-08	-2.160667e+01	-8.354035e+02
6.300000e-07	-2.997141e-06	-1.253803e-08	-2.059600e+01	-8.216067e+02
6.400000e-07	-2.849077e-06	-1.233170e-08	-1.957852e+01	-8.076922e+02
6.500000e-07	-2.700058e-06	-1.212042e-08	-1.855448e+01	-7.938924e+02
6.600000e-07	-2.550155e-06	-1.190126e-08	-1.752437e+01	-7.801722e+02
6.700000e-07	-2.399430e-06	-1.166821e-08	-1.648860e+01	-7.662102e+02
6.800000e-07	-2.247889e-06	-1.142247e-08	-1.544723e+01	-7.515094e+02
6.900000e-07	-2.095546e-06	-1.117435e-08	-1.440034e+01	-7.355967e+02
7.000000e-07	-1.942401e-06	-1.091985e-08	-1.334795e+01	-7.182263e+02
7.100000e-07	-1.788554e-06	-1.065432e-08	-1.229073e+01	-6.994940e+02
7.200000e-07	-1.634136e-06	-1.037336e-08	-1.122959e+01	-6.798024e+02
7.300000e-07	-1.479174e-06	-1.008100e-08	-1.016471e+01	-6.596765e+02
7.400000e-07	-1.323547e-06	-9.774333e-09	-9.095261e+00	-6.395007e+02
7.500000e-07	-1.167285e-06	-9.450288e-09	-8.021447e+00	-6.192878e+02
7.600000e-07	-1.010482e-06	-9.108510e-09	-6.943913e+00	-5.985890e+02
7.700000e-07	-8.532159e-07	-8.748137e-09	-5.863199e+00	-5.766037e+02
7.800000e-07	-6.956985e-07	-8.371672e-09	-4.780758e+00	-5.524596e+02
7.900000e-07	-5.379944e-07	-7.971533e-09	-3.697034e+00	-5.255584e+02
8.000000e-07	-3.800987e-07	-7.543579e-09	-2.611994e+00	-4.958325e+02
8.100000e-07	-2.220602e-07	-7.084285e-09	-1.525972e+00	-4.637783e+02
8.200000e-07	-6.398834e-08	-6.595288e-09	-4.397203e-01	-4.302095e+02
8.300000e-07	9.408752e-08	-6.072261e-09	6.465583e-01	-3.957826e+02
8.400000e-07	2.521503e-07	-5.506970e-09	1.732747e+00	-3.604591e+02
8.500000e-07	4.101298e-07	-4.888299e-09	2.818364e+00	-3.231167e+02
8.600000e-07	5.679724e-07	-4.203918e-09	3.903040e+00	-2.815047e+02
8.700000e-07	7.255944e-07	-3.440260e-09	4.986199e+00	-2.326329e+02
8.800000e-07	8.829630e-07	-2.568864e-09	6.067618e+00	-1.735371e+02
8.900000e-07	1.040016e-06	-1.550108e-09	7.146867e+00	-1.022203e+02
9.000000e-07	1.196668e-06	-3.362862e-10	8.223364e+00	-1.848192e+01
9.100000e-07	1.352807e-06	1.100268e-09	9.296332e+00	7.564429e+01
9.200000e-07	1.508333e-06	2.714079e-09	1.036509e+01	1.760186e+02
9.300000e-07	1.663228e-06	4.357613e-09	1.142951e+01	2.770956e+02
9.400000e-07	1.817484e-06	5.856407e-09	1.248954e+01	3.730215e+02
9.500000e-07	1.971084e-06	7.109752e-09	1.354506e+01	4.588283e+02
9.600000e-07	2.123959e-06	8.117555e-09	1.459559e+01	5.313894e+02
9.700000e-07	2.276015e-06	8.932371e-09	1.564050e+01	5.898790e+02
9.800000e-07	2.427277e-06	9.608676e-09	1.667996e+01	6.356328e+02
9.900000e-07	2.577732e-06	1.018485e-08	1.771387e+01	6.714923e+02
1.000000e-06	2.727300e-06	1.068103e-08	1.874168e+01	7.008638e+02
1.010000e-06	2.875956e-06	1.111513e-08	1.976323e+01	7.267915e+02
1.020000e-06	3.023544e-06	1.150057e-08	2.077744e+01	7.513115e+02
1.030000e-06	3.170001e-06	1.184822e-08	2.178387e+01	7.752343e+02
1.040000e-06	3.315363e-06	1.216558e-08	2.278279e+01	7.983520e+02
1.050000e-06	3.459544e-06	1.245632e-08	2.377358e+01	8.199260e+02
1.060000e-06	3.602461e-06	1.272869e-08	2.475569e+01	8.392403e+02
1.070000e-06	3.744047e-06	1.298640e-08	2.572865e+01	8.560128e+02
1.080000e-06	3.884209e-06	1.322905e-08	2.669182e+01	8.705402e+02
1.090000e-06	4.022822e-06	1.345286e-08	2.764436e+01	8.835660e+02
1.100000e-06	4.159879e-06	1.365923e-08	2.858620e+01	8.959693e+02
1.110000e-06	4.295423e-06	1.385438e-08	2.951764e+01	9.084249e+02
1.120000e-06	4.429409e-06	1.404098e-08	3.043837e+01	9.211802e+02
1.130000e-06	4.561827e-06	1.421761e-08	3.134834e+01	9.340279e+02
1.140000e-06	4.692549e-06	1.438557e-08	3.224665e+01	9.464660e+02
1.150000e-06	4.821567e-06	1.454977e-08	3.313324e+01	9.579614e+02
1.160000e-06	4.948950e-06	1.470993e-08	3.400860e+01	9.681973e+02
1.170000e-06	5.074677e-06	1.486082e-08	3.487258e+01	9.772050e+02
1.180000e-06	5.198653e-06	1.500016e-08	3.572453e+01	9.853333e+02
1.190000e-06	5.320669e-06	1.513166e-08	3.656301e+01	9.930851e+02
1.200000e-06	5.440737e-06	1.525881e-08	3.738811e+01	1.000899e+03
1.210000e-06	5.558842e-06	1.538232e-08	3.819971e+01	1.008974e+03
1.220000e-06	5.674750e-06	1.549913e-08	3.899622e+01	1.017212e+03
1.230000e-06	5.788414e-06	1.560858e-08	3.977730e+01	1.025289e+03
1.240000e-06	5.899950e-06	1.571170e-08	4.054376e+01	1.032822e+03
1.250000e-06	6.009468e-06	1.581118e-08	4.129636e+01	1.039547e+03
1.260000e-06	6.116895e-06	1.590815e-08	4.203458e+01	1.045439e+03
1.270000e-06	6.222082e-06	1.600073e-08	4.275741e+01	1.050721e+03
1.280000e-06	6.325040e-06	1.608988e-08	4.346493e+01	1.055757e+03
1.290000e-06	6.425765e-06	1.617458e-08	4.415710e+01	1.060897e+03
1.300000e-06	6.524116e-06	1.625431e-08	4.483296e+01	1.066330e+03
1.310000e-06	6.620051e-06	1.633050e-08	4.549221e+01	1.072009e+03
1.320000e-06	6.713719e-06	1.640376e-08	4.613589e+01	1.077689e+03
1.330000e-06	6.805018e-06	1.647380e-08	4.676328e+01	1.083040e+03
1.340000e-06	6.893878e-06	1.654061e-08	4.737392e+01	1.087797e+03
1.350000e-06	6.980361e-06	1.660665e-08	4.796822e+01	1.091877e+03
1.360000e-06	7.064432e-06	1.667355e-08	4.854594e+01	1.095403e+03
1.370000e-06	7.146009e-06	1.673972e-08	4.910653e+01	1.098652e+03
1.380000e-06	7.224992e-06	1.679942e-08	4.964930e+01	1.101926e+03
1.390000e-06	7.301280e-06	1.685169e-08	5.017353e+01	1.105425e+03
1.400000e-06	7.374770e-06	1.690031e-08	5.067855e+01	1.109161e+03
1.410000e-06	7.445589e-06	1.694845e-08	5.116521e+01	1.112969e+03
1.420000e-06	7.513832e-06	1.699608e-08	5.163417e+01	1.116580e+03
1.430000e-06	7.579368e-06	1.704299e-08	5.208452e+01	1.119748e+03
1.440000e-06	7.642264e-06	1.708829e-08	5.251674e+01	1.122354e+03
1.450000e-06	7.702607e-06	1.713077e-08	5.293141e+01	1.124460e+03
1.460000e-06	7.760164e-06	1.717102e-08	5.332693e+01	1.126270e+03
1.470000e-06	7.814902e-06	1.720604e-08	5.370309e+01	1.128044e+03
1.480000e-06	7.866598e-06	1.723451e-08	5.405834e+01	1.129977e+03
1.490000e-06	7.915090e-06	1.725908e-08	5.439156e+01	1.132120e+03
1.500000e-06	7.960715e-06	1.728502e-08	5.470510e+01	1.134364e+03
1.510000e-06	8.003565e-06	1.731176e-08	5.499956e+01	1.136492e+03
1.520000e-06	8.043505e-06	1.733574e-08	5.527402e+01	1.138281e+03
1.530000e-06	8.080649e-06	1.735827e-08	5.552927e+01	1.139602e+03
1.540000e-06	8.115065e-06	1.738012e-08	5.576577e+01	1.140476e+03
1.550000e-06	8.146620e-06	1.740133e-08	5.598261e+01	1.141064e+03
1.560000e-06	8.175383e-06	1.741927e-08	5.618027e+01	1.141594e+03
1.570000e-06	8.201193e-06	1.743157e-08	5.635763e+01	1.142257e+03
1.580000e-06	8.224007e-06	1.744045e-08	5.651441e+01	1.143126e+03
1.590000e-06	8.244047e-06	1.744913e-08	5.665212e+01	1.144128e+03
1.600000e-06	8.261194e-06	1.745710e-08	5.676995e+01	1.145076e+03
1.610000e-06	8.275258e-06	1.746322e-08	5.686660e+01	1.145761e+03
1.620000e-06	8.286138e-06	1.746925e-08	5.694136e+01	1.146039e+03
1.630000e-06	8.293901e-06	1.747523e-08	5.699471e+01	1.145902e+03
1.640000e-06	8.298767e-06	1.747841e-08	5.702815e+01	1.145473e+03
1.650000e-06	8.300710e-06	1.747786e-08	5.704150e+01	1.144956e+03
1.660000e-06	8.299797e-06	1.747449e-08	5.703523e+01	1.144541e+03
1.670000e-06	8.296180e-06	1.746124e-08	5.701037e+01	1.144318e+03
1.680000e-06	8.289739e-06	1.745452e-08	5.696611e+01	1.144235e+03
1.690000e-06	8.280570e-06	1.744871e-08	5.690310e+01	1.144128e+03
1.700000e-06	8.268585e-06	1.743758e-08	5.682074e+01	1.143784e+03
1.710000e-06	8.253691e-06	1.742636e-08	5.671839e+01	1.143045e+03
1.720000e-06	8.236263e-06	1.742180e-08	5.659863e+01	1.141875e+03
1.730000e-06	8.216364e-06	1.742930e-08	5.646188e+01	1.140378e+03
1.740000e-06	8.193500e-06	1.733896e-08	5.630476e+01	1.138758e+03
1.750000e-06	8.166997e-06	1.727310e-08	5.612264e+01	1.137230e+03
1.760000e-06	8.136678e-06	1.730032e-08	5.591429e+01	1.135935e+03
1.770000e-06	8.103188e-06	1.728931e-08	5.568416e+01	1.134879e+03
1.780000e-06	8.067235e-06	1.725581e-08	5.543708e+01	1.133939e+03
1.790000e-06	8.029034e-06	1.731853e-08	5.517458e+01	1.132913e+03
1.800000e-06	7.988808e-06	1.730083e-08	5.489815e+01	1.131613e+03
1.810000e-06	7.946336e-06	1.717060e-08	5.460628e+01	1.129937e+03
1.820000e-06	7.900999e-06	1.727479e-08	5.429473e+01	1.127902e+03
1.830000e-06	7.852833e-06	1.717186e-08	5.396374e+01	1.125627e+03
1.840000e-06	7.801511e-06	1.714210e-08	5.361107e+01	1.123262e+03
1.850000e-06	7.746946e-06	1.715763e-08	5.323610e+01	1.120911e+03
1.860000e-06	7.689678e-06	1.703626e-08	5.284256e+01	1.118578e+03
1.870000e-06	7.629679e-06	1.713921e-08	5.243026e+01	1.116163e+03
1.880000e-06	7.566967e-06	1.700170e-08	5.199930e+01	1.113508e+03
1.890000e-06	7.501444e-06	1.696204e-08	5.154904e+01	1.110475e+03
1.900000e-06	7.433116e-06	1.690654e-08	5.107950e+01	1.107019e+03
1.910000e-06	7.361957e-06	1.678632e-08	5.059050e+01	1.103212e+03
1.920000e-06	7.287875e-06	1.681118e-08	5.008142e+01	1.099224e+03
1.930000e-06	7.211053e-06	1.670587e-08	4.955350e+01	1.095246e+03
1.940000e-06	7.131566e-06	1.673143e-08	4.900728e+01	1.091410e+03
1.950000e-06	7.049556e-06	1.662298e-08	4.844372e+01	1.087720e+03
1.960000e-06	6.964988e-06	1.655525e-08	4.786258e+01	1.084050e+03
1.970000e-06	6.877828e-06	1.650371e-08	4.726363e+01	1.080192e+03
1.980000e-06	6.788190e-06	1.635956e-08	4.664764e+01	1.075949e+03
1.990000e-06	6.696168e-06	1.635897e-08	4.601527e+01	1.071215e+03
2.000000e-06	6.601822e-06	1.625302e-08	4.536694e+01	1.066029e+03
2.010000e-06	6.505086e-06	1.622591e-08	4.470218e+01	1.060555e+03
2.020000e-06	6.406095e-06	1.612175e-08	4.402193e+01	1.055008e+03
2.030000e-06	6.304832e-06	1.603482e-08	4.332606e+01	1.049561e+03
2.040000e-06	6.201216e-06	1.594832e-08	4.261402e+01	1.044257e+03
2.050000e-06	6.095378e-06	1.584292e-08	4.188672e+01	1.038990e+03
2.060000e-06	5.987441e-06	1.578002e-08	4.114499e+01	1.033544e+03
2.070000e-06	5.877409e-06	1.566706e-08	4.038886e+01	1.027688e+03
2.080000e-06	5.765158e-06	1.559443e-08	3.961749e+01	1.021276e+03
2.090000e-06	5.650680e-06	1.547498e-08	3.883081e+01	1.014313e+03
2.100000e-06	5.533973e-06	1.537532e-08	3.802881e+01	1.006958e+03
2.110000e-06	5.415163e-06	1.525329e-08	3.721236e+01	9.994465e+02
2.120000e-06	5.294312e-06	1.514315e-08	3.638189e+01	9.919860e+02
2.130000e-06	5.171576e-06	1.503014e-08	3.553846e+01	9.846553e+02
2.140000e-06	5.047089e-06	1.492107e-08	3.468300e+01	9.773602e+02
2.150000e-06	4.920751e-06	1.479690e-08	3.381482e+01	9.698672e+02
2.160000e-06	4.792515e-06	1.466214e-08	3.293360e+01	9.619018e+02
2.170000e-06	4.662578e-06	1.453023e-08	3.204069e+01	9.532699e+02
2.180000e-06	4.531103e-06	1.439390e-08	3.113720e+01	9.439469e+02
2.190000e-06	4.398038e-06	1.425853e-08	3.022280e+01	9.340929e+02
2.200000e-06	4.263328e-06	1.410793e-08	2.929709e+01	9.239824e+02
2.210000e-06	4.126960e-06	1.396595e-08	2.835998e+01	9.138782e+02
2.220000e-06	3.989113e-06	1.380914e-08	2.741271e+01	9.039029e+02
2.230000e-06	3.849799e-06	1.365452e-08	2.645537e+01	8.939685e+02
2.240000e-06	3.709030e-06	1.348036e-08	2.548801e+01	8.837981e+02
2.250000e-06	3.566894e-06	1.330619e-08	2.451127e+01	8.730358e+02
2.260000e-06	3.423380e-06	1.312489e-08	2.352506e+01	8.613995e+02
2.270000e-06	3.278542e-06	1.294153e-08	2.252975e+01	8.488093e+02
2.280000e-06	3.132600e-06	1.275257e-08	2.152686e+01	8.354299e+02
2.290000e-06	2.985643e-06	1.255502e-08	2.051698e+01	8.216032e+02
2.300000e-06	2.837652e-06	1.235235e-08	1.950001e+01	8.076932e+02
2.310000e-06	2.688749e-06	1.214250e-08	1.847677e+01	7.939085e+02
2.320000e-06	2.538967e-06	1.192496e-08	1.744748e+01	7.801817e+02
2.330000e-06	2.388217e-06	1.169107e-08	1.641155e+01	7.661651e+02
2.340000e-06	2.236398e-06	1.144790e-08	1.536826e+01	7.513540e+02
2.350000e-06	2.083623e-06	1.119703e-08	1.431841e+01	7.352909e+02
2.360000e-06	1.930147e-06	1.094115e-08	1.326374e+01	7.177631e+02
2.370000e-06	1.776125e-06	1.067217e-08	1.220532e+01	6.989041e+02
2.380000e-06	1.621544e-06	1.039104e-08	1.114306e+01	6.791404e+02
2.390000e-06	1.466374e-06	1.009734e-08	1.007675e+01	6.589952e+02
2.400000e-06	1.310686e-06	9.790862e-09	9.006879e+00	6.388224e+02
2.410000e-06	1.154518e-06	9.463465e-09	7.933714e+00	6.185861e+02
2.420000e-06	9.978787e-07	9.116199e-09	6.857305e+00	5.977914e+02
2.430000e-06	8.409010e-07	8.753060e-09	5.778573e+00	5.756139e+02
2.440000e-06	6.836874e-07	8.373772e-09	4.698219e+00	5.511946e+02
2.450000e-06	5.262776e-07	7.976145e-09	3.616517e+00	5.239828e+02
2.460000e-06	3.687228e-07	7.551840e-09	2.533820e+00	4.939745e+02
2.470000e-06	2.109933e-07	7.095355e-09	1.449921e+00	4.617168e+02
2.480000e-06	5.317737e-08	6.600950e-09	3.654286e-01	4.280320e+02
2.490000e-06	-1.045780e-07	6.067735e-09	-7.186478e-01	3.935272e+02
2.500000e-06	-2.622619e-07	5.495366e-09	-1.802233e+00	3.580615e+02
2.510000e-06	-4.198402e-07	4.876293e-09	-2.885093e+00	3.203866e+02
2.520000e-06	-5.772457e-07	4.193567e-09	-3.966764e+00	2.781462e+02
2.530000e-06	-7.344762e-07	3.427166e-09	-5.047234e+00	2.283111e+02
2.540000e-06	-8.914601e-07	2.553875e-09	-6.126008e+00	1.679751e+02
2.550000e-06	-1.048146e-06	1.535449e-09	-7.202734e+00	9.529891e+01
2.560000e-06	-1.204501e-06	3.208402e-10	-8.277191e+00	1.030932e+01
2.570000e-06	-1.360401e-06	-1.122016e-09	-9.348514e+00	-8.471737e+01
2.580000e-06	-1.515701e-06	-2.743355e-09	-1.041572e+01	-1.854483e+02
2.590000e-06	-1.670420e-06	-4.392320e-09	-1.147893e+01	-2.862479e+02
2.600000e-06	-1.824596e-06	-5.894156e-09	-1.253841e+01	-3.813019e+02
2.610000e-06	-1.978138e-06	-7.152252e-09	-1.359353e+01	-4.658009e+02
2.620000e-06	-2.130970e-06	-8.166819e-09	-1.464377e+01	-5.368529e+02
2.630000e-06	-2.283002e-06	-8.984461e-09	-1.568852e+01	-5.938811e+02
2.640000e-06	-2.434145e-06	-9.658254e-09	-1.672716e+01	-6.384211e+02
2.650000e-06	-2.584342e-06	-1.022924e-08	-1.775929e+01	-6.734224e+02
2.660000e-06	-2.733592e-06	-1.072326e-08	-1.878492e+01	-7.022936e+02
2.670000e-06	-2.881911e-06	-1.115806e-08	-1.980415e+01	-7.279951e+02
2.680000e-06	-3.029277e-06	-1.154884e-08	-2.081683e+01	-7.524339e+02
2.690000e-06	-3.175595e-06	-1.190462e-08	-2.182231e+01	-7.762950e+02
2.700000e-06	-3.320748e-06	-1.222988e-08	-2.281979e+01	-7.992872e+02
2.710000e-06	-3.464732e-06	-1.252779e-08	-2.380923e+01	-8.206489e+02
2.720000e-06	-3.607366e-06	-1.279999e-08	-2.478940e+01	-8.396948e+02
2.730000e-06	-3.748524e-06	-1.305041e-08	-2.575941e+01	-8.562033e+02
2.740000e-06	-3.888324e-06	-1.328445e-08	-2.672011e+01	-8.705294e+02
2.750000e-06	-4.026704e-06	-1.350806e-08	-2.767104e+01	-8.834481e+02
2.760000e-06	-4.163587e-06	-1.372164e-08	-2.861168e+01	-8.958315e+02
2.770000e-06	-4.298923e-06	-1.392199e-08	-2.954169e+01	-9.083165e+02
2.780000e-06	-4.432602e-06	-1.410994e-08	-3.046032e+01	-9.210992e+02
2.790000e-06	-4.564715e-06	-1.428907e-08	-3.136818e+01	-9.339305e+02
2.800000e-06	-4.695315e-06	-1.445913e-08	-3.226565e+01	-9.462917e+02
2.810000e-06	-4.824289e-06	-1.461661e-08	-3.315195e+01	-9.576622e+02
2.820000e-06	-4.951551e-06	-1.476497e-08	-3.402647e+01	-9.677592e+02
2.830000e-06	-5.076965e-06	-1.491126e-08	-3.488831e+01	-9.766521e+02
2.840000e-06	-5.200573e-06	-1.505424e-08	-3.573772e+01	-9.847159e+02
2.850000e-06	-5.322422e-06	-1.518657e-08	-3.657506e+01	-9.924569e+02
2.860000e-06	-5.442392e-06	-1.530702e-08	-3.739948e+01	-1.000295e+03
2.870000e-06	-5.560241e-06	-1.542353e-08	-3.820932e+01	-1.008398e+03
2.880000e-06	-5.675812e-06	-1.553905e-08	-3.900351e+01	-1.016637e+03
2.890000e-06	-5.789108e-06	-1.564823e-08	-3.978207e+01	-1.024674e+03
2.900000e-06	-5.900125e-06	-1.574818e-08	-4.054496e+01	-1.032130e+03
2.910000e-06	-6.009002e-06	-1.584470e-08	-4.129315e+01	-1.038763e+03
2.920000e-06	-6.115881e-06	-1.594291e-08	-4.202761e+01	-1.044576e+03
2.930000e-06	-6.220712e-06	-1.603801e-08	-4.274800e+01	-1.049813e+03
2.940000e-06	-6.323209e-06	-1.612619e-08	-4.345235e+01	-1.054846e+03
