# Temperatura_=_35.54
# Concentracion g/m^3_=_13400.0
# C_Vs_to_Am_M_A/Vsm_=_65563218390.804596
# pendiente_HvsI_1/m_=_3716.3
# ordenada_HvsI_A/m_=_1297.0
# frecuencia_Hz_=_301412.9454851935

Tiempo_(s)	Campo_(V.s)	Magnetizacion_(V.s)	Campo_(kA/m)	Magnetizacion_(A/m)
0.000000e+00	-8.333340e-06	-1.666436e-08	-5.692083e+01	-1.092623e+03
1.000000e-08	-8.330040e-06	-1.667062e-08	-5.689829e+01	-1.092283e+03
2.000000e-08	-8.324023e-06	-1.666594e-08	-5.685719e+01	-1.092133e+03
3.000000e-08	-8.315350e-06	-1.665803e-08	-5.679795e+01	-1.092055e+03
4.000000e-08	-8.303768e-06	-1.665229e-08	-5.671883e+01	-1.091854e+03
5.000000e-08	-8.289193e-06	-1.664274e-08	-5.661928e+01	-1.091340e+03
6.000000e-08	-8.271672e-06	-1.662274e-08	-5.649961e+01	-1.090417e+03
7.000000e-08	-8.251576e-06	-1.658795e-08	-5.636234e+01	-1.089129e+03
8.000000e-08	-8.228914e-06	-1.658345e-08	-5.620755e+01	-1.087645e+03
9.000000e-08	-8.203085e-06	-1.666043e-08	-5.603112e+01	-1.086189e+03
1.000000e-07	-8.173953e-06	-1.663022e-08	-5.583214e+01	-1.084949e+03
1.100000e-07	-8.141706e-06	-1.654619e-08	-5.561187e+01	-1.083996e+03
1.200000e-07	-8.106477e-06	-1.653710e-08	-5.537124e+01	-1.083257e+03
1.300000e-07	-8.068585e-06	-1.653278e-08	-5.511242e+01	-1.082546e+03
1.400000e-07	-8.028364e-06	-1.644352e-08	-5.483769e+01	-1.081643e+03
1.500000e-07	-7.985671e-06	-1.637446e-08	-5.454608e+01	-1.080388e+03
1.600000e-07	-7.940189e-06	-1.651015e-08	-5.423541e+01	-1.078736e+03
1.700000e-07	-7.891861e-06	-1.638132e-08	-5.390531e+01	-1.076773e+03
1.800000e-07	-7.840550e-06	-1.636662e-08	-5.355483e+01	-1.074661e+03
1.900000e-07	-7.786183e-06	-1.642464e-08	-5.318348e+01	-1.072562e+03
2.000000e-07	-7.728996e-06	-1.626738e-08	-5.279286e+01	-1.070554e+03
2.100000e-07	-7.669041e-06	-1.627645e-08	-5.238334e+01	-1.068595e+03
2.200000e-07	-7.606359e-06	-1.620938e-08	-5.195519e+01	-1.066543e+03
2.300000e-07	-7.540917e-06	-1.621075e-08	-5.150818e+01	-1.064221e+03
2.400000e-07	-7.472608e-06	-1.618447e-08	-5.104160e+01	-1.061503e+03
2.500000e-07	-7.401557e-06	-1.611829e-08	-5.055629e+01	-1.058379e+03
2.600000e-07	-7.327696e-06	-1.610855e-08	-5.005179e+01	-1.054966e+03
2.700000e-07	-7.250985e-06	-1.602440e-08	-4.952781e+01	-1.051459e+03
2.800000e-07	-7.171447e-06	-1.598560e-08	-4.898452e+01	-1.048050e+03
2.900000e-07	-7.089180e-06	-1.589762e-08	-4.842260e+01	-1.044838e+03
3.000000e-07	-7.004509e-06	-1.586986e-08	-4.784426e+01	-1.041779e+03
3.100000e-07	-6.917505e-06	-1.584959e-08	-4.724998e+01	-1.038703e+03
3.200000e-07	-6.828106e-06	-1.577594e-08	-4.663934e+01	-1.035376e+03
3.300000e-07	-6.736246e-06	-1.574199e-08	-4.601189e+01	-1.031607e+03
3.400000e-07	-6.641997e-06	-1.564692e-08	-4.536812e+01	-1.027322e+03
3.500000e-07	-6.545402e-06	-1.558776e-08	-4.470833e+01	-1.022602e+03
3.600000e-07	-6.446360e-06	-1.551723e-08	-4.403182e+01	-1.017647e+03
3.700000e-07	-6.344935e-06	-1.544682e-08	-4.333904e+01	-1.012683e+03
3.800000e-07	-6.241204e-06	-1.537197e-08	-4.263051e+01	-1.007869e+03
3.900000e-07	-6.135232e-06	-1.529840e-08	-4.190667e+01	-1.003217e+03
4.000000e-07	-6.027055e-06	-1.524124e-08	-4.116776e+01	-9.985882e+02
4.100000e-07	-5.916701e-06	-1.514738e-08	-4.041399e+01	-9.937486e+02
4.200000e-07	-5.804152e-06	-1.506489e-08	-3.964523e+01	-9.884700e+02
4.300000e-07	-5.689380e-06	-1.496507e-08	-3.886127e+01	-9.826298e+02
4.400000e-07	-5.572395e-06	-1.488190e-08	-3.806221e+01	-9.762632e+02
4.500000e-07	-5.453262e-06	-1.479338e-08	-3.724847e+01	-9.695464e+02
4.600000e-07	-5.332170e-06	-1.469850e-08	-3.642135e+01	-9.627155e+02
4.700000e-07	-5.209204e-06	-1.459245e-08	-3.558144e+01	-9.559564e+02
4.800000e-07	-5.084333e-06	-1.448484e-08	-3.472851e+01	-9.493160e+02
4.900000e-07	-4.957633e-06	-1.438124e-08	-3.386308e+01	-9.426734e+02
5.000000e-07	-4.829154e-06	-1.426256e-08	-3.298551e+01	-9.357873e+02
5.100000e-07	-4.698955e-06	-1.414418e-08	-3.209618e+01	-9.283990e+02
5.200000e-07	-4.567081e-06	-1.402212e-08	-3.119542e+01	-9.203452e+02
5.300000e-07	-4.433571e-06	-1.390157e-08	-3.028348e+01	-9.116311e+02
5.400000e-07	-4.298460e-06	-1.376922e-08	-2.936060e+01	-9.024277e+02
5.500000e-07	-4.161743e-06	-1.363053e-08	-2.842676e+01	-8.929929e+02
5.600000e-07	-4.023477e-06	-1.348592e-08	-2.748234e+01	-8.835497e+02
5.700000e-07	-3.883585e-06	-1.334084e-08	-2.652680e+01	-8.741754e+02
5.800000e-07	-3.742081e-06	-1.319100e-08	-2.556026e+01	-8.647535e+02
5.900000e-07	-3.599183e-06	-1.302991e-08	-2.458420e+01	-8.550128e+02
6.000000e-07	-3.454983e-06	-1.286445e-08	-2.359924e+01	-8.446392e+02
6.100000e-07	-3.309484e-06	-1.269308e-08	-2.260541e+01	-8.334130e+02
6.200000e-07	-3.162757e-06	-1.251881e-08	-2.160319e+01	-8.213078e+02
6.300000e-07	-3.014926e-06	-1.233225e-08	-2.059344e+01	-8.085049e+02
6.400000e-07	-2.866092e-06	-1.213845e-08	-1.957682e+01	-7.953097e+02
6.500000e-07	-2.716321e-06	-1.194265e-08	-1.855381e+01	-7.820050e+02
6.600000e-07	-2.565597e-06	-1.173933e-08	-1.752429e+01	-7.687025e+02
6.700000e-07	-2.413966e-06	-1.152038e-08	-1.648858e+01	-7.552644e+02
6.800000e-07	-2.261437e-06	-1.128648e-08	-1.544673e+01	-7.413338e+02
6.900000e-07	-2.108068e-06	-1.104808e-08	-1.439915e+01	-7.264696e+02
7.000000e-07	-1.953986e-06	-1.080315e-08	-1.334669e+01	-7.103308e+02
7.100000e-07	-1.799175e-06	-1.054875e-08	-1.228926e+01	-6.928271e+02
7.200000e-07	-1.643700e-06	-1.028051e-08	-1.122728e+01	-6.741641e+02
7.300000e-07	-1.487591e-06	-1.000263e-08	-1.016098e+01	-6.547488e+02
7.400000e-07	-1.330907e-06	-9.711244e-09	-9.090752e+00	-6.349877e+02
7.500000e-07	-1.173745e-06	-9.401224e-09	-8.017256e+00	-6.150574e+02
7.600000e-07	-1.016144e-06	-9.069509e-09	-6.940764e+00	-5.947537e+02
7.700000e-07	-8.581902e-07	-8.716760e-09	-5.861863e+00	-5.734963e+02
7.800000e-07	-6.999471e-07	-8.349922e-09	-4.780985e+00	-5.505077e+02
7.900000e-07	-5.414456e-07	-7.962671e-09	-3.698341e+00	-5.251046e+02
8.000000e-07	-3.827233e-07	-7.550102e-09	-2.614189e+00	-4.969805e+02
8.100000e-07	-2.238524e-07	-7.107836e-09	-1.529022e+00	-4.663439e+02
8.200000e-07	-6.489870e-08	-6.640597e-09	-4.432902e-01	-4.338201e+02
8.300000e-07	9.406512e-08	-6.141384e-09	6.425113e-01	-4.001117e+02
8.400000e-07	2.529503e-07	-5.601532e-09	1.727776e+00	-3.655214e+02
8.500000e-07	4.117259e-07	-5.014896e-09	2.812292e+00	-3.295116e+02
8.600000e-07	5.703340e-07	-4.370122e-09	3.895663e+00	-2.904975e+02
8.700000e-07	7.286826e-07	-3.656899e-09	4.977262e+00	-2.460080e+02
8.800000e-07	8.867681e-07	-2.855031e-09	6.057064e+00	-1.932314e+02
8.900000e-07	1.044576e-06	-1.937293e-09	7.134973e+00	-1.298253e+02
9.000000e-07	1.202059e-06	-8.597559e-10	8.210654e+00	-5.475679e+01
9.100000e-07	1.359119e-06	4.177228e-10	9.283457e+00	3.109470e+01
9.200000e-07	1.515587e-06	1.891268e-09	1.035221e+01	1.247907e+02
9.300000e-07	1.671460e-06	3.463262e-09	1.141690e+01	2.217282e+02
9.400000e-07	1.826797e-06	4.973336e-09	1.247792e+01	3.164953e+02
9.500000e-07	1.981443e-06	6.293392e-09	1.353423e+01	4.039614e+02
9.600000e-07	2.135317e-06	7.383899e-09	1.458527e+01	4.802970e+02
9.700000e-07	2.288407e-06	8.272751e-09	1.563095e+01	5.436430e+02
9.800000e-07	2.440662e-06	9.003243e-09	1.667092e+01	5.942567e+02
9.900000e-07	2.592022e-06	9.615843e-09	1.770479e+01	6.341269e+02
1.000000e-06	2.742439e-06	1.013825e-08	1.873221e+01	6.662098e+02
1.010000e-06	2.891920e-06	1.058962e-08	1.975324e+01	6.935408e+02
1.020000e-06	3.040396e-06	1.098730e-08	2.076740e+01	7.184916e+02
1.030000e-06	3.187760e-06	1.134801e-08	2.177397e+01	7.423691e+02
1.040000e-06	3.333962e-06	1.167959e-08	2.277261e+01	7.654230e+02
1.050000e-06	3.478982e-06	1.198119e-08	2.376316e+01	7.871862e+02
1.060000e-06	3.622755e-06	1.225902e-08	2.474521e+01	8.069750e+02
1.070000e-06	3.765187e-06	1.251761e-08	2.571808e+01	8.243453e+02
1.080000e-06	3.906165e-06	1.275526e-08	2.668104e+01	8.393482e+02
1.090000e-06	4.045638e-06	1.297185e-08	2.763371e+01	8.525227e+02
1.100000e-06	4.183591e-06	1.317453e-08	2.857599e+01	8.646722e+02
1.110000e-06	4.319961e-06	1.336645e-08	2.950747e+01	8.765467e+02
1.120000e-06	4.454754e-06	1.354755e-08	3.042817e+01	8.885749e+02
1.130000e-06	4.587950e-06	1.371876e-08	3.133797e+01	9.007510e+02
1.140000e-06	4.719501e-06	1.388337e-08	3.223652e+01	9.127099e+02
1.150000e-06	4.849348e-06	1.404384e-08	3.312344e+01	9.239402e+02
1.160000e-06	4.977450e-06	1.419557e-08	3.399844e+01	9.340358e+02
1.170000e-06	5.103866e-06	1.433693e-08	3.486193e+01	9.428777e+02
1.180000e-06	5.228563e-06	1.446810e-08	3.571367e+01	9.506767e+02
1.190000e-06	5.351391e-06	1.459246e-08	3.655265e+01	9.578717e+02
1.200000e-06	5.472274e-06	1.470862e-08	3.737833e+01	9.649373e+02
1.210000e-06	5.591119e-06	1.481729e-08	3.819010e+01	9.721905e+02
1.220000e-06	5.707822e-06	1.492199e-08	3.898724e+01	9.796774e+02
1.230000e-06	5.822300e-06	1.502518e-08	3.976918e+01	9.871838e+02
1.240000e-06	5.934593e-06	1.512556e-08	4.053620e+01	9.943561e+02
1.250000e-06	6.044846e-06	1.522062e-08	4.128929e+01	1.000874e+03
1.260000e-06	6.153014e-06	1.531265e-08	4.202813e+01	1.006597e+03
1.270000e-06	6.258933e-06	1.540138e-08	4.275160e+01	1.011626e+03
1.280000e-06	6.362563e-06	1.548325e-08	4.345945e+01	1.016250e+03
1.290000e-06	6.463928e-06	1.555456e-08	4.415182e+01	1.020820e+03
1.300000e-06	6.562885e-06	1.562096e-08	4.482775e+01	1.025596e+03
1.310000e-06	6.659365e-06	1.569074e-08	4.548675e+01	1.030638e+03
1.320000e-06	6.753529e-06	1.576340e-08	4.612994e+01	1.035795e+03
1.330000e-06	6.845410e-06	1.583422e-08	4.675753e+01	1.040777e+03
1.340000e-06	6.934858e-06	1.589938e-08	4.736850e+01	1.045288e+03
1.350000e-06	7.021828e-06	1.595891e-08	4.796255e+01	1.049157e+03
1.360000e-06	7.106399e-06	1.601612e-08	4.854022e+01	1.052410e+03
1.370000e-06	7.188497e-06	1.607096e-08	4.910099e+01	1.055248e+03
1.380000e-06	7.267969e-06	1.611881e-08	4.964382e+01	1.057964e+03
1.390000e-06	7.344728e-06	1.616220e-08	5.016812e+01	1.060809e+03
1.400000e-06	7.418678e-06	1.620952e-08	5.067324e+01	1.063892e+03
1.410000e-06	7.489977e-06	1.625988e-08	5.116024e+01	1.067143e+03
1.420000e-06	7.558740e-06	1.630465e-08	5.162993e+01	1.070353e+03
1.430000e-06	7.624746e-06	1.634098e-08	5.208078e+01	1.073272e+03
1.440000e-06	7.688014e-06	1.637521e-08	5.251293e+01	1.075725e+03
1.450000e-06	7.748693e-06	1.641285e-08	5.292740e+01	1.077685e+03
1.460000e-06	7.806638e-06	1.645099e-08	5.332320e+01	1.079280e+03
1.470000e-06	7.861744e-06	1.648145e-08	5.369960e+01	1.080733e+03
1.480000e-06	7.913769e-06	1.650539e-08	5.405495e+01	1.082255e+03
1.490000e-06	7.962624e-06	1.652851e-08	5.438866e+01	1.083961e+03
1.500000e-06	8.008584e-06	1.655211e-08	5.470259e+01	1.085814e+03
1.510000e-06	8.051700e-06	1.657266e-08	5.499709e+01	1.087654e+03
1.520000e-06	8.091925e-06	1.659064e-08	5.527184e+01	1.089271e+03
1.530000e-06	8.129358e-06	1.660972e-08	5.552753e+01	1.090504e+03
1.540000e-06	8.163953e-06	1.662872e-08	5.576383e+01	1.091313e+03
1.550000e-06	8.195645e-06	1.664493e-08	5.598031e+01	1.091796e+03
1.560000e-06	8.224587e-06	1.665705e-08	5.617799e+01	1.092147e+03
1.570000e-06	8.250620e-06	1.666869e-08	5.635581e+01	1.092562e+03
1.580000e-06	8.273627e-06	1.668151e-08	5.651296e+01	1.093159e+03
1.590000e-06	8.293807e-06	1.669050e-08	5.665080e+01	1.093922e+03
1.600000e-06	8.311088e-06	1.669307e-08	5.676884e+01	1.094712e+03
1.610000e-06	8.325261e-06	1.669479e-08	5.686565e+01	1.095334e+03
1.620000e-06	8.336219e-06	1.670011e-08	5.694050e+01	1.095622e+03
1.630000e-06	8.344043e-06	1.670618e-08	5.699393e+01	1.095519e+03
1.640000e-06	8.348982e-06	1.670868e-08	5.702767e+01	1.095101e+03
1.650000e-06	8.351007e-06	1.670709e-08	5.704150e+01	1.094545e+03
1.660000e-06	8.350155e-06	1.670496e-08	5.703568e+01	1.094044e+03
1.670000e-06	8.346578e-06	1.669160e-08	5.701125e+01	1.093726e+03
1.680000e-06	8.340156e-06	1.668649e-08	5.696738e+01	1.093590e+03
1.690000e-06	8.330894e-06	1.668125e-08	5.690412e+01	1.093509e+03
1.700000e-06	8.318750e-06	1.666780e-08	5.682117e+01	1.093281e+03
1.710000e-06	8.303738e-06	1.665750e-08	5.671863e+01	1.092725e+03
1.720000e-06	8.286214e-06	1.666225e-08	5.659893e+01	1.091758e+03
1.730000e-06	8.266254e-06	1.667397e-08	5.646260e+01	1.090438e+03
1.740000e-06	8.243334e-06	1.655643e-08	5.630604e+01	1.088945e+03
1.750000e-06	8.216720e-06	1.651179e-08	5.612426e+01	1.087505e+03
1.760000e-06	8.186253e-06	1.656464e-08	5.591615e+01	1.086294e+03
1.770000e-06	8.152634e-06	1.653931e-08	5.568652e+01	1.085369e+03
1.780000e-06	8.116528e-06	1.650045e-08	5.543990e+01	1.084642e+03
1.790000e-06	8.078073e-06	1.659814e-08	5.517723e+01	1.083920e+03
1.800000e-06	8.037588e-06	1.656698e-08	5.490069e+01	1.082986e+03
1.810000e-06	7.994872e-06	1.640741e-08	5.460892e+01	1.081687e+03
1.820000e-06	7.949176e-06	1.655589e-08	5.429680e+01	1.079995e+03
1.830000e-06	7.900644e-06	1.643791e-08	5.396530e+01	1.078006e+03
1.840000e-06	7.848995e-06	1.643420e-08	5.361251e+01	1.075889e+03
1.850000e-06	7.794076e-06	1.645038e-08	5.323739e+01	1.073797e+03
1.860000e-06	7.736446e-06	1.632118e-08	5.284375e+01	1.071797e+03
1.870000e-06	7.676003e-06	1.643851e-08	5.243089e+01	1.069836e+03
1.880000e-06	7.612830e-06	1.626335e-08	5.199939e+01	1.067763e+03
1.890000e-06	7.546859e-06	1.627288e-08	5.154878e+01	1.065402e+03
1.900000e-06	7.477992e-06	1.621558e-08	5.107838e+01	1.062638e+03
1.910000e-06	7.406304e-06	1.612294e-08	5.058872e+01	1.059475e+03
1.920000e-06	7.331776e-06	1.617811e-08	5.007965e+01	1.056040e+03
1.930000e-06	7.254492e-06	1.604482e-08	4.955176e+01	1.052535e+03
1.940000e-06	7.174490e-06	1.609039e-08	4.900531e+01	1.049144e+03
1.950000e-06	7.092026e-06	1.595940e-08	4.844204e+01	1.045952e+03
1.960000e-06	7.006985e-06	1.592523e-08	4.786117e+01	1.042901e+03
1.970000e-06	6.919278e-06	1.588256e-08	4.726208e+01	1.039809e+03
1.980000e-06	6.829143e-06	1.576481e-08	4.664642e+01	1.036442e+03
1.990000e-06	6.736626e-06	1.578348e-08	4.601448e+01	1.032617e+03
2.000000e-06	6.641730e-06	1.566948e-08	4.536630e+01	1.028279e+03
2.010000e-06	6.544529e-06	1.566013e-08	4.470236e+01	1.023522e+03
2.020000e-06	6.445107e-06	1.554482e-08	4.402326e+01	1.018554e+03
2.030000e-06	6.343252e-06	1.548615e-08	4.332754e+01	1.013601e+03
2.040000e-06	6.239014e-06	1.540095e-08	4.261555e+01	1.008806e+03
2.050000e-06	6.132636e-06	1.531557e-08	4.188894e+01	1.004165e+03
2.060000e-06	6.024134e-06	1.525918e-08	4.114781e+01	9.995246e+02
2.070000e-06	5.913425e-06	1.515818e-08	4.039161e+01	9.946470e+02
2.080000e-06	5.800456e-06	1.510400e-08	3.961998e+01	9.893109e+02
2.090000e-06	5.685265e-06	1.499853e-08	3.883317e+01	9.834090e+02
2.100000e-06	5.567779e-06	1.491700e-08	3.803068e+01	9.769939e+02
2.110000e-06	5.448154e-06	1.480429e-08	3.721359e+01	9.702529e+02
2.120000e-06	5.326602e-06	1.471343e-08	3.638332e+01	9.634220e+02
2.130000e-06	5.203200e-06	1.460473e-08	3.554043e+01	9.566757e+02
2.140000e-06	5.077919e-06	1.450690e-08	3.468469e+01	9.500429e+02
2.150000e-06	4.950776e-06	1.439351e-08	3.381625e+01	9.433863e+02
2.160000e-06	4.821835e-06	1.428011e-08	3.293552e+01	9.364574e+02
2.170000e-06	4.691204e-06	1.416255e-08	3.204324e+01	9.290023e+02
2.180000e-06	4.558989e-06	1.404043e-08	3.114014e+01	9.208736e+02
2.190000e-06	4.425127e-06	1.391733e-08	3.022581e+01	9.120958e+02
2.200000e-06	4.289628e-06	1.378286e-08	2.930028e+01	9.028541e+02
2.210000e-06	4.152503e-06	1.365492e-08	2.836365e+01	8.934088e+02
2.220000e-06	4.013840e-06	1.350702e-08	2.741651e+01	8.839720e+02
2.230000e-06	3.873727e-06	1.336126e-08	2.645947e+01	8.746008e+02
2.240000e-06	3.732146e-06	1.319859e-08	2.549240e+01	8.651590e+02
2.250000e-06	3.589085e-06	1.304310e-08	2.451522e+01	8.553642e+02
2.260000e-06	3.444717e-06	1.288025e-08	2.352912e+01	8.449063e+02
2.270000e-06	3.299114e-06	1.271271e-08	2.253458e+01	8.335826e+02
2.280000e-06	3.152341e-06	1.253612e-08	2.153205e+01	8.213901e+02
2.290000e-06	3.004475e-06	1.235151e-08	2.052205e+01	8.085289e+02
2.300000e-06	2.855605e-06	1.215889e-08	1.950520e+01	7.953098e+02
2.310000e-06	2.705748e-06	1.195779e-08	1.848160e+01	7.820033e+02
2.320000e-06	2.554859e-06	1.175016e-08	1.745095e+01	7.686968e+02
2.330000e-06	2.403079e-06	1.153232e-08	1.641422e+01	7.552252e+02
2.340000e-06	2.250431e-06	1.130695e-08	1.537156e+01	7.412148e+02
2.350000e-06	2.096882e-06	1.106987e-08	1.432274e+01	7.262263e+02
2.360000e-06	1.942555e-06	1.082320e-08	1.326861e+01	7.099395e+02
2.370000e-06	1.787626e-06	1.056448e-08	1.221037e+01	6.922963e+02
2.380000e-06	1.632125e-06	1.029439e-08	1.114822e+01	6.735306e+02
2.390000e-06	1.476032e-06	1.001115e-08	1.008203e+01	6.540604e+02
2.400000e-06	1.319397e-06	9.713942e-09	9.012136e+00	6.342779e+02
2.410000e-06	1.162306e-06	9.401400e-09	7.939123e+00	6.143240e+02
2.420000e-06	1.004857e-06	9.074161e-09	6.863671e+00	5.939507e+02
2.430000e-06	8.470551e-07	8.729363e-09	5.785805e+00	5.725453e+02
2.440000e-06	6.888969e-07	8.362327e-09	4.705506e+00	5.493255e+02
2.450000e-06	5.304763e-07	7.972543e-09	3.623415e+00	5.236362e+02
2.460000e-06	3.718633e-07	7.558600e-09	2.540010e+00	4.952231e+02
2.470000e-06	2.131150e-07	7.117699e-09	1.455681e+00	4.643488e+02
2.480000e-06	5.427649e-08	6.644126e-09	3.707352e-01	4.316666e+02
2.490000e-06	-1.045271e-07	6.135505e-09	-7.139720e-01	3.978603e+02
2.500000e-06	-2.632363e-07	5.590951e-09	-1.798034e+00	3.631609e+02
2.510000e-06	-4.218314e-07	5.002931e-09	-2.881317e+00	3.269227e+02
2.520000e-06	-5.802274e-07	4.359649e-09	-3.963240e+00	2.874513e+02
2.530000e-06	-7.384472e-07	3.647231e-09	-5.043959e+00	2.422067e+02
2.540000e-06	-8.964447e-07	2.848706e-09	-6.123160e+00	1.883861e+02
2.550000e-06	-1.054044e-06	1.932300e-09	-7.199644e+00	1.237492e+02
2.560000e-06	-1.211238e-06	8.520463e-10	-8.273357e+00	4.744560e+01
2.570000e-06	-1.368027e-06	-4.339692e-10	-9.344297e+00	-3.942216e+01
2.580000e-06	-1.524261e-06	-1.916546e-09	-1.041145e+01	-1.337090e+02
2.590000e-06	-1.679930e-06	-3.495862e-09	-1.147475e+01	-2.306779e+02
2.600000e-06	-1.835006e-06	-5.009603e-09	-1.253400e+01	-3.248937e+02
2.610000e-06	-1.989392e-06	-6.327714e-09	-1.358853e+01	-4.113202e+02
2.620000e-06	-2.143037e-06	-7.413180e-09	-1.463800e+01	-4.863155e+02
2.630000e-06	-2.295938e-06	-8.294689e-09	-1.568239e+01	-5.482502e+02
2.640000e-06	-2.448065e-06	-9.022626e-09	-1.672150e+01	-5.975940e+02
2.650000e-06	-2.599333e-06	-9.640836e-09	-1.775473e+01	-6.364804e+02
2.660000e-06	-2.749598e-06	-1.017473e-08	-1.878112e+01	-6.679161e+02
2.670000e-06	-2.898800e-06	-1.063727e-08	-1.980023e+01	-6.948962e+02
2.680000e-06	-3.046995e-06	-1.104352e-08	-2.081248e+01	-7.196902e+02
2.690000e-06	-3.194121e-06	-1.140540e-08	-2.181743e+01	-7.434846e+02
2.700000e-06	-3.340127e-06	-1.173048e-08	-2.281472e+01	-7.664315e+02
2.710000e-06	-3.484941e-06	-1.202757e-08	-2.380387e+01	-7.880156e+02
2.720000e-06	-3.628493e-06	-1.230183e-08	-2.478440e+01	-8.075597e+02
2.730000e-06	-3.770687e-06	-1.255685e-08	-2.575566e+01	-8.246650e+02
2.740000e-06	-3.911417e-06	-1.279652e-08	-2.671691e+01	-8.394398e+02
2.750000e-06	-4.050647e-06	-1.302138e-08	-2.766792e+01	-8.524649e+02
2.760000e-06	-4.188316e-06	-1.323036e-08	-2.860827e+01	-8.645536e+02
2.770000e-06	-4.324452e-06	-1.342556e-08	-2.953815e+01	-8.764322e+02
2.780000e-06	-4.459003e-06	-1.360898e-08	-3.045719e+01	-8.884847e+02
2.790000e-06	-4.591918e-06	-1.378064e-08	-3.136507e+01	-9.006604e+02
2.800000e-06	-4.723218e-06	-1.394225e-08	-3.226191e+01	-9.125665e+02
2.810000e-06	-4.852895e-06	-1.409487e-08	-3.314767e+01	-9.236914e+02
2.820000e-06	-4.980902e-06	-1.423941e-08	-3.402202e+01	-9.336530e+02
2.830000e-06	-5.107119e-06	-1.437907e-08	-3.488414e+01	-9.423684e+02
2.840000e-06	-5.231513e-06	-1.451276e-08	-3.573382e+01	-9.500800e+02
2.850000e-06	-5.354086e-06	-1.463697e-08	-3.657105e+01	-9.572404e+02
2.860000e-06	-5.474770e-06	-1.475274e-08	-3.739538e+01	-9.643159e+02
2.870000e-06	-5.593389e-06	-1.486363e-08	-3.820561e+01	-9.715978e+02
2.880000e-06	-5.709824e-06	-1.497022e-08	-3.900092e+01	-9.791015e+02
2.890000e-06	-5.823973e-06	-1.506929e-08	-3.978061e+01	-9.865906e+02
2.900000e-06	-5.935731e-06	-1.516145e-08	-4.054398e+01	-9.937066e+02
2.910000e-06	-6.045254e-06	-1.525239e-08	-4.129207e+01	-1.000143e+03
2.920000e-06	-6.152705e-06	-1.534406e-08	-4.202601e+01	-1.005783e+03
2.930000e-06	-6.258079e-06	-1.543372e-08	-4.274577e+01	-1.010753e+03
2.940000e-06	-6.361224e-06	-1.551893e-08	-4.345030e+01	-1.015356e+03
