# Temperatura_=_18.42
# Concentracion g/m^3_=_13400.0
# C_Vs_to_Am_M_A/Vsm_=_65563218390.804596
# pendiente_HvsI_1/m_=_3716.3
# ordenada_HvsI_A/m_=_1297.0
# frecuencia_Hz_=_300845.1832327594

Tiempo_(s)	Campo_(V.s)	Magnetizacion_(V.s)	Campo_(kA/m)	Magnetizacion_(A/m)
0.000000e+00	-2.857618e-06	-4.958660e-09	-1.980325e+01	-3.247957e+02
1.000000e-08	-2.856656e-06	-4.954308e-09	-1.979658e+01	-3.247772e+02
2.000000e-08	-2.854687e-06	-4.947810e-09	-1.978294e+01	-3.246783e+02
3.000000e-08	-2.851390e-06	-4.945475e-09	-1.976009e+01	-3.245069e+02
4.000000e-08	-2.847064e-06	-4.947656e-09	-1.973011e+01	-3.242737e+02
5.000000e-08	-2.842026e-06	-4.946016e-09	-1.969520e+01	-3.239882e+02
6.000000e-08	-2.836150e-06	-4.940125e-09	-1.965447e+01	-3.236567e+02
7.000000e-08	-2.829324e-06	-4.926359e-09	-1.960717e+01	-3.232811e+02
8.000000e-08	-2.821462e-06	-4.926439e-09	-1.955269e+01	-3.228599e+02
9.000000e-08	-2.812318e-06	-4.942492e-09	-1.948932e+01	-3.223902e+02
1.000000e-07	-2.801660e-06	-4.955924e-09	-1.941546e+01	-3.218695e+02
1.100000e-07	-2.789811e-06	-4.865791e-09	-1.933335e+01	-3.212972e+02
1.200000e-07	-2.777311e-06	-4.837637e-09	-1.924673e+01	-3.206747e+02
1.300000e-07	-2.763961e-06	-4.904540e-09	-1.915421e+01	-3.200049e+02
1.400000e-07	-2.749550e-06	-4.939686e-09	-1.905434e+01	-3.192908e+02
1.500000e-07	-2.734168e-06	-4.813897e-09	-1.894774e+01	-3.185353e+02
1.600000e-07	-2.717484e-06	-4.820827e-09	-1.883212e+01	-3.177400e+02
1.700000e-07	-2.699466e-06	-4.950303e-09	-1.870726e+01	-3.169053e+02
1.800000e-07	-2.680711e-06	-4.802849e-09	-1.857729e+01	-3.160306e+02
1.900000e-07	-2.661323e-06	-4.766104e-09	-1.844293e+01	-3.151143e+02
2.000000e-07	-2.640985e-06	-4.866145e-09	-1.830198e+01	-3.141535e+02
2.100000e-07	-2.619782e-06	-4.773072e-09	-1.815505e+01	-3.131437e+02
2.200000e-07	-2.597858e-06	-4.703192e-09	-1.800312e+01	-3.120788e+02
2.300000e-07	-2.575010e-06	-4.821390e-09	-1.784478e+01	-3.109518e+02
2.400000e-07	-2.551172e-06	-4.765051e-09	-1.767959e+01	-3.097555e+02
2.500000e-07	-2.526561e-06	-4.662596e-09	-1.750903e+01	-3.084844e+02
2.600000e-07	-2.501123e-06	-4.709003e-09	-1.733275e+01	-3.071361e+02
2.700000e-07	-2.474648e-06	-4.708968e-09	-1.714927e+01	-3.057116e+02
2.800000e-07	-2.447035e-06	-4.617049e-09	-1.695791e+01	-3.042157e+02
2.900000e-07	-2.418434e-06	-4.627933e-09	-1.675971e+01	-3.026546e+02
3.000000e-07	-2.389038e-06	-4.618280e-09	-1.655600e+01	-3.010349e+02
3.100000e-07	-2.358966e-06	-4.568407e-09	-1.634760e+01	-2.993610e+02
3.200000e-07	-2.328209e-06	-4.594662e-09	-1.613445e+01	-2.976345e+02
3.300000e-07	-2.296562e-06	-4.530428e-09	-1.591514e+01	-2.958543e+02
3.400000e-07	-2.264185e-06	-4.489047e-09	-1.569077e+01	-2.940182e+02
3.500000e-07	-2.231236e-06	-4.485336e-09	-1.546243e+01	-2.921247e+02
3.600000e-07	-2.197507e-06	-4.454847e-09	-1.522869e+01	-2.901742e+02
3.700000e-07	-2.162653e-06	-4.419442e-09	-1.498715e+01	-2.881698e+02
3.800000e-07	-2.126696e-06	-4.401246e-09	-1.473797e+01	-2.861160e+02
3.900000e-07	-2.090080e-06	-4.358892e-09	-1.448422e+01	-2.840173e+02
4.000000e-07	-2.052902e-06	-4.330331e-09	-1.422658e+01	-2.818758e+02
4.100000e-07	-2.014969e-06	-4.304774e-09	-1.396371e+01	-2.796904e+02
4.200000e-07	-1.976268e-06	-4.248223e-09	-1.369551e+01	-2.774574e+02
4.300000e-07	-1.936790e-06	-4.218860e-09	-1.342193e+01	-2.751714e+02
4.400000e-07	-1.896648e-06	-4.189235e-09	-1.314374e+01	-2.728283e+02
4.500000e-07	-1.856141e-06	-4.159468e-09	-1.286303e+01	-2.704268e+02
4.600000e-07	-1.815285e-06	-4.114671e-09	-1.257990e+01	-2.679691e+02
4.700000e-07	-1.773691e-06	-4.081131e-09	-1.229165e+01	-2.654598e+02
4.800000e-07	-1.730983e-06	-4.035042e-09	-1.199569e+01	-2.629036e+02
4.900000e-07	-1.687251e-06	-3.993366e-09	-1.169262e+01	-2.603023e+02
5.000000e-07	-1.642898e-06	-3.961240e-09	-1.138526e+01	-2.576535e+02
5.100000e-07	-1.598186e-06	-3.914474e-09	-1.107540e+01	-2.549501e+02
5.200000e-07	-1.553049e-06	-3.871023e-09	-1.076260e+01	-2.521831e+02
5.300000e-07	-1.507362e-06	-3.836930e-09	-1.044600e+01	-2.493442e+02
5.400000e-07	-1.461134e-06	-3.795076e-09	-1.012564e+01	-2.464297e+02
5.500000e-07	-1.414381e-06	-3.732825e-09	-9.801636e+00	-2.434415e+02
5.600000e-07	-1.367093e-06	-3.695454e-09	-9.473935e+00	-2.403866e+02
5.700000e-07	-1.319297e-06	-3.648398e-09	-9.142707e+00	-2.372735e+02
5.800000e-07	-1.271067e-06	-3.595621e-09	-8.808472e+00	-2.341083e+02
5.900000e-07	-1.222547e-06	-3.548670e-09	-8.472234e+00	-2.308908e+02
6.000000e-07	-1.173746e-06	-3.500137e-09	-8.134041e+00	-2.276131e+02
6.100000e-07	-1.124407e-06	-3.447465e-09	-7.792121e+00	-2.242615e+02
6.200000e-07	-1.074315e-06	-3.391368e-09	-7.444986e+00	-2.208211e+02
6.300000e-07	-1.023481e-06	-3.340084e-09	-7.092708e+00	-2.172816e+02
6.400000e-07	-9.720935e-07	-3.280091e-09	-6.736593e+00	-2.136413e+02
6.500000e-07	-9.202650e-07	-3.224171e-09	-6.377422e+00	-2.099089e+02
6.600000e-07	-8.680569e-07	-3.166442e-09	-6.015621e+00	-2.061004e+02
6.700000e-07	-8.156178e-07	-3.110392e-09	-5.652219e+00	-2.022341e+02
6.800000e-07	-7.630136e-07	-3.048566e-09	-5.287673e+00	-1.983232e+02
6.900000e-07	-7.101121e-07	-2.984891e-09	-4.921066e+00	-1.943703e+02
7.000000e-07	-6.569333e-07	-2.925531e-09	-4.552538e+00	-1.903663e+02
7.100000e-07	-6.035492e-07	-2.865380e-09	-4.182587e+00	-1.862925e+02
7.200000e-07	-5.498906e-07	-2.799500e-09	-3.810734e+00	-1.821274e+02
7.300000e-07	-4.960255e-07	-2.725670e-09	-3.437449e+00	-1.778537e+02
7.400000e-07	-4.419543e-07	-2.655836e-09	-3.062736e+00	-1.734643e+02
7.500000e-07	-3.877069e-07	-2.585997e-09	-2.686803e+00	-1.689637e+02
7.600000e-07	-3.333670e-07	-2.518684e-09	-2.310228e+00	-1.643650e+02
7.700000e-07	-2.789311e-07	-2.445397e-09	-1.932988e+00	-1.596827e+02
7.800000e-07	-2.244375e-07	-2.371121e-09	-1.555349e+00	-1.549251e+02
7.900000e-07	-1.699260e-07	-2.301152e-09	-1.177585e+00	-1.500884e+02
8.000000e-07	-1.153966e-07	-2.227690e-09	-7.996966e-01	-1.451554e+02
8.100000e-07	-6.084873e-08	-2.147242e-09	-4.216808e-01	-1.400996e+02
8.200000e-07	-6.300920e-09	-2.060684e-09	-4.366528e-02	-1.348932e+02
8.300000e-07	4.827951e-08	-1.977942e-09	3.345763e-01	-1.295152e+02
8.400000e-07	1.028312e-07	-1.895518e-09	7.126186e-01	-1.239581e+02
8.500000e-07	1.573362e-07	-1.811335e-09	1.090337e+00	-1.182289e+02
8.600000e-07	2.118573e-07	-1.719475e-09	1.468168e+00	-1.123445e+02
8.700000e-07	2.663483e-07	-1.628035e-09	1.845790e+00	-1.063236e+02
8.800000e-07	3.207707e-07	-1.539487e-09	2.222936e+00	-1.001771e+02
8.900000e-07	3.751016e-07	-1.442345e-09	2.599448e+00	-9.390124e+01
9.000000e-07	4.293000e-07	-1.336249e-09	2.975042e+00	-8.747596e+01
9.100000e-07	4.833289e-07	-1.231618e-09	3.349462e+00	-8.086880e+01
9.200000e-07	5.371678e-07	-1.132848e-09	3.722565e+00	-7.404301e+01
9.300000e-07	5.907408e-07	-1.025908e-09	4.093825e+00	-6.696657e+01
9.400000e-07	6.440762e-07	-9.105297e-10	4.463438e+00	-5.961892e+01
9.500000e-07	6.971598e-07	-7.910055e-10	4.831307e+00	-5.199271e+01
9.600000e-07	7.499348e-07	-6.732702e-10	5.197037e+00	-4.409022e+01
9.700000e-07	8.024852e-07	-5.512019e-10	5.561210e+00	-3.591602e+01
9.800000e-07	8.548345e-07	-4.195507e-10	5.923990e+00	-2.746882e+01
9.900000e-07	9.068602e-07	-2.800585e-10	6.284527e+00	-1.873597e+01
1.000000e-06	9.584618e-07	-1.373757e-10	6.642126e+00	-9.692672e+00
1.010000e-06	1.009550e-06	3.482745e-12	6.996164e+00	-3.065619e-01
1.020000e-06	1.060013e-06	1.497979e-10	7.345874e+00	9.454055e+00
1.030000e-06	1.109840e-06	3.059436e-10	7.691174e+00	1.961100e+01
1.040000e-06	1.159112e-06	4.722012e-10	8.032629e+00	3.016903e+01
1.050000e-06	1.207942e-06	6.405887e-10	8.371020e+00	4.111271e+01
1.060000e-06	1.256460e-06	8.122192e-10	8.707252e+00	5.240753e+01
1.070000e-06	1.304696e-06	9.902818e-10	9.041522e+00	6.400411e+01
1.080000e-06	1.352549e-06	1.173913e-09	9.373145e+00	7.584323e+01
1.090000e-06	1.399875e-06	1.359094e-09	9.701114e+00	8.785940e+01
1.100000e-06	1.446646e-06	1.541125e-09	1.002524e+01	9.998208e+01
1.110000e-06	1.492938e-06	1.724980e-09	1.034604e+01	1.121346e+02
1.120000e-06	1.538713e-06	1.908671e-09	1.066326e+01	1.242329e+02
1.130000e-06	1.583972e-06	2.090500e-09	1.097690e+01	1.361850e+02
1.140000e-06	1.628800e-06	2.268642e-09	1.128756e+01	1.478944e+02
1.150000e-06	1.673280e-06	2.443353e-09	1.159580e+01	1.592663e+02
1.160000e-06	1.717313e-06	2.612533e-09	1.190095e+01	1.702151e+02
1.170000e-06	1.760558e-06	2.773421e-09	1.220064e+01	1.806729e+02
1.180000e-06	1.802790e-06	2.923744e-09	1.249331e+01	1.905938e+02
1.190000e-06	1.844107e-06	3.063557e-09	1.277963e+01	1.999552e+02
1.200000e-06	1.884821e-06	3.196515e-09	1.306178e+01	2.087537e+02
1.210000e-06	1.925053e-06	3.322557e-09	1.334059e+01	2.169988e+02
1.220000e-06	1.964633e-06	3.438939e-09	1.361488e+01	2.247068e+02
1.230000e-06	2.003540e-06	3.544671e-09	1.388450e+01	2.318960e+02
1.240000e-06	2.041773e-06	3.646239e-09	1.414946e+01	2.385860e+02
1.250000e-06	2.079226e-06	3.740324e-09	1.440901e+01	2.447997e+02
1.260000e-06	2.116039e-06	3.825741e-09	1.466412e+01	2.505667e+02
1.270000e-06	2.152418e-06	3.905026e-09	1.491622e+01	2.559257e+02
1.280000e-06	2.188112e-06	3.982285e-09	1.516358e+01	2.609236e+02
1.290000e-06	2.222714e-06	4.055858e-09	1.540337e+01	2.656103e+02
1.300000e-06	2.256218e-06	4.122020e-09	1.563556e+01	2.700318e+02
1.310000e-06	2.288925e-06	4.181915e-09	1.586222e+01	2.742216e+02
1.320000e-06	2.321026e-06	4.238647e-09	1.608468e+01	2.781960e+02
1.330000e-06	2.352408e-06	4.295175e-09	1.630215e+01	2.819539e+02
1.340000e-06	2.382977e-06	4.347897e-09	1.651399e+01	2.854817e+02
1.350000e-06	2.412675e-06	4.394456e-09	1.671980e+01	2.887624e+02
1.360000e-06	2.441577e-06	4.436464e-09	1.692009e+01	2.917861e+02
1.370000e-06	2.469921e-06	4.477328e-09	1.711651e+01	2.945571e+02
1.380000e-06	2.497494e-06	4.515210e-09	1.730760e+01	2.970964e+02
1.390000e-06	2.523773e-06	4.550386e-09	1.748971e+01	2.994379e+02
1.400000e-06	2.548815e-06	4.582961e-09	1.766325e+01	3.016209e+02
1.410000e-06	2.573026e-06	4.612842e-09	1.783103e+01	3.036797e+02
1.420000e-06	2.596393e-06	4.641911e-09	1.799297e+01	3.056364e+02
1.430000e-06	2.618889e-06	4.669656e-09	1.814886e+01	3.074977e+02
1.440000e-06	2.640502e-06	4.696811e-09	1.829864e+01	3.092572e+02
1.450000e-06	2.661322e-06	4.719074e-09	1.844292e+01	3.109025e+02
1.460000e-06	2.681489e-06	4.736620e-09	1.858268e+01	3.124231e+02
1.470000e-06	2.700741e-06	4.754769e-09	1.871610e+01	3.138172e+02
1.480000e-06	2.718938e-06	4.776311e-09	1.884220e+01	3.150944e+02
1.490000e-06	2.736197e-06	4.798964e-09	1.896180e+01	3.162734e+02
1.500000e-06	2.752446e-06	4.818455e-09	1.907441e+01	3.173761e+02
1.510000e-06	2.767577e-06	4.834272e-09	1.917927e+01	3.184200e+02
1.520000e-06	2.781640e-06	4.846394e-09	1.927672e+01	3.194133e+02
1.530000e-06	2.794680e-06	4.856744e-09	1.936709e+01	3.203527e+02
1.540000e-06	2.806685e-06	4.866701e-09	1.945029e+01	3.212260e+02
1.550000e-06	2.817395e-06	4.876813e-09	1.952450e+01	3.220179e+02
1.560000e-06	2.826792e-06	4.889188e-09	1.958963e+01	3.227170e+02
1.570000e-06	2.835264e-06	4.904940e-09	1.964834e+01	3.233202e+02
1.580000e-06	2.842849e-06	4.918935e-09	1.970090e+01	3.238350e+02
1.590000e-06	2.849440e-06	4.926601e-09	1.974658e+01	3.242763e+02
1.600000e-06	2.855076e-06	4.928834e-09	1.978563e+01	3.246616e+02
1.610000e-06	2.859877e-06	4.930739e-09	1.981890e+01	3.250052e+02
1.620000e-06	2.863846e-06	4.933607e-09	1.984641e+01	3.253130e+02
1.630000e-06	2.866591e-06	4.936707e-09	1.986543e+01	3.255818e+02
1.640000e-06	2.868015e-06	4.941232e-09	1.987530e+01	3.258006e+02
1.650000e-06	2.868477e-06	4.947797e-09	1.987850e+01	3.259555e+02
1.660000e-06	2.868076e-06	4.953409e-09	1.987573e+01	3.260343e+02
1.670000e-06	2.866780e-06	4.951247e-09	1.986674e+01	3.260308e+02
1.680000e-06	2.864625e-06	4.944642e-09	1.985181e+01	3.259460e+02
1.690000e-06	2.861674e-06	4.941981e-09	1.983136e+01	3.257869e+02
1.700000e-06	2.857978e-06	4.941225e-09	1.980574e+01	3.255641e+02
1.710000e-06	2.853215e-06	4.936656e-09	1.977274e+01	3.252876e+02
1.720000e-06	2.847188e-06	4.927015e-09	1.973097e+01	3.249642e+02
1.730000e-06	2.840189e-06	4.936979e-09	1.968246e+01	3.245966e+02
1.740000e-06	2.832342e-06	4.914292e-09	1.962809e+01	3.241839e+02
1.750000e-06	2.823210e-06	4.878763e-09	1.956481e+01	3.237232e+02
1.760000e-06	2.812397e-06	4.870025e-09	1.948987e+01	3.232119e+02
1.770000e-06	2.800629e-06	4.955980e-09	1.940832e+01	3.226489e+02
1.780000e-06	2.788855e-06	4.940427e-09	1.932672e+01	3.220354e+02
1.790000e-06	2.776415e-06	4.796801e-09	1.924052e+01	3.213738e+02
1.800000e-06	2.762151e-06	4.845682e-09	1.914166e+01	3.206676e+02
1.810000e-06	2.746592e-06	4.929924e-09	1.903384e+01	3.199195e+02
1.820000e-06	2.730638e-06	4.842371e-09	1.892328e+01	3.191314e+02
1.830000e-06	2.713676e-06	4.782689e-09	1.880573e+01	3.183038e+02
1.840000e-06	2.695282e-06	4.928069e-09	1.867826e+01	3.174366e+02
1.850000e-06	2.676161e-06	4.887970e-09	1.854576e+01	3.165280e+02
1.860000e-06	2.656383e-06	4.720424e-09	1.840870e+01	3.155756e+02
1.870000e-06	2.635267e-06	4.866872e-09	1.826236e+01	3.145751e+02
1.880000e-06	2.613052e-06	4.877303e-09	1.810841e+01	3.135207e+02
1.890000e-06	2.590024e-06	4.666994e-09	1.794883e+01	3.124054e+02
1.900000e-06	2.565886e-06	4.769390e-09	1.778155e+01	3.112221e+02
1.910000e-06	2.540988e-06	4.814404e-09	1.760901e+01	3.099648e+02
1.920000e-06	2.515422e-06	4.675623e-09	1.743184e+01	3.086305e+02
1.930000e-06	2.488848e-06	4.707991e-09	1.724768e+01	3.072195e+02
1.940000e-06	2.461569e-06	4.721053e-09	1.705863e+01	3.057360e+02
1.950000e-06	2.433571e-06	4.637814e-09	1.686461e+01	3.041862e+02
1.960000e-06	2.404267e-06	4.644934e-09	1.666154e+01	3.025768e+02
1.970000e-06	2.373850e-06	4.606271e-09	1.645074e+01	3.009125e+02
1.980000e-06	2.342739e-06	4.541368e-09	1.623514e+01	2.991955e+02
1.990000e-06	2.310920e-06	4.586962e-09	1.601464e+01	2.974252e+02
2.000000e-06	2.278364e-06	4.530070e-09	1.578903e+01	2.955994e+02
2.010000e-06	2.244965e-06	4.485364e-09	1.555757e+01	2.937163e+02
2.020000e-06	2.210782e-06	4.498035e-09	1.532069e+01	2.917760e+02
2.030000e-06	2.175994e-06	4.413932e-09	1.507961e+01	2.897810e+02
2.040000e-06	2.140544e-06	4.389790e-09	1.483394e+01	2.877359e+02
2.050000e-06	2.104380e-06	4.383395e-09	1.458332e+01	2.856451e+02
2.060000e-06	2.067346e-06	4.307698e-09	1.432668e+01	2.835113e+02
2.070000e-06	2.029143e-06	4.305099e-09	1.406193e+01	2.813342e+02
2.080000e-06	1.990075e-06	4.287202e-09	1.379119e+01	2.791102e+02
2.090000e-06	1.950507e-06	4.226822e-09	1.351698e+01	2.768342e+02
2.100000e-06	1.910308e-06	4.208119e-09	1.323840e+01	2.745017e+02
2.110000e-06	1.869415e-06	4.147050e-09	1.295502e+01	2.721106e+02
2.120000e-06	1.827946e-06	4.109649e-09	1.266764e+01	2.696628e+02
2.130000e-06	1.786016e-06	4.091938e-09	1.237706e+01	2.671625e+02
2.140000e-06	1.743479e-06	4.041507e-09	1.208228e+01	2.646145e+02
2.150000e-06	1.700408e-06	4.008845e-09	1.178380e+01	2.620215e+02
2.160000e-06	1.656980e-06	3.954265e-09	1.148285e+01	2.593817e+02
2.170000e-06	1.612927e-06	3.917194e-09	1.117756e+01	2.566889e+02
2.180000e-06	1.568172e-06	3.882730e-09	1.086741e+01	2.539341e+02
2.190000e-06	1.522842e-06	3.823473e-09	1.055327e+01	2.511086e+02
2.200000e-06	1.477020e-06	3.791695e-09	1.023573e+01	2.482078e+02
2.210000e-06	1.430844e-06	3.752707e-09	9.915724e+00	2.452325e+02
2.220000e-06	1.384227e-06	3.694116e-09	9.592673e+00	2.421890e+02
2.230000e-06	1.337034e-06	3.653600e-09	9.265622e+00	2.390859e+02
2.240000e-06	1.289205e-06	3.596500e-09	8.934173e+00	2.359299e+02
2.250000e-06	1.240729e-06	3.545288e-09	8.598233e+00	2.327223e+02
2.260000e-06	1.191820e-06	3.509459e-09	8.259297e+00	2.294563e+02
2.270000e-06	1.142608e-06	3.455358e-09	7.918253e+00	2.261192e+02
2.280000e-06	1.092960e-06	3.408395e-09	7.574194e+00	2.226958e+02
2.290000e-06	1.042827e-06	3.350742e-09	7.226774e+00	2.191746e+02
2.300000e-06	9.922097e-07	3.295456e-09	6.875998e+00	2.155521e+02
2.310000e-06	9.412444e-07	3.238228e-09	6.522809e+00	2.118352e+02
2.320000e-06	8.900489e-07	3.170662e-09	6.168025e+00	2.080391e+02
2.330000e-06	8.386129e-07	3.116055e-09	5.811575e+00	2.041821e+02
2.340000e-06	7.868224e-07	3.060902e-09	5.452667e+00	2.002787e+02
2.350000e-06	7.345729e-07	3.003929e-09	5.090579e+00	1.963338e+02
2.360000e-06	6.818911e-07	2.941412e-09	4.725495e+00	1.923402e+02
2.370000e-06	6.287856e-07	2.879406e-09	4.357474e+00	1.882807e+02
2.380000e-06	5.753262e-07	2.823507e-09	3.987002e+00	1.841335e+02
2.390000e-06	5.214290e-07	2.758971e-09	3.613495e+00	1.798802e+02
2.400000e-06	4.671506e-07	2.689636e-09	3.237346e+00	1.755116e+02
2.410000e-06	4.127428e-07	2.626062e-09	2.860301e+00	1.710302e+02
2.420000e-06	3.582165e-07	2.558617e-09	2.482435e+00	1.664481e+02
2.430000e-06	3.034900e-07	2.487186e-09	2.103181e+00	1.617800e+02
2.440000e-06	2.486420e-07	2.412900e-09	1.723085e+00	1.570359e+02
2.450000e-06	1.937272e-07	2.340835e-09	1.342526e+00	1.522143e+02
2.460000e-06	1.387591e-07	2.271726e-09	9.615982e-01	1.473004e+02
2.470000e-06	8.380124e-08	2.193090e-09	5.807413e-01	1.422688e+02
2.480000e-06	2.883928e-08	2.112773e-09	1.998558e-01	1.370913e+02
2.490000e-06	-2.615077e-08	2.030464e-09	-1.812244e-01	1.317451e+02
2.500000e-06	-8.115433e-08	1.946494e-09	-5.623983e-01	1.262200e+02
2.510000e-06	-1.361458e-07	1.861244e-09	-9.434884e-01	1.205206e+02
2.520000e-06	-1.911215e-07	1.772513e-09	-1.324469e+00	1.146626e+02
2.530000e-06	-2.460709e-07	1.683170e-09	-1.705268e+00	1.086651e+02
2.540000e-06	-3.009115e-07	1.590720e-09	-2.085312e+00	1.025410e+02
2.550000e-06	-3.555971e-07	1.497018e-09	-2.464283e+00	9.628939e+01
2.560000e-06	-4.101522e-07	1.398199e-09	-2.842349e+00	8.989305e+01
2.570000e-06	-4.645053e-07	1.295737e-09	-3.219015e+00	8.332121e+01
2.580000e-06	-5.186085e-07	1.192704e-09	-3.593949e+00	7.653720e+01
2.590000e-06	-5.724182e-07	1.088292e-09	-3.966849e+00	6.950757e+01
2.600000e-06	-6.258287e-07	9.783670e-10	-4.336984e+00	6.220940e+01
2.610000e-06	-6.787950e-07	8.626599e-10	-4.704039e+00	5.463311e+01
2.620000e-06	-7.313361e-07	7.431832e-10	-5.068148e+00	4.677972e+01
2.630000e-06	-7.834420e-07	6.202508e-10	-5.429241e+00	3.865402e+01
2.640000e-06	-8.351473e-07	4.942540e-10	-5.787558e+00	3.025628e+01
2.650000e-06	-8.865634e-07	3.638784e-10	-6.143871e+00	2.157608e+01
2.660000e-06	-9.377266e-07	2.279528e-10	-6.498431e+00	1.259062e+01
2.670000e-06	-9.886451e-07	8.419000e-11	-6.851295e+00	3.268339e+00
2.680000e-06	-1.039215e-06	-6.420039e-11	-7.201741e+00	-6.423257e+00
2.690000e-06	-1.089345e-06	-2.186839e-10	-7.549144e+00	-1.650837e+01
2.700000e-06	-1.139046e-06	-3.783401e-10	-7.893570e+00	-2.699518e+01
2.710000e-06	-1.188291e-06	-5.410173e-10	-8.234842e+00	-3.787187e+01
2.720000e-06	-1.237065e-06	-7.070048e-10	-8.572844e+00	-4.910709e+01
2.730000e-06	-1.285249e-06	-8.787352e-10	-8.906755e+00	-6.065376e+01
2.740000e-06	-1.332669e-06	-1.058151e-09	-9.235378e+00	-7.245408e+01
2.750000e-06	-1.379305e-06	-1.244275e-09	-9.558563e+00	-8.444351e+01
2.760000e-06	-1.425365e-06	-1.434512e-09	-9.877755e+00	-9.655244e+01
2.770000e-06	-1.471061e-06	-1.622254e-09	-1.019443e+01	-1.087054e+02
2.780000e-06	-1.516449e-06	-1.806294e-09	-1.050897e+01	-1.208198e+02
2.790000e-06	-1.561481e-06	-1.986562e-09	-1.082104e+01	-1.328048e+02
2.800000e-06	-1.605961e-06	-2.164048e-09	-1.112929e+01	-1.445646e+02
2.810000e-06	-1.649829e-06	-2.338417e-09	-1.143329e+01	-1.560032e+02
2.820000e-06	-1.693235e-06	-2.506429e-09	-1.173409e+01	-1.670330e+02
2.830000e-06	-1.736256e-06	-2.666133e-09	-1.203223e+01	-1.775824e+02
2.840000e-06	-1.778827e-06	-2.820205e-09	-1.232724e+01	-1.876013e+02
2.850000e-06	-1.820796e-06	-2.971262e-09	-1.261809e+01	-1.970633e+02
2.860000e-06	-1.862149e-06	-3.111291e-09	-1.290466e+01	-2.059616e+02
2.870000e-06	-1.902882e-06	-3.236152e-09	-1.318695e+01	-2.143043e+02
2.880000e-06	-1.942923e-06	-3.352267e-09	-1.346443e+01	-2.221068e+02
2.890000e-06	-1.982387e-06	-3.466319e-09	-1.373791e+01	-2.293871e+02
2.900000e-06	-2.021357e-06	-3.574607e-09	-1.400797e+01	-2.361646e+02
2.910000e-06	-2.059543e-06	-3.672082e-09	-1.427260e+01	-2.424613e+02
2.920000e-06	-2.096633e-06	-3.760379e-09	-1.452963e+01	-2.483053e+02
2.930000e-06	-2.132727e-06	-3.845104e-09	-1.477977e+01	-2.537338e+02
2.940000e-06	-2.168122e-06	-3.928120e-09	-1.502505e+01	-2.587923e+02
