# Temperatura_=_21.3
# Concentracion g/m^3_=_13400.0
# C_Vs_to_Am_M_A/Vsm_=_65563218390.804596
# pendiente_HvsI_1/m_=_3716.3
# ordenada_HvsI_A/m_=_1297.0
# frecuencia_Hz_=_300838.97789041424

Tiempo_(s)	Campo_(V.s)	Magnetizacion_(V.s)	Campo_(kA/m)	Magnetizacion_(A/m)
0.000000e+00	-2.861139e-06	-5.084843e-09	-1.980480e+01	-3.325491e+02
1.000000e-08	-2.860705e-06	-5.085479e-09	-1.980179e+01	-3.325860e+02
2.000000e-08	-2.859524e-06	-5.082896e-09	-1.979362e+01	-3.325766e+02
3.000000e-08	-2.857202e-06	-5.078921e-09	-1.977754e+01	-3.325146e+02
4.000000e-08	-2.853598e-06	-5.079494e-09	-1.975259e+01	-3.323882e+02
5.000000e-08	-2.849093e-06	-5.080866e-09	-1.972141e+01	-3.321846e+02
6.000000e-08	-2.843823e-06	-5.074297e-09	-1.968493e+01	-3.318952e+02
7.000000e-08	-2.837623e-06	-5.059051e-09	-1.964202e+01	-3.315199e+02
8.000000e-08	-2.830386e-06	-5.055140e-09	-1.959192e+01	-3.310684e+02
9.000000e-08	-2.822111e-06	-5.086905e-09	-1.953464e+01	-3.305588e+02
1.000000e-07	-2.812574e-06	-5.093310e-09	-1.946863e+01	-3.300119e+02
1.100000e-07	-2.801580e-06	-5.023639e-09	-1.939253e+01	-3.294455e+02
1.200000e-07	-2.789541e-06	-4.953567e-09	-1.930920e+01	-3.288689e+02
1.300000e-07	-2.776818e-06	-5.030881e-09	-1.922113e+01	-3.282805e+02
1.400000e-07	-2.763116e-06	-5.088729e-09	-1.912628e+01	-3.276693e+02
1.500000e-07	-2.748443e-06	-4.956293e-09	-1.902471e+01	-3.270185e+02
1.600000e-07	-2.732785e-06	-4.953126e-09	-1.891633e+01	-3.263122e+02
1.700000e-07	-2.715611e-06	-5.061591e-09	-1.879745e+01	-3.255391e+02
1.800000e-07	-2.697246e-06	-4.989794e-09	-1.867033e+01	-3.246962e+02
1.900000e-07	-2.678331e-06	-4.880330e-09	-1.853940e+01	-3.237873e+02
2.000000e-07	-2.658670e-06	-4.958672e-09	-1.840330e+01	-3.228204e+02
2.100000e-07	-2.638003e-06	-4.947143e-09	-1.826025e+01	-3.218035e+02
2.200000e-07	-2.616565e-06	-4.827243e-09	-1.811185e+01	-3.207410e+02
2.300000e-07	-2.594387e-06	-4.917679e-09	-1.795834e+01	-3.196321e+02
2.400000e-07	-2.571198e-06	-4.955529e-09	-1.779783e+01	-3.184712e+02
2.500000e-07	-2.547079e-06	-4.815961e-09	-1.763087e+01	-3.172510e+02
2.600000e-07	-2.522237e-06	-4.806511e-09	-1.745892e+01	-3.159644e+02
2.700000e-07	-2.496515e-06	-4.837027e-09	-1.728087e+01	-3.146070e+02
2.800000e-07	-2.469710e-06	-4.765868e-09	-1.709533e+01	-3.131775e+02
2.900000e-07	-2.441808e-06	-4.746076e-09	-1.690219e+01	-3.116768e+02
3.000000e-07	-2.412953e-06	-4.733568e-09	-1.670245e+01	-3.101063e+02
3.100000e-07	-2.383328e-06	-4.724083e-09	-1.649739e+01	-3.084669e+02
3.200000e-07	-2.353018e-06	-4.723735e-09	-1.628758e+01	-3.067586e+02
3.300000e-07	-2.321973e-06	-4.674727e-09	-1.607269e+01	-3.049820e+02
3.400000e-07	-2.290068e-06	-4.622091e-09	-1.585184e+01	-3.031395e+02
3.500000e-07	-2.257512e-06	-4.610606e-09	-1.562649e+01	-3.012369e+02
3.600000e-07	-2.224437e-06	-4.574717e-09	-1.539755e+01	-2.992828e+02
3.700000e-07	-2.190462e-06	-4.550881e-09	-1.516237e+01	-2.972870e+02
3.800000e-07	-2.155194e-06	-4.546593e-09	-1.491825e+01	-2.952577e+02
3.900000e-07	-2.118907e-06	-4.488422e-09	-1.466707e+01	-2.931984e+02
4.000000e-07	-2.082078e-06	-4.474827e-09	-1.441214e+01	-2.911067e+02
4.100000e-07	-2.044620e-06	-4.462620e-09	-1.415285e+01	-2.889751e+02
4.200000e-07	-2.006387e-06	-4.393391e-09	-1.388821e+01	-2.867937e+02
4.300000e-07	-1.967429e-06	-4.343045e-09	-1.361854e+01	-2.845541e+02
4.400000e-07	-1.927733e-06	-4.334003e-09	-1.334376e+01	-2.822534e+02
4.500000e-07	-1.887423e-06	-4.298318e-09	-1.306474e+01	-2.798947e+02
4.600000e-07	-1.846742e-06	-4.256687e-09	-1.278314e+01	-2.774860e+02
4.700000e-07	-1.805605e-06	-4.224373e-09	-1.249839e+01	-2.750364e+02
4.800000e-07	-1.763596e-06	-4.182098e-09	-1.220760e+01	-2.725510e+02
4.900000e-07	-1.720490e-06	-4.140266e-09	-1.190922e+01	-2.700279e+02
5.000000e-07	-1.676529e-06	-4.097175e-09	-1.160493e+01	-2.674571e+02
5.100000e-07	-1.632059e-06	-4.059368e-09	-1.129711e+01	-2.648233e+02
5.200000e-07	-1.587210e-06	-4.012664e-09	-1.098666e+01	-2.621109e+02
5.300000e-07	-1.541899e-06	-3.976463e-09	-1.067302e+01	-2.593101e+02
5.400000e-07	-1.496026e-06	-3.937743e-09	-1.035549e+01	-2.564204e+02
5.500000e-07	-1.449616e-06	-3.888264e-09	-1.003424e+01	-2.534514e+02
5.600000e-07	-1.402649e-06	-3.833934e-09	-9.709135e+00	-2.504188e+02
5.700000e-07	-1.355107e-06	-3.789387e-09	-9.380048e+00	-2.473384e+02
5.800000e-07	-1.307125e-06	-3.749595e-09	-9.047913e+00	-2.442192e+02
5.900000e-07	-1.258811e-06	-3.700071e-09	-8.713483e+00	-2.410595e+02
6.000000e-07	-1.210165e-06	-3.653020e-09	-8.376760e+00	-2.378459e+02
6.100000e-07	-1.161077e-06	-3.600905e-09	-8.036973e+00	-2.345580e+02
6.200000e-07	-1.111352e-06	-3.544197e-09	-7.692774e+00	-2.311756e+02
6.300000e-07	-1.060852e-06	-3.486189e-09	-7.343214e+00	-2.276854e+02
6.400000e-07	-1.009740e-06	-3.434380e-09	-6.989415e+00	-2.240868e+02
6.500000e-07	-9.581632e-07	-3.378763e-09	-6.632402e+00	-2.203912e+02
6.600000e-07	-9.061609e-07	-3.321902e-09	-6.272443e+00	-2.166183e+02
6.700000e-07	-8.539072e-07	-3.267883e-09	-5.910743e+00	-2.127883e+02
6.800000e-07	-8.014288e-07	-3.209227e-09	-5.547488e+00	-2.089142e+02
6.900000e-07	-7.486409e-07	-3.144771e-09	-5.182090e+00	-2.049970e+02
7.000000e-07	-6.955704e-07	-3.077549e-09	-4.814736e+00	-2.010254e+02
7.100000e-07	-6.422693e-07	-3.016297e-09	-4.445786e+00	-1.969794e+02
7.200000e-07	-5.887340e-07	-2.953498e-09	-4.075215e+00	-1.928378e+02
7.300000e-07	-5.349747e-07	-2.887723e-09	-3.703093e+00	-1.885852e+02
7.400000e-07	-4.809830e-07	-2.817428e-09	-3.329363e+00	-1.842163e+02
7.500000e-07	-4.268013e-07	-2.746018e-09	-2.954317e+00	-1.797357e+02
7.600000e-07	-3.724654e-07	-2.675853e-09	-2.578204e+00	-1.751541e+02
7.700000e-07	-3.180264e-07	-2.603733e-09	-2.201378e+00	-1.704814e+02
7.800000e-07	-2.635273e-07	-2.528990e-09	-1.824135e+00	-1.657205e+02
7.900000e-07	-2.089791e-07	-2.452147e-09	-1.446552e+00	-1.608644e+02
8.000000e-07	-1.544283e-07	-2.377842e-09	-1.068952e+00	-1.558966e+02
8.100000e-07	-9.986328e-08	-2.300469e-09	-6.912533e-01	-1.507965e+02
8.200000e-07	-4.527201e-08	-2.219157e-09	-3.133727e-01	-1.455453e+02
8.300000e-07	9.325518e-09	-2.133278e-09	6.455121e-02	-1.401320e+02
8.400000e-07	6.392658e-08	-2.046613e-09	4.424996e-01	-1.345555e+02
8.500000e-07	1.185318e-07	-1.959585e-09	8.204771e-01	-1.288228e+02
8.600000e-07	1.731525e-07	-1.869390e-09	1.198561e+00	-1.229439e+02
8.700000e-07	2.277225e-07	-1.776710e-09	1.576294e+00	-1.169249e+02
8.800000e-07	2.821899e-07	-1.683333e-09	1.953318e+00	-1.107631e+02
8.900000e-07	3.365782e-07	-1.589983e-09	2.329793e+00	-1.044448e+02
9.000000e-07	3.908633e-07	-1.487377e-09	2.705554e+00	-9.794710e+01
9.100000e-07	4.449944e-07	-1.381115e-09	3.080250e+00	-9.124325e+01
9.200000e-07	4.989871e-07	-1.276603e-09	3.453987e+00	-8.430800e+01
9.300000e-07	5.527738e-07	-1.170361e-09	3.826298e+00	-7.712207e+01
9.400000e-07	6.063044e-07	-1.055123e-09	4.196837e+00	-6.967331e+01
9.500000e-07	6.596683e-07	-9.334886e-10	4.566222e+00	-6.195446e+01
9.600000e-07	7.128244e-07	-8.111244e-10	4.934168e+00	-5.395880e+01
9.700000e-07	7.657117e-07	-6.873512e-10	5.300254e+00	-4.567561e+01
9.800000e-07	8.183298e-07	-5.579603e-10	5.664476e+00	-3.708743e+01
9.900000e-07	8.706669e-07	-4.184783e-10	6.026753e+00	-2.817047e+01
1.000000e-06	9.226837e-07	-2.737512e-10	6.386814e+00	-1.889771e+01
1.010000e-06	9.743044e-07	-1.233496e-10	6.744132e+00	-9.243579e+00
1.020000e-06	1.025350e-06	3.224172e-11	7.097468e+00	8.115565e-01
1.030000e-06	1.075656e-06	1.937144e-10	7.445689e+00	1.127873e+01
1.040000e-06	1.125232e-06	3.599099e-10	7.788853e+00	2.215977e+01
1.050000e-06	1.174285e-06	5.319443e-10	8.128395e+00	3.344805e+01
1.060000e-06	1.223048e-06	7.096838e-10	8.465933e+00	4.512909e+01
1.070000e-06	1.271570e-06	8.928188e-10	8.801802e+00	5.717937e+01
1.080000e-06	1.319775e-06	1.083038e-09	9.135477e+00	6.956296e+01
1.090000e-06	1.367499e-06	1.275886e-09	9.465821e+00	8.222642e+01
1.100000e-06	1.414682e-06	1.471720e-09	9.792427e+00	9.509428e+01
1.110000e-06	1.461392e-06	1.669212e-09	1.011575e+01	1.080674e+02
1.120000e-06	1.507556e-06	1.866473e-09	1.043529e+01	1.210260e+02
1.130000e-06	1.553144e-06	2.058493e-09	1.075086e+01	1.338386e+02
1.140000e-06	1.598249e-06	2.246859e-09	1.106307e+01	1.463744e+02
1.150000e-06	1.642975e-06	2.433620e-09	1.137267e+01	1.585164e+02
1.160000e-06	1.687358e-06	2.612758e-09	1.167989e+01	1.701729e+02
1.170000e-06	1.731186e-06	2.780382e-09	1.198327e+01	1.812822e+02
1.180000e-06	1.774203e-06	2.938059e-09	1.228103e+01	1.918113e+02
1.190000e-06	1.816234e-06	3.090285e-09	1.257197e+01	2.017496e+02
1.200000e-06	1.857381e-06	3.234703e-09	1.285678e+01	2.110987e+02
1.210000e-06	1.898000e-06	3.368391e-09	1.313795e+01	2.198645e+02
1.220000e-06	1.938173e-06	3.490845e-09	1.341603e+01	2.280522e+02
1.230000e-06	1.977668e-06	3.604399e-09	1.368941e+01	2.356671e+02
1.240000e-06	2.016446e-06	3.710729e-09	1.395784e+01	2.427193e+02
1.250000e-06	2.054514e-06	3.807509e-09	1.422134e+01	2.492298e+02
1.260000e-06	2.091820e-06	3.894143e-09	1.447957e+01	2.552349e+02
1.270000e-06	2.128564e-06	3.977006e-09	1.473391e+01	2.607859e+02
1.280000e-06	2.164837e-06	4.059296e-09	1.498499e+01	2.659440e+02
1.290000e-06	2.200290e-06	4.135234e-09	1.523040e+01	2.707704e+02
1.300000e-06	2.234599e-06	4.201337e-09	1.546789e+01	2.753169e+02
1.310000e-06	2.267886e-06	4.263219e-09	1.569830e+01	2.796178e+02
1.320000e-06	2.300464e-06	4.325845e-09	1.592380e+01	2.836878e+02
1.330000e-06	2.332369e-06	4.384358e-09	1.614465e+01	2.875252e+02
1.340000e-06	2.363489e-06	4.434965e-09	1.636006e+01	2.911203e+02
1.350000e-06	2.393838e-06	4.480593e-09	1.657014e+01	2.944648e+02
1.360000e-06	2.423381e-06	4.525784e-09	1.677464e+01	2.975596e+02
1.370000e-06	2.452211e-06	4.569938e-09	1.697420e+01	3.004180e+02
1.380000e-06	2.480417e-06	4.608762e-09	1.716944e+01	3.030641e+02
1.390000e-06	2.507588e-06	4.643242e-09	1.735751e+01	3.055275e+02
1.400000e-06	2.533462e-06	4.677349e-09	1.753661e+01	3.078356e+02
1.410000e-06	2.558367e-06	4.710056e-09	1.770901e+01	3.100081e+02
1.420000e-06	2.582478e-06	4.739050e-09	1.787590e+01	3.120550e+02
1.430000e-06	2.605697e-06	4.766019e-09	1.803663e+01	3.139784e+02
1.440000e-06	2.628007e-06	4.792506e-09	1.819106e+01	3.157764e+02
1.450000e-06	2.649400e-06	4.816983e-09	1.833914e+01	3.174494e+02
1.460000e-06	2.670062e-06	4.836649e-09	1.848216e+01	3.190025e+02
1.470000e-06	2.690031e-06	4.854332e-09	1.862038e+01	3.204471e+02
1.480000e-06	2.709009e-06	4.875317e-09	1.875176e+01	3.217980e+02
1.490000e-06	2.726973e-06	4.898563e-09	1.887610e+01	3.230690e+02
1.500000e-06	2.743994e-06	4.919889e-09	1.899392e+01	3.242695e+02
1.510000e-06	2.759904e-06	4.937745e-09	1.910404e+01	3.254020e+02
1.520000e-06	2.774709e-06	4.952899e-09	1.920652e+01	3.264630e+02
1.530000e-06	2.788504e-06	4.965535e-09	1.930202e+01	3.274461e+02
1.540000e-06	2.801279e-06	4.975441e-09	1.939045e+01	3.283459e+02
1.550000e-06	2.812932e-06	4.983951e-09	1.947110e+01	3.291611e+02
1.560000e-06	2.823261e-06	4.994206e-09	1.954261e+01	3.298956e+02
1.570000e-06	2.832439e-06	5.007802e-09	1.960613e+01	3.305567e+02
1.580000e-06	2.840703e-06	5.021678e-09	1.966334e+01	3.311524e+02
1.590000e-06	2.848044e-06	5.032390e-09	1.971415e+01	3.316881e+02
1.600000e-06	2.854389e-06	5.040371e-09	1.975807e+01	3.321646e+02
1.610000e-06	2.859783e-06	5.046008e-09	1.979541e+01	3.325791e+02
1.620000e-06	2.864413e-06	5.048348e-09	1.982746e+01	3.329270e+02
1.630000e-06	2.868088e-06	5.048577e-09	1.985290e+01	3.332056e+02
1.640000e-06	2.870400e-06	5.051516e-09	1.986890e+01	3.334162e+02
1.650000e-06	2.871517e-06	5.057940e-09	1.987663e+01	3.335646e+02
1.660000e-06	2.871787e-06	5.063581e-09	1.987850e+01	3.336588e+02
1.670000e-06	2.871149e-06	5.064772e-09	1.987408e+01	3.337056e+02
1.680000e-06	2.869598e-06	5.061792e-09	1.986335e+01	3.337067e+02
1.690000e-06	2.867181e-06	5.059442e-09	1.984662e+01	3.336571e+02
1.700000e-06	2.864015e-06	5.056901e-09	1.982471e+01	3.335458e+02
1.710000e-06	2.860075e-06	5.053812e-09	1.979743e+01	3.333600e+02
1.720000e-06	2.854998e-06	5.052974e-09	1.976229e+01	3.330895e+02
1.730000e-06	2.848693e-06	5.057889e-09	1.971865e+01	3.327323e+02
1.740000e-06	2.841492e-06	5.045289e-09	1.966880e+01	3.322961e+02
1.750000e-06	2.833372e-06	4.988875e-09	1.961259e+01	3.317975e+02
1.760000e-06	2.823740e-06	4.980486e-09	1.954592e+01	3.312571e+02
1.770000e-06	2.812509e-06	5.057138e-09	1.946818e+01	3.306940e+02
1.780000e-06	2.800659e-06	5.055552e-09	1.938615e+01	3.301196e+02
1.790000e-06	2.788829e-06	4.966115e-09	1.930427e+01	3.295346e+02
1.800000e-06	2.775910e-06	4.929117e-09	1.921484e+01	3.289298e+02
1.810000e-06	2.761146e-06	5.033587e-09	1.911264e+01	3.282892e+02
1.820000e-06	2.745523e-06	4.977211e-09	1.900450e+01	3.275961e+02
1.830000e-06	2.729378e-06	4.887941e-09	1.889275e+01	3.268382e+02
1.840000e-06	2.711852e-06	5.023837e-09	1.877143e+01	3.260104e+02
1.850000e-06	2.693087e-06	5.033284e-09	1.864154e+01	3.251152e+02
1.860000e-06	2.673809e-06	4.882674e-09	1.850809e+01	3.241603e+02
1.870000e-06	2.653665e-06	4.925611e-09	1.836866e+01	3.231538e+02
1.880000e-06	2.632118e-06	4.994686e-09	1.821951e+01	3.221012e+02
1.890000e-06	2.609602e-06	4.841234e-09	1.806366e+01	3.210028e+02
1.900000e-06	2.586171e-06	4.823193e-09	1.790147e+01	3.198539e+02
1.910000e-06	2.561685e-06	4.931966e-09	1.773197e+01	3.186473e+02
1.920000e-06	2.536572e-06	4.862343e-09	1.755814e+01	3.173756e+02
1.930000e-06	2.510650e-06	4.805400e-09	1.737871e+01	3.160338e+02
1.940000e-06	2.483835e-06	4.840051e-09	1.719310e+01	3.146200e+02
1.950000e-06	2.456474e-06	4.779029e-09	1.700371e+01	3.131346e+02
1.960000e-06	2.428137e-06	4.764968e-09	1.680756e+01	3.115793e+02
1.970000e-06	2.398395e-06	4.727972e-09	1.660168e+01	3.099548e+02
1.980000e-06	2.367694e-06	4.671782e-09	1.638917e+01	3.082615e+02
1.990000e-06	2.336331e-06	4.718878e-09	1.617207e+01	3.064997e+02
2.000000e-06	2.304257e-06	4.682757e-09	1.595006e+01	3.046712e+02
2.010000e-06	2.271419e-06	4.609521e-09	1.572276e+01	3.027811e+02
2.020000e-06	2.237679e-06	4.628067e-09	1.548921e+01	3.008374e+02
2.030000e-06	2.203193e-06	4.563708e-09	1.525049e+01	2.988499e+02
2.040000e-06	2.168176e-06	4.505575e-09	1.500811e+01	2.968276e+02
2.050000e-06	2.132513e-06	4.526445e-09	1.476125e+01	2.947749e+02
2.060000e-06	2.096073e-06	4.452589e-09	1.450901e+01	2.926909e+02
2.070000e-06	2.058571e-06	4.418344e-09	1.424942e+01	2.905689e+02
2.080000e-06	2.019980e-06	4.434692e-09	1.398229e+01	2.883992e+02
2.090000e-06	1.980763e-06	4.373882e-09	1.371084e+01	2.861728e+02
2.100000e-06	1.941032e-06	4.336097e-09	1.343582e+01	2.838854e+02
2.110000e-06	1.900626e-06	4.306054e-09	1.315613e+01	2.815388e+02
2.120000e-06	1.859605e-06	4.249514e-09	1.287218e+01	2.791403e+02
2.130000e-06	1.818020e-06	4.222829e-09	1.258433e+01	2.766990e+02
2.140000e-06	1.775839e-06	4.188363e-09	1.229235e+01	2.742214e+02
2.150000e-06	1.733069e-06	4.151568e-09	1.199630e+01	2.717072e+02
2.160000e-06	1.689860e-06	4.116178e-09	1.169720e+01	2.691481e+02
2.170000e-06	1.646236e-06	4.063051e-09	1.139524e+01	2.665294e+02
2.180000e-06	1.601976e-06	4.030931e-09	1.108887e+01	2.638352e+02
2.190000e-06	1.557027e-06	3.987967e-09	1.077773e+01	2.610539e+02
2.200000e-06	1.511552e-06	3.937239e-09	1.046296e+01	2.581831e+02
2.210000e-06	1.465632e-06	3.899919e-09	1.014510e+01	2.552301e+02
2.220000e-06	1.419332e-06	3.852232e-09	9.824611e+00	2.522099e+02
2.230000e-06	1.372521e-06	3.809468e-09	9.500588e+00	2.491388e+02
2.240000e-06	1.325108e-06	3.756230e-09	9.172394e+00	2.460280e+02
2.250000e-06	1.277065e-06	3.702472e-09	8.839837e+00	2.428780e+02
2.260000e-06	1.228449e-06	3.657425e-09	8.503322e+00	2.396777e+02
2.270000e-06	1.179453e-06	3.608558e-09	8.164168e+00	2.364079e+02
2.280000e-06	1.130004e-06	3.565138e-09	7.821886e+00	2.330473e+02
2.290000e-06	1.080098e-06	3.514656e-09	7.476436e+00	2.295810e+02
2.300000e-06	1.029727e-06	3.456669e-09	7.127770e+00	2.260053e+02
2.310000e-06	9.789201e-07	3.402812e-09	6.776082e+00	2.223293e+02
2.320000e-06	9.278676e-07	3.339969e-09	6.422696e+00	2.185714e+02
2.330000e-06	8.765672e-07	3.276102e-09	6.067595e+00	2.147523e+02
2.340000e-06	8.249314e-07	3.220820e-09	5.710173e+00	2.108874e+02
2.350000e-06	7.728885e-07	3.165241e-09	5.349932e+00	2.069803e+02
2.360000e-06	7.203774e-07	3.110114e-09	4.986450e+00	2.030220e+02
2.370000e-06	6.674422e-07	3.047199e-09	4.620033e+00	1.989940e+02
2.380000e-06	6.140894e-07	2.987442e-09	4.250725e+00	1.948747e+02
2.390000e-06	5.603338e-07	2.928264e-09	3.878629e+00	1.906470e+02
2.400000e-06	5.062601e-07	2.858612e-09	3.504331e+00	1.863032e+02
2.410000e-06	4.519067e-07	2.789301e-09	3.128097e+00	1.818460e+02
2.420000e-06	3.974199e-07	2.725184e-09	2.750940e+00	1.772853e+02
2.430000e-06	3.428068e-07	2.661851e-09	2.372908e+00	1.726318e+02
2.440000e-06	2.879824e-07	2.588175e-09	1.993414e+00	1.678903e+02
2.450000e-06	2.330598e-07	2.508750e-09	1.613239e+00	1.630559e+02
2.460000e-06	1.781005e-07	2.436108e-09	1.232811e+00	1.581140e+02
2.470000e-06	1.231152e-07	2.365185e-09	8.522028e-01	1.530442e+02
2.480000e-06	6.811680e-08	2.286075e-09	4.715043e-01	1.478269e+02
2.490000e-06	1.309546e-08	2.200190e-09	9.064676e-02	1.424490e+02
2.500000e-06	-4.195237e-08	2.114578e-09	-2.903942e-01	1.369073e+02
2.510000e-06	-9.698072e-08	2.031628e-09	-6.713002e-01	1.312075e+02
2.520000e-06	-1.519704e-07	1.946955e-09	-1.051938e+00	1.253594e+02
2.530000e-06	-2.069238e-07	1.855131e-09	-1.432326e+00	1.193705e+02
2.540000e-06	-2.618638e-07	1.757950e-09	-1.812621e+00	1.132403e+02
2.550000e-06	-3.167740e-07	1.660852e-09	-2.192709e+00	1.069575e+02
2.560000e-06	-3.715434e-07	1.568256e-09	-2.571822e+00	1.005007e+02
2.570000e-06	-4.261666e-07	1.470369e-09	-2.949924e+00	9.384351e+01
2.580000e-06	-4.806025e-07	1.361252e-09	-3.326729e+00	8.695995e+01
2.590000e-06	-5.347217e-07	1.249472e-09	-3.701342e+00	7.982923e+01
2.600000e-06	-5.885512e-07	1.139676e-09	-4.073949e+00	7.243774e+01
2.610000e-06	-6.419841e-07	1.027771e-09	-4.443812e+00	6.477751e+01
2.620000e-06	-6.949478e-07	9.061017e-10	-4.810426e+00	5.684212e+01
2.630000e-06	-7.474727e-07	7.774758e-10	-5.174004e+00	4.862200e+01
2.640000e-06	-7.995628e-07	6.464390e-10	-5.534572e+00	4.010123e+01
2.650000e-06	-8.512887e-07	5.141540e-10	-5.892618e+00	3.125720e+01
2.660000e-06	-9.026899e-07	3.762208e-10	-6.248417e+00	2.206318e+01
2.670000e-06	-9.538467e-07	2.305509e-10	-6.602524e+00	1.249292e+01
2.680000e-06	-1.004719e-06	8.007770e-11	-6.954662e+00	2.525201e+00
2.690000e-06	-1.055178e-06	-7.453615e-11	-7.303938e+00	-7.852982e+00
2.700000e-06	-1.105181e-06	-2.377673e-10	-7.650063e+00	-1.864538e+01
2.710000e-06	-1.154743e-06	-4.123645e-10	-7.993131e+00	-2.984711e+01
2.720000e-06	-1.203868e-06	-5.919782e-10	-8.333171e+00	-4.144538e+01
2.730000e-06	-1.252584e-06	-7.725876e-10	-8.670384e+00	-5.341884e+01
2.740000e-06	-1.300671e-06	-9.559836e-10	-9.003237e+00	-6.573459e+01
2.750000e-06	-1.347842e-06	-1.147619e-09	-9.329758e+00	-7.834339e+01
2.760000e-06	-1.394222e-06	-1.347012e-09	-9.650800e+00	-9.117477e+01
2.770000e-06	-1.440092e-06	-1.547794e-09	-9.968315e+00	-1.041345e+02
2.780000e-06	-1.485649e-06	-1.746171e-09	-1.028366e+01	-1.171069e+02
2.790000e-06	-1.530924e-06	-1.943658e-09	-1.059705e+01	-1.299618e+02
2.800000e-06	-1.575787e-06	-2.139525e-09	-1.090759e+01	-1.425672e+02
2.810000e-06	-1.620088e-06	-2.327036e-09	-1.121424e+01	-1.548021e+02
2.820000e-06	-1.663803e-06	-2.505250e-09	-1.151684e+01	-1.665686e+02
2.830000e-06	-1.707084e-06	-2.675792e-09	-1.181643e+01	-1.777985e+02
2.840000e-06	-1.750026e-06	-2.839459e-09	-1.211367e+01	-1.884533e+02
2.850000e-06	-1.792473e-06	-2.995512e-09	-1.240749e+01	-1.985180e+02
2.860000e-06	-1.834297e-06	-3.142661e-09	-1.269700e+01	-2.079927e+02
2.870000e-06	-1.875504e-06	-3.279017e-09	-1.298224e+01	-2.168828e+02
2.880000e-06	-1.916086e-06	-3.405822e-09	-1.326314e+01	-2.251938e+02
2.890000e-06	-1.955987e-06	-3.526116e-09	-1.353933e+01	-2.329306e+02
2.900000e-06	-1.995318e-06	-3.637938e-09	-1.381158e+01	-2.401018e+02
2.910000e-06	-2.034120e-06	-3.739301e-09	-1.408017e+01	-2.467256e+02
2.920000e-06	-2.072089e-06	-3.833155e-09	-1.434300e+01	-2.528349e+02
2.930000e-06	-2.108996e-06	-3.922103e-09	-1.459846e+01	-2.584781e+02
2.940000e-06	-2.144913e-06	-4.003816e-09	-1.484708e+01	-2.637148e+02
