# Temperatura_=_17.08
# Concentracion g/m^3_=_13400.0
# C_Vs_to_Am_M_A/Vsm_=_65563218390.804596
# pendiente_HvsI_1/m_=_3716.3
# ordenada_HvsI_A/m_=_1297.0
# frecuencia_Hz_=_300848.5946102754

Tiempo_(s)	Campo_(V.s)	Magnetizacion_(V.s)	Campo_(kA/m)	Magnetizacion_(A/m)
0.000000e+00	-2.857526e-06	-5.310838e-09	-1.980303e+01	-3.469735e+02
1.000000e-08	-2.856691e-06	-5.304610e-09	-1.979725e+01	-3.469668e+02
2.000000e-08	-2.854924e-06	-5.298655e-09	-1.978500e+01	-3.468905e+02
3.000000e-08	-2.851900e-06	-5.296718e-09	-1.976404e+01	-3.467383e+02
4.000000e-08	-2.847756e-06	-5.296978e-09	-1.973533e+01	-3.465052e+02
5.000000e-08	-2.842859e-06	-5.293037e-09	-1.970139e+01	-3.461892e+02
6.000000e-08	-2.837149e-06	-5.285780e-09	-1.966182e+01	-3.457924e+02
7.000000e-08	-2.830483e-06	-5.269596e-09	-1.961562e+01	-3.453215e+02
8.000000e-08	-2.822778e-06	-5.254461e-09	-1.956222e+01	-3.447870e+02
9.000000e-08	-2.813883e-06	-5.272598e-09	-1.950058e+01	-3.442025e+02
1.000000e-07	-2.803562e-06	-5.303663e-09	-1.942906e+01	-3.435826e+02
1.100000e-07	-2.791938e-06	-5.236333e-09	-1.934850e+01	-3.429413e+02
1.200000e-07	-2.779552e-06	-5.153698e-09	-1.926266e+01	-3.422898e+02
1.300000e-07	-2.766401e-06	-5.202389e-09	-1.917152e+01	-3.416342e+02
1.400000e-07	-2.752200e-06	-5.298989e-09	-1.907311e+01	-3.409737e+02
1.500000e-07	-2.736994e-06	-5.160200e-09	-1.896773e+01	-3.403000e+02
1.600000e-07	-2.720646e-06	-5.120468e-09	-1.885444e+01	-3.395973e+02
1.700000e-07	-2.702945e-06	-5.270835e-09	-1.873177e+01	-3.388441e+02
1.800000e-07	-2.684335e-06	-5.176305e-09	-1.860280e+01	-3.380168e+02
1.900000e-07	-2.665128e-06	-5.058664e-09	-1.846969e+01	-3.370936e+02
2.000000e-07	-2.645042e-06	-5.154986e-09	-1.833049e+01	-3.360598e+02
2.100000e-07	-2.624016e-06	-5.143391e-09	-1.818478e+01	-3.349108e+02
2.200000e-07	-2.602230e-06	-5.004738e-09	-1.803380e+01	-3.336536e+02
2.300000e-07	-2.579571e-06	-5.101702e-09	-1.787677e+01	-3.323049e+02
2.400000e-07	-2.555910e-06	-5.138431e-09	-1.771279e+01	-3.308869e+02
2.500000e-07	-2.531485e-06	-4.989215e-09	-1.754353e+01	-3.294209e+02
2.600000e-07	-2.506259e-06	-4.971140e-09	-1.736871e+01	-3.279210e+02
2.700000e-07	-2.479958e-06	-5.013048e-09	-1.718644e+01	-3.263904e+02
2.800000e-07	-2.452540e-06	-4.929117e-09	-1.699643e+01	-3.248201e+02
2.900000e-07	-2.424149e-06	-4.916155e-09	-1.679968e+01	-3.231924e+02
3.000000e-07	-2.394949e-06	-4.911447e-09	-1.659732e+01	-3.214869e+02
3.100000e-07	-2.365025e-06	-4.881799e-09	-1.638994e+01	-3.196875e+02
3.200000e-07	-2.334386e-06	-4.889433e-09	-1.617760e+01	-3.177887e+02
3.300000e-07	-2.302936e-06	-4.821214e-09	-1.595965e+01	-3.157971e+02
3.400000e-07	-2.270705e-06	-4.768464e-09	-1.573629e+01	-3.137303e+02
3.500000e-07	-2.237856e-06	-4.757824e-09	-1.550864e+01	-3.116104e+02
3.600000e-07	-2.204314e-06	-4.720184e-09	-1.527619e+01	-3.094569e+02
3.700000e-07	-2.169736e-06	-4.694306e-09	-1.503656e+01	-3.072797e+02
3.800000e-07	-2.134031e-06	-4.696745e-09	-1.478912e+01	-3.050757e+02
3.900000e-07	-2.097564e-06	-4.630201e-09	-1.453640e+01	-3.028302e+02
4.000000e-07	-2.060532e-06	-4.598872e-09	-1.427976e+01	-3.005219e+02
4.100000e-07	-2.022823e-06	-4.582143e-09	-1.401843e+01	-2.981315e+02
4.200000e-07	-1.984353e-06	-4.511121e-09	-1.375183e+01	-2.956484e+02
4.300000e-07	-1.945117e-06	-4.465233e-09	-1.347992e+01	-2.930749e+02
4.400000e-07	-1.905251e-06	-4.445876e-09	-1.320365e+01	-2.904262e+02
4.500000e-07	-1.864936e-06	-4.411566e-09	-1.292425e+01	-2.877242e+02
4.600000e-07	-1.824203e-06	-4.368085e-09	-1.264197e+01	-2.849896e+02
4.700000e-07	-1.782765e-06	-4.334005e-09	-1.235480e+01	-2.822345e+02
4.800000e-07	-1.740288e-06	-4.273376e-09	-1.206043e+01	-2.794569e+02
4.900000e-07	-1.696797e-06	-4.218846e-09	-1.175903e+01	-2.766412e+02
5.000000e-07	-1.652625e-06	-4.180449e-09	-1.145291e+01	-2.737630e+02
5.100000e-07	-1.608083e-06	-4.145126e-09	-1.114423e+01	-2.707976e+02
5.200000e-07	-1.563130e-06	-4.095902e-09	-1.083270e+01	-2.677283e+02
5.300000e-07	-1.517611e-06	-4.051521e-09	-1.051725e+01	-2.645514e+02
5.400000e-07	-1.471511e-06	-4.007710e-09	-1.019777e+01	-2.612773e+02
5.500000e-07	-1.424860e-06	-3.947087e-09	-9.874469e+00	-2.579254e+02
5.600000e-07	-1.377677e-06	-3.891879e-09	-9.547485e+00	-2.545164e+02
5.700000e-07	-1.330030e-06	-3.835063e-09	-9.217287e+00	-2.510639e+02
5.800000e-07	-1.281975e-06	-3.787122e-09	-8.884255e+00	-2.475693e+02
5.900000e-07	-1.233568e-06	-3.739161e-09	-8.548791e+00	-2.440203e+02
6.000000e-07	-1.184841e-06	-3.687651e-09	-8.211102e+00	-2.403958e+02
6.100000e-07	-1.135614e-06	-3.625178e-09	-7.869957e+00	-2.366734e+02
6.200000e-07	-1.085641e-06	-3.560412e-09	-7.523633e+00	-2.328378e+02
6.300000e-07	-1.035025e-06	-3.501985e-09	-7.172862e+00	-2.288861e+02
6.400000e-07	-9.839230e-07	-3.442319e-09	-6.818717e+00	-2.248297e+02
6.500000e-07	-9.322737e-07	-3.378639e-09	-6.460781e+00	-2.206896e+02
6.600000e-07	-8.801510e-07	-3.311261e-09	-6.099563e+00	-2.164893e+02
6.700000e-07	-8.277555e-07	-3.251422e-09	-5.736455e+00	-2.122471e+02
6.800000e-07	-7.751460e-07	-3.187579e-09	-5.371865e+00	-2.079695e+02
6.900000e-07	-7.222745e-07	-3.119185e-09	-5.005458e+00	-2.036496e+02
7.000000e-07	-6.691729e-07	-3.047082e-09	-4.637457e+00	-1.992703e+02
7.100000e-07	-6.158603e-07	-2.978850e-09	-4.267993e+00	-1.948101e+02
7.200000e-07	-5.622749e-07	-2.911601e-09	-3.896640e+00	-1.902503e+02
7.300000e-07	-5.084491e-07	-2.839947e-09	-3.523620e+00	-1.855805e+02
7.400000e-07	-4.544273e-07	-2.764287e-09	-3.149242e+00	-1.807998e+02
7.500000e-07	-4.002181e-07	-2.684627e-09	-2.773565e+00	-1.759148e+02
7.600000e-07	-3.459054e-07	-2.608273e-09	-2.397170e+00	-1.709341e+02
7.700000e-07	-2.915299e-07	-2.530224e-09	-2.020341e+00	-1.658630e+02
7.800000e-07	-2.370931e-07	-2.450630e-09	-1.643087e+00	-1.606994e+02
7.900000e-07	-1.826206e-07	-2.368699e-09	-1.265585e+00	-1.554329e+02
8.000000e-07	-1.281185e-07	-2.287570e-09	-8.878781e-01	-1.500476e+02
8.100000e-07	-7.358162e-08	-2.203366e-09	-5.099304e-01	-1.445271e+02
8.200000e-07	-1.901647e-08	-2.115536e-09	-1.317867e-01	-1.388598e+02
8.300000e-07	3.554899e-08	-2.023630e-09	2.463592e-01	-1.330415e+02
8.400000e-07	9.008335e-08	-1.927229e-09	6.242895e-01	-1.270760e+02
8.500000e-07	1.446154e-07	-1.833951e-09	1.002204e+00	-1.209716e+02
8.600000e-07	1.991341e-07	-1.741200e-09	1.380026e+00	-1.147363e+02
8.700000e-07	2.536057e-07	-1.646700e-09	1.757521e+00	-1.083724e+02
8.800000e-07	3.080198e-07	-1.547715e-09	2.134618e+00	-1.018736e+02
8.900000e-07	3.623482e-07	-1.446290e-09	2.511121e+00	-9.522476e+01
9.000000e-07	4.165666e-07	-1.338581e-09	2.886862e+00	-8.840450e+01
9.100000e-07	4.706622e-07	-1.227844e-09	3.261752e+00	-8.138966e+01
9.200000e-07	5.245769e-07	-1.118263e-09	3.635388e+00	-7.415972e+01
9.300000e-07	5.782679e-07	-1.006231e-09	4.007473e+00	-6.669952e+01
9.400000e-07	6.317064e-07	-8.897741e-10	4.377809e+00	-5.899960e+01
9.500000e-07	6.848647e-07	-7.677602e-10	4.746203e+00	-5.105410e+01
9.600000e-07	7.377551e-07	-6.435368e-10	5.112741e+00	-4.285743e+01
9.700000e-07	7.904041e-07	-5.144343e-10	5.477605e+00	-3.440105e+01
9.800000e-07	8.428242e-07	-3.795664e-10	5.840883e+00	-2.567172e+01
9.900000e-07	8.949787e-07	-2.377223e-10	6.202321e+00	-1.665181e+01
1.000000e-06	9.467750e-07	-9.230052e-11	6.561277e+00	-7.321461e+00
1.010000e-06	9.980598e-07	5.364910e-11	6.916687e+00	2.338147e+00
1.020000e-06	1.048687e-06	2.028694e-10	7.267541e+00	1.234168e+01
1.030000e-06	1.098679e-06	3.622040e-10	7.613988e+00	2.269730e+01
1.040000e-06	1.148079e-06	5.309060e-10	7.956339e+00	3.340547e+01
1.050000e-06	1.196963e-06	6.991328e-10	8.295111e+00	4.445851e+01
1.060000e-06	1.245518e-06	8.706868e-10	8.631607e+00	5.584011e+01
1.070000e-06	1.293830e-06	1.050415e-09	8.966417e+00	6.752434e+01
1.080000e-06	1.341772e-06	1.235508e-09	9.298660e+00	7.947397e+01
1.090000e-06	1.389169e-06	1.418466e-09	9.627128e+00	9.163847e+01
1.100000e-06	1.436039e-06	1.601335e-09	9.951939e+00	1.039528e+02
1.110000e-06	1.482451e-06	1.788991e-09	1.027358e+01	1.163382e+02
1.120000e-06	1.528362e-06	1.979649e-09	1.059175e+01	1.287046e+02
1.130000e-06	1.573659e-06	2.167158e-09	1.090567e+01	1.409570e+02
1.140000e-06	1.618440e-06	2.350463e-09	1.121600e+01	1.530013e+02
1.150000e-06	1.662916e-06	2.531245e-09	1.152423e+01	1.647519e+02
1.160000e-06	1.707019e-06	2.705108e-09	1.182987e+01	1.761363e+02
1.170000e-06	1.750440e-06	2.869323e-09	1.213078e+01	1.870978e+02
1.180000e-06	1.792920e-06	3.023723e-09	1.242518e+01	1.975950e+02
1.190000e-06	1.834403e-06	3.173601e-09	1.271266e+01	2.075993e+02
1.200000e-06	1.875144e-06	3.320479e-09	1.299500e+01	2.170914e+02
1.210000e-06	1.915461e-06	3.459835e-09	1.327440e+01	2.260589e+02
1.220000e-06	1.955292e-06	3.587852e-09	1.355044e+01	2.344949e+02
1.230000e-06	1.994413e-06	3.705111e-09	1.382155e+01	2.423995e+02
1.240000e-06	2.032829e-06	3.815108e-09	1.408777e+01	2.497820e+02
1.250000e-06	2.070554e-06	3.918458e-09	1.434922e+01	2.566627e+02
1.260000e-06	2.107583e-06	4.014061e-09	1.460583e+01	2.630737e+02
1.270000e-06	2.144060e-06	4.102929e-09	1.485862e+01	2.690568e+02
1.280000e-06	2.179964e-06	4.188841e-09	1.510744e+01	2.746592e+02
1.290000e-06	2.214923e-06	4.271117e-09	1.534971e+01	2.799276e+02
1.300000e-06	2.248702e-06	4.345956e-09	1.558380e+01	2.849019e+02
1.310000e-06	2.281545e-06	4.414967e-09	1.581141e+01	2.896109e+02
1.320000e-06	2.313732e-06	4.481614e-09	1.603447e+01	2.940703e+02
1.330000e-06	2.345220e-06	4.546293e-09	1.625268e+01	2.982848e+02
1.340000e-06	2.375951e-06	4.605109e-09	1.646566e+01	3.022515e+02
1.350000e-06	2.405888e-06	4.657544e-09	1.667313e+01	3.059660e+02
1.360000e-06	2.435003e-06	4.707410e-09	1.687490e+01	3.094271e+02
1.370000e-06	2.463463e-06	4.756112e-09	1.707213e+01	3.126404e+02
1.380000e-06	2.491187e-06	4.800286e-09	1.726426e+01	3.156191e+02
1.390000e-06	2.517789e-06	4.839633e-09	1.744861e+01	3.183829e+02
1.400000e-06	2.543169e-06	4.877219e-09	1.762450e+01	3.209546e+02
1.410000e-06	2.567579e-06	4.914241e-09	1.779366e+01	3.233564e+02
1.420000e-06	2.591157e-06	4.950142e-09	1.795706e+01	3.256072e+02
1.430000e-06	2.613865e-06	4.982822e-09	1.811443e+01	3.277203e+02
1.440000e-06	2.635707e-06	5.011260e-09	1.826580e+01	3.297034e+02
1.450000e-06	2.656732e-06	5.034738e-09	1.841150e+01	3.315599e+02
1.460000e-06	2.677050e-06	5.056400e-09	1.855231e+01	3.332907e+02
1.470000e-06	2.696528e-06	5.079957e-09	1.868729e+01	3.348969e+02
1.480000e-06	2.714975e-06	5.105323e-09	1.881513e+01	3.363808e+02
1.490000e-06	2.732423e-06	5.129569e-09	1.893606e+01	3.377473e+02
1.500000e-06	2.748892e-06	5.149396e-09	1.905019e+01	3.390037e+02
1.510000e-06	2.764259e-06	5.165983e-09	1.915668e+01	3.401590e+02
1.520000e-06	2.778523e-06	5.181636e-09	1.925553e+01	3.412225e+02
1.530000e-06	2.791781e-06	5.195211e-09	1.934741e+01	3.422024e+02
1.540000e-06	2.804037e-06	5.204853e-09	1.943235e+01	3.431052e+02
1.550000e-06	2.815109e-06	5.213118e-09	1.950908e+01	3.439344e+02
1.560000e-06	2.824835e-06	5.225023e-09	1.957648e+01	3.446911e+02
1.570000e-06	2.833472e-06	5.241145e-09	1.963634e+01	3.453745e+02
1.580000e-06	2.841221e-06	5.256207e-09	1.969004e+01	3.459830e+02
1.590000e-06	2.848038e-06	5.266468e-09	1.973728e+01	3.465155e+02
1.600000e-06	2.853863e-06	5.271346e-09	1.977765e+01	3.469721e+02
1.610000e-06	2.858815e-06	5.273423e-09	1.981197e+01	3.473549e+02
1.620000e-06	2.862962e-06	5.276453e-09	1.984070e+01	3.476679e+02
1.630000e-06	2.865972e-06	5.280544e-09	1.986157e+01	3.479157e+02
1.640000e-06	2.867709e-06	5.283444e-09	1.987360e+01	3.481022e+02
1.650000e-06	2.868416e-06	5.285922e-09	1.987850e+01	3.482298e+02
1.660000e-06	2.868258e-06	5.290167e-09	1.987741e+01	3.482979e+02
1.670000e-06	2.867211e-06	5.293719e-09	1.987015e+01	3.483031e+02
1.680000e-06	2.865223e-06	5.292172e-09	1.985637e+01	3.482399e+02
1.690000e-06	2.862384e-06	5.289345e-09	1.983670e+01	3.481018e+02
1.700000e-06	2.858819e-06	5.287969e-09	1.981199e+01	3.478835e+02
1.710000e-06	2.854341e-06	5.284206e-09	1.978096e+01	3.475824e+02
1.720000e-06	2.848631e-06	5.272490e-09	1.974139e+01	3.471999e+02
1.730000e-06	2.841833e-06	5.277154e-09	1.969428e+01	3.467417e+02
1.740000e-06	2.834179e-06	5.268921e-09	1.964124e+01	3.462178e+02
1.750000e-06	2.825395e-06	5.221995e-09	1.958036e+01	3.456412e+02
1.760000e-06	2.815045e-06	5.189607e-09	1.950864e+01	3.450267e+02
1.770000e-06	2.803508e-06	5.284937e-09	1.942868e+01	3.443885e+02
1.780000e-06	2.791709e-06	5.300086e-09	1.934691e+01	3.437384e+02
1.790000e-06	2.779476e-06	5.173052e-09	1.926213e+01	3.430834e+02
1.800000e-06	2.765629e-06	5.140442e-09	1.916617e+01	3.424243e+02
1.810000e-06	2.750249e-06	5.263084e-09	1.905959e+01	3.417541e+02
1.820000e-06	2.734330e-06	5.212514e-09	1.894927e+01	3.410582e+02
1.830000e-06	2.717581e-06	5.079818e-09	1.883320e+01	3.403159e+02
1.840000e-06	2.699424e-06	5.238726e-09	1.870736e+01	3.395036e+02
1.850000e-06	2.680394e-06	5.266662e-09	1.857548e+01	3.385991e+02
1.860000e-06	2.660808e-06	5.058874e-09	1.843975e+01	3.375858e+02
1.870000e-06	2.640067e-06	5.135145e-09	1.829601e+01	3.364574e+02
1.880000e-06	2.618076e-06	5.220737e-09	1.814362e+01	3.352186e+02
1.890000e-06	2.595182e-06	5.004312e-09	1.798496e+01	3.338849e+02
1.900000e-06	2.571304e-06	5.016615e-09	1.781948e+01	3.324777e+02
1.910000e-06	2.546545e-06	5.141153e-09	1.764790e+01	3.310191e+02
1.920000e-06	2.521126e-06	5.035275e-09	1.747174e+01	3.295249e+02
1.930000e-06	2.494792e-06	4.982999e-09	1.728924e+01	3.280002e+02
1.940000e-06	2.467652e-06	5.029658e-09	1.710115e+01	3.264382e+02
1.950000e-06	2.439837e-06	4.952660e-09	1.690839e+01	3.248224e+02
1.960000e-06	2.410834e-06	4.934142e-09	1.670740e+01	3.231324e+02
1.970000e-06	2.380618e-06	4.912463e-09	1.649800e+01	3.213507e+02
1.980000e-06	2.349589e-06	4.846713e-09	1.628297e+01	3.194696e+02
1.990000e-06	2.317863e-06	4.895540e-09	1.606310e+01	3.174937e+02
2.000000e-06	2.285454e-06	4.848427e-09	1.583850e+01	3.154389e+02
2.010000e-06	2.252243e-06	4.774190e-09	1.560834e+01	3.133270e+02
2.020000e-06	2.218201e-06	4.795320e-09	1.537243e+01	3.111786e+02
2.030000e-06	2.183524e-06	4.715499e-09	1.513211e+01	3.090056e+02
2.040000e-06	2.148214e-06	4.660462e-09	1.488741e+01	3.068074e+02
2.050000e-06	2.112206e-06	4.681198e-09	1.463787e+01	3.045709e+02
2.060000e-06	2.075394e-06	4.603133e-09	1.438275e+01	3.022756e+02
2.070000e-06	2.037478e-06	4.579463e-09	1.411999e+01	2.999011e+02
2.080000e-06	1.998577e-06	4.583008e-09	1.385040e+01	2.974348e+02
2.090000e-06	1.959140e-06	4.506920e-09	1.357710e+01	2.948769e+02
2.100000e-06	1.919181e-06	4.474232e-09	1.330018e+01	2.922403e+02
2.110000e-06	1.878540e-06	4.421039e-09	1.301853e+01	2.895462e+02
2.120000e-06	1.837247e-06	4.360594e-09	1.273236e+01	2.868164e+02
2.130000e-06	1.795410e-06	4.343109e-09	1.244243e+01	2.840648e+02
2.140000e-06	1.752990e-06	4.303252e-09	1.214845e+01	2.812922e+02
2.150000e-06	1.709980e-06	4.265449e-09	1.185039e+01	2.784850e+02
2.160000e-06	1.666531e-06	4.215379e-09	1.154928e+01	2.756200e+02
2.170000e-06	1.622616e-06	4.161647e-09	1.124495e+01	2.726719e+02
2.180000e-06	1.578086e-06	4.123640e-09	1.093634e+01	2.696220e+02
2.190000e-06	1.532887e-06	4.061679e-09	1.062311e+01	2.664641e+02
2.200000e-06	1.487127e-06	4.011468e-09	1.030598e+01	2.632062e+02
2.210000e-06	1.440992e-06	3.978176e-09	9.986266e+00	2.598668e+02
2.220000e-06	1.394463e-06	3.920699e-09	9.663810e+00	2.564668e+02
2.230000e-06	1.347478e-06	3.872295e-09	9.338203e+00	2.530218e+02
2.240000e-06	1.299923e-06	3.807978e-09	9.008639e+00	2.495354e+02
2.250000e-06	1.251659e-06	3.747001e-09	8.674160e+00	2.459976e+02
2.260000e-06	1.202847e-06	3.705490e-09	8.335889e+00	2.423884e+02
2.270000e-06	1.153625e-06	3.646172e-09	7.994776e+00	2.386851e+02
2.280000e-06	1.103995e-06	3.590088e-09	7.650832e+00	2.348704e+02
2.290000e-06	1.053950e-06	3.526649e-09	7.304015e+00	2.309392e+02
2.300000e-06	1.003434e-06	3.463367e-09	6.953932e+00	2.269003e+02
2.310000e-06	9.525196e-07	3.403477e-09	6.601087e+00	2.227735e+02
2.320000e-06	9.013529e-07	3.331117e-09	6.246495e+00	2.185826e+02
2.330000e-06	8.499263e-07	3.265707e-09	5.890102e+00	2.143471e+02
2.340000e-06	7.981766e-07	3.208752e-09	5.531469e+00	2.100761e+02
2.350000e-06	7.460584e-07	3.148517e-09	5.170283e+00	2.057649e+02
2.360000e-06	6.934987e-07	3.082081e-09	4.806038e+00	2.013979e+02
2.370000e-06	6.404892e-07	3.006654e-09	4.438675e+00	1.969538e+02
2.380000e-06	5.870893e-07	2.938224e-09	4.068606e+00	1.924131e+02
2.390000e-06	5.333288e-07	2.874335e-09	3.696039e+00	1.877634e+02
2.400000e-06	4.792078e-07	2.802623e-09	3.320974e+00	1.830023e+02
2.410000e-06	4.248029e-07	2.730155e-09	2.943941e+00	1.781354e+02
2.420000e-06	3.702388e-07	2.654130e-09	2.565804e+00	1.731713e+02
2.430000e-06	3.155678e-07	2.581302e-09	2.186927e+00	1.681165e+02
2.440000e-06	2.607800e-07	2.505298e-09	1.807240e+00	1.629701e+02
2.450000e-06	2.058694e-07	2.421563e-09	1.426702e+00	1.577231e+02
2.460000e-06	1.509141e-07	2.340389e-09	1.045854e+00	1.523604e+02
2.470000e-06	9.595836e-08	2.257701e-09	6.650042e-01	1.468653e+02
2.480000e-06	4.099624e-08	2.174638e-09	2.841094e-01	1.412249e+02
2.490000e-06	-1.399202e-08	2.087272e-09	-9.696653e-02	1.354336e+02
2.500000e-06	-6.901207e-08	1.995326e-09	-4.782628e-01	1.294940e+02
2.510000e-06	-1.240485e-07	1.903864e-09	-8.596727e-01	1.234139e+02
2.520000e-06	-1.790440e-07	1.811834e-09	-1.240798e+00	1.172018e+02
2.530000e-06	-2.339638e-07	1.716160e-09	-1.621400e+00	1.108612e+02
2.540000e-06	-2.888407e-07	1.615595e-09	-2.001704e+00	1.043875e+02
2.550000e-06	-3.435957e-07	1.514460e-09	-2.381164e+00	9.776702e+01
2.560000e-06	-3.981568e-07	1.414105e-09	-2.759279e+00	9.097922e+01
2.570000e-06	-4.525376e-07	1.308443e-09	-3.136145e+00	8.400091e+01
2.580000e-06	-5.066711e-07	1.194982e-09	-3.511298e+00	7.681081e+01
2.590000e-06	-5.604973e-07	1.081208e-09	-3.884321e+00	6.939272e+01
2.600000e-06	-6.140002e-07	9.674373e-10	-4.255103e+00	6.173624e+01
2.610000e-06	-6.671046e-07	8.497340e-10	-4.623123e+00	5.383511e+01
2.620000e-06	-7.197338e-07	7.245385e-10	-4.987851e+00	4.568395e+01
2.630000e-06	-7.718890e-07	5.943403e-10	-5.349293e+00	3.727492e+01
2.640000e-06	-8.236409e-07	4.624470e-10	-5.707941e+00	2.859566e+01
2.650000e-06	-8.751418e-07	3.288137e-10	-6.064849e+00	1.962922e+01
2.660000e-06	-9.264422e-07	1.905019e-10	-6.420367e+00	1.035591e+01
2.670000e-06	-9.774688e-07	4.376652e-11	-6.773989e+00	7.564754e-01
2.680000e-06	-1.028185e-06	-1.089375e-10	-7.125455e+00	-9.184685e+00
2.690000e-06	-1.078462e-06	-2.659001e-10	-7.473884e+00	-1.947702e+01
2.700000e-06	-1.128237e-06	-4.266650e-10	-7.818834e+00	-3.012242e+01
2.710000e-06	-1.177579e-06	-5.942732e-10	-8.160779e+00	-4.111467e+01
2.720000e-06	-1.226467e-06	-7.675162e-10	-8.499580e+00	-5.243905e+01
2.730000e-06	-1.274735e-06	-9.435645e-10	-8.834081e+00	-6.407147e+01
2.740000e-06	-1.322224e-06	-1.123030e-09	-9.163185e+00	-7.597686e+01
2.750000e-06	-1.368950e-06	-1.309794e-09	-9.487002e+00	-8.810719e+01
2.760000e-06	-1.415137e-06	-1.502323e-09	-9.807089e+00	-1.004001e+02
2.770000e-06	-1.460944e-06	-1.692710e-09	-1.012453e+01	-1.127789e+02
2.780000e-06	-1.506383e-06	-1.880903e-09	-1.043943e+01	-1.251555e+02
2.790000e-06	-1.551453e-06	-2.068157e-09	-1.075178e+01	-1.374351e+02
2.800000e-06	-1.596041e-06	-2.253847e-09	-1.106078e+01	-1.495231e+02
2.810000e-06	-1.640074e-06	-2.435301e-09	-1.136593e+01	-1.613317e+02
2.820000e-06	-1.683594e-06	-2.610412e-09	-1.166753e+01	-1.727860e+02
2.830000e-06	-1.726701e-06	-2.778820e-09	-1.196626e+01	-1.838263e+02
2.840000e-06	-1.769390e-06	-2.940842e-09	-1.226211e+01	-1.944086e+02
2.850000e-06	-1.811472e-06	-3.096756e-09	-1.255374e+01	-2.045024e+02
2.860000e-06	-1.852911e-06	-3.244875e-09	-1.284092e+01	-2.140870e+02
2.870000e-06	-1.893760e-06	-3.384996e-09	-1.312401e+01	-2.231486e+02
2.880000e-06	-1.933994e-06	-3.518266e-09	-1.340284e+01	-2.316796e+02
2.890000e-06	-1.973608e-06	-3.643665e-09	-1.367737e+01	-2.396786e+02
2.900000e-06	-2.012655e-06	-3.758135e-09	-1.394796e+01	-2.471531e+02
2.910000e-06	-2.051011e-06	-3.864015e-09	-1.421378e+01	-2.541212e+02
2.920000e-06	-2.088368e-06	-3.965205e-09	-1.447266e+01	-2.606131e+02
2.930000e-06	-2.124678e-06	-4.060685e-09	-1.472430e+01	-2.666690e+02
2.940000e-06	-2.160184e-06	-4.148294e-09	-1.497036e+01	-2.723358e+02
